File Path	chrom://chromeleon01/ikbm_chromeleon/2022/ICS-5000/ED1/Esteban/20220427_Cell_Amandas_mutants.seq/284.smp/ED_1.channel/ED_1.chm
Channel	ED_1

Injection Information:
Data Vault	ikbm_chromeleon
Injection	1h_Avi_WT
Injection Number	65
Position	GC1
Comment	
Processing Method	Stop sequence after Cell Death
Instrument Method	ICS5000_PA200_FullNative_Ox_26min_ED1
Type	Unknown
Status	Finished
Injection Date	28.04.2022
Injection Time	19:32:51
Injection Volume (µl)	5,0
Dilution Factor	1,0000
Weight	1,0000

Chromatogram Data Information:
Time Min. (min)	0,000333
Time Max. (min)	26,000333
Data Points	3121
Detector	EDet1
Generating Data System	Chromeleon 7.2.9.11323
Exporting Data System	Chromeleon 7.2.9.0
Operator	Instrument Controller
Signal Quantity	
Signal Unit	nC
Signal Min.	-8,596400
Signal Max.	28,321900
Channel	ED_1
Driver Name	DC-5000
Channel Type	Evaluation
Min. Step (s)	0,5
Max. Step (s)	0,5
Average Step (s)	0,5

Signal Parameter Information:
Signal Info	

Chromatogram Data:
Time (min)	Step (s)	Value (nC)
0,000333	n.a.	-0,049950
0,008667	0,5	-0,109500
0,017000	0,5	-0,101700
0,025333	0,5	-0,088500
0,033667	0,5	-0,075650
0,042000	0,5	-0,048350
0,050333	0,5	-0,055900
0,058667	0,5	-0,041650
0,067000	0,5	-0,033300
0,075333	0,5	-0,024200
0,083667	0,5	-0,041900
0,092000	0,5	0,014900
0,100333	0,5	-0,029900
0,108667	0,5	-0,037100
0,117000	0,5	-0,034650
0,125333	0,5	-0,017700
0,133667	0,5	0,029350
0,142000	0,5	0,018300
0,150333	0,5	0,014900
0,158667	0,5	0,004050
0,167000	0,5	-0,000050
0,175333	0,5	-0,008300
0,183667	0,5	-0,000800
0,192000	0,5	-0,008600
0,200333	0,5	-0,004150
0,208667	0,5	-0,011950
0,217000	0,5	-0,004250
0,225333	0,5	-0,026450
0,233667	0,5	-0,021500
0,242000	0,5	0,001150
0,250333	0,5	-0,017300
0,258667	0,5	-0,028350
0,267000	0,5	-0,016800
0,275333	0,5	0,002400
0,283667	0,5	0,035650
0,292000	0,5	0,011150
0,300333	0,5	0,021950
0,308667	0,5	0,080600
0,317000	0,5	0,057150
0,325333	0,5	0,003250
0,333667	0,5	-0,017000
0,342000	0,5	-0,008450
0,350333	0,5	-0,015750
0,358667	0,5	-0,010700
0,367000	0,5	-0,011250
0,375333	0,5	-0,017050
0,383667	0,5	-0,007700
0,392000	0,5	-0,001300
0,400333	0,5	-0,027750
0,408667	0,5	-0,029750
0,417000	0,5	-0,026700
0,425333	0,5	0,010300
0,433667	0,5	0,036150
0,442000	0,5	0,019150
0,450333	0,5	0,014850
0,458667	0,5	0,019250
0,467000	0,5	0,007250
0,475333	0,5	0,002800
0,483667	0,5	0,005100
0,492000	0,5	-0,007650
0,500333	0,5	0,002000
0,508667	0,5	-0,003600
0,517000	0,5	0,003600
0,525333	0,5	-0,015350
0,533667	0,5	0,008200
0,542000	0,5	-0,008850
0,550333	0,5	-0,013550
0,558667	0,5	-0,018700
0,567000	0,5	0,013400
0,575333	0,5	0,044600
0,583667	0,5	0,060900
0,592000	0,5	0,042550
0,600333	0,5	0,048400
0,608667	0,5	0,037050
0,617000	0,5	0,044450
0,625333	0,5	0,040750
0,633667	0,5	0,050200
0,642000	0,5	0,041650
0,650333	0,5	0,037100
0,658667	0,5	0,048000
0,667000	0,5	0,024800
0,675333	0,5	0,029600
0,683667	0,5	0,043500
0,692000	0,5	0,031050
0,700333	0,5	0,027200
0,708667	0,5	0,033350
0,717000	0,5	0,067600
0,725333	0,5	0,106350
0,733667	0,5	0,098500
0,742000	0,5	0,103350
0,750333	0,5	0,095250
0,758667	0,5	0,105400
0,767000	0,5	0,098700
0,775333	0,5	0,099700
0,783667	0,5	0,093350
0,792000	0,5	0,095950
0,800333	0,5	0,096700
0,808667	0,5	0,099900
0,817000	0,5	0,088050
0,825333	0,5	0,117450
0,833667	0,5	0,111100
0,842000	0,5	0,095650
0,850333	0,5	0,101700
0,858667	0,5	0,105650
0,867000	0,5	0,160150
0,875333	0,5	0,171900
0,883667	0,5	0,176350
0,892000	0,5	0,158650
0,900333	0,5	0,163850
0,908667	0,5	0,159800
0,917000	0,5	0,167350
0,925333	0,5	0,163500
0,933667	0,5	0,170800
0,942000	0,5	0,163300
0,950333	0,5	0,173550
0,958667	0,5	0,170700
0,967000	0,5	0,173200
0,975333	0,5	0,204400
0,983667	0,5	0,190250
0,992000	0,5	0,174900
1,000333	0,5	0,186250
1,008667	0,5	0,196050
1,017000	0,5	0,232350
1,025333	0,5	0,239750
1,033667	0,5	0,232950
1,042000	0,5	0,235400
1,050333	0,5	0,230500
1,058667	0,5	0,238150
1,067000	0,5	0,237300
1,075333	0,5	0,247700
1,083667	0,5	0,237600
1,092000	0,5	0,251200
1,100333	0,5	0,251550
1,108667	0,5	0,267900
1,117000	0,5	0,262950
1,125333	0,5	0,308400
1,133667	0,5	0,272700
1,142000	0,5	0,269400
1,150333	0,5	0,274400
1,158667	0,5	0,294600
1,167000	0,5	0,348750
1,175333	0,5	0,344050
1,183667	0,5	0,329550
1,192000	0,5	0,346850
1,200333	0,5	0,348550
1,208667	0,5	0,347600
1,217000	0,5	0,353750
1,225333	0,5	0,355700
1,233667	0,5	0,364150
1,242000	0,5	0,367350
1,250333	0,5	0,392850
1,258667	0,5	0,377450
1,267000	0,5	0,407850
1,275333	0,5	0,420250
1,283667	0,5	0,414100
1,292000	0,5	0,411050
1,300333	0,5	0,429350
1,308667	0,5	0,461100
1,317000	0,5	0,489850
1,325333	0,5	0,480900
1,333667	0,5	0,489550
1,342000	0,5	0,500500
1,350333	0,5	0,505850
1,358667	0,5	0,513900
1,367000	0,5	0,526400
1,375333	0,5	0,535250
1,383667	0,5	0,540350
1,392000	0,5	0,563450
1,400333	0,5	0,577000
1,408667	0,5	0,578950
1,417000	0,5	0,610650
1,425333	0,5	0,607600
1,433667	0,5	0,604400
1,442000	0,5	0,609000
1,450333	0,5	0,626800
1,458667	0,5	0,677200
1,467000	0,5	0,682350
1,475333	0,5	0,698800
1,483667	0,5	0,699350
1,492000	0,5	0,717100
1,500333	0,5	0,709900
1,508667	0,5	0,719600
1,517000	0,5	0,722350
1,525333	0,5	0,725850
1,533667	0,5	0,736700
1,542000	0,5	0,745250
1,550333	0,5	0,766700
1,558667	0,5	0,754500
1,567000	0,5	0,750800
1,575333	0,5	0,600150
1,583667	0,5	0,075950
1,592000	0,5	-1,034850
1,600333	0,5	-1,812050
1,608667	0,5	-0,914900
1,617000	0,5	1,251550
1,625333	0,5	3,376950
1,633667	0,5	5,597000
1,642000	0,5	7,895900
1,650333	0,5	9,520450
1,658667	0,5	9,873100
1,667000	0,5	9,338400
1,675333	0,5	8,509450
1,683667	0,5	7,703200
1,692000	0,5	6,999850
1,700333	0,5	6,475350
1,708667	0,5	6,322300
1,717000	0,5	6,885300
1,725333	0,5	8,325350
1,733667	0,5	9,861000
1,742000	0,5	10,023700
1,750333	0,5	8,749100
1,758667	0,5	7,132950
1,767000	0,5	5,853750
1,775333	0,5	5,032850
1,783667	0,5	4,624550
1,792000	0,5	4,651700
1,800333	0,5	5,052550
1,808667	0,5	5,577700
1,817000	0,5	5,912450
1,825333	0,5	5,974400
1,833667	0,5	5,753600
1,842000	0,5	5,352550
1,850333	0,5	4,927150
1,858667	0,5	4,596550
1,867000	0,5	4,281750
1,875333	0,5	4,029500
1,883667	0,5	3,855850
1,892000	0,5	3,755750
1,900333	0,5	3,725650
1,908667	0,5	3,666350
1,917000	0,5	3,529100
1,925333	0,5	3,323550
1,933667	0,5	3,152100
1,942000	0,5	3,012400
1,950333	0,5	2,926050
1,958667	0,5	2,860100
1,967000	0,5	2,794750
1,975333	0,5	2,724950
1,983667	0,5	2,713800
1,992000	0,5	2,769600
2,000333	0,5	2,989450
2,008667	0,5	3,521350
2,017000	0,5	4,604650
2,025333	0,5	6,637800
2,033667	0,5	9,600100
2,042000	0,5	12,243900
2,050333	0,5	13,221300
2,058667	0,5	12,998100
2,067000	0,5	13,357000
2,075333	0,5	14,938800
2,083667	0,5	16,943650
2,092000	0,5	18,392100
2,100333	0,5	18,967050
2,108667	0,5	18,875500
2,117000	0,5	18,440400
2,125333	0,5	17,939500
2,133667	0,5	17,488550
2,142000	0,5	17,061450
2,150333	0,5	16,538450
2,158667	0,5	15,965550
2,167000	0,5	15,349500
2,175333	0,5	14,791150
2,183667	0,5	14,274700
2,192000	0,5	13,811850
2,200333	0,5	13,375900
2,208667	0,5	12,938800
2,217000	0,5	12,553600
2,225333	0,5	12,235050
2,233667	0,5	11,963700
2,242000	0,5	11,757650
2,250333	0,5	11,577500
2,258667	0,5	11,415350
2,267000	0,5	11,264850
2,275333	0,5	11,136000
2,283667	0,5	11,044000
2,292000	0,5	10,937150
2,300333	0,5	10,890200
2,308667	0,5	10,820800
2,317000	0,5	10,760500
2,325333	0,5	10,719950
2,333667	0,5	10,712500
2,342000	0,5	10,732650
2,350333	0,5	10,744750
2,358667	0,5	10,736000
2,367000	0,5	10,760700
2,375333	0,5	10,789550
2,383667	0,5	10,833050
2,392000	0,5	10,862300
2,400333	0,5	10,931450
2,408667	0,5	10,987200
2,417000	0,5	11,080750
2,425333	0,5	11,203350
2,433667	0,5	11,317100
2,442000	0,5	11,392000
2,450333	0,5	11,434050
2,458667	0,5	11,362650
2,467000	0,5	11,257450
2,475333	0,5	11,170650
2,483667	0,5	11,142900
2,492000	0,5	11,172950
2,500333	0,5	11,182950
2,508667	0,5	11,178650
2,517000	0,5	11,166500
2,525333	0,5	11,168500
2,533667	0,5	11,146050
2,542000	0,5	11,126650
2,550333	0,5	11,095500
2,558667	0,5	11,064500
2,567000	0,5	11,037300
2,575333	0,5	11,024650
2,583667	0,5	11,013050
2,592000	0,5	11,017950
2,600333	0,5	11,093300
2,608667	0,5	11,220000
2,617000	0,5	11,469250
2,625333	0,5	11,850750
2,633667	0,5	12,318000
2,642000	0,5	12,785550
2,650333	0,5	13,102300
2,658667	0,5	13,238650
2,667000	0,5	13,225200
2,675333	0,5	13,075050
2,683667	0,5	12,868300
2,692000	0,5	12,659500
2,700333	0,5	12,526600
2,708667	0,5	12,472750
2,717000	0,5	12,566050
2,725333	0,5	12,817900
2,733667	0,5	13,331500
2,742000	0,5	14,269250
2,750333	0,5	15,877500
2,758667	0,5	18,311250
2,767000	0,5	21,544150
2,775333	0,5	24,905750
2,783667	0,5	27,436650
2,792000	0,5	28,321900
2,800333	0,5	27,447000
2,808667	0,5	25,395500
2,817000	0,5	22,872700
2,825333	0,5	20,434700
2,833667	0,5	18,372000
2,842000	0,5	16,782950
2,850333	0,5	15,652300
2,858667	0,5	14,986400
2,867000	0,5	14,715350
2,875333	0,5	14,682250
2,883667	0,5	14,603600
2,892000	0,5	14,288200
2,900333	0,5	13,611650
2,908667	0,5	12,713750
2,917000	0,5	11,782650
2,925333	0,5	10,937600
2,933667	0,5	10,223200
2,942000	0,5	9,625450
2,950333	0,5	9,103550
2,958667	0,5	8,659750
2,967000	0,5	8,282000
2,975333	0,5	7,942950
2,983667	0,5	7,637000
2,992000	0,5	7,355650
3,000333	0,5	7,094650
3,008667	0,5	6,846900
3,017000	0,5	6,628800
3,025333	0,5	6,394850
3,033667	0,5	6,190200
3,042000	0,5	6,015400
3,050333	0,5	5,832850
3,058667	0,5	5,667000
3,067000	0,5	5,530000
3,075333	0,5	5,404750
3,083667	0,5	5,302650
3,092000	0,5	5,154750
3,100333	0,5	5,009250
3,108667	0,5	4,834950
3,117000	0,5	4,666500
3,125333	0,5	4,488400
3,133667	0,5	4,323450
3,142000	0,5	4,168300
3,150333	0,5	4,024350
3,158667	0,5	3,901000
3,167000	0,5	3,790200
3,175333	0,5	3,691050
3,183667	0,5	3,617900
3,192000	0,5	3,550050
3,200333	0,5	3,487000
3,208667	0,5	3,477650
3,217000	0,5	3,530650
3,225333	0,5	3,672700
3,233667	0,5	3,844850
3,242000	0,5	3,986000
3,250333	0,5	4,055250
3,258667	0,5	4,029650
3,267000	0,5	3,865350
3,275333	0,5	3,623100
3,283667	0,5	3,340300
3,292000	0,5	3,086000
3,300333	0,5	2,858800
3,308667	0,5	2,672250
3,317000	0,5	2,523450
3,325333	0,5	2,390000
3,333667	0,5	2,296150
3,342000	0,5	2,185450
3,350333	0,5	2,078600
3,358667	0,5	1,986150
3,367000	0,5	1,920300
3,375333	0,5	1,875400
3,383667	0,5	1,816450
3,392000	0,5	1,738700
3,400333	0,5	1,680750
3,408667	0,5	1,628900
3,417000	0,5	1,586350
3,425333	0,5	1,535900
3,433667	0,5	1,502400
3,442000	0,5	1,452550
3,450333	0,5	1,409350
3,458667	0,5	1,364500
3,467000	0,5	1,320400
3,475333	0,5	1,263300
3,483667	0,5	1,254800
3,492000	0,5	1,193300
3,500333	0,5	1,166200
3,508667	0,5	1,124650
3,517000	0,5	1,105100
3,525333	0,5	1,108450
3,533667	0,5	1,074200
3,542000	0,5	1,045700
3,550333	0,5	1,014800
3,558667	0,5	0,999250
3,567000	0,5	0,961750
3,575333	0,5	0,938650
3,583667	0,5	0,911700
3,592000	0,5	0,884100
3,600333	0,5	0,862900
3,608667	0,5	0,850950
3,617000	0,5	0,808050
3,625333	0,5	0,785200
3,633667	0,5	0,779850
3,642000	0,5	0,741200
3,650333	0,5	0,719350
3,658667	0,5	0,700500
3,667000	0,5	0,697400
3,675333	0,5	0,707900
3,683667	0,5	0,684600
3,692000	0,5	0,666200
3,700333	0,5	0,643100
3,708667	0,5	0,622700
3,717000	0,5	0,607200
3,725333	0,5	0,601650
3,733667	0,5	0,588400
3,742000	0,5	0,573550
3,750333	0,5	0,579250
3,758667	0,5	0,565000
3,767000	0,5	0,569700
3,775333	0,5	0,578400
3,783667	0,5	0,595650
3,792000	0,5	0,594700
3,800333	0,5	0,597650
3,808667	0,5	0,598200
3,817000	0,5	0,620150
3,825333	0,5	0,614750
3,833667	0,5	0,599250
3,842000	0,5	0,572250
3,850333	0,5	0,549750
3,858667	0,5	0,522200
3,867000	0,5	0,505700
3,875333	0,5	0,492750
3,883667	0,5	0,469800
3,892000	0,5	0,465050
3,900333	0,5	0,451300
3,908667	0,5	0,451150
3,917000	0,5	0,436800
3,925333	0,5	0,453900
3,933667	0,5	0,439550
3,942000	0,5	0,429450
3,950333	0,5	0,426100
3,958667	0,5	0,438200
3,967000	0,5	0,457950
3,975333	0,5	0,470250
3,983667	0,5	0,456050
3,992000	0,5	0,456050
4,000333	0,5	0,448400
4,008667	0,5	0,450650
4,017000	0,5	0,449350
4,025333	0,5	0,449700
4,033667	0,5	0,445150
4,042000	0,5	0,444450
4,050333	0,5	0,463000
4,058667	0,5	0,444450
4,067000	0,5	0,449650
4,075333	0,5	0,458300
4,083667	0,5	0,448700
4,092000	0,5	0,440000
4,100333	0,5	0,444700
4,108667	0,5	0,467100
4,117000	0,5	0,489700
4,125333	0,5	0,480550
4,133667	0,5	0,493250
4,142000	0,5	0,489450
4,150333	0,5	0,498550
4,158667	0,5	0,496350
4,167000	0,5	0,504050
4,175333	0,5	0,499600
4,183667	0,5	0,494750
4,192000	0,5	0,499750
4,200333	0,5	0,499000
4,208667	0,5	0,498300
4,217000	0,5	0,529750
4,225333	0,5	0,539250
4,233667	0,5	0,542550
4,242000	0,5	0,555100
4,250333	0,5	0,582850
4,258667	0,5	0,652400
4,267000	0,5	0,695650
4,275333	0,5	0,730000
4,283667	0,5	0,763650
4,292000	0,5	0,813750
4,300333	0,5	0,849700
4,308667	0,5	0,896750
4,317000	0,5	0,947150
4,325333	0,5	1,015150
4,333667	0,5	1,085650
4,342000	0,5	1,198150
4,350333	0,5	1,316950
4,358667	0,5	1,439500
4,367000	0,5	1,585100
4,375333	0,5	1,674700
4,383667	0,5	1,741950
4,392000	0,5	1,779100
4,400333	0,5	1,769850
4,408667	0,5	1,747750
4,417000	0,5	1,660100
4,425333	0,5	1,541450
4,433667	0,5	1,428750
4,442000	0,5	1,322000
4,450333	0,5	1,221000
4,458667	0,5	1,139100
4,467000	0,5	1,088600
4,475333	0,5	1,031200
4,483667	0,5	0,993600
4,492000	0,5	0,965550
4,500333	0,5	0,948000
4,508667	0,5	0,924650
4,517000	0,5	0,939000
4,525333	0,5	0,901700
4,533667	0,5	0,897200
4,542000	0,5	0,883850
4,550333	0,5	0,887400
4,558667	0,5	0,903000
4,567000	0,5	0,885550
4,575333	0,5	0,883250
4,583667	0,5	0,881550
4,592000	0,5	0,885500
4,600333	0,5	0,878900
4,608667	0,5	0,881750
4,617000	0,5	0,880950
4,625333	0,5	0,890300
4,633667	0,5	0,888800
4,642000	0,5	0,903250
4,650333	0,5	0,889450
4,658667	0,5	0,902750
4,667000	0,5	0,910950
4,675333	0,5	0,910750
4,683667	0,5	0,915000
4,692000	0,5	0,925600
4,700333	0,5	0,947950
4,708667	0,5	0,984050
4,717000	0,5	0,980200
4,725333	0,5	0,991050
4,733667	0,5	0,997250
4,742000	0,5	1,004950
4,750333	0,5	1,009000
4,758667	0,5	1,019300
4,767000	0,5	1,021200
4,775333	0,5	1,029600
4,783667	0,5	1,046450
4,792000	0,5	1,045150
4,800333	0,5	1,048250
4,808667	0,5	1,058950
4,817000	0,5	1,066550
4,825333	0,5	1,059450
4,833667	0,5	1,071350
4,842000	0,5	1,082150
4,850333	0,5	1,112150
4,858667	0,5	1,126650
4,867000	0,5	1,136050
4,875333	0,5	1,138450
4,883667	0,5	1,157700
4,892000	0,5	1,153200
4,900333	0,5	1,164200
4,908667	0,5	1,170600
4,917000	0,5	1,178150
4,925333	0,5	1,185650
4,933667	0,5	1,194500
4,942000	0,5	1,217250
4,950333	0,5	1,217500
4,958667	0,5	1,243400
4,967000	0,5	1,239950
4,975333	0,5	1,241600
4,983667	0,5	1,250750
4,992000	0,5	1,279450
5,000333	0,5	1,301050
5,008667	0,5	1,322400
5,017000	0,5	1,326250
5,025333	0,5	1,334300
5,033667	0,5	1,335750
5,042000	0,5	1,342300
5,050333	0,5	1,344350
5,058667	0,5	1,357900
5,067000	0,5	1,367100
5,075333	0,5	1,375800
5,083667	0,5	1,383500
5,092000	0,5	1,396000
5,100333	0,5	1,411100
5,108667	0,5	1,434600
5,117000	0,5	1,441850
5,125333	0,5	1,458050
5,133667	0,5	1,477200
5,142000	0,5	1,512700
5,150333	0,5	1,544100
5,158667	0,5	1,547150
5,167000	0,5	1,558550
5,175333	0,5	1,556100
5,183667	0,5	1,560750
5,192000	0,5	1,548150
5,200333	0,5	1,557800
5,208667	0,5	1,546200
5,217000	0,5	1,543150
5,225333	0,5	1,538700
5,233667	0,5	1,534150
5,242000	0,5	1,523050
5,250333	0,5	1,546400
5,258667	0,5	1,536800
5,267000	0,5	1,530050
5,275333	0,5	1,526550
5,283667	0,5	1,531600
5,292000	0,5	1,559950
5,300333	0,5	1,575300
5,308667	0,5	1,577000
5,317000	0,5	1,572300
5,325333	0,5	1,574950
5,333667	0,5	1,572000
5,342000	0,5	1,574850
5,350333	0,5	1,574750
5,358667	0,5	1,571900
5,367000	0,5	1,568250
5,375333	0,5	1,569150
5,383667	0,5	1,568350
5,392000	0,5	1,564300
5,400333	0,5	1,582350
5,408667	0,5	1,574550
5,417000	0,5	1,562350
5,425333	0,5	1,564750
5,433667	0,5	1,566300
5,442000	0,5	1,591700
5,450333	0,5	1,584900
5,458667	0,5	1,579400
5,467000	0,5	1,574950
5,475333	0,5	1,570450
5,483667	0,5	1,567900
5,492000	0,5	1,568100
5,500333	0,5	1,569550
5,508667	0,5	1,566850
5,517000	0,5	1,567300
5,525333	0,5	1,567050
5,533667	0,5	1,568600
5,542000	0,5	1,563550
5,550333	0,5	1,581100
5,558667	0,5	1,561500
5,567000	0,5	1,560750
5,575333	0,5	1,552650
5,583667	0,5	1,563500
5,592000	0,5	1,575650
5,600333	0,5	1,560550
5,608667	0,5	1,554550
5,617000	0,5	1,552950
5,625333	0,5	1,544300
5,633667	0,5	1,535250
5,642000	0,5	1,524350
5,650333	0,5	1,512550
5,658667	0,5	1,503950
5,667000	0,5	1,498100
5,675333	0,5	1,501700
5,683667	0,5	1,480800
5,692000	0,5	1,482250
5,700333	0,5	1,478450
5,708667	0,5	1,460050
5,717000	0,5	1,452350
5,725333	0,5	1,450900
5,733667	0,5	1,454000
5,742000	0,5	1,471200
5,750333	0,5	1,449250
5,758667	0,5	1,443350
5,767000	0,5	1,433000
5,775333	0,5	1,426300
5,783667	0,5	1,421900
5,792000	0,5	1,417150
5,800333	0,5	1,420650
5,808667	0,5	1,421550
5,817000	0,5	1,434900
5,825333	0,5	1,447650
5,833667	0,5	1,463000
5,842000	0,5	1,492600
5,850333	0,5	1,504350
5,858667	0,5	1,510550
5,867000	0,5	1,508800
5,875333	0,5	1,504050
5,883667	0,5	1,492750
5,892000	0,5	1,466700
5,900333	0,5	1,424700
5,908667	0,5	1,384800
5,917000	0,5	1,351650
5,925333	0,5	1,320800
5,933667	0,5	1,297500
5,942000	0,5	1,271200
5,950333	0,5	1,252750
5,958667	0,5	1,240200
5,967000	0,5	1,229250
5,975333	0,5	1,212300
5,983667	0,5	1,206800
5,992000	0,5	1,201850
6,000333	0,5	1,185950
6,008667	0,5	1,168600
6,017000	0,5	1,156850
6,025333	0,5	1,154750
6,033667	0,5	1,165500
6,042000	0,5	1,164650
6,050333	0,5	1,147800
6,058667	0,5	1,142050
6,067000	0,5	1,133250
6,075333	0,5	1,125450
6,083667	0,5	1,116650
6,092000	0,5	1,109900
6,100333	0,5	1,099050
6,108667	0,5	1,096050
6,117000	0,5	1,086850
6,125333	0,5	1,080650
6,133667	0,5	1,080800
6,142000	0,5	1,074500
6,150333	0,5	1,058450
6,158667	0,5	1,052300
6,167000	0,5	1,047700
6,175333	0,5	1,057850
6,183667	0,5	1,064400
6,192000	0,5	1,059850
6,200333	0,5	1,059950
6,208667	0,5	1,054750
6,217000	0,5	1,055100
6,225333	0,5	1,047950
6,233667	0,5	1,048850
6,242000	0,5	1,037900
6,250333	0,5	1,038050
6,258667	0,5	1,035900
6,267000	0,5	1,029250
6,275333	0,5	1,022000
6,283667	0,5	1,037050
6,292000	0,5	1,026000
6,300333	0,5	1,021550
6,308667	0,5	1,024100
6,317000	0,5	1,021700
6,325333	0,5	1,034050
6,333667	0,5	1,043750
6,342000	0,5	1,046650
6,350333	0,5	1,055800
6,358667	0,5	1,051050
6,367000	0,5	1,049100
6,375333	0,5	1,051050
6,383667	0,5	1,056350
6,392000	0,5	1,059700
6,400333	0,5	1,061250
6,408667	0,5	1,076350
6,417000	0,5	1,080750
6,425333	0,5	1,093250
6,433667	0,5	1,114100
6,442000	0,5	1,117100
6,450333	0,5	1,122400
6,458667	0,5	1,141300
6,467000	0,5	1,160950
6,475333	0,5	1,192550
6,483667	0,5	1,202400
6,492000	0,5	1,220550
6,500333	0,5	1,243750
6,508667	0,5	1,267750
6,517000	0,5	1,300850
6,525333	0,5	1,354050
6,533667	0,5	1,405350
6,542000	0,5	1,491900
6,550333	0,5	1,599950
6,558667	0,5	1,741050
6,567000	0,5	1,903900
6,575333	0,5	2,081650
6,583667	0,5	2,240950
6,592000	0,5	2,353650
6,600333	0,5	2,420800
6,608667	0,5	2,423100
6,617000	0,5	2,386050
6,625333	0,5	2,293750
6,633667	0,5	2,172800
6,642000	0,5	2,040800
6,650333	0,5	1,929050
6,658667	0,5	1,818700
6,667000	0,5	1,736400
6,675333	0,5	1,674200
6,683667	0,5	1,632600
6,692000	0,5	1,596800
6,700333	0,5	1,571250
6,708667	0,5	1,570700
6,717000	0,5	1,553550
6,725333	0,5	1,561100
6,733667	0,5	1,563450
6,742000	0,5	1,553550
6,750333	0,5	1,550350
6,758667	0,5	1,559750
6,767000	0,5	1,583900
6,775333	0,5	1,594100
6,783667	0,5	1,588750
6,792000	0,5	1,598150
6,800333	0,5	1,600150
6,808667	0,5	1,607650
6,817000	0,5	1,608500
6,825333	0,5	1,617300
6,833667	0,5	1,625750
6,842000	0,5	1,628950
6,850333	0,5	1,638700
6,858667	0,5	1,638400
6,867000	0,5	1,639800
6,875333	0,5	1,661650
6,883667	0,5	1,655150
6,892000	0,5	1,660500
6,900333	0,5	1,664650
6,908667	0,5	1,679350
6,917000	0,5	1,710900
6,925333	0,5	1,727900
6,933667	0,5	1,743050
6,942000	0,5	1,763300
6,950333	0,5	1,796300
6,958667	0,5	1,832500
6,967000	0,5	1,878200
6,975333	0,5	1,922450
6,983667	0,5	1,962250
6,992000	0,5	1,989350
7,000333	0,5	2,001550
7,008667	0,5	1,994550
7,017000	0,5	1,974100
7,025333	0,5	1,941800
7,033667	0,5	1,892500
7,042000	0,5	1,852200
7,050333	0,5	1,830300
7,058667	0,5	1,821850
7,067000	0,5	1,821700
7,075333	0,5	1,825750
7,083667	0,5	1,816000
7,092000	0,5	1,815150
7,100333	0,5	1,804300
7,108667	0,5	1,798150
7,117000	0,5	1,798100
7,125333	0,5	1,796650
7,133667	0,5	1,798450
7,142000	0,5	1,804350
7,150333	0,5	1,809350
7,158667	0,5	1,829300
7,167000	0,5	1,848450
7,175333	0,5	1,869100
7,183667	0,5	1,886250
7,192000	0,5	1,911650
7,200333	0,5	1,936600
7,208667	0,5	1,970950
7,217000	0,5	1,992550
7,225333	0,5	2,000500
7,233667	0,5	1,997800
7,242000	0,5	1,993250
7,250333	0,5	1,982700
7,258667	0,5	1,974050
7,267000	0,5	1,959900
7,275333	0,5	1,946900
7,283667	0,5	1,939850
7,292000	0,5	1,918700
7,300333	0,5	1,900050
7,308667	0,5	1,875050
7,317000	0,5	1,866950
7,325333	0,5	1,850800
7,333667	0,5	1,832250
7,342000	0,5	1,820350
7,350333	0,5	1,817750
7,358667	0,5	1,824500
7,367000	0,5	1,823200
7,375333	0,5	1,805400
7,383667	0,5	1,810300
7,392000	0,5	1,808200
7,400333	0,5	1,802050
7,408667	0,5	1,807550
7,417000	0,5	1,807950
7,425333	0,5	1,806750
7,433667	0,5	1,818100
7,442000	0,5	1,822850
7,450333	0,5	1,824350
7,458667	0,5	1,824700
7,467000	0,5	1,830150
7,475333	0,5	1,822450
7,483667	0,5	1,825350
7,492000	0,5	1,822000
7,500333	0,5	1,832950
7,508667	0,5	1,851550
7,517000	0,5	1,847700
7,525333	0,5	1,851750
7,533667	0,5	1,851200
7,542000	0,5	1,855450
7,550333	0,5	1,855850
7,558667	0,5	1,862900
7,567000	0,5	1,861100
7,575333	0,5	1,871850
7,583667	0,5	1,882100
7,592000	0,5	1,916700
7,600333	0,5	1,962250
7,608667	0,5	2,029250
7,617000	0,5	2,092750
7,625333	0,5	2,136950
7,633667	0,5	2,156700
7,642000	0,5	2,141350
7,650333	0,5	2,114900
7,658667	0,5	2,073500
7,667000	0,5	2,028850
7,675333	0,5	1,993650
7,683667	0,5	1,973800
7,692000	0,5	1,957300
7,700333	0,5	1,946750
7,708667	0,5	1,934800
7,717000	0,5	1,925550
7,725333	0,5	1,916250
7,733667	0,5	1,914900
7,742000	0,5	1,924150
7,750333	0,5	1,916450
7,758667	0,5	1,926850
7,767000	0,5	1,935650
7,775333	0,5	1,943650
7,783667	0,5	1,958850
7,792000	0,5	1,984300
7,800333	0,5	2,028500
7,808667	0,5	2,074450
7,817000	0,5	2,110850
7,825333	0,5	2,166350
7,833667	0,5	2,221400
7,842000	0,5	2,314250
7,850333	0,5	2,428150
7,858667	0,5	2,557900
7,867000	0,5	2,674600
7,875333	0,5	2,746350
7,883667	0,5	2,747600
7,892000	0,5	2,674500
7,900333	0,5	2,555500
7,908667	0,5	2,436850
7,917000	0,5	2,316800
7,925333	0,5	2,227450
7,933667	0,5	2,166500
7,942000	0,5	2,129650
7,950333	0,5	2,115850
7,958667	0,5	2,110100
7,967000	0,5	2,121750
7,975333	0,5	2,140900
7,983667	0,5	2,155750
7,992000	0,5	2,168850
8,000333	0,5	2,159000
8,008667	0,5	2,136650
8,017000	0,5	2,113300
8,025333	0,5	2,089850
8,033667	0,5	2,064350
8,042000	0,5	2,036750
8,050333	0,5	2,020450
8,058667	0,5	2,002200
8,067000	0,5	1,979850
8,075333	0,5	1,964850
8,083667	0,5	1,954000
8,092000	0,5	1,958800
8,100333	0,5	1,974200
8,108667	0,5	2,001500
8,117000	0,5	2,055350
8,125333	0,5	2,117650
8,133667	0,5	2,168750
8,142000	0,5	2,185650
8,150333	0,5	2,158450
8,158667	0,5	2,108850
8,167000	0,5	2,044750
8,175333	0,5	1,982350
8,183667	0,5	1,909550
8,192000	0,5	1,830250
8,200333	0,5	1,760150
8,208667	0,5	1,702100
8,217000	0,5	1,649450
8,225333	0,5	1,617050
8,233667	0,5	1,596300
8,242000	0,5	1,584450
8,250333	0,5	1,579600
8,258667	0,5	1,570150
8,267000	0,5	1,571700
8,275333	0,5	1,568400
8,283667	0,5	1,571250
8,292000	0,5	1,580450
8,300333	0,5	1,580150
8,308667	0,5	1,586500
8,317000	0,5	1,590850
8,325333	0,5	1,586950
8,333667	0,5	1,586850
8,342000	0,5	1,580600
8,350333	0,5	1,583500
8,358667	0,5	1,581300
8,367000	0,5	1,569750
8,375333	0,5	1,566600
8,383667	0,5	1,563300
8,392000	0,5	1,566950
8,400333	0,5	1,566300
8,408667	0,5	1,569050
8,417000	0,5	1,572850
8,425333	0,5	1,584150
8,433667	0,5	1,589100
8,442000	0,5	1,600900
8,450333	0,5	1,614300
8,458667	0,5	1,620300
8,467000	0,5	1,635350
8,475333	0,5	1,646000
8,483667	0,5	1,653600
8,492000	0,5	1,661500
8,500333	0,5	1,675100
8,508667	0,5	1,681950
8,517000	0,5	1,690000
8,525333	0,5	1,702950
8,533667	0,5	1,724350
8,542000	0,5	1,741600
8,550333	0,5	1,751500
8,558667	0,5	1,760300
8,567000	0,5	1,767450
8,575333	0,5	1,779950
8,583667	0,5	1,790850
8,592000	0,5	1,809500
8,600333	0,5	1,841650
8,608667	0,5	1,886500
8,617000	0,5	1,937400
8,625333	0,5	1,984200
8,633667	0,5	2,011550
8,642000	0,5	2,007850
8,650333	0,5	1,981550
8,658667	0,5	1,934000
8,667000	0,5	1,882150
8,675333	0,5	1,841850
8,683667	0,5	1,818550
8,692000	0,5	1,797850
8,700333	0,5	1,785150
8,708667	0,5	1,778750
8,717000	0,5	1,775550
8,725333	0,5	1,774750
8,733667	0,5	1,779600
8,742000	0,5	1,795150
8,750333	0,5	1,811250
8,758667	0,5	1,824350
8,767000	0,5	1,830400
8,775333	0,5	1,838450
8,783667	0,5	1,839900
8,792000	0,5	1,827850
8,800333	0,5	1,815700
8,808667	0,5	1,792000
8,817000	0,5	1,777050
8,825333	0,5	1,772250
8,833667	0,5	1,780150
8,842000	0,5	1,803300
8,850333	0,5	1,833900
8,858667	0,5	1,891650
8,867000	0,5	1,954200
8,875333	0,5	2,013200
8,883667	0,5	2,050250
8,892000	0,5	2,056400
8,900333	0,5	2,026550
8,908667	0,5	1,967150
8,917000	0,5	1,890450
8,925333	0,5	1,828250
8,933667	0,5	1,777350
8,942000	0,5	1,741850
8,950333	0,5	1,719250
8,958667	0,5	1,698250
8,967000	0,5	1,682550
8,975333	0,5	1,675900
8,983667	0,5	1,676550
8,992000	0,5	1,681150
9,000333	0,5	1,694200
9,008667	0,5	1,726750
9,017000	0,5	1,761800
9,025333	0,5	1,800250
9,033667	0,5	1,821450
9,042000	0,5	1,807250
9,050333	0,5	1,779750
9,058667	0,5	1,736700
9,067000	0,5	1,697800
9,075333	0,5	1,665700
9,083667	0,5	1,637250
9,092000	0,5	1,628300
9,100333	0,5	1,619800
9,108667	0,5	1,608250
9,117000	0,5	1,608500
9,125333	0,5	1,605550
9,133667	0,5	1,608450
9,142000	0,5	1,613800
9,150333	0,5	1,608650
9,158667	0,5	1,602100
9,167000	0,5	1,593100
9,175333	0,5	1,581300
9,183667	0,5	1,566050
9,192000	0,5	1,544900
9,200333	0,5	1,531800
9,208667	0,5	1,511150
9,217000	0,5	1,498900
9,225333	0,5	1,484900
9,233667	0,5	1,474500
9,242000	0,5	1,465750
9,250333	0,5	1,456950
9,258667	0,5	1,448500
9,267000	0,5	1,441350
9,275333	0,5	1,444200
9,283667	0,5	1,441900
9,292000	0,5	1,443950
9,300333	0,5	1,441000
9,308667	0,5	1,448550
9,317000	0,5	1,453000
9,325333	0,5	1,456800
9,333667	0,5	1,469500
9,342000	0,5	1,485500
9,350333	0,5	1,501700
9,358667	0,5	1,524800
9,367000	0,5	1,526050
9,375333	0,5	1,517500
9,383667	0,5	1,497250
9,392000	0,5	1,472050
9,400333	0,5	1,440800
9,408667	0,5	1,419350
9,417000	0,5	1,402150
9,425333	0,5	1,388050
9,433667	0,5	1,379600
9,442000	0,5	1,367750
9,450333	0,5	1,363350
9,458667	0,5	1,352850
9,467000	0,5	1,343500
9,475333	0,5	1,338250
9,483667	0,5	1,328700
9,492000	0,5	1,328900
9,500333	0,5	1,326650
9,508667	0,5	1,317700
9,517000	0,5	1,319550
9,525333	0,5	1,316150
9,533667	0,5	1,319100
9,542000	0,5	1,315200
9,550333	0,5	1,313750
9,558667	0,5	1,315750
9,567000	0,5	1,318050
9,575333	0,5	1,323900
9,583667	0,5	1,330250
9,592000	0,5	1,334550
9,600333	0,5	1,340250
9,608667	0,5	1,355100
9,617000	0,5	1,369350
9,625333	0,5	1,393600
9,633667	0,5	1,427150
9,642000	0,5	1,463100
9,650333	0,5	1,514850
9,658667	0,5	1,573900
9,667000	0,5	1,626800
9,675333	0,5	1,672400
9,683667	0,5	1,712200
9,692000	0,5	1,727650
9,700333	0,5	1,707500
9,708667	0,5	1,665350
9,717000	0,5	1,608400
9,725333	0,5	1,549900
9,733667	0,5	1,483550
9,742000	0,5	1,434150
9,750333	0,5	1,393900
9,758667	0,5	1,365400
9,767000	0,5	1,345000
9,775333	0,5	1,333100
9,783667	0,5	1,319850
9,792000	0,5	1,313250
9,800333	0,5	1,315100
9,808667	0,5	1,316150
9,817000	0,5	1,318400
9,825333	0,5	1,326700
9,833667	0,5	1,335800
9,842000	0,5	1,344750
9,850333	0,5	1,358650
9,858667	0,5	1,377300
9,867000	0,5	1,397000
9,875333	0,5	1,406150
9,883667	0,5	1,419800
9,892000	0,5	1,422750
9,900333	0,5	1,434150
9,908667	0,5	1,435500
9,917000	0,5	1,439800
9,925333	0,5	1,445550
9,933667	0,5	1,464000
9,942000	0,5	1,489950
9,950333	0,5	1,508850
9,958667	0,5	1,538150
9,967000	0,5	1,548750
9,975333	0,5	1,542200
9,983667	0,5	1,526800
9,992000	0,5	1,490800
10,000333	0,5	1,457500
10,008667	0,5	1,418250
10,017000	0,5	1,388450
10,025333	0,5	1,358850
10,033667	0,5	1,336550
10,042000	0,5	1,318150
10,050333	0,5	1,301000
10,058667	0,5	1,294500
10,067000	0,5	1,285850
10,075333	0,5	1,284400
10,083667	0,5	1,275550
10,092000	0,5	1,269850
10,100333	0,5	1,268400
10,108667	0,5	1,268850
10,117000	0,5	1,260250
10,125333	0,5	1,266200
10,133667	0,5	1,272550
10,142000	0,5	1,272300
10,150333	0,5	1,266850
10,158667	0,5	1,275200
10,167000	0,5	1,285850
10,175333	0,5	1,292450
10,183667	0,5	1,305450
10,192000	0,5	1,321600
10,200333	0,5	1,331600
10,208667	0,5	1,362650
10,217000	0,5	1,379350
10,225333	0,5	1,408150
10,233667	0,5	1,442050
10,242000	0,5	1,476950
10,250333	0,5	1,523350
10,258667	0,5	1,562050
10,267000	0,5	1,600500
10,275333	0,5	1,627800
10,283667	0,5	1,631700
10,292000	0,5	1,620800
10,300333	0,5	1,581050
10,308667	0,5	1,537450
10,317000	0,5	1,490450
10,325333	0,5	1,444350
10,333667	0,5	1,406750
10,342000	0,5	1,369300
10,350333	0,5	1,346400
10,358667	0,5	1,326300
10,367000	0,5	1,316350
10,375333	0,5	1,305500
10,383667	0,5	1,304550
10,392000	0,5	1,300450
10,400333	0,5	1,290550
10,408667	0,5	1,278000
10,417000	0,5	1,265350
10,425333	0,5	1,251300
10,433667	0,5	1,233300
10,442000	0,5	1,222500
10,450333	0,5	1,212500
10,458667	0,5	1,217050
10,467000	0,5	1,210350
10,475333	0,5	1,213400
10,483667	0,5	1,211400
10,492000	0,5	1,217500
10,500333	0,5	1,213950
10,508667	0,5	1,219700
10,517000	0,5	1,235350
10,525333	0,5	1,249400
10,533667	0,5	1,268250
10,542000	0,5	1,279550
10,550333	0,5	1,284050
10,558667	0,5	1,273700
10,567000	0,5	1,258350
10,575333	0,5	1,233900
10,583667	0,5	1,194300
10,592000	0,5	1,148950
10,600333	0,5	1,107700
10,608667	0,5	1,077600
10,617000	0,5	1,056650
10,625333	0,5	1,041600
10,633667	0,5	1,046300
10,642000	0,5	1,053800
10,650333	0,5	1,074250
10,658667	0,5	1,099200
10,667000	0,5	1,133300
10,675333	0,5	1,160100
10,683667	0,5	1,186100
10,692000	0,5	1,206550
10,700333	0,5	1,220350
10,708667	0,5	1,220650
10,717000	0,5	1,221400
10,725333	0,5	1,211550
10,733667	0,5	1,204050
10,742000	0,5	1,185800
10,750333	0,5	1,172400
10,758667	0,5	1,173850
10,767000	0,5	1,169500
10,775333	0,5	1,160600
10,783667	0,5	1,161300
10,792000	0,5	1,168500
10,800333	0,5	1,175450
10,808667	0,5	1,176800
10,817000	0,5	1,179450
10,825333	0,5	1,186700
10,833667	0,5	1,192050
10,842000	0,5	1,207150
10,850333	0,5	1,208200
10,858667	0,5	1,224800
10,867000	0,5	1,243100
10,875333	0,5	1,274200
10,883667	0,5	1,291350
10,892000	0,5	1,310250
10,900333	0,5	1,319700
10,908667	0,5	1,312250
10,917000	0,5	1,293250
10,925333	0,5	1,266100
10,933667	0,5	1,245150
10,942000	0,5	1,225200
10,950333	0,5	1,216350
10,958667	0,5	1,207400
10,967000	0,5	1,204200
10,975333	0,5	1,199750
10,983667	0,5	1,197800
10,992000	0,5	1,192600
11,000333	0,5	1,180550
11,008667	0,5	1,176050
11,017000	0,5	1,164250
11,025333	0,5	1,149900
11,033667	0,5	1,141150
11,042000	0,5	1,129300
11,050333	0,5	1,134600
11,058667	0,5	1,142650
11,067000	0,5	1,145750
11,075333	0,5	1,143350
11,083667	0,5	1,147150
11,092000	0,5	1,150900
11,100333	0,5	1,157600
11,108667	0,5	1,169900
11,117000	0,5	1,189850
11,125333	0,5	1,228900
11,133667	0,5	1,282650
11,142000	0,5	1,363550
11,150333	0,5	1,444200
11,158667	0,5	1,542200
11,167000	0,5	1,606350
11,175333	0,5	1,648850
11,183667	0,5	1,654650
11,192000	0,5	1,633600
11,200333	0,5	1,586400
11,208667	0,5	1,536500
11,217000	0,5	1,482400
11,225333	0,5	1,444750
11,233667	0,5	1,420950
11,242000	0,5	1,413900
11,250333	0,5	1,411350
11,258667	0,5	1,415350
11,267000	0,5	1,425500
11,275333	0,5	1,423850
11,283667	0,5	1,435500
11,292000	0,5	1,449600
11,300333	0,5	1,480550
11,308667	0,5	1,529300
11,317000	0,5	1,597500
11,325333	0,5	1,700150
11,333667	0,5	1,846150
11,342000	0,5	2,061400
11,350333	0,5	2,370650
11,358667	0,5	2,784200
11,367000	0,5	3,318350
11,375333	0,5	3,933050
11,383667	0,5	4,600000
11,392000	0,5	5,217950
11,400333	0,5	5,718650
11,408667	0,5	6,032000
11,417000	0,5	6,119650
11,425333	0,5	6,002450
11,433667	0,5	5,697500
11,442000	0,5	5,274750
11,450333	0,5	4,794100
11,458667	0,5	4,313950
11,467000	0,5	3,855400
11,475333	0,5	3,455450
11,483667	0,5	3,120050
11,492000	0,5	2,860800
11,500333	0,5	2,657600
11,508667	0,5	2,508150
11,517000	0,5	2,387500
11,525333	0,5	2,296350
11,533667	0,5	2,215750
11,542000	0,5	2,147500
11,550333	0,5	2,080350
11,558667	0,5	2,020350
11,567000	0,5	1,962600
11,575333	0,5	1,921050
11,583667	0,5	1,874650
11,592000	0,5	1,841100
11,600333	0,5	1,812900
11,608667	0,5	1,775800
11,617000	0,5	1,735750
11,625333	0,5	1,678050
11,633667	0,5	1,616400
11,642000	0,5	1,561050
11,650333	0,5	1,501750
11,658667	0,5	1,440950
11,667000	0,5	1,396800
11,675333	0,5	1,362450
11,683667	0,5	1,329050
11,692000	0,5	1,303200
11,700333	0,5	1,286100
11,708667	0,5	1,271700
11,717000	0,5	1,262200
11,725333	0,5	1,254900
11,733667	0,5	1,251000
11,742000	0,5	1,249550
11,750333	0,5	1,251550
11,758667	0,5	1,254800
11,767000	0,5	1,267050
11,775333	0,5	1,274150
11,783667	0,5	1,295000
11,792000	0,5	1,317850
11,800333	0,5	1,324250
11,808667	0,5	1,331850
11,817000	0,5	1,325350
11,825333	0,5	1,317300
11,833667	0,5	1,293500
11,842000	0,5	1,271550
11,850333	0,5	1,248500
11,858667	0,5	1,229250
11,867000	0,5	1,215650
11,875333	0,5	1,209800
11,883667	0,5	1,196700
11,892000	0,5	1,204400
11,900333	0,5	1,211700
11,908667	0,5	1,223400
11,917000	0,5	1,242750
11,925333	0,5	1,256050
11,933667	0,5	1,280450
11,942000	0,5	1,311600
11,950333	0,5	1,330850
11,958667	0,5	1,349900
11,967000	0,5	1,360200
11,975333	0,5	1,360300
11,983667	0,5	1,353250
11,992000	0,5	1,333500
12,000333	0,5	1,316750
12,008667	0,5	1,292850
12,017000	0,5	1,284750
12,025333	0,5	1,270850
12,033667	0,5	1,255150
12,042000	0,5	1,265050
12,050333	0,5	1,274500
12,058667	0,5	1,280800
12,067000	0,5	1,289400
12,075333	0,5	1,303400
12,083667	0,5	1,335600
12,092000	0,5	1,359200
12,100333	0,5	1,387950
12,108667	0,5	1,423200
12,117000	0,5	1,479850
12,125333	0,5	1,540950
12,133667	0,5	1,628250
12,142000	0,5	1,725800
12,150333	0,5	1,818500
12,158667	0,5	1,904950
12,167000	0,5	1,976100
12,175333	0,5	2,024700
12,183667	0,5	2,047000
12,192000	0,5	2,061300
12,200333	0,5	2,055750
12,208667	0,5	2,036150
12,217000	0,5	1,999400
12,225333	0,5	1,958350
12,233667	0,5	1,911650
12,242000	0,5	1,868250
12,250333	0,5	1,822850
12,258667	0,5	1,790000
12,267000	0,5	1,770500
12,275333	0,5	1,759800
12,283667	0,5	1,762900
12,292000	0,5	1,760550
12,300333	0,5	1,742000
12,308667	0,5	1,714650
12,317000	0,5	1,682750
12,325333	0,5	1,634150
12,333667	0,5	1,596750
12,342000	0,5	1,571050
12,350333	0,5	1,547400
12,358667	0,5	1,527050
12,367000	0,5	1,520050
12,375333	0,5	1,503000
12,383667	0,5	1,499600
12,392000	0,5	1,479600
12,400333	0,5	1,450600
12,408667	0,5	1,413900
12,417000	0,5	1,378550
12,425333	0,5	1,329100
12,433667	0,5	1,294100
12,442000	0,5	1,249750
12,450333	0,5	1,222250
12,458667	0,5	1,197250
12,467000	0,5	1,172050
12,475333	0,5	1,142050
12,483667	0,5	1,125650
12,492000	0,5	1,101650
12,500333	0,5	1,079350
12,508667	0,5	1,053250
12,517000	0,5	1,026500
12,525333	0,5	1,017850
12,533667	0,5	1,010650
12,542000	0,5	1,005550
12,550333	0,5	0,988650
12,558667	0,5	0,981200
12,567000	0,5	0,977950
12,575333	0,5	0,976850
12,583667	0,5	0,961050
12,592000	0,5	0,958250
12,600333	0,5	0,950200
12,608667	0,5	0,943800
12,617000	0,5	0,929500
12,625333	0,5	0,923450
12,633667	0,5	0,919150
12,642000	0,5	0,913450
12,650333	0,5	0,899400
12,658667	0,5	0,888800
12,667000	0,5	0,877850
12,675333	0,5	0,868150
12,683667	0,5	0,868400
12,692000	0,5	0,856150
12,700333	0,5	0,850900
12,708667	0,5	0,842400
12,717000	0,5	0,836450
12,725333	0,5	0,832500
12,733667	0,5	0,839950
12,742000	0,5	0,859600
12,750333	0,5	0,895300
12,758667	0,5	0,945200
12,767000	0,5	0,997850
12,775333	0,5	1,058950
12,783667	0,5	1,102400
12,792000	0,5	1,106000
12,800333	0,5	1,089250
12,808667	0,5	1,045050
12,817000	0,5	1,000950
12,825333	0,5	0,963800
12,833667	0,5	0,928250
12,842000	0,5	0,876800
12,850333	0,5	0,807950
12,858667	0,5	0,740350
12,867000	0,5	0,677500
12,875333	0,5	0,611550
12,883667	0,5	0,545200
12,892000	0,5	0,481100
12,900333	0,5	0,419850
12,908667	0,5	0,380250
12,917000	0,5	0,265750
12,925333	0,5	0,148750
12,933667	0,5	-0,044650
12,942000	0,5	-0,351350
12,950333	0,5	-0,782450
12,958667	0,5	-1,139300
12,967000	0,5	-1,395450
12,975333	0,5	-1,649700
12,983667	0,5	-1,875150
12,992000	0,5	-2,030000
13,000333	0,5	-2,140000
13,008667	0,5	-2,225450
13,017000	0,5	-2,291200
13,025333	0,5	-2,347450
13,033667	0,5	-2,398150
13,042000	0,5	-2,438150
13,050333	0,5	-2,466000
13,058667	0,5	-2,488400
13,067000	0,5	-2,505350
13,075333	0,5	-2,511750
13,083667	0,5	-2,521350
13,092000	0,5	-2,530450
13,100333	0,5	-2,552650
13,108667	0,5	-2,572650
13,117000	0,5	-2,580400
13,125333	0,5	-2,605300
13,133667	0,5	-2,626950
13,142000	0,5	-2,654350
13,150333	0,5	-2,682500
13,158667	0,5	-2,708550
13,167000	0,5	-2,733150
13,175333	0,5	-2,751650
13,183667	0,5	-2,772200
13,192000	0,5	-2,774000
13,200333	0,5	-2,775450
13,208667	0,5	-2,789900
13,217000	0,5	-2,788650
13,225333	0,5	-2,774200
13,233667	0,5	-2,776500
13,242000	0,5	-2,771100
13,250333	0,5	-2,773200
13,258667	0,5	-2,762350
13,267000	0,5	-2,747200
13,275333	0,5	-2,725600
13,283667	0,5	-2,706550
13,292000	0,5	-2,677650
13,300333	0,5	-2,651300
13,308667	0,5	-2,614700
13,317000	0,5	-2,583550
13,325333	0,5	-2,537850
13,333667	0,5	-2,503300
13,342000	0,5	-2,478250
13,350333	0,5	-2,447350
13,358667	0,5	-2,428350
13,367000	0,5	-2,407600
13,375333	0,5	-2,393650
13,383667	0,5	-2,385000
13,392000	0,5	-2,392150
13,400333	0,5	-2,389550
13,408667	0,5	-2,389750
13,417000	0,5	-2,393750
13,425333	0,5	-2,400450
13,433667	0,5	-2,410700
13,442000	0,5	-2,419400
13,450333	0,5	-2,428650
13,458667	0,5	-2,445650
13,467000	0,5	-2,447400
13,475333	0,5	-2,451100
13,483667	0,5	-2,455550
13,492000	0,5	-2,451200
13,500333	0,5	-2,456100
13,508667	0,5	-2,454700
13,517000	0,5	-2,446850
13,525333	0,5	-2,455150
13,533667	0,5	-2,458850
13,542000	0,5	-2,465950
13,550333	0,5	-2,465950
13,558667	0,5	-2,453900
13,567000	0,5	-2,443800
13,575333	0,5	-2,423950
13,583667	0,5	-2,402450
13,592000	0,5	-2,374150
13,600333	0,5	-2,340050
13,608667	0,5	-2,299550
13,617000	0,5	-2,256550
13,625333	0,5	-2,227600
13,633667	0,5	-2,184750
13,642000	0,5	-2,155900
13,650333	0,5	-2,155450
13,658667	0,5	-2,133050
13,667000	0,5	-2,118900
13,675333	0,5	-2,114600
13,683667	0,5	-2,110600
13,692000	0,5	-2,111800
13,700333	0,5	-2,089400
13,708667	0,5	-2,064100
13,717000	0,5	-2,028550
13,725333	0,5	-1,999100
13,733667	0,5	-1,955150
13,742000	0,5	-1,914500
13,750333	0,5	-1,877950
13,758667	0,5	-1,851800
13,767000	0,5	-1,827750
13,775333	0,5	-1,817800
13,783667	0,5	-1,792550
13,792000	0,5	-1,785800
13,800333	0,5	-1,790600
13,808667	0,5	-1,773600
13,817000	0,5	-1,762050
13,825333	0,5	-1,745750
13,833667	0,5	-1,739350
13,842000	0,5	-1,733650
13,850333	0,5	-1,697750
13,858667	0,5	-1,672650
13,867000	0,5	-1,655350
13,875333	0,5	-1,630600
13,883667	0,5	-1,611650
13,892000	0,5	-1,592950
13,900333	0,5	-1,592650
13,908667	0,5	-1,543900
13,917000	0,5	-1,519200
13,925333	0,5	-1,489600
13,933667	0,5	-1,456650
13,942000	0,5	-1,414200
13,950333	0,5	-1,363850
13,958667	0,5	-1,285500
13,967000	0,5	-1,211300
13,975333	0,5	-1,127950
13,983667	0,5	-1,057850
13,992000	0,5	-0,981750
14,000333	0,5	-0,906450
14,008667	0,5	-0,848050
14,017000	0,5	-0,803600
14,025333	0,5	-0,754300
14,033667	0,5	-0,730400
14,042000	0,5	-0,707550
14,050333	0,5	-0,696200
14,058667	0,5	-0,695400
14,067000	0,5	-0,688450
14,075333	0,5	-0,681000
14,083667	0,5	-0,649100
14,092000	0,5	-0,617300
14,100333	0,5	-0,539350
14,108667	0,5	-0,457950
14,117000	0,5	-0,361000
14,125333	0,5	-0,279400
14,133667	0,5	-0,215350
14,142000	0,5	-0,162150
14,150333	0,5	-0,120900
14,158667	0,5	-0,120250
14,167000	0,5	-0,115600
14,175333	0,5	-0,137450
14,183667	0,5	-0,155800
14,192000	0,5	-0,167150
14,200333	0,5	-0,173050
14,208667	0,5	-0,171750
14,217000	0,5	-0,167050
14,225333	0,5	-0,149050
14,233667	0,5	-0,132850
14,242000	0,5	-0,140550
14,250333	0,5	-0,127250
14,258667	0,5	-0,115000
14,267000	0,5	-0,109900
14,275333	0,5	-0,090850
14,283667	0,5	-0,101900
14,292000	0,5	-0,075000
14,300333	0,5	-0,062450
14,308667	0,5	-0,051200
14,317000	0,5	-0,043750
14,325333	0,5	-0,032050
14,333667	0,5	-0,028000
14,342000	0,5	-0,010200
14,350333	0,5	-0,000900
14,358667	0,5	0,016300
14,367000	0,5	0,040100
14,375333	0,5	0,063000
14,383667	0,5	0,077150
14,392000	0,5	0,081650
14,400333	0,5	0,088550
14,408667	0,5	0,078150
14,417000	0,5	0,065000
14,425333	0,5	0,034200
14,433667	0,5	0,015550
14,442000	0,5	0,004050
14,450333	0,5	-0,006100
14,458667	0,5	-0,019950
14,467000	0,5	-0,023300
14,475333	0,5	-0,032500
14,483667	0,5	-0,031500
14,492000	0,5	-0,035200
14,500333	0,5	-0,035850
14,508667	0,5	-0,038800
14,517000	0,5	-0,033950
14,525333	0,5	-0,027850
14,533667	0,5	-0,030250
14,542000	0,5	-0,025550
14,550333	0,5	-0,020450
14,558667	0,5	-0,017800
14,567000	0,5	-0,013450
14,575333	0,5	0,012850
14,583667	0,5	0,070000
14,592000	0,5	0,167800
14,600333	0,5	0,268950
14,608667	0,5	0,383900
14,617000	0,5	0,472100
14,625333	0,5	0,528250
14,633667	0,5	0,529050
14,642000	0,5	0,492850
14,650333	0,5	0,430400
14,658667	0,5	0,372250
14,667000	0,5	0,326400
14,675333	0,5	0,315050
14,683667	0,5	0,328350
14,692000	0,5	0,395100
14,700333	0,5	0,479500
14,708667	0,5	0,562000
14,717000	0,5	0,616750
14,725333	0,5	0,615100
14,733667	0,5	0,589650
14,742000	0,5	0,525200
14,750333	0,5	0,439600
14,758667	0,5	0,354350
14,767000	0,5	0,278200
14,775333	0,5	0,215350
14,783667	0,5	0,175100
14,792000	0,5	0,144500
14,800333	0,5	0,115650
14,808667	0,5	0,090250
14,817000	0,5	0,092500
14,825333	0,5	0,076050
14,833667	0,5	0,080700
14,842000	0,5	0,095850
14,850333	0,5	0,102800
14,858667	0,5	0,107850
14,867000	0,5	0,085300
14,875333	0,5	0,082050
14,883667	0,5	0,078900
14,892000	0,5	0,067550
14,900333	0,5	0,054150
14,908667	0,5	0,049750
14,917000	0,5	0,043650
14,925333	0,5	0,040700
14,933667	0,5	0,038100
14,942000	0,5	0,035000
14,950333	0,5	0,012700
14,958667	0,5	0,004100
14,967000	0,5	-0,021350
14,975333	0,5	-0,052400
14,983667	0,5	-0,062900
14,992000	0,5	-0,067500
15,000333	0,5	-0,083350
15,008667	0,5	-0,095050
15,017000	0,5	-0,120100
15,025333	0,5	-0,122700
15,033667	0,5	-0,125250
15,042000	0,5	-0,132900
15,050333	0,5	-0,144950
15,058667	0,5	-0,144800
15,067000	0,5	-0,146650
15,075333	0,5	-0,138050
15,083667	0,5	-0,117050
15,092000	0,5	-0,091150
15,100333	0,5	-0,027250
15,108667	0,5	0,063450
15,117000	0,5	0,190750
15,125333	0,5	0,302000
15,133667	0,5	0,428500
15,142000	0,5	0,481900
15,150333	0,5	0,484850
15,158667	0,5	0,431900
15,167000	0,5	0,362400
15,175333	0,5	0,333750
15,183667	0,5	0,321050
15,192000	0,5	0,365250
15,200333	0,5	0,450900
15,208667	0,5	0,540650
15,217000	0,5	0,595800
15,225333	0,5	0,603550
15,233667	0,5	0,558700
15,242000	0,5	0,477900
15,250333	0,5	0,379950
15,258667	0,5	0,314200
15,267000	0,5	0,245000
15,275333	0,5	0,203700
15,283667	0,5	0,181100
15,292000	0,5	0,166350
15,300333	0,5	0,145350
15,308667	0,5	0,124700
15,317000	0,5	0,100500
15,325333	0,5	0,102950
15,333667	0,5	0,092500
15,342000	0,5	0,089750
15,350333	0,5	0,085450
15,358667	0,5	0,082500
15,367000	0,5	0,068100
15,375333	0,5	0,072250
15,383667	0,5	0,068600
15,392000	0,5	0,046500
15,400333	0,5	0,038350
15,408667	0,5	0,018300
15,417000	0,5	-0,027600
15,425333	0,5	-0,058150
15,433667	0,5	-0,097300
15,442000	0,5	-0,120100
15,450333	0,5	-0,156700
15,458667	0,5	-0,194250
15,467000	0,5	-0,214150
15,475333	0,5	-0,228950
15,483667	0,5	-0,233300
15,492000	0,5	-0,254500
15,500333	0,5	-0,259150
15,508667	0,5	-0,270700
15,517000	0,5	-0,269250
15,525333	0,5	-0,267000
15,533667	0,5	-0,254900
15,542000	0,5	-0,230400
15,550333	0,5	-0,169450
15,558667	0,5	-0,078200
15,567000	0,5	0,038600
15,575333	0,5	0,171500
15,583667	0,5	0,285300
15,592000	0,5	0,362950
15,600333	0,5	0,359250
15,608667	0,5	0,330700
15,617000	0,5	0,302900
15,625333	0,5	0,307150
15,633667	0,5	0,342200
15,642000	0,5	0,401850
15,650333	0,5	0,457850
15,658667	0,5	0,492350
15,667000	0,5	0,461800
15,675333	0,5	0,391300
15,683667	0,5	0,292350
15,692000	0,5	0,184350
15,700333	0,5	0,084550
15,708667	0,5	-0,003400
15,717000	0,5	-0,064850
15,725333	0,5	-0,095800
15,733667	0,5	-0,136750
15,742000	0,5	-0,150100
15,750333	0,5	-0,174700
15,758667	0,5	-0,181200
15,767000	0,5	-0,165900
15,775333	0,5	-0,164150
15,783667	0,5	-0,158950
15,792000	0,5	-0,161100
15,800333	0,5	-0,171850
15,808667	0,5	-0,204600
15,817000	0,5	-0,216850
15,825333	0,5	-0,247700
15,833667	0,5	-0,273150
15,842000	0,5	-0,300900
15,850333	0,5	-0,315400
15,858667	0,5	-0,355950
15,867000	0,5	-0,363450
15,875333	0,5	-0,372550
15,883667	0,5	-0,387400
15,892000	0,5	-0,401600
15,900333	0,5	-0,430600
15,908667	0,5	-0,434050
15,917000	0,5	-0,434650
15,925333	0,5	-0,429200
15,933667	0,5	-0,422800
15,942000	0,5	-0,386800
15,950333	0,5	-0,328550
15,958667	0,5	-0,234650
15,967000	0,5	-0,111250
15,975333	0,5	0,032100
15,983667	0,5	0,139150
15,992000	0,5	0,229850
16,000333	0,5	0,263650
16,008667	0,5	0,265650
16,017000	0,5	0,278900
16,025333	0,5	0,316150
16,033667	0,5	0,344500
16,042000	0,5	0,359950
16,050333	0,5	0,332400
16,058667	0,5	0,284600
16,067000	0,5	0,192400
16,075333	0,5	0,090300
16,083667	0,5	-0,017350
16,092000	0,5	-0,092100
16,100333	0,5	-0,146100
16,108667	0,5	-0,180250
16,117000	0,5	-0,196450
16,125333	0,5	-0,213850
16,133667	0,5	-0,216150
16,142000	0,5	-0,215200
16,150333	0,5	-0,217800
16,158667	0,5	-0,221150
16,167000	0,5	-0,224550
16,175333	0,5	-0,239700
16,183667	0,5	-0,266300
16,192000	0,5	-0,310250
16,200333	0,5	-0,333900
16,208667	0,5	-0,352250
16,217000	0,5	-0,381050
16,225333	0,5	-0,419250
16,233667	0,5	-0,443600
16,242000	0,5	-0,463550
16,250333	0,5	-0,496100
16,258667	0,5	-0,512800
16,267000	0,5	-0,530500
16,275333	0,5	-0,550150
16,283667	0,5	-0,550200
16,292000	0,5	-0,540700
16,300333	0,5	-0,539350
16,308667	0,5	-0,481550
16,317000	0,5	-0,414300
16,325333	0,5	-0,301400
16,333667	0,5	-0,188450
16,342000	0,5	-0,068500
16,350333	0,5	0,037800
16,358667	0,5	0,119600
16,367000	0,5	0,138700
16,375333	0,5	0,150550
16,383667	0,5	0,154450
16,392000	0,5	0,166750
16,400333	0,5	0,164350
16,408667	0,5	0,136100
16,417000	0,5	0,068500
16,425333	0,5	-0,028650
16,433667	0,5	-0,104400
16,442000	0,5	-0,180100
16,450333	0,5	-0,234150
16,458667	0,5	-0,248400
16,467000	0,5	-0,265050
16,475333	0,5	-0,266850
16,483667	0,5	-0,262800
16,492000	0,5	-0,274300
16,500333	0,5	-0,244300
16,508667	0,5	-0,229800
16,517000	0,5	-0,216100
16,525333	0,5	-0,200500
16,533667	0,5	-0,199400
16,542000	0,5	-0,207100
16,550333	0,5	-0,216150
16,558667	0,5	-0,239150
16,567000	0,5	-0,265550
16,575333	0,5	-0,273200
16,583667	0,5	-0,291550
16,592000	0,5	-0,309800
16,600333	0,5	-0,321500
16,608667	0,5	-0,314900
16,617000	0,5	-0,325050
16,625333	0,5	-0,327650
16,633667	0,5	-0,345600
16,642000	0,5	-0,333100
16,650333	0,5	-0,284200
16,658667	0,5	-0,203100
16,667000	0,5	-0,111800
16,675333	0,5	-0,008300
16,683667	0,5	0,061200
16,692000	0,5	0,107150
16,700333	0,5	0,127800
16,708667	0,5	0,140400
16,717000	0,5	0,136200
16,725333	0,5	0,132300
16,733667	0,5	0,103950
16,742000	0,5	0,025400
16,750333	0,5	-0,043550
16,758667	0,5	-0,123000
16,767000	0,5	-0,197300
16,775333	0,5	-0,261450
16,783667	0,5	-0,311700
16,792000	0,5	-0,339600
16,800333	0,5	-0,347000
16,808667	0,5	-0,362550
16,817000	0,5	-0,363500
16,825333	0,5	-0,372250
16,833667	0,5	-0,375050
16,842000	0,5	-0,388600
16,850333	0,5	-0,398150
16,858667	0,5	-0,411800
16,867000	0,5	-0,424950
16,875333	0,5	-0,442700
16,883667	0,5	-0,467000
16,892000	0,5	-0,488450
16,900333	0,5	-0,493600
16,908667	0,5	-0,501950
16,917000	0,5	-0,511300
16,925333	0,5	-0,527500
16,933667	0,5	-0,525250
16,942000	0,5	-0,490050
16,950333	0,5	-0,445650
16,958667	0,5	-0,364850
16,967000	0,5	-0,266850
16,975333	0,5	-0,155650
16,983667	0,5	-0,054700
16,992000	0,5	0,036900
17,000333	0,5	0,103300
17,008667	0,5	0,170950
17,017000	0,5	0,227500
17,025333	0,5	0,293000
17,033667	0,5	0,313750
17,042000	0,5	0,379900
17,050333	0,5	0,439600
17,058667	0,5	0,515350
17,067000	0,5	0,614400
17,075333	0,5	0,704350
17,083667	0,5	0,836650
17,092000	0,5	0,953300
17,100333	0,5	1,055650
17,108667	0,5	1,134850
17,117000	0,5	1,209250
17,125333	0,5	1,261650
17,133667	0,5	1,301850
17,142000	0,5	1,328950
17,150333	0,5	1,333850
17,158667	0,5	1,305350
17,167000	0,5	1,263150
17,175333	0,5	1,188700
17,183667	0,5	1,070250
17,192000	0,5	0,967450
17,200333	0,5	0,843900
17,208667	0,5	0,713750
17,217000	0,5	0,600900
17,225333	0,5	0,491600
17,233667	0,5	0,459700
17,242000	0,5	0,445300
17,250333	0,5	0,434100
17,258667	0,5	0,432200
17,267000	0,5	0,424200
17,275333	0,5	0,401200
17,283667	0,5	0,372100
17,292000	0,5	0,337750
17,300333	0,5	0,273950
17,308667	0,5	0,214000
17,317000	0,5	0,140750
17,325333	0,5	0,089950
17,333667	0,5	0,034000
17,342000	0,5	0,029800
17,350333	0,5	0,036600
17,358667	0,5	0,052350
17,367000	0,5	0,050150
17,375333	0,5	0,070450
17,383667	0,5	0,127250
17,392000	0,5	0,172450
17,400333	0,5	0,203950
17,408667	0,5	0,229400
17,417000	0,5	0,256050
17,425333	0,5	0,277250
17,433667	0,5	0,289100
17,442000	0,5	0,287500
17,450333	0,5	0,274700
17,458667	0,5	0,234700
17,467000	0,5	0,216350
17,475333	0,5	0,169250
17,483667	0,5	0,167550
17,492000	0,5	0,173200
17,500333	0,5	0,176050
17,508667	0,5	0,160100
17,517000	0,5	0,140750
17,525333	0,5	0,109000
17,533667	0,5	0,084800
17,542000	0,5	0,024650
17,550333	0,5	-0,042500
17,558667	0,5	-0,114350
17,567000	0,5	-0,184600
17,575333	0,5	-0,260650
17,583667	0,5	-0,309500
17,592000	0,5	-0,350950
17,600333	0,5	-0,385300
17,608667	0,5	-0,410150
17,617000	0,5	-0,433800
17,625333	0,5	-0,473650
17,633667	0,5	-0,481950
17,642000	0,5	-0,506250
17,650333	0,5	-0,524400
17,658667	0,5	-0,555650
17,667000	0,5	-0,590500
17,675333	0,5	-0,598250
17,683667	0,5	-0,601150
17,692000	0,5	-0,583950
17,700333	0,5	-0,565100
17,708667	0,5	-0,532500
17,717000	0,5	-0,491500
17,725333	0,5	-0,431100
17,733667	0,5	-0,370050
17,742000	0,5	-0,326350
17,750333	0,5	-0,290100
17,758667	0,5	-0,276550
17,767000	0,5	-0,294450
17,775333	0,5	-0,330950
17,783667	0,5	-0,371850
17,792000	0,5	-0,422700
17,800333	0,5	-0,457100
17,808667	0,5	-0,509500
17,817000	0,5	-0,541200
17,825333	0,5	-0,566100
17,833667	0,5	-0,580300
17,842000	0,5	-0,599050
17,850333	0,5	-0,601400
17,858667	0,5	-0,621800
17,867000	0,5	-0,626300
17,875333	0,5	-0,635900
17,883667	0,5	-0,632400
17,892000	0,5	-0,634850
17,900333	0,5	-0,620050
17,908667	0,5	-0,592900
17,917000	0,5	-0,572450
17,925333	0,5	-0,509650
17,933667	0,5	-0,446750
17,942000	0,5	-0,403000
17,950333	0,5	-0,380350
17,958667	0,5	-0,380850
17,967000	0,5	-0,391300
17,975333	0,5	-0,403550
17,983667	0,5	-0,438500
17,992000	0,5	-0,480750
18,000333	0,5	-0,511850
18,008667	0,5	-0,522050
18,017000	0,5	-0,556800
18,025333	0,5	-0,570550
18,033667	0,5	-0,594750
18,042000	0,5	-0,613500
18,050333	0,5	-0,608750
18,058667	0,5	-0,620250
18,067000	0,5	-0,643200
18,075333	0,5	-0,638350
18,083667	0,5	-0,640500
18,092000	0,5	-0,638800
18,100333	0,5	-0,632600
18,108667	0,5	-0,615000
18,117000	0,5	-0,556200
18,125333	0,5	-0,514450
18,133667	0,5	-0,468850
18,142000	0,5	-0,452850
18,150333	0,5	-0,440650
18,158667	0,5	-0,464500
18,167000	0,5	-0,482500
18,175333	0,5	-0,529400
18,183667	0,5	-0,566200
18,192000	0,5	-0,600450
18,200333	0,5	-0,615450
18,208667	0,5	-0,655650
18,217000	0,5	-0,646850
18,225333	0,5	-0,662650
18,233667	0,5	-0,677250
18,242000	0,5	-0,695950
18,250333	0,5	-0,737050
18,258667	0,5	-0,733600
18,267000	0,5	-0,721600
18,275333	0,5	-0,718650
18,283667	0,5	-0,700700
18,292000	0,5	-0,669500
18,300333	0,5	-0,658350
18,308667	0,5	-0,633150
18,317000	0,5	-0,627750
18,325333	0,5	-0,626100
18,333667	0,5	-0,648750
18,342000	0,5	-0,672100
18,350333	0,5	-0,702400
18,358667	0,5	-0,744950
18,367000	0,5	-0,753950
18,375333	0,5	-0,772450
18,383667	0,5	-0,789300
18,392000	0,5	-0,813200
18,400333	0,5	-0,843050
18,408667	0,5	-0,850550
18,417000	0,5	-0,848300
18,425333	0,5	-0,851250
18,433667	0,5	-0,850450
18,442000	0,5	-0,845900
18,450333	0,5	-0,835100
18,458667	0,5	-0,829650
18,467000	0,5	-0,817700
18,475333	0,5	-0,802650
18,483667	0,5	-0,790250
18,492000	0,5	-0,785850
18,500333	0,5	-0,793550
18,508667	0,5	-0,827500
18,517000	0,5	-0,840600
18,525333	0,5	-0,874850
18,533667	0,5	-0,900200
18,542000	0,5	-0,940600
18,550333	0,5	-0,971650
18,558667	0,5	-0,972100
18,567000	0,5	-0,974300
18,575333	0,5	-0,987300
18,583667	0,5	-0,992950
18,592000	0,5	-0,993900
18,600333	0,5	-0,999700
18,608667	0,5	-0,983100
18,617000	0,5	-0,974900
18,625333	0,5	-0,952200
18,633667	0,5	-0,927500
18,642000	0,5	-0,896050
18,650333	0,5	-0,912500
18,658667	0,5	-0,926900
18,667000	0,5	-0,939100
18,675333	0,5	-0,961150
18,683667	0,5	-0,979550
18,692000	0,5	-0,992400
18,700333	0,5	-1,013350
18,708667	0,5	-1,001350
18,717000	0,5	-1,000850
18,725333	0,5	-0,991600
18,733667	0,5	-0,979150
18,742000	0,5	-0,959800
18,750333	0,5	-0,944200
18,758667	0,5	-0,915600
18,767000	0,5	-0,903300
18,775333	0,5	-0,905350
18,783667	0,5	-0,890950
18,792000	0,5	-0,907400
18,800333	0,5	-0,939750
18,808667	0,5	-0,957400
18,817000	0,5	-0,984300
18,825333	0,5	-1,027600
18,833667	0,5	-1,057550
18,842000	0,5	-1,096950
18,850333	0,5	-1,093150
18,858667	0,5	-1,096650
18,867000	0,5	-1,086200
18,875333	0,5	-1,082350
18,883667	0,5	-1,072450
18,892000	0,5	-1,067600
18,900333	0,5	-1,064900
18,908667	0,5	-1,066750
18,917000	0,5	-1,083100
18,925333	0,5	-1,105900
18,933667	0,5	-1,121800
18,942000	0,5	-1,155550
18,950333	0,5	-1,176500
18,958667	0,5	-1,183550
18,967000	0,5	-1,197850
18,975333	0,5	-1,202200
18,983667	0,5	-1,243750
18,992000	0,5	-1,249250
19,000333	0,5	-1,240400
19,008667	0,5	-1,229800
19,017000	0,5	-1,232850
19,025333	0,5	-1,224450
19,033667	0,5	-1,241850
19,042000	0,5	-1,246900
19,050333	0,5	-1,253050
19,058667	0,5	-1,263250
19,067000	0,5	-1,270050
19,075333	0,5	-1,278100
19,083667	0,5	-1,281200
19,092000	0,5	-1,300550
19,100333	0,5	-1,294350
19,108667	0,5	-1,299100
19,117000	0,5	-1,296250
19,125333	0,5	-1,313550
19,133667	0,5	-1,347100
19,142000	0,5	-1,355650
19,150333	0,5	-1,353800
19,158667	0,5	-1,371450
19,167000	0,5	-1,368650
19,175333	0,5	-1,379350
19,183667	0,5	-1,394500
19,192000	0,5	-1,402600
19,200333	0,5	-1,398750
19,208667	0,5	-1,405350
19,217000	0,5	-1,413750
19,225333	0,5	-1,411150
19,233667	0,5	-1,424700
19,242000	0,5	-1,472800
19,250333	0,5	-1,475300
19,258667	0,5	-1,479200
19,267000	0,5	-1,502200
19,275333	0,5	-1,519200
19,283667	0,5	-1,548200
19,292000	0,5	-1,529700
19,300333	0,5	-1,544250
19,308667	0,5	-1,538650
19,317000	0,5	-1,554400
19,325333	0,5	-1,558550
19,333667	0,5	-1,575250
19,342000	0,5	-1,585950
19,350333	0,5	-1,593000
19,358667	0,5	-1,604200
19,367000	0,5	-1,604400
19,375333	0,5	-1,599350
19,383667	0,5	-1,618800
19,392000	0,5	-1,617950
19,400333	0,5	-1,617200
19,408667	0,5	-1,614850
19,417000	0,5	-1,632750
19,425333	0,5	-1,673300
19,433667	0,5	-1,677200
19,442000	0,5	-1,680100
19,450333	0,5	-1,683050
19,458667	0,5	-1,700650
19,467000	0,5	-1,693950
19,475333	0,5	-1,697800
19,483667	0,5	-1,697550
19,492000	0,5	-1,708750
19,500333	0,5	-1,722200
19,508667	0,5	-1,741050
19,517000	0,5	-1,747900
19,525333	0,5	-1,750800
19,533667	0,5	-1,766800
19,542000	0,5	-1,763150
19,550333	0,5	-1,776950
19,558667	0,5	-1,787450
19,567000	0,5	-1,821150
19,575333	0,5	-1,844200
19,583667	0,5	-1,859600
19,592000	0,5	-1,853900
19,600333	0,5	-1,863050
19,608667	0,5	-1,872850
19,617000	0,5	-1,874900
19,625333	0,5	-1,878400
19,633667	0,5	-1,886650
19,642000	0,5	-1,876650
19,650333	0,5	-1,886600
19,658667	0,5	-1,894900
19,667000	0,5	-1,889450
19,675333	0,5	-1,886650
19,683667	0,5	-1,914350
19,692000	0,5	-1,911450
19,700333	0,5	-1,925150
19,708667	0,5	-1,947950
19,717000	0,5	-1,985350
19,725333	0,5	-2,020700
19,733667	0,5	-2,015900
19,742000	0,5	-2,028300
19,750333	0,5	-2,040000
19,758667	0,5	-2,065500
19,767000	0,5	-2,076800
19,775333	0,5	-2,095050
19,783667	0,5	-2,106400
19,792000	0,5	-2,119550
19,800333	0,5	-2,143050
19,808667	0,5	-2,151700
19,817000	0,5	-2,144200
19,825333	0,5	-2,168200
19,833667	0,5	-2,175900
19,842000	0,5	-2,186950
19,850333	0,5	-2,200350
19,858667	0,5	-2,211600
19,867000	0,5	-2,252600
19,875333	0,5	-2,272450
19,883667	0,5	-2,272900
19,892000	0,5	-2,274400
19,900333	0,5	-2,281550
19,908667	0,5	-2,289950
19,917000	0,5	-2,300750
19,925333	0,5	-2,301750
19,933667	0,5	-2,306050
19,942000	0,5	-2,307550
19,950333	0,5	-2,317600
19,958667	0,5	-2,303350
19,967000	0,5	-2,316950
19,975333	0,5	-2,337450
19,983667	0,5	-2,337550
19,992000	0,5	-2,351450
20,000333	0,5	-2,369350
20,008667	0,5	-2,408100
20,017000	0,5	-2,441800
20,025333	0,5	-2,464050
20,033667	0,5	-2,469650
20,042000	0,5	-2,490250
20,050333	0,5	-2,490600
20,058667	0,5	-2,504750
20,067000	0,5	-2,517950
20,075333	0,5	-2,540100
20,083667	0,5	-2,552900
20,092000	0,5	-2,569950
20,100333	0,5	-2,579050
20,108667	0,5	-2,578400
20,117000	0,5	-2,598450
20,125333	0,5	-2,610350
20,133667	0,5	-2,614000
20,142000	0,5	-2,625250
20,150333	0,5	-2,638550
20,158667	0,5	-2,672050
20,167000	0,5	-2,677800
20,175333	0,5	-2,664950
20,183667	0,5	-2,668450
20,192000	0,5	-2,663150
20,200333	0,5	-2,660200
20,208667	0,5	-2,663250
20,217000	0,5	-2,675150
20,225333	0,5	-2,683150
20,233667	0,5	-2,693600
20,242000	0,5	-2,706650
20,250333	0,5	-2,715200
20,258667	0,5	-2,714850
20,267000	0,5	-2,751050
20,275333	0,5	-2,749850
20,283667	0,5	-2,765800
20,292000	0,5	-2,784000
20,300333	0,5	-2,800850
20,308667	0,5	-2,843150
20,317000	0,5	-2,857350
20,325333	0,5	-2,872400
20,333667	0,5	-2,892450
20,342000	0,5	-2,908600
20,350333	0,5	-2,936400
20,358667	0,5	-2,954450
20,367000	0,5	-2,970550
20,375333	0,5	-2,991700
20,383667	0,5	-3,013350
20,392000	0,5	-3,045950
20,400333	0,5	-3,044550
20,408667	0,5	-3,073850
20,417000	0,5	-3,094850
20,425333	0,5	-3,122100
20,433667	0,5	-3,134150
20,442000	0,5	-3,171600
20,450333	0,5	-3,208300
20,458667	0,5	-3,242700
20,467000	0,5	-3,251200
20,475333	0,5	-3,276700
20,483667	0,5	-3,297050
20,492000	0,5	-3,315100
20,500333	0,5	-3,337600
20,508667	0,5	-3,345750
20,517000	0,5	-3,332400
20,525333	0,5	-3,322000
20,533667	0,5	-3,317100
20,542000	0,5	-3,308000
20,550333	0,5	-3,310950
20,558667	0,5	-3,365550
20,567000	0,5	-3,414050
20,575333	0,5	-3,461550
20,583667	0,5	-3,528800
20,592000	0,5	-3,591650
20,600333	0,5	-3,679650
20,608667	0,5	-3,707050
20,617000	0,5	-3,741600
20,625333	0,5	-3,778500
20,633667	0,5	-3,816900
20,642000	0,5	-3,850700
20,650333	0,5	-3,891950
20,658667	0,5	-3,928700
20,667000	0,5	-3,944850
20,675333	0,5	-3,971050
20,683667	0,5	-3,978750
20,692000	0,5	-3,948650
20,700333	0,5	-3,911850
20,708667	0,5	-3,897650
20,717000	0,5	-3,865950
20,725333	0,5	-3,867250
20,733667	0,5	-3,910400
20,742000	0,5	-3,997450
20,750333	0,5	-4,096150
20,758667	0,5	-4,179850
20,767000	0,5	-4,242950
20,775333	0,5	-4,314950
20,783667	0,5	-4,375850
20,792000	0,5	-4,428750
20,800333	0,5	-4,496800
20,808667	0,5	-4,550350
20,817000	0,5	-4,593550
20,825333	0,5	-4,637100
20,833667	0,5	-4,674650
20,842000	0,5	-4,700200
20,850333	0,5	-4,728750
20,858667	0,5	-4,772500
20,867000	0,5	-4,802350
20,875333	0,5	-4,836100
20,883667	0,5	-4,884650
20,892000	0,5	-4,927250
20,900333	0,5	-4,977000
20,908667	0,5	-5,017950
20,917000	0,5	-5,076900
20,925333	0,5	-5,123650
20,933667	0,5	-5,160750
20,942000	0,5	-5,215600
20,950333	0,5	-5,251500
20,958667	0,5	-5,294100
20,967000	0,5	-5,322950
20,975333	0,5	-5,377350
20,983667	0,5	-5,384650
20,992000	0,5	-5,405650
21,000333	0,5	-5,439150
21,008667	0,5	-5,477200
21,017000	0,5	-5,515200
21,025333	0,5	-5,573300
21,033667	0,5	-5,616900
21,042000	0,5	-5,663000
21,050333	0,5	-5,698050
21,058667	0,5	-5,724650
21,067000	0,5	-5,754550
21,075333	0,5	-5,784100
21,083667	0,5	-5,813650
21,092000	0,5	-5,853400
21,100333	0,5	-5,885650
21,108667	0,5	-5,929800
21,117000	0,5	-5,973950
21,125333	0,5	-5,997900
21,133667	0,5	-5,995000
21,142000	0,5	-6,019850
21,150333	0,5	-6,057450
21,158667	0,5	-6,081850
21,167000	0,5	-6,125050
21,175333	0,5	-6,152850
21,183667	0,5	-6,211550
21,192000	0,5	-6,230400
21,200333	0,5	-6,260450
21,208667	0,5	-6,278700
21,217000	0,5	-6,304250
21,225333	0,5	-6,330400
21,233667	0,5	-6,356300
21,242000	0,5	-6,369750
21,250333	0,5	-6,379900
21,258667	0,5	-6,394850
21,267000	0,5	-6,406600
21,275333	0,5	-6,392600
21,283667	0,5	-6,374900
21,292000	0,5	-6,401300
21,300333	0,5	-6,420800
21,308667	0,5	-6,455500
21,317000	0,5	-6,496050
21,325333	0,5	-6,547100
21,333667	0,5	-6,590000
21,342000	0,5	-6,598100
21,350333	0,5	-6,626650
21,358667	0,5	-6,657850
21,367000	0,5	-6,673550
21,375333	0,5	-6,692200
21,383667	0,5	-6,707150
21,392000	0,5	-6,711550
21,400333	0,5	-6,741450
21,408667	0,5	-6,752700
21,417000	0,5	-6,773050
21,425333	0,5	-6,754000
21,433667	0,5	-6,758200
21,442000	0,5	-6,783500
21,450333	0,5	-6,806650
21,458667	0,5	-6,824850
21,467000	0,5	-6,872200
21,475333	0,5	-6,914350
21,483667	0,5	-6,929750
21,492000	0,5	-6,940800
21,500333	0,5	-6,963650
21,508667	0,5	-6,979750
21,517000	0,5	-7,003350
21,525333	0,5	-7,009950
21,533667	0,5	-7,029350
21,542000	0,5	-7,060950
21,550333	0,5	-7,074550
21,558667	0,5	-7,087750
21,567000	0,5	-7,068700
21,575333	0,5	-7,067050
21,583667	0,5	-7,080200
21,592000	0,5	-7,094550
21,600333	0,5	-7,115800
21,608667	0,5	-7,130650
21,617000	0,5	-7,149100
21,625333	0,5	-7,176450
21,633667	0,5	-7,165450
21,642000	0,5	-7,168950
21,650333	0,5	-7,167000
21,658667	0,5	-7,153850
21,667000	0,5	-7,153300
21,675333	0,5	-7,165950
21,683667	0,5	-7,178150
21,692000	0,5	-7,198250
21,700333	0,5	-7,225650
21,708667	0,5	-7,242800
21,717000	0,5	-7,228050
21,725333	0,5	-7,232400
21,733667	0,5	-7,249700
21,742000	0,5	-7,259250
21,750333	0,5	-7,289950
21,758667	0,5	-7,313200
21,767000	0,5	-7,350350
21,775333	0,5	-7,366350
21,783667	0,5	-7,372750
21,792000	0,5	-7,366250
21,800333	0,5	-7,378250
21,808667	0,5	-7,384900
21,817000	0,5	-7,383750
21,825333	0,5	-7,384150
21,833667	0,5	-7,382550
21,842000	0,5	-7,390400
21,850333	0,5	-7,396700
21,858667	0,5	-7,405850
21,867000	0,5	-7,394200
21,875333	0,5	-7,414500
21,883667	0,5	-7,421400
21,892000	0,5	-7,439500
21,900333	0,5	-7,443650
21,908667	0,5	-7,462050
21,917000	0,5	-7,430100
21,925333	0,5	-7,364650
21,933667	0,5	-7,298800
21,942000	0,5	-7,267050
21,950333	0,5	-7,266400
21,958667	0,5	-7,321950
21,967000	0,5	-7,386250
21,975333	0,5	-7,444350
21,983667	0,5	-7,491100
21,992000	0,5	-7,546300
22,000333	0,5	-7,589050
22,008667	0,5	-7,613200
22,017000	0,5	-7,662150
22,025333	0,5	-7,691000
22,033667	0,5	-7,727450
22,042000	0,5	-7,755300
22,050333	0,5	-7,806300
22,058667	0,5	-7,838100
22,067000	0,5	-7,882800
22,075333	0,5	-7,895050
22,083667	0,5	-7,921450
22,092000	0,5	-7,929250
22,100333	0,5	-7,952500
22,108667	0,5	-7,972700
22,117000	0,5	-7,989950
22,125333	0,5	-8,005600
22,133667	0,5	-8,022150
22,142000	0,5	-8,045300
22,150333	0,5	-8,055250
22,158667	0,5	-8,084750
22,167000	0,5	-8,102900
22,175333	0,5	-8,103250
22,183667	0,5	-8,105550
22,192000	0,5	-8,121450
22,200333	0,5	-8,155000
22,208667	0,5	-8,181000
22,217000	0,5	-8,172000
22,225333	0,5	-8,177750
22,233667	0,5	-8,191100
22,242000	0,5	-8,194650
22,250333	0,5	-8,188600
22,258667	0,5	-8,189850
22,267000	0,5	-8,198350
22,275333	0,5	-8,202150
22,283667	0,5	-8,201300
22,292000	0,5	-8,189050
22,300333	0,5	-8,215800
22,308667	0,5	-8,221300
22,317000	0,5	-8,183800
22,325333	0,5	-8,160900
22,333667	0,5	-8,141300
22,342000	0,5	-8,110750
22,350333	0,5	-8,068550
22,358667	0,5	-7,956250
22,367000	0,5	-7,830800
22,375333	0,5	-7,758400
22,383667	0,5	-7,746750
22,392000	0,5	-7,787650
22,400333	0,5	-7,861100
22,408667	0,5	-7,920500
22,417000	0,5	-7,968900
22,425333	0,5	-8,022300
22,433667	0,5	-8,060350
22,442000	0,5	-8,111600
22,450333	0,5	-8,139600
22,458667	0,5	-8,160050
22,467000	0,5	-8,141900
22,475333	0,5	-8,148300
22,483667	0,5	-8,151500
22,492000	0,5	-8,165500
22,500333	0,5	-8,168250
22,508667	0,5	-8,141300
22,517000	0,5	-8,126700
22,525333	0,5	-8,108150
22,533667	0,5	-8,086450
22,542000	0,5	-8,070600
22,550333	0,5	-8,048500
22,558667	0,5	-8,022750
22,567000	0,5	-8,002550
22,575333	0,5	-7,987000
22,583667	0,5	-8,002700
22,592000	0,5	-8,037900
22,600333	0,5	-8,046250
22,608667	0,5	-8,008000
22,617000	0,5	-7,987850
22,625333	0,5	-7,980050
22,633667	0,5	-7,999850
22,642000	0,5	-7,999800
22,650333	0,5	-8,002300
22,658667	0,5	-7,994350
22,667000	0,5	-7,992350
22,675333	0,5	-7,989100
22,683667	0,5	-7,991700
22,692000	0,5	-7,986850
22,700333	0,5	-7,985600
22,708667	0,5	-7,991650
22,717000	0,5	-7,984600
22,725333	0,5	-7,994300
22,733667	0,5	-8,055850
22,742000	0,5	-8,081300
22,750333	0,5	-8,062200
22,758667	0,5	-8,027850
22,767000	0,5	-8,039300
22,775333	0,5	-8,046000
22,783667	0,5	-8,072500
22,792000	0,5	-8,108450
22,800333	0,5	-8,103950
22,808667	0,5	-8,129450
22,817000	0,5	-8,138000
22,825333	0,5	-8,165300
22,833667	0,5	-8,181500
22,842000	0,5	-8,201450
22,850333	0,5	-8,235200
22,858667	0,5	-8,261300
22,867000	0,5	-8,276850
22,875333	0,5	-8,301850
22,883667	0,5	-8,429950
22,892000	0,5	-8,415350
22,900333	0,5	-8,408000
22,908667	0,5	-8,444000
22,917000	0,5	-8,456850
22,925333	0,5	-8,482700
22,933667	0,5	-8,514850
22,942000	0,5	-8,534900
22,950333	0,5	-8,569450
22,958667	0,5	-8,581850
22,967000	0,5	-8,589100
22,975333	0,5	-8,596400
22,983667	0,5	-8,584650
22,992000	0,5	-8,572950
23,000333	0,5	-8,578100
23,008667	0,5	-8,552900
23,017000	0,5	-8,530300
23,025333	0,5	-8,474400
23,033667	0,5	-8,485500
23,042000	0,5	-8,435850
23,050333	0,5	-8,433400
23,058667	0,5	-8,427500
23,067000	0,5	-8,393250
23,075333	0,5	-8,342300
23,083667	0,5	-8,306450
23,092000	0,5	-8,264950
23,100333	0,5	-8,231950
23,108667	0,5	-8,171850
23,117000	0,5	-8,114900
23,125333	0,5	-8,058400
23,133667	0,5	-7,986000
23,142000	0,5	-7,907600
23,150333	0,5	-7,830450
23,158667	0,5	-7,747700
23,167000	0,5	-7,648100
23,175333	0,5	-7,543350
23,183667	0,5	-7,469500
23,192000	0,5	-7,367550
23,200333	0,5	-7,329600
23,208667	0,5	-7,268100
23,217000	0,5	-7,178400
23,225333	0,5	-7,093150
23,233667	0,5	-7,008900
23,242000	0,5	-6,938000
23,250333	0,5	-6,853950
23,258667	0,5	-6,779700
23,267000	0,5	-6,684450
23,275333	0,5	-6,605950
23,283667	0,5	-6,504700
23,292000	0,5	-6,405100
23,300333	0,5	-6,307400
23,308667	0,5	-6,209250
23,317000	0,5	-6,094300
23,325333	0,5	-6,035850
23,333667	0,5	-5,902550
23,342000	0,5	-5,796350
23,350333	0,5	-5,749000
23,358667	0,5	-5,673600
23,367000	0,5	-5,595000
23,375333	0,5	-5,498400
23,383667	0,5	-5,438150
23,392000	0,5	-5,365250
23,400333	0,5	-5,296350
23,408667	0,5	-5,217050
23,417000	0,5	-5,151400
23,425333	0,5	-5,074250
23,433667	0,5	-5,000700
23,442000	0,5	-4,924000
23,450333	0,5	-4,848050
23,458667	0,5	-4,770950
23,467000	0,5	-4,726950
23,475333	0,5	-4,669200
23,483667	0,5	-4,567250
23,492000	0,5	-4,476150
23,500333	0,5	-4,416700
23,508667	0,5	-4,361650
23,517000	0,5	-4,307850
23,525333	0,5	-4,243350
23,533667	0,5	-4,200700
23,542000	0,5	-4,165000
23,550333	0,5	-4,106600
23,558667	0,5	-4,069700
23,567000	0,5	-4,024300
23,575333	0,5	-3,983650
23,583667	0,5	-3,932150
23,592000	0,5	-3,894400
23,600333	0,5	-3,847350
23,608667	0,5	-3,802050
23,617000	0,5	-3,897100
23,625333	0,5	-3,817950
23,633667	0,5	-3,737250
23,642000	0,5	-3,665550
23,650333	0,5	-3,631700
23,658667	0,5	-3,591950
23,667000	0,5	-3,562100
23,675333	0,5	-3,525900
23,683667	0,5	-3,498500
23,692000	0,5	-3,467350
23,700333	0,5	-3,436250
23,708667	0,5	-3,404350
23,717000	0,5	-3,373700
23,725333	0,5	-3,345150
23,733667	0,5	-3,318950
23,742000	0,5	-3,287350
23,750333	0,5	-3,255450
23,758667	0,5	-3,300450
23,767000	0,5	-3,361850
23,775333	0,5	-3,323650
23,783667	0,5	-3,239100
23,792000	0,5	-3,184000
23,800333	0,5	-3,147800
23,808667	0,5	-3,126200
23,817000	0,5	-3,115450
23,825333	0,5	-3,096400
23,833667	0,5	-3,070550
23,842000	0,5	-3,047450
23,850333	0,5	-3,025950
23,858667	0,5	-2,998800
23,867000	0,5	-2,972150
23,875333	0,5	-2,946000
23,883667	0,5	-2,920250
23,892000	0,5	-2,888100
23,900333	0,5	-2,862850
23,908667	0,5	-3,024250
23,917000	0,5	-3,003650
23,925333	0,5	-2,940800
23,933667	0,5	-2,855050
23,942000	0,5	-2,798450
23,950333	0,5	-2,759750
23,958667	0,5	-2,729100
23,967000	0,5	-2,725600
23,975333	0,5	-2,699450
23,983667	0,5	-2,668350
23,992000	0,5	-2,644900
24,000333	0,5	-2,620050
24,008667	0,5	-2,591650
24,017000	0,5	-2,570600
24,025333	0,5	-2,547800
24,033667	0,5	-2,521950
24,042000	0,5	-2,495600
24,050333	0,5	-2,476750
24,058667	0,5	-2,644250
24,067000	0,5	-2,593700
24,075333	0,5	-2,532200
24,083667	0,5	-2,456700
24,092000	0,5	-2,416150
24,100333	0,5	-2,378400
24,108667	0,5	-2,367400
24,117000	0,5	-2,343400
24,125333	0,5	-2,326850
24,133667	0,5	-2,283700
24,142000	0,5	-2,259450
24,150333	0,5	-2,223200
24,158667	0,5	-2,197450
24,167000	0,5	-2,164650
24,175333	0,5	-2,128800
24,183667	0,5	-2,101700
24,192000	0,5	-2,074700
24,200333	0,5	-2,162900
24,208667	0,5	-2,182050
24,217000	0,5	-2,152000
24,225333	0,5	-2,084500
24,233667	0,5	-2,034250
24,242000	0,5	-1,997550
24,250333	0,5	-1,971300
24,258667	0,5	-1,965600
24,267000	0,5	-1,954150
24,275333	0,5	-1,912250
24,283667	0,5	-1,896050
24,292000	0,5	-1,865950
24,300333	0,5	-1,839300
24,308667	0,5	-1,816250
24,317000	0,5	-1,793400
24,325333	0,5	-1,761500
24,333667	0,5	-1,738250
24,342000	0,5	-1,717450
24,350333	0,5	-1,822900
24,358667	0,5	-1,791750
24,367000	0,5	-1,751250
24,375333	0,5	-1,692700
24,383667	0,5	-1,646000
24,392000	0,5	-1,615250
24,400333	0,5	-1,597700
24,408667	0,5	-1,585850
24,417000	0,5	-1,557900
24,425333	0,5	-1,534100
24,433667	0,5	-1,517350
24,442000	0,5	-1,498950
24,450333	0,5	-1,475100
24,458667	0,5	-1,455700
24,467000	0,5	-1,433950
24,475333	0,5	-1,412400
24,483667	0,5	-1,390900
24,492000	0,5	-1,405600
24,500333	0,5	-1,468800
24,508667	0,5	-1,452200
24,517000	0,5	-1,404750
24,525333	0,5	-1,364600
24,533667	0,5	-1,333650
24,542000	0,5	-1,321350
24,550333	0,5	-1,318300
24,558667	0,5	-1,302650
24,567000	0,5	-1,277050
24,575333	0,5	-1,254550
24,583667	0,5	-1,239050
24,592000	0,5	-1,218350
24,600333	0,5	-1,195750
24,608667	0,5	-1,175600
24,617000	0,5	-1,160050
24,625333	0,5	-1,135700
24,633667	0,5	-1,128950
24,642000	0,5	-1,189200
24,650333	0,5	-1,167600
24,658667	0,5	-1,149250
24,667000	0,5	-1,118100
24,675333	0,5	-1,093000
24,683667	0,5	-1,076800
24,692000	0,5	-1,070850
24,700333	0,5	-1,066600
24,708667	0,5	-1,060500
24,717000	0,5	-1,037350
24,725333	0,5	-1,029550
24,733667	0,5	-1,015500
24,742000	0,5	-1,008750
24,750333	0,5	-0,996300
24,758667	0,5	-0,993000
24,767000	0,5	-0,971000
24,775333	0,5	-0,957350
24,783667	0,5	-0,946800
24,792000	0,5	-0,992400
24,800333	0,5	-0,964400
24,808667	0,5	-0,952050
24,817000	0,5	-0,923150
24,825333	0,5	-0,899750
24,833667	0,5	-0,886700
24,842000	0,5	-0,880150
24,850333	0,5	-0,884100
24,858667	0,5	-0,867550
24,867000	0,5	-0,854500
24,875333	0,5	-0,841700
24,883667	0,5	-0,838550
24,892000	0,5	-0,827500
24,900333	0,5	-0,821050
24,908667	0,5	-0,816100
24,917000	0,5	-0,809600
24,925333	0,5	-0,803150
24,933667	0,5	-0,813700
24,942000	0,5	-0,830750
24,950333	0,5	-0,818350
24,958667	0,5	-0,806500
24,967000	0,5	-0,790950
24,975333	0,5	-0,777450
24,983667	0,5	-0,767850
24,992000	0,5	-0,763000
25,000333	0,5	-0,755550
25,008667	0,5	-0,750650
25,017000	0,5	-0,743350
25,025333	0,5	-0,733500
25,033667	0,5	-0,722250
25,042000	0,5	-0,716100
25,050333	0,5	-0,707000
25,058667	0,5	-0,701350
25,067000	0,5	-0,694250
25,075333	0,5	-0,691300
25,083667	0,5	-0,700300
25,092000	0,5	-0,701800
25,100333	0,5	-0,693800
25,108667	0,5	-0,693200
25,117000	0,5	-0,682750
25,125333	0,5	-0,679500
25,133667	0,5	-0,676200
25,142000	0,5	-0,676900
25,150333	0,5	-0,678550
25,158667	0,5	-0,678250
25,167000	0,5	-0,671500
25,175333	0,5	-0,665700
25,183667	0,5	-0,660100
25,192000	0,5	-0,654250
25,200333	0,5	-0,646700
25,208667	0,5	-0,640100
25,217000	0,5	-0,633550
25,225333	0,5	-0,628800
25,233667	0,5	-0,633100
25,242000	0,5	-0,621000
25,250333	0,5	-0,610650
25,258667	0,5	-0,610750
25,267000	0,5	-0,611650
25,275333	0,5	-0,611650
25,283667	0,5	-0,606100
25,292000	0,5	-0,607050
25,300333	0,5	-0,607300
25,308667	0,5	-0,608500
25,317000	0,5	-0,606100
25,325333	0,5	-0,609400
25,333667	0,5	-0,608700
25,342000	0,5	-0,607150
25,350333	0,5	-0,602650
25,358667	0,5	-0,599550
25,367000	0,5	-0,601950
25,375333	0,5	-0,597600
25,383667	0,5	-0,585800
25,392000	0,5	-0,576450
25,400333	0,5	-0,573100
25,408667	0,5	-0,571900
25,417000	0,5	-0,565650
25,425333	0,5	-0,561800
25,433667	0,5	-0,565250
25,442000	0,5	-0,558300
25,450333	0,5	-0,559200
25,458667	0,5	-0,558850
25,467000	0,5	-0,558150
25,475333	0,5	-0,555750
25,483667	0,5	-0,553800
25,492000	0,5	-0,553750
25,500333	0,5	-0,555200
25,508667	0,5	-0,551850
25,517000	0,5	-0,555900
25,525333	0,5	-0,551650
25,533667	0,5	-0,539400
25,542000	0,5	-0,538350
25,550333	0,5	-0,536050
25,558667	0,5	-0,543000
25,567000	0,5	-0,537900
25,575333	0,5	-0,539700
25,583667	0,5	-0,531850
25,592000	0,5	-0,531750
25,600333	0,5	-0,533950
25,608667	0,5	-0,525250
25,617000	0,5	-0,527950
25,625333	0,5	-0,530100
25,633667	0,5	-0,526500
25,642000	0,5	-0,525150
25,650333	0,5	-0,523600
25,658667	0,5	-0,521000
25,667000	0,5	-0,518450
25,675333	0,5	-0,499250
25,683667	0,5	-0,505050
25,692000	0,5	-0,496300
25,700333	0,5	-0,508300
25,708667	0,5	-0,511850
25,717000	0,5	-0,511700
25,725333	0,5	-0,514550
25,733667	0,5	-0,507800
25,742000	0,5	-0,508050
25,750333	0,5	-0,508750
25,758667	0,5	-0,506350
25,767000	0,5	-0,506200
25,775333	0,5	-0,510000
25,783667	0,5	-0,503500
25,792000	0,5	-0,504300
25,800333	0,5	-0,502950
25,808667	0,5	-0,503200
25,817000	0,5	-0,494400
25,825333	0,5	-0,472900
25,833667	0,5	-0,475550
25,842000	0,5	-0,472500
25,850333	0,5	-0,476700
25,858667	0,5	-0,482050
25,867000	0,5	-0,485700
25,875333	0,5	-0,475650
25,883667	0,5	-0,466300
25,892000	0,5	-0,474250
25,900333	0,5	-0,478500
25,908667	0,5	-0,477300
25,917000	0,5	-0,476900
25,925333	0,5	-0,477100
25,933667	0,5	-0,475750
25,942000	0,5	-0,475300
25,950333	0,5	-0,470400
25,958667	0,5	-0,468900
25,967000	0,5	-0,441300
25,975333	0,5	-0,443550
25,983667	0,5	-0,430500
25,992000	0,5	-0,433800
26,000333	0,5	-0,442400
