File Path	chrom://chromeleon01/ikbm_chromeleon/2022/ICS-5000/ED1/Esteban/20220427_Cell_Amandas_mutants.seq/607.smp/ED_1.channel/ED_1.chm
Channel	ED_1

Injection Information:
Data Vault	ikbm_chromeleon
Injection	1h_PASC_WT
Injection Number	66
Position	GC2
Comment	
Processing Method	Stop sequence after Cell Death
Instrument Method	ICS5000_PA200_FullNative_Ox_26min_ED1
Type	Unknown
Status	Finished
Injection Date	28.04.2022
Injection Time	20:01:37
Injection Volume (µl)	5,0
Dilution Factor	1,0000
Weight	1,0000

Chromatogram Data Information:
Time Min. (min)	0,000167
Time Max. (min)	26,000167
Data Points	3121
Detector	EDet1
Generating Data System	Chromeleon 7.2.9.11323
Exporting Data System	Chromeleon 7.2.9.0
Operator	Instrument Controller
Signal Quantity	
Signal Unit	nC
Signal Min.	-8,410950
Signal Max.	46,646251
Channel	ED_1
Driver Name	DC-5000
Channel Type	Evaluation
Min. Step (s)	0,5
Max. Step (s)	0,5
Average Step (s)	0,5

Signal Parameter Information:
Signal Info	

Chromatogram Data:
Time (min)	Step (s)	Value (nC)
0,000167	n.a.	-0,057650
0,008500	0,5	-0,061650
0,016833	0,5	-0,057300
0,025167	0,5	-0,056750
0,033500	0,5	-0,062650
0,041833	0,5	-0,035750
0,050167	0,5	0,004300
0,058500	0,5	0,031250
0,066833	0,5	0,008050
0,075167	0,5	0,016900
0,083500	0,5	0,011100
0,091833	0,5	0,015550
0,100167	0,5	0,011700
0,108500	0,5	0,030200
0,116833	0,5	0,023650
0,125167	0,5	0,014600
0,133500	0,5	0,019450
0,141833	0,5	0,019400
0,150167	0,5	0,009450
0,158500	0,5	0,055750
0,166833	0,5	0,025950
0,175167	0,5	0,018600
0,183500	0,5	0,013200
0,191833	0,5	0,023100
0,200167	0,5	0,074950
0,208500	0,5	0,067850
0,216833	0,5	0,062150
0,225167	0,5	0,044500
0,233500	0,5	0,055050
0,241833	0,5	0,034150
0,250167	0,5	0,043900
0,258500	0,5	0,034100
0,266833	0,5	0,027550
0,275167	0,5	0,031600
0,283500	0,5	0,038900
0,291833	0,5	0,069800
0,300167	0,5	0,095650
0,308500	0,5	0,165700
0,316833	0,5	0,104700
0,325167	0,5	0,038700
0,333500	0,5	0,019250
0,341833	0,5	0,025250
0,350167	0,5	0,065050
0,358500	0,5	0,058750
0,366833	0,5	0,046600
0,375167	0,5	0,052550
0,383500	0,5	0,041600
0,391833	0,5	0,039600
0,400167	0,5	0,032250
0,408500	0,5	0,036700
0,416833	0,5	0,029550
0,425167	0,5	0,038400
0,433500	0,5	0,036700
0,441833	0,5	0,033500
0,450167	0,5	0,021850
0,458500	0,5	0,038800
0,466833	0,5	0,007750
0,475167	0,5	0,017650
0,483500	0,5	0,013050
0,491833	0,5	0,043450
0,500167	0,5	0,075400
0,508500	0,5	0,049100
0,516833	0,5	0,056650
0,525167	0,5	0,055750
0,533500	0,5	0,046850
0,541833	0,5	0,040700
0,550167	0,5	0,047800
0,558500	0,5	0,032800
0,566833	0,5	0,032550
0,575167	0,5	0,027150
0,583500	0,5	0,026000
0,591833	0,5	0,015700
0,600167	0,5	0,043750
0,608500	0,5	0,021500
0,616833	0,5	0,015650
0,625167	0,5	0,021150
0,633500	0,5	0,037450
0,641833	0,5	0,067750
0,650167	0,5	0,088050
0,658500	0,5	0,078400
0,666833	0,5	0,074950
0,675167	0,5	0,065350
0,683500	0,5	0,054500
0,691833	0,5	0,053400
0,700167	0,5	0,051200
0,708500	0,5	0,053400
0,716833	0,5	0,043200
0,725167	0,5	0,064850
0,733500	0,5	0,048150
0,741833	0,5	0,059600
0,750167	0,5	0,065950
0,758500	0,5	0,055700
0,766833	0,5	0,043500
0,775167	0,5	0,060100
0,783500	0,5	0,073100
0,791833	0,5	0,105750
0,800167	0,5	0,105650
0,808500	0,5	0,106250
0,816833	0,5	0,099300
0,825167	0,5	0,109850
0,833500	0,5	0,102600
0,841833	0,5	0,102400
0,850167	0,5	0,105500
0,858500	0,5	0,096850
0,866833	0,5	0,106600
0,875167	0,5	0,107550
0,883500	0,5	0,116500
0,891833	0,5	0,131550
0,900167	0,5	0,139300
0,908500	0,5	0,111600
0,916833	0,5	0,111550
0,925167	0,5	0,118100
0,933500	0,5	0,169100
0,941833	0,5	0,175150
0,950167	0,5	0,169000
0,958500	0,5	0,152850
0,966833	0,5	0,169700
0,975167	0,5	0,162450
0,983500	0,5	0,167900
0,991833	0,5	0,163300
1,000167	0,5	0,161500
1,008500	0,5	0,159050
1,016833	0,5	0,175350
1,025167	0,5	0,191850
1,033500	0,5	0,174950
1,041833	0,5	0,210450
1,050167	0,5	0,191950
1,058500	0,5	0,183000
1,066833	0,5	0,173950
1,075167	0,5	0,194450
1,083500	0,5	0,231850
1,091833	0,5	0,245350
1,100167	0,5	0,222500
1,108500	0,5	0,241050
1,116833	0,5	0,237150
1,125167	0,5	0,245200
1,133500	0,5	0,251700
1,141833	0,5	0,262950
1,150167	0,5	0,255250
1,158500	0,5	0,256000
1,166833	0,5	0,265750
1,175167	0,5	0,262500
1,183500	0,5	0,248150
1,191833	0,5	0,298550
1,200167	0,5	0,271050
1,208500	0,5	0,273750
1,216833	0,5	0,281800
1,225167	0,5	0,303000
1,233500	0,5	0,362800
1,241833	0,5	0,341900
1,250167	0,5	0,341350
1,258500	0,5	0,340950
1,266833	0,5	0,350150
1,275167	0,5	0,342700
1,283500	0,5	0,358950
1,291833	0,5	0,356700
1,300167	0,5	0,366700
1,308500	0,5	0,374650
1,316833	0,5	0,390750
1,325167	0,5	0,399450
1,333500	0,5	0,406350
1,341833	0,5	0,433450
1,350167	0,5	0,409950
1,358500	0,5	0,414450
1,366833	0,5	0,422450
1,375167	0,5	0,451050
1,383500	0,5	0,492450
1,391833	0,5	0,497250
1,400167	0,5	0,496050
1,408500	0,5	0,504800
1,416833	0,5	0,507300
1,425167	0,5	0,519600
1,433500	0,5	0,526600
1,441833	0,5	0,541400
1,450167	0,5	0,532350
1,458500	0,5	0,556850
1,466833	0,5	0,564900
1,475167	0,5	0,582750
1,483500	0,5	0,589900
1,491833	0,5	0,599650
1,500167	0,5	0,588550
1,508500	0,5	0,599950
1,516833	0,5	0,611900
1,525167	0,5	0,648750
1,533500	0,5	0,677700
1,541833	0,5	0,677950
1,550167	0,5	0,685250
1,558500	0,5	0,694750
1,566833	0,5	0,694050
1,575167	0,5	0,608150
1,583500	0,5	0,107800
1,591833	0,5	-1,026900
1,600167	0,5	-1,678550
1,608500	0,5	-0,516150
1,616833	0,5	1,677450
1,625167	0,5	3,708150
1,633500	0,5	5,741150
1,641833	0,5	7,567450
1,650167	0,5	8,569650
1,658500	0,5	8,559050
1,666833	0,5	7,990200
1,675167	0,5	7,282950
1,683500	0,5	6,597650
1,691833	0,5	5,996000
1,700167	0,5	5,626850
1,708500	0,5	5,677650
1,716833	0,5	6,658300
1,725167	0,5	8,660550
1,733500	0,5	10,331600
1,741833	0,5	10,130500
1,750167	0,5	8,470950
1,758500	0,5	6,718600
1,766833	0,5	5,441650
1,775167	0,5	5,445450
1,783500	0,5	4,580500
1,791833	0,5	5,108000
1,800167	0,5	6,219400
1,808500	0,5	7,388400
1,816833	0,5	8,187300
1,825167	0,5	8,388750
1,833500	0,5	7,879350
1,841833	0,5	7,063850
1,850167	0,5	6,290500
1,858500	0,5	5,692800
1,866833	0,5	5,206150
1,875167	0,5	4,850950
1,883500	0,5	4,562300
1,891833	0,5	4,309700
1,900167	0,5	4,093400
1,908500	0,5	3,890800
1,916833	0,5	3,727450
1,925167	0,5	3,621200
1,933500	0,5	3,500750
1,941833	0,5	3,388850
1,950167	0,5	3,313850
1,958500	0,5	3,255350
1,966833	0,5	3,236650
1,975167	0,5	3,203000
1,983500	0,5	3,199300
1,991833	0,5	3,194350
2,000167	0,5	3,245050
2,008500	0,5	3,317500
2,016833	0,5	3,488300
2,025167	0,5	3,812250
2,033500	0,5	4,476000
2,041833	0,5	5,487150
2,050167	0,5	6,753100
2,058500	0,5	8,614450
2,066833	0,5	12,117500
2,075167	0,5	17,615100
2,083500	0,5	23,148050
2,091833	0,5	26,662550
2,100167	0,5	27,866950
2,108500	0,5	27,647400
2,116833	0,5	26,837950
2,125167	0,5	25,852650
2,133500	0,5	24,889400
2,141833	0,5	23,984750
2,150167	0,5	23,045000
2,158500	0,5	22,146450
2,166833	0,5	21,283550
2,175167	0,5	20,412050
2,183500	0,5	19,526550
2,191833	0,5	18,733850
2,200167	0,5	18,015150
2,208500	0,5	17,360150
2,216833	0,5	16,755500
2,225167	0,5	16,279700
2,233500	0,5	15,807300
2,241833	0,5	15,426350
2,250167	0,5	15,074600
2,258500	0,5	14,774450
2,266833	0,5	14,528200
2,275167	0,5	14,242650
2,283500	0,5	14,006850
2,291833	0,5	13,798200
2,300167	0,5	13,613600
2,308500	0,5	13,433450
2,316833	0,5	13,284900
2,325167	0,5	13,137650
2,333500	0,5	13,012700
2,341833	0,5	12,908000
2,350167	0,5	12,834750
2,358500	0,5	12,755650
2,366833	0,5	12,712700
2,375167	0,5	12,684900
2,383500	0,5	12,645400
2,391833	0,5	12,632750
2,400167	0,5	12,666450
2,408500	0,5	12,751450
2,416833	0,5	12,877550
2,425167	0,5	12,942900
2,433500	0,5	12,888750
2,441833	0,5	12,704600
2,450167	0,5	12,527650
2,458500	0,5	12,444300
2,466833	0,5	12,439000
2,475167	0,5	12,432600
2,483500	0,5	12,415600
2,491833	0,5	12,395800
2,500167	0,5	12,374400
2,508500	0,5	12,335000
2,516833	0,5	12,306050
2,525167	0,5	12,256150
2,533500	0,5	12,191850
2,541833	0,5	12,148750
2,550167	0,5	12,122500
2,558500	0,5	12,132800
2,566833	0,5	12,156050
2,575167	0,5	12,197100
2,583500	0,5	12,327300
2,591833	0,5	12,620900
2,600167	0,5	13,119650
2,608500	0,5	13,870850
2,616833	0,5	14,796000
2,625167	0,5	15,746300
2,633500	0,5	16,568750
2,641833	0,5	17,166400
2,650167	0,5	17,472000
2,658500	0,5	17,431950
2,666833	0,5	17,141300
2,675167	0,5	16,680300
2,683500	0,5	16,251150
2,691833	0,5	15,960200
2,700167	0,5	15,905250
2,708500	0,5	16,155050
2,716833	0,5	16,777050
2,725167	0,5	17,936350
2,733500	0,5	20,040750
2,741833	0,5	23,508850
2,750167	0,5	28,640250
2,758500	0,5	34,982401
2,766833	0,5	41,142601
2,775167	0,5	45,377351
2,783500	0,5	46,646251
2,791833	0,5	44,975801
2,800167	0,5	41,196251
2,808500	0,5	36,529601
2,816833	0,5	31,959100
2,825167	0,5	28,069150
2,833500	0,5	25,129050
2,841833	0,5	23,157350
2,850167	0,5	22,079150
2,858500	0,5	21,616800
2,866833	0,5	21,318850
2,875167	0,5	20,785650
2,883500	0,5	19,771500
2,891833	0,5	18,391550
2,900167	0,5	16,877900
2,908500	0,5	15,466450
2,916833	0,5	14,226700
2,925167	0,5	13,196450
2,933500	0,5	12,325950
2,941833	0,5	11,599950
2,950167	0,5	10,969000
2,958500	0,5	10,457450
2,966833	0,5	9,975300
2,975167	0,5	9,538150
2,983500	0,5	9,145600
2,991833	0,5	8,788700
3,000167	0,5	8,480500
3,008500	0,5	8,171000
3,016833	0,5	7,879300
3,025167	0,5	7,595100
3,033500	0,5	7,345850
3,041833	0,5	7,093000
3,050167	0,5	6,865000
3,058500	0,5	6,633550
3,066833	0,5	6,415150
3,075167	0,5	6,197850
3,083500	0,5	5,993700
3,091833	0,5	5,781150
3,100167	0,5	5,581000
3,108500	0,5	5,413150
3,116833	0,5	5,220200
3,125167	0,5	5,039950
3,133500	0,5	4,890600
3,141833	0,5	4,747550
3,150167	0,5	4,653150
3,158500	0,5	4,532250
3,166833	0,5	4,421250
3,175167	0,5	4,339750
3,183500	0,5	4,289000
3,191833	0,5	4,284950
3,200167	0,5	4,360750
3,208500	0,5	4,547800
3,216833	0,5	4,829800
3,225167	0,5	5,150300
3,233500	0,5	5,408850
3,241833	0,5	5,497200
3,250167	0,5	5,370000
3,258500	0,5	5,091950
3,266833	0,5	4,664000
3,275167	0,5	4,234400
3,283500	0,5	3,853800
3,291833	0,5	3,560850
3,300167	0,5	3,318700
3,308500	0,5	3,102600
3,316833	0,5	2,920900
3,325167	0,5	2,781850
3,333500	0,5	2,652500
3,341833	0,5	2,533200
3,350167	0,5	2,434700
3,358500	0,5	2,330500
3,366833	0,5	2,249550
3,375167	0,5	2,166400
3,383500	0,5	2,100400
3,391833	0,5	2,017400
3,400167	0,5	1,966500
3,408500	0,5	1,911750
3,416833	0,5	1,849250
3,425167	0,5	1,788900
3,433500	0,5	1,747150
3,441833	0,5	1,718350
3,450167	0,5	1,692800
3,458500	0,5	1,631350
3,466833	0,5	1,597200
3,475167	0,5	1,553650
3,483500	0,5	1,514050
3,491833	0,5	1,472000
3,500167	0,5	1,447450
3,508500	0,5	1,403150
3,516833	0,5	1,370550
3,525167	0,5	1,340050
3,533500	0,5	1,292150
3,541833	0,5	1,242550
3,550167	0,5	1,224500
3,558500	0,5	1,182950
3,566833	0,5	1,137900
3,575167	0,5	1,116100
3,583500	0,5	1,085350
3,591833	0,5	1,102400
3,600167	0,5	1,073800
3,608500	0,5	1,036650
3,616833	0,5	1,001400
3,625167	0,5	0,978050
3,633500	0,5	0,947450
3,641833	0,5	0,920850
3,650167	0,5	0,891650
3,658500	0,5	0,861550
3,666833	0,5	0,840700
3,675167	0,5	0,819450
3,683500	0,5	0,798800
3,691833	0,5	0,771650
3,700167	0,5	0,773900
3,708500	0,5	0,739650
3,716833	0,5	0,721400
3,725167	0,5	0,709450
3,733500	0,5	0,709300
3,741833	0,5	0,722450
3,750167	0,5	0,728950
3,758500	0,5	0,707250
3,766833	0,5	0,711150
3,775167	0,5	0,695750
3,783500	0,5	0,688900
3,791833	0,5	0,678650
3,800167	0,5	0,677150
3,808500	0,5	0,660850
3,816833	0,5	0,653950
3,825167	0,5	0,639450
3,833500	0,5	0,621550
3,841833	0,5	0,609900
3,850167	0,5	0,605800
3,858500	0,5	0,577750
3,866833	0,5	0,569200
3,875167	0,5	0,558850
3,883500	0,5	0,581250
3,891833	0,5	0,598750
3,900167	0,5	0,585100
3,908500	0,5	0,587550
3,916833	0,5	0,577300
3,925167	0,5	0,571450
3,933500	0,5	0,560550
3,941833	0,5	0,559250
3,950167	0,5	0,544650
3,958500	0,5	0,550200
3,966833	0,5	0,533650
3,975167	0,5	0,527050
3,983500	0,5	0,509750
3,991833	0,5	0,524900
4,000167	0,5	0,516850
4,008500	0,5	0,509750
4,016833	0,5	0,510050
4,025167	0,5	0,514250
4,033500	0,5	0,543650
4,041833	0,5	0,543400
4,050167	0,5	0,542800
4,058500	0,5	0,543350
4,066833	0,5	0,539050
4,075167	0,5	0,534900
4,083500	0,5	0,535500
4,091833	0,5	0,532200
4,100167	0,5	0,529150
4,108500	0,5	0,523350
4,116833	0,5	0,543900
4,125167	0,5	0,527000
4,133500	0,5	0,530700
4,141833	0,5	0,548800
4,150167	0,5	0,536400
4,158500	0,5	0,521300
4,166833	0,5	0,529700
4,175167	0,5	0,537350
4,183500	0,5	0,575150
4,191833	0,5	0,574050
4,200167	0,5	0,574350
4,208500	0,5	0,570550
4,216833	0,5	0,581150
4,225167	0,5	0,579900
4,233500	0,5	0,584050
4,241833	0,5	0,591150
4,250167	0,5	0,587150
4,258500	0,5	0,597600
4,266833	0,5	0,604150
4,275167	0,5	0,609350
4,283500	0,5	0,616100
4,291833	0,5	0,632350
4,300167	0,5	0,622350
4,308500	0,5	0,624350
4,316833	0,5	0,627500
4,325167	0,5	0,665200
4,333500	0,5	0,686900
4,341833	0,5	0,683950
4,350167	0,5	0,680400
4,358500	0,5	0,704300
4,366833	0,5	0,709800
4,375167	0,5	0,715100
4,383500	0,5	0,720750
4,391833	0,5	0,722850
4,400167	0,5	0,728650
4,408500	0,5	0,730700
4,416833	0,5	0,738550
4,425167	0,5	0,727100
4,433500	0,5	0,755700
4,441833	0,5	0,764900
4,450167	0,5	0,762400
4,458500	0,5	0,767300
4,466833	0,5	0,784850
4,475167	0,5	0,818300
4,483500	0,5	0,835350
4,491833	0,5	0,820400
4,500167	0,5	0,834650
4,508500	0,5	0,831500
4,516833	0,5	0,839750
4,525167	0,5	0,830800
4,533500	0,5	0,847050
4,541833	0,5	0,842900
4,550167	0,5	0,842300
4,558500	0,5	0,852200
4,566833	0,5	0,844300
4,575167	0,5	0,833950
4,583500	0,5	0,858850
4,591833	0,5	0,851000
4,600167	0,5	0,854500
4,608500	0,5	0,859350
4,616833	0,5	0,881350
4,625167	0,5	0,922450
4,633500	0,5	0,928300
4,641833	0,5	0,935650
4,650167	0,5	0,938400
4,658500	0,5	0,949400
4,666833	0,5	0,952100
4,675167	0,5	0,960000
4,683500	0,5	0,965550
4,691833	0,5	0,982300
4,700167	0,5	0,984050
4,708500	0,5	0,995700
4,716833	0,5	0,996350
4,725167	0,5	1,011300
4,733500	0,5	1,026250
4,741833	0,5	1,027900
4,750167	0,5	1,038850
4,758500	0,5	1,043500
4,766833	0,5	1,067850
4,775167	0,5	1,095700
4,783500	0,5	1,113600
4,791833	0,5	1,109750
4,800167	0,5	1,124350
4,808500	0,5	1,130350
4,816833	0,5	1,140000
4,825167	0,5	1,147450
4,833500	0,5	1,156700
4,841833	0,5	1,162550
4,850167	0,5	1,182400
4,858500	0,5	1,191000
4,866833	0,5	1,201250
4,875167	0,5	1,210300
4,883500	0,5	1,222900
4,891833	0,5	1,219100
4,900167	0,5	1,230800
4,908500	0,5	1,242100
4,916833	0,5	1,275850
4,925167	0,5	1,301450
4,933500	0,5	1,310300
4,941833	0,5	1,311150
4,950167	0,5	1,327200
4,958500	0,5	1,327450
4,966833	0,5	1,335900
4,975167	0,5	1,344050
4,983500	0,5	1,349800
4,991833	0,5	1,356550
5,000167	0,5	1,359700
5,008500	0,5	1,362850
5,016833	0,5	1,364800
5,025167	0,5	1,385150
5,033500	0,5	1,389200
5,041833	0,5	1,389500
5,050167	0,5	1,402250
5,058500	0,5	1,424800
5,066833	0,5	1,450700
5,075167	0,5	1,471700
5,083500	0,5	1,481050
5,091833	0,5	1,504050
5,100167	0,5	1,520850
5,108500	0,5	1,533500
5,116833	0,5	1,547200
5,125167	0,5	1,559900
5,133500	0,5	1,567700
5,141833	0,5	1,563850
5,150167	0,5	1,565950
5,158500	0,5	1,550100
5,166833	0,5	1,553350
5,175167	0,5	1,552950
5,183500	0,5	1,539700
5,191833	0,5	1,525950
5,200167	0,5	1,521700
5,208500	0,5	1,534200
5,216833	0,5	1,557600
5,225167	0,5	1,559750
5,233500	0,5	1,558950
5,241833	0,5	1,561750
5,250167	0,5	1,560650
5,258500	0,5	1,554200
5,266833	0,5	1,567200
5,275167	0,5	1,562000
5,283500	0,5	1,562150
5,291833	0,5	1,568750
5,300167	0,5	1,567800
5,308500	0,5	1,557900
5,316833	0,5	1,564800
5,325167	0,5	1,574550
5,333500	0,5	1,566100
5,341833	0,5	1,558950
5,350167	0,5	1,564300
5,358500	0,5	1,586000
5,366833	0,5	1,596750
5,375167	0,5	1,591250
5,383500	0,5	1,580400
5,391833	0,5	1,587900
5,400167	0,5	1,578050
5,408500	0,5	1,578500
5,416833	0,5	1,579150
5,425167	0,5	1,579600
5,433500	0,5	1,570550
5,441833	0,5	1,574250
5,450167	0,5	1,576850
5,458500	0,5	1,569850
5,466833	0,5	1,583500
5,475167	0,5	1,573900
5,483500	0,5	1,567250
5,491833	0,5	1,557800
5,500167	0,5	1,560600
5,508500	0,5	1,577950
5,516833	0,5	1,588000
5,525167	0,5	1,570950
5,533500	0,5	1,573400
5,541833	0,5	1,563500
5,550167	0,5	1,559900
5,558500	0,5	1,552050
5,566833	0,5	1,551050
5,575167	0,5	1,545300
5,583500	0,5	1,540750
5,591833	0,5	1,535300
5,600167	0,5	1,531500
5,608500	0,5	1,516800
5,616833	0,5	1,529150
5,625167	0,5	1,501900
5,633500	0,5	1,497600
5,641833	0,5	1,490300
5,650167	0,5	1,495150
5,658500	0,5	1,511800
5,666833	0,5	1,496200
5,675167	0,5	1,487250
5,683500	0,5	1,479700
5,691833	0,5	1,471300
5,700167	0,5	1,460050
5,708500	0,5	1,455700
5,716833	0,5	1,443400
5,725167	0,5	1,434250
5,733500	0,5	1,424000
5,741833	0,5	1,412800
5,750167	0,5	1,394900
5,758500	0,5	1,384200
5,766833	0,5	1,383400
5,775167	0,5	1,367150
5,783500	0,5	1,356050
5,791833	0,5	1,357800
5,800167	0,5	1,359600
5,808500	0,5	1,372200
5,816833	0,5	1,365050
5,825167	0,5	1,351000
5,833500	0,5	1,345700
5,841833	0,5	1,335600
5,850167	0,5	1,326650
5,858500	0,5	1,315500
5,866833	0,5	1,304950
5,875167	0,5	1,290150
5,883500	0,5	1,285300
5,891833	0,5	1,277250
5,900167	0,5	1,264950
5,908500	0,5	1,259800
5,916833	0,5	1,249350
5,925167	0,5	1,228000
5,933500	0,5	1,219650
5,941833	0,5	1,212700
5,950167	0,5	1,226100
5,958500	0,5	1,224850
5,966833	0,5	1,220400
5,975167	0,5	1,207000
5,983500	0,5	1,207500
5,991833	0,5	1,188950
6,000167	0,5	1,184000
6,008500	0,5	1,174950
6,016833	0,5	1,165750
6,025167	0,5	1,159650
6,033500	0,5	1,150350
6,041833	0,5	1,139150
6,050167	0,5	1,126500
6,058500	0,5	1,133600
6,066833	0,5	1,120250
6,075167	0,5	1,103450
6,083500	0,5	1,098650
6,091833	0,5	1,100550
6,100167	0,5	1,113350
6,108500	0,5	1,115250
6,116833	0,5	1,096800
6,125167	0,5	1,096450
6,133500	0,5	1,088650
6,141833	0,5	1,083900
6,150167	0,5	1,077300
6,158500	0,5	1,068750
6,166833	0,5	1,064100
6,175167	0,5	1,060750
6,183500	0,5	1,052300
6,191833	0,5	1,041850
6,200167	0,5	1,043400
6,208500	0,5	1,043200
6,216833	0,5	1,035600
6,225167	0,5	1,025800
6,233500	0,5	1,021000
6,241833	0,5	1,031750
6,250167	0,5	1,047150
6,258500	0,5	1,040750
6,266833	0,5	1,047550
6,275167	0,5	1,045000
6,283500	0,5	1,041550
6,291833	0,5	1,034600
6,300167	0,5	1,039000
6,308500	0,5	1,041500
6,316833	0,5	1,043200
6,325167	0,5	1,037350
6,333500	0,5	1,037700
6,341833	0,5	1,033100
6,350167	0,5	1,050200
6,358500	0,5	1,048650
6,366833	0,5	1,047200
6,375167	0,5	1,048650
6,383500	0,5	1,061000
6,391833	0,5	1,088200
6,400167	0,5	1,099650
6,408500	0,5	1,111650
6,416833	0,5	1,121200
6,425167	0,5	1,137000
6,433500	0,5	1,142500
6,441833	0,5	1,148800
6,450167	0,5	1,155950
6,458500	0,5	1,155200
6,466833	0,5	1,152400
6,475167	0,5	1,152500
6,483500	0,5	1,157250
6,491833	0,5	1,153050
6,500167	0,5	1,167400
6,508500	0,5	1,160350
6,516833	0,5	1,161450
6,525167	0,5	1,167400
6,533500	0,5	1,177300
6,541833	0,5	1,199650
6,550167	0,5	1,207150
6,558500	0,5	1,211900
6,566833	0,5	1,219550
6,575167	0,5	1,228000
6,583500	0,5	1,236900
6,591833	0,5	1,241800
6,600167	0,5	1,251950
6,608500	0,5	1,259050
6,616833	0,5	1,265200
6,625167	0,5	1,277950
6,633500	0,5	1,284450
6,641833	0,5	1,282200
6,650167	0,5	1,303300
6,658500	0,5	1,301100
6,666833	0,5	1,309400
6,675167	0,5	1,318450
6,683500	0,5	1,337100
6,691833	0,5	1,368250
6,700167	0,5	1,372300
6,708500	0,5	1,382000
6,716833	0,5	1,391800
6,725167	0,5	1,401200
6,733500	0,5	1,412900
6,741833	0,5	1,423000
6,750167	0,5	1,430400
6,758500	0,5	1,437800
6,766833	0,5	1,445750
6,775167	0,5	1,459800
6,783500	0,5	1,463000
6,791833	0,5	1,473800
6,800167	0,5	1,483850
6,808500	0,5	1,487000
6,816833	0,5	1,495250
6,825167	0,5	1,515300
6,833500	0,5	1,530800
6,841833	0,5	1,554150
6,850167	0,5	1,558800
6,858500	0,5	1,568750
6,866833	0,5	1,577850
6,875167	0,5	1,588550
6,883500	0,5	1,591300
6,891833	0,5	1,596550
6,900167	0,5	1,602400
6,908500	0,5	1,603750
6,916833	0,5	1,611700
6,925167	0,5	1,613950
6,933500	0,5	1,619050
6,941833	0,5	1,642550
6,950167	0,5	1,639050
6,958500	0,5	1,637400
6,966833	0,5	1,643350
6,975167	0,5	1,654900
6,983500	0,5	1,676150
6,991833	0,5	1,691700
7,000167	0,5	1,701900
7,008500	0,5	1,698400
7,016833	0,5	1,712400
7,025167	0,5	1,714050
7,033500	0,5	1,724650
7,041833	0,5	1,732550
7,050167	0,5	1,742400
7,058500	0,5	1,746800
7,066833	0,5	1,754950
7,075167	0,5	1,769300
7,083500	0,5	1,779950
7,091833	0,5	1,803850
7,100167	0,5	1,811900
7,108500	0,5	1,828750
7,116833	0,5	1,846250
7,125167	0,5	1,884900
7,133500	0,5	1,934050
7,141833	0,5	1,984050
7,150167	0,5	2,029250
7,158500	0,5	2,083300
7,166833	0,5	2,131350
7,175167	0,5	2,185050
7,183500	0,5	2,226000
7,191833	0,5	2,259650
7,200167	0,5	2,271500
7,208500	0,5	2,275200
7,216833	0,5	2,270500
7,225167	0,5	2,249300
7,233500	0,5	2,228600
7,241833	0,5	2,211900
7,250167	0,5	2,174900
7,258500	0,5	2,147400
7,266833	0,5	2,119550
7,275167	0,5	2,101450
7,283500	0,5	2,083200
7,291833	0,5	2,053450
7,300167	0,5	2,030500
7,308500	0,5	2,011700
7,316833	0,5	1,995850
7,325167	0,5	1,981800
7,333500	0,5	1,968700
7,341833	0,5	1,956100
7,350167	0,5	1,947950
7,358500	0,5	1,938150
7,366833	0,5	1,930900
7,375167	0,5	1,909150
7,383500	0,5	1,916300
7,391833	0,5	1,906700
7,400167	0,5	1,900450
7,408500	0,5	1,895750
7,416833	0,5	1,893950
7,425167	0,5	1,907950
7,433500	0,5	1,909850
7,441833	0,5	1,904350
7,450167	0,5	1,904400
7,458500	0,5	1,900750
7,466833	0,5	1,897750
7,475167	0,5	1,897050
7,483500	0,5	1,896200
7,491833	0,5	1,890550
7,500167	0,5	1,886300
7,508500	0,5	1,890600
7,516833	0,5	1,889200
7,525167	0,5	1,891450
7,533500	0,5	1,896100
7,541833	0,5	1,893900
7,550167	0,5	1,895850
7,558500	0,5	1,898800
7,566833	0,5	1,906550
7,575167	0,5	1,927350
7,583500	0,5	1,929600
7,591833	0,5	1,930100
7,600167	0,5	1,935250
7,608500	0,5	1,936850
7,616833	0,5	1,934750
7,625167	0,5	1,938400
7,633500	0,5	1,936100
7,641833	0,5	1,937000
7,650167	0,5	1,937550
7,658500	0,5	1,936400
7,666833	0,5	1,944150
7,675167	0,5	1,939000
7,683500	0,5	1,947750
7,691833	0,5	1,932350
7,700167	0,5	1,930150
7,708500	0,5	1,935200
7,716833	0,5	1,941200
7,725167	0,5	1,956600
7,733500	0,5	1,959000
7,741833	0,5	1,965150
7,750167	0,5	1,976300
7,758500	0,5	1,990650
7,766833	0,5	2,012400
7,775167	0,5	2,039650
7,783500	0,5	2,067650
7,791833	0,5	2,083000
7,800167	0,5	2,090650
7,808500	0,5	2,083750
7,816833	0,5	2,051250
7,825167	0,5	2,031050
7,833500	0,5	2,010150
7,841833	0,5	1,992250
7,850167	0,5	1,983000
7,858500	0,5	1,984050
7,866833	0,5	1,999150
7,875167	0,5	2,015100
7,883500	0,5	2,019700
7,891833	0,5	2,031000
7,900167	0,5	2,032150
7,908500	0,5	2,046500
7,916833	0,5	2,057150
7,925167	0,5	2,075600
7,933500	0,5	2,105150
7,941833	0,5	2,146800
7,950167	0,5	2,176900
7,958500	0,5	2,200400
7,966833	0,5	2,197350
7,975167	0,5	2,193100
7,983500	0,5	2,181850
7,991833	0,5	2,160400
8,000167	0,5	2,151800
8,008500	0,5	2,138400
8,016833	0,5	2,134400
8,025167	0,5	2,131250
8,033500	0,5	2,126850
8,041833	0,5	2,121850
8,050167	0,5	2,117950
8,058500	0,5	2,118750
8,066833	0,5	2,134100
8,075167	0,5	2,170600
8,083500	0,5	2,210100
8,091833	0,5	2,219750
8,100167	0,5	2,180000
8,108500	0,5	2,076350
8,116833	0,5	1,961650
8,125167	0,5	1,867900
8,133500	0,5	1,796050
8,141833	0,5	1,752650
8,150167	0,5	1,725850
8,158500	0,5	1,712750
8,166833	0,5	1,702950
8,175167	0,5	1,695050
8,183500	0,5	1,689850
8,191833	0,5	1,687800
8,200167	0,5	1,685150
8,208500	0,5	1,688450
8,216833	0,5	1,702150
8,225167	0,5	1,716950
8,233500	0,5	1,736550
8,241833	0,5	1,756100
8,250167	0,5	1,771300
8,258500	0,5	1,782000
8,266833	0,5	1,783800
8,275167	0,5	1,788000
8,283500	0,5	1,773000
8,291833	0,5	1,759000
8,300167	0,5	1,739700
8,308500	0,5	1,725600
8,316833	0,5	1,710200
8,325167	0,5	1,690500
8,333500	0,5	1,669850
8,341833	0,5	1,654250
8,350167	0,5	1,641550
8,358500	0,5	1,633650
8,366833	0,5	1,626900
8,375167	0,5	1,624900
8,383500	0,5	1,621100
8,391833	0,5	1,625800
8,400167	0,5	1,625750
8,408500	0,5	1,626350
8,416833	0,5	1,637150
8,425167	0,5	1,646350
8,433500	0,5	1,654950
8,441833	0,5	1,669700
8,450167	0,5	1,694950
8,458500	0,5	1,721400
8,466833	0,5	1,739200
8,475167	0,5	1,756550
8,483500	0,5	1,767800
8,491833	0,5	1,779450
8,500167	0,5	1,793500
8,508500	0,5	1,809000
8,516833	0,5	1,822050
8,525167	0,5	1,831200
8,533500	0,5	1,836900
8,541833	0,5	1,842150
8,550167	0,5	1,843600
8,558500	0,5	1,838450
8,566833	0,5	1,831200
8,575167	0,5	1,820100
8,583500	0,5	1,813000
8,591833	0,5	1,798000
8,600167	0,5	1,786350
8,608500	0,5	1,787450
8,616833	0,5	1,782100
8,625167	0,5	1,782050
8,633500	0,5	1,787000
8,641833	0,5	1,797300
8,650167	0,5	1,814050
8,658500	0,5	1,832050
8,666833	0,5	1,845550
8,675167	0,5	1,847050
8,683500	0,5	1,847600
8,691833	0,5	1,816850
8,700167	0,5	1,777150
8,708500	0,5	1,743100
8,716833	0,5	1,719750
8,725167	0,5	1,694500
8,733500	0,5	1,684800
8,741833	0,5	1,675050
8,750167	0,5	1,671850
8,758500	0,5	1,673100
8,766833	0,5	1,670150
8,775167	0,5	1,671200
8,783500	0,5	1,666200
8,791833	0,5	1,666450
8,800167	0,5	1,666750
8,808500	0,5	1,665900
8,816833	0,5	1,669950
8,825167	0,5	1,664500
8,833500	0,5	1,667650
8,841833	0,5	1,663250
8,850167	0,5	1,662650
8,858500	0,5	1,660350
8,866833	0,5	1,658950
8,875167	0,5	1,654700
8,883500	0,5	1,654200
8,891833	0,5	1,656550
8,900167	0,5	1,667650
8,908500	0,5	1,666800
8,916833	0,5	1,666550
8,925167	0,5	1,669350
8,933500	0,5	1,675600
8,941833	0,5	1,673450
8,950167	0,5	1,676650
8,958500	0,5	1,681800
8,966833	0,5	1,681750
8,975167	0,5	1,681950
8,983500	0,5	1,686500
8,991833	0,5	1,693150
9,000167	0,5	1,698800
9,008500	0,5	1,706000
9,016833	0,5	1,710750
9,025167	0,5	1,714200
9,033500	0,5	1,722850
9,041833	0,5	1,724500
9,050167	0,5	1,735450
9,058500	0,5	1,745400
9,066833	0,5	1,752700
9,075167	0,5	1,761650
9,083500	0,5	1,765150
9,091833	0,5	1,765700
9,100167	0,5	1,771950
9,108500	0,5	1,776450
9,116833	0,5	1,778050
9,125167	0,5	1,779850
9,133500	0,5	1,779950
9,141833	0,5	1,773450
9,150167	0,5	1,752100
9,158500	0,5	1,741150
9,166833	0,5	1,727750
9,175167	0,5	1,715100
9,183500	0,5	1,704050
9,191833	0,5	1,695800
9,200167	0,5	1,696400
9,208500	0,5	1,695350
9,216833	0,5	1,691600
9,225167	0,5	1,683350
9,233500	0,5	1,681050
9,241833	0,5	1,673200
9,250167	0,5	1,668300
9,258500	0,5	1,657350
9,266833	0,5	1,654350
9,275167	0,5	1,643400
9,283500	0,5	1,635850
9,291833	0,5	1,622250
9,300167	0,5	1,613350
9,308500	0,5	1,610350
9,316833	0,5	1,603450
9,325167	0,5	1,592550
9,333500	0,5	1,585600
9,341833	0,5	1,581200
9,350167	0,5	1,581650
9,358500	0,5	1,573750
9,366833	0,5	1,568900
9,375167	0,5	1,558850
9,383500	0,5	1,555500
9,391833	0,5	1,546500
9,400167	0,5	1,536650
9,408500	0,5	1,532700
9,416833	0,5	1,522250
9,425167	0,5	1,513900
9,433500	0,5	1,512250
9,441833	0,5	1,501650
9,450167	0,5	1,495950
9,458500	0,5	1,489900
9,466833	0,5	1,484100
9,475167	0,5	1,480000
9,483500	0,5	1,473800
9,491833	0,5	1,475750
9,500167	0,5	1,474800
9,508500	0,5	1,471450
9,516833	0,5	1,470950
9,525167	0,5	1,478950
9,533500	0,5	1,481600
9,541833	0,5	1,486200
9,550167	0,5	1,497850
9,558500	0,5	1,511400
9,566833	0,5	1,532150
9,575167	0,5	1,559700
9,583500	0,5	1,600650
9,591833	0,5	1,649900
9,600167	0,5	1,719950
9,608500	0,5	1,795650
9,616833	0,5	1,873450
9,625167	0,5	1,944050
9,633500	0,5	2,006650
9,641833	0,5	2,044650
9,650167	0,5	2,060100
9,658500	0,5	2,028750
9,666833	0,5	1,976200
9,675167	0,5	1,899450
9,683500	0,5	1,815850
9,691833	0,5	1,732150
9,700167	0,5	1,656750
9,708500	0,5	1,593500
9,716833	0,5	1,545500
9,725167	0,5	1,509150
9,733500	0,5	1,482200
9,741833	0,5	1,464200
9,750167	0,5	1,456300
9,758500	0,5	1,450750
9,766833	0,5	1,444950
9,775167	0,5	1,449000
9,783500	0,5	1,451750
9,791833	0,5	1,461700
9,800167	0,5	1,473750
9,808500	0,5	1,485650
9,816833	0,5	1,496700
9,825167	0,5	1,513150
9,833500	0,5	1,525200
9,841833	0,5	1,540750
9,850167	0,5	1,553400
9,858500	0,5	1,563100
9,866833	0,5	1,582750
9,875167	0,5	1,598750
9,883500	0,5	1,621600
9,891833	0,5	1,648300
9,900167	0,5	1,675450
9,908500	0,5	1,704600
9,916833	0,5	1,719700
9,925167	0,5	1,724950
9,933500	0,5	1,718900
9,941833	0,5	1,703050
9,950167	0,5	1,672150
9,958500	0,5	1,637450
9,966833	0,5	1,599450
9,975167	0,5	1,565900
9,983500	0,5	1,535500
9,991833	0,5	1,509950
10,000167	0,5	1,492550
10,008500	0,5	1,476450
10,016833	0,5	1,456750
10,025167	0,5	1,446850
10,033500	0,5	1,434900
10,041833	0,5	1,420350
10,050167	0,5	1,413600
10,058500	0,5	1,405600
10,066833	0,5	1,399500
10,075167	0,5	1,389550
10,083500	0,5	1,391200
10,091833	0,5	1,390700
10,100167	0,5	1,391700
10,108500	0,5	1,396050
10,116833	0,5	1,400550
10,125167	0,5	1,408350
10,133500	0,5	1,415000
10,141833	0,5	1,427000
10,150167	0,5	1,438000
10,158500	0,5	1,458200
10,166833	0,5	1,480500
10,175167	0,5	1,508200
10,183500	0,5	1,550500
10,191833	0,5	1,607700
10,200167	0,5	1,674150
10,208500	0,5	1,736850
10,216833	0,5	1,786900
10,225167	0,5	1,812700
10,233500	0,5	1,808950
10,241833	0,5	1,779150
10,250167	0,5	1,725300
10,258500	0,5	1,660600
10,266833	0,5	1,601200
10,275167	0,5	1,550950
10,283500	0,5	1,512850
10,291833	0,5	1,486000
10,300167	0,5	1,467700
10,308500	0,5	1,450100
10,316833	0,5	1,440550
10,325167	0,5	1,429550
10,333500	0,5	1,425850
10,341833	0,5	1,415850
10,350167	0,5	1,409350
10,358500	0,5	1,400600
10,366833	0,5	1,385100
10,375167	0,5	1,381600
10,383500	0,5	1,378050
10,391833	0,5	1,376650
10,400167	0,5	1,374450
10,408500	0,5	1,375100
10,416833	0,5	1,374950
10,425167	0,5	1,369050
10,433500	0,5	1,374750
10,441833	0,5	1,384400
10,450167	0,5	1,394850
10,458500	0,5	1,416900
10,466833	0,5	1,444100
10,475167	0,5	1,476150
10,483500	0,5	1,514550
10,491833	0,5	1,545550
10,500167	0,5	1,558900
10,508500	0,5	1,552050
10,516833	0,5	1,513900
10,525167	0,5	1,459750
10,533500	0,5	1,391000
10,541833	0,5	1,319650
10,550167	0,5	1,249500
10,558500	0,5	1,198850
10,566833	0,5	1,151000
10,575167	0,5	1,134700
10,583500	0,5	1,141550
10,591833	0,5	1,159000
10,600167	0,5	1,190500
10,608500	0,5	1,230100
10,616833	0,5	1,273650
10,625167	0,5	1,317600
10,633500	0,5	1,362750
10,641833	0,5	1,400400
10,650167	0,5	1,426850
10,658500	0,5	1,443500
10,666833	0,5	1,447050
10,675167	0,5	1,446300
10,683500	0,5	1,445850
10,691833	0,5	1,429800
10,700167	0,5	1,416950
10,708500	0,5	1,399850
10,716833	0,5	1,386250
10,725167	0,5	1,374750
10,733500	0,5	1,360500
10,741833	0,5	1,354350
10,750167	0,5	1,345350
10,758500	0,5	1,336500
10,766833	0,5	1,331850
10,775167	0,5	1,319400
10,783500	0,5	1,321150
10,791833	0,5	1,315700
10,800167	0,5	1,314100
10,808500	0,5	1,305900
10,816833	0,5	1,305400
10,825167	0,5	1,310800
10,833500	0,5	1,311650
10,841833	0,5	1,314800
10,850167	0,5	1,311500
10,858500	0,5	1,316650
10,866833	0,5	1,318000
10,875167	0,5	1,320350
10,883500	0,5	1,317200
10,891833	0,5	1,316250
10,900167	0,5	1,322950
10,908500	0,5	1,324300
10,916833	0,5	1,325050
10,925167	0,5	1,332250
10,933500	0,5	1,332750
10,941833	0,5	1,338350
10,950167	0,5	1,340800
10,958500	0,5	1,339100
10,966833	0,5	1,344350
10,975167	0,5	1,358550
10,983500	0,5	1,372600
10,991833	0,5	1,381200
11,000167	0,5	1,392100
11,008500	0,5	1,398600
11,016833	0,5	1,413800
11,025167	0,5	1,415850
11,033500	0,5	1,435300
11,041833	0,5	1,459700
11,050167	0,5	1,492400
11,058500	0,5	1,543350
11,066833	0,5	1,602650
11,075167	0,5	1,681050
11,083500	0,5	1,755250
11,091833	0,5	1,819600
11,100167	0,5	1,849400
11,108500	0,5	1,859150
11,116833	0,5	1,844650
11,125167	0,5	1,803300
11,133500	0,5	1,762800
11,141833	0,5	1,719550
11,150167	0,5	1,688950
11,158500	0,5	1,671600
11,166833	0,5	1,663250
11,175167	0,5	1,672100
11,183500	0,5	1,674400
11,191833	0,5	1,687900
11,200167	0,5	1,706000
11,208500	0,5	1,736950
11,216833	0,5	1,762650
11,225167	0,5	1,800800
11,233500	0,5	1,851300
11,241833	0,5	1,918200
11,250167	0,5	2,001550
11,258500	0,5	2,117850
11,266833	0,5	2,283550
11,275167	0,5	2,523750
11,283500	0,5	2,869000
11,291833	0,5	3,348600
11,300167	0,5	3,996700
11,308500	0,5	4,813100
11,316833	0,5	5,770350
11,325167	0,5	6,767600
11,333500	0,5	7,678550
11,341833	0,5	8,392950
11,350167	0,5	8,810300
11,358500	0,5	8,911050
11,366833	0,5	8,725600
11,375167	0,5	8,314300
11,383500	0,5	7,751300
11,391833	0,5	7,100750
11,400167	0,5	6,437100
11,408500	0,5	5,794350
11,416833	0,5	5,236550
11,425167	0,5	4,757750
11,433500	0,5	4,375150
11,441833	0,5	4,075700
11,450167	0,5	3,856900
11,458500	0,5	3,676950
11,466833	0,5	3,532550
11,475167	0,5	3,399250
11,483500	0,5	3,255650
11,491833	0,5	3,112350
11,500167	0,5	2,954300
11,508500	0,5	2,794600
11,516833	0,5	2,632650
11,525167	0,5	2,487700
11,533500	0,5	2,341200
11,541833	0,5	2,209350
11,550167	0,5	2,090100
11,558500	0,5	1,995450
11,566833	0,5	1,915600
11,575167	0,5	1,855100
11,583500	0,5	1,797750
11,591833	0,5	1,751950
11,600167	0,5	1,712450
11,608500	0,5	1,676450
11,616833	0,5	1,646450
11,625167	0,5	1,624700
11,633500	0,5	1,605650
11,641833	0,5	1,589500
11,650167	0,5	1,578050
11,658500	0,5	1,555250
11,666833	0,5	1,547950
11,675167	0,5	1,540700
11,683500	0,5	1,533800
11,691833	0,5	1,529500
11,700167	0,5	1,514450
11,708500	0,5	1,512300
11,716833	0,5	1,516100
11,725167	0,5	1,513250
11,733500	0,5	1,511850
11,741833	0,5	1,508600
11,750167	0,5	1,509800
11,758500	0,5	1,503950
11,766833	0,5	1,506400
11,775167	0,5	1,504350
11,783500	0,5	1,510100
11,791833	0,5	1,523200
11,800167	0,5	1,523650
11,808500	0,5	1,531400
11,816833	0,5	1,550400
11,825167	0,5	1,567600
11,833500	0,5	1,582450
11,841833	0,5	1,602750
11,850167	0,5	1,612150
11,858500	0,5	1,639050
11,866833	0,5	1,651400
11,875167	0,5	1,657200
11,883500	0,5	1,659250
11,891833	0,5	1,654850
11,900167	0,5	1,645850
11,908500	0,5	1,639550
11,916833	0,5	1,639950
11,925167	0,5	1,628250
11,933500	0,5	1,624500
11,941833	0,5	1,623750
11,950167	0,5	1,619000
11,958500	0,5	1,629900
11,966833	0,5	1,648950
11,975167	0,5	1,677150
11,983500	0,5	1,723600
11,991833	0,5	1,775550
12,000167	0,5	1,848050
12,008500	0,5	1,919300
12,016833	0,5	1,976500
12,025167	0,5	2,011200
12,033500	0,5	2,041700
12,041833	0,5	2,052250
12,050167	0,5	2,071650
12,058500	0,5	2,096050
12,066833	0,5	2,143600
12,075167	0,5	2,202700
12,083500	0,5	2,280800
12,091833	0,5	2,373450
12,100167	0,5	2,466600
12,108500	0,5	2,563000
12,116833	0,5	2,639450
12,125167	0,5	2,681700
12,133500	0,5	2,675950
12,141833	0,5	2,632650
12,150167	0,5	2,556050
12,158500	0,5	2,456750
12,166833	0,5	2,349900
12,175167	0,5	2,234700
12,183500	0,5	2,145400
12,191833	0,5	2,071800
12,200167	0,5	2,014150
12,208500	0,5	1,985900
12,216833	0,5	1,958500
12,225167	0,5	1,948950
12,233500	0,5	1,938000
12,241833	0,5	1,922000
12,250167	0,5	1,897350
12,258500	0,5	1,880450
12,266833	0,5	1,858650
12,275167	0,5	1,842400
12,283500	0,5	1,812950
12,291833	0,5	1,786500
12,300167	0,5	1,773600
12,308500	0,5	1,768700
12,316833	0,5	1,755300
12,325167	0,5	1,737550
12,333500	0,5	1,719250
12,341833	0,5	1,693700
12,350167	0,5	1,671000
12,358500	0,5	1,647450
12,366833	0,5	1,623550
12,375167	0,5	1,596800
12,383500	0,5	1,583700
12,391833	0,5	1,554900
12,400167	0,5	1,537000
12,408500	0,5	1,532650
12,416833	0,5	1,520200
12,425167	0,5	1,512300
12,433500	0,5	1,505700
12,441833	0,5	1,504450
12,450167	0,5	1,512300
12,458500	0,5	1,514400
12,466833	0,5	1,527500
12,475167	0,5	1,528400
12,483500	0,5	1,539200
12,491833	0,5	1,544950
12,500167	0,5	1,565800
12,508500	0,5	1,603550
12,516833	0,5	1,642000
12,525167	0,5	1,679700
12,533500	0,5	1,679050
12,541833	0,5	1,643050
12,550167	0,5	1,587200
12,558500	0,5	1,521000
12,566833	0,5	1,452200
12,575167	0,5	1,402650
12,583500	0,5	1,363150
12,591833	0,5	1,333500
12,600167	0,5	1,183000
12,608500	0,5	0,923350
12,616833	0,5	0,533650
12,625167	0,5	0,084750
12,633500	0,5	-0,287050
12,641833	0,5	-0,557350
12,650167	0,5	-0,781300
12,658500	0,5	-0,998050
12,666833	0,5	-1,203050
12,675167	0,5	-1,422350
12,683500	0,5	-1,659700
12,691833	0,5	-1,850500
12,700167	0,5	-1,986400
12,708500	0,5	-2,091950
12,716833	0,5	-2,189100
12,725167	0,5	-2,276000
12,733500	0,5	-2,352100
12,741833	0,5	-2,405400
12,750167	0,5	-2,453350
12,758500	0,5	-2,517150
12,766833	0,5	-2,547700
12,775167	0,5	-2,587150
12,783500	0,5	-2,616800
12,791833	0,5	-2,643500
12,800167	0,5	-2,661000
12,808500	0,5	-2,685750
12,816833	0,5	-2,701150
12,825167	0,5	-2,712550
12,833500	0,5	-2,729150
12,841833	0,5	-2,734800
12,850167	0,5	-2,737800
12,858500	0,5	-2,743000
12,866833	0,5	-2,749650
12,875167	0,5	-2,756950
12,883500	0,5	-2,756350
12,891833	0,5	-2,744600
12,900167	0,5	-2,746150
12,908500	0,5	-2,743250
12,916833	0,5	-2,747400
12,925167	0,5	-2,741450
12,933500	0,5	-2,744950
12,941833	0,5	-2,747600
12,950167	0,5	-2,751700
12,958500	0,5	-2,755400
12,966833	0,5	-2,756350
12,975167	0,5	-2,740650
12,983500	0,5	-2,745850
12,991833	0,5	-2,723150
13,000167	0,5	-2,697150
13,008500	0,5	-2,678600
13,016833	0,5	-2,651950
13,025167	0,5	-2,627150
13,033500	0,5	-2,582150
13,041833	0,5	-2,538450
13,050167	0,5	-2,500950
13,058500	0,5	-2,473500
13,066833	0,5	-2,445950
13,075167	0,5	-2,432550
13,083500	0,5	-2,419700
13,091833	0,5	-2,409550
13,100167	0,5	-2,427350
13,108500	0,5	-2,437500
13,116833	0,5	-2,459750
13,125167	0,5	-2,484200
13,133500	0,5	-2,510050
13,141833	0,5	-2,522750
13,150167	0,5	-2,548900
13,158500	0,5	-2,571450
13,166833	0,5	-2,586400
13,175167	0,5	-2,614700
13,183500	0,5	-2,622500
13,191833	0,5	-2,618200
13,200167	0,5	-2,616300
13,208500	0,5	-2,623400
13,216833	0,5	-2,623800
13,225167	0,5	-2,616600
13,233500	0,5	-2,610000
13,241833	0,5	-2,596350
13,250167	0,5	-2,588700
13,258500	0,5	-2,565500
13,266833	0,5	-2,535600
13,275167	0,5	-2,507400
13,283500	0,5	-2,474950
13,291833	0,5	-2,435050
13,300167	0,5	-2,404700
13,308500	0,5	-2,382000
13,316833	0,5	-2,377950
13,325167	0,5	-2,367100
13,333500	0,5	-2,362400
13,341833	0,5	-2,352250
13,350167	0,5	-2,357550
13,358500	0,5	-2,359650
13,366833	0,5	-2,361450
13,375167	0,5	-2,365650
13,383500	0,5	-2,361850
13,391833	0,5	-2,361700
13,400167	0,5	-2,355600
13,408500	0,5	-2,349550
13,416833	0,5	-2,339900
13,425167	0,5	-2,345850
13,433500	0,5	-2,331150
13,441833	0,5	-2,323300
13,450167	0,5	-2,318450
13,458500	0,5	-2,321400
13,466833	0,5	-2,313200
13,475167	0,5	-2,313450
13,483500	0,5	-2,303750
13,491833	0,5	-2,287550
13,500167	0,5	-2,272550
13,508500	0,5	-2,263100
13,516833	0,5	-2,247050
13,525167	0,5	-2,232900
13,533500	0,5	-2,214900
13,541833	0,5	-2,203200
13,550167	0,5	-2,187350
13,558500	0,5	-2,168000
13,566833	0,5	-2,156200
13,575167	0,5	-2,141300
13,583500	0,5	-2,124850
13,591833	0,5	-2,104200
13,600167	0,5	-2,086600
13,608500	0,5	-2,073450
13,616833	0,5	-2,060650
13,625167	0,5	-2,029100
13,633500	0,5	-2,006550
13,641833	0,5	-1,976000
13,650167	0,5	-1,951400
13,658500	0,5	-1,921950
13,666833	0,5	-1,899400
13,675167	0,5	-1,876900
13,683500	0,5	-1,838950
13,691833	0,5	-1,823350
13,700167	0,5	-1,798650
13,708500	0,5	-1,769700
13,716833	0,5	-1,752050
13,725167	0,5	-1,734950
13,733500	0,5	-1,714600
13,741833	0,5	-1,695750
13,750167	0,5	-1,676200
13,758500	0,5	-1,677300
13,766833	0,5	-1,661450
13,775167	0,5	-1,637800
13,783500	0,5	-1,617100
13,791833	0,5	-1,615700
13,800167	0,5	-1,601300
13,808500	0,5	-1,594300
13,816833	0,5	-1,580500
13,825167	0,5	-1,576200
13,833500	0,5	-1,559400
13,841833	0,5	-1,544000
13,850167	0,5	-1,522900
13,858500	0,5	-1,500250
13,866833	0,5	-1,484700
13,875167	0,5	-1,441000
13,883500	0,5	-1,393050
13,891833	0,5	-1,342300
13,900167	0,5	-1,288150
13,908500	0,5	-1,238650
13,916833	0,5	-1,164700
13,925167	0,5	-1,096750
13,933500	0,5	-1,060000
13,941833	0,5	-1,030150
13,950167	0,5	-1,026550
13,958500	0,5	-1,011700
13,966833	0,5	-1,002500
13,975167	0,5	-0,971000
13,983500	0,5	-0,927200
13,991833	0,5	-0,873550
14,000167	0,5	-0,807400
14,008500	0,5	-0,744650
14,016833	0,5	-0,703850
14,025167	0,5	-0,649000
14,033500	0,5	-0,617350
14,041833	0,5	-0,583000
14,050167	0,5	-0,541950
14,058500	0,5	-0,494500
14,066833	0,5	-0,417900
14,075167	0,5	-0,362900
14,083500	0,5	-0,305150
14,091833	0,5	-0,265000
14,100167	0,5	-0,226550
14,108500	0,5	-0,190950
14,116833	0,5	-0,139400
14,125167	0,5	-0,091300
14,133500	0,5	-0,043900
14,141833	0,5	-0,014700
14,150167	0,5	0,003500
14,158500	0,5	0,000150
14,166833	0,5	0,006650
14,175167	0,5	0,008000
14,183500	0,5	0,013800
14,191833	0,5	0,019500
14,200167	0,5	0,025800
14,208500	0,5	0,039700
14,216833	0,5	0,075250
14,225167	0,5	0,104350
14,233500	0,5	0,126700
14,241833	0,5	0,156900
14,250167	0,5	0,185350
14,258500	0,5	0,211000
14,266833	0,5	0,225750
14,275167	0,5	0,252850
14,283500	0,5	0,263150
14,291833	0,5	0,284300
14,300167	0,5	0,303900
14,308500	0,5	0,306900
14,316833	0,5	0,326250
14,325167	0,5	0,356950
14,333500	0,5	0,368950
14,341833	0,5	0,395350
14,350167	0,5	0,402300
14,358500	0,5	0,421400
14,366833	0,5	0,437400
14,375167	0,5	0,442950
14,383500	0,5	0,439950
14,391833	0,5	0,441050
14,400167	0,5	0,428400
14,408500	0,5	0,419800
14,416833	0,5	0,409000
14,425167	0,5	0,396600
14,433500	0,5	0,385550
14,441833	0,5	0,378450
14,450167	0,5	0,380900
14,458500	0,5	0,371450
14,466833	0,5	0,387050
14,475167	0,5	0,384900
14,483500	0,5	0,383550
14,491833	0,5	0,375200
14,500167	0,5	0,375600
14,508500	0,5	0,376650
14,516833	0,5	0,385800
14,525167	0,5	0,387000
14,533500	0,5	0,407350
14,541833	0,5	0,426700
14,550167	0,5	0,464400
14,558500	0,5	0,526750
14,566833	0,5	0,596550
14,575167	0,5	0,684100
14,583500	0,5	0,772100
14,591833	0,5	0,855750
14,600167	0,5	0,894400
14,608500	0,5	0,912150
14,616833	0,5	0,904900
14,625167	0,5	0,861100
14,633500	0,5	0,808950
14,641833	0,5	0,751650
14,650167	0,5	0,728550
14,658500	0,5	0,754950
14,666833	0,5	0,787200
14,675167	0,5	0,860500
14,683500	0,5	0,935050
14,691833	0,5	0,999700
14,700167	0,5	1,023600
14,708500	0,5	1,011450
14,716833	0,5	0,966900
14,725167	0,5	0,890100
14,733500	0,5	0,819850
14,741833	0,5	0,753300
14,750167	0,5	0,680350
14,758500	0,5	0,637300
14,766833	0,5	0,599300
14,775167	0,5	0,564950
14,783500	0,5	0,545900
14,791833	0,5	0,520400
14,800167	0,5	0,516300
14,808500	0,5	0,523300
14,816833	0,5	0,530700
14,825167	0,5	0,528750
14,833500	0,5	0,542500
14,841833	0,5	0,539900
14,850167	0,5	0,538300
14,858500	0,5	0,525800
14,866833	0,5	0,505700
14,875167	0,5	0,488600
14,883500	0,5	0,483400
14,891833	0,5	0,463200
14,900167	0,5	0,455900
14,908500	0,5	0,451400
14,916833	0,5	0,438100
14,925167	0,5	0,413300
14,933500	0,5	0,373300
14,941833	0,5	0,348600
14,950167	0,5	0,332200
14,958500	0,5	0,320300
14,966833	0,5	0,297550
14,975167	0,5	0,295200
14,983500	0,5	0,289000
14,991833	0,5	0,282800
15,000167	0,5	0,276800
15,008500	0,5	0,273100
15,016833	0,5	0,265750
15,025167	0,5	0,262450
15,033500	0,5	0,265100
15,041833	0,5	0,258050
15,050167	0,5	0,268200
15,058500	0,5	0,300350
15,066833	0,5	0,327800
15,075167	0,5	0,377700
15,083500	0,5	0,445350
15,091833	0,5	0,548550
15,100167	0,5	0,678150
15,108500	0,5	0,786000
15,116833	0,5	0,853200
15,125167	0,5	0,874300
15,133500	0,5	0,846250
15,141833	0,5	0,788200
15,150167	0,5	0,742650
15,158500	0,5	0,720850
15,166833	0,5	0,746100
15,175167	0,5	0,810100
15,183500	0,5	0,896500
15,191833	0,5	0,944950
15,200167	0,5	0,976300
15,208500	0,5	0,954950
15,216833	0,5	0,886300
15,225167	0,5	0,788450
15,233500	0,5	0,680300
15,241833	0,5	0,621150
15,250167	0,5	0,566900
15,258500	0,5	0,536500
15,266833	0,5	0,518900
15,275167	0,5	0,502750
15,283500	0,5	0,479350
15,291833	0,5	0,467850
15,300167	0,5	0,441650
15,308500	0,5	0,419100
15,316833	0,5	0,400550
15,325167	0,5	0,391250
15,333500	0,5	0,385900
15,341833	0,5	0,378500
15,350167	0,5	0,395500
15,358500	0,5	0,392900
15,366833	0,5	0,389050
15,375167	0,5	0,373050
15,383500	0,5	0,343250
15,391833	0,5	0,334750
15,400167	0,5	0,318950
15,408500	0,5	0,299300
15,416833	0,5	0,279400
15,425167	0,5	0,267150
15,433500	0,5	0,240950
15,441833	0,5	0,225600
15,450167	0,5	0,215800
15,458500	0,5	0,192850
15,466833	0,5	0,190150
15,475167	0,5	0,172550
15,483500	0,5	0,163350
15,491833	0,5	0,152800
15,500167	0,5	0,162750
15,508500	0,5	0,165000
15,516833	0,5	0,179400
15,525167	0,5	0,196100
15,533500	0,5	0,243300
15,541833	0,5	0,334000
15,550167	0,5	0,461600
15,558500	0,5	0,582850
15,566833	0,5	0,689050
15,575167	0,5	0,761100
15,583500	0,5	0,768650
15,591833	0,5	0,751400
15,600167	0,5	0,723650
15,608500	0,5	0,724900
15,616833	0,5	0,760000
15,625167	0,5	0,818750
15,633500	0,5	0,864850
15,641833	0,5	0,901150
15,650167	0,5	0,884150
15,658500	0,5	0,815050
15,666833	0,5	0,710050
15,675167	0,5	0,590850
15,683500	0,5	0,502250
15,691833	0,5	0,436250
15,700167	0,5	0,374200
15,708500	0,5	0,334350
15,716833	0,5	0,303850
15,725167	0,5	0,289100
15,733500	0,5	0,279650
15,741833	0,5	0,291050
15,750167	0,5	0,295050
15,758500	0,5	0,300900
15,766833	0,5	0,316900
15,775167	0,5	0,307600
15,783500	0,5	0,292150
15,791833	0,5	0,280300
15,800167	0,5	0,257400
15,808500	0,5	0,228600
15,816833	0,5	0,180150
15,825167	0,5	0,147850
15,833500	0,5	0,129850
15,841833	0,5	0,112750
15,850167	0,5	0,099850
15,858500	0,5	0,080700
15,866833	0,5	0,073200
15,875167	0,5	0,054250
15,883500	0,5	0,042400
15,891833	0,5	0,043500
15,900167	0,5	0,037550
15,908500	0,5	0,034800
15,916833	0,5	0,044700
15,925167	0,5	0,049200
15,933500	0,5	0,094200
15,941833	0,5	0,170750
15,950167	0,5	0,275850
15,958500	0,5	0,403600
15,966833	0,5	0,518400
15,975167	0,5	0,626600
15,983500	0,5	0,690800
15,991833	0,5	0,731850
16,000167	0,5	0,733150
16,008500	0,5	0,753550
16,016833	0,5	0,781400
16,025167	0,5	0,826850
16,033500	0,5	0,835300
16,041833	0,5	0,811850
16,050167	0,5	0,735450
16,058500	0,5	0,641150
16,066833	0,5	0,546250
16,075167	0,5	0,434750
16,083500	0,5	0,375700
16,091833	0,5	0,322000
16,100167	0,5	0,288050
16,108500	0,5	0,258300
16,116833	0,5	0,225950
16,125167	0,5	0,228750
16,133500	0,5	0,236700
16,141833	0,5	0,232900
16,150167	0,5	0,233900
16,158500	0,5	0,217050
16,166833	0,5	0,208650
16,175167	0,5	0,182200
16,183500	0,5	0,155250
16,191833	0,5	0,124050
16,200167	0,5	0,098900
16,208500	0,5	0,076650
16,216833	0,5	0,051350
16,225167	0,5	0,006900
16,233500	0,5	-0,002000
16,241833	0,5	-0,026200
16,250167	0,5	-0,051000
16,258500	0,5	-0,071600
16,266833	0,5	-0,106850
16,275167	0,5	-0,096000
16,283500	0,5	-0,091900
16,291833	0,5	-0,084600
16,300167	0,5	-0,036350
16,308500	0,5	0,042300
16,316833	0,5	0,147300
16,325167	0,5	0,293900
16,333500	0,5	0,424950
16,341833	0,5	0,541350
16,350167	0,5	0,606050
16,358500	0,5	0,644450
16,366833	0,5	0,636950
16,375167	0,5	0,658100
16,383500	0,5	0,661850
16,391833	0,5	0,653300
16,400167	0,5	0,609050
16,408500	0,5	0,523100
16,416833	0,5	0,435050
16,425167	0,5	0,362850
16,433500	0,5	0,300550
16,441833	0,5	0,252100
16,450167	0,5	0,244500
16,458500	0,5	0,234050
16,466833	0,5	0,245700
16,475167	0,5	0,257300
16,483500	0,5	0,261850
16,491833	0,5	0,262650
16,500167	0,5	0,278400
16,508500	0,5	0,273400
16,516833	0,5	0,261700
16,525167	0,5	0,253550
16,533500	0,5	0,233000
16,541833	0,5	0,195850
16,550167	0,5	0,156550
16,558500	0,5	0,107150
16,566833	0,5	0,086500
16,575167	0,5	0,074050
16,583500	0,5	0,068400
16,591833	0,5	0,071700
16,600167	0,5	0,075700
16,608500	0,5	0,082550
16,616833	0,5	0,102250
16,625167	0,5	0,142800
16,633500	0,5	0,193000
16,641833	0,5	0,272150
16,650167	0,5	0,366950
16,658500	0,5	0,466200
16,666833	0,5	0,544650
16,675167	0,5	0,613100
16,683500	0,5	0,631700
16,691833	0,5	0,639550
16,700167	0,5	0,617050
16,708500	0,5	0,598550
16,716833	0,5	0,582800
16,725167	0,5	0,527700
16,733500	0,5	0,448300
16,741833	0,5	0,377100
16,750167	0,5	0,298950
16,758500	0,5	0,238700
16,766833	0,5	0,193700
16,775167	0,5	0,163100
16,783500	0,5	0,140750
16,791833	0,5	0,126550
16,800167	0,5	0,127850
16,808500	0,5	0,094650
16,816833	0,5	0,099350
16,825167	0,5	0,096400
16,833500	0,5	0,081800
16,841833	0,5	0,063150
16,850167	0,5	0,019750
16,858500	0,5	-0,007300
16,866833	0,5	-0,015700
16,875167	0,5	-0,043800
16,883500	0,5	-0,056200
16,891833	0,5	-0,067250
16,900167	0,5	-0,068600
16,908500	0,5	-0,077200
16,916833	0,5	-0,069250
16,925167	0,5	-0,039550
16,933500	0,5	0,002600
16,941833	0,5	0,083250
16,950167	0,5	0,174150
16,958500	0,5	0,264750
16,966833	0,5	0,394350
16,975167	0,5	0,481300
16,983500	0,5	0,555200
16,991833	0,5	0,619900
17,000167	0,5	0,663850
17,008500	0,5	0,743750
17,016833	0,5	0,795450
17,025167	0,5	0,857150
17,033500	0,5	0,917750
17,041833	0,5	0,992300
17,050167	0,5	1,068150
17,058500	0,5	1,160550
17,066833	0,5	1,241450
17,075167	0,5	1,316700
17,083500	0,5	1,364150
17,091833	0,5	1,406750
17,100167	0,5	1,428250
17,108500	0,5	1,459850
17,116833	0,5	1,501200
17,125167	0,5	1,537100
17,133500	0,5	1,571550
17,141833	0,5	1,587050
17,150167	0,5	1,608200
17,158500	0,5	1,616000
17,166833	0,5	1,600350
17,175167	0,5	1,540500
17,183500	0,5	1,470700
17,191833	0,5	1,373300
17,200167	0,5	1,279900
17,208500	0,5	1,187250
17,216833	0,5	1,124850
17,225167	0,5	1,074250
17,233500	0,5	1,049450
17,241833	0,5	1,043450
17,250167	0,5	0,999850
17,258500	0,5	0,977700
17,266833	0,5	0,944500
17,275167	0,5	0,904600
17,283500	0,5	0,846000
17,291833	0,5	0,757450
17,300167	0,5	0,682650
17,308500	0,5	0,633150
17,316833	0,5	0,569500
17,325167	0,5	0,539100
17,333500	0,5	0,520350
17,341833	0,5	0,521600
17,350167	0,5	0,542500
17,358500	0,5	0,574900
17,366833	0,5	0,595050
17,375167	0,5	0,617150
17,383500	0,5	0,646400
17,391833	0,5	0,677300
17,400167	0,5	0,672400
17,408500	0,5	0,708200
17,416833	0,5	0,719300
17,425167	0,5	0,722950
17,433500	0,5	0,705650
17,441833	0,5	0,681150
17,450167	0,5	0,689050
17,458500	0,5	0,685800
17,466833	0,5	0,691300
17,475167	0,5	0,704550
17,483500	0,5	0,720350
17,491833	0,5	0,729400
17,500167	0,5	0,719800
17,508500	0,5	0,697150
17,516833	0,5	0,662600
17,525167	0,5	0,607300
17,533500	0,5	0,549100
17,541833	0,5	0,462850
17,550167	0,5	0,387000
17,558500	0,5	0,328200
17,566833	0,5	0,264100
17,575167	0,5	0,213750
17,583500	0,5	0,167300
17,591833	0,5	0,129750
17,600167	0,5	0,104100
17,608500	0,5	0,093600
17,616833	0,5	0,068500
17,625167	0,5	0,055850
17,633500	0,5	0,044250
17,641833	0,5	0,030700
17,650167	0,5	0,022400
17,658500	0,5	0,024600
17,666833	0,5	0,019650
17,675167	0,5	0,031450
17,683500	0,5	0,057500
17,691833	0,5	0,084400
17,700167	0,5	0,137300
17,708500	0,5	0,205900
17,716833	0,5	0,265650
17,725167	0,5	0,315350
17,733500	0,5	0,335600
17,741833	0,5	0,348850
17,750167	0,5	0,354550
17,758500	0,5	0,335350
17,766833	0,5	0,299000
17,775167	0,5	0,257000
17,783500	0,5	0,222650
17,791833	0,5	0,195600
17,800167	0,5	0,173650
17,808500	0,5	0,142450
17,816833	0,5	0,126850
17,825167	0,5	0,116650
17,833500	0,5	0,097250
17,841833	0,5	0,082200
17,850167	0,5	0,068650
17,858500	0,5	0,052900
17,866833	0,5	0,048400
17,875167	0,5	0,030850
17,883500	0,5	0,025050
17,891833	0,5	0,048650
17,900167	0,5	0,075950
17,908500	0,5	0,109800
17,916833	0,5	0,168150
17,925167	0,5	0,222050
17,933500	0,5	0,255250
17,941833	0,5	0,283700
17,950167	0,5	0,277650
17,958500	0,5	0,257400
17,966833	0,5	0,220000
17,975167	0,5	0,189450
17,983500	0,5	0,129350
17,991833	0,5	0,103450
18,000167	0,5	0,077850
18,008500	0,5	0,047550
18,016833	0,5	0,018550
18,025167	0,5	-0,026550
18,033500	0,5	-0,049900
18,041833	0,5	-0,057200
18,050167	0,5	-0,081500
18,058500	0,5	-0,094750
18,066833	0,5	-0,108850
18,075167	0,5	-0,099000
18,083500	0,5	-0,104900
18,091833	0,5	-0,085250
18,100167	0,5	-0,054650
18,108500	0,5	-0,017400
18,116833	0,5	0,021600
18,125167	0,5	0,050050
18,133500	0,5	0,041900
18,141833	0,5	0,049300
18,150167	0,5	0,022100
18,158500	0,5	-0,020800
18,166833	0,5	-0,078500
18,175167	0,5	-0,132450
18,183500	0,5	-0,159700
18,191833	0,5	-0,186200
18,200167	0,5	-0,199250
18,208500	0,5	-0,231100
18,216833	0,5	-0,240050
18,225167	0,5	-0,272400
18,233500	0,5	-0,282650
18,241833	0,5	-0,291050
18,250167	0,5	-0,305900
18,258500	0,5	-0,297450
18,266833	0,5	-0,294450
18,275167	0,5	-0,283200
18,283500	0,5	-0,262700
18,291833	0,5	-0,229400
18,300167	0,5	-0,212350
18,308500	0,5	-0,209100
18,316833	0,5	-0,238850
18,325167	0,5	-0,270950
18,333500	0,5	-0,297700
18,341833	0,5	-0,319600
18,350167	0,5	-0,359050
18,358500	0,5	-0,378400
18,366833	0,5	-0,401850
18,375167	0,5	-0,415200
18,383500	0,5	-0,437800
18,391833	0,5	-0,443500
18,400167	0,5	-0,449900
18,408500	0,5	-0,461300
18,416833	0,5	-0,454600
18,425167	0,5	-0,454700
18,433500	0,5	-0,460900
18,441833	0,5	-0,440250
18,450167	0,5	-0,431800
18,458500	0,5	-0,426400
18,466833	0,5	-0,426500
18,475167	0,5	-0,432750
18,483500	0,5	-0,422250
18,491833	0,5	-0,441350
18,500167	0,5	-0,453950
18,508500	0,5	-0,481900
18,516833	0,5	-0,505200
18,525167	0,5	-0,535900
18,533500	0,5	-0,549250
18,541833	0,5	-0,558150
18,550167	0,5	-0,583800
18,558500	0,5	-0,583800
18,566833	0,5	-0,578500
18,575167	0,5	-0,609050
18,583500	0,5	-0,598650
18,591833	0,5	-0,595700
18,600167	0,5	-0,583900
18,608500	0,5	-0,575700
18,616833	0,5	-0,575250
18,625167	0,5	-0,540600
18,633500	0,5	-0,531250
18,641833	0,5	-0,528500
18,650167	0,5	-0,547200
18,658500	0,5	-0,553050
18,666833	0,5	-0,574450
18,675167	0,5	-0,572400
18,683500	0,5	-0,585800
18,691833	0,5	-0,581250
18,700167	0,5	-0,579550
18,708500	0,5	-0,570000
18,716833	0,5	-0,570600
18,725167	0,5	-0,550600
18,733500	0,5	-0,520700
18,741833	0,5	-0,494900
18,750167	0,5	-0,470300
18,758500	0,5	-0,469050
18,766833	0,5	-0,468800
18,775167	0,5	-0,459650
18,783500	0,5	-0,456800
18,791833	0,5	-0,484700
18,800167	0,5	-0,478050
18,808500	0,5	-0,513900
18,816833	0,5	-0,538500
18,825167	0,5	-0,557200
18,833500	0,5	-0,563250
18,841833	0,5	-0,574950
18,850167	0,5	-0,570000
18,858500	0,5	-0,565100
18,866833	0,5	-0,569050
18,875167	0,5	-0,550500
18,883500	0,5	-0,534200
18,891833	0,5	-0,541250
18,900167	0,5	-0,547500
18,908500	0,5	-0,576300
18,916833	0,5	-0,594100
18,925167	0,5	-0,606400
18,933500	0,5	-0,635500
18,941833	0,5	-0,647050
18,950167	0,5	-0,664100
18,958500	0,5	-0,678100
18,966833	0,5	-0,696300
18,975167	0,5	-0,700650
18,983500	0,5	-0,714150
18,991833	0,5	-0,716100
19,000167	0,5	-0,703700
19,008500	0,5	-0,712800
19,016833	0,5	-0,714650
19,025167	0,5	-0,702000
19,033500	0,5	-0,712450
19,041833	0,5	-0,720600
19,050167	0,5	-0,743050
19,058500	0,5	-0,765550
19,066833	0,5	-0,763700
19,075167	0,5	-0,776800
19,083500	0,5	-0,775100
19,091833	0,5	-0,786950
19,100167	0,5	-0,786900
19,108500	0,5	-0,789700
19,116833	0,5	-0,781850
19,125167	0,5	-0,788250
19,133500	0,5	-0,783350
19,141833	0,5	-0,796300
19,150167	0,5	-0,786500
19,158500	0,5	-0,818500
19,166833	0,5	-0,801300
19,175167	0,5	-0,797800
19,183500	0,5	-0,797650
19,191833	0,5	-0,813500
19,200167	0,5	-0,846350
19,208500	0,5	-0,846000
19,216833	0,5	-0,847100
19,225167	0,5	-0,863100
19,233500	0,5	-0,886700
19,241833	0,5	-0,912500
19,250167	0,5	-0,929900
19,258500	0,5	-0,952900
19,266833	0,5	-0,960100
19,275167	0,5	-0,964100
19,283500	0,5	-0,981950
19,291833	0,5	-0,973400
19,300167	0,5	-0,976500
19,308500	0,5	-1,015100
19,316833	0,5	-1,010450
19,325167	0,5	-1,019000
19,333500	0,5	-1,031200
19,341833	0,5	-1,045400
19,350167	0,5	-1,082900
19,358500	0,5	-1,067500
19,366833	0,5	-1,069200
19,375167	0,5	-1,071150
19,383500	0,5	-1,078650
19,391833	0,5	-1,068400
19,400167	0,5	-1,068200
19,408500	0,5	-1,078450
19,416833	0,5	-1,080200
19,425167	0,5	-1,096950
19,433500	0,5	-1,107300
19,441833	0,5	-1,120550
19,450167	0,5	-1,132350
19,458500	0,5	-1,156050
19,466833	0,5	-1,136750
19,475167	0,5	-1,155550
19,483500	0,5	-1,171550
19,491833	0,5	-1,213050
19,500167	0,5	-1,243850
19,508500	0,5	-1,243750
19,516833	0,5	-1,255150
19,525167	0,5	-1,267000
19,533500	0,5	-1,281450
19,541833	0,5	-1,290300
19,550167	0,5	-1,307150
19,558500	0,5	-1,317600
19,566833	0,5	-1,331050
19,575167	0,5	-1,349000
19,583500	0,5	-1,356300
19,591833	0,5	-1,347850
19,600167	0,5	-1,370100
19,608500	0,5	-1,370850
19,616833	0,5	-1,385200
19,625167	0,5	-1,391500
19,633500	0,5	-1,415700
19,641833	0,5	-1,427400
19,650167	0,5	-1,436050
19,658500	0,5	-1,432700
19,666833	0,5	-1,443100
19,675167	0,5	-1,445550
19,683500	0,5	-1,448550
19,691833	0,5	-1,465950
19,700167	0,5	-1,479200
19,708500	0,5	-1,487750
19,716833	0,5	-1,493750
19,725167	0,5	-1,527100
19,733500	0,5	-1,520150
19,741833	0,5	-1,530400
19,750167	0,5	-1,564150
19,758500	0,5	-1,578700
19,766833	0,5	-1,591550
19,775167	0,5	-1,616700
19,783500	0,5	-1,642550
19,791833	0,5	-1,689500
19,800167	0,5	-1,694200
19,808500	0,5	-1,708150
19,816833	0,5	-1,710550
19,825167	0,5	-1,738650
19,833500	0,5	-1,737450
19,841833	0,5	-1,745950
19,850167	0,5	-1,751750
19,858500	0,5	-1,758750
19,866833	0,5	-1,772000
19,875167	0,5	-1,769600
19,883500	0,5	-1,772000
19,891833	0,5	-1,780350
19,900167	0,5	-1,789450
19,908500	0,5	-1,791100
19,916833	0,5	-1,811200
19,925167	0,5	-1,810500
19,933500	0,5	-1,855250
19,941833	0,5	-1,860100
19,950167	0,5	-1,860250
19,958500	0,5	-1,859700
19,966833	0,5	-1,864350
19,975167	0,5	-1,861400
19,983500	0,5	-1,887150
19,991833	0,5	-1,899050
20,000167	0,5	-1,913000
20,008500	0,5	-1,932350
20,016833	0,5	-1,952400
20,025167	0,5	-1,953650
20,033500	0,5	-1,969400
20,041833	0,5	-1,998600
20,050167	0,5	-2,005750
20,058500	0,5	-2,012350
20,066833	0,5	-2,035500
20,075167	0,5	-2,074600
20,083500	0,5	-2,102900
20,091833	0,5	-2,116850
20,100167	0,5	-2,114450
20,108500	0,5	-2,140100
20,116833	0,5	-2,145550
20,125167	0,5	-2,150050
20,133500	0,5	-2,152600
20,141833	0,5	-2,183550
20,150167	0,5	-2,178700
20,158500	0,5	-2,185100
20,166833	0,5	-2,196400
20,175167	0,5	-2,180400
20,183500	0,5	-2,190450
20,191833	0,5	-2,172200
20,200167	0,5	-2,179650
20,208500	0,5	-2,186200
20,216833	0,5	-2,210350
20,225167	0,5	-2,246100
20,233500	0,5	-2,272300
20,241833	0,5	-2,275700
20,250167	0,5	-2,303450
20,258500	0,5	-2,307550
20,266833	0,5	-2,321850
20,275167	0,5	-2,330150
20,283500	0,5	-2,355400
20,291833	0,5	-2,362150
20,300167	0,5	-2,381500
20,308500	0,5	-2,400650
20,316833	0,5	-2,415250
20,325167	0,5	-2,424800
20,333500	0,5	-2,467900
20,341833	0,5	-2,475800
20,350167	0,5	-2,502350
20,358500	0,5	-2,532350
20,366833	0,5	-2,556450
20,375167	0,5	-2,607400
20,383500	0,5	-2,610650
20,391833	0,5	-2,635000
20,400167	0,5	-2,649000
20,408500	0,5	-2,682000
20,416833	0,5	-2,699000
20,425167	0,5	-2,734350
20,433500	0,5	-2,743250
20,441833	0,5	-2,763600
20,450167	0,5	-2,785900
20,458500	0,5	-2,811900
20,466833	0,5	-2,819750
20,475167	0,5	-2,841450
20,483500	0,5	-2,873150
20,491833	0,5	-2,882000
20,500167	0,5	-2,890050
20,508500	0,5	-2,889750
20,516833	0,5	-2,898000
20,525167	0,5	-2,906550
20,533500	0,5	-2,905100
20,541833	0,5	-2,906600
20,550167	0,5	-2,949200
20,558500	0,5	-2,995350
20,566833	0,5	-3,055600
20,575167	0,5	-3,103350
20,583500	0,5	-3,155750
20,591833	0,5	-3,188600
20,600167	0,5	-3,241400
20,608500	0,5	-3,273400
20,616833	0,5	-3,302900
20,625167	0,5	-3,326500
20,633500	0,5	-3,367300
20,641833	0,5	-3,411200
20,650167	0,5	-3,457950
20,658500	0,5	-3,503150
20,666833	0,5	-3,560900
20,675167	0,5	-3,581550
20,683500	0,5	-3,555150
20,691833	0,5	-3,542000
20,700167	0,5	-3,496250
20,708500	0,5	-3,483650
20,716833	0,5	-3,470850
20,725167	0,5	-3,512150
20,733500	0,5	-3,561350
20,741833	0,5	-3,630000
20,750167	0,5	-3,727600
20,758500	0,5	-3,785550
20,766833	0,5	-3,841450
20,775167	0,5	-3,911350
20,783500	0,5	-3,970150
20,791833	0,5	-4,031900
20,800167	0,5	-4,087950
20,808500	0,5	-4,166100
20,816833	0,5	-4,242300
20,825167	0,5	-4,274850
20,833500	0,5	-4,320300
20,841833	0,5	-4,353050
20,850167	0,5	-4,390950
20,858500	0,5	-4,421900
20,866833	0,5	-4,459300
20,875167	0,5	-4,486200
20,883500	0,5	-4,507800
20,891833	0,5	-4,544500
20,900167	0,5	-4,583750
20,908500	0,5	-4,619250
20,916833	0,5	-4,645300
20,925167	0,5	-4,705200
20,933500	0,5	-4,743900
20,941833	0,5	-4,804700
20,950167	0,5	-4,862100
20,958500	0,5	-4,931250
20,966833	0,5	-4,974650
20,975167	0,5	-5,026950
20,983500	0,5	-5,056950
20,991833	0,5	-5,097400
21,000167	0,5	-5,119400
21,008500	0,5	-5,155050
21,016833	0,5	-5,182400
21,025167	0,5	-5,212700
21,033500	0,5	-5,240200
21,041833	0,5	-5,290400
21,050167	0,5	-5,291550
21,058500	0,5	-5,310750
21,066833	0,5	-5,340000
21,075167	0,5	-5,386050
21,083500	0,5	-5,425100
21,091833	0,5	-5,476650
21,100167	0,5	-5,535400
21,108500	0,5	-5,588150
21,116833	0,5	-5,623250
21,125167	0,5	-5,655400
21,133500	0,5	-5,690300
21,141833	0,5	-5,725950
21,150167	0,5	-5,757250
21,158500	0,5	-5,782250
21,166833	0,5	-5,808300
21,175167	0,5	-5,840250
21,183500	0,5	-5,874300
21,191833	0,5	-5,904650
21,200167	0,5	-5,887700
21,208500	0,5	-5,895300
21,216833	0,5	-5,929100
21,225167	0,5	-5,958850
21,233500	0,5	-5,975750
21,241833	0,5	-6,014000
21,250167	0,5	-6,068650
21,258500	0,5	-6,078400
21,266833	0,5	-6,073000
21,275167	0,5	-6,092400
21,283500	0,5	-6,104200
21,291833	0,5	-6,129300
21,300167	0,5	-6,145050
21,308500	0,5	-6,172800
21,316833	0,5	-6,203500
21,325167	0,5	-6,238450
21,333500	0,5	-6,262050
21,341833	0,5	-6,260650
21,350167	0,5	-6,254850
21,358500	0,5	-6,278000
21,366833	0,5	-6,294650
21,375167	0,5	-6,323750
21,383500	0,5	-6,353850
21,391833	0,5	-6,383550
21,400167	0,5	-6,431600
21,408500	0,5	-6,430550
21,416833	0,5	-6,442900
21,425167	0,5	-6,465500
21,433500	0,5	-6,485300
21,441833	0,5	-6,501250
21,450167	0,5	-6,528550
21,458500	0,5	-6,541200
21,466833	0,5	-6,567500
21,475167	0,5	-6,569150
21,483500	0,5	-6,600950
21,491833	0,5	-6,583600
21,500167	0,5	-6,583250
21,508500	0,5	-6,607100
21,516833	0,5	-6,626100
21,525167	0,5	-6,650650
21,533500	0,5	-6,677650
21,541833	0,5	-6,721750
21,550167	0,5	-6,742750
21,558500	0,5	-6,751900
21,566833	0,5	-6,755000
21,575167	0,5	-6,769150
21,583500	0,5	-6,767000
21,591833	0,5	-6,776500
21,600167	0,5	-6,783900
21,608500	0,5	-6,793200
21,616833	0,5	-6,804150
21,625167	0,5	-6,807050
21,633500	0,5	-6,777000
21,641833	0,5	-6,751950
21,650167	0,5	-6,732450
21,658500	0,5	-6,735850
21,666833	0,5	-6,758900
21,675167	0,5	-6,773600
21,683500	0,5	-6,822200
21,691833	0,5	-6,873150
21,700167	0,5	-6,897950
21,708500	0,5	-6,914400
21,716833	0,5	-6,940350
21,725167	0,5	-6,953900
21,733500	0,5	-6,961300
21,741833	0,5	-6,989300
21,750167	0,5	-7,019500
21,758500	0,5	-7,038050
21,766833	0,5	-7,063650
21,775167	0,5	-7,085850
21,783500	0,5	-7,079700
21,791833	0,5	-7,083350
21,800167	0,5	-7,117500
21,808500	0,5	-7,127900
21,816833	0,5	-7,158000
21,825167	0,5	-7,180250
21,833500	0,5	-7,193450
21,841833	0,5	-7,221000
21,850167	0,5	-7,227000
21,858500	0,5	-7,254600
21,866833	0,5	-7,272600
21,875167	0,5	-7,293850
21,883500	0,5	-7,303900
21,891833	0,5	-7,308850
21,900167	0,5	-7,296050
21,908500	0,5	-7,273550
21,916833	0,5	-7,221700
21,925167	0,5	-7,157950
21,933500	0,5	-7,083250
21,941833	0,5	-7,096300
21,950167	0,5	-7,115400
21,958500	0,5	-7,174750
21,966833	0,5	-7,239350
21,975167	0,5	-7,330000
21,983500	0,5	-7,387600
21,991833	0,5	-7,430950
22,000167	0,5	-7,473200
22,008500	0,5	-7,506350
22,016833	0,5	-7,546250
22,025167	0,5	-7,572500
22,033500	0,5	-7,600200
22,041833	0,5	-7,633950
22,050167	0,5	-7,662550
22,058500	0,5	-7,694200
22,066833	0,5	-7,728500
22,075167	0,5	-7,733900
22,083500	0,5	-7,779500
22,091833	0,5	-7,796500
22,100167	0,5	-7,809000
22,108500	0,5	-7,821650
22,116833	0,5	-7,854000
22,125167	0,5	-7,892100
22,133500	0,5	-7,924100
22,141833	0,5	-7,935600
22,150167	0,5	-7,934650
22,158500	0,5	-7,955800
22,166833	0,5	-7,958400
22,175167	0,5	-7,985500
22,183500	0,5	-7,996400
22,191833	0,5	-8,011250
22,200167	0,5	-8,013700
22,208500	0,5	-8,031550
22,216833	0,5	-8,048450
22,225167	0,5	-8,069850
22,233500	0,5	-8,090200
22,241833	0,5	-8,070050
22,250167	0,5	-8,056500
22,258500	0,5	-8,064150
22,266833	0,5	-8,072150
22,275167	0,5	-8,098100
22,283500	0,5	-8,083600
22,291833	0,5	-8,076550
22,300167	0,5	-8,080300
22,308500	0,5	-8,056250
22,316833	0,5	-8,044900
22,325167	0,5	-8,026950
22,333500	0,5	-8,013550
22,341833	0,5	-7,952850
22,350167	0,5	-7,870400
22,358500	0,5	-7,752400
22,366833	0,5	-7,673150
22,375167	0,5	-7,649150
22,383500	0,5	-7,659200
22,391833	0,5	-7,710600
22,400167	0,5	-7,776850
22,408500	0,5	-7,851200
22,416833	0,5	-7,913500
22,425167	0,5	-7,965050
22,433500	0,5	-7,976250
22,441833	0,5	-8,005700
22,450167	0,5	-8,013750
22,458500	0,5	-8,032650
22,466833	0,5	-8,041200
22,475167	0,5	-8,053100
22,483500	0,5	-8,050850
22,491833	0,5	-8,044700
22,500167	0,5	-8,045500
22,508500	0,5	-8,057700
22,516833	0,5	-8,057850
22,525167	0,5	-8,055050
22,533500	0,5	-7,997950
22,541833	0,5	-7,971000
22,550167	0,5	-7,952350
22,558500	0,5	-7,934400
22,566833	0,5	-7,943900
22,575167	0,5	-7,926900
22,583500	0,5	-7,915900
22,591833	0,5	-7,915050
22,600167	0,5	-7,928000
22,608500	0,5	-7,911450
22,616833	0,5	-7,913800
22,625167	0,5	-7,913100
22,633500	0,5	-7,914400
22,641833	0,5	-7,906800
22,650167	0,5	-7,931650
22,658500	0,5	-7,983750
22,666833	0,5	-7,973300
22,675167	0,5	-7,958200
22,683500	0,5	-7,938250
22,691833	0,5	-7,955450
22,700167	0,5	-7,978900
22,708500	0,5	-7,997150
22,716833	0,5	-8,021700
22,725167	0,5	-8,040200
22,733500	0,5	-8,033500
22,741833	0,5	-8,040950
22,750167	0,5	-8,056550
22,758500	0,5	-8,067600
22,766833	0,5	-8,090500
22,775167	0,5	-8,104650
22,783500	0,5	-8,109550
22,791833	0,5	-8,122650
22,800167	0,5	-8,154050
22,808500	0,5	-8,239550
22,816833	0,5	-8,230550
22,825167	0,5	-8,228150
22,833500	0,5	-8,240400
22,841833	0,5	-8,268300
22,850167	0,5	-8,290600
22,858500	0,5	-8,324450
22,866833	0,5	-8,346800
22,875167	0,5	-8,370100
22,883500	0,5	-8,387250
22,891833	0,5	-8,400350
22,900167	0,5	-8,406100
22,908500	0,5	-8,410950
22,916833	0,5	-8,389300
22,925167	0,5	-8,388700
22,933500	0,5	-8,371100
22,941833	0,5	-8,361050
22,950167	0,5	-8,338150
22,958500	0,5	-8,325150
22,966833	0,5	-8,285300
22,975167	0,5	-8,290350
22,983500	0,5	-8,279800
22,991833	0,5	-8,246600
23,000167	0,5	-8,205850
23,008500	0,5	-8,164100
23,016833	0,5	-8,132300
23,025167	0,5	-8,095500
23,033500	0,5	-8,045250
23,041833	0,5	-7,983750
23,050167	0,5	-7,920200
23,058500	0,5	-7,830600
23,066833	0,5	-7,768450
23,075167	0,5	-7,695650
23,083500	0,5	-7,617500
23,091833	0,5	-7,510050
23,100167	0,5	-7,411800
23,108500	0,5	-7,322900
23,116833	0,5	-7,259250
23,125167	0,5	-7,209350
23,133500	0,5	-7,127500
23,141833	0,5	-7,046850
23,150167	0,5	-6,939950
23,158500	0,5	-6,865700
23,166833	0,5	-6,791750
23,175167	0,5	-6,711850
23,183500	0,5	-6,607850
23,191833	0,5	-6,533950
23,200167	0,5	-6,431000
23,208500	0,5	-6,332300
23,216833	0,5	-6,235850
23,225167	0,5	-6,134200
23,233500	0,5	-6,020450
23,241833	0,5	-5,890250
23,250167	0,5	-5,831150
23,258500	0,5	-5,701650
23,266833	0,5	-5,611350
23,275167	0,5	-5,555350
23,283500	0,5	-5,468600
23,291833	0,5	-5,383050
23,300167	0,5	-5,290100
23,308500	0,5	-5,219100
23,316833	0,5	-5,145200
23,325167	0,5	-5,069000
23,333500	0,5	-4,982800
23,341833	0,5	-4,924200
23,350167	0,5	-4,838850
23,358500	0,5	-4,756400
23,366833	0,5	-4,674450
23,375167	0,5	-4,585250
23,383500	0,5	-4,504550
23,391833	0,5	-4,487150
23,400167	0,5	-4,374750
23,408500	0,5	-4,261700
23,416833	0,5	-4,194700
23,425167	0,5	-4,139250
23,433500	0,5	-4,077950
23,441833	0,5	-4,011700
23,450167	0,5	-3,952250
23,458500	0,5	-3,914200
23,466833	0,5	-3,865350
23,475167	0,5	-3,810700
23,483500	0,5	-3,765100
23,491833	0,5	-3,712950
23,500167	0,5	-3,674900
23,508500	0,5	-3,620100
23,516833	0,5	-3,568800
23,525167	0,5	-3,522350
23,533500	0,5	-3,487100
23,541833	0,5	-3,527500
23,550167	0,5	-3,473850
23,558500	0,5	-3,365350
23,566833	0,5	-3,314600
23,575167	0,5	-3,274650
23,583500	0,5	-3,237400
23,591833	0,5	-3,198750
23,600167	0,5	-3,162000
23,608500	0,5	-3,137250
23,616833	0,5	-3,102500
23,625167	0,5	-3,067650
23,633500	0,5	-3,038400
23,641833	0,5	-3,008750
23,650167	0,5	-2,975450
23,658500	0,5	-2,940750
23,666833	0,5	-2,908700
23,675167	0,5	-2,877800
23,683500	0,5	-3,006450
23,691833	0,5	-2,977000
23,700167	0,5	-2,933700
23,708500	0,5	-2,836550
23,716833	0,5	-2,798250
23,725167	0,5	-2,761000
23,733500	0,5	-2,736850
23,741833	0,5	-2,727400
23,750167	0,5	-2,701000
23,758500	0,5	-2,674700
23,766833	0,5	-2,648500
23,775167	0,5	-2,632000
23,783500	0,5	-2,607100
23,791833	0,5	-2,579400
23,800167	0,5	-2,549250
23,808500	0,5	-2,520800
23,816833	0,5	-2,487000
23,825167	0,5	-2,467650
23,833500	0,5	-2,633400
23,841833	0,5	-2,569450
23,850167	0,5	-2,505550
23,858500	0,5	-2,424700
23,866833	0,5	-2,386200
23,875167	0,5	-2,348600
23,883500	0,5	-2,335450
23,891833	0,5	-2,331150
23,900167	0,5	-2,299550
23,908500	0,5	-2,265200
23,916833	0,5	-2,242800
23,925167	0,5	-2,222000
23,933500	0,5	-2,200650
23,941833	0,5	-2,177050
23,950167	0,5	-2,147150
23,958500	0,5	-2,118450
23,966833	0,5	-2,095100
23,975167	0,5	-2,157950
23,983500	0,5	-2,245500
23,991833	0,5	-2,192200
24,000167	0,5	-2,118050
24,008500	0,5	-2,050000
24,016833	0,5	-2,014700
24,025167	0,5	-1,982000
24,033500	0,5	-1,963000
24,041833	0,5	-1,947350
24,050167	0,5	-1,911150
24,058500	0,5	-1,882800
24,066833	0,5	-1,851850
24,075167	0,5	-1,819350
24,083500	0,5	-1,786700
24,091833	0,5	-1,767250
24,100167	0,5	-1,731900
24,108500	0,5	-1,699650
24,116833	0,5	-1,677550
24,125167	0,5	-1,794350
24,133500	0,5	-1,780150
24,141833	0,5	-1,739050
24,150167	0,5	-1,667500
24,158500	0,5	-1,629400
24,166833	0,5	-1,595800
24,175167	0,5	-1,582150
24,183500	0,5	-1,573050
24,191833	0,5	-1,553650
24,200167	0,5	-1,524400
24,208500	0,5	-1,496150
24,216833	0,5	-1,469350
24,225167	0,5	-1,440000
24,233500	0,5	-1,415500
24,241833	0,5	-1,384900
24,250167	0,5	-1,353750
24,258500	0,5	-1,321100
24,266833	0,5	-1,322250
24,275167	0,5	-1,404900
24,283500	0,5	-1,383550
24,291833	0,5	-1,327200
24,300167	0,5	-1,277300
24,308500	0,5	-1,235900
24,316833	0,5	-1,213200
24,325167	0,5	-1,196000
24,333500	0,5	-1,180700
24,341833	0,5	-1,158750
24,350167	0,5	-1,133100
24,358500	0,5	-1,112200
24,366833	0,5	-1,094000
24,375167	0,5	-1,074450
24,383500	0,5	-1,051900
24,391833	0,5	-1,033650
24,400167	0,5	-1,013300
24,408500	0,5	-1,001950
24,416833	0,5	-1,044300
24,425167	0,5	-1,057150
24,433500	0,5	-1,033800
24,441833	0,5	-0,983950
24,450167	0,5	-0,946950
24,458500	0,5	-0,922000
24,466833	0,5	-0,903000
24,475167	0,5	-0,905900
24,483500	0,5	-0,884800
24,491833	0,5	-0,859650
24,500167	0,5	-0,841050
24,508500	0,5	-0,833650
24,516833	0,5	-0,802400
24,525167	0,5	-0,785600
24,533500	0,5	-0,769800
24,541833	0,5	-0,748700
24,550167	0,5	-0,727500
24,558500	0,5	-0,715650
24,566833	0,5	-0,783150
24,575167	0,5	-0,752800
24,583500	0,5	-0,742350
24,591833	0,5	-0,704700
24,600167	0,5	-0,686350
24,608500	0,5	-0,673100
24,616833	0,5	-0,665700
24,625167	0,5	-0,665150
24,633500	0,5	-0,647200
24,641833	0,5	-0,639300
24,650167	0,5	-0,627350
24,658500	0,5	-0,615200
24,666833	0,5	-0,599100
24,675167	0,5	-0,590100
24,683500	0,5	-0,578100
24,691833	0,5	-0,558850
24,700167	0,5	-0,541450
24,708500	0,5	-0,556800
24,716833	0,5	-0,577700
24,725167	0,5	-0,558150
24,733500	0,5	-0,528900
24,741833	0,5	-0,503150
24,750167	0,5	-0,488000
24,758500	0,5	-0,475200
24,766833	0,5	-0,468950
24,775167	0,5	-0,471900
24,783500	0,5	-0,456400
24,791833	0,5	-0,448100
24,800167	0,5	-0,439850
24,808500	0,5	-0,431500
24,816833	0,5	-0,429750
24,825167	0,5	-0,422300
24,833500	0,5	-0,415000
24,841833	0,5	-0,409900
24,850167	0,5	-0,400600
24,858500	0,5	-0,421800
24,866833	0,5	-0,418600
24,875167	0,5	-0,403900
24,883500	0,5	-0,388600
24,891833	0,5	-0,375000
24,900167	0,5	-0,361100
24,908500	0,5	-0,351000
24,916833	0,5	-0,352000
24,925167	0,5	-0,342400
24,933500	0,5	-0,332350
24,941833	0,5	-0,324400
24,950167	0,5	-0,320200
24,958500	0,5	-0,309300
24,966833	0,5	-0,300900
24,975167	0,5	-0,296300
24,983500	0,5	-0,289200
24,991833	0,5	-0,284300
25,000167	0,5	-0,278650
25,008500	0,5	-0,295450
25,016833	0,5	-0,286250
25,025167	0,5	-0,279500
25,033500	0,5	-0,273600
25,041833	0,5	-0,270650
25,050167	0,5	-0,266600
25,058500	0,5	-0,262850
25,066833	0,5	-0,266800
25,075167	0,5	-0,262500
25,083500	0,5	-0,254950
25,091833	0,5	-0,249450
25,100167	0,5	-0,242150
25,108500	0,5	-0,231600
25,116833	0,5	-0,226900
25,125167	0,5	-0,222250
25,133500	0,5	-0,211000
25,141833	0,5	-0,205450
25,150167	0,5	-0,202950
25,158500	0,5	-0,200400
25,166833	0,5	-0,193250
25,175167	0,5	-0,182350
25,183500	0,5	-0,180000
25,191833	0,5	-0,180800
25,200167	0,5	-0,175300
25,208500	0,5	-0,181450
25,216833	0,5	-0,176950
25,225167	0,5	-0,179800
25,233500	0,5	-0,178250
25,241833	0,5	-0,173850
25,250167	0,5	-0,174700
25,258500	0,5	-0,172250
25,266833	0,5	-0,167150
25,275167	0,5	-0,162450
25,283500	0,5	-0,156950
25,291833	0,5	-0,151300
25,300167	0,5	-0,146600
25,308500	0,5	-0,136250
25,316833	0,5	-0,123950
25,325167	0,5	-0,122650
25,333500	0,5	-0,117850
25,341833	0,5	-0,119050
25,350167	0,5	-0,112200
25,358500	0,5	-0,108900
25,366833	0,5	-0,101450
25,375167	0,5	-0,100500
25,383500	0,5	-0,101000
25,391833	0,5	-0,102400
25,400167	0,5	-0,099350
25,408500	0,5	-0,096450
25,416833	0,5	-0,099900
25,425167	0,5	-0,097300
25,433500	0,5	-0,098900
25,441833	0,5	-0,098750
25,450167	0,5	-0,087200
25,458500	0,5	-0,081900
25,466833	0,5	-0,074500
25,475167	0,5	-0,079800
25,483500	0,5	-0,078650
25,491833	0,5	-0,077650
25,500167	0,5	-0,073200
25,508500	0,5	-0,063750
25,516833	0,5	-0,064050
25,525167	0,5	-0,062750
25,533500	0,5	-0,059850
25,541833	0,5	-0,053050
25,550167	0,5	-0,055900
25,558500	0,5	-0,054650
25,566833	0,5	-0,053500
25,575167	0,5	-0,051400
25,583500	0,5	-0,050200
25,591833	0,5	-0,047600
25,600167	0,5	-0,035300
25,608500	0,5	-0,035300
25,616833	0,5	-0,029650
25,625167	0,5	-0,038800
25,633500	0,5	-0,041000
25,641833	0,5	-0,040000
25,650167	0,5	-0,038750
25,658500	0,5	-0,032750
25,666833	0,5	-0,037150
25,675167	0,5	-0,037950
25,683500	0,5	-0,032100
25,691833	0,5	-0,033150
25,700167	0,5	-0,028050
25,708500	0,5	-0,027450
25,716833	0,5	-0,022750
25,725167	0,5	-0,023650
25,733500	0,5	-0,018050
25,741833	0,5	-0,002650
25,750167	0,5	0,005900
25,758500	0,5	0,014850
25,766833	0,5	0,001450
25,775167	0,5	-0,001250
25,783500	0,5	0,001150
25,791833	0,5	-0,001800
25,800167	0,5	0,010050
25,808500	0,5	0,018000
25,816833	0,5	0,009400
25,825167	0,5	0,013750
25,833500	0,5	0,008950
25,841833	0,5	0,012500
25,850167	0,5	0,013200
25,858500	0,5	0,014950
25,866833	0,5	0,018450
25,875167	0,5	0,022200
25,883500	0,5	0,027450
25,891833	0,5	0,044700
25,900167	0,5	0,044050
25,908500	0,5	0,061900
25,916833	0,5	0,047100
25,925167	0,5	0,048500
25,933500	0,5	0,053200
25,941833	0,5	0,065950
25,950167	0,5	0,088000
25,958500	0,5	0,087200
25,966833	0,5	0,084250
25,975167	0,5	0,084550
25,983500	0,5	0,092750
25,991833	0,5	0,092850
26,000167	0,5	0,103650
