File Path	chrom://chromeleon01/ikbm_chromeleon/2022/ICS-5000/ED1/Esteban/20220427_Cell_Amandas_mutants.seq/554.smp/ED_1.channel/ED_1.chm
Channel	ED_1

Injection Information:
Data Vault	ikbm_chromeleon
Injection	Blank
Injection Number	11
Position	RA6
Comment	
Processing Method	Stop sequence after Cell Death
Instrument Method	ICS5000_PA200_FullNative_Ox_26min_ED1
Type	Blank
Status	Finished
Injection Date	27.04.2022
Injection Time	17:38:44
Injection Volume (µl)	5,0
Dilution Factor	1,0000
Weight	1,0000

Chromatogram Data Information:
Time Min. (min)	0,000167
Time Max. (min)	26,000167
Data Points	3121
Detector	EDet1
Generating Data System	Chromeleon 7.2.9.11323
Exporting Data System	Chromeleon 7.2.9.0
Operator	Instrument Controller
Signal Quantity	
Signal Unit	nC
Signal Min.	-3,359850
Signal Max.	6,164350
Channel	ED_1
Driver Name	DC-5000
Channel Type	Evaluation
Min. Step (s)	0,5
Max. Step (s)	0,5
Average Step (s)	0,5

Signal Parameter Information:
Signal Info	

Chromatogram Data:
Time (min)	Step (s)	Value (nC)
0,000167	n.a.	0,069750
0,008500	0,5	0,096900
0,016833	0,5	0,131300
0,025167	0,5	0,159600
0,033500	0,5	0,191050
0,041833	0,5	0,220950
0,050167	0,5	0,257850
0,058500	0,5	0,277800
0,066833	0,5	0,360250
0,075167	0,5	0,343250
0,083500	0,5	0,376150
0,091833	0,5	0,399500
0,100167	0,5	0,444400
0,108500	0,5	0,539300
0,116833	0,5	0,532850
0,125167	0,5	0,555300
0,133500	0,5	0,578250
0,141833	0,5	0,609500
0,150167	0,5	0,627950
0,158500	0,5	0,649100
0,166833	0,5	0,672650
0,175167	0,5	0,695650
0,183500	0,5	0,725650
0,191833	0,5	0,759750
0,200167	0,5	0,765400
0,208500	0,5	0,785550
0,216833	0,5	0,842200
0,225167	0,5	0,838700
0,233500	0,5	0,854900
0,241833	0,5	0,880550
0,250167	0,5	0,921200
0,258500	0,5	1,014400
0,266833	0,5	0,967750
0,275167	0,5	0,987850
0,283500	0,5	1,017350
0,291833	0,5	1,046700
0,300167	0,5	1,048450
0,308500	0,5	1,068300
0,316833	0,5	1,095350
0,325167	0,5	1,105400
0,333500	0,5	1,135750
0,341833	0,5	1,155350
0,350167	0,5	1,171050
0,358500	0,5	1,196400
0,366833	0,5	1,222300
0,375167	0,5	1,216000
0,383500	0,5	1,239500
0,391833	0,5	1,255750
0,400167	0,5	1,319000
0,408500	0,5	1,366950
0,416833	0,5	1,372050
0,425167	0,5	1,358350
0,433500	0,5	1,392650
0,441833	0,5	1,384500
0,450167	0,5	1,414200
0,458500	0,5	1,415100
0,466833	0,5	1,435850
0,475167	0,5	1,446350
0,483500	0,5	1,470850
0,491833	0,5	1,486800
0,500167	0,5	1,480200
0,508500	0,5	1,518300
0,516833	0,5	1,517100
0,525167	0,5	1,521150
0,533500	0,5	1,537800
0,541833	0,5	1,571750
0,550167	0,5	1,636500
0,558500	0,5	1,676400
0,566833	0,5	1,647650
0,575167	0,5	1,672750
0,583500	0,5	1,669900
0,591833	0,5	1,682900
0,600167	0,5	1,672900
0,608500	0,5	1,720700
0,616833	0,5	1,706750
0,625167	0,5	1,720050
0,633500	0,5	1,731200
0,641833	0,5	1,728400
0,650167	0,5	1,728550
0,658500	0,5	1,781600
0,666833	0,5	1,762450
0,675167	0,5	1,770200
0,683500	0,5	1,782150
0,691833	0,5	1,818900
0,700167	0,5	1,898450
0,708500	0,5	1,911500
0,716833	0,5	1,909350
0,725167	0,5	1,898900
0,733500	0,5	1,919850
0,741833	0,5	1,911050
0,750167	0,5	1,929250
0,758500	0,5	1,924200
0,766833	0,5	1,932600
0,775167	0,5	1,941650
0,783500	0,5	1,953150
0,791833	0,5	1,947000
0,800167	0,5	1,990050
0,808500	0,5	2,000300
0,816833	0,5	1,980650
0,825167	0,5	1,981150
0,833500	0,5	1,998000
0,841833	0,5	2,052650
0,850167	0,5	2,108950
0,858500	0,5	2,106200
0,866833	0,5	2,088850
0,875167	0,5	2,103800
0,883500	0,5	2,090700
0,891833	0,5	2,101600
0,900167	0,5	2,121050
0,908500	0,5	2,133600
0,916833	0,5	2,120350
0,925167	0,5	2,140350
0,933500	0,5	2,141500
0,941833	0,5	2,150600
0,950167	0,5	2,207850
0,958500	0,5	2,180700
0,966833	0,5	2,165300
0,975167	0,5	2,183900
0,983500	0,5	2,188150
0,991833	0,5	2,278600
1,000167	0,5	2,292550
1,008500	0,5	2,262150
1,016833	0,5	2,261400
1,025167	0,5	2,273650
1,033500	0,5	2,269650
1,041833	0,5	2,280850
1,050167	0,5	2,289450
1,058500	0,5	2,285950
1,066833	0,5	2,294500
1,075167	0,5	2,301050
1,083500	0,5	2,330650
1,091833	0,5	2,320200
1,100167	0,5	2,424000
1,108500	0,5	2,343850
1,116833	0,5	2,338200
1,125167	0,5	2,342450
1,133500	0,5	2,371800
1,141833	0,5	2,443550
1,150167	0,5	2,407750
1,158500	0,5	2,394700
1,166833	0,5	2,408750
1,175167	0,5	2,415050
1,183500	0,5	2,422600
1,191833	0,5	2,439050
1,200167	0,5	2,448150
1,208500	0,5	2,445300
1,216833	0,5	2,450300
1,225167	0,5	2,478400
1,233500	0,5	2,458150
1,241833	0,5	2,476650
1,250167	0,5	2,502900
1,258500	0,5	2,481800
1,266833	0,5	2,478200
1,275167	0,5	2,503300
1,283500	0,5	2,536050
1,291833	0,5	2,631500
1,300167	0,5	2,560050
1,308500	0,5	2,577750
1,316833	0,5	2,579100
1,325167	0,5	2,595150
1,333500	0,5	2,585500
1,341833	0,5	2,606950
1,350167	0,5	2,602950
1,358500	0,5	2,597650
1,366833	0,5	2,612450
1,375167	0,5	2,618750
1,383500	0,5	2,607750
1,391833	0,5	2,657400
1,400167	0,5	2,642200
1,408500	0,5	2,626050
1,416833	0,5	2,631900
1,425167	0,5	2,656800
1,433500	0,5	2,727300
1,441833	0,5	2,744450
1,450167	0,5	2,733900
1,458500	0,5	2,713600
1,466833	0,5	2,743500
1,475167	0,5	2,723550
1,483500	0,5	2,736800
1,491833	0,5	2,744350
1,500167	0,5	2,748500
1,508500	0,5	2,741900
1,516833	0,5	2,758250
1,525167	0,5	2,769800
1,533500	0,5	2,762300
1,541833	0,5	2,796700
1,550167	0,5	2,766700
1,558500	0,5	2,758650
1,566833	0,5	2,761500
1,575167	0,5	2,791150
1,583500	0,5	2,863900
1,591833	0,5	2,892800
1,600167	0,5	2,837750
1,608500	0,5	2,860800
1,616833	0,5	2,851350
1,625167	0,5	2,851900
1,633500	0,5	2,850300
1,641833	0,5	2,858350
1,650167	0,5	2,846000
1,658500	0,5	2,857300
1,666833	0,5	2,858050
1,675167	0,5	2,847850
1,683500	0,5	2,850050
1,691833	0,5	2,887900
1,700167	0,5	2,847450
1,708500	0,5	2,856250
1,716833	0,5	2,862450
1,725167	0,5	2,917200
1,733500	0,5	2,972350
1,741833	0,5	2,941100
1,750167	0,5	2,945900
1,758500	0,5	2,939000
1,766833	0,5	2,944700
1,775167	0,5	2,928350
1,783500	0,5	2,954850
1,791833	0,5	2,934950
1,800167	0,5	2,936300
1,808500	0,5	2,943900
1,816833	0,5	2,935650
1,825167	0,5	2,914400
1,833500	0,5	2,946350
1,841833	0,5	2,935250
1,850167	0,5	2,926250
1,858500	0,5	2,925950
1,866833	0,5	2,934300
1,875167	0,5	3,009300
1,883500	0,5	3,048200
1,891833	0,5	3,024900
1,900167	0,5	3,028450
1,908500	0,5	3,022500
1,916833	0,5	3,014200
1,925167	0,5	3,006650
1,933500	0,5	3,001550
1,941833	0,5	3,001650
1,950167	0,5	2,991650
1,958500	0,5	3,002000
1,966833	0,5	2,977100
1,975167	0,5	2,974800
1,983500	0,5	3,031600
1,991833	0,5	3,001300
2,000167	0,5	2,979300
2,008500	0,5	2,988900
2,016833	0,5	2,992100
2,025167	0,5	3,087950
2,033500	0,5	3,048750
2,041833	0,5	3,030350
2,050167	0,5	3,021800
2,058500	0,5	3,038050
2,066833	0,5	3,016150
2,075167	0,5	3,033200
2,083500	0,5	3,031050
2,091833	0,5	3,018300
2,100167	0,5	3,019100
2,108500	0,5	3,013350
2,116833	0,5	3,014800
2,125167	0,5	2,996200
2,133500	0,5	3,042150
2,141833	0,5	2,993950
2,150167	0,5	2,982850
2,158500	0,5	2,973900
2,166833	0,5	2,994750
2,175167	0,5	3,075200
2,183500	0,5	3,059650
2,191833	0,5	3,019850
2,200167	0,5	3,035350
2,208500	0,5	3,012450
2,216833	0,5	3,013150
2,225167	0,5	3,006100
2,233500	0,5	3,000250
2,241833	0,5	2,990700
2,250167	0,5	2,985200
2,258500	0,5	2,995850
2,266833	0,5	2,962500
2,275167	0,5	2,983550
2,283500	0,5	2,989100
2,291833	0,5	2,954050
2,300167	0,5	2,947050
2,308500	0,5	2,966350
2,316833	0,5	3,000550
2,325167	0,5	3,050200
2,333500	0,5	2,982450
2,341833	0,5	2,991400
2,350167	0,5	2,974350
2,358500	0,5	2,980000
2,366833	0,5	2,965800
2,375167	0,5	2,995250
2,383500	0,5	2,972350
2,391833	0,5	2,967600
2,400167	0,5	2,966150
2,408500	0,5	2,943350
2,416833	0,5	2,923050
2,425167	0,5	2,959000
2,433500	0,5	2,932250
2,441833	0,5	2,918000
2,450167	0,5	2,910250
2,458500	0,5	2,930250
2,466833	0,5	3,013650
2,475167	0,5	3,032050
2,483500	0,5	3,005000
2,491833	0,5	2,971800
2,500167	0,5	2,991600
2,508500	0,5	2,964700
2,516833	0,5	2,970950
2,525167	0,5	2,952200
2,533500	0,5	2,947450
2,541833	0,5	2,939150
2,550167	0,5	2,948450
2,558500	0,5	2,922950
2,566833	0,5	2,932850
2,575167	0,5	2,957250
2,583500	0,5	2,912200
2,591833	0,5	2,901350
2,600167	0,5	2,902150
2,608500	0,5	2,933950
2,616833	0,5	2,994300
2,625167	0,5	3,011600
2,633500	0,5	2,963050
2,641833	0,5	2,968450
2,650167	0,5	2,952750
2,658500	0,5	2,945050
2,666833	0,5	2,962850
2,675167	0,5	2,964700
2,683500	0,5	2,937150
2,691833	0,5	2,934750
2,700167	0,5	2,927250
2,708500	0,5	2,923700
2,716833	0,5	2,926200
2,725167	0,5	2,943450
2,733500	0,5	2,894900
2,741833	0,5	2,897400
2,750167	0,5	2,894650
2,758500	0,5	2,960800
2,766833	0,5	3,012550
2,775167	0,5	2,985800
2,783500	0,5	2,966900
2,791833	0,5	2,960600
2,800167	0,5	2,947600
2,808500	0,5	2,936100
2,816833	0,5	2,939300
2,825167	0,5	2,924600
2,833500	0,5	2,920550
2,841833	0,5	2,919100
2,850167	0,5	2,911300
2,858500	0,5	2,884050
2,866833	0,5	2,959700
2,875167	0,5	2,912150
2,883500	0,5	2,892600
2,891833	0,5	2,886100
2,900167	0,5	2,899000
2,908500	0,5	2,972150
2,916833	0,5	2,974800
2,925167	0,5	2,974450
2,933500	0,5	2,944950
2,941833	0,5	2,936200
2,950167	0,5	2,937450
2,958500	0,5	2,932150
2,966833	0,5	2,948000
2,975167	0,5	2,925600
2,983500	0,5	2,914600
2,991833	0,5	2,924250
3,000167	0,5	2,900900
3,008500	0,5	2,900200
3,016833	0,5	2,929700
3,025167	0,5	2,890500
3,033500	0,5	2,877150
3,041833	0,5	2,886250
3,050167	0,5	2,902900
3,058500	0,5	3,002600
3,066833	0,5	2,954500
3,075167	0,5	2,939350
3,083500	0,5	2,920350
3,091833	0,5	2,927600
3,100167	0,5	2,910500
3,108500	0,5	2,921350
3,116833	0,5	2,908500
3,125167	0,5	2,898450
3,133500	0,5	2,898950
3,141833	0,5	2,914550
3,150167	0,5	2,912750
3,158500	0,5	2,936150
3,166833	0,5	2,963500
3,175167	0,5	2,900250
3,183500	0,5	2,886750
3,191833	0,5	2,886100
3,200167	0,5	2,921850
3,208500	0,5	2,956350
3,216833	0,5	2,926000
3,225167	0,5	2,899350
3,233500	0,5	2,921900
3,241833	0,5	2,907150
3,250167	0,5	2,912400
3,258500	0,5	2,916200
3,266833	0,5	2,913650
3,275167	0,5	2,897500
3,283500	0,5	2,902850
3,291833	0,5	2,914200
3,300167	0,5	2,879750
3,308500	0,5	2,898200
3,316833	0,5	2,894700
3,325167	0,5	2,865350
3,333500	0,5	2,868750
3,341833	0,5	2,882800
3,350167	0,5	2,935800
3,358500	0,5	2,987950
3,366833	0,5	2,920250
3,375167	0,5	2,921200
3,383500	0,5	2,912200
3,391833	0,5	2,920650
3,400167	0,5	2,902050
3,408500	0,5	2,914500
3,416833	0,5	2,893450
3,425167	0,5	2,902400
3,433500	0,5	2,904050
3,441833	0,5	2,897850
3,450167	0,5	2,875950
3,458500	0,5	2,936100
3,466833	0,5	2,883550
3,475167	0,5	2,879250
3,483500	0,5	2,874500
3,491833	0,5	2,905100
3,500167	0,5	2,961300
3,508500	0,5	2,967350
3,516833	0,5	2,952300
3,525167	0,5	2,945700
3,533500	0,5	2,948300
3,541833	0,5	2,934450
3,550167	0,5	2,952200
3,558500	0,5	2,942650
3,566833	0,5	2,935100
3,575167	0,5	2,927200
3,583500	0,5	2,933450
3,591833	0,5	2,901700
3,600167	0,5	2,912900
3,608500	0,5	2,916950
3,616833	0,5	2,897650
3,625167	0,5	2,888700
3,633500	0,5	2,895650
3,641833	0,5	2,935300
3,650167	0,5	3,010600
3,658500	0,5	3,014500
3,666833	0,5	2,985150
3,675167	0,5	2,989550
3,683500	0,5	2,970000
3,691833	0,5	2,953950
3,700167	0,5	2,953700
3,708500	0,5	2,955600
3,716833	0,5	2,941100
3,725167	0,5	2,951850
3,733500	0,5	2,928650
3,741833	0,5	2,908950
3,750167	0,5	2,936700
3,758500	0,5	2,943500
3,766833	0,5	2,905150
3,775167	0,5	2,912250
3,783500	0,5	2,909500
3,791833	0,5	2,988700
3,800167	0,5	3,003250
3,808500	0,5	2,995400
3,816833	0,5	2,972650
3,825167	0,5	2,984100
3,833500	0,5	2,972100
3,841833	0,5	2,961150
3,850167	0,5	2,974200
3,858500	0,5	2,961800
3,866833	0,5	2,957700
3,875167	0,5	2,962250
3,883500	0,5	2,970350
3,891833	0,5	2,944450
3,900167	0,5	3,005600
3,908500	0,5	2,958200
3,916833	0,5	2,941500
3,925167	0,5	2,934350
3,933500	0,5	2,948800
3,941833	0,5	3,006450
3,950167	0,5	3,028200
3,958500	0,5	2,990900
3,966833	0,5	2,998000
3,975167	0,5	2,982550
3,983500	0,5	2,987950
3,991833	0,5	2,973700
4,000167	0,5	2,993350
4,008500	0,5	2,980050
4,016833	0,5	2,980100
4,025167	0,5	2,987400
4,033500	0,5	2,956350
4,041833	0,5	2,946800
4,050167	0,5	3,008800
4,058500	0,5	2,961200
4,066833	0,5	2,948300
4,075167	0,5	2,971150
4,083500	0,5	2,986000
4,091833	0,5	3,066000
4,100167	0,5	3,004450
4,108500	0,5	2,999800
4,116833	0,5	2,989100
4,125167	0,5	3,001450
4,133500	0,5	2,975800
4,141833	0,5	2,986100
4,150167	0,5	2,985350
4,158500	0,5	2,977300
4,166833	0,5	2,976400
4,175167	0,5	2,982800
4,183500	0,5	2,958100
4,191833	0,5	2,993100
4,200167	0,5	2,990150
4,208500	0,5	2,957700
4,216833	0,5	2,950850
4,225167	0,5	2,951900
4,233500	0,5	2,990600
4,241833	0,5	3,038450
4,250167	0,5	3,029000
4,258500	0,5	2,991300
4,266833	0,5	3,004250
4,275167	0,5	2,989300
4,283500	0,5	2,998050
4,291833	0,5	2,991350
4,300167	0,5	2,984500
4,308500	0,5	2,971150
4,316833	0,5	2,985550
4,325167	0,5	3,009500
4,333500	0,5	2,990850
4,341833	0,5	3,029250
4,350167	0,5	2,993400
4,358500	0,5	2,966550
4,366833	0,5	2,965550
4,375167	0,5	2,980150
4,383500	0,5	3,048600
4,391833	0,5	3,071300
4,400167	0,5	3,025500
4,408500	0,5	3,025850
4,416833	0,5	3,013950
4,425167	0,5	3,008100
4,433500	0,5	3,007400
4,441833	0,5	3,019700
4,450167	0,5	3,005800
4,458500	0,5	3,007700
4,466833	0,5	2,999350
4,475167	0,5	3,023300
4,483500	0,5	3,002550
4,491833	0,5	3,049950
4,500167	0,5	2,992750
4,508500	0,5	2,988300
4,516833	0,5	2,979800
4,525167	0,5	3,018750
4,533500	0,5	3,068300
4,541833	0,5	3,072000
4,550167	0,5	3,050100
4,558500	0,5	3,050900
4,566833	0,5	3,050600
4,575167	0,5	3,049550
4,583500	0,5	3,051150
4,591833	0,5	3,040300
4,600167	0,5	3,035200
4,608500	0,5	3,028750
4,616833	0,5	3,043950
4,625167	0,5	3,012850
4,633500	0,5	3,024100
4,641833	0,5	3,037650
4,650167	0,5	3,014150
4,658500	0,5	3,006500
4,666833	0,5	3,014050
4,675167	0,5	3,067900
4,683500	0,5	3,124350
4,691833	0,5	3,113300
4,700167	0,5	3,097000
4,708500	0,5	3,082150
4,716833	0,5	3,081800
4,725167	0,5	3,069300
4,733500	0,5	3,065750
4,741833	0,5	3,073050
4,750167	0,5	3,062500
4,758500	0,5	3,080100
4,766833	0,5	3,065650
4,775167	0,5	3,059350
4,783500	0,5	3,098550
4,791833	0,5	3,071750
4,800167	0,5	3,044850
4,808500	0,5	3,047150
4,816833	0,5	3,048300
4,825167	0,5	3,122750
4,833500	0,5	3,104700
4,841833	0,5	3,122400
4,850167	0,5	3,096850
4,858500	0,5	3,121100
4,866833	0,5	3,092750
4,875167	0,5	3,102800
4,883500	0,5	3,095600
4,891833	0,5	3,085650
4,900167	0,5	3,078750
4,908500	0,5	3,080150
4,916833	0,5	3,097200
4,925167	0,5	3,082150
4,933500	0,5	3,142100
4,941833	0,5	3,100400
4,950167	0,5	3,083650
4,958500	0,5	3,081050
4,966833	0,5	3,099800
4,975167	0,5	3,162150
4,983500	0,5	3,141500
4,991833	0,5	3,102800
5,000167	0,5	3,128600
5,008500	0,5	3,111550
5,016833	0,5	3,116400
5,025167	0,5	3,099650
5,033500	0,5	3,106750
5,041833	0,5	3,103200
5,050167	0,5	3,112900
5,058500	0,5	3,121650
5,066833	0,5	3,098950
5,075167	0,5	3,101400
5,083500	0,5	3,130250
5,091833	0,5	3,093900
5,100167	0,5	3,081750
5,108500	0,5	3,097750
5,116833	0,5	3,116350
5,125167	0,5	3,183450
5,133500	0,5	3,119200
5,141833	0,5	3,142550
5,150167	0,5	3,137750
5,158500	0,5	3,145650
5,166833	0,5	3,126650
5,175167	0,5	3,138500
5,183500	0,5	3,121850
5,191833	0,5	3,121000
5,200167	0,5	3,126100
5,208500	0,5	3,128300
5,216833	0,5	3,103200
5,225167	0,5	3,144250
5,233500	0,5	3,121250
5,241833	0,5	3,123350
5,250167	0,5	3,116500
5,258500	0,5	3,128800
5,266833	0,5	3,180300
5,275167	0,5	3,188400
5,283500	0,5	3,177200
5,291833	0,5	3,158500
5,300167	0,5	3,178600
5,308500	0,5	3,159700
5,316833	0,5	3,166150
5,325167	0,5	3,158400
5,333500	0,5	3,166500
5,341833	0,5	3,169550
5,350167	0,5	3,180350
5,358500	0,5	3,178550
5,366833	0,5	3,164500
5,375167	0,5	3,189750
5,383500	0,5	3,163050
5,391833	0,5	3,143350
5,400167	0,5	3,145250
5,408500	0,5	3,176600
5,416833	0,5	3,245150
5,425167	0,5	3,254950
5,433500	0,5	3,231000
5,441833	0,5	3,240700
5,450167	0,5	3,233350
5,458500	0,5	3,220700
5,466833	0,5	3,214850
5,475167	0,5	3,218450
5,483500	0,5	3,205950
5,491833	0,5	3,208500
5,500167	0,5	3,202150
5,508500	0,5	3,196300
5,516833	0,5	3,182300
5,525167	0,5	3,223400
5,533500	0,5	3,187350
5,541833	0,5	3,198950
5,550167	0,5	3,189350
5,558500	0,5	3,241100
5,566833	0,5	3,285350
5,575167	0,5	3,276350
5,583500	0,5	3,252650
5,591833	0,5	3,258650
5,600167	0,5	3,252650
5,608500	0,5	3,256900
5,616833	0,5	3,253650
5,625167	0,5	3,249350
5,633500	0,5	3,250750
5,641833	0,5	3,256950
5,650167	0,5	3,250100
5,658500	0,5	3,215250
5,666833	0,5	3,247700
5,675167	0,5	3,234300
5,683500	0,5	3,219250
5,691833	0,5	3,216900
5,700167	0,5	3,226900
5,708500	0,5	3,282100
5,716833	0,5	3,328350
5,725167	0,5	3,310900
5,733500	0,5	3,325250
5,741833	0,5	3,314500
5,750167	0,5	3,305850
5,758500	0,5	3,287650
5,766833	0,5	3,298200
5,775167	0,5	3,290300
5,783500	0,5	3,283450
5,791833	0,5	3,291850
5,800167	0,5	3,271200
5,808500	0,5	3,259500
5,816833	0,5	3,312450
5,825167	0,5	3,271500
5,833500	0,5	3,265600
5,841833	0,5	3,281550
5,850167	0,5	3,289350
5,858500	0,5	3,363900
5,866833	0,5	3,341900
5,875167	0,5	3,329000
5,883500	0,5	3,304750
5,891833	0,5	3,326400
5,900167	0,5	3,303000
5,908500	0,5	3,317650
5,916833	0,5	3,305100
5,925167	0,5	3,300250
5,933500	0,5	3,309350
5,941833	0,5	3,312350
5,950167	0,5	3,307350
5,958500	0,5	3,305600
5,966833	0,5	3,344000
5,975167	0,5	3,304100
5,983500	0,5	3,288750
5,991833	0,5	3,291050
6,000167	0,5	3,314350
6,008500	0,5	3,383000
6,016833	0,5	3,365500
6,025167	0,5	3,330050
6,033500	0,5	3,373200
6,041833	0,5	3,354900
6,050167	0,5	3,361350
6,058500	0,5	3,350850
6,066833	0,5	3,358400
6,075167	0,5	3,339150
6,083500	0,5	3,353600
6,091833	0,5	3,358250
6,100167	0,5	3,338800
6,108500	0,5	3,347050
6,116833	0,5	3,366800
6,125167	0,5	3,330000
6,133500	0,5	3,347050
6,141833	0,5	3,365950
6,150167	0,5	3,410200
6,158500	0,5	3,446800
6,166833	0,5	3,406850
6,175167	0,5	3,411150
6,183500	0,5	3,414350
6,191833	0,5	3,420000
6,200167	0,5	3,417800
6,208500	0,5	3,436600
6,216833	0,5	3,427350
6,225167	0,5	3,430700
6,233500	0,5	3,443750
6,241833	0,5	3,440950
6,250167	0,5	3,410400
6,258500	0,5	3,451150
6,266833	0,5	3,432850
6,275167	0,5	3,434450
6,283500	0,5	3,431250
6,291833	0,5	3,465600
6,300167	0,5	3,533800
6,308500	0,5	3,549250
6,316833	0,5	3,530450
6,325167	0,5	3,518150
6,333500	0,5	3,561200
6,341833	0,5	3,551000
6,350167	0,5	3,561050
6,358500	0,5	3,551550
6,366833	0,5	3,559100
6,375167	0,5	3,552800
6,383500	0,5	3,576750
6,391833	0,5	3,563050
6,400167	0,5	3,564350
6,408500	0,5	3,593150
6,416833	0,5	3,578000
6,425167	0,5	3,572450
6,433500	0,5	3,590600
6,441833	0,5	3,624800
6,450167	0,5	3,700950
6,458500	0,5	3,712600
6,466833	0,5	3,702350
6,475167	0,5	3,695700
6,483500	0,5	3,703500
6,491833	0,5	3,697350
6,500167	0,5	3,698300
6,508500	0,5	3,707900
6,516833	0,5	3,700150
6,525167	0,5	3,714550
6,533500	0,5	3,729950
6,541833	0,5	3,743850
6,550167	0,5	3,748350
6,558500	0,5	3,774800
6,566833	0,5	3,742300
6,575167	0,5	3,753050
6,583500	0,5	3,755900
6,591833	0,5	3,821050
6,600167	0,5	3,857000
6,608500	0,5	3,858850
6,616833	0,5	3,839950
6,625167	0,5	3,862600
6,633500	0,5	3,867700
6,641833	0,5	3,884500
6,650167	0,5	3,881950
6,658500	0,5	3,884550
6,666833	0,5	3,879150
6,675167	0,5	3,893100
6,683500	0,5	3,910800
6,691833	0,5	3,904850
6,700167	0,5	3,963700
6,708500	0,5	3,930950
6,716833	0,5	3,909850
6,725167	0,5	3,911950
6,733500	0,5	3,943100
6,741833	0,5	4,012300
6,750167	0,5	4,043700
6,758500	0,5	4,010700
6,766833	0,5	4,031000
6,775167	0,5	4,036600
6,783500	0,5	4,040550
6,791833	0,5	4,034600
6,800167	0,5	4,049850
6,808500	0,5	4,038700
6,816833	0,5	4,045700
6,825167	0,5	4,060350
6,833500	0,5	4,055850
6,841833	0,5	4,053300
6,850167	0,5	4,124600
6,858500	0,5	4,083250
6,866833	0,5	4,078300
6,875167	0,5	4,096750
6,883500	0,5	4,119800
6,891833	0,5	4,191400
6,900167	0,5	4,156200
6,908500	0,5	4,160300
6,916833	0,5	4,154050
6,925167	0,5	4,176050
6,933500	0,5	4,170250
6,941833	0,5	4,204000
6,950167	0,5	4,188400
6,958500	0,5	4,195100
6,966833	0,5	4,196350
6,975167	0,5	4,214250
6,983500	0,5	4,208400
6,991833	0,5	4,228550
7,000167	0,5	4,251450
7,008500	0,5	4,220750
7,016833	0,5	4,217650
7,025167	0,5	4,223900
7,033500	0,5	4,262450
7,041833	0,5	4,320550
7,050167	0,5	4,295700
7,058500	0,5	4,288250
7,066833	0,5	4,301950
7,075167	0,5	4,300600
7,083500	0,5	4,304300
7,091833	0,5	4,297650
7,100167	0,5	4,303950
7,108500	0,5	4,294850
7,116833	0,5	4,309850
7,125167	0,5	4,327400
7,133500	0,5	4,332600
7,141833	0,5	4,366800
7,150167	0,5	4,362550
7,158500	0,5	4,330050
7,166833	0,5	4,325350
7,175167	0,5	4,340350
7,183500	0,5	4,392450
7,191833	0,5	4,413650
7,200167	0,5	4,378900
7,208500	0,5	4,376450
7,216833	0,5	4,378950
7,225167	0,5	4,377300
7,233500	0,5	4,376900
7,241833	0,5	4,395700
7,250167	0,5	4,383800
7,258500	0,5	4,399600
7,266833	0,5	4,392050
7,275167	0,5	4,419950
7,283500	0,5	4,380750
7,291833	0,5	4,432450
7,300167	0,5	4,387050
7,308500	0,5	4,387100
7,316833	0,5	4,383950
7,325167	0,5	4,405100
7,333500	0,5	4,455700
7,341833	0,5	4,473050
7,350167	0,5	4,450450
7,358500	0,5	4,447900
7,366833	0,5	4,446850
7,375167	0,5	4,442950
7,383500	0,5	4,451900
7,391833	0,5	4,448450
7,400167	0,5	4,441800
7,408500	0,5	4,435100
7,416833	0,5	4,453000
7,425167	0,5	4,430150
7,433500	0,5	4,435500
7,441833	0,5	4,474500
7,450167	0,5	4,434700
7,458500	0,5	4,429250
7,466833	0,5	4,429650
7,475167	0,5	4,463900
7,483500	0,5	4,530450
7,491833	0,5	4,517950
7,500167	0,5	4,512000
7,508500	0,5	4,502400
7,516833	0,5	4,504200
7,525167	0,5	4,486700
7,533500	0,5	4,494500
7,541833	0,5	4,510400
7,550167	0,5	4,506150
7,558500	0,5	4,507700
7,566833	0,5	4,493250
7,575167	0,5	4,493550
7,583500	0,5	4,521100
7,591833	0,5	4,520550
7,600167	0,5	4,486550
7,608500	0,5	4,495300
7,616833	0,5	4,488150
7,625167	0,5	4,553350
7,633500	0,5	4,561900
7,641833	0,5	4,585600
7,650167	0,5	4,556850
7,658500	0,5	4,569000
7,666833	0,5	4,553100
7,675167	0,5	4,563300
7,683500	0,5	4,557750
7,691833	0,5	4,548650
7,700167	0,5	4,545050
7,708500	0,5	4,548550
7,716833	0,5	4,572650
7,725167	0,5	4,567050
7,733500	0,5	4,606150
7,741833	0,5	4,590500
7,750167	0,5	4,561950
7,758500	0,5	4,560100
7,766833	0,5	4,565500
7,775167	0,5	4,608850
7,783500	0,5	4,628150
7,791833	0,5	4,593000
7,800167	0,5	4,609350
7,808500	0,5	4,596800
7,816833	0,5	4,603550
7,825167	0,5	4,588050
7,833500	0,5	4,593250
7,841833	0,5	4,588150
7,850167	0,5	4,589550
7,858500	0,5	4,590450
7,866833	0,5	4,567800
7,875167	0,5	4,567700
7,883500	0,5	4,600400
7,891833	0,5	4,563000
7,900167	0,5	4,548600
7,908500	0,5	4,553700
7,916833	0,5	4,584700
7,925167	0,5	4,638200
7,933500	0,5	4,588650
7,941833	0,5	4,601700
7,950167	0,5	4,592050
7,958500	0,5	4,602600
7,966833	0,5	4,584700
7,975167	0,5	4,595250
7,983500	0,5	4,581000
7,991833	0,5	4,580650
8,000167	0,5	4,577100
8,008500	0,5	4,588900
8,016833	0,5	4,558150
8,025167	0,5	4,586900
8,033500	0,5	4,582000
8,041833	0,5	4,568550
8,050167	0,5	4,554850
8,058500	0,5	4,566000
8,066833	0,5	4,602450
8,075167	0,5	4,620650
8,083500	0,5	4,605950
8,091833	0,5	4,591950
8,100167	0,5	4,603550
8,108500	0,5	4,601200
8,116833	0,5	4,607000
8,125167	0,5	4,597000
8,133500	0,5	4,585750
8,141833	0,5	4,586450
8,150167	0,5	4,602950
8,158500	0,5	4,604450
8,166833	0,5	4,585000
8,175167	0,5	4,604600
8,183500	0,5	4,586850
8,191833	0,5	4,568950
8,200167	0,5	4,573850
8,208500	0,5	4,590850
8,216833	0,5	4,644050
8,225167	0,5	4,650300
8,233500	0,5	4,621450
8,241833	0,5	4,626200
8,250167	0,5	4,631850
8,258500	0,5	4,625100
8,266833	0,5	4,624600
8,275167	0,5	4,627750
8,283500	0,5	4,617200
8,291833	0,5	4,630250
8,300167	0,5	4,628650
8,308500	0,5	4,632850
8,316833	0,5	4,603200
8,325167	0,5	4,636650
8,333500	0,5	4,598450
8,341833	0,5	4,610400
8,350167	0,5	4,613050
8,358500	0,5	4,644100
8,366833	0,5	4,681050
8,375167	0,5	4,683650
8,383500	0,5	4,669100
8,391833	0,5	4,683300
8,400167	0,5	4,672100
8,408500	0,5	4,670800
8,416833	0,5	4,663200
8,425167	0,5	4,665200
8,433500	0,5	4,653650
8,441833	0,5	4,666400
8,450167	0,5	4,670250
8,458500	0,5	4,631450
8,466833	0,5	4,644100
8,475167	0,5	4,651250
8,483500	0,5	4,628450
8,491833	0,5	4,626250
8,500167	0,5	4,632000
8,508500	0,5	4,665800
8,516833	0,5	4,710800
8,525167	0,5	4,697600
8,533500	0,5	4,698950
8,541833	0,5	4,698750
8,550167	0,5	4,702950
8,558500	0,5	4,681000
8,566833	0,5	4,685600
8,575167	0,5	4,669400
8,583500	0,5	4,676150
8,591833	0,5	4,678950
8,600167	0,5	4,660100
8,608500	0,5	4,647800
8,616833	0,5	4,670300
8,625167	0,5	4,661650
8,633500	0,5	4,639450
8,641833	0,5	4,658600
8,650167	0,5	4,663350
8,658500	0,5	4,715900
8,666833	0,5	4,714900
8,675167	0,5	4,715100
8,683500	0,5	4,696800
8,691833	0,5	4,712400
8,700167	0,5	4,694550
8,708500	0,5	4,709550
8,716833	0,5	4,699450
8,725167	0,5	4,694950
8,733500	0,5	4,687600
8,741833	0,5	4,694950
8,750167	0,5	4,699600
8,758500	0,5	4,692300
8,766833	0,5	4,721450
8,775167	0,5	4,698450
8,783500	0,5	4,681150
8,791833	0,5	4,680700
8,800167	0,5	4,696000
8,808500	0,5	4,738150
8,816833	0,5	4,737100
8,825167	0,5	4,721000
8,833500	0,5	4,743950
8,841833	0,5	4,735700
8,850167	0,5	4,746350
8,858500	0,5	4,729300
8,866833	0,5	4,745150
8,875167	0,5	4,733400
8,883500	0,5	4,740550
8,891833	0,5	4,742100
8,900167	0,5	4,716750
8,908500	0,5	4,719850
8,916833	0,5	4,755800
8,925167	0,5	4,729350
8,933500	0,5	4,718450
8,941833	0,5	4,731400
8,950167	0,5	4,773650
8,958500	0,5	4,808850
8,966833	0,5	4,779700
8,975167	0,5	4,772700
8,983500	0,5	4,769700
8,991833	0,5	4,782400
9,000167	0,5	4,779650
9,008500	0,5	4,790400
9,016833	0,5	4,776000
9,025167	0,5	4,784150
9,033500	0,5	4,776950
9,041833	0,5	4,780950
9,050167	0,5	4,750400
9,058500	0,5	4,785150
9,066833	0,5	4,779100
9,075167	0,5	4,769150
9,083500	0,5	4,766550
9,091833	0,5	4,781300
9,100167	0,5	4,819050
9,108500	0,5	4,832700
9,116833	0,5	4,821600
9,125167	0,5	4,821150
9,133500	0,5	4,826400
9,141833	0,5	4,823350
9,150167	0,5	4,843650
9,158500	0,5	4,843000
9,166833	0,5	4,839850
9,175167	0,5	4,829900
9,183500	0,5	4,837150
9,191833	0,5	4,828950
9,200167	0,5	4,819300
9,208500	0,5	4,845800
9,216833	0,5	4,824700
9,225167	0,5	4,811100
9,233500	0,5	4,815850
9,241833	0,5	4,829850
9,250167	0,5	4,902950
9,258500	0,5	4,896800
9,266833	0,5	4,885150
9,275167	0,5	4,876150
9,283500	0,5	4,877150
9,291833	0,5	4,872450
9,300167	0,5	4,871100
9,308500	0,5	4,875650
9,316833	0,5	4,867250
9,325167	0,5	4,874600
9,333500	0,5	4,874300
9,341833	0,5	4,881550
9,350167	0,5	4,883650
9,358500	0,5	4,909200
9,366833	0,5	4,870200
9,375167	0,5	4,874150
9,383500	0,5	4,865300
9,391833	0,5	4,901500
9,400167	0,5	4,931400
9,408500	0,5	4,932350
9,416833	0,5	4,910600
9,425167	0,5	4,924550
9,433500	0,5	4,913150
9,441833	0,5	4,920000
9,450167	0,5	4,923200
9,458500	0,5	4,920750
9,466833	0,5	4,914600
9,475167	0,5	4,913950
9,483500	0,5	4,916200
9,491833	0,5	4,895500
9,500167	0,5	4,911450
9,508500	0,5	4,899000
9,516833	0,5	4,889550
9,525167	0,5	4,888400
9,533500	0,5	4,901900
9,541833	0,5	4,933350
9,550167	0,5	4,978950
9,558500	0,5	4,961300
9,566833	0,5	4,968400
9,575167	0,5	4,955650
9,583500	0,5	4,956500
9,591833	0,5	4,939200
9,600167	0,5	4,944100
9,608500	0,5	4,938000
9,616833	0,5	4,942000
9,625167	0,5	4,947700
9,633500	0,5	4,937900
9,641833	0,5	4,928250
9,650167	0,5	4,972100
9,658500	0,5	4,945000
9,666833	0,5	4,929700
9,675167	0,5	4,938050
9,683500	0,5	4,942700
9,691833	0,5	4,992250
9,700167	0,5	4,983450
9,708500	0,5	4,986500
9,716833	0,5	4,982600
9,725167	0,5	5,000350
9,733500	0,5	4,988350
9,741833	0,5	4,993800
9,750167	0,5	5,001050
9,758500	0,5	5,004400
9,766833	0,5	5,001500
9,775167	0,5	5,011500
9,783500	0,5	5,005500
9,791833	0,5	5,026050
9,800167	0,5	5,043250
9,808500	0,5	5,027100
9,816833	0,5	5,017300
9,825167	0,5	5,029400
9,833500	0,5	5,054500
9,841833	0,5	5,085800
9,850167	0,5	5,095800
9,858500	0,5	5,091350
9,866833	0,5	5,107550
9,875167	0,5	5,113000
9,883500	0,5	5,112200
9,891833	0,5	5,116000
9,900167	0,5	5,121950
9,908500	0,5	5,125800
9,916833	0,5	5,142200
9,925167	0,5	5,167550
9,933500	0,5	5,176650
9,941833	0,5	5,200050
9,950167	0,5	5,212250
9,958500	0,5	5,197150
9,966833	0,5	5,200000
9,975167	0,5	5,214900
9,983500	0,5	5,247550
9,991833	0,5	5,267000
10,000167	0,5	5,247650
10,008500	0,5	5,245850
10,016833	0,5	5,247350
10,025167	0,5	5,251450
10,033500	0,5	5,256450
10,041833	0,5	5,249900
10,050167	0,5	5,246350
10,058500	0,5	5,248800
10,066833	0,5	5,243650
10,075167	0,5	5,262200
10,083500	0,5	5,232600
10,091833	0,5	5,269400
10,100167	0,5	5,232400
10,108500	0,5	5,225950
10,116833	0,5	5,218750
10,125167	0,5	5,232700
10,133500	0,5	5,259250
10,141833	0,5	5,254100
10,150167	0,5	5,253400
10,158500	0,5	5,253150
10,166833	0,5	5,254100
10,175167	0,5	5,246800
10,183500	0,5	5,244150
10,191833	0,5	5,236700
10,200167	0,5	5,231900
10,208500	0,5	5,232250
10,216833	0,5	5,237200
10,225167	0,5	5,223100
10,233500	0,5	5,217250
10,241833	0,5	5,234200
10,250167	0,5	5,216150
10,258500	0,5	5,214150
10,266833	0,5	5,218050
10,275167	0,5	5,235100
10,283500	0,5	5,279900
10,291833	0,5	5,271350
10,300167	0,5	5,273500
10,308500	0,5	5,273200
10,316833	0,5	5,277650
10,325167	0,5	5,268650
10,333500	0,5	5,271550
10,341833	0,5	5,267450
10,350167	0,5	5,269850
10,358500	0,5	5,294100
10,366833	0,5	5,290150
10,375167	0,5	5,294000
10,383500	0,5	5,298000
10,391833	0,5	5,305050
10,400167	0,5	5,282100
10,408500	0,5	5,288850
10,416833	0,5	5,286550
10,425167	0,5	5,315550
10,433500	0,5	5,334050
10,441833	0,5	5,333750
10,450167	0,5	5,314550
10,458500	0,5	5,332400
10,466833	0,5	5,313300
10,475167	0,5	5,319950
10,483500	0,5	5,316600
10,491833	0,5	5,314650
10,500167	0,5	5,310400
10,508500	0,5	5,313950
10,516833	0,5	5,319300
10,525167	0,5	5,312350
10,533500	0,5	5,336650
10,541833	0,5	5,318350
10,550167	0,5	5,303850
10,558500	0,5	5,305850
10,566833	0,5	5,316950
10,575167	0,5	5,339950
10,583500	0,5	5,356350
10,591833	0,5	5,337150
10,600167	0,5	5,345050
10,608500	0,5	5,334700
10,616833	0,5	5,329050
10,625167	0,5	5,318000
10,633500	0,5	5,320400
10,641833	0,5	5,312850
10,650167	0,5	5,308550
10,658500	0,5	5,321000
10,666833	0,5	5,305050
10,675167	0,5	5,300650
10,683500	0,5	5,329500
10,691833	0,5	5,305100
10,700167	0,5	5,293050
10,708500	0,5	5,301950
10,716833	0,5	5,311600
10,725167	0,5	5,341200
10,733500	0,5	5,323750
10,741833	0,5	5,327650
10,750167	0,5	5,312600
10,758500	0,5	5,327350
10,766833	0,5	5,320800
10,775167	0,5	5,330400
10,783500	0,5	5,319850
10,791833	0,5	5,317550
10,800167	0,5	5,313600
10,808500	0,5	5,322450
10,816833	0,5	5,315650
10,825167	0,5	5,336250
10,833500	0,5	5,321950
10,841833	0,5	5,305450
10,850167	0,5	5,293750
10,858500	0,5	5,300400
10,866833	0,5	5,322250
10,875167	0,5	5,331550
10,883500	0,5	5,326650
10,891833	0,5	5,316200
10,900167	0,5	5,322600
10,908500	0,5	5,310550
10,916833	0,5	5,311750
10,925167	0,5	5,306200
10,933500	0,5	5,300450
10,941833	0,5	5,287400
10,950167	0,5	5,295200
10,958500	0,5	5,317700
10,966833	0,5	5,314700
10,975167	0,5	5,331850
10,983500	0,5	5,317400
10,991833	0,5	5,294900
11,000167	0,5	5,286950
11,008500	0,5	5,286100
11,016833	0,5	5,312550
11,025167	0,5	5,306450
11,033500	0,5	5,283750
11,041833	0,5	5,280050
11,050167	0,5	5,275100
11,058500	0,5	5,279900
11,066833	0,5	5,280700
11,075167	0,5	5,274100
11,083500	0,5	5,264850
11,091833	0,5	5,263750
11,100167	0,5	5,261850
11,108500	0,5	5,274550
11,116833	0,5	5,250500
11,125167	0,5	5,280600
11,133500	0,5	5,246150
11,141833	0,5	5,245900
11,150167	0,5	5,235800
11,158500	0,5	5,258500
11,166833	0,5	5,285950
11,175167	0,5	5,273800
11,183500	0,5	5,261700
11,191833	0,5	5,263900
11,200167	0,5	5,262300
11,208500	0,5	5,260600
11,216833	0,5	5,265600
11,225167	0,5	5,257000
11,233500	0,5	5,252400
11,241833	0,5	5,247050
11,250167	0,5	5,258600
11,258500	0,5	5,261600
11,266833	0,5	5,273600
11,275167	0,5	5,272650
11,283500	0,5	5,242650
11,291833	0,5	5,238500
11,300167	0,5	5,245700
11,308500	0,5	5,260750
11,316833	0,5	5,288700
11,325167	0,5	5,281450
11,333500	0,5	5,285750
11,341833	0,5	5,279700
11,350167	0,5	5,274800
11,358500	0,5	5,273500
11,366833	0,5	5,278950
11,375167	0,5	5,275450
11,383500	0,5	5,269900
11,391833	0,5	5,275150
11,400167	0,5	5,271750
11,408500	0,5	5,277300
11,416833	0,5	5,285750
11,425167	0,5	5,288650
11,433500	0,5	5,275900
11,441833	0,5	5,288300
11,450167	0,5	5,302950
11,458500	0,5	5,347900
11,466833	0,5	5,372850
11,475167	0,5	5,385250
11,483500	0,5	5,382950
11,491833	0,5	5,394300
11,500167	0,5	5,394000
11,508500	0,5	5,396300
11,516833	0,5	5,396750
11,525167	0,5	5,390050
11,533500	0,5	5,381950
11,541833	0,5	5,379350
11,550167	0,5	5,381950
11,558500	0,5	5,383450
11,566833	0,5	5,398350
11,575167	0,5	5,374600
11,583500	0,5	5,363000
11,591833	0,5	5,355200
11,600167	0,5	5,364750
11,608500	0,5	5,381900
11,616833	0,5	5,385450
11,625167	0,5	5,370200
11,633500	0,5	5,377250
11,641833	0,5	5,372700
11,650167	0,5	5,370850
11,658500	0,5	5,370400
11,666833	0,5	5,370650
11,675167	0,5	5,369100
11,683500	0,5	5,367400
11,691833	0,5	5,370900
11,700167	0,5	5,364500
11,708500	0,5	5,373300
11,716833	0,5	5,375200
11,725167	0,5	5,354500
11,733500	0,5	5,352600
11,741833	0,5	5,355300
11,750167	0,5	5,373350
11,758500	0,5	5,395150
11,766833	0,5	5,393700
11,775167	0,5	5,391850
11,783500	0,5	5,391950
11,791833	0,5	5,402350
11,800167	0,5	5,398700
11,808500	0,5	5,412100
11,816833	0,5	5,399900
11,825167	0,5	5,400950
11,833500	0,5	5,400800
11,841833	0,5	5,393750
11,850167	0,5	5,379250
11,858500	0,5	5,396650
11,866833	0,5	5,384950
11,875167	0,5	5,372900
11,883500	0,5	5,361600
11,891833	0,5	5,364000
11,900167	0,5	5,387600
11,908500	0,5	5,381850
11,916833	0,5	5,370550
11,925167	0,5	5,369950
11,933500	0,5	5,371400
11,941833	0,5	5,362300
11,950167	0,5	5,351450
11,958500	0,5	5,336850
11,966833	0,5	5,340350
11,975167	0,5	5,339000
11,983500	0,5	5,332300
11,991833	0,5	5,328850
12,000167	0,5	5,315300
12,008500	0,5	5,330150
12,016833	0,5	5,311100
12,025167	0,5	5,304550
12,033500	0,5	5,299600
12,041833	0,5	5,305250
12,050167	0,5	5,335850
12,058500	0,5	5,327650
12,066833	0,5	5,324200
12,075167	0,5	5,325800
12,083500	0,5	5,318350
12,091833	0,5	5,326050
12,100167	0,5	5,326350
12,108500	0,5	5,338900
12,116833	0,5	5,336700
12,125167	0,5	5,348600
12,133500	0,5	5,357550
12,141833	0,5	5,359650
12,150167	0,5	5,355800
12,158500	0,5	5,369650
12,166833	0,5	5,360700
12,175167	0,5	5,370800
12,183500	0,5	5,369050
12,191833	0,5	5,391300
12,200167	0,5	5,409800
12,208500	0,5	5,407000
12,216833	0,5	5,403300
12,225167	0,5	5,404350
12,233500	0,5	5,399200
12,241833	0,5	5,397250
12,250167	0,5	5,397200
12,258500	0,5	5,384500
12,266833	0,5	5,387500
12,275167	0,5	5,379450
12,283500	0,5	5,370800
12,291833	0,5	5,353650
12,300167	0,5	5,357750
12,308500	0,5	5,349600
12,316833	0,5	5,339550
12,325167	0,5	5,330700
12,333500	0,5	5,334750
12,341833	0,5	5,350800
12,350167	0,5	5,366950
12,358500	0,5	5,354900
12,366833	0,5	5,357550
12,375167	0,5	5,351650
12,383500	0,5	5,348600
12,391833	0,5	5,334200
12,400167	0,5	5,337800
12,408500	0,5	5,334450
12,416833	0,5	5,333950
12,425167	0,5	5,336600
12,433500	0,5	5,322850
12,441833	0,5	5,319550
12,450167	0,5	5,326550
12,458500	0,5	5,321750
12,466833	0,5	5,312400
12,475167	0,5	5,326450
12,483500	0,5	5,332050
12,491833	0,5	5,360050
12,500167	0,5	5,361050
12,508500	0,5	5,360100
12,516833	0,5	5,352350
12,525167	0,5	5,359400
12,533500	0,5	5,352100
12,541833	0,5	5,358900
12,550167	0,5	5,353600
12,558500	0,5	5,344150
12,566833	0,5	5,344600
12,575167	0,5	5,343750
12,583500	0,5	5,331200
12,591833	0,5	5,339450
12,600167	0,5	5,338400
12,608500	0,5	5,323650
12,616833	0,5	5,320700
12,625167	0,5	5,323350
12,633500	0,5	5,347150
12,641833	0,5	5,356000
12,650167	0,5	5,373850
12,658500	0,5	5,382450
12,666833	0,5	5,419350
12,675167	0,5	5,440550
12,683500	0,5	5,470650
12,691833	0,5	5,502450
12,700167	0,5	5,522800
12,708500	0,5	5,537550
12,716833	0,5	5,545500
12,725167	0,5	5,550000
12,733500	0,5	5,534150
12,741833	0,5	5,545850
12,750167	0,5	5,522050
12,758500	0,5	5,497150
12,766833	0,5	5,475750
12,775167	0,5	5,464500
12,783500	0,5	5,464100
12,791833	0,5	5,445650
12,800167	0,5	5,410900
12,808500	0,5	5,389900
12,816833	0,5	5,370600
12,825167	0,5	5,358250
12,833500	0,5	5,344300
12,841833	0,5	5,342500
12,850167	0,5	5,328500
12,858500	0,5	5,325350
12,866833	0,5	5,328950
12,875167	0,5	5,343900
12,883500	0,5	5,340050
12,891833	0,5	5,366850
12,900167	0,5	5,353600
12,908500	0,5	5,346550
12,916833	0,5	5,345550
12,925167	0,5	5,340500
12,933500	0,5	5,351850
12,941833	0,5	5,326600
12,950167	0,5	5,315450
12,958500	0,5	5,297450
12,966833	0,5	5,284900
12,975167	0,5	5,272050
12,983500	0,5	5,258000
12,991833	0,5	5,237600
13,000167	0,5	5,223200
13,008500	0,5	5,204150
13,016833	0,5	5,198600
13,025167	0,5	5,176150
13,033500	0,5	5,167000
13,041833	0,5	5,161750
13,050167	0,5	5,147900
13,058500	0,5	5,136400
13,066833	0,5	5,128800
13,075167	0,5	5,138750
13,083500	0,5	5,148850
13,091833	0,5	5,140150
13,100167	0,5	5,126550
13,108500	0,5	5,116750
13,116833	0,5	5,109600
13,125167	0,5	5,101950
13,133500	0,5	5,093900
13,141833	0,5	5,090250
13,150167	0,5	5,077050
13,158500	0,5	5,075450
13,166833	0,5	5,063800
13,175167	0,5	5,062000
13,183500	0,5	5,061000
13,191833	0,5	5,052850
13,200167	0,5	5,038850
13,208500	0,5	5,028600
13,216833	0,5	5,032550
13,225167	0,5	5,041950
13,233500	0,5	5,047150
13,241833	0,5	5,039500
13,250167	0,5	5,031150
13,258500	0,5	5,029800
13,266833	0,5	5,024100
13,275167	0,5	5,019200
13,283500	0,5	5,016550
13,291833	0,5	5,004700
13,300167	0,5	5,002050
13,308500	0,5	4,991200
13,316833	0,5	4,987700
13,325167	0,5	4,971600
13,333500	0,5	4,972900
13,341833	0,5	4,967350
13,350167	0,5	4,961750
13,358500	0,5	4,955550
13,366833	0,5	4,963000
13,375167	0,5	4,981950
13,383500	0,5	4,986700
13,391833	0,5	4,978350
13,400167	0,5	4,970800
13,408500	0,5	4,963700
13,416833	0,5	4,959850
13,425167	0,5	4,952850
13,433500	0,5	4,952500
13,441833	0,5	4,945250
13,450167	0,5	4,948150
13,458500	0,5	4,955800
13,466833	0,5	4,934950
13,475167	0,5	4,945200
13,483500	0,5	4,947950
13,491833	0,5	4,928750
13,500167	0,5	4,928250
13,508500	0,5	4,919350
13,516833	0,5	4,928700
13,525167	0,5	4,943200
13,533500	0,5	4,950700
13,541833	0,5	4,966350
13,550167	0,5	4,988550
13,558500	0,5	5,026850
13,566833	0,5	5,070500
13,575167	0,5	5,126350
13,583500	0,5	5,162850
13,591833	0,5	5,180550
13,600167	0,5	5,180600
13,608500	0,5	5,155600
13,616833	0,5	5,120050
13,625167	0,5	5,094800
13,633500	0,5	5,056350
13,641833	0,5	5,018700
13,650167	0,5	4,987300
13,658500	0,5	4,959450
13,666833	0,5	4,959550
13,675167	0,5	4,956700
13,683500	0,5	4,963600
13,691833	0,5	4,966600
13,700167	0,5	4,991900
13,708500	0,5	5,006500
13,716833	0,5	5,021150
13,725167	0,5	5,021300
13,733500	0,5	5,018300
13,741833	0,5	5,003150
13,750167	0,5	4,978700
13,758500	0,5	4,953400
13,766833	0,5	4,924500
13,775167	0,5	4,914900
13,783500	0,5	4,892700
13,791833	0,5	4,875000
13,800167	0,5	4,858700
13,808500	0,5	4,850250
13,816833	0,5	4,861350
13,825167	0,5	4,847600
13,833500	0,5	4,834350
13,841833	0,5	4,829000
13,850167	0,5	4,822450
13,858500	0,5	4,815150
13,866833	0,5	4,811150
13,875167	0,5	4,811400
13,883500	0,5	4,802900
13,891833	0,5	4,802500
13,900167	0,5	4,797600
13,908500	0,5	4,783250
13,916833	0,5	4,770050
13,925167	0,5	4,778400
13,933500	0,5	4,765200
13,941833	0,5	4,763450
13,950167	0,5	4,761200
13,958500	0,5	4,762050
13,966833	0,5	4,772650
13,975167	0,5	4,767550
13,983500	0,5	4,770250
13,991833	0,5	4,764650
14,000167	0,5	4,769850
14,008500	0,5	4,764650
14,016833	0,5	4,763250
14,025167	0,5	4,761000
14,033500	0,5	4,762100
14,041833	0,5	4,768150
14,050167	0,5	4,765000
14,058500	0,5	4,758100
14,066833	0,5	4,766050
14,075167	0,5	4,776050
14,083500	0,5	4,773500
14,091833	0,5	4,771750
14,100167	0,5	4,775900
14,108500	0,5	4,773600
14,116833	0,5	4,770450
14,125167	0,5	4,757200
14,133500	0,5	4,742800
14,141833	0,5	4,734650
14,150167	0,5	4,723400
14,158500	0,5	4,718200
14,166833	0,5	4,707250
14,175167	0,5	4,710750
14,183500	0,5	4,706400
14,191833	0,5	4,711450
14,200167	0,5	4,707800
14,208500	0,5	4,705750
14,216833	0,5	4,722200
14,225167	0,5	4,746500
14,233500	0,5	4,781650
14,241833	0,5	4,833950
14,250167	0,5	4,900650
14,258500	0,5	4,972550
14,266833	0,5	5,031000
14,275167	0,5	5,051400
14,283500	0,5	5,052450
14,291833	0,5	5,021300
14,300167	0,5	4,974650
14,308500	0,5	4,929150
14,316833	0,5	4,882800
14,325167	0,5	4,851300
14,333500	0,5	4,831950
14,341833	0,5	4,827950
14,350167	0,5	4,837000
14,358500	0,5	4,857000
14,366833	0,5	4,884800
14,375167	0,5	4,901900
14,383500	0,5	4,912300
14,391833	0,5	4,903800
14,400167	0,5	4,894100
14,408500	0,5	4,874900
14,416833	0,5	4,846000
14,425167	0,5	4,814700
14,433500	0,5	4,788100
14,441833	0,5	4,771300
14,450167	0,5	4,747950
14,458500	0,5	4,740600
14,466833	0,5	4,725400
14,475167	0,5	4,714300
14,483500	0,5	4,704150
14,491833	0,5	4,700100
14,500167	0,5	4,687800
14,508500	0,5	4,682450
14,516833	0,5	4,674950
14,525167	0,5	4,665950
14,533500	0,5	4,661050
14,541833	0,5	4,657300
14,550167	0,5	4,661550
14,558500	0,5	4,666100
14,566833	0,5	4,658250
14,575167	0,5	4,659700
14,583500	0,5	4,655050
14,591833	0,5	4,655300
14,600167	0,5	4,660550
14,608500	0,5	4,665300
14,616833	0,5	4,672800
14,625167	0,5	4,680250
14,633500	0,5	4,683050
14,641833	0,5	4,672900
14,650167	0,5	4,660150
14,658500	0,5	4,652800
14,666833	0,5	4,632350
14,675167	0,5	4,610200
14,683500	0,5	4,598950
14,691833	0,5	4,584450
14,700167	0,5	4,582900
14,708500	0,5	4,574100
14,716833	0,5	4,563550
14,725167	0,5	4,551100
14,733500	0,5	4,545550
14,741833	0,5	4,534950
14,750167	0,5	4,537850
14,758500	0,5	4,531550
14,766833	0,5	4,527050
14,775167	0,5	4,524900
14,783500	0,5	4,532500
14,791833	0,5	4,525700
14,800167	0,5	4,542800
14,808500	0,5	4,574300
14,816833	0,5	4,610700
14,825167	0,5	4,672600
14,833500	0,5	4,747150
14,841833	0,5	4,827100
14,850167	0,5	4,881900
14,858500	0,5	4,897050
14,866833	0,5	4,873500
14,875167	0,5	4,830050
14,883500	0,5	4,776450
14,891833	0,5	4,729500
14,900167	0,5	4,698350
14,908500	0,5	4,680850
14,916833	0,5	4,684550
14,925167	0,5	4,710750
14,933500	0,5	4,735750
14,941833	0,5	4,750700
14,950167	0,5	4,750200
14,958500	0,5	4,733350
14,966833	0,5	4,696850
14,975167	0,5	4,660300
14,983500	0,5	4,624200
14,991833	0,5	4,596900
15,000167	0,5	4,578050
15,008500	0,5	4,554350
15,016833	0,5	4,538750
15,025167	0,5	4,525700
15,033500	0,5	4,512900
15,041833	0,5	4,507250
15,050167	0,5	4,502300
15,058500	0,5	4,495500
15,066833	0,5	4,498350
15,075167	0,5	4,496900
15,083500	0,5	4,502350
15,091833	0,5	4,506050
15,100167	0,5	4,517950
15,108500	0,5	4,510250
15,116833	0,5	4,507300
15,125167	0,5	4,499800
15,133500	0,5	4,496450
15,141833	0,5	4,492400
15,150167	0,5	4,490950
15,158500	0,5	4,479450
15,166833	0,5	4,469700
15,175167	0,5	4,457550
15,183500	0,5	4,445050
15,191833	0,5	4,435650
15,200167	0,5	4,419600
15,208500	0,5	4,409650
15,216833	0,5	4,401600
15,225167	0,5	4,394850
15,233500	0,5	4,381500
15,241833	0,5	4,378200
15,250167	0,5	4,373600
15,258500	0,5	4,366800
15,266833	0,5	4,363500
15,275167	0,5	4,362200
15,283500	0,5	4,358250
15,291833	0,5	4,367750
15,300167	0,5	4,377150
15,308500	0,5	4,387950
15,316833	0,5	4,416150
15,325167	0,5	4,458750
15,333500	0,5	4,525650
15,341833	0,5	4,607400
15,350167	0,5	4,688950
15,358500	0,5	4,752050
15,366833	0,5	4,776450
15,375167	0,5	4,770050
15,383500	0,5	4,731350
15,391833	0,5	4,686650
15,400167	0,5	4,647650
15,408500	0,5	4,623350
15,416833	0,5	4,628200
15,425167	0,5	4,645800
15,433500	0,5	4,668550
15,441833	0,5	4,682950
15,450167	0,5	4,674100
15,458500	0,5	4,649050
15,466833	0,5	4,608850
15,475167	0,5	4,573900
15,483500	0,5	4,533800
15,491833	0,5	4,503150
15,500167	0,5	4,486750
15,508500	0,5	4,474950
15,516833	0,5	4,473350
15,525167	0,5	4,465150
15,533500	0,5	4,462800
15,541833	0,5	4,454550
15,550167	0,5	4,441400
15,558500	0,5	4,433750
15,566833	0,5	4,423150
15,575167	0,5	4,413750
15,583500	0,5	4,404750
15,591833	0,5	4,401250
15,600167	0,5	4,401900
15,608500	0,5	4,389250
15,616833	0,5	4,385800
15,625167	0,5	4,372950
15,633500	0,5	4,354650
15,641833	0,5	4,339150
15,650167	0,5	4,325150
15,658500	0,5	4,307750
15,666833	0,5	4,295750
15,675167	0,5	4,271250
15,683500	0,5	4,260950
15,691833	0,5	4,247200
15,700167	0,5	4,240150
15,708500	0,5	4,228700
15,716833	0,5	4,217400
15,725167	0,5	4,208350
15,733500	0,5	4,207450
15,741833	0,5	4,205300
15,750167	0,5	4,207550
15,758500	0,5	4,219550
15,766833	0,5	4,239700
15,775167	0,5	4,277900
15,783500	0,5	4,338750
15,791833	0,5	4,418600
15,800167	0,5	4,503400
15,808500	0,5	4,578500
15,816833	0,5	4,610950
15,825167	0,5	4,605450
15,833500	0,5	4,573250
15,841833	0,5	4,531950
15,850167	0,5	4,506700
15,858500	0,5	4,491150
15,866833	0,5	4,490600
15,875167	0,5	4,494300
15,883500	0,5	4,489750
15,891833	0,5	4,473000
15,900167	0,5	4,434250
15,908500	0,5	4,396050
15,916833	0,5	4,357700
15,925167	0,5	4,329350
15,933500	0,5	4,301750
15,941833	0,5	4,276700
15,950167	0,5	4,261200
15,958500	0,5	4,246150
15,966833	0,5	4,238150
15,975167	0,5	4,236650
15,983500	0,5	4,233150
15,991833	0,5	4,235850
16,000167	0,5	4,235900
16,008500	0,5	4,229150
16,016833	0,5	4,224700
16,025167	0,5	4,214150
16,033500	0,5	4,208150
16,041833	0,5	4,198050
16,050167	0,5	4,185700
16,058500	0,5	4,172650
16,066833	0,5	4,154150
16,075167	0,5	4,141200
16,083500	0,5	4,125750
16,091833	0,5	4,114550
16,100167	0,5	4,104050
16,108500	0,5	4,097750
16,116833	0,5	4,090550
16,125167	0,5	4,088950
16,133500	0,5	4,090300
16,141833	0,5	4,088900
16,150167	0,5	4,083150
16,158500	0,5	4,087450
16,166833	0,5	4,096400
16,175167	0,5	4,126000
16,183500	0,5	4,171900
16,191833	0,5	4,243050
16,200167	0,5	4,327400
16,208500	0,5	4,410750
16,216833	0,5	4,486200
16,225167	0,5	4,525950
16,233500	0,5	4,528050
16,241833	0,5	4,504900
16,250167	0,5	4,480200
16,258500	0,5	4,465800
16,266833	0,5	4,457950
16,275167	0,5	4,446450
16,283500	0,5	4,429750
16,291833	0,5	4,395200
16,300167	0,5	4,347250
16,308500	0,5	4,292650
16,316833	0,5	4,250100
16,325167	0,5	4,216300
16,333500	0,5	4,192550
16,341833	0,5	4,178450
16,350167	0,5	4,173550
16,358500	0,5	4,171300
16,366833	0,5	4,172750
16,375167	0,5	4,170750
16,383500	0,5	4,171650
16,391833	0,5	4,166000
16,400167	0,5	4,154000
16,408500	0,5	4,145550
16,416833	0,5	4,138000
16,425167	0,5	4,121650
16,433500	0,5	4,107200
16,441833	0,5	4,089400
16,450167	0,5	4,071700
16,458500	0,5	4,048500
16,466833	0,5	4,028400
16,475167	0,5	4,016450
16,483500	0,5	4,006550
16,491833	0,5	3,995750
16,500167	0,5	3,991350
16,508500	0,5	3,982000
16,516833	0,5	3,982250
16,525167	0,5	3,982800
16,533500	0,5	3,987650
16,541833	0,5	4,017350
16,550167	0,5	4,060600
16,558500	0,5	4,127150
16,566833	0,5	4,216850
16,575167	0,5	4,306200
16,583500	0,5	4,395300
16,591833	0,5	4,440950
16,600167	0,5	4,455050
16,608500	0,5	4,442400
16,616833	0,5	4,427800
16,625167	0,5	4,413250
16,633500	0,5	4,400200
16,641833	0,5	4,373050
16,650167	0,5	4,352500
16,658500	0,5	4,326200
16,666833	0,5	4,310250
16,675167	0,5	4,298900
16,683500	0,5	4,303800
16,691833	0,5	4,320650
16,700167	0,5	4,335100
16,708500	0,5	4,348350
16,716833	0,5	4,367250
16,725167	0,5	4,382700
16,733500	0,5	4,382400
16,741833	0,5	4,379550
16,750167	0,5	4,369900
16,758500	0,5	4,346350
16,766833	0,5	4,328100
16,775167	0,5	4,296500
16,783500	0,5	4,265150
16,791833	0,5	4,225950
16,800167	0,5	4,192300
16,808500	0,5	4,166350
16,816833	0,5	4,132550
16,825167	0,5	4,107050
16,833500	0,5	4,085200
16,841833	0,5	4,065400
16,850167	0,5	4,049850
16,858500	0,5	4,045050
16,866833	0,5	4,039100
16,875167	0,5	4,061700
16,883500	0,5	4,094250
16,891833	0,5	4,154050
16,900167	0,5	4,233150
16,908500	0,5	4,302350
16,916833	0,5	4,366850
16,925167	0,5	4,393050
16,933500	0,5	4,395600
16,941833	0,5	4,368600
16,950167	0,5	4,341400
16,958500	0,5	4,306800
16,966833	0,5	4,276550
16,975167	0,5	4,232300
16,983500	0,5	4,189550
16,991833	0,5	4,152050
17,000167	0,5	4,123600
17,008500	0,5	4,100750
17,016833	0,5	4,085750
17,025167	0,5	4,077050
17,033500	0,5	4,069200
17,041833	0,5	4,067050
17,050167	0,5	4,059900
17,058500	0,5	4,061050
17,066833	0,5	4,051600
17,075167	0,5	4,053500
17,083500	0,5	4,048250
17,091833	0,5	4,043700
17,100167	0,5	4,027150
17,108500	0,5	4,026300
17,116833	0,5	4,027600
17,125167	0,5	4,030600
17,133500	0,5	4,038550
17,141833	0,5	4,048800
17,150167	0,5	4,077550
17,158500	0,5	4,114850
17,166833	0,5	4,180650
17,175167	0,5	4,274400
17,183500	0,5	4,409600
17,191833	0,5	4,580050
17,200167	0,5	4,794650
17,208500	0,5	5,032350
17,216833	0,5	5,282400
17,225167	0,5	5,511900
17,233500	0,5	5,716700
17,241833	0,5	5,896300
17,250167	0,5	6,037050
17,258500	0,5	6,128400
17,266833	0,5	6,164350
17,275167	0,5	6,150650
17,283500	0,5	6,095100
17,291833	0,5	6,013800
17,300167	0,5	5,903150
17,308500	0,5	5,773500
17,316833	0,5	5,640400
17,325167	0,5	5,496450
17,333500	0,5	5,354350
17,341833	0,5	5,220650
17,350167	0,5	5,090200
17,358500	0,5	4,980050
17,366833	0,5	4,876400
17,375167	0,5	4,794200
17,383500	0,5	4,709700
17,391833	0,5	4,649100
17,400167	0,5	4,584550
17,408500	0,5	4,542150
17,416833	0,5	4,510200
17,425167	0,5	4,486650
17,433500	0,5	4,477600
17,441833	0,5	4,498000
17,450167	0,5	4,519950
17,458500	0,5	4,572400
17,466833	0,5	4,624550
17,475167	0,5	4,672900
17,483500	0,5	4,700150
17,491833	0,5	4,707700
17,500167	0,5	4,711950
17,508500	0,5	4,711200
17,516833	0,5	4,693000
17,525167	0,5	4,673600
17,533500	0,5	4,647850
17,541833	0,5	4,613800
17,550167	0,5	4,588850
17,558500	0,5	4,557650
17,566833	0,5	4,519250
17,575167	0,5	4,477600
17,583500	0,5	4,443450
17,591833	0,5	4,403850
17,600167	0,5	4,356250
17,608500	0,5	4,322300
17,616833	0,5	4,284500
17,625167	0,5	4,243300
17,633500	0,5	4,214050
17,641833	0,5	4,170100
17,650167	0,5	4,155650
17,658500	0,5	4,147650
17,666833	0,5	4,131150
17,675167	0,5	4,126900
17,683500	0,5	4,143800
17,691833	0,5	4,167450
17,700167	0,5	4,203950
17,708500	0,5	4,243500
17,716833	0,5	4,255600
17,725167	0,5	4,267100
17,733500	0,5	4,248600
17,741833	0,5	4,225700
17,750167	0,5	4,183900
17,758500	0,5	4,148250
17,766833	0,5	4,110750
17,775167	0,5	4,073300
17,783500	0,5	4,040600
17,791833	0,5	4,015200
17,800167	0,5	4,004000
17,808500	0,5	3,986500
17,816833	0,5	3,958250
17,825167	0,5	3,946150
17,833500	0,5	3,933450
17,841833	0,5	3,913250
17,850167	0,5	3,903500
17,858500	0,5	3,892900
17,866833	0,5	3,889300
17,875167	0,5	3,879300
17,883500	0,5	3,879700
17,891833	0,5	3,881500
17,900167	0,5	3,900000
17,908500	0,5	3,920900
17,916833	0,5	3,959350
17,925167	0,5	3,995050
17,933500	0,5	4,017300
17,941833	0,5	4,029150
17,950167	0,5	4,035500
17,958500	0,5	4,017000
17,966833	0,5	3,992500
17,975167	0,5	3,955800
17,983500	0,5	3,925800
17,991833	0,5	3,901250
18,000167	0,5	3,873050
18,008500	0,5	3,851750
18,016833	0,5	3,829150
18,025167	0,5	3,822900
18,033500	0,5	3,806200
18,041833	0,5	3,797200
18,050167	0,5	3,796550
18,058500	0,5	3,789800
18,066833	0,5	3,783600
18,075167	0,5	3,775400
18,083500	0,5	3,769350
18,091833	0,5	3,781750
18,100167	0,5	3,792750
18,108500	0,5	3,814850
18,116833	0,5	3,837950
18,125167	0,5	3,880500
18,133500	0,5	3,912100
18,141833	0,5	3,922700
18,150167	0,5	3,926050
18,158500	0,5	3,905800
18,166833	0,5	3,880850
18,175167	0,5	3,857800
18,183500	0,5	3,829100
18,191833	0,5	3,806250
18,200167	0,5	3,789750
18,208500	0,5	3,768150
18,216833	0,5	3,750900
18,225167	0,5	3,729700
18,233500	0,5	3,720050
18,241833	0,5	3,715050
18,250167	0,5	3,716250
18,258500	0,5	3,714400
18,266833	0,5	3,715350
18,275167	0,5	3,720950
18,283500	0,5	3,726650
18,291833	0,5	3,751500
18,300167	0,5	3,781500
18,308500	0,5	3,814900
18,316833	0,5	3,837700
18,325167	0,5	3,843700
18,333500	0,5	3,831350
18,341833	0,5	3,818100
18,350167	0,5	3,799800
18,358500	0,5	3,773400
18,366833	0,5	3,748900
18,375167	0,5	3,732200
18,383500	0,5	3,715400
18,391833	0,5	3,719850
18,400167	0,5	3,704700
18,408500	0,5	3,708100
18,416833	0,5	3,700400
18,425167	0,5	3,701900
18,433500	0,5	3,702750
18,441833	0,5	3,708550
18,450167	0,5	3,722650
18,458500	0,5	3,738950
18,466833	0,5	3,768500
18,475167	0,5	3,791050
18,483500	0,5	3,803600
18,491833	0,5	3,814400
18,500167	0,5	3,810400
18,508500	0,5	3,796750
18,516833	0,5	3,775650
18,525167	0,5	3,745850
18,533500	0,5	3,746500
18,541833	0,5	3,739150
18,550167	0,5	3,741700
18,558500	0,5	3,732800
18,566833	0,5	3,735100
18,575167	0,5	3,731200
18,583500	0,5	3,731650
18,591833	0,5	3,741550
18,600167	0,5	3,747650
18,608500	0,5	3,759400
18,616833	0,5	3,769300
18,625167	0,5	3,776350
18,633500	0,5	3,793400
18,641833	0,5	3,816350
18,650167	0,5	3,816350
18,658500	0,5	3,816000
18,666833	0,5	3,796300
18,675167	0,5	3,789650
18,683500	0,5	3,776450
18,691833	0,5	3,782650
18,700167	0,5	3,774500
18,708500	0,5	3,770150
18,716833	0,5	3,767700
18,725167	0,5	3,762450
18,733500	0,5	3,765250
18,741833	0,5	3,764200
18,750167	0,5	3,769850
18,758500	0,5	3,771650
18,766833	0,5	3,790150
18,775167	0,5	3,801900
18,783500	0,5	3,829950
18,791833	0,5	3,845900
18,800167	0,5	3,855300
18,808500	0,5	3,861400
18,816833	0,5	3,851950
18,825167	0,5	3,862800
18,833500	0,5	3,875600
18,841833	0,5	3,877050
18,850167	0,5	3,886800
18,858500	0,5	3,893650
18,866833	0,5	3,898300
18,875167	0,5	3,885750
18,883500	0,5	3,889800
18,891833	0,5	3,885350
18,900167	0,5	3,878200
18,908500	0,5	3,889400
18,916833	0,5	3,898650
18,925167	0,5	3,875500
18,933500	0,5	3,874800
18,941833	0,5	3,853000
18,950167	0,5	3,830900
18,958500	0,5	3,799050
18,966833	0,5	3,771400
18,975167	0,5	3,761100
18,983500	0,5	3,741850
18,991833	0,5	3,730550
19,000167	0,5	3,725550
19,008500	0,5	3,727150
19,016833	0,5	3,729000
19,025167	0,5	3,738700
19,033500	0,5	3,739700
19,041833	0,5	3,740900
19,050167	0,5	3,738200
19,058500	0,5	3,726450
19,066833	0,5	3,704500
19,075167	0,5	3,691350
19,083500	0,5	3,675850
19,091833	0,5	3,663900
19,100167	0,5	3,655000
19,108500	0,5	3,638100
19,116833	0,5	3,637800
19,125167	0,5	3,635850
19,133500	0,5	3,645400
19,141833	0,5	3,651350
19,150167	0,5	3,663950
19,158500	0,5	3,657550
19,166833	0,5	3,648850
19,175167	0,5	3,642000
19,183500	0,5	3,636700
19,191833	0,5	3,625650
19,200167	0,5	3,616900
19,208500	0,5	3,611550
19,216833	0,5	3,596650
19,225167	0,5	3,586850
19,233500	0,5	3,577400
19,241833	0,5	3,571400
19,250167	0,5	3,563800
19,258500	0,5	3,543750
19,266833	0,5	3,532900
19,275167	0,5	3,530600
19,283500	0,5	3,512100
19,291833	0,5	3,502800
19,300167	0,5	3,491300
19,308500	0,5	3,482250
19,316833	0,5	3,475700
19,325167	0,5	3,467300
19,333500	0,5	3,459000
19,341833	0,5	3,456500
19,350167	0,5	3,455550
19,358500	0,5	3,443800
19,366833	0,5	3,432800
19,375167	0,5	3,432150
19,383500	0,5	3,409800
19,391833	0,5	3,390550
19,400167	0,5	3,367700
19,408500	0,5	3,351100
19,416833	0,5	3,357300
19,425167	0,5	3,356450
19,433500	0,5	3,341650
19,441833	0,5	3,335100
19,450167	0,5	3,318900
19,458500	0,5	3,307650
19,466833	0,5	3,301800
19,475167	0,5	3,288800
19,483500	0,5	3,283800
19,491833	0,5	3,281950
19,500167	0,5	3,273900
19,508500	0,5	3,257900
19,516833	0,5	3,258600
19,525167	0,5	3,252300
19,533500	0,5	3,238750
19,541833	0,5	3,220400
19,550167	0,5	3,197500
19,558500	0,5	3,196800
19,566833	0,5	3,197150
19,575167	0,5	3,196950
19,583500	0,5	3,175250
19,591833	0,5	3,172850
19,600167	0,5	3,163600
19,608500	0,5	3,148900
19,616833	0,5	3,143650
19,625167	0,5	3,128200
19,633500	0,5	3,106150
19,641833	0,5	3,101900
19,650167	0,5	3,098150
19,658500	0,5	3,077250
19,666833	0,5	3,076950
19,675167	0,5	3,068200
19,683500	0,5	3,044850
19,691833	0,5	3,028300
19,700167	0,5	3,001350
19,708500	0,5	3,011800
19,716833	0,5	3,000000
19,725167	0,5	2,994150
19,733500	0,5	2,973550
19,741833	0,5	2,961300
19,750167	0,5	2,954250
19,758500	0,5	2,944000
19,766833	0,5	2,933750
19,775167	0,5	2,921350
19,783500	0,5	2,910700
19,791833	0,5	2,906250
19,800167	0,5	2,889800
19,808500	0,5	2,875600
19,816833	0,5	2,871050
19,825167	0,5	2,853050
19,833500	0,5	2,826150
19,841833	0,5	2,799050
19,850167	0,5	2,782350
19,858500	0,5	2,779200
19,866833	0,5	2,765550
19,875167	0,5	2,742550
19,883500	0,5	2,732950
19,891833	0,5	2,714750
19,900167	0,5	2,699650
19,908500	0,5	2,688500
19,916833	0,5	2,671850
19,925167	0,5	2,653100
19,933500	0,5	2,638450
19,941833	0,5	2,633700
19,950167	0,5	2,608700
19,958500	0,5	2,609500
19,966833	0,5	2,595700
19,975167	0,5	2,582400
19,983500	0,5	2,555900
19,991833	0,5	2,528300
20,000167	0,5	2,513450
20,008500	0,5	2,518700
20,016833	0,5	2,495400
20,025167	0,5	2,489850
20,033500	0,5	2,473550
20,041833	0,5	2,456950
20,050167	0,5	2,436950
20,058500	0,5	2,431000
20,066833	0,5	2,409850
20,075167	0,5	2,393850
20,083500	0,5	2,381050
20,091833	0,5	2,365550
20,100167	0,5	2,341250
20,108500	0,5	2,336150
20,116833	0,5	2,319050
20,125167	0,5	2,290400
20,133500	0,5	2,260750
20,141833	0,5	2,218000
20,150167	0,5	2,215100
20,158500	0,5	2,201100
20,166833	0,5	2,192750
20,175167	0,5	2,175000
20,183500	0,5	2,170700
20,191833	0,5	2,148150
20,200167	0,5	2,139200
20,208500	0,5	2,113950
20,216833	0,5	2,101400
20,225167	0,5	2,093650
20,233500	0,5	2,085200
20,241833	0,5	2,058350
20,250167	0,5	2,050250
20,258500	0,5	2,035150
20,266833	0,5	2,010150
20,275167	0,5	1,994350
20,283500	0,5	1,953100
20,291833	0,5	1,924550
20,300167	0,5	1,909800
20,308500	0,5	1,901400
20,316833	0,5	1,872150
20,325167	0,5	1,870650
20,333500	0,5	1,852950
20,341833	0,5	1,836200
20,350167	0,5	1,823350
20,358500	0,5	1,808950
20,366833	0,5	1,786950
20,375167	0,5	1,781250
20,383500	0,5	1,766200
20,391833	0,5	1,734450
20,400167	0,5	1,724550
20,408500	0,5	1,705100
20,416833	0,5	1,680150
20,425167	0,5	1,642850
20,433500	0,5	1,619600
20,441833	0,5	1,593550
20,450167	0,5	1,575900
20,458500	0,5	1,548750
20,466833	0,5	1,534850
20,475167	0,5	1,517900
20,483500	0,5	1,494900
20,491833	0,5	1,473350
20,500167	0,5	1,463400
20,508500	0,5	1,441500
20,516833	0,5	1,430650
20,525167	0,5	1,428700
20,533500	0,5	1,401100
20,541833	0,5	1,377400
20,550167	0,5	1,361250
20,558500	0,5	1,336300
20,566833	0,5	1,309300
20,575167	0,5	1,278500
20,583500	0,5	1,259400
20,591833	0,5	1,257350
20,600167	0,5	1,244200
20,608500	0,5	1,219050
20,616833	0,5	1,192300
20,625167	0,5	1,175000
20,633500	0,5	1,141350
20,641833	0,5	1,116900
20,650167	0,5	1,080400
20,658500	0,5	1,057800
20,666833	0,5	1,039600
20,675167	0,5	1,033300
20,683500	0,5	1,003800
20,691833	0,5	0,977200
20,700167	0,5	0,959850
20,708500	0,5	0,933800
20,716833	0,5	0,904800
20,725167	0,5	0,859300
20,733500	0,5	0,856300
20,741833	0,5	0,849000
20,750167	0,5	0,843150
20,758500	0,5	0,838400
20,766833	0,5	0,844700
20,775167	0,5	0,831100
20,783500	0,5	0,823650
20,791833	0,5	0,797300
20,800167	0,5	0,769550
20,808500	0,5	0,734350
20,816833	0,5	0,723100
20,825167	0,5	0,693800
20,833500	0,5	0,665450
20,841833	0,5	0,640200
20,850167	0,5	0,601950
20,858500	0,5	0,575350
20,866833	0,5	0,529050
20,875167	0,5	0,497050
20,883500	0,5	0,483850
20,891833	0,5	0,470900
20,900167	0,5	0,439150
20,908500	0,5	0,427600
20,916833	0,5	0,406950
20,925167	0,5	0,400850
20,933500	0,5	0,381650
20,941833	0,5	0,376750
20,950167	0,5	0,354150
20,958500	0,5	0,339100
20,966833	0,5	0,340650
20,975167	0,5	0,320200
20,983500	0,5	0,299650
20,991833	0,5	0,277000
21,000167	0,5	0,245350
21,008500	0,5	0,221950
21,016833	0,5	0,181450
21,025167	0,5	0,147350
21,033500	0,5	0,150100
21,041833	0,5	0,129750
21,050167	0,5	0,112200
21,058500	0,5	0,090100
21,066833	0,5	0,076950
21,075167	0,5	0,054950
21,083500	0,5	0,038750
21,091833	0,5	0,015650
21,100167	0,5	0,008800
21,108500	0,5	0,009650
21,116833	0,5	0,009350
21,125167	0,5	-0,002300
21,133500	0,5	-0,023300
21,141833	0,5	-0,046400
21,150167	0,5	-0,072450
21,158500	0,5	-0,126100
21,166833	0,5	-0,164600
21,175167	0,5	-0,176000
21,183500	0,5	-0,195400
21,191833	0,5	-0,202350
21,200167	0,5	-0,232950
21,208500	0,5	-0,240000
21,216833	0,5	-0,262950
21,225167	0,5	-0,281550
21,233500	0,5	-0,294800
21,241833	0,5	-0,307850
21,250167	0,5	-0,320200
21,258500	0,5	-0,314800
21,266833	0,5	-0,326650
21,275167	0,5	-0,336450
21,283500	0,5	-0,344000
21,291833	0,5	-0,373300
21,300167	0,5	-0,400250
21,308500	0,5	-0,439750
21,316833	0,5	-0,444600
21,325167	0,5	-0,444450
21,333500	0,5	-0,457450
21,341833	0,5	-0,470100
21,350167	0,5	-0,477050
21,358500	0,5	-0,499200
21,366833	0,5	-0,523600
21,375167	0,5	-0,548050
21,383500	0,5	-0,557600
21,391833	0,5	-0,596900
21,400167	0,5	-0,588050
21,408500	0,5	-0,587500
21,416833	0,5	-0,610850
21,425167	0,5	-0,618850
21,433500	0,5	-0,650450
21,441833	0,5	-0,679350
21,450167	0,5	-0,735900
21,458500	0,5	-0,759300
21,466833	0,5	-0,783250
21,475167	0,5	-0,790000
21,483500	0,5	-0,812050
21,491833	0,5	-0,831500
21,500167	0,5	-0,844000
21,508500	0,5	-0,865350
21,516833	0,5	-0,888550
21,525167	0,5	-0,897450
21,533500	0,5	-0,923600
21,541833	0,5	-0,933550
21,550167	0,5	-0,928600
21,558500	0,5	-0,931800
21,566833	0,5	-0,956500
21,575167	0,5	-0,985900
21,583500	0,5	-1,006650
21,591833	0,5	-1,043300
21,600167	0,5	-1,085000
21,608500	0,5	-1,105250
21,616833	0,5	-1,115750
21,625167	0,5	-1,140350
21,633500	0,5	-1,162850
21,641833	0,5	-1,183750
21,650167	0,5	-1,188900
21,658500	0,5	-1,206650
21,666833	0,5	-1,212450
21,675167	0,5	-1,237850
21,683500	0,5	-1,253050
21,691833	0,5	-1,235550
21,700167	0,5	-1,211700
21,708500	0,5	-1,221850
21,716833	0,5	-1,231500
21,725167	0,5	-1,260650
21,733500	0,5	-1,291650
21,741833	0,5	-1,340100
21,750167	0,5	-1,381550
21,758500	0,5	-1,397600
21,766833	0,5	-1,432300
21,775167	0,5	-1,457600
21,783500	0,5	-1,487800
21,791833	0,5	-1,503800
21,800167	0,5	-1,530100
21,808500	0,5	-1,553800
21,816833	0,5	-1,576900
21,825167	0,5	-1,602350
21,833500	0,5	-1,617650
21,841833	0,5	-1,602850
21,850167	0,5	-1,617400
21,858500	0,5	-1,632750
21,866833	0,5	-1,644750
21,875167	0,5	-1,677850
21,883500	0,5	-1,697000
21,891833	0,5	-1,729900
21,900167	0,5	-1,746500
21,908500	0,5	-1,756800
21,916833	0,5	-1,773050
21,925167	0,5	-1,783750
21,933500	0,5	-1,800250
21,941833	0,5	-1,814750
21,950167	0,5	-1,826000
21,958500	0,5	-1,822300
21,966833	0,5	-1,817150
21,975167	0,5	-1,806250
21,983500	0,5	-1,795250
21,991833	0,5	-1,787850
22,000167	0,5	-1,817200
22,008500	0,5	-1,844900
22,016833	0,5	-1,890300
22,025167	0,5	-1,925650
22,033500	0,5	-1,972100
22,041833	0,5	-2,016750
22,050167	0,5	-2,052350
22,058500	0,5	-2,065400
22,066833	0,5	-2,094000
22,075167	0,5	-2,116050
22,083500	0,5	-2,146000
22,091833	0,5	-2,168300
22,100167	0,5	-2,192650
22,108500	0,5	-2,209950
22,116833	0,5	-2,242450
22,125167	0,5	-2,267450
22,133500	0,5	-2,275600
22,141833	0,5	-2,301300
22,150167	0,5	-2,319900
22,158500	0,5	-2,329850
22,166833	0,5	-2,361900
22,175167	0,5	-2,395250
22,183500	0,5	-2,433300
22,191833	0,5	-2,455150
22,200167	0,5	-2,460550
22,208500	0,5	-2,480250
22,216833	0,5	-2,493200
22,225167	0,5	-2,512400
22,233500	0,5	-2,529950
22,241833	0,5	-2,555400
22,250167	0,5	-2,569000
22,258500	0,5	-2,579950
22,266833	0,5	-2,601650
22,275167	0,5	-2,626300
22,283500	0,5	-2,656600
22,291833	0,5	-2,673500
22,300167	0,5	-2,665000
22,308500	0,5	-2,669450
22,316833	0,5	-2,687250
22,325167	0,5	-2,698250
22,333500	0,5	-2,722100
22,341833	0,5	-2,707500
22,350167	0,5	-2,707950
22,358500	0,5	-2,704150
22,366833	0,5	-2,701750
22,375167	0,5	-2,697950
22,383500	0,5	-2,699700
22,391833	0,5	-2,675300
22,400167	0,5	-2,637700
22,408500	0,5	-2,604650
22,416833	0,5	-2,594250
22,425167	0,5	-2,633400
22,433500	0,5	-2,683050
22,441833	0,5	-2,710150
22,450167	0,5	-2,745750
22,458500	0,5	-2,773500
22,466833	0,5	-2,810450
22,475167	0,5	-2,865550
22,483500	0,5	-2,889200
22,491833	0,5	-2,907200
22,500167	0,5	-2,923350
22,508500	0,5	-2,946550
22,516833	0,5	-2,957250
22,525167	0,5	-2,987750
22,533500	0,5	-2,992500
22,541833	0,5	-3,016000
22,550167	0,5	-3,023400
22,558500	0,5	-3,046850
22,566833	0,5	-3,094600
22,575167	0,5	-3,133850
22,583500	0,5	-3,148150
22,591833	0,5	-3,127750
22,600167	0,5	-3,134950
22,608500	0,5	-3,144050
22,616833	0,5	-3,150550
22,625167	0,5	-3,169850
22,633500	0,5	-3,164750
22,641833	0,5	-3,134250
22,650167	0,5	-3,134150
22,658500	0,5	-3,132750
22,666833	0,5	-3,125800
22,675167	0,5	-3,121050
22,683500	0,5	-3,132700
22,691833	0,5	-3,128000
22,700167	0,5	-3,138700
22,708500	0,5	-3,149350
22,716833	0,5	-3,219850
22,725167	0,5	-3,220550
22,733500	0,5	-3,217500
22,741833	0,5	-3,203150
22,750167	0,5	-3,221550
22,758500	0,5	-3,240350
22,766833	0,5	-3,274200
22,775167	0,5	-3,301500
22,783500	0,5	-3,309550
22,791833	0,5	-3,311450
22,800167	0,5	-3,314150
22,808500	0,5	-3,323200
22,816833	0,5	-3,317950
22,825167	0,5	-3,316200
22,833500	0,5	-3,304850
22,841833	0,5	-3,297800
22,850167	0,5	-3,289550
22,858500	0,5	-3,341300
22,866833	0,5	-3,359850
22,875167	0,5	-3,346300
22,883500	0,5	-3,315000
22,891833	0,5	-3,307650
22,900167	0,5	-3,315350
22,908500	0,5	-3,318000
22,916833	0,5	-3,322350
22,925167	0,5	-3,322600
22,933500	0,5	-3,326950
22,941833	0,5	-3,331950
22,950167	0,5	-3,319250
22,958500	0,5	-3,314900
22,966833	0,5	-3,296950
22,975167	0,5	-3,286300
22,983500	0,5	-3,258400
22,991833	0,5	-3,238650
23,000167	0,5	-3,198350
23,008500	0,5	-3,170450
23,016833	0,5	-3,145350
23,025167	0,5	-3,094600
23,033500	0,5	-3,077800
23,041833	0,5	-3,045700
23,050167	0,5	-3,008700
23,058500	0,5	-2,964350
23,066833	0,5	-2,922700
23,075167	0,5	-2,888000
23,083500	0,5	-2,862750
23,091833	0,5	-2,817450
23,100167	0,5	-2,780050
23,108500	0,5	-2,717700
23,116833	0,5	-2,678850
23,125167	0,5	-2,606100
23,133500	0,5	-2,547850
23,141833	0,5	-2,465650
23,150167	0,5	-2,355700
23,158500	0,5	-2,293800
23,166833	0,5	-2,205050
23,175167	0,5	-2,174700
23,183500	0,5	-2,140100
23,191833	0,5	-2,062650
23,200167	0,5	-1,996850
23,208500	0,5	-1,913350
23,216833	0,5	-1,850800
23,225167	0,5	-1,796150
23,233500	0,5	-1,732550
23,241833	0,5	-1,665450
23,250167	0,5	-1,610950
23,258500	0,5	-1,535300
23,266833	0,5	-1,463150
23,275167	0,5	-1,403850
23,283500	0,5	-1,317950
23,291833	0,5	-1,253650
23,300167	0,5	-1,153100
23,308500	0,5	-1,089700
23,316833	0,5	-1,017650
23,325167	0,5	-0,984050
23,333500	0,5	-0,917650
23,341833	0,5	-0,852500
23,350167	0,5	-0,772550
23,358500	0,5	-0,710100
23,366833	0,5	-0,668300
23,375167	0,5	-0,614950
23,383500	0,5	-0,564750
23,391833	0,5	-0,518050
23,400167	0,5	-0,472600
23,408500	0,5	-0,418550
23,416833	0,5	-0,370000
23,425167	0,5	-0,321400
23,433500	0,5	-0,268350
23,441833	0,5	-0,197700
23,450167	0,5	-0,134550
23,458500	0,5	-0,075050
23,466833	0,5	-0,045150
23,475167	0,5	-0,004550
23,483500	0,5	0,034700
23,491833	0,5	0,089250
23,500167	0,5	0,134650
23,508500	0,5	0,188300
23,516833	0,5	0,208800
23,525167	0,5	0,243850
23,533500	0,5	0,278150
23,541833	0,5	0,311000
23,550167	0,5	0,335150
23,558500	0,5	0,365200
23,566833	0,5	0,399200
23,575167	0,5	0,431400
23,583500	0,5	0,465950
23,591833	0,5	0,506700
23,600167	0,5	0,538450
23,608500	0,5	0,569850
23,616833	0,5	0,590150
23,625167	0,5	0,615800
23,633500	0,5	0,648000
23,641833	0,5	0,675450
23,650167	0,5	0,710900
23,658500	0,5	0,736250
23,666833	0,5	0,754950
23,675167	0,5	0,776950
23,683500	0,5	0,801900
23,691833	0,5	0,822900
23,700167	0,5	0,843650
23,708500	0,5	0,865400
23,716833	0,5	0,897200
23,725167	0,5	0,919500
23,733500	0,5	0,944950
23,741833	0,5	0,941100
23,750167	0,5	0,986300
23,758500	0,5	1,003350
23,766833	0,5	1,039750
23,775167	0,5	1,061500
23,783500	0,5	1,082750
23,791833	0,5	1,104850
23,800167	0,5	1,118250
23,808500	0,5	1,132600
23,816833	0,5	1,154700
23,825167	0,5	1,177650
23,833500	0,5	1,197700
23,841833	0,5	1,212450
23,850167	0,5	1,236300
23,858500	0,5	1,260700
23,866833	0,5	1,285300
23,875167	0,5	1,310650
23,883500	0,5	1,322650
23,891833	0,5	1,310200
23,900167	0,5	1,358500
23,908500	0,5	1,389800
23,916833	0,5	1,436550
23,925167	0,5	1,459550
23,933500	0,5	1,487000
23,941833	0,5	1,503050
23,950167	0,5	1,503000
23,958500	0,5	1,539700
23,966833	0,5	1,557750
23,975167	0,5	1,581600
23,983500	0,5	1,593100
23,991833	0,5	1,617150
24,000167	0,5	1,638850
24,008500	0,5	1,660550
24,016833	0,5	1,683500
24,025167	0,5	1,707050
24,033500	0,5	1,710050
24,041833	0,5	1,724350
24,050167	0,5	1,722400
24,058500	0,5	1,776550
24,066833	0,5	1,814150
24,075167	0,5	1,839100
24,083500	0,5	1,855750
24,091833	0,5	1,859850
24,100167	0,5	1,875250
24,108500	0,5	1,900000
24,116833	0,5	1,935950
24,125167	0,5	1,955600
24,133500	0,5	1,981400
24,141833	0,5	2,004450
24,150167	0,5	2,027850
24,158500	0,5	2,053400
24,166833	0,5	2,078800
24,175167	0,5	2,098200
24,183500	0,5	2,094100
24,191833	0,5	2,098050
24,200167	0,5	2,115800
24,208500	0,5	2,160750
24,216833	0,5	2,200000
24,225167	0,5	2,211250
24,233500	0,5	2,224100
24,241833	0,5	2,221950
24,250167	0,5	2,239300
24,258500	0,5	2,262850
24,266833	0,5	2,284300
24,275167	0,5	2,303850
24,283500	0,5	2,316100
24,291833	0,5	2,337250
24,300167	0,5	2,354650
24,308500	0,5	2,383200
24,316833	0,5	2,401950
24,325167	0,5	2,422100
24,333500	0,5	2,429750
24,341833	0,5	2,445300
24,350167	0,5	2,462300
24,358500	0,5	2,499100
24,366833	0,5	2,522100
24,375167	0,5	2,538250
24,383500	0,5	2,525850
24,391833	0,5	2,533900
24,400167	0,5	2,561800
24,408500	0,5	2,584200
24,416833	0,5	2,593050
24,425167	0,5	2,612800
24,433500	0,5	2,621400
24,441833	0,5	2,634250
24,450167	0,5	2,651550
24,458500	0,5	2,671750
24,466833	0,5	2,682400
24,475167	0,5	2,677450
24,483500	0,5	2,697700
24,491833	0,5	2,699050
24,500167	0,5	2,731900
24,508500	0,5	2,751250
24,516833	0,5	2,772600
24,525167	0,5	2,778050
24,533500	0,5	2,782100
24,541833	0,5	2,790900
24,550167	0,5	2,813350
24,558500	0,5	2,822300
24,566833	0,5	2,837950
24,575167	0,5	2,845000
24,583500	0,5	2,854950
24,591833	0,5	2,862550
24,600167	0,5	2,875850
24,608500	0,5	2,891050
24,616833	0,5	2,898500
24,625167	0,5	2,908350
24,633500	0,5	2,925800
24,641833	0,5	2,922950
24,650167	0,5	2,942650
24,658500	0,5	2,954850
24,666833	0,5	2,964550
24,675167	0,5	2,964600
24,683500	0,5	2,951700
24,691833	0,5	2,967550
24,700167	0,5	2,977450
24,708500	0,5	2,986550
24,716833	0,5	2,992950
24,725167	0,5	3,006000
24,733500	0,5	3,012100
24,741833	0,5	3,020550
24,750167	0,5	3,034600
24,758500	0,5	3,045200
24,766833	0,5	3,055550
24,775167	0,5	3,057800
24,783500	0,5	3,065150
24,791833	0,5	3,076650
24,800167	0,5	3,093800
24,808500	0,5	3,103650
24,816833	0,5	3,110050
24,825167	0,5	3,107850
24,833500	0,5	3,107750
24,841833	0,5	3,112500
24,850167	0,5	3,118850
24,858500	0,5	3,123100
24,866833	0,5	3,126700
24,875167	0,5	3,132350
24,883500	0,5	3,131600
24,891833	0,5	3,137400
24,900167	0,5	3,145750
24,908500	0,5	3,149350
24,916833	0,5	3,158000
24,925167	0,5	3,163950
24,933500	0,5	3,171350
24,941833	0,5	3,181850
24,950167	0,5	3,189700
24,958500	0,5	3,193100
24,966833	0,5	3,198800
24,975167	0,5	3,205050
24,983500	0,5	3,210600
24,991833	0,5	3,218100
25,000167	0,5	3,221850
25,008500	0,5	3,227100
25,016833	0,5	3,231900
25,025167	0,5	3,235550
25,033500	0,5	3,236800
25,041833	0,5	3,237750
25,050167	0,5	3,242950
25,058500	0,5	3,244100
25,066833	0,5	3,246650
25,075167	0,5	3,251450
25,083500	0,5	3,251050
25,091833	0,5	3,257150
25,100167	0,5	3,255950
25,108500	0,5	3,262350
25,116833	0,5	3,265000
25,125167	0,5	3,270200
25,133500	0,5	3,281400
25,141833	0,5	3,283100
25,150167	0,5	3,287800
25,158500	0,5	3,292800
25,166833	0,5	3,293100
25,175167	0,5	3,298750
25,183500	0,5	3,298750
25,191833	0,5	3,305500
25,200167	0,5	3,310100
25,208500	0,5	3,315300
25,216833	0,5	3,312450
25,225167	0,5	3,316450
25,233500	0,5	3,321250
25,241833	0,5	3,322300
25,250167	0,5	3,321100
25,258500	0,5	3,321300
25,266833	0,5	3,321450
25,275167	0,5	3,330600
25,283500	0,5	3,332550
25,291833	0,5	3,334650
25,300167	0,5	3,333000
25,308500	0,5	3,338550
25,316833	0,5	3,337400
25,325167	0,5	3,343850
25,333500	0,5	3,346550
25,341833	0,5	3,349800
25,350167	0,5	3,355150
25,358500	0,5	3,357900
25,366833	0,5	3,362250
25,375167	0,5	3,364900
25,383500	0,5	3,373650
25,391833	0,5	3,367400
25,400167	0,5	3,372900
25,408500	0,5	3,373650
25,416833	0,5	3,385300
25,425167	0,5	3,391350
25,433500	0,5	3,385650
25,441833	0,5	3,382450
25,450167	0,5	3,385450
25,458500	0,5	3,382750
25,466833	0,5	3,390900
25,475167	0,5	3,388300
25,483500	0,5	3,385650
25,491833	0,5	3,392750
25,500167	0,5	3,395800
25,508500	0,5	3,400650
25,516833	0,5	3,394750
25,525167	0,5	3,411000
25,533500	0,5	3,406800
25,541833	0,5	3,410300
25,550167	0,5	3,409350
25,558500	0,5	3,417100
25,566833	0,5	3,432100
25,575167	0,5	3,432850
25,583500	0,5	3,428300
25,591833	0,5	3,440650
25,600167	0,5	3,437100
25,608500	0,5	3,438950
25,616833	0,5	3,431400
25,625167	0,5	3,440050
25,633500	0,5	3,439150
25,641833	0,5	3,439200
25,650167	0,5	3,443400
25,658500	0,5	3,435350
25,666833	0,5	3,437250
25,675167	0,5	3,449100
25,683500	0,5	3,436050
25,691833	0,5	3,441850
25,700167	0,5	3,446450
25,708500	0,5	3,453550
25,716833	0,5	3,475400
25,725167	0,5	3,474900
25,733500	0,5	3,476950
25,741833	0,5	3,474700
25,750167	0,5	3,479050
25,758500	0,5	3,476550
25,766833	0,5	3,479600
25,775167	0,5	3,477700
25,783500	0,5	3,479450
25,791833	0,5	3,485050
25,800167	0,5	3,487850
25,808500	0,5	3,482950
25,816833	0,5	3,494000
25,825167	0,5	3,495100
25,833500	0,5	3,485600
25,841833	0,5	3,486800
25,850167	0,5	3,490100
25,858500	0,5	3,499300
25,866833	0,5	3,523550
25,875167	0,5	3,530300
25,883500	0,5	3,518850
25,891833	0,5	3,531350
25,900167	0,5	3,527900
25,908500	0,5	3,532550
25,916833	0,5	3,529850
25,925167	0,5	3,533950
25,933500	0,5	3,532300
25,941833	0,5	3,535550
25,950167	0,5	3,535750
25,958500	0,5	3,541700
25,966833	0,5	3,549250
25,975167	0,5	3,549650
25,983500	0,5	3,535650
25,991833	0,5	3,543150
26,000167	0,5	3,550400
