File Path	chrom://chromeleon01/ikbm_chromeleon/2022/ICS-5000/ED1/Esteban/20220427_Cell_Amandas_mutants.seq/902.smp/ED_1.channel/ED_1.chm
Channel	ED_1

Injection Information:
Data Vault	ikbm_chromeleon
Injection	Blank
Injection Number	4
Position	RA1
Comment	
Processing Method	Stop sequence after Cell Death
Instrument Method	ICS5000_PA200_FullNative_Ox_26min_ED1
Type	Blank
Status	Finished
Injection Date	27.04.2022
Injection Time	13:28:03
Injection Volume (µl)	5,0
Dilution Factor	1,0000
Weight	1,0000

Chromatogram Data Information:
Time Min. (min)	0,000333
Time Max. (min)	26,000333
Data Points	3121
Detector	EDet1
Generating Data System	Chromeleon 7.2.9.11323
Exporting Data System	Chromeleon 7.2.9.0
Operator	Instrument Controller
Signal Quantity	
Signal Unit	nC
Signal Min.	-3,602900
Signal Max.	3,885800
Channel	ED_1
Driver Name	DC-5000
Channel Type	Evaluation
Min. Step (s)	0,5
Max. Step (s)	0,5
Average Step (s)	0,5

Signal Parameter Information:
Signal Info	

Chromatogram Data:
Time (min)	Step (s)	Value (nC)
0,000333	n.a.	0,023500
0,008667	0,5	0,065600
0,017000	0,5	0,066050
0,025333	0,5	0,056600
0,033667	0,5	0,055850
0,042000	0,5	0,057700
0,050333	0,5	0,049000
0,058667	0,5	0,053200
0,067000	0,5	0,045100
0,075333	0,5	0,043700
0,083667	0,5	0,035550
0,092000	0,5	0,050150
0,100333	0,5	0,040700
0,108667	0,5	0,040300
0,117000	0,5	0,047000
0,125333	0,5	0,033250
0,133667	0,5	0,024750
0,142000	0,5	0,026650
0,150333	0,5	0,043900
0,158667	0,5	0,077650
0,167000	0,5	0,084450
0,175333	0,5	0,076750
0,183667	0,5	0,071250
0,192000	0,5	0,075300
0,200333	0,5	0,063000
0,208667	0,5	0,062650
0,217000	0,5	0,060700
0,225333	0,5	0,054800
0,233667	0,5	0,072250
0,242000	0,5	0,066450
0,250333	0,5	0,067600
0,258667	0,5	0,073250
0,267000	0,5	0,074050
0,275333	0,5	0,047900
0,283667	0,5	0,050450
0,292000	0,5	0,048950
0,300333	0,5	0,095100
0,308667	0,5	0,114100
0,317000	0,5	0,106100
0,325333	0,5	0,093500
0,333667	0,5	0,108400
0,342000	0,5	0,094250
0,350333	0,5	0,092100
0,358667	0,5	0,089600
0,367000	0,5	0,083650
0,375333	0,5	0,082600
0,383667	0,5	0,083900
0,392000	0,5	0,077800
0,400333	0,5	0,063850
0,408667	0,5	0,090000
0,417000	0,5	0,074200
0,425333	0,5	0,070000
0,433667	0,5	0,071750
0,442000	0,5	0,079900
0,450333	0,5	0,108000
0,458667	0,5	0,117150
0,467000	0,5	0,098350
0,475333	0,5	0,107650
0,483667	0,5	0,105750
0,492000	0,5	0,107050
0,500333	0,5	0,100100
0,508667	0,5	0,105050
0,517000	0,5	0,094600
0,525333	0,5	0,094500
0,533667	0,5	0,107250
0,542000	0,5	0,082550
0,550333	0,5	0,076300
0,558667	0,5	0,106450
0,567000	0,5	0,081200
0,575333	0,5	0,072550
0,583667	0,5	0,080300
0,592000	0,5	0,092250
0,600333	0,5	0,154850
0,608667	0,5	0,123800
0,617000	0,5	0,126550
0,625333	0,5	0,119150
0,633667	0,5	0,141950
0,642000	0,5	0,117300
0,650333	0,5	0,124800
0,658667	0,5	0,118650
0,667000	0,5	0,127300
0,675333	0,5	0,125900
0,683667	0,5	0,128600
0,692000	0,5	0,104600
0,700333	0,5	0,113600
0,708667	0,5	0,132550
0,717000	0,5	0,114600
0,725333	0,5	0,106100
0,733667	0,5	0,120550
0,742000	0,5	0,141550
0,750333	0,5	0,164850
0,758667	0,5	0,148350
0,767000	0,5	0,135600
0,775333	0,5	0,143350
0,783667	0,5	0,140400
0,792000	0,5	0,148650
0,800333	0,5	0,140600
0,808667	0,5	0,141450
0,817000	0,5	0,133200
0,825333	0,5	0,142300
0,833667	0,5	0,162350
0,842000	0,5	0,156650
0,850333	0,5	0,160400
0,858667	0,5	0,162650
0,867000	0,5	0,140350
0,875333	0,5	0,142350
0,883667	0,5	0,144850
0,892000	0,5	0,175550
0,900333	0,5	0,192900
0,908667	0,5	0,177850
0,917000	0,5	0,181400
0,925333	0,5	0,181150
0,933667	0,5	0,182950
0,942000	0,5	0,177850
0,950333	0,5	0,184900
0,958667	0,5	0,173150
0,967000	0,5	0,181100
0,975333	0,5	0,179700
0,983667	0,5	0,185900
0,992000	0,5	0,166700
1,000333	0,5	0,193500
1,008667	0,5	0,173700
1,017000	0,5	0,172100
1,025333	0,5	0,167550
1,033667	0,5	0,206500
1,042000	0,5	0,234950
1,050333	0,5	0,244200
1,058667	0,5	0,227050
1,067000	0,5	0,230500
1,075333	0,5	0,226050
1,083667	0,5	0,230050
1,092000	0,5	0,228900
1,100333	0,5	0,223450
1,108667	0,5	0,225200
1,117000	0,5	0,219800
1,125333	0,5	0,234600
1,133667	0,5	0,209950
1,142000	0,5	0,221800
1,150333	0,5	0,239150
1,158667	0,5	0,223500
1,167000	0,5	0,218750
1,175333	0,5	0,225750
1,183667	0,5	0,239650
1,192000	0,5	0,278100
1,200333	0,5	0,280650
1,208667	0,5	0,280000
1,217000	0,5	0,267350
1,225333	0,5	0,281650
1,233667	0,5	0,273300
1,242000	0,5	0,285450
1,250333	0,5	0,275100
1,258667	0,5	0,270450
1,267000	0,5	0,277500
1,275333	0,5	0,270150
1,283667	0,5	0,263100
1,292000	0,5	0,278500
1,300333	0,5	0,275350
1,308667	0,5	0,257450
1,317000	0,5	0,262600
1,325333	0,5	0,267050
1,333667	0,5	0,321300
1,342000	0,5	0,325450
1,350333	0,5	0,323800
1,358667	0,5	0,310650
1,367000	0,5	0,318250
1,375333	0,5	0,305400
1,383667	0,5	0,304400
1,392000	0,5	0,303450
1,400333	0,5	0,310050
1,408667	0,5	0,302650
1,417000	0,5	0,304200
1,425333	0,5	0,312300
1,433667	0,5	0,316900
1,442000	0,5	0,347000
1,450333	0,5	0,323000
1,458667	0,5	0,306950
1,467000	0,5	0,307500
1,475333	0,5	0,315950
1,483667	0,5	0,350550
1,492000	0,5	0,345100
1,500333	0,5	0,325450
1,508667	0,5	0,341800
1,517000	0,5	0,339550
1,525333	0,5	0,350200
1,533667	0,5	0,348200
1,542000	0,5	0,347500
1,550333	0,5	0,337950
1,558667	0,5	0,337200
1,567000	0,5	0,336450
1,575333	0,5	0,325350
1,583667	0,5	0,313150
1,592000	0,5	0,353650
1,600333	0,5	0,324450
1,608667	0,5	0,318500
1,617000	0,5	0,320550
1,625333	0,5	0,341900
1,633667	0,5	0,392800
1,642000	0,5	0,366050
1,650333	0,5	0,367100
1,658667	0,5	0,355500
1,667000	0,5	0,358650
1,675333	0,5	0,353450
1,683667	0,5	0,362300
1,692000	0,5	0,352250
1,700333	0,5	0,354050
1,708667	0,5	0,356350
1,717000	0,5	0,365800
1,725333	0,5	0,342000
1,733667	0,5	0,355500
1,742000	0,5	0,362150
1,750333	0,5	0,344300
1,758667	0,5	0,340350
1,767000	0,5	0,346300
1,775333	0,5	0,374350
1,783667	0,5	0,393150
1,792000	0,5	0,377950
1,800333	0,5	0,372100
1,808667	0,5	0,376000
1,817000	0,5	0,381300
1,825333	0,5	0,379300
1,833667	0,5	0,390050
1,842000	0,5	0,386500
1,850333	0,5	0,377200
1,858667	0,5	0,381100
1,867000	0,5	0,380000
1,875333	0,5	0,377700
1,883667	0,5	0,381350
1,892000	0,5	0,382450
1,900333	0,5	0,363400
1,908667	0,5	0,365550
1,917000	0,5	0,373650
1,925333	0,5	0,411500
1,933667	0,5	0,434900
1,942000	0,5	0,418000
1,950333	0,5	0,415200
1,958667	0,5	0,421200
1,967000	0,5	0,414200
1,975333	0,5	0,413650
1,983667	0,5	0,410950
1,992000	0,5	0,402800
2,000333	0,5	0,409150
2,008667	0,5	0,410350
2,017000	0,5	0,400250
2,025333	0,5	0,388300
2,033667	0,5	0,414850
2,042000	0,5	0,396550
2,050333	0,5	0,396250
2,058667	0,5	0,390300
2,067000	0,5	0,417200
2,075333	0,5	0,444050
2,083667	0,5	0,456750
2,092000	0,5	0,433950
2,100333	0,5	0,449000
2,108667	0,5	0,436300
2,117000	0,5	0,442950
2,125333	0,5	0,439500
2,133667	0,5	0,448000
2,142000	0,5	0,440400
2,150333	0,5	0,442250
2,158667	0,5	0,445050
2,167000	0,5	0,426100
2,175333	0,5	0,435650
2,183667	0,5	0,448000
2,192000	0,5	0,429550
2,200333	0,5	0,430900
2,208667	0,5	0,432300
2,217000	0,5	0,458450
2,225333	0,5	0,483800
2,233667	0,5	0,482500
2,242000	0,5	0,488600
2,250333	0,5	0,477600
2,258667	0,5	0,482000
2,267000	0,5	0,468100
2,275333	0,5	0,474250
2,283667	0,5	0,466700
2,292000	0,5	0,467600
2,300333	0,5	0,472800
2,308667	0,5	0,466900
2,317000	0,5	0,457550
2,325333	0,5	0,495150
2,333667	0,5	0,477200
2,342000	0,5	0,463100
2,350333	0,5	0,463100
2,358667	0,5	0,464800
2,367000	0,5	0,501500
2,375333	0,5	0,500300
2,383667	0,5	0,501300
2,392000	0,5	0,492400
2,400333	0,5	0,500900
2,408667	0,5	0,487600
2,417000	0,5	0,490000
2,425333	0,5	0,481000
2,433667	0,5	0,490200
2,442000	0,5	0,485700
2,450333	0,5	0,486500
2,458667	0,5	0,490900
2,467000	0,5	0,481300
2,475333	0,5	0,504100
2,483667	0,5	0,489750
2,492000	0,5	0,474950
2,500333	0,5	0,480500
2,508667	0,5	0,479000
2,517000	0,5	0,512950
2,525333	0,5	0,502600
2,533667	0,5	0,495150
2,542000	0,5	0,499450
2,550333	0,5	0,490300
2,558667	0,5	0,489350
2,567000	0,5	0,485550
2,575333	0,5	0,492100
2,583667	0,5	0,480200
2,592000	0,5	0,482150
2,600333	0,5	0,485700
2,608667	0,5	0,485200
2,617000	0,5	0,473600
2,625333	0,5	0,491850
2,633667	0,5	0,466650
2,642000	0,5	0,461900
2,650333	0,5	0,456150
2,658667	0,5	0,474350
2,667000	0,5	0,504450
2,675333	0,5	0,484750
2,683667	0,5	0,480300
2,692000	0,5	0,482400
2,700333	0,5	0,477400
2,708667	0,5	0,464000
2,717000	0,5	0,465650
2,725333	0,5	0,457350
2,733667	0,5	0,469200
2,742000	0,5	0,458300
2,750333	0,5	0,462850
2,758667	0,5	0,437650
2,767000	0,5	0,449400
2,775333	0,5	0,448450
2,783667	0,5	0,433650
2,792000	0,5	0,424150
2,800333	0,5	0,431650
2,808667	0,5	0,447200
2,817000	0,5	0,461550
2,825333	0,5	0,447150
2,833667	0,5	0,443000
2,842000	0,5	0,440650
2,850333	0,5	0,434850
2,858667	0,5	0,428100
2,867000	0,5	0,427950
2,875333	0,5	0,420050
2,883667	0,5	0,410800
2,892000	0,5	0,413700
2,900333	0,5	0,396650
2,908667	0,5	0,380500
2,917000	0,5	0,386450
2,925333	0,5	0,377300
2,933667	0,5	0,362700
2,942000	0,5	0,366100
2,950333	0,5	0,367650
2,958667	0,5	0,398250
2,967000	0,5	0,402300
2,975333	0,5	0,394950
2,983667	0,5	0,382100
2,992000	0,5	0,378600
3,000333	0,5	0,364200
3,008667	0,5	0,365050
3,017000	0,5	0,358200
3,025333	0,5	0,342600
3,033667	0,5	0,342250
3,042000	0,5	0,339700
3,050333	0,5	0,325900
3,058667	0,5	0,318200
3,067000	0,5	0,324800
3,075333	0,5	0,304300
3,083667	0,5	0,294250
3,092000	0,5	0,286300
3,100333	0,5	0,305000
3,108667	0,5	0,317250
3,117000	0,5	0,315650
3,125333	0,5	0,295500
3,133667	0,5	0,297900
3,142000	0,5	0,287150
3,150333	0,5	0,286900
3,158667	0,5	0,274900
3,167000	0,5	0,271000
3,175333	0,5	0,257900
3,183667	0,5	0,255050
3,192000	0,5	0,252750
3,200333	0,5	0,237850
3,208667	0,5	0,250800
3,217000	0,5	0,245200
3,225333	0,5	0,219750
3,233667	0,5	0,211550
3,242000	0,5	0,213350
3,250333	0,5	0,239900
3,258667	0,5	0,245150
3,267000	0,5	0,231400
3,275333	0,5	0,229900
3,283667	0,5	0,220750
3,292000	0,5	0,220800
3,300333	0,5	0,207550
3,308667	0,5	0,204700
3,317000	0,5	0,190650
3,325333	0,5	0,189600
3,333667	0,5	0,184300
3,342000	0,5	0,188300
3,350333	0,5	0,165550
3,358667	0,5	0,191200
3,367000	0,5	0,167800
3,375333	0,5	0,156700
3,383667	0,5	0,148600
3,392000	0,5	0,155050
3,400333	0,5	0,186900
3,408667	0,5	0,173000
3,417000	0,5	0,166550
3,425333	0,5	0,162150
3,433667	0,5	0,158550
3,442000	0,5	0,156500
3,450333	0,5	0,159100
3,458667	0,5	0,153450
3,467000	0,5	0,148450
3,475333	0,5	0,137500
3,483667	0,5	0,144450
3,492000	0,5	0,141500
3,500333	0,5	0,132550
3,508667	0,5	0,149950
3,517000	0,5	0,133050
3,525333	0,5	0,117200
3,533667	0,5	0,121500
3,542000	0,5	0,127150
3,550333	0,5	0,162850
3,558667	0,5	0,141800
3,567000	0,5	0,131300
3,575333	0,5	0,133400
3,583667	0,5	0,134600
3,592000	0,5	0,135150
3,600333	0,5	0,132150
3,608667	0,5	0,136250
3,617000	0,5	0,119200
3,625333	0,5	0,125700
3,633667	0,5	0,129300
3,642000	0,5	0,133650
3,650333	0,5	0,139100
3,658667	0,5	0,154200
3,667000	0,5	0,124050
3,675333	0,5	0,120350
3,683667	0,5	0,120700
3,692000	0,5	0,139200
3,700333	0,5	0,153650
3,708667	0,5	0,143450
3,717000	0,5	0,132500
3,725333	0,5	0,148050
3,733667	0,5	0,141900
3,742000	0,5	0,138000
3,750333	0,5	0,144300
3,758667	0,5	0,139350
3,767000	0,5	0,140000
3,775333	0,5	0,140150
3,783667	0,5	0,149400
3,792000	0,5	0,134700
3,800333	0,5	0,153300
3,808667	0,5	0,141250
3,817000	0,5	0,133200
3,825333	0,5	0,130750
3,833667	0,5	0,145900
3,842000	0,5	0,164550
3,850333	0,5	0,188550
3,858667	0,5	0,179450
3,867000	0,5	0,171950
3,875333	0,5	0,172000
3,883667	0,5	0,173800
3,892000	0,5	0,170800
3,900333	0,5	0,173750
3,908667	0,5	0,168800
3,917000	0,5	0,173500
3,925333	0,5	0,177100
3,933667	0,5	0,168750
3,942000	0,5	0,167350
3,950333	0,5	0,183850
3,958667	0,5	0,171700
3,967000	0,5	0,161750
3,975333	0,5	0,164850
3,983667	0,5	0,178200
3,992000	0,5	0,205300
4,000333	0,5	0,207050
4,008667	0,5	0,210200
4,017000	0,5	0,208100
4,025333	0,5	0,214050
4,033667	0,5	0,202750
4,042000	0,5	0,204700
4,050333	0,5	0,196550
4,058667	0,5	0,202300
4,067000	0,5	0,205050
4,075333	0,5	0,200600
4,083667	0,5	0,195500
4,092000	0,5	0,209950
4,100333	0,5	0,205200
4,108667	0,5	0,197550
4,117000	0,5	0,193450
4,125333	0,5	0,190450
4,133667	0,5	0,219400
4,142000	0,5	0,237250
4,150333	0,5	0,229700
4,158667	0,5	0,222000
4,167000	0,5	0,232350
4,175333	0,5	0,219650
4,183667	0,5	0,218500
4,192000	0,5	0,217250
4,200333	0,5	0,219250
4,208667	0,5	0,208100
4,217000	0,5	0,215100
4,225333	0,5	0,221750
4,233667	0,5	0,215250
4,242000	0,5	0,235350
4,250333	0,5	0,222250
4,258667	0,5	0,214250
4,267000	0,5	0,209500
4,275333	0,5	0,206150
4,283667	0,5	0,231650
4,292000	0,5	0,237800
4,300333	0,5	0,225850
4,308667	0,5	0,225250
4,317000	0,5	0,224450
4,325333	0,5	0,222000
4,333667	0,5	0,217750
4,342000	0,5	0,219100
4,350333	0,5	0,206300
4,358667	0,5	0,208450
4,367000	0,5	0,215050
4,375333	0,5	0,214700
4,383667	0,5	0,198400
4,392000	0,5	0,233100
4,400333	0,5	0,207650
4,408667	0,5	0,200400
4,417000	0,5	0,196050
4,425333	0,5	0,208300
4,433667	0,5	0,230900
4,442000	0,5	0,218200
4,450333	0,5	0,210550
4,458667	0,5	0,206950
4,467000	0,5	0,214700
4,475333	0,5	0,210950
4,483667	0,5	0,207100
4,492000	0,5	0,205600
4,500333	0,5	0,204150
4,508667	0,5	0,199700
4,517000	0,5	0,206300
4,525333	0,5	0,185400
4,533667	0,5	0,180750
4,542000	0,5	0,197000
4,550333	0,5	0,182250
4,558667	0,5	0,177250
4,567000	0,5	0,186500
4,575333	0,5	0,196250
4,583667	0,5	0,220850
4,592000	0,5	0,202950
4,600333	0,5	0,192650
4,608667	0,5	0,188550
4,617000	0,5	0,189650
4,625333	0,5	0,184950
4,633667	0,5	0,186200
4,642000	0,5	0,181150
4,650333	0,5	0,170750
4,658667	0,5	0,174800
4,667000	0,5	0,178050
4,675333	0,5	0,186150
4,683667	0,5	0,184900
4,692000	0,5	0,177150
4,700333	0,5	0,160800
4,708667	0,5	0,159150
4,717000	0,5	0,152850
4,725333	0,5	0,173400
4,733667	0,5	0,186650
4,742000	0,5	0,178050
4,750333	0,5	0,169250
4,758667	0,5	0,170500
4,767000	0,5	0,157550
4,775333	0,5	0,168500
4,783667	0,5	0,157700
4,792000	0,5	0,151350
4,800333	0,5	0,146150
4,808667	0,5	0,145300
4,817000	0,5	0,145350
4,825333	0,5	0,131650
4,833667	0,5	0,144450
4,842000	0,5	0,130600
4,850333	0,5	0,119550
4,858667	0,5	0,119700
4,867000	0,5	0,129150
4,875333	0,5	0,154350
4,883667	0,5	0,165000
4,892000	0,5	0,149000
4,900333	0,5	0,152450
4,908667	0,5	0,139250
4,917000	0,5	0,138950
4,925333	0,5	0,136650
4,933667	0,5	0,147100
4,942000	0,5	0,130500
4,950333	0,5	0,132300
4,958667	0,5	0,125700
4,967000	0,5	0,112000
4,975333	0,5	0,112950
4,983667	0,5	0,126450
4,992000	0,5	0,110900
5,000333	0,5	0,103150
5,008667	0,5	0,103300
5,017000	0,5	0,117900
5,025333	0,5	0,140950
5,033667	0,5	0,137700
5,042000	0,5	0,139750
5,050333	0,5	0,131600
5,058667	0,5	0,136900
5,067000	0,5	0,125450
5,075333	0,5	0,136750
5,083667	0,5	0,127100
5,092000	0,5	0,124200
5,100333	0,5	0,123700
5,108667	0,5	0,120150
5,117000	0,5	0,109900
5,125333	0,5	0,129700
5,133667	0,5	0,118150
5,142000	0,5	0,107700
5,150333	0,5	0,100900
5,158667	0,5	0,107950
5,167000	0,5	0,128050
5,175333	0,5	0,141900
5,183667	0,5	0,143650
5,192000	0,5	0,129350
5,200333	0,5	0,129600
5,208667	0,5	0,124750
5,217000	0,5	0,126000
5,225333	0,5	0,120850
5,233667	0,5	0,122200
5,242000	0,5	0,114250
5,250333	0,5	0,120400
5,258667	0,5	0,115950
5,267000	0,5	0,109750
5,275333	0,5	0,132700
5,283667	0,5	0,120150
5,292000	0,5	0,107800
5,300333	0,5	0,102950
5,308667	0,5	0,106150
5,317000	0,5	0,133800
5,325333	0,5	0,131550
5,333667	0,5	0,117500
5,342000	0,5	0,118900
5,350333	0,5	0,124900
5,358667	0,5	0,119550
5,367000	0,5	0,118800
5,375333	0,5	0,121500
5,383667	0,5	0,114250
5,392000	0,5	0,114000
5,400333	0,5	0,112750
5,408667	0,5	0,107550
5,417000	0,5	0,090700
5,425333	0,5	0,119150
5,433667	0,5	0,096700
5,442000	0,5	0,094250
5,450333	0,5	0,094800
5,458667	0,5	0,104350
5,467000	0,5	0,132900
5,475333	0,5	0,121650
5,483667	0,5	0,117900
5,492000	0,5	0,124400
5,500333	0,5	0,124050
5,508667	0,5	0,120750
5,517000	0,5	0,117350
5,525333	0,5	0,113300
5,533667	0,5	0,110100
5,542000	0,5	0,117900
5,550333	0,5	0,122750
5,558667	0,5	0,104700
5,567000	0,5	0,101550
5,575333	0,5	0,106550
5,583667	0,5	0,098950
5,592000	0,5	0,096000
5,600333	0,5	0,101300
5,608667	0,5	0,114750
5,617000	0,5	0,138850
5,625333	0,5	0,117400
5,633667	0,5	0,122850
5,642000	0,5	0,118850
5,650333	0,5	0,122450
5,658667	0,5	0,118150
5,667000	0,5	0,123000
5,675333	0,5	0,113350
5,683667	0,5	0,118800
5,692000	0,5	0,120600
5,700333	0,5	0,113200
5,708667	0,5	0,107050
5,717000	0,5	0,114350
5,725333	0,5	0,112500
5,733667	0,5	0,100200
5,742000	0,5	0,102600
5,750333	0,5	0,106700
5,758667	0,5	0,128200
5,767000	0,5	0,135200
5,775333	0,5	0,133350
5,783667	0,5	0,132050
5,792000	0,5	0,141150
5,800333	0,5	0,126150
5,808667	0,5	0,128000
5,817000	0,5	0,121600
5,825333	0,5	0,124200
5,833667	0,5	0,123550
5,842000	0,5	0,125250
5,850333	0,5	0,123200
5,858667	0,5	0,119800
5,867000	0,5	0,133350
5,875333	0,5	0,122050
5,883667	0,5	0,118700
5,892000	0,5	0,117800
5,900333	0,5	0,127650
5,908667	0,5	0,149900
5,917000	0,5	0,160900
5,925333	0,5	0,149850
5,933667	0,5	0,151900
5,942000	0,5	0,146700
5,950333	0,5	0,147250
5,958667	0,5	0,144400
5,967000	0,5	0,148600
5,975333	0,5	0,139000
5,983667	0,5	0,151700
5,992000	0,5	0,148700
6,000333	0,5	0,137200
6,008667	0,5	0,139850
6,017000	0,5	0,150000
6,025333	0,5	0,137900
6,033667	0,5	0,140000
6,042000	0,5	0,132900
6,050333	0,5	0,153600
6,058667	0,5	0,170200
6,067000	0,5	0,170900
6,075333	0,5	0,170000
6,083667	0,5	0,173400
6,092000	0,5	0,183600
6,100333	0,5	0,175350
6,108667	0,5	0,183100
6,117000	0,5	0,174800
6,125333	0,5	0,173600
6,133667	0,5	0,175700
6,142000	0,5	0,174900
6,150333	0,5	0,160050
6,158667	0,5	0,182300
6,167000	0,5	0,173950
6,175333	0,5	0,170150
6,183667	0,5	0,167600
6,192000	0,5	0,179050
6,200333	0,5	0,209000
6,208667	0,5	0,217100
6,217000	0,5	0,209300
6,225333	0,5	0,210750
6,233667	0,5	0,212450
6,242000	0,5	0,211550
6,250333	0,5	0,217450
6,258667	0,5	0,220850
6,267000	0,5	0,222950
6,275333	0,5	0,219950
6,283667	0,5	0,228650
6,292000	0,5	0,225850
6,300333	0,5	0,220800
6,308667	0,5	0,248750
6,317000	0,5	0,236100
6,325333	0,5	0,230250
6,333667	0,5	0,236150
6,342000	0,5	0,240600
6,350333	0,5	0,275400
6,358667	0,5	0,271350
6,367000	0,5	0,267850
6,375333	0,5	0,266700
6,383667	0,5	0,278550
6,392000	0,5	0,283200
6,400333	0,5	0,295900
6,408667	0,5	0,298600
6,417000	0,5	0,295450
6,425333	0,5	0,301200
6,433667	0,5	0,307250
6,442000	0,5	0,315650
6,450333	0,5	0,314250
6,458667	0,5	0,336550
6,467000	0,5	0,323100
6,475333	0,5	0,325700
6,483667	0,5	0,332100
6,492000	0,5	0,359800
6,500333	0,5	0,384050
6,508667	0,5	0,381700
6,517000	0,5	0,380950
6,525333	0,5	0,392400
6,533667	0,5	0,394650
6,542000	0,5	0,402850
6,550333	0,5	0,408750
6,558667	0,5	0,418050
6,567000	0,5	0,426000
6,575333	0,5	0,434050
6,583667	0,5	0,446650
6,592000	0,5	0,454000
6,600333	0,5	0,464300
6,608667	0,5	0,473050
6,617000	0,5	0,468300
6,625333	0,5	0,471650
6,633667	0,5	0,489550
6,642000	0,5	0,513100
6,650333	0,5	0,548150
6,658667	0,5	0,539250
6,667000	0,5	0,552450
6,675333	0,5	0,558550
6,683667	0,5	0,574900
6,692000	0,5	0,582300
6,700333	0,5	0,601000
6,708667	0,5	0,603000
6,717000	0,5	0,611600
6,725333	0,5	0,618250
6,733667	0,5	0,620250
6,742000	0,5	0,623900
6,750333	0,5	0,648000
6,758667	0,5	0,653750
6,767000	0,5	0,659000
6,775333	0,5	0,666550
6,783667	0,5	0,686300
6,792000	0,5	0,721750
6,800333	0,5	0,746550
6,808667	0,5	0,759650
6,817000	0,5	0,762500
6,825333	0,5	0,778100
6,833667	0,5	0,781400
6,842000	0,5	0,796100
6,850333	0,5	0,797050
6,858667	0,5	0,810300
6,867000	0,5	0,813150
6,875333	0,5	0,834800
6,883667	0,5	0,830050
6,892000	0,5	0,848000
6,900333	0,5	0,868850
6,908667	0,5	0,864800
6,917000	0,5	0,868050
6,925333	0,5	0,882600
6,933667	0,5	0,904850
6,942000	0,5	0,927100
6,950333	0,5	0,947350
6,958667	0,5	0,946450
6,967000	0,5	0,959000
6,975333	0,5	0,967250
6,983667	0,5	0,975500
6,992000	0,5	0,983550
7,000333	0,5	0,997000
7,008667	0,5	0,996550
7,017000	0,5	1,009550
7,025333	0,5	1,016450
7,033667	0,5	1,019800
7,042000	0,5	1,030350
7,050333	0,5	1,042000
7,058667	0,5	1,037250
7,067000	0,5	1,042250
7,075333	0,5	1,052700
7,083667	0,5	1,078250
7,092000	0,5	1,095500
7,100333	0,5	1,098500
7,108667	0,5	1,105400
7,117000	0,5	1,114550
7,125333	0,5	1,118200
7,133667	0,5	1,123850
7,142000	0,5	1,124850
7,150333	0,5	1,124950
7,158667	0,5	1,130900
7,167000	0,5	1,131650
7,175333	0,5	1,137650
7,183667	0,5	1,131050
7,192000	0,5	1,153950
7,200333	0,5	1,155500
7,208667	0,5	1,148850
7,217000	0,5	1,147100
7,225333	0,5	1,157500
7,233667	0,5	1,181100
7,242000	0,5	1,188850
7,250333	0,5	1,183800
7,258667	0,5	1,185500
7,267000	0,5	1,192750
7,275333	0,5	1,194400
7,283667	0,5	1,189650
7,292000	0,5	1,195300
7,300333	0,5	1,200050
7,308667	0,5	1,199050
7,317000	0,5	1,206100
7,325333	0,5	1,189550
7,333667	0,5	1,177700
7,342000	0,5	1,199500
7,350333	0,5	1,187750
7,358667	0,5	1,186050
7,367000	0,5	1,189300
7,375333	0,5	1,193700
7,383667	0,5	1,219600
7,392000	0,5	1,210100
7,400333	0,5	1,215050
7,408667	0,5	1,207850
7,417000	0,5	1,212800
7,425333	0,5	1,210450
7,433667	0,5	1,212500
7,442000	0,5	1,205700
7,450333	0,5	1,206450
7,458667	0,5	1,208000
7,467000	0,5	1,203750
7,475333	0,5	1,196250
7,483667	0,5	1,195100
7,492000	0,5	1,202650
7,500333	0,5	1,189900
7,508667	0,5	1,189850
7,517000	0,5	1,188650
7,525333	0,5	1,203200
7,533667	0,5	1,217800
7,542000	0,5	1,218200
7,550333	0,5	1,208300
7,558667	0,5	1,216900
7,567000	0,5	1,209200
7,575333	0,5	1,209050
7,583667	0,5	1,206000
7,592000	0,5	1,204800
7,600333	0,5	1,202900
7,608667	0,5	1,209300
7,617000	0,5	1,212050
7,625333	0,5	1,205400
7,633667	0,5	1,204050
7,642000	0,5	1,206050
7,650333	0,5	1,200750
7,658667	0,5	1,198300
7,667000	0,5	1,199000
7,675333	0,5	1,211000
7,683667	0,5	1,226200
7,692000	0,5	1,218650
7,700333	0,5	1,221550
7,708667	0,5	1,213100
7,717000	0,5	1,222600
7,725333	0,5	1,220200
7,733667	0,5	1,223300
7,742000	0,5	1,217200
7,750333	0,5	1,220400
7,758667	0,5	1,215500
7,767000	0,5	1,205300
7,775333	0,5	1,199100
7,783667	0,5	1,212200
7,792000	0,5	1,201950
7,800333	0,5	1,198150
7,808667	0,5	1,193700
7,817000	0,5	1,212100
7,825333	0,5	1,221850
7,833667	0,5	1,228400
7,842000	0,5	1,222450
7,850333	0,5	1,222150
7,858667	0,5	1,223000
7,867000	0,5	1,212550
7,875333	0,5	1,215850
7,883667	0,5	1,208700
7,892000	0,5	1,207150
7,900333	0,5	1,202200
7,908667	0,5	1,205450
7,917000	0,5	1,197850
7,925333	0,5	1,205100
7,933667	0,5	1,204750
7,942000	0,5	1,198200
7,950333	0,5	1,187750
7,958667	0,5	1,188250
7,967000	0,5	1,196050
7,975333	0,5	1,204300
7,983667	0,5	1,204900
7,992000	0,5	1,199700
8,000333	0,5	1,201850
8,008667	0,5	1,192950
8,017000	0,5	1,195450
8,025333	0,5	1,196950
8,033667	0,5	1,192300
8,042000	0,5	1,189850
8,050333	0,5	1,190450
8,058667	0,5	1,186250
8,067000	0,5	1,184600
8,075333	0,5	1,188150
8,083667	0,5	1,187200
8,092000	0,5	1,176100
8,100333	0,5	1,172700
8,108667	0,5	1,169800
8,117000	0,5	1,184100
8,125333	0,5	1,189600
8,133667	0,5	1,188300
8,142000	0,5	1,187700
8,150333	0,5	1,187350
8,158667	0,5	1,184400
8,167000	0,5	1,182550
8,175333	0,5	1,185400
8,183667	0,5	1,182350
8,192000	0,5	1,174950
8,200333	0,5	1,174200
8,208667	0,5	1,177850
8,217000	0,5	1,168650
8,225333	0,5	1,177900
8,233667	0,5	1,171200
8,242000	0,5	1,174000
8,250333	0,5	1,165450
8,258667	0,5	1,171450
8,267000	0,5	1,183800
8,275333	0,5	1,189300
8,283667	0,5	1,187050
8,292000	0,5	1,185600
8,300333	0,5	1,185350
8,308667	0,5	1,188400
8,317000	0,5	1,182050
8,325333	0,5	1,190250
8,333667	0,5	1,186200
8,342000	0,5	1,186400
8,350333	0,5	1,190500
8,358667	0,5	1,182750
8,367000	0,5	1,181600
8,375333	0,5	1,189300
8,383667	0,5	1,183500
8,392000	0,5	1,177450
8,400333	0,5	1,176000
8,408667	0,5	1,184100
8,417000	0,5	1,198900
8,425333	0,5	1,193150
8,433667	0,5	1,197300
8,442000	0,5	1,193400
8,450333	0,5	1,200000
8,458667	0,5	1,195300
8,467000	0,5	1,200500
8,475333	0,5	1,193350
8,483667	0,5	1,192000
8,492000	0,5	1,190950
8,500333	0,5	1,190400
8,508667	0,5	1,187950
8,517000	0,5	1,189600
8,525333	0,5	1,190750
8,533667	0,5	1,186300
8,542000	0,5	1,185100
8,550333	0,5	1,184100
8,558667	0,5	1,194950
8,567000	0,5	1,203550
8,575333	0,5	1,206450
8,583667	0,5	1,198000
8,592000	0,5	1,204050
8,600333	0,5	1,198900
8,608667	0,5	1,199800
8,617000	0,5	1,194650
8,625333	0,5	1,194750
8,633667	0,5	1,190650
8,642000	0,5	1,193950
8,650333	0,5	1,197650
8,658667	0,5	1,190200
8,667000	0,5	1,193250
8,675333	0,5	1,189000
8,683667	0,5	1,182450
8,692000	0,5	1,178700
8,700333	0,5	1,186150
8,708667	0,5	1,190500
8,717000	0,5	1,198050
8,725333	0,5	1,192200
8,733667	0,5	1,196850
8,742000	0,5	1,193650
8,750333	0,5	1,188800
8,758667	0,5	1,188150
8,767000	0,5	1,192700
8,775333	0,5	1,193650
8,783667	0,5	1,188850
8,792000	0,5	1,182450
8,800333	0,5	1,178950
8,808667	0,5	1,179000
8,817000	0,5	1,183000
8,825333	0,5	1,172850
8,833667	0,5	1,169700
8,842000	0,5	1,165200
8,850333	0,5	1,171850
8,858667	0,5	1,184550
8,867000	0,5	1,186050
8,875333	0,5	1,184950
8,883667	0,5	1,183250
8,892000	0,5	1,187650
8,900333	0,5	1,183350
8,908667	0,5	1,179900
8,917000	0,5	1,174400
8,925333	0,5	1,174300
8,933667	0,5	1,172200
8,942000	0,5	1,171600
8,950333	0,5	1,159400
8,958667	0,5	1,163750
8,967000	0,5	1,168100
8,975333	0,5	1,160300
8,983667	0,5	1,158000
8,992000	0,5	1,159650
9,000333	0,5	1,165650
9,008667	0,5	1,174300
9,017000	0,5	1,169500
9,025333	0,5	1,170600
9,033667	0,5	1,170500
9,042000	0,5	1,170000
9,050333	0,5	1,166850
9,058667	0,5	1,173550
9,067000	0,5	1,171450
9,075333	0,5	1,169700
9,083667	0,5	1,175150
9,092000	0,5	1,171650
9,100333	0,5	1,164350
9,108667	0,5	1,166200
9,117000	0,5	1,164950
9,125333	0,5	1,159850
9,133667	0,5	1,162250
9,142000	0,5	1,159050
9,150333	0,5	1,172450
9,158667	0,5	1,170800
9,167000	0,5	1,175900
9,175333	0,5	1,177200
9,183667	0,5	1,177950
9,192000	0,5	1,174950
9,200333	0,5	1,172200
9,208667	0,5	1,169750
9,217000	0,5	1,169850
9,225333	0,5	1,171100
9,233667	0,5	1,171000
9,242000	0,5	1,176550
9,250333	0,5	1,172100
9,258667	0,5	1,177250
9,267000	0,5	1,174650
9,275333	0,5	1,171500
9,283667	0,5	1,170500
9,292000	0,5	1,169700
9,300333	0,5	1,181300
9,308667	0,5	1,181000
9,317000	0,5	1,175350
9,325333	0,5	1,178200
9,333667	0,5	1,177150
9,342000	0,5	1,180400
9,350333	0,5	1,175100
9,358667	0,5	1,177350
9,367000	0,5	1,173200
9,375333	0,5	1,177150
9,383667	0,5	1,176200
9,392000	0,5	1,170200
9,400333	0,5	1,166400
9,408667	0,5	1,172900
9,417000	0,5	1,164350
9,425333	0,5	1,161550
9,433667	0,5	1,159700
9,442000	0,5	1,165200
9,450333	0,5	1,173800
9,458667	0,5	1,171550
9,467000	0,5	1,166950
9,475333	0,5	1,165950
9,483667	0,5	1,168050
9,492000	0,5	1,165800
9,500333	0,5	1,165350
9,508667	0,5	1,162950
9,517000	0,5	1,157900
9,525333	0,5	1,154950
9,533667	0,5	1,149250
9,542000	0,5	1,139950
9,550333	0,5	1,141950
9,558667	0,5	1,137500
9,567000	0,5	1,127300
9,575333	0,5	1,128150
9,583667	0,5	1,130850
9,592000	0,5	1,128950
9,600333	0,5	1,131100
9,608667	0,5	1,131800
9,617000	0,5	1,126050
9,625333	0,5	1,126700
9,633667	0,5	1,122950
9,642000	0,5	1,115650
9,650333	0,5	1,113850
9,658667	0,5	1,109950
9,667000	0,5	1,105000
9,675333	0,5	1,103400
9,683667	0,5	1,093250
9,692000	0,5	1,086550
9,700333	0,5	1,085600
9,708667	0,5	1,082050
9,717000	0,5	1,073750
9,725333	0,5	1,069450
9,733667	0,5	1,069450
9,742000	0,5	1,068500
9,750333	0,5	1,071650
9,758667	0,5	1,070000
9,767000	0,5	1,062200
9,775333	0,5	1,059050
9,783667	0,5	1,053400
9,792000	0,5	1,048450
9,800333	0,5	1,046150
9,808667	0,5	1,042700
9,817000	0,5	1,034550
9,825333	0,5	1,027200
9,833667	0,5	1,020650
9,842000	0,5	1,017300
9,850333	0,5	1,014700
9,858667	0,5	1,013100
9,867000	0,5	1,003400
9,875333	0,5	0,995500
9,883667	0,5	1,000400
9,892000	0,5	0,999550
9,900333	0,5	0,999700
9,908667	0,5	0,996550
9,917000	0,5	0,994900
9,925333	0,5	0,991200
9,933667	0,5	0,986750
9,942000	0,5	0,982900
9,950333	0,5	0,978650
9,958667	0,5	0,973650
9,967000	0,5	0,971850
9,975333	0,5	0,969550
9,983667	0,5	0,959700
9,992000	0,5	0,959150
10,000333	0,5	0,956600
10,008667	0,5	0,951550
10,017000	0,5	0,949550
10,025333	0,5	0,946100
10,033667	0,5	0,953200
10,042000	0,5	0,953400
10,050333	0,5	0,952000
10,058667	0,5	0,951600
10,067000	0,5	0,950800
10,075333	0,5	0,946750
10,083667	0,5	0,943400
10,092000	0,5	0,945350
10,100333	0,5	0,943850
10,108667	0,5	0,941550
10,117000	0,5	0,938650
10,125333	0,5	0,934450
10,133667	0,5	0,933700
10,142000	0,5	0,933800
10,150333	0,5	0,932900
10,158667	0,5	0,930400
10,167000	0,5	0,926900
10,175333	0,5	0,930000
10,183667	0,5	0,937600
10,192000	0,5	0,937800
10,200333	0,5	0,939000
10,208667	0,5	0,939700
10,217000	0,5	0,942750
10,225333	0,5	0,943550
10,233667	0,5	0,946200
10,242000	0,5	0,946150
10,250333	0,5	0,948500
10,258667	0,5	0,958100
10,267000	0,5	0,963300
10,275333	0,5	0,963250
10,283667	0,5	0,963200
10,292000	0,5	0,973950
10,300333	0,5	0,975900
10,308667	0,5	0,984150
10,317000	0,5	0,991350
10,325333	0,5	0,998400
10,333667	0,5	1,010550
10,342000	0,5	1,017900
10,350333	0,5	1,024900
10,358667	0,5	1,024350
10,367000	0,5	1,027200
10,375333	0,5	1,032750
10,383667	0,5	1,032100
10,392000	0,5	1,032000
10,400333	0,5	1,029950
10,408667	0,5	1,033800
10,417000	0,5	1,032250
10,425333	0,5	1,028850
10,433667	0,5	1,027150
10,442000	0,5	1,023850
10,450333	0,5	1,018550
10,458667	0,5	1,011900
10,467000	0,5	1,010000
10,475333	0,5	1,007950
10,483667	0,5	1,009900
10,492000	0,5	1,002900
10,500333	0,5	0,996750
10,508667	0,5	0,993950
10,517000	0,5	0,988100
10,525333	0,5	0,978150
10,533667	0,5	0,974150
10,542000	0,5	0,963600
10,550333	0,5	0,960350
10,558667	0,5	0,955800
10,567000	0,5	0,949750
10,575333	0,5	0,945650
10,583667	0,5	0,937300
10,592000	0,5	0,927350
10,600333	0,5	0,925250
10,608667	0,5	0,922000
10,617000	0,5	0,918650
10,625333	0,5	0,923300
10,633667	0,5	0,920800
10,642000	0,5	0,918750
10,650333	0,5	0,918550
10,658667	0,5	0,915200
10,667000	0,5	0,915150
10,675333	0,5	0,911550
10,683667	0,5	0,909400
10,692000	0,5	0,910150
10,700333	0,5	0,911400
10,708667	0,5	0,913300
10,717000	0,5	0,911200
10,725333	0,5	0,911650
10,733667	0,5	0,913600
10,742000	0,5	0,914000
10,750333	0,5	0,913800
10,758667	0,5	0,917600
10,767000	0,5	0,912800
10,775333	0,5	0,921300
10,783667	0,5	0,920600
10,792000	0,5	0,920850
10,800333	0,5	0,920400
10,808667	0,5	0,919000
10,817000	0,5	0,914650
10,825333	0,5	0,917750
10,833667	0,5	0,918150
10,842000	0,5	0,916800
10,850333	0,5	0,914450
10,858667	0,5	0,913950
10,867000	0,5	0,916250
10,875333	0,5	0,911500
10,883667	0,5	0,919100
10,892000	0,5	0,916650
10,900333	0,5	0,913100
10,908667	0,5	0,913850
10,917000	0,5	0,917000
10,925333	0,5	0,917050
10,933667	0,5	0,921000
10,942000	0,5	0,920600
10,950333	0,5	0,917800
10,958667	0,5	0,917950
10,967000	0,5	0,911750
10,975333	0,5	0,911550
10,983667	0,5	0,908400
10,992000	0,5	0,904250
11,000333	0,5	0,902400
11,008667	0,5	0,897750
11,017000	0,5	0,893400
11,025333	0,5	0,889050
11,033667	0,5	0,889300
11,042000	0,5	0,887900
11,050333	0,5	0,878200
11,058667	0,5	0,874850
11,067000	0,5	0,870850
11,075333	0,5	0,870900
11,083667	0,5	0,870400
11,092000	0,5	0,860350
11,100333	0,5	0,861400
11,108667	0,5	0,854350
11,117000	0,5	0,849150
11,125333	0,5	0,846600
11,133667	0,5	0,843450
11,142000	0,5	0,839850
11,150333	0,5	0,832950
11,158667	0,5	0,824600
11,167000	0,5	0,822800
11,175333	0,5	0,817100
11,183667	0,5	0,817500
11,192000	0,5	0,808200
11,200333	0,5	0,801550
11,208667	0,5	0,799700
11,217000	0,5	0,797750
11,225333	0,5	0,797100
11,233667	0,5	0,793900
11,242000	0,5	0,792150
11,250333	0,5	0,788650
11,258667	0,5	0,784500
11,267000	0,5	0,785050
11,275333	0,5	0,783400
11,283667	0,5	0,780650
11,292000	0,5	0,776200
11,300333	0,5	0,774150
11,308667	0,5	0,769300
11,317000	0,5	0,768950
11,325333	0,5	0,766500
11,333667	0,5	0,764550
11,342000	0,5	0,760750
11,350333	0,5	0,759650
11,358667	0,5	0,756050
11,367000	0,5	0,758800
11,375333	0,5	0,755950
11,383667	0,5	0,757700
11,392000	0,5	0,754550
11,400333	0,5	0,754100
11,408667	0,5	0,753500
11,417000	0,5	0,754200
11,425333	0,5	0,753500
11,433667	0,5	0,754600
11,442000	0,5	0,756850
11,450333	0,5	0,758950
11,458667	0,5	0,758350
11,467000	0,5	0,760500
11,475333	0,5	0,758600
11,483667	0,5	0,753850
11,492000	0,5	0,755800
11,500333	0,5	0,759450
11,508667	0,5	0,760700
11,517000	0,5	0,762200
11,525333	0,5	0,766000
11,533667	0,5	0,765000
11,542000	0,5	0,770650
11,550333	0,5	0,770350
11,558667	0,5	0,772100
11,567000	0,5	0,774350
11,575333	0,5	0,773550
11,583667	0,5	0,766050
11,592000	0,5	0,772400
11,600333	0,5	0,772700
11,608667	0,5	0,772100
11,617000	0,5	0,769500
11,625333	0,5	0,774500
11,633667	0,5	0,775500
11,642000	0,5	0,772150
11,650333	0,5	0,773850
11,658667	0,5	0,776400
11,667000	0,5	0,778650
11,675333	0,5	0,786100
11,683667	0,5	0,790650
11,692000	0,5	0,790150
11,700333	0,5	0,792500
11,708667	0,5	0,797700
11,717000	0,5	0,801000
11,725333	0,5	0,807250
11,733667	0,5	0,811900
11,742000	0,5	0,821800
11,750333	0,5	0,829500
11,758667	0,5	0,841100
11,767000	0,5	0,855950
11,775333	0,5	0,873500
11,783667	0,5	0,892400
11,792000	0,5	0,917850
11,800333	0,5	0,937500
11,808667	0,5	0,967000
11,817000	0,5	0,999750
11,825333	0,5	1,028200
11,833667	0,5	1,054000
11,842000	0,5	1,077100
11,850333	0,5	1,093600
11,858667	0,5	1,100300
11,867000	0,5	1,110250
11,875333	0,5	1,109600
11,883667	0,5	1,101250
11,892000	0,5	1,099800
11,900333	0,5	1,085800
11,908667	0,5	1,074250
11,917000	0,5	1,058250
11,925333	0,5	1,046550
11,933667	0,5	1,038450
11,942000	0,5	1,025150
11,950333	0,5	1,009600
11,958667	0,5	1,006100
11,967000	0,5	0,999850
11,975333	0,5	0,990400
11,983667	0,5	0,983550
11,992000	0,5	0,976650
12,000333	0,5	0,969600
12,008667	0,5	0,959700
12,017000	0,5	0,953050
12,025333	0,5	0,950850
12,033667	0,5	0,942850
12,042000	0,5	0,940400
12,050333	0,5	0,943300
12,058667	0,5	0,944250
12,067000	0,5	0,944250
12,075333	0,5	0,942600
12,083667	0,5	0,944900
12,092000	0,5	0,947800
12,100333	0,5	0,955000
12,108667	0,5	0,958300
12,117000	0,5	0,967700
12,125333	0,5	0,969150
12,133667	0,5	0,977850
12,142000	0,5	0,979150
12,150333	0,5	0,985900
12,158667	0,5	0,986600
12,167000	0,5	0,986800
12,175333	0,5	0,985500
12,183667	0,5	0,986300
12,192000	0,5	0,983150
12,200333	0,5	0,980100
12,208667	0,5	0,977050
12,217000	0,5	0,977200
12,225333	0,5	0,975250
12,233667	0,5	0,974250
12,242000	0,5	0,978000
12,250333	0,5	0,976400
12,258667	0,5	0,982500
12,267000	0,5	0,984600
12,275333	0,5	0,987000
12,283667	0,5	0,988100
12,292000	0,5	0,987200
12,300333	0,5	0,986900
12,308667	0,5	0,995400
12,317000	0,5	1,000500
12,325333	0,5	1,008950
12,333667	0,5	1,009800
12,342000	0,5	1,018200
12,350333	0,5	1,025150
12,358667	0,5	1,028950
12,367000	0,5	1,038300
12,375333	0,5	1,045800
12,383667	0,5	1,045500
12,392000	0,5	1,056200
12,400333	0,5	1,064300
12,408667	0,5	1,073900
12,417000	0,5	1,080950
12,425333	0,5	1,085150
12,433667	0,5	1,091600
12,442000	0,5	1,095500
12,450333	0,5	1,098900
12,458667	0,5	1,101800
12,467000	0,5	1,101500
12,475333	0,5	1,103450
12,483667	0,5	1,105300
12,492000	0,5	1,106550
12,500333	0,5	1,107100
12,508667	0,5	1,110550
12,517000	0,5	1,108500
12,525333	0,5	1,107700
12,533667	0,5	1,102200
12,542000	0,5	1,102000
12,550333	0,5	1,103050
12,558667	0,5	1,105750
12,567000	0,5	1,107200
12,575333	0,5	1,104900
12,583667	0,5	1,102750
12,592000	0,5	1,100100
12,600333	0,5	1,094200
12,608667	0,5	1,089600
12,617000	0,5	1,089800
12,625333	0,5	1,085400
12,633667	0,5	1,078950
12,642000	0,5	1,071550
12,650333	0,5	1,069350
12,658667	0,5	1,068600
12,667000	0,5	1,067450
12,675333	0,5	1,062500
12,683667	0,5	1,055800
12,692000	0,5	1,057950
12,700333	0,5	1,060450
12,708667	0,5	1,063300
12,717000	0,5	1,060400
12,725333	0,5	1,064800
12,733667	0,5	1,067650
12,742000	0,5	1,067700
12,750333	0,5	1,070550
12,758667	0,5	1,070800
12,767000	0,5	1,075350
12,775333	0,5	1,074950
12,783667	0,5	1,078900
12,792000	0,5	1,077750
12,800333	0,5	1,079600
12,808667	0,5	1,080900
12,817000	0,5	1,078650
12,825333	0,5	1,073850
12,833667	0,5	1,065650
12,842000	0,5	1,064600
12,850333	0,5	1,070400
12,858667	0,5	1,065600
12,867000	0,5	1,060550
12,875333	0,5	1,057050
12,883667	0,5	1,054150
12,892000	0,5	1,048950
12,900333	0,5	1,045500
12,908667	0,5	1,046100
12,917000	0,5	1,041000
12,925333	0,5	1,044800
12,933667	0,5	1,050550
12,942000	0,5	1,056500
12,950333	0,5	1,085900
12,958667	0,5	1,112150
12,967000	0,5	1,157050
12,975333	0,5	1,214550
12,983667	0,5	1,277200
12,992000	0,5	1,352350
13,000333	0,5	1,413200
13,008667	0,5	1,459300
13,017000	0,5	1,472150
13,025333	0,5	1,469600
13,033667	0,5	1,433750
13,042000	0,5	1,393800
13,050333	0,5	1,337650
13,058667	0,5	1,279550
13,067000	0,5	1,228400
13,075333	0,5	1,173400
13,083667	0,5	1,129100
13,092000	0,5	1,085250
13,100333	0,5	1,055600
13,108667	0,5	1,025750
13,117000	0,5	0,996500
13,125333	0,5	0,972850
13,133667	0,5	0,961250
13,142000	0,5	0,959750
13,150333	0,5	0,961600
13,158667	0,5	0,967400
13,167000	0,5	0,980100
13,175333	0,5	0,987150
13,183667	0,5	0,993300
13,192000	0,5	0,993850
13,200333	0,5	0,983850
13,208667	0,5	0,967800
13,217000	0,5	0,940650
13,225333	0,5	0,919100
13,233667	0,5	0,887350
13,242000	0,5	0,863650
13,250333	0,5	0,840800
13,258667	0,5	0,819150
13,267000	0,5	0,793800
13,275333	0,5	0,777150
13,283667	0,5	0,765200
13,292000	0,5	0,755700
13,300333	0,5	0,746450
13,308667	0,5	0,736350
13,317000	0,5	0,723300
13,325333	0,5	0,716900
13,333667	0,5	0,708150
13,342000	0,5	0,704600
13,350333	0,5	0,697950
13,358667	0,5	0,690350
13,367000	0,5	0,683500
13,375333	0,5	0,683050
13,383667	0,5	0,668900
13,392000	0,5	0,664050
13,400333	0,5	0,655800
13,408667	0,5	0,648150
13,417000	0,5	0,636400
13,425333	0,5	0,624200
13,433667	0,5	0,627000
13,442000	0,5	0,621800
13,450333	0,5	0,617500
13,458667	0,5	0,611900
13,467000	0,5	0,612600
13,475333	0,5	0,609650
13,483667	0,5	0,612500
13,492000	0,5	0,607550
13,500333	0,5	0,603100
13,508667	0,5	0,598900
13,517000	0,5	0,600450
13,525333	0,5	0,592100
13,533667	0,5	0,587850
13,542000	0,5	0,585150
13,550333	0,5	0,579850
13,558667	0,5	0,570350
13,567000	0,5	0,556150
13,575333	0,5	0,547750
13,583667	0,5	0,552850
13,592000	0,5	0,550900
13,600333	0,5	0,547950
13,608667	0,5	0,555850
13,617000	0,5	0,556550
13,625333	0,5	0,559350
13,633667	0,5	0,558450
13,642000	0,5	0,562200
13,650333	0,5	0,558400
13,658667	0,5	0,547700
13,667000	0,5	0,547450
13,675333	0,5	0,533400
13,683667	0,5	0,535100
13,692000	0,5	0,534450
13,700333	0,5	0,541250
13,708667	0,5	0,541750
13,717000	0,5	0,542350
13,725333	0,5	0,561000
13,733667	0,5	0,565850
13,742000	0,5	0,570550
13,750333	0,5	0,565450
13,758667	0,5	0,563500
13,767000	0,5	0,560400
13,775333	0,5	0,568700
13,783667	0,5	0,587950
13,792000	0,5	0,618800
13,800333	0,5	0,668800
13,808667	0,5	0,745950
13,817000	0,5	0,835500
13,825333	0,5	0,925950
13,833667	0,5	1,020950
13,842000	0,5	1,069300
13,850333	0,5	1,078750
13,858667	0,5	1,046700
13,867000	0,5	0,973550
13,875333	0,5	0,901600
13,883667	0,5	0,831250
13,892000	0,5	0,767650
13,900333	0,5	0,721550
13,908667	0,5	0,688450
13,917000	0,5	0,673900
13,925333	0,5	0,665700
13,933667	0,5	0,670900
13,942000	0,5	0,686900
13,950333	0,5	0,714000
13,958667	0,5	0,739350
13,967000	0,5	0,751200
13,975333	0,5	0,752200
13,983667	0,5	0,741400
13,992000	0,5	0,715850
14,000333	0,5	0,681650
14,008667	0,5	0,654000
14,017000	0,5	0,627650
14,025333	0,5	0,616100
14,033667	0,5	0,605050
14,042000	0,5	0,590200
14,050333	0,5	0,584200
14,058667	0,5	0,578550
14,067000	0,5	0,570250
14,075333	0,5	0,562200
14,083667	0,5	0,554250
14,092000	0,5	0,543650
14,100333	0,5	0,540900
14,108667	0,5	0,540850
14,117000	0,5	0,530050
14,125333	0,5	0,529450
14,133667	0,5	0,527850
14,142000	0,5	0,519200
14,150333	0,5	0,513150
14,158667	0,5	0,497750
14,167000	0,5	0,492650
14,175333	0,5	0,485400
14,183667	0,5	0,483000
14,192000	0,5	0,479500
14,200333	0,5	0,479250
14,208667	0,5	0,472200
14,217000	0,5	0,474400
14,225333	0,5	0,471400
14,233667	0,5	0,470900
14,242000	0,5	0,461850
14,250333	0,5	0,455350
14,258667	0,5	0,460600
14,267000	0,5	0,459300
14,275333	0,5	0,463350
14,283667	0,5	0,466100
14,292000	0,5	0,470450
14,300333	0,5	0,476750
14,308667	0,5	0,474700
14,317000	0,5	0,489150
14,325333	0,5	0,497800
14,333667	0,5	0,497250
14,342000	0,5	0,491400
14,350333	0,5	0,472100
14,358667	0,5	0,458150
14,367000	0,5	0,437500
14,375333	0,5	0,425550
14,383667	0,5	0,410200
14,392000	0,5	0,400950
14,400333	0,5	0,404300
14,408667	0,5	0,402750
14,417000	0,5	0,405050
14,425333	0,5	0,414650
14,433667	0,5	0,423750
14,442000	0,5	0,445350
14,450333	0,5	0,472100
14,458667	0,5	0,520550
14,467000	0,5	0,610300
14,475333	0,5	0,719800
14,483667	0,5	0,842000
14,492000	0,5	0,938200
14,500333	0,5	1,007150
14,508667	0,5	1,011000
14,517000	0,5	0,969500
14,525333	0,5	0,882500
14,533667	0,5	0,794850
14,542000	0,5	0,706700
14,550333	0,5	0,652000
14,558667	0,5	0,606200
14,567000	0,5	0,592050
14,575333	0,5	0,606200
14,583667	0,5	0,623250
14,592000	0,5	0,646100
14,600333	0,5	0,659200
14,608667	0,5	0,663150
14,617000	0,5	0,651900
14,625333	0,5	0,630850
14,633667	0,5	0,595050
14,642000	0,5	0,563700
14,650333	0,5	0,525050
14,658667	0,5	0,503550
14,667000	0,5	0,478150
14,675333	0,5	0,469000
14,683667	0,5	0,448500
14,692000	0,5	0,442500
14,700333	0,5	0,432250
14,708667	0,5	0,414850
14,717000	0,5	0,411100
14,725333	0,5	0,403050
14,733667	0,5	0,389700
14,742000	0,5	0,379750
14,750333	0,5	0,362750
14,758667	0,5	0,368600
14,767000	0,5	0,368050
14,775333	0,5	0,360200
14,783667	0,5	0,359150
14,792000	0,5	0,351850
14,800333	0,5	0,344300
14,808667	0,5	0,344400
14,817000	0,5	0,347300
14,825333	0,5	0,356350
14,833667	0,5	0,372300
14,842000	0,5	0,388700
14,850333	0,5	0,401950
14,858667	0,5	0,405650
14,867000	0,5	0,405050
14,875333	0,5	0,392250
14,883667	0,5	0,367750
14,892000	0,5	0,334250
14,900333	0,5	0,311100
14,908667	0,5	0,297500
14,917000	0,5	0,286000
14,925333	0,5	0,271200
14,933667	0,5	0,264150
14,942000	0,5	0,256800
14,950333	0,5	0,249900
14,958667	0,5	0,248200
14,967000	0,5	0,249950
14,975333	0,5	0,247150
14,983667	0,5	0,248800
14,992000	0,5	0,256350
15,000333	0,5	0,251950
15,008667	0,5	0,272950
15,017000	0,5	0,307050
15,025333	0,5	0,355050
15,033667	0,5	0,428000
15,042000	0,5	0,530050
15,050333	0,5	0,661150
15,058667	0,5	0,787700
15,067000	0,5	0,859650
15,075333	0,5	0,882600
15,083667	0,5	0,833150
15,092000	0,5	0,750250
15,100333	0,5	0,649300
15,108667	0,5	0,565050
15,117000	0,5	0,510400
15,125333	0,5	0,484500
15,133667	0,5	0,492850
15,142000	0,5	0,513650
15,150333	0,5	0,530400
15,158667	0,5	0,544850
15,167000	0,5	0,536250
15,175333	0,5	0,509350
15,183667	0,5	0,467350
15,192000	0,5	0,411500
15,200333	0,5	0,386700
15,208667	0,5	0,354950
15,217000	0,5	0,336250
15,225333	0,5	0,318950
15,233667	0,5	0,308500
15,242000	0,5	0,298000
15,250333	0,5	0,288500
15,258667	0,5	0,282700
15,267000	0,5	0,277300
15,275333	0,5	0,276350
15,283667	0,5	0,278400
15,292000	0,5	0,284750
15,300333	0,5	0,287000
15,308667	0,5	0,302750
15,317000	0,5	0,305850
15,325333	0,5	0,316850
15,333667	0,5	0,298250
15,342000	0,5	0,292150
15,350333	0,5	0,286500
15,358667	0,5	0,288100
15,367000	0,5	0,270100
15,375333	0,5	0,263550
15,383667	0,5	0,252700
15,392000	0,5	0,243000
15,400333	0,5	0,226650
15,408667	0,5	0,212500
15,417000	0,5	0,194750
15,425333	0,5	0,191100
15,433667	0,5	0,180250
15,442000	0,5	0,167350
15,450333	0,5	0,162600
15,458667	0,5	0,166700
15,467000	0,5	0,157350
15,475333	0,5	0,156950
15,483667	0,5	0,151550
15,492000	0,5	0,148600
15,500333	0,5	0,166450
15,508667	0,5	0,173100
15,517000	0,5	0,205200
15,525333	0,5	0,243750
15,533667	0,5	0,316600
15,542000	0,5	0,421400
15,550333	0,5	0,555900
15,558667	0,5	0,694200
15,567000	0,5	0,800850
15,575333	0,5	0,852900
15,583667	0,5	0,831500
15,592000	0,5	0,756700
15,600333	0,5	0,673850
15,608667	0,5	0,598100
15,617000	0,5	0,540100
15,625333	0,5	0,520800
15,633667	0,5	0,514100
15,642000	0,5	0,524500
15,650333	0,5	0,518200
15,658667	0,5	0,492500
15,667000	0,5	0,451100
15,675333	0,5	0,402250
15,683667	0,5	0,356000
15,692000	0,5	0,314650
15,700333	0,5	0,285600
15,708667	0,5	0,274750
15,717000	0,5	0,259050
15,725333	0,5	0,261400
15,733667	0,5	0,255200
15,742000	0,5	0,260050
15,750333	0,5	0,252600
15,758667	0,5	0,244550
15,767000	0,5	0,227300
15,775333	0,5	0,201100
15,783667	0,5	0,188050
15,792000	0,5	0,184800
15,800333	0,5	0,182200
15,808667	0,5	0,172500
15,817000	0,5	0,162950
15,825333	0,5	0,148450
15,833667	0,5	0,132800
15,842000	0,5	0,118400
15,850333	0,5	0,097900
15,858667	0,5	0,078200
15,867000	0,5	0,056400
15,875333	0,5	0,050950
15,883667	0,5	0,030000
15,892000	0,5	0,020000
15,900333	0,5	0,014150
15,908667	0,5	0,008550
15,917000	0,5	-0,000850
15,925333	0,5	-0,020350
15,933667	0,5	-0,017250
15,942000	0,5	-0,008450
15,950333	0,5	0,000050
15,958667	0,5	0,017600
15,967000	0,5	0,055450
15,975333	0,5	0,122100
15,983667	0,5	0,215350
15,992000	0,5	0,347250
16,000333	0,5	0,483900
16,008667	0,5	0,605750
16,017000	0,5	0,669450
16,025333	0,5	0,675350
16,033667	0,5	0,610700
16,042000	0,5	0,548050
16,050333	0,5	0,480800
16,058667	0,5	0,438550
16,067000	0,5	0,412050
16,075333	0,5	0,384750
16,083667	0,5	0,373800
16,092000	0,5	0,343500
16,100333	0,5	0,306450
16,108667	0,5	0,262700
16,117000	0,5	0,226500
16,125333	0,5	0,195450
16,133667	0,5	0,168050
16,142000	0,5	0,149450
16,150333	0,5	0,133450
16,158667	0,5	0,118950
16,167000	0,5	0,113900
16,175333	0,5	0,107750
16,183667	0,5	0,102450
16,192000	0,5	0,115250
16,200333	0,5	0,114850
16,208667	0,5	0,111750
16,217000	0,5	0,093350
16,225333	0,5	0,062600
16,233667	0,5	0,057500
16,242000	0,5	0,042400
16,250333	0,5	0,024650
16,258667	0,5	0,007950
16,267000	0,5	-0,007500
16,275333	0,5	-0,029850
16,283667	0,5	-0,039000
16,292000	0,5	-0,052550
16,300333	0,5	-0,073850
16,308667	0,5	-0,066950
16,317000	0,5	-0,074650
16,325333	0,5	-0,084250
16,333667	0,5	-0,087750
16,342000	0,5	-0,073100
16,350333	0,5	-0,071450
16,358667	0,5	-0,058100
16,367000	0,5	-0,034900
16,375333	0,5	0,016300
16,383667	0,5	0,116450
16,392000	0,5	0,254700
16,400333	0,5	0,386200
16,408667	0,5	0,516550
16,417000	0,5	0,570450
16,425333	0,5	0,584150
16,433667	0,5	0,535650
16,442000	0,5	0,479600
16,450333	0,5	0,433950
16,458667	0,5	0,398900
16,467000	0,5	0,376000
16,475333	0,5	0,332050
16,483667	0,5	0,302250
16,492000	0,5	0,252550
16,500333	0,5	0,190800
16,508667	0,5	0,132750
16,517000	0,5	0,093150
16,525333	0,5	0,067350
16,533667	0,5	0,054300
16,542000	0,5	0,050650
16,550333	0,5	0,052300
16,558667	0,5	0,047300
16,567000	0,5	0,058600
16,575333	0,5	0,061400
16,583667	0,5	0,054950
16,592000	0,5	0,049650
16,600333	0,5	0,040650
16,608667	0,5	0,033550
16,617000	0,5	0,007600
16,625333	0,5	-0,011900
16,633667	0,5	-0,032950
16,642000	0,5	-0,048650
16,650333	0,5	-0,071100
16,658667	0,5	-0,101450
16,667000	0,5	-0,112600
16,675333	0,5	-0,108550
16,683667	0,5	-0,114550
16,692000	0,5	-0,108300
16,700333	0,5	-0,102750
16,708667	0,5	-0,083750
16,717000	0,5	-0,058050
16,725333	0,5	-0,004600
16,733667	0,5	0,072100
16,742000	0,5	0,178550
16,750333	0,5	0,330500
16,758667	0,5	0,499550
16,767000	0,5	0,621400
16,775333	0,5	0,726600
16,783667	0,5	0,770700
16,792000	0,5	0,776800
16,800333	0,5	0,761050
16,808667	0,5	0,742950
16,817000	0,5	0,748200
16,825333	0,5	0,734450
16,833667	0,5	0,711100
16,842000	0,5	0,665950
16,850333	0,5	0,631450
16,858667	0,5	0,582900
16,867000	0,5	0,552350
16,875333	0,5	0,513750
16,883667	0,5	0,481100
16,892000	0,5	0,434400
16,900333	0,5	0,400700
16,908667	0,5	0,361550
16,917000	0,5	0,312350
16,925333	0,5	0,289400
16,933667	0,5	0,247800
16,942000	0,5	0,198550
16,950333	0,5	0,144950
16,958667	0,5	0,086850
16,967000	0,5	0,066200
16,975333	0,5	0,034650
16,983667	0,5	-0,002500
16,992000	0,5	-0,021250
17,000333	0,5	-0,045750
17,008667	0,5	-0,065100
17,017000	0,5	-0,078600
17,025333	0,5	-0,084450
17,033667	0,5	-0,081800
17,042000	0,5	-0,063400
17,050333	0,5	-0,017550
17,058667	0,5	0,073300
17,067000	0,5	0,185650
17,075333	0,5	0,324650
17,083667	0,5	0,423600
17,092000	0,5	0,477050
17,100333	0,5	0,458850
17,108667	0,5	0,412200
17,117000	0,5	0,362900
17,125333	0,5	0,306750
17,133667	0,5	0,253900
17,142000	0,5	0,203450
17,150333	0,5	0,160300
17,158667	0,5	0,126650
17,167000	0,5	0,116350
17,175333	0,5	0,102800
17,183667	0,5	0,107300
17,192000	0,5	0,119850
17,200333	0,5	0,143500
17,208667	0,5	0,153650
17,217000	0,5	0,183250
17,225333	0,5	0,205950
17,233667	0,5	0,227500
17,242000	0,5	0,242350
17,250333	0,5	0,266200
17,258667	0,5	0,309450
17,267000	0,5	0,390550
17,275333	0,5	0,483100
17,283667	0,5	0,627350
17,292000	0,5	0,819000
17,300333	0,5	1,066850
17,308667	0,5	1,381700
17,317000	0,5	1,753150
17,325333	0,5	2,158950
17,333667	0,5	2,580350
17,342000	0,5	3,007700
17,350333	0,5	3,379050
17,358667	0,5	3,670150
17,367000	0,5	3,851800
17,375333	0,5	3,885800
17,383667	0,5	3,777050
17,392000	0,5	3,562200
17,400333	0,5	3,278700
17,408667	0,5	2,973900
17,417000	0,5	2,660200
17,425333	0,5	2,352300
17,433667	0,5	2,070950
17,442000	0,5	1,815600
17,450333	0,5	1,596150
17,458667	0,5	1,407550
17,467000	0,5	1,254550
17,475333	0,5	1,131150
17,483667	0,5	1,026300
17,492000	0,5	0,937350
17,500333	0,5	0,838650
17,508667	0,5	0,777100
17,517000	0,5	0,718400
17,525333	0,5	0,666800
17,533667	0,5	0,615500
17,542000	0,5	0,551300
17,550333	0,5	0,530850
17,558667	0,5	0,506750
17,567000	0,5	0,509700
17,575333	0,5	0,514800
17,583667	0,5	0,550550
17,592000	0,5	0,595000
17,600333	0,5	0,669050
17,608667	0,5	0,760100
17,617000	0,5	0,843850
17,625333	0,5	0,916650
17,633667	0,5	0,943500
17,642000	0,5	0,935100
17,650333	0,5	0,859850
17,658667	0,5	0,799150
17,667000	0,5	0,722150
17,675333	0,5	0,652850
17,683667	0,5	0,568150
17,692000	0,5	0,485400
17,700333	0,5	0,436000
17,708667	0,5	0,399650
17,717000	0,5	0,350350
17,725333	0,5	0,317600
17,733667	0,5	0,285400
17,742000	0,5	0,261650
17,750333	0,5	0,228650
17,758667	0,5	0,194800
17,767000	0,5	0,155950
17,775333	0,5	0,132050
17,783667	0,5	0,117800
17,792000	0,5	0,096400
17,800333	0,5	0,079650
17,808667	0,5	0,083500
17,817000	0,5	0,083050
17,825333	0,5	0,089450
17,833667	0,5	0,108400
17,842000	0,5	0,142300
17,850333	0,5	0,226650
17,858667	0,5	0,289650
17,867000	0,5	0,321150
17,875333	0,5	0,331200
17,883667	0,5	0,321050
17,892000	0,5	0,278400
17,900333	0,5	0,239250
17,908667	0,5	0,196600
17,917000	0,5	0,157250
17,925333	0,5	0,124900
17,933667	0,5	0,108200
17,942000	0,5	0,076750
17,950333	0,5	0,068700
17,958667	0,5	0,058400
17,967000	0,5	0,040300
17,975333	0,5	0,025500
17,983667	0,5	-0,007200
17,992000	0,5	-0,017150
18,000333	0,5	-0,024850
18,008667	0,5	-0,018500
18,017000	0,5	-0,022250
18,025333	0,5	-0,015600
18,033667	0,5	-0,009600
18,042000	0,5	0,019950
18,050333	0,5	0,048300
18,058667	0,5	0,101750
18,067000	0,5	0,153400
18,075333	0,5	0,198550
18,083667	0,5	0,233950
18,092000	0,5	0,232100
18,100333	0,5	0,226950
18,108667	0,5	0,192650
18,117000	0,5	0,151650
18,125333	0,5	0,097150
18,133667	0,5	0,050350
18,142000	0,5	0,028050
18,150333	0,5	0,019550
18,158667	0,5	0,002000
18,167000	0,5	-0,007650
18,175333	0,5	-0,020900
18,183667	0,5	-0,030050
18,192000	0,5	-0,039850
18,200333	0,5	-0,035400
18,208667	0,5	-0,033250
18,217000	0,5	-0,033500
18,225333	0,5	-0,026950
18,233667	0,5	-0,025150
18,242000	0,5	-0,017050
18,250333	0,5	0,020400
18,258667	0,5	0,062750
18,267000	0,5	0,109150
18,275333	0,5	0,129750
18,283667	0,5	0,141900
18,292000	0,5	0,142300
18,300333	0,5	0,118300
18,308667	0,5	0,080900
18,317000	0,5	0,045950
18,325333	0,5	0,011150
18,333667	0,5	-0,015250
18,342000	0,5	-0,034550
18,350333	0,5	-0,053300
18,358667	0,5	-0,073400
18,367000	0,5	-0,080900
18,375333	0,5	-0,080350
18,383667	0,5	-0,105100
18,392000	0,5	-0,100400
18,400333	0,5	-0,098050
18,408667	0,5	-0,094800
18,417000	0,5	-0,091500
18,425333	0,5	-0,093250
18,433667	0,5	-0,056300
18,442000	0,5	-0,009550
18,450333	0,5	0,031600
18,458667	0,5	0,051500
18,467000	0,5	0,051500
18,475333	0,5	0,022700
18,483667	0,5	-0,017950
18,492000	0,5	-0,052650
18,500333	0,5	-0,078500
18,508667	0,5	-0,104700
18,517000	0,5	-0,106000
18,525333	0,5	-0,125800
18,533667	0,5	-0,144400
18,542000	0,5	-0,150200
18,550333	0,5	-0,148050
18,558667	0,5	-0,161650
18,567000	0,5	-0,172650
18,575333	0,5	-0,189050
18,583667	0,5	-0,175800
18,592000	0,5	-0,153050
18,600333	0,5	-0,122150
18,608667	0,5	-0,095500
18,617000	0,5	-0,074800
18,625333	0,5	-0,077050
18,633667	0,5	-0,096400
18,642000	0,5	-0,119050
18,650333	0,5	-0,159450
18,658667	0,5	-0,177200
18,667000	0,5	-0,189100
18,675333	0,5	-0,210850
18,683667	0,5	-0,228250
18,692000	0,5	-0,233450
18,700333	0,5	-0,237800
18,708667	0,5	-0,242300
18,717000	0,5	-0,269050
18,725333	0,5	-0,269400
18,733667	0,5	-0,260750
18,742000	0,5	-0,257400
18,750333	0,5	-0,253100
18,758667	0,5	-0,228800
18,767000	0,5	-0,214000
18,775333	0,5	-0,214350
18,783667	0,5	-0,222850
18,792000	0,5	-0,235100
18,800333	0,5	-0,251550
18,808667	0,5	-0,256850
18,817000	0,5	-0,257350
18,825333	0,5	-0,285350
18,833667	0,5	-0,283150
18,842000	0,5	-0,288750
18,850333	0,5	-0,285050
18,858667	0,5	-0,295300
18,867000	0,5	-0,304900
18,875333	0,5	-0,283550
18,883667	0,5	-0,241200
18,892000	0,5	-0,211950
18,900333	0,5	-0,165750
18,908667	0,5	-0,115100
18,917000	0,5	-0,069950
18,925333	0,5	-0,055550
18,933667	0,5	-0,051750
18,942000	0,5	-0,062400
18,950333	0,5	-0,089200
18,958667	0,5	-0,094550
18,967000	0,5	-0,121850
18,975333	0,5	-0,163000
18,983667	0,5	-0,184650
18,992000	0,5	-0,215700
19,000333	0,5	-0,243750
19,008667	0,5	-0,254900
19,017000	0,5	-0,272800
19,025333	0,5	-0,250150
19,033667	0,5	-0,244100
19,042000	0,5	-0,248450
19,050333	0,5	-0,275250
19,058667	0,5	-0,287800
19,067000	0,5	-0,316850
19,075333	0,5	-0,335350
19,083667	0,5	-0,364500
19,092000	0,5	-0,377000
19,100333	0,5	-0,394000
19,108667	0,5	-0,382650
19,117000	0,5	-0,375050
19,125333	0,5	-0,367900
19,133667	0,5	-0,349350
19,142000	0,5	-0,341300
19,150333	0,5	-0,348750
19,158667	0,5	-0,377250
19,167000	0,5	-0,392150
19,175333	0,5	-0,413250
19,183667	0,5	-0,419300
19,192000	0,5	-0,436900
19,200333	0,5	-0,433600
19,208667	0,5	-0,437800
19,217000	0,5	-0,430700
19,225333	0,5	-0,423700
19,233667	0,5	-0,414850
19,242000	0,5	-0,406000
19,250333	0,5	-0,393750
19,258667	0,5	-0,389550
19,267000	0,5	-0,408500
19,275333	0,5	-0,426300
19,283667	0,5	-0,436450
19,292000	0,5	-0,449050
19,300333	0,5	-0,481900
19,308667	0,5	-0,503700
19,317000	0,5	-0,520550
19,325333	0,5	-0,509300
19,333667	0,5	-0,521200
19,342000	0,5	-0,515100
19,350333	0,5	-0,524150
19,358667	0,5	-0,517500
19,367000	0,5	-0,527500
19,375333	0,5	-0,526100
19,383667	0,5	-0,542450
19,392000	0,5	-0,551950
19,400333	0,5	-0,556400
19,408667	0,5	-0,575800
19,417000	0,5	-0,574350
19,425333	0,5	-0,574250
19,433667	0,5	-0,568100
19,442000	0,5	-0,570000
19,450333	0,5	-0,588100
19,458667	0,5	-0,607050
19,467000	0,5	-0,603500
19,475333	0,5	-0,617850
19,483667	0,5	-0,630750
19,492000	0,5	-0,636200
19,500333	0,5	-0,633600
19,508667	0,5	-0,642200
19,517000	0,5	-0,634650
19,525333	0,5	-0,632800
19,533667	0,5	-0,635200
19,542000	0,5	-0,640550
19,550333	0,5	-0,639800
19,558667	0,5	-0,666300
19,567000	0,5	-0,655200
19,575333	0,5	-0,656950
19,583667	0,5	-0,655600
19,592000	0,5	-0,664650
19,600333	0,5	-0,690850
19,608667	0,5	-0,676400
19,617000	0,5	-0,682600
19,625333	0,5	-0,682350
19,633667	0,5	-0,687450
19,642000	0,5	-0,686950
19,650333	0,5	-0,699050
19,658667	0,5	-0,706150
19,667000	0,5	-0,711700
19,675333	0,5	-0,713850
19,683667	0,5	-0,719500
19,692000	0,5	-0,721100
19,700333	0,5	-0,730200
19,708667	0,5	-0,748150
19,717000	0,5	-0,752850
19,725333	0,5	-0,755100
19,733667	0,5	-0,759200
19,742000	0,5	-0,762850
19,750333	0,5	-0,788500
19,758667	0,5	-0,781150
19,767000	0,5	-0,786400
19,775333	0,5	-0,793650
19,783667	0,5	-0,799400
19,792000	0,5	-0,806750
19,800333	0,5	-0,808700
19,808667	0,5	-0,820200
19,817000	0,5	-0,825150
19,825333	0,5	-0,842900
19,833667	0,5	-0,845900
19,842000	0,5	-0,858450
19,850333	0,5	-0,867650
19,858667	0,5	-0,876000
19,867000	0,5	-0,872850
19,875333	0,5	-0,888550
19,883667	0,5	-0,909450
19,892000	0,5	-0,941300
19,900333	0,5	-0,956350
19,908667	0,5	-0,953000
19,917000	0,5	-0,964900
19,925333	0,5	-0,981450
19,933667	0,5	-0,985800
19,942000	0,5	-0,995450
19,950333	0,5	-1,008550
19,958667	0,5	-1,006950
19,967000	0,5	-1,018150
19,975333	0,5	-1,023500
19,983667	0,5	-1,029100
19,992000	0,5	-1,027600
20,000333	0,5	-1,052850
20,008667	0,5	-1,050100
20,017000	0,5	-1,051200
20,025333	0,5	-1,063450
20,033667	0,5	-1,086600
20,042000	0,5	-1,111100
20,050333	0,5	-1,120650
20,058667	0,5	-1,119000
20,067000	0,5	-1,130000
20,075333	0,5	-1,141200
20,083667	0,5	-1,149100
20,092000	0,5	-1,162700
20,100333	0,5	-1,173150
20,108667	0,5	-1,191650
20,117000	0,5	-1,206300
20,125333	0,5	-1,232000
20,133667	0,5	-1,224650
20,142000	0,5	-1,241600
20,150333	0,5	-1,253800
20,158667	0,5	-1,257000
20,167000	0,5	-1,264950
20,175333	0,5	-1,283000
20,183667	0,5	-1,315000
20,192000	0,5	-1,338750
20,200333	0,5	-1,348050
20,208667	0,5	-1,353650
20,217000	0,5	-1,361350
20,225333	0,5	-1,375500
20,233667	0,5	-1,378950
20,242000	0,5	-1,385450
20,250333	0,5	-1,392400
20,258667	0,5	-1,407200
20,267000	0,5	-1,411700
20,275333	0,5	-1,417900
20,283667	0,5	-1,421650
20,292000	0,5	-1,443150
20,300333	0,5	-1,457350
20,308667	0,5	-1,462200
20,317000	0,5	-1,481600
20,325333	0,5	-1,501250
20,333667	0,5	-1,545700
20,342000	0,5	-1,554350
20,350333	0,5	-1,556350
20,358667	0,5	-1,557150
20,367000	0,5	-1,572800
20,375333	0,5	-1,580650
20,383667	0,5	-1,590000
20,392000	0,5	-1,599600
20,400333	0,5	-1,604100
20,408667	0,5	-1,624650
20,417000	0,5	-1,640150
20,425333	0,5	-1,643400
20,433667	0,5	-1,652050
20,442000	0,5	-1,684450
20,450333	0,5	-1,685550
20,458667	0,5	-1,699400
20,467000	0,5	-1,713400
20,475333	0,5	-1,750900
20,483667	0,5	-1,773000
20,492000	0,5	-1,785650
20,500333	0,5	-1,786050
20,508667	0,5	-1,810750
20,517000	0,5	-1,815500
20,525333	0,5	-1,815600
20,533667	0,5	-1,831150
20,542000	0,5	-1,843550
20,550333	0,5	-1,840750
20,558667	0,5	-1,856300
20,567000	0,5	-1,864850
20,575333	0,5	-1,854250
20,583667	0,5	-1,879300
20,592000	0,5	-1,890600
20,600333	0,5	-1,904900
20,608667	0,5	-1,915700
20,617000	0,5	-1,940200
20,625333	0,5	-1,982800
20,633667	0,5	-2,003600
20,642000	0,5	-2,019600
20,650333	0,5	-2,039600
20,658667	0,5	-2,063250
20,667000	0,5	-2,089400
20,675333	0,5	-2,102150
20,683667	0,5	-2,121200
20,692000	0,5	-2,139050
20,700333	0,5	-2,156450
20,708667	0,5	-2,181900
20,717000	0,5	-2,179350
20,725333	0,5	-2,184100
20,733667	0,5	-2,217650
20,742000	0,5	-2,232350
20,750333	0,5	-2,257750
20,758667	0,5	-2,281950
20,767000	0,5	-2,293350
20,775333	0,5	-2,334700
20,783667	0,5	-2,323400
20,792000	0,5	-2,337200
20,800333	0,5	-2,348550
20,808667	0,5	-2,377250
20,817000	0,5	-2,397150
20,825333	0,5	-2,435400
20,833667	0,5	-2,464000
20,842000	0,5	-2,486150
20,850333	0,5	-2,536650
20,858667	0,5	-2,551800
20,867000	0,5	-2,561950
20,875333	0,5	-2,572450
20,883667	0,5	-2,602000
20,892000	0,5	-2,622600
20,900333	0,5	-2,652950
20,908667	0,5	-2,681850
20,917000	0,5	-2,726550
20,925333	0,5	-2,756250
20,933667	0,5	-2,773350
20,942000	0,5	-2,776150
20,950333	0,5	-2,800150
20,958667	0,5	-2,804800
20,967000	0,5	-2,821750
20,975333	0,5	-2,831200
20,983667	0,5	-2,855400
20,992000	0,5	-2,879250
21,000333	0,5	-2,901700
21,008667	0,5	-2,915100
21,017000	0,5	-2,917350
21,025333	0,5	-2,936400
21,033667	0,5	-2,949800
21,042000	0,5	-2,973400
21,050333	0,5	-2,992800
21,058667	0,5	-3,037550
21,067000	0,5	-3,065200
21,075333	0,5	-3,086650
21,083667	0,5	-3,094200
21,092000	0,5	-3,113450
21,100333	0,5	-3,121300
21,108667	0,5	-3,139800
21,117000	0,5	-3,149600
21,125333	0,5	-3,159150
21,133667	0,5	-3,170350
21,142000	0,5	-3,180900
21,150333	0,5	-3,200450
21,158667	0,5	-3,186950
21,167000	0,5	-3,189150
21,175333	0,5	-3,205800
21,183667	0,5	-3,216300
21,192000	0,5	-3,239250
21,200333	0,5	-3,259850
21,208667	0,5	-3,300700
21,217000	0,5	-3,330050
21,225333	0,5	-3,329350
21,233667	0,5	-3,350250
21,242000	0,5	-3,345600
21,250333	0,5	-3,358850
21,258667	0,5	-3,364550
21,267000	0,5	-3,391850
21,275333	0,5	-3,385250
21,283667	0,5	-3,390300
21,292000	0,5	-3,405500
21,300333	0,5	-3,387750
21,308667	0,5	-3,365750
21,317000	0,5	-3,359950
21,325333	0,5	-3,359850
21,333667	0,5	-3,352600
21,342000	0,5	-3,362300
21,350333	0,5	-3,359950
21,358667	0,5	-3,397050
21,367000	0,5	-3,394500
21,375333	0,5	-3,409100
21,383667	0,5	-3,414500
21,392000	0,5	-3,436150
21,400333	0,5	-3,448850
21,408667	0,5	-3,469200
21,417000	0,5	-3,472650
21,425333	0,5	-3,481800
21,433667	0,5	-3,491700
21,442000	0,5	-3,496400
21,450333	0,5	-3,487100
21,458667	0,5	-3,473100
21,467000	0,5	-3,478400
21,475333	0,5	-3,492450
21,483667	0,5	-3,497550
21,492000	0,5	-3,510400
21,500333	0,5	-3,545100
21,508667	0,5	-3,555700
21,517000	0,5	-3,551800
21,525333	0,5	-3,547950
21,533667	0,5	-3,565100
21,542000	0,5	-3,558200
21,550333	0,5	-3,568850
21,558667	0,5	-3,570800
21,567000	0,5	-3,581100
21,575333	0,5	-3,582750
21,583667	0,5	-3,581950
21,592000	0,5	-3,571500
21,600333	0,5	-3,545400
21,608667	0,5	-3,534950
21,617000	0,5	-3,537900
21,625333	0,5	-3,539850
21,633667	0,5	-3,533650
21,642000	0,5	-3,549250
21,650333	0,5	-3,561350
21,658667	0,5	-3,538500
21,667000	0,5	-3,509800
21,675333	0,5	-3,498750
21,683667	0,5	-3,483500
21,692000	0,5	-3,451300
21,700333	0,5	-3,419150
21,708667	0,5	-3,403650
21,717000	0,5	-3,393050
21,725333	0,5	-3,395050
21,733667	0,5	-3,407450
21,742000	0,5	-3,387200
21,750333	0,5	-3,372700
21,758667	0,5	-3,377150
21,767000	0,5	-3,357450
21,775333	0,5	-3,341800
21,783667	0,5	-3,342700
21,792000	0,5	-3,337850
21,800333	0,5	-3,353100
21,808667	0,5	-3,326050
21,817000	0,5	-3,311650
21,825333	0,5	-3,286600
21,833667	0,5	-3,276650
21,842000	0,5	-3,246750
21,850333	0,5	-3,229500
21,858667	0,5	-3,198600
21,867000	0,5	-3,177400
21,875333	0,5	-3,156600
21,883667	0,5	-3,126000
21,892000	0,5	-3,089300
21,900333	0,5	-3,083250
21,908667	0,5	-3,074800
21,917000	0,5	-3,056900
21,925333	0,5	-3,063150
21,933667	0,5	-3,061950
21,942000	0,5	-3,078950
21,950333	0,5	-3,067500
21,958667	0,5	-3,053550
21,967000	0,5	-3,033050
21,975333	0,5	-3,014850
21,983667	0,5	-2,989850
21,992000	0,5	-2,995200
22,000333	0,5	-2,992500
22,008667	0,5	-3,005250
22,017000	0,5	-3,014000
22,025333	0,5	-3,023300
22,033667	0,5	-3,028000
22,042000	0,5	-3,035250
22,050333	0,5	-3,050100
22,058667	0,5	-3,051300
22,067000	0,5	-3,066000
22,075333	0,5	-3,064650
22,083667	0,5	-3,101000
22,092000	0,5	-3,112400
22,100333	0,5	-3,116400
22,108667	0,5	-3,110350
22,117000	0,5	-3,121150
22,125333	0,5	-3,108150
22,133667	0,5	-3,115750
22,142000	0,5	-3,109450
22,150333	0,5	-3,109250
22,158667	0,5	-3,099400
22,167000	0,5	-3,091000
22,175333	0,5	-3,088850
22,183667	0,5	-3,091450
22,192000	0,5	-3,100250
22,200333	0,5	-3,081700
22,208667	0,5	-3,065900
22,217000	0,5	-3,062150
22,225333	0,5	-3,065000
22,233667	0,5	-3,058200
22,242000	0,5	-3,045050
22,250333	0,5	-3,022050
22,258667	0,5	-3,010450
22,267000	0,5	-2,997500
22,275333	0,5	-2,972750
22,283667	0,5	-2,948100
22,292000	0,5	-2,922000
22,300333	0,5	-2,892250
22,308667	0,5	-2,865350
22,317000	0,5	-2,838100
22,325333	0,5	-2,820900
22,333667	0,5	-2,794300
22,342000	0,5	-2,745200
22,350333	0,5	-2,696200
22,358667	0,5	-2,655350
22,367000	0,5	-2,622150
22,375333	0,5	-2,590250
22,383667	0,5	-2,549400
22,392000	0,5	-2,493950
22,400333	0,5	-2,441850
22,408667	0,5	-2,387750
22,417000	0,5	-2,344400
22,425333	0,5	-2,327700
22,433667	0,5	-2,327250
22,442000	0,5	-2,311450
22,450333	0,5	-2,293350
22,458667	0,5	-2,284350
22,467000	0,5	-2,276450
22,475333	0,5	-2,278850
22,483667	0,5	-2,265450
22,492000	0,5	-2,208650
22,500333	0,5	-2,172200
22,508667	0,5	-2,145900
22,517000	0,5	-2,110250
22,525333	0,5	-2,095950
22,533667	0,5	-2,058400
22,542000	0,5	-2,004100
22,550333	0,5	-1,964250
22,558667	0,5	-1,929000
22,567000	0,5	-1,890300
22,575333	0,5	-1,857350
22,583667	0,5	-1,814100
22,592000	0,5	-1,768800
22,600333	0,5	-1,716050
22,608667	0,5	-1,673400
22,617000	0,5	-1,665050
22,625333	0,5	-1,595250
22,633667	0,5	-1,528000
22,642000	0,5	-1,438600
22,650333	0,5	-1,380100
22,658667	0,5	-1,332950
22,667000	0,5	-1,317800
22,675333	0,5	-1,298900
22,683667	0,5	-1,279100
22,692000	0,5	-1,249800
22,700333	0,5	-1,247450
22,708667	0,5	-1,248800
22,717000	0,5	-1,249350
22,725333	0,5	-1,259850
22,733667	0,5	-1,271050
22,742000	0,5	-1,274250
22,750333	0,5	-1,293000
22,758667	0,5	-1,325900
22,767000	0,5	-1,402900
22,775333	0,5	-1,408050
22,783667	0,5	-1,407000
22,792000	0,5	-1,431550
22,800333	0,5	-1,456400
22,808667	0,5	-1,504300
22,817000	0,5	-1,545350
22,825333	0,5	-1,594750
22,833667	0,5	-1,637700
22,842000	0,5	-1,671800
22,850333	0,5	-1,726800
22,858667	0,5	-1,788050
22,867000	0,5	-1,836550
22,875333	0,5	-1,896700
22,883667	0,5	-1,952650
22,892000	0,5	-2,014400
22,900333	0,5	-2,092200
22,908667	0,5	-2,187250
22,917000	0,5	-2,288050
22,925333	0,5	-2,316500
22,933667	0,5	-2,379400
22,942000	0,5	-2,462850
22,950333	0,5	-2,531300
22,958667	0,5	-2,608300
22,967000	0,5	-2,679250
22,975333	0,5	-2,764400
22,983667	0,5	-2,835300
22,992000	0,5	-2,916100
23,000333	0,5	-2,981200
23,008667	0,5	-3,044050
23,017000	0,5	-3,113500
23,025333	0,5	-3,172600
23,033667	0,5	-3,229150
23,042000	0,5	-3,272050
23,050333	0,5	-3,317100
23,058667	0,5	-3,336100
23,067000	0,5	-3,369950
23,075333	0,5	-3,395650
23,083667	0,5	-3,463700
23,092000	0,5	-3,480900
23,100333	0,5	-3,518650
23,108667	0,5	-3,511250
23,117000	0,5	-3,536850
23,125333	0,5	-3,560450
23,133667	0,5	-3,584650
23,142000	0,5	-3,584950
23,150333	0,5	-3,602900
23,158667	0,5	-3,596100
23,167000	0,5	-3,601300
23,175333	0,5	-3,597050
23,183667	0,5	-3,585750
23,192000	0,5	-3,572350
23,200333	0,5	-3,500800
23,208667	0,5	-3,503000
23,217000	0,5	-3,455450
23,225333	0,5	-3,445500
23,233667	0,5	-3,446850
23,242000	0,5	-3,419100
23,250333	0,5	-3,385000
23,258667	0,5	-3,333000
23,267000	0,5	-3,313550
23,275333	0,5	-3,298400
23,283667	0,5	-3,270250
23,292000	0,5	-3,249400
23,300333	0,5	-3,215900
23,308667	0,5	-3,184400
23,317000	0,5	-3,143650
23,325333	0,5	-3,119550
23,333667	0,5	-3,073450
23,342000	0,5	-3,033050
23,350333	0,5	-3,003550
23,358667	0,5	-2,943550
23,367000	0,5	-2,865950
23,375333	0,5	-2,833400
23,383667	0,5	-2,814150
23,392000	0,5	-2,764550
23,400333	0,5	-2,718100
23,408667	0,5	-2,667550
23,417000	0,5	-2,650850
23,425333	0,5	-2,615450
23,433667	0,5	-2,587600
23,442000	0,5	-2,552300
23,450333	0,5	-2,523400
23,458667	0,5	-2,487750
23,467000	0,5	-2,463550
23,475333	0,5	-2,428800
23,483667	0,5	-2,400050
23,492000	0,5	-2,346800
23,500333	0,5	-2,397500
23,508667	0,5	-2,326550
23,517000	0,5	-2,249450
23,525333	0,5	-2,218600
23,533667	0,5	-2,193750
23,542000	0,5	-2,159750
23,550333	0,5	-2,122750
23,558667	0,5	-2,092200
23,567000	0,5	-2,073300
23,575333	0,5	-2,048400
23,583667	0,5	-2,024050
23,592000	0,5	-2,008350
23,600333	0,5	-1,977950
23,608667	0,5	-1,958900
23,617000	0,5	-1,930750
23,625333	0,5	-1,919100
23,633667	0,5	-1,889950
23,642000	0,5	-1,964200
23,650333	0,5	-1,961250
23,658667	0,5	-1,899450
23,667000	0,5	-1,837950
23,675333	0,5	-1,805600
23,683667	0,5	-1,786150
23,692000	0,5	-1,759700
23,700333	0,5	-1,741300
23,708667	0,5	-1,725850
23,717000	0,5	-1,707400
23,725333	0,5	-1,692700
23,733667	0,5	-1,671800
23,742000	0,5	-1,654950
23,750333	0,5	-1,638300
23,758667	0,5	-1,621000
23,767000	0,5	-1,603750
23,775333	0,5	-1,581650
23,783667	0,5	-1,564450
23,792000	0,5	-1,719600
23,800333	0,5	-1,657050
23,808667	0,5	-1,608350
23,817000	0,5	-1,542050
23,825333	0,5	-1,515850
23,833667	0,5	-1,489100
23,842000	0,5	-1,472100
23,850333	0,5	-1,457150
23,858667	0,5	-1,444050
23,867000	0,5	-1,418400
23,875333	0,5	-1,405050
23,883667	0,5	-1,388100
23,892000	0,5	-1,370350
23,900333	0,5	-1,355150
23,908667	0,5	-1,336600
23,917000	0,5	-1,319400
23,925333	0,5	-1,303850
23,933667	0,5	-1,354800
23,942000	0,5	-1,436000
23,950333	0,5	-1,404200
23,958667	0,5	-1,327850
23,967000	0,5	-1,271550
23,975333	0,5	-1,231450
23,983667	0,5	-1,209150
23,992000	0,5	-1,193150
24,000333	0,5	-1,177100
24,008667	0,5	-1,149000
24,017000	0,5	-1,128150
24,025333	0,5	-1,110850
24,033667	0,5	-1,090500
24,042000	0,5	-1,071550
24,050333	0,5	-1,056850
24,058667	0,5	-1,036000
24,067000	0,5	-1,015000
24,075333	0,5	-1,001100
24,083667	0,5	-1,118950
24,092000	0,5	-1,126800
24,100333	0,5	-1,082700
24,108667	0,5	-1,022600
24,117000	0,5	-0,976550
24,125333	0,5	-0,955350
24,133667	0,5	-0,932950
24,142000	0,5	-0,922750
24,150333	0,5	-0,891900
24,158667	0,5	-0,875050
24,167000	0,5	-0,846650
24,175333	0,5	-0,830150
24,183667	0,5	-0,801850
24,192000	0,5	-0,786400
24,200333	0,5	-0,764800
24,208667	0,5	-0,743800
24,217000	0,5	-0,724950
24,225333	0,5	-0,724800
24,233667	0,5	-0,843650
24,242000	0,5	-0,808800
24,250333	0,5	-0,767100
24,258667	0,5	-0,710900
24,267000	0,5	-0,674050
24,275333	0,5	-0,645500
24,283667	0,5	-0,634850
24,292000	0,5	-0,630600
24,300333	0,5	-0,607050
24,308667	0,5	-0,582550
24,317000	0,5	-0,567300
24,325333	0,5	-0,552250
24,333667	0,5	-0,538750
24,342000	0,5	-0,520500
24,350333	0,5	-0,505250
24,358667	0,5	-0,486400
24,367000	0,5	-0,471100
24,375333	0,5	-0,528300
24,383667	0,5	-0,546750
24,392000	0,5	-0,530500
24,400333	0,5	-0,482500
24,408667	0,5	-0,448100
24,417000	0,5	-0,416100
24,425333	0,5	-0,397800
24,433667	0,5	-0,396550
24,442000	0,5	-0,385200
24,450333	0,5	-0,351950
24,458667	0,5	-0,335750
24,467000	0,5	-0,321850
24,475333	0,5	-0,314100
24,483667	0,5	-0,294400
24,492000	0,5	-0,286300
24,500333	0,5	-0,265300
24,508667	0,5	-0,255950
24,517000	0,5	-0,247600
24,525333	0,5	-0,326500
24,533667	0,5	-0,304650
24,542000	0,5	-0,290850
24,550333	0,5	-0,251600
24,558667	0,5	-0,236450
24,567000	0,5	-0,209600
24,575333	0,5	-0,199000
24,583667	0,5	-0,202450
24,592000	0,5	-0,185900
24,600333	0,5	-0,178550
24,608667	0,5	-0,159700
24,617000	0,5	-0,147450
24,625333	0,5	-0,133950
24,633667	0,5	-0,130750
24,642000	0,5	-0,115850
24,650333	0,5	-0,108100
24,658667	0,5	-0,089150
24,667000	0,5	-0,088400
24,675333	0,5	-0,137450
24,683667	0,5	-0,117700
24,692000	0,5	-0,098950
24,700333	0,5	-0,074650
24,708667	0,5	-0,060450
24,717000	0,5	-0,046150
24,725333	0,5	-0,045450
24,733667	0,5	-0,052050
24,742000	0,5	-0,044550
24,750333	0,5	-0,029300
24,758667	0,5	-0,022150
24,767000	0,5	-0,018400
24,775333	0,5	-0,009300
24,783667	0,5	-0,002350
24,792000	0,5	0,001350
24,800333	0,5	0,010500
24,808667	0,5	0,014800
24,817000	0,5	-0,003050
24,825333	0,5	-0,008700
24,833667	0,5	0,002650
24,842000	0,5	0,013200
24,850333	0,5	0,034450
24,858667	0,5	0,040600
24,867000	0,5	0,056050
24,875333	0,5	0,053450
24,883667	0,5	0,055800
24,892000	0,5	0,064300
24,900333	0,5	0,075100
24,908667	0,5	0,078600
24,917000	0,5	0,084000
24,925333	0,5	0,084650
24,933667	0,5	0,088300
24,942000	0,5	0,093000
24,950333	0,5	0,098250
24,958667	0,5	0,103650
24,967000	0,5	0,082250
24,975333	0,5	0,089150
24,983667	0,5	0,092800
24,992000	0,5	0,103250
25,000333	0,5	0,107350
25,008667	0,5	0,115800
25,017000	0,5	0,118450
25,025333	0,5	0,116150
25,033667	0,5	0,120100
25,042000	0,5	0,124450
25,050333	0,5	0,130300
25,058667	0,5	0,136500
25,067000	0,5	0,139200
25,075333	0,5	0,140100
25,083667	0,5	0,144450
25,092000	0,5	0,146550
25,100333	0,5	0,151450
25,108667	0,5	0,151450
25,117000	0,5	0,145500
25,125333	0,5	0,145750
25,133667	0,5	0,151600
25,142000	0,5	0,151150
25,150333	0,5	0,152500
25,158667	0,5	0,155450
25,167000	0,5	0,152350
25,175333	0,5	0,157300
25,183667	0,5	0,156450
25,192000	0,5	0,160550
25,200333	0,5	0,157950
25,208667	0,5	0,161400
25,217000	0,5	0,161600
25,225333	0,5	0,161300
25,233667	0,5	0,164200
25,242000	0,5	0,165750
25,250333	0,5	0,166250
25,258667	0,5	0,166850
25,267000	0,5	0,172650
25,275333	0,5	0,178350
25,283667	0,5	0,178000
25,292000	0,5	0,177100
25,300333	0,5	0,179500
25,308667	0,5	0,181300
25,317000	0,5	0,182400
25,325333	0,5	0,184350
25,333667	0,5	0,181750
25,342000	0,5	0,182750
25,350333	0,5	0,183950
25,358667	0,5	0,184200
25,367000	0,5	0,182550
25,375333	0,5	0,190050
25,383667	0,5	0,185300
25,392000	0,5	0,187100
25,400333	0,5	0,190000
25,408667	0,5	0,198050
25,417000	0,5	0,202400
25,425333	0,5	0,204850
25,433667	0,5	0,200850
25,442000	0,5	0,202100
25,450333	0,5	0,202400
25,458667	0,5	0,205500
25,467000	0,5	0,215600
25,475333	0,5	0,213300
25,483667	0,5	0,211200
25,492000	0,5	0,214350
25,500333	0,5	0,217750
25,508667	0,5	0,215550
25,517000	0,5	0,217000
25,525333	0,5	0,217700
25,533667	0,5	0,215050
25,542000	0,5	0,218600
25,550333	0,5	0,220950
25,558667	0,5	0,240800
25,567000	0,5	0,236800
25,575333	0,5	0,242450
25,583667	0,5	0,230100
25,592000	0,5	0,229300
25,600333	0,5	0,232650
25,608667	0,5	0,228900
25,617000	0,5	0,240600
25,625333	0,5	0,238650
25,633667	0,5	0,239500
25,642000	0,5	0,238950
25,650333	0,5	0,243100
25,658667	0,5	0,238450
25,667000	0,5	0,242000
25,675333	0,5	0,239350
25,683667	0,5	0,241150
25,692000	0,5	0,241600
25,700333	0,5	0,252200
25,708667	0,5	0,259950
25,717000	0,5	0,267150
25,725333	0,5	0,256150
25,733667	0,5	0,254050
25,742000	0,5	0,251250
25,750333	0,5	0,251250
25,758667	0,5	0,265150
25,767000	0,5	0,269550
25,775333	0,5	0,264300
25,783667	0,5	0,262050
25,792000	0,5	0,262950
25,800333	0,5	0,263450
25,808667	0,5	0,267150
25,817000	0,5	0,263850
25,825333	0,5	0,270050
25,833667	0,5	0,270900
25,842000	0,5	0,271150
25,850333	0,5	0,290800
25,858667	0,5	0,303150
25,867000	0,5	0,298850
25,875333	0,5	0,287700
25,883667	0,5	0,282400
25,892000	0,5	0,285050
25,900333	0,5	0,285250
25,908667	0,5	0,296750
25,917000	0,5	0,297900
25,925333	0,5	0,300850
25,933667	0,5	0,297450
25,942000	0,5	0,298100
25,950333	0,5	0,297500
25,958667	0,5	0,300200
25,967000	0,5	0,301650
25,975333	0,5	0,296100
25,983667	0,5	0,301500
25,992000	0,5	0,306800
26,000333	0,5	0,314800
