File Path	chrom://chromeleon01/ikbm_chromeleon/2022/ICS-5000/ED1/Esteban/20220427_Cell_Amandas_mutants.seq/222.smp/ED_1.channel/ED_1.chm
Channel	ED_1

Injection Information:
Data Vault	ikbm_chromeleon
Injection	Blank
Injection Number	2
Position	RA1
Comment	
Processing Method	Stop sequence after Cell Death
Instrument Method	ICS5000_PA200_FullNative_Ox_26min_ED1
Type	Blank
Status	Finished
Injection Date	27.04.2022
Injection Time	12:31:31
Injection Volume (µl)	5,0
Dilution Factor	1,0000
Weight	1,0000

Chromatogram Data Information:
Time Min. (min)	0,000333
Time Max. (min)	26,000333
Data Points	3121
Detector	EDet1
Generating Data System	Chromeleon 7.2.9.11323
Exporting Data System	Chromeleon 7.2.9.0
Operator	Instrument Controller
Signal Quantity	
Signal Unit	nC
Signal Min.	-0,631600
Signal Max.	5,100250
Channel	ED_1
Driver Name	DC-5000
Channel Type	Evaluation
Min. Step (s)	0,5
Max. Step (s)	0,5
Average Step (s)	0,5

Signal Parameter Information:
Signal Info	

Chromatogram Data:
Time (min)	Step (s)	Value (nC)
0,000333	n.a.	-0,015200
0,008667	0,5	-0,000550
0,017000	0,5	0,005200
0,025333	0,5	-0,005700
0,033667	0,5	-0,016250
0,042000	0,5	-0,016800
0,050333	0,5	-0,024850
0,058667	0,5	-0,019450
0,067000	0,5	-0,032150
0,075333	0,5	-0,025200
0,083667	0,5	-0,025700
0,092000	0,5	-0,027950
0,100333	0,5	-0,016550
0,108667	0,5	-0,008650
0,117000	0,5	-0,002200
0,125333	0,5	0,007900
0,133667	0,5	0,003800
0,142000	0,5	0,002750
0,150333	0,5	0,021500
0,158667	0,5	0,033650
0,167000	0,5	0,053200
0,175333	0,5	0,047500
0,183667	0,5	0,062250
0,192000	0,5	0,067500
0,200333	0,5	0,085300
0,208667	0,5	0,083750
0,217000	0,5	0,097750
0,225333	0,5	0,104000
0,233667	0,5	0,115450
0,242000	0,5	0,128000
0,250333	0,5	0,148300
0,258667	0,5	0,152800
0,267000	0,5	0,162400
0,275333	0,5	0,188350
0,283667	0,5	0,201100
0,292000	0,5	0,214250
0,300333	0,5	0,231400
0,308667	0,5	0,259150
0,317000	0,5	0,263900
0,325333	0,5	0,288300
0,333667	0,5	0,293600
0,342000	0,5	0,317350
0,350333	0,5	0,324200
0,358667	0,5	0,336750
0,367000	0,5	0,354450
0,375333	0,5	0,370900
0,383667	0,5	0,378600
0,392000	0,5	0,404450
0,400333	0,5	0,427550
0,408667	0,5	0,427600
0,417000	0,5	0,458150
0,425333	0,5	0,483800
0,433667	0,5	0,498500
0,442000	0,5	0,520000
0,450333	0,5	0,544550
0,458667	0,5	0,570700
0,467000	0,5	0,583050
0,475333	0,5	0,596500
0,483667	0,5	0,616950
0,492000	0,5	0,630300
0,500333	0,5	0,645550
0,508667	0,5	0,657000
0,517000	0,5	0,672700
0,525333	0,5	0,680900
0,533667	0,5	0,707150
0,542000	0,5	0,731000
0,550333	0,5	0,723300
0,558667	0,5	0,760850
0,567000	0,5	0,790300
0,575333	0,5	0,813000
0,583667	0,5	0,832350
0,592000	0,5	0,858550
0,600333	0,5	0,880700
0,608667	0,5	0,896850
0,617000	0,5	0,900450
0,625333	0,5	0,923050
0,633667	0,5	0,941000
0,642000	0,5	0,950750
0,650333	0,5	0,960650
0,658667	0,5	0,980100
0,667000	0,5	0,987000
0,675333	0,5	1,003300
0,683667	0,5	1,014350
0,692000	0,5	1,034200
0,700333	0,5	1,022300
0,708667	0,5	1,038950
0,717000	0,5	1,075600
0,725333	0,5	1,097000
0,733667	0,5	1,106700
0,742000	0,5	1,125200
0,750333	0,5	1,145950
0,758667	0,5	1,153300
0,767000	0,5	1,163100
0,775333	0,5	1,175400
0,783667	0,5	1,188350
0,792000	0,5	1,187550
0,800333	0,5	1,195900
0,808667	0,5	1,204250
0,817000	0,5	1,210500
0,825333	0,5	1,212450
0,833667	0,5	1,228050
0,842000	0,5	1,209800
0,850333	0,5	1,216400
0,858667	0,5	1,236800
0,867000	0,5	1,253700
0,875333	0,5	1,263550
0,883667	0,5	1,272650
0,892000	0,5	1,284750
0,900333	0,5	1,295550
0,908667	0,5	1,293000
0,917000	0,5	1,303600
0,925333	0,5	1,312350
0,933667	0,5	1,309300
0,942000	0,5	1,314600
0,950333	0,5	1,316150
0,958667	0,5	1,310050
0,967000	0,5	1,311600
0,975333	0,5	1,317650
0,983667	0,5	1,318600
0,992000	0,5	1,267800
1,000333	0,5	1,283300
1,008667	0,5	1,300150
1,017000	0,5	1,304050
1,025333	0,5	1,314150
1,033667	0,5	1,318450
1,042000	0,5	1,321750
1,050333	0,5	1,320850
1,058667	0,5	1,318150
1,067000	0,5	1,318000
1,075333	0,5	1,319250
1,083667	0,5	1,318850
1,092000	0,5	1,320600
1,100333	0,5	1,320450
1,108667	0,5	1,316650
1,117000	0,5	1,316900
1,125333	0,5	1,322050
1,133667	0,5	1,303750
1,142000	0,5	1,274850
1,150333	0,5	1,274150
1,158667	0,5	1,286100
1,167000	0,5	1,298350
1,175333	0,5	1,294750
1,183667	0,5	1,299750
1,192000	0,5	1,290250
1,200333	0,5	1,283900
1,208667	0,5	1,283850
1,217000	0,5	1,279200
1,225333	0,5	1,274950
1,233667	0,5	1,274000
1,242000	0,5	1,271600
1,250333	0,5	1,266900
1,258667	0,5	1,269900
1,267000	0,5	1,265600
1,275333	0,5	1,266650
1,283667	0,5	1,232050
1,292000	0,5	1,227000
1,300333	0,5	1,228600
1,308667	0,5	1,246950
1,317000	0,5	1,255050
1,325333	0,5	1,261350
1,333667	0,5	1,262700
1,342000	0,5	1,250800
1,350333	0,5	1,248550
1,358667	0,5	1,251850
1,367000	0,5	1,254250
1,375333	0,5	1,247250
1,383667	0,5	1,248300
1,392000	0,5	1,245250
1,400333	0,5	1,239700
1,408667	0,5	1,241000
1,417000	0,5	1,244800
1,425333	0,5	1,233400
1,433667	0,5	1,200400
1,442000	0,5	1,193900
1,450333	0,5	1,202100
1,458667	0,5	1,219100
1,467000	0,5	1,226400
1,475333	0,5	1,235600
1,483667	0,5	1,234450
1,492000	0,5	1,228950
1,500333	0,5	1,236950
1,508667	0,5	1,245350
1,517000	0,5	1,239900
1,525333	0,5	1,244350
1,533667	0,5	1,246300
1,542000	0,5	1,248600
1,550333	0,5	1,248350
1,558667	0,5	1,256800
1,567000	0,5	1,255700
1,575333	0,5	1,241050
1,583667	0,5	1,233150
1,592000	0,5	1,233150
1,600333	0,5	1,243450
1,608667	0,5	1,257350
1,617000	0,5	1,261000
1,625333	0,5	1,269600
1,633667	0,5	1,257100
1,642000	0,5	1,260700
1,650333	0,5	1,274900
1,658667	0,5	1,277550
1,667000	0,5	1,281700
1,675333	0,5	1,283900
1,683667	0,5	1,289950
1,692000	0,5	1,294700
1,700333	0,5	1,302300
1,708667	0,5	1,311200
1,717000	0,5	1,317850
1,725333	0,5	1,294650
1,733667	0,5	1,308100
1,742000	0,5	1,311800
1,750333	0,5	1,325950
1,758667	0,5	1,339250
1,767000	0,5	1,354400
1,775333	0,5	1,354150
1,783667	0,5	1,351950
1,792000	0,5	1,356150
1,800333	0,5	1,368100
1,808667	0,5	1,369700
1,817000	0,5	1,375950
1,825333	0,5	1,377500
1,833667	0,5	1,382800
1,842000	0,5	1,390050
1,850333	0,5	1,396150
1,858667	0,5	1,405350
1,867000	0,5	1,406600
1,875333	0,5	1,405300
1,883667	0,5	1,413700
1,892000	0,5	1,419300
1,900333	0,5	1,429350
1,908667	0,5	1,442150
1,917000	0,5	1,454750
1,925333	0,5	1,453550
1,933667	0,5	1,459800
1,942000	0,5	1,468850
1,950333	0,5	1,475700
1,958667	0,5	1,483300
1,967000	0,5	1,491400
1,975333	0,5	1,501850
1,983667	0,5	1,509850
1,992000	0,5	1,518650
2,000333	0,5	1,524150
2,008667	0,5	1,533350
2,017000	0,5	1,534000
2,025333	0,5	1,539750
2,033667	0,5	1,551050
2,042000	0,5	1,555300
2,050333	0,5	1,562400
2,058667	0,5	1,570950
2,067000	0,5	1,582100
2,075333	0,5	1,580450
2,083667	0,5	1,589750
2,092000	0,5	1,594650
2,100333	0,5	1,597050
2,108667	0,5	1,610050
2,117000	0,5	1,611050
2,125333	0,5	1,617650
2,133667	0,5	1,626350
2,142000	0,5	1,635850
2,150333	0,5	1,644450
2,158667	0,5	1,653250
2,167000	0,5	1,652450
2,175333	0,5	1,665150
2,183667	0,5	1,673500
2,192000	0,5	1,680000
2,200333	0,5	1,687300
2,208667	0,5	1,695000
2,217000	0,5	1,705250
2,225333	0,5	1,718350
2,233667	0,5	1,720400
2,242000	0,5	1,722750
2,250333	0,5	1,729050
2,258667	0,5	1,735800
2,267000	0,5	1,739350
2,275333	0,5	1,745150
2,283667	0,5	1,750200
2,292000	0,5	1,757750
2,300333	0,5	1,763000
2,308667	0,5	1,768500
2,317000	0,5	1,773250
2,325333	0,5	1,782850
2,333667	0,5	1,789750
2,342000	0,5	1,795150
2,350333	0,5	1,799300
2,358667	0,5	1,803850
2,367000	0,5	1,814050
2,375333	0,5	1,826800
2,383667	0,5	1,827000
2,392000	0,5	1,833850
2,400333	0,5	1,840300
2,408667	0,5	1,850950
2,417000	0,5	1,851300
2,425333	0,5	1,858050
2,433667	0,5	1,865400
2,442000	0,5	1,869750
2,450333	0,5	1,875050
2,458667	0,5	1,884250
2,467000	0,5	1,887850
2,475333	0,5	1,902150
2,483667	0,5	1,897150
2,492000	0,5	1,905050
2,500333	0,5	1,903000
2,508667	0,5	1,911650
2,517000	0,5	1,928750
2,525333	0,5	1,938300
2,533667	0,5	1,937550
2,542000	0,5	1,940800
2,550333	0,5	1,946700
2,558667	0,5	1,950600
2,567000	0,5	1,953400
2,575333	0,5	1,960150
2,583667	0,5	1,965700
2,592000	0,5	1,972500
2,600333	0,5	1,981950
2,608667	0,5	1,985650
2,617000	0,5	1,987600
2,625333	0,5	2,003850
2,633667	0,5	2,001050
2,642000	0,5	2,008350
2,650333	0,5	2,013400
2,658667	0,5	2,019950
2,667000	0,5	2,037350
2,675333	0,5	2,045900
2,683667	0,5	2,048750
2,692000	0,5	2,049850
2,700333	0,5	2,056700
2,708667	0,5	2,055100
2,717000	0,5	2,060450
2,725333	0,5	2,069350
2,733667	0,5	2,070650
2,742000	0,5	2,076750
2,750333	0,5	2,081150
2,758667	0,5	2,094800
2,767000	0,5	2,091250
2,775333	0,5	2,107000
2,783667	0,5	2,103200
2,792000	0,5	2,109650
2,800333	0,5	2,115050
2,808667	0,5	2,138100
2,817000	0,5	2,156500
2,825333	0,5	2,159550
2,833667	0,5	2,154750
2,842000	0,5	2,172350
2,850333	0,5	2,168950
2,858667	0,5	2,175850
2,867000	0,5	2,184350
2,875333	0,5	2,192150
2,883667	0,5	2,193400
2,892000	0,5	2,197650
2,900333	0,5	2,205250
2,908667	0,5	2,202250
2,917000	0,5	2,211200
2,925333	0,5	2,221050
2,933667	0,5	2,218350
2,942000	0,5	2,225750
2,950333	0,5	2,233950
2,958667	0,5	2,255400
2,967000	0,5	2,292150
2,975333	0,5	2,285550
2,983667	0,5	2,289900
2,992000	0,5	2,284700
3,000333	0,5	2,294450
3,008667	0,5	2,290450
3,017000	0,5	2,300150
3,025333	0,5	2,304650
3,033667	0,5	2,305300
3,042000	0,5	2,321100
3,050333	0,5	2,319500
3,058667	0,5	2,322250
3,067000	0,5	2,351300
3,075333	0,5	2,341000
3,083667	0,5	2,338550
3,092000	0,5	2,348500
3,100333	0,5	2,353700
3,108667	0,5	2,388050
3,117000	0,5	2,385200
3,125333	0,5	2,400950
3,133667	0,5	2,391700
3,142000	0,5	2,402850
3,150333	0,5	2,400150
3,158667	0,5	2,415150
3,167000	0,5	2,416700
3,175333	0,5	2,420750
3,183667	0,5	2,418050
3,192000	0,5	2,426700
3,200333	0,5	2,434500
3,208667	0,5	2,439500
3,217000	0,5	2,462350
3,225333	0,5	2,451450
3,233667	0,5	2,449250
3,242000	0,5	2,460400
3,250333	0,5	2,471550
3,258667	0,5	2,507600
3,267000	0,5	2,504300
3,275333	0,5	2,495100
3,283667	0,5	2,510050
3,292000	0,5	2,507400
3,300333	0,5	2,514200
3,308667	0,5	2,507550
3,317000	0,5	2,513000
3,325333	0,5	2,511600
3,333667	0,5	2,526650
3,342000	0,5	2,529750
3,350333	0,5	2,530500
3,358667	0,5	2,536350
3,367000	0,5	2,551950
3,375333	0,5	2,536050
3,383667	0,5	2,543400
3,392000	0,5	2,551450
3,400333	0,5	2,571600
3,408667	0,5	2,599800
3,417000	0,5	2,572500
3,425333	0,5	2,578000
3,433667	0,5	2,582100
3,442000	0,5	2,591500
3,450333	0,5	2,594900
3,458667	0,5	2,603200
3,467000	0,5	2,596500
3,475333	0,5	2,600350
3,483667	0,5	2,604900
3,492000	0,5	2,610000
3,500333	0,5	2,589550
3,508667	0,5	2,612500
3,517000	0,5	2,604650
3,525333	0,5	2,599850
3,533667	0,5	2,596100
3,542000	0,5	2,618750
3,550333	0,5	2,644400
3,558667	0,5	2,647050
3,567000	0,5	2,635200
3,575333	0,5	2,641550
3,583667	0,5	2,645950
3,592000	0,5	2,638250
3,600333	0,5	2,638900
3,608667	0,5	2,639150
3,617000	0,5	2,636850
3,625333	0,5	2,634800
3,633667	0,5	2,645650
3,642000	0,5	2,640600
3,650333	0,5	2,629650
3,658667	0,5	2,644550
3,667000	0,5	2,631850
3,675333	0,5	2,625450
3,683667	0,5	2,621700
3,692000	0,5	2,631550
3,700333	0,5	2,667150
3,708667	0,5	2,657550
3,717000	0,5	2,652250
3,725333	0,5	2,639350
3,733667	0,5	2,652150
3,742000	0,5	2,643850
3,750333	0,5	2,640650
3,758667	0,5	2,637850
3,767000	0,5	2,629800
3,775333	0,5	2,636650
3,783667	0,5	2,630500
3,792000	0,5	2,642650
3,800333	0,5	2,623750
3,808667	0,5	2,636500
3,817000	0,5	2,613500
3,825333	0,5	2,613400
3,833667	0,5	2,607400
3,842000	0,5	2,637950
3,850333	0,5	2,656400
3,858667	0,5	2,655400
3,867000	0,5	2,633450
3,875333	0,5	2,643000
3,883667	0,5	2,627600
3,892000	0,5	2,625750
3,900333	0,5	2,616100
3,908667	0,5	2,618400
3,917000	0,5	2,603450
3,925333	0,5	2,611150
3,933667	0,5	2,606450
3,942000	0,5	2,595150
3,950333	0,5	2,612800
3,958667	0,5	2,607100
3,967000	0,5	2,582050
3,975333	0,5	2,576200
3,983667	0,5	2,581900
3,992000	0,5	2,613500
4,000333	0,5	2,637000
4,008667	0,5	2,612350
4,017000	0,5	2,617700
4,025333	0,5	2,614550
4,033667	0,5	2,612200
4,042000	0,5	2,592500
4,050333	0,5	2,598700
4,058667	0,5	2,587700
4,067000	0,5	2,585650
4,075333	0,5	2,585850
4,083667	0,5	2,566850
4,092000	0,5	2,552100
4,100333	0,5	2,580100
4,108667	0,5	2,556150
4,117000	0,5	2,552350
4,125333	0,5	2,554550
4,133667	0,5	2,559650
4,142000	0,5	2,606350
4,150333	0,5	2,597800
4,158667	0,5	2,588900
4,167000	0,5	2,572150
4,175333	0,5	2,581550
4,183667	0,5	2,563700
4,192000	0,5	2,572100
4,200333	0,5	2,564300
4,208667	0,5	2,563600
4,217000	0,5	2,555350
4,225333	0,5	2,555200
4,233667	0,5	2,533750
4,242000	0,5	2,536950
4,250333	0,5	2,550650
4,258667	0,5	2,531100
4,267000	0,5	2,514900
4,275333	0,5	2,519200
4,283667	0,5	2,529850
4,292000	0,5	2,573350
4,300333	0,5	2,549800
4,308667	0,5	2,537600
4,317000	0,5	2,544200
4,325333	0,5	2,530100
4,333667	0,5	2,527900
4,342000	0,5	2,519350
4,350333	0,5	2,517050
4,358667	0,5	2,498300
4,367000	0,5	2,510750
4,375333	0,5	2,509750
4,383667	0,5	2,505800
4,392000	0,5	2,504800
4,400333	0,5	2,510450
4,408667	0,5	2,480650
4,417000	0,5	2,481100
4,425333	0,5	2,475100
4,433667	0,5	2,504350
4,442000	0,5	2,525550
4,450333	0,5	2,492700
4,458667	0,5	2,480750
4,467000	0,5	2,489200
4,475333	0,5	2,474600
4,483667	0,5	2,476600
4,492000	0,5	2,483300
4,500333	0,5	2,465600
4,508667	0,5	2,472700
4,517000	0,5	2,464800
4,525333	0,5	2,473300
4,533667	0,5	2,434700
4,542000	0,5	2,466350
4,550333	0,5	2,435600
4,558667	0,5	2,427700
4,567000	0,5	2,420300
4,575333	0,5	2,436450
4,583667	0,5	2,471000
4,592000	0,5	2,480650
4,600333	0,5	2,452200
4,608667	0,5	2,461150
4,617000	0,5	2,455600
4,625333	0,5	2,450800
4,633667	0,5	2,439850
4,642000	0,5	2,432050
4,650333	0,5	2,423450
4,658667	0,5	2,416400
4,667000	0,5	2,425250
4,675333	0,5	2,406300
4,683667	0,5	2,396450
4,692000	0,5	2,420900
4,700333	0,5	2,401200
4,708667	0,5	2,390300
4,717000	0,5	2,390100
4,725333	0,5	2,400000
4,733667	0,5	2,461600
4,742000	0,5	2,440650
4,750333	0,5	2,439400
4,758667	0,5	2,416700
4,767000	0,5	2,428300
4,775333	0,5	2,407700
4,783667	0,5	2,413500
4,792000	0,5	2,407950
4,800333	0,5	2,398100
4,808667	0,5	2,402050
4,817000	0,5	2,399550
4,825333	0,5	2,389950
4,833667	0,5	2,395150
4,842000	0,5	2,393850
4,850333	0,5	2,366300
4,858667	0,5	2,366300
4,867000	0,5	2,373200
4,875333	0,5	2,413200
4,883667	0,5	2,427800
4,892000	0,5	2,445900
4,900333	0,5	2,418600
4,908667	0,5	2,434150
4,917000	0,5	2,407550
4,925333	0,5	2,409150
4,933667	0,5	2,399900
4,942000	0,5	2,400450
4,950333	0,5	2,384350
4,958667	0,5	2,389250
4,967000	0,5	2,387200
4,975333	0,5	2,388050
4,983667	0,5	2,405350
4,992000	0,5	2,400350
5,000333	0,5	2,368750
5,008667	0,5	2,372200
5,017000	0,5	2,379950
5,025333	0,5	2,424500
5,033667	0,5	2,439050
5,042000	0,5	2,403700
5,050333	0,5	2,411500
5,058667	0,5	2,416300
5,067000	0,5	2,410500
5,075333	0,5	2,398000
5,083667	0,5	2,407400
5,092000	0,5	2,394950
5,100333	0,5	2,408300
5,108667	0,5	2,409350
5,117000	0,5	2,404200
5,125333	0,5	2,380450
5,133667	0,5	2,436000
5,142000	0,5	2,396000
5,150333	0,5	2,389850
5,158667	0,5	2,392250
5,167000	0,5	2,411050
5,175333	0,5	2,462800
5,183667	0,5	2,445050
5,192000	0,5	2,441100
5,200333	0,5	2,441350
5,208667	0,5	2,446750
5,217000	0,5	2,440100
5,225333	0,5	2,447500
5,233667	0,5	2,437550
5,242000	0,5	2,440700
5,250333	0,5	2,432850
5,258667	0,5	2,442400
5,267000	0,5	2,410850
5,275333	0,5	2,425250
5,283667	0,5	2,460000
5,292000	0,5	2,431250
5,300333	0,5	2,424200
5,308667	0,5	2,440350
5,317000	0,5	2,460900
5,325333	0,5	2,506800
5,333667	0,5	2,466200
5,342000	0,5	2,474000
5,350333	0,5	2,477250
5,358667	0,5	2,480600
5,367000	0,5	2,470650
5,375333	0,5	2,476450
5,383667	0,5	2,482100
5,392000	0,5	2,472550
5,400333	0,5	2,492950
5,408667	0,5	2,485200
5,417000	0,5	2,476100
5,425333	0,5	2,498700
5,433667	0,5	2,499900
5,442000	0,5	2,478650
5,450333	0,5	2,474200
5,458667	0,5	2,484500
5,467000	0,5	2,542750
5,475333	0,5	2,577950
5,483667	0,5	2,554200
5,492000	0,5	2,528050
5,500333	0,5	2,545750
5,508667	0,5	2,534300
5,517000	0,5	2,547750
5,525333	0,5	2,551950
5,533667	0,5	2,550200
5,542000	0,5	2,554950
5,550333	0,5	2,552750
5,558667	0,5	2,550900
5,567000	0,5	2,522550
5,575333	0,5	2,559050
5,583667	0,5	2,546350
5,592000	0,5	2,543050
5,600333	0,5	2,538900
5,608667	0,5	2,571900
5,617000	0,5	2,611200
5,625333	0,5	2,635650
5,633667	0,5	2,598550
5,642000	0,5	2,621050
5,650333	0,5	2,610400
5,658667	0,5	2,617700
5,667000	0,5	2,609400
5,675333	0,5	2,625250
5,683667	0,5	2,613950
5,692000	0,5	2,612400
5,700333	0,5	2,620450
5,708667	0,5	2,587950
5,717000	0,5	2,588750
5,725333	0,5	2,625850
5,733667	0,5	2,596150
5,742000	0,5	2,600800
5,750333	0,5	2,603350
5,758667	0,5	2,638300
5,767000	0,5	2,715500
5,775333	0,5	2,688100
5,783667	0,5	2,699400
5,792000	0,5	2,678700
5,800333	0,5	2,692600
5,808667	0,5	2,670950
5,817000	0,5	2,690150
5,825333	0,5	2,685950
5,833667	0,5	2,683700
5,842000	0,5	2,688600
5,850333	0,5	2,681150
5,858667	0,5	2,666400
5,867000	0,5	2,706050
5,875333	0,5	2,696900
5,883667	0,5	2,675300
5,892000	0,5	2,681150
5,900333	0,5	2,686650
5,908667	0,5	2,747000
5,917000	0,5	2,771500
5,925333	0,5	2,774250
5,933667	0,5	2,752750
5,942000	0,5	2,774300
5,950333	0,5	2,756400
5,958667	0,5	2,767750
5,967000	0,5	2,770750
5,975333	0,5	2,769450
5,983667	0,5	2,758350
5,992000	0,5	2,769250
6,000333	0,5	2,750800
6,008667	0,5	2,749150
6,017000	0,5	2,790200
6,025333	0,5	2,776850
6,033667	0,5	2,756100
6,042000	0,5	2,766750
6,050333	0,5	2,767650
6,058667	0,5	2,848800
6,067000	0,5	2,855000
6,075333	0,5	2,826100
6,083667	0,5	2,833150
6,092000	0,5	2,833950
6,100333	0,5	2,833550
6,108667	0,5	2,838050
6,117000	0,5	2,843500
6,125333	0,5	2,833050
6,133667	0,5	2,841950
6,142000	0,5	2,847550
6,150333	0,5	2,855850
6,158667	0,5	2,845100
6,167000	0,5	2,905200
6,175333	0,5	2,847100
6,183667	0,5	2,849700
6,192000	0,5	2,853150
6,200333	0,5	2,883400
6,208667	0,5	2,944150
6,217000	0,5	2,911700
6,225333	0,5	2,905050
6,233667	0,5	2,913500
6,242000	0,5	2,911200
6,250333	0,5	2,921650
6,258667	0,5	2,930450
6,267000	0,5	2,934150
6,275333	0,5	2,931900
6,283667	0,5	2,930450
6,292000	0,5	2,946000
6,300333	0,5	2,914000
6,308667	0,5	2,940050
6,317000	0,5	2,955200
6,325333	0,5	2,935850
6,333667	0,5	2,927900
6,342000	0,5	2,943400
6,350333	0,5	2,985800
6,358667	0,5	3,045800
6,367000	0,5	3,004200
6,375333	0,5	3,015950
6,383667	0,5	3,013000
6,392000	0,5	3,031650
6,400333	0,5	3,021850
6,408667	0,5	3,030100
6,417000	0,5	3,019900
6,425333	0,5	3,017350
6,433667	0,5	3,037800
6,442000	0,5	3,024900
6,450333	0,5	3,021600
6,458667	0,5	3,044050
6,467000	0,5	3,049400
6,475333	0,5	3,028600
6,483667	0,5	3,037600
6,492000	0,5	3,060250
6,500333	0,5	3,116150
6,508667	0,5	3,137600
6,517000	0,5	3,128350
6,525333	0,5	3,116850
6,533667	0,5	3,134200
6,542000	0,5	3,126600
6,550333	0,5	3,156600
6,558667	0,5	3,148350
6,567000	0,5	3,149000
6,575333	0,5	3,152200
6,583667	0,5	3,164700
6,592000	0,5	3,165450
6,600333	0,5	3,153100
6,608667	0,5	3,178950
6,617000	0,5	3,160150
6,625333	0,5	3,160300
6,633667	0,5	3,163600
6,642000	0,5	3,217100
6,650333	0,5	3,261850
6,658667	0,5	3,278900
6,667000	0,5	3,252900
6,675333	0,5	3,278600
6,683667	0,5	3,281050
6,692000	0,5	3,286600
6,700333	0,5	3,275550
6,708667	0,5	3,290050
6,717000	0,5	3,276850
6,725333	0,5	3,293850
6,733667	0,5	3,309100
6,742000	0,5	3,311700
6,750333	0,5	3,324100
6,758667	0,5	3,359650
6,767000	0,5	3,320600
6,775333	0,5	3,329700
6,783667	0,5	3,332500
6,792000	0,5	3,378050
6,800333	0,5	3,428600
6,808667	0,5	3,422400
6,817000	0,5	3,432300
6,825333	0,5	3,428350
6,833667	0,5	3,449400
6,842000	0,5	3,443300
6,850333	0,5	3,458900
6,858667	0,5	3,447900
6,867000	0,5	3,463400
6,875333	0,5	3,474250
6,883667	0,5	3,476550
6,892000	0,5	3,448400
6,900333	0,5	3,499350
6,908667	0,5	3,476700
6,917000	0,5	3,471950
6,925333	0,5	3,474050
6,933667	0,5	3,504850
6,942000	0,5	3,559800
6,950333	0,5	3,568100
6,958667	0,5	3,573350
6,967000	0,5	3,575200
6,975333	0,5	3,583750
6,983667	0,5	3,579500
6,992000	0,5	3,587100
7,000333	0,5	3,592350
7,008667	0,5	3,589150
7,017000	0,5	3,582950
7,025333	0,5	3,597550
7,033667	0,5	3,594050
7,042000	0,5	3,593100
7,050333	0,5	3,633100
7,058667	0,5	3,605500
7,067000	0,5	3,587600
7,075333	0,5	3,598850
7,083667	0,5	3,606550
7,092000	0,5	3,668700
7,100333	0,5	3,645200
7,108667	0,5	3,630950
7,117000	0,5	3,637300
7,125333	0,5	3,650450
7,133667	0,5	3,645500
7,142000	0,5	3,640150
7,150333	0,5	3,640350
7,158667	0,5	3,633350
7,167000	0,5	3,641550
7,175333	0,5	3,641250
7,183667	0,5	3,646800
7,192000	0,5	3,631750
7,200333	0,5	3,668500
7,208667	0,5	3,620400
7,217000	0,5	3,611650
7,225333	0,5	3,613250
7,233667	0,5	3,648050
7,242000	0,5	3,676250
7,250333	0,5	3,656800
7,258667	0,5	3,634800
7,267000	0,5	3,647450
7,275333	0,5	3,636000
7,283667	0,5	3,635900
7,292000	0,5	3,634850
7,300333	0,5	3,629550
7,308667	0,5	3,625750
7,317000	0,5	3,627300
7,325333	0,5	3,648600
7,333667	0,5	3,612500
7,342000	0,5	3,628650
7,350333	0,5	3,633250
7,358667	0,5	3,613450
7,367000	0,5	3,597750
7,375333	0,5	3,616400
7,383667	0,5	3,642100
7,392000	0,5	3,670250
7,400333	0,5	3,639400
7,408667	0,5	3,645800
7,417000	0,5	3,648300
7,425333	0,5	3,652450
7,433667	0,5	3,633250
7,442000	0,5	3,651300
7,450333	0,5	3,632250
7,458667	0,5	3,630550
7,467000	0,5	3,634300
7,475333	0,5	3,626050
7,483667	0,5	3,605500
7,492000	0,5	3,633650
7,500333	0,5	3,614150
7,508667	0,5	3,597900
7,517000	0,5	3,602900
7,525333	0,5	3,615450
7,533667	0,5	3,669000
7,542000	0,5	3,672400
7,550333	0,5	3,660950
7,558667	0,5	3,647400
7,567000	0,5	3,652400
7,575333	0,5	3,631100
7,583667	0,5	3,636050
7,592000	0,5	3,628950
7,600333	0,5	3,626050
7,608667	0,5	3,622200
7,617000	0,5	3,626200
7,625333	0,5	3,612200
7,633667	0,5	3,616500
7,642000	0,5	3,624000
7,650333	0,5	3,597000
7,658667	0,5	3,586000
7,667000	0,5	3,578250
7,675333	0,5	3,607950
7,683667	0,5	3,633850
7,692000	0,5	3,637300
7,700333	0,5	3,609650
7,708667	0,5	3,625150
7,717000	0,5	3,617200
7,725333	0,5	3,614400
7,733667	0,5	3,610200
7,742000	0,5	3,605350
7,750333	0,5	3,587200
7,758667	0,5	3,585900
7,767000	0,5	3,583550
7,775333	0,5	3,584500
7,783667	0,5	3,590450
7,792000	0,5	3,583400
7,800333	0,5	3,553400
7,808667	0,5	3,552200
7,817000	0,5	3,550750
7,825333	0,5	3,592500
7,833667	0,5	3,608350
7,842000	0,5	3,595150
7,850333	0,5	3,584800
7,858667	0,5	3,583750
7,867000	0,5	3,579050
7,875333	0,5	3,561050
7,883667	0,5	3,569800
7,892000	0,5	3,554200
7,900333	0,5	3,559350
7,908667	0,5	3,551800
7,917000	0,5	3,559950
7,925333	0,5	3,529950
7,933667	0,5	3,565700
7,942000	0,5	3,530550
7,950333	0,5	3,516000
7,958667	0,5	3,513600
7,967000	0,5	3,517900
7,975333	0,5	3,563000
7,983667	0,5	3,557950
7,992000	0,5	3,542350
8,000333	0,5	3,552200
8,008667	0,5	3,551950
8,017000	0,5	3,548400
8,025333	0,5	3,543900
8,033667	0,5	3,546300
8,042000	0,5	3,538900
8,050333	0,5	3,525850
8,058667	0,5	3,531650
8,067000	0,5	3,503450
8,075333	0,5	3,500200
8,083667	0,5	3,531900
8,092000	0,5	3,509000
8,100333	0,5	3,505600
8,108667	0,5	3,513550
8,117000	0,5	3,517800
8,125333	0,5	3,564750
8,133667	0,5	3,537600
8,142000	0,5	3,533850
8,150333	0,5	3,526700
8,158667	0,5	3,537600
8,167000	0,5	3,526800
8,175333	0,5	3,528600
8,183667	0,5	3,517100
8,192000	0,5	3,507550
8,200333	0,5	3,527700
8,208667	0,5	3,523950
8,217000	0,5	3,511550
8,225333	0,5	3,505350
8,233667	0,5	3,516950
8,242000	0,5	3,489600
8,250333	0,5	3,482300
8,258667	0,5	3,484050
8,267000	0,5	3,510700
8,275333	0,5	3,532850
8,283667	0,5	3,521300
8,292000	0,5	3,505600
8,300333	0,5	3,524700
8,308667	0,5	3,507700
8,317000	0,5	3,509050
8,325333	0,5	3,507450
8,333667	0,5	3,502000
8,342000	0,5	3,499200
8,350333	0,5	3,498600
8,358667	0,5	3,508150
8,367000	0,5	3,488250
8,375333	0,5	3,499050
8,383667	0,5	3,490050
8,392000	0,5	3,475950
8,400333	0,5	3,473550
8,408667	0,5	3,489250
8,417000	0,5	3,516650
8,425333	0,5	3,531950
8,433667	0,5	3,504450
8,442000	0,5	3,510750
8,450333	0,5	3,502400
8,458667	0,5	3,508100
8,467000	0,5	3,498350
8,475333	0,5	3,498400
8,483667	0,5	3,485500
8,492000	0,5	3,499100
8,500333	0,5	3,498200
8,508667	0,5	3,487900
8,517000	0,5	3,473650
8,525333	0,5	3,505350
8,533667	0,5	3,480250
8,542000	0,5	3,472050
8,550333	0,5	3,471800
8,558667	0,5	3,494000
8,567000	0,5	3,531450
8,575333	0,5	3,530250
8,583667	0,5	3,533750
8,592000	0,5	3,542450
8,600333	0,5	3,545050
8,608667	0,5	3,532350
8,617000	0,5	3,541850
8,625333	0,5	3,537200
8,633667	0,5	3,535550
8,642000	0,5	3,538050
8,650333	0,5	3,542000
8,658667	0,5	3,515800
8,667000	0,5	3,528050
8,675333	0,5	3,531350
8,683667	0,5	3,520600
8,692000	0,5	3,521850
8,700333	0,5	3,536950
8,708667	0,5	3,569600
8,717000	0,5	3,584450
8,725333	0,5	3,591500
8,733667	0,5	3,583900
8,742000	0,5	3,590600
8,750333	0,5	3,588000
8,758667	0,5	3,592450
8,767000	0,5	3,591500
8,775333	0,5	3,594750
8,783667	0,5	3,591300
8,792000	0,5	3,598950
8,800333	0,5	3,590150
8,808667	0,5	3,586250
8,817000	0,5	3,605400
8,825333	0,5	3,607950
8,833667	0,5	3,587200
8,842000	0,5	3,589550
8,850333	0,5	3,594150
8,858667	0,5	3,636800
8,867000	0,5	3,641650
8,875333	0,5	3,638000
8,883667	0,5	3,643200
8,892000	0,5	3,651900
8,900333	0,5	3,649850
8,908667	0,5	3,641800
8,917000	0,5	3,643050
8,925333	0,5	3,638750
8,933667	0,5	3,638750
8,942000	0,5	3,638350
8,950333	0,5	3,644550
8,958667	0,5	3,621300
8,967000	0,5	3,657650
8,975333	0,5	3,628350
8,983667	0,5	3,634000
8,992000	0,5	3,633800
9,000333	0,5	3,645250
9,008667	0,5	3,679500
9,017000	0,5	3,672450
9,025333	0,5	3,660750
9,033667	0,5	3,667150
9,042000	0,5	3,665550
9,050333	0,5	3,669150
9,058667	0,5	3,673700
9,067000	0,5	3,681300
9,075333	0,5	3,678050
9,083667	0,5	3,683500
9,092000	0,5	3,695700
9,100333	0,5	3,676600
9,108667	0,5	3,683300
9,117000	0,5	3,703200
9,125333	0,5	3,689050
9,133667	0,5	3,684650
9,142000	0,5	3,696650
9,150333	0,5	3,713500
9,158667	0,5	3,750150
9,167000	0,5	3,728000
9,175333	0,5	3,738500
9,183667	0,5	3,742600
9,192000	0,5	3,748900
9,200333	0,5	3,740300
9,208667	0,5	3,749550
9,217000	0,5	3,741750
9,225333	0,5	3,742350
9,233667	0,5	3,747700
9,242000	0,5	3,751500
9,250333	0,5	3,745750
9,258667	0,5	3,761600
9,267000	0,5	3,759900
9,275333	0,5	3,744050
9,283667	0,5	3,746550
9,292000	0,5	3,749250
9,300333	0,5	3,777150
9,308667	0,5	3,790100
9,317000	0,5	3,783600
9,325333	0,5	3,769150
9,333667	0,5	3,782800
9,342000	0,5	3,766150
9,350333	0,5	3,775450
9,358667	0,5	3,768350
9,367000	0,5	3,763250
9,375333	0,5	3,756500
9,383667	0,5	3,764850
9,392000	0,5	3,764600
9,400333	0,5	3,750100
9,408667	0,5	3,754150
9,417000	0,5	3,743550
9,425333	0,5	3,728350
9,433667	0,5	3,718500
9,442000	0,5	3,727200
9,450333	0,5	3,751950
9,458667	0,5	3,754150
9,467000	0,5	3,733050
9,475333	0,5	3,729150
9,483667	0,5	3,727100
9,492000	0,5	3,723200
9,500333	0,5	3,709250
9,508667	0,5	3,702650
9,517000	0,5	3,682950
9,525333	0,5	3,677150
9,533667	0,5	3,670450
9,542000	0,5	3,660800
9,550333	0,5	3,649350
9,558667	0,5	3,656550
9,567000	0,5	3,632500
9,575333	0,5	3,621650
9,583667	0,5	3,610300
9,592000	0,5	3,628950
9,600333	0,5	3,644050
9,608667	0,5	3,632800
9,617000	0,5	3,626750
9,625333	0,5	3,616350
9,633667	0,5	3,612500
9,642000	0,5	3,604350
9,650333	0,5	3,605550
9,658667	0,5	3,592200
9,667000	0,5	3,585750
9,675333	0,5	3,575450
9,683667	0,5	3,574850
9,692000	0,5	3,553600
9,700333	0,5	3,566400
9,708667	0,5	3,550200
9,717000	0,5	3,538600
9,725333	0,5	3,527400
9,733667	0,5	3,535300
9,742000	0,5	3,555100
9,750333	0,5	3,561350
9,758667	0,5	3,553350
9,767000	0,5	3,542350
9,775333	0,5	3,537900
9,783667	0,5	3,539950
9,792000	0,5	3,533350
9,800333	0,5	3,528950
9,808667	0,5	3,521350
9,817000	0,5	3,512150
9,825333	0,5	3,506950
9,833667	0,5	3,498250
9,842000	0,5	3,485300
9,850333	0,5	3,504550
9,858667	0,5	3,488650
9,867000	0,5	3,476550
9,875333	0,5	3,472350
9,883667	0,5	3,475400
9,892000	0,5	3,499700
9,900333	0,5	3,488850
9,908667	0,5	3,480050
9,917000	0,5	3,466600
9,925333	0,5	3,472100
9,933667	0,5	3,457250
9,942000	0,5	3,451850
9,950333	0,5	3,447250
9,958667	0,5	3,432550
9,967000	0,5	3,434050
9,975333	0,5	3,426150
9,983667	0,5	3,433550
9,992000	0,5	3,419650
10,000333	0,5	3,428500
10,008667	0,5	3,399950
10,017000	0,5	3,395250
10,025333	0,5	3,388100
10,033667	0,5	3,396150
10,042000	0,5	3,411400
10,050333	0,5	3,395600
10,058667	0,5	3,382650
10,067000	0,5	3,385900
10,075333	0,5	3,371950
10,083667	0,5	3,375150
10,092000	0,5	3,370400
10,100333	0,5	3,363550
10,108667	0,5	3,356400
10,117000	0,5	3,349800
10,125333	0,5	3,348150
10,133667	0,5	3,331600
10,142000	0,5	3,333450
10,150333	0,5	3,330700
10,158667	0,5	3,316650
10,167000	0,5	3,311200
10,175333	0,5	3,309850
10,183667	0,5	3,319700
10,192000	0,5	3,340800
10,200333	0,5	3,317000
10,208667	0,5	3,321100
10,217000	0,5	3,318750
10,225333	0,5	3,316650
10,233667	0,5	3,308800
10,242000	0,5	3,306500
10,250333	0,5	3,296900
10,258667	0,5	3,298450
10,267000	0,5	3,297450
10,275333	0,5	3,290500
10,283667	0,5	3,274250
10,292000	0,5	3,286400
10,300333	0,5	3,277600
10,308667	0,5	3,270850
10,317000	0,5	3,265200
10,325333	0,5	3,272350
10,333667	0,5	3,292500
10,342000	0,5	3,302900
10,350333	0,5	3,299150
10,358667	0,5	3,288850
10,367000	0,5	3,293800
10,375333	0,5	3,283300
10,383667	0,5	3,295150
10,392000	0,5	3,284450
10,400333	0,5	3,285950
10,408667	0,5	3,288100
10,417000	0,5	3,290150
10,425333	0,5	3,285400
10,433667	0,5	3,285400
10,442000	0,5	3,295300
10,450333	0,5	3,295150
10,458667	0,5	3,291600
10,467000	0,5	3,300050
10,475333	0,5	3,318350
10,483667	0,5	3,343350
10,492000	0,5	3,358050
10,500333	0,5	3,360250
10,508667	0,5	3,369250
10,517000	0,5	3,366950
10,525333	0,5	3,368450
10,533667	0,5	3,367950
10,542000	0,5	3,372600
10,550333	0,5	3,360700
10,558667	0,5	3,357850
10,567000	0,5	3,354750
10,575333	0,5	3,355550
10,583667	0,5	3,357500
10,592000	0,5	3,365350
10,600333	0,5	3,340600
10,608667	0,5	3,337250
10,617000	0,5	3,327000
10,625333	0,5	3,336650
10,633667	0,5	3,336350
10,642000	0,5	3,326400
10,650333	0,5	3,313750
10,658667	0,5	3,307250
10,667000	0,5	3,293700
10,675333	0,5	3,282350
10,683667	0,5	3,276700
10,692000	0,5	3,270600
10,700333	0,5	3,266900
10,708667	0,5	3,251550
10,717000	0,5	3,246300
10,725333	0,5	3,221900
10,733667	0,5	3,236100
10,742000	0,5	3,216900
10,750333	0,5	3,207200
10,758667	0,5	3,196400
10,767000	0,5	3,199550
10,775333	0,5	3,217100
10,783667	0,5	3,218350
10,792000	0,5	3,216550
10,800333	0,5	3,208900
10,808667	0,5	3,205700
10,817000	0,5	3,201800
10,825333	0,5	3,196900
10,833667	0,5	3,193450
10,842000	0,5	3,187850
10,850333	0,5	3,175500
10,858667	0,5	3,179650
10,867000	0,5	3,165200
10,875333	0,5	3,159100
10,883667	0,5	3,168900
10,892000	0,5	3,157700
10,900333	0,5	3,136900
10,908667	0,5	3,128100
10,917000	0,5	3,127550
10,925333	0,5	3,135500
10,933667	0,5	3,113650
10,942000	0,5	3,103000
10,950333	0,5	3,092000
10,958667	0,5	3,083400
10,967000	0,5	3,065350
10,975333	0,5	3,058150
10,983667	0,5	3,052550
10,992000	0,5	3,041850
11,000333	0,5	3,036150
11,008667	0,5	3,030850
11,017000	0,5	3,021100
11,025333	0,5	3,012300
11,033667	0,5	3,014000
11,042000	0,5	2,989150
11,050333	0,5	2,978200
11,058667	0,5	2,970800
11,067000	0,5	2,982900
11,075333	0,5	2,991250
11,083667	0,5	2,983650
11,092000	0,5	2,974850
11,100333	0,5	2,978350
11,108667	0,5	2,970150
11,117000	0,5	2,974000
11,125333	0,5	2,967800
11,133667	0,5	2,968550
11,142000	0,5	2,966850
11,150333	0,5	2,962650
11,158667	0,5	2,969450
11,167000	0,5	2,955800
11,175333	0,5	2,967200
11,183667	0,5	2,963650
11,192000	0,5	2,956850
11,200333	0,5	2,948700
11,208667	0,5	2,959050
11,217000	0,5	2,965100
11,225333	0,5	2,977450
11,233667	0,5	2,961450
11,242000	0,5	2,966700
11,250333	0,5	2,961400
11,258667	0,5	2,959250
11,267000	0,5	2,961500
11,275333	0,5	2,959300
11,283667	0,5	2,952650
11,292000	0,5	2,954200
11,300333	0,5	2,957250
11,308667	0,5	2,952450
11,317000	0,5	2,940200
11,325333	0,5	2,953850
11,333667	0,5	2,942700
11,342000	0,5	2,937950
11,350333	0,5	2,936550
11,358667	0,5	2,946650
11,367000	0,5	2,968350
11,375333	0,5	2,964900
11,383667	0,5	2,967250
11,392000	0,5	2,967400
11,400333	0,5	2,967900
11,408667	0,5	2,966000
11,417000	0,5	2,966150
11,425333	0,5	2,968700
11,433667	0,5	2,965550
11,442000	0,5	2,965850
11,450333	0,5	2,972300
11,458667	0,5	2,967000
11,467000	0,5	2,974450
11,475333	0,5	2,974200
11,483667	0,5	2,971850
11,492000	0,5	2,971250
11,500333	0,5	2,978550
11,508667	0,5	2,997050
11,517000	0,5	3,008800
11,525333	0,5	3,013200
11,533667	0,5	3,012200
11,542000	0,5	3,018750
11,550333	0,5	3,024100
11,558667	0,5	3,030900
11,567000	0,5	3,026750
11,575333	0,5	3,031600
11,583667	0,5	3,040000
11,592000	0,5	3,042700
11,600333	0,5	3,053400
11,608667	0,5	3,060300
11,617000	0,5	3,072200
11,625333	0,5	3,073350
11,633667	0,5	3,073700
11,642000	0,5	3,081200
11,650333	0,5	3,084550
11,658667	0,5	3,107750
11,667000	0,5	3,119250
11,675333	0,5	3,125550
11,683667	0,5	3,132150
11,692000	0,5	3,144900
11,700333	0,5	3,152200
11,708667	0,5	3,164550
11,717000	0,5	3,178400
11,725333	0,5	3,198750
11,733667	0,5	3,219450
11,742000	0,5	3,241850
11,750333	0,5	3,268750
11,758667	0,5	3,283150
11,767000	0,5	3,326950
11,775333	0,5	3,336250
11,783667	0,5	3,354050
11,792000	0,5	3,367900
11,800333	0,5	3,385050
11,808667	0,5	3,405400
11,817000	0,5	3,403850
11,825333	0,5	3,391900
11,833667	0,5	3,386250
11,842000	0,5	3,374400
11,850333	0,5	3,360050
11,858667	0,5	3,347400
11,867000	0,5	3,339850
11,875333	0,5	3,326750
11,883667	0,5	3,320500
11,892000	0,5	3,319500
11,900333	0,5	3,301750
11,908667	0,5	3,304150
11,917000	0,5	3,312650
11,925333	0,5	3,301950
11,933667	0,5	3,304950
11,942000	0,5	3,309150
11,950333	0,5	3,317400
11,958667	0,5	3,332550
11,967000	0,5	3,321400
11,975333	0,5	3,324450
11,983667	0,5	3,323000
11,992000	0,5	3,326550
12,000333	0,5	3,328200
12,008667	0,5	3,337650
12,017000	0,5	3,339750
12,025333	0,5	3,343000
12,033667	0,5	3,348700
12,042000	0,5	3,357800
12,050333	0,5	3,356650
12,058667	0,5	3,357200
12,067000	0,5	3,359750
12,075333	0,5	3,349700
12,083667	0,5	3,345650
12,092000	0,5	3,342200
12,100333	0,5	3,353400
12,108667	0,5	3,363850
12,117000	0,5	3,359150
12,125333	0,5	3,358750
12,133667	0,5	3,358900
12,142000	0,5	3,351950
12,150333	0,5	3,354900
12,158667	0,5	3,353400
12,167000	0,5	3,353200
12,175333	0,5	3,351900
12,183667	0,5	3,349600
12,192000	0,5	3,350800
12,200333	0,5	3,351200
12,208667	0,5	3,355700
12,217000	0,5	3,346750
12,225333	0,5	3,347550
12,233667	0,5	3,347550
12,242000	0,5	3,358000
12,250333	0,5	3,364400
12,258667	0,5	3,372850
12,267000	0,5	3,367900
12,275333	0,5	3,373000
12,283667	0,5	3,371350
12,292000	0,5	3,377750
12,300333	0,5	3,370750
12,308667	0,5	3,381350
12,317000	0,5	3,380000
12,325333	0,5	3,387800
12,333667	0,5	3,388250
12,342000	0,5	3,385150
12,350333	0,5	3,385400
12,358667	0,5	3,399500
12,367000	0,5	3,392600
12,375333	0,5	3,390900
12,383667	0,5	3,396100
12,392000	0,5	3,407900
12,400333	0,5	3,423950
12,408667	0,5	3,431450
12,417000	0,5	3,437150
12,425333	0,5	3,439300
12,433667	0,5	3,447050
12,442000	0,5	3,449400
12,450333	0,5	3,453300
12,458667	0,5	3,454750
12,467000	0,5	3,463350
12,475333	0,5	3,462800
12,483667	0,5	3,473050
12,492000	0,5	3,465200
12,500333	0,5	3,483100
12,508667	0,5	3,485200
12,517000	0,5	3,484800
12,525333	0,5	3,497800
12,533667	0,5	3,509200
12,542000	0,5	3,529400
12,550333	0,5	3,544450
12,558667	0,5	3,555750
12,567000	0,5	3,563300
12,575333	0,5	3,578550
12,583667	0,5	3,589600
12,592000	0,5	3,607250
12,600333	0,5	3,618800
12,608667	0,5	3,630550
12,617000	0,5	3,646550
12,625333	0,5	3,656950
12,633667	0,5	3,662800
12,642000	0,5	3,677600
12,650333	0,5	3,692600
12,658667	0,5	3,700950
12,667000	0,5	3,697700
12,675333	0,5	3,711250
12,683667	0,5	3,721750
12,692000	0,5	3,737650
12,700333	0,5	3,739400
12,708667	0,5	3,742900
12,717000	0,5	3,746700
12,725333	0,5	3,750750
12,733667	0,5	3,758400
12,742000	0,5	3,761200
12,750333	0,5	3,759500
12,758667	0,5	3,762750
12,767000	0,5	3,766600
12,775333	0,5	3,772150
12,783667	0,5	3,775400
12,792000	0,5	3,779650
12,800333	0,5	3,794800
12,808667	0,5	3,795150
12,817000	0,5	3,805400
12,825333	0,5	3,820700
12,833667	0,5	3,842450
12,842000	0,5	3,879450
12,850333	0,5	3,904150
12,858667	0,5	3,939800
12,867000	0,5	3,974100
12,875333	0,5	4,011750
12,883667	0,5	4,031850
12,892000	0,5	4,036600
12,900333	0,5	4,026900
12,908667	0,5	4,004250
12,917000	0,5	3,964500
12,925333	0,5	3,928800
12,933667	0,5	3,876050
12,942000	0,5	3,835050
12,950333	0,5	3,800200
12,958667	0,5	3,762950
12,967000	0,5	3,730450
12,975333	0,5	3,705750
12,983667	0,5	3,690600
12,992000	0,5	3,676500
13,000333	0,5	3,652450
13,008667	0,5	3,642000
13,017000	0,5	3,626400
13,025333	0,5	3,623100
13,033667	0,5	3,622100
13,042000	0,5	3,618150
13,050333	0,5	3,610050
13,058667	0,5	3,605150
13,067000	0,5	3,597200
13,075333	0,5	3,576900
13,083667	0,5	3,555900
13,092000	0,5	3,542400
13,100333	0,5	3,525250
13,108667	0,5	3,504200
13,117000	0,5	3,493900
13,125333	0,5	3,485950
13,133667	0,5	3,487100
13,142000	0,5	3,481950
13,150333	0,5	3,470300
13,158667	0,5	3,464750
13,167000	0,5	3,463400
13,175333	0,5	3,452200
13,183667	0,5	3,446000
13,192000	0,5	3,440200
13,200333	0,5	3,433200
13,208667	0,5	3,421350
13,217000	0,5	3,418100
13,225333	0,5	3,410950
13,233667	0,5	3,408900
13,242000	0,5	3,405800
13,250333	0,5	3,397500
13,258667	0,5	3,387950
13,267000	0,5	3,382700
13,275333	0,5	3,386250
13,283667	0,5	3,386150
13,292000	0,5	3,384300
13,300333	0,5	3,377100
13,308667	0,5	3,373700
13,317000	0,5	3,366450
13,325333	0,5	3,368450
13,333667	0,5	3,361650
13,342000	0,5	3,359400
13,350333	0,5	3,354600
13,358667	0,5	3,355400
13,367000	0,5	3,346350
13,375333	0,5	3,345550
13,383667	0,5	3,346050
13,392000	0,5	3,345200
13,400333	0,5	3,336450
13,408667	0,5	3,330250
13,417000	0,5	3,326750
13,425333	0,5	3,329650
13,433667	0,5	3,331100
13,442000	0,5	3,327000
13,450333	0,5	3,325650
13,458667	0,5	3,324000
13,467000	0,5	3,317850
13,475333	0,5	3,315500
13,483667	0,5	3,318850
13,492000	0,5	3,309650
13,500333	0,5	3,305750
13,508667	0,5	3,315400
13,517000	0,5	3,307950
13,525333	0,5	3,299250
13,533667	0,5	3,298150
13,542000	0,5	3,298100
13,550333	0,5	3,290900
13,558667	0,5	3,283150
13,567000	0,5	3,281150
13,575333	0,5	3,287650
13,583667	0,5	3,287900
13,592000	0,5	3,289100
13,600333	0,5	3,291300
13,608667	0,5	3,292050
13,617000	0,5	3,291800
13,625333	0,5	3,289300
13,633667	0,5	3,290000
13,642000	0,5	3,285500
13,650333	0,5	3,280450
13,658667	0,5	3,278900
13,667000	0,5	3,275350
13,675333	0,5	3,277850
13,683667	0,5	3,288950
13,692000	0,5	3,310700
13,700333	0,5	3,339800
13,708667	0,5	3,378250
13,717000	0,5	3,424350
13,725333	0,5	3,476950
13,733667	0,5	3,510050
13,742000	0,5	3,527150
13,750333	0,5	3,518450
13,758667	0,5	3,494400
13,767000	0,5	3,453050
13,775333	0,5	3,411450
13,783667	0,5	3,377200
13,792000	0,5	3,341150
13,800333	0,5	3,320550
13,808667	0,5	3,303100
13,817000	0,5	3,294300
13,825333	0,5	3,290950
13,833667	0,5	3,291900
13,842000	0,5	3,293300
13,850333	0,5	3,288950
13,858667	0,5	3,290800
13,867000	0,5	3,294700
13,875333	0,5	3,286250
13,883667	0,5	3,275550
13,892000	0,5	3,265150
13,900333	0,5	3,248050
13,908667	0,5	3,231950
13,917000	0,5	3,223400
13,925333	0,5	3,212750
13,933667	0,5	3,202950
13,942000	0,5	3,192950
13,950333	0,5	3,191000
13,958667	0,5	3,188250
13,967000	0,5	3,174150
13,975333	0,5	3,171950
13,983667	0,5	3,166200
13,992000	0,5	3,160000
14,000333	0,5	3,154950
14,008667	0,5	3,149050
14,017000	0,5	3,145550
14,025333	0,5	3,154850
14,033667	0,5	3,145000
14,042000	0,5	3,141600
14,050333	0,5	3,140100
14,058667	0,5	3,135450
14,067000	0,5	3,133900
14,075333	0,5	3,127000
14,083667	0,5	3,120950
14,092000	0,5	3,122200
14,100333	0,5	3,123300
14,108667	0,5	3,108550
14,117000	0,5	3,107100
14,125333	0,5	3,105800
14,133667	0,5	3,103350
14,142000	0,5	3,096100
14,150333	0,5	3,095050
14,158667	0,5	3,092900
14,167000	0,5	3,097300
14,175333	0,5	3,098300
14,183667	0,5	3,098950
14,192000	0,5	3,098750
14,200333	0,5	3,100000
14,208667	0,5	3,099600
14,217000	0,5	3,107650
14,225333	0,5	3,113150
14,233667	0,5	3,111400
14,242000	0,5	3,108600
14,250333	0,5	3,103800
14,258667	0,5	3,099400
14,267000	0,5	3,089150
14,275333	0,5	3,075650
14,283667	0,5	3,060750
14,292000	0,5	3,058050
14,300333	0,5	3,051850
14,308667	0,5	3,052900
14,317000	0,5	3,057800
14,325333	0,5	3,060050
14,333667	0,5	3,060300
14,342000	0,5	3,065800
14,350333	0,5	3,077400
14,358667	0,5	3,088650
14,367000	0,5	3,113950
14,375333	0,5	3,152150
14,383667	0,5	3,203850
14,392000	0,5	3,264700
14,400333	0,5	3,320600
14,408667	0,5	3,363000
14,417000	0,5	3,374400
14,425333	0,5	3,359650
14,433667	0,5	3,322050
14,442000	0,5	3,272150
14,450333	0,5	3,227000
14,458667	0,5	3,194350
14,467000	0,5	3,177950
14,475333	0,5	3,165000
14,483667	0,5	3,155900
14,492000	0,5	3,162800
14,500333	0,5	3,164400
14,508667	0,5	3,170650
14,517000	0,5	3,172800
14,525333	0,5	3,165200
14,533667	0,5	3,151950
14,542000	0,5	3,137300
14,550333	0,5	3,120100
14,558667	0,5	3,103350
14,567000	0,5	3,090450
14,575333	0,5	3,080000
14,583667	0,5	3,071400
14,592000	0,5	3,061400
14,600333	0,5	3,053550
14,608667	0,5	3,050050
14,617000	0,5	3,047200
14,625333	0,5	3,039800
14,633667	0,5	3,029300
14,642000	0,5	3,030000
14,650333	0,5	3,021850
14,658667	0,5	3,017100
14,667000	0,5	3,007250
14,675333	0,5	3,005400
14,683667	0,5	2,998850
14,692000	0,5	2,993900
14,700333	0,5	2,983700
14,708667	0,5	2,985900
14,717000	0,5	2,979650
14,725333	0,5	2,972450
14,733667	0,5	2,972850
14,742000	0,5	2,975850
14,750333	0,5	2,980050
14,758667	0,5	2,991000
14,767000	0,5	2,997100
14,775333	0,5	3,003950
14,783667	0,5	3,006000
14,792000	0,5	2,999850
14,800333	0,5	2,986500
14,808667	0,5	2,979050
14,817000	0,5	2,964750
14,825333	0,5	2,954800
14,833667	0,5	2,945900
14,842000	0,5	2,937950
14,850333	0,5	2,927600
14,858667	0,5	2,922250
14,867000	0,5	2,918950
14,875333	0,5	2,916700
14,883667	0,5	2,911250
14,892000	0,5	2,912150
14,900333	0,5	2,910150
14,908667	0,5	2,917900
14,917000	0,5	2,924000
14,925333	0,5	2,924350
14,933667	0,5	2,937600
14,942000	0,5	2,968900
14,950333	0,5	3,002500
14,958667	0,5	3,061600
14,967000	0,5	3,128600
14,975333	0,5	3,189800
14,983667	0,5	3,239550
14,992000	0,5	3,255850
15,000333	0,5	3,240000
15,008667	0,5	3,200000
15,017000	0,5	3,147200
15,025333	0,5	3,103500
15,033667	0,5	3,068600
15,042000	0,5	3,046650
15,050333	0,5	3,044450
15,058667	0,5	3,045250
15,067000	0,5	3,048850
15,075333	0,5	3,046050
15,083667	0,5	3,041750
15,092000	0,5	3,027950
15,100333	0,5	3,009700
15,108667	0,5	2,994300
15,117000	0,5	2,976800
15,125333	0,5	2,965150
15,133667	0,5	2,951800
15,142000	0,5	2,943400
15,150333	0,5	2,932050
15,158667	0,5	2,922050
15,167000	0,5	2,919500
15,175333	0,5	2,910350
15,183667	0,5	2,907050
15,192000	0,5	2,901150
15,200333	0,5	2,901250
15,208667	0,5	2,902600
15,217000	0,5	2,904050
15,225333	0,5	2,907650
15,233667	0,5	2,911750
15,242000	0,5	2,915450
15,250333	0,5	2,912900
15,258667	0,5	2,905650
15,267000	0,5	2,900750
15,275333	0,5	2,895300
15,283667	0,5	2,886600
15,292000	0,5	2,881800
15,300333	0,5	2,871000
15,308667	0,5	2,863600
15,317000	0,5	2,850900
15,325333	0,5	2,841650
15,333667	0,5	2,833900
15,342000	0,5	2,820850
15,350333	0,5	2,820400
15,358667	0,5	2,814200
15,367000	0,5	2,811050
15,375333	0,5	2,807200
15,383667	0,5	2,811450
15,392000	0,5	2,804350
15,400333	0,5	2,805500
15,408667	0,5	2,805550
15,417000	0,5	2,805650
15,425333	0,5	2,805750
15,433667	0,5	2,817700
15,442000	0,5	2,834650
15,450333	0,5	2,870150
15,458667	0,5	2,918550
15,467000	0,5	2,980450
15,475333	0,5	3,051900
15,483667	0,5	3,118550
15,492000	0,5	3,157300
15,500333	0,5	3,167950
15,508667	0,5	3,142000
15,517000	0,5	3,098250
15,525333	0,5	3,057000
15,533667	0,5	3,027900
15,542000	0,5	3,008050
15,550333	0,5	3,000900
15,558667	0,5	2,997700
15,567000	0,5	2,986550
15,575333	0,5	2,973000
15,583667	0,5	2,957100
15,592000	0,5	2,929100
15,600333	0,5	2,911100
15,608667	0,5	2,890400
15,617000	0,5	2,877150
15,625333	0,5	2,858550
15,633667	0,5	2,849550
15,642000	0,5	2,840150
15,650333	0,5	2,845800
15,658667	0,5	2,842350
15,667000	0,5	2,843950
15,675333	0,5	2,834200
15,683667	0,5	2,828850
15,692000	0,5	2,816400
15,700333	0,5	2,812300
15,708667	0,5	2,804150
15,717000	0,5	2,798750
15,725333	0,5	2,786750
15,733667	0,5	2,789700
15,742000	0,5	2,773550
15,750333	0,5	2,769800
15,758667	0,5	2,761700
15,767000	0,5	2,749050
15,775333	0,5	2,734000
15,783667	0,5	2,717550
15,792000	0,5	2,714100
15,800333	0,5	2,703250
15,808667	0,5	2,697200
15,817000	0,5	2,691300
15,825333	0,5	2,675550
15,833667	0,5	2,671700
15,842000	0,5	2,671450
15,850333	0,5	2,666350
15,858667	0,5	2,664650
15,867000	0,5	2,665750
15,875333	0,5	2,669250
15,883667	0,5	2,679950
15,892000	0,5	2,703300
15,900333	0,5	2,737800
15,908667	0,5	2,793300
15,917000	0,5	2,863150
15,925333	0,5	2,940050
15,933667	0,5	3,003000
15,942000	0,5	3,034800
15,950333	0,5	3,035650
15,958667	0,5	3,008150
15,967000	0,5	2,967800
15,975333	0,5	2,930500
15,983667	0,5	2,904350
15,992000	0,5	2,877600
16,000333	0,5	2,862550
16,008667	0,5	2,847650
16,017000	0,5	2,826550
16,025333	0,5	2,806650
16,033667	0,5	2,790900
16,042000	0,5	2,771600
16,050333	0,5	2,759300
16,058667	0,5	2,748100
16,067000	0,5	2,731450
16,075333	0,5	2,717700
16,083667	0,5	2,704500
16,092000	0,5	2,700850
16,100333	0,5	2,698150
16,108667	0,5	2,696550
16,117000	0,5	2,697000
16,125333	0,5	2,694650
16,133667	0,5	2,688200
16,142000	0,5	2,686450
16,150333	0,5	2,674600
16,158667	0,5	2,668450
16,167000	0,5	2,654250
16,175333	0,5	2,645700
16,183667	0,5	2,630350
16,192000	0,5	2,622550
16,200333	0,5	2,609300
16,208667	0,5	2,601550
16,217000	0,5	2,585750
16,225333	0,5	2,579200
16,233667	0,5	2,566850
16,242000	0,5	2,570000
16,250333	0,5	2,566550
16,258667	0,5	2,567550
16,267000	0,5	2,566400
16,275333	0,5	2,571000
16,283667	0,5	2,580950
16,292000	0,5	2,593900
16,300333	0,5	2,626900
16,308667	0,5	2,670350
16,317000	0,5	2,740350
16,325333	0,5	2,822450
16,333667	0,5	2,894400
16,342000	0,5	2,938300
16,350333	0,5	2,953600
16,358667	0,5	2,934500
16,367000	0,5	2,899100
16,375333	0,5	2,856550
16,383667	0,5	2,835350
16,392000	0,5	2,810350
16,400333	0,5	2,791350
16,408667	0,5	2,767350
16,417000	0,5	2,745400
16,425333	0,5	2,712800
16,433667	0,5	2,688250
16,442000	0,5	2,673550
16,450333	0,5	2,655600
16,458667	0,5	2,645800
16,467000	0,5	2,645950
16,475333	0,5	2,639350
16,483667	0,5	2,643850
16,492000	0,5	2,641300
16,500333	0,5	2,647300
16,508667	0,5	2,637150
16,517000	0,5	2,624600
16,525333	0,5	2,620400
16,533667	0,5	2,611850
16,542000	0,5	2,604900
16,550333	0,5	2,591400
16,558667	0,5	2,577000
16,567000	0,5	2,562650
16,575333	0,5	2,550200
16,583667	0,5	2,541250
16,592000	0,5	2,526350
16,600333	0,5	2,513400
16,608667	0,5	2,504650
16,617000	0,5	2,506850
16,625333	0,5	2,496300
16,633667	0,5	2,505500
16,642000	0,5	2,518300
16,650333	0,5	2,531350
16,658667	0,5	2,547150
16,667000	0,5	2,583200
16,675333	0,5	2,650150
16,683667	0,5	2,732750
16,692000	0,5	2,815350
16,700333	0,5	2,887100
16,708667	0,5	2,939650
16,717000	0,5	2,950950
16,725333	0,5	2,945950
16,733667	0,5	2,925750
16,742000	0,5	2,907450
16,750333	0,5	2,891850
16,758667	0,5	2,893850
16,767000	0,5	2,897300
16,775333	0,5	2,891200
16,783667	0,5	2,905850
16,792000	0,5	2,915800
16,800333	0,5	2,915550
16,808667	0,5	2,912300
16,817000	0,5	2,904750
16,825333	0,5	2,898250
16,833667	0,5	2,876900
16,842000	0,5	2,847000
16,850333	0,5	2,815700
16,858667	0,5	2,786900
16,867000	0,5	2,751300
16,875333	0,5	2,724150
16,883667	0,5	2,703050
16,892000	0,5	2,678800
16,900333	0,5	2,652850
16,908667	0,5	2,634750
16,917000	0,5	2,612350
16,925333	0,5	2,593050
16,933667	0,5	2,578600
16,942000	0,5	2,568950
16,950333	0,5	2,555100
16,958667	0,5	2,542800
16,967000	0,5	2,538400
16,975333	0,5	2,541800
16,983667	0,5	2,554800
16,992000	0,5	2,583900
17,000333	0,5	2,630400
17,008667	0,5	2,692800
17,017000	0,5	2,762450
17,025333	0,5	2,832250
17,033667	0,5	2,868050
17,042000	0,5	2,874500
17,050333	0,5	2,850750
17,058667	0,5	2,809900
17,067000	0,5	2,768500
17,075333	0,5	2,733800
17,083667	0,5	2,702750
17,092000	0,5	2,669100
17,100333	0,5	2,640600
17,108667	0,5	2,620050
17,117000	0,5	2,614050
17,125333	0,5	2,611550
17,133667	0,5	2,620050
17,142000	0,5	2,625700
17,150333	0,5	2,628750
17,158667	0,5	2,632950
17,167000	0,5	2,646400
17,175333	0,5	2,653750
17,183667	0,5	2,663250
17,192000	0,5	2,674900
17,200333	0,5	2,691450
17,208667	0,5	2,703350
17,217000	0,5	2,717400
17,225333	0,5	2,759500
17,233667	0,5	2,804700
17,242000	0,5	2,868000
17,250333	0,5	2,953600
17,258667	0,5	3,074450
17,267000	0,5	3,242650
17,275333	0,5	3,462300
17,283667	0,5	3,723700
17,292000	0,5	4,035500
17,300333	0,5	4,361300
17,308667	0,5	4,664700
17,317000	0,5	4,908900
17,325333	0,5	5,059300
17,333667	0,5	5,100250
17,342000	0,5	5,026900
17,350333	0,5	4,876350
17,358667	0,5	4,670500
17,367000	0,5	4,455350
17,375333	0,5	4,240500
17,383667	0,5	4,040100
17,392000	0,5	3,864300
17,400333	0,5	3,704500
17,408667	0,5	3,588200
17,417000	0,5	3,484950
17,425333	0,5	3,401650
17,433667	0,5	3,333900
17,442000	0,5	3,271450
17,450333	0,5	3,217700
17,458667	0,5	3,169950
17,467000	0,5	3,126000
17,475333	0,5	3,083700
17,483667	0,5	3,044200
17,492000	0,5	3,019300
17,500333	0,5	2,993200
17,508667	0,5	2,960700
17,517000	0,5	2,953350
17,525333	0,5	2,944500
17,533667	0,5	2,942900
17,542000	0,5	2,958450
17,550333	0,5	2,971550
17,558667	0,5	3,062850
17,567000	0,5	3,086500
17,575333	0,5	3,133050
17,583667	0,5	3,163000
17,592000	0,5	3,173800
17,600333	0,5	3,144350
17,608667	0,5	3,104600
17,617000	0,5	3,061350
17,625333	0,5	3,003800
17,633667	0,5	2,958350
17,642000	0,5	2,915800
17,650333	0,5	2,882400
17,658667	0,5	2,852500
17,667000	0,5	2,825050
17,675333	0,5	2,808450
17,683667	0,5	2,781200
17,692000	0,5	2,750950
17,700333	0,5	2,734900
17,708667	0,5	2,716950
17,717000	0,5	2,699050
17,725333	0,5	2,671500
17,733667	0,5	2,657400
17,742000	0,5	2,638950
17,750333	0,5	2,628100
17,758667	0,5	2,614700
17,767000	0,5	2,612350
17,775333	0,5	2,610350
17,783667	0,5	2,615600
17,792000	0,5	2,652250
17,800333	0,5	2,674050
17,808667	0,5	2,717000
17,817000	0,5	2,750250
17,825333	0,5	2,760350
17,833667	0,5	2,748950
17,842000	0,5	2,716800
17,850333	0,5	2,692750
17,858667	0,5	2,661050
17,867000	0,5	2,633850
17,875333	0,5	2,607050
17,883667	0,5	2,591700
17,892000	0,5	2,576850
17,900333	0,5	2,559050
17,908667	0,5	2,548750
17,917000	0,5	2,537550
17,925333	0,5	2,523550
17,933667	0,5	2,509900
17,942000	0,5	2,501100
17,950333	0,5	2,485900
17,958667	0,5	2,488250
17,967000	0,5	2,481650
17,975333	0,5	2,479650
17,983667	0,5	2,472800
17,992000	0,5	2,466000
18,000333	0,5	2,483900
18,008667	0,5	2,510900
18,017000	0,5	2,544950
18,025333	0,5	2,572000
18,033667	0,5	2,600700
18,042000	0,5	2,604050
18,050333	0,5	2,598550
18,058667	0,5	2,572100
18,067000	0,5	2,539650
18,075333	0,5	2,509300
18,083667	0,5	2,491100
18,092000	0,5	2,468900
18,100333	0,5	2,454300
18,108667	0,5	2,443650
18,117000	0,5	2,431800
18,125333	0,5	2,422800
18,133667	0,5	2,392900
18,142000	0,5	2,394800
18,150333	0,5	2,389350
18,158667	0,5	2,393100
18,167000	0,5	2,388250
18,175333	0,5	2,393700
18,183667	0,5	2,391900
18,192000	0,5	2,399050
18,200333	0,5	2,411450
18,208667	0,5	2,437850
18,217000	0,5	2,462800
18,225333	0,5	2,501800
18,233667	0,5	2,512300
18,242000	0,5	2,503250
18,250333	0,5	2,492850
18,258667	0,5	2,469300
18,267000	0,5	2,444850
18,275333	0,5	2,422800
18,283667	0,5	2,388700
18,292000	0,5	2,374850
18,300333	0,5	2,367550
18,308667	0,5	2,357900
18,317000	0,5	2,341150
18,325333	0,5	2,339250
18,333667	0,5	2,335200
18,342000	0,5	2,328450
18,350333	0,5	2,332950
18,358667	0,5	2,329300
18,367000	0,5	2,330550
18,375333	0,5	2,339800
18,383667	0,5	2,356750
18,392000	0,5	2,375850
18,400333	0,5	2,411950
18,408667	0,5	2,428100
18,417000	0,5	2,431300
18,425333	0,5	2,398600
18,433667	0,5	2,376950
18,442000	0,5	2,359150
18,450333	0,5	2,334200
18,458667	0,5	2,320850
18,467000	0,5	2,306400
18,475333	0,5	2,301000
18,483667	0,5	2,293400
18,492000	0,5	2,291000
18,500333	0,5	2,285250
18,508667	0,5	2,282750
18,517000	0,5	2,283200
18,525333	0,5	2,294250
18,533667	0,5	2,286200
18,542000	0,5	2,299350
18,550333	0,5	2,315150
18,558667	0,5	2,340650
18,567000	0,5	2,354000
18,575333	0,5	2,352850
18,583667	0,5	2,350750
18,592000	0,5	2,342450
18,600333	0,5	2,323400
18,608667	0,5	2,305000
18,617000	0,5	2,296600
18,625333	0,5	2,291250
18,633667	0,5	2,279150
18,642000	0,5	2,282250
18,650333	0,5	2,273300
18,658667	0,5	2,264000
18,667000	0,5	2,269000
18,675333	0,5	2,269450
18,683667	0,5	2,260950
18,692000	0,5	2,271100
18,700333	0,5	2,277650
18,708667	0,5	2,283200
18,717000	0,5	2,292550
18,725333	0,5	2,286050
18,733667	0,5	2,301950
18,742000	0,5	2,300750
18,750333	0,5	2,293600
18,758667	0,5	2,286600
18,767000	0,5	2,287100
18,775333	0,5	2,278000
18,783667	0,5	2,278600
18,792000	0,5	2,271900
18,800333	0,5	2,269050
18,808667	0,5	2,268550
18,817000	0,5	2,276800
18,825333	0,5	2,283550
18,833667	0,5	2,288500
18,842000	0,5	2,309300
18,850333	0,5	2,329650
18,858667	0,5	2,359800
18,867000	0,5	2,381700
18,875333	0,5	2,402000
18,883667	0,5	2,431600
18,892000	0,5	2,454450
18,900333	0,5	2,452700
18,908667	0,5	2,444050
18,917000	0,5	2,431200
18,925333	0,5	2,421850
18,933667	0,5	2,404550
18,942000	0,5	2,392600
18,950333	0,5	2,378550
18,958667	0,5	2,358450
18,967000	0,5	2,362650
18,975333	0,5	2,356900
18,983667	0,5	2,368800
18,992000	0,5	2,383550
19,000333	0,5	2,385500
19,008667	0,5	2,377700
19,017000	0,5	2,355500
19,025333	0,5	2,337450
19,033667	0,5	2,331050
19,042000	0,5	2,316000
19,050333	0,5	2,313000
19,058667	0,5	2,293300
19,067000	0,5	2,295800
19,075333	0,5	2,297700
19,083667	0,5	2,307300
19,092000	0,5	2,316900
19,100333	0,5	2,331100
19,108667	0,5	2,350250
19,117000	0,5	2,348650
19,125333	0,5	2,339550
19,133667	0,5	2,343200
19,142000	0,5	2,328850
19,150333	0,5	2,317100
19,158667	0,5	2,294000
19,167000	0,5	2,283700
19,175333	0,5	2,303100
19,183667	0,5	2,316950
19,192000	0,5	2,312600
19,200333	0,5	2,321600
19,208667	0,5	2,333250
19,217000	0,5	2,334650
19,225333	0,5	2,348950
19,233667	0,5	2,344000
19,242000	0,5	2,338100
19,250333	0,5	2,327250
19,258667	0,5	2,331400
19,267000	0,5	2,314800
19,275333	0,5	2,314100
19,283667	0,5	2,313250
19,292000	0,5	2,304050
19,300333	0,5	2,308500
19,308667	0,5	2,290300
19,317000	0,5	2,292200
19,325333	0,5	2,293300
19,333667	0,5	2,302700
19,342000	0,5	2,294800
19,350333	0,5	2,296400
19,358667	0,5	2,286250
19,367000	0,5	2,282200
19,375333	0,5	2,272150
19,383667	0,5	2,272650
19,392000	0,5	2,270450
19,400333	0,5	2,267100
19,408667	0,5	2,280700
19,417000	0,5	2,278550
19,425333	0,5	2,279350
19,433667	0,5	2,276850
19,442000	0,5	2,266750
19,450333	0,5	2,246250
19,458667	0,5	2,222600
19,467000	0,5	2,218200
19,475333	0,5	2,232550
19,483667	0,5	2,231950
19,492000	0,5	2,231300
19,500333	0,5	2,229650
19,508667	0,5	2,227500
19,517000	0,5	2,213900
19,525333	0,5	2,211100
19,533667	0,5	2,205200
19,542000	0,5	2,203900
19,550333	0,5	2,210750
19,558667	0,5	2,205700
19,567000	0,5	2,187800
19,575333	0,5	2,194700
19,583667	0,5	2,189100
19,592000	0,5	2,183000
19,600333	0,5	2,171400
19,608667	0,5	2,150450
19,617000	0,5	2,160950
19,625333	0,5	2,145200
19,633667	0,5	2,137600
19,642000	0,5	2,124550
19,650333	0,5	2,121000
19,658667	0,5	2,116900
19,667000	0,5	2,108500
19,675333	0,5	2,098850
19,683667	0,5	2,093150
19,692000	0,5	2,082900
19,700333	0,5	2,089450
19,708667	0,5	2,076350
19,717000	0,5	2,071400
19,725333	0,5	2,069650
19,733667	0,5	2,060600
19,742000	0,5	2,034050
19,750333	0,5	2,017800
19,758667	0,5	2,011000
19,767000	0,5	2,005000
19,775333	0,5	2,002200
19,783667	0,5	1,993450
19,792000	0,5	1,989900
19,800333	0,5	1,974750
19,808667	0,5	1,966500
19,817000	0,5	1,958550
19,825333	0,5	1,944750
19,833667	0,5	1,935750
19,842000	0,5	1,938950
19,850333	0,5	1,929800
19,858667	0,5	1,910300
19,867000	0,5	1,903950
19,875333	0,5	1,893450
19,883667	0,5	1,877350
19,892000	0,5	1,857250
19,900333	0,5	1,839400
19,908667	0,5	1,821550
19,917000	0,5	1,821300
19,925333	0,5	1,814150
19,933667	0,5	1,806550
19,942000	0,5	1,794900
19,950333	0,5	1,783150
19,958667	0,5	1,776200
19,967000	0,5	1,772050
19,975333	0,5	1,756350
19,983667	0,5	1,747500
19,992000	0,5	1,748350
20,000333	0,5	1,746700
20,008667	0,5	1,725800
20,017000	0,5	1,721950
20,025333	0,5	1,711150
20,033667	0,5	1,696600
20,042000	0,5	1,664250
20,050333	0,5	1,644300
20,058667	0,5	1,642050
20,067000	0,5	1,631500
20,075333	0,5	1,620900
20,083667	0,5	1,605600
20,092000	0,5	1,598950
20,100333	0,5	1,584350
20,108667	0,5	1,577500
20,117000	0,5	1,558850
20,125333	0,5	1,554450
20,133667	0,5	1,538950
20,142000	0,5	1,536900
20,150333	0,5	1,523650
20,158667	0,5	1,503300
20,167000	0,5	1,493500
20,175333	0,5	1,482700
20,183667	0,5	1,460650
20,192000	0,5	1,438950
20,200333	0,5	1,429650
20,208667	0,5	1,423700
20,217000	0,5	1,408700
20,225333	0,5	1,401600
20,233667	0,5	1,387850
20,242000	0,5	1,374500
20,250333	0,5	1,358400
20,258667	0,5	1,349550
20,267000	0,5	1,340000
20,275333	0,5	1,320450
20,283667	0,5	1,325450
20,292000	0,5	1,310000
20,300333	0,5	1,288400
20,308667	0,5	1,283000
20,317000	0,5	1,269050
20,325333	0,5	1,250350
20,333667	0,5	1,237850
20,342000	0,5	1,211150
20,350333	0,5	1,208950
20,358667	0,5	1,197100
20,367000	0,5	1,180150
20,375333	0,5	1,170000
20,383667	0,5	1,167050
20,392000	0,5	1,138600
20,400333	0,5	1,128550
20,408667	0,5	1,119300
20,417000	0,5	1,104850
20,425333	0,5	1,093000
20,433667	0,5	1,086500
20,442000	0,5	1,070350
20,450333	0,5	1,059800
20,458667	0,5	1,044000
20,467000	0,5	1,034700
20,475333	0,5	1,011500
20,483667	0,5	0,960250
20,492000	0,5	0,959400
20,500333	0,5	0,948450
20,508667	0,5	0,946600
20,517000	0,5	0,922600
20,525333	0,5	0,924550
20,533667	0,5	0,909050
20,542000	0,5	0,903150
20,550333	0,5	0,889850
20,558667	0,5	0,869300
20,567000	0,5	0,856050
20,575333	0,5	0,854200
20,583667	0,5	0,846950
20,592000	0,5	0,829650
20,600333	0,5	0,815750
20,608667	0,5	0,800500
20,617000	0,5	0,782150
20,625333	0,5	0,747400
20,633667	0,5	0,712350
20,642000	0,5	0,705750
20,650333	0,5	0,699050
20,658667	0,5	0,679700
20,667000	0,5	0,669100
20,675333	0,5	0,649100
20,683667	0,5	0,637650
20,692000	0,5	0,621350
20,700333	0,5	0,608750
20,708667	0,5	0,596600
20,717000	0,5	0,584450
20,725333	0,5	0,584100
20,733667	0,5	0,581750
20,742000	0,5	0,564600
20,750333	0,5	0,559050
20,758667	0,5	0,548800
20,767000	0,5	0,533450
20,775333	0,5	0,513800
20,783667	0,5	0,487000
20,792000	0,5	0,481500
20,800333	0,5	0,468100
20,808667	0,5	0,454900
20,817000	0,5	0,435100
20,825333	0,5	0,426600
20,833667	0,5	0,402450
20,842000	0,5	0,389200
20,850333	0,5	0,382500
20,858667	0,5	0,361100
20,867000	0,5	0,359850
20,875333	0,5	0,360600
20,883667	0,5	0,344850
20,892000	0,5	0,330650
20,900333	0,5	0,315900
20,908667	0,5	0,293850
20,917000	0,5	0,263950
20,925333	0,5	0,234650
20,933667	0,5	0,227300
20,942000	0,5	0,217500
20,950333	0,5	0,214450
20,958667	0,5	0,195300
20,967000	0,5	0,190800
20,975333	0,5	0,178300
20,983667	0,5	0,160950
20,992000	0,5	0,144250
21,000333	0,5	0,123650
21,008667	0,5	0,123300
21,017000	0,5	0,122200
21,025333	0,5	0,123000
21,033667	0,5	0,105950
21,042000	0,5	0,095550
21,050333	0,5	0,080050
21,058667	0,5	0,069850
21,067000	0,5	0,028900
21,075333	0,5	0,016300
21,083667	0,5	0,002450
21,092000	0,5	0,000150
21,100333	0,5	-0,021700
21,108667	0,5	-0,022150
21,117000	0,5	-0,035000
21,125333	0,5	-0,043750
21,133667	0,5	-0,045550
21,142000	0,5	-0,064750
21,150333	0,5	-0,072600
21,158667	0,5	-0,072650
21,167000	0,5	-0,062100
21,175333	0,5	-0,072450
21,183667	0,5	-0,085500
21,192000	0,5	-0,100650
21,200333	0,5	-0,109450
21,208667	0,5	-0,140950
21,217000	0,5	-0,165250
21,225333	0,5	-0,184750
21,233667	0,5	-0,182700
21,242000	0,5	-0,198350
21,250333	0,5	-0,201300
21,258667	0,5	-0,212550
21,267000	0,5	-0,224550
21,275333	0,5	-0,234600
21,283667	0,5	-0,231500
21,292000	0,5	-0,238950
21,300333	0,5	-0,245250
21,308667	0,5	-0,226350
21,317000	0,5	-0,207050
21,325333	0,5	-0,212200
21,333667	0,5	-0,210850
21,342000	0,5	-0,209900
21,350333	0,5	-0,231950
21,358667	0,5	-0,251300
21,367000	0,5	-0,273500
21,375333	0,5	-0,279800
21,383667	0,5	-0,303650
21,392000	0,5	-0,306400
21,400333	0,5	-0,319900
21,408667	0,5	-0,324650
21,417000	0,5	-0,348150
21,425333	0,5	-0,352450
21,433667	0,5	-0,365800
21,442000	0,5	-0,374350
21,450333	0,5	-0,375400
21,458667	0,5	-0,356350
21,467000	0,5	-0,355100
21,475333	0,5	-0,368200
21,483667	0,5	-0,375700
21,492000	0,5	-0,384600
21,500333	0,5	-0,405450
21,508667	0,5	-0,440700
21,517000	0,5	-0,439900
21,525333	0,5	-0,446300
21,533667	0,5	-0,446250
21,542000	0,5	-0,463900
21,550333	0,5	-0,466050
21,558667	0,5	-0,471700
21,567000	0,5	-0,470750
21,575333	0,5	-0,481300
21,583667	0,5	-0,492550
21,592000	0,5	-0,495250
21,600333	0,5	-0,480150
21,608667	0,5	-0,466900
21,617000	0,5	-0,475850
21,625333	0,5	-0,471350
21,633667	0,5	-0,484950
21,642000	0,5	-0,503000
21,650333	0,5	-0,520300
21,658667	0,5	-0,532750
21,667000	0,5	-0,528650
21,675333	0,5	-0,517050
21,683667	0,5	-0,517050
21,692000	0,5	-0,492900
21,700333	0,5	-0,487750
21,708667	0,5	-0,484450
21,717000	0,5	-0,491850
21,725333	0,5	-0,492000
21,733667	0,5	-0,516900
21,742000	0,5	-0,531900
21,750333	0,5	-0,514850
21,758667	0,5	-0,520200
21,767000	0,5	-0,531900
21,775333	0,5	-0,526800
21,783667	0,5	-0,537850
21,792000	0,5	-0,564250
21,800333	0,5	-0,585150
21,808667	0,5	-0,598200
21,817000	0,5	-0,595150
21,825333	0,5	-0,610300
21,833667	0,5	-0,601250
21,842000	0,5	-0,610600
21,850333	0,5	-0,611550
21,858667	0,5	-0,604550
21,867000	0,5	-0,596600
21,875333	0,5	-0,602450
21,883667	0,5	-0,601400
21,892000	0,5	-0,576950
21,900333	0,5	-0,570500
21,908667	0,5	-0,581550
21,917000	0,5	-0,581200
21,925333	0,5	-0,590150
21,933667	0,5	-0,601400
21,942000	0,5	-0,621700
21,950333	0,5	-0,631600
21,958667	0,5	-0,622600
21,967000	0,5	-0,616250
21,975333	0,5	-0,595100
21,983667	0,5	-0,589150
21,992000	0,5	-0,578050
22,000333	0,5	-0,587350
22,008667	0,5	-0,590350
22,017000	0,5	-0,588000
22,025333	0,5	-0,590400
22,033667	0,5	-0,580000
22,042000	0,5	-0,577900
22,050333	0,5	-0,588400
22,058667	0,5	-0,577300
22,067000	0,5	-0,563850
22,075333	0,5	-0,573300
22,083667	0,5	-0,574600
22,092000	0,5	-0,594900
22,100333	0,5	-0,584550
22,108667	0,5	-0,579450
22,117000	0,5	-0,565100
22,125333	0,5	-0,569250
22,133667	0,5	-0,548650
22,142000	0,5	-0,533600
22,150333	0,5	-0,534800
22,158667	0,5	-0,525700
22,167000	0,5	-0,512450
22,175333	0,5	-0,499200
22,183667	0,5	-0,500750
22,192000	0,5	-0,483350
22,200333	0,5	-0,490950
22,208667	0,5	-0,460700
22,217000	0,5	-0,451700
22,225333	0,5	-0,435100
22,233667	0,5	-0,439300
22,242000	0,5	-0,434550
22,250333	0,5	-0,392700
22,258667	0,5	-0,391900
22,267000	0,5	-0,382650
22,275333	0,5	-0,368600
22,283667	0,5	-0,339500
22,292000	0,5	-0,316250
22,300333	0,5	-0,303500
22,308667	0,5	-0,278200
22,317000	0,5	-0,251350
22,325333	0,5	-0,220250
22,333667	0,5	-0,192700
22,342000	0,5	-0,170050
22,350333	0,5	-0,122550
22,358667	0,5	-0,083000
22,367000	0,5	-0,050350
22,375333	0,5	-0,019300
22,383667	0,5	0,018450
22,392000	0,5	0,051200
22,400333	0,5	0,106650
22,408667	0,5	0,144850
22,417000	0,5	0,188100
22,425333	0,5	0,200650
22,433667	0,5	0,232750
22,442000	0,5	0,241700
22,450333	0,5	0,273600
22,458667	0,5	0,296450
22,467000	0,5	0,313450
22,475333	0,5	0,324600
22,483667	0,5	0,345250
22,492000	0,5	0,364550
22,500333	0,5	0,419100
22,508667	0,5	0,450250
22,517000	0,5	0,486050
22,525333	0,5	0,509450
22,533667	0,5	0,525950
22,542000	0,5	0,577250
22,550333	0,5	0,605450
22,558667	0,5	0,644300
22,567000	0,5	0,673200
22,575333	0,5	0,723950
22,583667	0,5	0,756100
22,592000	0,5	0,797750
22,600333	0,5	0,833700
22,608667	0,5	0,876500
22,617000	0,5	0,920750
22,625333	0,5	0,932750
22,633667	0,5	0,992450
22,642000	0,5	1,056900
22,650333	0,5	1,127600
22,658667	0,5	1,173100
22,667000	0,5	1,208900
22,675333	0,5	1,221200
22,683667	0,5	1,248150
22,692000	0,5	1,265350
22,700333	0,5	1,286900
22,708667	0,5	1,287450
22,717000	0,5	1,299300
22,725333	0,5	1,302200
22,733667	0,5	1,293900
22,742000	0,5	1,296950
22,750333	0,5	1,285850
22,758667	0,5	1,271200
22,767000	0,5	1,223000
22,775333	0,5	1,195350
22,783667	0,5	1,191850
22,792000	0,5	1,183650
22,800333	0,5	1,171800
22,808667	0,5	1,146000
22,817000	0,5	1,114750
22,825333	0,5	1,070750
22,833667	0,5	1,035600
22,842000	0,5	1,003550
22,850333	0,5	0,961750
22,858667	0,5	0,921150
22,867000	0,5	0,880550
22,875333	0,5	0,819850
22,883667	0,5	0,772100
22,892000	0,5	0,720200
22,900333	0,5	0,673850
22,908667	0,5	0,629450
22,917000	0,5	0,555400
22,925333	0,5	0,496350
22,933667	0,5	0,469250
22,942000	0,5	0,414150
22,950333	0,5	0,365700
22,958667	0,5	0,321550
22,967000	0,5	0,268800
22,975333	0,5	0,219600
22,983667	0,5	0,154200
22,992000	0,5	0,108850
23,000333	0,5	0,046400
23,008667	0,5	0,005500
23,017000	0,5	-0,048600
23,025333	0,5	-0,077450
23,033667	0,5	-0,131200
23,042000	0,5	-0,166950
23,050333	0,5	-0,180350
23,058667	0,5	-0,183250
23,067000	0,5	-0,201950
23,075333	0,5	-0,213500
23,083667	0,5	-0,260250
23,092000	0,5	-0,290100
23,100333	0,5	-0,294300
23,108667	0,5	-0,304300
23,117000	0,5	-0,288050
23,125333	0,5	-0,311750
23,133667	0,5	-0,319400
23,142000	0,5	-0,325550
23,150333	0,5	-0,315350
23,158667	0,5	-0,315700
23,167000	0,5	-0,306650
23,175333	0,5	-0,296550
23,183667	0,5	-0,276400
23,192000	0,5	-0,258550
23,200333	0,5	-0,235200
23,208667	0,5	-0,163750
23,217000	0,5	-0,134550
23,225333	0,5	-0,097100
23,233667	0,5	-0,099450
23,242000	0,5	-0,076250
23,250333	0,5	-0,034900
23,258667	0,5	0,008950
23,267000	0,5	0,062700
23,275333	0,5	0,091450
23,283667	0,5	0,104350
23,292000	0,5	0,144600
23,300333	0,5	0,171450
23,308667	0,5	0,208750
23,317000	0,5	0,238450
23,325333	0,5	0,280250
23,333667	0,5	0,299100
23,342000	0,5	0,352050
23,350333	0,5	0,411800
23,358667	0,5	0,437550
23,367000	0,5	0,522400
23,375333	0,5	0,560600
23,383667	0,5	0,572650
23,392000	0,5	0,608600
23,400333	0,5	0,658000
23,408667	0,5	0,705700
23,417000	0,5	0,744650
23,425333	0,5	0,772350
23,433667	0,5	0,808450
23,442000	0,5	0,844800
23,450333	0,5	0,874650
23,458667	0,5	0,901850
23,467000	0,5	0,945600
23,475333	0,5	0,968750
23,483667	0,5	0,999950
23,492000	0,5	1,028900
23,500333	0,5	1,058750
23,508667	0,5	1,074650
23,517000	0,5	1,123950
23,525333	0,5	1,175200
23,533667	0,5	1,199650
23,542000	0,5	1,223700
23,550333	0,5	1,265500
23,558667	0,5	1,301800
23,567000	0,5	1,327900
23,575333	0,5	1,348750
23,583667	0,5	1,368750
23,592000	0,5	1,392450
23,600333	0,5	1,409100
23,608667	0,5	1,427350
23,617000	0,5	1,450550
23,625333	0,5	1,472150
23,633667	0,5	1,491500
23,642000	0,5	1,517450
23,650333	0,5	1,459400
23,658667	0,5	1,488300
23,667000	0,5	1,556000
23,675333	0,5	1,591300
23,683667	0,5	1,610550
23,692000	0,5	1,629600
23,700333	0,5	1,652750
23,708667	0,5	1,665350
23,717000	0,5	1,681150
23,725333	0,5	1,702550
23,733667	0,5	1,716350
23,742000	0,5	1,731150
23,750333	0,5	1,746000
23,758667	0,5	1,760200
23,767000	0,5	1,779650
23,775333	0,5	1,799650
23,783667	0,5	1,813050
23,792000	0,5	1,823400
23,800333	0,5	1,739150
23,808667	0,5	1,780200
23,817000	0,5	1,843300
23,825333	0,5	1,881250
23,833667	0,5	1,907400
23,842000	0,5	1,929050
23,850333	0,5	1,945300
23,858667	0,5	1,958300
23,867000	0,5	1,975250
23,875333	0,5	1,993450
23,883667	0,5	2,002550
23,892000	0,5	2,020600
23,900333	0,5	2,037950
23,908667	0,5	2,052550
23,917000	0,5	2,063750
23,925333	0,5	2,086500
23,933667	0,5	2,097650
23,942000	0,5	2,021450
23,950333	0,5	2,033150
23,958667	0,5	2,048300
23,967000	0,5	2,114650
23,975333	0,5	2,152450
23,983667	0,5	2,178400
23,992000	0,5	2,199150
24,000333	0,5	2,205000
24,008667	0,5	2,234900
24,017000	0,5	2,261550
24,025333	0,5	2,280550
24,033667	0,5	2,301150
24,042000	0,5	2,315650
24,050333	0,5	2,333400
24,058667	0,5	2,345700
24,067000	0,5	2,371750
24,075333	0,5	2,387300
24,083667	0,5	2,388400
24,092000	0,5	2,305100
24,100333	0,5	2,337750
24,108667	0,5	2,361750
24,117000	0,5	2,416050
24,125333	0,5	2,450000
24,133667	0,5	2,473900
24,142000	0,5	2,486050
24,150333	0,5	2,494150
24,158667	0,5	2,520350
24,167000	0,5	2,541900
24,175333	0,5	2,562200
24,183667	0,5	2,577000
24,192000	0,5	2,592300
24,200333	0,5	2,609100
24,208667	0,5	2,628950
24,217000	0,5	2,649500
24,225333	0,5	2,666250
24,233667	0,5	2,643450
24,242000	0,5	2,607200
24,250333	0,5	2,630300
24,258667	0,5	2,672300
24,267000	0,5	2,713600
24,275333	0,5	2,739900
24,283667	0,5	2,758400
24,292000	0,5	2,759200
24,300333	0,5	2,761400
24,308667	0,5	2,786900
24,317000	0,5	2,811300
24,325333	0,5	2,822450
24,333667	0,5	2,839350
24,342000	0,5	2,855750
24,350333	0,5	2,868450
24,358667	0,5	2,885050
24,367000	0,5	2,900050
24,375333	0,5	2,913700
24,383667	0,5	2,857300
24,392000	0,5	2,865200
24,400333	0,5	2,888200
24,408667	0,5	2,919600
24,417000	0,5	2,953550
24,425333	0,5	2,968650
24,433667	0,5	2,987300
24,442000	0,5	2,986800
24,450333	0,5	2,998900
24,458667	0,5	3,021200
24,467000	0,5	3,031350
24,475333	0,5	3,045950
24,483667	0,5	3,060300
24,492000	0,5	3,068000
24,500333	0,5	3,078300
24,508667	0,5	3,087500
24,517000	0,5	3,102850
24,525333	0,5	3,110100
24,533667	0,5	3,066200
24,542000	0,5	3,089700
24,550333	0,5	3,102500
24,558667	0,5	3,126350
24,567000	0,5	3,143400
24,575333	0,5	3,154700
24,583667	0,5	3,161750
24,592000	0,5	3,150950
24,600333	0,5	3,170100
24,608667	0,5	3,177650
24,617000	0,5	3,187650
24,625333	0,5	3,199500
24,633667	0,5	3,208150
24,642000	0,5	3,212900
24,650333	0,5	3,225250
24,658667	0,5	3,235550
24,667000	0,5	3,245050
24,675333	0,5	3,239050
24,683667	0,5	3,233350
24,692000	0,5	3,236800
24,700333	0,5	3,258750
24,708667	0,5	3,271400
24,717000	0,5	3,284300
24,725333	0,5	3,292250
24,733667	0,5	3,293700
24,742000	0,5	3,294050
24,750333	0,5	3,306450
24,758667	0,5	3,305650
24,767000	0,5	3,310900
24,775333	0,5	3,316750
24,783667	0,5	3,325300
24,792000	0,5	3,322550
24,800333	0,5	3,326650
24,808667	0,5	3,332250
24,817000	0,5	3,338600
24,825333	0,5	3,329800
24,833667	0,5	3,337450
24,842000	0,5	3,345950
24,850333	0,5	3,356750
24,858667	0,5	3,362650
24,867000	0,5	3,362900
24,875333	0,5	3,372750
24,883667	0,5	3,368100
24,892000	0,5	3,380350
24,900333	0,5	3,387650
24,908667	0,5	3,385050
24,917000	0,5	3,387550
24,925333	0,5	3,393000
24,933667	0,5	3,396300
24,942000	0,5	3,402700
24,950333	0,5	3,401550
24,958667	0,5	3,401350
24,967000	0,5	3,402650
24,975333	0,5	3,399150
24,983667	0,5	3,406600
24,992000	0,5	3,407650
25,000333	0,5	3,408200
25,008667	0,5	3,410150
25,017000	0,5	3,414700
25,025333	0,5	3,413550
25,033667	0,5	3,416500
25,042000	0,5	3,420700
25,050333	0,5	3,419700
25,058667	0,5	3,422500
25,067000	0,5	3,425050
25,075333	0,5	3,423950
25,083667	0,5	3,429450
25,092000	0,5	3,428850
25,100333	0,5	3,432000
25,108667	0,5	3,437850
25,117000	0,5	3,437550
25,125333	0,5	3,441650
25,133667	0,5	3,443100
25,142000	0,5	3,451000
25,150333	0,5	3,446400
25,158667	0,5	3,445500
25,167000	0,5	3,445150
25,175333	0,5	3,438250
25,183667	0,5	3,441900
25,192000	0,5	3,443200
25,200333	0,5	3,440900
25,208667	0,5	3,443050
25,217000	0,5	3,447150
25,225333	0,5	3,440600
25,233667	0,5	3,438200
25,242000	0,5	3,446100
25,250333	0,5	3,442550
25,258667	0,5	3,442400
25,267000	0,5	3,452100
25,275333	0,5	3,456200
25,283667	0,5	3,457900
25,292000	0,5	3,456350
25,300333	0,5	3,453800
25,308667	0,5	3,453650
25,317000	0,5	3,451250
25,325333	0,5	3,457000
25,333667	0,5	3,458300
25,342000	0,5	3,455150
25,350333	0,5	3,455850
25,358667	0,5	3,451950
25,367000	0,5	3,448900
25,375333	0,5	3,446950
25,383667	0,5	3,445250
25,392000	0,5	3,447950
25,400333	0,5	3,446850
25,408667	0,5	3,449350
25,417000	0,5	3,453350
25,425333	0,5	3,451750
25,433667	0,5	3,452100
25,442000	0,5	3,450850
25,450333	0,5	3,451550
25,458667	0,5	3,451350
25,467000	0,5	3,452500
25,475333	0,5	3,463950
25,483667	0,5	3,462300
25,492000	0,5	3,462400
25,500333	0,5	3,460100
25,508667	0,5	3,458750
25,517000	0,5	3,457700
25,525333	0,5	3,457850
25,533667	0,5	3,457650
25,542000	0,5	3,454050
25,550333	0,5	3,449650
25,558667	0,5	3,455700
25,567000	0,5	3,463250
25,575333	0,5	3,463700
25,583667	0,5	3,466500
25,592000	0,5	3,453550
25,600333	0,5	3,454500
25,608667	0,5	3,449350
25,617000	0,5	3,463450
25,625333	0,5	3,474250
25,633667	0,5	3,467550
25,642000	0,5	3,464450
25,650333	0,5	3,467800
25,658667	0,5	3,463150
25,667000	0,5	3,465200
25,675333	0,5	3,467250
25,683667	0,5	3,463000
25,692000	0,5	3,466450
25,700333	0,5	3,464050
25,708667	0,5	3,470400
25,717000	0,5	3,464800
25,725333	0,5	3,484250
25,733667	0,5	3,473650
25,742000	0,5	3,466650
25,750333	0,5	3,463500
25,758667	0,5	3,466800
25,767000	0,5	3,482600
25,775333	0,5	3,480950
25,783667	0,5	3,479050
25,792000	0,5	3,480600
25,800333	0,5	3,478800
25,808667	0,5	3,484700
25,817000	0,5	3,481400
25,825333	0,5	3,486700
25,833667	0,5	3,487750
25,842000	0,5	3,482550
25,850333	0,5	3,489450
25,858667	0,5	3,484700
25,867000	0,5	3,489650
25,875333	0,5	3,501100
25,883667	0,5	3,489050
25,892000	0,5	3,481150
25,900333	0,5	3,485750
25,908667	0,5	3,493400
25,917000	0,5	3,517100
25,925333	0,5	3,504050
25,933667	0,5	3,505150
25,942000	0,5	3,501850
25,950333	0,5	3,505300
25,958667	0,5	3,498500
25,967000	0,5	3,500800
25,975333	0,5	3,496800
25,983667	0,5	3,498800
25,992000	0,5	3,499200
26,000333	0,5	3,502800
