File Path	chrom://chromeleon01/ikbm_chromeleon/2022/ICS-5000/ED1/Esteban/20220427_Cell_Amandas_mutants.seq/438.smp/ED_1.channel/ED_1.chm
Channel	ED_1

Injection Information:
Data Vault	ikbm_chromeleon
Injection	Blank
Injection Number	3
Position	RA1
Comment	
Processing Method	Stop sequence after Cell Death
Instrument Method	ICS5000_PA200_FullNative_Ox_26min_ED1
Type	Blank
Status	Finished
Injection Date	27.04.2022
Injection Time	12:58:28
Injection Volume (µl)	5,0
Dilution Factor	1,0000
Weight	1,0000

Chromatogram Data Information:
Time Min. (min)	0,000333
Time Max. (min)	26,000333
Data Points	3121
Detector	EDet1
Generating Data System	Chromeleon 7.2.9.11323
Exporting Data System	Chromeleon 7.2.9.0
Operator	Instrument Controller
Signal Quantity	
Signal Unit	nC
Signal Min.	-3,513050
Signal Max.	3,388100
Channel	ED_1
Driver Name	DC-5000
Channel Type	Evaluation
Min. Step (s)	0,5
Max. Step (s)	0,5
Average Step (s)	0,5

Signal Parameter Information:
Signal Info	

Chromatogram Data:
Time (min)	Step (s)	Value (nC)
0,000333	n.a.	-0,034650
0,008667	0,5	0,030450
0,017000	0,5	-0,002950
0,025333	0,5	0,006150
0,033667	0,5	-0,006850
0,042000	0,5	0,011050
0,050333	0,5	-0,007800
0,058667	0,5	-0,013300
0,067000	0,5	-0,015850
0,075333	0,5	-0,020600
0,083667	0,5	-0,017750
0,092000	0,5	-0,026050
0,100333	0,5	-0,052250
0,108667	0,5	-0,044250
0,117000	0,5	-0,042050
0,125333	0,5	-0,055450
0,133667	0,5	-0,064000
0,142000	0,5	-0,057050
0,150333	0,5	-0,033350
0,158667	0,5	-0,033600
0,167000	0,5	-0,032050
0,175333	0,5	-0,050300
0,183667	0,5	-0,043000
0,192000	0,5	-0,051500
0,200333	0,5	-0,053700
0,208667	0,5	-0,061700
0,217000	0,5	-0,061550
0,225333	0,5	-0,077000
0,233667	0,5	-0,066200
0,242000	0,5	-0,077100
0,250333	0,5	-0,094900
0,258667	0,5	-0,086350
0,267000	0,5	-0,098400
0,275333	0,5	-0,110650
0,283667	0,5	-0,120250
0,292000	0,5	-0,095300
0,300333	0,5	-0,067550
0,308667	0,5	-0,061700
0,317000	0,5	-0,084450
0,325333	0,5	-0,084750
0,333667	0,5	-0,087900
0,342000	0,5	-0,099850
0,350333	0,5	-0,105700
0,358667	0,5	-0,112450
0,367000	0,5	-0,130950
0,375333	0,5	-0,123900
0,383667	0,5	-0,137000
0,392000	0,5	-0,137700
0,400333	0,5	-0,154250
0,408667	0,5	-0,131000
0,417000	0,5	-0,159150
0,425333	0,5	-0,156450
0,433667	0,5	-0,166900
0,442000	0,5	-0,146050
0,450333	0,5	-0,113100
0,458667	0,5	-0,117000
0,467000	0,5	-0,139800
0,475333	0,5	-0,139600
0,483667	0,5	-0,147800
0,492000	0,5	-0,145100
0,500333	0,5	-0,146950
0,508667	0,5	-0,152150
0,517000	0,5	-0,158900
0,525333	0,5	-0,163200
0,533667	0,5	-0,170450
0,542000	0,5	-0,208650
0,550333	0,5	-0,202950
0,558667	0,5	-0,199100
0,567000	0,5	-0,214600
0,575333	0,5	-0,220600
0,583667	0,5	-0,214700
0,592000	0,5	-0,170050
0,600333	0,5	-0,134550
0,608667	0,5	-0,159850
0,617000	0,5	-0,163300
0,625333	0,5	-0,177900
0,633667	0,5	-0,177500
0,642000	0,5	-0,192050
0,650333	0,5	-0,184750
0,658667	0,5	-0,197750
0,667000	0,5	-0,207050
0,675333	0,5	-0,202850
0,683667	0,5	-0,220050
0,692000	0,5	-0,234150
0,700333	0,5	-0,185600
0,708667	0,5	-0,209300
0,717000	0,5	-0,233500
0,725333	0,5	-0,232900
0,733667	0,5	-0,242150
0,742000	0,5	-0,187100
0,750333	0,5	-0,201850
0,758667	0,5	-0,197900
0,767000	0,5	-0,224650
0,775333	0,5	-0,207200
0,783667	0,5	-0,227700
0,792000	0,5	-0,217350
0,800333	0,5	-0,221450
0,808667	0,5	-0,230800
0,817000	0,5	-0,233400
0,825333	0,5	-0,237300
0,833667	0,5	-0,250600
0,842000	0,5	-0,264100
0,850333	0,5	-0,217800
0,858667	0,5	-0,257950
0,867000	0,5	-0,268700
0,875333	0,5	-0,270700
0,883667	0,5	-0,257250
0,892000	0,5	-0,204700
0,900333	0,5	-0,212200
0,908667	0,5	-0,245500
0,917000	0,5	-0,238450
0,925333	0,5	-0,246800
0,933667	0,5	-0,240050
0,942000	0,5	-0,248200
0,950333	0,5	-0,241600
0,958667	0,5	-0,258450
0,967000	0,5	-0,257300
0,975333	0,5	-0,256400
0,983667	0,5	-0,282500
0,992000	0,5	-0,287600
1,000333	0,5	-0,241050
1,008667	0,5	-0,280750
1,017000	0,5	-0,286200
1,025333	0,5	-0,281450
1,033667	0,5	-0,259900
1,042000	0,5	-0,209200
1,050333	0,5	-0,260300
1,058667	0,5	-0,251900
1,067000	0,5	-0,256900
1,075333	0,5	-0,247950
1,083667	0,5	-0,255150
1,092000	0,5	-0,252800
1,100333	0,5	-0,260200
1,108667	0,5	-0,262200
1,117000	0,5	-0,265750
1,125333	0,5	-0,270050
1,133667	0,5	-0,300650
1,142000	0,5	-0,276250
1,150333	0,5	-0,284600
1,158667	0,5	-0,289000
1,167000	0,5	-0,302100
1,175333	0,5	-0,284600
1,183667	0,5	-0,249600
1,192000	0,5	-0,229150
1,200333	0,5	-0,233400
1,208667	0,5	-0,246500
1,217000	0,5	-0,246700
1,225333	0,5	-0,264600
1,233667	0,5	-0,262450
1,242000	0,5	-0,262800
1,250333	0,5	-0,258950
1,258667	0,5	-0,266750
1,267000	0,5	-0,260650
1,275333	0,5	-0,280150
1,283667	0,5	-0,289200
1,292000	0,5	-0,276400
1,300333	0,5	-0,279800
1,308667	0,5	-0,297050
1,317000	0,5	-0,302550
1,325333	0,5	-0,279250
1,333667	0,5	-0,232400
1,342000	0,5	-0,227050
1,350333	0,5	-0,249800
1,358667	0,5	-0,256800
1,367000	0,5	-0,240550
1,375333	0,5	-0,255250
1,383667	0,5	-0,251050
1,392000	0,5	-0,268250
1,400333	0,5	-0,264800
1,408667	0,5	-0,261700
1,417000	0,5	-0,272600
1,425333	0,5	-0,271900
1,433667	0,5	-0,283750
1,442000	0,5	-0,259000
1,450333	0,5	-0,293300
1,458667	0,5	-0,295800
1,467000	0,5	-0,306650
1,475333	0,5	-0,266450
1,483667	0,5	-0,233300
1,492000	0,5	-0,236750
1,500333	0,5	-0,254000
1,508667	0,5	-0,237300
1,517000	0,5	-0,255950
1,525333	0,5	-0,258700
1,533667	0,5	-0,268600
1,542000	0,5	-0,268300
1,550333	0,5	-0,279850
1,558667	0,5	-0,272750
1,567000	0,5	-0,269550
1,575333	0,5	-0,303500
1,583667	0,5	-0,285200
1,592000	0,5	-0,294050
1,600333	0,5	-0,310850
1,608667	0,5	-0,308750
1,617000	0,5	-0,294800
1,625333	0,5	-0,257500
1,633667	0,5	-0,232900
1,642000	0,5	-0,261500
1,650333	0,5	-0,246900
1,658667	0,5	-0,258300
1,667000	0,5	-0,250950
1,675333	0,5	-0,267800
1,683667	0,5	-0,257350
1,692000	0,5	-0,271500
1,700333	0,5	-0,267600
1,708667	0,5	-0,263200
1,717000	0,5	-0,282000
1,725333	0,5	-0,298150
1,733667	0,5	-0,247750
1,742000	0,5	-0,283200
1,750333	0,5	-0,294300
1,758667	0,5	-0,294350
1,767000	0,5	-0,289950
1,775333	0,5	-0,231500
1,783667	0,5	-0,254050
1,792000	0,5	-0,255350
1,800333	0,5	-0,268150
1,808667	0,5	-0,242400
1,817000	0,5	-0,261250
1,825333	0,5	-0,257200
1,833667	0,5	-0,278000
1,842000	0,5	-0,271900
1,850333	0,5	-0,276650
1,858667	0,5	-0,265400
1,867000	0,5	-0,262400
1,875333	0,5	-0,271700
1,883667	0,5	-0,245100
1,892000	0,5	-0,278350
1,900333	0,5	-0,291800
1,908667	0,5	-0,285550
1,917000	0,5	-0,275750
1,925333	0,5	-0,232200
1,933667	0,5	-0,243050
1,942000	0,5	-0,264650
1,950333	0,5	-0,256400
1,958667	0,5	-0,265600
1,967000	0,5	-0,265550
1,975333	0,5	-0,270350
1,983667	0,5	-0,263150
1,992000	0,5	-0,276100
2,000333	0,5	-0,278950
2,008667	0,5	-0,263050
2,017000	0,5	-0,281900
2,025333	0,5	-0,288750
2,033667	0,5	-0,262250
2,042000	0,5	-0,303550
2,050333	0,5	-0,298950
2,058667	0,5	-0,296350
2,067000	0,5	-0,263300
2,075333	0,5	-0,236900
2,083667	0,5	-0,268250
2,092000	0,5	-0,267950
2,100333	0,5	-0,266650
2,108667	0,5	-0,259550
2,117000	0,5	-0,266750
2,125333	0,5	-0,264100
2,133667	0,5	-0,273350
2,142000	0,5	-0,270250
2,150333	0,5	-0,277450
2,158667	0,5	-0,280050
2,167000	0,5	-0,307750
2,175333	0,5	-0,282200
2,183667	0,5	-0,294050
2,192000	0,5	-0,308150
2,200333	0,5	-0,314050
2,208667	0,5	-0,282500
2,217000	0,5	-0,255850
2,225333	0,5	-0,224050
2,233667	0,5	-0,249350
2,242000	0,5	-0,249900
2,250333	0,5	-0,254100
2,258667	0,5	-0,258850
2,267000	0,5	-0,264300
2,275333	0,5	-0,260000
2,283667	0,5	-0,269000
2,292000	0,5	-0,275000
2,300333	0,5	-0,263650
2,308667	0,5	-0,277100
2,317000	0,5	-0,278500
2,325333	0,5	-0,263950
2,333667	0,5	-0,286750
2,342000	0,5	-0,305500
2,350333	0,5	-0,298800
2,358667	0,5	-0,281150
2,367000	0,5	-0,241500
2,375333	0,5	-0,234850
2,383667	0,5	-0,241100
2,392000	0,5	-0,264500
2,400333	0,5	-0,256500
2,408667	0,5	-0,263400
2,417000	0,5	-0,254850
2,425333	0,5	-0,261050
2,433667	0,5	-0,275550
2,442000	0,5	-0,275150
2,450333	0,5	-0,280750
2,458667	0,5	-0,283650
2,467000	0,5	-0,266450
2,475333	0,5	-0,262900
2,483667	0,5	-0,292650
2,492000	0,5	-0,299200
2,500333	0,5	-0,305000
2,508667	0,5	-0,254400
2,517000	0,5	-0,234650
2,525333	0,5	-0,232000
2,533667	0,5	-0,259600
2,542000	0,5	-0,248700
2,550333	0,5	-0,267800
2,558667	0,5	-0,266350
2,567000	0,5	-0,272900
2,575333	0,5	-0,270950
2,583667	0,5	-0,288150
2,592000	0,5	-0,279500
2,600333	0,5	-0,273200
2,608667	0,5	-0,263650
2,617000	0,5	-0,235150
2,625333	0,5	-0,264400
2,633667	0,5	-0,293150
2,642000	0,5	-0,299800
2,650333	0,5	-0,293500
2,658667	0,5	-0,250000
2,667000	0,5	-0,236050
2,675333	0,5	-0,270200
2,683667	0,5	-0,266400
2,692000	0,5	-0,273200
2,700333	0,5	-0,266350
2,708667	0,5	-0,262950
2,717000	0,5	-0,253250
2,725333	0,5	-0,274050
2,733667	0,5	-0,272100
2,742000	0,5	-0,278800
2,750333	0,5	-0,266950
2,758667	0,5	-0,289600
2,767000	0,5	-0,236600
2,775333	0,5	-0,281400
2,783667	0,5	-0,285250
2,792000	0,5	-0,290350
2,800333	0,5	-0,275750
2,808667	0,5	-0,221750
2,817000	0,5	-0,245000
2,825333	0,5	-0,252400
2,833667	0,5	-0,260350
2,842000	0,5	-0,252700
2,850333	0,5	-0,263550
2,858667	0,5	-0,253800
2,867000	0,5	-0,272550
2,875333	0,5	-0,268500
2,883667	0,5	-0,276250
2,892000	0,5	-0,255500
2,900333	0,5	-0,284300
2,908667	0,5	-0,272750
2,917000	0,5	-0,244250
2,925333	0,5	-0,276500
2,933667	0,5	-0,285100
2,942000	0,5	-0,277750
2,950333	0,5	-0,259050
2,958667	0,5	-0,217400
2,967000	0,5	-0,247500
2,975333	0,5	-0,256650
2,983667	0,5	-0,253750
2,992000	0,5	-0,252100
3,000333	0,5	-0,259700
3,008667	0,5	-0,252250
3,017000	0,5	-0,246700
3,025333	0,5	-0,263500
3,033667	0,5	-0,250300
3,042000	0,5	-0,254250
3,050333	0,5	-0,256200
3,058667	0,5	-0,254450
3,067000	0,5	-0,249600
3,075333	0,5	-0,271900
3,083667	0,5	-0,276250
3,092000	0,5	-0,264350
3,100333	0,5	-0,230850
3,108667	0,5	-0,203900
3,117000	0,5	-0,225600
3,125333	0,5	-0,237000
3,133667	0,5	-0,227050
3,142000	0,5	-0,236650
3,150333	0,5	-0,240800
3,158667	0,5	-0,242550
3,167000	0,5	-0,251200
3,175333	0,5	-0,250250
3,183667	0,5	-0,245250
3,192000	0,5	-0,238550
3,200333	0,5	-0,262300
3,208667	0,5	-0,232000
3,217000	0,5	-0,239750
3,225333	0,5	-0,253400
3,233667	0,5	-0,261650
3,242000	0,5	-0,245500
3,250333	0,5	-0,221250
3,258667	0,5	-0,191050
3,267000	0,5	-0,219250
3,275333	0,5	-0,203500
3,283667	0,5	-0,214300
3,292000	0,5	-0,214650
3,300333	0,5	-0,220600
3,308667	0,5	-0,205700
3,317000	0,5	-0,213350
3,325333	0,5	-0,218900
3,333667	0,5	-0,211500
3,342000	0,5	-0,241200
3,350333	0,5	-0,245050
3,358667	0,5	-0,224350
3,367000	0,5	-0,244300
3,375333	0,5	-0,251500
3,383667	0,5	-0,241550
3,392000	0,5	-0,216400
3,400333	0,5	-0,180350
3,408667	0,5	-0,175750
3,417000	0,5	-0,170750
3,425333	0,5	-0,185550
3,433667	0,5	-0,175750
3,442000	0,5	-0,198200
3,450333	0,5	-0,189500
3,458667	0,5	-0,197500
3,467000	0,5	-0,190650
3,475333	0,5	-0,201200
3,483667	0,5	-0,207350
3,492000	0,5	-0,209500
3,500333	0,5	-0,189700
3,508667	0,5	-0,185400
3,517000	0,5	-0,208450
3,525333	0,5	-0,210000
3,533667	0,5	-0,216850
3,542000	0,5	-0,170600
3,550333	0,5	-0,161000
3,558667	0,5	-0,157200
3,567000	0,5	-0,176800
3,575333	0,5	-0,157850
3,583667	0,5	-0,169650
3,592000	0,5	-0,166600
3,600333	0,5	-0,170700
3,608667	0,5	-0,167350
3,617000	0,5	-0,172700
3,625333	0,5	-0,168650
3,633667	0,5	-0,161100
3,642000	0,5	-0,175650
3,650333	0,5	-0,153200
3,658667	0,5	-0,169000
3,667000	0,5	-0,183100
3,675333	0,5	-0,179550
3,683667	0,5	-0,177950
3,692000	0,5	-0,135600
3,700333	0,5	-0,125500
3,708667	0,5	-0,143500
3,717000	0,5	-0,137450
3,725333	0,5	-0,152000
3,733667	0,5	-0,149450
3,742000	0,5	-0,151450
3,750333	0,5	-0,144400
3,758667	0,5	-0,155100
3,767000	0,5	-0,154700
3,775333	0,5	-0,153900
3,783667	0,5	-0,158200
3,792000	0,5	-0,181750
3,800333	0,5	-0,124200
3,808667	0,5	-0,162950
3,817000	0,5	-0,165100
3,825333	0,5	-0,168700
3,833667	0,5	-0,155700
3,842000	0,5	-0,106250
3,850333	0,5	-0,134400
3,858667	0,5	-0,145750
3,867000	0,5	-0,141500
3,875333	0,5	-0,139050
3,883667	0,5	-0,146800
3,892000	0,5	-0,149500
3,900333	0,5	-0,149300
3,908667	0,5	-0,148900
3,917000	0,5	-0,156250
3,925333	0,5	-0,145600
3,933667	0,5	-0,179150
3,942000	0,5	-0,165700
3,950333	0,5	-0,145650
3,958667	0,5	-0,172600
3,967000	0,5	-0,183250
3,975333	0,5	-0,176950
3,983667	0,5	-0,160450
3,992000	0,5	-0,121700
4,000333	0,5	-0,129650
4,008667	0,5	-0,141250
4,017000	0,5	-0,149500
4,025333	0,5	-0,150200
4,033667	0,5	-0,161550
4,042000	0,5	-0,152600
4,050333	0,5	-0,164600
4,058667	0,5	-0,169350
4,067000	0,5	-0,161400
4,075333	0,5	-0,174300
4,083667	0,5	-0,183850
4,092000	0,5	-0,176000
4,100333	0,5	-0,172250
4,108667	0,5	-0,199700
4,117000	0,5	-0,207800
4,125333	0,5	-0,196500
4,133667	0,5	-0,164950
4,142000	0,5	-0,153650
4,150333	0,5	-0,161100
4,158667	0,5	-0,181000
4,167000	0,5	-0,171050
4,175333	0,5	-0,190400
4,183667	0,5	-0,185500
4,192000	0,5	-0,189350
4,200333	0,5	-0,189300
4,208667	0,5	-0,195400
4,217000	0,5	-0,200050
4,225333	0,5	-0,185450
4,233667	0,5	-0,198350
4,242000	0,5	-0,185300
4,250333	0,5	-0,203750
4,258667	0,5	-0,221900
4,267000	0,5	-0,226000
4,275333	0,5	-0,210100
4,283667	0,5	-0,187300
4,292000	0,5	-0,162850
4,300333	0,5	-0,185150
4,308667	0,5	-0,177800
4,317000	0,5	-0,197000
4,325333	0,5	-0,198450
4,333667	0,5	-0,207250
4,342000	0,5	-0,206000
4,350333	0,5	-0,217400
4,358667	0,5	-0,216300
4,367000	0,5	-0,216500
4,375333	0,5	-0,235700
4,383667	0,5	-0,234400
4,392000	0,5	-0,213350
4,400333	0,5	-0,242550
4,408667	0,5	-0,251400
4,417000	0,5	-0,247800
4,425333	0,5	-0,218250
4,433667	0,5	-0,194650
4,442000	0,5	-0,203250
4,450333	0,5	-0,202450
4,458667	0,5	-0,217750
4,467000	0,5	-0,208400
4,475333	0,5	-0,221000
4,483667	0,5	-0,216700
4,492000	0,5	-0,219400
4,500333	0,5	-0,218700
4,508667	0,5	-0,224400
4,517000	0,5	-0,231250
4,525333	0,5	-0,258000
4,533667	0,5	-0,229000
4,542000	0,5	-0,240300
4,550333	0,5	-0,248900
4,558667	0,5	-0,258500
4,567000	0,5	-0,252400
4,575333	0,5	-0,214100
4,583667	0,5	-0,218500
4,592000	0,5	-0,205850
4,600333	0,5	-0,218600
4,608667	0,5	-0,214400
4,617000	0,5	-0,218250
4,625333	0,5	-0,214050
4,633667	0,5	-0,225350
4,642000	0,5	-0,227850
4,650333	0,5	-0,239250
4,658667	0,5	-0,231550
4,667000	0,5	-0,239300
4,675333	0,5	-0,245800
4,683667	0,5	-0,226300
4,692000	0,5	-0,236200
4,700333	0,5	-0,260050
4,708667	0,5	-0,251700
4,717000	0,5	-0,247500
4,725333	0,5	-0,199150
4,733667	0,5	-0,211000
4,742000	0,5	-0,229950
4,750333	0,5	-0,227600
4,758667	0,5	-0,220750
4,767000	0,5	-0,224450
4,775333	0,5	-0,228850
4,783667	0,5	-0,224100
4,792000	0,5	-0,228250
4,800333	0,5	-0,218100
4,808667	0,5	-0,225750
4,817000	0,5	-0,217600
4,825333	0,5	-0,237000
4,833667	0,5	-0,193750
4,842000	0,5	-0,233700
4,850333	0,5	-0,236550
4,858667	0,5	-0,242250
4,867000	0,5	-0,222650
4,875333	0,5	-0,192200
4,883667	0,5	-0,212500
4,892000	0,5	-0,219250
4,900333	0,5	-0,212900
4,908667	0,5	-0,212850
4,917000	0,5	-0,210650
4,925333	0,5	-0,211900
4,933667	0,5	-0,217950
4,942000	0,5	-0,220750
4,950333	0,5	-0,221800
4,958667	0,5	-0,203200
4,967000	0,5	-0,225500
4,975333	0,5	-0,219750
4,983667	0,5	-0,210200
4,992000	0,5	-0,224800
5,000333	0,5	-0,230750
5,008667	0,5	-0,222500
5,017000	0,5	-0,198300
5,025333	0,5	-0,167450
5,033667	0,5	-0,185750
5,042000	0,5	-0,181350
5,050333	0,5	-0,186100
5,058667	0,5	-0,187100
5,067000	0,5	-0,194200
5,075333	0,5	-0,186700
5,083667	0,5	-0,191900
5,092000	0,5	-0,184500
5,100333	0,5	-0,184050
5,108667	0,5	-0,194850
5,117000	0,5	-0,205350
5,125333	0,5	-0,191350
5,133667	0,5	-0,195700
5,142000	0,5	-0,211750
5,150333	0,5	-0,205350
5,158667	0,5	-0,195750
5,167000	0,5	-0,155700
5,175333	0,5	-0,151750
5,183667	0,5	-0,149650
5,192000	0,5	-0,152000
5,200333	0,5	-0,142200
5,208667	0,5	-0,158300
5,217000	0,5	-0,156400
5,225333	0,5	-0,164700
5,233667	0,5	-0,161200
5,242000	0,5	-0,166350
5,250333	0,5	-0,162250
5,258667	0,5	-0,172700
5,267000	0,5	-0,168300
5,275333	0,5	-0,156650
5,283667	0,5	-0,159150
5,292000	0,5	-0,166950
5,300333	0,5	-0,172350
5,308667	0,5	-0,154400
5,317000	0,5	-0,128000
5,325333	0,5	-0,111050
5,333667	0,5	-0,127450
5,342000	0,5	-0,117500
5,350333	0,5	-0,125050
5,358667	0,5	-0,121850
5,367000	0,5	-0,130850
5,375333	0,5	-0,124700
5,383667	0,5	-0,127850
5,392000	0,5	-0,114750
5,400333	0,5	-0,116200
5,408667	0,5	-0,121700
5,417000	0,5	-0,115700
5,425333	0,5	-0,115650
5,433667	0,5	-0,132400
5,442000	0,5	-0,132400
5,450333	0,5	-0,132500
5,458667	0,5	-0,095900
5,467000	0,5	-0,076600
5,475333	0,5	-0,079550
5,483667	0,5	-0,076550
5,492000	0,5	-0,070650
5,500333	0,5	-0,076500
5,508667	0,5	-0,083750
5,517000	0,5	-0,074300
5,525333	0,5	-0,074100
5,533667	0,5	-0,073450
5,542000	0,5	-0,077400
5,550333	0,5	-0,071900
5,558667	0,5	-0,096150
5,567000	0,5	-0,053400
5,575333	0,5	-0,069200
5,583667	0,5	-0,071800
5,592000	0,5	-0,069250
5,600333	0,5	-0,061950
5,608667	0,5	-0,026500
5,617000	0,5	-0,024800
5,625333	0,5	-0,034350
5,633667	0,5	-0,033000
5,642000	0,5	-0,026150
5,650333	0,5	-0,025200
5,658667	0,5	-0,025500
5,667000	0,5	-0,022050
5,675333	0,5	-0,025300
5,683667	0,5	-0,023500
5,692000	0,5	-0,005200
5,700333	0,5	-0,011200
5,708667	0,5	-0,017900
5,717000	0,5	0,016600
5,725333	0,5	-0,007600
5,733667	0,5	-0,013450
5,742000	0,5	-0,011850
5,750333	0,5	-0,003200
5,758667	0,5	0,048700
5,767000	0,5	0,031300
5,775333	0,5	0,030850
5,783667	0,5	0,029650
5,792000	0,5	0,041750
5,800333	0,5	0,029550
5,808667	0,5	0,035200
5,817000	0,5	0,044750
5,825333	0,5	0,033200
5,833667	0,5	0,039600
5,842000	0,5	0,047250
5,850333	0,5	0,067500
5,858667	0,5	0,056400
5,867000	0,5	0,084750
5,875333	0,5	0,056850
5,883667	0,5	0,062300
5,892000	0,5	0,063000
5,900333	0,5	0,095450
5,908667	0,5	0,121600
5,917000	0,5	0,110100
5,925333	0,5	0,093600
5,933667	0,5	0,107200
5,942000	0,5	0,103550
5,950333	0,5	0,110450
5,958667	0,5	0,109650
5,967000	0,5	0,113600
5,975333	0,5	0,108000
5,983667	0,5	0,108650
5,992000	0,5	0,139250
6,000333	0,5	0,128300
6,008667	0,5	0,143850
6,017000	0,5	0,144450
6,025333	0,5	0,125900
6,033667	0,5	0,120500
6,042000	0,5	0,130000
6,050333	0,5	0,154500
6,058667	0,5	0,188300
6,067000	0,5	0,168600
6,075333	0,5	0,180600
6,083667	0,5	0,179400
6,092000	0,5	0,189050
6,100333	0,5	0,180600
6,108667	0,5	0,186900
6,117000	0,5	0,180400
6,125333	0,5	0,187100
6,133667	0,5	0,191600
6,142000	0,5	0,186450
6,150333	0,5	0,180100
6,158667	0,5	0,203800
6,167000	0,5	0,190150
6,175333	0,5	0,184250
6,183667	0,5	0,190400
6,192000	0,5	0,217350
6,200333	0,5	0,256150
6,208667	0,5	0,254400
6,217000	0,5	0,257000
6,225333	0,5	0,246150
6,233667	0,5	0,254600
6,242000	0,5	0,248650
6,250333	0,5	0,257900
6,258667	0,5	0,247650
6,267000	0,5	0,243400
6,275333	0,5	0,244100
6,283667	0,5	0,251900
6,292000	0,5	0,255700
6,300333	0,5	0,271650
6,308667	0,5	0,273350
6,317000	0,5	0,260650
6,325333	0,5	0,253750
6,333667	0,5	0,265750
6,342000	0,5	0,281800
6,350333	0,5	0,304700
6,358667	0,5	0,315150
6,367000	0,5	0,306100
6,375333	0,5	0,316550
6,383667	0,5	0,314850
6,392000	0,5	0,324900
6,400333	0,5	0,323050
6,408667	0,5	0,328650
6,417000	0,5	0,323850
6,425333	0,5	0,334950
6,433667	0,5	0,340950
6,442000	0,5	0,348550
6,450333	0,5	0,368800
6,458667	0,5	0,362300
6,467000	0,5	0,340750
6,475333	0,5	0,341950
6,483667	0,5	0,350000
6,492000	0,5	0,399450
6,500333	0,5	0,405700
6,508667	0,5	0,395700
6,517000	0,5	0,400100
6,525333	0,5	0,411150
6,533667	0,5	0,412200
6,542000	0,5	0,412600
6,550333	0,5	0,420700
6,558667	0,5	0,420500
6,567000	0,5	0,430600
6,575333	0,5	0,432500
6,583667	0,5	0,447550
6,592000	0,5	0,434200
6,600333	0,5	0,478150
6,608667	0,5	0,461350
6,617000	0,5	0,465750
6,625333	0,5	0,465500
6,633667	0,5	0,484300
6,642000	0,5	0,521250
6,650333	0,5	0,517950
6,658667	0,5	0,512550
6,667000	0,5	0,522900
6,675333	0,5	0,526250
6,683667	0,5	0,537100
6,692000	0,5	0,546550
6,700333	0,5	0,558450
6,708667	0,5	0,554850
6,717000	0,5	0,561800
6,725333	0,5	0,583050
6,733667	0,5	0,570000
6,742000	0,5	0,574450
6,750333	0,5	0,603950
6,758667	0,5	0,591750
6,767000	0,5	0,587900
6,775333	0,5	0,596150
6,783667	0,5	0,614850
6,792000	0,5	0,670000
6,800333	0,5	0,658000
6,808667	0,5	0,672600
6,817000	0,5	0,671050
6,825333	0,5	0,684000
6,833667	0,5	0,680100
6,842000	0,5	0,692750
6,850333	0,5	0,696400
6,858667	0,5	0,700200
6,867000	0,5	0,710450
6,875333	0,5	0,717550
6,883667	0,5	0,725300
6,892000	0,5	0,735350
6,900333	0,5	0,760000
6,908667	0,5	0,743150
6,917000	0,5	0,749950
6,925333	0,5	0,758000
6,933667	0,5	0,792300
6,942000	0,5	0,814600
6,950333	0,5	0,819050
6,958667	0,5	0,814900
6,967000	0,5	0,833250
6,975333	0,5	0,829200
6,983667	0,5	0,844700
6,992000	0,5	0,845750
7,000333	0,5	0,862750
7,008667	0,5	0,870100
7,017000	0,5	0,877500
7,025333	0,5	0,889350
7,033667	0,5	0,880550
7,042000	0,5	0,892700
7,050333	0,5	0,903650
7,058667	0,5	0,896500
7,067000	0,5	0,901150
7,075333	0,5	0,918900
7,083667	0,5	0,951900
7,092000	0,5	0,981300
7,100333	0,5	0,988600
7,108667	0,5	0,998750
7,117000	0,5	1,000150
7,125333	0,5	1,008600
7,133667	0,5	1,008150
7,142000	0,5	1,023250
7,150333	0,5	1,018550
7,158667	0,5	1,031250
7,167000	0,5	1,038250
7,175333	0,5	1,028400
7,183667	0,5	1,022750
7,192000	0,5	1,042150
7,200333	0,5	1,039700
7,208667	0,5	1,040150
7,217000	0,5	1,053650
7,225333	0,5	1,080650
7,233667	0,5	1,112850
7,242000	0,5	1,115800
7,250333	0,5	1,123750
7,258667	0,5	1,122750
7,267000	0,5	1,132000
7,275333	0,5	1,125200
7,283667	0,5	1,143200
7,292000	0,5	1,140350
7,300333	0,5	1,151750
7,308667	0,5	1,156050
7,317000	0,5	1,162100
7,325333	0,5	1,145350
7,333667	0,5	1,170450
7,342000	0,5	1,171350
7,350333	0,5	1,170650
7,358667	0,5	1,162550
7,367000	0,5	1,170600
7,375333	0,5	1,193850
7,383667	0,5	1,220850
7,392000	0,5	1,221800
7,400333	0,5	1,226550
7,408667	0,5	1,232150
7,417000	0,5	1,234950
7,425333	0,5	1,230600
7,433667	0,5	1,232250
7,442000	0,5	1,229150
7,450333	0,5	1,228200
7,458667	0,5	1,237800
7,467000	0,5	1,233400
7,475333	0,5	1,230350
7,483667	0,5	1,247950
7,492000	0,5	1,243750
7,500333	0,5	1,235700
7,508667	0,5	1,244550
7,517000	0,5	1,243650
7,525333	0,5	1,277150
7,533667	0,5	1,282000
7,542000	0,5	1,272150
7,550333	0,5	1,272900
7,558667	0,5	1,275550
7,567000	0,5	1,267750
7,575333	0,5	1,270500
7,583667	0,5	1,272500
7,592000	0,5	1,274950
7,600333	0,5	1,277850
7,608667	0,5	1,283050
7,617000	0,5	1,298600
7,625333	0,5	1,278250
7,633667	0,5	1,305850
7,642000	0,5	1,284550
7,650333	0,5	1,277850
7,658667	0,5	1,271150
7,667000	0,5	1,280400
7,675333	0,5	1,310000
7,683667	0,5	1,307750
7,692000	0,5	1,294750
7,700333	0,5	1,303250
7,708667	0,5	1,304600
7,717000	0,5	1,309050
7,725333	0,5	1,303250
7,733667	0,5	1,305750
7,742000	0,5	1,294850
7,750333	0,5	1,297800
7,758667	0,5	1,305700
7,767000	0,5	1,302200
7,775333	0,5	1,304150
7,783667	0,5	1,317300
7,792000	0,5	1,299050
7,800333	0,5	1,295850
7,808667	0,5	1,299250
7,817000	0,5	1,309600
7,825333	0,5	1,342600
7,833667	0,5	1,327550
7,842000	0,5	1,334900
7,850333	0,5	1,328000
7,858667	0,5	1,338900
7,867000	0,5	1,328500
7,875333	0,5	1,335750
7,883667	0,5	1,331500
7,892000	0,5	1,332300
7,900333	0,5	1,335450
7,908667	0,5	1,340000
7,917000	0,5	1,329750
7,925333	0,5	1,334050
7,933667	0,5	1,337050
7,942000	0,5	1,327450
7,950333	0,5	1,333150
7,958667	0,5	1,340750
7,967000	0,5	1,366650
7,975333	0,5	1,380600
7,983667	0,5	1,384550
7,992000	0,5	1,374600
8,000333	0,5	1,379300
8,008667	0,5	1,383800
8,017000	0,5	1,390350
8,025333	0,5	1,389800
8,033667	0,5	1,390000
8,042000	0,5	1,385450
8,050333	0,5	1,395650
8,058667	0,5	1,393200
8,067000	0,5	1,392100
8,075333	0,5	1,403800
8,083667	0,5	1,401350
8,092000	0,5	1,391700
8,100333	0,5	1,388700
8,108667	0,5	1,404850
8,117000	0,5	1,427850
8,125333	0,5	1,443500
8,133667	0,5	1,441600
8,142000	0,5	1,439250
8,150333	0,5	1,448950
8,158667	0,5	1,450300
8,167000	0,5	1,448550
8,175333	0,5	1,456050
8,183667	0,5	1,450700
8,192000	0,5	1,456550
8,200333	0,5	1,451050
8,208667	0,5	1,457200
8,217000	0,5	1,460500
8,225333	0,5	1,471700
8,233667	0,5	1,460250
8,242000	0,5	1,454700
8,250333	0,5	1,457350
8,258667	0,5	1,475450
8,267000	0,5	1,491200
8,275333	0,5	1,495500
8,283667	0,5	1,489400
8,292000	0,5	1,490250
8,300333	0,5	1,492600
8,308667	0,5	1,494250
8,317000	0,5	1,502300
8,325333	0,5	1,490500
8,333667	0,5	1,494850
8,342000	0,5	1,499750
8,350333	0,5	1,500000
8,358667	0,5	1,486600
8,367000	0,5	1,506250
8,375333	0,5	1,496900
8,383667	0,5	1,496400
8,392000	0,5	1,491100
8,400333	0,5	1,496250
8,408667	0,5	1,509450
8,417000	0,5	1,525050
8,425333	0,5	1,517700
8,433667	0,5	1,520300
8,442000	0,5	1,519250
8,450333	0,5	1,522100
8,458667	0,5	1,520050
8,467000	0,5	1,520450
8,475333	0,5	1,517800
8,483667	0,5	1,516200
8,492000	0,5	1,521400
8,500333	0,5	1,518500
8,508667	0,5	1,515100
8,517000	0,5	1,536050
8,525333	0,5	1,523550
8,533667	0,5	1,514250
8,542000	0,5	1,518050
8,550333	0,5	1,521500
8,558667	0,5	1,545500
8,567000	0,5	1,539900
8,575333	0,5	1,535750
8,583667	0,5	1,536400
8,592000	0,5	1,541900
8,600333	0,5	1,533750
8,608667	0,5	1,534000
8,617000	0,5	1,541600
8,625333	0,5	1,540100
8,633667	0,5	1,539450
8,642000	0,5	1,546450
8,650333	0,5	1,553450
8,658667	0,5	1,543100
8,667000	0,5	1,561100
8,675333	0,5	1,545800
8,683667	0,5	1,544600
8,692000	0,5	1,541000
8,700333	0,5	1,553050
8,708667	0,5	1,570650
8,717000	0,5	1,568750
8,725333	0,5	1,562150
8,733667	0,5	1,567950
8,742000	0,5	1,568750
8,750333	0,5	1,574850
8,758667	0,5	1,572000
8,767000	0,5	1,572450
8,775333	0,5	1,567000
8,783667	0,5	1,571800
8,792000	0,5	1,577800
8,800333	0,5	1,575500
8,808667	0,5	1,576200
8,817000	0,5	1,589300
8,825333	0,5	1,578450
8,833667	0,5	1,575250
8,842000	0,5	1,573850
8,850333	0,5	1,582650
8,858667	0,5	1,603250
8,867000	0,5	1,597500
8,875333	0,5	1,602200
8,883667	0,5	1,601850
8,892000	0,5	1,603550
8,900333	0,5	1,597150
8,908667	0,5	1,604300
8,917000	0,5	1,602200
8,925333	0,5	1,607250
8,933667	0,5	1,607350
8,942000	0,5	1,603100
8,950333	0,5	1,599050
8,958667	0,5	1,608650
8,967000	0,5	1,606100
8,975333	0,5	1,597600
8,983667	0,5	1,600650
8,992000	0,5	1,601750
9,000333	0,5	1,618650
9,008667	0,5	1,627800
9,017000	0,5	1,628300
9,025333	0,5	1,628500
9,033667	0,5	1,631700
9,042000	0,5	1,626800
9,050333	0,5	1,623800
9,058667	0,5	1,624850
9,067000	0,5	1,624600
9,075333	0,5	1,618650
9,083667	0,5	1,619800
9,092000	0,5	1,615600
9,100333	0,5	1,621850
9,108667	0,5	1,624250
9,117000	0,5	1,618900
9,125333	0,5	1,609700
9,133667	0,5	1,608450
9,142000	0,5	1,613700
9,150333	0,5	1,628550
9,158667	0,5	1,632050
9,167000	0,5	1,624650
9,175333	0,5	1,621250
9,183667	0,5	1,622700
9,192000	0,5	1,619350
9,200333	0,5	1,614650
9,208667	0,5	1,616050
9,217000	0,5	1,608800
9,225333	0,5	1,611950
9,233667	0,5	1,608650
9,242000	0,5	1,607050
9,250333	0,5	1,609350
9,258667	0,5	1,608700
9,267000	0,5	1,593700
9,275333	0,5	1,593850
9,283667	0,5	1,586750
9,292000	0,5	1,597700
9,300333	0,5	1,608250
9,308667	0,5	1,603200
9,317000	0,5	1,600150
9,325333	0,5	1,604450
9,333667	0,5	1,599150
9,342000	0,5	1,596950
9,350333	0,5	1,594750
9,358667	0,5	1,588850
9,367000	0,5	1,587050
9,375333	0,5	1,582450
9,383667	0,5	1,587000
9,392000	0,5	1,575950
9,400333	0,5	1,583600
9,408667	0,5	1,581450
9,417000	0,5	1,574100
9,425333	0,5	1,568300
9,433667	0,5	1,568000
9,442000	0,5	1,582050
9,450333	0,5	1,579700
9,458667	0,5	1,572900
9,467000	0,5	1,578050
9,475333	0,5	1,574700
9,483667	0,5	1,575900
9,492000	0,5	1,571050
9,500333	0,5	1,571700
9,508667	0,5	1,570400
9,517000	0,5	1,566100
9,525333	0,5	1,563750
9,533667	0,5	1,556550
9,542000	0,5	1,546550
9,550333	0,5	1,556550
9,558667	0,5	1,544800
9,567000	0,5	1,536850
9,575333	0,5	1,530150
9,583667	0,5	1,532550
9,592000	0,5	1,539700
9,600333	0,5	1,532450
9,608667	0,5	1,527700
9,617000	0,5	1,515400
9,625333	0,5	1,512800
9,633667	0,5	1,499450
9,642000	0,5	1,498450
9,650333	0,5	1,490150
9,658667	0,5	1,484300
9,667000	0,5	1,475900
9,675333	0,5	1,465000
9,683667	0,5	1,458800
9,692000	0,5	1,447200
9,700333	0,5	1,446200
9,708667	0,5	1,429650
9,717000	0,5	1,418350
9,725333	0,5	1,410950
9,733667	0,5	1,411850
9,742000	0,5	1,412600
9,750333	0,5	1,403900
9,758667	0,5	1,394600
9,767000	0,5	1,388150
9,775333	0,5	1,379550
9,783667	0,5	1,371250
9,792000	0,5	1,361850
9,800333	0,5	1,354650
9,808667	0,5	1,341950
9,817000	0,5	1,337500
9,825333	0,5	1,331200
9,833667	0,5	1,325500
9,842000	0,5	1,315900
9,850333	0,5	1,310450
9,858667	0,5	1,296400
9,867000	0,5	1,290700
9,875333	0,5	1,283900
9,883667	0,5	1,284850
9,892000	0,5	1,287250
9,900333	0,5	1,277300
9,908667	0,5	1,274900
9,917000	0,5	1,265700
9,925333	0,5	1,262750
9,933667	0,5	1,253050
9,942000	0,5	1,248800
9,950333	0,5	1,240450
9,958667	0,5	1,236100
9,967000	0,5	1,229250
9,975333	0,5	1,219400
9,983667	0,5	1,211300
9,992000	0,5	1,207950
10,000333	0,5	1,198850
10,008667	0,5	1,187400
10,017000	0,5	1,181950
10,025333	0,5	1,180950
10,033667	0,5	1,187550
10,042000	0,5	1,187850
10,050333	0,5	1,179650
10,058667	0,5	1,171950
10,067000	0,5	1,166650
10,075333	0,5	1,160500
10,083667	0,5	1,157700
10,092000	0,5	1,146700
10,100333	0,5	1,141500
10,108667	0,5	1,141700
10,117000	0,5	1,130150
10,125333	0,5	1,112750
10,133667	0,5	1,111100
10,142000	0,5	1,107850
10,150333	0,5	1,104150
10,158667	0,5	1,090900
10,167000	0,5	1,089250
10,175333	0,5	1,089900
10,183667	0,5	1,093200
10,192000	0,5	1,082350
10,200333	0,5	1,084700
10,208667	0,5	1,078400
10,217000	0,5	1,073550
10,225333	0,5	1,067650
10,233667	0,5	1,058850
10,242000	0,5	1,053000
10,250333	0,5	1,046550
10,258667	0,5	1,042350
10,267000	0,5	1,037250
10,275333	0,5	1,027750
10,283667	0,5	1,025250
10,292000	0,5	1,015250
10,300333	0,5	1,002800
10,308667	0,5	0,994950
10,317000	0,5	0,989100
10,325333	0,5	0,993300
10,333667	0,5	0,990400
10,342000	0,5	0,988200
10,350333	0,5	0,981150
10,358667	0,5	0,980400
10,367000	0,5	0,967900
10,375333	0,5	0,962150
10,383667	0,5	0,952600
10,392000	0,5	0,950250
10,400333	0,5	0,940600
10,408667	0,5	0,928500
10,417000	0,5	0,929150
10,425333	0,5	0,919350
10,433667	0,5	0,922700
10,442000	0,5	0,912700
10,450333	0,5	0,909050
10,458667	0,5	0,897850
10,467000	0,5	0,897550
10,475333	0,5	0,898650
10,483667	0,5	0,895700
10,492000	0,5	0,886550
10,500333	0,5	0,890000
10,508667	0,5	0,886850
10,517000	0,5	0,884850
10,525333	0,5	0,886750
10,533667	0,5	0,886400
10,542000	0,5	0,886500
10,550333	0,5	0,891400
10,558667	0,5	0,893900
10,567000	0,5	0,889400
10,575333	0,5	0,893250
10,583667	0,5	0,898400
10,592000	0,5	0,891950
10,600333	0,5	0,891550
10,608667	0,5	0,885400
10,617000	0,5	0,890100
10,625333	0,5	0,898700
10,633667	0,5	0,892050
10,642000	0,5	0,889150
10,650333	0,5	0,883650
10,658667	0,5	0,883750
10,667000	0,5	0,880250
10,675333	0,5	0,877500
10,683667	0,5	0,873600
10,692000	0,5	0,861700
10,700333	0,5	0,856000
10,708667	0,5	0,851200
10,717000	0,5	0,843350
10,725333	0,5	0,837400
10,733667	0,5	0,825850
10,742000	0,5	0,814400
10,750333	0,5	0,810350
10,758667	0,5	0,803050
10,767000	0,5	0,803800
10,775333	0,5	0,799550
10,783667	0,5	0,789200
10,792000	0,5	0,776300
10,800333	0,5	0,762300
10,808667	0,5	0,754000
10,817000	0,5	0,745850
10,825333	0,5	0,732900
10,833667	0,5	0,725600
10,842000	0,5	0,713750
10,850333	0,5	0,703050
10,858667	0,5	0,698900
10,867000	0,5	0,688200
10,875333	0,5	0,681950
10,883667	0,5	0,676100
10,892000	0,5	0,668900
10,900333	0,5	0,664600
10,908667	0,5	0,661350
10,917000	0,5	0,667100
10,925333	0,5	0,668000
10,933667	0,5	0,667950
10,942000	0,5	0,668450
10,950333	0,5	0,668100
10,958667	0,5	0,668150
10,967000	0,5	0,671000
10,975333	0,5	0,668300
10,983667	0,5	0,668550
10,992000	0,5	0,672050
11,000333	0,5	0,675050
11,008667	0,5	0,670450
11,017000	0,5	0,669250
11,025333	0,5	0,671900
11,033667	0,5	0,668250
11,042000	0,5	0,662300
11,050333	0,5	0,662900
11,058667	0,5	0,668850
11,067000	0,5	0,670900
11,075333	0,5	0,666050
11,083667	0,5	0,664500
11,092000	0,5	0,662750
11,100333	0,5	0,661800
11,108667	0,5	0,655550
11,117000	0,5	0,650650
11,125333	0,5	0,649800
11,133667	0,5	0,648400
11,142000	0,5	0,640800
11,150333	0,5	0,642550
11,158667	0,5	0,633000
11,167000	0,5	0,636550
11,175333	0,5	0,633600
11,183667	0,5	0,628700
11,192000	0,5	0,625900
11,200333	0,5	0,625400
11,208667	0,5	0,632400
11,217000	0,5	0,632750
11,225333	0,5	0,631950
11,233667	0,5	0,634850
11,242000	0,5	0,635850
11,250333	0,5	0,636450
11,258667	0,5	0,632200
11,267000	0,5	0,634050
11,275333	0,5	0,635750
11,283667	0,5	0,637800
11,292000	0,5	0,638250
11,300333	0,5	0,631950
11,308667	0,5	0,632550
11,317000	0,5	0,636050
11,325333	0,5	0,634450
11,333667	0,5	0,629750
11,342000	0,5	0,627500
11,350333	0,5	0,625800
11,358667	0,5	0,633600
11,367000	0,5	0,632850
11,375333	0,5	0,633450
11,383667	0,5	0,627650
11,392000	0,5	0,629300
11,400333	0,5	0,622300
11,408667	0,5	0,615400
11,417000	0,5	0,616100
11,425333	0,5	0,611700
11,433667	0,5	0,615450
11,442000	0,5	0,607800
11,450333	0,5	0,602350
11,458667	0,5	0,594350
11,467000	0,5	0,594500
11,475333	0,5	0,589350
11,483667	0,5	0,585350
11,492000	0,5	0,581850
11,500333	0,5	0,580950
11,508667	0,5	0,583850
11,517000	0,5	0,583700
11,525333	0,5	0,574350
11,533667	0,5	0,577850
11,542000	0,5	0,574050
11,550333	0,5	0,573750
11,558667	0,5	0,573400
11,567000	0,5	0,569800
11,575333	0,5	0,568700
11,583667	0,5	0,564500
11,592000	0,5	0,566900
11,600333	0,5	0,566300
11,608667	0,5	0,564650
11,617000	0,5	0,565200
11,625333	0,5	0,561250
11,633667	0,5	0,558600
11,642000	0,5	0,560200
11,650333	0,5	0,560950
11,658667	0,5	0,570300
11,667000	0,5	0,570800
11,675333	0,5	0,573950
11,683667	0,5	0,576700
11,692000	0,5	0,576400
11,700333	0,5	0,576700
11,708667	0,5	0,578900
11,717000	0,5	0,580100
11,725333	0,5	0,584200
11,733667	0,5	0,583450
11,742000	0,5	0,585900
11,750333	0,5	0,584650
11,758667	0,5	0,589300
11,767000	0,5	0,593150
11,775333	0,5	0,594350
11,783667	0,5	0,596000
11,792000	0,5	0,602350
11,800333	0,5	0,609150
11,808667	0,5	0,617350
11,817000	0,5	0,627100
11,825333	0,5	0,637200
11,833667	0,5	0,648350
11,842000	0,5	0,666100
11,850333	0,5	0,681850
11,858667	0,5	0,705000
11,867000	0,5	0,732650
11,875333	0,5	0,760450
11,883667	0,5	0,792550
11,892000	0,5	0,820850
11,900333	0,5	0,850400
11,908667	0,5	0,876000
11,917000	0,5	0,896550
11,925333	0,5	0,906150
11,933667	0,5	0,922700
11,942000	0,5	0,929250
11,950333	0,5	0,933300
11,958667	0,5	0,930550
11,967000	0,5	0,924050
11,975333	0,5	0,912250
11,983667	0,5	0,895750
11,992000	0,5	0,875300
12,000333	0,5	0,853700
12,008667	0,5	0,836700
12,017000	0,5	0,812850
12,025333	0,5	0,799150
12,033667	0,5	0,783400
12,042000	0,5	0,772350
12,050333	0,5	0,765700
12,058667	0,5	0,757950
12,067000	0,5	0,756450
12,075333	0,5	0,752650
12,083667	0,5	0,751000
12,092000	0,5	0,753250
12,100333	0,5	0,757900
12,108667	0,5	0,751200
12,117000	0,5	0,753850
12,125333	0,5	0,754900
12,133667	0,5	0,758750
12,142000	0,5	0,759100
12,150333	0,5	0,763250
12,158667	0,5	0,767200
12,167000	0,5	0,778100
12,175333	0,5	0,781950
12,183667	0,5	0,792450
12,192000	0,5	0,791400
12,200333	0,5	0,798650
12,208667	0,5	0,796000
12,217000	0,5	0,801400
12,225333	0,5	0,795450
12,233667	0,5	0,792600
12,242000	0,5	0,787850
12,250333	0,5	0,788450
12,258667	0,5	0,783400
12,267000	0,5	0,776400
12,275333	0,5	0,778850
12,283667	0,5	0,777000
12,292000	0,5	0,776350
12,300333	0,5	0,773400
12,308667	0,5	0,767350
12,317000	0,5	0,764050
12,325333	0,5	0,764650
12,333667	0,5	0,766450
12,342000	0,5	0,761050
12,350333	0,5	0,761550
12,358667	0,5	0,763450
12,367000	0,5	0,761100
12,375333	0,5	0,767200
12,383667	0,5	0,764250
12,392000	0,5	0,770200
12,400333	0,5	0,771250
12,408667	0,5	0,780450
12,417000	0,5	0,782100
12,425333	0,5	0,786250
12,433667	0,5	0,787100
12,442000	0,5	0,791250
12,450333	0,5	0,790950
12,458667	0,5	0,796500
12,467000	0,5	0,802750
12,475333	0,5	0,809200
12,483667	0,5	0,816350
12,492000	0,5	0,821100
12,500333	0,5	0,828300
12,508667	0,5	0,837150
12,517000	0,5	0,841800
12,525333	0,5	0,853250
12,533667	0,5	0,862050
12,542000	0,5	0,871000
12,550333	0,5	0,878600
12,558667	0,5	0,889550
12,567000	0,5	0,896100
12,575333	0,5	0,911700
12,583667	0,5	0,920550
12,592000	0,5	0,927700
12,600333	0,5	0,935200
12,608667	0,5	0,940650
12,617000	0,5	0,945150
12,625333	0,5	0,953850
12,633667	0,5	0,957900
12,642000	0,5	0,969100
12,650333	0,5	0,972000
12,658667	0,5	0,973900
12,667000	0,5	0,977250
12,675333	0,5	0,980950
12,683667	0,5	0,985700
12,692000	0,5	0,987450
12,700333	0,5	0,993350
12,708667	0,5	0,996450
12,717000	0,5	1,001250
12,725333	0,5	1,003350
12,733667	0,5	1,006850
12,742000	0,5	1,013900
12,750333	0,5	1,014150
12,758667	0,5	1,017700
12,767000	0,5	1,022000
12,775333	0,5	1,023200
12,783667	0,5	1,024950
12,792000	0,5	1,029800
12,800333	0,5	1,032900
12,808667	0,5	1,035900
12,817000	0,5	1,036700
12,825333	0,5	1,040100
12,833667	0,5	1,047300
12,842000	0,5	1,053200
12,850333	0,5	1,057400
12,858667	0,5	1,059350
12,867000	0,5	1,068050
12,875333	0,5	1,061450
12,883667	0,5	1,067800
12,892000	0,5	1,072800
12,900333	0,5	1,069250
12,908667	0,5	1,075050
12,917000	0,5	1,077900
12,925333	0,5	1,088200
12,933667	0,5	1,095650
12,942000	0,5	1,121250
12,950333	0,5	1,147700
12,958667	0,5	1,182350
12,967000	0,5	1,238200
12,975333	0,5	1,294200
12,983667	0,5	1,362900
12,992000	0,5	1,416350
13,000333	0,5	1,451400
13,008667	0,5	1,462450
13,017000	0,5	1,444600
13,025333	0,5	1,403800
13,033667	0,5	1,349150
13,042000	0,5	1,280700
13,050333	0,5	1,214600
13,058667	0,5	1,152250
13,067000	0,5	1,093150
13,075333	0,5	1,039250
13,083667	0,5	1,002350
13,092000	0,5	0,963700
13,100333	0,5	0,933750
13,108667	0,5	0,905950
13,117000	0,5	0,881600
13,125333	0,5	0,868450
13,133667	0,5	0,861050
13,142000	0,5	0,860800
13,150333	0,5	0,863900
13,158667	0,5	0,864200
13,167000	0,5	0,861600
13,175333	0,5	0,861500
13,183667	0,5	0,852000
13,192000	0,5	0,833650
13,200333	0,5	0,813400
13,208667	0,5	0,787150
13,217000	0,5	0,759600
13,225333	0,5	0,734200
13,233667	0,5	0,711650
13,242000	0,5	0,695050
13,250333	0,5	0,684950
13,258667	0,5	0,671950
13,267000	0,5	0,660900
13,275333	0,5	0,648500
13,283667	0,5	0,640050
13,292000	0,5	0,634600
13,300333	0,5	0,625000
13,308667	0,5	0,618650
13,317000	0,5	0,616200
13,325333	0,5	0,608100
13,333667	0,5	0,606000
13,342000	0,5	0,603450
13,350333	0,5	0,598100
13,358667	0,5	0,590000
13,367000	0,5	0,583700
13,375333	0,5	0,571800
13,383667	0,5	0,570450
13,392000	0,5	0,559400
13,400333	0,5	0,551450
13,408667	0,5	0,541700
13,417000	0,5	0,531900
13,425333	0,5	0,522300
13,433667	0,5	0,521150
13,442000	0,5	0,518850
13,450333	0,5	0,513800
13,458667	0,5	0,508300
13,467000	0,5	0,502000
13,475333	0,5	0,496250
13,483667	0,5	0,490600
13,492000	0,5	0,490900
13,500333	0,5	0,484650
13,508667	0,5	0,476500
13,517000	0,5	0,474400
13,525333	0,5	0,468650
13,533667	0,5	0,458250
13,542000	0,5	0,451750
13,550333	0,5	0,442750
13,558667	0,5	0,436050
13,567000	0,5	0,424600
13,575333	0,5	0,426650
13,583667	0,5	0,424900
13,592000	0,5	0,423650
13,600333	0,5	0,422700
13,608667	0,5	0,418200
13,617000	0,5	0,421800
13,625333	0,5	0,416750
13,633667	0,5	0,413400
13,642000	0,5	0,405750
13,650333	0,5	0,397300
13,658667	0,5	0,395350
13,667000	0,5	0,388100
13,675333	0,5	0,387550
13,683667	0,5	0,393650
13,692000	0,5	0,388500
13,700333	0,5	0,398200
13,708667	0,5	0,395250
13,717000	0,5	0,392800
13,725333	0,5	0,387150
13,733667	0,5	0,386050
13,742000	0,5	0,378650
13,750333	0,5	0,381500
13,758667	0,5	0,384850
13,767000	0,5	0,399700
13,775333	0,5	0,431550
13,783667	0,5	0,482800
13,792000	0,5	0,554150
13,800333	0,5	0,634450
13,808667	0,5	0,719900
13,817000	0,5	0,781500
13,825333	0,5	0,813900
13,833667	0,5	0,804250
13,842000	0,5	0,756400
13,850333	0,5	0,685350
13,858667	0,5	0,610200
13,867000	0,5	0,545550
13,875333	0,5	0,495700
13,883667	0,5	0,464800
13,892000	0,5	0,437100
13,900333	0,5	0,425550
13,908667	0,5	0,425200
13,917000	0,5	0,428850
13,925333	0,5	0,446550
13,933667	0,5	0,458950
13,942000	0,5	0,468750
13,950333	0,5	0,472950
13,958667	0,5	0,456200
13,967000	0,5	0,434800
13,975333	0,5	0,415500
13,983667	0,5	0,391800
13,992000	0,5	0,369100
14,000333	0,5	0,352450
14,008667	0,5	0,333750
14,017000	0,5	0,328800
14,025333	0,5	0,323250
14,033667	0,5	0,317300
14,042000	0,5	0,307250
14,050333	0,5	0,306000
14,058667	0,5	0,298700
14,067000	0,5	0,296350
14,075333	0,5	0,292750
14,083667	0,5	0,287600
14,092000	0,5	0,282900
14,100333	0,5	0,276950
14,108667	0,5	0,273300
14,117000	0,5	0,272250
14,125333	0,5	0,268250
14,133667	0,5	0,268700
14,142000	0,5	0,260100
14,150333	0,5	0,256650
14,158667	0,5	0,246850
14,167000	0,5	0,246600
14,175333	0,5	0,247000
14,183667	0,5	0,245700
14,192000	0,5	0,240800
14,200333	0,5	0,233900
14,208667	0,5	0,240400
14,217000	0,5	0,234650
14,225333	0,5	0,237550
14,233667	0,5	0,237950
14,242000	0,5	0,237250
14,250333	0,5	0,238500
14,258667	0,5	0,236800
14,267000	0,5	0,244700
14,275333	0,5	0,258700
14,283667	0,5	0,260550
14,292000	0,5	0,267700
14,300333	0,5	0,269600
14,308667	0,5	0,268450
14,317000	0,5	0,270100
14,325333	0,5	0,264100
14,333667	0,5	0,244150
14,342000	0,5	0,228350
14,350333	0,5	0,213750
14,358667	0,5	0,202250
14,367000	0,5	0,195700
14,375333	0,5	0,192300
14,383667	0,5	0,188450
14,392000	0,5	0,187550
14,400333	0,5	0,189750
14,408667	0,5	0,189400
14,417000	0,5	0,204800
14,425333	0,5	0,221750
14,433667	0,5	0,253500
14,442000	0,5	0,294750
14,450333	0,5	0,361550
14,458667	0,5	0,459400
14,467000	0,5	0,566300
14,475333	0,5	0,654950
14,483667	0,5	0,707200
14,492000	0,5	0,706400
14,500333	0,5	0,663750
14,508667	0,5	0,591200
14,517000	0,5	0,514400
14,525333	0,5	0,449550
14,533667	0,5	0,385600
14,542000	0,5	0,363050
14,550333	0,5	0,350000
14,558667	0,5	0,349100
14,567000	0,5	0,367700
14,575333	0,5	0,389150
14,583667	0,5	0,402800
14,592000	0,5	0,402100
14,600333	0,5	0,384300
14,608667	0,5	0,361900
14,617000	0,5	0,335900
14,625333	0,5	0,314500
14,633667	0,5	0,288050
14,642000	0,5	0,267900
14,650333	0,5	0,250600
14,658667	0,5	0,244350
14,667000	0,5	0,240000
14,675333	0,5	0,226200
14,683667	0,5	0,218450
14,692000	0,5	0,209600
14,700333	0,5	0,197900
14,708667	0,5	0,187050
14,717000	0,5	0,181900
14,725333	0,5	0,177500
14,733667	0,5	0,168400
14,742000	0,5	0,160150
14,750333	0,5	0,152300
14,758667	0,5	0,154750
14,767000	0,5	0,150300
14,775333	0,5	0,144350
14,783667	0,5	0,145750
14,792000	0,5	0,140900
14,800333	0,5	0,143150
14,808667	0,5	0,148200
14,817000	0,5	0,156700
14,825333	0,5	0,169750
14,833667	0,5	0,179600
14,842000	0,5	0,181200
14,850333	0,5	0,183200
14,858667	0,5	0,176100
14,867000	0,5	0,163900
14,875333	0,5	0,143950
14,883667	0,5	0,125100
14,892000	0,5	0,104900
14,900333	0,5	0,087600
14,908667	0,5	0,082450
14,917000	0,5	0,068400
14,925333	0,5	0,067100
14,933667	0,5	0,059900
14,942000	0,5	0,058900
14,950333	0,5	0,056850
14,958667	0,5	0,058000
14,967000	0,5	0,056700
14,975333	0,5	0,052100
14,983667	0,5	0,062000
14,992000	0,5	0,074050
15,000333	0,5	0,087700
15,008667	0,5	0,135050
15,017000	0,5	0,190850
15,025333	0,5	0,279250
15,033667	0,5	0,381700
15,042000	0,5	0,487600
15,050333	0,5	0,565950
15,058667	0,5	0,585700
15,067000	0,5	0,555900
15,075333	0,5	0,488850
15,083667	0,5	0,412150
15,092000	0,5	0,330550
15,100333	0,5	0,281000
15,108667	0,5	0,250500
15,117000	0,5	0,245000
15,125333	0,5	0,260200
15,133667	0,5	0,278500
15,142000	0,5	0,275950
15,150333	0,5	0,268350
15,158667	0,5	0,252750
15,167000	0,5	0,221450
15,175333	0,5	0,188250
15,183667	0,5	0,157000
15,192000	0,5	0,128900
15,200333	0,5	0,116100
15,208667	0,5	0,102500
15,217000	0,5	0,084800
15,225333	0,5	0,077300
15,233667	0,5	0,072950
15,242000	0,5	0,066250
15,250333	0,5	0,065050
15,258667	0,5	0,059550
15,267000	0,5	0,053550
15,275333	0,5	0,058350
15,283667	0,5	0,064500
15,292000	0,5	0,067600
15,300333	0,5	0,075150
15,308667	0,5	0,079250
15,317000	0,5	0,077050
15,325333	0,5	0,066450
15,333667	0,5	0,051950
15,342000	0,5	0,045350
15,350333	0,5	0,040350
15,358667	0,5	0,030500
15,367000	0,5	0,015050
15,375333	0,5	0,004000
15,383667	0,5	-0,011400
15,392000	0,5	-0,027350
15,400333	0,5	-0,034150
15,408667	0,5	-0,049250
15,417000	0,5	-0,051950
15,425333	0,5	-0,063900
15,433667	0,5	-0,058800
15,442000	0,5	-0,072700
15,450333	0,5	-0,068200
15,458667	0,5	-0,073000
15,467000	0,5	-0,066450
15,475333	0,5	-0,069800
15,483667	0,5	-0,069300
15,492000	0,5	-0,052900
15,500333	0,5	-0,027350
15,508667	0,5	0,012100
15,517000	0,5	0,089600
15,525333	0,5	0,194300
15,533667	0,5	0,313350
15,542000	0,5	0,422450
15,550333	0,5	0,489450
15,558667	0,5	0,501000
15,567000	0,5	0,460800
15,575333	0,5	0,393400
15,583667	0,5	0,320250
15,592000	0,5	0,264050
15,600333	0,5	0,240750
15,608667	0,5	0,234100
15,617000	0,5	0,235550
15,625333	0,5	0,227650
15,633667	0,5	0,203550
15,642000	0,5	0,178600
15,650333	0,5	0,141650
15,658667	0,5	0,110200
15,667000	0,5	0,074150
15,675333	0,5	0,044550
15,683667	0,5	0,029300
15,692000	0,5	0,017850
15,700333	0,5	0,011200
15,708667	0,5	0,008100
15,717000	0,5	0,004700
15,725333	0,5	0,002500
15,733667	0,5	-0,016950
15,742000	0,5	-0,024200
15,750333	0,5	-0,034150
15,758667	0,5	-0,048500
15,767000	0,5	-0,058450
15,775333	0,5	-0,073500
15,783667	0,5	-0,078550
15,792000	0,5	-0,088550
15,800333	0,5	-0,097700
15,808667	0,5	-0,110750
15,817000	0,5	-0,118800
15,825333	0,5	-0,138950
15,833667	0,5	-0,152100
15,842000	0,5	-0,166250
15,850333	0,5	-0,182450
15,858667	0,5	-0,196450
15,867000	0,5	-0,200800
15,875333	0,5	-0,216900
15,883667	0,5	-0,226650
15,892000	0,5	-0,229450
15,900333	0,5	-0,226650
15,908667	0,5	-0,235650
15,917000	0,5	-0,246200
15,925333	0,5	-0,245400
15,933667	0,5	-0,236650
15,942000	0,5	-0,213250
15,950333	0,5	-0,180950
15,958667	0,5	-0,122200
15,967000	0,5	-0,033900
15,975333	0,5	0,075800
15,983667	0,5	0,190600
15,992000	0,5	0,284000
16,000333	0,5	0,326300
16,008667	0,5	0,314700
16,017000	0,5	0,271100
16,025333	0,5	0,204050
16,033667	0,5	0,150350
16,042000	0,5	0,121600
16,050333	0,5	0,105000
16,058667	0,5	0,083050
16,067000	0,5	0,053850
16,075333	0,5	0,031750
16,083667	0,5	0,007100
16,092000	0,5	-0,021850
16,100333	0,5	-0,049950
16,108667	0,5	-0,070700
16,117000	0,5	-0,083500
16,125333	0,5	-0,100850
16,133667	0,5	-0,115400
16,142000	0,5	-0,129400
16,150333	0,5	-0,136750
16,158667	0,5	-0,146650
16,167000	0,5	-0,140050
16,175333	0,5	-0,153550
16,183667	0,5	-0,141550
16,192000	0,5	-0,143300
16,200333	0,5	-0,146450
16,208667	0,5	-0,159000
16,217000	0,5	-0,189500
16,225333	0,5	-0,193200
16,233667	0,5	-0,206150
16,242000	0,5	-0,219750
16,250333	0,5	-0,241300
16,258667	0,5	-0,255850
16,267000	0,5	-0,269950
16,275333	0,5	-0,281500
16,283667	0,5	-0,286850
16,292000	0,5	-0,300800
16,300333	0,5	-0,304350
16,308667	0,5	-0,308900
16,317000	0,5	-0,313850
16,325333	0,5	-0,314300
16,333667	0,5	-0,303200
16,342000	0,5	-0,296000
16,350333	0,5	-0,280900
16,358667	0,5	-0,240650
16,367000	0,5	-0,182300
16,375333	0,5	-0,083100
16,383667	0,5	0,040750
16,392000	0,5	0,147900
16,400333	0,5	0,217000
16,408667	0,5	0,243200
16,417000	0,5	0,219600
16,425333	0,5	0,164100
16,433667	0,5	0,117300
16,442000	0,5	0,070050
16,450333	0,5	0,038500
16,458667	0,5	0,015350
16,467000	0,5	-0,021950
16,475333	0,5	-0,060300
16,483667	0,5	-0,096650
16,492000	0,5	-0,135900
16,500333	0,5	-0,165900
16,508667	0,5	-0,202050
16,517000	0,5	-0,221050
16,525333	0,5	-0,221950
16,533667	0,5	-0,220400
16,542000	0,5	-0,216800
16,550333	0,5	-0,215700
16,558667	0,5	-0,212550
16,567000	0,5	-0,218400
16,575333	0,5	-0,218750
16,583667	0,5	-0,231550
16,592000	0,5	-0,242550
16,600333	0,5	-0,262150
16,608667	0,5	-0,271300
16,617000	0,5	-0,296550
16,625333	0,5	-0,309550
16,633667	0,5	-0,327300
16,642000	0,5	-0,340100
16,650333	0,5	-0,365350
16,658667	0,5	-0,383150
16,667000	0,5	-0,387700
16,675333	0,5	-0,384550
16,683667	0,5	-0,380000
16,692000	0,5	-0,373050
16,700333	0,5	-0,359450
16,708667	0,5	-0,332500
16,717000	0,5	-0,287350
16,725333	0,5	-0,212400
16,733667	0,5	-0,108750
16,742000	0,5	0,012650
16,750333	0,5	0,141800
16,758667	0,5	0,226700
16,767000	0,5	0,273500
16,775333	0,5	0,286850
16,783667	0,5	0,270300
16,792000	0,5	0,247250
16,800333	0,5	0,234950
16,808667	0,5	0,235000
16,817000	0,5	0,229550
16,825333	0,5	0,233950
16,833667	0,5	0,238500
16,842000	0,5	0,246650
16,850333	0,5	0,265050
16,858667	0,5	0,261400
16,867000	0,5	0,256100
16,875333	0,5	0,236100
16,883667	0,5	0,207950
16,892000	0,5	0,172950
16,900333	0,5	0,134800
16,908667	0,5	0,079500
16,917000	0,5	0,035250
16,925333	0,5	-0,013450
16,933667	0,5	-0,058200
16,942000	0,5	-0,104350
16,950333	0,5	-0,162800
16,958667	0,5	-0,199850
16,967000	0,5	-0,230550
16,975333	0,5	-0,257600
16,983667	0,5	-0,280950
16,992000	0,5	-0,296250
17,000333	0,5	-0,309750
17,008667	0,5	-0,322350
17,017000	0,5	-0,323600
17,025333	0,5	-0,324000
17,033667	0,5	-0,303200
17,042000	0,5	-0,258400
17,050333	0,5	-0,173000
17,058667	0,5	-0,083500
17,067000	0,5	0,026500
17,075333	0,5	0,112400
17,083667	0,5	0,140200
17,092000	0,5	0,120950
17,100333	0,5	0,064550
17,108667	0,5	0,018000
17,117000	0,5	-0,035850
17,125333	0,5	-0,092200
17,133667	0,5	-0,132700
17,142000	0,5	-0,166200
17,150333	0,5	-0,197750
17,158667	0,5	-0,217850
17,167000	0,5	-0,225000
17,175333	0,5	-0,227450
17,183667	0,5	-0,222600
17,192000	0,5	-0,208200
17,200333	0,5	-0,197200
17,208667	0,5	-0,198800
17,217000	0,5	-0,183300
17,225333	0,5	-0,162150
17,233667	0,5	-0,155500
17,242000	0,5	-0,149350
17,250333	0,5	-0,139650
17,258667	0,5	-0,099850
17,267000	0,5	-0,058150
17,275333	0,5	0,005850
17,283667	0,5	0,089350
17,292000	0,5	0,214600
17,300333	0,5	0,385900
17,308667	0,5	0,621300
17,317000	0,5	0,918100
17,325333	0,5	1,296150
17,333667	0,5	1,731250
17,342000	0,5	2,209600
17,350333	0,5	2,665000
17,358667	0,5	3,043000
17,367000	0,5	3,289050
17,375333	0,5	3,388100
17,383667	0,5	3,336800
17,392000	0,5	3,151150
17,400333	0,5	2,888800
17,408667	0,5	2,580100
17,417000	0,5	2,254450
17,425333	0,5	1,924100
17,433667	0,5	1,627850
17,442000	0,5	1,370650
17,450333	0,5	1,157850
17,458667	0,5	0,972000
17,467000	0,5	0,823550
17,475333	0,5	0,704000
17,483667	0,5	0,609550
17,492000	0,5	0,522750
17,500333	0,5	0,441750
17,508667	0,5	0,381800
17,517000	0,5	0,326450
17,525333	0,5	0,276650
17,533667	0,5	0,231400
17,542000	0,5	0,190250
17,550333	0,5	0,156800
17,558667	0,5	0,154300
17,567000	0,5	0,158200
17,575333	0,5	0,166900
17,583667	0,5	0,213400
17,592000	0,5	0,275600
17,600333	0,5	0,351100
17,608667	0,5	0,432900
17,617000	0,5	0,502200
17,625333	0,5	0,531100
17,633667	0,5	0,532050
17,642000	0,5	0,493350
17,650333	0,5	0,427900
17,658667	0,5	0,371300
17,667000	0,5	0,302100
17,675333	0,5	0,232300
17,683667	0,5	0,156000
17,692000	0,5	0,102450
17,700333	0,5	0,066850
17,708667	0,5	0,035550
17,717000	0,5	-0,002800
17,725333	0,5	-0,035950
17,733667	0,5	-0,058400
17,742000	0,5	-0,086800
17,750333	0,5	-0,121350
17,758667	0,5	-0,153150
17,767000	0,5	-0,171800
17,775333	0,5	-0,192900
17,783667	0,5	-0,202800
17,792000	0,5	-0,231750
17,800333	0,5	-0,229000
17,808667	0,5	-0,222200
17,817000	0,5	-0,207150
17,825333	0,5	-0,184000
17,833667	0,5	-0,156250
17,842000	0,5	-0,097600
17,850333	0,5	-0,044300
17,858667	0,5	-0,028350
17,867000	0,5	-0,028950
17,875333	0,5	-0,065950
17,883667	0,5	-0,099650
17,892000	0,5	-0,146400
17,900333	0,5	-0,180700
17,908667	0,5	-0,212150
17,917000	0,5	-0,243800
17,925333	0,5	-0,251000
17,933667	0,5	-0,275850
17,942000	0,5	-0,307200
17,950333	0,5	-0,316600
17,958667	0,5	-0,330200
17,967000	0,5	-0,349900
17,975333	0,5	-0,367550
17,983667	0,5	-0,397900
17,992000	0,5	-0,394950
18,000333	0,5	-0,399700
18,008667	0,5	-0,398650
18,017000	0,5	-0,398850
18,025333	0,5	-0,384250
18,033667	0,5	-0,368300
18,042000	0,5	-0,334950
18,050333	0,5	-0,287950
18,058667	0,5	-0,245200
18,067000	0,5	-0,214450
18,075333	0,5	-0,205350
18,083667	0,5	-0,224100
18,092000	0,5	-0,261250
18,100333	0,5	-0,290100
18,108667	0,5	-0,329000
18,117000	0,5	-0,364200
18,125333	0,5	-0,401300
18,133667	0,5	-0,423350
18,142000	0,5	-0,437450
18,150333	0,5	-0,443950
18,158667	0,5	-0,462750
18,167000	0,5	-0,473350
18,175333	0,5	-0,482200
18,183667	0,5	-0,488950
18,192000	0,5	-0,489900
18,200333	0,5	-0,486100
18,208667	0,5	-0,487650
18,217000	0,5	-0,483700
18,225333	0,5	-0,465750
18,233667	0,5	-0,456450
18,242000	0,5	-0,425600
18,250333	0,5	-0,384850
18,258667	0,5	-0,341550
18,267000	0,5	-0,328200
18,275333	0,5	-0,343850
18,283667	0,5	-0,364550
18,292000	0,5	-0,386450
18,300333	0,5	-0,425100
18,308667	0,5	-0,449800
18,317000	0,5	-0,471950
18,325333	0,5	-0,489200
18,333667	0,5	-0,509050
18,342000	0,5	-0,522250
18,350333	0,5	-0,533500
18,358667	0,5	-0,548150
18,367000	0,5	-0,536650
18,375333	0,5	-0,538450
18,383667	0,5	-0,542550
18,392000	0,5	-0,544350
18,400333	0,5	-0,544200
18,408667	0,5	-0,532100
18,417000	0,5	-0,518400
18,425333	0,5	-0,505150
18,433667	0,5	-0,455150
18,442000	0,5	-0,424600
18,450333	0,5	-0,402650
18,458667	0,5	-0,412700
18,467000	0,5	-0,427300
18,475333	0,5	-0,458500
18,483667	0,5	-0,481900
18,492000	0,5	-0,502250
18,500333	0,5	-0,511950
18,508667	0,5	-0,518600
18,517000	0,5	-0,514650
18,525333	0,5	-0,527450
18,533667	0,5	-0,528800
18,542000	0,5	-0,522600
18,550333	0,5	-0,529150
18,558667	0,5	-0,524550
18,567000	0,5	-0,540100
18,575333	0,5	-0,535200
18,583667	0,5	-0,514750
18,592000	0,5	-0,485100
18,600333	0,5	-0,465550
18,608667	0,5	-0,425450
18,617000	0,5	-0,421400
18,625333	0,5	-0,417300
18,633667	0,5	-0,432650
18,642000	0,5	-0,447900
18,650333	0,5	-0,469350
18,658667	0,5	-0,474700
18,667000	0,5	-0,479700
18,675333	0,5	-0,495700
18,683667	0,5	-0,494950
18,692000	0,5	-0,492450
18,700333	0,5	-0,497500
18,708667	0,5	-0,507000
18,717000	0,5	-0,520600
18,725333	0,5	-0,514700
18,733667	0,5	-0,502100
18,742000	0,5	-0,489800
18,750333	0,5	-0,469400
18,758667	0,5	-0,454300
18,767000	0,5	-0,437400
18,775333	0,5	-0,435050
18,783667	0,5	-0,433550
18,792000	0,5	-0,436900
18,800333	0,5	-0,452950
18,808667	0,5	-0,451250
18,817000	0,5	-0,451550
18,825333	0,5	-0,466200
18,833667	0,5	-0,464250
18,842000	0,5	-0,463950
18,850333	0,5	-0,461700
18,858667	0,5	-0,472700
18,867000	0,5	-0,462450
18,875333	0,5	-0,440900
18,883667	0,5	-0,422400
18,892000	0,5	-0,382550
18,900333	0,5	-0,340100
18,908667	0,5	-0,292350
18,917000	0,5	-0,256550
18,925333	0,5	-0,230750
18,933667	0,5	-0,219000
18,942000	0,5	-0,221850
18,950333	0,5	-0,233400
18,958667	0,5	-0,242450
18,967000	0,5	-0,278400
18,975333	0,5	-0,298500
18,983667	0,5	-0,326100
18,992000	0,5	-0,341850
19,000333	0,5	-0,367700
19,008667	0,5	-0,391550
19,017000	0,5	-0,381950
19,025333	0,5	-0,361550
19,033667	0,5	-0,356200
19,042000	0,5	-0,370800
19,050333	0,5	-0,383200
19,058667	0,5	-0,405700
19,067000	0,5	-0,426800
19,075333	0,5	-0,443300
19,083667	0,5	-0,457150
19,092000	0,5	-0,482350
19,100333	0,5	-0,476300
19,108667	0,5	-0,475900
19,117000	0,5	-0,477400
19,125333	0,5	-0,452450
19,133667	0,5	-0,447900
19,142000	0,5	-0,444500
19,150333	0,5	-0,451350
19,158667	0,5	-0,482900
19,167000	0,5	-0,485800
19,175333	0,5	-0,492800
19,183667	0,5	-0,512800
19,192000	0,5	-0,522750
19,200333	0,5	-0,520100
19,208667	0,5	-0,521200
19,217000	0,5	-0,509350
19,225333	0,5	-0,506400
19,233667	0,5	-0,500250
19,242000	0,5	-0,485250
19,250333	0,5	-0,485900
19,258667	0,5	-0,482850
19,267000	0,5	-0,500600
19,275333	0,5	-0,504000
19,283667	0,5	-0,520500
19,292000	0,5	-0,528400
19,300333	0,5	-0,555550
19,308667	0,5	-0,585800
19,317000	0,5	-0,580400
19,325333	0,5	-0,581550
19,333667	0,5	-0,584150
19,342000	0,5	-0,578200
19,350333	0,5	-0,579500
19,358667	0,5	-0,579550
19,367000	0,5	-0,582650
19,375333	0,5	-0,595800
19,383667	0,5	-0,606650
19,392000	0,5	-0,617850
19,400333	0,5	-0,614250
19,408667	0,5	-0,627150
19,417000	0,5	-0,627450
19,425333	0,5	-0,624450
19,433667	0,5	-0,623050
19,442000	0,5	-0,639250
19,450333	0,5	-0,657150
19,458667	0,5	-0,672850
19,467000	0,5	-0,675500
19,475333	0,5	-0,690200
19,483667	0,5	-0,694350
19,492000	0,5	-0,699900
19,500333	0,5	-0,696900
19,508667	0,5	-0,694950
19,517000	0,5	-0,701050
19,525333	0,5	-0,703350
19,533667	0,5	-0,716600
19,542000	0,5	-0,709400
19,550333	0,5	-0,713350
19,558667	0,5	-0,731700
19,567000	0,5	-0,728250
19,575333	0,5	-0,724250
19,583667	0,5	-0,732000
19,592000	0,5	-0,747750
19,600333	0,5	-0,769600
19,608667	0,5	-0,763600
19,617000	0,5	-0,769000
19,625333	0,5	-0,768200
19,633667	0,5	-0,779950
19,642000	0,5	-0,776800
19,650333	0,5	-0,784300
19,658667	0,5	-0,791000
19,667000	0,5	-0,795800
19,675333	0,5	-0,803950
19,683667	0,5	-0,808850
19,692000	0,5	-0,808600
19,700333	0,5	-0,834100
19,708667	0,5	-0,834050
19,717000	0,5	-0,840850
19,725333	0,5	-0,851000
19,733667	0,5	-0,850650
19,742000	0,5	-0,878450
19,750333	0,5	-0,878750
19,758667	0,5	-0,888650
19,767000	0,5	-0,886600
19,775333	0,5	-0,903800
19,783667	0,5	-0,899450
19,792000	0,5	-0,909200
19,800333	0,5	-0,915500
19,808667	0,5	-0,927300
19,817000	0,5	-0,936800
19,825333	0,5	-0,951200
19,833667	0,5	-0,955000
19,842000	0,5	-0,957700
19,850333	0,5	-0,985000
19,858667	0,5	-0,980900
19,867000	0,5	-0,996650
19,875333	0,5	-1,002750
19,883667	0,5	-1,026900
19,892000	0,5	-1,046550
19,900333	0,5	-1,054850
19,908667	0,5	-1,059400
19,917000	0,5	-1,071300
19,925333	0,5	-1,083500
19,933667	0,5	-1,097700
19,942000	0,5	-1,099400
19,950333	0,5	-1,109950
19,958667	0,5	-1,113500
19,967000	0,5	-1,126300
19,975333	0,5	-1,137500
19,983667	0,5	-1,137750
19,992000	0,5	-1,137500
20,000333	0,5	-1,158400
20,008667	0,5	-1,156800
20,017000	0,5	-1,163450
20,025333	0,5	-1,172500
20,033667	0,5	-1,200150
20,042000	0,5	-1,218750
20,050333	0,5	-1,202050
20,058667	0,5	-1,219200
20,067000	0,5	-1,225950
20,075333	0,5	-1,236650
20,083667	0,5	-1,252350
20,092000	0,5	-1,256450
20,100333	0,5	-1,264900
20,108667	0,5	-1,277950
20,117000	0,5	-1,296700
20,125333	0,5	-1,297300
20,133667	0,5	-1,303500
20,142000	0,5	-1,321100
20,150333	0,5	-1,326700
20,158667	0,5	-1,343200
20,167000	0,5	-1,344450
20,175333	0,5	-1,365800
20,183667	0,5	-1,404000
20,192000	0,5	-1,401150
20,200333	0,5	-1,418500
20,208667	0,5	-1,418050
20,217000	0,5	-1,434050
20,225333	0,5	-1,438900
20,233667	0,5	-1,453850
20,242000	0,5	-1,459950
20,250333	0,5	-1,469150
20,258667	0,5	-1,474250
20,267000	0,5	-1,483750
20,275333	0,5	-1,488000
20,283667	0,5	-1,491900
20,292000	0,5	-1,509150
20,300333	0,5	-1,519250
20,308667	0,5	-1,533500
20,317000	0,5	-1,544150
20,325333	0,5	-1,572050
20,333667	0,5	-1,600750
20,342000	0,5	-1,619250
20,350333	0,5	-1,617400
20,358667	0,5	-1,633700
20,367000	0,5	-1,638850
20,375333	0,5	-1,644650
20,383667	0,5	-1,648750
20,392000	0,5	-1,663200
20,400333	0,5	-1,667900
20,408667	0,5	-1,682250
20,417000	0,5	-1,692400
20,425333	0,5	-1,692000
20,433667	0,5	-1,704900
20,442000	0,5	-1,731000
20,450333	0,5	-1,743350
20,458667	0,5	-1,763800
20,467000	0,5	-1,776150
20,475333	0,5	-1,808200
20,483667	0,5	-1,833700
20,492000	0,5	-1,837600
20,500333	0,5	-1,858750
20,508667	0,5	-1,862700
20,517000	0,5	-1,866950
20,525333	0,5	-1,883250
20,533667	0,5	-1,902850
20,542000	0,5	-1,906800
20,550333	0,5	-1,915400
20,558667	0,5	-1,924300
20,567000	0,5	-1,918750
20,575333	0,5	-1,926600
20,583667	0,5	-1,952000
20,592000	0,5	-1,965400
20,600333	0,5	-1,979250
20,608667	0,5	-1,999250
20,617000	0,5	-2,036500
20,625333	0,5	-2,069350
20,633667	0,5	-2,078100
20,642000	0,5	-2,104450
20,650333	0,5	-2,128450
20,658667	0,5	-2,150350
20,667000	0,5	-2,159850
20,675333	0,5	-2,183950
20,683667	0,5	-2,192250
20,692000	0,5	-2,209100
20,700333	0,5	-2,224250
20,708667	0,5	-2,242450
20,717000	0,5	-2,240100
20,725333	0,5	-2,255350
20,733667	0,5	-2,276300
20,742000	0,5	-2,288450
20,750333	0,5	-2,305350
20,758667	0,5	-2,326150
20,767000	0,5	-2,357350
20,775333	0,5	-2,366700
20,783667	0,5	-2,374550
20,792000	0,5	-2,378750
20,800333	0,5	-2,402900
20,808667	0,5	-2,412050
20,817000	0,5	-2,436700
20,825333	0,5	-2,465100
20,833667	0,5	-2,489850
20,842000	0,5	-2,507250
20,850333	0,5	-2,541500
20,858667	0,5	-2,545550
20,867000	0,5	-2,551550
20,875333	0,5	-2,572500
20,883667	0,5	-2,598950
20,892000	0,5	-2,611350
20,900333	0,5	-2,637200
20,908667	0,5	-2,662000
20,917000	0,5	-2,713650
20,925333	0,5	-2,720250
20,933667	0,5	-2,731650
20,942000	0,5	-2,744550
20,950333	0,5	-2,755100
20,958667	0,5	-2,776300
20,967000	0,5	-2,781200
20,975333	0,5	-2,798650
20,983667	0,5	-2,807300
20,992000	0,5	-2,833750
21,000333	0,5	-2,848700
21,008667	0,5	-2,851650
21,017000	0,5	-2,850350
21,025333	0,5	-2,875900
21,033667	0,5	-2,883500
21,042000	0,5	-2,910600
21,050333	0,5	-2,925950
21,058667	0,5	-2,966750
21,067000	0,5	-2,999000
21,075333	0,5	-2,995350
21,083667	0,5	-3,003550
21,092000	0,5	-3,021650
21,100333	0,5	-3,036450
21,108667	0,5	-3,038650
21,117000	0,5	-3,062700
21,125333	0,5	-3,060650
21,133667	0,5	-3,074050
21,142000	0,5	-3,089150
21,150333	0,5	-3,085950
21,158667	0,5	-3,076000
21,167000	0,5	-3,078450
21,175333	0,5	-3,098650
21,183667	0,5	-3,108150
21,192000	0,5	-3,125450
21,200333	0,5	-3,157700
21,208667	0,5	-3,196550
21,217000	0,5	-3,209300
21,225333	0,5	-3,208950
21,233667	0,5	-3,213850
21,242000	0,5	-3,228350
21,250333	0,5	-3,238000
21,258667	0,5	-3,254950
21,267000	0,5	-3,261600
21,275333	0,5	-3,270300
21,283667	0,5	-3,263150
21,292000	0,5	-3,276100
21,300333	0,5	-3,256450
21,308667	0,5	-3,240650
21,317000	0,5	-3,240300
21,325333	0,5	-3,244250
21,333667	0,5	-3,239400
21,342000	0,5	-3,245950
21,350333	0,5	-3,258200
21,358667	0,5	-3,270150
21,367000	0,5	-3,284900
21,375333	0,5	-3,294800
21,383667	0,5	-3,304250
21,392000	0,5	-3,317650
21,400333	0,5	-3,327850
21,408667	0,5	-3,342550
21,417000	0,5	-3,351800
21,425333	0,5	-3,353050
21,433667	0,5	-3,372550
21,442000	0,5	-3,366450
21,450333	0,5	-3,360700
21,458667	0,5	-3,345750
21,467000	0,5	-3,356000
21,475333	0,5	-3,361300
21,483667	0,5	-3,385750
21,492000	0,5	-3,394750
21,500333	0,5	-3,426200
21,508667	0,5	-3,437700
21,517000	0,5	-3,428350
21,525333	0,5	-3,435150
21,533667	0,5	-3,440250
21,542000	0,5	-3,443850
21,550333	0,5	-3,440200
21,558667	0,5	-3,455350
21,567000	0,5	-3,448400
21,575333	0,5	-3,460450
21,583667	0,5	-3,465250
21,592000	0,5	-3,443250
21,600333	0,5	-3,421100
21,608667	0,5	-3,427400
21,617000	0,5	-3,422650
21,625333	0,5	-3,426250
21,633667	0,5	-3,441250
21,642000	0,5	-3,458700
21,650333	0,5	-3,461300
21,658667	0,5	-3,447750
21,667000	0,5	-3,439900
21,675333	0,5	-3,430800
21,683667	0,5	-3,428000
21,692000	0,5	-3,407350
21,700333	0,5	-3,383950
21,708667	0,5	-3,358900
21,717000	0,5	-3,352850
21,725333	0,5	-3,351450
21,733667	0,5	-3,360800
21,742000	0,5	-3,339550
21,750333	0,5	-3,349450
21,758667	0,5	-3,351300
21,767000	0,5	-3,354600
21,775333	0,5	-3,348500
21,783667	0,5	-3,358300
21,792000	0,5	-3,364800
21,800333	0,5	-3,357900
21,808667	0,5	-3,346550
21,817000	0,5	-3,338750
21,825333	0,5	-3,334750
21,833667	0,5	-3,312500
21,842000	0,5	-3,301050
21,850333	0,5	-3,279100
21,858667	0,5	-3,253850
21,867000	0,5	-3,232300
21,875333	0,5	-3,207500
21,883667	0,5	-3,163900
21,892000	0,5	-3,133200
21,900333	0,5	-3,125950
21,908667	0,5	-3,098250
21,917000	0,5	-3,084950
21,925333	0,5	-3,085600
21,933667	0,5	-3,073900
21,942000	0,5	-3,076300
21,950333	0,5	-3,049550
21,958667	0,5	-3,028500
21,967000	0,5	-3,013500
21,975333	0,5	-2,984950
21,983667	0,5	-2,955100
21,992000	0,5	-2,946400
22,000333	0,5	-2,937000
22,008667	0,5	-2,935400
22,017000	0,5	-2,932450
22,025333	0,5	-2,938050
22,033667	0,5	-2,929100
22,042000	0,5	-2,928400
22,050333	0,5	-2,940200
22,058667	0,5	-2,934750
22,067000	0,5	-2,945250
22,075333	0,5	-2,948650
22,083667	0,5	-2,975950
22,092000	0,5	-2,990300
22,100333	0,5	-2,979450
22,108667	0,5	-2,977600
22,117000	0,5	-2,984500
22,125333	0,5	-2,985850
22,133667	0,5	-2,982700
22,142000	0,5	-2,986050
22,150333	0,5	-2,978750
22,158667	0,5	-2,980300
22,167000	0,5	-2,974700
22,175333	0,5	-2,973450
22,183667	0,5	-2,963350
22,192000	0,5	-2,975500
22,200333	0,5	-2,956100
22,208667	0,5	-2,954600
22,217000	0,5	-2,952850
22,225333	0,5	-2,955500
22,233667	0,5	-2,960100
22,242000	0,5	-2,950750
22,250333	0,5	-2,933950
22,258667	0,5	-2,919800
22,267000	0,5	-2,905900
22,275333	0,5	-2,891850
22,283667	0,5	-2,872350
22,292000	0,5	-2,852550
22,300333	0,5	-2,835200
22,308667	0,5	-2,805750
22,317000	0,5	-2,790950
22,325333	0,5	-2,763150
22,333667	0,5	-2,741500
22,342000	0,5	-2,700400
22,350333	0,5	-2,655900
22,358667	0,5	-2,620250
22,367000	0,5	-2,578050
22,375333	0,5	-2,564700
22,383667	0,5	-2,538950
22,392000	0,5	-2,491350
22,400333	0,5	-2,446200
22,408667	0,5	-2,394150
22,417000	0,5	-2,346600
22,425333	0,5	-2,327150
22,433667	0,5	-2,311750
22,442000	0,5	-2,306650
22,450333	0,5	-2,287300
22,458667	0,5	-2,284150
22,467000	0,5	-2,281800
22,475333	0,5	-2,279700
22,483667	0,5	-2,245700
22,492000	0,5	-2,209650
22,500333	0,5	-2,171400
22,508667	0,5	-2,156400
22,517000	0,5	-2,136450
22,525333	0,5	-2,118450
22,533667	0,5	-2,084800
22,542000	0,5	-2,048150
22,550333	0,5	-2,011400
22,558667	0,5	-1,974150
22,567000	0,5	-1,942000
22,575333	0,5	-1,914150
22,583667	0,5	-1,875750
22,592000	0,5	-1,834400
22,600333	0,5	-1,794700
22,608667	0,5	-1,759450
22,617000	0,5	-1,759600
22,625333	0,5	-1,702250
22,633667	0,5	-1,626650
22,642000	0,5	-1,559000
22,650333	0,5	-1,498650
22,658667	0,5	-1,442800
22,667000	0,5	-1,420850
22,675333	0,5	-1,384200
22,683667	0,5	-1,356400
22,692000	0,5	-1,325850
22,700333	0,5	-1,332900
22,708667	0,5	-1,311900
22,717000	0,5	-1,314500
22,725333	0,5	-1,315050
22,733667	0,5	-1,311050
22,742000	0,5	-1,328100
22,750333	0,5	-1,342550
22,758667	0,5	-1,391250
22,767000	0,5	-1,419800
22,775333	0,5	-1,434500
22,783667	0,5	-1,424400
22,792000	0,5	-1,441700
22,800333	0,5	-1,467850
22,808667	0,5	-1,511600
22,817000	0,5	-1,550800
22,825333	0,5	-1,575300
22,833667	0,5	-1,615600
22,842000	0,5	-1,652400
22,850333	0,5	-1,692300
22,858667	0,5	-1,741550
22,867000	0,5	-1,792950
22,875333	0,5	-1,842600
22,883667	0,5	-1,895950
22,892000	0,5	-1,965050
22,900333	0,5	-2,018800
22,908667	0,5	-2,137700
22,917000	0,5	-2,205200
22,925333	0,5	-2,233550
22,933667	0,5	-2,289650
22,942000	0,5	-2,362500
22,950333	0,5	-2,426950
22,958667	0,5	-2,492250
22,967000	0,5	-2,563700
22,975333	0,5	-2,650000
22,983667	0,5	-2,722600
22,992000	0,5	-2,796250
23,000333	0,5	-2,861700
23,008667	0,5	-2,928100
23,017000	0,5	-2,991400
23,025333	0,5	-3,048100
23,033667	0,5	-3,112950
23,042000	0,5	-3,150100
23,050333	0,5	-3,159800
23,058667	0,5	-3,222750
23,067000	0,5	-3,242600
23,075333	0,5	-3,305100
23,083667	0,5	-3,357150
23,092000	0,5	-3,375050
23,100333	0,5	-3,398550
23,108667	0,5	-3,411300
23,117000	0,5	-3,431850
23,125333	0,5	-3,458450
23,133667	0,5	-3,478900
23,142000	0,5	-3,490750
23,150333	0,5	-3,505400
23,158667	0,5	-3,508050
23,167000	0,5	-3,507350
23,175333	0,5	-3,513050
23,183667	0,5	-3,490950
23,192000	0,5	-3,478000
23,200333	0,5	-3,427650
23,208667	0,5	-3,404300
23,217000	0,5	-3,373550
23,225333	0,5	-3,382150
23,233667	0,5	-3,363900
23,242000	0,5	-3,342850
23,250333	0,5	-3,297650
23,258667	0,5	-3,264750
23,267000	0,5	-3,244100
23,275333	0,5	-3,225750
23,283667	0,5	-3,191200
23,292000	0,5	-3,168600
23,300333	0,5	-3,139500
23,308667	0,5	-3,110350
23,317000	0,5	-3,079650
23,325333	0,5	-3,048600
23,333667	0,5	-3,012300
23,342000	0,5	-2,949150
23,350333	0,5	-2,920800
23,358667	0,5	-2,860600
23,367000	0,5	-2,797650
23,375333	0,5	-2,780750
23,383667	0,5	-2,745400
23,392000	0,5	-2,706900
23,400333	0,5	-2,647300
23,408667	0,5	-2,607600
23,417000	0,5	-2,590550
23,425333	0,5	-2,554450
23,433667	0,5	-2,526950
23,442000	0,5	-2,491500
23,450333	0,5	-2,464800
23,458667	0,5	-2,429400
23,467000	0,5	-2,401700
23,475333	0,5	-2,367000
23,483667	0,5	-2,330250
23,492000	0,5	-2,296050
23,500333	0,5	-2,303650
23,508667	0,5	-2,238800
23,517000	0,5	-2,175400
23,525333	0,5	-2,161950
23,533667	0,5	-2,126500
23,542000	0,5	-2,095550
23,550333	0,5	-2,046350
23,558667	0,5	-2,026100
23,567000	0,5	-2,004550
23,575333	0,5	-1,978000
23,583667	0,5	-1,945050
23,592000	0,5	-1,933650
23,600333	0,5	-1,905700
23,608667	0,5	-1,886100
23,617000	0,5	-1,865200
23,625333	0,5	-1,844400
23,633667	0,5	-1,819850
23,642000	0,5	-1,900900
23,650333	0,5	-1,851950
23,658667	0,5	-1,795100
23,667000	0,5	-1,744250
23,675333	0,5	-1,721250
23,683667	0,5	-1,699500
23,692000	0,5	-1,676250
23,700333	0,5	-1,654500
23,708667	0,5	-1,638700
23,717000	0,5	-1,623450
23,725333	0,5	-1,598700
23,733667	0,5	-1,590650
23,742000	0,5	-1,567850
23,750333	0,5	-1,549550
23,758667	0,5	-1,529450
23,767000	0,5	-1,515000
23,775333	0,5	-1,495900
23,783667	0,5	-1,505000
23,792000	0,5	-1,590150
23,800333	0,5	-1,543450
23,808667	0,5	-1,492850
23,817000	0,5	-1,444600
23,825333	0,5	-1,411650
23,833667	0,5	-1,388000
23,842000	0,5	-1,369950
23,850333	0,5	-1,357550
23,858667	0,5	-1,337300
23,867000	0,5	-1,320600
23,875333	0,5	-1,302200
23,883667	0,5	-1,288250
23,892000	0,5	-1,271750
23,900333	0,5	-1,257400
23,908667	0,5	-1,236200
23,917000	0,5	-1,220250
23,925333	0,5	-1,207300
23,933667	0,5	-1,331700
23,942000	0,5	-1,314750
23,950333	0,5	-1,283900
23,958667	0,5	-1,204750
23,967000	0,5	-1,161350
23,975333	0,5	-1,127000
23,983667	0,5	-1,110950
23,992000	0,5	-1,091300
24,000333	0,5	-1,070750
24,008667	0,5	-1,043200
24,017000	0,5	-1,023950
24,025333	0,5	-1,003850
24,033667	0,5	-0,986800
24,042000	0,5	-0,966750
24,050333	0,5	-0,947500
24,058667	0,5	-0,929800
24,067000	0,5	-0,907750
24,075333	0,5	-0,893300
24,083667	0,5	-1,030200
24,092000	0,5	-0,999900
24,100333	0,5	-0,945500
24,108667	0,5	-0,890200
24,117000	0,5	-0,857450
24,125333	0,5	-0,830250
24,133667	0,5	-0,811800
24,142000	0,5	-0,811000
24,150333	0,5	-0,786350
24,158667	0,5	-0,757750
24,167000	0,5	-0,739550
24,175333	0,5	-0,716100
24,183667	0,5	-0,694450
24,192000	0,5	-0,669850
24,200333	0,5	-0,650600
24,208667	0,5	-0,624150
24,217000	0,5	-0,616700
24,225333	0,5	-0,649400
24,233667	0,5	-0,711300
24,242000	0,5	-0,671150
24,250333	0,5	-0,626500
24,258667	0,5	-0,571100
24,267000	0,5	-0,545650
24,275333	0,5	-0,517100
24,283667	0,5	-0,513500
24,292000	0,5	-0,507600
24,300333	0,5	-0,484050
24,308667	0,5	-0,460300
24,317000	0,5	-0,447850
24,325333	0,5	-0,432150
24,333667	0,5	-0,419050
24,342000	0,5	-0,399500
24,350333	0,5	-0,382600
24,358667	0,5	-0,366000
24,367000	0,5	-0,344600
24,375333	0,5	-0,423300
24,383667	0,5	-0,405800
24,392000	0,5	-0,389500
24,400333	0,5	-0,339750
24,408667	0,5	-0,309900
24,417000	0,5	-0,281950
24,425333	0,5	-0,269950
24,433667	0,5	-0,263450
24,442000	0,5	-0,246150
24,450333	0,5	-0,222550
24,458667	0,5	-0,212650
24,467000	0,5	-0,194150
24,475333	0,5	-0,183450
24,483667	0,5	-0,167050
24,492000	0,5	-0,152350
24,500333	0,5	-0,138950
24,508667	0,5	-0,125400
24,517000	0,5	-0,126450
24,525333	0,5	-0,185350
24,533667	0,5	-0,166950
24,542000	0,5	-0,146200
24,550333	0,5	-0,113050
24,558667	0,5	-0,089750
24,567000	0,5	-0,075650
24,575333	0,5	-0,067700
24,583667	0,5	-0,066450
24,592000	0,5	-0,049100
24,600333	0,5	-0,036750
24,608667	0,5	-0,021950
24,617000	0,5	-0,013050
24,625333	0,5	-0,001850
24,633667	0,5	0,002300
24,642000	0,5	0,016850
24,650333	0,5	0,029900
24,658667	0,5	0,038050
24,667000	0,5	0,022200
24,675333	0,5	0,011200
24,683667	0,5	0,026000
24,692000	0,5	0,046050
24,700333	0,5	0,066500
24,708667	0,5	0,080950
24,717000	0,5	0,090850
24,725333	0,5	0,086750
24,733667	0,5	0,088650
24,742000	0,5	0,102750
24,750333	0,5	0,110800
24,758667	0,5	0,112150
24,767000	0,5	0,125300
24,775333	0,5	0,127250
24,783667	0,5	0,134850
24,792000	0,5	0,143750
24,800333	0,5	0,152000
24,808667	0,5	0,153100
24,817000	0,5	0,119450
24,825333	0,5	0,137900
24,833667	0,5	0,143150
24,842000	0,5	0,158450
24,850333	0,5	0,176250
24,858667	0,5	0,183900
24,867000	0,5	0,189400
24,875333	0,5	0,189200
24,883667	0,5	0,192250
24,892000	0,5	0,202450
24,900333	0,5	0,210800
24,908667	0,5	0,216000
24,917000	0,5	0,220500
24,925333	0,5	0,222950
24,933667	0,5	0,223950
24,942000	0,5	0,226600
24,950333	0,5	0,230150
24,958667	0,5	0,225000
24,967000	0,5	0,215350
24,975333	0,5	0,228900
24,983667	0,5	0,228800
24,992000	0,5	0,235150
25,000333	0,5	0,240950
25,008667	0,5	0,242400
25,017000	0,5	0,243050
25,025333	0,5	0,242000
25,033667	0,5	0,247450
25,042000	0,5	0,247650
25,050333	0,5	0,254550
25,058667	0,5	0,256750
25,067000	0,5	0,265850
25,075333	0,5	0,266700
25,083667	0,5	0,270850
25,092000	0,5	0,272700
25,100333	0,5	0,270300
25,108667	0,5	0,269100
25,117000	0,5	0,270050
25,125333	0,5	0,278550
25,133667	0,5	0,277000
25,142000	0,5	0,271400
25,150333	0,5	0,275100
25,158667	0,5	0,278700
25,167000	0,5	0,275550
25,175333	0,5	0,275500
25,183667	0,5	0,276550
25,192000	0,5	0,277700
25,200333	0,5	0,280400
25,208667	0,5	0,280350
25,217000	0,5	0,282050
25,225333	0,5	0,282350
25,233667	0,5	0,286000
25,242000	0,5	0,289600
25,250333	0,5	0,289950
25,258667	0,5	0,293100
25,267000	0,5	0,301600
25,275333	0,5	0,306550
25,283667	0,5	0,301850
25,292000	0,5	0,303400
25,300333	0,5	0,301950
25,308667	0,5	0,300450
25,317000	0,5	0,301600
25,325333	0,5	0,298600
25,333667	0,5	0,299050
25,342000	0,5	0,297650
25,350333	0,5	0,298550
25,358667	0,5	0,296200
25,367000	0,5	0,295350
25,375333	0,5	0,296600
25,383667	0,5	0,296750
25,392000	0,5	0,297200
25,400333	0,5	0,298700
25,408667	0,5	0,312100
25,417000	0,5	0,310550
25,425333	0,5	0,317100
25,433667	0,5	0,309700
25,442000	0,5	0,310100
25,450333	0,5	0,310500
25,458667	0,5	0,313050
25,467000	0,5	0,316000
25,475333	0,5	0,314650
25,483667	0,5	0,316000
25,492000	0,5	0,315550
25,500333	0,5	0,312600
25,508667	0,5	0,313500
25,517000	0,5	0,306900
25,525333	0,5	0,307900
25,533667	0,5	0,308000
25,542000	0,5	0,312300
25,550333	0,5	0,322900
25,558667	0,5	0,326850
25,567000	0,5	0,334000
25,575333	0,5	0,331250
25,583667	0,5	0,322150
25,592000	0,5	0,318750
25,600333	0,5	0,322300
25,608667	0,5	0,327250
25,617000	0,5	0,333650
25,625333	0,5	0,328950
25,633667	0,5	0,329200
25,642000	0,5	0,328950
25,650333	0,5	0,330500
25,658667	0,5	0,331450
25,667000	0,5	0,332300
25,675333	0,5	0,332450
25,683667	0,5	0,332700
25,692000	0,5	0,337650
25,700333	0,5	0,351650
25,708667	0,5	0,350100
25,717000	0,5	0,359650
25,725333	0,5	0,347800
25,733667	0,5	0,345250
25,742000	0,5	0,343550
25,750333	0,5	0,353350
25,758667	0,5	0,364650
25,767000	0,5	0,360650
25,775333	0,5	0,360950
25,783667	0,5	0,356150
25,792000	0,5	0,361150
25,800333	0,5	0,355600
25,808667	0,5	0,361950
25,817000	0,5	0,360850
25,825333	0,5	0,363050
25,833667	0,5	0,363700
25,842000	0,5	0,369250
25,850333	0,5	0,387300
25,858667	0,5	0,384750
25,867000	0,5	0,393100
25,875333	0,5	0,378900
25,883667	0,5	0,379750
25,892000	0,5	0,376400
25,900333	0,5	0,386800
25,908667	0,5	0,397500
25,917000	0,5	0,401850
25,925333	0,5	0,391750
25,933667	0,5	0,397800
25,942000	0,5	0,394150
25,950333	0,5	0,399750
25,958667	0,5	0,397350
25,967000	0,5	0,399700
25,975333	0,5	0,397200
25,983667	0,5	0,400250
25,992000	0,5	0,406150
26,000333	0,5	0,418400
