File Path	chrom://chromeleon01/ikbm_chromeleon/2022/ICS-5000/ED1/Esteban/20220427_Cell_Amandas_mutants.seq/798.smp/ED_1.channel/ED_1.chm
Channel	ED_1

Injection Information:
Data Vault	ikbm_chromeleon
Injection	EG_Avi_3a
Injection Number	50
Position	GA2
Comment	
Processing Method	Stop sequence after Cell Death
Instrument Method	ICS5000_PA200_FullNative_Ox_26min_ED1
Type	Unknown
Status	Finished
Injection Date	28.04.2022
Injection Time	12:21:01
Injection Volume (µl)	5,0
Dilution Factor	1,0000
Weight	1,0000

Chromatogram Data Information:
Time Min. (min)	0,000167
Time Max. (min)	26,000167
Data Points	3121
Detector	EDet1
Generating Data System	Chromeleon 7.2.9.11323
Exporting Data System	Chromeleon 7.2.9.0
Operator	Instrument Controller
Signal Quantity	
Signal Unit	nC
Signal Min.	-8,134700
Signal Max.	698,207560
Channel	ED_1
Driver Name	DC-5000
Channel Type	Evaluation
Min. Step (s)	0,5
Max. Step (s)	0,5
Average Step (s)	0,5

Signal Parameter Information:
Signal Info	

Chromatogram Data:
Time (min)	Step (s)	Value (nC)
0,000167	n.a.	-0,078150
0,008500	0,5	-0,109050
0,016833	0,5	-0,094500
0,025167	0,5	-0,038250
0,033500	0,5	-0,018450
0,041833	0,5	-0,012200
0,050167	0,5	-0,019800
0,058500	0,5	-0,014100
0,066833	0,5	-0,026250
0,075167	0,5	-0,009750
0,083500	0,5	-0,019300
0,091833	0,5	-0,014100
0,100167	0,5	-0,022150
0,108500	0,5	0,009900
0,116833	0,5	-0,020550
0,125167	0,5	0,010100
0,133500	0,5	-0,002250
0,141833	0,5	-0,015700
0,150167	0,5	-0,028500
0,158500	0,5	-0,017750
0,166833	0,5	0,013200
0,175167	0,5	0,032100
0,183500	0,5	0,033900
0,191833	0,5	0,022300
0,200167	0,5	0,022550
0,208500	0,5	0,030200
0,216833	0,5	0,017700
0,225167	0,5	0,015400
0,233500	0,5	0,016300
0,241833	0,5	-0,003300
0,250167	0,5	0,003600
0,258500	0,5	-0,002500
0,266833	0,5	0,003200
0,275167	0,5	0,020350
0,283500	0,5	0,004350
0,291833	0,5	-0,012400
0,300167	0,5	0,014000
0,308500	0,5	0,073100
0,316833	0,5	0,079400
0,325167	0,5	0,032550
0,333500	0,5	0,005950
0,341833	0,5	-0,005850
0,350167	0,5	0,001700
0,358500	0,5	-0,000250
0,366833	0,5	-0,006350
0,375167	0,5	-0,006450
0,383500	0,5	-0,013050
0,391833	0,5	-0,006550
0,400167	0,5	-0,006350
0,408500	0,5	0,010350
0,416833	0,5	-0,024650
0,425167	0,5	0,016950
0,433500	0,5	-0,019700
0,441833	0,5	-0,025200
0,450167	0,5	-0,034900
0,458500	0,5	-0,015800
0,466833	0,5	0,022250
0,475167	0,5	0,019500
0,483500	0,5	-0,008150
0,491833	0,5	0,001600
0,500167	0,5	-0,006350
0,508500	0,5	0,010600
0,516833	0,5	0,009350
0,525167	0,5	0,000200
0,533500	0,5	-0,007000
0,541833	0,5	-0,007950
0,550167	0,5	0,001500
0,558500	0,5	-0,022150
0,566833	0,5	-0,023050
0,575167	0,5	0,008650
0,583500	0,5	-0,025100
0,591833	0,5	-0,019200
0,600167	0,5	-0,006650
0,608500	0,5	0,020250
0,616833	0,5	0,063900
0,625167	0,5	0,031500
0,633500	0,5	0,033150
0,641833	0,5	0,032000
0,650167	0,5	0,032250
0,658500	0,5	0,016550
0,666833	0,5	0,021700
0,675167	0,5	0,013700
0,683500	0,5	0,021500
0,691833	0,5	0,024600
0,700167	0,5	0,027750
0,708500	0,5	0,027000
0,716833	0,5	0,040650
0,725167	0,5	0,040150
0,733500	0,5	0,015100
0,741833	0,5	0,016500
0,750167	0,5	0,018150
0,758500	0,5	0,052600
0,766833	0,5	0,077700
0,775167	0,5	0,080050
0,783500	0,5	0,060250
0,791833	0,5	0,071800
0,800167	0,5	0,056250
0,808500	0,5	0,065650
0,816833	0,5	0,066700
0,825167	0,5	0,064600
0,833500	0,5	0,062800
0,841833	0,5	0,066450
0,850167	0,5	0,071650
0,858500	0,5	0,069400
0,866833	0,5	0,078050
0,875167	0,5	0,077250
0,883500	0,5	0,063800
0,891833	0,5	0,065000
0,900167	0,5	0,081600
0,908500	0,5	0,122400
0,916833	0,5	0,147400
0,925167	0,5	0,122300
0,933500	0,5	0,127900
0,941833	0,5	0,119700
0,950167	0,5	0,118250
0,958500	0,5	0,111250
0,966833	0,5	0,125200
0,975167	0,5	0,116900
0,983500	0,5	0,121700
0,991833	0,5	0,123000
1,000167	0,5	0,118950
1,008500	0,5	0,125850
1,016833	0,5	0,157850
1,025167	0,5	0,126350
1,033500	0,5	0,122550
1,041833	0,5	0,125200
1,050167	0,5	0,154900
1,058500	0,5	0,186700
1,066833	0,5	0,191150
1,075167	0,5	0,189650
1,083500	0,5	0,188850
1,091833	0,5	0,188700
1,100167	0,5	0,176200
1,108500	0,5	0,187000
1,116833	0,5	0,191650
1,125167	0,5	0,199200
1,133500	0,5	0,188700
1,141833	0,5	0,202350
1,150167	0,5	0,179350
1,158500	0,5	0,211250
1,166833	0,5	0,206100
1,175167	0,5	0,198450
1,183500	0,5	0,199200
1,191833	0,5	0,209600
1,200167	0,5	0,247600
1,208500	0,5	0,274250
1,216833	0,5	0,281600
1,225167	0,5	0,272650
1,233500	0,5	0,274850
1,241833	0,5	0,280400
1,250167	0,5	0,277950
1,258500	0,5	0,290750
1,266833	0,5	0,296500
1,275167	0,5	0,295950
1,283500	0,5	0,301500
1,291833	0,5	0,299700
1,300167	0,5	0,305400
1,308500	0,5	0,341000
1,316833	0,5	0,347500
1,325167	0,5	0,331100
1,333500	0,5	0,340050
1,341833	0,5	0,342250
1,350167	0,5	0,406350
1,358500	0,5	0,403300
1,366833	0,5	0,405550
1,375167	0,5	0,398850
1,383500	0,5	0,413700
1,391833	0,5	0,415700
1,400167	0,5	0,425450
1,408500	0,5	0,432650
1,416833	0,5	0,443900
1,425167	0,5	0,450500
1,433500	0,5	0,461250
1,441833	0,5	0,484400
1,450167	0,5	0,476050
1,458500	0,5	0,519100
1,466833	0,5	0,497900
1,475167	0,5	0,493500
1,483500	0,5	0,504450
1,491833	0,5	0,529600
1,500167	0,5	0,578450
1,508500	0,5	0,572600
1,516833	0,5	0,567350
1,525167	0,5	0,582800
1,533500	0,5	0,579950
1,541833	0,5	0,595550
1,550167	0,5	0,602250
1,558500	0,5	0,608150
1,566833	0,5	0,563650
1,575167	0,5	0,367700
1,583500	0,5	-0,288700
1,591833	0,5	-1,386850
1,600167	0,5	-1,636500
1,608500	0,5	0,181900
1,616833	0,5	3,295150
1,625167	0,5	6,894600
1,633500	0,5	11,326800
1,641833	0,5	15,790800
1,650167	0,5	18,273000
1,658500	0,5	17,978700
1,666833	0,5	16,231700
1,675167	0,5	14,273150
1,683500	0,5	12,558950
1,691833	0,5	11,081800
1,700167	0,5	9,840300
1,708500	0,5	8,826900
1,716833	0,5	8,172100
1,725167	0,5	7,894050
1,733500	0,5	7,710100
1,741833	0,5	7,178300
1,750167	0,5	6,380600
1,758500	0,5	5,589050
1,766833	0,5	5,006450
1,775167	0,5	4,726700
1,783500	0,5	4,765500
1,791833	0,5	5,106300
1,800167	0,5	5,571450
1,808500	0,5	5,853450
1,816833	0,5	5,796350
1,825167	0,5	5,527000
1,833500	0,5	5,187550
1,841833	0,5	4,855700
1,850167	0,5	4,512750
1,858500	0,5	4,196100
1,866833	0,5	3,911350
1,875167	0,5	3,693350
1,883500	0,5	3,497750
1,891833	0,5	3,323400
1,900167	0,5	3,170900
1,908500	0,5	3,004800
1,916833	0,5	2,861850
1,925167	0,5	2,755850
1,933500	0,5	2,729700
1,941833	0,5	2,832450
1,950167	0,5	3,015300
1,958500	0,5	3,134800
1,966833	0,5	3,133300
1,975167	0,5	3,181650
1,983500	0,5	3,707200
1,991833	0,5	5,379250
2,000167	0,5	9,308750
2,008500	0,5	17,778650
2,016833	0,5	36,985151
2,025167	0,5	76,796101
2,033500	0,5	134,289452
2,041833	0,5	176,351253
2,050167	0,5	173,650053
2,058500	0,5	139,523952
2,066833	0,5	103,962952
2,075167	0,5	79,251151
2,083500	0,5	63,521801
2,091833	0,5	52,883051
2,100167	0,5	45,217001
2,108500	0,5	39,488851
2,116833	0,5	35,175901
2,125167	0,5	31,872850
2,133500	0,5	29,370950
2,141833	0,5	27,510850
2,150167	0,5	26,236600
2,158500	0,5	25,495200
2,166833	0,5	24,892350
2,175167	0,5	24,007950
2,183500	0,5	22,842000
2,191833	0,5	21,769350
2,200167	0,5	20,876550
2,208500	0,5	20,197050
2,216833	0,5	19,672100
2,225167	0,5	19,259700
2,233500	0,5	18,958350
2,241833	0,5	18,731300
2,250167	0,5	18,544750
2,258500	0,5	18,439250
2,266833	0,5	18,369600
2,275167	0,5	18,351700
2,283500	0,5	18,317450
2,291833	0,5	18,263600
2,300167	0,5	18,186450
2,308500	0,5	18,129850
2,316833	0,5	18,107800
2,325167	0,5	18,094250
2,333500	0,5	18,093950
2,341833	0,5	18,124900
2,350167	0,5	18,110300
2,358500	0,5	18,106900
2,366833	0,5	18,139000
2,375167	0,5	18,184550
2,383500	0,5	18,297050
2,391833	0,5	18,360550
2,400167	0,5	18,461100
2,408500	0,5	18,566550
2,416833	0,5	18,730950
2,425167	0,5	18,905150
2,433500	0,5	19,109900
2,441833	0,5	19,273100
2,450167	0,5	19,358500
2,458500	0,5	19,332750
2,466833	0,5	19,226000
2,475167	0,5	19,104750
2,483500	0,5	19,010900
2,491833	0,5	18,954450
2,500167	0,5	18,866250
2,508500	0,5	18,790800
2,516833	0,5	18,722650
2,525167	0,5	18,666000
2,533500	0,5	18,620800
2,541833	0,5	18,544200
2,550167	0,5	18,461700
2,558500	0,5	18,397950
2,566833	0,5	18,322400
2,575167	0,5	18,278150
2,583500	0,5	18,255850
2,591833	0,5	18,282400
2,600167	0,5	18,365550
2,608500	0,5	18,589200
2,616833	0,5	19,063700
2,625167	0,5	19,795050
2,633500	0,5	20,715000
2,641833	0,5	21,506200
2,650167	0,5	21,873850
2,658500	0,5	21,800850
2,666833	0,5	21,528500
2,675167	0,5	21,532800
2,683500	0,5	22,489400
2,691833	0,5	25,226250
2,700167	0,5	30,586200
2,708500	0,5	38,966751
2,716833	0,5	50,751001
2,725167	0,5	67,749901
2,733500	0,5	96,562251
2,741833	0,5	153,655202
2,750167	0,5	263,723504
2,758500	0,5	427,574206
2,766833	0,5	590,412059
2,775167	0,5	686,730160
2,783500	0,5	698,207560
2,791833	0,5	644,064860
2,800167	0,5	555,169008
2,808500	0,5	458,514007
2,816833	0,5	371,911256
2,825167	0,5	302,600605
2,833500	0,5	249,847854
2,841833	0,5	209,394403
2,850167	0,5	177,246203
2,858500	0,5	151,063452
2,866833	0,5	129,701502
2,875167	0,5	112,432702
2,883500	0,5	98,415701
2,891833	0,5	86,761201
2,900167	0,5	76,735851
2,908500	0,5	67,958651
2,916833	0,5	60,237501
2,925167	0,5	53,594001
2,933500	0,5	47,970251
2,941833	0,5	43,212351
2,950167	0,5	39,213251
2,958500	0,5	35,838651
2,966833	0,5	32,984800
2,975167	0,5	30,549200
2,983500	0,5	28,387050
2,991833	0,5	26,474950
3,000167	0,5	24,780450
3,008500	0,5	23,273800
3,016833	0,5	21,917400
3,025167	0,5	20,714100
3,033500	0,5	19,618100
3,041833	0,5	18,611750
3,050167	0,5	17,700500
3,058500	0,5	16,846800
3,066833	0,5	16,091650
3,075167	0,5	15,382350
3,083500	0,5	14,733550
3,091833	0,5	14,098000
3,100167	0,5	13,523850
3,108500	0,5	12,977950
3,116833	0,5	12,496750
3,125167	0,5	12,035600
3,133500	0,5	11,579200
3,141833	0,5	11,139900
3,150167	0,5	10,755100
3,158500	0,5	10,385150
3,166833	0,5	10,072200
3,175167	0,5	9,776650
3,183500	0,5	9,522150
3,191833	0,5	9,296500
3,200167	0,5	9,108650
3,208500	0,5	8,980050
3,216833	0,5	8,925600
3,225167	0,5	9,019300
3,233500	0,5	9,217450
3,241833	0,5	9,519400
3,250167	0,5	9,840100
3,258500	0,5	10,050600
3,266833	0,5	10,037100
3,275167	0,5	9,737350
3,283500	0,5	9,204150
3,291833	0,5	8,594100
3,300167	0,5	7,981500
3,308500	0,5	7,458800
3,316833	0,5	7,024350
3,325167	0,5	6,688050
3,333500	0,5	6,409150
3,341833	0,5	6,178350
3,350167	0,5	5,988700
3,358500	0,5	5,812050
3,366833	0,5	5,664850
3,375167	0,5	5,566000
3,383500	0,5	5,433200
3,391833	0,5	5,311550
3,400167	0,5	5,207100
3,408500	0,5	5,107550
3,416833	0,5	5,033500
3,425167	0,5	4,931700
3,433500	0,5	4,838050
3,441833	0,5	4,737750
3,450167	0,5	4,658900
3,458500	0,5	4,566400
3,466833	0,5	4,493700
3,475167	0,5	4,411900
3,483500	0,5	4,335950
3,491833	0,5	4,272500
3,500167	0,5	4,215200
3,508500	0,5	4,140700
3,516833	0,5	4,099200
3,525167	0,5	4,060100
3,533500	0,5	4,004450
3,541833	0,5	3,943700
3,550167	0,5	3,901050
3,558500	0,5	3,874900
3,566833	0,5	3,841400
3,575167	0,5	3,778300
3,583500	0,5	3,715150
3,591833	0,5	3,662900
3,600167	0,5	3,599600
3,608500	0,5	3,545050
3,616833	0,5	3,497850
3,625167	0,5	3,460350
3,633500	0,5	3,408150
3,641833	0,5	3,365550
3,650167	0,5	3,321750
3,658500	0,5	3,262700
3,666833	0,5	3,221800
3,675167	0,5	3,160250
3,683500	0,5	3,085450
3,691833	0,5	3,030550
3,700167	0,5	2,987100
3,708500	0,5	2,957150
3,716833	0,5	2,912000
3,725167	0,5	2,848350
3,733500	0,5	2,812250
3,741833	0,5	2,776050
3,750167	0,5	2,733550
3,758500	0,5	2,699800
3,766833	0,5	2,674500
3,775167	0,5	2,651550
3,783500	0,5	2,648750
3,791833	0,5	2,653250
3,800167	0,5	2,673300
3,808500	0,5	2,676050
3,816833	0,5	2,722300
3,825167	0,5	2,713350
3,833500	0,5	2,715650
3,841833	0,5	2,683900
3,850167	0,5	2,652250
3,858500	0,5	2,633800
3,866833	0,5	2,573600
3,875167	0,5	2,507200
3,883500	0,5	2,455050
3,891833	0,5	2,407450
3,900167	0,5	2,363300
3,908500	0,5	2,326800
3,916833	0,5	2,288850
3,925167	0,5	2,258100
3,933500	0,5	2,234550
3,941833	0,5	2,212300
3,950167	0,5	2,163500
3,958500	0,5	2,131350
3,966833	0,5	2,114450
3,975167	0,5	2,073100
3,983500	0,5	2,045200
3,991833	0,5	2,025150
4,000167	0,5	2,023800
4,008500	0,5	2,028050
4,016833	0,5	2,005050
4,025167	0,5	1,988950
4,033500	0,5	1,976450
4,041833	0,5	1,972800
4,050167	0,5	1,951550
4,058500	0,5	1,943450
4,066833	0,5	1,923600
4,075167	0,5	1,903050
4,083500	0,5	1,885000
4,091833	0,5	1,847650
4,100167	0,5	1,819850
4,108500	0,5	1,800600
4,116833	0,5	1,776650
4,125167	0,5	1,737550
4,133500	0,5	1,724000
4,141833	0,5	1,715250
4,150167	0,5	1,722450
4,158500	0,5	1,729750
4,166833	0,5	1,718400
4,175167	0,5	1,701050
4,183500	0,5	1,702800
4,191833	0,5	1,686600
4,200167	0,5	1,681450
4,208500	0,5	1,671550
4,216833	0,5	1,665600
4,225167	0,5	1,654850
4,233500	0,5	1,652200
4,241833	0,5	1,654950
4,250167	0,5	1,647650
4,258500	0,5	1,673650
4,266833	0,5	1,690000
4,275167	0,5	1,717800
4,283500	0,5	1,774000
4,291833	0,5	1,861050
4,300167	0,5	1,983550
4,308500	0,5	2,123250
4,316833	0,5	2,258800
4,325167	0,5	2,444850
4,333500	0,5	2,645050
4,341833	0,5	2,902400
4,350167	0,5	3,205650
4,358500	0,5	3,597100
4,366833	0,5	4,077400
4,375167	0,5	4,727150
4,383500	0,5	5,585750
4,391833	0,5	6,698200
4,400167	0,5	8,099750
4,408500	0,5	9,804750
4,416833	0,5	11,681550
4,425167	0,5	13,639500
4,433500	0,5	15,505600
4,441833	0,5	17,083500
4,450167	0,5	18,178650
4,458500	0,5	18,645250
4,466833	0,5	18,485900
4,475167	0,5	17,751150
4,483500	0,5	16,554050
4,491833	0,5	15,038200
4,500167	0,5	13,386200
4,508500	0,5	11,715000
4,516833	0,5	10,140450
4,525167	0,5	8,724100
4,533500	0,5	7,496950
4,541833	0,5	6,453450
4,550167	0,5	5,627250
4,558500	0,5	4,937800
4,566833	0,5	4,377100
4,575167	0,5	3,934150
4,583500	0,5	3,590850
4,591833	0,5	3,336350
4,600167	0,5	3,123300
4,608500	0,5	2,934050
4,616833	0,5	2,775250
4,625167	0,5	2,644250
4,633500	0,5	2,521100
4,641833	0,5	2,416050
4,650167	0,5	2,327800
4,658500	0,5	2,237150
4,666833	0,5	2,151650
4,675167	0,5	2,090000
4,683500	0,5	2,008450
4,691833	0,5	1,948400
4,700167	0,5	1,929500
4,708500	0,5	1,893800
4,716833	0,5	1,862400
4,725167	0,5	1,846450
4,733500	0,5	1,843150
4,741833	0,5	1,854550
4,750167	0,5	1,836800
4,758500	0,5	1,791750
4,766833	0,5	1,745650
4,775167	0,5	1,710700
4,783500	0,5	1,656500
4,791833	0,5	1,610900
4,800167	0,5	1,556700
4,808500	0,5	1,502750
4,816833	0,5	1,456000
4,825167	0,5	1,417800
4,833500	0,5	1,393250
4,841833	0,5	1,346150
4,850167	0,5	1,346600
4,858500	0,5	1,302300
4,866833	0,5	1,283850
4,875167	0,5	1,262500
4,883500	0,5	1,265600
4,891833	0,5	1,282350
4,900167	0,5	1,274100
4,908500	0,5	1,257600
4,916833	0,5	1,263950
4,925167	0,5	1,257100
4,933500	0,5	1,252050
4,941833	0,5	1,253350
4,950167	0,5	1,257000
4,958500	0,5	1,261350
4,966833	0,5	1,257300
4,975167	0,5	1,263600
4,983500	0,5	1,257900
4,991833	0,5	1,254350
5,000167	0,5	1,263350
5,008500	0,5	1,243500
5,016833	0,5	1,234850
5,025167	0,5	1,242250
5,033500	0,5	1,254400
5,041833	0,5	1,281400
5,050167	0,5	1,262000
5,058500	0,5	1,266150
5,066833	0,5	1,257100
5,075167	0,5	1,256950
5,083500	0,5	1,247800
5,091833	0,5	1,249900
5,100167	0,5	1,240850
5,108500	0,5	1,240150
5,116833	0,5	1,238900
5,125167	0,5	1,227750
5,133500	0,5	1,214600
5,141833	0,5	1,226500
5,150167	0,5	1,223050
5,158500	0,5	1,216650
5,166833	0,5	1,225500
5,175167	0,5	1,232450
5,183500	0,5	1,260050
5,191833	0,5	1,279150
5,200167	0,5	1,286650
5,208500	0,5	1,282400
5,216833	0,5	1,298500
5,225167	0,5	1,306250
5,233500	0,5	1,318450
5,241833	0,5	1,320750
5,250167	0,5	1,326800
5,258500	0,5	1,333050
5,266833	0,5	1,344500
5,275167	0,5	1,330900
5,283500	0,5	1,327650
5,291833	0,5	1,322700
5,300167	0,5	1,301800
5,308500	0,5	1,286450
5,316833	0,5	1,280900
5,325167	0,5	1,285250
5,333500	0,5	1,300350
5,341833	0,5	1,313450
5,350167	0,5	1,294900
5,358500	0,5	1,294150
5,366833	0,5	1,293350
5,375167	0,5	1,286050
5,383500	0,5	1,275900
5,391833	0,5	1,274950
5,400167	0,5	1,267850
5,408500	0,5	1,268650
5,416833	0,5	1,264000
5,425167	0,5	1,257650
5,433500	0,5	1,260600
5,441833	0,5	1,277250
5,450167	0,5	1,265950
5,458500	0,5	1,266900
5,466833	0,5	1,278800
5,475167	0,5	1,305400
5,483500	0,5	1,324300
5,491833	0,5	1,329450
5,500167	0,5	1,332500
5,508500	0,5	1,342950
5,516833	0,5	1,347200
5,525167	0,5	1,352150
5,533500	0,5	1,357700
5,541833	0,5	1,356450
5,550167	0,5	1,369200
5,558500	0,5	1,376550
5,566833	0,5	1,393100
5,575167	0,5	1,386300
5,583500	0,5	1,416050
5,591833	0,5	1,417050
5,600167	0,5	1,432000
5,608500	0,5	1,448300
5,616833	0,5	1,474950
5,625167	0,5	1,519550
5,633500	0,5	1,552850
5,641833	0,5	1,567600
5,650167	0,5	1,594250
5,658500	0,5	1,606450
5,666833	0,5	1,620400
5,675167	0,5	1,627000
5,683500	0,5	1,626850
5,691833	0,5	1,620450
5,700167	0,5	1,603100
5,708500	0,5	1,595800
5,716833	0,5	1,574500
5,725167	0,5	1,550400
5,733500	0,5	1,549950
5,741833	0,5	1,516400
5,750167	0,5	1,504700
5,758500	0,5	1,491000
5,766833	0,5	1,493250
5,775167	0,5	1,522750
5,783500	0,5	1,507750
5,791833	0,5	1,503050
5,800167	0,5	1,499150
5,808500	0,5	1,504350
5,816833	0,5	1,503750
5,825167	0,5	1,507750
5,833500	0,5	1,509450
5,841833	0,5	1,510300
5,850167	0,5	1,516350
5,858500	0,5	1,517700
5,866833	0,5	1,530850
5,875167	0,5	1,527950
5,883500	0,5	1,547800
5,891833	0,5	1,527500
5,900167	0,5	1,528900
5,908500	0,5	1,526000
5,916833	0,5	1,538650
5,925167	0,5	1,559050
5,933500	0,5	1,560500
5,941833	0,5	1,551700
5,950167	0,5	1,567500
5,958500	0,5	1,564150
5,966833	0,5	1,569150
5,975167	0,5	1,576000
5,983500	0,5	1,578450
5,991833	0,5	1,583050
6,000167	0,5	1,586200
6,008500	0,5	1,597550
6,016833	0,5	1,593650
6,025167	0,5	1,594950
6,033500	0,5	1,613500
6,041833	0,5	1,603400
6,050167	0,5	1,603350
6,058500	0,5	1,617200
6,066833	0,5	1,639900
6,075167	0,5	1,675750
6,083500	0,5	1,671500
6,091833	0,5	1,675700
6,100167	0,5	1,673600
6,108500	0,5	1,683700
6,116833	0,5	1,682650
6,125167	0,5	1,699500
6,133500	0,5	1,696750
6,141833	0,5	1,706100
6,150167	0,5	1,713550
6,158500	0,5	1,711150
6,166833	0,5	1,708050
6,175167	0,5	1,731600
6,183500	0,5	1,736650
6,191833	0,5	1,732550
6,200167	0,5	1,737850
6,208500	0,5	1,750550
6,216833	0,5	1,777400
6,225167	0,5	1,796400
6,233500	0,5	1,803850
6,241833	0,5	1,809700
6,250167	0,5	1,819900
6,258500	0,5	1,821100
6,266833	0,5	1,835650
6,275167	0,5	1,848800
6,283500	0,5	1,864600
6,291833	0,5	1,881400
6,300167	0,5	1,906550
6,308500	0,5	1,929900
6,316833	0,5	1,969450
6,325167	0,5	2,008950
6,333500	0,5	2,036950
6,341833	0,5	2,069700
6,350167	0,5	2,104950
6,358500	0,5	2,142950
6,366833	0,5	2,186400
6,375167	0,5	2,210550
6,383500	0,5	2,212600
6,391833	0,5	2,210250
6,400167	0,5	2,202850
6,408500	0,5	2,188900
6,416833	0,5	2,182350
6,425167	0,5	2,167750
6,433500	0,5	2,158150
6,441833	0,5	2,154800
6,450167	0,5	2,147250
6,458500	0,5	2,141650
6,466833	0,5	2,146200
6,475167	0,5	2,146150
6,483500	0,5	2,132000
6,491833	0,5	2,136400
6,500167	0,5	2,137100
6,508500	0,5	2,162550
6,516833	0,5	2,182050
6,525167	0,5	2,194100
6,533500	0,5	2,202950
6,541833	0,5	2,229750
6,550167	0,5	2,252300
6,558500	0,5	2,279800
6,566833	0,5	2,310650
6,575167	0,5	2,327650
6,583500	0,5	2,346700
6,591833	0,5	2,351900
6,600167	0,5	2,353100
6,608500	0,5	2,327550
6,616833	0,5	2,329050
6,625167	0,5	2,296100
6,633500	0,5	2,267200
6,641833	0,5	2,240000
6,650167	0,5	2,226450
6,658500	0,5	2,230950
6,666833	0,5	2,228000
6,675167	0,5	2,215450
6,683500	0,5	2,217200
6,691833	0,5	2,217400
6,700167	0,5	2,221400
6,708500	0,5	2,219050
6,716833	0,5	2,224950
6,725167	0,5	2,224250
6,733500	0,5	2,226950
6,741833	0,5	2,236050
6,750167	0,5	2,234400
6,758500	0,5	2,236750
6,766833	0,5	2,258550
6,775167	0,5	2,255050
6,783500	0,5	2,262750
6,791833	0,5	2,279550
6,800167	0,5	2,295250
6,808500	0,5	2,324150
6,816833	0,5	2,316500
6,825167	0,5	2,319650
6,833500	0,5	2,314850
6,841833	0,5	2,322500
6,850167	0,5	2,319100
6,858500	0,5	2,326100
6,866833	0,5	2,320500
6,875167	0,5	2,327500
6,883500	0,5	2,324050
6,891833	0,5	2,333250
6,900167	0,5	2,334100
6,908500	0,5	2,330150
6,916833	0,5	2,337700
6,925167	0,5	2,336450
6,933500	0,5	2,333700
6,941833	0,5	2,338150
6,950167	0,5	2,345550
6,958500	0,5	2,360550
6,966833	0,5	2,362900
6,975167	0,5	2,360300
6,983500	0,5	2,380250
6,991833	0,5	2,398250
7,000167	0,5	2,419200
7,008500	0,5	2,442050
7,016833	0,5	2,468500
7,025167	0,5	2,487250
7,033500	0,5	2,507300
7,041833	0,5	2,524100
7,050167	0,5	2,518800
7,058500	0,5	2,509150
7,066833	0,5	2,496050
7,075167	0,5	2,465450
7,083500	0,5	2,443250
7,091833	0,5	2,426000
7,100167	0,5	2,428250
7,108500	0,5	2,433550
7,116833	0,5	2,418900
7,125167	0,5	2,421350
7,133500	0,5	2,426400
7,141833	0,5	2,433750
7,150167	0,5	2,448800
7,158500	0,5	2,456050
7,166833	0,5	2,462700
7,175167	0,5	2,471000
7,183500	0,5	2,475100
7,191833	0,5	2,480950
7,200167	0,5	2,479950
7,208500	0,5	2,500150
7,216833	0,5	2,498650
7,225167	0,5	2,498150
7,233500	0,5	2,494700
7,241833	0,5	2,493500
7,250167	0,5	2,491750
7,258500	0,5	2,479200
7,266833	0,5	2,449900
7,275167	0,5	2,427350
7,283500	0,5	2,417450
7,291833	0,5	2,408550
7,300167	0,5	2,421650
7,308500	0,5	2,431350
7,316833	0,5	2,450100
7,325167	0,5	2,468150
7,333500	0,5	2,490850
7,341833	0,5	2,499400
7,350167	0,5	2,508350
7,358500	0,5	2,513600
7,366833	0,5	2,505400
7,375167	0,5	2,491900
7,383500	0,5	2,478550
7,391833	0,5	2,453600
7,400167	0,5	2,432650
7,408500	0,5	2,405200
7,416833	0,5	2,387850
7,425167	0,5	2,367100
7,433500	0,5	2,351950
7,441833	0,5	2,349300
7,450167	0,5	2,351350
7,458500	0,5	2,361850
7,466833	0,5	2,371550
7,475167	0,5	2,385900
7,483500	0,5	2,393250
7,491833	0,5	2,396650
7,500167	0,5	2,410500
7,508500	0,5	2,424450
7,516833	0,5	2,434250
7,525167	0,5	2,448050
7,533500	0,5	2,467100
7,541833	0,5	2,499850
7,550167	0,5	2,527350
7,558500	0,5	2,549400
7,566833	0,5	2,571050
7,575167	0,5	2,602550
7,583500	0,5	2,638300
7,591833	0,5	2,707400
7,600167	0,5	2,824700
7,608500	0,5	3,009800
7,616833	0,5	3,254700
7,625167	0,5	3,523300
7,633500	0,5	3,747150
7,641833	0,5	3,864000
7,650167	0,5	3,889600
7,658500	0,5	3,853000
7,666833	0,5	3,837950
7,675167	0,5	3,856900
7,683500	0,5	3,898750
7,691833	0,5	3,899350
7,700167	0,5	3,804200
7,708500	0,5	3,614700
7,716833	0,5	3,382300
7,725167	0,5	3,147600
7,733500	0,5	2,970850
7,741833	0,5	2,873500
7,750167	0,5	2,863900
7,758500	0,5	2,898900
7,766833	0,5	2,969600
7,775167	0,5	3,033500
7,783500	0,5	3,090300
7,791833	0,5	3,129000
7,800167	0,5	3,159550
7,808500	0,5	3,147450
7,816833	0,5	3,118750
7,825167	0,5	3,100250
7,833500	0,5	3,133350
7,841833	0,5	3,259350
7,850167	0,5	3,490600
7,858500	0,5	3,828750
7,866833	0,5	4,214150
7,875167	0,5	4,518250
7,883500	0,5	4,627650
7,891833	0,5	4,493500
7,900167	0,5	4,168400
7,908500	0,5	3,756050
7,916833	0,5	3,361400
7,925167	0,5	3,051500
7,933500	0,5	2,826200
7,941833	0,5	2,687000
7,950167	0,5	2,604550
7,958500	0,5	2,555300
7,966833	0,5	2,532900
7,975167	0,5	2,513000
7,983500	0,5	2,492950
7,991833	0,5	2,472600
8,000167	0,5	2,439500
8,008500	0,5	2,406950
8,016833	0,5	2,377900
8,025167	0,5	2,349050
8,033500	0,5	2,325850
8,041833	0,5	2,306150
8,050167	0,5	2,289350
8,058500	0,5	2,285650
8,066833	0,5	2,291050
8,075167	0,5	2,310650
8,083500	0,5	2,337400
8,091833	0,5	2,373450
8,100167	0,5	2,399450
8,108500	0,5	2,407650
8,116833	0,5	2,396150
8,125167	0,5	2,367400
8,133500	0,5	2,334100
8,141833	0,5	2,301250
8,150167	0,5	2,267600
8,158500	0,5	2,248950
8,166833	0,5	2,236000
8,175167	0,5	2,226700
8,183500	0,5	2,231500
8,191833	0,5	2,246250
8,200167	0,5	2,262950
8,208500	0,5	2,292150
8,216833	0,5	2,323150
8,225167	0,5	2,352650
8,233500	0,5	2,372000
8,241833	0,5	2,396500
8,250167	0,5	2,409250
8,258500	0,5	2,428700
8,266833	0,5	2,444350
8,275167	0,5	2,458550
8,283500	0,5	2,473950
8,291833	0,5	2,473800
8,300167	0,5	2,466200
8,308500	0,5	2,464450
8,316833	0,5	2,475700
8,325167	0,5	2,517800
8,333500	0,5	2,581550
8,341833	0,5	2,679750
8,350167	0,5	2,792200
8,358500	0,5	2,907550
8,366833	0,5	2,993000
8,375167	0,5	3,031600
8,383500	0,5	3,028550
8,391833	0,5	2,997300
8,400167	0,5	2,930200
8,408500	0,5	2,835350
8,416833	0,5	2,724850
8,425167	0,5	2,604100
8,433500	0,5	2,496000
8,441833	0,5	2,385400
8,450167	0,5	2,298050
8,458500	0,5	2,220000
8,466833	0,5	2,164300
8,475167	0,5	2,126350
8,483500	0,5	2,104150
8,491833	0,5	2,089150
8,500167	0,5	2,076950
8,508500	0,5	2,064550
8,516833	0,5	2,048250
8,525167	0,5	2,025250
8,533500	0,5	2,006050
8,541833	0,5	1,986750
8,550167	0,5	1,963600
8,558500	0,5	1,952250
8,566833	0,5	1,939100
8,575167	0,5	1,933550
8,583500	0,5	1,929300
8,591833	0,5	1,927150
8,600167	0,5	1,919650
8,608500	0,5	1,907400
8,616833	0,5	1,902800
8,625167	0,5	1,895500
8,633500	0,5	1,887500
8,641833	0,5	1,880700
8,650167	0,5	1,872150
8,658500	0,5	1,864350
8,666833	0,5	1,858200
8,675167	0,5	1,844450
8,683500	0,5	1,839850
8,691833	0,5	1,840200
8,700167	0,5	1,836700
8,708500	0,5	1,841450
8,716833	0,5	1,849300
8,725167	0,5	1,868700
8,733500	0,5	1,884400
8,741833	0,5	1,899450
8,750167	0,5	1,920750
8,758500	0,5	1,939050
8,766833	0,5	1,955100
8,775167	0,5	1,986900
8,783500	0,5	2,019400
8,791833	0,5	2,058100
8,800167	0,5	2,100000
8,808500	0,5	2,128650
8,816833	0,5	2,140900
8,825167	0,5	2,133000
8,833500	0,5	2,119800
8,841833	0,5	2,090500
8,850167	0,5	2,069700
8,858500	0,5	2,052600
8,866833	0,5	2,056100
8,875167	0,5	2,066650
8,883500	0,5	2,075450
8,891833	0,5	2,093950
8,900167	0,5	2,112200
8,908500	0,5	2,126850
8,916833	0,5	2,149150
8,925167	0,5	2,170400
8,933500	0,5	2,188100
8,941833	0,5	2,211200
8,950167	0,5	2,236150
8,958500	0,5	2,271150
8,966833	0,5	2,325250
8,975167	0,5	2,422800
8,983500	0,5	2,583400
8,991833	0,5	2,806550
9,000167	0,5	3,118850
9,008500	0,5	3,502950
9,016833	0,5	3,930800
9,025167	0,5	4,319300
9,033500	0,5	4,576350
9,041833	0,5	4,617750
9,050167	0,5	4,451400
9,058500	0,5	4,115050
9,066833	0,5	3,698250
9,075167	0,5	3,287700
9,083500	0,5	2,924900
9,091833	0,5	2,645350
9,100167	0,5	2,456200
9,108500	0,5	2,338300
9,116833	0,5	2,269050
9,125167	0,5	2,229850
9,133500	0,5	2,203500
9,141833	0,5	2,183800
9,150167	0,5	2,158200
9,158500	0,5	2,130250
9,166833	0,5	2,106050
9,175167	0,5	2,076300
9,183500	0,5	2,043200
9,191833	0,5	2,013450
9,200167	0,5	1,984700
9,208500	0,5	1,963750
9,216833	0,5	1,952300
9,225167	0,5	1,938050
9,233500	0,5	1,926850
9,241833	0,5	1,918450
9,250167	0,5	1,913500
9,258500	0,5	1,917800
9,266833	0,5	1,928300
9,275167	0,5	1,940000
9,283500	0,5	1,951800
9,291833	0,5	1,963350
9,300167	0,5	1,973150
9,308500	0,5	1,974700
9,316833	0,5	1,968700
9,325167	0,5	1,963050
9,333500	0,5	1,943100
9,341833	0,5	1,932550
9,350167	0,5	1,920950
9,358500	0,5	1,903400
9,366833	0,5	1,885200
9,375167	0,5	1,862300
9,383500	0,5	1,838750
9,391833	0,5	1,819150
9,400167	0,5	1,794450
9,408500	0,5	1,774950
9,416833	0,5	1,759450
9,425167	0,5	1,752750
9,433500	0,5	1,744750
9,441833	0,5	1,739950
9,450167	0,5	1,742300
9,458500	0,5	1,744350
9,466833	0,5	1,749500
9,475167	0,5	1,749750
9,483500	0,5	1,739050
9,491833	0,5	1,719600
9,500167	0,5	1,709000
9,508500	0,5	1,686900
9,516833	0,5	1,672400
9,525167	0,5	1,659900
9,533500	0,5	1,650700
9,541833	0,5	1,637350
9,550167	0,5	1,626600
9,558500	0,5	1,618100
9,566833	0,5	1,607850
9,575167	0,5	1,601400
9,583500	0,5	1,587000
9,591833	0,5	1,586500
9,600167	0,5	1,574700
9,608500	0,5	1,569150
9,616833	0,5	1,565450
9,625167	0,5	1,554450
9,633500	0,5	1,541450
9,641833	0,5	1,532000
9,650167	0,5	1,522850
9,658500	0,5	1,509850
9,666833	0,5	1,507100
9,675167	0,5	1,497900
9,683500	0,5	1,498250
9,691833	0,5	1,496000
9,700167	0,5	1,488350
9,708500	0,5	1,488550
9,716833	0,5	1,484700
9,725167	0,5	1,482750
9,733500	0,5	1,484650
9,741833	0,5	1,489400
9,750167	0,5	1,494600
9,758500	0,5	1,504500
9,766833	0,5	1,511500
9,775167	0,5	1,511100
9,783500	0,5	1,509750
9,791833	0,5	1,514700
9,800167	0,5	1,517650
9,808500	0,5	1,528200
9,816833	0,5	1,544950
9,825167	0,5	1,570250
9,833500	0,5	1,597850
9,841833	0,5	1,632200
9,850167	0,5	1,661600
9,858500	0,5	1,686750
9,866833	0,5	1,706300
9,875167	0,5	1,702350
9,883500	0,5	1,691050
9,891833	0,5	1,668100
9,900167	0,5	1,643600
9,908500	0,5	1,625550
9,916833	0,5	1,608100
9,925167	0,5	1,591550
9,933500	0,5	1,573850
9,941833	0,5	1,568300
9,950167	0,5	1,570250
9,958500	0,5	1,565450
9,966833	0,5	1,564600
9,975167	0,5	1,574050
9,983500	0,5	1,574400
9,991833	0,5	1,577700
10,000167	0,5	1,581900
10,008500	0,5	1,583750
10,016833	0,5	1,591650
10,025167	0,5	1,595300
10,033500	0,5	1,601200
10,041833	0,5	1,608650
10,050167	0,5	1,624450
10,058500	0,5	1,642700
10,066833	0,5	1,660200
10,075167	0,5	1,675450
10,083500	0,5	1,683750
10,091833	0,5	1,681050
10,100167	0,5	1,675550
10,108500	0,5	1,662800
10,116833	0,5	1,646400
10,125167	0,5	1,623250
10,133500	0,5	1,599600
10,141833	0,5	1,573500
10,150167	0,5	1,553650
10,158500	0,5	1,532050
10,166833	0,5	1,518350
10,175167	0,5	1,503200
10,183500	0,5	1,486450
10,191833	0,5	1,470400
10,200167	0,5	1,463900
10,208500	0,5	1,457850
10,216833	0,5	1,451650
10,225167	0,5	1,439300
10,233500	0,5	1,439750
10,241833	0,5	1,434700
10,250167	0,5	1,433600
10,258500	0,5	1,427550
10,266833	0,5	1,430550
10,275167	0,5	1,437750
10,283500	0,5	1,450150
10,291833	0,5	1,461550
10,300167	0,5	1,473150
10,308500	0,5	1,490150
10,316833	0,5	1,509750
10,325167	0,5	1,532800
10,333500	0,5	1,555000
10,341833	0,5	1,597700
10,350167	0,5	1,638650
10,358500	0,5	1,687250
10,366833	0,5	1,742550
10,375167	0,5	1,784700
10,383500	0,5	1,823100
10,391833	0,5	1,836200
10,400167	0,5	1,834900
10,408500	0,5	1,812850
10,416833	0,5	1,776450
10,425167	0,5	1,732950
10,433500	0,5	1,681100
10,441833	0,5	1,632900
10,450167	0,5	1,584400
10,458500	0,5	1,547950
10,466833	0,5	1,512800
10,475167	0,5	1,487850
10,483500	0,5	1,460950
10,491833	0,5	1,441850
10,500167	0,5	1,425100
10,508500	0,5	1,423150
10,516833	0,5	1,412550
10,525167	0,5	1,406450
10,533500	0,5	1,395000
10,541833	0,5	1,391950
10,550167	0,5	1,391850
10,558500	0,5	1,385800
10,566833	0,5	1,382450
10,575167	0,5	1,379550
10,583500	0,5	1,380200
10,591833	0,5	1,377850
10,600167	0,5	1,378250
10,608500	0,5	1,378450
10,616833	0,5	1,387100
10,625167	0,5	1,396800
10,633500	0,5	1,405650
10,641833	0,5	1,423200
10,650167	0,5	1,458600
10,658500	0,5	1,484300
10,666833	0,5	1,518150
10,675167	0,5	1,538850
10,683500	0,5	1,556950
10,691833	0,5	1,545150
10,700167	0,5	1,523350
10,708500	0,5	1,472800
10,716833	0,5	1,427800
10,725167	0,5	1,373550
10,733500	0,5	1,332300
10,741833	0,5	1,292550
10,750167	0,5	1,279200
10,758500	0,5	1,277000
10,766833	0,5	1,277350
10,775167	0,5	1,293000
10,783500	0,5	1,312100
10,791833	0,5	1,333800
10,800167	0,5	1,358450
10,808500	0,5	1,383000
10,816833	0,5	1,403250
10,825167	0,5	1,426700
10,833500	0,5	1,445600
10,841833	0,5	1,453050
10,850167	0,5	1,463750
10,858500	0,5	1,464800
10,866833	0,5	1,459300
10,875167	0,5	1,459900
10,883500	0,5	1,453800
10,891833	0,5	1,448950
10,900167	0,5	1,444350
10,908500	0,5	1,440000
10,916833	0,5	1,436200
10,925167	0,5	1,431600
10,933500	0,5	1,430150
10,941833	0,5	1,428050
10,950167	0,5	1,433700
10,958500	0,5	1,428550
10,966833	0,5	1,428000
10,975167	0,5	1,425250
10,983500	0,5	1,425600
10,991833	0,5	1,411550
11,000167	0,5	1,410500
11,008500	0,5	1,405700
11,016833	0,5	1,406000
11,025167	0,5	1,400350
11,033500	0,5	1,402750
11,041833	0,5	1,397250
11,050167	0,5	1,405900
11,058500	0,5	1,405850
11,066833	0,5	1,398900
11,075167	0,5	1,388050
11,083500	0,5	1,375750
11,091833	0,5	1,369450
11,100167	0,5	1,353550
11,108500	0,5	1,340300
11,116833	0,5	1,329000
11,125167	0,5	1,320700
11,133500	0,5	1,313750
11,141833	0,5	1,317950
11,150167	0,5	1,316600
11,158500	0,5	1,321500
11,166833	0,5	1,327200
11,175167	0,5	1,338400
11,183500	0,5	1,346800
11,191833	0,5	1,385000
11,200167	0,5	1,427550
11,208500	0,5	1,482850
11,216833	0,5	1,542450
11,225167	0,5	1,614800
11,233500	0,5	1,668300
11,241833	0,5	1,716200
11,250167	0,5	1,727300
11,258500	0,5	1,709250
11,266833	0,5	1,662800
11,275167	0,5	1,608550
11,283500	0,5	1,550550
11,291833	0,5	1,501600
11,300167	0,5	1,461750
11,308500	0,5	1,427400
11,316833	0,5	1,395800
11,325167	0,5	1,368050
11,333500	0,5	1,328500
11,341833	0,5	1,310550
11,350167	0,5	1,287700
11,358500	0,5	1,264000
11,366833	0,5	1,249850
11,375167	0,5	1,230900
11,383500	0,5	1,231100
11,391833	0,5	1,232500
11,400167	0,5	1,239700
11,408500	0,5	1,258850
11,416833	0,5	1,287450
11,425167	0,5	1,333550
11,433500	0,5	1,387400
11,441833	0,5	1,455050
11,450167	0,5	1,524350
11,458500	0,5	1,582350
11,466833	0,5	1,627150
11,475167	0,5	1,650100
11,483500	0,5	1,645650
11,491833	0,5	1,635050
11,500167	0,5	1,611100
11,508500	0,5	1,587600
11,516833	0,5	1,557000
11,525167	0,5	1,532200
11,533500	0,5	1,505250
11,541833	0,5	1,487450
11,550167	0,5	1,453100
11,558500	0,5	1,419400
11,566833	0,5	1,385650
11,575167	0,5	1,351850
11,583500	0,5	1,330750
11,591833	0,5	1,316700
11,600167	0,5	1,311350
11,608500	0,5	1,312450
11,616833	0,5	1,320350
11,625167	0,5	1,323850
11,633500	0,5	1,332350
11,641833	0,5	1,342350
11,650167	0,5	1,346800
11,658500	0,5	1,340600
11,666833	0,5	1,333550
11,675167	0,5	1,312500
11,683500	0,5	1,300450
11,691833	0,5	1,282400
11,700167	0,5	1,273100
11,708500	0,5	1,255350
11,716833	0,5	1,242850
11,725167	0,5	1,228700
11,733500	0,5	1,230500
11,741833	0,5	1,226150
11,750167	0,5	1,223750
11,758500	0,5	1,221550
11,766833	0,5	1,219100
11,775167	0,5	1,217600
11,783500	0,5	1,221700
11,791833	0,5	1,226550
11,800167	0,5	1,229650
11,808500	0,5	1,232900
11,816833	0,5	1,234350
11,825167	0,5	1,249200
11,833500	0,5	1,260100
11,841833	0,5	1,269050
11,850167	0,5	1,276750
11,858500	0,5	1,283100
11,866833	0,5	1,287650
11,875167	0,5	1,290950
11,883500	0,5	1,291950
11,891833	0,5	1,296600
11,900167	0,5	1,296250
11,908500	0,5	1,311550
11,916833	0,5	1,311450
11,925167	0,5	1,323800
11,933500	0,5	1,337250
11,941833	0,5	1,352550
11,950167	0,5	1,366850
11,958500	0,5	1,380900
11,966833	0,5	1,402950
11,975167	0,5	1,436500
11,983500	0,5	1,464300
11,991833	0,5	1,483350
12,000167	0,5	1,505450
12,008500	0,5	1,506050
12,016833	0,5	1,505050
12,025167	0,5	1,497000
12,033500	0,5	1,483900
12,041833	0,5	1,471200
12,050167	0,5	1,459600
12,058500	0,5	1,448000
12,066833	0,5	1,432950
12,075167	0,5	1,430850
12,083500	0,5	1,431400
12,091833	0,5	1,430150
12,100167	0,5	1,433800
12,108500	0,5	1,441900
12,116833	0,5	1,446900
12,125167	0,5	1,468650
12,133500	0,5	1,476100
12,141833	0,5	1,483900
12,150167	0,5	1,500900
12,158500	0,5	1,517850
12,166833	0,5	1,544850
12,175167	0,5	1,595900
12,183500	0,5	1,651650
12,191833	0,5	1,719750
12,200167	0,5	1,795200
12,208500	0,5	1,863750
12,216833	0,5	1,909200
12,225167	0,5	1,955550
12,233500	0,5	1,975700
12,241833	0,5	1,986950
12,250167	0,5	1,997150
12,258500	0,5	2,007950
12,266833	0,5	2,029700
12,275167	0,5	2,047950
12,283500	0,5	2,058600
12,291833	0,5	2,057750
12,300167	0,5	2,055550
12,308500	0,5	2,050250
12,316833	0,5	2,040850
12,325167	0,5	2,031200
12,333500	0,5	2,021450
12,341833	0,5	1,996500
12,350167	0,5	1,974050
12,358500	0,5	1,929650
12,366833	0,5	1,870500
12,375167	0,5	1,816100
12,383500	0,5	1,765000
12,391833	0,5	1,726950
12,400167	0,5	1,698550
12,408500	0,5	1,685850
12,416833	0,5	1,684200
12,425167	0,5	1,686900
12,433500	0,5	1,670300
12,441833	0,5	1,642250
12,450167	0,5	1,609200
12,458500	0,5	1,567700
12,466833	0,5	1,526100
12,475167	0,5	1,476750
12,483500	0,5	1,429550
12,491833	0,5	1,383600
12,500167	0,5	1,343250
12,508500	0,5	1,308000
12,516833	0,5	1,272550
12,525167	0,5	1,252950
12,533500	0,5	1,228300
12,541833	0,5	1,204800
12,550167	0,5	1,184200
12,558500	0,5	1,164450
12,566833	0,5	1,159650
12,575167	0,5	1,155550
12,583500	0,5	1,145350
12,591833	0,5	1,140650
12,600167	0,5	1,122950
12,608500	0,5	1,118450
12,616833	0,5	1,111350
12,625167	0,5	1,100050
12,633500	0,5	1,087800
12,641833	0,5	1,078900
12,650167	0,5	1,079700
12,658500	0,5	1,066550
12,666833	0,5	1,064750
12,675167	0,5	1,061050
12,683500	0,5	1,054900
12,691833	0,5	1,046200
12,700167	0,5	1,032050
12,708500	0,5	1,024550
12,716833	0,5	1,026850
12,725167	0,5	1,022500
12,733500	0,5	1,021800
12,741833	0,5	1,022350
12,750167	0,5	1,019400
12,758500	0,5	1,005350
12,766833	0,5	1,006150
12,775167	0,5	0,996100
12,783500	0,5	0,993750
12,791833	0,5	1,005100
12,800167	0,5	1,028150
12,808500	0,5	1,058350
12,816833	0,5	1,109550
12,825167	0,5	1,158400
12,833500	0,5	1,158750
12,841833	0,5	1,240250
12,850167	0,5	1,238200
12,858500	0,5	1,223450
12,866833	0,5	1,187700
12,875167	0,5	1,154100
12,883500	0,5	1,094250
12,891833	0,5	1,028800
12,900167	0,5	0,942750
12,908500	0,5	0,860750
12,916833	0,5	0,792650
12,925167	0,5	0,726650
12,933500	0,5	0,656000
12,941833	0,5	0,603550
12,950167	0,5	0,553550
12,958500	0,5	0,471950
12,966833	0,5	0,356900
12,975167	0,5	0,196350
12,983500	0,5	-0,062450
12,991833	0,5	-0,480200
13,000167	0,5	-0,876700
13,008500	0,5	-1,180350
13,016833	0,5	-1,461600
13,025167	0,5	-1,693500
13,033500	0,5	-1,848100
13,041833	0,5	-1,959200
13,050167	0,5	-2,033550
13,058500	0,5	-2,100700
13,066833	0,5	-2,152400
13,075167	0,5	-2,201400
13,083500	0,5	-2,234300
13,091833	0,5	-2,256400
13,100167	0,5	-2,284850
13,108500	0,5	-2,289700
13,116833	0,5	-2,287300
13,125167	0,5	-2,291100
13,133500	0,5	-2,289000
13,141833	0,5	-2,305650
13,150167	0,5	-2,315450
13,158500	0,5	-2,330100
13,166833	0,5	-2,356300
13,175167	0,5	-2,393150
13,183500	0,5	-2,427850
13,191833	0,5	-2,466000
13,200167	0,5	-2,502100
13,208500	0,5	-2,534250
13,216833	0,5	-2,557650
13,225167	0,5	-2,572250
13,233500	0,5	-2,586800
13,241833	0,5	-2,593050
13,250167	0,5	-2,610900
13,258500	0,5	-2,598900
13,266833	0,5	-2,602100
13,275167	0,5	-2,592050
13,283500	0,5	-2,591150
13,291833	0,5	-2,589350
13,300167	0,5	-2,566600
13,308500	0,5	-2,545750
13,316833	0,5	-2,530250
13,325167	0,5	-2,495950
13,333500	0,5	-2,464000
13,341833	0,5	-2,437100
13,350167	0,5	-2,409700
13,358500	0,5	-2,385300
13,366833	0,5	-2,370150
13,375167	0,5	-2,365650
13,383500	0,5	-2,350250
13,391833	0,5	-2,359500
13,400167	0,5	-2,355050
13,408500	0,5	-2,343550
13,416833	0,5	-2,330100
13,425167	0,5	-2,321800
13,433500	0,5	-2,308450
13,441833	0,5	-2,293350
13,450167	0,5	-2,262100
13,458500	0,5	-2,238900
13,466833	0,5	-2,221900
13,475167	0,5	-2,206950
13,483500	0,5	-2,197700
13,491833	0,5	-2,196800
13,500167	0,5	-2,198900
13,508500	0,5	-2,199100
13,516833	0,5	-2,219050
13,525167	0,5	-2,224150
13,533500	0,5	-2,227050
13,541833	0,5	-2,241250
13,550167	0,5	-2,240250
13,558500	0,5	-2,245900
13,566833	0,5	-2,251500
13,575167	0,5	-2,255750
13,583500	0,5	-2,260800
13,591833	0,5	-2,256100
13,600167	0,5	-2,250550
13,608500	0,5	-2,227800
13,616833	0,5	-2,222150
13,625167	0,5	-2,207250
13,633500	0,5	-2,185950
13,641833	0,5	-2,170300
13,650167	0,5	-2,147500
13,658500	0,5	-2,135600
13,666833	0,5	-2,115750
13,675167	0,5	-2,102650
13,683500	0,5	-2,086600
13,691833	0,5	-2,071800
13,700167	0,5	-2,048700
13,708500	0,5	-2,027450
13,716833	0,5	-2,011600
13,725167	0,5	-1,996300
13,733500	0,5	-1,969750
13,741833	0,5	-1,940300
13,750167	0,5	-1,894400
13,758500	0,5	-1,864300
13,766833	0,5	-1,820350
13,775167	0,5	-1,794000
13,783500	0,5	-1,758250
13,791833	0,5	-1,724650
13,800167	0,5	-1,697500
13,808500	0,5	-1,678900
13,816833	0,5	-1,660900
13,825167	0,5	-1,634900
13,833500	0,5	-1,624900
13,841833	0,5	-1,618400
13,850167	0,5	-1,604750
13,858500	0,5	-1,594050
13,866833	0,5	-1,590500
13,875167	0,5	-1,582500
13,883500	0,5	-1,575650
13,891833	0,5	-1,548300
13,900167	0,5	-1,530650
13,908500	0,5	-1,505600
13,916833	0,5	-1,485400
13,925167	0,5	-1,461850
13,933500	0,5	-1,438700
13,941833	0,5	-1,404900
13,950167	0,5	-1,376150
13,958500	0,5	-1,339300
13,966833	0,5	-1,294950
13,975167	0,5	-1,235550
13,983500	0,5	-1,183500
13,991833	0,5	-1,089650
14,000167	0,5	-0,996650
14,008500	0,5	-0,908900
14,016833	0,5	-0,821350
14,025167	0,5	-0,756800
14,033500	0,5	-0,678450
14,041833	0,5	-0,622550
14,050167	0,5	-0,575850
14,058500	0,5	-0,549400
14,066833	0,5	-0,528350
14,075167	0,5	-0,523300
14,083500	0,5	-0,522850
14,091833	0,5	-0,519450
14,100167	0,5	-0,497450
14,108500	0,5	-0,462850
14,116833	0,5	-0,399900
14,125167	0,5	-0,326150
14,133500	0,5	-0,236200
14,141833	0,5	-0,121450
14,150167	0,5	-0,022800
14,158500	0,5	0,058900
14,166833	0,5	0,104850
14,175167	0,5	0,118050
14,183500	0,5	0,126900
14,191833	0,5	0,109300
14,200167	0,5	0,084150
14,208500	0,5	0,066050
14,216833	0,5	0,050350
14,225167	0,5	0,038250
14,233500	0,5	0,041300
14,241833	0,5	0,049200
14,250167	0,5	0,051050
14,258500	0,5	0,059000
14,266833	0,5	0,066350
14,275167	0,5	0,074050
14,283500	0,5	0,081400
14,291833	0,5	0,096700
14,300167	0,5	0,104050
14,308500	0,5	0,110300
14,316833	0,5	0,105950
14,325167	0,5	0,108600
14,333500	0,5	0,117600
14,341833	0,5	0,125650
14,350167	0,5	0,130900
14,358500	0,5	0,138900
14,366833	0,5	0,151700
14,375167	0,5	0,167900
14,383500	0,5	0,188350
14,391833	0,5	0,209950
14,400167	0,5	0,230950
14,408500	0,5	0,226050
14,416833	0,5	0,238450
14,425167	0,5	0,220000
14,433500	0,5	0,215100
14,441833	0,5	0,202850
14,450167	0,5	0,192750
14,458500	0,5	0,166050
14,466833	0,5	0,144800
14,475167	0,5	0,128700
14,483500	0,5	0,129000
14,491833	0,5	0,127000
14,500167	0,5	0,119450
14,508500	0,5	0,111450
14,516833	0,5	0,117950
14,525167	0,5	0,118150
14,533500	0,5	0,113750
14,541833	0,5	0,120450
14,550167	0,5	0,117150
14,558500	0,5	0,126400
14,566833	0,5	0,128700
14,575167	0,5	0,126600
14,583500	0,5	0,157150
14,591833	0,5	0,189100
14,600167	0,5	0,243700
14,608500	0,5	0,321850
14,616833	0,5	0,414100
14,625167	0,5	0,530350
14,633500	0,5	0,620650
14,641833	0,5	0,666650
14,650167	0,5	0,662500
14,658500	0,5	0,617100
14,666833	0,5	0,550850
14,675167	0,5	0,484700
14,683500	0,5	0,443350
14,691833	0,5	0,420250
14,700167	0,5	0,442250
14,708500	0,5	0,507650
14,716833	0,5	0,583700
14,725167	0,5	0,658500
14,733500	0,5	0,712950
14,741833	0,5	0,708700
14,750167	0,5	0,664750
14,758500	0,5	0,577750
14,766833	0,5	0,481450
14,775167	0,5	0,407550
14,783500	0,5	0,352500
14,791833	0,5	0,298050
14,800167	0,5	0,266450
14,808500	0,5	0,229700
14,816833	0,5	0,207300
14,825167	0,5	0,193850
14,833500	0,5	0,188950
14,841833	0,5	0,179900
14,850167	0,5	0,184700
14,858500	0,5	0,195050
14,866833	0,5	0,197000
14,875167	0,5	0,214850
14,883500	0,5	0,226700
14,891833	0,5	0,215500
14,900167	0,5	0,198750
14,908500	0,5	0,179300
14,916833	0,5	0,164350
14,925167	0,5	0,168450
14,933500	0,5	0,161950
14,941833	0,5	0,160550
14,950167	0,5	0,152450
14,958500	0,5	0,146600
14,966833	0,5	0,128100
14,975167	0,5	0,117400
14,983500	0,5	0,104150
14,991833	0,5	0,083400
15,000167	0,5	0,071500
15,008500	0,5	0,064550
15,016833	0,5	0,046150
15,025167	0,5	0,050250
15,033500	0,5	0,043900
15,041833	0,5	0,029400
15,050167	0,5	0,016250
15,058500	0,5	-0,001600
15,066833	0,5	0,002700
15,075167	0,5	0,000000
15,083500	0,5	0,002650
15,091833	0,5	0,002150
15,100167	0,5	0,025250
15,108500	0,5	0,062700
15,116833	0,5	0,118150
15,125167	0,5	0,199750
15,133500	0,5	0,313050
15,141833	0,5	0,429100
15,150167	0,5	0,537750
15,158500	0,5	0,581600
15,166833	0,5	0,603700
15,175167	0,5	0,567300
15,183500	0,5	0,511300
15,191833	0,5	0,451050
15,200167	0,5	0,415100
15,208500	0,5	0,439450
15,216833	0,5	0,504350
15,225167	0,5	0,581100
15,233500	0,5	0,636250
15,241833	0,5	0,660500
15,250167	0,5	0,615550
15,258500	0,5	0,548300
15,266833	0,5	0,454200
15,275167	0,5	0,374800
15,283500	0,5	0,300650
15,291833	0,5	0,252600
15,300167	0,5	0,227400
15,308500	0,5	0,201150
15,316833	0,5	0,197200
15,325167	0,5	0,192100
15,333500	0,5	0,171500
15,341833	0,5	0,146550
15,350167	0,5	0,106500
15,358500	0,5	0,110300
15,366833	0,5	0,107550
15,375167	0,5	0,102900
15,383500	0,5	0,107300
15,391833	0,5	0,114650
15,400167	0,5	0,117000
15,408500	0,5	0,113750
15,416833	0,5	0,112600
15,425167	0,5	0,092200
15,433500	0,5	0,068050
15,441833	0,5	0,039650
15,450167	0,5	0,018850
15,458500	0,5	-0,027450
15,466833	0,5	-0,026700
15,475167	0,5	-0,047900
15,483500	0,5	-0,065850
15,491833	0,5	-0,089750
15,500167	0,5	-0,117850
15,508500	0,5	-0,115700
15,516833	0,5	-0,127100
15,525167	0,5	-0,138250
15,533500	0,5	-0,142000
15,541833	0,5	-0,141550
15,550167	0,5	-0,144400
15,558500	0,5	-0,125700
15,566833	0,5	-0,091900
15,575167	0,5	-0,031150
15,583500	0,5	0,060300
15,591833	0,5	0,189350
15,600167	0,5	0,315700
15,608500	0,5	0,419700
15,616833	0,5	0,479400
15,625167	0,5	0,486250
15,633500	0,5	0,447700
15,641833	0,5	0,415400
15,650167	0,5	0,390700
15,658500	0,5	0,425950
15,666833	0,5	0,470650
15,675167	0,5	0,522150
15,683500	0,5	0,535400
15,691833	0,5	0,504300
15,700167	0,5	0,435850
15,708500	0,5	0,343200
15,716833	0,5	0,250750
15,725167	0,5	0,157350
15,733500	0,5	0,093800
15,741833	0,5	0,034450
15,750167	0,5	-0,011700
15,758500	0,5	-0,044100
15,766833	0,5	-0,049850
15,775167	0,5	-0,057900
15,783500	0,5	-0,063600
15,791833	0,5	-0,070200
15,800167	0,5	-0,062850
15,808500	0,5	-0,058150
15,816833	0,5	-0,052250
15,825167	0,5	-0,065000
15,833500	0,5	-0,078100
15,841833	0,5	-0,100600
15,850167	0,5	-0,127600
15,858500	0,5	-0,158050
15,866833	0,5	-0,187350
15,875167	0,5	-0,203850
15,883500	0,5	-0,224200
15,891833	0,5	-0,239150
15,900167	0,5	-0,254700
15,908500	0,5	-0,255950
15,916833	0,5	-0,268150
15,925167	0,5	-0,279500
15,933500	0,5	-0,297300
15,941833	0,5	-0,305850
15,950167	0,5	-0,312550
15,958500	0,5	-0,298850
15,966833	0,5	-0,284250
15,975167	0,5	-0,224000
15,983500	0,5	-0,158600
15,991833	0,5	-0,035900
16,000167	0,5	0,087400
16,008500	0,5	0,220600
16,016833	0,5	0,320700
16,025167	0,5	0,370500
16,033500	0,5	0,393450
16,041833	0,5	0,382950
16,050167	0,5	0,398150
16,058500	0,5	0,426450
16,066833	0,5	0,447950
16,075167	0,5	0,450400
16,083500	0,5	0,397000
16,091833	0,5	0,313300
16,100167	0,5	0,226150
16,108500	0,5	0,135150
16,116833	0,5	0,053400
16,125167	0,5	-0,004050
16,133500	0,5	-0,034800
16,141833	0,5	-0,062950
16,150167	0,5	-0,069000
16,158500	0,5	-0,073350
16,166833	0,5	-0,072600
16,175167	0,5	-0,055450
16,183500	0,5	-0,047050
16,191833	0,5	-0,061450
16,200167	0,5	-0,051000
16,208500	0,5	-0,057450
16,216833	0,5	-0,073350
16,225167	0,5	-0,096350
16,233500	0,5	-0,138300
16,241833	0,5	-0,152950
16,250167	0,5	-0,178000
16,258500	0,5	-0,202050
16,266833	0,5	-0,239350
16,275167	0,5	-0,257600
16,283500	0,5	-0,290500
16,291833	0,5	-0,306700
16,300167	0,5	-0,329400
16,308500	0,5	-0,341050
16,316833	0,5	-0,352900
16,325167	0,5	-0,340200
16,333500	0,5	-0,317750
16,341833	0,5	-0,279250
16,350167	0,5	-0,175250
16,358500	0,5	-0,057600
16,366833	0,5	0,071450
16,375167	0,5	0,178600
16,383500	0,5	0,251550
16,391833	0,5	0,301150
16,400167	0,5	0,313600
16,408500	0,5	0,314750
16,416833	0,5	0,316400
16,425167	0,5	0,305950
16,433500	0,5	0,276800
16,441833	0,5	0,205150
16,450167	0,5	0,122750
16,458500	0,5	0,030800
16,466833	0,5	-0,039750
16,475167	0,5	-0,082800
16,483500	0,5	-0,109050
16,491833	0,5	-0,108950
16,500167	0,5	-0,096750
16,508500	0,5	-0,079850
16,516833	0,5	-0,066550
16,525167	0,5	-0,074100
16,533500	0,5	-0,057700
16,541833	0,5	-0,039700
16,550167	0,5	-0,039950
16,558500	0,5	-0,042950
16,566833	0,5	-0,060350
16,575167	0,5	-0,080900
16,583500	0,5	-0,103600
16,591833	0,5	-0,119600
16,600167	0,5	-0,136750
16,608500	0,5	-0,141850
16,616833	0,5	-0,150850
16,625167	0,5	-0,145900
16,633500	0,5	-0,173900
16,641833	0,5	-0,163250
16,650167	0,5	-0,161850
16,658500	0,5	-0,144100
16,666833	0,5	-0,115450
16,675167	0,5	-0,072350
16,683500	0,5	0,021750
16,691833	0,5	0,120650
16,700167	0,5	0,193400
16,708500	0,5	0,232600
16,716833	0,5	0,250600
16,725167	0,5	0,247550
16,733500	0,5	0,243150
16,741833	0,5	0,223450
16,750167	0,5	0,178250
16,758500	0,5	0,108000
16,766833	0,5	0,038350
16,775167	0,5	-0,046750
16,783500	0,5	-0,122050
16,791833	0,5	-0,163750
16,800167	0,5	-0,198850
16,808500	0,5	-0,226250
16,816833	0,5	-0,254250
16,825167	0,5	-0,285550
16,833500	0,5	-0,283350
16,841833	0,5	-0,284850
16,850167	0,5	-0,293900
16,858500	0,5	-0,307550
16,866833	0,5	-0,315400
16,875167	0,5	-0,334350
16,883500	0,5	-0,355100
16,891833	0,5	-0,358000
16,900167	0,5	-0,386700
16,908500	0,5	-0,394900
16,916833	0,5	-0,406800
16,925167	0,5	-0,414600
16,933500	0,5	-0,414200
16,941833	0,5	-0,397550
16,950167	0,5	-0,378900
16,958500	0,5	-0,337100
16,966833	0,5	-0,293300
16,975167	0,5	-0,213600
16,983500	0,5	-0,117750
16,991833	0,5	-0,003500
17,000167	0,5	0,088550
17,008500	0,5	0,178850
17,016833	0,5	0,245350
17,025167	0,5	0,312100
17,033500	0,5	0,378850
17,041833	0,5	0,449600
17,050167	0,5	0,524000
17,058500	0,5	0,605800
17,066833	0,5	0,710550
17,075167	0,5	0,810100
17,083500	0,5	0,946500
17,091833	0,5	1,091450
17,100167	0,5	1,227450
17,108500	0,5	1,340100
17,116833	0,5	1,439450
17,125167	0,5	1,532250
17,133500	0,5	1,620450
17,141833	0,5	1,670650
17,150167	0,5	1,714450
17,158500	0,5	1,724000
17,166833	0,5	1,701400
17,175167	0,5	1,630850
17,183500	0,5	1,518200
17,191833	0,5	1,381150
17,200167	0,5	1,222200
17,208500	0,5	1,078350
17,216833	0,5	0,910450
17,225167	0,5	0,775100
17,233500	0,5	0,675700
17,241833	0,5	0,604000
17,250167	0,5	0,575350
17,258500	0,5	0,575450
17,266833	0,5	0,607500
17,275167	0,5	0,671050
17,283500	0,5	0,692650
17,291833	0,5	0,720050
17,300167	0,5	0,718100
17,308500	0,5	0,708900
17,316833	0,5	0,658300
17,325167	0,5	0,593500
17,333500	0,5	0,507800
17,341833	0,5	0,426150
17,350167	0,5	0,367350
17,358500	0,5	0,337550
17,366833	0,5	0,291150
17,375167	0,5	0,312200
17,383500	0,5	0,337200
17,391833	0,5	0,352300
17,400167	0,5	0,380400
17,408500	0,5	0,381650
17,416833	0,5	0,421200
17,425167	0,5	0,434600
17,433500	0,5	0,453200
17,441833	0,5	0,447000
17,450167	0,5	0,441850
17,458500	0,5	0,408400
17,466833	0,5	0,375550
17,475167	0,5	0,317400
17,483500	0,5	0,268600
17,491833	0,5	0,215900
17,500167	0,5	0,190600
17,508500	0,5	0,194650
17,516833	0,5	0,184950
17,525167	0,5	0,211750
17,533500	0,5	0,211750
17,541833	0,5	0,194550
17,550167	0,5	0,155000
17,558500	0,5	0,090250
17,566833	0,5	0,032050
17,575167	0,5	-0,024650
17,583500	0,5	-0,108100
17,591833	0,5	-0,168400
17,600167	0,5	-0,223050
17,608500	0,5	-0,263200
17,616833	0,5	-0,299000
17,625167	0,5	-0,327250
17,633500	0,5	-0,357400
17,641833	0,5	-0,386500
17,650167	0,5	-0,393800
17,658500	0,5	-0,415000
17,666833	0,5	-0,452950
17,675167	0,5	-0,462900
17,683500	0,5	-0,479550
17,691833	0,5	-0,506000
17,700167	0,5	-0,518800
17,708500	0,5	-0,526400
17,716833	0,5	-0,490800
17,725167	0,5	-0,458100
17,733500	0,5	-0,405950
17,741833	0,5	-0,353900
17,750167	0,5	-0,297650
17,758500	0,5	-0,260450
17,766833	0,5	-0,233450
17,775167	0,5	-0,235600
17,783500	0,5	-0,255400
17,791833	0,5	-0,285500
17,800167	0,5	-0,317950
17,808500	0,5	-0,380050
17,816833	0,5	-0,410300
17,825167	0,5	-0,432550
17,833500	0,5	-0,458200
17,841833	0,5	-0,501550
17,850167	0,5	-0,537700
17,858500	0,5	-0,558250
17,866833	0,5	-0,570300
17,875167	0,5	-0,578300
17,883500	0,5	-0,584400
17,891833	0,5	-0,585250
17,900167	0,5	-0,601900
17,908500	0,5	-0,592100
17,916833	0,5	-0,579500
17,925167	0,5	-0,553300
17,933500	0,5	-0,520750
17,941833	0,5	-0,460500
17,950167	0,5	-0,410700
17,958500	0,5	-0,366350
17,966833	0,5	-0,327200
17,975167	0,5	-0,313850
17,983500	0,5	-0,333350
17,991833	0,5	-0,374900
18,000167	0,5	-0,436850
18,008500	0,5	-0,463700
18,016833	0,5	-0,477150
18,025167	0,5	-0,506450
18,033500	0,5	-0,523850
18,041833	0,5	-0,537050
18,050167	0,5	-0,560900
18,058500	0,5	-0,569450
18,066833	0,5	-0,573550
18,075167	0,5	-0,581400
18,083500	0,5	-0,579850
18,091833	0,5	-0,573400
18,100167	0,5	-0,579350
18,108500	0,5	-0,573550
18,116833	0,5	-0,532650
18,125167	0,5	-0,499700
18,133500	0,5	-0,450600
18,141833	0,5	-0,432050
18,150167	0,5	-0,399450
18,158500	0,5	-0,370750
18,166833	0,5	-0,365950
18,175167	0,5	-0,387700
18,183500	0,5	-0,416350
18,191833	0,5	-0,444150
18,200167	0,5	-0,480350
18,208500	0,5	-0,504450
18,216833	0,5	-0,524200
18,225167	0,5	-0,536500
18,233500	0,5	-0,544550
18,241833	0,5	-0,548150
18,250167	0,5	-0,579700
18,258500	0,5	-0,572150
18,266833	0,5	-0,576000
18,275167	0,5	-0,573850
18,283500	0,5	-0,575750
18,291833	0,5	-0,577100
18,300167	0,5	-0,547950
18,308500	0,5	-0,520900
18,316833	0,5	-0,501250
18,325167	0,5	-0,473950
18,333500	0,5	-0,473200
18,341833	0,5	-0,483800
18,350167	0,5	-0,503250
18,358500	0,5	-0,524650
18,366833	0,5	-0,557100
18,375167	0,5	-0,579400
18,383500	0,5	-0,589400
18,391833	0,5	-0,599550
18,400167	0,5	-0,621050
18,408500	0,5	-0,633850
18,416833	0,5	-0,631700
18,425167	0,5	-0,650650
18,433500	0,5	-0,665050
18,441833	0,5	-0,679300
18,450167	0,5	-0,662400
18,458500	0,5	-0,653250
18,466833	0,5	-0,640450
18,475167	0,5	-0,634450
18,483500	0,5	-0,616000
18,491833	0,5	-0,617550
18,500167	0,5	-0,611250
18,508500	0,5	-0,632900
18,516833	0,5	-0,660200
18,525167	0,5	-0,678900
18,533500	0,5	-0,692600
18,541833	0,5	-0,727400
18,550167	0,5	-0,736750
18,558500	0,5	-0,751650
18,566833	0,5	-0,758550
18,575167	0,5	-0,774450
18,583500	0,5	-0,813750
18,591833	0,5	-0,807350
18,600167	0,5	-0,810200
18,608500	0,5	-0,803650
18,616833	0,5	-0,813250
18,625167	0,5	-0,783950
18,633500	0,5	-0,761750
18,641833	0,5	-0,744400
18,650167	0,5	-0,730050
18,658500	0,5	-0,730650
18,666833	0,5	-0,750550
18,675167	0,5	-0,769300
18,683500	0,5	-0,765700
18,691833	0,5	-0,791450
18,700167	0,5	-0,780550
18,708500	0,5	-0,777150
18,716833	0,5	-0,790550
18,725167	0,5	-0,792600
18,733500	0,5	-0,808100
18,741833	0,5	-0,790650
18,750167	0,5	-0,756800
18,758500	0,5	-0,749450
18,766833	0,5	-0,729950
18,775167	0,5	-0,721100
18,783500	0,5	-0,723600
18,791833	0,5	-0,735050
18,800167	0,5	-0,750600
18,808500	0,5	-0,778350
18,816833	0,5	-0,821200
18,825167	0,5	-0,840950
18,833500	0,5	-0,865750
18,841833	0,5	-0,899550
18,850167	0,5	-0,905250
18,858500	0,5	-0,908200
18,866833	0,5	-0,916650
18,875167	0,5	-0,927100
18,883500	0,5	-0,939750
18,891833	0,5	-0,910100
18,900167	0,5	-0,911500
18,908500	0,5	-0,909600
18,916833	0,5	-0,923950
18,925167	0,5	-0,931450
18,933500	0,5	-0,957100
18,941833	0,5	-0,971900
18,950167	0,5	-1,001650
18,958500	0,5	-1,020200
18,966833	0,5	-1,023850
18,975167	0,5	-1,027950
18,983500	0,5	-1,043000
18,991833	0,5	-1,041700
19,000167	0,5	-1,031950
19,008500	0,5	-1,027600
19,016833	0,5	-1,033850
19,025167	0,5	-1,062550
19,033500	0,5	-1,066250
19,041833	0,5	-1,070250
19,050167	0,5	-1,065800
19,058500	0,5	-1,075400
19,066833	0,5	-1,079150
19,075167	0,5	-1,090850
19,083500	0,5	-1,097050
19,091833	0,5	-1,112650
19,100167	0,5	-1,117850
19,108500	0,5	-1,128750
19,116833	0,5	-1,125250
19,125167	0,5	-1,145000
19,133500	0,5	-1,151900
19,141833	0,5	-1,165600
19,150167	0,5	-1,180550
19,158500	0,5	-1,199100
19,166833	0,5	-1,234350
19,175167	0,5	-1,255250
19,183500	0,5	-1,281700
19,191833	0,5	-1,287000
19,200167	0,5	-1,295850
19,208500	0,5	-1,294050
19,216833	0,5	-1,292100
19,225167	0,5	-1,299750
19,233500	0,5	-1,314750
19,241833	0,5	-1,321600
19,250167	0,5	-1,336900
19,258500	0,5	-1,342250
19,266833	0,5	-1,348250
19,275167	0,5	-1,362450
19,283500	0,5	-1,370350
19,291833	0,5	-1,361200
19,300167	0,5	-1,370450
19,308500	0,5	-1,379150
19,316833	0,5	-1,411550
19,325167	0,5	-1,429600
19,333500	0,5	-1,434950
19,341833	0,5	-1,440550
19,350167	0,5	-1,443250
19,358500	0,5	-1,453250
19,366833	0,5	-1,461650
19,375167	0,5	-1,482050
19,383500	0,5	-1,483250
19,391833	0,5	-1,491000
19,400167	0,5	-1,494100
19,408500	0,5	-1,484100
19,416833	0,5	-1,487500
19,425167	0,5	-1,501650
19,433500	0,5	-1,504150
19,441833	0,5	-1,508350
19,450167	0,5	-1,517100
19,458500	0,5	-1,534400
19,466833	0,5	-1,559600
19,475167	0,5	-1,547800
19,483500	0,5	-1,545050
19,491833	0,5	-1,556800
19,500167	0,5	-1,565150
19,508500	0,5	-1,568550
19,516833	0,5	-1,580200
19,525167	0,5	-1,591750
19,533500	0,5	-1,609200
19,541833	0,5	-1,604800
19,550167	0,5	-1,616500
19,558500	0,5	-1,602400
19,566833	0,5	-1,629550
19,575167	0,5	-1,645000
19,583500	0,5	-1,648200
19,591833	0,5	-1,653950
19,600167	0,5	-1,662950
19,608500	0,5	-1,682200
19,616833	0,5	-1,695300
19,625167	0,5	-1,697350
19,633500	0,5	-1,700700
19,641833	0,5	-1,703150
19,650167	0,5	-1,705750
19,658500	0,5	-1,705000
19,666833	0,5	-1,713600
19,675167	0,5	-1,720250
19,683500	0,5	-1,728200
19,691833	0,5	-1,744150
19,700167	0,5	-1,744000
19,708500	0,5	-1,752650
19,716833	0,5	-1,770150
19,725167	0,5	-1,777150
19,733500	0,5	-1,786650
19,741833	0,5	-1,806100
19,750167	0,5	-1,826700
19,758500	0,5	-1,867400
19,766833	0,5	-1,875950
19,775167	0,5	-1,885500
19,783500	0,5	-1,892350
19,791833	0,5	-1,916500
19,800167	0,5	-1,925450
19,808500	0,5	-1,937600
19,816833	0,5	-1,952250
19,825167	0,5	-1,955200
19,833500	0,5	-1,979500
19,841833	0,5	-1,980850
19,850167	0,5	-1,991300
19,858500	0,5	-1,991350
19,866833	0,5	-2,016400
19,875167	0,5	-2,007800
19,883500	0,5	-2,023650
19,891833	0,5	-2,024550
19,900167	0,5	-2,058300
19,908500	0,5	-2,086850
19,916833	0,5	-2,087350
19,925167	0,5	-2,082200
19,933500	0,5	-2,090200
19,941833	0,5	-2,091500
19,950167	0,5	-2,095250
19,958500	0,5	-2,099800
19,966833	0,5	-2,102100
19,975167	0,5	-2,117450
19,983500	0,5	-2,125050
19,991833	0,5	-2,138300
20,000167	0,5	-2,132050
20,008500	0,5	-2,155850
20,016833	0,5	-2,173250
20,025167	0,5	-2,185700
20,033500	0,5	-2,204550
20,041833	0,5	-2,244300
20,050167	0,5	-2,277700
20,058500	0,5	-2,302700
20,066833	0,5	-2,299100
20,075167	0,5	-2,314400
20,083500	0,5	-2,318000
20,091833	0,5	-2,333300
20,100167	0,5	-2,340150
20,108500	0,5	-2,353000
20,116833	0,5	-2,369400
20,125167	0,5	-2,377800
20,133500	0,5	-2,389250
20,141833	0,5	-2,381150
20,150167	0,5	-2,385150
20,158500	0,5	-2,395250
20,166833	0,5	-2,396950
20,175167	0,5	-2,394100
20,183500	0,5	-2,403850
20,191833	0,5	-2,421000
20,200167	0,5	-2,445800
20,208500	0,5	-2,443400
20,216833	0,5	-2,459050
20,225167	0,5	-2,460650
20,233500	0,5	-2,477750
20,241833	0,5	-2,484500
20,250167	0,5	-2,512400
20,258500	0,5	-2,518700
20,266833	0,5	-2,526550
20,275167	0,5	-2,548750
20,283500	0,5	-2,552450
20,291833	0,5	-2,551100
20,300167	0,5	-2,568600
20,308500	0,5	-2,588900
20,316833	0,5	-2,597750
20,325167	0,5	-2,623950
20,333500	0,5	-2,649750
20,341833	0,5	-2,708350
20,350167	0,5	-2,745150
20,358500	0,5	-2,764000
20,366833	0,5	-2,769650
20,375167	0,5	-2,801450
20,383500	0,5	-2,814200
20,391833	0,5	-2,845950
20,400167	0,5	-2,868850
20,408500	0,5	-2,893250
20,416833	0,5	-2,913050
20,425167	0,5	-2,944700
20,433500	0,5	-2,951450
20,441833	0,5	-2,956100
20,450167	0,5	-2,989650
20,458500	0,5	-3,006600
20,466833	0,5	-3,025100
20,475167	0,5	-3,059500
20,483500	0,5	-3,101800
20,491833	0,5	-3,146850
20,500167	0,5	-3,151950
20,508500	0,5	-3,149000
20,516833	0,5	-3,159450
20,525167	0,5	-3,155500
20,533500	0,5	-3,158600
20,541833	0,5	-3,164450
20,550167	0,5	-3,197600
20,558500	0,5	-3,238550
20,566833	0,5	-3,294000
20,575167	0,5	-3,353650
20,583500	0,5	-3,368600
20,591833	0,5	-3,399350
20,600167	0,5	-3,457300
20,608500	0,5	-3,501600
20,616833	0,5	-3,525950
20,625167	0,5	-3,588550
20,633500	0,5	-3,642250
20,641833	0,5	-3,697650
20,650167	0,5	-3,711450
20,658500	0,5	-3,756000
20,666833	0,5	-3,778100
20,675167	0,5	-3,794500
20,683500	0,5	-3,786150
20,691833	0,5	-3,783150
20,700167	0,5	-3,754600
20,708500	0,5	-3,738600
20,716833	0,5	-3,741950
20,725167	0,5	-3,755450
20,733500	0,5	-3,776300
20,741833	0,5	-3,826000
20,750167	0,5	-3,911450
20,758500	0,5	-3,990900
20,766833	0,5	-4,079200
20,775167	0,5	-4,138950
20,783500	0,5	-4,224800
20,791833	0,5	-4,281300
20,800167	0,5	-4,329850
20,808500	0,5	-4,370800
20,816833	0,5	-4,427550
20,825167	0,5	-4,457650
20,833500	0,5	-4,495700
20,841833	0,5	-4,535600
20,850167	0,5	-4,574300
20,858500	0,5	-4,599200
20,866833	0,5	-4,643350
20,875167	0,5	-4,633150
20,883500	0,5	-4,646200
20,891833	0,5	-4,670450
20,900167	0,5	-4,716100
20,908500	0,5	-4,765250
20,916833	0,5	-4,814200
20,925167	0,5	-4,882600
20,933500	0,5	-4,953750
20,941833	0,5	-4,994250
20,950167	0,5	-5,019850
20,958500	0,5	-5,057950
20,966833	0,5	-5,100850
20,975167	0,5	-5,141000
20,983500	0,5	-5,172400
20,991833	0,5	-5,211950
21,000167	0,5	-5,240200
21,008500	0,5	-5,280800
21,016833	0,5	-5,309500
21,025167	0,5	-5,309350
21,033500	0,5	-5,321950
21,041833	0,5	-5,355850
21,050167	0,5	-5,377200
21,058500	0,5	-5,416650
21,066833	0,5	-5,465650
21,075167	0,5	-5,518250
21,083500	0,5	-5,569200
21,091833	0,5	-5,590950
21,100167	0,5	-5,629950
21,108500	0,5	-5,660400
21,116833	0,5	-5,698850
21,125167	0,5	-5,721700
21,133500	0,5	-5,757650
21,141833	0,5	-5,774950
21,150167	0,5	-5,802500
21,158500	0,5	-5,830000
21,166833	0,5	-5,842650
21,175167	0,5	-5,845300
21,183500	0,5	-5,862900
21,191833	0,5	-5,881650
21,200167	0,5	-5,909100
21,208500	0,5	-5,939350
21,216833	0,5	-5,981350
21,225167	0,5	-6,019950
21,233500	0,5	-6,046850
21,241833	0,5	-6,058700
21,250167	0,5	-6,067400
21,258500	0,5	-6,095550
21,266833	0,5	-6,093250
21,275167	0,5	-6,116350
21,283500	0,5	-6,110650
21,291833	0,5	-6,121000
21,300167	0,5	-6,139350
21,308500	0,5	-6,164000
21,316833	0,5	-6,153800
21,325167	0,5	-6,161250
21,333500	0,5	-6,184450
21,341833	0,5	-6,204000
21,350167	0,5	-6,242900
21,358500	0,5	-6,274150
21,366833	0,5	-6,332200
21,375167	0,5	-6,362000
21,383500	0,5	-6,379900
21,391833	0,5	-6,392700
21,400167	0,5	-6,409100
21,408500	0,5	-6,417050
21,416833	0,5	-6,429750
21,425167	0,5	-6,439850
21,433500	0,5	-6,459050
21,441833	0,5	-6,467450
21,450167	0,5	-6,485400
21,458500	0,5	-6,485650
21,466833	0,5	-6,473500
21,475167	0,5	-6,486800
21,483500	0,5	-6,513950
21,491833	0,5	-6,536500
21,500167	0,5	-6,555600
21,508500	0,5	-6,598450
21,516833	0,5	-6,627500
21,525167	0,5	-6,644900
21,533500	0,5	-6,643800
21,541833	0,5	-6,676650
21,550167	0,5	-6,682400
21,558500	0,5	-6,695700
21,566833	0,5	-6,704000
21,575167	0,5	-6,721900
21,583500	0,5	-6,725300
21,591833	0,5	-6,735300
21,600167	0,5	-6,745000
21,608500	0,5	-6,713350
21,616833	0,5	-6,690450
21,625167	0,5	-6,700100
21,633500	0,5	-6,705150
21,641833	0,5	-6,705000
21,650167	0,5	-6,719450
21,658500	0,5	-6,729050
21,666833	0,5	-6,737900
21,675167	0,5	-6,737600
21,683500	0,5	-6,769400
21,691833	0,5	-6,791800
21,700167	0,5	-6,810500
21,708500	0,5	-6,831400
21,716833	0,5	-6,850450
21,725167	0,5	-6,865900
21,733500	0,5	-6,877300
21,741833	0,5	-6,904050
21,750167	0,5	-6,909650
21,758500	0,5	-6,905350
21,766833	0,5	-6,923700
21,775167	0,5	-6,951850
21,783500	0,5	-6,979350
21,791833	0,5	-7,017450
21,800167	0,5	-7,044900
21,808500	0,5	-7,088450
21,816833	0,5	-7,082000
21,825167	0,5	-7,103250
21,833500	0,5	-7,105300
21,841833	0,5	-7,130500
21,850167	0,5	-7,127850
21,858500	0,5	-7,149250
21,866833	0,5	-7,157650
21,875167	0,5	-7,179450
21,883500	0,5	-7,187900
21,891833	0,5	-7,206800
21,900167	0,5	-7,181000
21,908500	0,5	-7,153500
21,916833	0,5	-7,125200
21,925167	0,5	-7,069500
21,933500	0,5	-7,031750
21,941833	0,5	-7,031550
21,950167	0,5	-7,065900
21,958500	0,5	-7,118600
21,966833	0,5	-7,160200
21,975167	0,5	-7,198500
21,983500	0,5	-7,257500
21,991833	0,5	-7,298700
22,000167	0,5	-7,334200
22,008500	0,5	-7,361550
22,016833	0,5	-7,393100
22,025167	0,5	-7,421550
22,033500	0,5	-7,464700
22,041833	0,5	-7,483600
22,050167	0,5	-7,491650
22,058500	0,5	-7,532900
22,066833	0,5	-7,543350
22,075167	0,5	-7,567600
22,083500	0,5	-7,585150
22,091833	0,5	-7,635600
22,100167	0,5	-7,663950
22,108500	0,5	-7,689850
22,116833	0,5	-7,690300
22,125167	0,5	-7,712200
22,133500	0,5	-7,720600
22,141833	0,5	-7,740450
22,150167	0,5	-7,746850
22,158500	0,5	-7,771300
22,166833	0,5	-7,768150
22,175167	0,5	-7,785400
22,183500	0,5	-7,799200
22,191833	0,5	-7,801600
22,200167	0,5	-7,820600
22,208500	0,5	-7,826650
22,216833	0,5	-7,822300
22,225167	0,5	-7,829200
22,233500	0,5	-7,844950
22,241833	0,5	-7,862450
22,250167	0,5	-7,885350
22,258500	0,5	-7,859750
22,266833	0,5	-7,863000
22,275167	0,5	-7,853100
22,283500	0,5	-7,856200
22,291833	0,5	-7,838800
22,300167	0,5	-7,845650
22,308500	0,5	-7,820050
22,316833	0,5	-7,820100
22,325167	0,5	-7,811400
22,333500	0,5	-7,801350
22,341833	0,5	-7,777850
22,350167	0,5	-7,710800
22,358500	0,5	-7,605350
22,366833	0,5	-7,500800
22,375167	0,5	-7,455850
22,383500	0,5	-7,449250
22,391833	0,5	-7,532000
22,400167	0,5	-7,587750
22,408500	0,5	-7,645900
22,416833	0,5	-7,682250
22,425167	0,5	-7,722750
22,433500	0,5	-7,737250
22,441833	0,5	-7,768000
22,450167	0,5	-7,782450
22,458500	0,5	-7,792300
22,466833	0,5	-7,802250
22,475167	0,5	-7,811800
22,483500	0,5	-7,852750
22,491833	0,5	-7,856400
22,500167	0,5	-7,843800
22,508500	0,5	-7,818000
22,516833	0,5	-7,806450
22,525167	0,5	-7,791450
22,533500	0,5	-7,799450
22,541833	0,5	-7,780200
22,550167	0,5	-7,747950
22,558500	0,5	-7,712450
22,566833	0,5	-7,704700
22,575167	0,5	-7,678150
22,583500	0,5	-7,665500
22,591833	0,5	-7,649000
22,600167	0,5	-7,660650
22,608500	0,5	-7,658400
22,616833	0,5	-7,652650
22,625167	0,5	-7,680900
22,633500	0,5	-7,715550
22,641833	0,5	-7,720450
22,650167	0,5	-7,685350
22,658500	0,5	-7,683200
22,666833	0,5	-7,689850
22,675167	0,5	-7,706350
22,683500	0,5	-7,735750
22,691833	0,5	-7,740350
22,700167	0,5	-7,748450
22,708500	0,5	-7,767600
22,716833	0,5	-7,780750
22,725167	0,5	-7,791750
22,733500	0,5	-7,807350
22,741833	0,5	-7,816900
22,750167	0,5	-7,831250
22,758500	0,5	-7,843450
22,766833	0,5	-7,862300
22,775167	0,5	-7,947700
22,783500	0,5	-7,957550
22,791833	0,5	-7,947800
22,800167	0,5	-7,956800
22,808500	0,5	-7,969250
22,816833	0,5	-7,993350
22,825167	0,5	-8,018150
22,833500	0,5	-8,038600
22,841833	0,5	-8,068400
22,850167	0,5	-8,089000
22,858500	0,5	-8,104100
22,866833	0,5	-8,105700
22,875167	0,5	-8,128300
22,883500	0,5	-8,122150
22,891833	0,5	-8,134700
22,900167	0,5	-8,125000
22,908500	0,5	-8,122600
22,916833	0,5	-8,102650
22,925167	0,5	-8,126800
22,933500	0,5	-8,103850
22,941833	0,5	-8,093650
22,950167	0,5	-8,102400
22,958500	0,5	-8,092600
22,966833	0,5	-8,071300
22,975167	0,5	-8,046000
22,983500	0,5	-8,029350
22,991833	0,5	-8,019400
23,000167	0,5	-7,988100
23,008500	0,5	-7,947200
23,016833	0,5	-7,909000
23,025167	0,5	-7,850350
23,033500	0,5	-7,797100
23,041833	0,5	-7,735650
23,050167	0,5	-7,664500
23,058500	0,5	-7,596250
23,066833	0,5	-7,486500
23,075167	0,5	-7,429150
23,083500	0,5	-7,351250
23,091833	0,5	-7,333800
23,100167	0,5	-7,250500
23,108500	0,5	-7,194750
23,116833	0,5	-7,111350
23,125167	0,5	-7,036150
23,133500	0,5	-6,962500
23,141833	0,5	-6,912950
23,150167	0,5	-6,826200
23,158500	0,5	-6,752000
23,166833	0,5	-6,667000
23,175167	0,5	-6,577150
23,183500	0,5	-6,479100
23,191833	0,5	-6,401350
23,200167	0,5	-6,297250
23,208500	0,5	-6,193800
23,216833	0,5	-6,107650
23,225167	0,5	-5,991400
23,233500	0,5	-5,890100
23,241833	0,5	-5,854100
23,250167	0,5	-5,770500
23,258500	0,5	-5,690650
23,266833	0,5	-5,604150
23,275167	0,5	-5,522200
23,283500	0,5	-5,453000
23,291833	0,5	-5,393800
23,300167	0,5	-5,313600
23,308500	0,5	-5,226750
23,316833	0,5	-5,167400
23,325167	0,5	-5,080550
23,333500	0,5	-5,007550
23,341833	0,5	-4,927900
23,350167	0,5	-4,848800
23,358500	0,5	-4,744900
23,366833	0,5	-4,726200
23,375167	0,5	-4,610400
23,383500	0,5	-4,509650
23,391833	0,5	-4,462600
23,400167	0,5	-4,400750
23,408500	0,5	-4,339150
23,416833	0,5	-4,270900
23,425167	0,5	-4,218850
23,433500	0,5	-4,171000
23,441833	0,5	-4,117600
23,450167	0,5	-4,072750
23,458500	0,5	-4,020700
23,466833	0,5	-3,966700
23,475167	0,5	-3,915050
23,483500	0,5	-3,862250
23,491833	0,5	-3,813600
23,500167	0,5	-3,761050
23,508500	0,5	-3,801300
23,516833	0,5	-3,757850
23,525167	0,5	-3,652600
23,533500	0,5	-3,580550
23,541833	0,5	-3,539450
23,550167	0,5	-3,501050
23,558500	0,5	-3,461000
23,566833	0,5	-3,421250
23,575167	0,5	-3,401900
23,583500	0,5	-3,368750
23,591833	0,5	-3,336950
23,600167	0,5	-3,303050
23,608500	0,5	-3,271900
23,616833	0,5	-3,245300
23,625167	0,5	-3,218150
23,633500	0,5	-3,189000
23,641833	0,5	-3,156300
23,650167	0,5	-3,129150
23,658500	0,5	-3,252700
23,666833	0,5	-3,201100
23,675167	0,5	-3,127800
23,683500	0,5	-3,063850
23,691833	0,5	-3,031100
23,700167	0,5	-3,006300
23,708500	0,5	-2,990150
23,716833	0,5	-2,968450
23,725167	0,5	-2,946950
23,733500	0,5	-2,924250
23,741833	0,5	-2,898150
23,750167	0,5	-2,871100
23,758500	0,5	-2,850450
23,766833	0,5	-2,826750
23,775167	0,5	-2,797150
23,783500	0,5	-2,770200
23,791833	0,5	-2,743500
23,800167	0,5	-2,845150
23,808500	0,5	-2,866700
23,816833	0,5	-2,837050
23,825167	0,5	-2,737750
23,833500	0,5	-2,687450
23,841833	0,5	-2,653100
23,850167	0,5	-2,634900
23,858500	0,5	-2,622900
23,866833	0,5	-2,602000
23,875167	0,5	-2,574000
23,883500	0,5	-2,553400
23,891833	0,5	-2,531750
23,900167	0,5	-2,510350
23,908500	0,5	-2,491200
23,916833	0,5	-2,473050
23,925167	0,5	-2,442050
23,933500	0,5	-2,420750
23,941833	0,5	-2,399400
23,950167	0,5	-2,559000
23,958500	0,5	-2,525200
23,966833	0,5	-2,473050
23,975167	0,5	-2,396100
23,983500	0,5	-2,347950
23,991833	0,5	-2,311850
24,000167	0,5	-2,284900
24,008500	0,5	-2,288200
24,016833	0,5	-2,247700
24,025167	0,5	-2,222300
24,033500	0,5	-2,189450
24,041833	0,5	-2,165150
24,050167	0,5	-2,132200
24,058500	0,5	-2,107100
24,066833	0,5	-2,078050
24,075167	0,5	-2,052700
24,083500	0,5	-2,029250
24,091833	0,5	-2,045300
24,100167	0,5	-2,157750
24,108500	0,5	-2,116800
24,116833	0,5	-2,071700
24,125167	0,5	-2,003700
24,133500	0,5	-1,968650
24,141833	0,5	-1,943500
24,150167	0,5	-1,932350
24,158500	0,5	-1,922550
24,166833	0,5	-1,895000
24,175167	0,5	-1,861900
24,183500	0,5	-1,836800
24,191833	0,5	-1,804950
24,200167	0,5	-1,778400
24,208500	0,5	-1,748450
24,216833	0,5	-1,731400
24,225167	0,5	-1,695550
24,233500	0,5	-1,673950
24,241833	0,5	-1,748000
24,250167	0,5	-1,750950
24,258500	0,5	-1,711350
24,266833	0,5	-1,657900
24,275167	0,5	-1,608000
24,283500	0,5	-1,581500
24,291833	0,5	-1,560900
24,300167	0,5	-1,553100
24,308500	0,5	-1,545050
24,316833	0,5	-1,524800
24,325167	0,5	-1,505700
24,333500	0,5	-1,482000
24,341833	0,5	-1,461900
24,350167	0,5	-1,442650
24,358500	0,5	-1,423450
24,366833	0,5	-1,395800
24,375167	0,5	-1,376800
24,383500	0,5	-1,360350
24,391833	0,5	-1,450350
24,400167	0,5	-1,424550
24,408500	0,5	-1,396500
24,416833	0,5	-1,350550
24,425167	0,5	-1,319000
24,433500	0,5	-1,292700
24,441833	0,5	-1,284550
24,450167	0,5	-1,275350
24,458500	0,5	-1,255100
24,466833	0,5	-1,239200
24,475167	0,5	-1,216600
24,483500	0,5	-1,201950
24,491833	0,5	-1,182250
24,500167	0,5	-1,165800
24,508500	0,5	-1,144450
24,516833	0,5	-1,133050
24,525167	0,5	-1,117500
24,533500	0,5	-1,129450
24,541833	0,5	-1,161400
24,550167	0,5	-1,152350
24,558500	0,5	-1,111900
24,566833	0,5	-1,088250
24,575167	0,5	-1,065300
24,583500	0,5	-1,058150
24,591833	0,5	-1,056050
24,600167	0,5	-1,048400
24,608500	0,5	-1,035900
24,616833	0,5	-1,024950
24,625167	0,5	-1,014000
24,633500	0,5	-0,997900
24,641833	0,5	-0,986350
24,650167	0,5	-0,971100
24,658500	0,5	-0,958500
24,666833	0,5	-0,935950
24,675167	0,5	-0,922900
24,683500	0,5	-0,954900
24,691833	0,5	-0,951850
24,700167	0,5	-0,934650
24,708500	0,5	-0,905400
24,716833	0,5	-0,886550
24,725167	0,5	-0,876050
24,733500	0,5	-0,864350
24,741833	0,5	-0,865100
24,750167	0,5	-0,851900
24,758500	0,5	-0,843450
24,766833	0,5	-0,833450
24,775167	0,5	-0,831800
24,783500	0,5	-0,823250
24,791833	0,5	-0,815400
24,800167	0,5	-0,808550
24,808500	0,5	-0,799100
24,816833	0,5	-0,794500
24,825167	0,5	-0,793350
24,833500	0,5	-0,823000
24,841833	0,5	-0,802700
24,850167	0,5	-0,792550
24,858500	0,5	-0,767450
24,866833	0,5	-0,757800
24,875167	0,5	-0,739800
24,883500	0,5	-0,734900
24,891833	0,5	-0,735150
24,900167	0,5	-0,724850
24,908500	0,5	-0,714200
24,916833	0,5	-0,704800
24,925167	0,5	-0,697100
24,933500	0,5	-0,693600
24,941833	0,5	-0,689700
24,950167	0,5	-0,684050
24,958500	0,5	-0,672300
24,966833	0,5	-0,669300
24,975167	0,5	-0,680600
24,983500	0,5	-0,683000
24,991833	0,5	-0,680200
25,000167	0,5	-0,672100
25,008500	0,5	-0,664500
25,016833	0,5	-0,659700
25,025167	0,5	-0,657850
25,033500	0,5	-0,657500
25,041833	0,5	-0,657150
25,050167	0,5	-0,645700
25,058500	0,5	-0,640000
25,066833	0,5	-0,635550
25,075167	0,5	-0,627850
25,083500	0,5	-0,621400
25,091833	0,5	-0,615650
25,100167	0,5	-0,608450
25,108500	0,5	-0,600750
25,116833	0,5	-0,599350
25,125167	0,5	-0,605500
25,133500	0,5	-0,593950
25,141833	0,5	-0,588150
25,150167	0,5	-0,589550
25,158500	0,5	-0,582800
25,166833	0,5	-0,583500
25,175167	0,5	-0,583950
25,183500	0,5	-0,589100
25,191833	0,5	-0,585400
25,200167	0,5	-0,577550
25,208500	0,5	-0,577350
25,216833	0,5	-0,578450
25,225167	0,5	-0,573900
25,233500	0,5	-0,575600
25,241833	0,5	-0,572650
25,250167	0,5	-0,570500
25,258500	0,5	-0,564500
25,266833	0,5	-0,560200
25,275167	0,5	-0,552350
25,283500	0,5	-0,543600
25,291833	0,5	-0,541650
25,300167	0,5	-0,545250
25,308500	0,5	-0,536750
25,316833	0,5	-0,536750
25,325167	0,5	-0,529850
25,333500	0,5	-0,530400
25,341833	0,5	-0,526750
25,350167	0,5	-0,529150
25,358500	0,5	-0,527300
25,366833	0,5	-0,529900
25,375167	0,5	-0,531050
25,383500	0,5	-0,533550
25,391833	0,5	-0,532450
25,400167	0,5	-0,531950
25,408500	0,5	-0,529900
25,416833	0,5	-0,530700
25,425167	0,5	-0,521850
25,433500	0,5	-0,518450
25,441833	0,5	-0,516550
25,450167	0,5	-0,523850
25,458500	0,5	-0,518200
25,466833	0,5	-0,520200
25,475167	0,5	-0,516400
25,483500	0,5	-0,507750
25,491833	0,5	-0,508550
25,500167	0,5	-0,506150
25,508500	0,5	-0,507550
25,516833	0,5	-0,507900
25,525167	0,5	-0,506450
25,533500	0,5	-0,500500
25,541833	0,5	-0,510400
25,550167	0,5	-0,507650
25,558500	0,5	-0,504300
25,566833	0,5	-0,497300
25,575167	0,5	-0,500050
25,583500	0,5	-0,492300
25,591833	0,5	-0,500850
25,600167	0,5	-0,506450
25,608500	0,5	-0,504300
25,616833	0,5	-0,501200
25,625167	0,5	-0,495550
25,633500	0,5	-0,491750
25,641833	0,5	-0,495800
25,650167	0,5	-0,496150
25,658500	0,5	-0,493700
25,666833	0,5	-0,495750
25,675167	0,5	-0,491450
25,683500	0,5	-0,491250
25,691833	0,5	-0,489200
25,700167	0,5	-0,486300
25,708500	0,5	-0,486450
25,716833	0,5	-0,477600
25,725167	0,5	-0,469600
25,733500	0,5	-0,460750
25,741833	0,5	-0,471500
25,750167	0,5	-0,478300
25,758500	0,5	-0,474000
25,766833	0,5	-0,471850
25,775167	0,5	-0,463400
25,783500	0,5	-0,466750
25,791833	0,5	-0,468350
25,800167	0,5	-0,466800
25,808500	0,5	-0,462250
25,816833	0,5	-0,466550
25,825167	0,5	-0,466200
25,833500	0,5	-0,462700
25,841833	0,5	-0,461900
25,850167	0,5	-0,458250
25,858500	0,5	-0,449600
25,866833	0,5	-0,437850
25,875167	0,5	-0,435200
25,883500	0,5	-0,432100
25,891833	0,5	-0,440450
25,900167	0,5	-0,437500
25,908500	0,5	-0,436900
25,916833	0,5	-0,428750
25,925167	0,5	-0,417400
25,933500	0,5	-0,414450
25,941833	0,5	-0,420450
25,950167	0,5	-0,415550
25,958500	0,5	-0,413350
25,966833	0,5	-0,411550
25,975167	0,5	-0,410000
25,983500	0,5	-0,405750
25,991833	0,5	-0,400800
26,000167	0,5	-0,399200
