File Path	chrom://chromeleon01/ikbm_chromeleon/2022/ICS-5000/ED1/Esteban/20220427_Cell_Amandas_mutants.seq/913.smp/ED_1.channel/ED_1.chm
Channel	ED_1

Injection Information:
Data Vault	ikbm_chromeleon
Injection	EG_Avi_4a
Injection Number	24
Position	RC2
Comment	
Processing Method	Stop sequence after Cell Death
Instrument Method	ICS5000_PA200_FullNative_Ox_26min_ED1
Type	Unknown
Status	Finished
Injection Date	27.04.2022
Injection Time	23:52:52
Injection Volume (µl)	5,0
Dilution Factor	1,0000
Weight	1,0000

Chromatogram Data Information:
Time Min. (min)	0,000167
Time Max. (min)	26,000167
Data Points	3121
Detector	EDet1
Generating Data System	Chromeleon 7.2.9.11323
Exporting Data System	Chromeleon 7.2.9.0
Operator	Instrument Controller
Signal Quantity	
Signal Unit	nC
Signal Min.	-7,393400
Signal Max.	769,756411
Channel	ED_1
Driver Name	DC-5000
Channel Type	Evaluation
Min. Step (s)	0,5
Max. Step (s)	0,5
Average Step (s)	0,5

Signal Parameter Information:
Signal Info	

Chromatogram Data:
Time (min)	Step (s)	Value (nC)
0,000167	n.a.	-0,097550
0,008500	0,5	-0,103300
0,016833	0,5	-0,096800
0,025167	0,5	-0,076200
0,033500	0,5	-0,061200
0,041833	0,5	-0,042900
0,050167	0,5	-0,061300
0,058500	0,5	-0,060100
0,066833	0,5	-0,034150
0,075167	0,5	-0,056900
0,083500	0,5	-0,058100
0,091833	0,5	-0,047500
0,100167	0,5	-0,027150
0,108500	0,5	0,014100
0,116833	0,5	0,008100
0,125167	0,5	0,012550
0,133500	0,5	0,010000
0,141833	0,5	0,011650
0,150167	0,5	-0,012950
0,158500	0,5	-0,004350
0,166833	0,5	-0,007300
0,175167	0,5	-0,008950
0,183500	0,5	-0,006950
0,191833	0,5	-0,018300
0,200167	0,5	-0,023350
0,208500	0,5	-0,020400
0,216833	0,5	-0,010050
0,225167	0,5	-0,035050
0,233500	0,5	-0,027650
0,241833	0,5	-0,038400
0,250167	0,5	-0,000300
0,258500	0,5	0,018050
0,266833	0,5	0,028650
0,275167	0,5	0,004550
0,283500	0,5	0,013200
0,291833	0,5	0,004050
0,300167	0,5	0,044450
0,308500	0,5	0,048500
0,316833	0,5	0,009750
0,325167	0,5	-0,022750
0,333500	0,5	-0,024000
0,341833	0,5	-0,023900
0,350167	0,5	-0,031750
0,358500	0,5	-0,026000
0,366833	0,5	-0,029400
0,375167	0,5	-0,048550
0,383500	0,5	-0,043500
0,391833	0,5	-0,041200
0,400167	0,5	-0,008200
0,408500	0,5	0,009350
0,416833	0,5	-0,015900
0,425167	0,5	-0,010400
0,433500	0,5	-0,017100
0,441833	0,5	-0,014000
0,450167	0,5	-0,027450
0,458500	0,5	-0,019050
0,466833	0,5	-0,028450
0,475167	0,5	-0,026550
0,483500	0,5	-0,029900
0,491833	0,5	-0,052400
0,500167	0,5	-0,056550
0,508500	0,5	-0,016250
0,516833	0,5	-0,042450
0,525167	0,5	-0,055200
0,533500	0,5	-0,042000
0,541833	0,5	-0,025650
0,550167	0,5	0,012500
0,558500	0,5	0,001450
0,566833	0,5	-0,004350
0,575167	0,5	-0,014750
0,583500	0,5	-0,006250
0,591833	0,5	-0,018100
0,600167	0,5	-0,010850
0,608500	0,5	-0,020850
0,616833	0,5	-0,023150
0,625167	0,5	-0,023050
0,633500	0,5	-0,012000
0,641833	0,5	-0,025050
0,650167	0,5	-0,003000
0,658500	0,5	0,005000
0,666833	0,5	-0,019000
0,675167	0,5	-0,033000
0,683500	0,5	-0,021850
0,691833	0,5	-0,005450
0,700167	0,5	0,031200
0,708500	0,5	0,012500
0,716833	0,5	-0,002550
0,725167	0,5	-0,000150
0,733500	0,5	-0,004500
0,741833	0,5	0,004800
0,750167	0,5	0,011800
0,758500	0,5	0,003200
0,766833	0,5	-0,000400
0,775167	0,5	0,007050
0,783500	0,5	0,003150
0,791833	0,5	0,004050
0,800167	0,5	0,013600
0,808500	0,5	0,021050
0,816833	0,5	-0,002450
0,825167	0,5	-0,001550
0,833500	0,5	0,000000
0,841833	0,5	0,053750
0,850167	0,5	0,067400
0,858500	0,5	0,047700
0,866833	0,5	0,041000
0,875167	0,5	0,048350
0,883500	0,5	0,041000
0,891833	0,5	0,038750
0,900167	0,5	0,041050
0,908500	0,5	0,032550
0,916833	0,5	0,033250
0,925167	0,5	0,038800
0,933500	0,5	0,057150
0,941833	0,5	0,038250
0,950167	0,5	0,079700
0,958500	0,5	0,050550
0,966833	0,5	0,041200
0,975167	0,5	0,038450
0,983500	0,5	0,061150
0,991833	0,5	0,091050
1,000167	0,5	0,102000
1,008500	0,5	0,080450
1,016833	0,5	0,086600
1,025167	0,5	0,080950
1,033500	0,5	0,095350
1,041833	0,5	0,086700
1,050167	0,5	0,102150
1,058500	0,5	0,089400
1,066833	0,5	0,093450
1,075167	0,5	0,098750
1,083500	0,5	0,084750
1,091833	0,5	0,082300
1,100167	0,5	0,105450
1,108500	0,5	0,083550
1,116833	0,5	0,082050
1,125167	0,5	0,091000
1,133500	0,5	0,121550
1,141833	0,5	0,162150
1,150167	0,5	0,163050
1,158500	0,5	0,159550
1,166833	0,5	0,149850
1,175167	0,5	0,160250
1,183500	0,5	0,151050
1,191833	0,5	0,157150
1,200167	0,5	0,149550
1,208500	0,5	0,151200
1,216833	0,5	0,153950
1,225167	0,5	0,160400
1,233500	0,5	0,162100
1,241833	0,5	0,180250
1,250167	0,5	0,200900
1,258500	0,5	0,173150
1,266833	0,5	0,175800
1,275167	0,5	0,181450
1,283500	0,5	0,210350
1,291833	0,5	0,233700
1,300167	0,5	0,245900
1,308500	0,5	0,231150
1,316833	0,5	0,241500
1,325167	0,5	0,237150
1,333500	0,5	0,243850
1,341833	0,5	0,239400
1,350167	0,5	0,255500
1,358500	0,5	0,253750
1,366833	0,5	0,262600
1,375167	0,5	0,267650
1,383500	0,5	0,272500
1,391833	0,5	0,293300
1,400167	0,5	0,286000
1,408500	0,5	0,271000
1,416833	0,5	0,284950
1,425167	0,5	0,299100
1,433500	0,5	0,342350
1,441833	0,5	0,350600
1,450167	0,5	0,347700
1,458500	0,5	0,359900
1,466833	0,5	0,355750
1,475167	0,5	0,356700
1,483500	0,5	0,353500
1,491833	0,5	0,367800
1,500167	0,5	0,363500
1,508500	0,5	0,372800
1,516833	0,5	0,377750
1,525167	0,5	0,380050
1,533500	0,5	0,379650
1,541833	0,5	0,412900
1,550167	0,5	0,396000
1,558500	0,5	0,387750
1,566833	0,5	0,338950
1,575167	0,5	0,137100
1,583500	0,5	-0,525900
1,591833	0,5	-1,551100
1,600167	0,5	-1,713450
1,608500	0,5	-0,049900
1,616833	0,5	2,726800
1,625167	0,5	6,181800
1,633500	0,5	10,814700
1,641833	0,5	15,539950
1,650167	0,5	18,077250
1,658500	0,5	17,758650
1,666833	0,5	15,960150
1,675167	0,5	13,956450
1,683500	0,5	12,257500
1,691833	0,5	10,842250
1,700167	0,5	9,737700
1,708500	0,5	9,154700
1,716833	0,5	9,564600
1,725167	0,5	11,134850
1,733500	0,5	12,716450
1,741833	0,5	12,582850
1,750167	0,5	10,847800
1,758500	0,5	8,818450
1,766833	0,5	7,277450
1,775167	0,5	6,327850
1,783500	0,5	5,833050
1,791833	0,5	5,606800
1,800167	0,5	5,468750
1,808500	0,5	5,287800
1,816833	0,5	5,015400
1,825167	0,5	4,703600
1,833500	0,5	4,440100
1,841833	0,5	4,146850
1,850167	0,5	3,849950
1,858500	0,5	3,593350
1,866833	0,5	3,364550
1,875167	0,5	3,198350
1,883500	0,5	3,025300
1,891833	0,5	2,871350
1,900167	0,5	2,732500
1,908500	0,5	2,612950
1,916833	0,5	2,484600
1,925167	0,5	2,388100
1,933500	0,5	2,351300
1,941833	0,5	2,399150
1,950167	0,5	2,510350
1,958500	0,5	2,576900
1,966833	0,5	2,599050
1,975167	0,5	2,731150
1,983500	0,5	3,575150
1,991833	0,5	5,862800
2,000167	0,5	10,966400
2,008500	0,5	21,879650
2,016833	0,5	46,421051
2,025167	0,5	94,324751
2,033500	0,5	155,995652
2,041833	0,5	192,276153
2,050167	0,5	180,112703
2,058500	0,5	141,052452
2,066833	0,5	104,640052
2,075167	0,5	80,044451
2,083500	0,5	64,295351
2,091833	0,5	53,593801
2,100167	0,5	45,926901
2,108500	0,5	40,227101
2,116833	0,5	35,912401
2,125167	0,5	32,635350
2,133500	0,5	30,150500
2,141833	0,5	28,203350
2,150167	0,5	26,784050
2,158500	0,5	25,788650
2,166833	0,5	24,924100
2,175167	0,5	23,934850
2,183500	0,5	22,845400
2,191833	0,5	21,902700
2,200167	0,5	21,164250
2,208500	0,5	20,597050
2,216833	0,5	20,140500
2,225167	0,5	19,798800
2,233500	0,5	19,525650
2,241833	0,5	19,322550
2,250167	0,5	19,169300
2,258500	0,5	19,075100
2,266833	0,5	19,027300
2,275167	0,5	19,044000
2,283500	0,5	19,007650
2,291833	0,5	18,919800
2,300167	0,5	18,835500
2,308500	0,5	18,764450
2,316833	0,5	18,749650
2,325167	0,5	18,738600
2,333500	0,5	18,726650
2,341833	0,5	18,710100
2,350167	0,5	18,717000
2,358500	0,5	18,737000
2,366833	0,5	18,798700
2,375167	0,5	18,875250
2,383500	0,5	18,983350
2,391833	0,5	19,109550
2,400167	0,5	19,319650
2,408500	0,5	19,636050
2,416833	0,5	20,208000
2,425167	0,5	21,138100
2,433500	0,5	22,310450
2,441833	0,5	23,499400
2,450167	0,5	24,372600
2,458500	0,5	24,645250
2,466833	0,5	24,438450
2,475167	0,5	24,033450
2,483500	0,5	23,669550
2,491833	0,5	23,353750
2,500167	0,5	23,026900
2,508500	0,5	22,674900
2,516833	0,5	22,303950
2,525167	0,5	21,931850
2,533500	0,5	21,556150
2,541833	0,5	21,208250
2,550167	0,5	20,872650
2,558500	0,5	20,570900
2,566833	0,5	20,300650
2,575167	0,5	20,091600
2,583500	0,5	19,890450
2,591833	0,5	19,774350
2,600167	0,5	19,780950
2,608500	0,5	19,992700
2,616833	0,5	20,422150
2,625167	0,5	20,970250
2,633500	0,5	21,431850
2,641833	0,5	21,612200
2,650167	0,5	21,440000
2,658500	0,5	21,089050
2,666833	0,5	20,880150
2,675167	0,5	21,343550
2,683500	0,5	23,259650
2,691833	0,5	27,618200
2,700167	0,5	35,132601
2,708500	0,5	45,971601
2,716833	0,5	60,934301
2,725167	0,5	83,436601
2,733500	0,5	124,679252
2,741833	0,5	209,167453
2,750167	0,5	361,177955
2,758500	0,5	553,858558
2,766833	0,5	707,627761
2,775167	0,5	769,756411
2,783500	0,5	745,913111
2,791833	0,5	667,135610
2,800167	0,5	565,099708
2,808500	0,5	463,803957
2,816833	0,5	377,098806
2,825167	0,5	308,719305
2,833500	0,5	256,109604
2,841833	0,5	214,850203
2,850167	0,5	181,567553
2,858500	0,5	154,459852
2,866833	0,5	132,590252
2,875167	0,5	114,804452
2,883500	0,5	100,189801
2,891833	0,5	87,903701
2,900167	0,5	77,409901
2,908500	0,5	68,444101
2,916833	0,5	60,765051
2,925167	0,5	54,282351
2,933500	0,5	48,816801
2,941833	0,5	44,237601
2,950167	0,5	40,333851
2,958500	0,5	37,005951
2,966833	0,5	34,121251
2,975167	0,5	31,617450
2,983500	0,5	29,417500
2,991833	0,5	27,466050
3,000167	0,5	25,741100
3,008500	0,5	24,181350
3,016833	0,5	22,811750
3,025167	0,5	21,535400
3,033500	0,5	20,398050
3,041833	0,5	19,363650
3,050167	0,5	18,430350
3,058500	0,5	17,585250
3,066833	0,5	16,783500
3,075167	0,5	16,016600
3,083500	0,5	15,338200
3,091833	0,5	14,677550
3,100167	0,5	14,072450
3,108500	0,5	13,500950
3,116833	0,5	12,967150
3,125167	0,5	12,455950
3,133500	0,5	11,987800
3,141833	0,5	11,542150
3,150167	0,5	11,128750
3,158500	0,5	10,750800
3,166833	0,5	10,425800
3,175167	0,5	10,101900
3,183500	0,5	9,846250
3,191833	0,5	9,621300
3,200167	0,5	9,479600
3,208500	0,5	9,415500
3,216833	0,5	9,431000
3,225167	0,5	9,566200
3,233500	0,5	9,774550
3,241833	0,5	9,948400
3,250167	0,5	9,972700
3,258500	0,5	9,783500
3,266833	0,5	9,381500
3,275167	0,5	8,856800
3,283500	0,5	8,307150
3,291833	0,5	7,792550
3,300167	0,5	7,347900
3,308500	0,5	7,014050
3,316833	0,5	6,721600
3,325167	0,5	6,476150
3,333500	0,5	6,277450
3,341833	0,5	6,117350
3,350167	0,5	5,998400
3,358500	0,5	5,880750
3,366833	0,5	5,762950
3,375167	0,5	5,651150
3,383500	0,5	5,550200
3,391833	0,5	5,449900
3,400167	0,5	5,345500
3,408500	0,5	5,239950
3,416833	0,5	5,134350
3,425167	0,5	5,033950
3,433500	0,5	4,940250
3,441833	0,5	4,835100
3,450167	0,5	4,747300
3,458500	0,5	4,675850
3,466833	0,5	4,593200
3,475167	0,5	4,509650
3,483500	0,5	4,449350
3,491833	0,5	4,403750
3,500167	0,5	4,381200
3,508500	0,5	4,330000
3,516833	0,5	4,298600
3,525167	0,5	4,266550
3,533500	0,5	4,246300
3,541833	0,5	4,218600
3,550167	0,5	4,211800
3,558500	0,5	4,198350
3,566833	0,5	4,168800
3,575167	0,5	4,151250
3,583500	0,5	4,116950
3,591833	0,5	4,079550
3,600167	0,5	4,043850
3,608500	0,5	4,007850
3,616833	0,5	3,943350
3,625167	0,5	3,882650
3,633500	0,5	3,822350
3,641833	0,5	3,791300
3,650167	0,5	3,735900
3,658500	0,5	3,651400
3,666833	0,5	3,570000
3,675167	0,5	3,499150
3,683500	0,5	3,420850
3,691833	0,5	3,350400
3,700167	0,5	3,283750
3,708500	0,5	3,223000
3,716833	0,5	3,158100
3,725167	0,5	3,100850
3,733500	0,5	3,055300
3,741833	0,5	2,995050
3,750167	0,5	2,972000
3,758500	0,5	2,936100
3,766833	0,5	2,907250
3,775167	0,5	2,890850
3,783500	0,5	2,901250
3,791833	0,5	2,930150
3,800167	0,5	2,953750
3,808500	0,5	2,941150
3,816833	0,5	2,927650
3,825167	0,5	2,912850
3,833500	0,5	2,892600
3,841833	0,5	2,860150
3,850167	0,5	2,847350
3,858500	0,5	2,816050
3,866833	0,5	2,798800
3,875167	0,5	2,789200
3,883500	0,5	2,761550
3,891833	0,5	2,727550
3,900167	0,5	2,736150
3,908500	0,5	2,706400
3,916833	0,5	2,675450
3,925167	0,5	2,639800
3,933500	0,5	2,615750
3,941833	0,5	2,613150
3,950167	0,5	2,563700
3,958500	0,5	2,519800
3,966833	0,5	2,473300
3,975167	0,5	2,437500
3,983500	0,5	2,395050
3,991833	0,5	2,369650
4,000167	0,5	2,336100
4,008500	0,5	2,319250
4,016833	0,5	2,293400
4,025167	0,5	2,276300
4,033500	0,5	2,238000
4,041833	0,5	2,214300
4,050167	0,5	2,198900
4,058500	0,5	2,151500
4,066833	0,5	2,114150
4,075167	0,5	2,084550
4,083500	0,5	2,067400
4,091833	0,5	2,068250
4,100167	0,5	2,042150
4,108500	0,5	2,009300
4,116833	0,5	1,991050
4,125167	0,5	1,970300
4,133500	0,5	1,955400
4,141833	0,5	1,944800
4,150167	0,5	1,939200
4,158500	0,5	1,930500
4,166833	0,5	1,937400
4,175167	0,5	1,933500
4,183500	0,5	1,932250
4,191833	0,5	1,935150
4,200167	0,5	1,933850
4,208500	0,5	1,915000
4,216833	0,5	1,923650
4,225167	0,5	1,943000
4,233500	0,5	1,992550
4,241833	0,5	2,062950
4,250167	0,5	2,121800
4,258500	0,5	2,206650
4,266833	0,5	2,327900
4,275167	0,5	2,479550
4,283500	0,5	2,671750
4,291833	0,5	2,900650
4,300167	0,5	3,159200
4,308500	0,5	3,473600
4,316833	0,5	3,856900
4,325167	0,5	4,330850
4,333500	0,5	4,952350
4,341833	0,5	5,824250
4,350167	0,5	6,972100
4,358500	0,5	8,502900
4,366833	0,5	10,464250
4,375167	0,5	12,843350
4,383500	0,5	15,520750
4,391833	0,5	18,254850
4,400167	0,5	20,749900
4,408500	0,5	22,730250
4,416833	0,5	23,933050
4,425167	0,5	24,239050
4,433500	0,5	23,642700
4,441833	0,5	22,284250
4,450167	0,5	20,369500
4,458500	0,5	18,147700
4,466833	0,5	15,856500
4,475167	0,5	13,635050
4,483500	0,5	11,644300
4,491833	0,5	9,932850
4,500167	0,5	8,483750
4,508500	0,5	7,299350
4,516833	0,5	6,368300
4,525167	0,5	5,649100
4,533500	0,5	5,089100
4,541833	0,5	4,619200
4,550167	0,5	4,252000
4,558500	0,5	3,944500
4,566833	0,5	3,712250
4,575167	0,5	3,496450
4,583500	0,5	3,325950
4,591833	0,5	3,164100
4,600167	0,5	3,021100
4,608500	0,5	2,892050
4,616833	0,5	2,773000
4,625167	0,5	2,667750
4,633500	0,5	2,590400
4,641833	0,5	2,514850
4,650167	0,5	2,446050
4,658500	0,5	2,397900
4,666833	0,5	2,367500
4,675167	0,5	2,361450
4,683500	0,5	2,335250
4,691833	0,5	2,298700
4,700167	0,5	2,248450
4,708500	0,5	2,209200
4,716833	0,5	2,151300
4,725167	0,5	2,096800
4,733500	0,5	2,045450
4,741833	0,5	1,992550
4,750167	0,5	1,931200
4,758500	0,5	1,894550
4,766833	0,5	1,861750
4,775167	0,5	1,816850
4,783500	0,5	1,804900
4,791833	0,5	1,774800
4,800167	0,5	1,748350
4,808500	0,5	1,725300
4,816833	0,5	1,723650
4,825167	0,5	1,739950
4,833500	0,5	1,743650
4,841833	0,5	1,725850
4,850167	0,5	1,730250
4,858500	0,5	1,724350
4,866833	0,5	1,727100
4,875167	0,5	1,725300
4,883500	0,5	1,729000
4,891833	0,5	1,721100
4,900167	0,5	1,731850
4,908500	0,5	1,732550
4,916833	0,5	1,739650
4,925167	0,5	1,733150
4,933500	0,5	1,766400
4,941833	0,5	1,758100
4,950167	0,5	1,778400
4,958500	0,5	1,795900
4,966833	0,5	1,827400
4,975167	0,5	1,871550
4,983500	0,5	1,883700
4,991833	0,5	1,888900
5,000167	0,5	1,898050
5,008500	0,5	1,916900
5,016833	0,5	1,920050
5,025167	0,5	1,925850
5,033500	0,5	1,924800
5,041833	0,5	1,931500
5,050167	0,5	1,928800
5,058500	0,5	1,921900
5,066833	0,5	1,906650
5,075167	0,5	1,900700
5,083500	0,5	1,913550
5,091833	0,5	1,901650
5,100167	0,5	1,907000
5,108500	0,5	1,915800
5,116833	0,5	1,941850
5,125167	0,5	1,982250
5,133500	0,5	1,993200
5,141833	0,5	2,013350
5,150167	0,5	2,020150
5,158500	0,5	2,023950
5,166833	0,5	2,014900
5,175167	0,5	2,003700
5,183500	0,5	1,986250
5,191833	0,5	1,958650
5,200167	0,5	1,944400
5,208500	0,5	1,913700
5,216833	0,5	1,890400
5,225167	0,5	1,874400
5,233500	0,5	1,858200
5,241833	0,5	1,829250
5,250167	0,5	1,825800
5,258500	0,5	1,820850
5,266833	0,5	1,839100
5,275167	0,5	1,838100
5,283500	0,5	1,832450
5,291833	0,5	1,826900
5,300167	0,5	1,829800
5,308500	0,5	1,828900
5,316833	0,5	1,837100
5,325167	0,5	1,844850
5,333500	0,5	1,854150
5,341833	0,5	1,858950
5,350167	0,5	1,868000
5,358500	0,5	1,871750
5,366833	0,5	1,872450
5,375167	0,5	1,894800
5,383500	0,5	1,891900
5,391833	0,5	1,888200
5,400167	0,5	1,902000
5,408500	0,5	1,926850
5,416833	0,5	1,959050
5,425167	0,5	1,988600
5,433500	0,5	2,002450
5,441833	0,5	2,026850
5,450167	0,5	2,044700
5,458500	0,5	2,067500
5,466833	0,5	2,073200
5,475167	0,5	2,071600
5,483500	0,5	2,064150
5,491833	0,5	2,047650
5,500167	0,5	2,024550
5,508500	0,5	1,985900
5,516833	0,5	1,956950
5,525167	0,5	1,939300
5,533500	0,5	1,898250
5,541833	0,5	1,864500
5,550167	0,5	1,844050
5,558500	0,5	1,849700
5,566833	0,5	1,846350
5,575167	0,5	1,825400
5,583500	0,5	1,815850
5,591833	0,5	1,795150
5,600167	0,5	1,790800
5,608500	0,5	1,770600
5,616833	0,5	1,766050
5,625167	0,5	1,755300
5,633500	0,5	1,745600
5,641833	0,5	1,738600
5,650167	0,5	1,721650
5,658500	0,5	1,702350
5,666833	0,5	1,705600
5,675167	0,5	1,698550
5,683500	0,5	1,683900
5,691833	0,5	1,674650
5,700167	0,5	1,672300
5,708500	0,5	1,688550
5,716833	0,5	1,688000
5,725167	0,5	1,675900
5,733500	0,5	1,667750
5,741833	0,5	1,663800
5,750167	0,5	1,649000
5,758500	0,5	1,647050
5,766833	0,5	1,642750
5,775167	0,5	1,639750
5,783500	0,5	1,627150
5,791833	0,5	1,627900
5,800167	0,5	1,620250
5,808500	0,5	1,610650
5,816833	0,5	1,618250
5,825167	0,5	1,608700
5,833500	0,5	1,597400
5,841833	0,5	1,586600
5,850167	0,5	1,584700
5,858500	0,5	1,599050
5,866833	0,5	1,594250
5,875167	0,5	1,578350
5,883500	0,5	1,567100
5,891833	0,5	1,559400
5,900167	0,5	1,549900
5,908500	0,5	1,551000
5,916833	0,5	1,560700
5,925167	0,5	1,560700
5,933500	0,5	1,585550
5,941833	0,5	1,606800
5,950167	0,5	1,640550
5,958500	0,5	1,673300
5,966833	0,5	1,734100
5,975167	0,5	1,762200
5,983500	0,5	1,800200
5,991833	0,5	1,814800
6,000167	0,5	1,832750
6,008500	0,5	1,836350
6,016833	0,5	1,798500
6,025167	0,5	1,749200
6,033500	0,5	1,707100
6,041833	0,5	1,662650
6,050167	0,5	1,629350
6,058500	0,5	1,598550
6,066833	0,5	1,578700
6,075167	0,5	1,571950
6,083500	0,5	1,566700
6,091833	0,5	1,571600
6,100167	0,5	1,574300
6,108500	0,5	1,592800
6,116833	0,5	1,620200
6,125167	0,5	1,629300
6,133500	0,5	1,658550
6,141833	0,5	1,680250
6,150167	0,5	1,700200
6,158500	0,5	1,716550
6,166833	0,5	1,690150
6,175167	0,5	1,663150
6,183500	0,5	1,612500
6,191833	0,5	1,569600
6,200167	0,5	1,513850
6,208500	0,5	1,468100
6,216833	0,5	1,424550
6,225167	0,5	1,391550
6,233500	0,5	1,367700
6,241833	0,5	1,341800
6,250167	0,5	1,327450
6,258500	0,5	1,322000
6,266833	0,5	1,312400
6,275167	0,5	1,300400
6,283500	0,5	1,298400
6,291833	0,5	1,301500
6,300167	0,5	1,316800
6,308500	0,5	1,327150
6,316833	0,5	1,323150
6,325167	0,5	1,318000
6,333500	0,5	1,319100
6,341833	0,5	1,317050
6,350167	0,5	1,321000
6,358500	0,5	1,320700
6,366833	0,5	1,323200
6,375167	0,5	1,330950
6,383500	0,5	1,340150
6,391833	0,5	1,331800
6,400167	0,5	1,338050
6,408500	0,5	1,347550
6,416833	0,5	1,339500
6,425167	0,5	1,332550
6,433500	0,5	1,333250
6,441833	0,5	1,340050
6,450167	0,5	1,344200
6,458500	0,5	1,345250
6,466833	0,5	1,343050
6,475167	0,5	1,341300
6,483500	0,5	1,336600
6,491833	0,5	1,345700
6,500167	0,5	1,343850
6,508500	0,5	1,351200
6,516833	0,5	1,352550
6,525167	0,5	1,359200
6,533500	0,5	1,378250
6,541833	0,5	1,392700
6,550167	0,5	1,416500
6,558500	0,5	1,446850
6,566833	0,5	1,457800
6,575167	0,5	1,483300
6,583500	0,5	1,507700
6,591833	0,5	1,548150
6,600167	0,5	1,580100
6,608500	0,5	1,582950
6,616833	0,5	1,587250
6,625167	0,5	1,588550
6,633500	0,5	1,594000
6,641833	0,5	1,586450
6,650167	0,5	1,589600
6,658500	0,5	1,585350
6,666833	0,5	1,588900
6,675167	0,5	1,590850
6,683500	0,5	1,588850
6,691833	0,5	1,584250
6,700167	0,5	1,605950
6,708500	0,5	1,604100
6,716833	0,5	1,611050
6,725167	0,5	1,618400
6,733500	0,5	1,639900
6,741833	0,5	1,667050
6,750167	0,5	1,678850
6,758500	0,5	1,689650
6,766833	0,5	1,699750
6,775167	0,5	1,703450
6,783500	0,5	1,706500
6,791833	0,5	1,711250
6,800167	0,5	1,706300
6,808500	0,5	1,706300
6,816833	0,5	1,699500
6,825167	0,5	1,711950
6,833500	0,5	1,713850
6,841833	0,5	1,729300
6,850167	0,5	1,757150
6,858500	0,5	1,774100
6,866833	0,5	1,788700
6,875167	0,5	1,804000
6,883500	0,5	1,817650
6,891833	0,5	1,841550
6,900167	0,5	1,848800
6,908500	0,5	1,843350
6,916833	0,5	1,841100
6,925167	0,5	1,840000
6,933500	0,5	1,840800
6,941833	0,5	1,847650
6,950167	0,5	1,855650
6,958500	0,5	1,869900
6,966833	0,5	1,887400
6,975167	0,5	1,913400
6,983500	0,5	1,934950
6,991833	0,5	1,950750
7,000167	0,5	1,981850
7,008500	0,5	1,991750
7,016833	0,5	2,008550
7,025167	0,5	2,023100
7,033500	0,5	2,042800
7,041833	0,5	2,055900
7,050167	0,5	2,051000
7,058500	0,5	2,033450
7,066833	0,5	2,020100
7,075167	0,5	1,997100
7,083500	0,5	1,972850
7,091833	0,5	1,955000
7,100167	0,5	1,940950
7,108500	0,5	1,933600
7,116833	0,5	1,932800
7,125167	0,5	1,932700
7,133500	0,5	1,933700
7,141833	0,5	1,944100
7,150167	0,5	1,957450
7,158500	0,5	1,967550
7,166833	0,5	1,986300
7,175167	0,5	2,008800
7,183500	0,5	2,032250
7,191833	0,5	2,066750
7,200167	0,5	2,074350
7,208500	0,5	2,089250
7,216833	0,5	2,097750
7,225167	0,5	2,110600
7,233500	0,5	2,120200
7,241833	0,5	2,134100
7,250167	0,5	2,134200
7,258500	0,5	2,140800
7,266833	0,5	2,145550
7,275167	0,5	2,140250
7,283500	0,5	2,139150
7,291833	0,5	2,153750
7,300167	0,5	2,159350
7,308500	0,5	2,164350
7,316833	0,5	2,180850
7,325167	0,5	2,220650
7,333500	0,5	2,278450
7,341833	0,5	2,355450
7,350167	0,5	2,461550
7,358500	0,5	2,605900
7,366833	0,5	2,781600
7,375167	0,5	2,972250
7,383500	0,5	3,172500
7,391833	0,5	3,336100
7,400167	0,5	3,457450
7,408500	0,5	3,527700
7,416833	0,5	3,578850
7,425167	0,5	3,588700
7,433500	0,5	3,599250
7,441833	0,5	3,582750
7,450167	0,5	3,532200
7,458500	0,5	3,445450
7,466833	0,5	3,343950
7,475167	0,5	3,238600
7,483500	0,5	3,120150
7,491833	0,5	2,998700
7,500167	0,5	2,877800
7,508500	0,5	2,778750
7,516833	0,5	2,702650
7,525167	0,5	2,660700
7,533500	0,5	2,661000
7,541833	0,5	2,703500
7,550167	0,5	2,753250
7,558500	0,5	2,814800
7,566833	0,5	2,846100
7,575167	0,5	2,826050
7,583500	0,5	2,783650
7,591833	0,5	2,730750
7,600167	0,5	2,689300
7,608500	0,5	2,694500
7,616833	0,5	2,781650
7,625167	0,5	2,956800
7,633500	0,5	3,198000
7,641833	0,5	3,476400
7,650167	0,5	3,743550
7,658500	0,5	3,940950
7,666833	0,5	4,009300
7,675167	0,5	3,927900
7,683500	0,5	3,720200
7,691833	0,5	3,433850
7,700167	0,5	3,130950
7,708500	0,5	2,849300
7,716833	0,5	2,627000
7,725167	0,5	2,457550
7,733500	0,5	2,353750
7,741833	0,5	2,277300
7,750167	0,5	2,220500
7,758500	0,5	2,188200
7,766833	0,5	2,168300
7,775167	0,5	2,173150
7,783500	0,5	2,176350
7,791833	0,5	2,191500
7,800167	0,5	2,210500
7,808500	0,5	2,223850
7,816833	0,5	2,225750
7,825167	0,5	2,215400
7,833500	0,5	2,191700
7,841833	0,5	2,168400
7,850167	0,5	2,138950
7,858500	0,5	2,121800
7,866833	0,5	2,101950
7,875167	0,5	2,094300
7,883500	0,5	2,107600
7,891833	0,5	2,121050
7,900167	0,5	2,145650
7,908500	0,5	2,170550
7,916833	0,5	2,196000
7,925167	0,5	2,212850
7,933500	0,5	2,209500
7,941833	0,5	2,195850
7,950167	0,5	2,173050
7,958500	0,5	2,154150
7,966833	0,5	2,129350
7,975167	0,5	2,115300
7,983500	0,5	2,100750
7,991833	0,5	2,094500
8,000167	0,5	2,084500
8,008500	0,5	2,082150
8,016833	0,5	2,080900
8,025167	0,5	2,090200
8,033500	0,5	2,105950
8,041833	0,5	2,128100
8,050167	0,5	2,163900
8,058500	0,5	2,215350
8,066833	0,5	2,277600
8,075167	0,5	2,339650
8,083500	0,5	2,381500
8,091833	0,5	2,401600
8,100167	0,5	2,402800
8,108500	0,5	2,393000
8,116833	0,5	2,362300
8,125167	0,5	2,337100
8,133500	0,5	2,306750
8,141833	0,5	2,276350
8,150167	0,5	2,252300
8,158500	0,5	2,235100
8,166833	0,5	2,219350
8,175167	0,5	2,209650
8,183500	0,5	2,210050
8,191833	0,5	2,222600
8,200167	0,5	2,258200
8,208500	0,5	2,338350
8,216833	0,5	2,446200
8,225167	0,5	2,557400
8,233500	0,5	2,641650
8,241833	0,5	2,675700
8,250167	0,5	2,666900
8,258500	0,5	2,631500
8,266833	0,5	2,574550
8,275167	0,5	2,510200
8,283500	0,5	2,430000
8,291833	0,5	2,353900
8,300167	0,5	2,276350
8,308500	0,5	2,219150
8,316833	0,5	2,172200
8,325167	0,5	2,153800
8,333500	0,5	2,147700
8,341833	0,5	2,145400
8,350167	0,5	2,142200
8,358500	0,5	2,145050
8,366833	0,5	2,134400
8,375167	0,5	2,099200
8,383500	0,5	2,056050
8,391833	0,5	2,006200
8,400167	0,5	1,967700
8,408500	0,5	1,941900
8,416833	0,5	1,928400
8,425167	0,5	1,923750
8,433500	0,5	1,927650
8,441833	0,5	1,927000
8,450167	0,5	1,926300
8,458500	0,5	1,914400
8,466833	0,5	1,896400
8,475167	0,5	1,879050
8,483500	0,5	1,853650
8,491833	0,5	1,835000
8,500167	0,5	1,824750
8,508500	0,5	1,822800
8,516833	0,5	1,825100
8,525167	0,5	1,826550
8,533500	0,5	1,831400
8,541833	0,5	1,832150
8,550167	0,5	1,832450
8,558500	0,5	1,832100
8,566833	0,5	1,819300
8,575167	0,5	1,813800
8,583500	0,5	1,802550
8,591833	0,5	1,794200
8,600167	0,5	1,789750
8,608500	0,5	1,790350
8,616833	0,5	1,792200
8,625167	0,5	1,800100
8,633500	0,5	1,805750
8,641833	0,5	1,819050
8,650167	0,5	1,834250
8,658500	0,5	1,855650
8,666833	0,5	1,881500
8,675167	0,5	1,902800
8,683500	0,5	1,924050
8,691833	0,5	1,957350
8,700167	0,5	1,986900
8,708500	0,5	2,012650
8,716833	0,5	2,032550
8,725167	0,5	2,048750
8,733500	0,5	2,047300
8,741833	0,5	2,037650
8,750167	0,5	2,019250
8,758500	0,5	1,991750
8,766833	0,5	1,976600
8,775167	0,5	1,953450
8,783500	0,5	1,945250
8,791833	0,5	1,944300
8,800167	0,5	1,956750
8,808500	0,5	1,983900
8,816833	0,5	2,003450
8,825167	0,5	2,029250
8,833500	0,5	2,055100
8,841833	0,5	2,084050
8,850167	0,5	2,109250
8,858500	0,5	2,131650
8,866833	0,5	2,154100
8,875167	0,5	2,166000
8,883500	0,5	2,186250
8,891833	0,5	2,202000
8,900167	0,5	2,231400
8,908500	0,5	2,278350
8,916833	0,5	2,366450
8,925167	0,5	2,495650
8,933500	0,5	2,679350
8,941833	0,5	2,946500
8,950167	0,5	3,296150
8,958500	0,5	3,712500
8,966833	0,5	4,145950
8,975167	0,5	4,521750
8,983500	0,5	4,763350
8,991833	0,5	4,804900
9,000167	0,5	4,633200
9,008500	0,5	4,301250
9,016833	0,5	3,871600
9,025167	0,5	3,422550
9,033500	0,5	3,019600
9,041833	0,5	2,707450
9,050167	0,5	2,473300
9,058500	0,5	2,306550
9,066833	0,5	2,194050
9,075167	0,5	2,115000
9,083500	0,5	2,063650
9,091833	0,5	2,030950
9,100167	0,5	2,015800
9,108500	0,5	2,021300
9,116833	0,5	2,038550
9,125167	0,5	2,059800
9,133500	0,5	2,083950
9,141833	0,5	2,093200
9,150167	0,5	2,094800
9,158500	0,5	2,081300
9,166833	0,5	2,057300
9,175167	0,5	2,040800
9,183500	0,5	2,032550
9,191833	0,5	2,034950
9,200167	0,5	2,048700
9,208500	0,5	2,046250
9,216833	0,5	2,042150
9,225167	0,5	2,031250
9,233500	0,5	2,012400
9,241833	0,5	1,981150
9,250167	0,5	1,948400
9,258500	0,5	1,928550
9,266833	0,5	1,901850
9,275167	0,5	1,872150
9,283500	0,5	1,852450
9,291833	0,5	1,831350
9,300167	0,5	1,811950
9,308500	0,5	1,800400
9,316833	0,5	1,786250
9,325167	0,5	1,769650
9,333500	0,5	1,759400
9,341833	0,5	1,749700
9,350167	0,5	1,743400
9,358500	0,5	1,737500
9,366833	0,5	1,727450
9,375167	0,5	1,720050
9,383500	0,5	1,711100
9,391833	0,5	1,707200
9,400167	0,5	1,706650
9,408500	0,5	1,704100
9,416833	0,5	1,699500
9,425167	0,5	1,698500
9,433500	0,5	1,692050
9,441833	0,5	1,691100
9,450167	0,5	1,685150
9,458500	0,5	1,676700
9,466833	0,5	1,673400
9,475167	0,5	1,666050
9,483500	0,5	1,663850
9,491833	0,5	1,659550
9,500167	0,5	1,648250
9,508500	0,5	1,646900
9,516833	0,5	1,639100
9,525167	0,5	1,638550
9,533500	0,5	1,640650
9,541833	0,5	1,639650
9,550167	0,5	1,646400
9,558500	0,5	1,645650
9,566833	0,5	1,636650
9,575167	0,5	1,629450
9,583500	0,5	1,614200
9,591833	0,5	1,606400
9,600167	0,5	1,598550
9,608500	0,5	1,594050
9,616833	0,5	1,593300
9,625167	0,5	1,582750
9,633500	0,5	1,589350
9,641833	0,5	1,587500
9,650167	0,5	1,593400
9,658500	0,5	1,601700
9,666833	0,5	1,596650
9,675167	0,5	1,595200
9,683500	0,5	1,588550
9,691833	0,5	1,588950
9,700167	0,5	1,594250
9,708500	0,5	1,604350
9,716833	0,5	1,616900
9,725167	0,5	1,634350
9,733500	0,5	1,656450
9,741833	0,5	1,683150
9,750167	0,5	1,705750
9,758500	0,5	1,724200
9,766833	0,5	1,748750
9,775167	0,5	1,754800
9,783500	0,5	1,756450
9,791833	0,5	1,743600
9,800167	0,5	1,730000
9,808500	0,5	1,709250
9,816833	0,5	1,683350
9,825167	0,5	1,655800
9,833500	0,5	1,641950
9,841833	0,5	1,627250
9,850167	0,5	1,621450
9,858500	0,5	1,618050
9,866833	0,5	1,617500
9,875167	0,5	1,615250
9,883500	0,5	1,606250
9,891833	0,5	1,604050
9,900167	0,5	1,598550
9,908500	0,5	1,595850
9,916833	0,5	1,599250
9,925167	0,5	1,598500
9,933500	0,5	1,603700
9,941833	0,5	1,610450
9,950167	0,5	1,619300
9,958500	0,5	1,633750
9,966833	0,5	1,648350
9,975167	0,5	1,666050
9,983500	0,5	1,681600
9,991833	0,5	1,702150
10,000167	0,5	1,712350
10,008500	0,5	1,726650
10,016833	0,5	1,731850
10,025167	0,5	1,743800
10,033500	0,5	1,751300
10,041833	0,5	1,752150
10,050167	0,5	1,759700
10,058500	0,5	1,767150
10,066833	0,5	1,771550
10,075167	0,5	1,783550
10,083500	0,5	1,795100
10,091833	0,5	1,806600
10,100167	0,5	1,821950
10,108500	0,5	1,830700
10,116833	0,5	1,833700
10,125167	0,5	1,823450
10,133500	0,5	1,808600
10,141833	0,5	1,795850
10,150167	0,5	1,778150
10,158500	0,5	1,751500
10,166833	0,5	1,731450
10,175167	0,5	1,709950
10,183500	0,5	1,698350
10,191833	0,5	1,684500
10,200167	0,5	1,675200
10,208500	0,5	1,671700
10,216833	0,5	1,664200
10,225167	0,5	1,658050
10,233500	0,5	1,652000
10,241833	0,5	1,650650
10,250167	0,5	1,655800
10,258500	0,5	1,649650
10,266833	0,5	1,652000
10,275167	0,5	1,656550
10,283500	0,5	1,658750
10,291833	0,5	1,665050
10,300167	0,5	1,667800
10,308500	0,5	1,673100
10,316833	0,5	1,677000
10,325167	0,5	1,684150
10,333500	0,5	1,690600
10,341833	0,5	1,695500
10,350167	0,5	1,708000
10,358500	0,5	1,715750
10,366833	0,5	1,731650
10,375167	0,5	1,754050
10,383500	0,5	1,781850
10,391833	0,5	1,817800
10,400167	0,5	1,849800
10,408500	0,5	1,872750
10,416833	0,5	1,881000
10,425167	0,5	1,879400
10,433500	0,5	1,866400
10,441833	0,5	1,848450
10,450167	0,5	1,821550
10,458500	0,5	1,796450
10,466833	0,5	1,774750
10,475167	0,5	1,755700
10,483500	0,5	1,731050
10,491833	0,5	1,708350
10,500167	0,5	1,677150
10,508500	0,5	1,651300
10,516833	0,5	1,618000
10,525167	0,5	1,599750
10,533500	0,5	1,580550
10,541833	0,5	1,580750
10,550167	0,5	1,586850
10,558500	0,5	1,598600
10,566833	0,5	1,607900
10,575167	0,5	1,629950
10,583500	0,5	1,642350
10,591833	0,5	1,646200
10,600167	0,5	1,639750
10,608500	0,5	1,604300
10,616833	0,5	1,558700
10,625167	0,5	1,501850
10,633500	0,5	1,448150
10,641833	0,5	1,402150
10,650167	0,5	1,368300
10,658500	0,5	1,342500
10,666833	0,5	1,338950
10,675167	0,5	1,337700
10,683500	0,5	1,345000
10,691833	0,5	1,363750
10,700167	0,5	1,391100
10,708500	0,5	1,406150
10,716833	0,5	1,429050
10,725167	0,5	1,440100
10,733500	0,5	1,462000
10,741833	0,5	1,474650
10,750167	0,5	1,483700
10,758500	0,5	1,479700
10,766833	0,5	1,478000
10,775167	0,5	1,466450
10,783500	0,5	1,451900
10,791833	0,5	1,450700
10,800167	0,5	1,441950
10,808500	0,5	1,436050
10,816833	0,5	1,436300
10,825167	0,5	1,427500
10,833500	0,5	1,427550
10,841833	0,5	1,428700
10,850167	0,5	1,422650
10,858500	0,5	1,416250
10,866833	0,5	1,410500
10,875167	0,5	1,414900
10,883500	0,5	1,415550
10,891833	0,5	1,422200
10,900167	0,5	1,419600
10,908500	0,5	1,425550
10,916833	0,5	1,429400
10,925167	0,5	1,435000
10,933500	0,5	1,441800
10,941833	0,5	1,442650
10,950167	0,5	1,447500
10,958500	0,5	1,440400
10,966833	0,5	1,454150
10,975167	0,5	1,445450
10,983500	0,5	1,451650
10,991833	0,5	1,455300
11,000167	0,5	1,453000
11,008500	0,5	1,451400
11,016833	0,5	1,460150
11,025167	0,5	1,462850
11,033500	0,5	1,473250
11,041833	0,5	1,478750
11,050167	0,5	1,480800
11,058500	0,5	1,485000
11,066833	0,5	1,488700
11,075167	0,5	1,494800
11,083500	0,5	1,500700
11,091833	0,5	1,501950
11,100167	0,5	1,506050
11,108500	0,5	1,506900
11,116833	0,5	1,507150
11,125167	0,5	1,491550
11,133500	0,5	1,490550
11,141833	0,5	1,481300
11,150167	0,5	1,470100
11,158500	0,5	1,451900
11,166833	0,5	1,432650
11,175167	0,5	1,437150
11,183500	0,5	1,431450
11,191833	0,5	1,430550
11,200167	0,5	1,431250
11,208500	0,5	1,438250
11,216833	0,5	1,442950
11,225167	0,5	1,452200
11,233500	0,5	1,459150
11,241833	0,5	1,475750
11,250167	0,5	1,500500
11,258500	0,5	1,542000
11,266833	0,5	1,592900
11,275167	0,5	1,663700
11,283500	0,5	1,749500
11,291833	0,5	1,825100
11,300167	0,5	1,885350
11,308500	0,5	1,915000
11,316833	0,5	1,915400
11,325167	0,5	1,887600
11,333500	0,5	1,840850
11,341833	0,5	1,772250
11,350167	0,5	1,713400
11,358500	0,5	1,654750
11,366833	0,5	1,616550
11,375167	0,5	1,587350
11,383500	0,5	1,570700
11,391833	0,5	1,551300
11,400167	0,5	1,535800
11,408500	0,5	1,524200
11,416833	0,5	1,510300
11,425167	0,5	1,503150
11,433500	0,5	1,499750
11,441833	0,5	1,492250
11,450167	0,5	1,487900
11,458500	0,5	1,484650
11,466833	0,5	1,496350
11,475167	0,5	1,514550
11,483500	0,5	1,532450
11,491833	0,5	1,561400
11,500167	0,5	1,598150
11,508500	0,5	1,650800
11,516833	0,5	1,701600
11,525167	0,5	1,753750
11,533500	0,5	1,789200
11,541833	0,5	1,818950
11,550167	0,5	1,827850
11,558500	0,5	1,814500
11,566833	0,5	1,781350
11,575167	0,5	1,754000
11,583500	0,5	1,712500
11,591833	0,5	1,668200
11,600167	0,5	1,632350
11,608500	0,5	1,597500
11,616833	0,5	1,567850
11,625167	0,5	1,539300
11,633500	0,5	1,511550
11,641833	0,5	1,485550
11,650167	0,5	1,461500
11,658500	0,5	1,443950
11,666833	0,5	1,428000
11,675167	0,5	1,417000
11,683500	0,5	1,407300
11,691833	0,5	1,397950
11,700167	0,5	1,399350
11,708500	0,5	1,388300
11,716833	0,5	1,392450
11,725167	0,5	1,392950
11,733500	0,5	1,393000
11,741833	0,5	1,399650
11,750167	0,5	1,395050
11,758500	0,5	1,393500
11,766833	0,5	1,397500
11,775167	0,5	1,396850
11,783500	0,5	1,392000
11,791833	0,5	1,382750
11,800167	0,5	1,377150
11,808500	0,5	1,366150
11,816833	0,5	1,360100
11,825167	0,5	1,351750
11,833500	0,5	1,349900
11,841833	0,5	1,349300
11,850167	0,5	1,351250
11,858500	0,5	1,349450
11,866833	0,5	1,355150
11,875167	0,5	1,362700
11,883500	0,5	1,364650
11,891833	0,5	1,372600
11,900167	0,5	1,368900
11,908500	0,5	1,388100
11,916833	0,5	1,397100
11,925167	0,5	1,414050
11,933500	0,5	1,417450
11,941833	0,5	1,429350
11,950167	0,5	1,436100
11,958500	0,5	1,444450
11,966833	0,5	1,450050
11,975167	0,5	1,460850
11,983500	0,5	1,472800
11,991833	0,5	1,495000
12,000167	0,5	1,523550
12,008500	0,5	1,542850
12,016833	0,5	1,578050
12,025167	0,5	1,598950
12,033500	0,5	1,609300
12,041833	0,5	1,609750
12,050167	0,5	1,604750
12,058500	0,5	1,597500
12,066833	0,5	1,583600
12,075167	0,5	1,562450
12,083500	0,5	1,549100
12,091833	0,5	1,542800
12,100167	0,5	1,535550
12,108500	0,5	1,528150
12,116833	0,5	1,531250
12,125167	0,5	1,526900
12,133500	0,5	1,528650
12,141833	0,5	1,536000
12,150167	0,5	1,542250
12,158500	0,5	1,552200
12,166833	0,5	1,572750
12,175167	0,5	1,589700
12,183500	0,5	1,610850
12,191833	0,5	1,631500
12,200167	0,5	1,654200
12,208500	0,5	1,707600
12,216833	0,5	1,763300
12,225167	0,5	1,830950
12,233500	0,5	1,911500
12,241833	0,5	2,013150
12,250167	0,5	2,116400
12,258500	0,5	2,208700
12,266833	0,5	2,281750
12,275167	0,5	2,329800
12,283500	0,5	2,351400
12,291833	0,5	2,351700
12,300167	0,5	2,323150
12,308500	0,5	2,284450
12,316833	0,5	2,238450
12,325167	0,5	2,189550
12,333500	0,5	2,135550
12,341833	0,5	2,085200
12,350167	0,5	2,047200
12,358500	0,5	2,025650
12,366833	0,5	2,014000
12,375167	0,5	2,015150
12,383500	0,5	2,017150
12,391833	0,5	2,024350
12,400167	0,5	2,027100
12,408500	0,5	2,016650
12,416833	0,5	1,999200
12,425167	0,5	1,971150
12,433500	0,5	1,944500
12,441833	0,5	1,906750
12,450167	0,5	1,876450
12,458500	0,5	1,840250
12,466833	0,5	1,812300
12,475167	0,5	1,772550
12,483500	0,5	1,736850
12,491833	0,5	1,700350
12,500167	0,5	1,676050
12,508500	0,5	1,648350
12,516833	0,5	1,622350
12,525167	0,5	1,591900
12,533500	0,5	1,559600
12,541833	0,5	1,525500
12,550167	0,5	1,500450
12,558500	0,5	1,476250
12,566833	0,5	1,450250
12,575167	0,5	1,427850
12,583500	0,5	1,408150
12,591833	0,5	1,389250
12,600167	0,5	1,372450
12,608500	0,5	1,367650
12,616833	0,5	1,358350
12,625167	0,5	1,342000
12,633500	0,5	1,320900
12,641833	0,5	1,310400
12,650167	0,5	1,303150
12,658500	0,5	1,298050
12,666833	0,5	1,292200
12,675167	0,5	1,290400
12,683500	0,5	1,282250
12,691833	0,5	1,273700
12,700167	0,5	1,277100
12,708500	0,5	1,283250
12,716833	0,5	1,284850
12,725167	0,5	1,284250
12,733500	0,5	1,285500
12,741833	0,5	1,273200
12,750167	0,5	1,278150
12,758500	0,5	1,266400
12,766833	0,5	1,250900
12,775167	0,5	1,236350
12,783500	0,5	1,217000
12,791833	0,5	1,207750
12,800167	0,5	1,203300
12,808500	0,5	1,195550
12,816833	0,5	1,195200
12,825167	0,5	1,194550
12,833500	0,5	1,213750
12,841833	0,5	1,228450
12,850167	0,5	1,232250
12,858500	0,5	1,227900
12,866833	0,5	1,212150
12,875167	0,5	1,209700
12,883500	0,5	1,185400
12,891833	0,5	1,124750
12,900167	0,5	1,073750
12,908500	0,5	1,015000
12,916833	0,5	0,939900
12,925167	0,5	0,820200
12,933500	0,5	0,658550
12,941833	0,5	0,417250
12,950167	0,5	0,023950
12,958500	0,5	-0,395850
12,966833	0,5	-0,716350
12,975167	0,5	-0,987700
12,983500	0,5	-1,261300
12,991833	0,5	-1,454400
13,000167	0,5	-1,582300
13,008500	0,5	-1,687400
13,016833	0,5	-1,768000
13,025167	0,5	-1,840450
13,033500	0,5	-1,901400
13,041833	0,5	-1,970850
13,050167	0,5	-2,015900
13,058500	0,5	-2,073150
13,066833	0,5	-2,114550
13,075167	0,5	-2,161300
13,083500	0,5	-2,191350
13,091833	0,5	-2,214650
13,100167	0,5	-2,231000
13,108500	0,5	-2,252800
13,116833	0,5	-2,267150
13,125167	0,5	-2,284350
13,133500	0,5	-2,292950
13,141833	0,5	-2,298150
13,150167	0,5	-2,306100
13,158500	0,5	-2,321450
13,166833	0,5	-2,323950
13,175167	0,5	-2,325900
13,183500	0,5	-2,332800
13,191833	0,5	-2,332250
13,200167	0,5	-2,321700
13,208500	0,5	-2,315600
13,216833	0,5	-2,308750
13,225167	0,5	-2,290550
13,233500	0,5	-2,268550
13,241833	0,5	-2,222250
13,250167	0,5	-2,183050
13,258500	0,5	-2,144300
13,266833	0,5	-2,107850
13,275167	0,5	-2,067050
13,283500	0,5	-2,036700
13,291833	0,5	-2,010000
13,300167	0,5	-1,997950
13,308500	0,5	-1,988350
13,316833	0,5	-1,984800
13,325167	0,5	-1,987550
13,333500	0,5	-2,008800
13,341833	0,5	-2,017700
13,350167	0,5	-2,033950
13,358500	0,5	-2,044900
13,366833	0,5	-2,061300
13,375167	0,5	-2,067400
13,383500	0,5	-2,057550
13,391833	0,5	-2,044800
13,400167	0,5	-2,025500
13,408500	0,5	-2,005600
13,416833	0,5	-1,983700
13,425167	0,5	-1,967500
13,433500	0,5	-1,943800
13,441833	0,5	-1,919300
13,450167	0,5	-1,900300
13,458500	0,5	-1,886100
13,466833	0,5	-1,866200
13,475167	0,5	-1,866600
13,483500	0,5	-1,860550
13,491833	0,5	-1,859500
13,500167	0,5	-1,867400
13,508500	0,5	-1,880350
13,516833	0,5	-1,904750
13,525167	0,5	-1,918700
13,533500	0,5	-1,934100
13,541833	0,5	-1,934900
13,550167	0,5	-1,933700
13,558500	0,5	-1,929250
13,566833	0,5	-1,924700
13,575167	0,5	-1,917300
13,583500	0,5	-1,911050
13,591833	0,5	-1,906350
13,600167	0,5	-1,896500
13,608500	0,5	-1,883500
13,616833	0,5	-1,874650
13,625167	0,5	-1,869850
13,633500	0,5	-1,860000
13,641833	0,5	-1,841750
13,650167	0,5	-1,830050
13,658500	0,5	-1,814500
13,666833	0,5	-1,810900
13,675167	0,5	-1,790900
13,683500	0,5	-1,766150
13,691833	0,5	-1,744700
13,700167	0,5	-1,727600
13,708500	0,5	-1,705800
13,716833	0,5	-1,683950
13,725167	0,5	-1,657900
13,733500	0,5	-1,637100
13,741833	0,5	-1,612950
13,750167	0,5	-1,593300
13,758500	0,5	-1,574950
13,766833	0,5	-1,549450
13,775167	0,5	-1,548250
13,783500	0,5	-1,525450
13,791833	0,5	-1,508700
13,800167	0,5	-1,498150
13,808500	0,5	-1,491050
13,816833	0,5	-1,482200
13,825167	0,5	-1,461150
13,833500	0,5	-1,433300
13,841833	0,5	-1,416900
13,850167	0,5	-1,387300
13,858500	0,5	-1,355050
13,866833	0,5	-1,323000
13,875167	0,5	-1,292350
13,883500	0,5	-1,259200
13,891833	0,5	-1,226650
13,900167	0,5	-1,196300
13,908500	0,5	-1,160800
13,916833	0,5	-1,137250
13,925167	0,5	-1,121700
13,933500	0,5	-1,091700
13,941833	0,5	-1,067000
13,950167	0,5	-1,058450
13,958500	0,5	-1,042750
13,966833	0,5	-1,030900
13,975167	0,5	-0,995700
13,983500	0,5	-0,974700
13,991833	0,5	-0,942050
14,000167	0,5	-0,914950
14,008500	0,5	-0,884250
14,016833	0,5	-0,857050
14,025167	0,5	-0,824050
14,033500	0,5	-0,783700
14,041833	0,5	-0,749950
14,050167	0,5	-0,703700
14,058500	0,5	-0,646050
14,066833	0,5	-0,591200
14,075167	0,5	-0,510200
14,083500	0,5	-0,419100
14,091833	0,5	-0,323000
14,100167	0,5	-0,233150
14,108500	0,5	-0,149150
14,116833	0,5	-0,061000
14,125167	0,5	0,011600
14,133500	0,5	0,068300
14,141833	0,5	0,102050
14,150167	0,5	0,127300
14,158500	0,5	0,125000
14,166833	0,5	0,130700
14,175167	0,5	0,120950
14,183500	0,5	0,130750
14,191833	0,5	0,142250
14,200167	0,5	0,172550
14,208500	0,5	0,231400
14,216833	0,5	0,293950
14,225167	0,5	0,381100
14,233500	0,5	0,461400
14,241833	0,5	0,524100
14,250167	0,5	0,549550
14,258500	0,5	0,556150
14,266833	0,5	0,549600
14,275167	0,5	0,542550
14,283500	0,5	0,512650
14,291833	0,5	0,489050
14,300167	0,5	0,454050
14,308500	0,5	0,439900
14,316833	0,5	0,424800
14,325167	0,5	0,423350
14,333500	0,5	0,412100
14,341833	0,5	0,400300
14,350167	0,5	0,399500
14,358500	0,5	0,396350
14,366833	0,5	0,385200
14,375167	0,5	0,395650
14,383500	0,5	0,390650
14,391833	0,5	0,391900
14,400167	0,5	0,373500
14,408500	0,5	0,370400
14,416833	0,5	0,380200
14,425167	0,5	0,386600
14,433500	0,5	0,391750
14,441833	0,5	0,392200
14,450167	0,5	0,393600
14,458500	0,5	0,401350
14,466833	0,5	0,416750
14,475167	0,5	0,437900
14,483500	0,5	0,459600
14,491833	0,5	0,475550
14,500167	0,5	0,489950
14,508500	0,5	0,471950
14,516833	0,5	0,469100
14,525167	0,5	0,462750
14,533500	0,5	0,444450
14,541833	0,5	0,418250
14,550167	0,5	0,386800
14,558500	0,5	0,373050
14,566833	0,5	0,355900
14,575167	0,5	0,351100
14,583500	0,5	0,345850
14,591833	0,5	0,340250
14,600167	0,5	0,339300
14,608500	0,5	0,336800
14,616833	0,5	0,340300
14,625167	0,5	0,338650
14,633500	0,5	0,339450
14,641833	0,5	0,348250
14,650167	0,5	0,355450
14,658500	0,5	0,353450
14,666833	0,5	0,372250
14,675167	0,5	0,409550
14,683500	0,5	0,460950
14,691833	0,5	0,545550
14,700167	0,5	0,641650
14,708500	0,5	0,762500
14,716833	0,5	0,864400
14,725167	0,5	0,916500
14,733500	0,5	0,914800
14,741833	0,5	0,873400
14,750167	0,5	0,796100
14,758500	0,5	0,729650
14,766833	0,5	0,677200
14,775167	0,5	0,650800
14,783500	0,5	0,666150
14,791833	0,5	0,716300
14,800167	0,5	0,777000
14,808500	0,5	0,824900
14,816833	0,5	0,858850
14,825167	0,5	0,851700
14,833500	0,5	0,803550
14,841833	0,5	0,719000
14,850167	0,5	0,646950
14,858500	0,5	0,594900
14,866833	0,5	0,548000
14,875167	0,5	0,499700
14,883500	0,5	0,472250
14,891833	0,5	0,448200
14,900167	0,5	0,436100
14,908500	0,5	0,425200
14,916833	0,5	0,416750
14,925167	0,5	0,416750
14,933500	0,5	0,412950
14,941833	0,5	0,435050
14,950167	0,5	0,422800
14,958500	0,5	0,442700
14,966833	0,5	0,451400
14,975167	0,5	0,446350
14,983500	0,5	0,428250
14,991833	0,5	0,405250
15,000167	0,5	0,400000
15,008500	0,5	0,401200
15,016833	0,5	0,388600
15,025167	0,5	0,382600
15,033500	0,5	0,372000
15,041833	0,5	0,353600
15,050167	0,5	0,328850
15,058500	0,5	0,311250
15,066833	0,5	0,282900
15,075167	0,5	0,261850
15,083500	0,5	0,256750
15,091833	0,5	0,247500
15,100167	0,5	0,219950
15,108500	0,5	0,226600
15,116833	0,5	0,215850
15,125167	0,5	0,199800
15,133500	0,5	0,187850
15,141833	0,5	0,165600
15,150167	0,5	0,168350
15,158500	0,5	0,176750
15,166833	0,5	0,189750
15,175167	0,5	0,211800
15,183500	0,5	0,263450
15,191833	0,5	0,324000
15,200167	0,5	0,431000
15,208500	0,5	0,558250
15,216833	0,5	0,679850
15,225167	0,5	0,773200
15,233500	0,5	0,812550
15,241833	0,5	0,783350
15,250167	0,5	0,721900
15,258500	0,5	0,670100
15,266833	0,5	0,618100
15,275167	0,5	0,607050
15,283500	0,5	0,626450
15,291833	0,5	0,661050
15,300167	0,5	0,706700
15,308500	0,5	0,739500
15,316833	0,5	0,710500
15,325167	0,5	0,667350
15,333500	0,5	0,593700
15,341833	0,5	0,526550
15,350167	0,5	0,469550
15,358500	0,5	0,429250
15,366833	0,5	0,401100
15,375167	0,5	0,395700
15,383500	0,5	0,395850
15,391833	0,5	0,386800
15,400167	0,5	0,376700
15,408500	0,5	0,382400
15,416833	0,5	0,367700
15,425167	0,5	0,351750
15,433500	0,5	0,330850
15,441833	0,5	0,318550
15,450167	0,5	0,327350
15,458500	0,5	0,326450
15,466833	0,5	0,329450
15,475167	0,5	0,329550
15,483500	0,5	0,324050
15,491833	0,5	0,303200
15,500167	0,5	0,283850
15,508500	0,5	0,261850
15,516833	0,5	0,237850
15,525167	0,5	0,227600
15,533500	0,5	0,198400
15,541833	0,5	0,175350
15,550167	0,5	0,166350
15,558500	0,5	0,158150
15,566833	0,5	0,146200
15,575167	0,5	0,124600
15,583500	0,5	0,101050
15,591833	0,5	0,098400
15,600167	0,5	0,096550
15,608500	0,5	0,098750
15,616833	0,5	0,103050
15,625167	0,5	0,118600
15,633500	0,5	0,142250
15,641833	0,5	0,182200
15,650167	0,5	0,250050
15,658500	0,5	0,357750
15,666833	0,5	0,475850
15,675167	0,5	0,607250
15,683500	0,5	0,690600
15,691833	0,5	0,735350
15,700167	0,5	0,734250
15,708500	0,5	0,695400
15,716833	0,5	0,649200
15,725167	0,5	0,612550
15,733500	0,5	0,619000
15,741833	0,5	0,647550
15,750167	0,5	0,671550
15,758500	0,5	0,664650
15,766833	0,5	0,625600
15,775167	0,5	0,565850
15,783500	0,5	0,491750
15,791833	0,5	0,417100
15,800167	0,5	0,356750
15,808500	0,5	0,293350
15,816833	0,5	0,253400
15,825167	0,5	0,231800
15,833500	0,5	0,191050
15,841833	0,5	0,196300
15,850167	0,5	0,198950
15,858500	0,5	0,202950
15,866833	0,5	0,204300
15,875167	0,5	0,189450
15,883500	0,5	0,197400
15,891833	0,5	0,202300
15,900167	0,5	0,191000
15,908500	0,5	0,165550
15,916833	0,5	0,143450
15,925167	0,5	0,115800
15,933500	0,5	0,096550
15,941833	0,5	0,077400
15,950167	0,5	0,051950
15,958500	0,5	0,032250
15,966833	0,5	0,019750
15,975167	0,5	0,009050
15,983500	0,5	-0,022200
15,991833	0,5	-0,011050
16,000167	0,5	-0,016750
16,008500	0,5	-0,027100
16,016833	0,5	-0,042800
16,025167	0,5	-0,059550
16,033500	0,5	-0,039000
16,041833	0,5	-0,008900
16,050167	0,5	0,039300
16,058500	0,5	0,126800
16,066833	0,5	0,242150
16,075167	0,5	0,380650
16,083500	0,5	0,504250
16,091833	0,5	0,601750
16,100167	0,5	0,634000
16,108500	0,5	0,631500
16,116833	0,5	0,628900
16,125167	0,5	0,607700
16,133500	0,5	0,610000
16,141833	0,5	0,634350
16,150167	0,5	0,620750
16,158500	0,5	0,568050
16,166833	0,5	0,490700
16,175167	0,5	0,389450
16,183500	0,5	0,333800
16,191833	0,5	0,266750
16,200167	0,5	0,220450
16,208500	0,5	0,185050
16,216833	0,5	0,173750
16,225167	0,5	0,156400
16,233500	0,5	0,159550
16,241833	0,5	0,170250
16,250167	0,5	0,171550
16,258500	0,5	0,178350
16,266833	0,5	0,190250
16,275167	0,5	0,168100
16,283500	0,5	0,154950
16,291833	0,5	0,141000
16,300167	0,5	0,111350
16,308500	0,5	0,071050
16,316833	0,5	0,024900
16,325167	0,5	-0,009600
16,333500	0,5	-0,031500
16,341833	0,5	-0,048900
16,350167	0,5	-0,078350
16,358500	0,5	-0,089750
16,366833	0,5	-0,107150
16,375167	0,5	-0,113650
16,383500	0,5	-0,127000
16,391833	0,5	-0,130950
16,400167	0,5	-0,120900
16,408500	0,5	-0,080750
16,416833	0,5	-0,016150
16,425167	0,5	0,078800
16,433500	0,5	0,206650
16,441833	0,5	0,352950
16,450167	0,5	0,470100
16,458500	0,5	0,531150
16,466833	0,5	0,554550
16,475167	0,5	0,550200
16,483500	0,5	0,551250
16,491833	0,5	0,531150
16,500167	0,5	0,514300
16,508500	0,5	0,477700
16,516833	0,5	0,427450
16,525167	0,5	0,368100
16,533500	0,5	0,315200
16,541833	0,5	0,278950
16,550167	0,5	0,262700
16,558500	0,5	0,271650
16,566833	0,5	0,280100
16,575167	0,5	0,292000
16,583500	0,5	0,320600
16,591833	0,5	0,326550
16,600167	0,5	0,323600
16,608500	0,5	0,304100
16,616833	0,5	0,290500
16,625167	0,5	0,291450
16,633500	0,5	0,280900
16,641833	0,5	0,257750
16,650167	0,5	0,250300
16,658500	0,5	0,242300
16,666833	0,5	0,230550
16,675167	0,5	0,221450
16,683500	0,5	0,193250
16,691833	0,5	0,174500
16,700167	0,5	0,148850
16,708500	0,5	0,127200
16,716833	0,5	0,073300
16,725167	0,5	0,073200
16,733500	0,5	0,076350
16,741833	0,5	0,094600
16,750167	0,5	0,149950
16,758500	0,5	0,224600
16,766833	0,5	0,343100
16,775167	0,5	0,438450
16,783500	0,5	0,499150
16,791833	0,5	0,523250
16,800167	0,5	0,522300
16,808500	0,5	0,496000
16,816833	0,5	0,471100
16,825167	0,5	0,426500
16,833500	0,5	0,373850
16,841833	0,5	0,302150
16,850167	0,5	0,246400
16,858500	0,5	0,181850
16,866833	0,5	0,126000
16,875167	0,5	0,107500
16,883500	0,5	0,090900
16,891833	0,5	0,067800
16,900167	0,5	0,046900
16,908500	0,5	0,026950
16,916833	0,5	0,036850
16,925167	0,5	0,027250
16,933500	0,5	0,017950
16,941833	0,5	0,007250
16,950167	0,5	-0,007000
16,958500	0,5	-0,025900
16,966833	0,5	-0,038200
16,975167	0,5	-0,045750
16,983500	0,5	-0,064100
16,991833	0,5	-0,073000
17,000167	0,5	-0,067000
17,008500	0,5	-0,070700
17,016833	0,5	-0,052400
17,025167	0,5	-0,000300
17,033500	0,5	0,054750
17,041833	0,5	0,133750
17,050167	0,5	0,225450
17,058500	0,5	0,369650
17,066833	0,5	0,555750
17,075167	0,5	0,738450
17,083500	0,5	0,913000
17,091833	0,5	1,084150
17,100167	0,5	1,262300
17,108500	0,5	1,438500
17,116833	0,5	1,613950
17,125167	0,5	1,776000
17,133500	0,5	1,918150
17,141833	0,5	2,043550
17,150167	0,5	2,161950
17,158500	0,5	2,228600
17,166833	0,5	2,317050
17,175167	0,5	2,381800
17,183500	0,5	2,436650
17,191833	0,5	2,458350
17,200167	0,5	2,437300
17,208500	0,5	2,400350
17,216833	0,5	2,328750
17,225167	0,5	2,205000
17,233500	0,5	2,046000
17,241833	0,5	1,865700
17,250167	0,5	1,681900
17,258500	0,5	1,482450
17,266833	0,5	1,302000
17,275167	0,5	1,149650
17,283500	0,5	1,025050
17,291833	0,5	0,940900
17,300167	0,5	0,871650
17,308500	0,5	0,828550
17,316833	0,5	0,839200
17,325167	0,5	0,877300
17,333500	0,5	0,927800
17,341833	0,5	0,984950
17,350167	0,5	1,011750
17,358500	0,5	1,041950
17,366833	0,5	1,026800
17,375167	0,5	1,004100
17,383500	0,5	0,968650
17,391833	0,5	0,926100
17,400167	0,5	0,880200
17,408500	0,5	0,838550
17,416833	0,5	0,810950
17,425167	0,5	0,791700
17,433500	0,5	0,796450
17,441833	0,5	0,810300
17,450167	0,5	0,811750
17,458500	0,5	0,815250
17,466833	0,5	0,817150
17,475167	0,5	0,793450
17,483500	0,5	0,764750
17,491833	0,5	0,715800
17,500167	0,5	0,655900
17,508500	0,5	0,598350
17,516833	0,5	0,544300
17,525167	0,5	0,475700
17,533500	0,5	0,411200
17,541833	0,5	0,348700
17,550167	0,5	0,318750
17,558500	0,5	0,299100
17,566833	0,5	0,301650
17,575167	0,5	0,330200
17,583500	0,5	0,379700
17,591833	0,5	0,419850
17,600167	0,5	0,432150
17,608500	0,5	0,439850
17,616833	0,5	0,428850
17,625167	0,5	0,372500
17,633500	0,5	0,309600
17,641833	0,5	0,230300
17,650167	0,5	0,171800
17,658500	0,5	0,132100
17,666833	0,5	0,086700
17,675167	0,5	0,053450
17,683500	0,5	0,020950
17,691833	0,5	0,005200
17,700167	0,5	-0,021100
17,708500	0,5	-0,036350
17,716833	0,5	-0,064650
17,725167	0,5	-0,084600
17,733500	0,5	-0,085950
17,741833	0,5	-0,106850
17,750167	0,5	-0,123200
17,758500	0,5	-0,112100
17,766833	0,5	-0,106550
17,775167	0,5	-0,103600
17,783500	0,5	-0,100500
17,791833	0,5	-0,068350
17,800167	0,5	0,009750
17,808500	0,5	0,064750
17,816833	0,5	0,120250
17,825167	0,5	0,148400
17,833500	0,5	0,165000
17,841833	0,5	0,147900
17,850167	0,5	0,124150
17,858500	0,5	0,079550
17,866833	0,5	0,040900
17,875167	0,5	0,005300
17,883500	0,5	-0,016050
17,891833	0,5	-0,065850
17,900167	0,5	-0,077350
17,908500	0,5	-0,097350
17,916833	0,5	-0,113350
17,925167	0,5	-0,142800
17,933500	0,5	-0,174800
17,941833	0,5	-0,177950
17,950167	0,5	-0,168250
17,958500	0,5	-0,167950
17,966833	0,5	-0,165550
17,975167	0,5	-0,151600
17,983500	0,5	-0,137100
17,991833	0,5	-0,107850
18,000167	0,5	-0,057250
18,008500	0,5	0,001800
18,016833	0,5	0,045200
18,025167	0,5	0,088050
18,033500	0,5	0,108000
18,041833	0,5	0,081050
18,050167	0,5	0,065650
18,058500	0,5	0,036850
18,066833	0,5	-0,002800
18,075167	0,5	-0,039200
18,083500	0,5	-0,094600
18,091833	0,5	-0,107150
18,100167	0,5	-0,118150
18,108500	0,5	-0,130250
18,116833	0,5	-0,141450
18,125167	0,5	-0,145450
18,133500	0,5	-0,150450
18,141833	0,5	-0,152850
18,150167	0,5	-0,153000
18,158500	0,5	-0,159700
18,166833	0,5	-0,150200
18,175167	0,5	-0,123950
18,183500	0,5	-0,084200
18,191833	0,5	-0,050650
18,200167	0,5	0,011450
18,208500	0,5	0,037800
18,216833	0,5	0,048450
18,225167	0,5	0,024700
18,233500	0,5	-0,015150
18,241833	0,5	-0,035900
18,250167	0,5	-0,071650
18,258500	0,5	-0,106800
18,266833	0,5	-0,128650
18,275167	0,5	-0,145850
18,283500	0,5	-0,166850
18,291833	0,5	-0,179000
18,300167	0,5	-0,191650
18,308500	0,5	-0,205350
18,316833	0,5	-0,208550
18,325167	0,5	-0,205650
18,333500	0,5	-0,218600
18,341833	0,5	-0,204000
18,350167	0,5	-0,190500
18,358500	0,5	-0,176950
18,366833	0,5	-0,165900
18,375167	0,5	-0,153950
18,383500	0,5	-0,142150
18,391833	0,5	-0,126200
18,400167	0,5	-0,142600
18,408500	0,5	-0,170700
18,416833	0,5	-0,193450
18,425167	0,5	-0,214000
18,433500	0,5	-0,236850
18,441833	0,5	-0,255000
18,450167	0,5	-0,268250
18,458500	0,5	-0,289200
18,466833	0,5	-0,286050
18,475167	0,5	-0,294250
18,483500	0,5	-0,314000
18,491833	0,5	-0,314550
18,500167	0,5	-0,313600
18,508500	0,5	-0,327000
18,516833	0,5	-0,341250
18,525167	0,5	-0,353000
18,533500	0,5	-0,333500
18,541833	0,5	-0,326300
18,550167	0,5	-0,305850
18,558500	0,5	-0,303850
18,566833	0,5	-0,307250
18,575167	0,5	-0,330350
18,583500	0,5	-0,345300
18,591833	0,5	-0,365200
18,600167	0,5	-0,393400
18,608500	0,5	-0,411850
18,616833	0,5	-0,410300
18,625167	0,5	-0,427150
18,633500	0,5	-0,436100
18,641833	0,5	-0,434950
18,650167	0,5	-0,445600
18,658500	0,5	-0,454100
18,666833	0,5	-0,492400
18,675167	0,5	-0,473850
18,683500	0,5	-0,462350
18,691833	0,5	-0,424400
18,700167	0,5	-0,405100
18,708500	0,5	-0,373150
18,716833	0,5	-0,374750
18,725167	0,5	-0,381250
18,733500	0,5	-0,380950
18,741833	0,5	-0,384550
18,750167	0,5	-0,377500
18,758500	0,5	-0,369650
18,766833	0,5	-0,360450
18,775167	0,5	-0,377650
18,783500	0,5	-0,366050
18,791833	0,5	-0,363000
18,800167	0,5	-0,367050
18,808500	0,5	-0,370050
18,816833	0,5	-0,390300
18,825167	0,5	-0,375150
18,833500	0,5	-0,352650
18,841833	0,5	-0,365550
18,850167	0,5	-0,373750
18,858500	0,5	-0,399350
18,866833	0,5	-0,429150
18,875167	0,5	-0,465050
18,883500	0,5	-0,493000
18,891833	0,5	-0,522100
18,900167	0,5	-0,543200
18,908500	0,5	-0,537200
18,916833	0,5	-0,545800
18,925167	0,5	-0,568200
18,933500	0,5	-0,546100
18,941833	0,5	-0,530600
18,950167	0,5	-0,536300
18,958500	0,5	-0,538450
18,966833	0,5	-0,565200
18,975167	0,5	-0,551950
18,983500	0,5	-0,573000
18,991833	0,5	-0,598150
19,000167	0,5	-0,627500
19,008500	0,5	-0,637650
19,016833	0,5	-0,656250
19,025167	0,5	-0,666150
19,033500	0,5	-0,665650
19,041833	0,5	-0,668350
19,050167	0,5	-0,665500
19,058500	0,5	-0,648600
19,066833	0,5	-0,660150
19,075167	0,5	-0,642150
19,083500	0,5	-0,626150
19,091833	0,5	-0,629000
19,100167	0,5	-0,656700
19,108500	0,5	-0,683400
19,116833	0,5	-0,688700
19,125167	0,5	-0,690950
19,133500	0,5	-0,706850
19,141833	0,5	-0,731700
19,150167	0,5	-0,728650
19,158500	0,5	-0,743950
19,166833	0,5	-0,745200
19,175167	0,5	-0,752250
19,183500	0,5	-0,756200
19,191833	0,5	-0,764850
19,200167	0,5	-0,775050
19,208500	0,5	-0,785450
19,216833	0,5	-0,813350
19,225167	0,5	-0,811800
19,233500	0,5	-0,825050
19,241833	0,5	-0,839050
19,250167	0,5	-0,864700
19,258500	0,5	-0,891250
19,266833	0,5	-0,883800
19,275167	0,5	-0,864700
19,283500	0,5	-0,877700
19,291833	0,5	-0,875800
19,300167	0,5	-0,885800
19,308500	0,5	-0,892300
19,316833	0,5	-0,907700
19,325167	0,5	-0,905100
19,333500	0,5	-0,918600
19,341833	0,5	-0,928050
19,350167	0,5	-0,917550
19,358500	0,5	-0,921450
19,366833	0,5	-0,935350
19,375167	0,5	-0,933250
19,383500	0,5	-0,940200
19,391833	0,5	-0,959400
19,400167	0,5	-0,983500
19,408500	0,5	-1,009700
19,416833	0,5	-1,007350
19,425167	0,5	-1,009850
19,433500	0,5	-1,009700
19,441833	0,5	-1,020700
19,450167	0,5	-1,027600
19,458500	0,5	-1,031800
19,466833	0,5	-1,022400
19,475167	0,5	-1,029250
19,483500	0,5	-1,035350
19,491833	0,5	-1,035000
19,500167	0,5	-1,033700
19,508500	0,5	-1,048450
19,516833	0,5	-1,035150
19,525167	0,5	-1,033950
19,533500	0,5	-1,043950
19,541833	0,5	-1,076400
19,550167	0,5	-1,117750
19,558500	0,5	-1,127700
19,566833	0,5	-1,128700
19,575167	0,5	-1,132550
19,583500	0,5	-1,138400
19,591833	0,5	-1,134950
19,600167	0,5	-1,146700
19,608500	0,5	-1,160200
19,616833	0,5	-1,171700
19,625167	0,5	-1,181500
19,633500	0,5	-1,187350
19,641833	0,5	-1,175000
19,650167	0,5	-1,186600
19,658500	0,5	-1,201000
19,666833	0,5	-1,203250
19,675167	0,5	-1,195850
19,683500	0,5	-1,215750
19,691833	0,5	-1,245050
19,700167	0,5	-1,259950
19,708500	0,5	-1,260950
19,716833	0,5	-1,267250
19,725167	0,5	-1,280500
19,733500	0,5	-1,291850
19,741833	0,5	-1,293100
19,750167	0,5	-1,305450
19,758500	0,5	-1,322300
19,766833	0,5	-1,326000
19,775167	0,5	-1,348100
19,783500	0,5	-1,356000
19,791833	0,5	-1,352050
19,800167	0,5	-1,385550
19,808500	0,5	-1,394850
19,816833	0,5	-1,394400
19,825167	0,5	-1,408300
19,833500	0,5	-1,424400
19,841833	0,5	-1,468600
19,850167	0,5	-1,476850
19,858500	0,5	-1,485050
19,866833	0,5	-1,493850
19,875167	0,5	-1,500850
19,883500	0,5	-1,507750
19,891833	0,5	-1,516950
19,900167	0,5	-1,526100
19,908500	0,5	-1,529550
19,916833	0,5	-1,543800
19,925167	0,5	-1,551250
19,933500	0,5	-1,556350
19,941833	0,5	-1,547300
19,950167	0,5	-1,580350
19,958500	0,5	-1,560450
19,966833	0,5	-1,581950
19,975167	0,5	-1,593250
19,983500	0,5	-1,618900
19,991833	0,5	-1,645550
20,000167	0,5	-1,640750
20,008500	0,5	-1,647550
20,016833	0,5	-1,675650
20,025167	0,5	-1,695850
20,033500	0,5	-1,708100
20,041833	0,5	-1,724600
20,050167	0,5	-1,740750
20,058500	0,5	-1,760750
20,066833	0,5	-1,776750
20,075167	0,5	-1,801650
20,083500	0,5	-1,789250
20,091833	0,5	-1,802300
20,100167	0,5	-1,822400
20,108500	0,5	-1,833850
20,116833	0,5	-1,843350
20,125167	0,5	-1,880100
20,133500	0,5	-1,901450
20,141833	0,5	-1,932300
20,150167	0,5	-1,930050
20,158500	0,5	-1,930350
20,166833	0,5	-1,944550
20,175167	0,5	-1,960300
20,183500	0,5	-1,962250
20,191833	0,5	-1,972250
20,200167	0,5	-1,973500
20,208500	0,5	-1,986500
20,216833	0,5	-1,999800
20,225167	0,5	-1,998500
20,233500	0,5	-1,996450
20,241833	0,5	-2,014050
20,250167	0,5	-2,030200
20,258500	0,5	-2,042250
20,266833	0,5	-2,060400
20,275167	0,5	-2,095300
20,283500	0,5	-2,140450
20,291833	0,5	-2,145850
20,300167	0,5	-2,154350
20,308500	0,5	-2,158150
20,316833	0,5	-2,175700
20,325167	0,5	-2,183350
20,333500	0,5	-2,210200
20,341833	0,5	-2,231350
20,350167	0,5	-2,250550
20,358500	0,5	-2,268350
20,366833	0,5	-2,289850
20,375167	0,5	-2,297650
20,383500	0,5	-2,319150
20,391833	0,5	-2,346200
20,400167	0,5	-2,352150
20,408500	0,5	-2,379900
20,416833	0,5	-2,403900
20,425167	0,5	-2,454050
20,433500	0,5	-2,488850
20,441833	0,5	-2,499900
20,450167	0,5	-2,508550
20,458500	0,5	-2,533950
20,466833	0,5	-2,540400
20,475167	0,5	-2,563150
20,483500	0,5	-2,589050
20,491833	0,5	-2,611350
20,500167	0,5	-2,630450
20,508500	0,5	-2,650550
20,516833	0,5	-2,667150
20,525167	0,5	-2,669600
20,533500	0,5	-2,678750
20,541833	0,5	-2,684200
20,550167	0,5	-2,683150
20,558500	0,5	-2,690450
20,566833	0,5	-2,730450
20,575167	0,5	-2,773950
20,583500	0,5	-2,831200
20,591833	0,5	-2,869200
20,600167	0,5	-2,906000
20,608500	0,5	-2,934750
20,616833	0,5	-2,977400
20,625167	0,5	-3,014750
20,633500	0,5	-3,049300
20,641833	0,5	-3,069300
20,650167	0,5	-3,106350
20,658500	0,5	-3,141900
20,666833	0,5	-3,148400
20,675167	0,5	-3,166550
20,683500	0,5	-3,195400
20,691833	0,5	-3,227450
20,700167	0,5	-3,240150
20,708500	0,5	-3,258250
20,716833	0,5	-3,268650
20,725167	0,5	-3,294200
20,733500	0,5	-3,282400
20,741833	0,5	-3,285850
20,750167	0,5	-3,306200
20,758500	0,5	-3,353450
20,766833	0,5	-3,399850
20,775167	0,5	-3,470850
20,783500	0,5	-3,521750
20,791833	0,5	-3,575150
20,800167	0,5	-3,627850
20,808500	0,5	-3,672250
20,816833	0,5	-3,683250
20,825167	0,5	-3,714400
20,833500	0,5	-3,766800
20,841833	0,5	-3,797750
20,850167	0,5	-3,839850
20,858500	0,5	-3,884500
20,866833	0,5	-3,955500
20,875167	0,5	-3,989650
20,883500	0,5	-4,009400
20,891833	0,5	-4,031300
20,900167	0,5	-4,080100
20,908500	0,5	-4,085100
20,916833	0,5	-4,120550
20,925167	0,5	-4,155900
20,933500	0,5	-4,198550
20,941833	0,5	-4,236300
20,950167	0,5	-4,288800
20,958500	0,5	-4,304850
20,966833	0,5	-4,316500
20,975167	0,5	-4,357000
20,983500	0,5	-4,392750
20,991833	0,5	-4,428950
21,000167	0,5	-4,470250
21,008500	0,5	-4,534150
21,016833	0,5	-4,600600
21,025167	0,5	-4,610400
21,033500	0,5	-4,628250
21,041833	0,5	-4,670450
21,050167	0,5	-4,679650
21,058500	0,5	-4,729650
21,066833	0,5	-4,763550
21,075167	0,5	-4,790700
21,083500	0,5	-4,812400
21,091833	0,5	-4,833550
21,100167	0,5	-4,862200
21,108500	0,5	-4,863100
21,116833	0,5	-4,870600
21,125167	0,5	-4,920450
21,133500	0,5	-4,947250
21,141833	0,5	-4,978350
21,150167	0,5	-5,036300
21,158500	0,5	-5,075600
21,166833	0,5	-5,122550
21,175167	0,5	-5,135550
21,183500	0,5	-5,159700
21,191833	0,5	-5,185600
21,200167	0,5	-5,207700
21,208500	0,5	-5,221650
21,216833	0,5	-5,256300
21,225167	0,5	-5,269200
21,233500	0,5	-5,291500
21,241833	0,5	-5,302650
21,250167	0,5	-5,304400
21,258500	0,5	-5,293400
21,266833	0,5	-5,303000
21,275167	0,5	-5,311050
21,283500	0,5	-5,328150
21,291833	0,5	-5,337650
21,300167	0,5	-5,367500
21,308500	0,5	-5,404250
21,316833	0,5	-5,424150
21,325167	0,5	-5,447400
21,333500	0,5	-5,469600
21,341833	0,5	-5,503600
21,350167	0,5	-5,518400
21,358500	0,5	-5,551150
21,366833	0,5	-5,576150
21,375167	0,5	-5,596200
21,383500	0,5	-5,625700
21,391833	0,5	-5,638250
21,400167	0,5	-5,619950
21,408500	0,5	-5,621300
21,416833	0,5	-5,631800
21,425167	0,5	-5,653350
21,433500	0,5	-5,684900
21,441833	0,5	-5,710550
21,450167	0,5	-5,759550
21,458500	0,5	-5,789750
21,466833	0,5	-5,801200
21,475167	0,5	-5,810550
21,483500	0,5	-5,834850
21,491833	0,5	-5,849700
21,500167	0,5	-5,873550
21,508500	0,5	-5,881150
21,516833	0,5	-5,896650
21,525167	0,5	-5,921650
21,533500	0,5	-5,943050
21,541833	0,5	-5,947300
21,550167	0,5	-5,928350
21,558500	0,5	-5,935300
21,566833	0,5	-5,955000
21,575167	0,5	-5,980800
21,583500	0,5	-5,998600
21,591833	0,5	-6,032750
21,600167	0,5	-6,066600
21,608500	0,5	-6,092600
21,616833	0,5	-6,082500
21,625167	0,5	-6,095650
21,633500	0,5	-6,100700
21,641833	0,5	-6,111150
21,650167	0,5	-6,111050
21,658500	0,5	-6,102950
21,666833	0,5	-6,099850
21,675167	0,5	-6,098600
21,683500	0,5	-6,100350
21,691833	0,5	-6,086400
21,700167	0,5	-6,086250
21,708500	0,5	-6,117750
21,716833	0,5	-6,148450
21,725167	0,5	-6,170250
21,733500	0,5	-6,205800
21,741833	0,5	-6,237900
21,750167	0,5	-6,270950
21,758500	0,5	-6,268400
21,766833	0,5	-6,285250
21,775167	0,5	-6,291800
21,783500	0,5	-6,310600
21,791833	0,5	-6,309300
21,800167	0,5	-6,331100
21,808500	0,5	-6,329300
21,816833	0,5	-6,329500
21,825167	0,5	-6,330800
21,833500	0,5	-6,318750
21,841833	0,5	-6,296300
21,850167	0,5	-6,305500
21,858500	0,5	-6,297400
21,866833	0,5	-6,288150
21,875167	0,5	-6,298900
21,883500	0,5	-6,304350
21,891833	0,5	-6,341050
21,900167	0,5	-6,317900
21,908500	0,5	-6,313600
21,916833	0,5	-6,298350
21,925167	0,5	-6,285800
21,933500	0,5	-6,244300
21,941833	0,5	-6,209900
21,950167	0,5	-6,176500
21,958500	0,5	-6,156850
21,966833	0,5	-6,169800
21,975167	0,5	-6,200050
21,983500	0,5	-6,221000
21,991833	0,5	-6,244550
22,000167	0,5	-6,283950
22,008500	0,5	-6,307100
22,016833	0,5	-6,348000
22,025167	0,5	-6,383650
22,033500	0,5	-6,444050
22,041833	0,5	-6,470750
22,050167	0,5	-6,494300
22,058500	0,5	-6,510200
22,066833	0,5	-6,542500
22,075167	0,5	-6,562750
22,083500	0,5	-6,591900
22,091833	0,5	-6,609200
22,100167	0,5	-6,632100
22,108500	0,5	-6,654800
22,116833	0,5	-6,677450
22,125167	0,5	-6,703450
22,133500	0,5	-6,702400
22,141833	0,5	-6,741600
22,150167	0,5	-6,747100
22,158500	0,5	-6,771650
22,166833	0,5	-6,784500
22,175167	0,5	-6,815900
22,183500	0,5	-6,861500
22,191833	0,5	-6,873350
22,200167	0,5	-6,869100
22,208500	0,5	-6,879800
22,216833	0,5	-6,898200
22,225167	0,5	-6,903800
22,233500	0,5	-6,909400
22,241833	0,5	-6,926600
22,250167	0,5	-6,932300
22,258500	0,5	-6,948950
22,266833	0,5	-6,957300
22,275167	0,5	-6,957700
22,283500	0,5	-6,958100
22,291833	0,5	-6,961350
22,300167	0,5	-6,944450
22,308500	0,5	-6,936700
22,316833	0,5	-6,931150
22,325167	0,5	-6,924100
22,333500	0,5	-6,949400
22,341833	0,5	-6,922800
22,350167	0,5	-6,911750
22,358500	0,5	-6,883650
22,366833	0,5	-6,837350
22,375167	0,5	-6,763700
22,383500	0,5	-6,711700
22,391833	0,5	-6,680600
22,400167	0,5	-6,707200
22,408500	0,5	-6,752050
22,416833	0,5	-6,811700
22,425167	0,5	-6,883000
22,433500	0,5	-6,901550
22,441833	0,5	-6,913950
22,450167	0,5	-6,920800
22,458500	0,5	-6,940900
22,466833	0,5	-6,972950
22,475167	0,5	-7,000700
22,483500	0,5	-7,010700
22,491833	0,5	-7,004800
22,500167	0,5	-6,999700
22,508500	0,5	-7,009000
22,516833	0,5	-6,992850
22,525167	0,5	-6,997800
22,533500	0,5	-6,989350
22,541833	0,5	-6,977550
22,550167	0,5	-6,966050
22,558500	0,5	-6,957200
22,566833	0,5	-6,990550
22,575167	0,5	-6,963850
22,583500	0,5	-6,921850
22,591833	0,5	-6,865600
22,600167	0,5	-6,835750
22,608500	0,5	-6,821050
22,616833	0,5	-6,826750
22,625167	0,5	-6,826750
22,633500	0,5	-6,814150
22,641833	0,5	-6,790050
22,650167	0,5	-6,808700
22,658500	0,5	-6,790300
22,666833	0,5	-6,803950
22,675167	0,5	-6,795900
22,683500	0,5	-6,794300
22,691833	0,5	-6,785800
22,700167	0,5	-6,787150
22,708500	0,5	-6,802100
22,716833	0,5	-6,843600
22,725167	0,5	-6,852600
22,733500	0,5	-6,810350
22,741833	0,5	-6,806450
22,750167	0,5	-6,801900
22,758500	0,5	-6,807200
22,766833	0,5	-6,831150
22,775167	0,5	-6,837900
22,783500	0,5	-6,826750
22,791833	0,5	-6,834050
22,800167	0,5	-6,840300
22,808500	0,5	-6,839700
22,816833	0,5	-6,855850
22,825167	0,5	-6,864000
22,833500	0,5	-6,876850
22,841833	0,5	-6,894150
22,850167	0,5	-6,922750
22,858500	0,5	-7,013200
22,866833	0,5	-7,052700
22,875167	0,5	-7,056050
22,883500	0,5	-7,060900
22,891833	0,5	-7,098850
22,900167	0,5	-7,130250
22,908500	0,5	-7,165950
22,916833	0,5	-7,198400
22,925167	0,5	-7,238900
22,933500	0,5	-7,273100
22,941833	0,5	-7,303800
22,950167	0,5	-7,323050
22,958500	0,5	-7,352000
22,966833	0,5	-7,351950
22,975167	0,5	-7,357950
22,983500	0,5	-7,379950
22,991833	0,5	-7,383200
23,000167	0,5	-7,372400
23,008500	0,5	-7,393400
23,016833	0,5	-7,372150
23,025167	0,5	-7,357650
23,033500	0,5	-7,370900
23,041833	0,5	-7,361700
23,050167	0,5	-7,338500
23,058500	0,5	-7,307350
23,066833	0,5	-7,303800
23,075167	0,5	-7,280100
23,083500	0,5	-7,260500
23,091833	0,5	-7,212350
23,100167	0,5	-7,183750
23,108500	0,5	-7,130550
23,116833	0,5	-7,079100
23,125167	0,5	-7,014650
23,133500	0,5	-6,946600
23,141833	0,5	-6,890100
23,150167	0,5	-6,760000
23,158500	0,5	-6,702100
23,166833	0,5	-6,631700
23,175167	0,5	-6,606250
23,183500	0,5	-6,537500
23,191833	0,5	-6,471650
23,200167	0,5	-6,386850
23,208500	0,5	-6,307500
23,216833	0,5	-6,236450
23,225167	0,5	-6,178200
23,233500	0,5	-6,090650
23,241833	0,5	-6,017250
23,250167	0,5	-5,940150
23,258500	0,5	-5,861000
23,266833	0,5	-5,770750
23,275167	0,5	-5,690250
23,283500	0,5	-5,584300
23,291833	0,5	-5,492800
23,300167	0,5	-5,414400
23,308500	0,5	-5,289150
23,316833	0,5	-5,180400
23,325167	0,5	-5,137300
23,333500	0,5	-5,061600
23,341833	0,5	-4,984550
23,350167	0,5	-4,900200
23,358500	0,5	-4,810650
23,366833	0,5	-4,751750
23,375167	0,5	-4,684200
23,383500	0,5	-4,608000
23,391833	0,5	-4,534250
23,400167	0,5	-4,477000
23,408500	0,5	-4,384450
23,416833	0,5	-4,319650
23,425167	0,5	-4,241400
23,433500	0,5	-4,169800
23,441833	0,5	-4,068900
23,450167	0,5	-4,066550
23,458500	0,5	-3,944500
23,466833	0,5	-3,844400
23,475167	0,5	-3,794800
23,483500	0,5	-3,731650
23,491833	0,5	-3,670800
23,500167	0,5	-3,609750
23,508500	0,5	-3,560050
23,516833	0,5	-3,510400
23,525167	0,5	-3,467800
23,533500	0,5	-3,418300
23,541833	0,5	-3,372000
23,550167	0,5	-3,323900
23,558500	0,5	-3,283800
23,566833	0,5	-3,233800
23,575167	0,5	-3,196200
23,583500	0,5	-3,139550
23,591833	0,5	-3,194950
23,600167	0,5	-3,169050
23,608500	0,5	-3,068300
23,616833	0,5	-2,997900
23,625167	0,5	-2,951550
23,633500	0,5	-2,916500
23,641833	0,5	-2,872900
23,650167	0,5	-2,833900
23,658500	0,5	-2,808650
23,666833	0,5	-2,777900
23,675167	0,5	-2,740400
23,683500	0,5	-2,712100
23,691833	0,5	-2,681500
23,700167	0,5	-2,653450
23,708500	0,5	-2,618050
23,716833	0,5	-2,587200
23,725167	0,5	-2,554250
23,733500	0,5	-2,533600
23,741833	0,5	-2,675500
23,750167	0,5	-2,616050
23,758500	0,5	-2,533900
23,766833	0,5	-2,464950
23,775167	0,5	-2,430250
23,783500	0,5	-2,395650
23,791833	0,5	-2,380550
23,800167	0,5	-2,356150
23,808500	0,5	-2,327900
23,816833	0,5	-2,306650
23,825167	0,5	-2,278400
23,833500	0,5	-2,256850
23,841833	0,5	-2,226350
23,850167	0,5	-2,200400
23,858500	0,5	-2,172550
23,866833	0,5	-2,141200
23,875167	0,5	-2,109050
23,883500	0,5	-2,191250
23,891833	0,5	-2,242550
23,900167	0,5	-2,222650
23,908500	0,5	-2,116300
23,916833	0,5	-2,059250
23,925167	0,5	-2,008350
23,933500	0,5	-1,976100
23,941833	0,5	-1,957250
23,950167	0,5	-1,930750
23,958500	0,5	-1,904050
23,966833	0,5	-1,878600
23,975167	0,5	-1,851500
23,983500	0,5	-1,828650
23,991833	0,5	-1,803650
24,000167	0,5	-1,791200
24,008500	0,5	-1,756700
24,016833	0,5	-1,736100
24,025167	0,5	-1,716550
24,033500	0,5	-1,879100
24,041833	0,5	-1,852100
24,050167	0,5	-1,809650
24,058500	0,5	-1,720200
24,066833	0,5	-1,669550
24,075167	0,5	-1,629700
24,083500	0,5	-1,603050
24,091833	0,5	-1,601100
24,100167	0,5	-1,562700
24,108500	0,5	-1,533750
24,116833	0,5	-1,498100
24,125167	0,5	-1,476700
24,133500	0,5	-1,441600
24,141833	0,5	-1,420250
24,150167	0,5	-1,389800
24,158500	0,5	-1,360150
24,166833	0,5	-1,334250
24,175167	0,5	-1,341150
24,183500	0,5	-1,478550
24,191833	0,5	-1,427850
24,200167	0,5	-1,385250
24,208500	0,5	-1,323700
24,216833	0,5	-1,291050
24,225167	0,5	-1,255900
24,233500	0,5	-1,249050
24,241833	0,5	-1,234700
24,250167	0,5	-1,211600
24,258500	0,5	-1,176450
24,266833	0,5	-1,161200
24,275167	0,5	-1,133350
24,283500	0,5	-1,109450
24,291833	0,5	-1,080450
24,300167	0,5	-1,055850
24,308500	0,5	-1,034300
24,316833	0,5	-1,008050
24,325167	0,5	-1,102100
24,333500	0,5	-1,107650
24,341833	0,5	-1,069400
24,350167	0,5	-1,012300
24,358500	0,5	-0,962200
24,366833	0,5	-0,934700
24,375167	0,5	-0,911250
24,383500	0,5	-0,905950
24,391833	0,5	-0,902550
24,400167	0,5	-0,871450
24,408500	0,5	-0,856200
24,416833	0,5	-0,840200
24,425167	0,5	-0,822500
24,433500	0,5	-0,795200
24,441833	0,5	-0,783600
24,450167	0,5	-0,761550
24,458500	0,5	-0,745850
24,466833	0,5	-0,731250
24,475167	0,5	-0,835500
24,483500	0,5	-0,808900
24,491833	0,5	-0,778800
24,500167	0,5	-0,733400
24,508500	0,5	-0,704500
24,516833	0,5	-0,684900
24,525167	0,5	-0,675650
24,533500	0,5	-0,670100
24,541833	0,5	-0,649900
24,550167	0,5	-0,628100
24,558500	0,5	-0,612700
24,566833	0,5	-0,597200
24,575167	0,5	-0,578300
24,583500	0,5	-0,562350
24,591833	0,5	-0,544600
24,600167	0,5	-0,527600
24,608500	0,5	-0,508900
24,616833	0,5	-0,532450
24,625167	0,5	-0,578800
24,633500	0,5	-0,563600
24,641833	0,5	-0,530750
24,650167	0,5	-0,502850
24,658500	0,5	-0,487650
24,666833	0,5	-0,476550
24,675167	0,5	-0,473450
24,683500	0,5	-0,470750
24,691833	0,5	-0,459550
24,700167	0,5	-0,443100
24,708500	0,5	-0,435750
24,716833	0,5	-0,425950
24,725167	0,5	-0,417600
24,733500	0,5	-0,404100
24,741833	0,5	-0,389250
24,750167	0,5	-0,371200
24,758500	0,5	-0,357800
24,766833	0,5	-0,400350
24,775167	0,5	-0,395550
24,783500	0,5	-0,379750
24,791833	0,5	-0,352750
24,800167	0,5	-0,332900
24,808500	0,5	-0,312350
24,816833	0,5	-0,305600
24,825167	0,5	-0,319700
24,833500	0,5	-0,302600
24,841833	0,5	-0,294650
24,850167	0,5	-0,290950
24,858500	0,5	-0,287300
24,866833	0,5	-0,278750
24,875167	0,5	-0,274200
24,883500	0,5	-0,271300
24,891833	0,5	-0,259150
24,900167	0,5	-0,253800
24,908500	0,5	-0,247050
24,916833	0,5	-0,289350
24,925167	0,5	-0,273200
24,933500	0,5	-0,264350
24,941833	0,5	-0,242950
24,950167	0,5	-0,231000
24,958500	0,5	-0,217500
24,966833	0,5	-0,213600
24,975167	0,5	-0,215300
24,983500	0,5	-0,201300
24,991833	0,5	-0,187350
25,000167	0,5	-0,182300
25,008500	0,5	-0,178200
25,016833	0,5	-0,175500
25,025167	0,5	-0,171550
25,033500	0,5	-0,168600
25,041833	0,5	-0,164850
25,050167	0,5	-0,161300
25,058500	0,5	-0,177950
25,066833	0,5	-0,184100
25,075167	0,5	-0,181000
25,083500	0,5	-0,166600
25,091833	0,5	-0,161650
25,100167	0,5	-0,161750
25,108500	0,5	-0,154400
25,116833	0,5	-0,151500
25,125167	0,5	-0,156400
25,133500	0,5	-0,146400
25,141833	0,5	-0,140900
25,150167	0,5	-0,138050
25,158500	0,5	-0,129950
25,166833	0,5	-0,128900
25,175167	0,5	-0,122200
25,183500	0,5	-0,119550
25,191833	0,5	-0,110400
25,200167	0,5	-0,107350
25,208500	0,5	-0,122150
25,216833	0,5	-0,115350
25,225167	0,5	-0,115050
25,233500	0,5	-0,110700
25,241833	0,5	-0,114950
25,250167	0,5	-0,112200
25,258500	0,5	-0,115700
25,266833	0,5	-0,116550
25,275167	0,5	-0,114750
25,283500	0,5	-0,114150
25,291833	0,5	-0,114800
25,300167	0,5	-0,116200
25,308500	0,5	-0,110650
25,316833	0,5	-0,109200
25,325167	0,5	-0,109800
25,333500	0,5	-0,106950
25,341833	0,5	-0,103100
25,350167	0,5	-0,100200
25,358500	0,5	-0,100550
25,366833	0,5	-0,092650
25,375167	0,5	-0,088200
25,383500	0,5	-0,090650
25,391833	0,5	-0,087050
25,400167	0,5	-0,083100
25,408500	0,5	-0,085900
25,416833	0,5	-0,088450
25,425167	0,5	-0,088350
25,433500	0,5	-0,091900
25,441833	0,5	-0,091200
25,450167	0,5	-0,094750
25,458500	0,5	-0,096950
25,466833	0,5	-0,096250
25,475167	0,5	-0,097050
25,483500	0,5	-0,099100
25,491833	0,5	-0,096450
25,500167	0,5	-0,093600
25,508500	0,5	-0,085000
25,516833	0,5	-0,083550
25,525167	0,5	-0,081700
25,533500	0,5	-0,086100
25,541833	0,5	-0,090250
25,550167	0,5	-0,084450
25,558500	0,5	-0,083900
25,566833	0,5	-0,077650
25,575167	0,5	-0,082150
25,583500	0,5	-0,081550
25,591833	0,5	-0,083850
25,600167	0,5	-0,082900
25,608500	0,5	-0,087250
25,616833	0,5	-0,088100
25,625167	0,5	-0,091450
25,633500	0,5	-0,091700
25,641833	0,5	-0,094550
25,650167	0,5	-0,086400
25,658500	0,5	-0,084900
25,666833	0,5	-0,078050
25,675167	0,5	-0,087250
25,683500	0,5	-0,094800
25,691833	0,5	-0,092550
25,700167	0,5	-0,090950
25,708500	0,5	-0,092250
25,716833	0,5	-0,089000
25,725167	0,5	-0,089300
25,733500	0,5	-0,090200
25,741833	0,5	-0,091200
25,750167	0,5	-0,092350
25,758500	0,5	-0,094000
25,766833	0,5	-0,092000
25,775167	0,5	-0,090250
25,783500	0,5	-0,089400
25,791833	0,5	-0,090000
25,800167	0,5	-0,080700
25,808500	0,5	-0,075950
25,816833	0,5	-0,072800
25,825167	0,5	-0,080850
25,833500	0,5	-0,090250
25,841833	0,5	-0,088950
25,850167	0,5	-0,084000
25,858500	0,5	-0,075700
25,866833	0,5	-0,084000
25,875167	0,5	-0,083600
25,883500	0,5	-0,083800
25,891833	0,5	-0,085350
25,900167	0,5	-0,084150
25,908500	0,5	-0,087550
25,916833	0,5	-0,078950
25,925167	0,5	-0,080050
25,933500	0,5	-0,079700
25,941833	0,5	-0,073300
25,950167	0,5	-0,053150
25,958500	0,5	-0,050750
25,966833	0,5	-0,049650
25,975167	0,5	-0,062250
25,983500	0,5	-0,059850
25,991833	0,5	-0,055250
26,000167	0,5	-0,049550
