File Path	chrom://chromeleon01/ikbm_chromeleon/2022/ICS-5000/ED1/Esteban/20220427_Cell_Amandas_mutants.seq/137.smp/ED_1.channel/ED_1.chm
Channel	ED_1

Injection Information:
Data Vault	ikbm_chromeleon
Injection	EG_Avi_C-NE
Injection Number	62
Position	GB6
Comment	
Processing Method	Stop sequence after Cell Death
Instrument Method	ICS5000_PA200_FullNative_Ox_26min_ED1
Type	Unknown
Status	Finished
Injection Date	28.04.2022
Injection Time	18:06:33
Injection Volume (µl)	5,0
Dilution Factor	1,0000
Weight	1,0000

Chromatogram Data Information:
Time Min. (min)	0,000333
Time Max. (min)	26,000333
Data Points	3121
Detector	EDet1
Generating Data System	Chromeleon 7.2.9.11323
Exporting Data System	Chromeleon 7.2.9.0
Operator	Instrument Controller
Signal Quantity	
Signal Unit	nC
Signal Min.	-8,514950
Signal Max.	615,946709
Channel	ED_1
Driver Name	DC-5000
Channel Type	Evaluation
Min. Step (s)	0,5
Max. Step (s)	0,5
Average Step (s)	0,5

Signal Parameter Information:
Signal Info	

Chromatogram Data:
Time (min)	Step (s)	Value (nC)
0,000333	n.a.	-0,058700
0,008667	0,5	-0,084650
0,017000	0,5	-0,083850
0,025333	0,5	-0,078250
0,033667	0,5	-0,049850
0,042000	0,5	-0,015650
0,050333	0,5	0,003300
0,058667	0,5	0,002700
0,067000	0,5	0,009250
0,075333	0,5	0,002400
0,083667	0,5	0,000750
0,092000	0,5	0,000800
0,100333	0,5	0,007800
0,108667	0,5	-0,005950
0,117000	0,5	-0,007200
0,125333	0,5	0,004800
0,133667	0,5	-0,015450
0,142000	0,5	0,005250
0,150333	0,5	0,029000
0,158667	0,5	0,007950
0,167000	0,5	-0,007600
0,175333	0,5	-0,007000
0,183667	0,5	0,023700
0,192000	0,5	0,053950
0,200333	0,5	0,032650
0,208667	0,5	0,032100
0,217000	0,5	0,026200
0,225333	0,5	0,025200
0,233667	0,5	0,010550
0,242000	0,5	0,018550
0,250333	0,5	0,012300
0,258667	0,5	0,016050
0,267000	0,5	0,016000
0,275333	0,5	0,008500
0,283667	0,5	-0,017100
0,292000	0,5	-0,016150
0,300333	0,5	0,053200
0,308667	0,5	0,072850
0,317000	0,5	0,021800
0,325333	0,5	-0,007450
0,333667	0,5	0,007400
0,342000	0,5	0,021150
0,350333	0,5	0,007650
0,358667	0,5	0,002400
0,367000	0,5	0,017050
0,375333	0,5	0,008000
0,383667	0,5	0,014400
0,392000	0,5	0,012300
0,400333	0,5	0,007850
0,408667	0,5	-0,007150
0,417000	0,5	0,000900
0,425333	0,5	-0,001400
0,433667	0,5	-0,010700
0,442000	0,5	0,023650
0,450333	0,5	-0,002100
0,458667	0,5	-0,016850
0,467000	0,5	-0,017000
0,475333	0,5	-0,006150
0,483667	0,5	0,046650
0,492000	0,5	0,035450
0,500333	0,5	0,003250
0,508667	0,5	0,010400
0,517000	0,5	0,015400
0,525333	0,5	0,011100
0,533667	0,5	0,011450
0,542000	0,5	0,015500
0,550333	0,5	0,001600
0,558667	0,5	0,011800
0,567000	0,5	0,022600
0,575333	0,5	0,021850
0,583667	0,5	-0,005650
0,592000	0,5	0,040150
0,600333	0,5	0,001150
0,608667	0,5	0,006550
0,617000	0,5	0,003000
0,625333	0,5	0,036250
0,633667	0,5	0,073200
0,642000	0,5	0,062800
0,650333	0,5	0,044250
0,658667	0,5	0,049950
0,667000	0,5	0,052000
0,675333	0,5	0,055100
0,683667	0,5	0,057550
0,692000	0,5	0,053300
0,700333	0,5	0,049900
0,708667	0,5	0,049200
0,717000	0,5	0,055550
0,725333	0,5	0,032650
0,733667	0,5	0,046600
0,742000	0,5	0,054950
0,750333	0,5	0,032150
0,758667	0,5	0,037550
0,767000	0,5	0,048150
0,775333	0,5	0,082750
0,783667	0,5	0,118100
0,792000	0,5	0,103000
0,800333	0,5	0,108500
0,808667	0,5	0,101900
0,817000	0,5	0,108200
0,825333	0,5	0,100600
0,833667	0,5	0,108400
0,842000	0,5	0,092800
0,850333	0,5	0,097400
0,858667	0,5	0,105500
0,867000	0,5	0,093050
0,875333	0,5	0,098700
0,883667	0,5	0,118100
0,892000	0,5	0,108450
0,900333	0,5	0,092250
0,908667	0,5	0,096500
0,917000	0,5	0,110700
0,925333	0,5	0,160550
0,933667	0,5	0,175500
0,942000	0,5	0,175900
0,950333	0,5	0,165000
0,958667	0,5	0,170100
0,967000	0,5	0,153650
0,975333	0,5	0,168350
0,983667	0,5	0,163600
0,992000	0,5	0,164750
1,000333	0,5	0,161050
1,008667	0,5	0,166950
1,017000	0,5	0,162200
1,025333	0,5	0,171750
1,033667	0,5	0,181850
1,042000	0,5	0,178450
1,050333	0,5	0,168150
1,058667	0,5	0,173450
1,067000	0,5	0,198400
1,075333	0,5	0,221500
1,083667	0,5	0,244500
1,092000	0,5	0,226550
1,100333	0,5	0,240900
1,108667	0,5	0,230900
1,117000	0,5	0,234550
1,125333	0,5	0,231250
1,133667	0,5	0,238600
1,142000	0,5	0,229350
1,150333	0,5	0,232200
1,158667	0,5	0,244300
1,167000	0,5	0,243100
1,175333	0,5	0,268250
1,183667	0,5	0,286900
1,192000	0,5	0,263550
1,200333	0,5	0,257400
1,208667	0,5	0,270450
1,217000	0,5	0,304500
1,225333	0,5	0,332700
1,233667	0,5	0,316700
1,242000	0,5	0,325600
1,250333	0,5	0,328400
1,258667	0,5	0,333850
1,267000	0,5	0,326500
1,275333	0,5	0,339800
1,283667	0,5	0,340500
1,292000	0,5	0,353350
1,300333	0,5	0,364400
1,308667	0,5	0,368000
1,317000	0,5	0,353500
1,325333	0,5	0,402650
1,333667	0,5	0,391300
1,342000	0,5	0,394200
1,350333	0,5	0,389750
1,358667	0,5	0,408850
1,367000	0,5	0,456750
1,375333	0,5	0,468050
1,383667	0,5	0,465950
1,392000	0,5	0,476050
1,400333	0,5	0,490200
1,408667	0,5	0,493550
1,417000	0,5	0,503350
1,425333	0,5	0,510300
1,433667	0,5	0,516100
1,442000	0,5	0,517750
1,450333	0,5	0,537500
1,458667	0,5	0,542900
1,467000	0,5	0,551750
1,475333	0,5	0,586150
1,483667	0,5	0,573500
1,492000	0,5	0,585950
1,500333	0,5	0,591900
1,508667	0,5	0,614500
1,517000	0,5	0,666150
1,525333	0,5	0,658350
1,533667	0,5	0,662200
1,542000	0,5	0,661350
1,550333	0,5	0,679550
1,558667	0,5	0,669300
1,567000	0,5	0,640250
1,575333	0,5	0,446700
1,583667	0,5	-0,215300
1,592000	0,5	-1,333850
1,600333	0,5	-1,695950
1,608667	0,5	-0,091800
1,617000	0,5	2,621350
1,625333	0,5	5,648850
1,633667	0,5	9,281500
1,642000	0,5	13,132150
1,650333	0,5	15,481200
1,658667	0,5	15,625450
1,667000	0,5	14,444400
1,675333	0,5	12,930350
1,683667	0,5	11,520900
1,692000	0,5	10,334450
1,700333	0,5	9,303550
1,708667	0,5	8,504950
1,717000	0,5	8,066100
1,725333	0,5	8,072200
1,733667	0,5	8,115700
1,742000	0,5	7,657500
1,750333	0,5	6,780150
1,758667	0,5	5,881050
1,767000	0,5	5,261450
1,775333	0,5	4,964450
1,783667	0,5	5,022950
1,792000	0,5	5,472150
1,800333	0,5	6,131150
1,808667	0,5	6,584100
1,817000	0,5	6,626300
1,825333	0,5	6,348050
1,833667	0,5	5,998050
1,842000	0,5	5,593350
1,850333	0,5	5,196450
1,858667	0,5	4,827900
1,867000	0,5	4,551750
1,875333	0,5	4,319950
1,883667	0,5	4,123750
1,892000	0,5	3,927750
1,900333	0,5	3,712450
1,908667	0,5	3,512500
1,917000	0,5	3,388950
1,925333	0,5	3,294450
1,933667	0,5	3,353750
1,942000	0,5	3,684500
1,950333	0,5	4,248400
1,958667	0,5	4,650600
1,967000	0,5	4,565200
1,975333	0,5	4,331450
1,983667	0,5	4,587200
1,992000	0,5	6,031100
2,000333	0,5	9,651750
2,008667	0,5	17,667500
2,017000	0,5	35,822901
2,025333	0,5	72,953051
2,033667	0,5	125,041102
2,042000	0,5	161,220552
2,050333	0,5	156,462602
2,058667	0,5	125,101352
2,067000	0,5	93,776801
2,075333	0,5	72,412051
2,083667	0,5	58,757951
2,092000	0,5	49,429051
2,100333	0,5	42,685901
2,108667	0,5	37,656101
2,117000	0,5	33,851651
2,125333	0,5	31,009400
2,133667	0,5	28,993550
2,142000	0,5	27,663300
2,150333	0,5	27,091100
2,158667	0,5	27,159800
2,167000	0,5	27,096100
2,175333	0,5	26,163400
2,183667	0,5	24,674050
2,192000	0,5	23,288050
2,200333	0,5	22,234200
2,208667	0,5	21,394550
2,217000	0,5	20,631650
2,225333	0,5	19,991200
2,233667	0,5	19,535700
2,242000	0,5	19,212900
2,250333	0,5	19,024100
2,258667	0,5	18,875950
2,267000	0,5	18,769050
2,275333	0,5	18,700200
2,283667	0,5	18,632850
2,292000	0,5	18,540100
2,300333	0,5	18,434550
2,308667	0,5	18,362750
2,317000	0,5	18,299900
2,325333	0,5	18,270900
2,333667	0,5	18,253850
2,342000	0,5	18,259800
2,350333	0,5	18,242050
2,358667	0,5	18,291200
2,367000	0,5	18,309050
2,375333	0,5	18,374200
2,383667	0,5	18,469900
2,392000	0,5	18,619750
2,400333	0,5	18,865650
2,408667	0,5	19,208950
2,417000	0,5	19,683600
2,425333	0,5	20,253500
2,433667	0,5	20,748350
2,442000	0,5	21,027250
2,450333	0,5	20,992550
2,458667	0,5	20,716600
2,467000	0,5	20,401600
2,475333	0,5	20,181200
2,483667	0,5	20,026050
2,492000	0,5	19,859950
2,500333	0,5	19,695950
2,508667	0,5	19,547750
2,517000	0,5	19,358350
2,525333	0,5	19,187400
2,533667	0,5	19,037000
2,542000	0,5	18,899000
2,550333	0,5	18,791750
2,558667	0,5	18,631100
2,567000	0,5	18,503800
2,575333	0,5	18,394850
2,583667	0,5	18,314150
2,592000	0,5	18,259250
2,600333	0,5	18,286750
2,608667	0,5	18,434300
2,617000	0,5	18,746750
2,625333	0,5	19,133550
2,633667	0,5	19,476350
2,642000	0,5	19,645150
2,650333	0,5	19,686950
2,658667	0,5	19,819500
2,667000	0,5	20,468300
2,675333	0,5	22,331700
2,683667	0,5	26,157000
2,692000	0,5	32,519450
2,700333	0,5	41,726051
2,708667	0,5	54,745401
2,717000	0,5	75,400951
2,725333	0,5	114,425802
2,733667	0,5	191,236353
2,742000	0,5	318,459705
2,750333	0,5	467,685607
2,758667	0,5	579,008459
2,767000	0,5	615,946709
2,775333	0,5	583,791509
2,783667	0,5	509,022908
2,792000	0,5	420,155156
2,800333	0,5	338,311605
2,808667	0,5	273,203004
2,817000	0,5	225,234603
2,825333	0,5	189,954203
2,833667	0,5	162,645002
2,842000	0,5	140,439602
2,850333	0,5	122,013402
2,858667	0,5	106,629702
2,867000	0,5	93,739651
2,875333	0,5	82,730251
2,883667	0,5	73,144851
2,892000	0,5	64,712151
2,900333	0,5	57,360551
2,908667	0,5	51,008701
2,917000	0,5	45,637051
2,925333	0,5	41,109401
2,933667	0,5	37,299651
2,942000	0,5	34,070851
2,950333	0,5	31,362450
2,958667	0,5	28,988200
2,967000	0,5	26,946250
2,975333	0,5	25,150250
2,983667	0,5	23,578550
2,992000	0,5	22,193350
3,000333	0,5	20,924500
3,008667	0,5	19,785200
3,017000	0,5	18,759050
3,025333	0,5	17,840900
3,033667	0,5	16,982850
3,042000	0,5	16,218000
3,050333	0,5	15,513900
3,058667	0,5	14,884750
3,067000	0,5	14,302800
3,075333	0,5	13,752050
3,083667	0,5	13,204250
3,092000	0,5	12,704100
3,100333	0,5	12,222150
3,108667	0,5	11,747450
3,117000	0,5	11,310450
3,125333	0,5	10,917400
3,133667	0,5	10,569050
3,142000	0,5	10,256150
3,150333	0,5	9,952950
3,158667	0,5	9,682900
3,167000	0,5	9,449100
3,175333	0,5	9,240250
3,183667	0,5	9,073200
3,192000	0,5	8,955800
3,200333	0,5	8,914150
3,208667	0,5	8,967750
3,217000	0,5	9,150900
3,225333	0,5	9,413050
3,233667	0,5	9,687650
3,242000	0,5	9,849600
3,250333	0,5	9,768300
3,258667	0,5	9,437700
3,267000	0,5	8,950750
3,275333	0,5	8,390750
3,283667	0,5	7,898650
3,292000	0,5	7,441700
3,300333	0,5	7,071750
3,308667	0,5	6,774950
3,317000	0,5	6,542750
3,325333	0,5	6,328450
3,333667	0,5	6,154000
3,342000	0,5	5,992050
3,350333	0,5	5,837000
3,358667	0,5	5,700400
3,367000	0,5	5,567000
3,375333	0,5	5,451900
3,383667	0,5	5,321550
3,392000	0,5	5,233700
3,400333	0,5	5,108950
3,408667	0,5	5,003250
3,417000	0,5	4,904950
3,425333	0,5	4,830100
3,433667	0,5	4,779200
3,442000	0,5	4,708200
3,450333	0,5	4,618700
3,458667	0,5	4,562500
3,467000	0,5	4,495200
3,475333	0,5	4,447050
3,483667	0,5	4,397950
3,492000	0,5	4,357950
3,500333	0,5	4,312150
3,508667	0,5	4,278950
3,517000	0,5	4,247300
3,525333	0,5	4,190500
3,533667	0,5	4,154400
3,542000	0,5	4,133150
3,550333	0,5	4,070900
3,558667	0,5	4,013350
3,567000	0,5	3,969600
3,575333	0,5	3,937150
3,583667	0,5	3,919150
3,592000	0,5	3,854400
3,600333	0,5	3,808100
3,608667	0,5	3,754750
3,617000	0,5	3,704700
3,625333	0,5	3,636800
3,633667	0,5	3,576750
3,642000	0,5	3,512450
3,650333	0,5	3,450900
3,658667	0,5	3,390400
3,667000	0,5	3,330950
3,675333	0,5	3,254200
3,683667	0,5	3,219650
3,692000	0,5	3,171500
3,700333	0,5	3,121800
3,708667	0,5	3,080100
3,717000	0,5	3,057900
3,725333	0,5	3,059950
3,733667	0,5	3,062500
3,742000	0,5	3,061750
3,750333	0,5	3,079200
3,758667	0,5	3,135650
3,767000	0,5	3,197550
3,775333	0,5	3,284350
3,783667	0,5	3,368100
3,792000	0,5	3,426350
3,800333	0,5	3,442500
3,808667	0,5	3,421400
3,817000	0,5	3,358350
3,825333	0,5	3,262650
3,833667	0,5	3,176600
3,842000	0,5	3,067850
3,850333	0,5	2,966100
3,858667	0,5	2,885650
3,867000	0,5	2,827000
3,875333	0,5	2,806000
3,883667	0,5	2,759800
3,892000	0,5	2,710250
3,900333	0,5	2,673350
3,908667	0,5	2,641250
3,917000	0,5	2,610400
3,925333	0,5	2,580600
3,933667	0,5	2,552000
3,942000	0,5	2,514100
3,950333	0,5	2,494200
3,958667	0,5	2,475100
3,967000	0,5	2,463250
3,975333	0,5	2,433950
3,983667	0,5	2,451550
3,992000	0,5	2,419200
4,000333	0,5	2,424200
4,008667	0,5	2,422050
4,017000	0,5	2,443750
4,025333	0,5	2,464100
4,033667	0,5	2,445950
4,042000	0,5	2,412400
4,050333	0,5	2,380800
4,058667	0,5	2,343900
4,067000	0,5	2,304950
4,075333	0,5	2,268200
4,083667	0,5	2,239450
4,092000	0,5	2,214800
4,100333	0,5	2,192400
4,108667	0,5	2,181550
4,117000	0,5	2,162750
4,125333	0,5	2,166700
4,133667	0,5	2,163000
4,142000	0,5	2,142900
4,150333	0,5	2,130050
4,158667	0,5	2,132150
4,167000	0,5	2,157950
4,175333	0,5	2,180650
4,183667	0,5	2,188500
4,192000	0,5	2,222100
4,200333	0,5	2,266400
4,208667	0,5	2,340300
4,217000	0,5	2,429300
4,225333	0,5	2,558000
4,233667	0,5	2,714200
4,242000	0,5	2,913300
4,250333	0,5	3,164800
4,258667	0,5	3,466150
4,267000	0,5	3,843500
4,275333	0,5	4,335250
4,283667	0,5	4,906900
4,292000	0,5	5,634200
4,300333	0,5	6,595300
4,308667	0,5	7,837050
4,317000	0,5	9,456000
4,325333	0,5	11,430850
4,333667	0,5	13,757700
4,342000	0,5	16,296600
4,350333	0,5	18,860500
4,358667	0,5	21,118850
4,367000	0,5	22,818300
4,375333	0,5	23,719850
4,383667	0,5	23,733300
4,392000	0,5	22,912000
4,400333	0,5	21,407200
4,408667	0,5	19,438850
4,417000	0,5	17,233100
4,425333	0,5	15,035600
4,433667	0,5	12,950250
4,442000	0,5	11,104650
4,450333	0,5	9,554050
4,458667	0,5	8,288950
4,467000	0,5	7,297250
4,475333	0,5	6,490500
4,483667	0,5	5,850400
4,492000	0,5	5,357250
4,500333	0,5	4,963700
4,508667	0,5	4,655600
4,517000	0,5	4,394250
4,525333	0,5	4,179750
4,533667	0,5	3,978850
4,542000	0,5	3,813700
4,550333	0,5	3,661500
4,558667	0,5	3,525550
4,567000	0,5	3,411400
4,575333	0,5	3,328450
4,583667	0,5	3,249700
4,592000	0,5	3,206600
4,600333	0,5	3,200050
4,608667	0,5	3,236250
4,617000	0,5	3,275450
4,625333	0,5	3,283600
4,633667	0,5	3,310750
4,642000	0,5	3,307150
4,650333	0,5	3,279250
4,658667	0,5	3,205200
4,667000	0,5	3,114050
4,675333	0,5	2,999500
4,683667	0,5	2,884650
4,692000	0,5	2,765700
4,700333	0,5	2,655200
4,708667	0,5	2,537300
4,717000	0,5	2,471000
4,725333	0,5	2,388400
4,733667	0,5	2,322550
4,742000	0,5	2,262950
4,750333	0,5	2,237350
4,758667	0,5	2,227500
4,767000	0,5	2,203650
4,775333	0,5	2,172300
4,783667	0,5	2,155550
4,792000	0,5	2,147050
4,800333	0,5	2,129050
4,808667	0,5	2,119250
4,817000	0,5	2,105250
4,825333	0,5	2,099500
4,833667	0,5	2,093050
4,842000	0,5	2,094100
4,850333	0,5	2,090550
4,858667	0,5	2,082350
4,867000	0,5	2,098750
4,875333	0,5	2,090400
4,883667	0,5	2,091250
4,892000	0,5	2,102550
4,900333	0,5	2,120650
4,908667	0,5	2,165850
4,917000	0,5	2,174900
4,925333	0,5	2,188450
4,933667	0,5	2,202950
4,942000	0,5	2,214950
4,950333	0,5	2,224750
4,958667	0,5	2,233350
4,967000	0,5	2,239700
4,975333	0,5	2,236350
4,983667	0,5	2,236950
4,992000	0,5	2,241500
5,000333	0,5	2,250550
5,008667	0,5	2,240750
5,017000	0,5	2,246650
5,025333	0,5	2,220300
5,033667	0,5	2,214700
5,042000	0,5	2,202000
5,050333	0,5	2,218350
5,058667	0,5	2,235850
5,067000	0,5	2,240400
5,075333	0,5	2,231950
5,083667	0,5	2,240400
5,092000	0,5	2,252700
5,100333	0,5	2,265000
5,108667	0,5	2,281850
5,117000	0,5	2,308300
5,125333	0,5	2,328350
5,133667	0,5	2,348400
5,142000	0,5	2,365650
5,150333	0,5	2,372400
5,158667	0,5	2,383350
5,167000	0,5	2,378050
5,175333	0,5	2,362900
5,183667	0,5	2,347300
5,192000	0,5	2,336250
5,200333	0,5	2,344550
5,208667	0,5	2,348850
5,217000	0,5	2,321500
5,225333	0,5	2,313600
5,233667	0,5	2,297850
5,242000	0,5	2,290950
5,250333	0,5	2,277750
5,258667	0,5	2,272700
5,267000	0,5	2,264550
5,275333	0,5	2,254350
5,283667	0,5	2,249550
5,292000	0,5	2,241300
5,300333	0,5	2,241750
5,308667	0,5	2,265000
5,317000	0,5	2,256600
5,325333	0,5	2,257250
5,333667	0,5	2,262450
5,342000	0,5	2,274700
5,350333	0,5	2,302550
5,358667	0,5	2,311350
5,367000	0,5	2,316000
5,375333	0,5	2,318350
5,383667	0,5	2,335200
5,392000	0,5	2,333150
5,400333	0,5	2,351700
5,408667	0,5	2,359400
5,417000	0,5	2,365300
5,425333	0,5	2,358300
5,433667	0,5	2,351950
5,442000	0,5	2,320350
5,450333	0,5	2,306900
5,458667	0,5	2,284250
5,467000	0,5	2,239950
5,475333	0,5	2,204400
5,483667	0,5	2,183150
5,492000	0,5	2,170700
5,500333	0,5	2,166600
5,508667	0,5	2,152300
5,517000	0,5	2,127350
5,525333	0,5	2,112700
5,533667	0,5	2,093350
5,542000	0,5	2,080500
5,550333	0,5	2,070150
5,558667	0,5	2,058150
5,567000	0,5	2,042250
5,575333	0,5	2,035300
5,583667	0,5	2,027950
5,592000	0,5	2,020150
5,600333	0,5	2,025450
5,608667	0,5	2,017500
5,617000	0,5	2,002800
5,625333	0,5	1,996100
5,633667	0,5	1,987000
5,642000	0,5	1,998400
5,650333	0,5	1,998200
5,658667	0,5	1,983850
5,667000	0,5	1,974300
5,675333	0,5	1,971250
5,683667	0,5	1,960250
5,692000	0,5	1,953850
5,700333	0,5	1,946350
5,708667	0,5	1,935450
5,717000	0,5	1,926950
5,725333	0,5	1,915400
5,733667	0,5	1,908350
5,742000	0,5	1,885100
5,750333	0,5	1,893500
5,758667	0,5	1,870550
5,767000	0,5	1,863350
5,775333	0,5	1,857450
5,783667	0,5	1,860750
5,792000	0,5	1,885400
5,800333	0,5	1,890250
5,808667	0,5	1,890600
5,817000	0,5	1,901450
5,825333	0,5	1,910650
5,833667	0,5	1,920700
5,842000	0,5	1,925200
5,850333	0,5	1,929750
5,858667	0,5	1,932300
5,867000	0,5	1,929550
5,875333	0,5	1,942350
5,883667	0,5	1,947350
5,892000	0,5	1,967250
5,900333	0,5	2,029100
5,908667	0,5	2,085850
5,917000	0,5	2,169850
5,925333	0,5	2,282950
5,933667	0,5	2,393200
5,942000	0,5	2,504250
5,950333	0,5	2,553100
5,958667	0,5	2,573150
5,967000	0,5	2,550750
5,975333	0,5	2,502250
5,983667	0,5	2,424450
5,992000	0,5	2,349500
6,000333	0,5	2,271400
6,008667	0,5	2,198300
6,017000	0,5	2,133750
6,025333	0,5	2,075500
6,033667	0,5	2,017950
6,042000	0,5	1,954700
6,050333	0,5	1,896000
6,058667	0,5	1,825450
6,067000	0,5	1,764100
6,075333	0,5	1,710200
6,083667	0,5	1,691100
6,092000	0,5	1,664400
6,100333	0,5	1,634850
6,108667	0,5	1,598300
6,117000	0,5	1,580600
6,125333	0,5	1,555950
6,133667	0,5	1,538500
6,142000	0,5	1,516800
6,150333	0,5	1,501350
6,158667	0,5	1,482500
6,167000	0,5	1,472900
6,175333	0,5	1,470800
6,183667	0,5	1,459050
6,192000	0,5	1,459750
6,200333	0,5	1,456050
6,208667	0,5	1,443900
6,217000	0,5	1,444000
6,225333	0,5	1,446200
6,233667	0,5	1,458050
6,242000	0,5	1,473250
6,250333	0,5	1,469950
6,258667	0,5	1,466850
6,267000	0,5	1,456250
6,275333	0,5	1,449000
6,283667	0,5	1,439000
6,292000	0,5	1,432800
6,300333	0,5	1,414700
6,308667	0,5	1,405750
6,317000	0,5	1,397800
6,325333	0,5	1,384400
6,333667	0,5	1,380050
6,342000	0,5	1,387600
6,350333	0,5	1,378650
6,358667	0,5	1,382350
6,367000	0,5	1,383400
6,375333	0,5	1,395650
6,383667	0,5	1,418500
6,392000	0,5	1,430650
6,400333	0,5	1,446900
6,408667	0,5	1,464450
6,417000	0,5	1,478900
6,425333	0,5	1,493300
6,433667	0,5	1,504400
6,442000	0,5	1,508150
6,450333	0,5	1,516600
6,458667	0,5	1,513750
6,467000	0,5	1,515600
6,475333	0,5	1,506350
6,483667	0,5	1,513150
6,492000	0,5	1,510550
6,500333	0,5	1,504000
6,508667	0,5	1,500000
6,517000	0,5	1,508250
6,525333	0,5	1,535800
6,533667	0,5	1,569250
6,542000	0,5	1,589700
6,550333	0,5	1,631150
6,558667	0,5	1,662550
6,567000	0,5	1,702050
6,575333	0,5	1,734100
6,583667	0,5	1,759650
6,592000	0,5	1,778750
6,600333	0,5	1,779300
6,608667	0,5	1,781100
6,617000	0,5	1,773600
6,625333	0,5	1,760750
6,633667	0,5	1,754550
6,642000	0,5	1,730400
6,650333	0,5	1,712300
6,658667	0,5	1,703000
6,667000	0,5	1,702200
6,675333	0,5	1,719050
6,683667	0,5	1,722350
6,692000	0,5	1,728550
6,700333	0,5	1,748900
6,708667	0,5	1,774400
6,717000	0,5	1,791850
6,725333	0,5	1,834000
6,733667	0,5	1,874700
6,742000	0,5	1,922400
6,750333	0,5	1,974400
6,758667	0,5	2,026450
6,767000	0,5	2,072150
6,775333	0,5	2,091500
6,783667	0,5	2,135000
6,792000	0,5	2,140850
6,800333	0,5	2,146450
6,808667	0,5	2,159400
6,817000	0,5	2,184300
6,825333	0,5	2,227500
6,833667	0,5	2,251700
6,842000	0,5	2,271700
6,850333	0,5	2,294950
6,858667	0,5	2,303150
6,867000	0,5	2,300700
6,875333	0,5	2,287950
6,883667	0,5	2,268450
6,892000	0,5	2,235050
6,900333	0,5	2,199450
6,908667	0,5	2,169700
6,917000	0,5	2,126950
6,925333	0,5	2,091750
6,933667	0,5	2,078050
6,942000	0,5	2,046250
6,950333	0,5	2,033250
6,958667	0,5	2,030400
6,967000	0,5	2,042050
6,975333	0,5	2,076150
6,983667	0,5	2,080500
6,992000	0,5	2,093900
7,000333	0,5	2,102150
7,008667	0,5	2,121150
7,017000	0,5	2,126100
7,025333	0,5	2,150550
7,033667	0,5	2,167800
7,042000	0,5	2,200000
7,050333	0,5	2,234250
7,058667	0,5	2,265600
7,067000	0,5	2,285500
7,075333	0,5	2,309650
7,083667	0,5	2,313150
7,092000	0,5	2,298650
7,100333	0,5	2,276800
7,108667	0,5	2,263700
7,117000	0,5	2,257650
7,125333	0,5	2,257750
7,133667	0,5	2,266350
7,142000	0,5	2,287650
7,150333	0,5	2,336650
7,158667	0,5	2,403450
7,167000	0,5	2,511400
7,175333	0,5	2,647350
7,183667	0,5	2,811200
7,192000	0,5	2,992000
7,200333	0,5	3,177700
7,208667	0,5	3,340050
7,217000	0,5	3,459750
7,225333	0,5	3,527450
7,233667	0,5	3,537850
7,242000	0,5	3,499400
7,250333	0,5	3,452000
7,258667	0,5	3,418650
7,267000	0,5	3,404350
7,275333	0,5	3,415000
7,283667	0,5	3,413750
7,292000	0,5	3,407050
7,300333	0,5	3,372850
7,308667	0,5	3,316050
7,317000	0,5	3,238750
7,325333	0,5	3,145400
7,333667	0,5	3,047450
7,342000	0,5	2,960550
7,350333	0,5	2,874750
7,358667	0,5	2,802250
7,367000	0,5	2,739400
7,375333	0,5	2,702750
7,383667	0,5	2,691000
7,392000	0,5	2,726900
7,400333	0,5	2,820250
7,408667	0,5	2,985200
7,417000	0,5	3,196400
7,425333	0,5	3,421050
7,433667	0,5	3,631350
7,442000	0,5	3,797100
7,450333	0,5	3,902500
7,458667	0,5	3,944350
7,467000	0,5	3,965950
7,475333	0,5	3,996250
7,483667	0,5	4,095600
7,492000	0,5	4,298750
7,500333	0,5	4,622250
7,508667	0,5	5,004600
7,517000	0,5	5,387100
7,525333	0,5	5,639900
7,533667	0,5	5,683850
7,542000	0,5	5,489450
7,550333	0,5	5,114400
7,558667	0,5	4,621200
7,567000	0,5	4,112550
7,575333	0,5	3,642500
7,583667	0,5	3,264250
7,592000	0,5	2,985000
7,600333	0,5	2,791600
7,608667	0,5	2,663950
7,617000	0,5	2,593250
7,625333	0,5	2,540750
7,633667	0,5	2,512050
7,642000	0,5	2,487000
7,650333	0,5	2,462100
7,658667	0,5	2,436950
7,667000	0,5	2,430700
7,675333	0,5	2,415450
7,683667	0,5	2,391850
7,692000	0,5	2,367800
7,700333	0,5	2,335400
7,708667	0,5	2,310200
7,717000	0,5	2,269200
7,725333	0,5	2,234550
7,733667	0,5	2,199850
7,742000	0,5	2,188400
7,750333	0,5	2,172150
7,758667	0,5	2,169250
7,767000	0,5	2,163950
7,775333	0,5	2,170200
7,783667	0,5	2,179450
7,792000	0,5	2,191050
7,800333	0,5	2,203750
7,808667	0,5	2,220750
7,817000	0,5	2,238650
7,825333	0,5	2,231950
7,833667	0,5	2,215900
7,842000	0,5	2,190650
7,850333	0,5	2,163950
7,858667	0,5	2,144850
7,867000	0,5	2,123550
7,875333	0,5	2,107200
7,883667	0,5	2,104750
7,892000	0,5	2,111100
7,900333	0,5	2,131450
7,908667	0,5	2,159300
7,917000	0,5	2,196450
7,925333	0,5	2,251000
7,933667	0,5	2,310000
7,942000	0,5	2,382150
7,950333	0,5	2,444700
7,958667	0,5	2,500250
7,967000	0,5	2,541050
7,975333	0,5	2,556250
7,983667	0,5	2,550200
7,992000	0,5	2,536500
8,000333	0,5	2,512900
8,008667	0,5	2,507100
8,017000	0,5	2,509300
8,025333	0,5	2,536500
8,033667	0,5	2,594600
8,042000	0,5	2,657950
8,050333	0,5	2,707400
8,058667	0,5	2,724250
8,067000	0,5	2,695200
8,075333	0,5	2,636250
8,083667	0,5	2,560750
8,092000	0,5	2,486750
8,100333	0,5	2,432800
8,108667	0,5	2,408600
8,117000	0,5	2,400500
8,125333	0,5	2,417300
8,133667	0,5	2,442650
8,142000	0,5	2,447800
8,150333	0,5	2,418550
8,158667	0,5	2,342800
8,167000	0,5	2,249700
8,175333	0,5	2,164400
8,183667	0,5	2,095350
8,192000	0,5	2,035650
8,200333	0,5	1,987800
8,208667	0,5	1,949550
8,217000	0,5	1,920150
8,225333	0,5	1,889550
8,233667	0,5	1,869350
8,242000	0,5	1,844800
8,250333	0,5	1,824450
8,258667	0,5	1,815200
8,267000	0,5	1,803250
8,275333	0,5	1,790200
8,283667	0,5	1,788250
8,292000	0,5	1,786300
8,300333	0,5	1,796300
8,308667	0,5	1,800500
8,317000	0,5	1,798700
8,325333	0,5	1,790350
8,333667	0,5	1,785800
8,342000	0,5	1,781500
8,350333	0,5	1,766550
8,358667	0,5	1,763200
8,367000	0,5	1,749850
8,375333	0,5	1,742900
8,383667	0,5	1,728750
8,392000	0,5	1,713350
8,400333	0,5	1,698350
8,408667	0,5	1,689600
8,417000	0,5	1,680100
8,425333	0,5	1,682650
8,433667	0,5	1,679850
8,442000	0,5	1,688500
8,450333	0,5	1,699000
8,458667	0,5	1,715600
8,467000	0,5	1,729300
8,475333	0,5	1,751450
8,483667	0,5	1,773650
8,492000	0,5	1,794550
8,500333	0,5	1,829800
8,508667	0,5	1,861450
8,517000	0,5	1,895450
8,525333	0,5	1,934050
8,533667	0,5	1,974050
8,542000	0,5	1,999850
8,550333	0,5	2,026850
8,558667	0,5	2,036650
8,567000	0,5	2,038900
8,575333	0,5	2,028400
8,583667	0,5	2,020000
8,592000	0,5	2,013700
8,600333	0,5	2,006000
8,608667	0,5	2,002650
8,617000	0,5	2,001900
8,625333	0,5	1,997700
8,633667	0,5	1,989200
8,642000	0,5	1,980000
8,650333	0,5	1,966400
8,658667	0,5	1,957700
8,667000	0,5	1,951650
8,675333	0,5	1,953450
8,683667	0,5	1,964700
8,692000	0,5	1,976800
8,700333	0,5	2,005800
8,708667	0,5	2,051800
8,717000	0,5	2,104800
8,725333	0,5	2,180750
8,733667	0,5	2,275950
8,742000	0,5	2,377100
8,750333	0,5	2,473050
8,758667	0,5	2,564000
8,767000	0,5	2,657600
8,775333	0,5	2,785450
8,783667	0,5	2,961250
8,792000	0,5	3,188450
8,800333	0,5	3,447100
8,808667	0,5	3,693700
8,817000	0,5	3,889250
8,825333	0,5	3,985000
8,833667	0,5	3,935100
8,842000	0,5	3,757150
8,850333	0,5	3,477500
8,858667	0,5	3,148000
8,867000	0,5	2,823350
8,875333	0,5	2,548450
8,883667	0,5	2,324500
8,892000	0,5	2,172950
8,900333	0,5	2,062850
8,908667	0,5	1,981750
8,917000	0,5	1,933800
8,925333	0,5	1,902950
8,933667	0,5	1,890250
8,942000	0,5	1,897000
8,950333	0,5	1,904100
8,958667	0,5	1,925250
8,967000	0,5	1,938100
8,975333	0,5	1,938950
8,983667	0,5	1,935050
8,992000	0,5	1,921300
9,000333	0,5	1,915950
9,008667	0,5	1,907600
9,017000	0,5	1,901050
9,025333	0,5	1,904650
9,033667	0,5	1,912550
9,042000	0,5	1,930900
9,050333	0,5	1,945150
9,058667	0,5	1,956950
9,067000	0,5	1,979100
9,075333	0,5	2,004850
9,083667	0,5	2,028400
9,092000	0,5	2,033400
9,100333	0,5	2,022750
9,108667	0,5	1,996500
9,117000	0,5	1,963200
9,125333	0,5	1,929150
9,133667	0,5	1,897200
9,142000	0,5	1,873550
9,150333	0,5	1,854300
9,158667	0,5	1,826750
9,167000	0,5	1,809950
9,175333	0,5	1,792950
9,183667	0,5	1,761500
9,192000	0,5	1,737500
9,200333	0,5	1,707950
9,208667	0,5	1,687350
9,217000	0,5	1,669300
9,225333	0,5	1,652650
9,233667	0,5	1,644200
9,242000	0,5	1,630300
9,250333	0,5	1,626600
9,258667	0,5	1,614800
9,267000	0,5	1,614200
9,275333	0,5	1,605750
9,283667	0,5	1,595500
9,292000	0,5	1,591750
9,300333	0,5	1,582650
9,308667	0,5	1,576200
9,317000	0,5	1,573750
9,325333	0,5	1,565350
9,333667	0,5	1,568550
9,342000	0,5	1,568700
9,350333	0,5	1,568000
9,358667	0,5	1,569800
9,367000	0,5	1,568600
9,375333	0,5	1,556750
9,383667	0,5	1,547450
9,392000	0,5	1,533450
9,400333	0,5	1,513700
9,408667	0,5	1,493050
9,417000	0,5	1,481050
9,425333	0,5	1,457250
9,433667	0,5	1,449350
9,442000	0,5	1,440800
9,450333	0,5	1,434550
9,458667	0,5	1,428050
9,467000	0,5	1,420300
9,475333	0,5	1,421850
9,483667	0,5	1,421350
9,492000	0,5	1,418450
9,500333	0,5	1,408350
9,508667	0,5	1,398200
9,517000	0,5	1,386400
9,525333	0,5	1,380300
9,533667	0,5	1,368750
9,542000	0,5	1,366250
9,550333	0,5	1,361850
9,558667	0,5	1,353600
9,567000	0,5	1,344800
9,575333	0,5	1,346850
9,583667	0,5	1,339800
9,592000	0,5	1,339000
9,600333	0,5	1,339900
9,608667	0,5	1,341100
9,617000	0,5	1,341800
9,625333	0,5	1,346750
9,633667	0,5	1,361750
9,642000	0,5	1,372450
9,650333	0,5	1,385100
9,658667	0,5	1,407150
9,667000	0,5	1,413750
9,675333	0,5	1,427000
9,683667	0,5	1,432950
9,692000	0,5	1,430500
9,700333	0,5	1,420100
9,708667	0,5	1,405250
9,717000	0,5	1,395950
9,725333	0,5	1,371450
9,733667	0,5	1,361200
9,742000	0,5	1,352950
9,750333	0,5	1,345850
9,758667	0,5	1,340450
9,767000	0,5	1,342350
9,775333	0,5	1,349800
9,783667	0,5	1,365350
9,792000	0,5	1,374900
9,800333	0,5	1,385850
9,808667	0,5	1,398600
9,817000	0,5	1,418150
9,825333	0,5	1,427300
9,833667	0,5	1,436700
9,842000	0,5	1,445600
9,850333	0,5	1,456150
9,858667	0,5	1,470850
9,867000	0,5	1,476650
9,875333	0,5	1,478100
9,883667	0,5	1,496250
9,892000	0,5	1,499950
9,900333	0,5	1,507700
9,908667	0,5	1,510400
9,917000	0,5	1,516400
9,925333	0,5	1,527600
9,933667	0,5	1,545150
9,942000	0,5	1,562250
9,950333	0,5	1,579100
9,958667	0,5	1,584400
9,967000	0,5	1,593200
9,975333	0,5	1,585100
9,983667	0,5	1,565800
9,992000	0,5	1,551550
10,000333	0,5	1,520950
10,008667	0,5	1,493750
10,017000	0,5	1,474100
10,025333	0,5	1,456100
10,033667	0,5	1,440850
10,042000	0,5	1,422050
10,050333	0,5	1,412150
10,058667	0,5	1,395550
10,067000	0,5	1,378300
10,075333	0,5	1,375600
10,083667	0,5	1,367350
10,092000	0,5	1,353500
10,100333	0,5	1,354300
10,108667	0,5	1,348750
10,117000	0,5	1,343050
10,125333	0,5	1,346200
10,133667	0,5	1,345800
10,142000	0,5	1,349000
10,150333	0,5	1,351350
10,158667	0,5	1,363150
10,167000	0,5	1,369850
10,175333	0,5	1,378300
10,183667	0,5	1,400400
10,192000	0,5	1,415150
10,200333	0,5	1,432850
10,208667	0,5	1,456500
10,217000	0,5	1,481400
10,225333	0,5	1,518600
10,233667	0,5	1,551850
10,242000	0,5	1,590500
10,250333	0,5	1,635450
10,258667	0,5	1,678600
10,267000	0,5	1,712950
10,275333	0,5	1,732100
10,283667	0,5	1,735550
10,292000	0,5	1,723750
10,300333	0,5	1,697050
10,308667	0,5	1,664050
10,317000	0,5	1,623000
10,325333	0,5	1,583750
10,333667	0,5	1,543650
10,342000	0,5	1,496200
10,350333	0,5	1,454900
10,358667	0,5	1,416700
10,367000	0,5	1,385050
10,375333	0,5	1,368050
10,383667	0,5	1,346550
10,392000	0,5	1,335850
10,400333	0,5	1,325350
10,408667	0,5	1,313450
10,417000	0,5	1,306650
10,425333	0,5	1,309100
10,433667	0,5	1,306400
10,442000	0,5	1,300350
10,450333	0,5	1,298950
10,458667	0,5	1,296100
10,467000	0,5	1,293550
10,475333	0,5	1,297650
10,483667	0,5	1,298950
10,492000	0,5	1,300550
10,500333	0,5	1,309300
10,508667	0,5	1,332200
10,517000	0,5	1,360900
10,525333	0,5	1,390500
10,533667	0,5	1,413950
10,542000	0,5	1,420950
10,550333	0,5	1,413300
10,558667	0,5	1,392550
10,567000	0,5	1,351100
10,575333	0,5	1,304350
10,583667	0,5	1,257750
10,592000	0,5	1,210650
10,600333	0,5	1,176850
10,608667	0,5	1,153450
10,617000	0,5	1,144300
10,625333	0,5	1,149200
10,633667	0,5	1,156350
10,642000	0,5	1,170850
10,650333	0,5	1,186400
10,658667	0,5	1,209600
10,667000	0,5	1,240450
10,675333	0,5	1,265700
10,683667	0,5	1,283600
10,692000	0,5	1,295450
10,700333	0,5	1,296800
10,708667	0,5	1,298950
10,717000	0,5	1,297250
10,725333	0,5	1,282700
10,733667	0,5	1,272250
10,742000	0,5	1,251750
10,750333	0,5	1,245150
10,758667	0,5	1,234200
10,767000	0,5	1,229850
10,775333	0,5	1,231100
10,783667	0,5	1,227100
10,792000	0,5	1,224100
10,800333	0,5	1,216950
10,808667	0,5	1,217600
10,817000	0,5	1,219250
10,825333	0,5	1,216100
10,833667	0,5	1,212900
10,842000	0,5	1,207150
10,850333	0,5	1,207150
10,858667	0,5	1,204450
10,867000	0,5	1,206200
10,875333	0,5	1,205000
10,883667	0,5	1,206150
10,892000	0,5	1,205600
10,900333	0,5	1,204700
10,908667	0,5	1,196200
10,917000	0,5	1,195400
10,925333	0,5	1,200600
10,933667	0,5	1,195250
10,942000	0,5	1,192450
10,950333	0,5	1,189050
10,958667	0,5	1,202600
10,967000	0,5	1,207750
10,975333	0,5	1,216450
10,983667	0,5	1,221150
10,992000	0,5	1,223600
11,000333	0,5	1,222150
11,008667	0,5	1,220900
11,017000	0,5	1,215700
11,025333	0,5	1,216950
11,033667	0,5	1,218450
11,042000	0,5	1,224850
11,050333	0,5	1,226500
11,058667	0,5	1,231850
11,067000	0,5	1,245800
11,075333	0,5	1,246800
11,083667	0,5	1,257200
11,092000	0,5	1,258900
11,100333	0,5	1,269850
11,108667	0,5	1,297750
11,117000	0,5	1,327100
11,125333	0,5	1,375250
11,133667	0,5	1,431800
11,142000	0,5	1,506400
11,150333	0,5	1,587500
11,158667	0,5	1,660350
11,167000	0,5	1,713600
11,175333	0,5	1,733950
11,183667	0,5	1,717850
11,192000	0,5	1,682500
11,200333	0,5	1,629200
11,208667	0,5	1,574050
11,217000	0,5	1,529800
11,225333	0,5	1,485550
11,233667	0,5	1,454000
11,242000	0,5	1,422050
11,250333	0,5	1,408200
11,258667	0,5	1,383650
11,267000	0,5	1,358600
11,275333	0,5	1,330600
11,283667	0,5	1,309550
11,292000	0,5	1,286950
11,300333	0,5	1,273300
11,308667	0,5	1,258150
11,317000	0,5	1,251750
11,325333	0,5	1,250400
11,333667	0,5	1,250450
11,342000	0,5	1,276300
11,350333	0,5	1,306400
11,358667	0,5	1,360400
11,367000	0,5	1,425200
11,375333	0,5	1,512250
11,383667	0,5	1,585200
11,392000	0,5	1,652000
11,400333	0,5	1,685950
11,408667	0,5	1,697050
11,417000	0,5	1,664900
11,425333	0,5	1,609700
11,433667	0,5	1,552400
11,442000	0,5	1,490250
11,450333	0,5	1,423900
11,458667	0,5	1,372100
11,467000	0,5	1,320850
11,475333	0,5	1,277350
11,483667	0,5	1,249000
11,492000	0,5	1,212250
11,500333	0,5	1,182850
11,508667	0,5	1,171250
11,517000	0,5	1,149800
11,525333	0,5	1,136750
11,533667	0,5	1,117000
11,542000	0,5	1,105850
11,550333	0,5	1,106650
11,558667	0,5	1,101900
11,567000	0,5	1,103200
11,575333	0,5	1,105000
11,583667	0,5	1,104200
11,592000	0,5	1,097400
11,600333	0,5	1,089700
11,608667	0,5	1,081400
11,617000	0,5	1,068200
11,625333	0,5	1,056450
11,633667	0,5	1,047550
11,642000	0,5	1,034850
11,650333	0,5	1,032350
11,658667	0,5	1,035200
11,667000	0,5	1,034900
11,675333	0,5	1,032300
11,683667	0,5	1,026900
11,692000	0,5	1,029200
11,700333	0,5	1,038700
11,708667	0,5	1,051800
11,717000	0,5	1,055150
11,725333	0,5	1,073250
11,733667	0,5	1,081850
11,742000	0,5	1,101200
11,750333	0,5	1,107850
11,758667	0,5	1,131650
11,767000	0,5	1,150150
11,775333	0,5	1,170100
11,783667	0,5	1,188600
11,792000	0,5	1,201700
11,800333	0,5	1,221800
11,808667	0,5	1,242300
11,817000	0,5	1,255450
11,825333	0,5	1,261400
11,833667	0,5	1,266650
11,842000	0,5	1,275350
11,850333	0,5	1,286600
11,858667	0,5	1,294700
11,867000	0,5	1,305750
11,875333	0,5	1,323950
11,883667	0,5	1,342100
11,892000	0,5	1,369100
11,900333	0,5	1,394250
11,908667	0,5	1,407550
11,917000	0,5	1,421200
11,925333	0,5	1,427800
11,933667	0,5	1,428950
11,942000	0,5	1,413500
11,950333	0,5	1,398000
11,958667	0,5	1,383550
11,967000	0,5	1,368050
11,975333	0,5	1,346700
11,983667	0,5	1,326350
11,992000	0,5	1,322150
12,000333	0,5	1,315750
12,008667	0,5	1,314800
12,017000	0,5	1,315200
12,025333	0,5	1,323300
12,033667	0,5	1,328200
12,042000	0,5	1,341950
12,050333	0,5	1,356250
12,058667	0,5	1,373200
12,067000	0,5	1,386500
12,075333	0,5	1,408950
12,083667	0,5	1,420150
12,092000	0,5	1,451600
12,100333	0,5	1,493100
12,108667	0,5	1,556550
12,117000	0,5	1,626450
12,125333	0,5	1,699800
12,133667	0,5	1,783050
12,142000	0,5	1,854050
12,150333	0,5	1,916850
12,158667	0,5	1,962250
12,167000	0,5	1,985100
12,175333	0,5	2,005450
12,183667	0,5	2,004400
12,192000	0,5	1,998700
12,200333	0,5	1,980350
12,208667	0,5	1,947750
12,217000	0,5	1,904000
12,225333	0,5	1,866900
12,233667	0,5	1,822700
12,242000	0,5	1,796950
12,250333	0,5	1,777100
12,258667	0,5	1,768050
12,267000	0,5	1,762600
12,275333	0,5	1,738250
12,283667	0,5	1,725100
12,292000	0,5	1,691600
12,300333	0,5	1,655750
12,308667	0,5	1,603800
12,317000	0,5	1,573850
12,325333	0,5	1,544400
12,333667	0,5	1,534350
12,342000	0,5	1,525100
12,350333	0,5	1,526100
12,358667	0,5	1,510250
12,367000	0,5	1,495450
12,375333	0,5	1,473750
12,383667	0,5	1,435500
12,392000	0,5	1,403000
12,400333	0,5	1,361600
12,408667	0,5	1,316850
12,417000	0,5	1,272800
12,425333	0,5	1,223850
12,433667	0,5	1,196500
12,442000	0,5	1,166700
12,450333	0,5	1,135700
12,458667	0,5	1,121800
12,467000	0,5	1,096150
12,475333	0,5	1,080350
12,483667	0,5	1,064300
12,492000	0,5	1,054500
12,500333	0,5	1,037600
12,508667	0,5	1,032500
12,517000	0,5	1,022550
12,525333	0,5	1,010250
12,533667	0,5	0,992350
12,542000	0,5	0,985950
12,550333	0,5	0,969550
12,558667	0,5	0,961800
12,567000	0,5	0,944100
12,575333	0,5	0,925950
12,583667	0,5	0,929300
12,592000	0,5	0,932600
12,600333	0,5	0,927050
12,608667	0,5	0,924600
12,617000	0,5	0,920650
12,625333	0,5	0,913200
12,633667	0,5	0,914250
12,642000	0,5	0,909450
12,650333	0,5	0,897700
12,658667	0,5	0,896250
12,667000	0,5	0,893700
12,675333	0,5	0,883300
12,683667	0,5	0,882600
12,692000	0,5	0,878200
12,700333	0,5	0,874750
12,708667	0,5	0,873300
12,717000	0,5	0,878600
12,725333	0,5	0,909250
12,733667	0,5	0,958050
12,742000	0,5	1,012600
12,750333	0,5	1,070200
12,758667	0,5	1,116500
12,767000	0,5	1,131800
12,775333	0,5	1,120900
12,783667	0,5	1,089000
12,792000	0,5	1,058800
12,800333	0,5	1,008350
12,808667	0,5	0,955250
12,817000	0,5	0,875150
12,825333	0,5	0,800950
12,833667	0,5	0,733950
12,842000	0,5	0,664200
12,850333	0,5	0,593500
12,858667	0,5	0,519100
12,867000	0,5	0,463700
12,875333	0,5	0,416950
12,883667	0,5	0,314650
12,892000	0,5	0,196500
12,900333	0,5	0,011400
12,908667	0,5	-0,305300
12,917000	0,5	-0,726100
12,925333	0,5	-1,066050
12,933667	0,5	-1,327250
12,942000	0,5	-1,601650
12,950333	0,5	-1,824850
12,958667	0,5	-1,982850
12,967000	0,5	-2,109450
12,975333	0,5	-2,196650
12,983667	0,5	-2,273050
12,992000	0,5	-2,338050
13,000333	0,5	-2,391450
13,008667	0,5	-2,447800
13,017000	0,5	-2,485500
13,025333	0,5	-2,510150
13,033667	0,5	-2,526550
13,042000	0,5	-2,540400
13,050333	0,5	-2,553250
13,058667	0,5	-2,556500
13,067000	0,5	-2,552100
13,075333	0,5	-2,550400
13,083667	0,5	-2,556100
13,092000	0,5	-2,564700
13,100333	0,5	-2,579500
13,108667	0,5	-2,591450
13,117000	0,5	-2,627700
13,125333	0,5	-2,641150
13,133667	0,5	-2,670950
13,142000	0,5	-2,693700
13,150333	0,5	-2,716850
13,158667	0,5	-2,745150
13,167000	0,5	-2,761850
13,175333	0,5	-2,767150
13,183667	0,5	-2,768500
13,192000	0,5	-2,771750
13,200333	0,5	-2,770850
13,208667	0,5	-2,771300
13,217000	0,5	-2,765950
13,225333	0,5	-2,755200
13,233667	0,5	-2,747550
13,242000	0,5	-2,746250
13,250333	0,5	-2,726400
13,258667	0,5	-2,712850
13,267000	0,5	-2,700500
13,275333	0,5	-2,663000
13,283667	0,5	-2,624400
13,292000	0,5	-2,596800
13,300333	0,5	-2,554400
13,308667	0,5	-2,527750
13,317000	0,5	-2,470650
13,325333	0,5	-2,443000
13,333667	0,5	-2,416450
13,342000	0,5	-2,394800
13,350333	0,5	-2,375700
13,358667	0,5	-2,367900
13,367000	0,5	-2,362000
13,375333	0,5	-2,359300
13,383667	0,5	-2,373700
13,392000	0,5	-2,383750
13,400333	0,5	-2,397900
13,408667	0,5	-2,415400
13,417000	0,5	-2,432750
13,425333	0,5	-2,441200
13,433667	0,5	-2,455800
13,442000	0,5	-2,470800
13,450333	0,5	-2,492050
13,458667	0,5	-2,505450
13,467000	0,5	-2,502750
13,475333	0,5	-2,503600
13,483667	0,5	-2,509800
13,492000	0,5	-2,501700
13,500333	0,5	-2,497450
13,508667	0,5	-2,493250
13,517000	0,5	-2,483450
13,525333	0,5	-2,472200
13,533667	0,5	-2,468250
13,542000	0,5	-2,456700
13,550333	0,5	-2,442600
13,558667	0,5	-2,436800
13,567000	0,5	-2,412400
13,575333	0,5	-2,389150
13,583667	0,5	-2,371000
13,592000	0,5	-2,353350
13,600333	0,5	-2,333600
13,608667	0,5	-2,315850
13,617000	0,5	-2,286550
13,625333	0,5	-2,266650
13,633667	0,5	-2,241400
13,642000	0,5	-2,225600
13,650333	0,5	-2,203350
13,658667	0,5	-2,188100
13,667000	0,5	-2,165200
13,675333	0,5	-2,153100
13,683667	0,5	-2,131650
13,692000	0,5	-2,102800
13,700333	0,5	-2,079700
13,708667	0,5	-2,062400
13,717000	0,5	-2,033600
13,725333	0,5	-2,002800
13,733667	0,5	-1,978850
13,742000	0,5	-1,949250
13,750333	0,5	-1,936600
13,758667	0,5	-1,914200
13,767000	0,5	-1,889850
13,775333	0,5	-1,863000
13,783667	0,5	-1,844700
13,792000	0,5	-1,827150
13,800333	0,5	-1,816400
13,808667	0,5	-1,802550
13,817000	0,5	-1,787350
13,825333	0,5	-1,775700
13,833667	0,5	-1,757950
13,842000	0,5	-1,730550
13,850333	0,5	-1,718850
13,858667	0,5	-1,694450
13,867000	0,5	-1,668550
13,875333	0,5	-1,643500
13,883667	0,5	-1,618550
13,892000	0,5	-1,602750
13,900333	0,5	-1,567200
13,908667	0,5	-1,530900
13,917000	0,5	-1,484050
13,925333	0,5	-1,436050
13,933667	0,5	-1,369700
13,942000	0,5	-1,294900
13,950333	0,5	-1,209050
13,958667	0,5	-1,126450
13,967000	0,5	-1,040200
13,975333	0,5	-0,966700
13,983667	0,5	-0,894550
13,992000	0,5	-0,844500
14,000333	0,5	-0,807900
14,008667	0,5	-0,762950
14,017000	0,5	-0,731950
14,025333	0,5	-0,722100
14,033667	0,5	-0,720600
14,042000	0,5	-0,732850
14,050333	0,5	-0,722350
14,058667	0,5	-0,698400
14,067000	0,5	-0,663650
14,075333	0,5	-0,605500
14,083667	0,5	-0,529400
14,092000	0,5	-0,435900
14,100333	0,5	-0,342800
14,108667	0,5	-0,247100
14,117000	0,5	-0,174800
14,125333	0,5	-0,126450
14,133667	0,5	-0,098900
14,142000	0,5	-0,086950
14,150333	0,5	-0,114150
14,158667	0,5	-0,114100
14,167000	0,5	-0,132600
14,175333	0,5	-0,146450
14,183667	0,5	-0,164050
14,192000	0,5	-0,170250
14,200333	0,5	-0,153050
14,208667	0,5	-0,138400
14,217000	0,5	-0,127100
14,225333	0,5	-0,112350
14,233667	0,5	-0,112750
14,242000	0,5	-0,100700
14,250333	0,5	-0,086400
14,258667	0,5	-0,074800
14,267000	0,5	-0,060250
14,275333	0,5	-0,052700
14,283667	0,5	-0,038850
14,292000	0,5	-0,034900
14,300333	0,5	-0,025250
14,308667	0,5	-0,020050
14,317000	0,5	-0,011400
14,325333	0,5	-0,001550
14,333667	0,5	0,003750
14,342000	0,5	0,024850
14,350333	0,5	0,053600
14,358667	0,5	0,070300
14,367000	0,5	0,085400
14,375333	0,5	0,088350
14,383667	0,5	0,091100
14,392000	0,5	0,079650
14,400333	0,5	0,069600
14,408667	0,5	0,058650
14,417000	0,5	0,041650
14,425333	0,5	0,026200
14,433667	0,5	0,015350
14,442000	0,5	-0,009200
14,450333	0,5	-0,009550
14,458667	0,5	-0,009450
14,467000	0,5	-0,015500
14,475333	0,5	-0,021150
14,483667	0,5	-0,038750
14,492000	0,5	-0,035750
14,500333	0,5	-0,024000
14,508667	0,5	-0,017500
14,517000	0,5	-0,022600
14,525333	0,5	-0,012200
14,533667	0,5	-0,009550
14,542000	0,5	-0,007300
14,550333	0,5	0,019050
14,558667	0,5	0,064100
14,567000	0,5	0,129100
14,575333	0,5	0,219500
14,583667	0,5	0,334700
14,592000	0,5	0,428100
14,600333	0,5	0,505050
14,608667	0,5	0,539600
14,617000	0,5	0,520800
14,625333	0,5	0,466050
14,633667	0,5	0,390100
14,642000	0,5	0,331100
14,650333	0,5	0,303650
14,658667	0,5	0,305250
14,667000	0,5	0,347700
14,675333	0,5	0,412400
14,683667	0,5	0,503500
14,692000	0,5	0,575150
14,700333	0,5	0,617300
14,708667	0,5	0,610800
14,717000	0,5	0,552700
14,725333	0,5	0,470100
14,733667	0,5	0,379750
14,742000	0,5	0,301400
14,750333	0,5	0,240700
14,758667	0,5	0,181650
14,767000	0,5	0,146350
14,775333	0,5	0,107650
14,783667	0,5	0,070200
14,792000	0,5	0,069550
14,800333	0,5	0,056400
14,808667	0,5	0,063450
14,817000	0,5	0,066850
14,825333	0,5	0,082250
14,833667	0,5	0,091850
14,842000	0,5	0,100250
14,850333	0,5	0,099850
14,858667	0,5	0,089900
14,867000	0,5	0,084550
14,875333	0,5	0,074200
14,883667	0,5	0,054800
14,892000	0,5	0,056700
14,900333	0,5	0,057350
14,908667	0,5	0,052150
14,917000	0,5	0,042500
14,925333	0,5	0,015550
14,933667	0,5	-0,009000
14,942000	0,5	-0,022400
14,950333	0,5	-0,038600
14,958667	0,5	-0,052600
14,967000	0,5	-0,064100
14,975333	0,5	-0,077950
14,983667	0,5	-0,079900
14,992000	0,5	-0,088800
15,000333	0,5	-0,094900
15,008667	0,5	-0,105400
15,017000	0,5	-0,107600
15,025333	0,5	-0,119850
15,033667	0,5	-0,133200
15,042000	0,5	-0,133750
15,050333	0,5	-0,122700
15,058667	0,5	-0,119800
15,067000	0,5	-0,114800
15,075333	0,5	-0,081500
15,083667	0,5	-0,008850
15,092000	0,5	0,090450
15,100333	0,5	0,201350
15,108667	0,5	0,324600
15,117000	0,5	0,421650
15,125333	0,5	0,466900
15,133667	0,5	0,460050
15,142000	0,5	0,415300
15,150333	0,5	0,343750
15,158667	0,5	0,313450
15,167000	0,5	0,307600
15,175333	0,5	0,341500
15,183667	0,5	0,423400
15,192000	0,5	0,509450
15,200333	0,5	0,552400
15,208667	0,5	0,547400
15,217000	0,5	0,474800
15,225333	0,5	0,387600
15,233667	0,5	0,305300
15,242000	0,5	0,220450
15,250333	0,5	0,162600
15,258667	0,5	0,122950
15,267000	0,5	0,102550
15,275333	0,5	0,077150
15,283667	0,5	0,064350
15,292000	0,5	0,045700
15,300333	0,5	0,029750
15,308667	0,5	0,004250
15,317000	0,5	-0,003950
15,325333	0,5	-0,028150
15,333667	0,5	-0,020050
15,342000	0,5	-0,024100
15,350333	0,5	-0,022550
15,358667	0,5	-0,031150
15,367000	0,5	-0,045250
15,375333	0,5	-0,046050
15,383667	0,5	-0,057600
15,392000	0,5	-0,081600
15,400333	0,5	-0,102450
15,408667	0,5	-0,131300
15,417000	0,5	-0,155150
15,425333	0,5	-0,178750
15,433667	0,5	-0,193800
15,442000	0,5	-0,211850
15,450333	0,5	-0,228950
15,458667	0,5	-0,227100
15,467000	0,5	-0,243900
15,475333	0,5	-0,268650
15,483667	0,5	-0,270000
15,492000	0,5	-0,277200
15,500333	0,5	-0,286650
15,508667	0,5	-0,288200
15,517000	0,5	-0,296400
15,525333	0,5	-0,259300
15,533667	0,5	-0,214600
15,542000	0,5	-0,131450
15,550333	0,5	-0,022350
15,558667	0,5	0,111800
15,567000	0,5	0,227400
15,575333	0,5	0,311150
15,583667	0,5	0,334300
15,592000	0,5	0,313000
15,600333	0,5	0,289000
15,608667	0,5	0,281000
15,617000	0,5	0,297750
15,625333	0,5	0,342600
15,633667	0,5	0,406450
15,642000	0,5	0,431550
15,650333	0,5	0,427200
15,658667	0,5	0,353700
15,667000	0,5	0,257000
15,675333	0,5	0,162300
15,683667	0,5	0,071650
15,692000	0,5	-0,012250
15,700333	0,5	-0,073450
15,708667	0,5	-0,118900
15,717000	0,5	-0,153250
15,725333	0,5	-0,177450
15,733667	0,5	-0,181350
15,742000	0,5	-0,186550
15,750333	0,5	-0,180850
15,758667	0,5	-0,164850
15,767000	0,5	-0,172450
15,775333	0,5	-0,162100
15,783667	0,5	-0,165900
15,792000	0,5	-0,184350
15,800333	0,5	-0,218400
15,808667	0,5	-0,252350
15,817000	0,5	-0,284800
15,825333	0,5	-0,299400
15,833667	0,5	-0,327300
15,842000	0,5	-0,346300
15,850333	0,5	-0,364750
15,858667	0,5	-0,372850
15,867000	0,5	-0,389450
15,875333	0,5	-0,396100
15,883667	0,5	-0,406200
15,892000	0,5	-0,413600
15,900333	0,5	-0,418900
15,908667	0,5	-0,421800
15,917000	0,5	-0,428850
15,925333	0,5	-0,407550
15,933667	0,5	-0,376350
15,942000	0,5	-0,322350
15,950333	0,5	-0,246050
15,958667	0,5	-0,133600
15,967000	0,5	0,013200
15,975333	0,5	0,134650
15,983667	0,5	0,207250
15,992000	0,5	0,247350
16,000333	0,5	0,248350
16,008667	0,5	0,257300
16,017000	0,5	0,287850
16,025333	0,5	0,321050
16,033667	0,5	0,347800
16,042000	0,5	0,331850
16,050333	0,5	0,285200
16,058667	0,5	0,173350
16,067000	0,5	0,081050
16,075333	0,5	-0,007650
16,083667	0,5	-0,082150
16,092000	0,5	-0,137550
16,100333	0,5	-0,192750
16,108667	0,5	-0,216050
16,117000	0,5	-0,220550
16,125333	0,5	-0,213600
16,133667	0,5	-0,216700
16,142000	0,5	-0,210950
16,150333	0,5	-0,208350
16,158667	0,5	-0,211450
16,167000	0,5	-0,217800
16,175333	0,5	-0,229450
16,183667	0,5	-0,251900
16,192000	0,5	-0,270850
16,200333	0,5	-0,288900
16,208667	0,5	-0,329750
16,217000	0,5	-0,335250
16,225333	0,5	-0,352450
16,233667	0,5	-0,387200
16,242000	0,5	-0,416600
16,250333	0,5	-0,466600
16,258667	0,5	-0,479650
16,267000	0,5	-0,497400
16,275333	0,5	-0,508600
16,283667	0,5	-0,516450
16,292000	0,5	-0,509500
16,300333	0,5	-0,473400
16,308667	0,5	-0,418400
16,317000	0,5	-0,324600
16,325333	0,5	-0,205900
16,333667	0,5	-0,070850
16,342000	0,5	0,035600
16,350333	0,5	0,110750
16,358667	0,5	0,127300
16,367000	0,5	0,151400
16,375333	0,5	0,152500
16,383667	0,5	0,160300
16,392000	0,5	0,138950
16,400333	0,5	0,100850
16,408667	0,5	0,058850
16,417000	0,5	-0,028150
16,425333	0,5	-0,119550
16,433667	0,5	-0,184550
16,442000	0,5	-0,232650
16,450333	0,5	-0,255800
16,458667	0,5	-0,255650
16,467000	0,5	-0,249450
16,475333	0,5	-0,239200
16,483667	0,5	-0,231650
16,492000	0,5	-0,204450
16,500333	0,5	-0,205550
16,508667	0,5	-0,189300
16,517000	0,5	-0,182650
16,525333	0,5	-0,182800
16,533667	0,5	-0,202150
16,542000	0,5	-0,232400
16,550333	0,5	-0,260150
16,558667	0,5	-0,260450
16,567000	0,5	-0,283000
16,575333	0,5	-0,290150
16,583667	0,5	-0,303700
16,592000	0,5	-0,305300
16,600333	0,5	-0,313350
16,608667	0,5	-0,316350
16,617000	0,5	-0,316400
16,625333	0,5	-0,324450
16,633667	0,5	-0,306000
16,642000	0,5	-0,261400
16,650333	0,5	-0,204150
16,658667	0,5	-0,102200
16,667000	0,5	-0,002800
16,675333	0,5	0,076200
16,683667	0,5	0,126450
16,692000	0,5	0,125900
16,700333	0,5	0,143550
16,708667	0,5	0,152400
16,717000	0,5	0,146650
16,725333	0,5	0,110700
16,733667	0,5	0,053800
16,742000	0,5	-0,035100
16,750333	0,5	-0,107500
16,758667	0,5	-0,189800
16,767000	0,5	-0,244000
16,775333	0,5	-0,282800
16,783667	0,5	-0,318500
16,792000	0,5	-0,328000
16,800333	0,5	-0,349650
16,808667	0,5	-0,346500
16,817000	0,5	-0,356350
16,825333	0,5	-0,360050
16,833667	0,5	-0,391750
16,842000	0,5	-0,410600
16,850333	0,5	-0,419700
16,858667	0,5	-0,420900
16,867000	0,5	-0,431200
16,875333	0,5	-0,432450
16,883667	0,5	-0,442050
16,892000	0,5	-0,441100
16,900333	0,5	-0,444250
16,908667	0,5	-0,439550
16,917000	0,5	-0,436300
16,925333	0,5	-0,420500
16,933667	0,5	-0,391450
16,942000	0,5	-0,390700
16,950333	0,5	-0,288450
16,958667	0,5	-0,182950
16,967000	0,5	-0,090300
16,975333	0,5	-0,001400
16,983667	0,5	0,065450
16,992000	0,5	0,121150
17,000333	0,5	0,202450
17,008667	0,5	0,267900
17,017000	0,5	0,345750
17,025333	0,5	0,411500
17,033667	0,5	0,477300
17,042000	0,5	0,548400
17,050333	0,5	0,650250
17,058667	0,5	0,755450
17,067000	0,5	0,864250
17,075333	0,5	0,987500
17,083667	0,5	1,082450
17,092000	0,5	1,146600
17,100333	0,5	1,218050
17,108667	0,5	1,279150
17,117000	0,5	1,311750
17,125333	0,5	1,328150
17,133667	0,5	1,309550
17,142000	0,5	1,279000
17,150333	0,5	1,216750
17,158667	0,5	1,130800
17,167000	0,5	1,021650
17,175333	0,5	0,903350
17,183667	0,5	0,775150
17,192000	0,5	0,646250
17,200333	0,5	0,543300
17,208667	0,5	0,476650
17,217000	0,5	0,435100
17,225333	0,5	0,453700
17,233667	0,5	0,483600
17,242000	0,5	0,554200
17,250333	0,5	0,629300
17,258667	0,5	0,693400
17,267000	0,5	0,730950
17,275333	0,5	0,734300
17,283667	0,5	0,714750
17,292000	0,5	0,671550
17,300333	0,5	0,593650
17,308667	0,5	0,484150
17,317000	0,5	0,385450
17,325333	0,5	0,296550
17,333667	0,5	0,234600
17,342000	0,5	0,196850
17,350333	0,5	0,187050
17,358667	0,5	0,188300
17,367000	0,5	0,215850
17,375333	0,5	0,240700
17,383667	0,5	0,245550
17,392000	0,5	0,271800
17,400333	0,5	0,287400
17,408667	0,5	0,294550
17,417000	0,5	0,294400
17,425333	0,5	0,251950
17,433667	0,5	0,233150
17,442000	0,5	0,202800
17,450333	0,5	0,161450
17,458667	0,5	0,113450
17,467000	0,5	0,069950
17,475333	0,5	0,066550
17,483667	0,5	0,055600
17,492000	0,5	0,075050
17,500333	0,5	0,070350
17,508667	0,5	0,078150
17,517000	0,5	0,050650
17,525333	0,5	0,041050
17,533667	0,5	-0,040150
17,542000	0,5	-0,082700
17,550333	0,5	-0,154650
17,558667	0,5	-0,225200
17,567000	0,5	-0,313700
17,575333	0,5	-0,374700
17,583667	0,5	-0,395150
17,592000	0,5	-0,423950
17,600333	0,5	-0,452400
17,608667	0,5	-0,470200
17,617000	0,5	-0,505100
17,625333	0,5	-0,524700
17,633667	0,5	-0,541700
17,642000	0,5	-0,558450
17,650333	0,5	-0,576400
17,658667	0,5	-0,592400
17,667000	0,5	-0,588550
17,675333	0,5	-0,602750
17,683667	0,5	-0,596250
17,692000	0,5	-0,575400
17,700333	0,5	-0,544800
17,708667	0,5	-0,517150
17,717000	0,5	-0,471150
17,725333	0,5	-0,428150
17,733667	0,5	-0,370400
17,742000	0,5	-0,334700
17,750333	0,5	-0,316100
17,758667	0,5	-0,325750
17,767000	0,5	-0,351050
17,775333	0,5	-0,389600
17,783667	0,5	-0,431550
17,792000	0,5	-0,472250
17,800333	0,5	-0,507700
17,808667	0,5	-0,527100
17,817000	0,5	-0,547050
17,825333	0,5	-0,568400
17,833667	0,5	-0,588500
17,842000	0,5	-0,601350
17,850333	0,5	-0,616000
17,858667	0,5	-0,633950
17,867000	0,5	-0,660700
17,875333	0,5	-0,669950
17,883667	0,5	-0,663100
17,892000	0,5	-0,651050
17,900333	0,5	-0,632300
17,908667	0,5	-0,602950
17,917000	0,5	-0,554300
17,925333	0,5	-0,493750
17,933667	0,5	-0,441350
17,942000	0,5	-0,406000
17,950333	0,5	-0,383250
17,958667	0,5	-0,382450
17,967000	0,5	-0,396200
17,975333	0,5	-0,433100
17,983667	0,5	-0,459450
17,992000	0,5	-0,491800
18,000333	0,5	-0,523100
18,008667	0,5	-0,579050
18,017000	0,5	-0,606000
18,025333	0,5	-0,626450
18,033667	0,5	-0,638250
18,042000	0,5	-0,655900
18,050333	0,5	-0,653950
18,058667	0,5	-0,660500
18,067000	0,5	-0,670200
18,075333	0,5	-0,669300
18,083667	0,5	-0,665250
18,092000	0,5	-0,650300
18,100333	0,5	-0,612150
18,108667	0,5	-0,559300
18,117000	0,5	-0,528300
18,125333	0,5	-0,484800
18,133667	0,5	-0,453050
18,142000	0,5	-0,445100
18,150333	0,5	-0,465200
18,158667	0,5	-0,510550
18,167000	0,5	-0,553400
18,175333	0,5	-0,572300
18,183667	0,5	-0,610550
18,192000	0,5	-0,639750
18,200333	0,5	-0,662000
18,208667	0,5	-0,670900
18,217000	0,5	-0,693850
18,225333	0,5	-0,705200
18,233667	0,5	-0,720300
18,242000	0,5	-0,732650
18,250333	0,5	-0,737600
18,258667	0,5	-0,731800
18,267000	0,5	-0,744700
18,275333	0,5	-0,710150
18,283667	0,5	-0,690250
18,292000	0,5	-0,674350
18,300333	0,5	-0,657550
18,308667	0,5	-0,666300
18,317000	0,5	-0,658200
18,325333	0,5	-0,674500
18,333667	0,5	-0,695200
18,342000	0,5	-0,716300
18,350333	0,5	-0,741900
18,358667	0,5	-0,767750
18,367000	0,5	-0,779900
18,375333	0,5	-0,791600
18,383667	0,5	-0,797000
18,392000	0,5	-0,814750
18,400333	0,5	-0,806700
18,408667	0,5	-0,819250
18,417000	0,5	-0,824800
18,425333	0,5	-0,813400
18,433667	0,5	-0,816750
18,442000	0,5	-0,820700
18,450333	0,5	-0,841450
18,458667	0,5	-0,845450
18,467000	0,5	-0,820400
18,475333	0,5	-0,810400
18,483667	0,5	-0,816900
18,492000	0,5	-0,823000
18,500333	0,5	-0,847550
18,508667	0,5	-0,868400
18,517000	0,5	-0,897800
18,525333	0,5	-0,914050
18,533667	0,5	-0,949150
18,542000	0,5	-0,959000
18,550333	0,5	-0,970600
18,558667	0,5	-0,993350
18,567000	0,5	-0,997250
18,575333	0,5	-1,000400
18,583667	0,5	-1,006750
18,592000	0,5	-1,015550
18,600333	0,5	-1,035000
18,608667	0,5	-1,037000
18,617000	0,5	-0,993550
18,625333	0,5	-0,976700
18,633667	0,5	-0,956400
18,642000	0,5	-0,954200
18,650333	0,5	-0,957050
18,658667	0,5	-0,979550
18,667000	0,5	-0,988700
18,675333	0,5	-1,004600
18,683667	0,5	-1,010150
18,692000	0,5	-1,011500
18,700333	0,5	-1,001550
18,708667	0,5	-1,030950
18,717000	0,5	-1,014300
18,725333	0,5	-1,019300
18,733667	0,5	-1,007450
18,742000	0,5	-1,008150
18,750333	0,5	-1,005150
18,758667	0,5	-0,990400
18,767000	0,5	-0,978950
18,775333	0,5	-0,992350
18,783667	0,5	-1,002700
18,792000	0,5	-1,021700
18,800333	0,5	-1,057300
18,808667	0,5	-1,084300
18,817000	0,5	-1,127600
18,825333	0,5	-1,142650
18,833667	0,5	-1,168750
18,842000	0,5	-1,160500
18,850333	0,5	-1,166500
18,858667	0,5	-1,173300
18,867000	0,5	-1,166300
18,875333	0,5	-1,158300
18,883667	0,5	-1,156100
18,892000	0,5	-1,172900
18,900333	0,5	-1,183450
18,908667	0,5	-1,190550
18,917000	0,5	-1,213950
18,925333	0,5	-1,231900
18,933667	0,5	-1,253650
18,942000	0,5	-1,268550
18,950333	0,5	-1,282400
18,958667	0,5	-1,293550
18,967000	0,5	-1,295800
18,975333	0,5	-1,306450
18,983667	0,5	-1,297200
18,992000	0,5	-1,289350
19,000333	0,5	-1,286500
19,008667	0,5	-1,280000
19,017000	0,5	-1,269300
19,025333	0,5	-1,291300
19,033667	0,5	-1,301400
19,042000	0,5	-1,337700
19,050333	0,5	-1,343100
19,058667	0,5	-1,347700
19,067000	0,5	-1,345400
19,075333	0,5	-1,365100
19,083667	0,5	-1,368350
19,092000	0,5	-1,370950
19,100333	0,5	-1,379650
19,108667	0,5	-1,373850
19,117000	0,5	-1,385500
19,125333	0,5	-1,394700
19,133667	0,5	-1,401650
19,142000	0,5	-1,413200
19,150333	0,5	-1,430350
19,158667	0,5	-1,438450
19,167000	0,5	-1,453750
19,175333	0,5	-1,460950
19,183667	0,5	-1,502050
19,192000	0,5	-1,510950
19,200333	0,5	-1,511850
19,208667	0,5	-1,497950
19,217000	0,5	-1,513750
19,225333	0,5	-1,514450
19,233667	0,5	-1,530800
19,242000	0,5	-1,538800
19,250333	0,5	-1,543050
19,258667	0,5	-1,554700
19,267000	0,5	-1,552500
19,275333	0,5	-1,559350
19,283667	0,5	-1,555750
19,292000	0,5	-1,569100
19,300333	0,5	-1,567600
19,308667	0,5	-1,569100
19,317000	0,5	-1,576650
19,325333	0,5	-1,595050
19,333667	0,5	-1,642850
19,342000	0,5	-1,659400
19,350333	0,5	-1,647050
19,358667	0,5	-1,663400
19,367000	0,5	-1,667150
19,375333	0,5	-1,676050
19,383667	0,5	-1,673600
19,392000	0,5	-1,672600
19,400333	0,5	-1,673750
19,408667	0,5	-1,683000
19,417000	0,5	-1,681950
19,425333	0,5	-1,674550
19,433667	0,5	-1,685450
19,442000	0,5	-1,715900
19,450333	0,5	-1,704250
19,458667	0,5	-1,698950
19,467000	0,5	-1,713050
19,475333	0,5	-1,718350
19,483667	0,5	-1,752250
19,492000	0,5	-1,746950
19,500333	0,5	-1,764400
19,508667	0,5	-1,770450
19,517000	0,5	-1,791800
19,525333	0,5	-1,791350
19,533667	0,5	-1,801500
19,542000	0,5	-1,808050
19,550333	0,5	-1,821600
19,558667	0,5	-1,833350
19,567000	0,5	-1,841050
19,575333	0,5	-1,840150
19,583667	0,5	-1,845950
19,592000	0,5	-1,853600
19,600333	0,5	-1,843250
19,608667	0,5	-1,854950
19,617000	0,5	-1,863700
19,625333	0,5	-1,892100
19,633667	0,5	-1,896100
19,642000	0,5	-1,901050
19,650333	0,5	-1,896550
19,658667	0,5	-1,916900
19,667000	0,5	-1,907500
19,675333	0,5	-1,926500
19,683667	0,5	-1,939200
19,692000	0,5	-1,945500
19,700333	0,5	-1,948800
19,708667	0,5	-1,966600
19,717000	0,5	-1,980350
19,725333	0,5	-1,990100
19,733667	0,5	-2,011200
19,742000	0,5	-2,013050
19,750333	0,5	-2,033600
19,758667	0,5	-2,045650
19,767000	0,5	-2,075050
19,775333	0,5	-2,110100
19,783667	0,5	-2,126500
19,792000	0,5	-2,126800
19,800333	0,5	-2,147950
19,808667	0,5	-2,151550
19,817000	0,5	-2,167000
19,825333	0,5	-2,168050
19,833667	0,5	-2,185950
19,842000	0,5	-2,185900
19,850333	0,5	-2,204900
19,858667	0,5	-2,224950
19,867000	0,5	-2,212350
19,875333	0,5	-2,217900
19,883667	0,5	-2,233700
19,892000	0,5	-2,236700
19,900333	0,5	-2,247300
19,908667	0,5	-2,247550
19,917000	0,5	-2,276450
19,925333	0,5	-2,304200
19,933667	0,5	-2,294900
19,942000	0,5	-2,303950
19,950333	0,5	-2,302750
19,958667	0,5	-2,314350
19,967000	0,5	-2,320500
19,975333	0,5	-2,346300
19,983667	0,5	-2,353100
19,992000	0,5	-2,370250
20,000333	0,5	-2,387800
20,008667	0,5	-2,413700
20,017000	0,5	-2,415150
20,025333	0,5	-2,445750
20,033667	0,5	-2,456500
20,042000	0,5	-2,468350
20,050333	0,5	-2,482150
20,058667	0,5	-2,512500
20,067000	0,5	-2,555000
20,075333	0,5	-2,577050
20,083667	0,5	-2,592750
20,092000	0,5	-2,595650
20,100333	0,5	-2,615750
20,108667	0,5	-2,617850
20,117000	0,5	-2,624350
20,125333	0,5	-2,633500
20,133667	0,5	-2,644850
20,142000	0,5	-2,644350
20,150333	0,5	-2,655000
20,158667	0,5	-2,644750
20,167000	0,5	-2,646600
20,175333	0,5	-2,652600
20,183667	0,5	-2,660350
20,192000	0,5	-2,656450
20,200333	0,5	-2,665200
20,208667	0,5	-2,690500
20,217000	0,5	-2,729300
20,225333	0,5	-2,742800
20,233667	0,5	-2,744650
20,242000	0,5	-2,760800
20,250333	0,5	-2,781250
20,258667	0,5	-2,788800
20,267000	0,5	-2,793900
20,275333	0,5	-2,825200
20,283667	0,5	-2,827350
20,292000	0,5	-2,841300
20,300333	0,5	-2,858850
20,308667	0,5	-2,859500
20,317000	0,5	-2,885750
20,325333	0,5	-2,916350
20,333667	0,5	-2,932000
20,342000	0,5	-2,953250
20,350333	0,5	-2,983100
20,358667	0,5	-3,031550
20,367000	0,5	-3,067200
20,375333	0,5	-3,070300
20,383667	0,5	-3,105050
20,392000	0,5	-3,130900
20,400333	0,5	-3,145700
20,408667	0,5	-3,171100
20,417000	0,5	-3,192550
20,425333	0,5	-3,204300
20,433667	0,5	-3,230750
20,442000	0,5	-3,245650
20,450333	0,5	-3,252450
20,458667	0,5	-3,256750
20,467000	0,5	-3,288150
20,475333	0,5	-3,305550
20,483667	0,5	-3,330050
20,492000	0,5	-3,337000
20,500333	0,5	-3,360150
20,508667	0,5	-3,378400
20,517000	0,5	-3,346900
20,525333	0,5	-3,339350
20,533667	0,5	-3,341150
20,542000	0,5	-3,366000
20,550333	0,5	-3,396150
20,558667	0,5	-3,442150
20,567000	0,5	-3,499100
20,575333	0,5	-3,550750
20,583667	0,5	-3,593350
20,592000	0,5	-3,646200
20,600333	0,5	-3,652250
20,608667	0,5	-3,677600
20,617000	0,5	-3,727550
20,625333	0,5	-3,754800
20,633667	0,5	-3,787200
20,642000	0,5	-3,834600
20,650333	0,5	-3,880650
20,658667	0,5	-3,937800
20,667000	0,5	-3,939850
20,675333	0,5	-3,948750
20,683667	0,5	-3,950450
20,692000	0,5	-3,937100
20,700333	0,5	-3,909600
20,708667	0,5	-3,875500
20,717000	0,5	-3,879500
20,725333	0,5	-3,897200
20,733667	0,5	-3,961100
20,742000	0,5	-4,026800
20,750333	0,5	-4,082000
20,758667	0,5	-4,162700
20,767000	0,5	-4,246050
20,775333	0,5	-4,304650
20,783667	0,5	-4,372850
20,792000	0,5	-4,435150
20,800333	0,5	-4,529200
20,808667	0,5	-4,578250
20,817000	0,5	-4,612750
20,825333	0,5	-4,656750
20,833667	0,5	-4,707750
20,842000	0,5	-4,744050
20,850333	0,5	-4,782600
20,858667	0,5	-4,819150
20,867000	0,5	-4,839250
20,875333	0,5	-4,875650
20,883667	0,5	-4,894350
20,892000	0,5	-4,906100
20,900333	0,5	-4,929300
20,908667	0,5	-4,976250
20,917000	0,5	-5,031250
20,925333	0,5	-5,083800
20,933667	0,5	-5,119600
20,942000	0,5	-5,194950
20,950333	0,5	-5,258600
20,958667	0,5	-5,277700
20,967000	0,5	-5,315550
20,975333	0,5	-5,356700
20,983667	0,5	-5,387350
20,992000	0,5	-5,419100
21,000333	0,5	-5,461400
21,008667	0,5	-5,493500
21,017000	0,5	-5,520500
21,025333	0,5	-5,551500
21,033667	0,5	-5,581200
21,042000	0,5	-5,577300
21,050333	0,5	-5,597400
21,058667	0,5	-5,631400
21,067000	0,5	-5,658250
21,075333	0,5	-5,692600
21,083667	0,5	-5,748000
21,092000	0,5	-5,811550
21,100333	0,5	-5,865100
21,108667	0,5	-5,885450
21,117000	0,5	-5,931750
21,125333	0,5	-5,963900
21,133667	0,5	-5,997650
21,142000	0,5	-6,015850
21,150333	0,5	-6,055900
21,158667	0,5	-6,080350
21,167000	0,5	-6,102850
21,175333	0,5	-6,135450
21,183667	0,5	-6,135000
21,192000	0,5	-6,140250
21,200333	0,5	-6,155100
21,208667	0,5	-6,181300
21,217000	0,5	-6,208200
21,225333	0,5	-6,252350
21,233667	0,5	-6,295800
21,242000	0,5	-6,329400
21,250333	0,5	-6,345500
21,258667	0,5	-6,351650
21,267000	0,5	-6,360350
21,275333	0,5	-6,377950
21,283667	0,5	-6,380950
21,292000	0,5	-6,397850
21,300333	0,5	-6,426000
21,308667	0,5	-6,436050
21,317000	0,5	-6,473850
21,325333	0,5	-6,497700
21,333667	0,5	-6,488000
21,342000	0,5	-6,499600
21,350333	0,5	-6,526500
21,358667	0,5	-6,541950
21,367000	0,5	-6,577800
21,375333	0,5	-6,605000
21,383667	0,5	-6,665000
21,392000	0,5	-6,680650
21,400333	0,5	-6,685600
21,408667	0,5	-6,696400
21,417000	0,5	-6,718500
21,425333	0,5	-6,721450
21,433667	0,5	-6,744950
21,442000	0,5	-6,770550
21,450333	0,5	-6,769350
21,458667	0,5	-6,788050
21,467000	0,5	-6,810250
21,475333	0,5	-6,810000
21,483667	0,5	-6,800150
21,492000	0,5	-6,815600
21,500333	0,5	-6,827200
21,508667	0,5	-6,844900
21,517000	0,5	-6,868550
21,525333	0,5	-6,913550
21,533667	0,5	-6,949400
21,542000	0,5	-6,950650
21,550333	0,5	-6,961650
21,558667	0,5	-6,982600
21,567000	0,5	-6,996150
21,575333	0,5	-6,991650
21,583667	0,5	-7,013000
21,592000	0,5	-7,010200
21,600333	0,5	-7,016250
21,608667	0,5	-7,022400
21,617000	0,5	-7,030650
21,625333	0,5	-6,994900
21,633667	0,5	-6,977000
21,642000	0,5	-6,981750
21,650333	0,5	-6,987400
21,658667	0,5	-6,978300
21,667000	0,5	-6,997550
21,675333	0,5	-7,034750
21,683667	0,5	-7,071250
21,692000	0,5	-7,083800
21,700333	0,5	-7,108800
21,708667	0,5	-7,127100
21,717000	0,5	-7,149250
21,725333	0,5	-7,169500
21,733667	0,5	-7,191400
21,742000	0,5	-7,225450
21,750333	0,5	-7,246900
21,758667	0,5	-7,262600
21,767000	0,5	-7,265850
21,775333	0,5	-7,265650
21,783667	0,5	-7,302800
21,792000	0,5	-7,319300
21,800333	0,5	-7,336750
21,808667	0,5	-7,359650
21,817000	0,5	-7,394550
21,825333	0,5	-7,441300
21,833667	0,5	-7,435800
21,842000	0,5	-7,446800
21,850333	0,5	-7,454450
21,858667	0,5	-7,471700
21,867000	0,5	-7,477000
21,875333	0,5	-7,495850
21,883667	0,5	-7,507500
21,892000	0,5	-7,509550
21,900333	0,5	-7,506100
21,908667	0,5	-7,472100
21,917000	0,5	-7,407100
21,925333	0,5	-7,334500
21,933667	0,5	-7,301950
21,942000	0,5	-7,287500
21,950333	0,5	-7,321100
21,958667	0,5	-7,386300
21,967000	0,5	-7,456200
21,975333	0,5	-7,528400
21,983667	0,5	-7,560150
21,992000	0,5	-7,597900
22,000333	0,5	-7,646600
22,008667	0,5	-7,677900
22,017000	0,5	-7,705950
22,025333	0,5	-7,745000
22,033667	0,5	-7,759250
22,042000	0,5	-7,793400
22,050333	0,5	-7,816750
22,058667	0,5	-7,848550
22,067000	0,5	-7,855750
22,075333	0,5	-7,899350
22,083667	0,5	-7,908500
22,092000	0,5	-7,916050
22,100333	0,5	-7,939700
22,108667	0,5	-7,974650
22,117000	0,5	-8,010200
22,125333	0,5	-8,025150
22,133667	0,5	-8,025450
22,142000	0,5	-8,037000
22,150333	0,5	-8,053550
22,158667	0,5	-8,067250
22,167000	0,5	-8,084200
22,175333	0,5	-8,106600
22,183667	0,5	-8,107600
22,192000	0,5	-8,120800
22,200333	0,5	-8,131050
22,208667	0,5	-8,149200
22,217000	0,5	-8,173000
22,225333	0,5	-8,152850
22,233667	0,5	-8,144650
22,242000	0,5	-8,147450
22,250333	0,5	-8,154450
22,258667	0,5	-8,165150
22,267000	0,5	-8,179600
22,275333	0,5	-8,166550
22,283667	0,5	-8,157100
22,292000	0,5	-8,149450
22,300333	0,5	-8,142750
22,308667	0,5	-8,129350
22,317000	0,5	-8,115250
22,325333	0,5	-8,108150
22,333667	0,5	-8,074300
22,342000	0,5	-8,032800
22,350333	0,5	-7,956750
22,358667	0,5	-7,886000
22,367000	0,5	-7,777750
22,375333	0,5	-7,709750
22,383667	0,5	-7,705600
22,392000	0,5	-7,778050
22,400333	0,5	-7,847100
22,408667	0,5	-7,918200
22,417000	0,5	-7,969300
22,425333	0,5	-7,995050
22,433667	0,5	-8,016850
22,442000	0,5	-8,042200
22,450333	0,5	-8,040150
22,458667	0,5	-8,056500
22,467000	0,5	-8,068150
22,475333	0,5	-8,075850
22,483667	0,5	-8,073500
22,492000	0,5	-8,066450
22,500333	0,5	-8,121300
22,508667	0,5	-8,107100
22,517000	0,5	-8,066250
22,525333	0,5	-8,030100
22,533667	0,5	-8,007400
22,542000	0,5	-7,987800
22,550333	0,5	-7,986450
22,558667	0,5	-7,965800
22,567000	0,5	-7,934500
22,575333	0,5	-7,925900
22,583667	0,5	-7,923150
22,592000	0,5	-7,920600
22,600333	0,5	-7,915900
22,608667	0,5	-7,911650
22,617000	0,5	-7,911150
22,625333	0,5	-7,910850
22,633667	0,5	-7,915950
22,642000	0,5	-7,959000
22,650333	0,5	-7,985300
22,658667	0,5	-7,995750
22,667000	0,5	-7,949150
22,675333	0,5	-7,961050
22,683667	0,5	-7,970050
22,692000	0,5	-7,989150
22,700333	0,5	-8,038650
22,708667	0,5	-8,037800
22,717000	0,5	-8,036750
22,725333	0,5	-8,065850
22,733667	0,5	-8,082450
22,742000	0,5	-8,101950
22,750333	0,5	-8,115200
22,758667	0,5	-8,133100
22,767000	0,5	-8,137950
22,775333	0,5	-8,145550
22,783667	0,5	-8,172550
22,792000	0,5	-8,300950
22,800333	0,5	-8,305150
22,808667	0,5	-8,288000
22,817000	0,5	-8,295250
22,825333	0,5	-8,322650
22,833667	0,5	-8,343450
22,842000	0,5	-8,372550
22,850333	0,5	-8,403100
22,858667	0,5	-8,439150
22,867000	0,5	-8,459400
22,875333	0,5	-8,480450
22,883667	0,5	-8,495250
22,892000	0,5	-8,502850
22,900333	0,5	-8,514950
22,908667	0,5	-8,503200
22,917000	0,5	-8,502950
22,925333	0,5	-8,482950
22,933667	0,5	-8,459950
22,942000	0,5	-8,494900
22,950333	0,5	-8,442600
22,958667	0,5	-8,429900
22,967000	0,5	-8,432750
22,975333	0,5	-8,420200
22,983667	0,5	-8,390200
22,992000	0,5	-8,347300
23,000333	0,5	-8,322250
23,008667	0,5	-8,308400
23,017000	0,5	-8,273000
23,025333	0,5	-8,207750
23,033667	0,5	-8,153450
23,042000	0,5	-8,076800
23,050333	0,5	-8,030050
23,058667	0,5	-7,955550
23,067000	0,5	-7,879650
23,075333	0,5	-7,815400
23,083667	0,5	-7,692350
23,092000	0,5	-7,613050
23,100333	0,5	-7,527350
23,108667	0,5	-7,503200
23,117000	0,5	-7,426900
23,125333	0,5	-7,358550
23,133667	0,5	-7,257450
23,142000	0,5	-7,179550
23,150333	0,5	-7,109400
23,158667	0,5	-7,034600
23,167000	0,5	-6,947550
23,175333	0,5	-6,869650
23,183667	0,5	-6,788800
23,192000	0,5	-6,689950
23,200333	0,5	-6,606600
23,208667	0,5	-6,499450
23,217000	0,5	-6,404050
23,225333	0,5	-6,280300
23,233667	0,5	-6,233200
23,242000	0,5	-6,097750
23,250333	0,5	-5,975400
23,258667	0,5	-5,926650
23,267000	0,5	-5,850450
23,275333	0,5	-5,769450
23,283667	0,5	-5,679950
23,292000	0,5	-5,586050
23,300333	0,5	-5,528000
23,308667	0,5	-5,459950
23,317000	0,5	-5,389800
23,325333	0,5	-5,311350
23,333667	0,5	-5,229400
23,342000	0,5	-5,152950
23,350333	0,5	-5,082000
23,358667	0,5	-4,998800
23,367000	0,5	-4,918100
23,375333	0,5	-4,828400
23,383667	0,5	-4,824000
23,392000	0,5	-4,701400
23,400333	0,5	-4,601500
23,408667	0,5	-4,553700
23,417000	0,5	-4,490350
23,425333	0,5	-4,435000
23,433667	0,5	-4,362000
23,442000	0,5	-4,310800
23,450333	0,5	-4,266800
23,458667	0,5	-4,228100
23,467000	0,5	-4,175200
23,475333	0,5	-4,125700
23,483667	0,5	-4,074600
23,492000	0,5	-4,031700
23,500333	0,5	-3,977450
23,508667	0,5	-3,927300
23,517000	0,5	-3,871900
23,525333	0,5	-3,972050
23,533667	0,5	-3,912000
23,542000	0,5	-3,808250
23,550333	0,5	-3,733200
23,558667	0,5	-3,684700
23,567000	0,5	-3,649100
23,575333	0,5	-3,609750
23,583667	0,5	-3,577600
23,592000	0,5	-3,546050
23,600333	0,5	-3,514500
23,608667	0,5	-3,479250
23,617000	0,5	-3,450200
23,625333	0,5	-3,414700
23,633667	0,5	-3,385200
23,642000	0,5	-3,354550
23,650333	0,5	-3,320700
23,658667	0,5	-3,290150
23,667000	0,5	-3,285900
23,675333	0,5	-3,402500
23,683667	0,5	-3,355650
23,692000	0,5	-3,269100
23,700333	0,5	-3,208700
23,708667	0,5	-3,179150
23,717000	0,5	-3,147550
23,725333	0,5	-3,128650
23,733667	0,5	-3,111700
23,742000	0,5	-3,079600
23,750333	0,5	-3,056150
23,758667	0,5	-3,031400
23,767000	0,5	-3,007350
23,775333	0,5	-2,979250
23,783667	0,5	-2,952200
23,792000	0,5	-2,923850
23,800333	0,5	-2,893250
23,808667	0,5	-2,862200
23,817000	0,5	-3,016400
23,825333	0,5	-2,995650
23,833667	0,5	-2,949800
23,842000	0,5	-2,852500
23,850333	0,5	-2,802000
23,858667	0,5	-2,753350
23,867000	0,5	-2,732800
23,875333	0,5	-2,721650
23,883667	0,5	-2,693050
23,892000	0,5	-2,665100
23,900333	0,5	-2,637350
23,908667	0,5	-2,613300
23,917000	0,5	-2,593200
23,925333	0,5	-2,572750
23,933667	0,5	-2,545550
23,942000	0,5	-2,519800
23,950333	0,5	-2,492700
23,958667	0,5	-2,486100
23,967000	0,5	-2,657150
23,975333	0,5	-2,618150
23,983667	0,5	-2,551850
23,992000	0,5	-2,475350
24,000333	0,5	-2,424350
24,008667	0,5	-2,387250
24,017000	0,5	-2,369800
24,025333	0,5	-2,362950
24,033667	0,5	-2,322050
24,042000	0,5	-2,288650
24,050333	0,5	-2,254300
24,058667	0,5	-2,223650
24,067000	0,5	-2,193100
24,075333	0,5	-2,163950
24,083667	0,5	-2,135150
24,092000	0,5	-2,100350
24,100333	0,5	-2,077050
24,108667	0,5	-2,121400
24,117000	0,5	-2,218650
24,125333	0,5	-2,167600
24,133667	0,5	-2,109450
24,142000	0,5	-2,044300
24,150333	0,5	-2,017050
24,158667	0,5	-1,985800
24,167000	0,5	-1,976200
24,175333	0,5	-1,967200
24,183667	0,5	-1,937050
24,192000	0,5	-1,903050
24,200333	0,5	-1,884350
24,208667	0,5	-1,852050
24,217000	0,5	-1,826550
24,225333	0,5	-1,804050
24,233667	0,5	-1,774250
24,242000	0,5	-1,746600
24,250333	0,5	-1,715450
24,258667	0,5	-1,831400
24,267000	0,5	-1,803450
24,275333	0,5	-1,765300
24,283667	0,5	-1,702950
24,292000	0,5	-1,660650
24,300333	0,5	-1,629550
24,308667	0,5	-1,615200
24,317000	0,5	-1,599300
24,325333	0,5	-1,592500
24,333667	0,5	-1,563750
24,342000	0,5	-1,544350
24,350333	0,5	-1,519700
24,358667	0,5	-1,499700
24,367000	0,5	-1,483600
24,375333	0,5	-1,464500
24,383667	0,5	-1,443850
24,392000	0,5	-1,417800
24,400333	0,5	-1,414700
24,408667	0,5	-1,502200
24,417000	0,5	-1,481600
24,425333	0,5	-1,431650
24,433667	0,5	-1,396500
24,442000	0,5	-1,371400
24,450333	0,5	-1,346700
24,458667	0,5	-1,334300
24,467000	0,5	-1,328750
24,475333	0,5	-1,300350
24,483667	0,5	-1,285300
24,492000	0,5	-1,264700
24,500333	0,5	-1,249500
24,508667	0,5	-1,224950
24,517000	0,5	-1,207650
24,525333	0,5	-1,185200
24,533667	0,5	-1,169500
24,542000	0,5	-1,155400
24,550333	0,5	-1,182950
24,558667	0,5	-1,210800
24,567000	0,5	-1,194850
24,575333	0,5	-1,156650
24,583667	0,5	-1,129550
24,592000	0,5	-1,110900
24,600333	0,5	-1,102500
24,608667	0,5	-1,107400
24,617000	0,5	-1,095050
24,625333	0,5	-1,083350
24,633667	0,5	-1,063600
24,642000	0,5	-1,067500
24,650333	0,5	-1,050450
24,658667	0,5	-1,037100
24,667000	0,5	-1,024600
24,675333	0,5	-1,013350
24,683667	0,5	-1,000550
24,692000	0,5	-0,989800
24,700333	0,5	-1,035450
24,708667	0,5	-1,013350
24,717000	0,5	-0,994850
24,725333	0,5	-0,965550
24,733667	0,5	-0,947100
24,742000	0,5	-0,939250
24,750333	0,5	-0,930550
24,758667	0,5	-0,928300
24,767000	0,5	-0,916550
24,775333	0,5	-0,903800
24,783667	0,5	-0,895000
24,792000	0,5	-0,893100
24,800333	0,5	-0,886100
24,808667	0,5	-0,885300
24,817000	0,5	-0,878350
24,825333	0,5	-0,869550
24,833667	0,5	-0,860200
24,842000	0,5	-0,864750
24,850333	0,5	-0,894950
24,858667	0,5	-0,880000
24,867000	0,5	-0,863250
24,875333	0,5	-0,848750
24,883667	0,5	-0,838000
24,892000	0,5	-0,823650
24,900333	0,5	-0,817000
24,908667	0,5	-0,818550
24,917000	0,5	-0,804200
24,925333	0,5	-0,793500
24,933667	0,5	-0,790500
24,942000	0,5	-0,781400
24,950333	0,5	-0,769100
24,958667	0,5	-0,770350
24,967000	0,5	-0,759700
24,975333	0,5	-0,758900
24,983667	0,5	-0,750150
24,992000	0,5	-0,771300
25,000333	0,5	-0,769650
25,008667	0,5	-0,766450
25,017000	0,5	-0,755850
25,025333	0,5	-0,749050
25,033667	0,5	-0,742500
25,042000	0,5	-0,741500
25,050333	0,5	-0,745900
25,058667	0,5	-0,741150
25,067000	0,5	-0,737000
25,075333	0,5	-0,730100
25,083667	0,5	-0,731400
25,092000	0,5	-0,723850
25,100333	0,5	-0,719050
25,108667	0,5	-0,711050
25,117000	0,5	-0,703750
25,125333	0,5	-0,697150
25,133667	0,5	-0,694150
25,142000	0,5	-0,700400
25,150333	0,5	-0,687100
25,158667	0,5	-0,682500
25,167000	0,5	-0,681300
25,175333	0,5	-0,681700
25,183667	0,5	-0,683000
25,192000	0,5	-0,680800
25,200333	0,5	-0,683000
25,208667	0,5	-0,682850
25,217000	0,5	-0,682650
25,225333	0,5	-0,683450
25,233667	0,5	-0,680350
25,242000	0,5	-0,681700
25,250333	0,5	-0,678300
25,258667	0,5	-0,677500
25,267000	0,5	-0,674150
25,275333	0,5	-0,670800
25,283667	0,5	-0,669900
25,292000	0,5	-0,659600
25,300333	0,5	-0,648850
25,308667	0,5	-0,648900
25,317000	0,5	-0,646000
25,325333	0,5	-0,643600
25,333667	0,5	-0,638300
25,342000	0,5	-0,639750
25,350333	0,5	-0,633650
25,358667	0,5	-0,629400
25,367000	0,5	-0,634350
25,375333	0,5	-0,631050
25,383667	0,5	-0,633650
25,392000	0,5	-0,640350
25,400333	0,5	-0,634300
25,408667	0,5	-0,637350
25,417000	0,5	-0,638350
25,425333	0,5	-0,635550
25,433667	0,5	-0,630650
25,442000	0,5	-0,618050
25,450333	0,5	-0,616450
25,458667	0,5	-0,621600
25,467000	0,5	-0,619200
25,475333	0,5	-0,617300
25,483667	0,5	-0,617500
25,492000	0,5	-0,611950
25,500333	0,5	-0,607850
25,508667	0,5	-0,609900
25,517000	0,5	-0,601200
25,525333	0,5	-0,600400
25,533667	0,5	-0,601300
25,542000	0,5	-0,601800
25,550333	0,5	-0,602850
25,558667	0,5	-0,597800
25,567000	0,5	-0,594800
25,575333	0,5	-0,593850
25,583667	0,5	-0,582400
25,592000	0,5	-0,576900
25,600333	0,5	-0,570200
25,608667	0,5	-0,579950
25,617000	0,5	-0,588400
25,625333	0,5	-0,586550
25,633667	0,5	-0,582600
25,642000	0,5	-0,580200
25,650333	0,5	-0,583650
25,658667	0,5	-0,580700
25,667000	0,5	-0,579800
25,675333	0,5	-0,578800
25,683667	0,5	-0,578750
25,692000	0,5	-0,575400
25,700333	0,5	-0,574950
25,708667	0,5	-0,569900
25,717000	0,5	-0,568200
25,725333	0,5	-0,562150
25,733667	0,5	-0,546550
25,742000	0,5	-0,538500
25,750333	0,5	-0,542100
25,758667	0,5	-0,552300
25,767000	0,5	-0,552250
25,775333	0,5	-0,556350
25,783667	0,5	-0,548450
25,792000	0,5	-0,540850
25,800333	0,5	-0,543300
25,808667	0,5	-0,546350
25,817000	0,5	-0,539300
25,825333	0,5	-0,543400
25,833667	0,5	-0,544700
25,842000	0,5	-0,542400
25,850333	0,5	-0,541150
25,858667	0,5	-0,539700
25,867000	0,5	-0,534650
25,875333	0,5	-0,523600
25,883667	0,5	-0,507050
25,892000	0,5	-0,493500
25,900333	0,5	-0,498800
25,908667	0,5	-0,504950
25,917000	0,5	-0,504500
25,925333	0,5	-0,500000
25,933667	0,5	-0,487550
25,942000	0,5	-0,480500
25,950333	0,5	-0,488700
25,958667	0,5	-0,487750
25,967000	0,5	-0,480950
25,975333	0,5	-0,478200
25,983667	0,5	-0,479300
25,992000	0,5	-0,469950
26,000333	0,5	-0,475350
