File Path	chrom://chromeleon01/ikbm_chromeleon/2022/ICS-5000/ED1/Esteban/20220427_Cell_Amandas_mutants.seq/601.smp/ED_1.channel/ED_1.chm
Channel	ED_1

Injection Information:
Data Vault	ikbm_chromeleon
Injection	EG_Avi_CelS2
Injection Number	12
Position	RA6
Comment	
Processing Method	Stop sequence after Cell Death
Instrument Method	ICS5000_PA200_FullNative_Ox_26min_ED1
Type	Unknown
Status	Finished
Injection Date	27.04.2022
Injection Time	18:07:34
Injection Volume (µl)	5,0
Dilution Factor	1,0000
Weight	1,0000

Chromatogram Data Information:
Time Min. (min)	0,000167
Time Max. (min)	26,000167
Data Points	3121
Detector	EDet1
Generating Data System	Chromeleon 7.2.9.11323
Exporting Data System	Chromeleon 7.2.9.0
Operator	Instrument Controller
Signal Quantity	
Signal Unit	nC
Signal Min.	-5,963800
Signal Max.	255,110054
Channel	ED_1
Driver Name	DC-5000
Channel Type	Evaluation
Min. Step (s)	0,5
Max. Step (s)	0,5
Average Step (s)	0,5

Signal Parameter Information:
Signal Info	

Chromatogram Data:
Time (min)	Step (s)	Value (nC)
0,000167	n.a.	-0,065100
0,008500	0,5	-0,128450
0,016833	0,5	-0,120700
0,025167	0,5	-0,114800
0,033500	0,5	-0,091750
0,041833	0,5	-0,077350
0,050167	0,5	-0,060550
0,058500	0,5	-0,057500
0,066833	0,5	-0,049100
0,075167	0,5	-0,039550
0,083500	0,5	-0,073000
0,091833	0,5	-0,029150
0,100167	0,5	-0,049950
0,108500	0,5	-0,068800
0,116833	0,5	-0,063500
0,125167	0,5	-0,046700
0,133500	0,5	0,001050
0,141833	0,5	0,036600
0,150167	0,5	0,018750
0,158500	0,5	0,031950
0,166833	0,5	0,021700
0,175167	0,5	0,037800
0,183500	0,5	0,017750
0,191833	0,5	0,025550
0,200167	0,5	0,008050
0,208500	0,5	0,006050
0,216833	0,5	0,009600
0,225167	0,5	-0,031750
0,233500	0,5	-0,040700
0,241833	0,5	0,006850
0,250167	0,5	-0,018550
0,258500	0,5	-0,036450
0,266833	0,5	-0,022550
0,275167	0,5	0,001400
0,283500	0,5	0,068450
0,291833	0,5	0,045650
0,300167	0,5	0,060650
0,308500	0,5	0,079050
0,316833	0,5	0,082950
0,325167	0,5	0,021050
0,333500	0,5	0,016050
0,341833	0,5	0,013400
0,350167	0,5	0,017150
0,358500	0,5	0,017400
0,366833	0,5	0,019450
0,375167	0,5	-0,009900
0,383500	0,5	-0,000800
0,391833	0,5	0,022800
0,400167	0,5	-0,001400
0,408500	0,5	-0,008150
0,416833	0,5	0,006050
0,425167	0,5	0,039400
0,433500	0,5	0,083100
0,441833	0,5	0,057700
0,450167	0,5	0,031500
0,458500	0,5	0,044150
0,466833	0,5	0,037750
0,475167	0,5	0,057050
0,483500	0,5	0,048850
0,491833	0,5	0,045600
0,500167	0,5	0,026400
0,508500	0,5	0,039300
0,516833	0,5	0,039400
0,525167	0,5	0,023000
0,533500	0,5	0,042750
0,541833	0,5	0,040200
0,550167	0,5	0,013550
0,558500	0,5	0,005400
0,566833	0,5	0,020750
0,575167	0,5	0,081750
0,583500	0,5	0,098300
0,591833	0,5	0,057950
0,600167	0,5	0,061650
0,608500	0,5	0,071500
0,616833	0,5	0,066900
0,625167	0,5	0,060050
0,633500	0,5	0,073750
0,641833	0,5	0,054800
0,650167	0,5	0,064950
0,658500	0,5	0,055600
0,666833	0,5	0,065150
0,675167	0,5	0,033850
0,683500	0,5	0,081500
0,691833	0,5	0,037350
0,700167	0,5	0,038050
0,708500	0,5	0,030050
0,716833	0,5	0,066600
0,725167	0,5	0,125250
0,733500	0,5	0,118600
0,741833	0,5	0,091000
0,750167	0,5	0,088900
0,758500	0,5	0,090550
0,766833	0,5	0,100950
0,775167	0,5	0,107550
0,783500	0,5	0,097050
0,791833	0,5	0,095350
0,800167	0,5	0,091350
0,808500	0,5	0,097450
0,816833	0,5	0,059650
0,825167	0,5	0,050550
0,833500	0,5	0,074350
0,841833	0,5	0,057000
0,850167	0,5	0,049250
0,858500	0,5	0,059350
0,866833	0,5	0,098000
0,875167	0,5	0,164250
0,883500	0,5	0,148350
0,891833	0,5	0,150450
0,900167	0,5	0,132200
0,908500	0,5	0,144100
0,916833	0,5	0,135000
0,925167	0,5	0,136900
0,933500	0,5	0,128800
0,941833	0,5	0,112150
0,950167	0,5	0,120700
0,958500	0,5	0,104350
0,966833	0,5	0,107050
0,975167	0,5	0,122950
0,983500	0,5	0,130300
0,991833	0,5	0,093150
1,000167	0,5	0,102950
1,008500	0,5	0,107300
1,016833	0,5	0,166700
1,025167	0,5	0,196450
1,033500	0,5	0,199850
1,041833	0,5	0,164150
1,050167	0,5	0,177200
1,058500	0,5	0,156000
1,066833	0,5	0,173900
1,075167	0,5	0,168800
1,083500	0,5	0,163300
1,091833	0,5	0,159200
1,100167	0,5	0,166250
1,108500	0,5	0,155150
1,116833	0,5	0,144450
1,125167	0,5	0,183350
1,133500	0,5	0,162750
1,141833	0,5	0,140550
1,150167	0,5	0,147700
1,158500	0,5	0,161100
1,166833	0,5	0,223450
1,175167	0,5	0,239950
1,183500	0,5	0,204350
1,191833	0,5	0,219300
1,200167	0,5	0,213600
1,208500	0,5	0,222750
1,216833	0,5	0,213000
1,225167	0,5	0,214950
1,233500	0,5	0,202100
1,241833	0,5	0,207800
1,250167	0,5	0,211700
1,258500	0,5	0,183450
1,266833	0,5	0,183200
1,275167	0,5	0,232050
1,283500	0,5	0,191300
1,291833	0,5	0,182200
1,300167	0,5	0,195500
1,308500	0,5	0,218600
1,316833	0,5	0,281100
1,325167	0,5	0,246900
1,333500	0,5	0,251850
1,341833	0,5	0,245700
1,350167	0,5	0,257600
1,358500	0,5	0,240350
1,366833	0,5	0,262050
1,375167	0,5	0,250900
1,383500	0,5	0,253950
1,391833	0,5	0,256000
1,400167	0,5	0,265000
1,408500	0,5	0,240200
1,416833	0,5	0,258300
1,425167	0,5	0,270500
1,433500	0,5	0,252950
1,441833	0,5	0,242450
1,450167	0,5	0,258600
1,458500	0,5	0,299750
1,466833	0,5	0,341600
1,475167	0,5	0,310550
1,483500	0,5	0,301050
1,491833	0,5	0,305900
1,500167	0,5	0,303900
1,508500	0,5	0,303050
1,516833	0,5	0,303750
1,525167	0,5	0,311800
1,533500	0,5	0,299000
1,541833	0,5	0,313300
1,550167	0,5	0,319400
1,558500	0,5	0,318050
1,566833	0,5	0,318000
1,575167	0,5	0,152750
1,583500	0,5	-0,370150
1,591833	0,5	-1,372450
1,600167	0,5	-2,212450
1,608500	0,5	-1,831300
1,616833	0,5	-0,036850
1,625167	0,5	2,078550
1,633500	0,5	4,311800
1,641833	0,5	7,181200
1,650167	0,5	10,196350
1,658500	0,5	12,023050
1,666833	0,5	12,076950
1,675167	0,5	11,059150
1,683500	0,5	9,843100
1,691833	0,5	8,709650
1,700167	0,5	7,736000
1,708500	0,5	6,831000
1,716833	0,5	6,138150
1,725167	0,5	5,512800
1,733500	0,5	5,112800
1,741833	0,5	4,829650
1,750167	0,5	4,578750
1,758500	0,5	4,243450
1,766833	0,5	3,807650
1,775167	0,5	3,390600
1,783500	0,5	3,138150
1,791833	0,5	3,034350
1,800167	0,5	3,126250
1,808500	0,5	3,320100
1,816833	0,5	3,476600
1,825167	0,5	3,474400
1,833500	0,5	3,357950
1,841833	0,5	3,207400
1,850167	0,5	3,011350
1,858500	0,5	2,863050
1,866833	0,5	2,734500
1,875167	0,5	2,546750
1,883500	0,5	2,427850
1,891833	0,5	2,330550
1,900167	0,5	2,261050
1,908500	0,5	2,216950
1,916833	0,5	2,118600
1,925167	0,5	2,048850
1,933500	0,5	1,970050
1,941833	0,5	1,953300
1,950167	0,5	1,965850
1,958500	0,5	2,146900
1,966833	0,5	2,387750
1,975167	0,5	2,577200
1,983500	0,5	2,570450
1,991833	0,5	2,392850
2,000167	0,5	2,289200
2,008500	0,5	2,491150
2,016833	0,5	3,213450
2,025167	0,5	4,900800
2,033500	0,5	8,590250
2,041833	0,5	16,595300
2,050167	0,5	31,406150
2,058500	0,5	49,553051
2,066833	0,5	60,191051
2,075167	0,5	57,160551
2,083500	0,5	46,227651
2,091833	0,5	35,507951
2,100167	0,5	28,002550
2,108500	0,5	23,051300
2,116833	0,5	19,648400
2,125167	0,5	17,191450
2,133500	0,5	15,383400
2,141833	0,5	14,027200
2,150167	0,5	13,029300
2,158500	0,5	12,352150
2,166833	0,5	11,879700
2,175167	0,5	11,690900
2,183500	0,5	11,752350
2,191833	0,5	11,824850
2,200167	0,5	11,725500
2,208500	0,5	11,402050
2,216833	0,5	11,024750
2,225167	0,5	10,765600
2,233500	0,5	10,565400
2,241833	0,5	10,422500
2,250167	0,5	10,311350
2,258500	0,5	10,245700
2,266833	0,5	10,174550
2,275167	0,5	10,168200
2,283500	0,5	10,201050
2,291833	0,5	10,241050
2,300167	0,5	10,325500
2,308500	0,5	10,488200
2,316833	0,5	10,591300
2,325167	0,5	10,729900
2,333500	0,5	10,848000
2,341833	0,5	10,978950
2,350167	0,5	11,112950
2,358500	0,5	11,184000
2,366833	0,5	11,290900
2,375167	0,5	11,410650
2,383500	0,5	11,530450
2,391833	0,5	11,617200
2,400167	0,5	11,712000
2,408500	0,5	11,783850
2,416833	0,5	11,873500
2,425167	0,5	11,953300
2,433500	0,5	12,055000
2,441833	0,5	12,109200
2,450167	0,5	12,240150
2,458500	0,5	12,329450
2,466833	0,5	12,412750
2,475167	0,5	12,534900
2,483500	0,5	12,713900
2,491833	0,5	12,941200
2,500167	0,5	13,170600
2,508500	0,5	13,332600
2,516833	0,5	13,471100
2,525167	0,5	13,565700
2,533500	0,5	13,589250
2,541833	0,5	13,555300
2,550167	0,5	13,520400
2,558500	0,5	13,481050
2,566833	0,5	13,421850
2,575167	0,5	13,377500
2,583500	0,5	13,306600
2,591833	0,5	13,208350
2,600167	0,5	13,142750
2,608500	0,5	13,034400
2,616833	0,5	12,927150
2,625167	0,5	12,842750
2,633500	0,5	12,766350
2,641833	0,5	12,742800
2,650167	0,5	12,695800
2,658500	0,5	12,652250
2,666833	0,5	12,643200
2,675167	0,5	12,713600
2,683500	0,5	12,788600
2,691833	0,5	12,845800
2,700167	0,5	12,802500
2,708500	0,5	12,658950
2,716833	0,5	12,459000
2,725167	0,5	12,252850
2,733500	0,5	12,072000
2,741833	0,5	11,886600
2,750167	0,5	11,817450
2,758500	0,5	11,744700
2,766833	0,5	11,902050
2,775167	0,5	12,392600
2,783500	0,5	13,504750
2,791833	0,5	15,429950
2,800167	0,5	18,322850
2,808500	0,5	22,321300
2,816833	0,5	27,913900
2,825167	0,5	36,377801
2,833500	0,5	50,995651
2,841833	0,5	77,115401
2,850167	0,5	119,508652
2,858500	0,5	174,373753
2,866833	0,5	225,676053
2,875167	0,5	255,097304
2,883500	0,5	255,110054
2,891833	0,5	231,619103
2,900167	0,5	196,390803
2,908500	0,5	159,920302
2,916833	0,5	128,519252
2,925167	0,5	104,017502
2,933500	0,5	85,867501
2,941833	0,5	72,632701
2,950167	0,5	62,879001
2,958500	0,5	55,449451
2,966833	0,5	49,307801
2,975167	0,5	43,844351
2,983500	0,5	38,747501
2,991833	0,5	34,129951
3,000167	0,5	30,074450
3,008500	0,5	26,701050
3,016833	0,5	23,945300
3,025167	0,5	21,672050
3,033500	0,5	19,785000
3,041833	0,5	18,244250
3,050167	0,5	16,884200
3,058500	0,5	15,689800
3,066833	0,5	14,655800
3,075167	0,5	13,747150
3,083500	0,5	12,978100
3,091833	0,5	12,251200
3,100167	0,5	11,605200
3,108500	0,5	11,007050
3,116833	0,5	10,479750
3,125167	0,5	9,986350
3,133500	0,5	9,563450
3,141833	0,5	9,166950
3,150167	0,5	8,823650
3,158500	0,5	8,488250
3,166833	0,5	8,172250
3,175167	0,5	7,831700
3,183500	0,5	7,533350
3,191833	0,5	7,272500
3,200167	0,5	6,993800
3,208500	0,5	6,731150
3,216833	0,5	6,514600
3,225167	0,5	6,319900
3,233500	0,5	6,157400
3,241833	0,5	5,973800
3,250167	0,5	5,799800
3,258500	0,5	5,651500
3,266833	0,5	5,500850
3,275167	0,5	5,374100
3,283500	0,5	5,254500
3,291833	0,5	5,176250
3,300167	0,5	5,118750
3,308500	0,5	5,147150
3,316833	0,5	5,237750
3,325167	0,5	5,397000
3,333500	0,5	5,581800
3,341833	0,5	5,748150
3,350167	0,5	5,747800
3,358500	0,5	5,628700
3,366833	0,5	5,397600
3,375167	0,5	5,143250
3,383500	0,5	4,870950
3,391833	0,5	4,573200
3,400167	0,5	4,328900
3,408500	0,5	4,148200
3,416833	0,5	3,984100
3,425167	0,5	3,840200
3,433500	0,5	3,727200
3,441833	0,5	3,601900
3,450167	0,5	3,511800
3,458500	0,5	3,416750
3,466833	0,5	3,347600
3,475167	0,5	3,232100
3,483500	0,5	3,201850
3,491833	0,5	3,132800
3,500167	0,5	3,073600
3,508500	0,5	3,020050
3,516833	0,5	3,005150
3,525167	0,5	3,002750
3,533500	0,5	2,986900
3,541833	0,5	2,928000
3,550167	0,5	2,895300
3,558500	0,5	2,855300
3,566833	0,5	2,817750
3,575167	0,5	2,766150
3,583500	0,5	2,731150
3,591833	0,5	2,681550
3,600167	0,5	2,630850
3,608500	0,5	2,602750
3,616833	0,5	2,554000
3,625167	0,5	2,502300
3,633500	0,5	2,497050
3,641833	0,5	2,449150
3,650167	0,5	2,412300
3,658500	0,5	2,401550
3,666833	0,5	2,390350
3,675167	0,5	2,416450
3,683500	0,5	2,384900
3,691833	0,5	2,366000
3,700167	0,5	2,332700
3,708500	0,5	2,323500
3,716833	0,5	2,287900
3,725167	0,5	2,269200
3,733500	0,5	2,244150
3,741833	0,5	2,214950
3,750167	0,5	2,199450
3,758500	0,5	2,188500
3,766833	0,5	2,159800
3,775167	0,5	2,139750
3,783500	0,5	2,149100
3,791833	0,5	2,091550
3,800167	0,5	2,077300
3,808500	0,5	2,047500
3,816833	0,5	2,069000
3,825167	0,5	2,088300
3,833500	0,5	2,078550
3,841833	0,5	2,030150
3,850167	0,5	2,027000
3,858500	0,5	2,019100
3,866833	0,5	2,018150
3,875167	0,5	2,011700
3,883500	0,5	2,025300
3,891833	0,5	2,048150
3,900167	0,5	2,095850
3,908500	0,5	2,171250
3,916833	0,5	2,261000
3,925167	0,5	2,385000
3,933500	0,5	2,505450
3,941833	0,5	2,579550
3,950167	0,5	2,653950
3,958500	0,5	2,679950
3,966833	0,5	2,680250
3,975167	0,5	2,627950
3,983500	0,5	2,497950
3,991833	0,5	2,376600
4,000167	0,5	2,253800
4,008500	0,5	2,153400
4,016833	0,5	2,060800
4,025167	0,5	2,005650
4,033500	0,5	1,934800
4,041833	0,5	1,898550
4,050167	0,5	1,860500
4,058500	0,5	1,845650
4,066833	0,5	1,801450
4,075167	0,5	1,818150
4,083500	0,5	1,768300
4,091833	0,5	1,731750
4,100167	0,5	1,722450
4,108500	0,5	1,724550
4,116833	0,5	1,763600
4,125167	0,5	1,747000
4,133500	0,5	1,734750
4,141833	0,5	1,726550
4,150167	0,5	1,718750
4,158500	0,5	1,720700
4,166833	0,5	1,708250
4,175167	0,5	1,693200
4,183500	0,5	1,675600
4,191833	0,5	1,646900
4,200167	0,5	1,647500
4,208500	0,5	1,610400
4,216833	0,5	1,606200
4,225167	0,5	1,610800
4,233500	0,5	1,574250
4,241833	0,5	1,539050
4,250167	0,5	1,542650
4,258500	0,5	1,560500
4,266833	0,5	1,597050
4,275167	0,5	1,564050
4,283500	0,5	1,545550
4,291833	0,5	1,532600
4,300167	0,5	1,532150
4,308500	0,5	1,528500
4,316833	0,5	1,526750
4,325167	0,5	1,519900
4,333500	0,5	1,503950
4,341833	0,5	1,515150
4,350167	0,5	1,524500
4,358500	0,5	1,546300
4,366833	0,5	1,562750
4,375167	0,5	1,571200
4,383500	0,5	1,537150
4,391833	0,5	1,543550
4,400167	0,5	1,558850
4,408500	0,5	1,602700
4,416833	0,5	1,640550
4,425167	0,5	1,654150
4,433500	0,5	1,677700
4,441833	0,5	1,754800
4,450167	0,5	1,812050
4,458500	0,5	1,910100
4,466833	0,5	2,014050
4,475167	0,5	2,119550
4,483500	0,5	2,238100
4,491833	0,5	2,339000
4,500167	0,5	2,452750
4,508500	0,5	2,473200
4,516833	0,5	2,531900
4,525167	0,5	2,508600
4,533500	0,5	2,477150
4,541833	0,5	2,449300
4,550167	0,5	2,455000
4,558500	0,5	2,502950
4,566833	0,5	2,554500
4,575167	0,5	2,600700
4,583500	0,5	2,763850
4,591833	0,5	2,991000
4,600167	0,5	3,335650
4,608500	0,5	3,775750
4,616833	0,5	4,360900
4,625167	0,5	5,039050
4,633500	0,5	5,809650
4,641833	0,5	6,608250
4,650167	0,5	7,345750
4,658500	0,5	7,956150
4,666833	0,5	8,432500
4,675167	0,5	8,582250
4,683500	0,5	8,514950
4,691833	0,5	8,220550
4,700167	0,5	7,747100
4,708500	0,5	7,179500
4,716833	0,5	6,486550
4,725167	0,5	5,811800
4,733500	0,5	5,159000
4,741833	0,5	4,602250
4,750167	0,5	4,101750
4,758500	0,5	3,707850
4,766833	0,5	3,380950
4,775167	0,5	3,118950
4,783500	0,5	2,915750
4,791833	0,5	2,757300
4,800167	0,5	2,636450
4,808500	0,5	2,549700
4,816833	0,5	2,473800
4,825167	0,5	2,387050
4,833500	0,5	2,342500
4,841833	0,5	2,308750
4,850167	0,5	2,317800
4,858500	0,5	2,336850
4,866833	0,5	2,374000
4,875167	0,5	2,376150
4,883500	0,5	2,435500
4,891833	0,5	2,503400
4,900167	0,5	2,620350
4,908500	0,5	2,757650
4,916833	0,5	2,926100
4,925167	0,5	3,087400
4,933500	0,5	3,253250
4,941833	0,5	3,398550
4,950167	0,5	3,489250
4,958500	0,5	3,533950
4,966833	0,5	3,509050
4,975167	0,5	3,385350
4,983500	0,5	3,259250
4,991833	0,5	3,101100
5,000167	0,5	2,959500
5,008500	0,5	2,793300
5,016833	0,5	2,615750
5,025167	0,5	2,460550
5,033500	0,5	2,329800
5,041833	0,5	2,223500
5,050167	0,5	2,125100
5,058500	0,5	2,061950
5,066833	0,5	1,998350
5,075167	0,5	1,965250
5,083500	0,5	1,923350
5,091833	0,5	1,892700
5,100167	0,5	1,857600
5,108500	0,5	1,888900
5,116833	0,5	1,842050
5,125167	0,5	1,819350
5,133500	0,5	1,809750
5,141833	0,5	1,821150
5,150167	0,5	1,858700
5,158500	0,5	1,853400
5,166833	0,5	1,853200
5,175167	0,5	1,862400
5,183500	0,5	1,862150
5,191833	0,5	1,862150
5,200167	0,5	1,862800
5,208500	0,5	1,869200
5,216833	0,5	1,874250
5,225167	0,5	1,878950
5,233500	0,5	1,899550
5,241833	0,5	1,875600
5,250167	0,5	1,892150
5,258500	0,5	1,921550
5,266833	0,5	1,926950
5,275167	0,5	1,935900
5,283500	0,5	1,980900
5,291833	0,5	2,023650
5,300167	0,5	2,100200
5,308500	0,5	2,107100
5,316833	0,5	2,148500
5,325167	0,5	2,172600
5,333500	0,5	2,203100
5,341833	0,5	2,211550
5,350167	0,5	2,227350
5,358500	0,5	2,211650
5,366833	0,5	2,181100
5,375167	0,5	2,167850
5,383500	0,5	2,139650
5,391833	0,5	2,106150
5,400167	0,5	2,101900
5,408500	0,5	2,057200
5,416833	0,5	2,008050
5,425167	0,5	1,983050
5,433500	0,5	1,968100
5,441833	0,5	1,993450
5,450167	0,5	1,991600
5,458500	0,5	1,969950
5,466833	0,5	1,945200
5,475167	0,5	1,971150
5,483500	0,5	1,947400
5,491833	0,5	1,950000
5,500167	0,5	1,935250
5,508500	0,5	1,927300
5,516833	0,5	1,920200
5,525167	0,5	1,916150
5,533500	0,5	1,916750
5,541833	0,5	1,885000
5,550167	0,5	1,910200
5,558500	0,5	1,884000
5,566833	0,5	1,870700
5,575167	0,5	1,869050
5,583500	0,5	1,885150
5,591833	0,5	1,931250
5,600167	0,5	1,930100
5,608500	0,5	1,902500
5,616833	0,5	1,900750
5,625167	0,5	1,892350
5,633500	0,5	1,897400
5,641833	0,5	1,895850
5,650167	0,5	1,901050
5,658500	0,5	1,886900
5,666833	0,5	1,888900
5,675167	0,5	1,904450
5,683500	0,5	1,894900
5,691833	0,5	1,873800
5,700167	0,5	1,902250
5,708500	0,5	1,878450
5,716833	0,5	1,887100
5,725167	0,5	1,894900
5,733500	0,5	1,930150
5,741833	0,5	1,982400
5,750167	0,5	1,978350
5,758500	0,5	1,988350
5,766833	0,5	1,984900
5,775167	0,5	2,001500
5,783500	0,5	1,992350
5,791833	0,5	1,997450
5,800167	0,5	1,972250
5,808500	0,5	1,953550
5,816833	0,5	1,937700
5,825167	0,5	1,923450
5,833500	0,5	1,891000
5,841833	0,5	1,894450
5,850167	0,5	1,885500
5,858500	0,5	1,866400
5,866833	0,5	1,858250
5,875167	0,5	1,870550
5,883500	0,5	1,915400
5,891833	0,5	1,943000
5,900167	0,5	1,939900
5,908500	0,5	1,924500
5,916833	0,5	1,925050
5,925167	0,5	1,911450
5,933500	0,5	1,904400
5,941833	0,5	1,892350
5,950167	0,5	1,893750
5,958500	0,5	1,880050
5,966833	0,5	1,887500
5,975167	0,5	1,853900
5,983500	0,5	1,845850
5,991833	0,5	1,856700
6,000167	0,5	1,846000
6,008500	0,5	1,823350
6,016833	0,5	1,828800
6,025167	0,5	1,832100
6,033500	0,5	1,866800
6,041833	0,5	1,869200
6,050167	0,5	1,864400
6,058500	0,5	1,853900
6,066833	0,5	1,861600
6,075167	0,5	1,847100
6,083500	0,5	1,858250
6,091833	0,5	1,853100
6,100167	0,5	1,830300
6,108500	0,5	1,829300
6,116833	0,5	1,826900
6,125167	0,5	1,818700
6,133500	0,5	1,809700
6,141833	0,5	1,838450
6,150167	0,5	1,813000
6,158500	0,5	1,809100
6,166833	0,5	1,815500
6,175167	0,5	1,843800
6,183500	0,5	1,892500
6,191833	0,5	1,896050
6,200167	0,5	1,893650
6,208500	0,5	1,915300
6,216833	0,5	1,933150
6,225167	0,5	1,952150
6,233500	0,5	1,980400
6,241833	0,5	2,005950
6,250167	0,5	2,023700
6,258500	0,5	2,047350
6,266833	0,5	2,059300
6,275167	0,5	2,026600
6,283500	0,5	2,023950
6,291833	0,5	2,017000
6,300167	0,5	1,978500
6,308500	0,5	1,944400
6,316833	0,5	1,930900
6,325167	0,5	1,924550
6,333500	0,5	1,939200
6,341833	0,5	1,891450
6,350167	0,5	1,884850
6,358500	0,5	1,873200
6,366833	0,5	1,870400
6,375167	0,5	1,861250
6,383500	0,5	1,867550
6,391833	0,5	1,864850
6,400167	0,5	1,860350
6,408500	0,5	1,861700
6,416833	0,5	1,851500
6,425167	0,5	1,830050
6,433500	0,5	1,855300
6,441833	0,5	1,857900
6,450167	0,5	1,861900
6,458500	0,5	1,868750
6,466833	0,5	1,889100
6,475167	0,5	1,936600
6,483500	0,5	1,948900
6,491833	0,5	1,966550
6,500167	0,5	1,960400
6,508500	0,5	1,977100
6,516833	0,5	1,973850
6,525167	0,5	1,984100
6,533500	0,5	1,980800
6,541833	0,5	1,994450
6,550167	0,5	2,001400
6,558500	0,5	2,015100
6,566833	0,5	2,004100
6,575167	0,5	2,000350
6,583500	0,5	2,032500
6,591833	0,5	2,033500
6,600167	0,5	2,034750
6,608500	0,5	2,037300
6,616833	0,5	2,065150
6,625167	0,5	2,097550
6,633500	0,5	2,108300
6,641833	0,5	2,097150
6,650167	0,5	2,090450
6,658500	0,5	2,078850
6,666833	0,5	2,073750
6,675167	0,5	2,069100
6,683500	0,5	2,072250
6,691833	0,5	2,069950
6,700167	0,5	2,077250
6,708500	0,5	2,072450
6,716833	0,5	2,069200
6,725167	0,5	2,065600
6,733500	0,5	2,103800
6,741833	0,5	2,076150
6,750167	0,5	2,090750
6,758500	0,5	2,099350
6,766833	0,5	2,136250
6,775167	0,5	2,173350
6,783500	0,5	2,181700
6,791833	0,5	2,198750
6,800167	0,5	2,207050
6,808500	0,5	2,213950
6,816833	0,5	2,220350
6,825167	0,5	2,233200
6,833500	0,5	2,236550
6,841833	0,5	2,244100
6,850167	0,5	2,242650
6,858500	0,5	2,241150
6,866833	0,5	2,226150
6,875167	0,5	2,250450
6,883500	0,5	2,258800
6,891833	0,5	2,254350
6,900167	0,5	2,260850
6,908500	0,5	2,278800
6,916833	0,5	2,317050
6,925167	0,5	2,355400
6,933500	0,5	2,354650
6,941833	0,5	2,360950
6,950167	0,5	2,369900
6,958500	0,5	2,375450
6,966833	0,5	2,381800
6,975167	0,5	2,394700
6,983500	0,5	2,402750
6,991833	0,5	2,411950
7,000167	0,5	2,447250
7,008500	0,5	2,430750
7,016833	0,5	2,441100
7,025167	0,5	2,473800
7,033500	0,5	2,466800
7,041833	0,5	2,466500
7,050167	0,5	2,481800
7,058500	0,5	2,488250
7,066833	0,5	2,534400
7,075167	0,5	2,541400
7,083500	0,5	2,550100
7,091833	0,5	2,551600
7,100167	0,5	2,585250
7,108500	0,5	2,579700
7,116833	0,5	2,601850
7,125167	0,5	2,607150
7,133500	0,5	2,602850
7,141833	0,5	2,603850
7,150167	0,5	2,593200
7,158500	0,5	2,581350
7,166833	0,5	2,579150
7,175167	0,5	2,599100
7,183500	0,5	2,571100
7,191833	0,5	2,555200
7,200167	0,5	2,568050
7,208500	0,5	2,601550
7,216833	0,5	2,633550
7,225167	0,5	2,636100
7,233500	0,5	2,634400
7,241833	0,5	2,662600
7,250167	0,5	2,679200
7,258500	0,5	2,705950
7,266833	0,5	2,716950
7,275167	0,5	2,738550
7,283500	0,5	2,748300
7,291833	0,5	2,756800
7,300167	0,5	2,770000
7,308500	0,5	2,739900
7,316833	0,5	2,744700
7,325167	0,5	2,745800
7,333500	0,5	2,718800
7,341833	0,5	2,703150
7,350167	0,5	2,708200
7,358500	0,5	2,728650
7,366833	0,5	2,749850
7,375167	0,5	2,736900
7,383500	0,5	2,765050
7,391833	0,5	2,790100
7,400167	0,5	2,791350
7,408500	0,5	2,938900
7,416833	0,5	3,033550
7,425167	0,5	3,112600
7,433500	0,5	3,196900
7,441833	0,5	3,269600
7,450167	0,5	3,303600
7,458500	0,5	3,288250
7,466833	0,5	3,280600
7,475167	0,5	3,213500
7,483500	0,5	3,145700
7,491833	0,5	3,076100
7,500167	0,5	3,043500
7,508500	0,5	3,028050
7,516833	0,5	2,976150
7,525167	0,5	2,925400
7,533500	0,5	2,871650
7,541833	0,5	2,840000
7,550167	0,5	2,794000
7,558500	0,5	2,769900
7,566833	0,5	2,738100
7,575167	0,5	2,727950
7,583500	0,5	2,717950
7,591833	0,5	2,731550
7,600167	0,5	2,728950
7,608500	0,5	2,748900
7,616833	0,5	2,775950
7,625167	0,5	2,770050
7,633500	0,5	2,776900
7,641833	0,5	2,785350
7,650167	0,5	2,813900
7,658500	0,5	2,845950
7,666833	0,5	2,859650
7,675167	0,5	2,853200
7,683500	0,5	2,857650
7,691833	0,5	2,859400
7,700167	0,5	2,853150
7,708500	0,5	2,848000
7,716833	0,5	2,839150
7,725167	0,5	2,810800
7,733500	0,5	2,795750
7,741833	0,5	2,772800
7,750167	0,5	2,761350
7,758500	0,5	2,753600
7,766833	0,5	2,768100
7,775167	0,5	2,751550
7,783500	0,5	2,766100
7,791833	0,5	2,782150
7,800167	0,5	2,826150
7,808500	0,5	2,898150
7,816833	0,5	2,961000
7,825167	0,5	3,030600
7,833500	0,5	3,129700
7,841833	0,5	3,222300
7,850167	0,5	3,306150
7,858500	0,5	3,372700
7,866833	0,5	3,403250
7,875167	0,5	3,425650
7,883500	0,5	3,446700
7,891833	0,5	3,475050
7,900167	0,5	3,513200
7,908500	0,5	3,601550
7,916833	0,5	3,678500
7,925167	0,5	3,747550
7,933500	0,5	3,821950
7,941833	0,5	3,909900
7,950167	0,5	4,005150
7,958500	0,5	4,105900
7,966833	0,5	4,195500
7,975167	0,5	4,334050
7,983500	0,5	4,516000
7,991833	0,5	4,802300
8,000167	0,5	5,257850
8,008500	0,5	6,033050
8,016833	0,5	7,270150
8,025167	0,5	9,147950
8,033500	0,5	11,701750
8,041833	0,5	14,678400
8,050167	0,5	17,642850
8,058500	0,5	19,949900
8,066833	0,5	20,967200
8,075167	0,5	20,511600
8,083500	0,5	18,781550
8,091833	0,5	16,244700
8,100167	0,5	13,496450
8,108500	0,5	10,925650
8,116833	0,5	8,835400
8,125167	0,5	7,249550
8,133500	0,5	6,132250
8,141833	0,5	5,342550
8,150167	0,5	4,803350
8,158500	0,5	4,404200
8,166833	0,5	4,115750
8,175167	0,5	3,904750
8,183500	0,5	3,741950
8,191833	0,5	3,625300
8,200167	0,5	3,548400
8,208500	0,5	3,499600
8,216833	0,5	3,436450
8,225167	0,5	3,374200
8,233500	0,5	3,317200
8,241833	0,5	3,276350
8,250167	0,5	3,241700
8,258500	0,5	3,193450
8,266833	0,5	3,158600
8,275167	0,5	3,152700
8,283500	0,5	3,134550
8,291833	0,5	3,129750
8,300167	0,5	3,113950
8,308500	0,5	3,089100
8,316833	0,5	3,073850
8,325167	0,5	3,057800
8,333500	0,5	3,052950
8,341833	0,5	3,037400
8,350167	0,5	3,039200
8,358500	0,5	3,038250
8,366833	0,5	3,021450
8,375167	0,5	3,027450
8,383500	0,5	3,042200
8,391833	0,5	3,079600
8,400167	0,5	3,100900
8,408500	0,5	3,087050
8,416833	0,5	3,076700
8,425167	0,5	3,050750
8,433500	0,5	3,008500
8,441833	0,5	2,966900
8,450167	0,5	2,939200
8,458500	0,5	2,901350
8,466833	0,5	2,880050
8,475167	0,5	2,860900
8,483500	0,5	2,857900
8,491833	0,5	2,836400
8,500167	0,5	2,862700
8,508500	0,5	2,854750
8,516833	0,5	2,871500
8,525167	0,5	2,894350
8,533500	0,5	2,933950
8,541833	0,5	2,975050
8,550167	0,5	2,985400
8,558500	0,5	2,985000
8,566833	0,5	2,970500
8,575167	0,5	2,956150
8,583500	0,5	2,935550
8,591833	0,5	2,916400
8,600167	0,5	2,896550
8,608500	0,5	2,874950
8,616833	0,5	2,853550
8,625167	0,5	2,846850
8,633500	0,5	2,821700
8,641833	0,5	2,800200
8,650167	0,5	2,797600
8,658500	0,5	2,775650
8,666833	0,5	2,771550
8,675167	0,5	2,776400
8,683500	0,5	2,797850
8,691833	0,5	2,840200
8,700167	0,5	2,872900
8,708500	0,5	2,903650
8,716833	0,5	2,937150
8,725167	0,5	2,971400
8,733500	0,5	2,986700
8,741833	0,5	2,982800
8,750167	0,5	2,965550
8,758500	0,5	2,948150
8,766833	0,5	2,956550
8,775167	0,5	2,972200
8,783500	0,5	2,986100
8,791833	0,5	2,998650
8,800167	0,5	2,982700
8,808500	0,5	2,950800
8,816833	0,5	2,925300
8,825167	0,5	2,895350
8,833500	0,5	2,892600
8,841833	0,5	2,873050
8,850167	0,5	2,842300
8,858500	0,5	2,819800
8,866833	0,5	2,807200
8,875167	0,5	2,790600
8,883500	0,5	2,774850
8,891833	0,5	2,763550
8,900167	0,5	2,743650
8,908500	0,5	2,726650
8,916833	0,5	2,706750
8,925167	0,5	2,706950
8,933500	0,5	2,696300
8,941833	0,5	2,708950
8,950167	0,5	2,692600
8,958500	0,5	2,682300
8,966833	0,5	2,673050
8,975167	0,5	2,674750
8,983500	0,5	2,686500
8,991833	0,5	2,689600
9,000167	0,5	2,674400
9,008500	0,5	2,675100
9,016833	0,5	2,673400
9,025167	0,5	2,671700
9,033500	0,5	2,674900
9,041833	0,5	2,679450
9,050167	0,5	2,678700
9,058500	0,5	2,681800
9,066833	0,5	2,692500
9,075167	0,5	2,693200
9,083500	0,5	2,706350
9,091833	0,5	2,727600
9,100167	0,5	2,734350
9,108500	0,5	2,748250
9,116833	0,5	2,781050
9,125167	0,5	2,820550
9,133500	0,5	2,870600
9,141833	0,5	2,883250
9,150167	0,5	2,889750
9,158500	0,5	2,882100
9,166833	0,5	2,874100
9,175167	0,5	2,844900
9,183500	0,5	2,837300
9,191833	0,5	2,818700
9,200167	0,5	2,816150
9,208500	0,5	2,816250
9,216833	0,5	2,826700
9,225167	0,5	2,833400
9,233500	0,5	2,876600
9,241833	0,5	2,908250
9,250167	0,5	2,946300
9,258500	0,5	3,018250
9,266833	0,5	3,112300
9,275167	0,5	3,241900
9,283500	0,5	3,381450
9,291833	0,5	3,532600
9,300167	0,5	3,711700
9,308500	0,5	3,938150
9,316833	0,5	4,204550
9,325167	0,5	4,562600
9,333500	0,5	5,093200
9,341833	0,5	5,916850
9,350167	0,5	7,190150
9,358500	0,5	9,045050
9,366833	0,5	11,487400
9,375167	0,5	14,268700
9,383500	0,5	16,957350
9,391833	0,5	18,941000
9,400167	0,5	19,754450
9,408500	0,5	19,249700
9,416833	0,5	17,595950
9,425167	0,5	15,241000
9,433500	0,5	12,663250
9,441833	0,5	10,258250
9,450167	0,5	8,283800
9,458500	0,5	6,798900
9,466833	0,5	5,735100
9,475167	0,5	4,990500
9,483500	0,5	4,479700
9,491833	0,5	4,112600
9,500167	0,5	3,866700
9,508500	0,5	3,683100
9,516833	0,5	3,560200
9,525167	0,5	3,444000
9,533500	0,5	3,377800
9,541833	0,5	3,296650
9,550167	0,5	3,235300
9,558500	0,5	3,190000
9,566833	0,5	3,162200
9,575167	0,5	3,159700
9,583500	0,5	3,150400
9,591833	0,5	3,145600
9,600167	0,5	3,143750
9,608500	0,5	3,124600
9,616833	0,5	3,093950
9,625167	0,5	3,061250
9,633500	0,5	3,008350
9,641833	0,5	2,965200
9,650167	0,5	2,919750
9,658500	0,5	2,885750
9,666833	0,5	2,845600
9,675167	0,5	2,820800
9,683500	0,5	2,798050
9,691833	0,5	2,769100
9,700167	0,5	2,753350
9,708500	0,5	2,740500
9,716833	0,5	2,740400
9,725167	0,5	2,747600
9,733500	0,5	2,731250
9,741833	0,5	2,728100
9,750167	0,5	2,715900
9,758500	0,5	2,705300
9,766833	0,5	2,692700
9,775167	0,5	2,684000
9,783500	0,5	2,672900
9,791833	0,5	2,666750
9,800167	0,5	2,671700
9,808500	0,5	2,659300
9,816833	0,5	2,654050
9,825167	0,5	2,654150
9,833500	0,5	2,637700
9,841833	0,5	2,626650
9,850167	0,5	2,622900
9,858500	0,5	2,616100
9,866833	0,5	2,624300
9,875167	0,5	2,621600
9,883500	0,5	2,623550
9,891833	0,5	2,613200
9,900167	0,5	2,617100
9,908500	0,5	2,607850
9,916833	0,5	2,607250
9,925167	0,5	2,603800
9,933500	0,5	2,594000
9,941833	0,5	2,600700
9,950167	0,5	2,601350
9,958500	0,5	2,603000
9,966833	0,5	2,603000
9,975167	0,5	2,605800
9,983500	0,5	2,589700
9,991833	0,5	2,578350
10,000167	0,5	2,573800
10,008500	0,5	2,575750
10,016833	0,5	2,584300
10,025167	0,5	2,582200
10,033500	0,5	2,575300
10,041833	0,5	2,582050
10,050167	0,5	2,576100
10,058500	0,5	2,582100
10,066833	0,5	2,582100
10,075167	0,5	2,582850
10,083500	0,5	2,586850
10,091833	0,5	2,582650
10,100167	0,5	2,591100
10,108500	0,5	2,585550
10,116833	0,5	2,589200
10,125167	0,5	2,597050
10,133500	0,5	2,583850
10,141833	0,5	2,583700
10,150167	0,5	2,587850
10,158500	0,5	2,598650
10,166833	0,5	2,606700
10,175167	0,5	2,604800
10,183500	0,5	2,611250
10,191833	0,5	2,612400
10,200167	0,5	2,613400
10,208500	0,5	2,612650
10,216833	0,5	2,611550
10,225167	0,5	2,615450
10,233500	0,5	2,613050
10,241833	0,5	2,616200
10,250167	0,5	2,622750
10,258500	0,5	2,623850
10,266833	0,5	2,648900
10,275167	0,5	2,647100
10,283500	0,5	2,655250
10,291833	0,5	2,655650
10,300167	0,5	2,664800
10,308500	0,5	2,680300
10,316833	0,5	2,680100
10,325167	0,5	2,679950
10,333500	0,5	2,678500
10,341833	0,5	2,680150
10,350167	0,5	2,688000
10,358500	0,5	2,690150
10,366833	0,5	2,695750
10,375167	0,5	2,700750
10,383500	0,5	2,706900
10,391833	0,5	2,715600
10,400167	0,5	2,724250
10,408500	0,5	2,734050
10,416833	0,5	2,751950
10,425167	0,5	2,747000
10,433500	0,5	2,743450
10,441833	0,5	2,746200
10,450167	0,5	2,752250
10,458500	0,5	2,770450
10,466833	0,5	2,766300
10,475167	0,5	2,762000
10,483500	0,5	2,766900
10,491833	0,5	2,763650
10,500167	0,5	2,770250
10,508500	0,5	2,771700
10,516833	0,5	2,775550
10,525167	0,5	2,766900
10,533500	0,5	2,767050
10,541833	0,5	2,759750
10,550167	0,5	2,751700
10,558500	0,5	2,741900
10,566833	0,5	2,737400
10,575167	0,5	2,718400
10,583500	0,5	2,710000
10,591833	0,5	2,699200
10,600167	0,5	2,705300
10,608500	0,5	2,708850
10,616833	0,5	2,699300
10,625167	0,5	2,693600
10,633500	0,5	2,689500
10,641833	0,5	2,683500
10,650167	0,5	2,681000
10,658500	0,5	2,681200
10,666833	0,5	2,678250
10,675167	0,5	2,678750
10,683500	0,5	2,678950
10,691833	0,5	2,674500
10,700167	0,5	2,671050
10,708500	0,5	2,682950
10,716833	0,5	2,682750
10,725167	0,5	2,679950
10,733500	0,5	2,676000
10,741833	0,5	2,679550
10,750167	0,5	2,686050
10,758500	0,5	2,707100
10,766833	0,5	2,707000
10,775167	0,5	2,710550
10,783500	0,5	2,718500
10,791833	0,5	2,728100
10,800167	0,5	2,738350
10,808500	0,5	2,756900
10,816833	0,5	2,771600
10,825167	0,5	2,779350
10,833500	0,5	2,794850
10,841833	0,5	2,790250
10,850167	0,5	2,789850
10,858500	0,5	2,796850
10,866833	0,5	2,791200
10,875167	0,5	2,780950
10,883500	0,5	2,785200
10,891833	0,5	2,785400
10,900167	0,5	2,792250
10,908500	0,5	2,791100
10,916833	0,5	2,780400
10,925167	0,5	2,762600
10,933500	0,5	2,741350
10,941833	0,5	2,708700
10,950167	0,5	2,680250
10,958500	0,5	2,646900
10,966833	0,5	2,614950
10,975167	0,5	2,595350
10,983500	0,5	2,581400
10,991833	0,5	2,576400
11,000167	0,5	2,583700
11,008500	0,5	2,590100
11,016833	0,5	2,588000
11,025167	0,5	2,592350
11,033500	0,5	2,594150
11,041833	0,5	2,604200
11,050167	0,5	2,613600
11,058500	0,5	2,611900
11,066833	0,5	2,607500
11,075167	0,5	2,610400
11,083500	0,5	2,607700
11,091833	0,5	2,609000
11,100167	0,5	2,604750
11,108500	0,5	2,604000
11,116833	0,5	2,599700
11,125167	0,5	2,605550
11,133500	0,5	2,609650
11,141833	0,5	2,603050
11,150167	0,5	2,606600
11,158500	0,5	2,603400
11,166833	0,5	2,599850
11,175167	0,5	2,590800
11,183500	0,5	2,588200
11,191833	0,5	2,595550
11,200167	0,5	2,591350
11,208500	0,5	2,589350
11,216833	0,5	2,585750
11,225167	0,5	2,579900
11,233500	0,5	2,579800
11,241833	0,5	2,574950
11,250167	0,5	2,576200
11,258500	0,5	2,570000
11,266833	0,5	2,577650
11,275167	0,5	2,575150
11,283500	0,5	2,572250
11,291833	0,5	2,557150
11,300167	0,5	2,557900
11,308500	0,5	2,539550
11,316833	0,5	2,534500
11,325167	0,5	2,525400
11,333500	0,5	2,523650
11,341833	0,5	2,529700
11,350167	0,5	2,526500
11,358500	0,5	2,524150
11,366833	0,5	2,524000
11,375167	0,5	2,531750
11,383500	0,5	2,526500
11,391833	0,5	2,527750
11,400167	0,5	2,533100
11,408500	0,5	2,544450
11,416833	0,5	2,544700
11,425167	0,5	2,551450
11,433500	0,5	2,556300
11,441833	0,5	2,558950
11,450167	0,5	2,572950
11,458500	0,5	2,580650
11,466833	0,5	2,585850
11,475167	0,5	2,601350
11,483500	0,5	2,620850
11,491833	0,5	2,641550
11,500167	0,5	2,650750
11,508500	0,5	2,655350
11,516833	0,5	2,663500
11,525167	0,5	2,657200
11,533500	0,5	2,645050
11,541833	0,5	2,629950
11,550167	0,5	2,615300
11,558500	0,5	2,596000
11,566833	0,5	2,582350
11,575167	0,5	2,575600
11,583500	0,5	2,561200
11,591833	0,5	2,552750
11,600167	0,5	2,546250
11,608500	0,5	2,537950
11,616833	0,5	2,528400
11,625167	0,5	2,518100
11,633500	0,5	2,525200
11,641833	0,5	2,531200
11,650167	0,5	2,534750
11,658500	0,5	2,543250
11,666833	0,5	2,558800
11,675167	0,5	2,576100
11,683500	0,5	2,591800
11,691833	0,5	2,614300
11,700167	0,5	2,649500
11,708500	0,5	2,689150
11,716833	0,5	2,736300
11,725167	0,5	2,790200
11,733500	0,5	2,832300
11,741833	0,5	2,869200
11,750167	0,5	2,881250
11,758500	0,5	2,871750
11,766833	0,5	2,845000
11,775167	0,5	2,818300
11,783500	0,5	2,776200
11,791833	0,5	2,737650
11,800167	0,5	2,698450
11,808500	0,5	2,668300
11,816833	0,5	2,632950
11,825167	0,5	2,614750
11,833500	0,5	2,589000
11,841833	0,5	2,577550
11,850167	0,5	2,560750
11,858500	0,5	2,546750
11,866833	0,5	2,537250
11,875167	0,5	2,520800
11,883500	0,5	2,514150
11,891833	0,5	2,507150
11,900167	0,5	2,496000
11,908500	0,5	2,485600
11,916833	0,5	2,480850
11,925167	0,5	2,485150
11,933500	0,5	2,496050
11,941833	0,5	2,507950
11,950167	0,5	2,523400
11,958500	0,5	2,548850
11,966833	0,5	2,580650
11,975167	0,5	2,607000
11,983500	0,5	2,632300
11,991833	0,5	2,645750
12,000167	0,5	2,645600
12,008500	0,5	2,643150
12,016833	0,5	2,619450
12,025167	0,5	2,589850
12,033500	0,5	2,572350
12,041833	0,5	2,550300
12,050167	0,5	2,524700
12,058500	0,5	2,516000
12,066833	0,5	2,496850
12,075167	0,5	2,490450
12,083500	0,5	2,487800
12,091833	0,5	2,485200
12,100167	0,5	2,474850
12,108500	0,5	2,477600
12,116833	0,5	2,474300
12,125167	0,5	2,470400
12,133500	0,5	2,473250
12,141833	0,5	2,477150
12,150167	0,5	2,478750
12,158500	0,5	2,478050
12,166833	0,5	2,481550
12,175167	0,5	2,479900
12,183500	0,5	2,489150
12,191833	0,5	2,488900
12,200167	0,5	2,497700
12,208500	0,5	2,505250
12,216833	0,5	2,520200
12,225167	0,5	2,539150
12,233500	0,5	2,557350
12,241833	0,5	2,570600
12,250167	0,5	2,582000
12,258500	0,5	2,590850
12,266833	0,5	2,605000
12,275167	0,5	2,603500
12,283500	0,5	2,614650
12,291833	0,5	2,606300
12,300167	0,5	2,601350
12,308500	0,5	2,598800
12,316833	0,5	2,589950
12,325167	0,5	2,581950
12,333500	0,5	2,582500
12,341833	0,5	2,579900
12,350167	0,5	2,579050
12,358500	0,5	2,585150
12,366833	0,5	2,595150
12,375167	0,5	2,610600
12,383500	0,5	2,626200
12,391833	0,5	2,640400
12,400167	0,5	2,653800
12,408500	0,5	2,660750
12,416833	0,5	2,667400
12,425167	0,5	2,673300
12,433500	0,5	2,683600
12,441833	0,5	2,688750
12,450167	0,5	2,698400
12,458500	0,5	2,714300
12,466833	0,5	2,717200
12,475167	0,5	2,726850
12,483500	0,5	2,743500
12,491833	0,5	2,756650
12,500167	0,5	2,761100
12,508500	0,5	2,767550
12,516833	0,5	2,768300
12,525167	0,5	2,776000
12,533500	0,5	2,763900
12,541833	0,5	2,749900
12,550167	0,5	2,733250
12,558500	0,5	2,718500
12,566833	0,5	2,705550
12,575167	0,5	2,692850
12,583500	0,5	2,684050
12,591833	0,5	2,683800
12,600167	0,5	2,689150
12,608500	0,5	2,690950
12,616833	0,5	2,700050
12,625167	0,5	2,712100
12,633500	0,5	2,722550
12,641833	0,5	2,731350
12,650167	0,5	2,744250
12,658500	0,5	2,755450
12,666833	0,5	2,774800
12,675167	0,5	2,790100
12,683500	0,5	2,804550
12,691833	0,5	2,826050
12,700167	0,5	2,859900
12,708500	0,5	2,896350
12,716833	0,5	2,939150
12,725167	0,5	2,982350
12,733500	0,5	3,022550
12,741833	0,5	3,055700
12,750167	0,5	3,072450
12,758500	0,5	3,069800
12,766833	0,5	3,057050
12,775167	0,5	3,040800
12,783500	0,5	3,011350
12,791833	0,5	2,989650
12,800167	0,5	2,974550
12,808500	0,5	2,960800
12,816833	0,5	2,948450
12,825167	0,5	2,934900
12,833500	0,5	2,915250
12,841833	0,5	2,899300
12,850167	0,5	2,888950
12,858500	0,5	2,874150
12,866833	0,5	2,873750
12,875167	0,5	2,866550
12,883500	0,5	2,848800
12,891833	0,5	2,822500
12,900167	0,5	2,787250
12,908500	0,5	2,741750
12,916833	0,5	2,703100
12,925167	0,5	2,663500
12,933500	0,5	2,630550
12,941833	0,5	2,611800
12,950167	0,5	2,597950
12,958500	0,5	2,586750
12,966833	0,5	2,582250
12,975167	0,5	2,570500
12,983500	0,5	2,549550
12,991833	0,5	2,527550
13,000167	0,5	2,500900
13,008500	0,5	2,470450
13,016833	0,5	2,441250
13,025167	0,5	2,413300
13,033500	0,5	2,395600
13,041833	0,5	2,372500
13,050167	0,5	2,358100
13,058500	0,5	2,342600
13,066833	0,5	2,334750
13,075167	0,5	2,326150
13,083500	0,5	2,312500
13,091833	0,5	2,301100
13,100167	0,5	2,285750
13,108500	0,5	2,277200
13,116833	0,5	2,272550
13,125167	0,5	2,260650
13,133500	0,5	2,263200
13,141833	0,5	2,249300
13,150167	0,5	2,240550
13,158500	0,5	2,233750
13,166833	0,5	2,226200
13,175167	0,5	2,222050
13,183500	0,5	2,217050
13,191833	0,5	2,216600
13,200167	0,5	2,215450
13,208500	0,5	2,210100
13,216833	0,5	2,206250
13,225167	0,5	2,194050
13,233500	0,5	2,184250
13,241833	0,5	2,179350
13,250167	0,5	2,174250
13,258500	0,5	2,178300
13,266833	0,5	2,176500
13,275167	0,5	2,175850
13,283500	0,5	2,177750
13,291833	0,5	2,170950
13,300167	0,5	2,165250
13,308500	0,5	2,151200
13,316833	0,5	2,140700
13,325167	0,5	2,133150
13,333500	0,5	2,126150
13,341833	0,5	2,115650
13,350167	0,5	2,105450
13,358500	0,5	2,098800
13,366833	0,5	2,091850
13,375167	0,5	2,091050
13,383500	0,5	2,090750
13,391833	0,5	2,084900
13,400167	0,5	2,083750
13,408500	0,5	2,078850
13,416833	0,5	2,082850
13,425167	0,5	2,077750
13,433500	0,5	2,075000
13,441833	0,5	2,072450
13,450167	0,5	2,065600
13,458500	0,5	2,068000
13,466833	0,5	2,067700
13,475167	0,5	2,073800
13,483500	0,5	2,084900
13,491833	0,5	2,089850
13,500167	0,5	2,093050
13,508500	0,5	2,099750
13,516833	0,5	2,108050
13,525167	0,5	2,110050
13,533500	0,5	2,098900
13,541833	0,5	2,089400
13,550167	0,5	2,086950
13,558500	0,5	2,103850
13,566833	0,5	2,129950
13,575167	0,5	2,157200
13,583500	0,5	2,176950
13,591833	0,5	2,174150
13,600167	0,5	2,142850
13,608500	0,5	2,065500
13,616833	0,5	1,922800
13,625167	0,5	1,705400
13,633500	0,5	1,407700
13,641833	0,5	1,034450
13,650167	0,5	0,672950
13,658500	0,5	0,418900
13,666833	0,5	0,263100
13,675167	0,5	0,153200
13,683500	0,5	0,080050
13,691833	0,5	0,034450
13,700167	0,5	0,002100
13,708500	0,5	-0,019400
13,716833	0,5	-0,024550
13,725167	0,5	-0,023550
13,733500	0,5	-0,015850
13,741833	0,5	-0,005800
13,750167	0,5	0,012200
13,758500	0,5	0,026850
13,766833	0,5	0,036400
13,775167	0,5	0,034100
13,783500	0,5	0,027300
13,791833	0,5	0,011200
13,800167	0,5	-0,012700
13,808500	0,5	-0,042450
13,816833	0,5	-0,068250
13,825167	0,5	-0,091100
13,833500	0,5	-0,115550
13,841833	0,5	-0,131550
13,850167	0,5	-0,136350
13,858500	0,5	-0,139750
13,866833	0,5	-0,136800
13,875167	0,5	-0,132250
13,883500	0,5	-0,129250
13,891833	0,5	-0,120300
13,900167	0,5	-0,112600
13,908500	0,5	-0,102650
13,916833	0,5	-0,094000
13,925167	0,5	-0,083250
13,933500	0,5	-0,070200
13,941833	0,5	-0,055650
13,950167	0,5	-0,054750
13,958500	0,5	-0,028550
13,966833	0,5	-0,017650
13,975167	0,5	-0,004000
13,983500	0,5	0,014150
13,991833	0,5	0,028150
14,000167	0,5	0,055350
14,008500	0,5	0,074250
14,016833	0,5	0,102300
14,025167	0,5	0,128150
14,033500	0,5	0,150350
14,041833	0,5	0,181400
14,050167	0,5	0,203150
14,058500	0,5	0,229150
14,066833	0,5	0,252500
14,075167	0,5	0,274650
14,083500	0,5	0,299250
14,091833	0,5	0,317300
14,100167	0,5	0,340700
14,108500	0,5	0,363650
14,116833	0,5	0,392700
14,125167	0,5	0,427450
14,133500	0,5	0,466750
14,141833	0,5	0,495600
14,150167	0,5	0,535400
14,158500	0,5	0,575750
14,166833	0,5	0,617250
14,175167	0,5	0,659950
14,183500	0,5	0,700500
14,191833	0,5	0,745800
14,200167	0,5	0,776900
14,208500	0,5	0,799950
14,216833	0,5	0,819950
14,225167	0,5	0,832250
14,233500	0,5	0,844850
14,241833	0,5	0,850050
14,250167	0,5	0,867900
14,258500	0,5	0,882750
14,266833	0,5	0,897550
14,275167	0,5	0,918750
14,283500	0,5	0,948350
14,291833	0,5	0,977700
14,300167	0,5	1,019850
14,308500	0,5	1,060400
14,316833	0,5	1,094600
14,325167	0,5	1,138650
14,333500	0,5	1,189350
14,341833	0,5	1,245850
14,350167	0,5	1,320700
14,358500	0,5	1,412200
14,366833	0,5	1,535500
14,375167	0,5	1,667450
14,383500	0,5	1,791550
14,391833	0,5	1,895850
14,400167	0,5	1,952600
14,408500	0,5	1,965650
14,416833	0,5	1,935400
14,425167	0,5	1,886700
14,433500	0,5	1,838250
14,441833	0,5	1,794700
14,450167	0,5	1,768050
14,458500	0,5	1,761400
14,466833	0,5	1,771950
14,475167	0,5	1,804800
14,483500	0,5	1,855500
14,491833	0,5	1,901200
14,500167	0,5	1,942100
14,508500	0,5	1,958000
14,516833	0,5	1,942250
14,525167	0,5	1,909900
14,533500	0,5	1,866250
14,541833	0,5	1,818500
14,550167	0,5	1,783700
14,558500	0,5	1,756750
14,566833	0,5	1,728000
14,575167	0,5	1,709650
14,583500	0,5	1,692300
14,591833	0,5	1,695700
14,600167	0,5	1,691700
14,608500	0,5	1,681700
14,616833	0,5	1,676950
14,625167	0,5	1,675850
14,633500	0,5	1,668200
14,641833	0,5	1,672150
14,650167	0,5	1,667200
14,658500	0,5	1,668600
14,666833	0,5	1,672300
14,675167	0,5	1,673100
14,683500	0,5	1,666250
14,691833	0,5	1,662300
14,700167	0,5	1,666300
14,708500	0,5	1,663200
14,716833	0,5	1,670100
14,725167	0,5	1,674400
14,733500	0,5	1,694000
14,741833	0,5	1,713800
14,750167	0,5	1,727200
14,758500	0,5	1,730750
14,766833	0,5	1,723550
14,775167	0,5	1,710900
14,783500	0,5	1,696850
14,791833	0,5	1,672150
14,800167	0,5	1,656350
14,808500	0,5	1,636750
14,816833	0,5	1,628800
14,825167	0,5	1,618000
14,833500	0,5	1,605600
14,841833	0,5	1,603400
14,850167	0,5	1,609800
14,858500	0,5	1,603350
14,866833	0,5	1,608700
14,875167	0,5	1,603250
14,883500	0,5	1,609050
14,891833	0,5	1,613000
14,900167	0,5	1,620950
14,908500	0,5	1,626950
14,916833	0,5	1,652350
14,925167	0,5	1,693050
14,933500	0,5	1,749050
14,941833	0,5	1,840750
14,950167	0,5	1,957750
14,958500	0,5	2,067350
14,966833	0,5	2,150750
14,975167	0,5	2,179250
14,983500	0,5	2,151800
14,991833	0,5	2,086250
15,000167	0,5	2,001900
15,008500	0,5	1,928350
15,016833	0,5	1,875900
15,025167	0,5	1,849550
15,033500	0,5	1,869000
15,041833	0,5	1,912700
15,050167	0,5	1,955250
15,058500	0,5	1,984950
15,066833	0,5	1,981900
15,075167	0,5	1,950350
15,083500	0,5	1,896550
15,091833	0,5	1,838000
15,100167	0,5	1,787100
15,108500	0,5	1,740700
15,116833	0,5	1,705750
15,125167	0,5	1,677850
15,133500	0,5	1,652100
15,141833	0,5	1,641050
15,150167	0,5	1,633950
15,158500	0,5	1,621450
15,166833	0,5	1,615000
15,175167	0,5	1,611550
15,183500	0,5	1,623100
15,191833	0,5	1,628050
15,200167	0,5	1,637000
15,208500	0,5	1,651400
15,216833	0,5	1,650900
15,225167	0,5	1,652550
15,233500	0,5	1,642700
15,241833	0,5	1,633000
15,250167	0,5	1,623200
15,258500	0,5	1,611850
15,266833	0,5	1,601250
15,275167	0,5	1,586900
15,283500	0,5	1,574150
15,291833	0,5	1,558800
15,300167	0,5	1,531350
15,308500	0,5	1,512700
15,316833	0,5	1,487350
15,325167	0,5	1,477600
15,333500	0,5	1,471350
15,341833	0,5	1,471800
15,350167	0,5	1,464700
15,358500	0,5	1,467600
15,366833	0,5	1,473200
15,375167	0,5	1,471750
15,383500	0,5	1,472300
15,391833	0,5	1,478400
15,400167	0,5	1,483200
15,408500	0,5	1,499600
15,416833	0,5	1,520150
15,425167	0,5	1,557350
15,433500	0,5	1,629050
15,441833	0,5	1,710900
15,450167	0,5	1,822850
15,458500	0,5	1,938850
15,466833	0,5	2,032000
15,475167	0,5	2,088350
15,483500	0,5	2,084900
15,491833	0,5	2,030000
15,500167	0,5	1,956400
15,508500	0,5	1,889250
15,516833	0,5	1,853000
15,525167	0,5	1,851000
15,533500	0,5	1,874900
15,541833	0,5	1,901350
15,550167	0,5	1,911550
15,558500	0,5	1,899250
15,566833	0,5	1,857800
15,575167	0,5	1,805100
15,583500	0,5	1,749600
15,591833	0,5	1,703050
15,600167	0,5	1,668200
15,608500	0,5	1,638850
15,616833	0,5	1,627750
15,625167	0,5	1,631100
15,633500	0,5	1,634150
15,641833	0,5	1,635050
15,650167	0,5	1,622800
15,658500	0,5	1,616800
15,666833	0,5	1,607900
15,675167	0,5	1,595750
15,683500	0,5	1,585850
15,691833	0,5	1,580350
15,700167	0,5	1,575000
15,708500	0,5	1,570550
15,716833	0,5	1,551700
15,725167	0,5	1,541800
15,733500	0,5	1,528750
15,741833	0,5	1,503800
15,750167	0,5	1,480400
15,758500	0,5	1,449250
15,766833	0,5	1,438250
15,775167	0,5	1,421050
15,783500	0,5	1,408450
15,791833	0,5	1,397550
15,800167	0,5	1,385250
15,808500	0,5	1,376850
15,816833	0,5	1,370450
15,825167	0,5	1,364450
15,833500	0,5	1,360900
15,841833	0,5	1,353850
15,850167	0,5	1,357150
15,858500	0,5	1,361650
15,866833	0,5	1,382750
15,875167	0,5	1,417250
15,883500	0,5	1,481750
15,891833	0,5	1,579400
15,900167	0,5	1,689700
15,908500	0,5	1,806550
15,916833	0,5	1,910600
15,925167	0,5	1,969750
15,933500	0,5	1,965750
15,941833	0,5	1,917050
15,950167	0,5	1,857400
15,958500	0,5	1,825350
15,966833	0,5	1,806800
15,975167	0,5	1,812550
15,983500	0,5	1,810550
15,991833	0,5	1,797500
16,000167	0,5	1,766150
16,008500	0,5	1,705200
16,016833	0,5	1,654250
16,025167	0,5	1,605800
16,033500	0,5	1,561450
16,041833	0,5	1,520050
16,050167	0,5	1,472850
16,058500	0,5	1,450250
16,066833	0,5	1,445600
16,075167	0,5	1,439350
16,083500	0,5	1,435500
16,091833	0,5	1,440450
16,100167	0,5	1,437850
16,108500	0,5	1,440600
16,116833	0,5	1,433150
16,125167	0,5	1,424850
16,133500	0,5	1,407800
16,141833	0,5	1,391700
16,150167	0,5	1,378300
16,158500	0,5	1,344150
16,166833	0,5	1,333500
16,175167	0,5	1,313850
16,183500	0,5	1,289850
16,191833	0,5	1,269400
16,200167	0,5	1,243700
16,208500	0,5	1,238550
16,216833	0,5	1,238850
16,225167	0,5	1,229250
16,233500	0,5	1,229500
16,241833	0,5	1,224450
16,250167	0,5	1,227550
16,258500	0,5	1,235250
16,266833	0,5	1,254600
16,275167	0,5	1,286800
16,283500	0,5	1,339700
16,291833	0,5	1,449750
16,300167	0,5	1,560100
16,308500	0,5	1,680150
16,316833	0,5	1,785400
16,325167	0,5	1,842150
16,333500	0,5	1,847550
16,341833	0,5	1,817250
16,350167	0,5	1,767550
16,358500	0,5	1,754000
16,366833	0,5	1,750400
16,375167	0,5	1,737350
16,383500	0,5	1,711150
16,391833	0,5	1,664550
16,400167	0,5	1,598800
16,408500	0,5	1,538800
16,416833	0,5	1,481500
16,425167	0,5	1,439700
16,433500	0,5	1,416700
16,441833	0,5	1,410500
16,450167	0,5	1,402700
16,458500	0,5	1,397100
16,466833	0,5	1,413650
16,475167	0,5	1,403900
16,483500	0,5	1,398650
16,491833	0,5	1,386400
16,500167	0,5	1,381250
16,508500	0,5	1,369300
16,516833	0,5	1,361800
16,525167	0,5	1,338800
16,533500	0,5	1,321650
16,541833	0,5	1,295100
16,550167	0,5	1,274150
16,558500	0,5	1,252550
16,566833	0,5	1,229000
16,575167	0,5	1,211050
16,583500	0,5	1,199350
16,591833	0,5	1,189700
16,600167	0,5	1,176700
16,608500	0,5	1,178600
16,616833	0,5	1,187150
16,625167	0,5	1,201000
16,633500	0,5	1,227050
16,641833	0,5	1,270750
16,650167	0,5	1,345300
16,658500	0,5	1,463300
16,666833	0,5	1,600550
16,675167	0,5	1,721900
16,683500	0,5	1,815050
16,691833	0,5	1,868950
16,700167	0,5	1,869000
16,708500	0,5	1,840300
16,716833	0,5	1,814700
16,725167	0,5	1,780850
16,733500	0,5	1,751400
16,741833	0,5	1,707450
16,750167	0,5	1,656950
16,758500	0,5	1,620000
16,766833	0,5	1,593900
16,775167	0,5	1,578500
16,783500	0,5	1,570750
16,791833	0,5	1,590050
16,800167	0,5	1,613600
16,808500	0,5	1,647600
16,816833	0,5	1,674700
16,825167	0,5	1,688700
16,833500	0,5	1,710500
16,841833	0,5	1,712950
16,850167	0,5	1,704300
16,858500	0,5	1,689750
16,866833	0,5	1,652900
16,875167	0,5	1,617050
16,883500	0,5	1,573200
16,891833	0,5	1,511350
16,900167	0,5	1,471350
16,908500	0,5	1,427100
16,916833	0,5	1,385150
16,925167	0,5	1,336600
16,933500	0,5	1,295150
16,941833	0,5	1,279100
16,950167	0,5	1,277500
16,958500	0,5	1,279650
16,966833	0,5	1,311000
16,975167	0,5	1,374750
16,983500	0,5	1,468000
16,991833	0,5	1,579900
17,000167	0,5	1,679000
17,008500	0,5	1,745900
17,016833	0,5	1,757450
17,025167	0,5	1,748500
17,033500	0,5	1,715400
17,041833	0,5	1,666550
17,050167	0,5	1,632700
17,058500	0,5	1,584150
17,066833	0,5	1,527950
17,075167	0,5	1,467750
17,083500	0,5	1,412150
17,091833	0,5	1,387550
17,100167	0,5	1,368000
17,108500	0,5	1,358850
17,116833	0,5	1,359550
17,125167	0,5	1,356550
17,133500	0,5	1,357550
17,141833	0,5	1,354650
17,150167	0,5	1,350150
17,158500	0,5	1,344200
17,166833	0,5	1,317350
17,175167	0,5	1,303250
17,183500	0,5	1,298800
17,191833	0,5	1,276200
17,200167	0,5	1,288250
17,208500	0,5	1,284650
17,216833	0,5	1,297650
17,225167	0,5	1,300750
17,233500	0,5	1,324050
17,241833	0,5	1,386850
17,250167	0,5	1,459300
17,258500	0,5	1,573400
17,266833	0,5	1,724600
17,275167	0,5	1,923100
17,283500	0,5	2,151550
17,291833	0,5	2,413000
17,300167	0,5	2,664550
17,308500	0,5	2,921650
17,316833	0,5	3,172950
17,325167	0,5	3,425950
17,333500	0,5	3,664600
17,341833	0,5	3,882800
17,350167	0,5	4,060900
17,358500	0,5	4,184200
17,366833	0,5	4,246050
17,375167	0,5	4,230200
17,383500	0,5	4,164300
17,391833	0,5	4,049950
17,400167	0,5	3,873350
17,408500	0,5	3,662350
17,416833	0,5	3,430700
17,425167	0,5	3,189650
17,433500	0,5	2,961400
17,441833	0,5	2,749300
17,450167	0,5	2,570350
17,458500	0,5	2,414350
17,466833	0,5	2,302600
17,475167	0,5	2,211800
17,483500	0,5	2,145000
17,491833	0,5	2,116050
17,500167	0,5	2,101350
17,508500	0,5	2,102000
17,516833	0,5	2,101000
17,525167	0,5	2,115150
17,533500	0,5	2,153900
17,541833	0,5	2,194350
17,550167	0,5	2,231600
17,558500	0,5	2,231950
17,566833	0,5	2,232500
17,575167	0,5	2,207300
17,583500	0,5	2,187500
17,591833	0,5	2,158200
17,600167	0,5	2,135650
17,608500	0,5	2,118700
17,616833	0,5	2,102050
17,625167	0,5	2,076050
17,633500	0,5	2,057350
17,641833	0,5	2,045600
17,650167	0,5	2,008050
17,658500	0,5	1,966900
17,666833	0,5	1,903550
17,675167	0,5	1,844800
17,683500	0,5	1,778250
17,691833	0,5	1,722850
17,700167	0,5	1,651200
17,708500	0,5	1,602250
17,716833	0,5	1,550650
17,725167	0,5	1,511950
17,733500	0,5	1,490100
17,741833	0,5	1,468200
17,750167	0,5	1,456050
17,758500	0,5	1,472100
17,766833	0,5	1,508100
17,775167	0,5	1,538850
17,783500	0,5	1,594300
17,791833	0,5	1,634850
17,800167	0,5	1,642900
17,808500	0,5	1,623150
17,816833	0,5	1,578750
17,825167	0,5	1,535350
17,833500	0,5	1,500300
17,841833	0,5	1,444000
17,850167	0,5	1,398850
17,858500	0,5	1,366850
17,866833	0,5	1,337000
17,875167	0,5	1,314800
17,883500	0,5	1,294550
17,891833	0,5	1,270000
17,900167	0,5	1,250000
17,908500	0,5	1,245050
17,916833	0,5	1,229050
17,925167	0,5	1,200500
17,933500	0,5	1,201500
17,941833	0,5	1,194400
17,950167	0,5	1,187150
17,958500	0,5	1,188100
17,966833	0,5	1,179700
17,975167	0,5	1,218150
17,983500	0,5	1,255400
17,991833	0,5	1,309550
18,000167	0,5	1,367750
18,008500	0,5	1,414300
18,016833	0,5	1,428400
18,025167	0,5	1,433450
18,033500	0,5	1,415100
18,041833	0,5	1,376000
18,050167	0,5	1,332850
18,058500	0,5	1,304950
18,066833	0,5	1,260700
18,075167	0,5	1,235050
18,083500	0,5	1,213000
18,091833	0,5	1,195750
18,100167	0,5	1,174850
18,108500	0,5	1,148800
18,116833	0,5	1,133850
18,125167	0,5	1,130950
18,133500	0,5	1,129200
18,141833	0,5	1,128950
18,150167	0,5	1,133400
18,158500	0,5	1,140200
18,166833	0,5	1,159850
18,175167	0,5	1,188900
18,183500	0,5	1,226350
18,191833	0,5	1,264600
18,200167	0,5	1,314300
18,208500	0,5	1,351150
18,216833	0,5	1,348050
18,225167	0,5	1,343200
18,233500	0,5	1,313500
18,241833	0,5	1,278750
18,250167	0,5	1,243400
18,258500	0,5	1,196350
18,266833	0,5	1,175400
18,275167	0,5	1,161600
18,283500	0,5	1,155450
18,291833	0,5	1,139450
18,300167	0,5	1,125350
18,308500	0,5	1,123750
18,316833	0,5	1,119450
18,325167	0,5	1,129150
18,333500	0,5	1,128250
18,341833	0,5	1,141200
18,350167	0,5	1,164550
18,358500	0,5	1,209550
18,366833	0,5	1,241100
18,375167	0,5	1,295050
18,383500	0,5	1,318200
18,391833	0,5	1,323350
18,400167	0,5	1,299300
18,408500	0,5	1,254750
18,416833	0,5	1,223350
18,425167	0,5	1,202300
18,433500	0,5	1,175100
18,441833	0,5	1,163900
18,450167	0,5	1,152950
18,458500	0,5	1,139650
18,466833	0,5	1,138000
18,475167	0,5	1,128300
18,483500	0,5	1,126200
18,491833	0,5	1,125750
18,500167	0,5	1,138750
18,508500	0,5	1,141650
18,516833	0,5	1,165950
18,525167	0,5	1,196050
18,533500	0,5	1,230500
18,541833	0,5	1,248900
18,550167	0,5	1,245650
18,558500	0,5	1,234050
18,566833	0,5	1,230400
18,575167	0,5	1,208900
18,583500	0,5	1,189000
18,591833	0,5	1,171300
18,600167	0,5	1,153350
18,608500	0,5	1,142050
18,616833	0,5	1,128900
18,625167	0,5	1,127450
18,633500	0,5	1,117500
18,641833	0,5	1,123400
18,650167	0,5	1,131150
18,658500	0,5	1,119000
18,666833	0,5	1,133050
18,675167	0,5	1,150200
18,683500	0,5	1,161650
18,691833	0,5	1,169350
18,700167	0,5	1,152950
18,708500	0,5	1,164700
18,716833	0,5	1,159850
18,725167	0,5	1,152400
18,733500	0,5	1,127300
18,741833	0,5	1,121100
18,750167	0,5	1,101100
18,758500	0,5	1,089200
18,766833	0,5	1,081500
18,775167	0,5	1,077050
18,783500	0,5	1,072550
18,791833	0,5	1,081200
18,800167	0,5	1,070300
18,808500	0,5	1,060500
18,816833	0,5	1,079050
18,825167	0,5	1,096000
18,833500	0,5	1,118950
18,841833	0,5	1,118750
18,850167	0,5	1,130800
18,858500	0,5	1,141400
18,866833	0,5	1,145600
18,875167	0,5	1,138200
18,883500	0,5	1,143600
18,891833	0,5	1,144200
18,900167	0,5	1,155500
18,908500	0,5	1,163000
18,916833	0,5	1,172450
18,925167	0,5	1,186250
18,933500	0,5	1,197800
18,941833	0,5	1,220850
18,950167	0,5	1,228100
18,958500	0,5	1,245100
18,966833	0,5	1,248300
18,975167	0,5	1,238950
18,983500	0,5	1,211600
18,991833	0,5	1,156700
19,000167	0,5	1,127050
19,008500	0,5	1,101550
19,016833	0,5	1,067300
19,025167	0,5	1,044100
19,033500	0,5	1,020650
19,041833	0,5	1,005450
19,050167	0,5	0,999850
19,058500	0,5	1,007800
19,066833	0,5	1,011750
19,075167	0,5	1,014400
19,083500	0,5	1,027250
19,091833	0,5	1,037200
19,100167	0,5	1,016500
19,108500	0,5	1,006600
19,116833	0,5	0,986700
19,125167	0,5	0,960100
19,133500	0,5	0,932400
19,141833	0,5	0,896300
19,150167	0,5	0,903350
19,158500	0,5	0,902550
19,166833	0,5	0,907400
19,175167	0,5	0,910800
19,183500	0,5	0,925750
19,191833	0,5	0,917700
19,200167	0,5	0,925200
19,208500	0,5	0,915500
19,216833	0,5	0,911550
19,225167	0,5	0,904700
19,233500	0,5	0,906600
19,241833	0,5	0,902350
19,250167	0,5	0,886850
19,258500	0,5	0,891350
19,266833	0,5	0,878100
19,275167	0,5	0,870000
19,283500	0,5	0,844550
19,291833	0,5	0,830450
19,300167	0,5	0,831150
19,308500	0,5	0,830000
19,316833	0,5	0,812650
19,325167	0,5	0,806700
19,333500	0,5	0,788200
19,341833	0,5	0,782250
19,350167	0,5	0,764100
19,358500	0,5	0,760200
19,366833	0,5	0,746800
19,375167	0,5	0,748650
19,383500	0,5	0,752850
19,391833	0,5	0,743400
19,400167	0,5	0,735200
19,408500	0,5	0,738450
19,416833	0,5	0,717300
19,425167	0,5	0,695050
19,433500	0,5	0,667450
19,441833	0,5	0,652900
19,450167	0,5	0,660300
19,458500	0,5	0,657450
19,466833	0,5	0,655550
19,475167	0,5	0,649750
19,483500	0,5	0,646450
19,491833	0,5	0,626200
19,500167	0,5	0,622750
19,508500	0,5	0,612850
19,516833	0,5	0,597700
19,525167	0,5	0,601500
19,533500	0,5	0,601500
19,541833	0,5	0,586800
19,550167	0,5	0,589350
19,558500	0,5	0,573050
19,566833	0,5	0,572950
19,575167	0,5	0,553850
19,583500	0,5	0,536250
19,591833	0,5	0,537850
19,600167	0,5	0,534600
19,608500	0,5	0,535600
19,616833	0,5	0,528600
19,625167	0,5	0,526200
19,633500	0,5	0,519400
19,641833	0,5	0,519800
19,650167	0,5	0,516200
19,658500	0,5	0,502650
19,666833	0,5	0,491200
19,675167	0,5	0,494900
19,683500	0,5	0,474500
19,691833	0,5	0,484400
19,700167	0,5	0,471300
19,708500	0,5	0,462750
19,716833	0,5	0,443600
19,725167	0,5	0,399050
19,733500	0,5	0,394700
19,741833	0,5	0,391000
19,750167	0,5	0,398000
19,758500	0,5	0,389450
19,766833	0,5	0,383850
19,775167	0,5	0,376800
19,783500	0,5	0,372400
19,791833	0,5	0,367750
19,800167	0,5	0,363800
19,808500	0,5	0,345200
19,816833	0,5	0,351550
19,825167	0,5	0,339100
19,833500	0,5	0,317850
19,841833	0,5	0,317600
19,850167	0,5	0,310550
19,858500	0,5	0,297950
19,866833	0,5	0,280750
19,875167	0,5	0,243450
19,883500	0,5	0,240950
19,891833	0,5	0,241350
19,900167	0,5	0,223000
19,908500	0,5	0,210750
19,916833	0,5	0,198600
19,925167	0,5	0,184100
19,933500	0,5	0,161850
19,941833	0,5	0,156050
19,950167	0,5	0,139050
19,958500	0,5	0,135650
19,966833	0,5	0,128500
19,975167	0,5	0,122950
19,983500	0,5	0,105150
19,991833	0,5	0,101350
20,000167	0,5	0,089700
20,008500	0,5	0,080250
20,016833	0,5	0,060600
20,025167	0,5	0,048650
20,033500	0,5	0,063250
20,041833	0,5	0,057350
20,050167	0,5	0,050400
20,058500	0,5	0,045200
20,066833	0,5	0,027550
20,075167	0,5	0,008450
20,083500	0,5	-0,006350
20,091833	0,5	-0,025450
20,100167	0,5	-0,043550
20,108500	0,5	-0,065350
20,116833	0,5	-0,064200
20,125167	0,5	-0,095400
20,133500	0,5	-0,104350
20,141833	0,5	-0,116500
20,150167	0,5	-0,129800
20,158500	0,5	-0,155250
20,166833	0,5	-0,182400
20,175167	0,5	-0,207500
20,183500	0,5	-0,219200
20,191833	0,5	-0,232350
20,200167	0,5	-0,252400
20,208500	0,5	-0,267350
20,216833	0,5	-0,277800
20,225167	0,5	-0,291700
20,233500	0,5	-0,306950
20,241833	0,5	-0,320000
20,250167	0,5	-0,345000
20,258500	0,5	-0,336500
20,266833	0,5	-0,347250
20,275167	0,5	-0,370550
20,283500	0,5	-0,372900
20,291833	0,5	-0,388550
20,300167	0,5	-0,402250
20,308500	0,5	-0,426600
20,316833	0,5	-0,474050
20,325167	0,5	-0,482700
20,333500	0,5	-0,503300
20,341833	0,5	-0,515100
20,350167	0,5	-0,531250
20,358500	0,5	-0,551100
20,366833	0,5	-0,571300
20,375167	0,5	-0,583350
20,383500	0,5	-0,585750
20,391833	0,5	-0,602200
20,400167	0,5	-0,602750
20,408500	0,5	-0,614700
20,416833	0,5	-0,632500
20,425167	0,5	-0,650200
20,433500	0,5	-0,664050
20,441833	0,5	-0,704950
20,450167	0,5	-0,720850
20,458500	0,5	-0,770350
20,466833	0,5	-0,797500
20,475167	0,5	-0,822500
20,483500	0,5	-0,833800
20,491833	0,5	-0,858900
20,500167	0,5	-0,876700
20,508500	0,5	-0,896850
20,516833	0,5	-0,920800
20,525167	0,5	-0,940750
20,533500	0,5	-0,963100
20,541833	0,5	-0,978600
20,550167	0,5	-0,984800
20,558500	0,5	-0,983200
20,566833	0,5	-1,019450
20,575167	0,5	-1,039400
20,583500	0,5	-1,068550
20,591833	0,5	-1,095800
20,600167	0,5	-1,142500
20,608500	0,5	-1,174600
20,616833	0,5	-1,192300
20,625167	0,5	-1,199550
20,633500	0,5	-1,223100
20,641833	0,5	-1,242500
20,650167	0,5	-1,283750
20,658500	0,5	-1,312750
20,666833	0,5	-1,350500
20,675167	0,5	-1,388850
20,683500	0,5	-1,411700
20,691833	0,5	-1,464600
20,700167	0,5	-1,469200
20,708500	0,5	-1,493550
20,716833	0,5	-1,533000
20,725167	0,5	-1,564500
20,733500	0,5	-1,593000
20,741833	0,5	-1,637350
20,750167	0,5	-1,698650
20,758500	0,5	-1,727850
20,766833	0,5	-1,741800
20,775167	0,5	-1,766250
20,783500	0,5	-1,774400
20,791833	0,5	-1,783000
20,800167	0,5	-1,782350
20,808500	0,5	-1,800950
20,816833	0,5	-1,812550
20,825167	0,5	-1,849700
20,833500	0,5	-1,893350
20,841833	0,5	-1,917650
20,850167	0,5	-1,952250
20,858500	0,5	-1,995750
20,866833	0,5	-2,027550
20,875167	0,5	-2,081600
20,883500	0,5	-2,120000
20,891833	0,5	-2,169850
20,900167	0,5	-2,234800
20,908500	0,5	-2,248950
20,916833	0,5	-2,285900
20,925167	0,5	-2,308950
20,933500	0,5	-2,346050
20,941833	0,5	-2,362750
20,950167	0,5	-2,384100
20,958500	0,5	-2,410050
20,966833	0,5	-2,428500
20,975167	0,5	-2,444100
20,983500	0,5	-2,466700
20,991833	0,5	-2,467200
21,000167	0,5	-2,487150
21,008500	0,5	-2,529200
21,016833	0,5	-2,548750
21,025167	0,5	-2,583950
21,033500	0,5	-2,618200
21,041833	0,5	-2,669250
21,050167	0,5	-2,720700
21,058500	0,5	-2,734800
21,066833	0,5	-2,750050
21,075167	0,5	-2,779100
21,083500	0,5	-2,795750
21,091833	0,5	-2,823700
21,100167	0,5	-2,845200
21,108500	0,5	-2,863300
21,116833	0,5	-2,883900
21,125167	0,5	-2,907500
21,133500	0,5	-2,910700
21,141833	0,5	-2,910150
21,150167	0,5	-2,917500
21,158500	0,5	-2,942650
21,166833	0,5	-2,975100
21,175167	0,5	-2,998300
21,183500	0,5	-3,039550
21,191833	0,5	-3,076200
21,200167	0,5	-3,117450
21,208500	0,5	-3,129300
21,216833	0,5	-3,157150
21,225167	0,5	-3,164950
21,233500	0,5	-3,194950
21,241833	0,5	-3,208300
21,250167	0,5	-3,237400
21,258500	0,5	-3,249700
21,266833	0,5	-3,269250
21,275167	0,5	-3,289900
21,283500	0,5	-3,271050
21,291833	0,5	-3,249250
21,300167	0,5	-3,265200
21,308500	0,5	-3,278700
21,316833	0,5	-3,307550
21,325167	0,5	-3,333000
21,333500	0,5	-3,367350
21,341833	0,5	-3,392200
21,350167	0,5	-3,385750
21,358500	0,5	-3,387500
21,366833	0,5	-3,396400
21,375167	0,5	-3,412300
21,383500	0,5	-3,432800
21,391833	0,5	-3,459350
21,400167	0,5	-3,488000
21,408500	0,5	-3,504800
21,416833	0,5	-3,530700
21,425167	0,5	-3,543800
21,433500	0,5	-3,530650
21,441833	0,5	-3,549700
21,450167	0,5	-3,572400
21,458500	0,5	-3,588350
21,466833	0,5	-3,624250
21,475167	0,5	-3,654900
21,483500	0,5	-3,704200
21,491833	0,5	-3,717600
21,500167	0,5	-3,743750
21,508500	0,5	-3,748100
21,516833	0,5	-3,779500
21,525167	0,5	-3,782350
21,533500	0,5	-3,798800
21,541833	0,5	-3,817350
21,550167	0,5	-3,822600
21,558500	0,5	-3,850400
21,566833	0,5	-3,862300
21,575167	0,5	-3,855400
21,583500	0,5	-3,849850
21,591833	0,5	-3,862900
21,600167	0,5	-3,890800
21,608500	0,5	-3,907750
21,616833	0,5	-3,930500
21,625167	0,5	-3,982900
21,633500	0,5	-4,003900
21,641833	0,5	-4,016950
21,650167	0,5	-4,029200
21,658500	0,5	-4,034150
21,666833	0,5	-4,039600
21,675167	0,5	-4,061550
21,683500	0,5	-4,065450
21,691833	0,5	-4,062250
21,700167	0,5	-4,062800
21,708500	0,5	-4,059250
21,716833	0,5	-4,053200
21,725167	0,5	-4,018200
21,733500	0,5	-4,008150
21,741833	0,5	-4,025400
21,750167	0,5	-4,055150
21,758500	0,5	-4,082150
21,766833	0,5	-4,118800
21,775167	0,5	-4,176400
21,783500	0,5	-4,191850
21,791833	0,5	-4,183000
21,800167	0,5	-4,202950
21,808500	0,5	-4,219750
21,816833	0,5	-4,245650
21,825167	0,5	-4,252050
21,833500	0,5	-4,271900
21,841833	0,5	-4,277550
21,850167	0,5	-4,289500
21,858500	0,5	-4,307850
21,866833	0,5	-4,290200
21,875167	0,5	-4,276450
21,883500	0,5	-4,312900
21,891833	0,5	-4,301400
21,900167	0,5	-4,304450
21,908500	0,5	-4,319650
21,916833	0,5	-4,340050
21,925167	0,5	-4,384350
21,933500	0,5	-4,385050
21,941833	0,5	-4,396950
21,950167	0,5	-4,403950
21,958500	0,5	-4,431900
21,966833	0,5	-4,435000
21,975167	0,5	-4,445550
21,983500	0,5	-4,442450
21,991833	0,5	-4,429250
22,000167	0,5	-4,428250
22,008500	0,5	-4,438050
22,016833	0,5	-4,448550
22,025167	0,5	-4,490150
22,033500	0,5	-4,528500
22,041833	0,5	-4,556500
22,050167	0,5	-4,597400
22,058500	0,5	-4,639650
22,066833	0,5	-4,682050
22,075167	0,5	-4,708400
22,083500	0,5	-4,736800
22,091833	0,5	-4,761300
22,100167	0,5	-4,781100
22,108500	0,5	-4,810700
22,116833	0,5	-4,841600
22,125167	0,5	-4,868050
22,133500	0,5	-4,883200
22,141833	0,5	-4,903850
22,150167	0,5	-4,925700
22,158500	0,5	-4,955300
22,166833	0,5	-4,974700
22,175167	0,5	-5,011650
22,183500	0,5	-5,005600
22,191833	0,5	-5,040150
22,200167	0,5	-5,062450
22,208500	0,5	-5,093500
22,216833	0,5	-5,130100
22,225167	0,5	-5,147500
22,233500	0,5	-5,153250
22,241833	0,5	-5,181300
22,250167	0,5	-5,189550
22,258500	0,5	-5,211050
22,266833	0,5	-5,224250
22,275167	0,5	-5,240200
22,283500	0,5	-5,257050
22,291833	0,5	-5,271800
22,300167	0,5	-5,290950
22,308500	0,5	-5,310650
22,316833	0,5	-5,328450
22,325167	0,5	-5,335050
22,333500	0,5	-5,326500
22,341833	0,5	-5,326400
22,350167	0,5	-5,337950
22,358500	0,5	-5,348900
22,366833	0,5	-5,352400
22,375167	0,5	-5,328350
22,383500	0,5	-5,324750
22,391833	0,5	-5,311400
22,400167	0,5	-5,297050
22,408500	0,5	-5,267300
22,416833	0,5	-5,235800
22,425167	0,5	-5,218800
22,433500	0,5	-5,232400
22,441833	0,5	-5,264200
22,450167	0,5	-5,342850
22,458500	0,5	-5,398850
22,466833	0,5	-5,434750
22,475167	0,5	-5,449000
22,483500	0,5	-5,468000
22,491833	0,5	-5,509750
22,500167	0,5	-5,535950
22,508500	0,5	-5,567800
22,516833	0,5	-5,576100
22,525167	0,5	-5,603350
22,533500	0,5	-5,611350
22,541833	0,5	-5,629500
22,550167	0,5	-5,640050
22,558500	0,5	-5,655450
22,566833	0,5	-5,667950
22,575167	0,5	-5,681200
22,583500	0,5	-5,695350
22,591833	0,5	-5,717100
22,600167	0,5	-5,774200
22,608500	0,5	-5,785300
22,616833	0,5	-5,762750
22,625167	0,5	-5,744700
22,633500	0,5	-5,738200
22,641833	0,5	-5,745100
22,650167	0,5	-5,742250
22,658500	0,5	-5,732950
22,666833	0,5	-5,714300
22,675167	0,5	-5,692700
22,683500	0,5	-5,689050
22,691833	0,5	-5,679550
22,700167	0,5	-5,687250
22,708500	0,5	-5,677200
22,716833	0,5	-5,689300
22,725167	0,5	-5,702600
22,733500	0,5	-5,716450
22,741833	0,5	-5,773300
22,750167	0,5	-5,793850
22,758500	0,5	-5,817850
22,766833	0,5	-5,799050
22,775167	0,5	-5,805250
22,783500	0,5	-5,824450
22,791833	0,5	-5,857850
22,800167	0,5	-5,891900
22,808500	0,5	-5,889450
22,816833	0,5	-5,892650
22,825167	0,5	-5,903500
22,833500	0,5	-5,916450
22,841833	0,5	-5,913800
22,850167	0,5	-5,914450
22,858500	0,5	-5,909300
22,866833	0,5	-5,900950
22,875167	0,5	-5,887400
22,883500	0,5	-5,891000
22,891833	0,5	-5,963800
22,900167	0,5	-5,947750
22,908500	0,5	-5,927200
22,916833	0,5	-5,903350
22,925167	0,5	-5,891600
22,933500	0,5	-5,885150
22,941833	0,5	-5,886150
22,950167	0,5	-5,880600
22,958500	0,5	-5,884700
22,966833	0,5	-5,871250
22,975167	0,5	-5,871850
22,983500	0,5	-5,851250
22,991833	0,5	-5,836950
23,000167	0,5	-5,807650
23,008500	0,5	-5,783750
23,016833	0,5	-5,747300
23,025167	0,5	-5,702250
23,033500	0,5	-5,634350
23,041833	0,5	-5,622300
23,050167	0,5	-5,567200
23,058500	0,5	-5,542700
23,066833	0,5	-5,506600
23,075167	0,5	-5,457950
23,083500	0,5	-5,408350
23,091833	0,5	-5,340800
23,100167	0,5	-5,312550
23,108500	0,5	-5,270250
23,116833	0,5	-5,224850
23,125167	0,5	-5,158850
23,133500	0,5	-5,102150
23,141833	0,5	-5,034700
23,150167	0,5	-4,965650
23,158500	0,5	-4,894350
23,166833	0,5	-4,823950
23,175167	0,5	-4,748000
23,183500	0,5	-4,624350
23,191833	0,5	-4,540050
23,200167	0,5	-4,461100
23,208500	0,5	-4,430800
23,216833	0,5	-4,352250
23,225167	0,5	-4,292300
23,233500	0,5	-4,201150
23,241833	0,5	-4,112750
23,250167	0,5	-4,048100
23,258500	0,5	-3,986900
23,266833	0,5	-3,918850
23,275167	0,5	-3,852100
23,283500	0,5	-3,772000
23,291833	0,5	-3,710550
23,300167	0,5	-3,630050
23,308500	0,5	-3,561400
23,316833	0,5	-3,482500
23,325167	0,5	-3,372800
23,333500	0,5	-3,316350
23,341833	0,5	-3,202900
23,350167	0,5	-3,134150
23,358500	0,5	-3,094500
23,366833	0,5	-3,033100
23,375167	0,5	-2,959200
23,383500	0,5	-2,884500
23,391833	0,5	-2,807450
23,400167	0,5	-2,766550
23,408500	0,5	-2,715800
23,416833	0,5	-2,668000
23,425167	0,5	-2,610600
23,433500	0,5	-2,552150
23,441833	0,5	-2,493800
23,450167	0,5	-2,447650
23,458500	0,5	-2,386100
23,466833	0,5	-2,335600
23,475167	0,5	-2,279700
23,483500	0,5	-2,254500
23,491833	0,5	-2,169800
23,500167	0,5	-2,100200
23,508500	0,5	-2,069500
23,516833	0,5	-2,020950
23,525167	0,5	-1,980450
23,533500	0,5	-1,926950
23,541833	0,5	-1,897850
23,550167	0,5	-1,857550
23,558500	0,5	-1,827550
23,566833	0,5	-1,795450
23,575167	0,5	-1,768450
23,583500	0,5	-1,733400
23,591833	0,5	-1,703650
23,600167	0,5	-1,674750
23,608500	0,5	-1,649050
23,616833	0,5	-1,614650
23,625167	0,5	-1,676900
23,633500	0,5	-1,639750
23,641833	0,5	-1,564000
23,650167	0,5	-1,518300
23,658500	0,5	-1,485600
23,666833	0,5	-1,457850
23,675167	0,5	-1,430950
23,683500	0,5	-1,408200
23,691833	0,5	-1,388400
23,700167	0,5	-1,371650
23,708500	0,5	-1,353550
23,716833	0,5	-1,329550
23,725167	0,5	-1,310300
23,733500	0,5	-1,287400
23,741833	0,5	-1,265350
23,750167	0,5	-1,249200
23,758500	0,5	-1,217550
23,766833	0,5	-1,231450
23,775167	0,5	-1,321950
23,783500	0,5	-1,277950
23,791833	0,5	-1,200400
23,800167	0,5	-1,162600
23,808500	0,5	-1,130450
23,816833	0,5	-1,105400
23,825167	0,5	-1,094000
23,833500	0,5	-1,078350
23,841833	0,5	-1,056650
23,850167	0,5	-1,039000
23,858500	0,5	-1,019150
23,866833	0,5	-1,003100
23,875167	0,5	-0,984400
23,883500	0,5	-0,969150
23,891833	0,5	-0,953850
23,900167	0,5	-0,930750
23,908500	0,5	-0,907700
23,916833	0,5	-1,041650
23,925167	0,5	-1,008100
23,933500	0,5	-0,982450
23,941833	0,5	-0,892600
23,950167	0,5	-0,855150
23,958500	0,5	-0,815000
23,966833	0,5	-0,786550
23,975167	0,5	-0,784000
23,983500	0,5	-0,757800
23,991833	0,5	-0,730500
24,000167	0,5	-0,718900
24,008500	0,5	-0,695250
24,016833	0,5	-0,677450
24,025167	0,5	-0,652200
24,033500	0,5	-0,638650
24,041833	0,5	-0,613700
24,050167	0,5	-0,613750
24,058500	0,5	-0,594100
24,066833	0,5	-0,722200
24,075167	0,5	-0,687250
24,083500	0,5	-0,637300
24,091833	0,5	-0,569400
24,100167	0,5	-0,536200
24,108500	0,5	-0,508200
24,116833	0,5	-0,485650
24,125167	0,5	-0,482300
24,133500	0,5	-0,451500
24,141833	0,5	-0,422600
24,150167	0,5	-0,393100
24,158500	0,5	-0,370750
24,166833	0,5	-0,346950
24,175167	0,5	-0,323950
24,183500	0,5	-0,300650
24,191833	0,5	-0,273350
24,200167	0,5	-0,253450
24,208500	0,5	-0,308100
24,216833	0,5	-0,354700
24,225167	0,5	-0,311150
24,233500	0,5	-0,255450
24,241833	0,5	-0,209800
24,250167	0,5	-0,183850
24,258500	0,5	-0,160800
24,266833	0,5	-0,153500
24,275167	0,5	-0,143400
24,283500	0,5	-0,122800
24,291833	0,5	-0,092650
24,300167	0,5	-0,079450
24,308500	0,5	-0,057050
24,316833	0,5	-0,036750
24,325167	0,5	-0,010400
24,333500	0,5	0,009750
24,341833	0,5	0,034500
24,350167	0,5	0,049450
24,358500	0,5	-0,034400
24,366833	0,5	-0,017000
24,375167	0,5	0,013950
24,383500	0,5	0,064100
24,391833	0,5	0,103750
24,400167	0,5	0,124850
24,408500	0,5	0,133300
24,416833	0,5	0,145150
24,425167	0,5	0,152450
24,433500	0,5	0,185350
24,441833	0,5	0,201100
24,450167	0,5	0,218000
24,458500	0,5	0,231100
24,466833	0,5	0,247550
24,475167	0,5	0,266900
24,483500	0,5	0,286450
24,491833	0,5	0,297200
24,500167	0,5	0,293250
24,508500	0,5	0,241400
24,516833	0,5	0,258700
24,525167	0,5	0,286600
24,533500	0,5	0,320050
24,541833	0,5	0,345250
24,550167	0,5	0,358800
24,558500	0,5	0,371350
24,566833	0,5	0,374400
24,575167	0,5	0,398800
24,583500	0,5	0,407800
24,591833	0,5	0,424550
24,600167	0,5	0,432450
24,608500	0,5	0,441250
24,616833	0,5	0,457450
24,625167	0,5	0,476850
24,633500	0,5	0,483500
24,641833	0,5	0,498500
24,650167	0,5	0,471300
24,658500	0,5	0,470450
24,666833	0,5	0,477050
24,675167	0,5	0,510100
24,683500	0,5	0,521350
24,691833	0,5	0,541700
24,700167	0,5	0,548250
24,708500	0,5	0,538600
24,716833	0,5	0,549150
24,725167	0,5	0,559800
24,733500	0,5	0,562600
24,741833	0,5	0,570100
24,750167	0,5	0,581300
24,758500	0,5	0,591200
24,766833	0,5	0,595400
24,775167	0,5	0,603250
24,783500	0,5	0,616050
24,791833	0,5	0,624400
24,800167	0,5	0,590400
24,808500	0,5	0,609600
24,816833	0,5	0,618350
24,825167	0,5	0,636200
24,833500	0,5	0,649800
24,841833	0,5	0,659250
24,850167	0,5	0,668650
24,858500	0,5	0,669300
24,866833	0,5	0,676600
24,875167	0,5	0,681000
24,883500	0,5	0,687150
24,891833	0,5	0,691350
24,900167	0,5	0,688150
24,908500	0,5	0,691750
24,916833	0,5	0,691500
24,925167	0,5	0,695250
24,933500	0,5	0,701250
24,941833	0,5	0,699700
24,950167	0,5	0,687450
24,958500	0,5	0,702300
24,966833	0,5	0,700000
24,975167	0,5	0,709750
24,983500	0,5	0,713650
24,991833	0,5	0,720900
25,000167	0,5	0,728000
25,008500	0,5	0,723250
25,016833	0,5	0,731700
25,025167	0,5	0,734300
25,033500	0,5	0,738000
25,041833	0,5	0,741650
25,050167	0,5	0,744100
25,058500	0,5	0,750200
25,066833	0,5	0,751800
25,075167	0,5	0,756000
25,083500	0,5	0,759650
25,091833	0,5	0,751700
25,100167	0,5	0,756050
25,108500	0,5	0,758450
25,116833	0,5	0,756950
25,125167	0,5	0,755500
25,133500	0,5	0,754800
25,141833	0,5	0,752550
25,150167	0,5	0,752250
25,158500	0,5	0,757000
25,166833	0,5	0,753750
25,175167	0,5	0,755400
25,183500	0,5	0,757250
25,191833	0,5	0,753500
25,200167	0,5	0,761500
25,208500	0,5	0,760250
25,216833	0,5	0,762900
25,225167	0,5	0,766300
25,233500	0,5	0,765150
25,241833	0,5	0,768100
25,250167	0,5	0,776700
25,258500	0,5	0,785600
25,266833	0,5	0,775100
25,275167	0,5	0,769950
25,283500	0,5	0,769550
25,291833	0,5	0,771400
25,300167	0,5	0,770100
25,308500	0,5	0,770750
25,316833	0,5	0,766500
25,325167	0,5	0,764300
25,333500	0,5	0,760800
25,341833	0,5	0,758750
25,350167	0,5	0,759150
25,358500	0,5	0,756500
25,366833	0,5	0,756600
25,375167	0,5	0,757600
25,383500	0,5	0,760950
25,391833	0,5	0,771700
25,400167	0,5	0,779750
25,408500	0,5	0,778300
25,416833	0,5	0,771450
25,425167	0,5	0,766650
25,433500	0,5	0,768350
25,441833	0,5	0,772250
25,450167	0,5	0,777200
25,458500	0,5	0,776000
25,466833	0,5	0,768850
25,475167	0,5	0,765250
25,483500	0,5	0,763150
25,491833	0,5	0,759300
25,500167	0,5	0,758700
25,508500	0,5	0,759800
25,516833	0,5	0,753250
25,525167	0,5	0,753950
25,533500	0,5	0,759250
25,541833	0,5	0,766550
25,550167	0,5	0,772300
25,558500	0,5	0,761150
25,566833	0,5	0,754650
25,575167	0,5	0,755650
25,583500	0,5	0,756100
25,591833	0,5	0,758950
25,600167	0,5	0,758350
25,608500	0,5	0,757650
25,616833	0,5	0,758050
25,625167	0,5	0,756600
25,633500	0,5	0,759150
25,641833	0,5	0,755200
25,650167	0,5	0,755900
25,658500	0,5	0,751150
25,666833	0,5	0,750150
25,675167	0,5	0,749800
25,683500	0,5	0,763500
25,691833	0,5	0,761400
25,700167	0,5	0,775450
25,708500	0,5	0,754600
25,716833	0,5	0,751100
25,725167	0,5	0,743400
25,733500	0,5	0,744000
25,741833	0,5	0,761850
25,750167	0,5	0,752550
25,758500	0,5	0,747100
25,766833	0,5	0,749750
25,775167	0,5	0,748600
25,783500	0,5	0,745500
25,791833	0,5	0,745800
25,800167	0,5	0,743550
25,808500	0,5	0,745800
25,816833	0,5	0,750350
25,825167	0,5	0,754500
25,833500	0,5	0,763450
25,841833	0,5	0,765150
25,850167	0,5	0,770050
25,858500	0,5	0,753800
25,866833	0,5	0,748800
25,875167	0,5	0,752800
25,883500	0,5	0,756250
25,891833	0,5	0,769350
25,900167	0,5	0,760450
25,908500	0,5	0,754750
25,916833	0,5	0,756650
25,925167	0,5	0,759200
25,933500	0,5	0,758650
25,941833	0,5	0,755350
25,950167	0,5	0,757650
25,958500	0,5	0,756000
25,966833	0,5	0,761050
25,975167	0,5	0,770250
25,983500	0,5	0,784400
25,991833	0,5	0,784600
26,000167	0,5	0,785550
