File Path	chrom://chromeleon01/ikbm_chromeleon/2022/ICS-5000/ED1/Esteban/20220427_Cell_Amandas_mutants.seq/256.smp/ED_1.channel/ED_1.chm
Channel	ED_1

Injection Information:
Data Vault	ikbm_chromeleon
Injection	EG_Avi_3b
Injection Number	56
Position	GA8
Comment	
Processing Method	Stop sequence after Cell Death
Instrument Method	ICS5000_PA200_FullNative_Ox_26min_ED1
Type	Unknown
Status	Finished
Injection Date	28.04.2022
Injection Time	15:13:40
Injection Volume (µl)	5,0
Dilution Factor	1,0000
Weight	1,0000

Chromatogram Data Information:
Time Min. (min)	0,000333
Time Max. (min)	26,000333
Data Points	3121
Detector	EDet1
Generating Data System	Chromeleon 7.2.9.11323
Exporting Data System	Chromeleon 7.2.9.0
Operator	Instrument Controller
Signal Quantity	
Signal Unit	nC
Signal Min.	-8,405050
Signal Max.	625,804209
Channel	ED_1
Driver Name	DC-5000
Channel Type	Evaluation
Min. Step (s)	0,5
Max. Step (s)	0,5
Average Step (s)	0,5

Signal Parameter Information:
Signal Info	

Chromatogram Data:
Time (min)	Step (s)	Value (nC)
0,000333	n.a.	-0,087150
0,008667	0,5	-0,084300
0,017000	0,5	-0,068300
0,025333	0,5	-0,054850
0,033667	0,5	-0,043200
0,042000	0,5	-0,037250
0,050333	0,5	-0,025950
0,058667	0,5	-0,036150
0,067000	0,5	-0,019850
0,075333	0,5	-0,015950
0,083667	0,5	-0,000550
0,092000	0,5	-0,006100
0,100333	0,5	0,024850
0,108667	0,5	-0,019650
0,117000	0,5	-0,009600
0,125333	0,5	-0,013550
0,133667	0,5	0,024600
0,142000	0,5	0,049250
0,150333	0,5	0,040850
0,158667	0,5	0,022350
0,167000	0,5	0,024350
0,175333	0,5	0,020850
0,183667	0,5	0,014800
0,192000	0,5	0,014550
0,200333	0,5	0,012400
0,208667	0,5	0,014950
0,217000	0,5	0,007850
0,225333	0,5	0,013550
0,233667	0,5	-0,003750
0,242000	0,5	0,020900
0,250333	0,5	-0,000150
0,258667	0,5	-0,014800
0,267000	0,5	-0,016200
0,275333	0,5	0,000300
0,283667	0,5	0,026000
0,292000	0,5	0,066600
0,300333	0,5	0,103850
0,308667	0,5	0,105300
0,317000	0,5	0,033000
0,325333	0,5	0,011200
0,333667	0,5	0,002750
0,342000	0,5	0,009400
0,350333	0,5	0,001650
0,358667	0,5	-0,000950
0,367000	0,5	0,000350
0,375333	0,5	-0,020850
0,383667	0,5	-0,018600
0,392000	0,5	0,001300
0,400333	0,5	-0,006350
0,408667	0,5	-0,022500
0,417000	0,5	-0,012450
0,425333	0,5	0,001400
0,433667	0,5	0,033650
0,442000	0,5	0,026550
0,450333	0,5	0,029200
0,458667	0,5	0,018400
0,467000	0,5	0,023400
0,475333	0,5	0,005500
0,483667	0,5	0,015000
0,492000	0,5	0,002400
0,500333	0,5	0,002400
0,508667	0,5	0,005000
0,517000	0,5	0,005650
0,525333	0,5	-0,008850
0,533667	0,5	0,023650
0,542000	0,5	0,019300
0,550333	0,5	-0,005200
0,558667	0,5	-0,012600
0,567000	0,5	-0,005500
0,575333	0,5	0,040600
0,583667	0,5	0,051500
0,592000	0,5	0,054100
0,600333	0,5	0,036050
0,608667	0,5	0,054300
0,617000	0,5	0,035200
0,625333	0,5	0,036050
0,633667	0,5	0,037000
0,642000	0,5	0,032750
0,650333	0,5	0,025050
0,658667	0,5	0,033050
0,667000	0,5	0,039000
0,675333	0,5	0,027450
0,683667	0,5	0,054200
0,692000	0,5	0,040850
0,700333	0,5	0,028950
0,708667	0,5	0,036200
0,717000	0,5	0,042000
0,725333	0,5	0,087100
0,733667	0,5	0,083250
0,742000	0,5	0,058800
0,750333	0,5	0,066200
0,758667	0,5	0,063800
0,767000	0,5	0,069400
0,775333	0,5	0,062350
0,783667	0,5	0,071250
0,792000	0,5	0,061900
0,800333	0,5	0,072450
0,808667	0,5	0,073400
0,817000	0,5	0,085750
0,825333	0,5	0,065550
0,833667	0,5	0,108300
0,842000	0,5	0,076350
0,850333	0,5	0,076900
0,858667	0,5	0,078850
0,867000	0,5	0,099300
0,875333	0,5	0,142750
0,883667	0,5	0,116050
0,892000	0,5	0,112400
0,900333	0,5	0,122800
0,908667	0,5	0,135800
0,917000	0,5	0,132750
0,925333	0,5	0,136450
0,933667	0,5	0,132450
0,942000	0,5	0,134250
0,950333	0,5	0,133700
0,958667	0,5	0,146050
0,967000	0,5	0,124550
0,975333	0,5	0,129400
0,983667	0,5	0,146900
0,992000	0,5	0,132400
1,000333	0,5	0,129500
1,008667	0,5	0,159850
1,017000	0,5	0,177050
1,025333	0,5	0,216600
1,033667	0,5	0,201250
1,042000	0,5	0,199750
1,050333	0,5	0,199550
1,058667	0,5	0,202450
1,067000	0,5	0,197200
1,075333	0,5	0,203950
1,083667	0,5	0,207400
1,092000	0,5	0,199850
1,100333	0,5	0,219650
1,108667	0,5	0,226700
1,117000	0,5	0,225700
1,125333	0,5	0,244600
1,133667	0,5	0,250700
1,142000	0,5	0,228600
1,150333	0,5	0,238900
1,158667	0,5	0,248100
1,167000	0,5	0,284200
1,175333	0,5	0,297500
1,183667	0,5	0,307050
1,192000	0,5	0,292900
1,200333	0,5	0,315750
1,208667	0,5	0,316000
1,217000	0,5	0,321400
1,225333	0,5	0,322150
1,233667	0,5	0,322350
1,242000	0,5	0,327600
1,250333	0,5	0,331700
1,258667	0,5	0,357450
1,267000	0,5	0,357750
1,275333	0,5	0,378250
1,283667	0,5	0,369300
1,292000	0,5	0,360050
1,300333	0,5	0,375800
1,308667	0,5	0,411800
1,317000	0,5	0,444200
1,325333	0,5	0,463700
1,333667	0,5	0,448950
1,342000	0,5	0,465300
1,350333	0,5	0,467700
1,358667	0,5	0,475700
1,367000	0,5	0,473600
1,375333	0,5	0,488100
1,383667	0,5	0,491350
1,392000	0,5	0,498450
1,400333	0,5	0,514850
1,408667	0,5	0,522450
1,417000	0,5	0,529500
1,425333	0,5	0,552400
1,433667	0,5	0,535300
1,442000	0,5	0,542900
1,450333	0,5	0,554900
1,458667	0,5	0,583550
1,467000	0,5	0,619800
1,475333	0,5	0,622150
1,483667	0,5	0,635650
1,492000	0,5	0,640400
1,500333	0,5	0,648000
1,508667	0,5	0,650550
1,517000	0,5	0,665550
1,525333	0,5	0,651600
1,533667	0,5	0,653450
1,542000	0,5	0,657200
1,550333	0,5	0,665750
1,558667	0,5	0,634950
1,567000	0,5	0,547400
1,575333	0,5	0,095100
1,583667	0,5	-0,959200
1,592000	0,5	-1,814900
1,600333	0,5	-1,037300
1,608667	0,5	1,432850
1,617000	0,5	4,381850
1,625333	0,5	7,979050
1,633667	0,5	12,033050
1,642000	0,5	14,885600
1,650333	0,5	15,368000
1,658667	0,5	14,223550
1,667000	0,5	12,654700
1,675333	0,5	11,210650
1,683667	0,5	9,972000
1,692000	0,5	9,001550
1,700333	0,5	8,419350
1,708667	0,5	8,670400
1,717000	0,5	10,220400
1,725333	0,5	12,243250
1,733667	0,5	12,831600
1,742000	0,5	11,404500
1,750333	0,5	9,253450
1,758667	0,5	7,527750
1,767000	0,5	6,389100
1,775333	0,5	5,776800
1,783667	0,5	5,591900
1,792000	0,5	5,706800
1,800333	0,5	5,839700
1,808667	0,5	5,765300
1,817000	0,5	5,488300
1,825333	0,5	5,140800
1,833667	0,5	4,801450
1,842000	0,5	4,463700
1,850333	0,5	4,157800
1,858667	0,5	3,861500
1,867000	0,5	3,658150
1,875333	0,5	3,431050
1,883667	0,5	3,257300
1,892000	0,5	3,102150
1,900333	0,5	2,960350
1,908667	0,5	2,853850
1,917000	0,5	2,714650
1,925333	0,5	2,632400
1,933667	0,5	2,658200
1,942000	0,5	2,776200
1,950333	0,5	2,910550
1,958667	0,5	2,928350
1,967000	0,5	2,928450
1,975333	0,5	3,230150
1,983667	0,5	4,351650
1,992000	0,5	7,152000
2,000333	0,5	13,201900
2,008667	0,5	26,790550
2,017000	0,5	56,202051
2,025333	0,5	104,057652
2,033667	0,5	148,222702
2,042000	0,5	157,315652
2,050333	0,5	132,599552
2,058667	0,5	100,186951
2,067000	0,5	75,954301
2,075333	0,5	60,504351
2,083667	0,5	50,265101
2,092000	0,5	43,002801
2,100333	0,5	37,626751
2,108667	0,5	33,574001
2,117000	0,5	30,482200
2,125333	0,5	28,140550
2,133667	0,5	26,399200
2,142000	0,5	25,158600
2,150333	0,5	24,385100
2,158667	0,5	23,884300
2,167000	0,5	23,195450
2,175333	0,5	22,232550
2,183667	0,5	21,261300
2,192000	0,5	20,474750
2,200333	0,5	19,902250
2,208667	0,5	19,433450
2,217000	0,5	19,044200
2,225333	0,5	18,726900
2,233667	0,5	18,508800
2,242000	0,5	18,333200
2,250333	0,5	18,239700
2,258667	0,5	18,190600
2,267000	0,5	18,180650
2,275333	0,5	18,178350
2,283667	0,5	18,146050
2,292000	0,5	18,095250
2,300333	0,5	18,035100
2,308667	0,5	18,024400
2,317000	0,5	17,987900
2,325333	0,5	17,996050
2,333667	0,5	18,014350
2,342000	0,5	18,062050
2,350333	0,5	18,135550
2,358667	0,5	18,202700
2,367000	0,5	18,274600
2,375333	0,5	18,404450
2,383667	0,5	18,578450
2,392000	0,5	18,882600
2,400333	0,5	19,402800
2,408667	0,5	20,248450
2,417000	0,5	21,360100
2,425333	0,5	22,577200
2,433667	0,5	23,590650
2,442000	0,5	24,166650
2,450333	0,5	24,175700
2,458667	0,5	23,730050
2,467000	0,5	23,105850
2,475333	0,5	22,615300
2,483667	0,5	22,231400
2,492000	0,5	21,918550
2,500333	0,5	21,600950
2,508667	0,5	21,268300
2,517000	0,5	20,935350
2,525333	0,5	20,616600
2,533667	0,5	20,318650
2,542000	0,5	20,032400
2,550333	0,5	19,768550
2,558667	0,5	19,514700
2,567000	0,5	19,304700
2,575333	0,5	19,119450
2,583667	0,5	18,980450
2,592000	0,5	18,890650
2,600333	0,5	18,937350
2,608667	0,5	19,136450
2,617000	0,5	19,567350
2,625333	0,5	20,215750
2,633667	0,5	20,872400
2,642000	0,5	21,294900
2,650333	0,5	21,318450
2,658667	0,5	21,101750
2,667000	0,5	21,016150
2,675333	0,5	21,621150
2,683667	0,5	23,628950
2,692000	0,5	27,801200
2,700333	0,5	34,571251
2,708667	0,5	44,282751
2,717000	0,5	58,096401
2,725333	0,5	80,547251
2,733667	0,5	123,400402
2,742000	0,5	206,945503
2,750333	0,5	341,041355
2,758667	0,5	491,025107
2,767000	0,5	596,331409
2,775333	0,5	625,804209
2,783667	0,5	588,527959
2,792000	0,5	512,063458
2,800333	0,5	423,491206
2,808667	0,5	342,178205
2,817000	0,5	276,830604
2,825333	0,5	227,550053
2,833667	0,5	190,250653
2,842000	0,5	160,915152
2,850333	0,5	137,084502
2,858667	0,5	117,629552
2,867000	0,5	101,873902
2,875333	0,5	89,095051
2,883667	0,5	78,542051
2,892000	0,5	69,549301
2,900333	0,5	61,740551
2,908667	0,5	54,864101
2,917000	0,5	48,939051
2,925333	0,5	43,904651
2,933667	0,5	39,681851
2,942000	0,5	36,124351
2,950333	0,5	33,080850
2,958667	0,5	30,488100
2,967000	0,5	28,268150
2,975333	0,5	26,327950
2,983667	0,5	24,624400
2,992000	0,5	23,095850
3,000333	0,5	21,742300
3,008667	0,5	20,540300
3,017000	0,5	19,447600
3,025333	0,5	18,468000
3,033667	0,5	17,549300
3,042000	0,5	16,743650
3,050333	0,5	15,978200
3,058667	0,5	15,270050
3,067000	0,5	14,619350
3,075333	0,5	14,043350
3,083667	0,5	13,516000
3,092000	0,5	13,017600
3,100333	0,5	12,505650
3,108667	0,5	12,049250
3,117000	0,5	11,604850
3,125333	0,5	11,186450
3,133667	0,5	10,787500
3,142000	0,5	10,426500
3,150333	0,5	10,085200
3,158667	0,5	9,790400
3,167000	0,5	9,517950
3,175333	0,5	9,258850
3,183667	0,5	9,032450
3,192000	0,5	8,862150
3,200333	0,5	8,708900
3,208667	0,5	8,633600
3,217000	0,5	8,631100
3,225333	0,5	8,743700
3,233667	0,5	8,967800
3,242000	0,5	9,192050
3,250333	0,5	9,351250
3,258667	0,5	9,337800
3,267000	0,5	9,122850
3,275333	0,5	8,713950
3,283667	0,5	8,222600
3,292000	0,5	7,715800
3,300333	0,5	7,261950
3,308667	0,5	6,889200
3,317000	0,5	6,593000
3,325333	0,5	6,342750
3,333667	0,5	6,139500
3,342000	0,5	5,983100
3,350333	0,5	5,822500
3,358667	0,5	5,681150
3,367000	0,5	5,564300
3,375333	0,5	5,478300
3,383667	0,5	5,390800
3,392000	0,5	5,285650
3,400333	0,5	5,188050
3,408667	0,5	5,090400
3,417000	0,5	4,991150
3,425333	0,5	4,895500
3,433667	0,5	4,801450
3,442000	0,5	4,727150
3,450333	0,5	4,650000
3,458667	0,5	4,586250
3,467000	0,5	4,521750
3,475333	0,5	4,471350
3,483667	0,5	4,429000
3,492000	0,5	4,408200
3,500333	0,5	4,372900
3,508667	0,5	4,362600
3,517000	0,5	4,369850
3,525333	0,5	4,382150
3,533667	0,5	4,385850
3,542000	0,5	4,368700
3,550333	0,5	4,333700
3,558667	0,5	4,301750
3,567000	0,5	4,259850
3,575333	0,5	4,203500
3,583667	0,5	4,160650
3,592000	0,5	4,093150
3,600333	0,5	4,026750
3,608667	0,5	3,961400
3,617000	0,5	3,907500
3,625333	0,5	3,830900
3,633667	0,5	3,783900
3,642000	0,5	3,707600
3,650333	0,5	3,629000
3,658667	0,5	3,562000
3,667000	0,5	3,507950
3,675333	0,5	3,450700
3,683667	0,5	3,404450
3,692000	0,5	3,328850
3,700333	0,5	3,274450
3,708667	0,5	3,204200
3,717000	0,5	3,151700
3,725333	0,5	3,089850
3,733667	0,5	3,043000
3,742000	0,5	3,000000
3,750333	0,5	2,955150
3,758667	0,5	2,934300
3,767000	0,5	2,911500
3,775333	0,5	2,912600
3,783667	0,5	2,938750
3,792000	0,5	2,947550
3,800333	0,5	2,966000
3,808667	0,5	3,013750
3,817000	0,5	3,064050
3,825333	0,5	3,110400
3,833667	0,5	3,110450
3,842000	0,5	3,093600
3,850333	0,5	3,056000
3,858667	0,5	3,022200
3,867000	0,5	2,968600
3,875333	0,5	2,924650
3,883667	0,5	2,873600
3,892000	0,5	2,820250
3,900333	0,5	2,779100
3,908667	0,5	2,726400
3,917000	0,5	2,687900
3,925333	0,5	2,657600
3,933667	0,5	2,616550
3,942000	0,5	2,554200
3,950333	0,5	2,502950
3,958667	0,5	2,460700
3,967000	0,5	2,441250
3,975333	0,5	2,408450
3,983667	0,5	2,360700
3,992000	0,5	2,315750
4,000333	0,5	2,293300
4,008667	0,5	2,250300
4,017000	0,5	2,228100
4,025333	0,5	2,200100
4,033667	0,5	2,174950
4,042000	0,5	2,150900
4,050333	0,5	2,133100
4,058667	0,5	2,123950
4,067000	0,5	2,084000
4,075333	0,5	2,076000
4,083667	0,5	2,033350
4,092000	0,5	1,996750
4,100333	0,5	1,960700
4,108667	0,5	1,943300
4,117000	0,5	1,941150
4,125333	0,5	1,926500
4,133667	0,5	1,885300
4,142000	0,5	1,874250
4,150333	0,5	1,853650
4,158667	0,5	1,842450
4,167000	0,5	1,835400
4,175333	0,5	1,833750
4,183667	0,5	1,817850
4,192000	0,5	1,807950
4,200333	0,5	1,801150
4,208667	0,5	1,789350
4,217000	0,5	1,760350
4,225333	0,5	1,782850
4,233667	0,5	1,749500
4,242000	0,5	1,749200
4,250333	0,5	1,748900
4,258667	0,5	1,785900
4,267000	0,5	1,838550
4,275333	0,5	1,872700
4,283667	0,5	1,930300
4,292000	0,5	2,011300
4,300333	0,5	2,120950
4,308667	0,5	2,236800
4,317000	0,5	2,393500
4,325333	0,5	2,571900
4,333667	0,5	2,781050
4,342000	0,5	3,036750
4,350333	0,5	3,370900
4,358667	0,5	3,781100
4,367000	0,5	4,337950
4,375333	0,5	5,080450
4,383667	0,5	6,010150
4,392000	0,5	7,194850
4,400333	0,5	8,622100
4,408667	0,5	10,237350
4,417000	0,5	11,928950
4,425333	0,5	13,507800
4,433667	0,5	14,825650
4,442000	0,5	15,735900
4,450333	0,5	16,138050
4,458667	0,5	15,992350
4,467000	0,5	15,359850
4,475333	0,5	14,333250
4,483667	0,5	13,042900
4,492000	0,5	11,630450
4,500333	0,5	10,203350
4,508667	0,5	8,860000
4,517000	0,5	7,654200
4,525333	0,5	6,622100
4,533667	0,5	5,728700
4,542000	0,5	5,012500
4,550333	0,5	4,440650
4,558667	0,5	3,989100
4,567000	0,5	3,633200
4,575333	0,5	3,325600
4,583667	0,5	3,078100
4,592000	0,5	2,896100
4,600333	0,5	2,734000
4,608667	0,5	2,602350
4,617000	0,5	2,492000
4,625333	0,5	2,384600
4,633667	0,5	2,298700
4,642000	0,5	2,217400
4,650333	0,5	2,142700
4,658667	0,5	2,065100
4,667000	0,5	2,018550
4,675333	0,5	1,961750
4,683667	0,5	1,895400
4,692000	0,5	1,863250
4,700333	0,5	1,850200
4,708667	0,5	1,849600
4,717000	0,5	1,845700
4,725333	0,5	1,825200
4,733667	0,5	1,825800
4,742000	0,5	1,802300
4,750333	0,5	1,771800
4,758667	0,5	1,731050
4,767000	0,5	1,695550
4,775333	0,5	1,650550
4,783667	0,5	1,605650
4,792000	0,5	1,562250
4,800333	0,5	1,506950
4,808667	0,5	1,474050
4,817000	0,5	1,450750
4,825333	0,5	1,407600
4,833667	0,5	1,374550
4,842000	0,5	1,362100
4,850333	0,5	1,357600
4,858667	0,5	1,363650
4,867000	0,5	1,346050
4,875333	0,5	1,339650
4,883667	0,5	1,327600
4,892000	0,5	1,331600
4,900333	0,5	1,324750
4,908667	0,5	1,337200
4,917000	0,5	1,337850
4,925333	0,5	1,350000
4,933667	0,5	1,367500
4,942000	0,5	1,380550
4,950333	0,5	1,386500
4,958667	0,5	1,417950
4,967000	0,5	1,430800
4,975333	0,5	1,434350
4,983667	0,5	1,443900
4,992000	0,5	1,449950
5,000333	0,5	1,481200
5,008667	0,5	1,490100
5,017000	0,5	1,489950
5,025333	0,5	1,490800
5,033667	0,5	1,489100
5,042000	0,5	1,480100
5,050333	0,5	1,474650
5,058667	0,5	1,460250
5,067000	0,5	1,451450
5,075333	0,5	1,437100
5,083667	0,5	1,430750
5,092000	0,5	1,431700
5,100333	0,5	1,417350
5,108667	0,5	1,424050
5,117000	0,5	1,403350
5,125333	0,5	1,383450
5,133667	0,5	1,376600
5,142000	0,5	1,377750
5,150333	0,5	1,399950
5,158667	0,5	1,392450
5,167000	0,5	1,377750
5,175333	0,5	1,380500
5,183667	0,5	1,375200
5,192000	0,5	1,378100
5,200333	0,5	1,379800
5,208667	0,5	1,386900
5,217000	0,5	1,389500
5,225333	0,5	1,401100
5,233667	0,5	1,408500
5,242000	0,5	1,416850
5,250333	0,5	1,408000
5,258667	0,5	1,433800
5,267000	0,5	1,404150
5,275333	0,5	1,399550
5,283667	0,5	1,390200
5,292000	0,5	1,389600
5,300333	0,5	1,405000
5,308667	0,5	1,387550
5,317000	0,5	1,373650
5,325333	0,5	1,369600
5,333667	0,5	1,362350
5,342000	0,5	1,357300
5,350333	0,5	1,358050
5,358667	0,5	1,344150
5,367000	0,5	1,336200
5,375333	0,5	1,329150
5,383667	0,5	1,334350
5,392000	0,5	1,323050
5,400333	0,5	1,320650
5,408667	0,5	1,328200
5,417000	0,5	1,311800
5,425333	0,5	1,310350
5,433667	0,5	1,321400
5,442000	0,5	1,337050
5,450333	0,5	1,368200
5,458667	0,5	1,366250
5,467000	0,5	1,368750
5,475333	0,5	1,375500
5,483667	0,5	1,376800
5,492000	0,5	1,379150
5,500333	0,5	1,389250
5,508667	0,5	1,396650
5,517000	0,5	1,399350
5,525333	0,5	1,406100
5,533667	0,5	1,407850
5,542000	0,5	1,414850
5,550333	0,5	1,435850
5,558667	0,5	1,441300
5,567000	0,5	1,435200
5,575333	0,5	1,447650
5,583667	0,5	1,462250
5,592000	0,5	1,502250
5,600333	0,5	1,528100
5,608667	0,5	1,542750
5,617000	0,5	1,560800
5,625333	0,5	1,581250
5,633667	0,5	1,595350
5,642000	0,5	1,612950
5,650333	0,5	1,632650
5,658667	0,5	1,647600
5,667000	0,5	1,645300
5,675333	0,5	1,644800
5,683667	0,5	1,647700
5,692000	0,5	1,642400
5,700333	0,5	1,643300
5,708667	0,5	1,613800
5,717000	0,5	1,587450
5,725333	0,5	1,574250
5,733667	0,5	1,569800
5,742000	0,5	1,573500
5,750333	0,5	1,576700
5,758667	0,5	1,566300
5,767000	0,5	1,563050
5,775333	0,5	1,556050
5,783667	0,5	1,559300
5,792000	0,5	1,554900
5,800333	0,5	1,559250
5,808667	0,5	1,552050
5,817000	0,5	1,558300
5,825333	0,5	1,555450
5,833667	0,5	1,550600
5,842000	0,5	1,560300
5,850333	0,5	1,562950
5,858667	0,5	1,562300
5,867000	0,5	1,559850
5,875333	0,5	1,564950
5,883667	0,5	1,586900
5,892000	0,5	1,604600
5,900333	0,5	1,597150
5,908667	0,5	1,597250
5,917000	0,5	1,600300
5,925333	0,5	1,600550
5,933667	0,5	1,596350
5,942000	0,5	1,609850
5,950333	0,5	1,605250
5,958667	0,5	1,616850
5,967000	0,5	1,619700
5,975333	0,5	1,620600
5,983667	0,5	1,617400
5,992000	0,5	1,641450
6,000333	0,5	1,636300
6,008667	0,5	1,632550
6,017000	0,5	1,639650
6,025333	0,5	1,651750
6,033667	0,5	1,674750
6,042000	0,5	1,678200
6,050333	0,5	1,686700
6,058667	0,5	1,695050
6,067000	0,5	1,703400
6,075333	0,5	1,711350
6,083667	0,5	1,716800
6,092000	0,5	1,718400
6,100333	0,5	1,724250
6,108667	0,5	1,726350
6,117000	0,5	1,736750
6,125333	0,5	1,736800
6,133667	0,5	1,743250
6,142000	0,5	1,765250
6,150333	0,5	1,760850
6,158667	0,5	1,762700
6,167000	0,5	1,777500
6,175333	0,5	1,790900
6,183667	0,5	1,820350
6,192000	0,5	1,826350
6,200333	0,5	1,823300
6,208667	0,5	1,837100
6,217000	0,5	1,839850
6,225333	0,5	1,844250
6,233667	0,5	1,850200
6,242000	0,5	1,863750
6,250333	0,5	1,862800
6,258667	0,5	1,878450
6,267000	0,5	1,897250
6,275333	0,5	1,913150
6,283667	0,5	1,920650
6,292000	0,5	1,959150
6,300333	0,5	1,962850
6,308667	0,5	1,987950
6,317000	0,5	2,018500
6,325333	0,5	2,064000
6,333667	0,5	2,117800
6,342000	0,5	2,137500
6,350333	0,5	2,164900
6,358667	0,5	2,194950
6,367000	0,5	2,213950
6,375333	0,5	2,219950
6,383667	0,5	2,222850
6,392000	0,5	2,212350
6,400333	0,5	2,198500
6,408667	0,5	2,189450
6,417000	0,5	2,185500
6,425333	0,5	2,166950
6,433667	0,5	2,160200
6,442000	0,5	2,156800
6,450333	0,5	2,137550
6,458667	0,5	2,127800
6,467000	0,5	2,139400
6,475333	0,5	2,151550
6,483667	0,5	2,168600
6,492000	0,5	2,159600
6,500333	0,5	2,176500
6,508667	0,5	2,193050
6,517000	0,5	2,203750
6,525333	0,5	2,215050
6,533667	0,5	2,242300
6,542000	0,5	2,262100
6,550333	0,5	2,288150
6,558667	0,5	2,309550
6,567000	0,5	2,319150
6,575333	0,5	2,311500
6,583667	0,5	2,321150
6,592000	0,5	2,297050
6,600333	0,5	2,271150
6,608667	0,5	2,249450
6,617000	0,5	2,232350
6,625333	0,5	2,232250
6,633667	0,5	2,229550
6,642000	0,5	2,221500
6,650333	0,5	2,206100
6,658667	0,5	2,209050
6,667000	0,5	2,203450
6,675333	0,5	2,203500
6,683667	0,5	2,204600
6,692000	0,5	2,199550
6,700333	0,5	2,207000
6,708667	0,5	2,208400
6,717000	0,5	2,205050
6,725333	0,5	2,218350
6,733667	0,5	2,222450
6,742000	0,5	2,222900
6,750333	0,5	2,228550
6,758667	0,5	2,234800
6,767000	0,5	2,255500
6,775333	0,5	2,278700
6,783667	0,5	2,291200
6,792000	0,5	2,288000
6,800333	0,5	2,289600
6,808667	0,5	2,289350
6,817000	0,5	2,284150
6,825333	0,5	2,286150
6,833667	0,5	2,286950
6,842000	0,5	2,284850
6,850333	0,5	2,289600
6,858667	0,5	2,292100
6,867000	0,5	2,289900
6,875333	0,5	2,295300
6,883667	0,5	2,301700
6,892000	0,5	2,294000
6,900333	0,5	2,293450
6,908667	0,5	2,293550
6,917000	0,5	2,312150
6,925333	0,5	2,322950
6,933667	0,5	2,320950
6,942000	0,5	2,327050
6,950333	0,5	2,335900
6,958667	0,5	2,343250
6,967000	0,5	2,362400
6,975333	0,5	2,380300
6,983667	0,5	2,405300
6,992000	0,5	2,428600
7,000333	0,5	2,449300
7,008667	0,5	2,458900
7,017000	0,5	2,458950
7,025333	0,5	2,476200
7,033667	0,5	2,457550
7,042000	0,5	2,444950
7,050333	0,5	2,425750
7,058667	0,5	2,414650
7,067000	0,5	2,416850
7,075333	0,5	2,405250
7,083667	0,5	2,393250
7,092000	0,5	2,396950
7,100333	0,5	2,398350
7,108667	0,5	2,403250
7,117000	0,5	2,412200
7,125333	0,5	2,427300
7,133667	0,5	2,426000
7,142000	0,5	2,426150
7,150333	0,5	2,429800
7,158667	0,5	2,419600
7,167000	0,5	2,421600
7,175333	0,5	2,431550
7,183667	0,5	2,427050
7,192000	0,5	2,422400
7,200333	0,5	2,424900
7,208667	0,5	2,432350
7,217000	0,5	2,443850
7,225333	0,5	2,434950
7,233667	0,5	2,422800
7,242000	0,5	2,392550
7,250333	0,5	2,378700
7,258667	0,5	2,361550
7,267000	0,5	2,353650
7,275333	0,5	2,355500
7,283667	0,5	2,365300
7,292000	0,5	2,382700
7,300333	0,5	2,390400
7,308667	0,5	2,412150
7,317000	0,5	2,425600
7,325333	0,5	2,437600
7,333667	0,5	2,430300
7,342000	0,5	2,421750
7,350333	0,5	2,407400
7,358667	0,5	2,392850
7,367000	0,5	2,370750
7,375333	0,5	2,334800
7,383667	0,5	2,303950
7,392000	0,5	2,283950
7,400333	0,5	2,266850
7,408667	0,5	2,266650
7,417000	0,5	2,274100
7,425333	0,5	2,286200
7,433667	0,5	2,298200
7,442000	0,5	2,316200
7,450333	0,5	2,338250
7,458667	0,5	2,343100
7,467000	0,5	2,350450
7,475333	0,5	2,353600
7,483667	0,5	2,354600
7,492000	0,5	2,358150
7,500333	0,5	2,380400
7,508667	0,5	2,400700
7,517000	0,5	2,431000
7,525333	0,5	2,458050
7,533667	0,5	2,493350
7,542000	0,5	2,535150
7,550333	0,5	2,589150
7,558667	0,5	2,658300
7,567000	0,5	2,763100
7,575333	0,5	2,925750
7,583667	0,5	3,134850
7,592000	0,5	3,372300
7,600333	0,5	3,567850
7,608667	0,5	3,664650
7,617000	0,5	3,673500
7,625333	0,5	3,622900
7,633667	0,5	3,583700
7,642000	0,5	3,594600
7,650333	0,5	3,634900
7,658667	0,5	3,663500
7,667000	0,5	3,614750
7,675333	0,5	3,469250
7,683667	0,5	3,269400
7,692000	0,5	3,062650
7,700333	0,5	2,888800
7,708667	0,5	2,781700
7,717000	0,5	2,730400
7,725333	0,5	2,735850
7,733667	0,5	2,759250
7,742000	0,5	2,791900
7,750333	0,5	2,822400
7,758667	0,5	2,865350
7,767000	0,5	2,898150
7,775333	0,5	2,916850
7,783667	0,5	2,910700
7,792000	0,5	2,894400
7,800333	0,5	2,902600
7,808667	0,5	2,965750
7,817000	0,5	3,120800
7,825333	0,5	3,370700
7,833667	0,5	3,698600
7,842000	0,5	3,992100
7,850333	0,5	4,148350
7,858667	0,5	4,091900
7,867000	0,5	3,850150
7,875333	0,5	3,500650
7,883667	0,5	3,157050
7,892000	0,5	2,872950
7,900333	0,5	2,675100
7,908667	0,5	2,553000
7,917000	0,5	2,480850
7,925333	0,5	2,432500
7,933667	0,5	2,407150
7,942000	0,5	2,380950
7,950333	0,5	2,356400
7,958667	0,5	2,337400
7,967000	0,5	2,309200
7,975333	0,5	2,278300
7,983667	0,5	2,249350
7,992000	0,5	2,221300
8,000333	0,5	2,206600
8,008667	0,5	2,187050
8,017000	0,5	2,178700
8,025333	0,5	2,178750
8,033667	0,5	2,181350
8,042000	0,5	2,199200
8,050333	0,5	2,230900
8,058667	0,5	2,274700
8,067000	0,5	2,299650
8,075333	0,5	2,311650
8,083667	0,5	2,302150
8,092000	0,5	2,273250
8,100333	0,5	2,244700
8,108667	0,5	2,208950
8,117000	0,5	2,174550
8,125333	0,5	2,157750
8,133667	0,5	2,148950
8,142000	0,5	2,150100
8,150333	0,5	2,156500
8,158667	0,5	2,170450
8,167000	0,5	2,187900
8,175333	0,5	2,213200
8,183667	0,5	2,237750
8,192000	0,5	2,261350
8,200333	0,5	2,282100
8,208667	0,5	2,312700
8,217000	0,5	2,330900
8,225333	0,5	2,339900
8,233667	0,5	2,360650
8,242000	0,5	2,371600
8,250333	0,5	2,390850
8,258667	0,5	2,393150
8,267000	0,5	2,399300
8,275333	0,5	2,412850
8,283667	0,5	2,450700
8,292000	0,5	2,504900
8,300333	0,5	2,589750
8,308667	0,5	2,683150
8,317000	0,5	2,771350
8,325333	0,5	2,835850
8,333667	0,5	2,863800
8,342000	0,5	2,853100
8,350333	0,5	2,836750
8,358667	0,5	2,813550
8,367000	0,5	2,773150
8,375333	0,5	2,697200
8,383667	0,5	2,585550
8,392000	0,5	2,460300
8,400333	0,5	2,341300
8,408667	0,5	2,233100
8,417000	0,5	2,146600
8,425333	0,5	2,079650
8,433667	0,5	2,030650
8,442000	0,5	2,004750
8,450333	0,5	1,992250
8,458667	0,5	1,976550
8,467000	0,5	1,965900
8,475333	0,5	1,948500
8,483667	0,5	1,936200
8,492000	0,5	1,914400
8,500333	0,5	1,896050
8,508667	0,5	1,876150
8,517000	0,5	1,857500
8,525333	0,5	1,838900
8,533667	0,5	1,828750
8,542000	0,5	1,825950
8,550333	0,5	1,822000
8,558667	0,5	1,818550
8,567000	0,5	1,810950
8,575333	0,5	1,805800
8,583667	0,5	1,797200
8,592000	0,5	1,792850
8,600333	0,5	1,782100
8,608667	0,5	1,778950
8,617000	0,5	1,771350
8,625333	0,5	1,760600
8,633667	0,5	1,755900
8,642000	0,5	1,740650
8,650333	0,5	1,740100
8,658667	0,5	1,741050
8,667000	0,5	1,742250
8,675333	0,5	1,743250
8,683667	0,5	1,762750
8,692000	0,5	1,784350
8,700333	0,5	1,807150
8,708667	0,5	1,824250
8,717000	0,5	1,843850
8,725333	0,5	1,864050
8,733667	0,5	1,890050
8,742000	0,5	1,920300
8,750333	0,5	1,953600
8,758667	0,5	1,989700
8,767000	0,5	2,027450
8,775333	0,5	2,049150
8,783667	0,5	2,049000
8,792000	0,5	2,041350
8,800333	0,5	2,021400
8,808667	0,5	2,004400
8,817000	0,5	1,992150
8,825333	0,5	1,989000
8,833667	0,5	1,995950
8,842000	0,5	2,009450
8,850333	0,5	2,025800
8,858667	0,5	2,047750
8,867000	0,5	2,071150
8,875333	0,5	2,085450
8,883667	0,5	2,105200
8,892000	0,5	2,123700
8,900333	0,5	2,137600
8,908667	0,5	2,155100
8,917000	0,5	2,175650
8,925333	0,5	2,202900
8,933667	0,5	2,254550
8,942000	0,5	2,351300
8,950333	0,5	2,497900
8,958667	0,5	2,711450
8,967000	0,5	2,991750
8,975333	0,5	3,337800
8,983667	0,5	3,706150
8,992000	0,5	4,028250
9,000333	0,5	4,212600
9,008667	0,5	4,205600
9,017000	0,5	4,018100
9,025333	0,5	3,702900
9,033667	0,5	3,337400
9,042000	0,5	2,987750
9,050333	0,5	2,689800
9,058667	0,5	2,466600
9,067000	0,5	2,312700
9,075333	0,5	2,221950
9,083667	0,5	2,172250
9,092000	0,5	2,145700
9,100333	0,5	2,125850
9,108667	0,5	2,111200
9,117000	0,5	2,085750
9,125333	0,5	2,061800
9,133667	0,5	2,030200
9,142000	0,5	1,997300
9,150333	0,5	1,966500
9,158667	0,5	1,935700
9,167000	0,5	1,914000
9,175333	0,5	1,895900
9,183667	0,5	1,877500
9,192000	0,5	1,865850
9,200333	0,5	1,854800
9,208667	0,5	1,848800
9,217000	0,5	1,842850
9,225333	0,5	1,841200
9,233667	0,5	1,842000
9,242000	0,5	1,857150
9,250333	0,5	1,868650
9,258667	0,5	1,872350
9,267000	0,5	1,877950
9,275333	0,5	1,873200
9,283667	0,5	1,878000
9,292000	0,5	1,861450
9,300333	0,5	1,851250
9,308667	0,5	1,834250
9,317000	0,5	1,824350
9,325333	0,5	1,806350
9,333667	0,5	1,791650
9,342000	0,5	1,773200
9,350333	0,5	1,756700
9,358667	0,5	1,731450
9,367000	0,5	1,712200
9,375333	0,5	1,693950
9,383667	0,5	1,676500
9,392000	0,5	1,673800
9,400333	0,5	1,667150
9,408667	0,5	1,665600
9,417000	0,5	1,667850
9,425333	0,5	1,670150
9,433667	0,5	1,664950
9,442000	0,5	1,649800
9,450333	0,5	1,634400
9,458667	0,5	1,611900
9,467000	0,5	1,594450
9,475333	0,5	1,580600
9,483667	0,5	1,566950
9,492000	0,5	1,557300
9,500333	0,5	1,547900
9,508667	0,5	1,534950
9,517000	0,5	1,524850
9,525333	0,5	1,515650
9,533667	0,5	1,509450
9,542000	0,5	1,507550
9,550333	0,5	1,499250
9,558667	0,5	1,486700
9,567000	0,5	1,470050
9,575333	0,5	1,459250
9,583667	0,5	1,451150
9,592000	0,5	1,438700
9,600333	0,5	1,430800
9,608667	0,5	1,414050
9,617000	0,5	1,408000
9,625333	0,5	1,405450
9,633667	0,5	1,393150
9,642000	0,5	1,390600
9,650333	0,5	1,386950
9,658667	0,5	1,380700
9,667000	0,5	1,382500
9,675333	0,5	1,382200
9,683667	0,5	1,384950
9,692000	0,5	1,393250
9,700333	0,5	1,395550
9,708667	0,5	1,393000
9,717000	0,5	1,394000
9,725333	0,5	1,391150
9,733667	0,5	1,390950
9,742000	0,5	1,378900
9,750333	0,5	1,380200
9,758667	0,5	1,382400
9,767000	0,5	1,386800
9,775333	0,5	1,394000
9,783667	0,5	1,407450
9,792000	0,5	1,420900
9,800333	0,5	1,441650
9,808667	0,5	1,464100
9,817000	0,5	1,485200
9,825333	0,5	1,498750
9,833667	0,5	1,505500
9,842000	0,5	1,506300
9,850333	0,5	1,499100
9,858667	0,5	1,485350
9,867000	0,5	1,473800
9,875333	0,5	1,463650
9,883667	0,5	1,453600
9,892000	0,5	1,445850
9,900333	0,5	1,437950
9,908667	0,5	1,431900
9,917000	0,5	1,428050
9,925333	0,5	1,431350
9,933667	0,5	1,438000
9,942000	0,5	1,439700
9,950333	0,5	1,448100
9,958667	0,5	1,451750
9,967000	0,5	1,454700
9,975333	0,5	1,459800
9,983667	0,5	1,466250
9,992000	0,5	1,474200
10,000333	0,5	1,481950
10,008667	0,5	1,495250
10,017000	0,5	1,511500
10,025333	0,5	1,527000
10,033667	0,5	1,542500
10,042000	0,5	1,553150
10,050333	0,5	1,557200
10,058667	0,5	1,543450
10,067000	0,5	1,530950
10,075333	0,5	1,515150
10,083667	0,5	1,496800
10,092000	0,5	1,469450
10,100333	0,5	1,456850
10,108667	0,5	1,438650
10,117000	0,5	1,422400
10,125333	0,5	1,411700
10,133667	0,5	1,400050
10,142000	0,5	1,385650
10,150333	0,5	1,375750
10,158667	0,5	1,366800
10,167000	0,5	1,365000
10,175333	0,5	1,362600
10,183667	0,5	1,364800
10,192000	0,5	1,358850
10,200333	0,5	1,363550
10,208667	0,5	1,363750
10,217000	0,5	1,366800
10,225333	0,5	1,368300
10,233667	0,5	1,374200
10,242000	0,5	1,382350
10,250333	0,5	1,396700
10,258667	0,5	1,414650
10,267000	0,5	1,424650
10,275333	0,5	1,456100
10,283667	0,5	1,479150
10,292000	0,5	1,507000
10,300333	0,5	1,542400
10,308667	0,5	1,581900
10,317000	0,5	1,637650
10,325333	0,5	1,693300
10,333667	0,5	1,745600
10,342000	0,5	1,785050
10,350333	0,5	1,809700
10,358667	0,5	1,815200
10,367000	0,5	1,790550
10,375333	0,5	1,753600
10,383667	0,5	1,712150
10,392000	0,5	1,658600
10,400333	0,5	1,608850
10,408667	0,5	1,559450
10,417000	0,5	1,512200
10,425333	0,5	1,480400
10,433667	0,5	1,446050
10,442000	0,5	1,420550
10,450333	0,5	1,399700
10,458667	0,5	1,385050
10,467000	0,5	1,374150
10,475333	0,5	1,366200
10,483667	0,5	1,354350
10,492000	0,5	1,343500
10,500333	0,5	1,335300
10,508667	0,5	1,330950
10,517000	0,5	1,325900
10,525333	0,5	1,322600
10,533667	0,5	1,316950
10,542000	0,5	1,316400
10,550333	0,5	1,314350
10,558667	0,5	1,308850
10,567000	0,5	1,312000
10,575333	0,5	1,316900
10,583667	0,5	1,320700
10,592000	0,5	1,324250
10,600333	0,5	1,336000
10,608667	0,5	1,350150
10,617000	0,5	1,376200
10,625333	0,5	1,403500
10,633667	0,5	1,425400
10,642000	0,5	1,458700
10,650333	0,5	1,466150
10,658667	0,5	1,467650
10,667000	0,5	1,446050
10,675333	0,5	1,407800
10,683667	0,5	1,355200
10,692000	0,5	1,298150
10,700333	0,5	1,247000
10,708667	0,5	1,198100
10,717000	0,5	1,171200
10,725333	0,5	1,162200
10,733667	0,5	1,160450
10,742000	0,5	1,161200
10,750333	0,5	1,171700
10,758667	0,5	1,194700
10,767000	0,5	1,215400
10,775333	0,5	1,239250
10,783667	0,5	1,263600
10,792000	0,5	1,283150
10,800333	0,5	1,295900
10,808667	0,5	1,308850
10,817000	0,5	1,320250
10,825333	0,5	1,315950
10,833667	0,5	1,317150
10,842000	0,5	1,310100
10,850333	0,5	1,297450
10,858667	0,5	1,281500
10,867000	0,5	1,279050
10,875333	0,5	1,265400
10,883667	0,5	1,257200
10,892000	0,5	1,240750
10,900333	0,5	1,235100
10,908667	0,5	1,235550
10,917000	0,5	1,234950
10,925333	0,5	1,230000
10,933667	0,5	1,229000
10,942000	0,5	1,216300
10,950333	0,5	1,212650
10,958667	0,5	1,209650
10,967000	0,5	1,204300
10,975333	0,5	1,198400
10,983667	0,5	1,195750
10,992000	0,5	1,201900
11,000333	0,5	1,197550
11,008667	0,5	1,204500
11,017000	0,5	1,204950
11,025333	0,5	1,202000
11,033667	0,5	1,194600
11,042000	0,5	1,183200
11,050333	0,5	1,174350
11,058667	0,5	1,163750
11,067000	0,5	1,162250
11,075333	0,5	1,150150
11,083667	0,5	1,157050
11,092000	0,5	1,150800
11,100333	0,5	1,155300
11,108667	0,5	1,159550
11,117000	0,5	1,172300
11,125333	0,5	1,176750
11,133667	0,5	1,193050
11,142000	0,5	1,216850
11,150333	0,5	1,239400
11,158667	0,5	1,277100
11,167000	0,5	1,328000
11,175333	0,5	1,389250
11,183667	0,5	1,458400
11,192000	0,5	1,523750
11,200333	0,5	1,591850
11,208667	0,5	1,635450
11,217000	0,5	1,649800
11,225333	0,5	1,637600
11,233667	0,5	1,604700
11,242000	0,5	1,558250
11,250333	0,5	1,510300
11,258667	0,5	1,468950
11,267000	0,5	1,431800
11,275333	0,5	1,410400
11,283667	0,5	1,383550
11,292000	0,5	1,362000
11,300333	0,5	1,334850
11,308667	0,5	1,313800
11,317000	0,5	1,301700
11,325333	0,5	1,278550
11,333667	0,5	1,259300
11,342000	0,5	1,247000
11,350333	0,5	1,250750
11,358667	0,5	1,247950
11,367000	0,5	1,249250
11,375333	0,5	1,265550
11,383667	0,5	1,286700
11,392000	0,5	1,316250
11,400333	0,5	1,362700
11,408667	0,5	1,428100
11,417000	0,5	1,493700
11,425333	0,5	1,558950
11,433667	0,5	1,619450
11,442000	0,5	1,651600
11,450333	0,5	1,662800
11,458667	0,5	1,657450
11,467000	0,5	1,630050
11,475333	0,5	1,596700
11,483667	0,5	1,565400
11,492000	0,5	1,530250
11,500333	0,5	1,512550
11,508667	0,5	1,482550
11,517000	0,5	1,447400
11,525333	0,5	1,412950
11,533667	0,5	1,380800
11,542000	0,5	1,341850
11,550333	0,5	1,311750
11,558667	0,5	1,280950
11,567000	0,5	1,262150
11,575333	0,5	1,256350
11,583667	0,5	1,259900
11,592000	0,5	1,255400
11,600333	0,5	1,262900
11,608667	0,5	1,276000
11,617000	0,5	1,277850
11,625333	0,5	1,281650
11,633667	0,5	1,266800
11,642000	0,5	1,261500
11,650333	0,5	1,246950
11,658667	0,5	1,229650
11,667000	0,5	1,205950
11,675333	0,5	1,192300
11,683667	0,5	1,173900
11,692000	0,5	1,163600
11,700333	0,5	1,149850
11,708667	0,5	1,144700
11,717000	0,5	1,136100
11,725333	0,5	1,137150
11,733667	0,5	1,137650
11,742000	0,5	1,131100
11,750333	0,5	1,138200
11,758667	0,5	1,133950
11,767000	0,5	1,132250
11,775333	0,5	1,131350
11,783667	0,5	1,136750
11,792000	0,5	1,150250
11,800333	0,5	1,162050
11,808667	0,5	1,169300
11,817000	0,5	1,173300
11,825333	0,5	1,176750
11,833667	0,5	1,182550
11,842000	0,5	1,184650
11,850333	0,5	1,181150
11,858667	0,5	1,181200
11,867000	0,5	1,177400
11,875333	0,5	1,188250
11,883667	0,5	1,193350
11,892000	0,5	1,190700
11,900333	0,5	1,209800
11,908667	0,5	1,221950
11,917000	0,5	1,231850
11,925333	0,5	1,254250
11,933667	0,5	1,275300
11,942000	0,5	1,301250
11,950333	0,5	1,329800
11,958667	0,5	1,342300
11,967000	0,5	1,346450
11,975333	0,5	1,353700
11,983667	0,5	1,348600
11,992000	0,5	1,337650
12,000333	0,5	1,322450
12,008667	0,5	1,320250
12,017000	0,5	1,308150
12,025333	0,5	1,301950
12,033667	0,5	1,289300
12,042000	0,5	1,285350
12,050333	0,5	1,298050
12,058667	0,5	1,300450
12,067000	0,5	1,300050
12,075333	0,5	1,305300
12,083667	0,5	1,317100
12,092000	0,5	1,332500
12,100333	0,5	1,349800
12,108667	0,5	1,362800
12,117000	0,5	1,381800
12,125333	0,5	1,415950
12,133667	0,5	1,460400
12,142000	0,5	1,524150
12,150333	0,5	1,594550
12,158667	0,5	1,665000
12,167000	0,5	1,736200
12,175333	0,5	1,780500
12,183667	0,5	1,806550
12,192000	0,5	1,831750
12,200333	0,5	1,841700
12,208667	0,5	1,850050
12,217000	0,5	1,862850
12,225333	0,5	1,872000
12,233667	0,5	1,899250
12,242000	0,5	1,921350
12,250333	0,5	1,941350
12,258667	0,5	1,954950
12,267000	0,5	1,963400
12,275333	0,5	1,966900
12,283667	0,5	1,972000
12,292000	0,5	1,971150
12,300333	0,5	1,957450
12,308667	0,5	1,925100
12,317000	0,5	1,876100
12,325333	0,5	1,810700
12,333667	0,5	1,751500
12,342000	0,5	1,702750
12,350333	0,5	1,665800
12,358667	0,5	1,632200
12,367000	0,5	1,612150
12,375333	0,5	1,600400
12,383667	0,5	1,590400
12,392000	0,5	1,577900
12,400333	0,5	1,549050
12,408667	0,5	1,518150
12,417000	0,5	1,473900
12,425333	0,5	1,429050
12,433667	0,5	1,387200
12,442000	0,5	1,346450
12,450333	0,5	1,312050
12,458667	0,5	1,266950
12,467000	0,5	1,231750
12,475333	0,5	1,194500
12,483667	0,5	1,172350
12,492000	0,5	1,152600
12,500333	0,5	1,127550
12,508667	0,5	1,102150
12,517000	0,5	1,081700
12,525333	0,5	1,067950
12,533667	0,5	1,062000
12,542000	0,5	1,052300
12,550333	0,5	1,041750
12,558667	0,5	1,037350
12,567000	0,5	1,027100
12,575333	0,5	1,013800
12,583667	0,5	1,002600
12,592000	0,5	1,003350
12,600333	0,5	0,993700
12,608667	0,5	0,990050
12,617000	0,5	0,990800
12,625333	0,5	0,971700
12,633667	0,5	0,967550
12,642000	0,5	0,962450
12,650333	0,5	0,953350
12,658667	0,5	0,944300
12,667000	0,5	0,925650
12,675333	0,5	0,931000
12,683667	0,5	0,920250
12,692000	0,5	0,923400
12,700333	0,5	0,914800
12,708667	0,5	0,916300
12,717000	0,5	0,906400
12,725333	0,5	0,911550
12,733667	0,5	0,914900
12,742000	0,5	0,929350
12,750333	0,5	0,942850
12,758667	0,5	0,986500
12,767000	0,5	1,032000
12,775333	0,5	1,084650
12,783667	0,5	1,134900
12,792000	0,5	1,166850
12,800333	0,5	1,170700
12,808667	0,5	1,144550
12,817000	0,5	1,101000
12,825333	0,5	1,065100
12,833667	0,5	1,028500
12,842000	0,5	0,958050
12,850333	0,5	0,888600
12,858667	0,5	0,814050
12,867000	0,5	0,743700
12,875333	0,5	0,675200
12,883667	0,5	0,604600
12,892000	0,5	0,537000
12,900333	0,5	0,488650
12,908667	0,5	0,440100
12,917000	0,5	0,327100
12,925333	0,5	0,196650
12,933667	0,5	0,000800
12,942000	0,5	-0,335050
12,950333	0,5	-0,768100
12,958667	0,5	-1,109800
12,967000	0,5	-1,390000
12,975333	0,5	-1,649650
12,983667	0,5	-1,861950
12,992000	0,5	-2,008800
13,000333	0,5	-2,101650
13,008667	0,5	-2,179300
13,017000	0,5	-2,244750
13,025333	0,5	-2,291950
13,033667	0,5	-2,342000
13,042000	0,5	-2,381550
13,050333	0,5	-2,408250
13,058667	0,5	-2,428650
13,067000	0,5	-2,456400
13,075333	0,5	-2,459250
13,083667	0,5	-2,467250
13,092000	0,5	-2,485200
13,100333	0,5	-2,505700
13,108667	0,5	-2,535300
13,117000	0,5	-2,548550
13,125333	0,5	-2,575650
13,133667	0,5	-2,609450
13,142000	0,5	-2,637350
13,150333	0,5	-2,674550
13,158667	0,5	-2,701800
13,167000	0,5	-2,730300
13,175333	0,5	-2,746000
13,183667	0,5	-2,762850
13,192000	0,5	-2,777050
13,200333	0,5	-2,773050
13,208667	0,5	-2,784250
13,217000	0,5	-2,785550
13,225333	0,5	-2,778100
13,233667	0,5	-2,770850
13,242000	0,5	-2,766100
13,250333	0,5	-2,767500
13,258667	0,5	-2,754750
13,267000	0,5	-2,735150
13,275333	0,5	-2,717800
13,283667	0,5	-2,687300
13,292000	0,5	-2,666650
13,300333	0,5	-2,631800
13,308667	0,5	-2,598550
13,317000	0,5	-2,574350
13,325333	0,5	-2,550150
13,333667	0,5	-2,535800
13,342000	0,5	-2,521300
13,350333	0,5	-2,506850
13,358667	0,5	-2,508800
13,367000	0,5	-2,495000
13,375333	0,5	-2,478900
13,383667	0,5	-2,466600
13,392000	0,5	-2,454700
13,400333	0,5	-2,451950
13,408667	0,5	-2,431600
13,417000	0,5	-2,414500
13,425333	0,5	-2,396450
13,433667	0,5	-2,395900
13,442000	0,5	-2,393250
13,450333	0,5	-2,393700
13,458667	0,5	-2,394000
13,467000	0,5	-2,405700
13,475333	0,5	-2,419500
13,483667	0,5	-2,428300
13,492000	0,5	-2,445100
13,500333	0,5	-2,446650
13,508667	0,5	-2,460950
13,517000	0,5	-2,455550
13,525333	0,5	-2,457600
13,533667	0,5	-2,456900
13,542000	0,5	-2,456650
13,550333	0,5	-2,458600
13,558667	0,5	-2,447400
13,567000	0,5	-2,428850
13,575333	0,5	-2,423750
13,583667	0,5	-2,408400
13,592000	0,5	-2,394450
13,600333	0,5	-2,376750
13,608667	0,5	-2,356200
13,617000	0,5	-2,336050
13,625333	0,5	-2,317650
13,633667	0,5	-2,301850
13,642000	0,5	-2,280900
13,650333	0,5	-2,260450
13,658667	0,5	-2,255750
13,667000	0,5	-2,225400
13,675333	0,5	-2,216500
13,683667	0,5	-2,193050
13,692000	0,5	-2,173600
13,700333	0,5	-2,158100
13,708667	0,5	-2,117300
13,717000	0,5	-2,084100
13,725333	0,5	-2,050950
13,733667	0,5	-2,019000
13,742000	0,5	-1,981000
13,750333	0,5	-1,957000
13,758667	0,5	-1,925900
13,767000	0,5	-1,902750
13,775333	0,5	-1,880550
13,783667	0,5	-1,859650
13,792000	0,5	-1,833300
13,800333	0,5	-1,836100
13,808667	0,5	-1,825350
13,817000	0,5	-1,814950
13,825333	0,5	-1,799100
13,833667	0,5	-1,787000
13,842000	0,5	-1,789450
13,850333	0,5	-1,777000
13,858667	0,5	-1,754450
13,867000	0,5	-1,727300
13,875333	0,5	-1,715750
13,883667	0,5	-1,685200
13,892000	0,5	-1,659550
13,900333	0,5	-1,636550
13,908667	0,5	-1,614950
13,917000	0,5	-1,578200
13,925333	0,5	-1,538750
13,933667	0,5	-1,489900
13,942000	0,5	-1,428400
13,950333	0,5	-1,370300
13,958667	0,5	-1,289000
13,967000	0,5	-1,200950
13,975333	0,5	-1,108650
13,983667	0,5	-1,035500
13,992000	0,5	-0,973400
14,000333	0,5	-0,906900
14,008667	0,5	-0,841450
14,017000	0,5	-0,798150
14,025333	0,5	-0,759050
14,033667	0,5	-0,737250
14,042000	0,5	-0,731750
14,050333	0,5	-0,729950
14,058667	0,5	-0,717000
14,067000	0,5	-0,703200
14,075333	0,5	-0,666500
14,083667	0,5	-0,621100
14,092000	0,5	-0,546000
14,100333	0,5	-0,471550
14,108667	0,5	-0,364550
14,117000	0,5	-0,262700
14,125333	0,5	-0,182500
14,133667	0,5	-0,130750
14,142000	0,5	-0,102400
14,150333	0,5	-0,082600
14,158667	0,5	-0,084100
14,167000	0,5	-0,105200
14,175333	0,5	-0,122300
14,183667	0,5	-0,139200
14,192000	0,5	-0,138800
14,200333	0,5	-0,137650
14,208667	0,5	-0,134350
14,217000	0,5	-0,116000
14,225333	0,5	-0,101950
14,233667	0,5	-0,081450
14,242000	0,5	-0,079700
14,250333	0,5	-0,066650
14,258667	0,5	-0,048400
14,267000	0,5	-0,035550
14,275333	0,5	-0,029700
14,283667	0,5	-0,031100
14,292000	0,5	-0,021900
14,300333	0,5	-0,004400
14,308667	0,5	-0,003850
14,317000	0,5	0,009750
14,325333	0,5	0,021000
14,333667	0,5	0,031600
14,342000	0,5	0,038550
14,350333	0,5	0,061750
14,358667	0,5	0,077850
14,367000	0,5	0,100700
14,375333	0,5	0,123600
14,383667	0,5	0,131850
14,392000	0,5	0,126100
14,400333	0,5	0,128100
14,408667	0,5	0,120350
14,417000	0,5	0,092100
14,425333	0,5	0,078300
14,433667	0,5	0,047800
14,442000	0,5	0,039950
14,450333	0,5	0,025450
14,458667	0,5	0,023750
14,467000	0,5	0,016200
14,475333	0,5	0,010300
14,483667	0,5	0,008300
14,492000	0,5	0,006950
14,500333	0,5	0,012750
14,508667	0,5	0,014300
14,517000	0,5	0,002450
14,525333	0,5	0,005150
14,533667	0,5	0,000700
14,542000	0,5	0,002400
14,550333	0,5	0,019600
14,558667	0,5	0,035500
14,567000	0,5	0,061150
14,575333	0,5	0,106700
14,583667	0,5	0,187800
14,592000	0,5	0,294450
14,600333	0,5	0,417550
14,608667	0,5	0,499150
14,617000	0,5	0,549650
14,625333	0,5	0,549950
14,633667	0,5	0,513400
14,642000	0,5	0,444650
14,650333	0,5	0,385650
14,658667	0,5	0,334800
14,667000	0,5	0,321150
14,675333	0,5	0,352400
14,683667	0,5	0,401200
14,692000	0,5	0,487000
14,700333	0,5	0,574500
14,708667	0,5	0,620150
14,717000	0,5	0,610450
14,725333	0,5	0,557250
14,733667	0,5	0,485650
14,742000	0,5	0,406800
14,750333	0,5	0,318750
14,758667	0,5	0,247700
14,767000	0,5	0,192000
14,775333	0,5	0,156300
14,783667	0,5	0,125700
14,792000	0,5	0,105450
14,800333	0,5	0,088900
14,808667	0,5	0,073400
14,817000	0,5	0,073050
14,825333	0,5	0,082500
14,833667	0,5	0,074750
14,842000	0,5	0,099600
14,850333	0,5	0,108750
14,858667	0,5	0,106700
14,867000	0,5	0,098400
14,875333	0,5	0,066650
14,883667	0,5	0,064100
14,892000	0,5	0,056800
14,900333	0,5	0,051700
14,908667	0,5	0,049700
14,917000	0,5	0,055550
14,925333	0,5	0,038350
14,933667	0,5	0,030550
14,942000	0,5	0,014850
14,950333	0,5	-0,000350
14,958667	0,5	-0,022850
14,967000	0,5	-0,031700
14,975333	0,5	-0,045550
14,983667	0,5	-0,062000
14,992000	0,5	-0,062300
15,000333	0,5	-0,071200
15,008667	0,5	-0,081900
15,017000	0,5	-0,106000
15,025333	0,5	-0,128400
15,033667	0,5	-0,127850
15,042000	0,5	-0,132250
15,050333	0,5	-0,133850
15,058667	0,5	-0,130550
15,067000	0,5	-0,117650
15,075333	0,5	-0,100250
15,083667	0,5	-0,059400
15,092000	0,5	0,012650
15,100333	0,5	0,104400
15,108667	0,5	0,223550
15,117000	0,5	0,345500
15,125333	0,5	0,430050
15,133667	0,5	0,465850
15,142000	0,5	0,472300
15,150333	0,5	0,413050
15,158667	0,5	0,347200
15,167000	0,5	0,298550
15,175333	0,5	0,288650
15,183667	0,5	0,343450
15,192000	0,5	0,416500
15,200333	0,5	0,493800
15,208667	0,5	0,538000
15,217000	0,5	0,539600
15,225333	0,5	0,469100
15,233667	0,5	0,389500
15,242000	0,5	0,297600
15,250333	0,5	0,217050
15,258667	0,5	0,168050
15,267000	0,5	0,136550
15,275333	0,5	0,098150
15,283667	0,5	0,089250
15,292000	0,5	0,078300
15,300333	0,5	0,056550
15,308667	0,5	0,029400
15,317000	0,5	-0,000100
15,325333	0,5	-0,025200
15,333667	0,5	-0,028300
15,342000	0,5	-0,030150
15,350333	0,5	-0,024950
15,358667	0,5	-0,019000
15,367000	0,5	-0,013650
15,375333	0,5	-0,009050
15,383667	0,5	-0,019650
15,392000	0,5	-0,024250
15,400333	0,5	-0,045350
15,408667	0,5	-0,056950
15,417000	0,5	-0,098000
15,425333	0,5	-0,127700
15,433667	0,5	-0,147200
15,442000	0,5	-0,160650
15,450333	0,5	-0,186950
15,458667	0,5	-0,217550
15,467000	0,5	-0,233000
15,475333	0,5	-0,241450
15,483667	0,5	-0,252250
15,492000	0,5	-0,259150
15,500333	0,5	-0,267150
15,508667	0,5	-0,267300
15,517000	0,5	-0,265850
15,525333	0,5	-0,251650
15,533667	0,5	-0,233000
15,542000	0,5	-0,184700
15,550333	0,5	-0,101600
15,558667	0,5	0,010600
15,567000	0,5	0,122400
15,575333	0,5	0,246700
15,583667	0,5	0,336600
15,592000	0,5	0,365150
15,600333	0,5	0,346000
15,608667	0,5	0,291000
15,617000	0,5	0,280600
15,625333	0,5	0,302500
15,633667	0,5	0,348900
15,642000	0,5	0,397150
15,650333	0,5	0,434200
15,658667	0,5	0,417950
15,667000	0,5	0,365950
15,675333	0,5	0,286450
15,683667	0,5	0,181300
15,692000	0,5	0,089050
15,700333	0,5	0,000650
15,708667	0,5	-0,049750
15,717000	0,5	-0,119850
15,725333	0,5	-0,135650
15,733667	0,5	-0,163550
15,742000	0,5	-0,173500
15,750333	0,5	-0,179400
15,758667	0,5	-0,188750
15,767000	0,5	-0,166700
15,775333	0,5	-0,151250
15,783667	0,5	-0,165300
15,792000	0,5	-0,166100
15,800333	0,5	-0,191700
15,808667	0,5	-0,207050
15,817000	0,5	-0,229750
15,825333	0,5	-0,245600
15,833667	0,5	-0,283650
15,842000	0,5	-0,316900
15,850333	0,5	-0,328600
15,858667	0,5	-0,352100
15,867000	0,5	-0,377350
15,875333	0,5	-0,376700
15,883667	0,5	-0,384050
15,892000	0,5	-0,398700
15,900333	0,5	-0,423150
15,908667	0,5	-0,441450
15,917000	0,5	-0,421700
15,925333	0,5	-0,426200
15,933667	0,5	-0,406600
15,942000	0,5	-0,384600
15,950333	0,5	-0,316000
15,958667	0,5	-0,219550
15,967000	0,5	-0,084100
15,975333	0,5	0,050300
15,983667	0,5	0,160800
15,992000	0,5	0,233200
16,000333	0,5	0,260750
16,008667	0,5	0,253200
16,017000	0,5	0,274350
16,025333	0,5	0,296700
16,033667	0,5	0,331650
16,042000	0,5	0,324800
16,050333	0,5	0,286400
16,058667	0,5	0,228800
16,067000	0,5	0,140800
16,075333	0,5	0,051150
16,083667	0,5	-0,045850
16,092000	0,5	-0,110650
16,100333	0,5	-0,161900
16,108667	0,5	-0,187450
16,117000	0,5	-0,192050
16,125333	0,5	-0,195000
16,133667	0,5	-0,194700
16,142000	0,5	-0,187700
16,150333	0,5	-0,183650
16,158667	0,5	-0,186600
16,167000	0,5	-0,183650
16,175333	0,5	-0,193700
16,183667	0,5	-0,207300
16,192000	0,5	-0,238200
16,200333	0,5	-0,278550
16,208667	0,5	-0,304400
16,217000	0,5	-0,320600
16,225333	0,5	-0,345200
16,233667	0,5	-0,365050
16,242000	0,5	-0,393250
16,250333	0,5	-0,417400
16,258667	0,5	-0,438300
16,267000	0,5	-0,453300
16,275333	0,5	-0,472200
16,283667	0,5	-0,485000
16,292000	0,5	-0,491150
16,300333	0,5	-0,483450
16,308667	0,5	-0,451000
16,317000	0,5	-0,375750
16,325333	0,5	-0,278000
16,333667	0,5	-0,157350
16,342000	0,5	-0,047750
16,350333	0,5	0,046700
16,358667	0,5	0,120000
16,367000	0,5	0,151750
16,375333	0,5	0,153200
16,383667	0,5	0,156900
16,392000	0,5	0,169100
16,400333	0,5	0,153450
16,408667	0,5	0,124800
16,417000	0,5	0,051550
16,425333	0,5	-0,029000
16,433667	0,5	-0,111800
16,442000	0,5	-0,173200
16,450333	0,5	-0,244550
16,458667	0,5	-0,249250
16,467000	0,5	-0,253200
16,475333	0,5	-0,252050
16,483667	0,5	-0,246300
16,492000	0,5	-0,244950
16,500333	0,5	-0,227250
16,508667	0,5	-0,210950
16,517000	0,5	-0,201200
16,525333	0,5	-0,197750
16,533667	0,5	-0,191800
16,542000	0,5	-0,204200
16,550333	0,5	-0,228100
16,558667	0,5	-0,245500
16,567000	0,5	-0,262250
16,575333	0,5	-0,281200
16,583667	0,5	-0,285650
16,592000	0,5	-0,297000
16,600333	0,5	-0,303350
16,608667	0,5	-0,303450
16,617000	0,5	-0,303900
16,625333	0,5	-0,313050
16,633667	0,5	-0,317750
16,642000	0,5	-0,311600
16,650333	0,5	-0,269100
16,658667	0,5	-0,200950
16,667000	0,5	-0,107750
16,675333	0,5	-0,017850
16,683667	0,5	0,051700
16,692000	0,5	0,094400
16,700333	0,5	0,110850
16,708667	0,5	0,116700
16,717000	0,5	0,108700
16,725333	0,5	0,097050
16,733667	0,5	0,063950
16,742000	0,5	-0,005750
16,750333	0,5	-0,085150
16,758667	0,5	-0,151350
16,767000	0,5	-0,216400
16,775333	0,5	-0,276850
16,783667	0,5	-0,332850
16,792000	0,5	-0,350000
16,800333	0,5	-0,350600
16,808667	0,5	-0,358250
16,817000	0,5	-0,373500
16,825333	0,5	-0,372500
16,833667	0,5	-0,384050
16,842000	0,5	-0,390050
16,850333	0,5	-0,403700
16,858667	0,5	-0,424000
16,867000	0,5	-0,434300
16,875333	0,5	-0,448000
16,883667	0,5	-0,453850
16,892000	0,5	-0,495200
16,900333	0,5	-0,498250
16,908667	0,5	-0,510750
16,917000	0,5	-0,513800
16,925333	0,5	-0,521250
16,933667	0,5	-0,529800
16,942000	0,5	-0,496600
16,950333	0,5	-0,435750
16,958667	0,5	-0,377650
16,967000	0,5	-0,283250
16,975333	0,5	-0,174750
16,983667	0,5	-0,063450
16,992000	0,5	0,028250
17,000333	0,5	0,116700
17,008667	0,5	0,192950
17,017000	0,5	0,257600
17,025333	0,5	0,354400
17,033667	0,5	0,431650
17,042000	0,5	0,495850
17,050333	0,5	0,599400
17,058667	0,5	0,683800
17,067000	0,5	0,791900
17,075333	0,5	0,900400
17,083667	0,5	0,999150
17,092000	0,5	1,126000
17,100333	0,5	1,228850
17,108667	0,5	1,320550
17,117000	0,5	1,389850
17,125333	0,5	1,450350
17,133667	0,5	1,477800
17,142000	0,5	1,498400
17,150333	0,5	1,487550
17,158667	0,5	1,424250
17,167000	0,5	1,328700
17,175333	0,5	1,214750
17,183667	0,5	1,066100
17,192000	0,5	0,902950
17,200333	0,5	0,760400
17,208667	0,5	0,614400
17,217000	0,5	0,498050
17,225333	0,5	0,407150
17,233667	0,5	0,359400
17,242000	0,5	0,365000
17,250333	0,5	0,405500
17,258667	0,5	0,443900
17,267000	0,5	0,486450
17,275333	0,5	0,514050
17,283667	0,5	0,528500
17,292000	0,5	0,518450
17,300333	0,5	0,485150
17,308667	0,5	0,417450
17,317000	0,5	0,344500
17,325333	0,5	0,271700
17,333667	0,5	0,194100
17,342000	0,5	0,170300
17,350333	0,5	0,156450
17,358667	0,5	0,153900
17,367000	0,5	0,159200
17,375333	0,5	0,173200
17,383667	0,5	0,197450
17,392000	0,5	0,244750
17,400333	0,5	0,263600
17,408667	0,5	0,288750
17,417000	0,5	0,295200
17,425333	0,5	0,293150
17,433667	0,5	0,285250
17,442000	0,5	0,272700
17,450333	0,5	0,229650
17,458667	0,5	0,182450
17,467000	0,5	0,134550
17,475333	0,5	0,089950
17,483667	0,5	0,052550
17,492000	0,5	0,053700
17,500333	0,5	0,057500
17,508667	0,5	0,061600
17,517000	0,5	0,042750
17,525333	0,5	0,026550
17,533667	0,5	0,019600
17,542000	0,5	-0,022050
17,550333	0,5	-0,076400
17,558667	0,5	-0,156100
17,567000	0,5	-0,221750
17,575333	0,5	-0,292400
17,583667	0,5	-0,335050
17,592000	0,5	-0,378300
17,600333	0,5	-0,409150
17,608667	0,5	-0,448550
17,617000	0,5	-0,465000
17,625333	0,5	-0,515100
17,633667	0,5	-0,526550
17,642000	0,5	-0,541750
17,650333	0,5	-0,564500
17,658667	0,5	-0,589650
17,667000	0,5	-0,629150
17,675333	0,5	-0,636500
17,683667	0,5	-0,645050
17,692000	0,5	-0,647150
17,700333	0,5	-0,620600
17,708667	0,5	-0,602550
17,717000	0,5	-0,552250
17,725333	0,5	-0,502050
17,733667	0,5	-0,449700
17,742000	0,5	-0,392900
17,750333	0,5	-0,366750
17,758667	0,5	-0,348400
17,767000	0,5	-0,361350
17,775333	0,5	-0,411900
17,783667	0,5	-0,437100
17,792000	0,5	-0,475350
17,800333	0,5	-0,520800
17,808667	0,5	-0,566850
17,817000	0,5	-0,615850
17,825333	0,5	-0,619800
17,833667	0,5	-0,641450
17,842000	0,5	-0,656550
17,850333	0,5	-0,677250
17,858667	0,5	-0,684300
17,867000	0,5	-0,704250
17,875333	0,5	-0,718050
17,883667	0,5	-0,712500
17,892000	0,5	-0,723050
17,900333	0,5	-0,708350
17,908667	0,5	-0,691450
17,917000	0,5	-0,667050
17,925333	0,5	-0,633800
17,933667	0,5	-0,564950
17,942000	0,5	-0,509950
17,950333	0,5	-0,473700
17,958667	0,5	-0,462550
17,967000	0,5	-0,476850
17,975333	0,5	-0,491800
17,983667	0,5	-0,510000
17,992000	0,5	-0,550450
18,000333	0,5	-0,572800
18,008667	0,5	-0,602700
18,017000	0,5	-0,631750
18,025333	0,5	-0,642200
18,033667	0,5	-0,660650
18,042000	0,5	-0,679700
18,050333	0,5	-0,694000
18,058667	0,5	-0,691200
18,067000	0,5	-0,707400
18,075333	0,5	-0,698650
18,083667	0,5	-0,704200
18,092000	0,5	-0,690550
18,100333	0,5	-0,689700
18,108667	0,5	-0,676850
18,117000	0,5	-0,631400
18,125333	0,5	-0,576850
18,133667	0,5	-0,536300
18,142000	0,5	-0,500050
18,150333	0,5	-0,482900
18,158667	0,5	-0,486250
18,167000	0,5	-0,508000
18,175333	0,5	-0,540650
18,183667	0,5	-0,577200
18,192000	0,5	-0,609100
18,200333	0,5	-0,624250
18,208667	0,5	-0,645200
18,217000	0,5	-0,661500
18,225333	0,5	-0,669350
18,233667	0,5	-0,678350
18,242000	0,5	-0,692250
18,250333	0,5	-0,709500
18,258667	0,5	-0,744350
18,267000	0,5	-0,726400
18,275333	0,5	-0,717100
18,283667	0,5	-0,702300
18,292000	0,5	-0,687100
18,300333	0,5	-0,652300
18,308667	0,5	-0,628300
18,317000	0,5	-0,602400
18,325333	0,5	-0,599550
18,333667	0,5	-0,613900
18,342000	0,5	-0,631300
18,350333	0,5	-0,656600
18,358667	0,5	-0,691400
18,367000	0,5	-0,711450
18,375333	0,5	-0,721300
18,383667	0,5	-0,740850
18,392000	0,5	-0,758900
18,400333	0,5	-0,790250
18,408667	0,5	-0,804950
18,417000	0,5	-0,816650
18,425333	0,5	-0,803900
18,433667	0,5	-0,813750
18,442000	0,5	-0,797650
18,450333	0,5	-0,805350
18,458667	0,5	-0,790400
18,467000	0,5	-0,779200
18,475333	0,5	-0,760350
18,483667	0,5	-0,761050
18,492000	0,5	-0,761450
18,500333	0,5	-0,762950
18,508667	0,5	-0,798150
18,517000	0,5	-0,819050
18,525333	0,5	-0,841700
18,533667	0,5	-0,869100
18,542000	0,5	-0,897800
18,550333	0,5	-0,924450
18,558667	0,5	-0,943350
18,567000	0,5	-0,940850
18,575333	0,5	-0,954450
18,583667	0,5	-0,960800
18,592000	0,5	-0,968400
18,600333	0,5	-0,961950
18,608667	0,5	-0,958550
18,617000	0,5	-0,933700
18,625333	0,5	-0,911200
18,633667	0,5	-0,894400
18,642000	0,5	-0,869150
18,650333	0,5	-0,873800
18,658667	0,5	-0,900650
18,667000	0,5	-0,914000
18,675333	0,5	-0,921600
18,683667	0,5	-0,940800
18,692000	0,5	-0,965250
18,700333	0,5	-0,979200
18,708667	0,5	-0,964250
18,717000	0,5	-0,971000
18,725333	0,5	-0,958950
18,733667	0,5	-0,950400
18,742000	0,5	-0,934900
18,750333	0,5	-0,930350
18,758667	0,5	-0,906000
18,767000	0,5	-0,901000
18,775333	0,5	-0,904800
18,783667	0,5	-0,916650
18,792000	0,5	-0,926550
18,800333	0,5	-0,974600
18,808667	0,5	-0,990150
18,817000	0,5	-1,017850
18,825333	0,5	-1,043650
18,833667	0,5	-1,071750
18,842000	0,5	-1,111900
18,850333	0,5	-1,107000
18,858667	0,5	-1,109350
18,867000	0,5	-1,093700
18,875333	0,5	-1,102200
18,883667	0,5	-1,082800
18,892000	0,5	-1,085700
18,900333	0,5	-1,079200
18,908667	0,5	-1,090150
18,917000	0,5	-1,105100
18,925333	0,5	-1,132850
18,933667	0,5	-1,149750
18,942000	0,5	-1,169950
18,950333	0,5	-1,212500
18,958667	0,5	-1,207100
18,967000	0,5	-1,212200
18,975333	0,5	-1,224050
18,983667	0,5	-1,228250
18,992000	0,5	-1,254500
19,000333	0,5	-1,243750
19,008667	0,5	-1,218100
19,017000	0,5	-1,228900
19,025333	0,5	-1,223950
19,033667	0,5	-1,237950
19,042000	0,5	-1,237000
19,050333	0,5	-1,246850
19,058667	0,5	-1,255400
19,067000	0,5	-1,266000
19,075333	0,5	-1,277750
19,083667	0,5	-1,280850
19,092000	0,5	-1,283150
19,100333	0,5	-1,310200
19,108667	0,5	-1,301200
19,117000	0,5	-1,307200
19,125333	0,5	-1,320850
19,133667	0,5	-1,358750
19,142000	0,5	-1,392300
19,150333	0,5	-1,389950
19,158667	0,5	-1,398100
19,167000	0,5	-1,411950
19,175333	0,5	-1,428650
19,183667	0,5	-1,443350
19,192000	0,5	-1,451350
19,200333	0,5	-1,452050
19,208667	0,5	-1,454700
19,217000	0,5	-1,453250
19,225333	0,5	-1,457900
19,233667	0,5	-1,452200
19,242000	0,5	-1,479600
19,250333	0,5	-1,486100
19,258667	0,5	-1,491750
19,267000	0,5	-1,497600
19,275333	0,5	-1,516250
19,283667	0,5	-1,540500
19,292000	0,5	-1,544100
19,300333	0,5	-1,546600
19,308667	0,5	-1,552300
19,317000	0,5	-1,557250
19,325333	0,5	-1,572300
19,333667	0,5	-1,580000
19,342000	0,5	-1,590800
19,350333	0,5	-1,592250
19,358667	0,5	-1,601300
19,367000	0,5	-1,611950
19,375333	0,5	-1,607250
19,383667	0,5	-1,615300
19,392000	0,5	-1,622850
19,400333	0,5	-1,627650
19,408667	0,5	-1,623900
19,417000	0,5	-1,632850
19,425333	0,5	-1,663000
19,433667	0,5	-1,684400
19,442000	0,5	-1,696900
19,450333	0,5	-1,698700
19,458667	0,5	-1,692000
19,467000	0,5	-1,689350
19,475333	0,5	-1,689300
19,483667	0,5	-1,697400
19,492000	0,5	-1,710100
19,500333	0,5	-1,726300
19,508667	0,5	-1,744300
19,517000	0,5	-1,742450
19,525333	0,5	-1,739250
19,533667	0,5	-1,750150
19,542000	0,5	-1,764550
19,550333	0,5	-1,769250
19,558667	0,5	-1,788200
19,567000	0,5	-1,795300
19,575333	0,5	-1,832150
19,583667	0,5	-1,846550
19,592000	0,5	-1,841750
19,600333	0,5	-1,855500
19,608667	0,5	-1,869900
19,617000	0,5	-1,868650
19,625333	0,5	-1,874400
19,633667	0,5	-1,879500
19,642000	0,5	-1,880300
19,650333	0,5	-1,878000
19,658667	0,5	-1,890550
19,667000	0,5	-1,898350
19,675333	0,5	-1,902000
19,683667	0,5	-1,927650
19,692000	0,5	-1,927500
19,700333	0,5	-1,940250
19,708667	0,5	-1,964800
19,717000	0,5	-1,990950
19,725333	0,5	-2,018800
19,733667	0,5	-2,038700
19,742000	0,5	-2,039250
19,750333	0,5	-2,068000
19,758667	0,5	-2,081550
19,767000	0,5	-2,090450
19,775333	0,5	-2,106050
19,783667	0,5	-2,115900
19,792000	0,5	-2,133800
19,800333	0,5	-2,147700
19,808667	0,5	-2,171100
19,817000	0,5	-2,168100
19,825333	0,5	-2,192600
19,833667	0,5	-2,196500
19,842000	0,5	-2,204800
19,850333	0,5	-2,211150
19,858667	0,5	-2,230000
19,867000	0,5	-2,258300
19,875333	0,5	-2,272850
19,883667	0,5	-2,264600
19,892000	0,5	-2,277100
19,900333	0,5	-2,287600
19,908667	0,5	-2,294400
19,917000	0,5	-2,300050
19,925333	0,5	-2,300600
19,933667	0,5	-2,303300
19,942000	0,5	-2,301150
19,950333	0,5	-2,308600
19,958667	0,5	-2,307000
19,967000	0,5	-2,310250
19,975333	0,5	-2,338900
19,983667	0,5	-2,347700
19,992000	0,5	-2,363300
20,000333	0,5	-2,373950
20,008667	0,5	-2,399050
20,017000	0,5	-2,459100
20,025333	0,5	-2,452900
20,033667	0,5	-2,467550
20,042000	0,5	-2,477800
20,050333	0,5	-2,498500
20,058667	0,5	-2,497300
20,067000	0,5	-2,512400
20,075333	0,5	-2,525650
20,083667	0,5	-2,532550
20,092000	0,5	-2,548250
20,100333	0,5	-2,563300
20,108667	0,5	-2,578650
20,117000	0,5	-2,581700
20,125333	0,5	-2,603750
20,133667	0,5	-2,587500
20,142000	0,5	-2,598000
20,150333	0,5	-2,604250
20,158667	0,5	-2,622900
20,167000	0,5	-2,644250
20,175333	0,5	-2,636450
20,183667	0,5	-2,630850
20,192000	0,5	-2,639050
20,200333	0,5	-2,642850
20,208667	0,5	-2,654100
20,217000	0,5	-2,668000
20,225333	0,5	-2,677850
20,233667	0,5	-2,688100
20,242000	0,5	-2,709650
20,250333	0,5	-2,718550
20,258667	0,5	-2,710850
20,267000	0,5	-2,730500
20,275333	0,5	-2,748750
20,283667	0,5	-2,751000
20,292000	0,5	-2,765300
20,300333	0,5	-2,799450
20,308667	0,5	-2,831100
20,317000	0,5	-2,862850
20,325333	0,5	-2,881500
20,333667	0,5	-2,898600
20,342000	0,5	-2,918850
20,350333	0,5	-2,940850
20,358667	0,5	-2,954050
20,367000	0,5	-2,988800
20,375333	0,5	-3,006250
20,383667	0,5	-3,027800
20,392000	0,5	-3,058850
20,400333	0,5	-3,058250
20,408667	0,5	-3,082350
20,417000	0,5	-3,108900
20,425333	0,5	-3,126200
20,433667	0,5	-3,141400
20,442000	0,5	-3,164300
20,450333	0,5	-3,199250
20,458667	0,5	-3,246700
20,467000	0,5	-3,262950
20,475333	0,5	-3,289050
20,483667	0,5	-3,300500
20,492000	0,5	-3,312400
20,500333	0,5	-3,309600
20,508667	0,5	-3,305900
20,517000	0,5	-3,301250
20,525333	0,5	-3,297900
20,533667	0,5	-3,302650
20,542000	0,5	-3,320850
20,550333	0,5	-3,333550
20,558667	0,5	-3,387100
20,567000	0,5	-3,446550
20,575333	0,5	-3,487400
20,583667	0,5	-3,542100
20,592000	0,5	-3,592750
20,600333	0,5	-3,662650
20,608667	0,5	-3,703150
20,617000	0,5	-3,745400
20,625333	0,5	-3,770300
20,633667	0,5	-3,815000
20,642000	0,5	-3,836450
20,650333	0,5	-3,873350
20,658667	0,5	-3,897000
20,667000	0,5	-3,915800
20,675333	0,5	-3,909750
20,683667	0,5	-3,900700
20,692000	0,5	-3,864500
20,700333	0,5	-3,830950
20,708667	0,5	-3,817900
20,717000	0,5	-3,830500
20,725333	0,5	-3,867200
20,733667	0,5	-3,949350
20,742000	0,5	-4,041750
20,750333	0,5	-4,130900
20,758667	0,5	-4,222100
20,767000	0,5	-4,280000
20,775333	0,5	-4,349950
20,783667	0,5	-4,397650
20,792000	0,5	-4,457350
20,800333	0,5	-4,493900
20,808667	0,5	-4,547700
20,817000	0,5	-4,583000
20,825333	0,5	-4,638500
20,833667	0,5	-4,688300
20,842000	0,5	-4,696350
20,850333	0,5	-4,711800
20,858667	0,5	-4,753450
20,867000	0,5	-4,779250
20,875333	0,5	-4,808200
20,883667	0,5	-4,851350
20,892000	0,5	-4,913550
20,900333	0,5	-4,980600
20,908667	0,5	-5,011500
20,917000	0,5	-5,069850
20,925333	0,5	-5,108050
20,933667	0,5	-5,167250
20,942000	0,5	-5,201100
20,950333	0,5	-5,246800
20,958667	0,5	-5,278850
20,967000	0,5	-5,312800
20,975333	0,5	-5,349500
20,983667	0,5	-5,379750
20,992000	0,5	-5,380950
21,000333	0,5	-5,414400
21,008667	0,5	-5,443100
21,017000	0,5	-5,480100
21,025333	0,5	-5,518850
21,033667	0,5	-5,565050
21,042000	0,5	-5,639400
21,050333	0,5	-5,648200
21,058667	0,5	-5,684300
21,067000	0,5	-5,706800
21,075333	0,5	-5,749800
21,083667	0,5	-5,772200
21,092000	0,5	-5,812750
21,100333	0,5	-5,836700
21,108667	0,5	-5,871550
21,117000	0,5	-5,897050
21,125333	0,5	-5,929550
21,133667	0,5	-5,930700
21,142000	0,5	-5,936000
21,150333	0,5	-5,968900
21,158667	0,5	-5,995800
21,167000	0,5	-6,020900
21,175333	0,5	-6,059000
21,183667	0,5	-6,109800
21,192000	0,5	-6,147650
21,200333	0,5	-6,167450
21,208667	0,5	-6,178300
21,217000	0,5	-6,206950
21,225333	0,5	-6,224200
21,233667	0,5	-6,244650
21,242000	0,5	-6,268100
21,250333	0,5	-6,285950
21,258667	0,5	-6,289300
21,267000	0,5	-6,292400
21,275333	0,5	-6,292550
21,283667	0,5	-6,274850
21,292000	0,5	-6,279050
21,300333	0,5	-6,309200
21,308667	0,5	-6,332450
21,317000	0,5	-6,375450
21,325333	0,5	-6,419400
21,333667	0,5	-6,469050
21,342000	0,5	-6,503300
21,350333	0,5	-6,516800
21,358667	0,5	-6,544300
21,367000	0,5	-6,559650
21,375333	0,5	-6,583900
21,383667	0,5	-6,584450
21,392000	0,5	-6,610650
21,400333	0,5	-6,619100
21,408667	0,5	-6,640550
21,417000	0,5	-6,654850
21,425333	0,5	-6,639200
21,433667	0,5	-6,630200
21,442000	0,5	-6,648900
21,450333	0,5	-6,671250
21,458667	0,5	-6,703350
21,467000	0,5	-6,737750
21,475333	0,5	-6,777400
21,483667	0,5	-6,822800
21,492000	0,5	-6,826600
21,500333	0,5	-6,850600
21,508667	0,5	-6,865550
21,517000	0,5	-6,876250
21,525333	0,5	-6,888150
21,533667	0,5	-6,911650
21,542000	0,5	-6,917650
21,550333	0,5	-6,941700
21,558667	0,5	-6,955900
21,567000	0,5	-6,960450
21,575333	0,5	-6,933250
21,583667	0,5	-6,931200
21,592000	0,5	-6,935400
21,600333	0,5	-6,944250
21,608667	0,5	-6,962500
21,617000	0,5	-6,982800
21,625333	0,5	-7,002700
21,633667	0,5	-7,003400
21,642000	0,5	-6,996050
21,650333	0,5	-6,983100
21,658667	0,5	-6,988800
21,667000	0,5	-6,975700
21,675333	0,5	-6,998150
21,683667	0,5	-7,018100
21,692000	0,5	-7,040450
21,700333	0,5	-7,048450
21,708667	0,5	-7,071450
21,717000	0,5	-7,050300
21,725333	0,5	-7,052800
21,733667	0,5	-7,069000
21,742000	0,5	-7,093950
21,750333	0,5	-7,111350
21,758667	0,5	-7,143850
21,767000	0,5	-7,184700
21,775333	0,5	-7,200650
21,783667	0,5	-7,219150
21,792000	0,5	-7,233250
21,800333	0,5	-7,255900
21,808667	0,5	-7,261500
21,817000	0,5	-7,278250
21,825333	0,5	-7,279650
21,833667	0,5	-7,289650
21,842000	0,5	-7,302500
21,850333	0,5	-7,313550
21,858667	0,5	-7,336600
21,867000	0,5	-7,312000
21,875333	0,5	-7,331700
21,883667	0,5	-7,341200
21,892000	0,5	-7,340350
21,900333	0,5	-7,337550
21,908667	0,5	-7,315900
21,917000	0,5	-7,285750
21,925333	0,5	-7,237500
21,933667	0,5	-7,196700
21,942000	0,5	-7,217600
21,950333	0,5	-7,248550
21,958667	0,5	-7,319400
21,967000	0,5	-7,358300
21,975333	0,5	-7,418200
21,983667	0,5	-7,453850
21,992000	0,5	-7,495650
22,000333	0,5	-7,536250
22,008667	0,5	-7,556500
22,017000	0,5	-7,582100
22,025333	0,5	-7,628050
22,033667	0,5	-7,659000
22,042000	0,5	-7,674200
22,050333	0,5	-7,709350
22,058667	0,5	-7,747100
22,067000	0,5	-7,789800
22,075333	0,5	-7,789950
22,083667	0,5	-7,814200
22,092000	0,5	-7,836450
22,100333	0,5	-7,859650
22,108667	0,5	-7,872950
22,117000	0,5	-7,888600
22,125333	0,5	-7,910700
22,133667	0,5	-7,929100
22,142000	0,5	-7,944200
22,150333	0,5	-7,958000
22,158667	0,5	-7,967550
22,167000	0,5	-8,004500
22,175333	0,5	-8,000650
22,183667	0,5	-8,000450
22,192000	0,5	-8,007350
22,200333	0,5	-8,027250
22,208667	0,5	-8,069900
22,217000	0,5	-8,068050
22,225333	0,5	-8,070700
22,233667	0,5	-8,056500
22,242000	0,5	-8,064050
22,250333	0,5	-8,055150
22,258667	0,5	-8,058250
22,267000	0,5	-8,064100
22,275333	0,5	-8,059200
22,283667	0,5	-8,046500
22,292000	0,5	-8,047050
22,300333	0,5	-8,051250
22,308667	0,5	-8,033500
22,317000	0,5	-8,042000
22,325333	0,5	-7,998100
22,333667	0,5	-7,969050
22,342000	0,5	-7,906300
22,350333	0,5	-7,824100
22,358667	0,5	-7,735300
22,367000	0,5	-7,659050
22,375333	0,5	-7,627650
22,383667	0,5	-7,666500
22,392000	0,5	-7,725500
22,400333	0,5	-7,799100
22,408667	0,5	-7,849850
22,417000	0,5	-7,892300
22,425333	0,5	-7,922600
22,433667	0,5	-7,942800
22,442000	0,5	-7,972750
22,450333	0,5	-8,022700
22,458667	0,5	-8,028500
22,467000	0,5	-8,026100
22,475333	0,5	-8,011250
22,483667	0,5	-8,009400
22,492000	0,5	-8,009900
22,500333	0,5	-8,024200
22,508667	0,5	-8,025050
22,517000	0,5	-7,992400
22,525333	0,5	-7,974000
22,533667	0,5	-7,945000
22,542000	0,5	-7,925650
22,550333	0,5	-7,894350
22,558667	0,5	-7,882850
22,567000	0,5	-7,856450
22,575333	0,5	-7,852000
22,583667	0,5	-7,836950
22,592000	0,5	-7,869950
22,600333	0,5	-7,886400
22,608667	0,5	-7,856850
22,617000	0,5	-7,837250
22,625333	0,5	-7,831500
22,633667	0,5	-7,825500
22,642000	0,5	-7,840050
22,650333	0,5	-7,859150
22,658667	0,5	-7,847350
22,667000	0,5	-7,855650
22,675333	0,5	-7,849650
22,683667	0,5	-7,852450
22,692000	0,5	-7,850550
22,700333	0,5	-7,861150
22,708667	0,5	-7,862150
22,717000	0,5	-7,867050
22,725333	0,5	-7,868650
22,733667	0,5	-7,890750
22,742000	0,5	-7,962300
22,750333	0,5	-7,960300
22,758667	0,5	-7,925250
22,767000	0,5	-7,934600
22,775333	0,5	-7,950450
22,783667	0,5	-7,960650
22,792000	0,5	-7,996900
22,800333	0,5	-8,015100
22,808667	0,5	-8,032300
22,817000	0,5	-8,050250
22,825333	0,5	-8,078800
22,833667	0,5	-8,092950
22,842000	0,5	-8,112350
22,850333	0,5	-8,134950
22,858667	0,5	-8,149400
22,867000	0,5	-8,163400
22,875333	0,5	-8,184100
22,883667	0,5	-8,224600
22,892000	0,5	-8,274200
22,900333	0,5	-8,281250
22,908667	0,5	-8,277800
22,917000	0,5	-8,305550
22,925333	0,5	-8,321050
22,933667	0,5	-8,337600
22,942000	0,5	-8,360400
22,950333	0,5	-8,373200
22,958667	0,5	-8,405050
22,967000	0,5	-8,393500
22,975333	0,5	-8,396350
22,983667	0,5	-8,393500
22,992000	0,5	-8,387700
23,000333	0,5	-8,350150
23,008667	0,5	-8,349200
23,017000	0,5	-8,306000
23,025333	0,5	-8,283300
23,033667	0,5	-8,239300
23,042000	0,5	-8,188150
23,050333	0,5	-8,166200
23,058667	0,5	-8,164200
23,067000	0,5	-8,139100
23,075333	0,5	-8,084050
23,083667	0,5	-8,041550
23,092000	0,5	-7,993600
23,100333	0,5	-7,970400
23,108667	0,5	-7,901300
23,117000	0,5	-7,846450
23,125333	0,5	-7,778850
23,133667	0,5	-7,715250
23,142000	0,5	-7,629200
23,150333	0,5	-7,559700
23,158667	0,5	-7,473750
23,167000	0,5	-7,383300
23,175333	0,5	-7,259650
23,183667	0,5	-7,201500
23,192000	0,5	-7,095550
23,200333	0,5	-7,049000
23,208667	0,5	-6,984300
23,217000	0,5	-6,906350
23,225333	0,5	-6,830400
23,233667	0,5	-6,730650
23,242000	0,5	-6,671950
23,250333	0,5	-6,593600
23,258667	0,5	-6,529050
23,267000	0,5	-6,429750
23,275333	0,5	-6,364500
23,283667	0,5	-6,258150
23,292000	0,5	-6,177250
23,300333	0,5	-6,072250
23,308667	0,5	-5,986550
23,317000	0,5	-5,893600
23,325333	0,5	-5,892450
23,333667	0,5	-5,688700
23,342000	0,5	-5,576400
23,350333	0,5	-5,520400
23,358667	0,5	-5,450500
23,367000	0,5	-5,377350
23,375333	0,5	-5,295350
23,383667	0,5	-5,214750
23,392000	0,5	-5,152750
23,400333	0,5	-5,102550
23,408667	0,5	-5,033600
23,417000	0,5	-4,964150
23,425333	0,5	-4,891400
23,433667	0,5	-4,831700
23,442000	0,5	-4,754300
23,450333	0,5	-4,689950
23,458667	0,5	-4,609350
23,467000	0,5	-4,527300
23,475333	0,5	-4,551400
23,483667	0,5	-4,427050
23,492000	0,5	-4,332150
23,500333	0,5	-4,268600
23,508667	0,5	-4,216700
23,517000	0,5	-4,163800
23,525333	0,5	-4,106450
23,533667	0,5	-4,050050
23,542000	0,5	-4,014400
23,550333	0,5	-3,974550
23,558667	0,5	-3,928250
23,567000	0,5	-3,887850
23,575333	0,5	-3,840550
23,583667	0,5	-3,799400
23,592000	0,5	-3,763850
23,600333	0,5	-3,717900
23,608667	0,5	-3,677300
23,617000	0,5	-3,703000
23,625333	0,5	-3,712350
23,633667	0,5	-3,645300
23,642000	0,5	-3,551500
23,650333	0,5	-3,515950
23,658667	0,5	-3,482050
23,667000	0,5	-3,443350
23,675333	0,5	-3,419550
23,683667	0,5	-3,388200
23,692000	0,5	-3,370300
23,700333	0,5	-3,333400
23,708667	0,5	-3,311150
23,717000	0,5	-3,280400
23,725333	0,5	-3,256150
23,733667	0,5	-3,223000
23,742000	0,5	-3,190000
23,750333	0,5	-3,155500
23,758667	0,5	-3,135500
23,767000	0,5	-3,261350
23,775333	0,5	-3,251950
23,783667	0,5	-3,178700
23,792000	0,5	-3,104700
23,800333	0,5	-3,062900
23,808667	0,5	-3,038050
23,817000	0,5	-3,018400
23,825333	0,5	-3,000050
23,833667	0,5	-2,979000
23,842000	0,5	-2,952800
23,850333	0,5	-2,931950
23,858667	0,5	-2,909650
23,867000	0,5	-2,884400
23,875333	0,5	-2,864050
23,883667	0,5	-2,833750
23,892000	0,5	-2,806550
23,900333	0,5	-2,775100
23,908667	0,5	-2,781500
23,917000	0,5	-2,916300
23,925333	0,5	-2,873500
23,933667	0,5	-2,787550
23,942000	0,5	-2,716450
23,950333	0,5	-2,673100
23,958667	0,5	-2,639400
23,967000	0,5	-2,632850
23,975333	0,5	-2,617350
23,983667	0,5	-2,596950
23,992000	0,5	-2,564050
24,000333	0,5	-2,544750
24,008667	0,5	-2,514750
24,017000	0,5	-2,493000
24,025333	0,5	-2,470050
24,033667	0,5	-2,447750
24,042000	0,5	-2,414900
24,050333	0,5	-2,389550
24,058667	0,5	-2,512000
24,067000	0,5	-2,508650
24,075333	0,5	-2,489100
24,083667	0,5	-2,408550
24,092000	0,5	-2,355400
24,100333	0,5	-2,312150
24,108667	0,5	-2,288350
24,117000	0,5	-2,275150
24,125333	0,5	-2,242600
24,133667	0,5	-2,204350
24,142000	0,5	-2,178650
24,150333	0,5	-2,150000
24,158667	0,5	-2,124650
24,167000	0,5	-2,088650
24,175333	0,5	-2,071150
24,183667	0,5	-2,037650
24,192000	0,5	-2,009400
24,200333	0,5	-1,997150
24,208667	0,5	-2,118250
24,217000	0,5	-2,085900
24,225333	0,5	-2,043800
24,233667	0,5	-1,976550
24,242000	0,5	-1,941250
24,250333	0,5	-1,915450
24,258667	0,5	-1,898650
24,267000	0,5	-1,900800
24,275333	0,5	-1,860300
24,283667	0,5	-1,847000
24,292000	0,5	-1,816150
24,300333	0,5	-1,796700
24,308667	0,5	-1,769200
24,317000	0,5	-1,743150
24,325333	0,5	-1,713200
24,333667	0,5	-1,684700
24,342000	0,5	-1,659750
24,350333	0,5	-1,697050
24,358667	0,5	-1,748150
24,367000	0,5	-1,714650
24,375333	0,5	-1,664450
24,383667	0,5	-1,624150
24,392000	0,5	-1,590600
24,400333	0,5	-1,568450
24,408667	0,5	-1,556400
24,417000	0,5	-1,540000
24,425333	0,5	-1,518800
24,433667	0,5	-1,488250
24,442000	0,5	-1,471950
24,450333	0,5	-1,448050
24,458667	0,5	-1,432550
24,467000	0,5	-1,412750
24,475333	0,5	-1,394650
24,483667	0,5	-1,381100
24,492000	0,5	-1,361450
24,500333	0,5	-1,442350
24,508667	0,5	-1,423250
24,517000	0,5	-1,392350
24,525333	0,5	-1,356750
24,533667	0,5	-1,325650
24,542000	0,5	-1,302650
24,550333	0,5	-1,288850
24,558667	0,5	-1,288500
24,567000	0,5	-1,278800
24,575333	0,5	-1,246500
24,583667	0,5	-1,240900
24,592000	0,5	-1,220350
24,600333	0,5	-1,202600
24,608667	0,5	-1,179150
24,617000	0,5	-1,163550
24,625333	0,5	-1,139450
24,633667	0,5	-1,126300
24,642000	0,5	-1,114250
24,650333	0,5	-1,177200
24,658667	0,5	-1,151000
24,667000	0,5	-1,126750
24,675333	0,5	-1,094900
24,683667	0,5	-1,078800
24,692000	0,5	-1,069900
24,700333	0,5	-1,065650
24,708667	0,5	-1,070850
24,717000	0,5	-1,055500
24,725333	0,5	-1,043500
24,733667	0,5	-1,033450
24,742000	0,5	-1,022500
24,750333	0,5	-1,011200
24,758667	0,5	-0,999150
24,767000	0,5	-0,984400
24,775333	0,5	-0,971750
24,783667	0,5	-0,960600
24,792000	0,5	-0,980100
24,800333	0,5	-0,984100
24,808667	0,5	-0,966400
24,817000	0,5	-0,936900
24,825333	0,5	-0,917500
24,833667	0,5	-0,905550
24,842000	0,5	-0,888550
24,850333	0,5	-0,886600
24,858667	0,5	-0,883950
24,867000	0,5	-0,872250
24,875333	0,5	-0,862050
24,883667	0,5	-0,860600
24,892000	0,5	-0,853350
24,900333	0,5	-0,846050
24,908667	0,5	-0,841300
24,917000	0,5	-0,828650
24,925333	0,5	-0,822900
24,933667	0,5	-0,819250
24,942000	0,5	-0,839300
24,950333	0,5	-0,834250
24,958667	0,5	-0,824350
24,967000	0,5	-0,808150
24,975333	0,5	-0,791400
24,983667	0,5	-0,783250
24,992000	0,5	-0,783250
25,000333	0,5	-0,786500
25,008667	0,5	-0,769500
25,017000	0,5	-0,762500
25,025333	0,5	-0,759600
25,033667	0,5	-0,752700
25,042000	0,5	-0,737350
25,050333	0,5	-0,730900
25,058667	0,5	-0,726750
25,067000	0,5	-0,718650
25,075333	0,5	-0,709950
25,083667	0,5	-0,709000
25,092000	0,5	-0,723500
25,100333	0,5	-0,714500
25,108667	0,5	-0,714950
25,117000	0,5	-0,713000
25,125333	0,5	-0,706050
25,133667	0,5	-0,703000
25,142000	0,5	-0,706600
25,150333	0,5	-0,702300
25,158667	0,5	-0,701450
25,167000	0,5	-0,693250
25,175333	0,5	-0,689700
25,183667	0,5	-0,687900
25,192000	0,5	-0,683750
25,200333	0,5	-0,676400
25,208667	0,5	-0,671400
25,217000	0,5	-0,663000
25,225333	0,5	-0,657350
25,233667	0,5	-0,657400
25,242000	0,5	-0,649650
25,250333	0,5	-0,648850
25,258667	0,5	-0,642400
25,267000	0,5	-0,642000
25,275333	0,5	-0,636800
25,283667	0,5	-0,639950
25,292000	0,5	-0,640650
25,300333	0,5	-0,636800
25,308667	0,5	-0,636400
25,317000	0,5	-0,641300
25,325333	0,5	-0,636400
25,333667	0,5	-0,637000
25,342000	0,5	-0,634200
25,350333	0,5	-0,633850
25,358667	0,5	-0,631450
25,367000	0,5	-0,627000
25,375333	0,5	-0,626500
25,383667	0,5	-0,618450
25,392000	0,5	-0,613150
25,400333	0,5	-0,604450
25,408667	0,5	-0,608450
25,417000	0,5	-0,605400
25,425333	0,5	-0,602650
25,433667	0,5	-0,602050
25,442000	0,5	-0,594750
25,450333	0,5	-0,595000
25,458667	0,5	-0,591600
25,467000	0,5	-0,593800
25,475333	0,5	-0,590050
25,483667	0,5	-0,591000
25,492000	0,5	-0,590950
25,500333	0,5	-0,593200
25,508667	0,5	-0,592550
25,517000	0,5	-0,593100
25,525333	0,5	-0,591400
25,533667	0,5	-0,577800
25,542000	0,5	-0,576750
25,550333	0,5	-0,575000
25,558667	0,5	-0,583550
25,567000	0,5	-0,583900
25,575333	0,5	-0,578800
25,583667	0,5	-0,580250
25,592000	0,5	-0,565150
25,600333	0,5	-0,566300
25,608667	0,5	-0,568850
25,617000	0,5	-0,567350
25,625333	0,5	-0,569900
25,633667	0,5	-0,568550
25,642000	0,5	-0,559150
25,650333	0,5	-0,561600
25,658667	0,5	-0,561600
25,667000	0,5	-0,558850
25,675333	0,5	-0,553500
25,683667	0,5	-0,541650
25,692000	0,5	-0,540350
25,700333	0,5	-0,541600
25,708667	0,5	-0,560350
25,717000	0,5	-0,555150
25,725333	0,5	-0,556450
25,733667	0,5	-0,543450
25,742000	0,5	-0,541150
25,750333	0,5	-0,545400
25,758667	0,5	-0,544250
25,767000	0,5	-0,541200
25,775333	0,5	-0,541650
25,783667	0,5	-0,544250
25,792000	0,5	-0,540250
25,800333	0,5	-0,536100
25,808667	0,5	-0,534100
25,817000	0,5	-0,532450
25,825333	0,5	-0,521000
25,833667	0,5	-0,517950
25,842000	0,5	-0,509450
25,850333	0,5	-0,515500
25,858667	0,5	-0,521450
25,867000	0,5	-0,521800
25,875333	0,5	-0,515000
25,883667	0,5	-0,505950
25,892000	0,5	-0,503100
25,900333	0,5	-0,503250
25,908667	0,5	-0,504650
25,917000	0,5	-0,501250
25,925333	0,5	-0,500200
25,933667	0,5	-0,501900
25,942000	0,5	-0,498850
25,950333	0,5	-0,494600
25,958667	0,5	-0,495050
25,967000	0,5	-0,485750
25,975333	0,5	-0,478050
25,983667	0,5	-0,470050
25,992000	0,5	-0,462750
26,000333	0,5	-0,465750
