File Path	chrom://chromeleon01/ikbm_chromeleon/2022/ICS-5000/ED1/Esteban/20220427_Cell_Amandas_mutants.seq/697.smp/ED_1.channel/ED_1.chm
Channel	ED_1

Injection Information:
Data Vault	ikbm_chromeleon
Injection	EG_Avi_4b
Injection Number	30
Position	RC8
Comment	
Processing Method	Stop sequence after Cell Death
Instrument Method	ICS5000_PA200_FullNative_Ox_26min_ED1
Type	Unknown
Status	Finished
Injection Date	28.04.2022
Injection Time	02:45:30
Injection Volume (µl)	5,0
Dilution Factor	1,0000
Weight	1,0000

Chromatogram Data Information:
Time Min. (min)	0,000333
Time Max. (min)	26,000333
Data Points	3121
Detector	EDet1
Generating Data System	Chromeleon 7.2.9.11323
Exporting Data System	Chromeleon 7.2.9.0
Operator	Instrument Controller
Signal Quantity	
Signal Unit	nC
Signal Min.	-7,945050
Signal Max.	669,254860
Channel	ED_1
Driver Name	DC-5000
Channel Type	Evaluation
Min. Step (s)	0,5
Max. Step (s)	0,5
Average Step (s)	0,5

Signal Parameter Information:
Signal Info	

Chromatogram Data:
Time (min)	Step (s)	Value (nC)
0,000333	n.a.	-0,086400
0,008667	0,5	-0,091950
0,017000	0,5	-0,085550
0,025333	0,5	-0,068350
0,033667	0,5	-0,049400
0,042000	0,5	-0,053550
0,050333	0,5	-0,026350
0,058667	0,5	-0,027850
0,067000	0,5	-0,033150
0,075333	0,5	-0,015550
0,083667	0,5	-0,010700
0,092000	0,5	-0,042800
0,100333	0,5	-0,023250
0,108667	0,5	-0,014050
0,117000	0,5	0,024000
0,125333	0,5	0,038350
0,133667	0,5	0,025350
0,142000	0,5	0,014250
0,150333	0,5	0,022000
0,158667	0,5	0,007400
0,167000	0,5	0,010900
0,175333	0,5	0,005000
0,183667	0,5	0,004950
0,192000	0,5	0,001900
0,200333	0,5	0,011250
0,208667	0,5	0,001550
0,217000	0,5	-0,025850
0,225333	0,5	-0,006550
0,233667	0,5	-0,018200
0,242000	0,5	-0,027100
0,250333	0,5	-0,030400
0,258667	0,5	-0,000050
0,267000	0,5	0,022450
0,275333	0,5	0,044600
0,283667	0,5	0,016750
0,292000	0,5	0,030350
0,300333	0,5	0,064800
0,308667	0,5	0,084400
0,317000	0,5	0,039350
0,325333	0,5	0,004650
0,333667	0,5	-0,009700
0,342000	0,5	-0,008100
0,350333	0,5	-0,014750
0,358667	0,5	-0,037550
0,367000	0,5	-0,039500
0,375333	0,5	-0,018150
0,383667	0,5	-0,035450
0,392000	0,5	-0,045350
0,400333	0,5	-0,034200
0,408667	0,5	-0,002200
0,417000	0,5	0,028900
0,425333	0,5	0,010650
0,433667	0,5	0,019800
0,442000	0,5	0,002500
0,450333	0,5	0,007800
0,458667	0,5	-0,003750
0,467000	0,5	0,006450
0,475333	0,5	-0,005700
0,483667	0,5	-0,007750
0,492000	0,5	-0,013800
0,500333	0,5	-0,016650
0,508667	0,5	-0,036000
0,517000	0,5	-0,016050
0,525333	0,5	-0,024750
0,533667	0,5	-0,036800
0,542000	0,5	-0,039300
0,550333	0,5	-0,033600
0,558667	0,5	0,015700
0,567000	0,5	0,028100
0,575333	0,5	0,025700
0,583667	0,5	0,014700
0,592000	0,5	0,018150
0,600333	0,5	0,006800
0,608667	0,5	0,014000
0,617000	0,5	0,008500
0,625333	0,5	0,011950
0,633667	0,5	-0,004400
0,642000	0,5	0,007850
0,650333	0,5	-0,012450
0,658667	0,5	-0,012300
0,667000	0,5	0,014100
0,675333	0,5	0,002750
0,683667	0,5	-0,013250
0,692000	0,5	-0,007400
0,700333	0,5	0,005350
0,708667	0,5	0,056950
0,717000	0,5	0,040250
0,725333	0,5	0,028400
0,733667	0,5	0,027000
0,742000	0,5	0,020750
0,750333	0,5	0,022100
0,758667	0,5	0,026000
0,767000	0,5	0,029150
0,775333	0,5	0,019000
0,783667	0,5	0,023100
0,792000	0,5	0,016600
0,800333	0,5	0,031350
0,808667	0,5	0,020950
0,817000	0,5	0,061700
0,825333	0,5	0,024450
0,833667	0,5	0,021550
0,842000	0,5	0,017050
0,850333	0,5	0,042900
0,858667	0,5	0,084300
0,867000	0,5	0,064250
0,875333	0,5	0,052750
0,883667	0,5	0,058100
0,892000	0,5	0,056250
0,900333	0,5	0,059550
0,908667	0,5	0,063650
0,917000	0,5	0,059950
0,925333	0,5	0,062150
0,933667	0,5	0,059600
0,942000	0,5	0,076300
0,950333	0,5	0,046150
0,958667	0,5	0,063900
0,967000	0,5	0,072100
0,975333	0,5	0,061750
0,983667	0,5	0,059150
0,992000	0,5	0,071450
1,000333	0,5	0,100100
1,008667	0,5	0,139600
1,017000	0,5	0,110950
1,025333	0,5	0,111850
1,033667	0,5	0,102250
1,042000	0,5	0,109100
1,050333	0,5	0,104900
1,058667	0,5	0,114700
1,067000	0,5	0,110200
1,075333	0,5	0,102050
1,083667	0,5	0,118000
1,092000	0,5	0,103900
1,100333	0,5	0,102350
1,108667	0,5	0,128350
1,117000	0,5	0,116150
1,125333	0,5	0,108400
1,133667	0,5	0,110550
1,142000	0,5	0,127350
1,150333	0,5	0,166000
1,158667	0,5	0,179800
1,167000	0,5	0,182000
1,175333	0,5	0,174200
1,183667	0,5	0,185900
1,192000	0,5	0,173250
1,200333	0,5	0,181700
1,208667	0,5	0,185650
1,217000	0,5	0,191050
1,225333	0,5	0,189750
1,233667	0,5	0,201850
1,242000	0,5	0,195750
1,250333	0,5	0,196400
1,258667	0,5	0,213500
1,267000	0,5	0,203050
1,275333	0,5	0,199700
1,283667	0,5	0,210950
1,292000	0,5	0,241900
1,300333	0,5	0,273050
1,308667	0,5	0,296000
1,317000	0,5	0,278050
1,325333	0,5	0,289200
1,333667	0,5	0,290350
1,342000	0,5	0,292450
1,350333	0,5	0,290500
1,358667	0,5	0,304350
1,367000	0,5	0,297100
1,375333	0,5	0,313600
1,383667	0,5	0,315550
1,392000	0,5	0,315200
1,400333	0,5	0,325700
1,408667	0,5	0,356600
1,417000	0,5	0,332450
1,425333	0,5	0,342750
1,433667	0,5	0,341700
1,442000	0,5	0,380000
1,450333	0,5	0,406350
1,458667	0,5	0,404850
1,467000	0,5	0,418400
1,475333	0,5	0,412150
1,483667	0,5	0,420900
1,492000	0,5	0,415850
1,500333	0,5	0,439950
1,508667	0,5	0,433900
1,517000	0,5	0,440750
1,525333	0,5	0,448000
1,533667	0,5	0,447050
1,542000	0,5	0,438200
1,550333	0,5	0,475450
1,558667	0,5	0,451450
1,567000	0,5	0,399300
1,575333	0,5	0,153150
1,583667	0,5	-0,560250
1,592000	0,5	-1,570100
1,600333	0,5	-1,676100
1,608667	0,5	0,058450
1,617000	0,5	2,816550
1,625333	0,5	6,190750
1,633667	0,5	10,633950
1,642000	0,5	15,070450
1,650333	0,5	17,330450
1,658667	0,5	16,938650
1,667000	0,5	15,240700
1,675333	0,5	13,419700
1,683667	0,5	11,815850
1,692000	0,5	10,495950
1,700333	0,5	9,511750
1,708667	0,5	8,982850
1,717000	0,5	9,392700
1,725333	0,5	10,923150
1,733667	0,5	12,356700
1,742000	0,5	12,156350
1,750333	0,5	10,392600
1,758667	0,5	8,429400
1,767000	0,5	6,996700
1,775333	0,5	6,142500
1,783667	0,5	5,728700
1,792000	0,5	5,642600
1,800333	0,5	5,683700
1,808667	0,5	5,620950
1,817000	0,5	5,396200
1,825333	0,5	5,091050
1,833667	0,5	4,783700
1,842000	0,5	4,462900
1,850333	0,5	4,179600
1,858667	0,5	3,854650
1,867000	0,5	3,584000
1,875333	0,5	3,366200
1,883667	0,5	3,202750
1,892000	0,5	3,072650
1,900333	0,5	2,921400
1,908667	0,5	2,774000
1,917000	0,5	2,652550
1,925333	0,5	2,540150
1,933667	0,5	2,498550
1,942000	0,5	2,554850
1,950333	0,5	2,703250
1,958667	0,5	2,798050
1,967000	0,5	2,776400
1,975333	0,5	2,805200
1,983667	0,5	3,227700
1,992000	0,5	4,704550
2,000333	0,5	8,133750
2,008667	0,5	15,389100
2,017000	0,5	31,591150
2,025333	0,5	65,375251
2,033667	0,5	115,645902
2,042000	0,5	155,317152
2,050333	0,5	156,364152
2,058667	0,5	127,637152
2,067000	0,5	95,655701
2,075333	0,5	72,957351
2,083667	0,5	58,443151
2,092000	0,5	48,732851
2,100333	0,5	41,803051
2,108667	0,5	36,700051
2,117000	0,5	32,856200
2,125333	0,5	29,959250
2,133667	0,5	27,769950
2,142000	0,5	26,155200
2,150333	0,5	24,969650
2,158667	0,5	24,209250
2,167000	0,5	23,630250
2,175333	0,5	22,888200
2,183667	0,5	21,979750
2,192000	0,5	21,079550
2,200333	0,5	20,350200
2,208667	0,5	19,777900
2,217000	0,5	19,345300
2,225333	0,5	18,990950
2,233667	0,5	18,739850
2,242000	0,5	18,544100
2,250333	0,5	18,420200
2,258667	0,5	18,333650
2,267000	0,5	18,311900
2,275333	0,5	18,318400
2,283667	0,5	18,343100
2,292000	0,5	18,338600
2,300333	0,5	18,281750
2,308667	0,5	18,227050
2,317000	0,5	18,201800
2,325333	0,5	18,222750
2,333667	0,5	18,263600
2,342000	0,5	18,300150
2,350333	0,5	18,320550
2,358667	0,5	18,368000
2,367000	0,5	18,426250
2,375333	0,5	18,511400
2,383667	0,5	18,626350
2,392000	0,5	18,800500
2,400333	0,5	19,061500
2,408667	0,5	19,518650
2,417000	0,5	20,280150
2,425333	0,5	21,427700
2,433667	0,5	22,819700
2,442000	0,5	24,142250
2,450333	0,5	25,031800
2,458667	0,5	25,303200
2,467000	0,5	24,954300
2,475333	0,5	24,363550
2,483667	0,5	23,835650
2,492000	0,5	23,412950
2,500333	0,5	23,033100
2,508667	0,5	22,650400
2,517000	0,5	22,260250
2,525333	0,5	21,868600
2,533667	0,5	21,498800
2,542000	0,5	21,130350
2,550333	0,5	20,795000
2,558667	0,5	20,474800
2,567000	0,5	20,192600
2,575333	0,5	19,927300
2,583667	0,5	19,751550
2,592000	0,5	19,581750
2,600333	0,5	19,492200
2,608667	0,5	19,533900
2,617000	0,5	19,793900
2,625333	0,5	20,303100
2,633667	0,5	20,906600
2,642000	0,5	21,381900
2,650333	0,5	21,536550
2,658667	0,5	21,323750
2,667000	0,5	20,935100
2,675333	0,5	20,670300
2,683667	0,5	20,993150
2,692000	0,5	22,573800
2,700333	0,5	26,202850
2,708667	0,5	32,488250
2,717000	0,5	41,630001
2,725333	0,5	54,316551
2,733667	0,5	73,429851
2,742000	0,5	107,799152
2,750333	0,5	176,779203
2,758667	0,5	301,221804
2,767000	0,5	465,273157
2,775333	0,5	605,387759
2,783667	0,5	669,254860
2,792000	0,5	653,776510
2,800333	0,5	584,992959
2,808667	0,5	493,362007
2,817000	0,5	402,436806
2,825333	0,5	325,412405
2,833667	0,5	265,535304
2,842000	0,5	220,058853
2,850333	0,5	184,735453
2,858667	0,5	156,456152
2,867000	0,5	133,517952
2,875333	0,5	115,009002
2,883667	0,5	100,029951
2,892000	0,5	87,628501
2,900333	0,5	77,136851
2,908667	0,5	68,095101
2,917000	0,5	60,307151
2,925333	0,5	53,657351
2,933667	0,5	48,011301
2,942000	0,5	43,258651
2,950333	0,5	39,278451
2,958667	0,5	35,885151
2,967000	0,5	32,987450
2,975333	0,5	30,483850
2,983667	0,5	28,313050
2,992000	0,5	26,392300
3,000333	0,5	24,705600
3,008667	0,5	23,215800
3,017000	0,5	21,847600
3,025333	0,5	20,649700
3,033667	0,5	19,556250
3,042000	0,5	18,543500
3,050333	0,5	17,631350
3,058667	0,5	16,809850
3,067000	0,5	16,069050
3,075333	0,5	15,371400
3,083667	0,5	14,689300
3,092000	0,5	14,074950
3,100333	0,5	13,499550
3,108667	0,5	12,967400
3,117000	0,5	12,454150
3,125333	0,5	11,985650
3,133667	0,5	11,531000
3,142000	0,5	11,113850
3,150333	0,5	10,724500
3,158667	0,5	10,373150
3,167000	0,5	10,030600
3,175333	0,5	9,749950
3,183667	0,5	9,464050
3,192000	0,5	9,218900
3,200333	0,5	9,016200
3,208667	0,5	8,880900
3,217000	0,5	8,822950
3,225333	0,5	8,836750
3,233667	0,5	8,953900
3,242000	0,5	9,148150
3,250333	0,5	9,341150
3,258667	0,5	9,418950
3,267000	0,5	9,300550
3,275333	0,5	8,972600
3,283667	0,5	8,509650
3,292000	0,5	7,987650
3,300333	0,5	7,509800
3,308667	0,5	7,086700
3,317000	0,5	6,749050
3,325333	0,5	6,473200
3,333667	0,5	6,229700
3,342000	0,5	6,038300
3,350333	0,5	5,878350
3,358667	0,5	5,761350
3,367000	0,5	5,660900
3,375333	0,5	5,546850
3,383667	0,5	5,436700
3,392000	0,5	5,335550
3,400333	0,5	5,227700
3,408667	0,5	5,137500
3,417000	0,5	5,039050
3,425333	0,5	4,945800
3,433667	0,5	4,853000
3,442000	0,5	4,768950
3,450333	0,5	4,674800
3,458667	0,5	4,596150
3,467000	0,5	4,529150
3,475333	0,5	4,467750
3,483667	0,5	4,390650
3,492000	0,5	4,346850
3,500333	0,5	4,313400
3,508667	0,5	4,326550
3,517000	0,5	4,314750
3,525333	0,5	4,305800
3,533667	0,5	4,295150
3,542000	0,5	4,296350
3,550333	0,5	4,288550
3,558667	0,5	4,282400
3,567000	0,5	4,260600
3,575333	0,5	4,228550
3,583667	0,5	4,192800
3,592000	0,5	4,141150
3,600333	0,5	4,092600
3,608667	0,5	4,034250
3,617000	0,5	4,007150
3,625333	0,5	3,925850
3,633667	0,5	3,851500
3,642000	0,5	3,784700
3,650333	0,5	3,731250
3,658667	0,5	3,682000
3,667000	0,5	3,613950
3,675333	0,5	3,528200
3,683667	0,5	3,458850
3,692000	0,5	3,377550
3,700333	0,5	3,310500
3,708667	0,5	3,243750
3,717000	0,5	3,186300
3,725333	0,5	3,119850
3,733667	0,5	3,067500
3,742000	0,5	3,025700
3,750333	0,5	2,966900
3,758667	0,5	2,938300
3,767000	0,5	2,924550
3,775333	0,5	2,901500
3,783667	0,5	2,884700
3,792000	0,5	2,905800
3,800333	0,5	2,945950
3,808667	0,5	3,004700
3,817000	0,5	3,019550
3,825333	0,5	3,045950
3,833667	0,5	3,058200
3,842000	0,5	3,058900
3,850333	0,5	3,041250
3,858667	0,5	3,023350
3,867000	0,5	3,001650
3,875333	0,5	2,964700
3,883667	0,5	2,931600
3,892000	0,5	2,903250
3,900333	0,5	2,855150
3,908667	0,5	2,840550
3,917000	0,5	2,805650
3,925333	0,5	2,753750
3,933667	0,5	2,708400
3,942000	0,5	2,664550
3,950333	0,5	2,643100
3,958667	0,5	2,606850
3,967000	0,5	2,556350
3,975333	0,5	2,500450
3,983667	0,5	2,474050
3,992000	0,5	2,421600
4,000333	0,5	2,391550
4,008667	0,5	2,358700
4,017000	0,5	2,332350
4,025333	0,5	2,305950
4,033667	0,5	2,286950
4,042000	0,5	2,273900
4,050333	0,5	2,239550
4,058667	0,5	2,227150
4,067000	0,5	2,193300
4,075333	0,5	2,153000
4,083667	0,5	2,123250
4,092000	0,5	2,099350
4,100333	0,5	2,101650
4,108667	0,5	2,074600
4,117000	0,5	2,044250
4,125333	0,5	2,021750
4,133667	0,5	1,996950
4,142000	0,5	1,982750
4,150333	0,5	1,970200
4,158667	0,5	1,967100
4,167000	0,5	1,956600
4,175333	0,5	1,957150
4,183667	0,5	1,951900
4,192000	0,5	1,950550
4,200333	0,5	1,937950
4,208667	0,5	1,958600
4,217000	0,5	1,940950
4,225333	0,5	1,949550
4,233667	0,5	1,962000
4,242000	0,5	2,005700
4,250333	0,5	2,071500
4,258667	0,5	2,127650
4,267000	0,5	2,222000
4,275333	0,5	2,340200
4,283667	0,5	2,493050
4,292000	0,5	2,686750
4,300333	0,5	2,912350
4,308667	0,5	3,190900
4,317000	0,5	3,514300
4,325333	0,5	3,896400
4,333667	0,5	4,366250
4,342000	0,5	4,952300
4,350333	0,5	5,763000
4,358667	0,5	6,857150
4,367000	0,5	8,323750
4,375333	0,5	10,273950
4,383667	0,5	12,774100
4,392000	0,5	15,777950
4,400333	0,5	19,115300
4,408667	0,5	22,468550
4,417000	0,5	25,493200
4,425333	0,5	27,814200
4,433667	0,5	29,147200
4,442000	0,5	29,351200
4,450333	0,5	28,480900
4,458667	0,5	26,697250
4,467000	0,5	24,292450
4,475333	0,5	21,560800
4,483667	0,5	18,742650
4,492000	0,5	16,067350
4,500333	0,5	13,682300
4,508667	0,5	11,614900
4,517000	0,5	9,877050
4,525333	0,5	8,479550
4,533667	0,5	7,353500
4,542000	0,5	6,485900
4,550333	0,5	5,781550
4,558667	0,5	5,219600
4,567000	0,5	4,759900
4,575333	0,5	4,404650
4,583667	0,5	4,099000
4,592000	0,5	3,856050
4,600333	0,5	3,641600
4,608667	0,5	3,446100
4,617000	0,5	3,283650
4,625333	0,5	3,139350
4,633667	0,5	3,008250
4,642000	0,5	2,890200
4,650333	0,5	2,808250
4,658667	0,5	2,715600
4,667000	0,5	2,649100
4,675333	0,5	2,599450
4,683667	0,5	2,576000
4,692000	0,5	2,570800
4,700333	0,5	2,541800
4,708667	0,5	2,491700
4,717000	0,5	2,460800
4,725333	0,5	2,410150
4,733667	0,5	2,353050
4,742000	0,5	2,281850
4,750333	0,5	2,219500
4,758667	0,5	2,152750
4,767000	0,5	2,103250
4,775333	0,5	2,050300
4,783667	0,5	1,993100
4,792000	0,5	1,962550
4,800333	0,5	1,942800
4,808667	0,5	1,901400
4,817000	0,5	1,872900
4,825333	0,5	1,868950
4,833667	0,5	1,872300
4,842000	0,5	1,877900
4,850333	0,5	1,854500
4,858667	0,5	1,855900
4,867000	0,5	1,855250
4,875333	0,5	1,860000
4,883667	0,5	1,861050
4,892000	0,5	1,871100
4,900333	0,5	1,874750
4,908667	0,5	1,887950
4,917000	0,5	1,898600
4,925333	0,5	1,913200
4,933667	0,5	1,911700
4,942000	0,5	1,948500
4,950333	0,5	1,957400
4,958667	0,5	1,974900
4,967000	0,5	1,989950
4,975333	0,5	2,013600
4,983667	0,5	2,053200
4,992000	0,5	2,068200
5,000333	0,5	2,072700
5,008667	0,5	2,075050
5,017000	0,5	2,084200
5,025333	0,5	2,076700
5,033667	0,5	2,079450
5,042000	0,5	2,071900
5,050333	0,5	2,064450
5,058667	0,5	2,054400
5,067000	0,5	2,050800
5,075333	0,5	2,035050
5,083667	0,5	2,019450
5,092000	0,5	2,024900
5,100333	0,5	2,010600
5,108667	0,5	2,004900
5,117000	0,5	2,009200
5,125333	0,5	2,020500
5,133667	0,5	2,066750
5,142000	0,5	2,074000
5,150333	0,5	2,078700
5,158667	0,5	2,087450
5,167000	0,5	2,094750
5,175333	0,5	2,092750
5,183667	0,5	2,086650
5,192000	0,5	2,075500
5,200333	0,5	2,053200
5,208667	0,5	2,036700
5,217000	0,5	2,012000
5,225333	0,5	1,996700
5,233667	0,5	1,977800
5,242000	0,5	1,981650
5,250333	0,5	1,942850
5,258667	0,5	1,931950
5,267000	0,5	1,914100
5,275333	0,5	1,924250
5,283667	0,5	1,933500
5,292000	0,5	1,930800
5,300333	0,5	1,920650
5,308667	0,5	1,923500
5,317000	0,5	1,921350
5,325333	0,5	1,922950
5,333667	0,5	1,930800
5,342000	0,5	1,940200
5,350333	0,5	1,936700
5,358667	0,5	1,940450
5,367000	0,5	1,946250
5,375333	0,5	1,936050
5,383667	0,5	1,943900
5,392000	0,5	1,951500
5,400333	0,5	1,946100
5,408667	0,5	1,958300
5,417000	0,5	1,975500
5,425333	0,5	2,007250
5,433667	0,5	2,046100
5,442000	0,5	2,059300
5,450333	0,5	2,079200
5,458667	0,5	2,090450
5,467000	0,5	2,099350
5,475333	0,5	2,107900
5,483667	0,5	2,114600
5,492000	0,5	2,114100
5,500333	0,5	2,096300
5,508667	0,5	2,082950
5,517000	0,5	2,047650
5,525333	0,5	2,007250
5,533667	0,5	1,988800
5,542000	0,5	1,964650
5,550333	0,5	1,929050
5,558667	0,5	1,907550
5,567000	0,5	1,898250
5,575333	0,5	1,899250
5,583667	0,5	1,884950
5,592000	0,5	1,869900
5,600333	0,5	1,846400
5,608667	0,5	1,846400
5,617000	0,5	1,819750
5,625333	0,5	1,814350
5,633667	0,5	1,792800
5,642000	0,5	1,788750
5,650333	0,5	1,778000
5,658667	0,5	1,763850
5,667000	0,5	1,742600
5,675333	0,5	1,736200
5,683667	0,5	1,739400
5,692000	0,5	1,722950
5,700333	0,5	1,708500
5,708667	0,5	1,702400
5,717000	0,5	1,706800
5,725333	0,5	1,715550
5,733667	0,5	1,707050
5,742000	0,5	1,698050
5,750333	0,5	1,693500
5,758667	0,5	1,684400
5,767000	0,5	1,674650
5,775333	0,5	1,658100
5,783667	0,5	1,657200
5,792000	0,5	1,642700
5,800333	0,5	1,645450
5,808667	0,5	1,638000
5,817000	0,5	1,623850
5,825333	0,5	1,629000
5,833667	0,5	1,625050
5,842000	0,5	1,617700
5,850333	0,5	1,603600
5,858667	0,5	1,594450
5,867000	0,5	1,606300
5,875333	0,5	1,602850
5,883667	0,5	1,580250
5,892000	0,5	1,570350
5,900333	0,5	1,562850
5,908667	0,5	1,557550
5,917000	0,5	1,558300
5,925333	0,5	1,562750
5,933667	0,5	1,568200
5,942000	0,5	1,577000
5,950333	0,5	1,598750
5,958667	0,5	1,620000
5,967000	0,5	1,639000
5,975333	0,5	1,690550
5,983667	0,5	1,718650
5,992000	0,5	1,749750
6,000333	0,5	1,766600
6,008667	0,5	1,794800
6,017000	0,5	1,816150
6,025333	0,5	1,801650
6,033667	0,5	1,772350
6,042000	0,5	1,738450
6,050333	0,5	1,708500
6,058667	0,5	1,670500
6,067000	0,5	1,636650
6,075333	0,5	1,611950
6,083667	0,5	1,596150
6,092000	0,5	1,586600
6,100333	0,5	1,589700
6,108667	0,5	1,580150
6,117000	0,5	1,591500
6,125333	0,5	1,622900
6,133667	0,5	1,630450
6,142000	0,5	1,635900
6,150333	0,5	1,642100
6,158667	0,5	1,637450
6,167000	0,5	1,628400
6,175333	0,5	1,592900
6,183667	0,5	1,547600
6,192000	0,5	1,498600
6,200333	0,5	1,456000
6,208667	0,5	1,418450
6,217000	0,5	1,386300
6,225333	0,5	1,362850
6,233667	0,5	1,339200
6,242000	0,5	1,328050
6,250333	0,5	1,322850
6,258667	0,5	1,303100
6,267000	0,5	1,297650
6,275333	0,5	1,300300
6,283667	0,5	1,283200
6,292000	0,5	1,280500
6,300333	0,5	1,274850
6,308667	0,5	1,287250
6,317000	0,5	1,299450
6,325333	0,5	1,300150
6,333667	0,5	1,292050
6,342000	0,5	1,297600
6,350333	0,5	1,304450
6,358667	0,5	1,312900
6,367000	0,5	1,311800
6,375333	0,5	1,317800
6,383667	0,5	1,314750
6,392000	0,5	1,322200
6,400333	0,5	1,321950
6,408667	0,5	1,318800
6,417000	0,5	1,326150
6,425333	0,5	1,317900
6,433667	0,5	1,305900
6,442000	0,5	1,296950
6,450333	0,5	1,301550
6,458667	0,5	1,314550
6,467000	0,5	1,331400
6,475333	0,5	1,319800
6,483667	0,5	1,324650
6,492000	0,5	1,323300
6,500333	0,5	1,326450
6,508667	0,5	1,332900
6,517000	0,5	1,341950
6,525333	0,5	1,350800
6,533667	0,5	1,367100
6,542000	0,5	1,385100
6,550333	0,5	1,397950
6,558667	0,5	1,418200
6,567000	0,5	1,447550
6,575333	0,5	1,468150
6,583667	0,5	1,479400
6,592000	0,5	1,501050
6,600333	0,5	1,514800
6,608667	0,5	1,537850
6,617000	0,5	1,545150
6,625333	0,5	1,550550
6,633667	0,5	1,541200
6,642000	0,5	1,548850
6,650333	0,5	1,548150
6,658667	0,5	1,564400
6,667000	0,5	1,570900
6,675333	0,5	1,575550
6,683667	0,5	1,588950
6,692000	0,5	1,599100
6,700333	0,5	1,605050
6,708667	0,5	1,621000
6,717000	0,5	1,632550
6,725333	0,5	1,644350
6,733667	0,5	1,647500
6,742000	0,5	1,661950
6,750333	0,5	1,679850
6,758667	0,5	1,701700
6,767000	0,5	1,707600
6,775333	0,5	1,709400
6,783667	0,5	1,710350
6,792000	0,5	1,699800
6,800333	0,5	1,696950
6,808667	0,5	1,692650
6,817000	0,5	1,696850
6,825333	0,5	1,693950
6,833667	0,5	1,711400
6,842000	0,5	1,727350
6,850333	0,5	1,742350
6,858667	0,5	1,773700
6,867000	0,5	1,802200
6,875333	0,5	1,809050
6,883667	0,5	1,823700
6,892000	0,5	1,844650
6,900333	0,5	1,870650
6,908667	0,5	1,876600
6,917000	0,5	1,868150
6,925333	0,5	1,863850
6,933667	0,5	1,867550
6,942000	0,5	1,877600
6,950333	0,5	1,879350
6,958667	0,5	1,899350
6,967000	0,5	1,914400
6,975333	0,5	1,936300
6,983667	0,5	1,950750
6,992000	0,5	1,976000
7,000333	0,5	1,984950
7,008667	0,5	2,016550
7,017000	0,5	2,017650
7,025333	0,5	2,027250
7,033667	0,5	2,024450
7,042000	0,5	2,025000
7,050333	0,5	2,028650
7,058667	0,5	2,018100
7,067000	0,5	1,992000
7,075333	0,5	1,978150
7,083667	0,5	1,958250
7,092000	0,5	1,942200
7,100333	0,5	1,934300
7,108667	0,5	1,927100
7,117000	0,5	1,923250
7,125333	0,5	1,934800
7,133667	0,5	1,949450
7,142000	0,5	1,963150
7,150333	0,5	1,983700
7,158667	0,5	2,018550
7,167000	0,5	2,035150
7,175333	0,5	2,049550
7,183667	0,5	2,061100
7,192000	0,5	2,079200
7,200333	0,5	2,107050
7,208667	0,5	2,107350
7,217000	0,5	2,118300
7,225333	0,5	2,113800
7,233667	0,5	2,116100
7,242000	0,5	2,118300
7,250333	0,5	2,126000
7,258667	0,5	2,135600
7,267000	0,5	2,155200
7,275333	0,5	2,182750
7,283667	0,5	2,207200
7,292000	0,5	2,239800
7,300333	0,5	2,271050
7,308667	0,5	2,310550
7,317000	0,5	2,342800
7,325333	0,5	2,393000
7,333667	0,5	2,465950
7,342000	0,5	2,585950
7,350333	0,5	2,720350
7,358667	0,5	2,875150
7,367000	0,5	3,027050
7,375333	0,5	3,164700
7,383667	0,5	3,253050
7,392000	0,5	3,308550
7,400333	0,5	3,335200
7,408667	0,5	3,348000
7,417000	0,5	3,349600
7,425333	0,5	3,354750
7,433667	0,5	3,345450
7,442000	0,5	3,307550
7,450333	0,5	3,247400
7,458667	0,5	3,149800
7,467000	0,5	3,033350
7,475333	0,5	2,909500
7,483667	0,5	2,787850
7,492000	0,5	2,682200
7,500333	0,5	2,599550
7,508667	0,5	2,533500
7,517000	0,5	2,520000
7,525333	0,5	2,546150
7,533667	0,5	2,622500
7,542000	0,5	2,710450
7,550333	0,5	2,794050
7,558667	0,5	2,835550
7,567000	0,5	2,839850
7,575333	0,5	2,803000
7,583667	0,5	2,746450
7,592000	0,5	2,698750
7,600333	0,5	2,708150
7,608667	0,5	2,763500
7,617000	0,5	2,892000
7,625333	0,5	3,099850
7,633667	0,5	3,368250
7,642000	0,5	3,640800
7,650333	0,5	3,837350
7,658667	0,5	3,922650
7,667000	0,5	3,855100
7,675333	0,5	3,661550
7,683667	0,5	3,386300
7,692000	0,5	3,091000
7,700333	0,5	2,826300
7,708667	0,5	2,616100
7,717000	0,5	2,461300
7,725333	0,5	2,351650
7,733667	0,5	2,276950
7,742000	0,5	2,237900
7,750333	0,5	2,215700
7,758667	0,5	2,203850
7,767000	0,5	2,206300
7,775333	0,5	2,220950
7,783667	0,5	2,237700
7,792000	0,5	2,247750
7,800333	0,5	2,238000
7,808667	0,5	2,215600
7,817000	0,5	2,184300
7,825333	0,5	2,158850
7,833667	0,5	2,131250
7,842000	0,5	2,110400
7,850333	0,5	2,097050
7,858667	0,5	2,089100
7,867000	0,5	2,090400
7,875333	0,5	2,103650
7,883667	0,5	2,116450
7,892000	0,5	2,149750
7,900333	0,5	2,187700
7,908667	0,5	2,218150
7,917000	0,5	2,231300
7,925333	0,5	2,232450
7,933667	0,5	2,227600
7,942000	0,5	2,197400
7,950333	0,5	2,159000
7,958667	0,5	2,123300
7,967000	0,5	2,096850
7,975333	0,5	2,080950
7,983667	0,5	2,077700
7,992000	0,5	2,077400
8,000333	0,5	2,079350
8,008667	0,5	2,086450
8,017000	0,5	2,100800
8,025333	0,5	2,122450
8,033667	0,5	2,149250
8,042000	0,5	2,202750
8,050333	0,5	2,258350
8,058667	0,5	2,316550
8,067000	0,5	2,367750
8,075333	0,5	2,403650
8,083667	0,5	2,422400
8,092000	0,5	2,411050
8,100333	0,5	2,375450
8,108667	0,5	2,344750
8,117000	0,5	2,312300
8,125333	0,5	2,286700
8,133667	0,5	2,269050
8,142000	0,5	2,257900
8,150333	0,5	2,252650
8,158667	0,5	2,266350
8,167000	0,5	2,290150
8,175333	0,5	2,338000
8,183667	0,5	2,416850
8,192000	0,5	2,530350
8,200333	0,5	2,651650
8,208667	0,5	2,753200
8,217000	0,5	2,803850
8,225333	0,5	2,767300
8,233667	0,5	2,658100
8,242000	0,5	2,501350
8,250333	0,5	2,352800
8,258667	0,5	2,229850
8,267000	0,5	2,144200
8,275333	0,5	2,084650
8,283667	0,5	2,052650
8,292000	0,5	2,032650
8,300333	0,5	2,030700
8,308667	0,5	2,033350
8,317000	0,5	2,034950
8,325333	0,5	2,027450
8,333667	0,5	2,006150
8,342000	0,5	1,978800
8,350333	0,5	1,936050
8,358667	0,5	1,898300
8,367000	0,5	1,864900
8,375333	0,5	1,851250
8,383667	0,5	1,844050
8,392000	0,5	1,850400
8,400333	0,5	1,843850
8,408667	0,5	1,853450
8,417000	0,5	1,856450
8,425333	0,5	1,857200
8,433667	0,5	1,846350
8,442000	0,5	1,833050
8,450333	0,5	1,811950
8,458667	0,5	1,800000
8,467000	0,5	1,783950
8,475333	0,5	1,775900
8,483667	0,5	1,774500
8,492000	0,5	1,776000
8,500333	0,5	1,771450
8,508667	0,5	1,774250
8,517000	0,5	1,767950
8,525333	0,5	1,766750
8,533667	0,5	1,762100
8,542000	0,5	1,750550
8,550333	0,5	1,743100
8,558667	0,5	1,732000
8,567000	0,5	1,729550
8,575333	0,5	1,724750
8,583667	0,5	1,729500
8,592000	0,5	1,732500
8,600333	0,5	1,745200
8,608667	0,5	1,751850
8,617000	0,5	1,762650
8,625333	0,5	1,780950
8,633667	0,5	1,803300
8,642000	0,5	1,820950
8,650333	0,5	1,846450
8,658667	0,5	1,868300
8,667000	0,5	1,902300
8,675333	0,5	1,936400
8,683667	0,5	1,971600
8,692000	0,5	1,987250
8,700333	0,5	2,006250
8,708667	0,5	2,001600
8,717000	0,5	1,994850
8,725333	0,5	1,982150
8,733667	0,5	1,967850
8,742000	0,5	1,948900
8,750333	0,5	1,944800
8,758667	0,5	1,936000
8,767000	0,5	1,932250
8,775333	0,5	1,928650
8,783667	0,5	1,924550
8,792000	0,5	1,925900
8,800333	0,5	1,923000
8,808667	0,5	1,938900
8,817000	0,5	1,968600
8,825333	0,5	2,006850
8,833667	0,5	2,038000
8,842000	0,5	2,070400
8,850333	0,5	2,100650
8,858667	0,5	2,135950
8,867000	0,5	2,177000
8,875333	0,5	2,233200
8,883667	0,5	2,300950
8,892000	0,5	2,388100
8,900333	0,5	2,510000
8,908667	0,5	2,683950
8,917000	0,5	2,928100
8,925333	0,5	3,234300
8,933667	0,5	3,563850
8,942000	0,5	3,865350
8,950333	0,5	4,062100
8,958667	0,5	4,109450
8,967000	0,5	3,998850
8,975333	0,5	3,746200
8,983667	0,5	3,404300
8,992000	0,5	3,048250
9,000333	0,5	2,724500
9,008667	0,5	2,462850
9,017000	0,5	2,269150
9,025333	0,5	2,128150
9,033667	0,5	2,042250
9,042000	0,5	1,976150
9,050333	0,5	1,937050
9,058667	0,5	1,918050
9,067000	0,5	1,906550
9,075333	0,5	1,915350
9,083667	0,5	1,927500
9,092000	0,5	1,944600
9,100333	0,5	1,961050
9,108667	0,5	1,967250
9,117000	0,5	1,971400
9,125333	0,5	1,963800
9,133667	0,5	1,954650
9,142000	0,5	1,945600
9,150333	0,5	1,952000
9,158667	0,5	1,955500
9,167000	0,5	1,958200
9,175333	0,5	1,963750
9,183667	0,5	1,963600
9,192000	0,5	1,950650
9,200333	0,5	1,942550
9,208667	0,5	1,932350
9,217000	0,5	1,912900
9,225333	0,5	1,897150
9,233667	0,5	1,884400
9,242000	0,5	1,864250
9,250333	0,5	1,846750
9,258667	0,5	1,829800
9,267000	0,5	1,814800
9,275333	0,5	1,796350
9,283667	0,5	1,771600
9,292000	0,5	1,754000
9,300333	0,5	1,730600
9,308667	0,5	1,720250
9,317000	0,5	1,701750
9,325333	0,5	1,686800
9,333667	0,5	1,675400
9,342000	0,5	1,663800
9,350333	0,5	1,653250
9,358667	0,5	1,642950
9,367000	0,5	1,635750
9,375333	0,5	1,629800
9,383667	0,5	1,618850
9,392000	0,5	1,607300
9,400333	0,5	1,598700
9,408667	0,5	1,595850
9,417000	0,5	1,594900
9,425333	0,5	1,583600
9,433667	0,5	1,573250
9,442000	0,5	1,569900
9,450333	0,5	1,560450
9,458667	0,5	1,555550
9,467000	0,5	1,550850
9,475333	0,5	1,553400
9,483667	0,5	1,542700
9,492000	0,5	1,543800
9,500333	0,5	1,535850
9,508667	0,5	1,530400
9,517000	0,5	1,520950
9,525333	0,5	1,504500
9,533667	0,5	1,487900
9,542000	0,5	1,469250
9,550333	0,5	1,460350
9,558667	0,5	1,453250
9,567000	0,5	1,449750
9,575333	0,5	1,445250
9,583667	0,5	1,442450
9,592000	0,5	1,445850
9,600333	0,5	1,445650
9,608667	0,5	1,447050
9,617000	0,5	1,441450
9,625333	0,5	1,434000
9,633667	0,5	1,429600
9,642000	0,5	1,424150
9,650333	0,5	1,419800
9,658667	0,5	1,417100
9,667000	0,5	1,419350
9,675333	0,5	1,420000
9,683667	0,5	1,420750
9,692000	0,5	1,422150
9,700333	0,5	1,430000
9,708667	0,5	1,444450
9,717000	0,5	1,468950
9,725333	0,5	1,488000
9,733667	0,5	1,512750
9,742000	0,5	1,540250
9,750333	0,5	1,557500
9,758667	0,5	1,572450
9,767000	0,5	1,585600
9,775333	0,5	1,582500
9,783667	0,5	1,575450
9,792000	0,5	1,559150
9,800333	0,5	1,543650
9,808667	0,5	1,528700
9,817000	0,5	1,508250
9,825333	0,5	1,489150
9,833667	0,5	1,469200
9,842000	0,5	1,455050
9,850333	0,5	1,445200
9,858667	0,5	1,439450
9,867000	0,5	1,435900
9,875333	0,5	1,435600
9,883667	0,5	1,435950
9,892000	0,5	1,439600
9,900333	0,5	1,444850
9,908667	0,5	1,456000
9,917000	0,5	1,464300
9,925333	0,5	1,475250
9,933667	0,5	1,488450
9,942000	0,5	1,500900
9,950333	0,5	1,505800
9,958667	0,5	1,518100
9,967000	0,5	1,519600
9,975333	0,5	1,526300
9,983667	0,5	1,528100
9,992000	0,5	1,533600
10,000333	0,5	1,535200
10,008667	0,5	1,538200
10,017000	0,5	1,544300
10,025333	0,5	1,554250
10,033667	0,5	1,564950
10,042000	0,5	1,579500
10,050333	0,5	1,594700
10,058667	0,5	1,613150
10,067000	0,5	1,620200
10,075333	0,5	1,616650
10,083667	0,5	1,603600
10,092000	0,5	1,582350
10,100333	0,5	1,550200
10,108667	0,5	1,522250
10,117000	0,5	1,495400
10,125333	0,5	1,466700
10,133667	0,5	1,445200
10,142000	0,5	1,422950
10,150333	0,5	1,418450
10,158667	0,5	1,407650
10,167000	0,5	1,395600
10,175333	0,5	1,380550
10,183667	0,5	1,383600
10,192000	0,5	1,371200
10,200333	0,5	1,367650
10,208667	0,5	1,362350
10,217000	0,5	1,364250
10,225333	0,5	1,367650
10,233667	0,5	1,371200
10,242000	0,5	1,376000
10,250333	0,5	1,378850
10,258667	0,5	1,386650
10,267000	0,5	1,395250
10,275333	0,5	1,406350
10,283667	0,5	1,416000
10,292000	0,5	1,425500
10,300333	0,5	1,443800
10,308667	0,5	1,463250
10,317000	0,5	1,484650
10,325333	0,5	1,507100
10,333667	0,5	1,539800
10,342000	0,5	1,574450
10,350333	0,5	1,613250
10,358667	0,5	1,656300
10,367000	0,5	1,690750
10,375333	0,5	1,712750
10,383667	0,5	1,723000
10,392000	0,5	1,715500
10,400333	0,5	1,697050
10,408667	0,5	1,672450
10,417000	0,5	1,644450
10,425333	0,5	1,620500
10,433667	0,5	1,593450
10,442000	0,5	1,571350
10,450333	0,5	1,547700
10,458667	0,5	1,517300
10,467000	0,5	1,497400
10,475333	0,5	1,472500
10,483667	0,5	1,455750
10,492000	0,5	1,433250
10,500333	0,5	1,423250
10,508667	0,5	1,414850
10,517000	0,5	1,407000
10,525333	0,5	1,401100
10,533667	0,5	1,404700
10,542000	0,5	1,406300
10,550333	0,5	1,411150
10,558667	0,5	1,424200
10,567000	0,5	1,442850
10,575333	0,5	1,462950
10,583667	0,5	1,479900
10,592000	0,5	1,495250
10,600333	0,5	1,496850
10,608667	0,5	1,483600
10,617000	0,5	1,452050
10,625333	0,5	1,408550
10,633667	0,5	1,360350
10,642000	0,5	1,310000
10,650333	0,5	1,267850
10,658667	0,5	1,238400
10,667000	0,5	1,218050
10,675333	0,5	1,216600
10,683667	0,5	1,220400
10,692000	0,5	1,230050
10,700333	0,5	1,246600
10,708667	0,5	1,262800
10,717000	0,5	1,274050
10,725333	0,5	1,286350
10,733667	0,5	1,296600
10,742000	0,5	1,306150
10,750333	0,5	1,319900
10,758667	0,5	1,321200
10,767000	0,5	1,319550
10,775333	0,5	1,322350
10,783667	0,5	1,312750
10,792000	0,5	1,302950
10,800333	0,5	1,293100
10,808667	0,5	1,279400
10,817000	0,5	1,267550
10,825333	0,5	1,255200
10,833667	0,5	1,250000
10,842000	0,5	1,239700
10,850333	0,5	1,236450
10,858667	0,5	1,233300
10,867000	0,5	1,232550
10,875333	0,5	1,226850
10,883667	0,5	1,228800
10,892000	0,5	1,236550
10,900333	0,5	1,236850
10,908667	0,5	1,233850
10,917000	0,5	1,233400
10,925333	0,5	1,239550
10,933667	0,5	1,240350
10,942000	0,5	1,241350
10,950333	0,5	1,237700
10,958667	0,5	1,239900
10,967000	0,5	1,237100
10,975333	0,5	1,241200
10,983667	0,5	1,240000
10,992000	0,5	1,246100
11,000333	0,5	1,250500
11,008667	0,5	1,257350
11,017000	0,5	1,248600
11,025333	0,5	1,246700
11,033667	0,5	1,245000
11,042000	0,5	1,255950
11,050333	0,5	1,259350
11,058667	0,5	1,264750
11,067000	0,5	1,274600
11,075333	0,5	1,280000
11,083667	0,5	1,284450
11,092000	0,5	1,286950
11,100333	0,5	1,287300
11,108667	0,5	1,281100
11,117000	0,5	1,271200
11,125333	0,5	1,261900
11,133667	0,5	1,241900
11,142000	0,5	1,241500
11,150333	0,5	1,238550
11,158667	0,5	1,231800
11,167000	0,5	1,234250
11,175333	0,5	1,235500
11,183667	0,5	1,249100
11,192000	0,5	1,260450
11,200333	0,5	1,273600
11,208667	0,5	1,289800
11,217000	0,5	1,329000
11,225333	0,5	1,374250
11,233667	0,5	1,442500
11,242000	0,5	1,525350
11,250333	0,5	1,616450
11,258667	0,5	1,690100
11,267000	0,5	1,748150
11,275333	0,5	1,774050
11,283667	0,5	1,755700
11,292000	0,5	1,715800
11,300333	0,5	1,654800
11,308667	0,5	1,591100
11,317000	0,5	1,524450
11,325333	0,5	1,472600
11,333667	0,5	1,439000
11,342000	0,5	1,419600
11,350333	0,5	1,396850
11,358667	0,5	1,382950
11,367000	0,5	1,361150
11,375333	0,5	1,341600
11,383667	0,5	1,325500
11,392000	0,5	1,307600
11,400333	0,5	1,286950
11,408667	0,5	1,279200
11,417000	0,5	1,270250
11,425333	0,5	1,268300
11,433667	0,5	1,276800
11,442000	0,5	1,304650
11,450333	0,5	1,329100
11,458667	0,5	1,373600
11,467000	0,5	1,426250
11,475333	0,5	1,499050
11,483667	0,5	1,573150
11,492000	0,5	1,633550
11,500333	0,5	1,668600
11,508667	0,5	1,686500
11,517000	0,5	1,658750
11,525333	0,5	1,613900
11,533667	0,5	1,571150
11,542000	0,5	1,522950
11,550333	0,5	1,471800
11,558667	0,5	1,437600
11,567000	0,5	1,403500
11,575333	0,5	1,373000
11,583667	0,5	1,354600
11,592000	0,5	1,334050
11,600333	0,5	1,312000
11,608667	0,5	1,285850
11,617000	0,5	1,261600
11,625333	0,5	1,238500
11,633667	0,5	1,223650
11,642000	0,5	1,210200
11,650333	0,5	1,198850
11,658667	0,5	1,195450
11,667000	0,5	1,193300
11,675333	0,5	1,190900
11,683667	0,5	1,192900
11,692000	0,5	1,194400
11,700333	0,5	1,195300
11,708667	0,5	1,198500
11,717000	0,5	1,197950
11,725333	0,5	1,181100
11,733667	0,5	1,178400
11,742000	0,5	1,174450
11,750333	0,5	1,161850
11,758667	0,5	1,150550
11,767000	0,5	1,144650
11,775333	0,5	1,141450
11,783667	0,5	1,138850
11,792000	0,5	1,138900
11,800333	0,5	1,140750
11,808667	0,5	1,145650
11,817000	0,5	1,147850
11,825333	0,5	1,150650
11,833667	0,5	1,158000
11,842000	0,5	1,164000
11,850333	0,5	1,172250
11,858667	0,5	1,190900
11,867000	0,5	1,196450
11,875333	0,5	1,211100
11,883667	0,5	1,230850
11,892000	0,5	1,238850
11,900333	0,5	1,244950
11,908667	0,5	1,241550
11,917000	0,5	1,252150
11,925333	0,5	1,255900
11,933667	0,5	1,263100
11,942000	0,5	1,267700
11,950333	0,5	1,288950
11,958667	0,5	1,311000
11,967000	0,5	1,336250
11,975333	0,5	1,364050
11,983667	0,5	1,394700
11,992000	0,5	1,418500
12,000333	0,5	1,437850
12,008667	0,5	1,451800
12,017000	0,5	1,443200
12,025333	0,5	1,442650
12,033667	0,5	1,432000
12,042000	0,5	1,418800
12,050333	0,5	1,398250
12,058667	0,5	1,379650
12,067000	0,5	1,370000
12,075333	0,5	1,362650
12,083667	0,5	1,352550
12,092000	0,5	1,349950
12,100333	0,5	1,347250
12,108667	0,5	1,352100
12,117000	0,5	1,358650
12,125333	0,5	1,373850
12,133667	0,5	1,384200
12,142000	0,5	1,409050
12,150333	0,5	1,436850
12,158667	0,5	1,460900
12,167000	0,5	1,478850
12,175333	0,5	1,524800
12,183667	0,5	1,573350
12,192000	0,5	1,640400
12,200333	0,5	1,722350
12,208667	0,5	1,809200
12,217000	0,5	1,913650
12,225333	0,5	2,002150
12,233667	0,5	2,075900
12,242000	0,5	2,122700
12,250333	0,5	2,156650
12,258667	0,5	2,168150
12,267000	0,5	2,166400
12,275333	0,5	2,141800
12,283667	0,5	2,106850
12,292000	0,5	2,055100
12,300333	0,5	1,997850
12,308667	0,5	1,940900
12,317000	0,5	1,889400
12,325333	0,5	1,859700
12,333667	0,5	1,837250
12,342000	0,5	1,822050
12,350333	0,5	1,806600
12,358667	0,5	1,788650
12,367000	0,5	1,776400
12,375333	0,5	1,754900
12,383667	0,5	1,720000
12,392000	0,5	1,701150
12,400333	0,5	1,678500
12,408667	0,5	1,660100
12,417000	0,5	1,647300
12,425333	0,5	1,635750
12,433667	0,5	1,612950
12,442000	0,5	1,584350
12,450333	0,5	1,563600
12,458667	0,5	1,525350
12,467000	0,5	1,482600
12,475333	0,5	1,443900
12,483667	0,5	1,399900
12,492000	0,5	1,358450
12,500333	0,5	1,311050
12,508667	0,5	1,271600
12,517000	0,5	1,243350
12,525333	0,5	1,222650
12,533667	0,5	1,194550
12,542000	0,5	1,172650
12,550333	0,5	1,156300
12,558667	0,5	1,139450
12,567000	0,5	1,132400
12,575333	0,5	1,119900
12,583667	0,5	1,108650
12,592000	0,5	1,099800
12,600333	0,5	1,089500
12,608667	0,5	1,068150
12,617000	0,5	1,066050
12,625333	0,5	1,059550
12,633667	0,5	1,049650
12,642000	0,5	1,033600
12,650333	0,5	1,026400
12,658667	0,5	1,024300
12,667000	0,5	1,024650
12,675333	0,5	1,026000
12,683667	0,5	1,032400
12,692000	0,5	1,036550
12,700333	0,5	1,042500
12,708667	0,5	1,049350
12,717000	0,5	1,054750
12,725333	0,5	1,056950
12,733667	0,5	1,050350
12,742000	0,5	1,048300
12,750333	0,5	1,031100
12,758667	0,5	1,021750
12,767000	0,5	1,004700
12,775333	0,5	0,992500
12,783667	0,5	0,986300
12,792000	0,5	0,986850
12,800333	0,5	1,001200
12,808667	0,5	1,041600
12,817000	0,5	1,089700
12,825333	0,5	1,153050
12,833667	0,5	1,189150
12,842000	0,5	1,189100
12,850333	0,5	1,154750
12,858667	0,5	1,099500
12,867000	0,5	1,027200
12,875333	0,5	0,937150
12,883667	0,5	0,857850
12,892000	0,5	0,779200
12,900333	0,5	0,713300
12,908667	0,5	0,650150
12,917000	0,5	0,547950
12,925333	0,5	0,405250
12,933667	0,5	0,168350
12,942000	0,5	-0,249250
12,950333	0,5	-0,652600
12,958667	0,5	-0,963500
12,967000	0,5	-1,226150
12,975333	0,5	-1,502350
12,983667	0,5	-1,702950
12,992000	0,5	-1,852050
13,000333	0,5	-1,958750
13,008667	0,5	-2,052550
13,017000	0,5	-2,127600
13,025333	0,5	-2,199150
13,033667	0,5	-2,258550
13,042000	0,5	-2,314250
13,050333	0,5	-2,373850
13,058667	0,5	-2,407900
13,067000	0,5	-2,442850
13,075333	0,5	-2,475100
13,083667	0,5	-2,510650
13,092000	0,5	-2,542750
13,100333	0,5	-2,561050
13,108667	0,5	-2,568850
13,117000	0,5	-2,589700
13,125333	0,5	-2,601800
13,133667	0,5	-2,605150
13,142000	0,5	-2,607100
13,150333	0,5	-2,610300
13,158667	0,5	-2,598350
13,167000	0,5	-2,590100
13,175333	0,5	-2,566700
13,183667	0,5	-2,537100
13,192000	0,5	-2,512800
13,200333	0,5	-2,484850
13,208667	0,5	-2,448400
13,217000	0,5	-2,419800
13,225333	0,5	-2,394950
13,233667	0,5	-2,381250
13,242000	0,5	-2,373550
13,250333	0,5	-2,358350
13,258667	0,5	-2,363850
13,267000	0,5	-2,369850
13,275333	0,5	-2,387750
13,283667	0,5	-2,406700
13,292000	0,5	-2,433600
13,300333	0,5	-2,452300
13,308667	0,5	-2,471050
13,317000	0,5	-2,485800
13,325333	0,5	-2,487650
13,333667	0,5	-2,481850
13,342000	0,5	-2,484100
13,350333	0,5	-2,470900
13,358667	0,5	-2,449550
13,367000	0,5	-2,426150
13,375333	0,5	-2,398500
13,383667	0,5	-2,379700
13,392000	0,5	-2,346050
13,400333	0,5	-2,308550
13,408667	0,5	-2,276550
13,417000	0,5	-2,245300
13,425333	0,5	-2,215650
13,433667	0,5	-2,195150
13,442000	0,5	-2,183150
13,450333	0,5	-2,184550
13,458667	0,5	-2,191000
13,467000	0,5	-2,209200
13,475333	0,5	-2,220900
13,483667	0,5	-2,238850
13,492000	0,5	-2,267450
13,500333	0,5	-2,283000
13,508667	0,5	-2,291900
13,517000	0,5	-2,300800
13,525333	0,5	-2,314350
13,533667	0,5	-2,329950
13,542000	0,5	-2,328400
13,550333	0,5	-2,327850
13,558667	0,5	-2,324950
13,567000	0,5	-2,311900
13,575333	0,5	-2,304650
13,583667	0,5	-2,295600
13,592000	0,5	-2,284900
13,600333	0,5	-2,272900
13,608667	0,5	-2,264600
13,617000	0,5	-2,247350
13,625333	0,5	-2,235450
13,633667	0,5	-2,222550
13,642000	0,5	-2,208850
13,650333	0,5	-2,185900
13,658667	0,5	-2,173650
13,667000	0,5	-2,151500
13,675333	0,5	-2,140000
13,683667	0,5	-2,116800
13,692000	0,5	-2,094400
13,700333	0,5	-2,062400
13,708667	0,5	-2,040100
13,717000	0,5	-2,012400
13,725333	0,5	-1,986050
13,733667	0,5	-1,968250
13,742000	0,5	-1,953150
13,750333	0,5	-1,943150
13,758667	0,5	-1,935200
13,767000	0,5	-1,918150
13,775333	0,5	-1,898300
13,783667	0,5	-1,890450
13,792000	0,5	-1,874000
13,800333	0,5	-1,851400
13,808667	0,5	-1,826700
13,817000	0,5	-1,806850
13,825333	0,5	-1,791700
13,833667	0,5	-1,760450
13,842000	0,5	-1,718400
13,850333	0,5	-1,687100
13,858667	0,5	-1,652550
13,867000	0,5	-1,626900
13,875333	0,5	-1,591300
13,883667	0,5	-1,558100
13,892000	0,5	-1,538750
13,900333	0,5	-1,517500
13,908667	0,5	-1,501550
13,917000	0,5	-1,476250
13,925333	0,5	-1,457650
13,933667	0,5	-1,456350
13,942000	0,5	-1,425800
13,950333	0,5	-1,400350
13,958667	0,5	-1,388050
13,967000	0,5	-1,359200
13,975333	0,5	-1,350350
13,983667	0,5	-1,309950
13,992000	0,5	-1,281450
14,000333	0,5	-1,246050
14,008667	0,5	-1,213050
14,017000	0,5	-1,168000
14,025333	0,5	-1,124000
14,033667	0,5	-1,061100
14,042000	0,5	-0,988750
14,050333	0,5	-0,904800
14,058667	0,5	-0,819250
14,067000	0,5	-0,717750
14,075333	0,5	-0,632850
14,083667	0,5	-0,558600
14,092000	0,5	-0,483200
14,100333	0,5	-0,430050
14,108667	0,5	-0,392900
14,117000	0,5	-0,378450
14,125333	0,5	-0,367600
14,133667	0,5	-0,362450
14,142000	0,5	-0,352700
14,150333	0,5	-0,358800
14,158667	0,5	-0,349500
14,167000	0,5	-0,323650
14,175333	0,5	-0,270750
14,183667	0,5	-0,203600
14,192000	0,5	-0,115450
14,200333	0,5	-0,029400
14,208667	0,5	0,047500
14,217000	0,5	0,120600
14,225333	0,5	0,154350
14,233667	0,5	0,177250
14,242000	0,5	0,180700
14,250333	0,5	0,164400
14,258667	0,5	0,129000
14,267000	0,5	0,091650
14,275333	0,5	0,077500
14,283667	0,5	0,079000
14,292000	0,5	0,067800
14,300333	0,5	0,065050
14,308667	0,5	0,063300
14,317000	0,5	0,064950
14,325333	0,5	0,057750
14,333667	0,5	0,065050
14,342000	0,5	0,062200
14,350333	0,5	0,061150
14,358667	0,5	0,065550
14,367000	0,5	0,073650
14,375333	0,5	0,062000
14,383667	0,5	0,083250
14,392000	0,5	0,082350
14,400333	0,5	0,089800
14,408667	0,5	0,083300
14,417000	0,5	0,075200
14,425333	0,5	0,092550
14,433667	0,5	0,110800
14,442000	0,5	0,129600
14,450333	0,5	0,147400
14,458667	0,5	0,171650
14,467000	0,5	0,174350
14,475333	0,5	0,187650
14,483667	0,5	0,184500
14,492000	0,5	0,178300
14,500333	0,5	0,159450
14,508667	0,5	0,144650
14,517000	0,5	0,129600
14,525333	0,5	0,109000
14,533667	0,5	0,105100
14,542000	0,5	0,090300
14,550333	0,5	0,078050
14,558667	0,5	0,064250
14,567000	0,5	0,038600
14,575333	0,5	0,038950
14,583667	0,5	0,047750
14,592000	0,5	0,052950
14,600333	0,5	0,049750
14,608667	0,5	0,050900
14,617000	0,5	0,055450
14,625333	0,5	0,055350
14,633667	0,5	0,064250
14,642000	0,5	0,080850
14,650333	0,5	0,113400
14,658667	0,5	0,171150
14,667000	0,5	0,242800
14,675333	0,5	0,352650
14,683667	0,5	0,483150
14,692000	0,5	0,586700
14,700333	0,5	0,644600
14,708667	0,5	0,649700
14,717000	0,5	0,610050
14,725333	0,5	0,555500
14,733667	0,5	0,481850
14,742000	0,5	0,421550
14,750333	0,5	0,389400
14,758667	0,5	0,394300
14,767000	0,5	0,433000
14,775333	0,5	0,498600
14,783667	0,5	0,567500
14,792000	0,5	0,616300
14,800333	0,5	0,631500
14,808667	0,5	0,603500
14,817000	0,5	0,527250
14,825333	0,5	0,465500
14,833667	0,5	0,392150
14,842000	0,5	0,327750
14,850333	0,5	0,264750
14,858667	0,5	0,208950
14,867000	0,5	0,180450
14,875333	0,5	0,158950
14,883667	0,5	0,144100
14,892000	0,5	0,141200
14,900333	0,5	0,138700
14,908667	0,5	0,141000
14,917000	0,5	0,148950
14,925333	0,5	0,161200
14,933667	0,5	0,173750
14,942000	0,5	0,178550
14,950333	0,5	0,190450
14,958667	0,5	0,174350
14,967000	0,5	0,161650
14,975333	0,5	0,152550
14,983667	0,5	0,144100
14,992000	0,5	0,133600
15,000333	0,5	0,117150
15,008667	0,5	0,105200
15,017000	0,5	0,100050
15,025333	0,5	0,080500
15,033667	0,5	0,061700
15,042000	0,5	0,039550
15,050333	0,5	0,021550
15,058667	0,5	-0,000150
15,067000	0,5	-0,008700
15,075333	0,5	-0,028700
15,083667	0,5	-0,043450
15,092000	0,5	-0,042800
15,100333	0,5	-0,050950
15,108667	0,5	-0,070900
15,117000	0,5	-0,071500
15,125333	0,5	-0,069450
15,133667	0,5	-0,071600
15,142000	0,5	-0,072600
15,150333	0,5	-0,078700
15,158667	0,5	-0,044150
15,167000	0,5	0,013900
15,175333	0,5	0,100800
15,183667	0,5	0,208750
15,192000	0,5	0,352500
15,200333	0,5	0,474350
15,208667	0,5	0,558900
15,217000	0,5	0,573000
15,225333	0,5	0,542100
15,233667	0,5	0,473350
15,242000	0,5	0,405900
15,250333	0,5	0,384100
15,258667	0,5	0,379200
15,267000	0,5	0,441300
15,275333	0,5	0,498600
15,283667	0,5	0,546600
15,292000	0,5	0,541550
15,300333	0,5	0,488700
15,308667	0,5	0,421950
15,317000	0,5	0,350700
15,325333	0,5	0,264050
15,333667	0,5	0,213950
15,342000	0,5	0,168850
15,350333	0,5	0,146300
15,358667	0,5	0,132800
15,367000	0,5	0,131350
15,375333	0,5	0,117450
15,383667	0,5	0,098400
15,392000	0,5	0,093700
15,400333	0,5	0,078800
15,408667	0,5	0,059850
15,417000	0,5	0,069450
15,425333	0,5	0,064650
15,433667	0,5	0,056800
15,442000	0,5	0,051000
15,450333	0,5	0,037450
15,458667	0,5	0,037000
15,467000	0,5	0,019050
15,475333	0,5	0,003850
15,483667	0,5	-0,030500
15,492000	0,5	-0,046500
15,500333	0,5	-0,081000
15,508667	0,5	-0,096550
15,517000	0,5	-0,123250
15,525333	0,5	-0,139550
15,533667	0,5	-0,150950
15,542000	0,5	-0,158950
15,550333	0,5	-0,183800
15,558667	0,5	-0,189850
15,567000	0,5	-0,191700
15,575333	0,5	-0,200550
15,583667	0,5	-0,215200
15,592000	0,5	-0,219700
15,600333	0,5	-0,215100
15,608667	0,5	-0,182000
15,617000	0,5	-0,117800
15,625333	0,5	-0,023550
15,633667	0,5	0,097350
15,642000	0,5	0,233350
15,650333	0,5	0,358400
15,658667	0,5	0,437850
15,667000	0,5	0,460000
15,675333	0,5	0,434150
15,683667	0,5	0,395000
15,692000	0,5	0,360550
15,700333	0,5	0,358500
15,708667	0,5	0,388900
15,717000	0,5	0,429050
15,725333	0,5	0,443250
15,733667	0,5	0,404950
15,742000	0,5	0,334500
15,750333	0,5	0,254250
15,758667	0,5	0,180300
15,767000	0,5	0,097200
15,775333	0,5	0,033450
15,783667	0,5	-0,026550
15,792000	0,5	-0,064150
15,800333	0,5	-0,087400
15,808667	0,5	-0,092400
15,817000	0,5	-0,104850
15,825333	0,5	-0,097750
15,833667	0,5	-0,085000
15,842000	0,5	-0,081850
15,850333	0,5	-0,084200
15,858667	0,5	-0,069000
15,867000	0,5	-0,081500
15,875333	0,5	-0,095650
15,883667	0,5	-0,146650
15,892000	0,5	-0,175900
15,900333	0,5	-0,192500
15,908667	0,5	-0,214750
15,917000	0,5	-0,240050
15,925333	0,5	-0,257950
15,933667	0,5	-0,278500
15,942000	0,5	-0,292600
15,950333	0,5	-0,306300
15,958667	0,5	-0,315050
15,967000	0,5	-0,321750
15,975333	0,5	-0,324150
15,983667	0,5	-0,324150
15,992000	0,5	-0,346250
16,000333	0,5	-0,331850
16,008667	0,5	-0,305600
16,017000	0,5	-0,264800
16,025333	0,5	-0,194800
16,033667	0,5	-0,101800
16,042000	0,5	0,044300
16,050333	0,5	0,196100
16,058667	0,5	0,301650
16,067000	0,5	0,357500
16,075333	0,5	0,373900
16,083667	0,5	0,356200
16,092000	0,5	0,347800
16,100333	0,5	0,365450
16,108667	0,5	0,384550
16,117000	0,5	0,375400
16,125333	0,5	0,347300
16,133667	0,5	0,276800
16,142000	0,5	0,169300
16,150333	0,5	0,093300
16,158667	0,5	0,025850
16,167000	0,5	-0,041350
16,175333	0,5	-0,081700
16,183667	0,5	-0,123000
16,192000	0,5	-0,126600
16,200333	0,5	-0,130500
16,208667	0,5	-0,122700
16,217000	0,5	-0,120550
16,225333	0,5	-0,122350
16,233667	0,5	-0,125300
16,242000	0,5	-0,128350
16,250333	0,5	-0,141650
16,258667	0,5	-0,160750
16,267000	0,5	-0,186750
16,275333	0,5	-0,204600
16,283667	0,5	-0,235600
16,292000	0,5	-0,273250
16,300333	0,5	-0,283400
16,308667	0,5	-0,313550
16,317000	0,5	-0,347150
16,325333	0,5	-0,384450
16,333667	0,5	-0,406700
16,342000	0,5	-0,414600
16,350333	0,5	-0,421400
16,358667	0,5	-0,434550
16,367000	0,5	-0,422950
16,375333	0,5	-0,401700
16,383667	0,5	-0,353950
16,392000	0,5	-0,273900
16,400333	0,5	-0,145150
16,408667	0,5	-0,002400
16,417000	0,5	0,135250
16,425333	0,5	0,243350
16,433667	0,5	0,282750
16,442000	0,5	0,300050
16,450333	0,5	0,295900
16,458667	0,5	0,283950
16,467000	0,5	0,257700
16,475333	0,5	0,216750
16,483667	0,5	0,163650
16,492000	0,5	0,109500
16,500333	0,5	0,034350
16,508667	0,5	-0,021550
16,517000	0,5	-0,062700
16,525333	0,5	-0,078050
16,533667	0,5	-0,075500
16,542000	0,5	-0,056550
16,550333	0,5	-0,038400
16,558667	0,5	-0,020500
16,567000	0,5	0,005750
16,575333	0,5	0,018750
16,583667	0,5	0,009300
16,592000	0,5	0,011600
16,600333	0,5	-0,013000
16,608667	0,5	-0,023850
16,617000	0,5	-0,056850
16,625333	0,5	-0,092400
16,633667	0,5	-0,096550
16,642000	0,5	-0,106300
16,650333	0,5	-0,112400
16,658667	0,5	-0,121800
16,667000	0,5	-0,122800
16,675333	0,5	-0,144050
16,683667	0,5	-0,161200
16,692000	0,5	-0,185050
16,700333	0,5	-0,196200
16,708667	0,5	-0,194600
16,717000	0,5	-0,152000
16,725333	0,5	-0,090050
16,733667	0,5	0,010350
16,742000	0,5	0,119150
16,750333	0,5	0,206850
16,758667	0,5	0,257250
16,767000	0,5	0,258650
16,775333	0,5	0,244400
16,783667	0,5	0,228450
16,792000	0,5	0,207100
16,800333	0,5	0,155750
16,808667	0,5	0,112500
16,817000	0,5	0,040750
16,825333	0,5	-0,033650
16,833667	0,5	-0,099250
16,842000	0,5	-0,141700
16,850333	0,5	-0,181150
16,858667	0,5	-0,199350
16,867000	0,5	-0,216550
16,875333	0,5	-0,231150
16,883667	0,5	-0,239600
16,892000	0,5	-0,239200
16,900333	0,5	-0,259700
16,908667	0,5	-0,275800
16,917000	0,5	-0,305600
16,925333	0,5	-0,321900
16,933667	0,5	-0,328550
16,942000	0,5	-0,343300
16,950333	0,5	-0,357550
16,958667	0,5	-0,368450
16,967000	0,5	-0,379550
16,975333	0,5	-0,388450
16,983667	0,5	-0,378300
16,992000	0,5	-0,376800
17,000333	0,5	-0,350700
17,008667	0,5	-0,296250
17,017000	0,5	-0,212400
17,025333	0,5	-0,120750
17,033667	0,5	0,029850
17,042000	0,5	0,184950
17,050333	0,5	0,331250
17,058667	0,5	0,445900
17,067000	0,5	0,570900
17,075333	0,5	0,720050
17,083667	0,5	0,874600
17,092000	0,5	1,030750
17,100333	0,5	1,189000
17,108667	0,5	1,341100
17,117000	0,5	1,486800
17,125333	0,5	1,622550
17,133667	0,5	1,752550
17,142000	0,5	1,864200
17,150333	0,5	1,951900
17,158667	0,5	2,046050
17,167000	0,5	2,088950
17,175333	0,5	2,136300
17,183667	0,5	2,165350
17,192000	0,5	2,149300
17,200333	0,5	2,071950
17,208667	0,5	1,947400
17,217000	0,5	1,807700
17,225333	0,5	1,645200
17,233667	0,5	1,453150
17,242000	0,5	1,259550
17,250333	0,5	1,077950
17,258667	0,5	0,917450
17,267000	0,5	0,774900
17,275333	0,5	0,681300
17,283667	0,5	0,621500
17,292000	0,5	0,593350
17,300333	0,5	0,621750
17,308667	0,5	0,671600
17,317000	0,5	0,720800
17,325333	0,5	0,780850
17,333667	0,5	0,811900
17,342000	0,5	0,799200
17,350333	0,5	0,764800
17,358667	0,5	0,684950
17,367000	0,5	0,633100
17,375333	0,5	0,572100
17,383667	0,5	0,513650
17,392000	0,5	0,466300
17,400333	0,5	0,454200
17,408667	0,5	0,444650
17,417000	0,5	0,458750
17,425333	0,5	0,483650
17,433667	0,5	0,500000
17,442000	0,5	0,512500
17,450333	0,5	0,514500
17,458667	0,5	0,512950
17,467000	0,5	0,485800
17,475333	0,5	0,474600
17,483667	0,5	0,430950
17,492000	0,5	0,382000
17,500333	0,5	0,312350
17,508667	0,5	0,219400
17,517000	0,5	0,164650
17,525333	0,5	0,124350
17,533667	0,5	0,085350
17,542000	0,5	0,081950
17,550333	0,5	0,095300
17,558667	0,5	0,130800
17,567000	0,5	0,159000
17,575333	0,5	0,186750
17,583667	0,5	0,181400
17,592000	0,5	0,157000
17,600333	0,5	0,126050
17,608667	0,5	0,054800
17,617000	0,5	-0,009650
17,625333	0,5	-0,063050
17,633667	0,5	-0,125050
17,642000	0,5	-0,182300
17,650333	0,5	-0,240050
17,658667	0,5	-0,287700
17,667000	0,5	-0,299950
17,675333	0,5	-0,331200
17,683667	0,5	-0,349200
17,692000	0,5	-0,365250
17,700333	0,5	-0,391950
17,708667	0,5	-0,413200
17,717000	0,5	-0,427450
17,725333	0,5	-0,437300
17,733667	0,5	-0,443950
17,742000	0,5	-0,431350
17,750333	0,5	-0,417950
17,758667	0,5	-0,419450
17,767000	0,5	-0,372300
17,775333	0,5	-0,313250
17,783667	0,5	-0,258450
17,792000	0,5	-0,209400
17,800333	0,5	-0,188900
17,808667	0,5	-0,170100
17,817000	0,5	-0,168000
17,825333	0,5	-0,172900
17,833667	0,5	-0,217800
17,842000	0,5	-0,253350
17,850333	0,5	-0,302450
17,858667	0,5	-0,329050
17,867000	0,5	-0,359200
17,875333	0,5	-0,388000
17,883667	0,5	-0,408800
17,892000	0,5	-0,425150
17,900333	0,5	-0,446750
17,908667	0,5	-0,465350
17,917000	0,5	-0,474750
17,925333	0,5	-0,480050
17,933667	0,5	-0,479150
17,942000	0,5	-0,506700
17,950333	0,5	-0,501050
17,958667	0,5	-0,490200
17,967000	0,5	-0,446450
17,975333	0,5	-0,411050
17,983667	0,5	-0,348200
17,992000	0,5	-0,293650
18,000333	0,5	-0,241100
18,008667	0,5	-0,213250
18,017000	0,5	-0,212600
18,025333	0,5	-0,234000
18,033667	0,5	-0,252950
18,042000	0,5	-0,284050
18,050333	0,5	-0,332100
18,058667	0,5	-0,356400
18,067000	0,5	-0,376850
18,075333	0,5	-0,402300
18,083667	0,5	-0,424300
18,092000	0,5	-0,462400
18,100333	0,5	-0,478550
18,108667	0,5	-0,467000
18,117000	0,5	-0,483450
18,125333	0,5	-0,488250
18,133667	0,5	-0,495450
18,142000	0,5	-0,478550
18,150333	0,5	-0,463550
18,158667	0,5	-0,426450
18,167000	0,5	-0,392000
18,175333	0,5	-0,339750
18,183667	0,5	-0,287050
18,192000	0,5	-0,250950
18,200333	0,5	-0,269950
18,208667	0,5	-0,267800
18,217000	0,5	-0,297600
18,225333	0,5	-0,346500
18,233667	0,5	-0,397550
18,242000	0,5	-0,447900
18,250333	0,5	-0,453950
18,258667	0,5	-0,471300
18,267000	0,5	-0,491850
18,275333	0,5	-0,512000
18,283667	0,5	-0,524850
18,292000	0,5	-0,538600
18,300333	0,5	-0,537850
18,308667	0,5	-0,549250
18,317000	0,5	-0,556550
18,325333	0,5	-0,549400
18,333667	0,5	-0,517500
18,342000	0,5	-0,506250
18,350333	0,5	-0,476650
18,358667	0,5	-0,441950
18,367000	0,5	-0,424250
18,375333	0,5	-0,444000
18,383667	0,5	-0,477050
18,392000	0,5	-0,515250
18,400333	0,5	-0,535900
18,408667	0,5	-0,557150
18,417000	0,5	-0,586600
18,425333	0,5	-0,601200
18,433667	0,5	-0,615300
18,442000	0,5	-0,629350
18,450333	0,5	-0,643700
18,458667	0,5	-0,649750
18,467000	0,5	-0,661750
18,475333	0,5	-0,665750
18,483667	0,5	-0,662000
18,492000	0,5	-0,671500
18,500333	0,5	-0,661400
18,508667	0,5	-0,646400
18,517000	0,5	-0,640050
18,525333	0,5	-0,640000
18,533667	0,5	-0,658550
18,542000	0,5	-0,643750
18,550333	0,5	-0,650350
18,558667	0,5	-0,665800
18,567000	0,5	-0,687550
18,575333	0,5	-0,708750
18,583667	0,5	-0,735350
18,592000	0,5	-0,753150
18,600333	0,5	-0,754500
18,608667	0,5	-0,771750
18,617000	0,5	-0,779100
18,625333	0,5	-0,805900
18,633667	0,5	-0,797000
18,642000	0,5	-0,822350
18,650333	0,5	-0,799600
18,658667	0,5	-0,785350
18,667000	0,5	-0,758850
18,675333	0,5	-0,753550
18,683667	0,5	-0,744700
18,692000	0,5	-0,727200
18,700333	0,5	-0,715700
18,708667	0,5	-0,730600
18,717000	0,5	-0,730700
18,725333	0,5	-0,734100
18,733667	0,5	-0,735450
18,742000	0,5	-0,725300
18,750333	0,5	-0,726850
18,758667	0,5	-0,721550
18,767000	0,5	-0,720550
18,775333	0,5	-0,700900
18,783667	0,5	-0,702750
18,792000	0,5	-0,691900
18,800333	0,5	-0,667700
18,808667	0,5	-0,657050
18,817000	0,5	-0,662100
18,825333	0,5	-0,694950
18,833667	0,5	-0,725400
18,842000	0,5	-0,742550
18,850333	0,5	-0,770250
18,858667	0,5	-0,795350
18,867000	0,5	-0,832000
18,875333	0,5	-0,847200
18,883667	0,5	-0,882550
18,892000	0,5	-0,879600
18,900333	0,5	-0,886200
18,908667	0,5	-0,884550
18,917000	0,5	-0,867500
18,925333	0,5	-0,869000
18,933667	0,5	-0,872800
18,942000	0,5	-0,860500
18,950333	0,5	-0,861100
18,958667	0,5	-0,883450
18,967000	0,5	-0,910600
18,975333	0,5	-0,960000
18,983667	0,5	-0,981600
18,992000	0,5	-0,996700
19,000333	0,5	-1,000000
19,008667	0,5	-1,007900
19,017000	0,5	-1,006750
19,025333	0,5	-1,006650
19,033667	0,5	-1,002750
19,042000	0,5	-0,988850
19,050333	0,5	-0,984900
19,058667	0,5	-0,983400
19,067000	0,5	-0,982250
19,075333	0,5	-1,006300
19,083667	0,5	-1,005800
19,092000	0,5	-1,004300
19,100333	0,5	-1,017600
19,108667	0,5	-1,031100
19,117000	0,5	-1,069300
19,125333	0,5	-1,082700
19,133667	0,5	-1,092550
19,142000	0,5	-1,087450
19,150333	0,5	-1,094600
19,158667	0,5	-1,094650
19,167000	0,5	-1,106000
19,175333	0,5	-1,119550
19,183667	0,5	-1,131850
19,192000	0,5	-1,143850
19,200333	0,5	-1,163600
19,208667	0,5	-1,186900
19,217000	0,5	-1,191000
19,225333	0,5	-1,224100
19,233667	0,5	-1,212150
19,242000	0,5	-1,208300
19,250333	0,5	-1,206650
19,258667	0,5	-1,213650
19,267000	0,5	-1,244950
19,275333	0,5	-1,252500
19,283667	0,5	-1,255450
19,292000	0,5	-1,265950
19,300333	0,5	-1,263550
19,308667	0,5	-1,280900
19,317000	0,5	-1,278250
19,325333	0,5	-1,285600
19,333667	0,5	-1,286050
19,342000	0,5	-1,292150
19,350333	0,5	-1,306100
19,358667	0,5	-1,310350
19,367000	0,5	-1,320150
19,375333	0,5	-1,342550
19,383667	0,5	-1,331550
19,392000	0,5	-1,334750
19,400333	0,5	-1,349750
19,408667	0,5	-1,372950
19,417000	0,5	-1,406800
19,425333	0,5	-1,383750
19,433667	0,5	-1,398650
19,442000	0,5	-1,400000
19,450333	0,5	-1,401750
19,458667	0,5	-1,397900
19,467000	0,5	-1,409600
19,475333	0,5	-1,412500
19,483667	0,5	-1,415350
19,492000	0,5	-1,416050
19,500333	0,5	-1,418400
19,508667	0,5	-1,416350
19,517000	0,5	-1,431350
19,525333	0,5	-1,439650
19,533667	0,5	-1,445050
19,542000	0,5	-1,468250
19,550333	0,5	-1,483100
19,558667	0,5	-1,509850
19,567000	0,5	-1,520700
19,575333	0,5	-1,518800
19,583667	0,5	-1,525450
19,592000	0,5	-1,542500
19,600333	0,5	-1,550400
19,608667	0,5	-1,555600
19,617000	0,5	-1,562050
19,625333	0,5	-1,563550
19,633667	0,5	-1,564600
19,642000	0,5	-1,589250
19,650333	0,5	-1,594900
19,658667	0,5	-1,597150
19,667000	0,5	-1,606100
19,675333	0,5	-1,599000
19,683667	0,5	-1,601650
19,692000	0,5	-1,607500
19,700333	0,5	-1,631950
19,708667	0,5	-1,659550
19,717000	0,5	-1,681500
19,725333	0,5	-1,681200
19,733667	0,5	-1,697150
19,742000	0,5	-1,712400
19,750333	0,5	-1,719850
19,758667	0,5	-1,725900
19,767000	0,5	-1,749750
19,775333	0,5	-1,755200
19,783667	0,5	-1,774200
19,792000	0,5	-1,798150
19,800333	0,5	-1,797250
19,808667	0,5	-1,812600
19,817000	0,5	-1,826500
19,825333	0,5	-1,827750
19,833667	0,5	-1,845900
19,842000	0,5	-1,873550
19,850333	0,5	-1,906100
19,858667	0,5	-1,919750
19,867000	0,5	-1,914850
19,875333	0,5	-1,927500
19,883667	0,5	-1,936550
19,892000	0,5	-1,940000
19,900333	0,5	-1,942450
19,908667	0,5	-1,964150
19,917000	0,5	-1,963200
19,925333	0,5	-1,977700
19,933667	0,5	-1,980700
19,942000	0,5	-1,986000
19,950333	0,5	-1,972800
19,958667	0,5	-2,000850
19,967000	0,5	-1,993800
19,975333	0,5	-2,002600
19,983667	0,5	-2,011100
19,992000	0,5	-2,034550
20,000333	0,5	-2,076200
20,008667	0,5	-2,091950
20,017000	0,5	-2,104600
20,025333	0,5	-2,117150
20,033667	0,5	-2,132950
20,042000	0,5	-2,146200
20,050333	0,5	-2,165700
20,058667	0,5	-2,181050
20,067000	0,5	-2,194450
20,075333	0,5	-2,199150
20,083667	0,5	-2,224100
20,092000	0,5	-2,214350
20,100333	0,5	-2,234100
20,108667	0,5	-2,245500
20,117000	0,5	-2,250150
20,125333	0,5	-2,261400
20,133667	0,5	-2,284300
20,142000	0,5	-2,312700
20,150333	0,5	-2,336150
20,158667	0,5	-2,334750
20,167000	0,5	-2,343000
20,175333	0,5	-2,350400
20,183667	0,5	-2,351300
20,192000	0,5	-2,358900
20,200333	0,5	-2,361200
20,208667	0,5	-2,367100
20,217000	0,5	-2,378600
20,225333	0,5	-2,396400
20,233667	0,5	-2,400850
20,242000	0,5	-2,400300
20,250333	0,5	-2,430950
20,258667	0,5	-2,447350
20,267000	0,5	-2,454300
20,275333	0,5	-2,460350
20,283667	0,5	-2,485750
20,292000	0,5	-2,533200
20,300333	0,5	-2,530400
20,308667	0,5	-2,542000
20,317000	0,5	-2,549650
20,325333	0,5	-2,574150
20,333667	0,5	-2,584200
20,342000	0,5	-2,610450
20,350333	0,5	-2,643200
20,358667	0,5	-2,660400
20,367000	0,5	-2,677750
20,375333	0,5	-2,692550
20,383667	0,5	-2,708450
20,392000	0,5	-2,713400
20,400333	0,5	-2,765700
20,408667	0,5	-2,770000
20,417000	0,5	-2,791150
20,425333	0,5	-2,813000
20,433667	0,5	-2,849350
20,442000	0,5	-2,889550
20,450333	0,5	-2,913000
20,458667	0,5	-2,931300
20,467000	0,5	-2,944500
20,475333	0,5	-2,964250
20,483667	0,5	-2,984700
20,492000	0,5	-3,016100
20,500333	0,5	-3,035050
20,508667	0,5	-3,058600
20,517000	0,5	-3,070850
20,525333	0,5	-3,084500
20,533667	0,5	-3,059500
20,542000	0,5	-3,060500
20,550333	0,5	-3,082400
20,558667	0,5	-3,097500
20,567000	0,5	-3,123450
20,575333	0,5	-3,186200
20,583667	0,5	-3,237050
20,592000	0,5	-3,306100
20,600333	0,5	-3,336150
20,608667	0,5	-3,381700
20,617000	0,5	-3,415550
20,625333	0,5	-3,458900
20,633667	0,5	-3,478850
20,642000	0,5	-3,531650
20,650333	0,5	-3,558050
20,658667	0,5	-3,600800
20,667000	0,5	-3,629700
20,675333	0,5	-3,642850
20,683667	0,5	-3,652050
20,692000	0,5	-3,671350
20,700333	0,5	-3,680400
20,708667	0,5	-3,674200
20,717000	0,5	-3,669000
20,725333	0,5	-3,674750
20,733667	0,5	-3,723450
20,742000	0,5	-3,754800
20,750333	0,5	-3,788700
20,758667	0,5	-3,854550
20,767000	0,5	-3,927300
20,775333	0,5	-3,982950
20,783667	0,5	-4,049600
20,792000	0,5	-4,102900
20,800333	0,5	-4,141200
20,808667	0,5	-4,188950
20,817000	0,5	-4,226900
20,825333	0,5	-4,249350
20,833667	0,5	-4,272200
20,842000	0,5	-4,318400
20,850333	0,5	-4,352950
20,858667	0,5	-4,408500
20,867000	0,5	-4,446850
20,875333	0,5	-4,511000
20,883667	0,5	-4,549450
20,892000	0,5	-4,565100
20,900333	0,5	-4,577650
20,908667	0,5	-4,612750
20,917000	0,5	-4,651550
20,925333	0,5	-4,688250
20,933667	0,5	-4,736550
20,942000	0,5	-4,779500
20,950333	0,5	-4,817750
20,958667	0,5	-4,852550
20,967000	0,5	-4,895550
20,975333	0,5	-4,901350
20,983667	0,5	-4,936900
20,992000	0,5	-4,966300
21,000333	0,5	-4,999850
21,008667	0,5	-5,042900
21,017000	0,5	-5,091800
21,025333	0,5	-5,142950
21,033667	0,5	-5,183800
21,042000	0,5	-5,207250
21,050333	0,5	-5,243250
21,058667	0,5	-5,269650
21,067000	0,5	-5,310200
21,075333	0,5	-5,333050
21,083667	0,5	-5,364850
21,092000	0,5	-5,387150
21,100333	0,5	-5,419800
21,108667	0,5	-5,458600
21,117000	0,5	-5,452600
21,125333	0,5	-5,467000
21,133667	0,5	-5,500900
21,142000	0,5	-5,534000
21,150333	0,5	-5,563250
21,158667	0,5	-5,611200
21,167000	0,5	-5,668100
21,175333	0,5	-5,714100
21,183667	0,5	-5,730700
21,192000	0,5	-5,751950
21,200333	0,5	-5,769800
21,208667	0,5	-5,794550
21,217000	0,5	-5,809950
21,225333	0,5	-5,831600
21,233667	0,5	-5,850350
21,242000	0,5	-5,862250
21,250333	0,5	-5,890950
21,258667	0,5	-5,890650
21,267000	0,5	-5,873450
21,275333	0,5	-5,864850
21,283667	0,5	-5,872300
21,292000	0,5	-5,876050
21,300333	0,5	-5,898750
21,308667	0,5	-5,926150
21,317000	0,5	-5,987650
21,325333	0,5	-6,016100
21,333667	0,5	-6,035050
21,342000	0,5	-6,064350
21,350333	0,5	-6,098100
21,358667	0,5	-6,116400
21,367000	0,5	-6,144900
21,375333	0,5	-6,179200
21,383667	0,5	-6,191050
21,392000	0,5	-6,210300
21,400333	0,5	-6,220200
21,408667	0,5	-6,213650
21,417000	0,5	-6,206000
21,425333	0,5	-6,226050
21,433667	0,5	-6,235150
21,442000	0,5	-6,263000
21,450333	0,5	-6,295300
21,458667	0,5	-6,339150
21,467000	0,5	-6,379900
21,475333	0,5	-6,398150
21,483667	0,5	-6,408350
21,492000	0,5	-6,425000
21,500333	0,5	-6,441950
21,508667	0,5	-6,462400
21,517000	0,5	-6,477550
21,525333	0,5	-6,498300
21,533667	0,5	-6,517050
21,542000	0,5	-6,531350
21,550333	0,5	-6,550600
21,558667	0,5	-6,530500
21,567000	0,5	-6,525950
21,575333	0,5	-6,557850
21,583667	0,5	-6,574850
21,592000	0,5	-6,588650
21,600333	0,5	-6,625050
21,608667	0,5	-6,652650
21,617000	0,5	-6,669650
21,625333	0,5	-6,663750
21,633667	0,5	-6,672750
21,642000	0,5	-6,667350
21,650333	0,5	-6,676950
21,658667	0,5	-6,670300
21,667000	0,5	-6,663700
21,675333	0,5	-6,664600
21,683667	0,5	-6,687050
21,692000	0,5	-6,710900
21,700333	0,5	-6,697700
21,708667	0,5	-6,713000
21,717000	0,5	-6,728900
21,725333	0,5	-6,753550
21,733667	0,5	-6,760450
21,742000	0,5	-6,789750
21,750333	0,5	-6,821850
21,758667	0,5	-6,859050
21,767000	0,5	-6,877600
21,775333	0,5	-6,884200
21,783667	0,5	-6,899350
21,792000	0,5	-6,904200
21,800333	0,5	-6,905700
21,808667	0,5	-6,904750
21,817000	0,5	-6,909700
21,825333	0,5	-6,909550
21,833667	0,5	-6,916350
21,842000	0,5	-6,895050
21,850333	0,5	-6,862200
21,858667	0,5	-6,864850
21,867000	0,5	-6,857400
21,875333	0,5	-6,856450
21,883667	0,5	-6,869200
21,892000	0,5	-6,874950
21,900333	0,5	-6,894650
21,908667	0,5	-6,887850
21,917000	0,5	-6,850050
21,925333	0,5	-6,806800
21,933667	0,5	-6,754900
21,942000	0,5	-6,724500
21,950333	0,5	-6,699850
21,958667	0,5	-6,707150
21,967000	0,5	-6,744850
21,975333	0,5	-6,788250
21,983667	0,5	-6,833050
21,992000	0,5	-6,854500
22,000333	0,5	-6,875800
22,008667	0,5	-6,928100
22,017000	0,5	-6,956000
22,025333	0,5	-6,969950
22,033667	0,5	-7,021000
22,042000	0,5	-7,065600
22,050333	0,5	-7,097650
22,058667	0,5	-7,121450
22,067000	0,5	-7,145350
22,075333	0,5	-7,165050
22,083667	0,5	-7,196850
22,092000	0,5	-7,221950
22,100333	0,5	-7,244700
22,108667	0,5	-7,254050
22,117000	0,5	-7,278700
22,125333	0,5	-7,308200
22,133667	0,5	-7,312650
22,142000	0,5	-7,340900
22,150333	0,5	-7,381450
22,158667	0,5	-7,367100
22,167000	0,5	-7,388850
22,175333	0,5	-7,398900
22,183667	0,5	-7,423200
22,192000	0,5	-7,460250
22,200333	0,5	-7,474600
22,208667	0,5	-7,476550
22,217000	0,5	-7,482700
22,225333	0,5	-7,473850
22,233667	0,5	-7,496700
22,242000	0,5	-7,504850
22,250333	0,5	-7,505650
22,258667	0,5	-7,505600
22,267000	0,5	-7,502400
22,275333	0,5	-7,491400
22,283667	0,5	-7,495500
22,292000	0,5	-7,528200
22,300333	0,5	-7,519650
22,308667	0,5	-7,496900
22,317000	0,5	-7,464250
22,325333	0,5	-7,489550
22,333667	0,5	-7,471600
22,342000	0,5	-7,482650
22,350333	0,5	-7,421050
22,358667	0,5	-7,384850
22,367000	0,5	-7,304050
22,375333	0,5	-7,243650
22,383667	0,5	-7,205900
22,392000	0,5	-7,230450
22,400333	0,5	-7,261400
22,408667	0,5	-7,326800
22,417000	0,5	-7,371900
22,425333	0,5	-7,415400
22,433667	0,5	-7,481700
22,442000	0,5	-7,501400
22,450333	0,5	-7,505400
22,458667	0,5	-7,495650
22,467000	0,5	-7,514950
22,475333	0,5	-7,529750
22,483667	0,5	-7,562700
22,492000	0,5	-7,578050
22,500333	0,5	-7,549950
22,508667	0,5	-7,546050
22,517000	0,5	-7,540550
22,525333	0,5	-7,534350
22,533667	0,5	-7,523600
22,542000	0,5	-7,509350
22,550333	0,5	-7,492650
22,558667	0,5	-7,470300
22,567000	0,5	-7,441550
22,575333	0,5	-7,461350
22,583667	0,5	-7,441050
22,592000	0,5	-7,430200
22,600333	0,5	-7,382100
22,608667	0,5	-7,373250
22,617000	0,5	-7,356600
22,625333	0,5	-7,367800
22,633667	0,5	-7,384050
22,642000	0,5	-7,376550
22,650333	0,5	-7,357800
22,658667	0,5	-7,358050
22,667000	0,5	-7,354500
22,675333	0,5	-7,362250
22,683667	0,5	-7,359400
22,692000	0,5	-7,374500
22,700333	0,5	-7,367900
22,708667	0,5	-7,363250
22,717000	0,5	-7,383450
22,725333	0,5	-7,442250
22,733667	0,5	-7,441750
22,742000	0,5	-7,411650
22,750333	0,5	-7,406150
22,758667	0,5	-7,408000
22,767000	0,5	-7,419400
22,775333	0,5	-7,450150
22,783667	0,5	-7,463700
22,792000	0,5	-7,467550
22,800333	0,5	-7,469350
22,808667	0,5	-7,476800
22,817000	0,5	-7,488500
22,825333	0,5	-7,507950
22,833667	0,5	-7,526350
22,842000	0,5	-7,543000
22,850333	0,5	-7,556450
22,858667	0,5	-7,585850
22,867000	0,5	-7,639050
22,875333	0,5	-7,719350
22,883667	0,5	-7,709900
22,892000	0,5	-7,724750
22,900333	0,5	-7,744950
22,908667	0,5	-7,775950
22,917000	0,5	-7,798250
22,925333	0,5	-7,832450
22,933667	0,5	-7,858900
22,942000	0,5	-7,893500
22,950333	0,5	-7,918050
22,958667	0,5	-7,930400
22,967000	0,5	-7,945050
22,975333	0,5	-7,944600
22,983667	0,5	-7,937200
22,992000	0,5	-7,931150
23,000333	0,5	-7,922900
23,008667	0,5	-7,917450
23,017000	0,5	-7,891550
23,025333	0,5	-7,868950
23,033667	0,5	-7,840200
23,042000	0,5	-7,855350
23,050333	0,5	-7,828900
23,058667	0,5	-7,814350
23,067000	0,5	-7,765150
23,075333	0,5	-7,738450
23,083667	0,5	-7,711700
23,092000	0,5	-7,679500
23,100333	0,5	-7,628300
23,108667	0,5	-7,588200
23,117000	0,5	-7,522650
23,125333	0,5	-7,463850
23,133667	0,5	-7,400750
23,142000	0,5	-7,325150
23,150333	0,5	-7,246200
23,158667	0,5	-7,130200
23,167000	0,5	-7,061550
23,175333	0,5	-6,970650
23,183667	0,5	-6,929500
23,192000	0,5	-6,885400
23,200333	0,5	-6,807800
23,208667	0,5	-6,722150
23,217000	0,5	-6,641600
23,225333	0,5	-6,579700
23,233667	0,5	-6,518750
23,242000	0,5	-6,419450
23,250333	0,5	-6,355900
23,258667	0,5	-6,278800
23,267000	0,5	-6,189700
23,275333	0,5	-6,094800
23,283667	0,5	-6,015550
23,292000	0,5	-5,916600
23,300333	0,5	-5,824500
23,308667	0,5	-5,719200
23,317000	0,5	-5,635600
23,325333	0,5	-5,514850
23,333667	0,5	-5,458700
23,342000	0,5	-5,405400
23,350333	0,5	-5,316850
23,358667	0,5	-5,242800
23,367000	0,5	-5,156600
23,375333	0,5	-5,108350
23,383667	0,5	-5,033500
23,392000	0,5	-4,962800
23,400333	0,5	-4,880400
23,408667	0,5	-4,829450
23,417000	0,5	-4,740200
23,425333	0,5	-4,684700
23,433667	0,5	-4,602600
23,442000	0,5	-4,532350
23,450333	0,5	-4,442350
23,458667	0,5	-4,447550
23,467000	0,5	-4,325100
23,475333	0,5	-4,220350
23,483667	0,5	-4,175950
23,492000	0,5	-4,116500
23,500333	0,5	-4,067050
23,508667	0,5	-3,997750
23,517000	0,5	-3,947000
23,525333	0,5	-3,898800
23,533667	0,5	-3,855000
23,542000	0,5	-3,805700
23,550333	0,5	-3,774500
23,558667	0,5	-3,732900
23,567000	0,5	-3,690000
23,575333	0,5	-3,643900
23,583667	0,5	-3,605150
23,592000	0,5	-3,556850
23,600333	0,5	-3,576000
23,608667	0,5	-3,581200
23,617000	0,5	-3,503250
23,625333	0,5	-3,420050
23,633667	0,5	-3,376650
23,642000	0,5	-3,345050
23,650333	0,5	-3,301900
23,658667	0,5	-3,265350
23,667000	0,5	-3,250150
23,675333	0,5	-3,214050
23,683667	0,5	-3,181850
23,692000	0,5	-3,152000
23,700333	0,5	-3,128750
23,708667	0,5	-3,102550
23,717000	0,5	-3,064750
23,725333	0,5	-3,041600
23,733667	0,5	-3,009150
23,742000	0,5	-2,983600
23,750333	0,5	-3,130450
23,758667	0,5	-3,071050
23,767000	0,5	-3,012250
23,775333	0,5	-2,929100
23,783667	0,5	-2,892600
23,792000	0,5	-2,866000
23,800333	0,5	-2,847600
23,808667	0,5	-2,830800
23,817000	0,5	-2,805450
23,825333	0,5	-2,787200
23,833667	0,5	-2,752350
23,842000	0,5	-2,736150
23,850333	0,5	-2,710550
23,858667	0,5	-2,677500
23,867000	0,5	-2,648650
23,875333	0,5	-2,618750
23,883667	0,5	-2,597100
23,892000	0,5	-2,607150
23,900333	0,5	-2,740800
23,908667	0,5	-2,698850
23,917000	0,5	-2,604400
23,925333	0,5	-2,536550
23,933667	0,5	-2,493600
23,942000	0,5	-2,467900
23,950333	0,5	-2,449200
23,958667	0,5	-2,429150
23,967000	0,5	-2,409000
23,975333	0,5	-2,376200
23,983667	0,5	-2,352050
23,992000	0,5	-2,328550
24,000333	0,5	-2,314850
24,008667	0,5	-2,295100
24,017000	0,5	-2,261250
24,025333	0,5	-2,237950
24,033667	0,5	-2,213550
24,042000	0,5	-2,319100
24,050333	0,5	-2,351700
24,058667	0,5	-2,304150
24,067000	0,5	-2,234050
24,075333	0,5	-2,169850
24,083667	0,5	-2,136900
24,092000	0,5	-2,111700
24,100333	0,5	-2,107050
24,108667	0,5	-2,072000
24,117000	0,5	-2,043350
24,125333	0,5	-2,010000
24,133667	0,5	-1,979450
24,142000	0,5	-1,949150
24,150333	0,5	-1,918850
24,158667	0,5	-1,901700
24,167000	0,5	-1,869950
24,175333	0,5	-1,841350
24,183667	0,5	-1,822000
24,192000	0,5	-1,971600
24,200333	0,5	-1,940400
24,208667	0,5	-1,910400
24,217000	0,5	-1,837100
24,225333	0,5	-1,786950
24,233667	0,5	-1,755050
24,242000	0,5	-1,743750
24,250333	0,5	-1,741400
24,258667	0,5	-1,710950
24,267000	0,5	-1,677850
24,275333	0,5	-1,658650
24,283667	0,5	-1,632050
24,292000	0,5	-1,611800
24,300333	0,5	-1,591650
24,308667	0,5	-1,564000
24,317000	0,5	-1,536400
24,325333	0,5	-1,508550
24,333667	0,5	-1,541450
24,342000	0,5	-1,592250
24,350333	0,5	-1,575800
24,358667	0,5	-1,511750
24,367000	0,5	-1,465950
24,375333	0,5	-1,424300
24,383667	0,5	-1,412150
24,392000	0,5	-1,409050
24,400333	0,5	-1,395250
24,408667	0,5	-1,357750
24,417000	0,5	-1,334550
24,425333	0,5	-1,313100
24,433667	0,5	-1,299750
24,442000	0,5	-1,280600
24,450333	0,5	-1,267700
24,458667	0,5	-1,245900
24,467000	0,5	-1,229350
24,475333	0,5	-1,219150
24,483667	0,5	-1,303600
24,492000	0,5	-1,286250
24,500333	0,5	-1,278100
24,508667	0,5	-1,226950
24,517000	0,5	-1,191250
24,525333	0,5	-1,164650
24,533667	0,5	-1,148800
24,542000	0,5	-1,151100
24,550333	0,5	-1,129100
24,558667	0,5	-1,112700
24,567000	0,5	-1,092650
24,575333	0,5	-1,080750
24,583667	0,5	-1,058950
24,592000	0,5	-1,041950
24,600333	0,5	-1,027900
24,608667	0,5	-1,010800
24,617000	0,5	-0,993300
24,625333	0,5	-0,984850
24,633667	0,5	-1,049450
24,642000	0,5	-1,023200
24,650333	0,5	-1,005150
24,658667	0,5	-0,972250
24,667000	0,5	-0,950850
24,675333	0,5	-0,933750
24,683667	0,5	-0,932800
24,692000	0,5	-0,939900
24,700333	0,5	-0,929300
24,708667	0,5	-0,911300
24,717000	0,5	-0,900550
24,725333	0,5	-0,888350
24,733667	0,5	-0,881150
24,742000	0,5	-0,865000
24,750333	0,5	-0,859350
24,758667	0,5	-0,841150
24,767000	0,5	-0,836650
24,775333	0,5	-0,855150
24,783667	0,5	-0,865450
24,792000	0,5	-0,844800
24,800333	0,5	-0,827550
24,808667	0,5	-0,798150
24,817000	0,5	-0,787950
24,825333	0,5	-0,774250
24,833667	0,5	-0,777350
24,842000	0,5	-0,777400
24,850333	0,5	-0,762550
24,858667	0,5	-0,759250
24,867000	0,5	-0,753800
24,875333	0,5	-0,745650
24,883667	0,5	-0,736150
24,892000	0,5	-0,738900
24,900333	0,5	-0,727200
24,908667	0,5	-0,723000
24,917000	0,5	-0,718350
24,925333	0,5	-0,745750
24,933667	0,5	-0,738250
24,942000	0,5	-0,729700
24,950333	0,5	-0,708000
24,958667	0,5	-0,694150
24,967000	0,5	-0,683200
24,975333	0,5	-0,679900
24,983667	0,5	-0,676950
24,992000	0,5	-0,671250
25,000333	0,5	-0,667150
25,008667	0,5	-0,656000
25,017000	0,5	-0,654000
25,025333	0,5	-0,643550
25,033667	0,5	-0,638600
25,042000	0,5	-0,626800
25,050333	0,5	-0,621700
25,058667	0,5	-0,622150
25,067000	0,5	-0,622800
25,075333	0,5	-0,635050
25,083667	0,5	-0,637050
25,092000	0,5	-0,629500
25,100333	0,5	-0,623300
25,108667	0,5	-0,618150
25,117000	0,5	-0,618250
25,125333	0,5	-0,613750
25,133667	0,5	-0,615950
25,142000	0,5	-0,613100
25,150333	0,5	-0,607450
25,158667	0,5	-0,603600
25,167000	0,5	-0,594650
25,175333	0,5	-0,593300
25,183667	0,5	-0,588700
25,192000	0,5	-0,582900
25,200333	0,5	-0,576450
25,208667	0,5	-0,572100
25,217000	0,5	-0,574850
25,225333	0,5	-0,572800
25,233667	0,5	-0,573450
25,242000	0,5	-0,565350
25,250333	0,5	-0,562100
25,258667	0,5	-0,561700
25,267000	0,5	-0,560050
25,275333	0,5	-0,561100
25,283667	0,5	-0,565650
25,292000	0,5	-0,562350
25,300333	0,5	-0,559900
25,308667	0,5	-0,566750
25,317000	0,5	-0,564650
25,325333	0,5	-0,559950
25,333667	0,5	-0,557900
25,342000	0,5	-0,554700
25,350333	0,5	-0,552450
25,358667	0,5	-0,549350
25,367000	0,5	-0,546350
25,375333	0,5	-0,538050
25,383667	0,5	-0,535950
25,392000	0,5	-0,534650
25,400333	0,5	-0,531350
25,408667	0,5	-0,533750
25,417000	0,5	-0,533650
25,425333	0,5	-0,529450
25,433667	0,5	-0,527750
25,442000	0,5	-0,524550
25,450333	0,5	-0,528850
25,458667	0,5	-0,527500
25,467000	0,5	-0,528400
25,475333	0,5	-0,526700
25,483667	0,5	-0,529200
25,492000	0,5	-0,533000
25,500333	0,5	-0,532650
25,508667	0,5	-0,529150
25,517000	0,5	-0,520600
25,525333	0,5	-0,519500
25,533667	0,5	-0,520200
25,542000	0,5	-0,520450
25,550333	0,5	-0,522050
25,558667	0,5	-0,519950
25,567000	0,5	-0,516150
25,575333	0,5	-0,504650
25,583667	0,5	-0,512700
25,592000	0,5	-0,509700
25,600333	0,5	-0,510450
25,608667	0,5	-0,508750
25,617000	0,5	-0,507950
25,625333	0,5	-0,507350
25,633667	0,5	-0,508500
25,642000	0,5	-0,505000
25,650333	0,5	-0,506600
25,658667	0,5	-0,503100
25,667000	0,5	-0,499000
25,675333	0,5	-0,494450
25,683667	0,5	-0,500450
25,692000	0,5	-0,506250
25,700333	0,5	-0,505300
25,708667	0,5	-0,508450
25,717000	0,5	-0,505200
25,725333	0,5	-0,496800
25,733667	0,5	-0,498250
25,742000	0,5	-0,504300
25,750333	0,5	-0,502600
25,758667	0,5	-0,505450
25,767000	0,5	-0,500200
25,775333	0,5	-0,501900
25,783667	0,5	-0,499650
25,792000	0,5	-0,497500
25,800333	0,5	-0,496100
25,808667	0,5	-0,478700
25,817000	0,5	-0,478950
25,825333	0,5	-0,472800
25,833667	0,5	-0,484200
25,842000	0,5	-0,488700
25,850333	0,5	-0,488800
25,858667	0,5	-0,489750
25,867000	0,5	-0,476950
25,875333	0,5	-0,470850
25,883667	0,5	-0,475900
25,892000	0,5	-0,476350
25,900333	0,5	-0,473800
25,908667	0,5	-0,475350
25,917000	0,5	-0,471850
25,925333	0,5	-0,471400
25,933667	0,5	-0,472850
25,942000	0,5	-0,470100
25,950333	0,5	-0,465050
25,958667	0,5	-0,451450
25,967000	0,5	-0,452050
25,975333	0,5	-0,444500
25,983667	0,5	-0,452400
25,992000	0,5	-0,450800
26,000333	0,5	-0,446900
