File Path	chrom://chromeleon01/ikbm_chromeleon/2022/ICS-5000/ED1/Esteban/20220427_Cell_Amandas_mutants.seq/919.smp/ED_1.channel/ED_1.chm
Channel	ED_1

Injection Information:
Data Vault	ikbm_chromeleon
Injection	EG_Avi_WT
Injection Number	18
Position	RB4
Comment	
Processing Method	Stop sequence after Cell Death
Instrument Method	ICS5000_PA200_FullNative_Ox_26min_ED1
Type	Unknown
Status	Finished
Injection Date	27.04.2022
Injection Time	21:00:14
Injection Volume (µl)	5,0
Dilution Factor	1,0000
Weight	1,0000

Chromatogram Data Information:
Time Min. (min)	0,000333
Time Max. (min)	26,000333
Data Points	3121
Detector	EDet1
Generating Data System	Chromeleon 7.2.9.11323
Exporting Data System	Chromeleon 7.2.9.0
Operator	Instrument Controller
Signal Quantity	
Signal Unit	nC
Signal Min.	-7,021850
Signal Max.	615,283809
Channel	ED_1
Driver Name	DC-5000
Channel Type	Evaluation
Min. Step (s)	0,5
Max. Step (s)	0,5
Average Step (s)	0,5

Signal Parameter Information:
Signal Info	

Chromatogram Data:
Time (min)	Step (s)	Value (nC)
0,000333	n.a.	-0,009100
0,008667	0,5	-0,097650
0,017000	0,5	-0,100600
0,025333	0,5	-0,092750
0,033667	0,5	-0,077650
0,042000	0,5	-0,075050
0,050333	0,5	-0,041800
0,058667	0,5	-0,047600
0,067000	0,5	-0,050050
0,075333	0,5	-0,021450
0,083667	0,5	-0,030100
0,092000	0,5	-0,054550
0,100333	0,5	-0,048400
0,108667	0,5	-0,032600
0,117000	0,5	0,012650
0,125333	0,5	0,024500
0,133667	0,5	0,017600
0,142000	0,5	-0,005600
0,150333	0,5	0,007750
0,158667	0,5	0,001050
0,167000	0,5	-0,000550
0,175333	0,5	-0,008100
0,183667	0,5	-0,014400
0,192000	0,5	-0,011000
0,200333	0,5	-0,002650
0,208667	0,5	-0,011000
0,217000	0,5	-0,020550
0,225333	0,5	-0,010200
0,233667	0,5	-0,032850
0,242000	0,5	-0,040550
0,250333	0,5	-0,032100
0,258667	0,5	-0,002400
0,267000	0,5	0,009350
0,275333	0,5	0,024700
0,283667	0,5	-0,005000
0,292000	0,5	0,006500
0,300333	0,5	0,002800
0,308667	0,5	0,047750
0,317000	0,5	0,054550
0,325333	0,5	0,012500
0,333667	0,5	-0,029050
0,342000	0,5	-0,034750
0,350333	0,5	-0,030700
0,358667	0,5	-0,041850
0,367000	0,5	-0,036400
0,375333	0,5	-0,020550
0,383667	0,5	-0,044150
0,392000	0,5	-0,049000
0,400333	0,5	-0,045200
0,408667	0,5	-0,011750
0,417000	0,5	0,010650
0,425333	0,5	-0,012200
0,433667	0,5	-0,007650
0,442000	0,5	-0,012850
0,450333	0,5	-0,013600
0,458667	0,5	-0,022900
0,467000	0,5	-0,020700
0,475333	0,5	-0,028850
0,483667	0,5	-0,029500
0,492000	0,5	-0,036650
0,500333	0,5	-0,047400
0,508667	0,5	-0,073600
0,517000	0,5	-0,038800
0,525333	0,5	-0,057000
0,533667	0,5	-0,062150
0,542000	0,5	-0,066050
0,550333	0,5	-0,056700
0,558667	0,5	0,003200
0,567000	0,5	-0,006200
0,575333	0,5	-0,021800
0,583667	0,5	-0,027750
0,592000	0,5	-0,026950
0,600333	0,5	-0,029800
0,608667	0,5	-0,026200
0,617000	0,5	-0,032800
0,625333	0,5	-0,038950
0,633667	0,5	-0,044700
0,642000	0,5	-0,039100
0,650333	0,5	-0,059400
0,658667	0,5	-0,056800
0,667000	0,5	-0,030850
0,675333	0,5	-0,054500
0,683667	0,5	-0,061150
0,692000	0,5	-0,059800
0,700333	0,5	-0,049950
0,708667	0,5	-0,005050
0,717000	0,5	-0,025950
0,725333	0,5	-0,032650
0,733667	0,5	-0,037950
0,742000	0,5	-0,037150
0,750333	0,5	-0,044350
0,758667	0,5	-0,033350
0,767000	0,5	-0,039000
0,775333	0,5	-0,048000
0,783667	0,5	-0,047200
0,792000	0,5	-0,043450
0,800333	0,5	-0,042400
0,808667	0,5	-0,056100
0,817000	0,5	-0,022150
0,825333	0,5	-0,062700
0,833667	0,5	-0,064550
0,842000	0,5	-0,068800
0,850333	0,5	-0,044550
0,858667	0,5	0,002750
0,867000	0,5	-0,017150
0,875333	0,5	-0,039450
0,883667	0,5	-0,034950
0,892000	0,5	-0,041400
0,900333	0,5	-0,042000
0,908667	0,5	-0,041950
0,917000	0,5	-0,042600
0,925333	0,5	-0,051050
0,933667	0,5	-0,049100
0,942000	0,5	-0,040100
0,950333	0,5	-0,068250
0,958667	0,5	-0,046600
0,967000	0,5	-0,039800
0,975333	0,5	-0,063850
0,983667	0,5	-0,065400
0,992000	0,5	-0,052800
1,000333	0,5	-0,031550
1,008667	0,5	-0,004900
1,017000	0,5	-0,030300
1,025333	0,5	-0,025600
1,033667	0,5	-0,038300
1,042000	0,5	-0,030850
1,050333	0,5	-0,042600
1,058667	0,5	-0,020950
1,067000	0,5	-0,041600
1,075333	0,5	-0,043850
1,083667	0,5	-0,037850
1,092000	0,5	-0,055050
1,100333	0,5	-0,068850
1,108667	0,5	-0,056700
1,117000	0,5	-0,062900
1,125333	0,5	-0,075700
1,133667	0,5	-0,071600
1,142000	0,5	-0,055150
1,150333	0,5	-0,017200
1,158667	0,5	0,007300
1,167000	0,5	0,000400
1,175333	0,5	-0,015250
1,183667	0,5	-0,013900
1,192000	0,5	-0,030350
1,200333	0,5	-0,027500
1,208667	0,5	-0,035750
1,217000	0,5	-0,034850
1,225333	0,5	-0,034900
1,233667	0,5	-0,038500
1,242000	0,5	-0,051400
1,250333	0,5	-0,042050
1,258667	0,5	-0,030300
1,267000	0,5	-0,038100
1,275333	0,5	-0,052650
1,283667	0,5	-0,050450
1,292000	0,5	-0,026650
1,300333	0,5	-0,005550
1,308667	0,5	0,001550
1,317000	0,5	-0,018150
1,325333	0,5	-0,006250
1,333667	0,5	-0,020050
1,342000	0,5	-0,016800
1,350333	0,5	-0,018300
1,358667	0,5	-0,005850
1,367000	0,5	-0,017500
1,375333	0,5	-0,016050
1,383667	0,5	-0,022750
1,392000	0,5	-0,028400
1,400333	0,5	-0,010150
1,408667	0,5	-0,009500
1,417000	0,5	-0,029600
1,425333	0,5	-0,023500
1,433667	0,5	-0,026250
1,442000	0,5	0,010850
1,450333	0,5	0,030650
1,458667	0,5	0,026850
1,467000	0,5	0,023650
1,475333	0,5	0,017350
1,483667	0,5	0,020750
1,492000	0,5	0,006850
1,500333	0,5	0,017550
1,508667	0,5	0,003550
1,517000	0,5	0,011400
1,525333	0,5	0,009600
1,533667	0,5	0,014450
1,542000	0,5	-0,003100
1,550333	0,5	0,033700
1,558667	0,5	0,017550
1,567000	0,5	0,008050
1,575333	0,5	-0,057200
1,583667	0,5	-0,307000
1,592000	0,5	-0,997300
1,600333	0,5	-1,940350
1,608667	0,5	-1,961450
1,617000	0,5	-0,285200
1,625333	0,5	2,265700
1,633667	0,5	5,392350
1,642000	0,5	9,634900
1,650333	0,5	14,060400
1,658667	0,5	16,493100
1,667000	0,5	16,215300
1,675333	0,5	14,499400
1,683667	0,5	12,571350
1,692000	0,5	10,907350
1,700333	0,5	9,540350
1,708667	0,5	8,343850
1,717000	0,5	7,359550
1,725333	0,5	6,653650
1,733667	0,5	6,247900
1,742000	0,5	6,081350
1,750333	0,5	5,742250
1,758667	0,5	5,177700
1,767000	0,5	4,522850
1,775333	0,5	3,990450
1,783667	0,5	3,655900
1,792000	0,5	3,562100
1,800333	0,5	3,675500
1,808667	0,5	3,860000
1,817000	0,5	3,947650
1,825333	0,5	3,870900
1,833667	0,5	3,676400
1,842000	0,5	3,477300
1,850333	0,5	3,298250
1,858667	0,5	3,080750
1,867000	0,5	2,895300
1,875333	0,5	2,707450
1,883667	0,5	2,560000
1,892000	0,5	2,431450
1,900333	0,5	2,304100
1,908667	0,5	2,167750
1,917000	0,5	2,080450
1,925333	0,5	1,970450
1,933667	0,5	1,886200
1,942000	0,5	1,820100
1,950333	0,5	1,801350
1,958667	0,5	1,850100
1,967000	0,5	1,956500
1,975333	0,5	2,020300
1,983667	0,5	1,972050
1,992000	0,5	1,974250
2,000333	0,5	2,265100
2,008667	0,5	3,370700
2,017000	0,5	6,157900
2,025333	0,5	12,105200
2,033667	0,5	24,976300
2,042000	0,5	52,445901
2,050333	0,5	97,645901
2,058667	0,5	141,467752
2,067000	0,5	153,545302
2,075333	0,5	131,907202
2,083667	0,5	100,335301
2,092000	0,5	75,610101
2,100333	0,5	59,525251
2,108667	0,5	49,029501
2,117000	0,5	41,735051
2,125333	0,5	36,428351
2,133667	0,5	32,459850
2,142000	0,5	29,500550
2,150333	0,5	27,225450
2,158667	0,5	25,456900
2,167000	0,5	24,080450
2,175333	0,5	23,063250
2,183667	0,5	22,344000
2,192000	0,5	21,706600
2,200333	0,5	21,047500
2,208667	0,5	20,380800
2,217000	0,5	19,773500
2,225333	0,5	19,260400
2,233667	0,5	18,866100
2,242000	0,5	18,564850
2,250333	0,5	18,345150
2,258667	0,5	18,181100
2,267000	0,5	18,072100
2,275333	0,5	17,961600
2,283667	0,5	17,912900
2,292000	0,5	17,890400
2,300333	0,5	17,891100
2,308667	0,5	17,916950
2,317000	0,5	17,950300
2,325333	0,5	17,981750
2,333667	0,5	17,990200
2,342000	0,5	17,974200
2,350333	0,5	17,957200
2,358667	0,5	17,961100
2,367000	0,5	17,983600
2,375333	0,5	18,000450
2,383667	0,5	18,016500
2,392000	0,5	18,026000
2,400333	0,5	18,036850
2,408667	0,5	18,067650
2,417000	0,5	18,097650
2,425333	0,5	18,146400
2,433667	0,5	18,228050
2,442000	0,5	18,294800
2,450333	0,5	18,376250
2,458667	0,5	18,538850
2,467000	0,5	18,796450
2,475333	0,5	19,166900
2,483667	0,5	19,544700
2,492000	0,5	19,878950
2,500333	0,5	20,091950
2,508667	0,5	20,138950
2,517000	0,5	20,006350
2,525333	0,5	19,797650
2,533667	0,5	19,602100
2,542000	0,5	19,431000
2,550333	0,5	19,276050
2,558667	0,5	19,115550
2,567000	0,5	18,966100
2,575333	0,5	18,785400
2,583667	0,5	18,652400
2,592000	0,5	18,458450
2,600333	0,5	18,286650
2,608667	0,5	18,127750
2,617000	0,5	18,001700
2,625333	0,5	17,919450
2,633667	0,5	17,843900
2,642000	0,5	17,840400
2,650333	0,5	17,965150
2,658667	0,5	18,210700
2,667000	0,5	18,521700
2,675333	0,5	18,714600
2,683667	0,5	18,694450
2,692000	0,5	18,449700
2,700333	0,5	18,070700
2,708667	0,5	17,665300
2,717000	0,5	17,270700
2,725333	0,5	16,984750
2,733667	0,5	16,900650
2,742000	0,5	17,146250
2,750333	0,5	18,163800
2,758667	0,5	20,566850
2,767000	0,5	25,008350
2,775333	0,5	31,871600
2,783667	0,5	41,195301
2,792000	0,5	53,832601
2,800333	0,5	72,951551
2,808667	0,5	107,930252
2,817000	0,5	177,011553
2,825333	0,5	296,146654
2,833667	0,5	444,714807
2,842000	0,5	564,730008
2,850333	0,5	615,283809
2,858667	0,5	597,379809
2,867000	0,5	534,715208
2,875333	0,5	453,331507
2,883667	0,5	372,121856
2,892000	0,5	301,612054
2,900333	0,5	245,203554
2,908667	0,5	201,504903
2,917000	0,5	167,580652
2,925333	0,5	140,868752
2,933667	0,5	119,583152
2,942000	0,5	102,459652
2,950333	0,5	88,529301
2,958667	0,5	76,929651
2,967000	0,5	67,195001
2,975333	0,5	59,007051
2,983667	0,5	52,168201
2,992000	0,5	46,477801
3,000333	0,5	41,762551
3,008667	0,5	37,820401
3,017000	0,5	34,473351
3,025333	0,5	31,615950
3,033667	0,5	29,124050
3,042000	0,5	26,928750
3,050333	0,5	25,009800
3,058667	0,5	23,320500
3,067000	0,5	21,841100
3,075333	0,5	20,509750
3,083667	0,5	19,287600
3,092000	0,5	18,196950
3,100333	0,5	17,211800
3,108667	0,5	16,328200
3,117000	0,5	15,519050
3,125333	0,5	14,791550
3,133667	0,5	14,098800
3,142000	0,5	13,462100
3,150333	0,5	12,862100
3,158667	0,5	12,298400
3,167000	0,5	11,758100
3,175333	0,5	11,289200
3,183667	0,5	10,807900
3,192000	0,5	10,381800
3,200333	0,5	9,989500
3,208667	0,5	9,655100
3,217000	0,5	9,345600
3,225333	0,5	9,038150
3,233667	0,5	8,736650
3,242000	0,5	8,455550
3,250333	0,5	8,198100
3,258667	0,5	7,952800
3,267000	0,5	7,742200
3,275333	0,5	7,560700
3,283667	0,5	7,422300
3,292000	0,5	7,351900
3,300333	0,5	7,368800
3,308667	0,5	7,409250
3,317000	0,5	7,483950
3,325333	0,5	7,479050
3,333667	0,5	7,361150
3,342000	0,5	7,141750
3,350333	0,5	6,850100
3,358667	0,5	6,549700
3,367000	0,5	6,252700
3,375333	0,5	5,981900
3,383667	0,5	5,739800
3,392000	0,5	5,532700
3,400333	0,5	5,344950
3,408667	0,5	5,177450
3,417000	0,5	5,027950
3,425333	0,5	4,886900
3,433667	0,5	4,750700
3,442000	0,5	4,639900
3,450333	0,5	4,529900
3,458667	0,5	4,434800
3,467000	0,5	4,372900
3,475333	0,5	4,305350
3,483667	0,5	4,232900
3,492000	0,5	4,189500
3,500333	0,5	4,150600
3,508667	0,5	4,145300
3,517000	0,5	4,098250
3,525333	0,5	4,041600
3,533667	0,5	3,974150
3,542000	0,5	3,918800
3,550333	0,5	3,835350
3,558667	0,5	3,766500
3,567000	0,5	3,695850
3,575333	0,5	3,627650
3,583667	0,5	3,580600
3,592000	0,5	3,531750
3,600333	0,5	3,500650
3,608667	0,5	3,452700
3,617000	0,5	3,439850
3,625333	0,5	3,378000
3,633667	0,5	3,340550
3,642000	0,5	3,302300
3,650333	0,5	3,273800
3,658667	0,5	3,259650
3,667000	0,5	3,218950
3,675333	0,5	3,165150
3,683667	0,5	3,133800
3,692000	0,5	3,083150
3,700333	0,5	3,047700
3,708667	0,5	3,004500
3,717000	0,5	2,964650
3,725333	0,5	2,918750
3,733667	0,5	2,882800
3,742000	0,5	2,852350
3,750333	0,5	2,806600
3,758667	0,5	2,768550
3,767000	0,5	2,737900
3,775333	0,5	2,672300
3,783667	0,5	2,630000
3,792000	0,5	2,589800
3,800333	0,5	2,552900
3,808667	0,5	2,538150
3,817000	0,5	2,476600
3,825333	0,5	2,446600
3,833667	0,5	2,413250
3,842000	0,5	2,393750
3,850333	0,5	2,361800
3,858667	0,5	2,347650
3,867000	0,5	2,322500
3,875333	0,5	2,310550
3,883667	0,5	2,309900
3,892000	0,5	2,307400
3,900333	0,5	2,292750
3,908667	0,5	2,311500
3,917000	0,5	2,304800
3,925333	0,5	2,293400
3,933667	0,5	2,287000
3,942000	0,5	2,277200
3,950333	0,5	2,278100
3,958667	0,5	2,264750
3,967000	0,5	2,238450
3,975333	0,5	2,203650
3,983667	0,5	2,189350
3,992000	0,5	2,162900
4,000333	0,5	2,142500
4,008667	0,5	2,114400
4,017000	0,5	2,092750
4,025333	0,5	2,063500
4,033667	0,5	2,041450
4,042000	0,5	2,010950
4,050333	0,5	1,972350
4,058667	0,5	1,951250
4,067000	0,5	1,916250
4,075333	0,5	1,876750
4,083667	0,5	1,857100
4,092000	0,5	1,845900
4,100333	0,5	1,848050
4,108667	0,5	1,837600
4,117000	0,5	1,809850
4,125333	0,5	1,790700
4,133667	0,5	1,772950
4,142000	0,5	1,757750
4,150333	0,5	1,737550
4,158667	0,5	1,720700
4,167000	0,5	1,686500
4,175333	0,5	1,667300
4,183667	0,5	1,641900
4,192000	0,5	1,635100
4,200333	0,5	1,615700
4,208667	0,5	1,607100
4,217000	0,5	1,571500
4,225333	0,5	1,551400
4,233667	0,5	1,536400
4,242000	0,5	1,541850
4,250333	0,5	1,550050
4,258667	0,5	1,535500
4,267000	0,5	1,515700
4,275333	0,5	1,508400
4,283667	0,5	1,495150
4,292000	0,5	1,488000
4,300333	0,5	1,483300
4,308667	0,5	1,472600
4,317000	0,5	1,465400
4,325333	0,5	1,459300
4,333667	0,5	1,459200
4,342000	0,5	1,444900
4,350333	0,5	1,460500
4,358667	0,5	1,447600
4,367000	0,5	1,441150
4,375333	0,5	1,435600
4,383667	0,5	1,442300
4,392000	0,5	1,472450
4,400333	0,5	1,490050
4,408667	0,5	1,487400
4,417000	0,5	1,499500
4,425333	0,5	1,516300
4,433667	0,5	1,547300
4,442000	0,5	1,590050
4,450333	0,5	1,652750
4,458667	0,5	1,713800
4,467000	0,5	1,793500
4,475333	0,5	1,887000
4,483667	0,5	1,981600
4,492000	0,5	2,081400
4,500333	0,5	2,216750
4,508667	0,5	2,316250
4,517000	0,5	2,445800
4,525333	0,5	2,625300
4,533667	0,5	2,856000
4,542000	0,5	3,207000
4,550333	0,5	3,641100
4,558667	0,5	4,251000
4,567000	0,5	5,080650
4,575333	0,5	6,177650
4,583667	0,5	7,530000
4,592000	0,5	9,158650
4,600333	0,5	10,956400
4,608667	0,5	12,786450
4,617000	0,5	14,490850
4,625333	0,5	15,878150
4,633667	0,5	16,791200
4,642000	0,5	17,121700
4,650333	0,5	16,868000
4,658667	0,5	16,038100
4,667000	0,5	14,813800
4,675333	0,5	13,340350
4,683667	0,5	11,771300
4,692000	0,5	10,237550
4,700333	0,5	8,793100
4,708667	0,5	7,513700
4,717000	0,5	6,440600
4,725333	0,5	5,542000
4,733667	0,5	4,830050
4,742000	0,5	4,257250
4,750333	0,5	3,802600
4,758667	0,5	3,432450
4,767000	0,5	3,145500
4,775333	0,5	2,919350
4,783667	0,5	2,733700
4,792000	0,5	2,583550
4,800333	0,5	2,474050
4,808667	0,5	2,354400
4,817000	0,5	2,253450
4,825333	0,5	2,178150
4,833667	0,5	2,122150
4,842000	0,5	2,070800
4,850333	0,5	1,988450
4,858667	0,5	1,936500
4,867000	0,5	1,888850
4,875333	0,5	1,856950
4,883667	0,5	1,822300
4,892000	0,5	1,802050
4,900333	0,5	1,774900
4,908667	0,5	1,760350
4,917000	0,5	1,733350
4,925333	0,5	1,714650
4,933667	0,5	1,667650
4,942000	0,5	1,654300
4,950333	0,5	1,609000
4,958667	0,5	1,560750
4,967000	0,5	1,518500
4,975333	0,5	1,495150
4,983667	0,5	1,487850
4,992000	0,5	1,462100
5,000333	0,5	1,433850
5,008667	0,5	1,422150
5,017000	0,5	1,407250
5,025333	0,5	1,382800
5,033667	0,5	1,378850
5,042000	0,5	1,370900
5,050333	0,5	1,361500
5,058667	0,5	1,357350
5,067000	0,5	1,364500
5,075333	0,5	1,357450
5,083667	0,5	1,359400
5,092000	0,5	1,369200
5,100333	0,5	1,367100
5,108667	0,5	1,371450
5,117000	0,5	1,385750
5,125333	0,5	1,408800
5,133667	0,5	1,440100
5,142000	0,5	1,446550
5,150333	0,5	1,450250
5,158667	0,5	1,447200
5,167000	0,5	1,455450
5,175333	0,5	1,453350
5,183667	0,5	1,459000
5,192000	0,5	1,459750
5,200333	0,5	1,451950
5,208667	0,5	1,462150
5,217000	0,5	1,466550
5,225333	0,5	1,475300
5,233667	0,5	1,488450
5,242000	0,5	1,513000
5,250333	0,5	1,507550
5,258667	0,5	1,523750
5,267000	0,5	1,534150
5,275333	0,5	1,564600
5,283667	0,5	1,571950
5,292000	0,5	1,569450
5,300333	0,5	1,541450
5,308667	0,5	1,527400
5,317000	0,5	1,503700
5,325333	0,5	1,480550
5,333667	0,5	1,445950
5,342000	0,5	1,419300
5,350333	0,5	1,394850
5,358667	0,5	1,378300
5,367000	0,5	1,362900
5,375333	0,5	1,337450
5,383667	0,5	1,344450
5,392000	0,5	1,326950
5,400333	0,5	1,307100
5,408667	0,5	1,299900
5,417000	0,5	1,306550
5,425333	0,5	1,315750
5,433667	0,5	1,327700
5,442000	0,5	1,312050
5,450333	0,5	1,314850
5,458667	0,5	1,301550
5,467000	0,5	1,301900
5,475333	0,5	1,297650
5,483667	0,5	1,299150
5,492000	0,5	1,285800
5,500333	0,5	1,280700
5,508667	0,5	1,281400
5,517000	0,5	1,268300
5,525333	0,5	1,255400
5,533667	0,5	1,274450
5,542000	0,5	1,253950
5,550333	0,5	1,250250
5,558667	0,5	1,258450
5,567000	0,5	1,264500
5,575333	0,5	1,295950
5,583667	0,5	1,284650
5,592000	0,5	1,288200
5,600333	0,5	1,285300
5,608667	0,5	1,294950
5,617000	0,5	1,294500
5,625333	0,5	1,305650
5,633667	0,5	1,308300
5,642000	0,5	1,315800
5,650333	0,5	1,324300
5,658667	0,5	1,344000
5,667000	0,5	1,342100
5,675333	0,5	1,360450
5,683667	0,5	1,389300
5,692000	0,5	1,393700
5,700333	0,5	1,414550
5,708667	0,5	1,428200
5,717000	0,5	1,457350
5,725333	0,5	1,483800
5,733667	0,5	1,476200
5,742000	0,5	1,459250
5,750333	0,5	1,443400
5,758667	0,5	1,416200
5,767000	0,5	1,391950
5,775333	0,5	1,361100
5,783667	0,5	1,340150
5,792000	0,5	1,310900
5,800333	0,5	1,297300
5,808667	0,5	1,278700
5,817000	0,5	1,256050
5,825333	0,5	1,250200
5,833667	0,5	1,241300
5,842000	0,5	1,217400
5,850333	0,5	1,206950
5,858667	0,5	1,202700
5,867000	0,5	1,209200
5,875333	0,5	1,210250
5,883667	0,5	1,188750
5,892000	0,5	1,185900
5,900333	0,5	1,174250
5,908667	0,5	1,162350
5,917000	0,5	1,155800
5,925333	0,5	1,156550
5,933667	0,5	1,148100
5,942000	0,5	1,139200
5,950333	0,5	1,132050
5,958667	0,5	1,123150
5,967000	0,5	1,104550
5,975333	0,5	1,116850
5,983667	0,5	1,097650
5,992000	0,5	1,090800
6,000333	0,5	1,080550
6,008667	0,5	1,083750
6,017000	0,5	1,099350
6,025333	0,5	1,113450
6,033667	0,5	1,103300
6,042000	0,5	1,097750
6,050333	0,5	1,093600
6,058667	0,5	1,081800
6,067000	0,5	1,077300
6,075333	0,5	1,072950
6,083667	0,5	1,070600
6,092000	0,5	1,062350
6,100333	0,5	1,060000
6,108667	0,5	1,037850
6,117000	0,5	1,035750
6,125333	0,5	1,048300
6,133667	0,5	1,032300
6,142000	0,5	1,030150
6,150333	0,5	1,029800
6,158667	0,5	1,049050
6,167000	0,5	1,078850
6,175333	0,5	1,093450
6,183667	0,5	1,103650
6,192000	0,5	1,117400
6,200333	0,5	1,135450
6,208667	0,5	1,153200
6,217000	0,5	1,174450
6,225333	0,5	1,186150
6,233667	0,5	1,193200
6,242000	0,5	1,188650
6,250333	0,5	1,171250
6,258667	0,5	1,149200
6,267000	0,5	1,138150
6,275333	0,5	1,120150
6,283667	0,5	1,091200
6,292000	0,5	1,068050
6,300333	0,5	1,053750
6,308667	0,5	1,064450
6,317000	0,5	1,059900
6,325333	0,5	1,062300
6,333667	0,5	1,057100
6,342000	0,5	1,065200
6,350333	0,5	1,063200
6,358667	0,5	1,076950
6,367000	0,5	1,088550
6,375333	0,5	1,101050
6,383667	0,5	1,120350
6,392000	0,5	1,133600
6,400333	0,5	1,147450
6,408667	0,5	1,154300
6,417000	0,5	1,177800
6,425333	0,5	1,168700
6,433667	0,5	1,163350
6,442000	0,5	1,157450
6,450333	0,5	1,156400
6,458667	0,5	1,174800
6,467000	0,5	1,179950
6,475333	0,5	1,166750
6,483667	0,5	1,171800
6,492000	0,5	1,173700
6,500333	0,5	1,188000
6,508667	0,5	1,212800
6,517000	0,5	1,232100
6,525333	0,5	1,252650
6,533667	0,5	1,272800
6,542000	0,5	1,291900
6,550333	0,5	1,292100
6,558667	0,5	1,288700
6,567000	0,5	1,298600
6,575333	0,5	1,271350
6,583667	0,5	1,247400
6,592000	0,5	1,230500
6,600333	0,5	1,221350
6,608667	0,5	1,223150
6,617000	0,5	1,195250
6,625333	0,5	1,185000
6,633667	0,5	1,174900
6,642000	0,5	1,180100
6,650333	0,5	1,172150
6,658667	0,5	1,170300
6,667000	0,5	1,167550
6,675333	0,5	1,168550
6,683667	0,5	1,175650
6,692000	0,5	1,183700
6,700333	0,5	1,180800
6,708667	0,5	1,195500
6,717000	0,5	1,207700
6,725333	0,5	1,209250
6,733667	0,5	1,210750
6,742000	0,5	1,231900
6,750333	0,5	1,252000
6,758667	0,5	1,271200
6,767000	0,5	1,272250
6,775333	0,5	1,278750
6,783667	0,5	1,285850
6,792000	0,5	1,290600
6,800333	0,5	1,299100
6,808667	0,5	1,302550
6,817000	0,5	1,309900
6,825333	0,5	1,310000
6,833667	0,5	1,322350
6,842000	0,5	1,344450
6,850333	0,5	1,340650
6,858667	0,5	1,353850
6,867000	0,5	1,359550
6,875333	0,5	1,357200
6,883667	0,5	1,366000
6,892000	0,5	1,380650
6,900333	0,5	1,406450
6,908667	0,5	1,422950
6,917000	0,5	1,429150
6,925333	0,5	1,437950
6,933667	0,5	1,454800
6,942000	0,5	1,468250
6,950333	0,5	1,474650
6,958667	0,5	1,490200
6,967000	0,5	1,502800
6,975333	0,5	1,513800
6,983667	0,5	1,524500
6,992000	0,5	1,542250
7,000333	0,5	1,543550
7,008667	0,5	1,571650
7,017000	0,5	1,574250
7,025333	0,5	1,590650
7,033667	0,5	1,600500
7,042000	0,5	1,621600
7,050333	0,5	1,646300
7,058667	0,5	1,656550
7,067000	0,5	1,646200
7,075333	0,5	1,649650
7,083667	0,5	1,643450
7,092000	0,5	1,639450
7,100333	0,5	1,627500
7,108667	0,5	1,625200
7,117000	0,5	1,621650
7,125333	0,5	1,619650
7,133667	0,5	1,623250
7,142000	0,5	1,617300
7,150333	0,5	1,624850
7,158667	0,5	1,636250
7,167000	0,5	1,641400
7,175333	0,5	1,660250
7,183667	0,5	1,680350
7,192000	0,5	1,716650
7,200333	0,5	1,754100
7,208667	0,5	1,767200
7,217000	0,5	1,788200
7,225333	0,5	1,789750
7,233667	0,5	1,787500
7,242000	0,5	1,778850
7,250333	0,5	1,772300
7,258667	0,5	1,751800
7,267000	0,5	1,731250
7,275333	0,5	1,714950
7,283667	0,5	1,694850
7,292000	0,5	1,676950
7,300333	0,5	1,677750
7,308667	0,5	1,673250
7,317000	0,5	1,655300
7,325333	0,5	1,655850
7,333667	0,5	1,660550
7,342000	0,5	1,684450
7,350333	0,5	1,700900
7,358667	0,5	1,711550
7,367000	0,5	1,721650
7,375333	0,5	1,735200
7,383667	0,5	1,747250
7,392000	0,5	1,759200
7,400333	0,5	1,775700
7,408667	0,5	1,786650
7,417000	0,5	1,799950
7,425333	0,5	1,816450
7,433667	0,5	1,824200
7,442000	0,5	1,827250
7,450333	0,5	1,829700
7,458667	0,5	1,809550
7,467000	0,5	1,776300
7,475333	0,5	1,749700
7,483667	0,5	1,730050
7,492000	0,5	1,724300
7,500333	0,5	1,707600
7,508667	0,5	1,692200
7,517000	0,5	1,689350
7,525333	0,5	1,689900
7,533667	0,5	1,697150
7,542000	0,5	1,708950
7,550333	0,5	1,727600
7,558667	0,5	1,743700
7,567000	0,5	1,763650
7,575333	0,5	1,779500
7,583667	0,5	1,792500
7,592000	0,5	1,810700
7,600333	0,5	1,842550
7,608667	0,5	1,854550
7,617000	0,5	1,878550
7,625333	0,5	1,902150
7,633667	0,5	1,921400
7,642000	0,5	1,934150
7,650333	0,5	1,920950
7,658667	0,5	1,905100
7,667000	0,5	1,894950
7,675333	0,5	1,878200
7,683667	0,5	1,864500
7,692000	0,5	1,873200
7,700333	0,5	1,896150
7,708667	0,5	1,954750
7,717000	0,5	2,046650
7,725333	0,5	2,196550
7,733667	0,5	2,386000
7,742000	0,5	2,617800
7,750333	0,5	2,832850
7,758667	0,5	2,980800
7,767000	0,5	3,052450
7,775333	0,5	3,062200
7,783667	0,5	3,055650
7,792000	0,5	3,052700
7,800333	0,5	3,055200
7,808667	0,5	3,066650
7,817000	0,5	3,060400
7,825333	0,5	3,021450
7,833667	0,5	2,940250
7,842000	0,5	2,840250
7,850333	0,5	2,720100
7,858667	0,5	2,612350
7,867000	0,5	2,513300
7,875333	0,5	2,426950
7,883667	0,5	2,358150
7,892000	0,5	2,323600
7,900333	0,5	2,294850
7,908667	0,5	2,281650
7,917000	0,5	2,277000
7,925333	0,5	2,280950
7,933667	0,5	2,296500
7,942000	0,5	2,325650
7,950333	0,5	2,396800
7,958667	0,5	2,531850
7,967000	0,5	2,761600
7,975333	0,5	3,021050
7,983667	0,5	3,257800
7,992000	0,5	3,380000
8,000333	0,5	3,350600
8,008667	0,5	3,178450
8,017000	0,5	2,918750
8,025333	0,5	2,651250
8,033667	0,5	2,411350
8,042000	0,5	2,240150
8,050333	0,5	2,112200
8,058667	0,5	2,032500
8,067000	0,5	1,977100
8,075333	0,5	1,950050
8,083667	0,5	1,925050
8,092000	0,5	1,914150
8,100333	0,5	1,887100
8,108667	0,5	1,884250
8,117000	0,5	1,873300
8,125333	0,5	1,872400
8,133667	0,5	1,877200
8,142000	0,5	1,886500
8,150333	0,5	1,903700
8,158667	0,5	1,931900
8,167000	0,5	1,978950
8,175333	0,5	2,020000
8,183667	0,5	2,063750
8,192000	0,5	2,086100
8,200333	0,5	2,073250
8,208667	0,5	2,044750
8,217000	0,5	2,001200
8,225333	0,5	1,963300
8,233667	0,5	1,931850
8,242000	0,5	1,901000
8,250333	0,5	1,883100
8,258667	0,5	1,869300
8,267000	0,5	1,863400
8,275333	0,5	1,862750
8,283667	0,5	1,866000
8,292000	0,5	1,884850
8,300333	0,5	1,909250
8,308667	0,5	1,940850
8,317000	0,5	1,965600
8,325333	0,5	1,977250
8,333667	0,5	1,988100
8,342000	0,5	1,976400
8,350333	0,5	1,962800
8,358667	0,5	1,940650
8,367000	0,5	1,933050
8,375333	0,5	1,936850
8,383667	0,5	1,939850
8,392000	0,5	1,939700
8,400333	0,5	1,951250
8,408667	0,5	1,960750
8,417000	0,5	1,966600
8,425333	0,5	1,973100
8,433667	0,5	1,981200
8,442000	0,5	1,976150
8,450333	0,5	1,980800
8,458667	0,5	1,994050
8,467000	0,5	1,992250
8,475333	0,5	1,974800
8,483667	0,5	1,928600
8,492000	0,5	1,854250
8,500333	0,5	1,771350
8,508667	0,5	1,703750
8,517000	0,5	1,658300
8,525333	0,5	1,621450
8,533667	0,5	1,594100
8,542000	0,5	1,572000
8,550333	0,5	1,560350
8,558667	0,5	1,549450
8,567000	0,5	1,548150
8,575333	0,5	1,550750
8,583667	0,5	1,564800
8,592000	0,5	1,581050
8,600333	0,5	1,625100
8,608667	0,5	1,684200
8,617000	0,5	1,778250
8,625333	0,5	1,889050
8,633667	0,5	2,005550
8,642000	0,5	2,090800
8,650333	0,5	2,124700
8,658667	0,5	2,111450
8,667000	0,5	2,068800
8,675333	0,5	2,017200
8,683667	0,5	1,967850
8,692000	0,5	1,937650
8,700333	0,5	1,924350
8,708667	0,5	1,912950
8,717000	0,5	1,895000
8,725333	0,5	1,861900
8,733667	0,5	1,819600
8,742000	0,5	1,777400
8,750333	0,5	1,742550
8,758667	0,5	1,712900
8,767000	0,5	1,687500
8,775333	0,5	1,670900
8,783667	0,5	1,664650
8,792000	0,5	1,658450
8,800333	0,5	1,649250
8,808667	0,5	1,643700
8,817000	0,5	1,640100
8,825333	0,5	1,633400
8,833667	0,5	1,625500
8,842000	0,5	1,617450
8,850333	0,5	1,621100
8,858667	0,5	1,623250
8,867000	0,5	1,624600
8,875333	0,5	1,639150
8,883667	0,5	1,643100
8,892000	0,5	1,653000
8,900333	0,5	1,665450
8,908667	0,5	1,666600
8,917000	0,5	1,662900
8,925333	0,5	1,666550
8,933667	0,5	1,661900
8,942000	0,5	1,660550
8,950333	0,5	1,663550
8,958667	0,5	1,677950
8,967000	0,5	1,695050
8,975333	0,5	1,708000
8,983667	0,5	1,724800
8,992000	0,5	1,733650
9,000333	0,5	1,743650
9,008667	0,5	1,748850
9,017000	0,5	1,764950
9,025333	0,5	1,775700
9,033667	0,5	1,791400
9,042000	0,5	1,805950
9,050333	0,5	1,812000
9,058667	0,5	1,808000
9,067000	0,5	1,805500
9,075333	0,5	1,793900
9,083667	0,5	1,779750
9,092000	0,5	1,769000
9,100333	0,5	1,765350
9,108667	0,5	1,768500
9,117000	0,5	1,779150
9,125333	0,5	1,792950
9,133667	0,5	1,802250
9,142000	0,5	1,812250
9,150333	0,5	1,814750
9,158667	0,5	1,808200
9,167000	0,5	1,790600
9,175333	0,5	1,778300
9,183667	0,5	1,765600
9,192000	0,5	1,761150
9,200333	0,5	1,759800
9,208667	0,5	1,758750
9,217000	0,5	1,769800
9,225333	0,5	1,791450
9,233667	0,5	1,817050
9,242000	0,5	1,870400
9,250333	0,5	1,951300
9,258667	0,5	2,071150
9,267000	0,5	2,240750
9,275333	0,5	2,472900
9,283667	0,5	2,769500
9,292000	0,5	3,104200
9,300333	0,5	3,443050
9,308667	0,5	3,725700
9,317000	0,5	3,877250
9,325333	0,5	3,853750
9,333667	0,5	3,674500
9,342000	0,5	3,368900
9,350333	0,5	3,019600
9,358667	0,5	2,683150
9,367000	0,5	2,409300
9,375333	0,5	2,197600
9,383667	0,5	2,043800
9,392000	0,5	1,948250
9,400333	0,5	1,880850
9,408667	0,5	1,839700
9,417000	0,5	1,815600
9,425333	0,5	1,806900
9,433667	0,5	1,805800
9,442000	0,5	1,813250
9,450333	0,5	1,832200
9,458667	0,5	1,850500
9,467000	0,5	1,868900
9,475333	0,5	1,867350
9,483667	0,5	1,856900
9,492000	0,5	1,834250
9,500333	0,5	1,811350
9,508667	0,5	1,793650
9,517000	0,5	1,784550
9,525333	0,5	1,773050
9,533667	0,5	1,755850
9,542000	0,5	1,738200
9,550333	0,5	1,715150
9,558667	0,5	1,688050
9,567000	0,5	1,662450
9,575333	0,5	1,634500
9,583667	0,5	1,611400
9,592000	0,5	1,595850
9,600333	0,5	1,578950
9,608667	0,5	1,566350
9,617000	0,5	1,558850
9,625333	0,5	1,547450
9,633667	0,5	1,544250
9,642000	0,5	1,539700
9,650333	0,5	1,534200
9,658667	0,5	1,529200
9,667000	0,5	1,524650
9,675333	0,5	1,516650
9,683667	0,5	1,510600
9,692000	0,5	1,503800
9,700333	0,5	1,504800
9,708667	0,5	1,502600
9,717000	0,5	1,500550
9,725333	0,5	1,495350
9,733667	0,5	1,491600
9,742000	0,5	1,486000
9,750333	0,5	1,486100
9,758667	0,5	1,481450
9,767000	0,5	1,478000
9,775333	0,5	1,464200
9,783667	0,5	1,457700
9,792000	0,5	1,450150
9,800333	0,5	1,445500
9,808667	0,5	1,439050
9,817000	0,5	1,443200
9,825333	0,5	1,438900
9,833667	0,5	1,436650
9,842000	0,5	1,438550
9,850333	0,5	1,449300
9,858667	0,5	1,459100
9,867000	0,5	1,466150
9,875333	0,5	1,469950
9,883667	0,5	1,468300
9,892000	0,5	1,459050
9,900333	0,5	1,452400
9,908667	0,5	1,437800
9,917000	0,5	1,432250
9,925333	0,5	1,427950
9,933667	0,5	1,427600
9,942000	0,5	1,424700
9,950333	0,5	1,429800
9,958667	0,5	1,438050
9,967000	0,5	1,445550
9,975333	0,5	1,454300
9,983667	0,5	1,457150
9,992000	0,5	1,470200
10,000333	0,5	1,474600
10,008667	0,5	1,482250
10,017000	0,5	1,487700
10,025333	0,5	1,489400
10,033667	0,5	1,482300
10,042000	0,5	1,482600
10,050333	0,5	1,475150
10,058667	0,5	1,459000
10,067000	0,5	1,453600
10,075333	0,5	1,446250
10,083667	0,5	1,441100
10,092000	0,5	1,436900
10,100333	0,5	1,432550
10,108667	0,5	1,430800
10,117000	0,5	1,430250
10,125333	0,5	1,431600
10,133667	0,5	1,429650
10,142000	0,5	1,431350
10,150333	0,5	1,434500
10,158667	0,5	1,441650
10,167000	0,5	1,450250
10,175333	0,5	1,458850
10,183667	0,5	1,461250
10,192000	0,5	1,464350
10,200333	0,5	1,463500
10,208667	0,5	1,461800
10,217000	0,5	1,462200
10,225333	0,5	1,455500
10,233667	0,5	1,462450
10,242000	0,5	1,463450
10,250333	0,5	1,467450
10,258667	0,5	1,475700
10,267000	0,5	1,487200
10,275333	0,5	1,498450
10,283667	0,5	1,511600
10,292000	0,5	1,524400
10,300333	0,5	1,538850
10,308667	0,5	1,554700
10,317000	0,5	1,565050
10,325333	0,5	1,572650
10,333667	0,5	1,576500
10,342000	0,5	1,576300
10,350333	0,5	1,583300
10,358667	0,5	1,591000
10,367000	0,5	1,600200
10,375333	0,5	1,607900
10,383667	0,5	1,627500
10,392000	0,5	1,637500
10,400333	0,5	1,654950
10,408667	0,5	1,663350
10,417000	0,5	1,659450
10,425333	0,5	1,651850
10,433667	0,5	1,637850
10,442000	0,5	1,619100
10,450333	0,5	1,600350
10,458667	0,5	1,579700
10,467000	0,5	1,563250
10,475333	0,5	1,544850
10,483667	0,5	1,531950
10,492000	0,5	1,518700
10,500333	0,5	1,513900
10,508667	0,5	1,504850
10,517000	0,5	1,502550
10,525333	0,5	1,500150
10,533667	0,5	1,496500
10,542000	0,5	1,483350
10,550333	0,5	1,484250
10,558667	0,5	1,480400
10,567000	0,5	1,477350
10,575333	0,5	1,475350
10,583667	0,5	1,471450
10,592000	0,5	1,475400
10,600333	0,5	1,486450
10,608667	0,5	1,479250
10,617000	0,5	1,488300
10,625333	0,5	1,495000
10,633667	0,5	1,501900
10,642000	0,5	1,516050
10,650333	0,5	1,526000
10,658667	0,5	1,543500
10,667000	0,5	1,561450
10,675333	0,5	1,585750
10,683667	0,5	1,618400
10,692000	0,5	1,651950
10,700333	0,5	1,681850
10,708667	0,5	1,706350
10,717000	0,5	1,715150
10,725333	0,5	1,717850
10,733667	0,5	1,707750
10,742000	0,5	1,704500
10,750333	0,5	1,695150
10,758667	0,5	1,691500
10,767000	0,5	1,690650
10,775333	0,5	1,710750
10,783667	0,5	1,737950
10,792000	0,5	1,772800
10,800333	0,5	1,796350
10,808667	0,5	1,812950
10,817000	0,5	1,807650
10,825333	0,5	1,786000
10,833667	0,5	1,743100
10,842000	0,5	1,680950
10,850333	0,5	1,626900
10,858667	0,5	1,561600
10,867000	0,5	1,500450
10,875333	0,5	1,457850
10,883667	0,5	1,422850
10,892000	0,5	1,408750
10,900333	0,5	1,400000
10,908667	0,5	1,406900
10,917000	0,5	1,412150
10,925333	0,5	1,428150
10,933667	0,5	1,442750
10,942000	0,5	1,463900
10,950333	0,5	1,473000
10,958667	0,5	1,490050
10,967000	0,5	1,497700
10,975333	0,5	1,505600
10,983667	0,5	1,505200
10,992000	0,5	1,507450
11,000333	0,5	1,504900
11,008667	0,5	1,499150
11,017000	0,5	1,491600
11,025333	0,5	1,483150
11,033667	0,5	1,478650
11,042000	0,5	1,476300
11,050333	0,5	1,469400
11,058667	0,5	1,466300
11,067000	0,5	1,461050
11,075333	0,5	1,454100
11,083667	0,5	1,449300
11,092000	0,5	1,449200
11,100333	0,5	1,442700
11,108667	0,5	1,433800
11,117000	0,5	1,432350
11,125333	0,5	1,426200
11,133667	0,5	1,418550
11,142000	0,5	1,417250
11,150333	0,5	1,415100
11,158667	0,5	1,406850
11,167000	0,5	1,395200
11,175333	0,5	1,391800
11,183667	0,5	1,387600
11,192000	0,5	1,382650
11,200333	0,5	1,384400
11,208667	0,5	1,382350
11,217000	0,5	1,380800
11,225333	0,5	1,376550
11,233667	0,5	1,379450
11,242000	0,5	1,378700
11,250333	0,5	1,372800
11,258667	0,5	1,372650
11,267000	0,5	1,368450
11,275333	0,5	1,368700
11,283667	0,5	1,366500
11,292000	0,5	1,366700
11,300333	0,5	1,367250
11,308667	0,5	1,366650
11,317000	0,5	1,364100
11,325333	0,5	1,362400
11,333667	0,5	1,366150
11,342000	0,5	1,367200
11,350333	0,5	1,366600
11,358667	0,5	1,367600
11,367000	0,5	1,359900
11,375333	0,5	1,359400
11,383667	0,5	1,356000
11,392000	0,5	1,349850
11,400333	0,5	1,344900
11,408667	0,5	1,337950
11,417000	0,5	1,335000
11,425333	0,5	1,316000
11,433667	0,5	1,316550
11,442000	0,5	1,310550
11,450333	0,5	1,305700
11,458667	0,5	1,296350
11,467000	0,5	1,286950
11,475333	0,5	1,278400
11,483667	0,5	1,283600
11,492000	0,5	1,288950
11,500333	0,5	1,294800
11,508667	0,5	1,301150
11,517000	0,5	1,315600
11,525333	0,5	1,323900
11,533667	0,5	1,359350
11,542000	0,5	1,401000
11,550333	0,5	1,456250
11,558667	0,5	1,528200
11,567000	0,5	1,607650
11,575333	0,5	1,672450
11,583667	0,5	1,728500
11,592000	0,5	1,746750
11,600333	0,5	1,733450
11,608667	0,5	1,697400
11,617000	0,5	1,638900
11,625333	0,5	1,582050
11,633667	0,5	1,531500
11,642000	0,5	1,489750
11,650333	0,5	1,453800
11,658667	0,5	1,427250
11,667000	0,5	1,410750
11,675333	0,5	1,401050
11,683667	0,5	1,394200
11,692000	0,5	1,384500
11,700333	0,5	1,381350
11,708667	0,5	1,378700
11,717000	0,5	1,367750
11,725333	0,5	1,348700
11,733667	0,5	1,340000
11,742000	0,5	1,329100
11,750333	0,5	1,322100
11,758667	0,5	1,325400
11,767000	0,5	1,335900
11,775333	0,5	1,376600
11,783667	0,5	1,423150
11,792000	0,5	1,471600
11,800333	0,5	1,521750
11,808667	0,5	1,560650
11,817000	0,5	1,577400
11,825333	0,5	1,571900
11,833667	0,5	1,557950
11,842000	0,5	1,524100
11,850333	0,5	1,483400
11,858667	0,5	1,439950
11,867000	0,5	1,403200
11,875333	0,5	1,358550
11,883667	0,5	1,327050
11,892000	0,5	1,301550
11,900333	0,5	1,272350
11,908667	0,5	1,248400
11,917000	0,5	1,230450
11,925333	0,5	1,218150
11,933667	0,5	1,207250
11,942000	0,5	1,197500
11,950333	0,5	1,194250
11,958667	0,5	1,190750
11,967000	0,5	1,189550
11,975333	0,5	1,189350
11,983667	0,5	1,189750
11,992000	0,5	1,190000
12,000333	0,5	1,193800
12,008667	0,5	1,203400
12,017000	0,5	1,208050
12,025333	0,5	1,214300
12,033667	0,5	1,217550
12,042000	0,5	1,224000
12,050333	0,5	1,218900
12,058667	0,5	1,219700
12,067000	0,5	1,209550
12,075333	0,5	1,214800
12,083667	0,5	1,208950
12,092000	0,5	1,204150
12,100333	0,5	1,200200
12,108667	0,5	1,201750
12,117000	0,5	1,199300
12,125333	0,5	1,201300
12,133667	0,5	1,205050
12,142000	0,5	1,213650
12,150333	0,5	1,220750
12,158667	0,5	1,229600
12,167000	0,5	1,235050
12,175333	0,5	1,255850
12,183667	0,5	1,266850
12,192000	0,5	1,280850
12,200333	0,5	1,291350
12,208667	0,5	1,303200
12,217000	0,5	1,324350
12,225333	0,5	1,346800
12,233667	0,5	1,361300
12,242000	0,5	1,372150
12,250333	0,5	1,400250
12,258667	0,5	1,409900
12,267000	0,5	1,436400
12,275333	0,5	1,455100
12,283667	0,5	1,469250
12,292000	0,5	1,485500
12,300333	0,5	1,486050
12,308667	0,5	1,481650
12,317000	0,5	1,477250
12,325333	0,5	1,466750
12,333667	0,5	1,455150
12,342000	0,5	1,438200
12,350333	0,5	1,422900
12,358667	0,5	1,423950
12,367000	0,5	1,427700
12,375333	0,5	1,432750
12,383667	0,5	1,436850
12,392000	0,5	1,439350
12,400333	0,5	1,449200
12,408667	0,5	1,455150
12,417000	0,5	1,466450
12,425333	0,5	1,476550
12,433667	0,5	1,496950
12,442000	0,5	1,522750
12,450333	0,5	1,561800
12,458667	0,5	1,596100
12,467000	0,5	1,661800
12,475333	0,5	1,743950
12,483667	0,5	1,835600
12,492000	0,5	1,931600
12,500333	0,5	2,027150
12,508667	0,5	2,117200
12,517000	0,5	2,171550
12,525333	0,5	2,189750
12,533667	0,5	2,171050
12,542000	0,5	2,125850
12,550333	0,5	2,077900
12,558667	0,5	2,028900
12,567000	0,5	1,994250
12,575333	0,5	1,957400
12,583667	0,5	1,933200
12,592000	0,5	1,915050
12,600333	0,5	1,909450
12,608667	0,5	1,900350
12,617000	0,5	1,923700
12,625333	0,5	1,930600
12,633667	0,5	1,930500
12,642000	0,5	1,919800
12,650333	0,5	1,883550
12,658667	0,5	1,850050
12,667000	0,5	1,800450
12,675333	0,5	1,740600
12,683667	0,5	1,680200
12,692000	0,5	1,623550
12,700333	0,5	1,568500
12,708667	0,5	1,528050
12,717000	0,5	1,492250
12,725333	0,5	1,470000
12,733667	0,5	1,448250
12,742000	0,5	1,439700
12,750333	0,5	1,410000
12,758667	0,5	1,387250
12,767000	0,5	1,358650
12,775333	0,5	1,326250
12,783667	0,5	1,290750
12,792000	0,5	1,256300
12,800333	0,5	1,228000
12,808667	0,5	1,210500
12,817000	0,5	1,191250
12,825333	0,5	1,175850
12,833667	0,5	1,161550
12,842000	0,5	1,145000
12,850333	0,5	1,130150
12,858667	0,5	1,116900
12,867000	0,5	1,110850
12,875333	0,5	1,093550
12,883667	0,5	1,086850
12,892000	0,5	1,078000
12,900333	0,5	1,070950
12,908667	0,5	1,071350
12,917000	0,5	1,068700
12,925333	0,5	1,067050
12,933667	0,5	1,062100
12,942000	0,5	1,048900
12,950333	0,5	1,038150
12,958667	0,5	1,032900
12,967000	0,5	1,026800
12,975333	0,5	1,005500
12,983667	0,5	0,996500
12,992000	0,5	0,984200
13,000333	0,5	0,981000
13,008667	0,5	0,972450
13,017000	0,5	0,946600
13,025333	0,5	0,908800
13,033667	0,5	0,861500
13,042000	0,5	0,815050
13,050333	0,5	0,768950
13,058667	0,5	0,728550
13,067000	0,5	0,691200
13,075333	0,5	0,651150
13,083667	0,5	0,610850
13,092000	0,5	0,521550
13,100333	0,5	0,392150
13,108667	0,5	0,180400
13,117000	0,5	-0,191500
13,125333	0,5	-0,581700
13,133667	0,5	-0,894200
13,142000	0,5	-1,166650
13,150333	0,5	-1,414650
13,158667	0,5	-1,579900
13,167000	0,5	-1,688350
13,175333	0,5	-1,762000
13,183667	0,5	-1,807100
13,192000	0,5	-1,852550
13,200333	0,5	-1,877200
13,208667	0,5	-1,901050
13,217000	0,5	-1,927150
13,225333	0,5	-1,957800
13,233667	0,5	-1,986000
13,242000	0,5	-2,019500
13,250333	0,5	-2,037750
13,258667	0,5	-2,066950
13,267000	0,5	-2,084650
13,275333	0,5	-2,109250
13,283667	0,5	-2,128350
13,292000	0,5	-2,156150
13,300333	0,5	-2,170550
13,308667	0,5	-2,190950
13,317000	0,5	-2,217000
13,325333	0,5	-2,233050
13,333667	0,5	-2,249350
13,342000	0,5	-2,273250
13,350333	0,5	-2,282800
13,358667	0,5	-2,285450
13,367000	0,5	-2,293400
13,375333	0,5	-2,299250
13,383667	0,5	-2,313550
13,392000	0,5	-2,306350
13,400333	0,5	-2,308100
13,408667	0,5	-2,300350
13,417000	0,5	-2,303450
13,425333	0,5	-2,304150
13,433667	0,5	-2,307100
13,442000	0,5	-2,296200
13,450333	0,5	-2,285900
13,458667	0,5	-2,276100
13,467000	0,5	-2,266000
13,475333	0,5	-2,243550
13,483667	0,5	-2,224950
13,492000	0,5	-2,200700
13,500333	0,5	-2,167350
13,508667	0,5	-2,131850
13,517000	0,5	-2,106400
13,525333	0,5	-2,080700
13,533667	0,5	-2,060650
13,542000	0,5	-2,041100
13,550333	0,5	-2,016150
13,558667	0,5	-2,000050
13,567000	0,5	-1,984050
13,575333	0,5	-1,961300
13,583667	0,5	-1,931500
13,592000	0,5	-1,901650
13,600333	0,5	-1,869300
13,608667	0,5	-1,845900
13,617000	0,5	-1,837650
13,625333	0,5	-1,833750
13,633667	0,5	-1,836500
13,642000	0,5	-1,844400
13,650333	0,5	-1,843150
13,658667	0,5	-1,857900
13,667000	0,5	-1,870450
13,675333	0,5	-1,879200
13,683667	0,5	-1,873050
13,692000	0,5	-1,855950
13,700333	0,5	-1,840950
13,708667	0,5	-1,836000
13,717000	0,5	-1,822100
13,725333	0,5	-1,820600
13,733667	0,5	-1,824950
13,742000	0,5	-1,827050
13,750333	0,5	-1,837400
13,758667	0,5	-1,846750
13,767000	0,5	-1,862350
13,775333	0,5	-1,857300
13,783667	0,5	-1,868100
13,792000	0,5	-1,849750
13,800333	0,5	-1,841250
13,808667	0,5	-1,831200
13,817000	0,5	-1,828650
13,825333	0,5	-1,816250
13,833667	0,5	-1,798700
13,842000	0,5	-1,779150
13,850333	0,5	-1,761850
13,858667	0,5	-1,743250
13,867000	0,5	-1,737400
13,875333	0,5	-1,717050
13,883667	0,5	-1,699200
13,892000	0,5	-1,685950
13,900333	0,5	-1,666500
13,908667	0,5	-1,651250
13,917000	0,5	-1,617700
13,925333	0,5	-1,600100
13,933667	0,5	-1,585300
13,942000	0,5	-1,555200
13,950333	0,5	-1,531250
13,958667	0,5	-1,506850
13,967000	0,5	-1,490500
13,975333	0,5	-1,483100
13,983667	0,5	-1,445650
13,992000	0,5	-1,424800
14,000333	0,5	-1,404450
14,008667	0,5	-1,386050
14,017000	0,5	-1,371650
14,025333	0,5	-1,353600
14,033667	0,5	-1,330350
14,042000	0,5	-1,311000
14,050333	0,5	-1,292900
14,058667	0,5	-1,266400
14,067000	0,5	-1,238250
14,075333	0,5	-1,213400
14,083667	0,5	-1,176850
14,092000	0,5	-1,129400
14,100333	0,5	-1,098150
14,108667	0,5	-1,064100
14,117000	0,5	-1,043550
14,125333	0,5	-1,003500
14,133667	0,5	-0,968400
14,142000	0,5	-0,932200
14,150333	0,5	-0,905800
14,158667	0,5	-0,870250
14,167000	0,5	-0,846550
14,175333	0,5	-0,836100
14,183667	0,5	-0,803150
14,192000	0,5	-0,783700
14,200333	0,5	-0,750000
14,208667	0,5	-0,717700
14,217000	0,5	-0,692750
14,225333	0,5	-0,662650
14,233667	0,5	-0,616150
14,242000	0,5	-0,578250
14,250333	0,5	-0,540700
14,258667	0,5	-0,498700
14,267000	0,5	-0,455350
14,275333	0,5	-0,402300
14,283667	0,5	-0,327700
14,292000	0,5	-0,252050
14,300333	0,5	-0,144800
14,308667	0,5	-0,038750
14,317000	0,5	0,071700
14,325333	0,5	0,181150
14,333667	0,5	0,273550
14,342000	0,5	0,342500
14,350333	0,5	0,381150
14,358667	0,5	0,411100
14,367000	0,5	0,396300
14,375333	0,5	0,357700
14,383667	0,5	0,345250
14,392000	0,5	0,335050
14,400333	0,5	0,323850
14,408667	0,5	0,327650
14,417000	0,5	0,346200
14,425333	0,5	0,399550
14,433667	0,5	0,452050
14,442000	0,5	0,501600
14,450333	0,5	0,532900
14,458667	0,5	0,551950
14,467000	0,5	0,539300
14,475333	0,5	0,510450
14,483667	0,5	0,470850
14,492000	0,5	0,429300
14,500333	0,5	0,386750
14,508667	0,5	0,364050
14,517000	0,5	0,325650
14,525333	0,5	0,316700
14,533667	0,5	0,307150
14,542000	0,5	0,301500
14,550333	0,5	0,290600
14,558667	0,5	0,261500
14,567000	0,5	0,257950
14,575333	0,5	0,256150
14,583667	0,5	0,252000
14,592000	0,5	0,247400
14,600333	0,5	0,247550
14,608667	0,5	0,247800
14,617000	0,5	0,238600
14,625333	0,5	0,244350
14,633667	0,5	0,244950
14,642000	0,5	0,239400
14,650333	0,5	0,237850
14,658667	0,5	0,241850
14,667000	0,5	0,240200
14,675333	0,5	0,254650
14,683667	0,5	0,272200
14,692000	0,5	0,290850
14,700333	0,5	0,298800
14,708667	0,5	0,293500
14,717000	0,5	0,291500
14,725333	0,5	0,292000
14,733667	0,5	0,277800
14,742000	0,5	0,259750
14,750333	0,5	0,239100
14,758667	0,5	0,223100
14,767000	0,5	0,207000
14,775333	0,5	0,199700
14,783667	0,5	0,183350
14,792000	0,5	0,174150
14,800333	0,5	0,171750
14,808667	0,5	0,175050
14,817000	0,5	0,159450
14,825333	0,5	0,172450
14,833667	0,5	0,171650
14,842000	0,5	0,179450
14,850333	0,5	0,169300
14,858667	0,5	0,168600
14,867000	0,5	0,191950
14,875333	0,5	0,229850
14,883667	0,5	0,278850
14,892000	0,5	0,355700
14,900333	0,5	0,460150
14,908667	0,5	0,570050
14,917000	0,5	0,662200
14,925333	0,5	0,717200
14,933667	0,5	0,716800
14,942000	0,5	0,675650
14,950333	0,5	0,613450
14,958667	0,5	0,535950
14,967000	0,5	0,477900
14,975333	0,5	0,466850
14,983667	0,5	0,464800
14,992000	0,5	0,494800
15,000333	0,5	0,533550
15,008667	0,5	0,571800
15,017000	0,5	0,591800
15,025333	0,5	0,580100
15,033667	0,5	0,535100
15,042000	0,5	0,476800
15,050333	0,5	0,414250
15,058667	0,5	0,366500
15,067000	0,5	0,321200
15,075333	0,5	0,300200
15,083667	0,5	0,258100
15,092000	0,5	0,243100
15,100333	0,5	0,224700
15,108667	0,5	0,210350
15,117000	0,5	0,207400
15,125333	0,5	0,214200
15,133667	0,5	0,217250
15,142000	0,5	0,216900
15,150333	0,5	0,211100
15,158667	0,5	0,218850
15,167000	0,5	0,233750
15,175333	0,5	0,244000
15,183667	0,5	0,237150
15,192000	0,5	0,226600
15,200333	0,5	0,222300
15,208667	0,5	0,212100
15,217000	0,5	0,208950
15,225333	0,5	0,197650
15,233667	0,5	0,184000
15,242000	0,5	0,174000
15,250333	0,5	0,156550
15,258667	0,5	0,130350
15,267000	0,5	0,122950
15,275333	0,5	0,109150
15,283667	0,5	0,099500
15,292000	0,5	0,066950
15,300333	0,5	0,051800
15,308667	0,5	0,047200
15,317000	0,5	0,053650
15,325333	0,5	0,045300
15,333667	0,5	0,039850
15,342000	0,5	0,039500
15,350333	0,5	0,046500
15,358667	0,5	0,041700
15,367000	0,5	0,059300
15,375333	0,5	0,078300
15,383667	0,5	0,124050
15,392000	0,5	0,199400
15,400333	0,5	0,280950
15,408667	0,5	0,407650
15,417000	0,5	0,525150
15,425333	0,5	0,612350
15,433667	0,5	0,638500
15,442000	0,5	0,602300
15,450333	0,5	0,538750
15,458667	0,5	0,491000
15,467000	0,5	0,437400
15,475333	0,5	0,434650
15,483667	0,5	0,455300
15,492000	0,5	0,494200
15,500333	0,5	0,517050
15,508667	0,5	0,524300
15,517000	0,5	0,495350
15,525333	0,5	0,440000
15,533667	0,5	0,381550
15,542000	0,5	0,330800
15,550333	0,5	0,268750
15,558667	0,5	0,250550
15,567000	0,5	0,231500
15,575333	0,5	0,230900
15,583667	0,5	0,217700
15,592000	0,5	0,192550
15,600333	0,5	0,200250
15,608667	0,5	0,194200
15,617000	0,5	0,183600
15,625333	0,5	0,165200
15,633667	0,5	0,157700
15,642000	0,5	0,144750
15,650333	0,5	0,139450
15,658667	0,5	0,132450
15,667000	0,5	0,122150
15,675333	0,5	0,112600
15,683667	0,5	0,107550
15,692000	0,5	0,086450
15,700333	0,5	0,051050
15,708667	0,5	0,039650
15,717000	0,5	0,020450
15,725333	0,5	0,000100
15,733667	0,5	-0,023050
15,742000	0,5	-0,048650
15,750333	0,5	-0,055900
15,758667	0,5	-0,065450
15,767000	0,5	-0,067200
15,775333	0,5	-0,076650
15,783667	0,5	-0,085900
15,792000	0,5	-0,083500
15,800333	0,5	-0,094250
15,808667	0,5	-0,081600
15,817000	0,5	-0,075850
15,825333	0,5	-0,052050
15,833667	0,5	-0,008200
15,842000	0,5	0,060200
15,850333	0,5	0,148900
15,858667	0,5	0,280200
15,867000	0,5	0,395400
15,875333	0,5	0,474300
15,883667	0,5	0,495950
15,892000	0,5	0,473250
15,900333	0,5	0,440500
15,908667	0,5	0,397750
15,917000	0,5	0,377900
15,925333	0,5	0,379600
15,933667	0,5	0,401900
15,942000	0,5	0,400050
15,950333	0,5	0,388150
15,958667	0,5	0,344950
15,967000	0,5	0,295700
15,975333	0,5	0,232750
15,983667	0,5	0,189050
15,992000	0,5	0,133900
16,000333	0,5	0,099550
16,008667	0,5	0,068750
16,017000	0,5	0,048350
16,025333	0,5	0,015600
16,033667	0,5	0,003850
16,042000	0,5	-0,001900
16,050333	0,5	0,011850
16,058667	0,5	0,017000
16,067000	0,5	0,021100
16,075333	0,5	0,017100
16,083667	0,5	0,007900
16,092000	0,5	0,006050
16,100333	0,5	-0,014200
16,108667	0,5	-0,038200
16,117000	0,5	-0,063950
16,125333	0,5	-0,064400
16,133667	0,5	-0,100600
16,142000	0,5	-0,118050
16,150333	0,5	-0,129100
16,158667	0,5	-0,141150
16,167000	0,5	-0,160700
16,175333	0,5	-0,177600
16,183667	0,5	-0,196800
16,192000	0,5	-0,194900
16,200333	0,5	-0,189800
16,208667	0,5	-0,195400
16,217000	0,5	-0,191650
16,225333	0,5	-0,172750
16,233667	0,5	-0,147350
16,242000	0,5	-0,098550
16,250333	0,5	-0,020700
16,258667	0,5	0,082750
16,267000	0,5	0,212650
16,275333	0,5	0,328000
16,283667	0,5	0,400550
16,292000	0,5	0,437050
16,300333	0,5	0,439200
16,308667	0,5	0,406400
16,317000	0,5	0,385300
16,325333	0,5	0,364500
16,333667	0,5	0,370000
16,342000	0,5	0,364500
16,350333	0,5	0,326700
16,358667	0,5	0,257950
16,367000	0,5	0,191700
16,375333	0,5	0,120900
16,383667	0,5	0,067450
16,392000	0,5	0,040800
16,400333	0,5	0,014150
16,408667	0,5	-0,000300
16,417000	0,5	-0,007750
16,425333	0,5	-0,002600
16,433667	0,5	-0,017250
16,442000	0,5	-0,006950
16,450333	0,5	-0,003600
16,458667	0,5	-0,013650
16,467000	0,5	-0,034950
16,475333	0,5	-0,070050
16,483667	0,5	-0,081350
16,492000	0,5	-0,096950
16,500333	0,5	-0,136250
16,508667	0,5	-0,156950
16,517000	0,5	-0,184800
16,525333	0,5	-0,205850
16,533667	0,5	-0,225200
16,542000	0,5	-0,247000
16,550333	0,5	-0,260150
16,558667	0,5	-0,276950
16,567000	0,5	-0,283650
16,575333	0,5	-0,287200
16,583667	0,5	-0,292450
16,592000	0,5	-0,260650
16,600333	0,5	-0,216250
16,608667	0,5	-0,154450
16,617000	0,5	-0,069100
16,625333	0,5	0,037550
16,633667	0,5	0,186700
16,642000	0,5	0,288150
16,650333	0,5	0,359700
16,658667	0,5	0,374000
16,667000	0,5	0,372550
16,675333	0,5	0,353800
16,683667	0,5	0,342850
16,692000	0,5	0,329350
16,700333	0,5	0,303300
16,708667	0,5	0,257500
16,717000	0,5	0,224350
16,725333	0,5	0,166350
16,733667	0,5	0,158650
16,742000	0,5	0,147750
16,750333	0,5	0,147950
16,758667	0,5	0,141050
16,767000	0,5	0,118150
16,775333	0,5	0,128750
16,783667	0,5	0,133850
16,792000	0,5	0,144400
16,800333	0,5	0,149150
16,808667	0,5	0,152000
16,817000	0,5	0,149850
16,825333	0,5	0,134800
16,833667	0,5	0,123350
16,842000	0,5	0,097400
16,850333	0,5	0,062850
16,858667	0,5	0,009300
16,867000	0,5	-0,031400
16,875333	0,5	-0,076900
16,883667	0,5	-0,105050
16,892000	0,5	-0,129500
16,900333	0,5	-0,162500
16,908667	0,5	-0,189350
16,917000	0,5	-0,213600
16,925333	0,5	-0,203450
16,933667	0,5	-0,160850
16,942000	0,5	-0,089000
16,950333	0,5	0,007800
16,958667	0,5	0,111600
16,967000	0,5	0,214900
16,975333	0,5	0,277800
16,983667	0,5	0,301550
16,992000	0,5	0,284950
17,000333	0,5	0,262750
17,008667	0,5	0,234650
17,017000	0,5	0,198900
17,025333	0,5	0,137450
17,033667	0,5	0,100350
17,042000	0,5	0,036800
17,050333	0,5	-0,012300
17,058667	0,5	-0,057800
17,067000	0,5	-0,094300
17,075333	0,5	-0,101100
17,083667	0,5	-0,107350
17,092000	0,5	-0,106550
17,100333	0,5	-0,112800
17,108667	0,5	-0,111450
17,117000	0,5	-0,113650
17,125333	0,5	-0,119650
17,133667	0,5	-0,134700
17,142000	0,5	-0,143300
17,150333	0,5	-0,148900
17,158667	0,5	-0,146950
17,167000	0,5	-0,162600
17,175333	0,5	-0,153400
17,183667	0,5	-0,143950
17,192000	0,5	-0,123900
17,200333	0,5	-0,089400
17,208667	0,5	-0,056950
17,217000	0,5	0,030000
17,225333	0,5	0,142600
17,233667	0,5	0,300100
17,242000	0,5	0,506650
17,250333	0,5	0,763500
17,258667	0,5	1,036600
17,267000	0,5	1,303950
17,275333	0,5	1,545900
17,283667	0,5	1,759550
17,292000	0,5	1,926250
17,300333	0,5	2,078250
17,308667	0,5	2,174050
17,317000	0,5	2,252550
17,325333	0,5	2,310400
17,333667	0,5	2,346250
17,342000	0,5	2,351100
17,350333	0,5	2,322450
17,358667	0,5	2,253150
17,367000	0,5	2,175800
17,375333	0,5	2,044450
17,383667	0,5	1,882650
17,392000	0,5	1,694800
17,400333	0,5	1,501000
17,408667	0,5	1,304350
17,417000	0,5	1,126450
17,425333	0,5	0,968700
17,433667	0,5	0,817800
17,442000	0,5	0,708750
17,450333	0,5	0,620200
17,458667	0,5	0,542200
17,467000	0,5	0,500000
17,475333	0,5	0,478850
17,483667	0,5	0,459850
17,492000	0,5	0,457700
17,500333	0,5	0,459800
17,508667	0,5	0,497700
17,517000	0,5	0,564450
17,525333	0,5	0,629000
17,533667	0,5	0,678600
17,542000	0,5	0,729800
17,550333	0,5	0,750150
17,558667	0,5	0,761050
17,567000	0,5	0,752950
17,575333	0,5	0,737750
17,583667	0,5	0,714150
17,592000	0,5	0,679150
17,600333	0,5	0,667000
17,608667	0,5	0,616150
17,617000	0,5	0,611650
17,625333	0,5	0,577850
17,633667	0,5	0,543850
17,642000	0,5	0,481750
17,650333	0,5	0,402200
17,658667	0,5	0,349700
17,667000	0,5	0,295300
17,675333	0,5	0,222850
17,683667	0,5	0,160250
17,692000	0,5	0,103000
17,700333	0,5	0,062600
17,708667	0,5	0,015150
17,717000	0,5	-0,015900
17,725333	0,5	-0,030950
17,733667	0,5	-0,043500
17,742000	0,5	-0,028950
17,750333	0,5	0,011150
17,758667	0,5	0,043400
17,767000	0,5	0,102650
17,775333	0,5	0,147550
17,783667	0,5	0,158850
17,792000	0,5	0,148250
17,800333	0,5	0,095500
17,808667	0,5	0,074150
17,817000	0,5	0,016750
17,825333	0,5	-0,029650
17,833667	0,5	-0,085400
17,842000	0,5	-0,116850
17,850333	0,5	-0,149350
17,858667	0,5	-0,166800
17,867000	0,5	-0,191050
17,875333	0,5	-0,191250
17,883667	0,5	-0,233350
17,892000	0,5	-0,249400
17,900333	0,5	-0,268350
17,908667	0,5	-0,283650
17,917000	0,5	-0,283700
17,925333	0,5	-0,289650
17,933667	0,5	-0,300800
17,942000	0,5	-0,322750
17,950333	0,5	-0,322650
17,958667	0,5	-0,282750
17,967000	0,5	-0,228600
17,975333	0,5	-0,178100
17,983667	0,5	-0,107050
17,992000	0,5	-0,062050
18,000333	0,5	-0,036350
18,008667	0,5	-0,035300
18,017000	0,5	-0,055450
18,025333	0,5	-0,094600
18,033667	0,5	-0,130100
18,042000	0,5	-0,174400
18,050333	0,5	-0,223300
18,058667	0,5	-0,235850
18,067000	0,5	-0,250700
18,075333	0,5	-0,275200
18,083667	0,5	-0,302750
18,092000	0,5	-0,322350
18,100333	0,5	-0,338650
18,108667	0,5	-0,332700
18,117000	0,5	-0,340900
18,125333	0,5	-0,335950
18,133667	0,5	-0,333750
18,142000	0,5	-0,329900
18,150333	0,5	-0,310800
18,158667	0,5	-0,273000
18,167000	0,5	-0,223650
18,175333	0,5	-0,172700
18,183667	0,5	-0,111150
18,192000	0,5	-0,084250
18,200333	0,5	-0,092250
18,208667	0,5	-0,089850
18,217000	0,5	-0,118050
18,225333	0,5	-0,146100
18,233667	0,5	-0,198150
18,242000	0,5	-0,240050
18,250333	0,5	-0,262350
18,258667	0,5	-0,275150
18,267000	0,5	-0,280750
18,275333	0,5	-0,294350
18,283667	0,5	-0,295350
18,292000	0,5	-0,306250
18,300333	0,5	-0,297800
18,308667	0,5	-0,306500
18,317000	0,5	-0,304050
18,325333	0,5	-0,294400
18,333667	0,5	-0,256650
18,342000	0,5	-0,248100
18,350333	0,5	-0,208200
18,358667	0,5	-0,157750
18,367000	0,5	-0,123700
18,375333	0,5	-0,115150
18,383667	0,5	-0,149000
18,392000	0,5	-0,165050
18,400333	0,5	-0,191950
18,408667	0,5	-0,214400
18,417000	0,5	-0,249800
18,425333	0,5	-0,268300
18,433667	0,5	-0,291350
18,442000	0,5	-0,300100
18,450333	0,5	-0,315900
18,458667	0,5	-0,315800
18,467000	0,5	-0,326350
18,475333	0,5	-0,323100
18,483667	0,5	-0,326500
18,492000	0,5	-0,337900
18,500333	0,5	-0,312000
18,508667	0,5	-0,287500
18,517000	0,5	-0,272800
18,525333	0,5	-0,254100
18,533667	0,5	-0,247200
18,542000	0,5	-0,226300
18,550333	0,5	-0,227350
18,558667	0,5	-0,251950
18,567000	0,5	-0,270800
18,575333	0,5	-0,292300
18,583667	0,5	-0,313000
18,592000	0,5	-0,337700
18,600333	0,5	-0,344450
18,608667	0,5	-0,370700
18,617000	0,5	-0,379650
18,625333	0,5	-0,386800
18,633667	0,5	-0,395700
18,642000	0,5	-0,408900
18,650333	0,5	-0,391950
18,658667	0,5	-0,391600
18,667000	0,5	-0,395300
18,675333	0,5	-0,407200
18,683667	0,5	-0,402050
18,692000	0,5	-0,373700
18,700333	0,5	-0,370050
18,708667	0,5	-0,374650
18,717000	0,5	-0,386500
18,725333	0,5	-0,402800
18,733667	0,5	-0,434750
18,742000	0,5	-0,449650
18,750333	0,5	-0,469700
18,758667	0,5	-0,481200
18,767000	0,5	-0,498550
18,775333	0,5	-0,489300
18,783667	0,5	-0,510150
18,792000	0,5	-0,503450
18,800333	0,5	-0,510500
18,808667	0,5	-0,504050
18,817000	0,5	-0,511100
18,825333	0,5	-0,506200
18,833667	0,5	-0,477600
18,842000	0,5	-0,446650
18,850333	0,5	-0,433300
18,858667	0,5	-0,433500
18,867000	0,5	-0,432900
18,875333	0,5	-0,436450
18,883667	0,5	-0,442400
18,892000	0,5	-0,419000
18,900333	0,5	-0,416850
18,908667	0,5	-0,421100
18,917000	0,5	-0,408650
18,925333	0,5	-0,414600
18,933667	0,5	-0,426350
18,942000	0,5	-0,414000
18,950333	0,5	-0,405200
18,958667	0,5	-0,400800
18,967000	0,5	-0,422200
18,975333	0,5	-0,456750
18,983667	0,5	-0,470000
18,992000	0,5	-0,495800
19,000333	0,5	-0,522750
19,008667	0,5	-0,555400
19,017000	0,5	-0,574000
19,025333	0,5	-0,604750
19,033667	0,5	-0,620800
19,042000	0,5	-0,620100
19,050333	0,5	-0,629400
19,058667	0,5	-0,612700
19,067000	0,5	-0,604350
19,075333	0,5	-0,598900
19,083667	0,5	-0,597350
19,092000	0,5	-0,590000
19,100333	0,5	-0,610400
19,108667	0,5	-0,642650
19,117000	0,5	-0,689750
19,125333	0,5	-0,714700
19,133667	0,5	-0,726500
19,142000	0,5	-0,726650
19,150333	0,5	-0,741450
19,158667	0,5	-0,726850
19,167000	0,5	-0,740000
19,175333	0,5	-0,730950
19,183667	0,5	-0,723050
19,192000	0,5	-0,713250
19,200333	0,5	-0,711500
19,208667	0,5	-0,709550
19,217000	0,5	-0,713850
19,225333	0,5	-0,735550
19,233667	0,5	-0,735450
19,242000	0,5	-0,744650
19,250333	0,5	-0,754400
19,258667	0,5	-0,782150
19,267000	0,5	-0,814000
19,275333	0,5	-0,824450
19,283667	0,5	-0,814250
19,292000	0,5	-0,827850
19,300333	0,5	-0,830300
19,308667	0,5	-0,836200
19,317000	0,5	-0,853300
19,325333	0,5	-0,867600
19,333667	0,5	-0,879500
19,342000	0,5	-0,897200
19,350333	0,5	-0,911600
19,358667	0,5	-0,897600
19,367000	0,5	-0,906600
19,375333	0,5	-0,918400
19,383667	0,5	-0,909800
19,392000	0,5	-0,917550
19,400333	0,5	-0,934600
19,408667	0,5	-0,959900
19,417000	0,5	-0,981900
19,425333	0,5	-0,978300
19,433667	0,5	-0,983050
19,442000	0,5	-0,983600
19,450333	0,5	-0,991400
19,458667	0,5	-0,984700
19,467000	0,5	-1,010100
19,475333	0,5	-1,022050
19,483667	0,5	-1,029250
19,492000	0,5	-1,040850
19,500333	0,5	-1,041700
19,508667	0,5	-1,038050
19,517000	0,5	-1,059100
19,525333	0,5	-1,056650
19,533667	0,5	-1,057750
19,542000	0,5	-1,062850
19,550333	0,5	-1,068950
19,558667	0,5	-1,101100
19,567000	0,5	-1,095350
19,575333	0,5	-1,112050
19,583667	0,5	-1,111050
19,592000	0,5	-1,114300
19,600333	0,5	-1,105950
19,608667	0,5	-1,117150
19,617000	0,5	-1,117200
19,625333	0,5	-1,115950
19,633667	0,5	-1,122950
19,642000	0,5	-1,136700
19,650333	0,5	-1,142850
19,658667	0,5	-1,150150
19,667000	0,5	-1,172150
19,675333	0,5	-1,167750
19,683667	0,5	-1,174900
19,692000	0,5	-1,180200
19,700333	0,5	-1,212950
19,708667	0,5	-1,246050
19,717000	0,5	-1,247300
19,725333	0,5	-1,242150
19,733667	0,5	-1,246800
19,742000	0,5	-1,246750
19,750333	0,5	-1,250500
19,758667	0,5	-1,265800
19,767000	0,5	-1,269800
19,775333	0,5	-1,272500
19,783667	0,5	-1,285750
19,792000	0,5	-1,287550
19,800333	0,5	-1,279450
19,808667	0,5	-1,288350
19,817000	0,5	-1,307500
19,825333	0,5	-1,313150
19,833667	0,5	-1,328250
19,842000	0,5	-1,351550
19,850333	0,5	-1,385750
19,858667	0,5	-1,413500
19,867000	0,5	-1,406300
19,875333	0,5	-1,423800
19,883667	0,5	-1,444550
19,892000	0,5	-1,456050
19,900333	0,5	-1,467000
19,908667	0,5	-1,488350
19,917000	0,5	-1,485800
19,925333	0,5	-1,504950
19,933667	0,5	-1,507800
19,942000	0,5	-1,516600
19,950333	0,5	-1,511250
19,958667	0,5	-1,538850
19,967000	0,5	-1,539150
19,975333	0,5	-1,535700
19,983667	0,5	-1,560500
19,992000	0,5	-1,582100
20,000333	0,5	-1,610200
20,008667	0,5	-1,610350
20,017000	0,5	-1,621000
20,025333	0,5	-1,624150
20,033667	0,5	-1,628100
20,042000	0,5	-1,630500
20,050333	0,5	-1,633700
20,058667	0,5	-1,636800
20,067000	0,5	-1,645200
20,075333	0,5	-1,656000
20,083667	0,5	-1,676200
20,092000	0,5	-1,667950
20,100333	0,5	-1,694100
20,108667	0,5	-1,705650
20,117000	0,5	-1,711850
20,125333	0,5	-1,730750
20,133667	0,5	-1,747600
20,142000	0,5	-1,786050
20,150333	0,5	-1,807550
20,158667	0,5	-1,825100
20,167000	0,5	-1,828500
20,175333	0,5	-1,846350
20,183667	0,5	-1,859050
20,192000	0,5	-1,880300
20,200333	0,5	-1,884450
20,208667	0,5	-1,899600
20,217000	0,5	-1,905050
20,225333	0,5	-1,917450
20,233667	0,5	-1,919350
20,242000	0,5	-1,917000
20,250333	0,5	-1,947900
20,258667	0,5	-1,949000
20,267000	0,5	-1,947550
20,275333	0,5	-1,963050
20,283667	0,5	-1,979750
20,292000	0,5	-2,023850
20,300333	0,5	-2,034200
20,308667	0,5	-2,032250
20,317000	0,5	-2,048800
20,325333	0,5	-2,071300
20,333667	0,5	-2,086150
20,342000	0,5	-2,092000
20,350333	0,5	-2,105700
20,358667	0,5	-2,107400
20,367000	0,5	-2,126450
20,375333	0,5	-2,137300
20,383667	0,5	-2,134250
20,392000	0,5	-2,144350
20,400333	0,5	-2,184250
20,408667	0,5	-2,183700
20,417000	0,5	-2,198600
20,425333	0,5	-2,220650
20,433667	0,5	-2,266000
20,442000	0,5	-2,304550
20,450333	0,5	-2,307650
20,458667	0,5	-2,322900
20,467000	0,5	-2,330600
20,475333	0,5	-2,360250
20,483667	0,5	-2,382550
20,492000	0,5	-2,419550
20,500333	0,5	-2,431350
20,508667	0,5	-2,448250
20,517000	0,5	-2,468750
20,525333	0,5	-2,483150
20,533667	0,5	-2,479300
20,542000	0,5	-2,496750
20,550333	0,5	-2,510550
20,558667	0,5	-2,527150
20,567000	0,5	-2,545350
20,575333	0,5	-2,586300
20,583667	0,5	-2,632000
20,592000	0,5	-2,653050
20,600333	0,5	-2,675400
20,608667	0,5	-2,678600
20,617000	0,5	-2,689100
20,625333	0,5	-2,695900
20,633667	0,5	-2,715750
20,642000	0,5	-2,744700
20,650333	0,5	-2,777450
20,658667	0,5	-2,815000
20,667000	0,5	-2,857800
20,675333	0,5	-2,874050
20,683667	0,5	-2,895100
20,692000	0,5	-2,933550
20,700333	0,5	-2,973100
20,708667	0,5	-2,992450
20,717000	0,5	-3,032300
20,725333	0,5	-3,079750
20,733667	0,5	-3,144650
20,742000	0,5	-3,160350
20,750333	0,5	-3,174550
20,758667	0,5	-3,196900
20,767000	0,5	-3,217050
20,775333	0,5	-3,213450
20,783667	0,5	-3,217550
20,792000	0,5	-3,218250
20,800333	0,5	-3,231750
20,808667	0,5	-3,256900
20,817000	0,5	-3,285650
20,825333	0,5	-3,304300
20,833667	0,5	-3,343350
20,842000	0,5	-3,403250
20,850333	0,5	-3,448500
20,858667	0,5	-3,507000
20,867000	0,5	-3,556400
20,875333	0,5	-3,619800
20,883667	0,5	-3,682300
20,892000	0,5	-3,715850
20,900333	0,5	-3,738400
20,908667	0,5	-3,789250
20,917000	0,5	-3,811150
20,925333	0,5	-3,834650
20,933667	0,5	-3,871750
20,942000	0,5	-3,888800
20,950333	0,5	-3,916250
20,958667	0,5	-3,928200
20,967000	0,5	-3,944000
20,975333	0,5	-3,948200
20,983667	0,5	-3,982600
20,992000	0,5	-4,018100
21,000333	0,5	-4,069150
21,008667	0,5	-4,115950
21,017000	0,5	-4,172500
21,025333	0,5	-4,220150
21,033667	0,5	-4,256700
21,042000	0,5	-4,286000
21,050333	0,5	-4,321200
21,058667	0,5	-4,347350
21,067000	0,5	-4,369000
21,075333	0,5	-4,399750
21,083667	0,5	-4,435400
21,092000	0,5	-4,457000
21,100333	0,5	-4,476600
21,108667	0,5	-4,516050
21,117000	0,5	-4,503550
21,125333	0,5	-4,517600
21,133667	0,5	-4,543750
21,142000	0,5	-4,572600
21,150333	0,5	-4,593000
21,158667	0,5	-4,642450
21,167000	0,5	-4,693600
21,175333	0,5	-4,731050
21,183667	0,5	-4,764250
21,192000	0,5	-4,790850
21,200333	0,5	-4,810300
21,208667	0,5	-4,839250
21,217000	0,5	-4,866950
21,225333	0,5	-4,890250
21,233667	0,5	-4,913100
21,242000	0,5	-4,921900
21,250333	0,5	-4,952250
21,258667	0,5	-4,948300
21,267000	0,5	-4,938550
21,275333	0,5	-4,952550
21,283667	0,5	-4,969600
21,292000	0,5	-4,985250
21,300333	0,5	-5,009400
21,308667	0,5	-5,032150
21,317000	0,5	-5,099550
21,325333	0,5	-5,097550
21,333667	0,5	-5,093800
21,342000	0,5	-5,093100
21,350333	0,5	-5,097450
21,358667	0,5	-5,101450
21,367000	0,5	-5,121200
21,375333	0,5	-5,148250
21,383667	0,5	-5,171550
21,392000	0,5	-5,204650
21,400333	0,5	-5,223300
21,408667	0,5	-5,210500
21,417000	0,5	-5,207400
21,425333	0,5	-5,246450
21,433667	0,5	-5,258850
21,442000	0,5	-5,294100
21,450333	0,5	-5,318050
21,458667	0,5	-5,361750
21,467000	0,5	-5,386200
21,475333	0,5	-5,398900
21,483667	0,5	-5,404050
21,492000	0,5	-5,424550
21,500333	0,5	-5,440000
21,508667	0,5	-5,460550
21,517000	0,5	-5,482950
21,525333	0,5	-5,505850
21,533667	0,5	-5,517050
21,542000	0,5	-5,530750
21,550333	0,5	-5,537900
21,558667	0,5	-5,521550
21,567000	0,5	-5,527700
21,575333	0,5	-5,547450
21,583667	0,5	-5,569750
21,592000	0,5	-5,603750
21,600333	0,5	-5,633450
21,608667	0,5	-5,686200
21,617000	0,5	-5,690250
21,625333	0,5	-5,704100
21,633667	0,5	-5,723650
21,642000	0,5	-5,729900
21,650333	0,5	-5,743500
21,658667	0,5	-5,752200
21,667000	0,5	-5,751550
21,675333	0,5	-5,759800
21,683667	0,5	-5,756950
21,692000	0,5	-5,776050
21,700333	0,5	-5,734900
21,708667	0,5	-5,705900
21,717000	0,5	-5,715250
21,725333	0,5	-5,719900
21,733667	0,5	-5,754650
21,742000	0,5	-5,792050
21,750333	0,5	-5,832650
21,758667	0,5	-5,887350
21,767000	0,5	-5,889000
21,775333	0,5	-5,906000
21,783667	0,5	-5,912300
21,792000	0,5	-5,930950
21,800333	0,5	-5,943800
21,808667	0,5	-5,962400
21,817000	0,5	-5,976550
21,825333	0,5	-5,983000
21,833667	0,5	-6,018850
21,842000	0,5	-6,012500
21,850333	0,5	-5,986150
21,858667	0,5	-5,991250
21,867000	0,5	-5,996450
21,875333	0,5	-5,995750
21,883667	0,5	-6,005650
21,892000	0,5	-6,011050
21,900333	0,5	-6,029450
21,908667	0,5	-6,043000
21,917000	0,5	-6,037450
21,925333	0,5	-6,031300
21,933667	0,5	-6,033500
21,942000	0,5	-6,026400
21,950333	0,5	-6,011550
21,958667	0,5	-6,000650
21,967000	0,5	-5,963150
21,975333	0,5	-5,922450
21,983667	0,5	-5,881600
21,992000	0,5	-5,855550
22,000333	0,5	-5,837500
22,008667	0,5	-5,865300
22,017000	0,5	-5,872500
22,025333	0,5	-5,904200
22,033667	0,5	-5,917750
22,042000	0,5	-5,972950
22,050333	0,5	-5,990100
22,058667	0,5	-5,993300
22,067000	0,5	-5,997400
22,075333	0,5	-6,020350
22,083667	0,5	-6,028850
22,092000	0,5	-6,046600
22,100333	0,5	-6,060750
22,108667	0,5	-6,066450
22,117000	0,5	-6,097400
22,125333	0,5	-6,111350
22,133667	0,5	-6,135400
22,142000	0,5	-6,147100
22,150333	0,5	-6,187250
22,158667	0,5	-6,190300
22,167000	0,5	-6,204300
22,175333	0,5	-6,233250
22,183667	0,5	-6,254900
22,192000	0,5	-6,286050
22,200333	0,5	-6,306100
22,208667	0,5	-6,326650
22,217000	0,5	-6,340800
22,225333	0,5	-6,357150
22,233667	0,5	-6,367400
22,242000	0,5	-6,402350
22,250333	0,5	-6,403150
22,258667	0,5	-6,420500
22,267000	0,5	-6,436700
22,275333	0,5	-6,447650
22,283667	0,5	-6,451400
22,292000	0,5	-6,478800
22,300333	0,5	-6,477650
22,308667	0,5	-6,463750
22,317000	0,5	-6,464150
22,325333	0,5	-6,469600
22,333667	0,5	-6,478300
22,342000	0,5	-6,486350
22,350333	0,5	-6,464050
22,358667	0,5	-6,442650
22,367000	0,5	-6,444050
22,375333	0,5	-6,418400
22,383667	0,5	-6,400750
22,392000	0,5	-6,371650
22,400333	0,5	-6,319750
22,408667	0,5	-6,261750
22,417000	0,5	-6,234150
22,425333	0,5	-6,241600
22,433667	0,5	-6,314550
22,442000	0,5	-6,366500
22,450333	0,5	-6,381400
22,458667	0,5	-6,399900
22,467000	0,5	-6,421600
22,475333	0,5	-6,447500
22,483667	0,5	-6,498250
22,492000	0,5	-6,498900
22,500333	0,5	-6,506700
22,508667	0,5	-6,510950
22,517000	0,5	-6,525450
22,525333	0,5	-6,526600
22,533667	0,5	-6,524750
22,542000	0,5	-6,535650
22,550333	0,5	-6,538250
22,558667	0,5	-6,550150
22,567000	0,5	-6,547850
22,575333	0,5	-6,594000
22,583667	0,5	-6,578700
22,592000	0,5	-6,582450
22,600333	0,5	-6,544600
22,608667	0,5	-6,530250
22,617000	0,5	-6,513050
22,625333	0,5	-6,504100
22,633667	0,5	-6,490700
22,642000	0,5	-6,456900
22,650333	0,5	-6,436400
22,658667	0,5	-6,404150
22,667000	0,5	-6,391100
22,675333	0,5	-6,381400
22,683667	0,5	-6,382750
22,692000	0,5	-6,376850
22,700333	0,5	-6,376650
22,708667	0,5	-6,386850
22,717000	0,5	-6,415400
22,725333	0,5	-6,459200
22,733667	0,5	-6,467850
22,742000	0,5	-6,451600
22,750333	0,5	-6,464200
22,758667	0,5	-6,475850
22,767000	0,5	-6,500000
22,775333	0,5	-6,531150
22,783667	0,5	-6,560300
22,792000	0,5	-6,556200
22,800333	0,5	-6,566300
22,808667	0,5	-6,578350
22,817000	0,5	-6,579100
22,825333	0,5	-6,589500
22,833667	0,5	-6,606550
22,842000	0,5	-6,609350
22,850333	0,5	-6,630300
22,858667	0,5	-6,649350
22,867000	0,5	-6,726100
22,875333	0,5	-6,780000
22,883667	0,5	-6,760850
22,892000	0,5	-6,767300
22,900333	0,5	-6,796350
22,908667	0,5	-6,826350
22,917000	0,5	-6,853650
22,925333	0,5	-6,884800
22,933667	0,5	-6,912750
22,942000	0,5	-6,946050
22,950333	0,5	-6,970750
22,958667	0,5	-6,990350
22,967000	0,5	-7,006000
22,975333	0,5	-7,012600
22,983667	0,5	-7,019300
22,992000	0,5	-7,021850
23,000333	0,5	-7,015100
23,008667	0,5	-7,013750
23,017000	0,5	-7,005100
23,025333	0,5	-6,980100
23,033667	0,5	-6,960750
23,042000	0,5	-6,987300
23,050333	0,5	-6,956550
23,058667	0,5	-6,955000
23,067000	0,5	-6,911450
23,075333	0,5	-6,889100
23,083667	0,5	-6,876750
23,092000	0,5	-6,856850
23,100333	0,5	-6,824400
23,108667	0,5	-6,780600
23,117000	0,5	-6,734450
23,125333	0,5	-6,681850
23,133667	0,5	-6,632150
23,142000	0,5	-6,569800
23,150333	0,5	-6,500750
23,158667	0,5	-6,387650
23,167000	0,5	-6,326450
23,175333	0,5	-6,249450
23,183667	0,5	-6,221000
23,192000	0,5	-6,172250
23,200333	0,5	-6,099750
23,208667	0,5	-6,022600
23,217000	0,5	-5,946300
23,225333	0,5	-5,881500
23,233667	0,5	-5,820250
23,242000	0,5	-5,744050
23,250333	0,5	-5,674400
23,258667	0,5	-5,593650
23,267000	0,5	-5,529600
23,275333	0,5	-5,448350
23,283667	0,5	-5,371800
23,292000	0,5	-5,291350
23,300333	0,5	-5,192700
23,308667	0,5	-5,087400
23,317000	0,5	-5,014350
23,325333	0,5	-4,898100
23,333667	0,5	-4,859700
23,342000	0,5	-4,809800
23,350333	0,5	-4,716700
23,358667	0,5	-4,630400
23,367000	0,5	-4,556650
23,375333	0,5	-4,510500
23,383667	0,5	-4,443800
23,392000	0,5	-4,380650
23,400333	0,5	-4,306700
23,408667	0,5	-4,241150
23,417000	0,5	-4,169750
23,425333	0,5	-4,115000
23,433667	0,5	-4,043650
23,442000	0,5	-3,965200
23,450333	0,5	-3,875250
23,458667	0,5	-3,884500
23,467000	0,5	-3,786000
23,475333	0,5	-3,673550
23,483667	0,5	-3,629250
23,492000	0,5	-3,577050
23,500333	0,5	-3,523500
23,508667	0,5	-3,450700
23,517000	0,5	-3,411000
23,525333	0,5	-3,363150
23,533667	0,5	-3,322500
23,542000	0,5	-3,279050
23,550333	0,5	-3,234900
23,558667	0,5	-3,195650
23,567000	0,5	-3,151950
23,575333	0,5	-3,110400
23,583667	0,5	-3,068400
23,592000	0,5	-3,021150
23,600333	0,5	-3,074050
23,608667	0,5	-3,024300
23,617000	0,5	-2,964450
23,625333	0,5	-2,880000
23,633667	0,5	-2,839350
23,642000	0,5	-2,806200
23,650333	0,5	-2,761700
23,658667	0,5	-2,740050
23,667000	0,5	-2,702900
23,675333	0,5	-2,677300
23,683667	0,5	-2,644800
23,692000	0,5	-2,618400
23,700333	0,5	-2,591150
23,708667	0,5	-2,563350
23,717000	0,5	-2,532850
23,725333	0,5	-2,499050
23,733667	0,5	-2,472100
23,742000	0,5	-2,445250
23,750333	0,5	-2,596400
23,758667	0,5	-2,542000
23,767000	0,5	-2,471900
23,775333	0,5	-2,388100
23,783667	0,5	-2,350750
23,792000	0,5	-2,317100
23,800333	0,5	-2,295050
23,808667	0,5	-2,278450
23,817000	0,5	-2,254400
23,825333	0,5	-2,226250
23,833667	0,5	-2,205400
23,842000	0,5	-2,182650
23,850333	0,5	-2,158600
23,858667	0,5	-2,134050
23,867000	0,5	-2,107850
23,875333	0,5	-2,072000
23,883667	0,5	-2,050700
23,892000	0,5	-2,088200
23,900333	0,5	-2,182100
23,908667	0,5	-2,132300
23,917000	0,5	-2,040700
23,925333	0,5	-1,977600
23,933667	0,5	-1,938700
23,942000	0,5	-1,913650
23,950333	0,5	-1,891650
23,958667	0,5	-1,881500
23,967000	0,5	-1,857200
23,975333	0,5	-1,820400
23,983667	0,5	-1,802650
23,992000	0,5	-1,778050
24,000333	0,5	-1,756550
24,008667	0,5	-1,735800
24,017000	0,5	-1,704850
24,025333	0,5	-1,677800
24,033667	0,5	-1,663650
24,042000	0,5	-1,800650
24,050333	0,5	-1,807950
24,058667	0,5	-1,758400
24,067000	0,5	-1,688500
24,075333	0,5	-1,623300
24,083667	0,5	-1,592450
24,092000	0,5	-1,564400
24,100333	0,5	-1,555450
24,108667	0,5	-1,529400
24,117000	0,5	-1,497950
24,125333	0,5	-1,465650
24,133667	0,5	-1,438250
24,142000	0,5	-1,409950
24,150333	0,5	-1,385500
24,158667	0,5	-1,371300
24,167000	0,5	-1,337100
24,175333	0,5	-1,312550
24,183667	0,5	-1,305050
24,192000	0,5	-1,446600
24,200333	0,5	-1,415650
24,208667	0,5	-1,374000
24,217000	0,5	-1,304050
24,225333	0,5	-1,263200
24,233667	0,5	-1,235700
24,242000	0,5	-1,226500
24,250333	0,5	-1,213500
24,258667	0,5	-1,191450
24,267000	0,5	-1,168200
24,275333	0,5	-1,143650
24,283667	0,5	-1,118200
24,292000	0,5	-1,095400
24,300333	0,5	-1,072800
24,308667	0,5	-1,045500
24,317000	0,5	-1,027600
24,325333	0,5	-0,998950
24,333667	0,5	-1,063300
24,342000	0,5	-1,085700
24,350333	0,5	-1,073150
24,358667	0,5	-1,015050
24,367000	0,5	-0,978750
24,375333	0,5	-0,935150
24,383667	0,5	-0,921300
24,392000	0,5	-0,912300
24,400333	0,5	-0,902050
24,408667	0,5	-0,869600
24,417000	0,5	-0,857800
24,425333	0,5	-0,834400
24,433667	0,5	-0,824650
24,442000	0,5	-0,805250
24,450333	0,5	-0,793300
24,458667	0,5	-0,773000
24,467000	0,5	-0,757000
24,475333	0,5	-0,748550
24,483667	0,5	-0,840000
24,492000	0,5	-0,820750
24,500333	0,5	-0,801600
24,508667	0,5	-0,759600
24,517000	0,5	-0,724700
24,525333	0,5	-0,699250
24,533667	0,5	-0,685550
24,542000	0,5	-0,698700
24,550333	0,5	-0,667350
24,558667	0,5	-0,655750
24,567000	0,5	-0,635400
24,575333	0,5	-0,629750
24,583667	0,5	-0,608250
24,592000	0,5	-0,598650
24,600333	0,5	-0,587000
24,608667	0,5	-0,573000
24,617000	0,5	-0,557850
24,625333	0,5	-0,564200
24,633667	0,5	-0,629750
24,642000	0,5	-0,605200
24,650333	0,5	-0,587050
24,658667	0,5	-0,553850
24,667000	0,5	-0,542000
24,675333	0,5	-0,534400
24,683667	0,5	-0,534500
24,692000	0,5	-0,536450
24,700333	0,5	-0,525700
24,708667	0,5	-0,508400
24,717000	0,5	-0,502200
24,725333	0,5	-0,489700
24,733667	0,5	-0,484900
24,742000	0,5	-0,477200
24,750333	0,5	-0,462150
24,758667	0,5	-0,447400
24,767000	0,5	-0,443450
24,775333	0,5	-0,484900
24,783667	0,5	-0,484000
24,792000	0,5	-0,470850
24,800333	0,5	-0,450250
24,808667	0,5	-0,427150
24,817000	0,5	-0,413850
24,825333	0,5	-0,411250
24,833667	0,5	-0,412450
24,842000	0,5	-0,417800
24,850333	0,5	-0,403250
24,858667	0,5	-0,398650
24,867000	0,5	-0,397800
24,875333	0,5	-0,394600
24,883667	0,5	-0,388700
24,892000	0,5	-0,387050
24,900333	0,5	-0,377750
24,908667	0,5	-0,374550
24,917000	0,5	-0,366950
24,925333	0,5	-0,408600
24,933667	0,5	-0,397150
24,942000	0,5	-0,386200
24,950333	0,5	-0,368150
24,958667	0,5	-0,352950
24,967000	0,5	-0,344850
24,975333	0,5	-0,350150
24,983667	0,5	-0,350100
24,992000	0,5	-0,340100
25,000333	0,5	-0,337600
25,008667	0,5	-0,330750
25,017000	0,5	-0,323050
25,025333	0,5	-0,320600
25,033667	0,5	-0,317450
25,042000	0,5	-0,314100
25,050333	0,5	-0,309550
25,058667	0,5	-0,310650
25,067000	0,5	-0,317900
25,075333	0,5	-0,338100
25,083667	0,5	-0,327500
25,092000	0,5	-0,323100
25,100333	0,5	-0,320950
25,108667	0,5	-0,312950
25,117000	0,5	-0,308750
25,125333	0,5	-0,315200
25,133667	0,5	-0,308950
25,142000	0,5	-0,305950
25,150333	0,5	-0,303200
25,158667	0,5	-0,297050
25,167000	0,5	-0,295650
25,175333	0,5	-0,293700
25,183667	0,5	-0,291500
25,192000	0,5	-0,287400
25,200333	0,5	-0,283050
25,208667	0,5	-0,277900
25,217000	0,5	-0,283050
25,225333	0,5	-0,284850
25,233667	0,5	-0,282800
25,242000	0,5	-0,281500
25,250333	0,5	-0,279850
25,258667	0,5	-0,278850
25,267000	0,5	-0,281250
25,275333	0,5	-0,283300
25,283667	0,5	-0,284650
25,292000	0,5	-0,283350
25,300333	0,5	-0,283000
25,308667	0,5	-0,285200
25,317000	0,5	-0,285150
25,325333	0,5	-0,282100
25,333667	0,5	-0,281850
25,342000	0,5	-0,281350
25,350333	0,5	-0,279650
25,358667	0,5	-0,273250
25,367000	0,5	-0,273500
25,375333	0,5	-0,268600
25,383667	0,5	-0,265600
25,392000	0,5	-0,264900
25,400333	0,5	-0,266650
25,408667	0,5	-0,266250
25,417000	0,5	-0,266600
25,425333	0,5	-0,263000
25,433667	0,5	-0,264950
25,442000	0,5	-0,269100
25,450333	0,5	-0,270950
25,458667	0,5	-0,269200
25,467000	0,5	-0,272550
25,475333	0,5	-0,273400
25,483667	0,5	-0,275950
25,492000	0,5	-0,274000
25,500333	0,5	-0,274800
25,508667	0,5	-0,272650
25,517000	0,5	-0,266250
25,525333	0,5	-0,266650
25,533667	0,5	-0,265900
25,542000	0,5	-0,267250
25,550333	0,5	-0,266300
25,558667	0,5	-0,267250
25,567000	0,5	-0,263950
25,575333	0,5	-0,259400
25,583667	0,5	-0,266600
25,592000	0,5	-0,268800
25,600333	0,5	-0,268900
25,608667	0,5	-0,270000
25,617000	0,5	-0,271450
25,625333	0,5	-0,269750
25,633667	0,5	-0,277800
25,642000	0,5	-0,279600
25,650333	0,5	-0,277450
25,658667	0,5	-0,272650
25,667000	0,5	-0,271150
25,675333	0,5	-0,273200
25,683667	0,5	-0,278000
25,692000	0,5	-0,281500
25,700333	0,5	-0,285100
25,708667	0,5	-0,280950
25,717000	0,5	-0,278300
25,725333	0,5	-0,275250
25,733667	0,5	-0,279100
25,742000	0,5	-0,280000
25,750333	0,5	-0,275100
25,758667	0,5	-0,278750
25,767000	0,5	-0,282650
25,775333	0,5	-0,280000
25,783667	0,5	-0,283650
25,792000	0,5	-0,288300
25,800333	0,5	-0,285900
25,808667	0,5	-0,276300
25,817000	0,5	-0,272450
25,825333	0,5	-0,273200
25,833667	0,5	-0,278700
25,842000	0,5	-0,288600
25,850333	0,5	-0,288450
25,858667	0,5	-0,284500
25,867000	0,5	-0,279200
25,875333	0,5	-0,275900
25,883667	0,5	-0,282000
25,892000	0,5	-0,278700
25,900333	0,5	-0,283450
25,908667	0,5	-0,280650
25,917000	0,5	-0,281600
25,925333	0,5	-0,280150
25,933667	0,5	-0,280750
25,942000	0,5	-0,278000
25,950333	0,5	-0,274650
25,958667	0,5	-0,267800
25,967000	0,5	-0,265400
25,975333	0,5	-0,257000
25,983667	0,5	-0,269550
25,992000	0,5	-0,268050
26,000333	0,5	-0,273000
