File Path	chrom://chromeleon01/ikbm_chromeleon/2022/ICS-5000/ED1/Esteban/20220427_Cell_Amandas_mutants.seq/827.smp/ED_1.channel/ED_1.chm
Channel	ED_1

Injection Information:
Data Vault	ikbm_chromeleon
Injection	EG_Avi_2b
Injection Number	44
Position	RE4
Comment	
Processing Method	Stop sequence after Cell Death
Instrument Method	ICS5000_PA200_FullNative_Ox_26min_ED1
Type	Unknown
Status	Finished
Injection Date	28.04.2022
Injection Time	09:28:18
Injection Volume (µl)	5,0
Dilution Factor	1,0000
Weight	1,0000

Chromatogram Data Information:
Time Min. (min)	0,000333
Time Max. (min)	26,000333
Data Points	3121
Detector	EDet1
Generating Data System	Chromeleon 7.2.9.11323
Exporting Data System	Chromeleon 7.2.9.0
Operator	Instrument Controller
Signal Quantity	
Signal Unit	nC
Signal Min.	-8,040900
Signal Max.	584,780759
Channel	ED_1
Driver Name	DC-5000
Channel Type	Evaluation
Min. Step (s)	0,5
Max. Step (s)	0,5
Average Step (s)	0,5

Signal Parameter Information:
Signal Info	

Chromatogram Data:
Time (min)	Step (s)	Value (nC)
0,000333	n.a.	-0,120650
0,008667	0,5	-0,114500
0,017000	0,5	-0,103800
0,025333	0,5	-0,086450
0,033667	0,5	-0,077900
0,042000	0,5	-0,073100
0,050333	0,5	-0,041400
0,058667	0,5	-0,047250
0,067000	0,5	-0,055700
0,075333	0,5	-0,025550
0,083667	0,5	-0,042800
0,092000	0,5	-0,068350
0,100333	0,5	-0,055300
0,108667	0,5	-0,052950
0,117000	0,5	-0,006050
0,125333	0,5	-0,016050
0,133667	0,5	-0,015900
0,142000	0,5	-0,025150
0,150333	0,5	-0,005050
0,158667	0,5	-0,024950
0,167000	0,5	-0,023050
0,175333	0,5	-0,028350
0,183667	0,5	-0,034300
0,192000	0,5	-0,038950
0,200333	0,5	-0,040950
0,208667	0,5	-0,035700
0,217000	0,5	-0,044600
0,225333	0,5	-0,001000
0,233667	0,5	-0,037900
0,242000	0,5	-0,046950
0,250333	0,5	-0,042900
0,258667	0,5	-0,029250
0,267000	0,5	0,004850
0,275333	0,5	-0,001250
0,283667	0,5	-0,026000
0,292000	0,5	-0,009200
0,300333	0,5	0,029500
0,308667	0,5	0,034850
0,317000	0,5	-0,029700
0,325333	0,5	-0,046600
0,333667	0,5	-0,050700
0,342000	0,5	-0,048100
0,350333	0,5	-0,031850
0,358667	0,5	-0,045300
0,367000	0,5	-0,059000
0,375333	0,5	-0,037050
0,383667	0,5	-0,055800
0,392000	0,5	-0,065050
0,400333	0,5	-0,056900
0,408667	0,5	-0,044850
0,417000	0,5	-0,001200
0,425333	0,5	-0,035800
0,433667	0,5	-0,033450
0,442000	0,5	-0,042050
0,450333	0,5	-0,030350
0,458667	0,5	-0,041000
0,467000	0,5	-0,031750
0,475333	0,5	-0,042750
0,483667	0,5	-0,039300
0,492000	0,5	-0,049850
0,500333	0,5	-0,038450
0,508667	0,5	-0,063050
0,517000	0,5	-0,043450
0,525333	0,5	-0,048050
0,533667	0,5	-0,061900
0,542000	0,5	-0,067750
0,550333	0,5	-0,039550
0,558667	0,5	-0,014000
0,567000	0,5	0,003300
0,575333	0,5	-0,009800
0,583667	0,5	-0,018300
0,592000	0,5	-0,007850
0,600333	0,5	-0,016850
0,608667	0,5	-0,018500
0,617000	0,5	-0,019000
0,625333	0,5	-0,018800
0,633667	0,5	-0,019250
0,642000	0,5	-0,010100
0,650333	0,5	-0,006450
0,658667	0,5	-0,008850
0,667000	0,5	0,006450
0,675333	0,5	-0,006350
0,683667	0,5	-0,024200
0,692000	0,5	-0,024150
0,700333	0,5	-0,011250
0,708667	0,5	0,028950
0,717000	0,5	0,045950
0,725333	0,5	0,031750
0,733667	0,5	0,024950
0,742000	0,5	0,023100
0,750333	0,5	0,023800
0,758667	0,5	0,026050
0,767000	0,5	0,028100
0,775333	0,5	0,016850
0,783667	0,5	0,023650
0,792000	0,5	0,022400
0,800333	0,5	0,042800
0,808667	0,5	0,036950
0,817000	0,5	0,055300
0,825333	0,5	0,027800
0,833667	0,5	0,028450
0,842000	0,5	0,023650
0,850333	0,5	0,062200
0,858667	0,5	0,085700
0,867000	0,5	0,090350
0,875333	0,5	0,078750
0,883667	0,5	0,087650
0,892000	0,5	0,073500
0,900333	0,5	0,081000
0,908667	0,5	0,080400
0,917000	0,5	0,081400
0,925333	0,5	0,077400
0,933667	0,5	0,075650
0,942000	0,5	0,085800
0,950333	0,5	0,084250
0,958667	0,5	0,112450
0,967000	0,5	0,102650
0,975333	0,5	0,086250
0,983667	0,5	0,080950
0,992000	0,5	0,094100
1,000333	0,5	0,129750
1,008667	0,5	0,159150
1,017000	0,5	0,139650
1,025333	0,5	0,142000
1,033667	0,5	0,131400
1,042000	0,5	0,137500
1,050333	0,5	0,137150
1,058667	0,5	0,146250
1,067000	0,5	0,142700
1,075333	0,5	0,143450
1,083667	0,5	0,153800
1,092000	0,5	0,143650
1,100333	0,5	0,133300
1,108667	0,5	0,165450
1,117000	0,5	0,154050
1,125333	0,5	0,141550
1,133667	0,5	0,150800
1,142000	0,5	0,160750
1,150333	0,5	0,218800
1,158667	0,5	0,212800
1,167000	0,5	0,210500
1,175333	0,5	0,200900
1,183667	0,5	0,221850
1,192000	0,5	0,214350
1,200333	0,5	0,229450
1,208667	0,5	0,228650
1,217000	0,5	0,226100
1,225333	0,5	0,227400
1,233667	0,5	0,239100
1,242000	0,5	0,243300
1,250333	0,5	0,256050
1,258667	0,5	0,275750
1,267000	0,5	0,259950
1,275333	0,5	0,258600
1,283667	0,5	0,271650
1,292000	0,5	0,289500
1,300333	0,5	0,330150
1,308667	0,5	0,331800
1,317000	0,5	0,320900
1,325333	0,5	0,332150
1,333667	0,5	0,336000
1,342000	0,5	0,345900
1,350333	0,5	0,346150
1,358667	0,5	0,357900
1,367000	0,5	0,356050
1,375333	0,5	0,373200
1,383667	0,5	0,386550
1,392000	0,5	0,377450
1,400333	0,5	0,382850
1,408667	0,5	0,408700
1,417000	0,5	0,398750
1,425333	0,5	0,402350
1,433667	0,5	0,418750
1,442000	0,5	0,452550
1,450333	0,5	0,488700
1,458667	0,5	0,464750
1,467000	0,5	0,468700
1,475333	0,5	0,479000
1,483667	0,5	0,492050
1,492000	0,5	0,493900
1,500333	0,5	0,505000
1,508667	0,5	0,505850
1,517000	0,5	0,514450
1,525333	0,5	0,519050
1,533667	0,5	0,518900
1,542000	0,5	0,497050
1,550333	0,5	0,539500
1,558667	0,5	0,508600
1,567000	0,5	0,405500
1,575333	0,5	-0,005500
1,583667	0,5	-0,978450
1,592000	0,5	-1,874250
1,600333	0,5	-1,313000
1,608667	0,5	0,961050
1,617000	0,5	3,840500
1,625333	0,5	7,447050
1,633667	0,5	11,863400
1,642000	0,5	15,487300
1,650333	0,5	16,657800
1,658667	0,5	15,689950
1,667000	0,5	13,942200
1,675333	0,5	12,246000
1,683667	0,5	10,757450
1,692000	0,5	9,491500
1,700333	0,5	8,431700
1,708667	0,5	7,545300
1,717000	0,5	6,893900
1,725333	0,5	6,433650
1,733667	0,5	5,983400
1,742000	0,5	5,461100
1,750333	0,5	4,888600
1,758667	0,5	4,417200
1,767000	0,5	4,126950
1,775333	0,5	4,081900
1,783667	0,5	4,306200
1,792000	0,5	4,765100
1,800333	0,5	5,203300
1,808667	0,5	5,346250
1,817000	0,5	5,206000
1,825333	0,5	4,930400
1,833667	0,5	4,640550
1,842000	0,5	4,337150
1,850333	0,5	4,058200
1,858667	0,5	3,758900
1,867000	0,5	3,519800
1,875333	0,5	3,316350
1,883667	0,5	3,161700
1,892000	0,5	3,023200
1,900333	0,5	2,879350
1,908667	0,5	2,729050
1,917000	0,5	2,611300
1,925333	0,5	2,511950
1,933667	0,5	2,495150
1,942000	0,5	2,576450
1,950333	0,5	2,707350
1,958667	0,5	2,751500
1,967000	0,5	2,730200
1,975333	0,5	2,897650
1,983667	0,5	3,704200
1,992000	0,5	5,928750
2,000333	0,5	10,556850
2,008667	0,5	19,061200
2,017000	0,5	38,933101
2,025333	0,5	76,865651
2,033667	0,5	123,249802
2,042000	0,5	147,898502
2,050333	0,5	136,083552
2,058667	0,5	106,257952
2,067000	0,5	79,767201
2,075333	0,5	62,222151
2,083667	0,5	50,895801
2,092000	0,5	43,111451
2,100333	0,5	37,441851
2,108667	0,5	33,214200
2,117000	0,5	30,007000
2,125333	0,5	27,555100
2,133667	0,5	25,728450
2,142000	0,5	24,444150
2,150333	0,5	23,562950
2,158667	0,5	23,035250
2,167000	0,5	22,541000
2,175333	0,5	21,782600
2,183667	0,5	20,906550
2,192000	0,5	20,074750
2,200333	0,5	19,442350
2,208667	0,5	18,953800
2,217000	0,5	18,590250
2,225333	0,5	18,288550
2,233667	0,5	18,094350
2,242000	0,5	17,945250
2,250333	0,5	17,847750
2,258667	0,5	17,780000
2,267000	0,5	17,757000
2,275333	0,5	17,743100
2,283667	0,5	17,758000
2,292000	0,5	17,751050
2,300333	0,5	17,704100
2,308667	0,5	17,663700
2,317000	0,5	17,660350
2,325333	0,5	17,694050
2,333667	0,5	17,740500
2,342000	0,5	17,758850
2,350333	0,5	17,762950
2,358667	0,5	17,785100
2,367000	0,5	17,809500
2,375333	0,5	17,859150
2,383667	0,5	17,912250
2,392000	0,5	17,987400
2,400333	0,5	17,988300
2,408667	0,5	18,149850
2,417000	0,5	18,254350
2,425333	0,5	18,379100
2,433667	0,5	18,538650
2,442000	0,5	18,681100
2,450333	0,5	18,736750
2,458667	0,5	18,724350
2,467000	0,5	18,643300
2,475333	0,5	18,560150
2,483667	0,5	18,486350
2,492000	0,5	18,406050
2,500333	0,5	18,347400
2,508667	0,5	18,293650
2,517000	0,5	18,235700
2,525333	0,5	18,178450
2,533667	0,5	18,123150
2,542000	0,5	18,060000
2,550333	0,5	17,995800
2,558667	0,5	17,925350
2,567000	0,5	17,858950
2,575333	0,5	17,784400
2,583667	0,5	17,774850
2,592000	0,5	17,757900
2,600333	0,5	17,810100
2,608667	0,5	17,953500
2,617000	0,5	18,295200
2,625333	0,5	18,868900
2,633667	0,5	19,572050
2,642000	0,5	20,207550
2,650333	0,5	20,535200
2,658667	0,5	20,467900
2,667000	0,5	20,135350
2,675333	0,5	19,810500
2,683667	0,5	19,869050
2,692000	0,5	20,831050
2,700333	0,5	23,367550
2,708667	0,5	28,076450
2,717000	0,5	35,256001
2,725333	0,5	45,344001
2,733667	0,5	60,060801
2,742000	0,5	84,799401
2,750333	0,5	132,438402
2,758667	0,5	221,202203
2,767000	0,5	352,434905
2,775333	0,5	486,654607
2,783667	0,5	571,089609
2,792000	0,5	584,780759
2,800333	0,5	540,516108
2,808667	0,5	464,809807
2,817000	0,5	382,121006
2,825333	0,5	308,485905
2,833667	0,5	250,044904
2,842000	0,5	205,909853
2,850333	0,5	172,306203
2,858667	0,5	145,793752
2,867000	0,5	124,392352
2,875333	0,5	107,096402
2,883667	0,5	93,160251
2,892000	0,5	81,735651
2,900333	0,5	72,151901
2,908667	0,5	63,864801
2,917000	0,5	56,649901
2,925333	0,5	50,397651
2,933667	0,5	45,044351
2,942000	0,5	40,521901
2,950333	0,5	36,724051
2,958667	0,5	33,504400
2,967000	0,5	30,781200
2,975333	0,5	28,437550
2,983667	0,5	26,412350
2,992000	0,5	24,631200
3,000333	0,5	23,076500
3,008667	0,5	21,684800
3,017000	0,5	20,431700
3,025333	0,5	19,327650
3,033667	0,5	18,318050
3,042000	0,5	17,393600
3,050333	0,5	16,563750
3,058667	0,5	15,810650
3,067000	0,5	15,136950
3,075333	0,5	14,499400
3,083667	0,5	13,890450
3,092000	0,5	13,333500
3,100333	0,5	12,798700
3,108667	0,5	12,305900
3,117000	0,5	11,832950
3,125333	0,5	11,403500
3,133667	0,5	10,982500
3,142000	0,5	10,604500
3,150333	0,5	10,241300
3,158667	0,5	9,888600
3,167000	0,5	9,571350
3,175333	0,5	9,304500
3,183667	0,5	9,034700
3,192000	0,5	8,797900
3,200333	0,5	8,602600
3,208667	0,5	8,445800
3,217000	0,5	8,344350
3,225333	0,5	8,276000
3,233667	0,5	8,315850
3,242000	0,5	8,462500
3,250333	0,5	8,690650
3,258667	0,5	8,917050
3,267000	0,5	9,052000
3,275333	0,5	8,987050
3,283667	0,5	8,724000
3,292000	0,5	8,288850
3,300333	0,5	7,789500
3,308667	0,5	7,283200
3,317000	0,5	6,868450
3,325333	0,5	6,516700
3,333667	0,5	6,222250
3,342000	0,5	5,984500
3,350333	0,5	5,793550
3,358667	0,5	5,641000
3,367000	0,5	5,516200
3,375333	0,5	5,377100
3,383667	0,5	5,264000
3,392000	0,5	5,160800
3,400333	0,5	5,061150
3,408667	0,5	4,969500
3,417000	0,5	4,874400
3,425333	0,5	4,789600
3,433667	0,5	4,698950
3,442000	0,5	4,628200
3,450333	0,5	4,553800
3,458667	0,5	4,467250
3,467000	0,5	4,404200
3,475333	0,5	4,322500
3,483667	0,5	4,241700
3,492000	0,5	4,175300
3,500333	0,5	4,114350
3,508667	0,5	4,091350
3,517000	0,5	4,034050
3,525333	0,5	3,977350
3,533667	0,5	3,928700
3,542000	0,5	3,889700
3,550333	0,5	3,846150
3,558667	0,5	3,808400
3,567000	0,5	3,769800
3,575333	0,5	3,720400
3,583667	0,5	3,680300
3,592000	0,5	3,622700
3,600333	0,5	3,578300
3,608667	0,5	3,512800
3,617000	0,5	3,490450
3,625333	0,5	3,412900
3,633667	0,5	3,367000
3,642000	0,5	3,314000
3,650333	0,5	3,298550
3,658667	0,5	3,275600
3,667000	0,5	3,224250
3,675333	0,5	3,164650
3,683667	0,5	3,121100
3,692000	0,5	3,073600
3,700333	0,5	3,020950
3,708667	0,5	2,973900
3,717000	0,5	2,927550
3,725333	0,5	2,880950
3,733667	0,5	2,837850
3,742000	0,5	2,803150
3,750333	0,5	2,759350
3,758667	0,5	2,709950
3,767000	0,5	2,698100
3,775333	0,5	2,648250
3,783667	0,5	2,619950
3,792000	0,5	2,602950
3,800333	0,5	2,609000
3,808667	0,5	2,644600
3,817000	0,5	2,642250
3,825333	0,5	2,657000
3,833667	0,5	2,655150
3,842000	0,5	2,666350
3,850333	0,5	2,655500
3,858667	0,5	2,643350
3,867000	0,5	2,600350
3,875333	0,5	2,555050
3,883667	0,5	2,506900
3,892000	0,5	2,462500
3,900333	0,5	2,403800
3,908667	0,5	2,368500
3,917000	0,5	2,335000
3,925333	0,5	2,282250
3,933667	0,5	2,251400
3,942000	0,5	2,228350
3,950333	0,5	2,231150
3,958667	0,5	2,220150
3,967000	0,5	2,191450
3,975333	0,5	2,149950
3,983667	0,5	2,128700
3,992000	0,5	2,089800
4,000333	0,5	2,055700
4,008667	0,5	2,028750
4,017000	0,5	1,999650
4,025333	0,5	1,967250
4,033667	0,5	1,953600
4,042000	0,5	1,933600
4,050333	0,5	1,926500
4,058667	0,5	1,925100
4,067000	0,5	1,902500
4,075333	0,5	1,871450
4,083667	0,5	1,855000
4,092000	0,5	1,848100
4,100333	0,5	1,848200
4,108667	0,5	1,841550
4,117000	0,5	1,801250
4,125333	0,5	1,781600
4,133667	0,5	1,753550
4,142000	0,5	1,733750
4,150333	0,5	1,711550
4,158667	0,5	1,698150
4,167000	0,5	1,671700
4,175333	0,5	1,662100
4,183667	0,5	1,643650
4,192000	0,5	1,626200
4,200333	0,5	1,615350
4,208667	0,5	1,625900
4,217000	0,5	1,604800
4,225333	0,5	1,597200
4,233667	0,5	1,591400
4,242000	0,5	1,603750
4,250333	0,5	1,617950
4,258667	0,5	1,615500
4,267000	0,5	1,611650
4,275333	0,5	1,605950
4,283667	0,5	1,616350
4,292000	0,5	1,633800
4,300333	0,5	1,667650
4,308667	0,5	1,709700
4,317000	0,5	1,768450
4,325333	0,5	1,843900
4,333667	0,5	1,952250
4,342000	0,5	2,060050
4,350333	0,5	2,229450
4,358667	0,5	2,410200
4,367000	0,5	2,609200
4,375333	0,5	2,847900
4,383667	0,5	3,153000
4,392000	0,5	3,549700
4,400333	0,5	4,041450
4,408667	0,5	4,683100
4,417000	0,5	5,540850
4,425333	0,5	6,656300
4,433667	0,5	8,048450
4,442000	0,5	9,677150
4,450333	0,5	11,479950
4,458667	0,5	13,307300
4,467000	0,5	14,981350
4,475333	0,5	16,340450
4,483667	0,5	17,209200
4,492000	0,5	17,512950
4,500333	0,5	17,267300
4,508667	0,5	16,474100
4,517000	0,5	15,279250
4,525333	0,5	13,836950
4,533667	0,5	12,290150
4,542000	0,5	10,785150
4,550333	0,5	9,327000
4,558667	0,5	8,023850
4,567000	0,5	6,896950
4,575333	0,5	5,960200
4,583667	0,5	5,183050
4,592000	0,5	4,564300
4,600333	0,5	4,058550
4,608667	0,5	3,658700
4,617000	0,5	3,340750
4,625333	0,5	3,083950
4,633667	0,5	2,876350
4,642000	0,5	2,695100
4,650333	0,5	2,568950
4,658667	0,5	2,425600
4,667000	0,5	2,322300
4,675333	0,5	2,223650
4,683667	0,5	2,150400
4,692000	0,5	2,094100
4,700333	0,5	2,022100
4,708667	0,5	1,948500
4,717000	0,5	1,905050
4,725333	0,5	1,853100
4,733667	0,5	1,824500
4,742000	0,5	1,793250
4,750333	0,5	1,774650
4,758667	0,5	1,759650
4,767000	0,5	1,752600
4,775333	0,5	1,747800
4,783667	0,5	1,717650
4,792000	0,5	1,689900
4,800333	0,5	1,671350
4,808667	0,5	1,617800
4,817000	0,5	1,577350
4,825333	0,5	1,537900
4,833667	0,5	1,504100
4,842000	0,5	1,488250
4,850333	0,5	1,428750
4,858667	0,5	1,396150
4,867000	0,5	1,366150
4,875333	0,5	1,341600
4,883667	0,5	1,304900
4,892000	0,5	1,296800
4,900333	0,5	1,272450
4,908667	0,5	1,263550
4,917000	0,5	1,251450
4,925333	0,5	1,240250
4,933667	0,5	1,224250
4,942000	0,5	1,225750
4,950333	0,5	1,221200
4,958667	0,5	1,218100
4,967000	0,5	1,221500
4,975333	0,5	1,239150
4,983667	0,5	1,264350
4,992000	0,5	1,281200
5,000333	0,5	1,284200
5,008667	0,5	1,285700
5,017000	0,5	1,293150
5,025333	0,5	1,286950
5,033667	0,5	1,291450
5,042000	0,5	1,290550
5,050333	0,5	1,286550
5,058667	0,5	1,275100
5,067000	0,5	1,277900
5,075333	0,5	1,266950
5,083667	0,5	1,264800
5,092000	0,5	1,263850
5,100333	0,5	1,257050
5,108667	0,5	1,241800
5,117000	0,5	1,240850
5,125333	0,5	1,248550
5,133667	0,5	1,267050
5,142000	0,5	1,277750
5,150333	0,5	1,260600
5,158667	0,5	1,259050
5,167000	0,5	1,253650
5,175333	0,5	1,254500
5,183667	0,5	1,249750
5,192000	0,5	1,256700
5,200333	0,5	1,255200
5,208667	0,5	1,271100
5,217000	0,5	1,278950
5,225333	0,5	1,286600
5,233667	0,5	1,299150
5,242000	0,5	1,318950
5,250333	0,5	1,317950
5,258667	0,5	1,324950
5,267000	0,5	1,334250
5,275333	0,5	1,356550
5,283667	0,5	1,369050
5,292000	0,5	1,363100
5,300333	0,5	1,346650
5,308667	0,5	1,336150
5,317000	0,5	1,318800
5,325333	0,5	1,306450
5,333667	0,5	1,292600
5,342000	0,5	1,284050
5,350333	0,5	1,275250
5,358667	0,5	1,264950
5,367000	0,5	1,256550
5,375333	0,5	1,241100
5,383667	0,5	1,263350
5,392000	0,5	1,254350
5,400333	0,5	1,247100
5,408667	0,5	1,240050
5,417000	0,5	1,245250
5,425333	0,5	1,268850
5,433667	0,5	1,265100
5,442000	0,5	1,257850
5,450333	0,5	1,258100
5,458667	0,5	1,259950
5,467000	0,5	1,256950
5,475333	0,5	1,252550
5,483667	0,5	1,251450
5,492000	0,5	1,256700
5,500333	0,5	1,260950
5,508667	0,5	1,270250
5,517000	0,5	1,260950
5,525333	0,5	1,260200
5,533667	0,5	1,281650
5,542000	0,5	1,281450
5,550333	0,5	1,281500
5,558667	0,5	1,288950
5,567000	0,5	1,300200
5,575333	0,5	1,336300
5,583667	0,5	1,337300
5,592000	0,5	1,354700
5,600333	0,5	1,356300
5,608667	0,5	1,364500
5,617000	0,5	1,366300
5,625333	0,5	1,384900
5,633667	0,5	1,397700
5,642000	0,5	1,409700
5,650333	0,5	1,428700
5,658667	0,5	1,451150
5,667000	0,5	1,468700
5,675333	0,5	1,486650
5,683667	0,5	1,521500
5,692000	0,5	1,524750
5,700333	0,5	1,537000
5,708667	0,5	1,550800
5,717000	0,5	1,572750
5,725333	0,5	1,585550
5,733667	0,5	1,567750
5,742000	0,5	1,544300
5,750333	0,5	1,542450
5,758667	0,5	1,516750
5,767000	0,5	1,506100
5,775333	0,5	1,486050
5,783667	0,5	1,478000
5,792000	0,5	1,464300
5,800333	0,5	1,458950
5,808667	0,5	1,459950
5,817000	0,5	1,452650
5,825333	0,5	1,457100
5,833667	0,5	1,459300
5,842000	0,5	1,445950
5,850333	0,5	1,448300
5,858667	0,5	1,455050
5,867000	0,5	1,471550
5,875333	0,5	1,496650
5,883667	0,5	1,479650
5,892000	0,5	1,483250
5,900333	0,5	1,484900
5,908667	0,5	1,490800
5,917000	0,5	1,487950
5,925333	0,5	1,494750
5,933667	0,5	1,490000
5,942000	0,5	1,492250
5,950333	0,5	1,492400
5,958667	0,5	1,496150
5,967000	0,5	1,488950
5,975333	0,5	1,500000
5,983667	0,5	1,492500
5,992000	0,5	1,492000
6,000333	0,5	1,490350
6,008667	0,5	1,511800
6,017000	0,5	1,535350
6,025333	0,5	1,548800
6,033667	0,5	1,547550
6,042000	0,5	1,554350
6,050333	0,5	1,558000
6,058667	0,5	1,555100
6,067000	0,5	1,563450
6,075333	0,5	1,566150
6,083667	0,5	1,571150
6,092000	0,5	1,573700
6,100333	0,5	1,580500
6,108667	0,5	1,579150
6,117000	0,5	1,587450
6,125333	0,5	1,602400
6,133667	0,5	1,600650
6,142000	0,5	1,602700
6,150333	0,5	1,614400
6,158667	0,5	1,638100
6,167000	0,5	1,665800
6,175333	0,5	1,669800
6,183667	0,5	1,672550
6,192000	0,5	1,676600
6,200333	0,5	1,684000
6,208667	0,5	1,685600
6,217000	0,5	1,688200
6,225333	0,5	1,696750
6,233667	0,5	1,699500
6,242000	0,5	1,709950
6,250333	0,5	1,714850
6,258667	0,5	1,718400
6,267000	0,5	1,734300
6,275333	0,5	1,745950
6,283667	0,5	1,745300
6,292000	0,5	1,758200
6,300333	0,5	1,772900
6,308667	0,5	1,815000
6,317000	0,5	1,842150
6,325333	0,5	1,873250
6,333667	0,5	1,892750
6,342000	0,5	1,922400
6,350333	0,5	1,944550
6,358667	0,5	1,982300
6,367000	0,5	2,011900
6,375333	0,5	2,028100
6,383667	0,5	2,044850
6,392000	0,5	2,052750
6,400333	0,5	2,055750
6,408667	0,5	2,048850
6,417000	0,5	2,059400
6,425333	0,5	2,046050
6,433667	0,5	2,038300
6,442000	0,5	2,039550
6,450333	0,5	2,040500
6,458667	0,5	2,056700
6,467000	0,5	2,063400
6,475333	0,5	2,059350
6,483667	0,5	2,068450
6,492000	0,5	2,067950
6,500333	0,5	2,064400
6,508667	0,5	2,062050
6,517000	0,5	2,064250
6,525333	0,5	2,059850
6,533667	0,5	2,061850
6,542000	0,5	2,074200
6,550333	0,5	2,069100
6,558667	0,5	2,071550
6,567000	0,5	2,098050
6,575333	0,5	2,097750
6,583667	0,5	2,111600
6,592000	0,5	2,138350
6,600333	0,5	2,171250
6,608667	0,5	2,215150
6,617000	0,5	2,229400
6,625333	0,5	2,242650
6,633667	0,5	2,248850
6,642000	0,5	2,252150
6,650333	0,5	2,236600
6,658667	0,5	2,226150
6,667000	0,5	2,200600
6,675333	0,5	2,183200
6,683667	0,5	2,171150
6,692000	0,5	2,156900
6,700333	0,5	2,138600
6,708667	0,5	2,138900
6,717000	0,5	2,136550
6,725333	0,5	2,132300
6,733667	0,5	2,121950
6,742000	0,5	2,127050
6,750333	0,5	2,148500
6,758667	0,5	2,153650
6,767000	0,5	2,151750
6,775333	0,5	2,150600
6,783667	0,5	2,157950
6,792000	0,5	2,162750
6,800333	0,5	2,174000
6,808667	0,5	2,176950
6,817000	0,5	2,183100
6,825333	0,5	2,185000
6,833667	0,5	2,189700
6,842000	0,5	2,203350
6,850333	0,5	2,207150
6,858667	0,5	2,215100
6,867000	0,5	2,214000
6,875333	0,5	2,208050
6,883667	0,5	2,207450
6,892000	0,5	2,206000
6,900333	0,5	2,228150
6,908667	0,5	2,233400
6,917000	0,5	2,227600
6,925333	0,5	2,225750
6,933667	0,5	2,226800
6,942000	0,5	2,219850
6,950333	0,5	2,221500
6,958667	0,5	2,232050
6,967000	0,5	2,227350
6,975333	0,5	2,225650
6,983667	0,5	2,225300
6,992000	0,5	2,231250
7,000333	0,5	2,227350
7,008667	0,5	2,245500
7,017000	0,5	2,243950
7,025333	0,5	2,254100
7,033667	0,5	2,267300
7,042000	0,5	2,298150
7,050333	0,5	2,336550
7,058667	0,5	2,357850
7,067000	0,5	2,367950
7,075333	0,5	2,372600
7,083667	0,5	2,366250
7,092000	0,5	2,352200
7,100333	0,5	2,333300
7,108667	0,5	2,317750
7,117000	0,5	2,297150
7,125333	0,5	2,277300
7,133667	0,5	2,261500
7,142000	0,5	2,252950
7,150333	0,5	2,251150
7,158667	0,5	2,259050
7,167000	0,5	2,264350
7,175333	0,5	2,265750
7,183667	0,5	2,276250
7,192000	0,5	2,291300
7,200333	0,5	2,322250
7,208667	0,5	2,327000
7,217000	0,5	2,334050
7,225333	0,5	2,340450
7,233667	0,5	2,346550
7,242000	0,5	2,351450
7,250333	0,5	2,355900
7,258667	0,5	2,355050
7,267000	0,5	2,340450
7,275333	0,5	2,333800
7,283667	0,5	2,309500
7,292000	0,5	2,285750
7,300333	0,5	2,273100
7,308667	0,5	2,258350
7,317000	0,5	2,243200
7,325333	0,5	2,243600
7,333667	0,5	2,250800
7,342000	0,5	2,278150
7,350333	0,5	2,307050
7,358667	0,5	2,329800
7,367000	0,5	2,343650
7,375333	0,5	2,358900
7,383667	0,5	2,367250
7,392000	0,5	2,369900
7,400333	0,5	2,365100
7,408667	0,5	2,352950
7,417000	0,5	2,333650
7,425333	0,5	2,301600
7,433667	0,5	2,281650
7,442000	0,5	2,255150
7,450333	0,5	2,254500
7,458667	0,5	2,240700
7,467000	0,5	2,238950
7,475333	0,5	2,235950
7,483667	0,5	2,244400
7,492000	0,5	2,269050
7,500333	0,5	2,283500
7,508667	0,5	2,298950
7,517000	0,5	2,315400
7,525333	0,5	2,329300
7,533667	0,5	2,345350
7,542000	0,5	2,369750
7,550333	0,5	2,399000
7,558667	0,5	2,432950
7,567000	0,5	2,469550
7,575333	0,5	2,496000
7,583667	0,5	2,509000
7,592000	0,5	2,522450
7,600333	0,5	2,545350
7,608667	0,5	2,556250
7,617000	0,5	2,584750
7,625333	0,5	2,652050
7,633667	0,5	2,781550
7,642000	0,5	2,983150
7,650333	0,5	3,212550
7,658667	0,5	3,424250
7,667000	0,5	3,565900
7,675333	0,5	3,602750
7,683667	0,5	3,564400
7,692000	0,5	3,526050
7,700333	0,5	3,516450
7,708667	0,5	3,546500
7,717000	0,5	3,571500
7,725333	0,5	3,540250
7,733667	0,5	3,419400
7,742000	0,5	3,246300
7,750333	0,5	3,045700
7,758667	0,5	2,866150
7,767000	0,5	2,743800
7,775333	0,5	2,698650
7,783667	0,5	2,720600
7,792000	0,5	2,784550
7,800333	0,5	2,851900
7,808667	0,5	2,908400
7,817000	0,5	2,952500
7,825333	0,5	2,951100
7,833667	0,5	2,926900
7,842000	0,5	2,876850
7,850333	0,5	2,839300
7,858667	0,5	2,819800
7,867000	0,5	2,893650
7,875333	0,5	3,065500
7,883667	0,5	3,341550
7,892000	0,5	3,689350
7,900333	0,5	3,982750
7,908667	0,5	4,111650
7,917000	0,5	4,023500
7,925333	0,5	3,759500
7,933667	0,5	3,415550
7,942000	0,5	3,083150
7,950333	0,5	2,807750
7,958667	0,5	2,621750
7,967000	0,5	2,495600
7,975333	0,5	2,415800
7,983667	0,5	2,368350
7,992000	0,5	2,350300
8,000333	0,5	2,336050
8,008667	0,5	2,322700
8,017000	0,5	2,307600
8,025333	0,5	2,274050
8,033667	0,5	2,244050
8,042000	0,5	2,225950
8,050333	0,5	2,197900
8,058667	0,5	2,178550
8,067000	0,5	2,162450
8,075333	0,5	2,158350
8,083667	0,5	2,173050
8,092000	0,5	2,186700
8,100333	0,5	2,206800
8,108667	0,5	2,240850
8,117000	0,5	2,269400
8,125333	0,5	2,285300
8,133667	0,5	2,283800
8,142000	0,5	2,260300
8,150333	0,5	2,221950
8,158667	0,5	2,190400
8,167000	0,5	2,157850
8,175333	0,5	2,128100
8,183667	0,5	2,111400
8,192000	0,5	2,104350
8,200333	0,5	2,093900
8,208667	0,5	2,100750
8,217000	0,5	2,118650
8,225333	0,5	2,141400
8,233667	0,5	2,178050
8,242000	0,5	2,217700
8,250333	0,5	2,243150
8,258667	0,5	2,260200
8,267000	0,5	2,276900
8,275333	0,5	2,288450
8,283667	0,5	2,301000
8,292000	0,5	2,310200
8,300333	0,5	2,327950
8,308667	0,5	2,336550
8,317000	0,5	2,333750
8,325333	0,5	2,317650
8,333667	0,5	2,313800
8,342000	0,5	2,311800
8,350333	0,5	2,314600
8,358667	0,5	2,336350
8,367000	0,5	2,382100
8,375333	0,5	2,464100
8,383667	0,5	2,568850
8,392000	0,5	2,688900
8,400333	0,5	2,803450
8,408667	0,5	2,883800
8,417000	0,5	2,898350
8,425333	0,5	2,843550
8,433667	0,5	2,735150
8,442000	0,5	2,610850
8,450333	0,5	2,499700
8,458667	0,5	2,405100
8,467000	0,5	2,319400
8,475333	0,5	2,228750
8,483667	0,5	2,147350
8,492000	0,5	2,085450
8,500333	0,5	2,037500
8,508667	0,5	2,005700
8,517000	0,5	1,990300
8,525333	0,5	1,984500
8,533667	0,5	1,974050
8,542000	0,5	1,967750
8,550333	0,5	1,960050
8,558667	0,5	1,950400
8,567000	0,5	1,941800
8,575333	0,5	1,923600
8,583667	0,5	1,907600
8,592000	0,5	1,890650
8,600333	0,5	1,882000
8,608667	0,5	1,870250
8,617000	0,5	1,860700
8,625333	0,5	1,854750
8,633667	0,5	1,857250
8,642000	0,5	1,850050
8,650333	0,5	1,843450
8,658667	0,5	1,841300
8,667000	0,5	1,842300
8,675333	0,5	1,844500
8,683667	0,5	1,842200
8,692000	0,5	1,840500
8,700333	0,5	1,835950
8,708667	0,5	1,829950
8,717000	0,5	1,828200
8,725333	0,5	1,818500
8,733667	0,5	1,819700
8,742000	0,5	1,825950
8,750333	0,5	1,831950
8,758667	0,5	1,841500
8,767000	0,5	1,844700
8,775333	0,5	1,861250
8,783667	0,5	1,876550
8,792000	0,5	1,886600
8,800333	0,5	1,897800
8,808667	0,5	1,921800
8,817000	0,5	1,959600
8,825333	0,5	1,997350
8,833667	0,5	2,044050
8,842000	0,5	2,084700
8,850333	0,5	2,110250
8,858667	0,5	2,121300
8,867000	0,5	2,106550
8,875333	0,5	2,094150
8,883667	0,5	2,065150
8,892000	0,5	2,039750
8,900333	0,5	2,029450
8,908667	0,5	2,021550
8,917000	0,5	2,023250
8,925333	0,5	2,033550
8,933667	0,5	2,047750
8,942000	0,5	2,059000
8,950333	0,5	2,074050
8,958667	0,5	2,086950
8,967000	0,5	2,118750
8,975333	0,5	2,143550
8,983667	0,5	2,167800
8,992000	0,5	2,195450
9,000333	0,5	2,233350
9,008667	0,5	2,296600
9,017000	0,5	2,389950
9,025333	0,5	2,539950
9,033667	0,5	2,752700
9,042000	0,5	3,039650
9,050333	0,5	3,370250
9,058667	0,5	3,693400
9,067000	0,5	3,930700
9,075333	0,5	4,028150
9,083667	0,5	3,955300
9,092000	0,5	3,737600
9,100333	0,5	3,429650
9,108667	0,5	3,089250
9,117000	0,5	2,776500
9,125333	0,5	2,518200
9,133667	0,5	2,324650
9,142000	0,5	2,201600
9,150333	0,5	2,133000
9,158667	0,5	2,092950
9,167000	0,5	2,071550
9,175333	0,5	2,053600
9,183667	0,5	2,038950
9,192000	0,5	2,023450
9,200333	0,5	1,995000
9,208667	0,5	1,968850
9,217000	0,5	1,936250
9,225333	0,5	1,906250
9,233667	0,5	1,875850
9,242000	0,5	1,856850
9,250333	0,5	1,841750
9,258667	0,5	1,834750
9,267000	0,5	1,828200
9,275333	0,5	1,826000
9,283667	0,5	1,825050
9,292000	0,5	1,834350
9,300333	0,5	1,845000
9,308667	0,5	1,855650
9,317000	0,5	1,866100
9,325333	0,5	1,878650
9,333667	0,5	1,885950
9,342000	0,5	1,886150
9,350333	0,5	1,877300
9,358667	0,5	1,861100
9,367000	0,5	1,848800
9,375333	0,5	1,835000
9,383667	0,5	1,824700
9,392000	0,5	1,800350
9,400333	0,5	1,781200
9,408667	0,5	1,760650
9,417000	0,5	1,740350
9,425333	0,5	1,721700
9,433667	0,5	1,706700
9,442000	0,5	1,691800
9,450333	0,5	1,683900
9,458667	0,5	1,678600
9,467000	0,5	1,672350
9,475333	0,5	1,668950
9,483667	0,5	1,672300
9,492000	0,5	1,674950
9,500333	0,5	1,683250
9,508667	0,5	1,675300
9,517000	0,5	1,669700
9,525333	0,5	1,658600
9,533667	0,5	1,643500
9,542000	0,5	1,625350
9,550333	0,5	1,605800
9,558667	0,5	1,599100
9,567000	0,5	1,591750
9,575333	0,5	1,583900
9,583667	0,5	1,572850
9,592000	0,5	1,564650
9,600333	0,5	1,553000
9,608667	0,5	1,543050
9,617000	0,5	1,536900
9,625333	0,5	1,529200
9,633667	0,5	1,523250
9,642000	0,5	1,515550
9,650333	0,5	1,503500
9,658667	0,5	1,495050
9,667000	0,5	1,486550
9,675333	0,5	1,478600
9,683667	0,5	1,459000
9,692000	0,5	1,453100
9,700333	0,5	1,447700
9,708667	0,5	1,441500
9,717000	0,5	1,446750
9,725333	0,5	1,444600
9,733667	0,5	1,444750
9,742000	0,5	1,435500
9,750333	0,5	1,438250
9,758667	0,5	1,434650
9,767000	0,5	1,441400
9,775333	0,5	1,448150
9,783667	0,5	1,450800
9,792000	0,5	1,455700
9,800333	0,5	1,464500
9,808667	0,5	1,463450
9,817000	0,5	1,468150
9,825333	0,5	1,472150
9,833667	0,5	1,476400
9,842000	0,5	1,490250
9,850333	0,5	1,507300
9,858667	0,5	1,532550
9,867000	0,5	1,558300
9,875333	0,5	1,582400
9,883667	0,5	1,596850
9,892000	0,5	1,609700
9,900333	0,5	1,606100
9,908667	0,5	1,595050
9,917000	0,5	1,579850
9,925333	0,5	1,561350
9,933667	0,5	1,539500
9,942000	0,5	1,528900
9,950333	0,5	1,515500
9,958667	0,5	1,508250
9,967000	0,5	1,511750
9,975333	0,5	1,513600
9,983667	0,5	1,514500
9,992000	0,5	1,521050
10,000333	0,5	1,525900
10,008667	0,5	1,531550
10,017000	0,5	1,539900
10,025333	0,5	1,547300
10,033667	0,5	1,553150
10,042000	0,5	1,559850
10,050333	0,5	1,557500
10,058667	0,5	1,565350
10,067000	0,5	1,567400
10,075333	0,5	1,575550
10,083667	0,5	1,592200
10,092000	0,5	1,606800
10,100333	0,5	1,620350
10,108667	0,5	1,637250
10,117000	0,5	1,645750
10,125333	0,5	1,651450
10,133667	0,5	1,641050
10,142000	0,5	1,626250
10,150333	0,5	1,607300
10,158667	0,5	1,587450
10,167000	0,5	1,564250
10,175333	0,5	1,541450
10,183667	0,5	1,521450
10,192000	0,5	1,503250
10,200333	0,5	1,484900
10,208667	0,5	1,467850
10,217000	0,5	1,451400
10,225333	0,5	1,441550
10,233667	0,5	1,433100
10,242000	0,5	1,420100
10,250333	0,5	1,408350
10,258667	0,5	1,406650
10,267000	0,5	1,405050
10,275333	0,5	1,395900
10,283667	0,5	1,392950
10,292000	0,5	1,391700
10,300333	0,5	1,394800
10,308667	0,5	1,406050
10,317000	0,5	1,415800
10,325333	0,5	1,431150
10,333667	0,5	1,446500
10,342000	0,5	1,469100
10,350333	0,5	1,486750
10,358667	0,5	1,512300
10,367000	0,5	1,543450
10,375333	0,5	1,574050
10,383667	0,5	1,625100
10,392000	0,5	1,670850
10,400333	0,5	1,718150
10,408667	0,5	1,764950
10,417000	0,5	1,790550
10,425333	0,5	1,802250
10,433667	0,5	1,791250
10,442000	0,5	1,767400
10,450333	0,5	1,735450
10,458667	0,5	1,691050
10,467000	0,5	1,648250
10,475333	0,5	1,598800
10,483667	0,5	1,566200
10,492000	0,5	1,519700
10,500333	0,5	1,493200
10,508667	0,5	1,466850
10,517000	0,5	1,445250
10,525333	0,5	1,436300
10,533667	0,5	1,419400
10,542000	0,5	1,403200
10,550333	0,5	1,396150
10,558667	0,5	1,392800
10,567000	0,5	1,384350
10,575333	0,5	1,380250
10,583667	0,5	1,369500
10,592000	0,5	1,369550
10,600333	0,5	1,368200
10,608667	0,5	1,370350
10,617000	0,5	1,366350
10,625333	0,5	1,368650
10,633667	0,5	1,371350
10,642000	0,5	1,384050
10,650333	0,5	1,392100
10,658667	0,5	1,410900
10,667000	0,5	1,433200
10,675333	0,5	1,466400
10,683667	0,5	1,494150
10,692000	0,5	1,515150
10,700333	0,5	1,535400
10,708667	0,5	1,536450
10,717000	0,5	1,506550
10,725333	0,5	1,464900
10,733667	0,5	1,398250
10,742000	0,5	1,348600
10,750333	0,5	1,299150
10,758667	0,5	1,261000
10,767000	0,5	1,235900
10,775333	0,5	1,223750
10,783667	0,5	1,223150
10,792000	0,5	1,231500
10,800333	0,5	1,249800
10,808667	0,5	1,266000
10,817000	0,5	1,280650
10,825333	0,5	1,299400
10,833667	0,5	1,318050
10,842000	0,5	1,329950
10,850333	0,5	1,340600
10,858667	0,5	1,344650
10,867000	0,5	1,346000
10,875333	0,5	1,339400
10,883667	0,5	1,333300
10,892000	0,5	1,328250
10,900333	0,5	1,322100
10,908667	0,5	1,315550
10,917000	0,5	1,304050
10,925333	0,5	1,299600
10,933667	0,5	1,296350
10,942000	0,5	1,292950
10,950333	0,5	1,289000
10,958667	0,5	1,291100
10,967000	0,5	1,285500
10,975333	0,5	1,290250
10,983667	0,5	1,280700
10,992000	0,5	1,285750
11,000333	0,5	1,283600
11,008667	0,5	1,285950
11,017000	0,5	1,275550
11,025333	0,5	1,267550
11,033667	0,5	1,263750
11,042000	0,5	1,270050
11,050333	0,5	1,267300
11,058667	0,5	1,264450
11,067000	0,5	1,265350
11,075333	0,5	1,273800
11,083667	0,5	1,274800
11,092000	0,5	1,277550
11,100333	0,5	1,273450
11,108667	0,5	1,270550
11,117000	0,5	1,265800
11,125333	0,5	1,258100
11,133667	0,5	1,245750
11,142000	0,5	1,247650
11,150333	0,5	1,236400
11,158667	0,5	1,236300
11,167000	0,5	1,235300
11,175333	0,5	1,236650
11,183667	0,5	1,247300
11,192000	0,5	1,256500
11,200333	0,5	1,266750
11,208667	0,5	1,275400
11,217000	0,5	1,298300
11,225333	0,5	1,317850
11,233667	0,5	1,352500
11,242000	0,5	1,409350
11,250333	0,5	1,472300
11,258667	0,5	1,545900
11,267000	0,5	1,613350
11,275333	0,5	1,678150
11,283667	0,5	1,710200
11,292000	0,5	1,725450
11,300333	0,5	1,699250
11,308667	0,5	1,661850
11,317000	0,5	1,604000
11,325333	0,5	1,551600
11,333667	0,5	1,510450
11,342000	0,5	1,480050
11,350333	0,5	1,447700
11,358667	0,5	1,425800
11,367000	0,5	1,399450
11,375333	0,5	1,380900
11,383667	0,5	1,354850
11,392000	0,5	1,333100
11,400333	0,5	1,311350
11,408667	0,5	1,295100
11,417000	0,5	1,286700
11,425333	0,5	1,280800
11,433667	0,5	1,278700
11,442000	0,5	1,282400
11,450333	0,5	1,289200
11,458667	0,5	1,309350
11,467000	0,5	1,335050
11,475333	0,5	1,383200
11,483667	0,5	1,446600
11,492000	0,5	1,516650
11,500333	0,5	1,582900
11,508667	0,5	1,641000
11,517000	0,5	1,685450
11,525333	0,5	1,693050
11,533667	0,5	1,691500
11,542000	0,5	1,661900
11,550333	0,5	1,626500
11,558667	0,5	1,591750
11,567000	0,5	1,550600
11,575333	0,5	1,499750
11,583667	0,5	1,467100
11,592000	0,5	1,432150
11,600333	0,5	1,392200
11,608667	0,5	1,353250
11,617000	0,5	1,325800
11,625333	0,5	1,304550
11,633667	0,5	1,291400
11,642000	0,5	1,278800
11,650333	0,5	1,275550
11,658667	0,5	1,283500
11,667000	0,5	1,279700
11,675333	0,5	1,285050
11,683667	0,5	1,283950
11,692000	0,5	1,285050
11,700333	0,5	1,285750
11,708667	0,5	1,275600
11,717000	0,5	1,255200
11,725333	0,5	1,244500
11,733667	0,5	1,229300
11,742000	0,5	1,215400
11,750333	0,5	1,197150
11,758667	0,5	1,173800
11,767000	0,5	1,167400
11,775333	0,5	1,158750
11,783667	0,5	1,153950
11,792000	0,5	1,151800
11,800333	0,5	1,150400
11,808667	0,5	1,148850
11,817000	0,5	1,150250
11,825333	0,5	1,152050
11,833667	0,5	1,155600
11,842000	0,5	1,155300
11,850333	0,5	1,165100
11,858667	0,5	1,166100
11,867000	0,5	1,173500
11,875333	0,5	1,186650
11,883667	0,5	1,196000
11,892000	0,5	1,202250
11,900333	0,5	1,204550
11,908667	0,5	1,200750
11,917000	0,5	1,204700
11,925333	0,5	1,214850
11,933667	0,5	1,220750
11,942000	0,5	1,226050
11,950333	0,5	1,227500
11,958667	0,5	1,233950
11,967000	0,5	1,235800
11,975333	0,5	1,249300
11,983667	0,5	1,257550
11,992000	0,5	1,278600
12,000333	0,5	1,303500
12,008667	0,5	1,331650
12,017000	0,5	1,341700
12,025333	0,5	1,369250
12,033667	0,5	1,387500
12,042000	0,5	1,402900
12,050333	0,5	1,400150
12,058667	0,5	1,392150
12,067000	0,5	1,387550
12,075333	0,5	1,384550
12,083667	0,5	1,375150
12,092000	0,5	1,360000
12,100333	0,5	1,359600
12,108667	0,5	1,348700
12,117000	0,5	1,344950
12,125333	0,5	1,343550
12,133667	0,5	1,351000
12,142000	0,5	1,360450
12,150333	0,5	1,374950
12,158667	0,5	1,389350
12,167000	0,5	1,400750
12,175333	0,5	1,420800
12,183667	0,5	1,441750
12,192000	0,5	1,455050
12,200333	0,5	1,486500
12,208667	0,5	1,517250
12,217000	0,5	1,582600
12,225333	0,5	1,653300
12,233667	0,5	1,736800
12,242000	0,5	1,803700
12,250333	0,5	1,874400
12,258667	0,5	1,918100
12,267000	0,5	1,957500
12,275333	0,5	1,979300
12,283667	0,5	1,998100
12,292000	0,5	2,023200
12,300333	0,5	2,038800
12,308667	0,5	2,054900
12,317000	0,5	2,055100
12,325333	0,5	2,050250
12,333667	0,5	2,035200
12,342000	0,5	2,020600
12,350333	0,5	1,991450
12,358667	0,5	1,971300
12,367000	0,5	1,963600
12,375333	0,5	1,946700
12,383667	0,5	1,919150
12,392000	0,5	1,871550
12,400333	0,5	1,819750
12,408667	0,5	1,764350
12,417000	0,5	1,721950
12,425333	0,5	1,683200
12,433667	0,5	1,667200
12,442000	0,5	1,658650
12,450333	0,5	1,660500
12,458667	0,5	1,653750
12,467000	0,5	1,644950
12,475333	0,5	1,621350
12,483667	0,5	1,582250
12,492000	0,5	1,533200
12,500333	0,5	1,476550
12,508667	0,5	1,423100
12,517000	0,5	1,380150
12,525333	0,5	1,333950
12,533667	0,5	1,294550
12,542000	0,5	1,264550
12,550333	0,5	1,236950
12,558667	0,5	1,209600
12,567000	0,5	1,190200
12,575333	0,5	1,170900
12,583667	0,5	1,153400
12,592000	0,5	1,138150
12,600333	0,5	1,130550
12,608667	0,5	1,112300
12,617000	0,5	1,110800
12,625333	0,5	1,103100
12,633667	0,5	1,084900
12,642000	0,5	1,071850
12,650333	0,5	1,055400
12,658667	0,5	1,053550
12,667000	0,5	1,045150
12,675333	0,5	1,042150
12,683667	0,5	1,040350
12,692000	0,5	1,040000
12,700333	0,5	1,028900
12,708667	0,5	1,029800
12,717000	0,5	1,029300
12,725333	0,5	1,026000
12,733667	0,5	1,021100
12,742000	0,5	1,019600
12,750333	0,5	1,002000
12,758667	0,5	1,005750
12,767000	0,5	1,000900
12,775333	0,5	0,996850
12,783667	0,5	0,981400
12,792000	0,5	0,962650
12,800333	0,5	0,952850
12,808667	0,5	0,945000
12,817000	0,5	0,955950
12,825333	0,5	0,972150
12,833667	0,5	0,995300
12,842000	0,5	1,033500
12,850333	0,5	1,086700
12,858667	0,5	1,136050
12,867000	0,5	1,176650
12,875333	0,5	1,185750
12,883667	0,5	1,189100
12,892000	0,5	1,161100
12,900333	0,5	1,101950
12,908667	0,5	1,034100
12,917000	0,5	0,954150
12,925333	0,5	0,867250
12,933667	0,5	0,783500
12,942000	0,5	0,686400
12,950333	0,5	0,622000
12,958667	0,5	0,568300
12,967000	0,5	0,511200
12,975333	0,5	0,405250
12,983667	0,5	0,280700
12,992000	0,5	0,097300
13,000333	0,5	-0,208100
13,008667	0,5	-0,618850
13,017000	0,5	-0,974950
13,025333	0,5	-1,264000
13,033667	0,5	-1,537350
13,042000	0,5	-1,746700
13,050333	0,5	-1,898550
13,058667	0,5	-1,987800
13,067000	0,5	-2,069150
13,075333	0,5	-2,142000
13,083667	0,5	-2,209400
13,092000	0,5	-2,264850
13,100333	0,5	-2,301750
13,108667	0,5	-2,330500
13,117000	0,5	-2,359500
13,125333	0,5	-2,376400
13,133667	0,5	-2,383250
13,142000	0,5	-2,380400
13,150333	0,5	-2,366300
13,158667	0,5	-2,349250
13,167000	0,5	-2,340450
13,175333	0,5	-2,328950
13,183667	0,5	-2,313700
13,192000	0,5	-2,325100
13,200333	0,5	-2,332650
13,208667	0,5	-2,345100
13,217000	0,5	-2,367200
13,225333	0,5	-2,402550
13,233667	0,5	-2,443350
13,242000	0,5	-2,477800
13,250333	0,5	-2,498800
13,258667	0,5	-2,512050
13,267000	0,5	-2,535000
13,275333	0,5	-2,543900
13,283667	0,5	-2,548500
13,292000	0,5	-2,552000
13,300333	0,5	-2,546850
13,308667	0,5	-2,538450
13,317000	0,5	-2,537950
13,325333	0,5	-2,523600
13,333667	0,5	-2,509300
13,342000	0,5	-2,497100
13,350333	0,5	-2,474400
13,358667	0,5	-2,444800
13,367000	0,5	-2,419750
13,375333	0,5	-2,390250
13,383667	0,5	-2,373350
13,392000	0,5	-2,343300
13,400333	0,5	-2,323800
13,408667	0,5	-2,308050
13,417000	0,5	-2,296150
13,425333	0,5	-2,287150
13,433667	0,5	-2,284750
13,442000	0,5	-2,265150
13,450333	0,5	-2,252300
13,458667	0,5	-2,238950
13,467000	0,5	-2,222200
13,475333	0,5	-2,213350
13,483667	0,5	-2,192800
13,492000	0,5	-2,191400
13,500333	0,5	-2,180500
13,508667	0,5	-2,181150
13,517000	0,5	-2,180250
13,525333	0,5	-2,198600
13,533667	0,5	-2,218100
13,542000	0,5	-2,230350
13,550333	0,5	-2,233900
13,558667	0,5	-2,243150
13,567000	0,5	-2,245400
13,575333	0,5	-2,254000
13,583667	0,5	-2,257600
13,592000	0,5	-2,260350
13,600333	0,5	-2,248450
13,608667	0,5	-2,247400
13,617000	0,5	-2,244300
13,625333	0,5	-2,233450
13,633667	0,5	-2,220600
13,642000	0,5	-2,209300
13,650333	0,5	-2,190550
13,658667	0,5	-2,176650
13,667000	0,5	-2,156050
13,675333	0,5	-2,153150
13,683667	0,5	-2,138900
13,692000	0,5	-2,119550
13,700333	0,5	-2,102000
13,708667	0,5	-2,080350
13,717000	0,5	-2,063250
13,725333	0,5	-2,045500
13,733667	0,5	-2,025800
13,742000	0,5	-1,997400
13,750333	0,5	-1,974450
13,758667	0,5	-1,951100
13,767000	0,5	-1,914450
13,775333	0,5	-1,877150
13,783667	0,5	-1,858850
13,792000	0,5	-1,815300
13,800333	0,5	-1,785200
13,808667	0,5	-1,752550
13,817000	0,5	-1,726550
13,825333	0,5	-1,711250
13,833667	0,5	-1,683150
13,842000	0,5	-1,662300
13,850333	0,5	-1,636700
13,858667	0,5	-1,633950
13,867000	0,5	-1,618150
13,875333	0,5	-1,609000
13,883667	0,5	-1,594900
13,892000	0,5	-1,578800
13,900333	0,5	-1,561700
13,908667	0,5	-1,553950
13,917000	0,5	-1,526900
13,925333	0,5	-1,509600
13,933667	0,5	-1,493650
13,942000	0,5	-1,463150
13,950333	0,5	-1,435000
13,958667	0,5	-1,412450
13,967000	0,5	-1,393400
13,975333	0,5	-1,365000
13,983667	0,5	-1,311150
13,992000	0,5	-1,259550
14,000333	0,5	-1,194650
14,008667	0,5	-1,117850
14,017000	0,5	-1,024200
14,025333	0,5	-0,932500
14,033667	0,5	-0,841000
14,042000	0,5	-0,751400
14,050333	0,5	-0,675000
14,058667	0,5	-0,615850
14,067000	0,5	-0,570800
14,075333	0,5	-0,548250
14,083667	0,5	-0,524800
14,092000	0,5	-0,519900
14,100333	0,5	-0,513550
14,108667	0,5	-0,514800
14,117000	0,5	-0,511550
14,125333	0,5	-0,477150
14,133667	0,5	-0,418350
14,142000	0,5	-0,340100
14,150333	0,5	-0,246300
14,158667	0,5	-0,142800
14,167000	0,5	-0,052350
14,175333	0,5	0,027450
14,183667	0,5	0,086000
14,192000	0,5	0,107400
14,200333	0,5	0,104500
14,208667	0,5	0,081600
14,217000	0,5	0,063200
14,225333	0,5	0,027700
14,233667	0,5	0,020800
14,242000	0,5	0,016400
14,250333	0,5	0,013450
14,258667	0,5	0,008750
14,267000	0,5	-0,005100
14,275333	0,5	0,004700
14,283667	0,5	0,020950
14,292000	0,5	0,019000
14,300333	0,5	0,027900
14,308667	0,5	0,034600
14,317000	0,5	0,040200
14,325333	0,5	0,047700
14,333667	0,5	0,057400
14,342000	0,5	0,059300
14,350333	0,5	0,064300
14,358667	0,5	0,077750
14,367000	0,5	0,080800
14,375333	0,5	0,080200
14,383667	0,5	0,098400
14,392000	0,5	0,109650
14,400333	0,5	0,122900
14,408667	0,5	0,141600
14,417000	0,5	0,143000
14,425333	0,5	0,171450
14,433667	0,5	0,172650
14,442000	0,5	0,170450
14,450333	0,5	0,155550
14,458667	0,5	0,145050
14,467000	0,5	0,128800
14,475333	0,5	0,111900
14,483667	0,5	0,096450
14,492000	0,5	0,083250
14,500333	0,5	0,075250
14,508667	0,5	0,067450
14,517000	0,5	0,061800
14,525333	0,5	0,056200
14,533667	0,5	0,063900
14,542000	0,5	0,063150
14,550333	0,5	0,072200
14,558667	0,5	0,052600
14,567000	0,5	0,045200
14,575333	0,5	0,046400
14,583667	0,5	0,059750
14,592000	0,5	0,065800
14,600333	0,5	0,081000
14,608667	0,5	0,109150
14,617000	0,5	0,173450
14,625333	0,5	0,246800
14,633667	0,5	0,350600
14,642000	0,5	0,460000
14,650333	0,5	0,561300
14,658667	0,5	0,626300
14,667000	0,5	0,639800
14,675333	0,5	0,603600
14,683667	0,5	0,543700
14,692000	0,5	0,476050
14,700333	0,5	0,410700
14,708667	0,5	0,376650
14,717000	0,5	0,384100
14,725333	0,5	0,444100
14,733667	0,5	0,517950
14,742000	0,5	0,598250
14,750333	0,5	0,658150
14,758667	0,5	0,686950
14,767000	0,5	0,653650
14,775333	0,5	0,588450
14,783667	0,5	0,500150
14,792000	0,5	0,420150
14,800333	0,5	0,360050
14,808667	0,5	0,306000
14,817000	0,5	0,251750
14,825333	0,5	0,227500
14,833667	0,5	0,200350
14,842000	0,5	0,175600
14,850333	0,5	0,156550
14,858667	0,5	0,146600
14,867000	0,5	0,152250
14,875333	0,5	0,156050
14,883667	0,5	0,168050
14,892000	0,5	0,174200
14,900333	0,5	0,185050
14,908667	0,5	0,178200
14,917000	0,5	0,175050
14,925333	0,5	0,160000
14,933667	0,5	0,149850
14,942000	0,5	0,137950
14,950333	0,5	0,141000
14,958667	0,5	0,120450
14,967000	0,5	0,127000
14,975333	0,5	0,121700
14,983667	0,5	0,103250
14,992000	0,5	0,081500
15,000333	0,5	0,044700
15,008667	0,5	0,034550
15,017000	0,5	0,024750
15,025333	0,5	0,012750
15,033667	0,5	0,008750
15,042000	0,5	0,001150
15,050333	0,5	-0,004300
15,058667	0,5	-0,011650
15,067000	0,5	-0,023000
15,075333	0,5	-0,029700
15,083667	0,5	-0,038900
15,092000	0,5	-0,047100
15,100333	0,5	-0,046550
15,108667	0,5	-0,047400
15,117000	0,5	-0,015700
15,125333	0,5	0,026500
15,133667	0,5	0,091800
15,142000	0,5	0,192650
15,150333	0,5	0,293000
15,158667	0,5	0,421350
15,167000	0,5	0,521650
15,175333	0,5	0,549800
15,183667	0,5	0,524700
15,192000	0,5	0,463800
15,200333	0,5	0,399750
15,208667	0,5	0,362150
15,217000	0,5	0,371750
15,225333	0,5	0,420550
15,233667	0,5	0,492800
15,242000	0,5	0,553950
15,250333	0,5	0,578550
15,258667	0,5	0,540850
15,267000	0,5	0,481300
15,275333	0,5	0,390100
15,283667	0,5	0,307300
15,292000	0,5	0,217150
15,300333	0,5	0,151950
15,308667	0,5	0,132250
15,317000	0,5	0,122600
15,325333	0,5	0,114850
15,333667	0,5	0,100900
15,342000	0,5	0,090300
15,350333	0,5	0,068400
15,358667	0,5	0,051000
15,367000	0,5	0,042300
15,375333	0,5	0,028150
15,383667	0,5	0,028700
15,392000	0,5	0,045250
15,400333	0,5	0,034000
15,408667	0,5	0,036600
15,417000	0,5	0,040100
15,425333	0,5	0,035050
15,433667	0,5	0,007450
15,442000	0,5	-0,022800
15,450333	0,5	-0,052550
15,458667	0,5	-0,066250
15,467000	0,5	-0,089750
15,475333	0,5	-0,109300
15,483667	0,5	-0,123700
15,492000	0,5	-0,139550
15,500333	0,5	-0,161550
15,508667	0,5	-0,169500
15,517000	0,5	-0,184100
15,525333	0,5	-0,195000
15,533667	0,5	-0,200100
15,542000	0,5	-0,199000
15,550333	0,5	-0,208800
15,558667	0,5	-0,193450
15,567000	0,5	-0,177750
15,575333	0,5	-0,143150
15,583667	0,5	-0,083100
15,592000	0,5	-0,002750
15,600333	0,5	0,108600
15,608667	0,5	0,250700
15,617000	0,5	0,361150
15,625333	0,5	0,413850
15,633667	0,5	0,426150
15,642000	0,5	0,386900
15,650333	0,5	0,354900
15,658667	0,5	0,353050
15,667000	0,5	0,376750
15,675333	0,5	0,424850
15,683667	0,5	0,462900
15,692000	0,5	0,469750
15,700333	0,5	0,423650
15,708667	0,5	0,364900
15,717000	0,5	0,273900
15,725333	0,5	0,186800
15,733667	0,5	0,088000
15,742000	0,5	0,006650
15,750333	0,5	-0,044800
15,758667	0,5	-0,064650
15,767000	0,5	-0,097400
15,775333	0,5	-0,103100
15,783667	0,5	-0,112300
15,792000	0,5	-0,105550
15,800333	0,5	-0,102900
15,808667	0,5	-0,092650
15,817000	0,5	-0,094250
15,825333	0,5	-0,098150
15,833667	0,5	-0,103550
15,842000	0,5	-0,130450
15,850333	0,5	-0,152150
15,858667	0,5	-0,162450
15,867000	0,5	-0,196100
15,875333	0,5	-0,222250
15,883667	0,5	-0,261300
15,892000	0,5	-0,286600
15,900333	0,5	-0,292950
15,908667	0,5	-0,317900
15,917000	0,5	-0,323700
15,925333	0,5	-0,328300
15,933667	0,5	-0,338200
15,942000	0,5	-0,351750
15,950333	0,5	-0,346300
15,958667	0,5	-0,348100
15,967000	0,5	-0,339050
15,975333	0,5	-0,317200
15,983667	0,5	-0,264150
15,992000	0,5	-0,202050
16,000333	0,5	-0,069700
16,008667	0,5	0,058950
16,017000	0,5	0,177000
16,025333	0,5	0,265150
16,033667	0,5	0,298450
16,042000	0,5	0,321950
16,050333	0,5	0,314850
16,058667	0,5	0,331000
16,067000	0,5	0,351050
16,075333	0,5	0,373850
16,083667	0,5	0,363500
16,092000	0,5	0,325550
16,100333	0,5	0,241950
16,108667	0,5	0,142650
16,117000	0,5	0,041750
16,125333	0,5	-0,030700
16,133667	0,5	-0,098250
16,142000	0,5	-0,125600
16,150333	0,5	-0,145000
16,158667	0,5	-0,142450
16,167000	0,5	-0,151000
16,175333	0,5	-0,164050
16,183667	0,5	-0,157550
16,192000	0,5	-0,144350
16,200333	0,5	-0,133300
16,208667	0,5	-0,144400
16,217000	0,5	-0,156950
16,225333	0,5	-0,168200
16,233667	0,5	-0,183850
16,242000	0,5	-0,213150
16,250333	0,5	-0,226600
16,258667	0,5	-0,262000
16,267000	0,5	-0,294450
16,275333	0,5	-0,312400
16,283667	0,5	-0,349050
16,292000	0,5	-0,367450
16,300333	0,5	-0,373850
16,308667	0,5	-0,391150
16,317000	0,5	-0,415100
16,325333	0,5	-0,445150
16,333667	0,5	-0,443150
16,342000	0,5	-0,405850
16,350333	0,5	-0,355800
16,358667	0,5	-0,273400
16,367000	0,5	-0,151750
16,375333	0,5	-0,013650
16,383667	0,5	0,100200
16,392000	0,5	0,188350
16,400333	0,5	0,229650
16,408667	0,5	0,239600
16,417000	0,5	0,229650
16,425333	0,5	0,238250
16,433667	0,5	0,216800
16,442000	0,5	0,208650
16,450333	0,5	0,155700
16,458667	0,5	0,079050
16,467000	0,5	-0,018850
16,475333	0,5	-0,111650
16,483667	0,5	-0,145650
16,492000	0,5	-0,167000
16,500333	0,5	-0,178450
16,508667	0,5	-0,173500
16,517000	0,5	-0,157050
16,525333	0,5	-0,147850
16,533667	0,5	-0,127750
16,542000	0,5	-0,100800
16,550333	0,5	-0,091500
16,558667	0,5	-0,090600
16,567000	0,5	-0,082350
16,575333	0,5	-0,096750
16,583667	0,5	-0,114400
16,592000	0,5	-0,122550
16,600333	0,5	-0,136500
16,608667	0,5	-0,165550
16,617000	0,5	-0,189950
16,625333	0,5	-0,219550
16,633667	0,5	-0,213350
16,642000	0,5	-0,215300
16,650333	0,5	-0,218450
16,658667	0,5	-0,225600
16,667000	0,5	-0,228550
16,675333	0,5	-0,226250
16,683667	0,5	-0,193950
16,692000	0,5	-0,136250
16,700333	0,5	-0,059300
16,708667	0,5	0,043000
16,717000	0,5	0,122450
16,725333	0,5	0,174300
16,733667	0,5	0,189650
16,742000	0,5	0,210050
16,750333	0,5	0,192700
16,758667	0,5	0,178350
16,767000	0,5	0,126300
16,775333	0,5	0,071000
16,783667	0,5	0,008900
16,792000	0,5	-0,062350
16,800333	0,5	-0,127250
16,808667	0,5	-0,176650
16,817000	0,5	-0,218000
16,825333	0,5	-0,246650
16,833667	0,5	-0,266100
16,842000	0,5	-0,269650
16,850333	0,5	-0,289900
16,858667	0,5	-0,295900
16,867000	0,5	-0,296100
16,875333	0,5	-0,317700
16,883667	0,5	-0,319650
16,892000	0,5	-0,327050
16,900333	0,5	-0,341950
16,908667	0,5	-0,375900
16,917000	0,5	-0,401950
16,925333	0,5	-0,421050
16,933667	0,5	-0,437400
16,942000	0,5	-0,449300
16,950333	0,5	-0,444800
16,958667	0,5	-0,436900
16,967000	0,5	-0,419000
16,975333	0,5	-0,393750
16,983667	0,5	-0,343050
16,992000	0,5	-0,277200
17,000333	0,5	-0,182900
17,008667	0,5	-0,055600
17,017000	0,5	0,052550
17,025333	0,5	0,162850
17,033667	0,5	0,248500
17,042000	0,5	0,335300
17,050333	0,5	0,425050
17,058667	0,5	0,496600
17,067000	0,5	0,592500
17,075333	0,5	0,711250
17,083667	0,5	0,824950
17,092000	0,5	0,956050
17,100333	0,5	1,086350
17,108667	0,5	1,235000
17,117000	0,5	1,361950
17,125333	0,5	1,490750
17,133667	0,5	1,598150
17,142000	0,5	1,682750
17,150333	0,5	1,769500
17,158667	0,5	1,825750
17,167000	0,5	1,829500
17,175333	0,5	1,831200
17,183667	0,5	1,779650
17,192000	0,5	1,684100
17,200333	0,5	1,543500
17,208667	0,5	1,351600
17,217000	0,5	1,187300
17,225333	0,5	1,009300
17,233667	0,5	0,848450
17,242000	0,5	0,701050
17,250333	0,5	0,599200
17,258667	0,5	0,522200
17,267000	0,5	0,513400
17,275333	0,5	0,521300
17,283667	0,5	0,572950
17,292000	0,5	0,615050
17,300333	0,5	0,645150
17,308667	0,5	0,663800
17,317000	0,5	0,644050
17,325333	0,5	0,628800
17,333667	0,5	0,585200
17,342000	0,5	0,500100
17,350333	0,5	0,412050
17,358667	0,5	0,327450
17,367000	0,5	0,291400
17,375333	0,5	0,274950
17,383667	0,5	0,267500
17,392000	0,5	0,293350
17,400333	0,5	0,319100
17,408667	0,5	0,343950
17,417000	0,5	0,370950
17,425333	0,5	0,399000
17,433667	0,5	0,418100
17,442000	0,5	0,420250
17,450333	0,5	0,418500
17,458667	0,5	0,396600
17,467000	0,5	0,374150
17,475333	0,5	0,335250
17,483667	0,5	0,289800
17,492000	0,5	0,215750
17,500333	0,5	0,142950
17,508667	0,5	0,095100
17,517000	0,5	0,095700
17,525333	0,5	0,103100
17,533667	0,5	0,118050
17,542000	0,5	0,133850
17,550333	0,5	0,118800
17,558667	0,5	0,103800
17,567000	0,5	0,077000
17,575333	0,5	0,022700
17,583667	0,5	-0,041050
17,592000	0,5	-0,113850
17,600333	0,5	-0,163700
17,608667	0,5	-0,242200
17,617000	0,5	-0,280150
17,625333	0,5	-0,307700
17,633667	0,5	-0,335800
17,642000	0,5	-0,385350
17,650333	0,5	-0,433400
17,658667	0,5	-0,454700
17,667000	0,5	-0,473250
17,675333	0,5	-0,488800
17,683667	0,5	-0,499300
17,692000	0,5	-0,521800
17,700333	0,5	-0,530150
17,708667	0,5	-0,542550
17,717000	0,5	-0,542900
17,725333	0,5	-0,532300
17,733667	0,5	-0,515000
17,742000	0,5	-0,456100
17,750333	0,5	-0,421250
17,758667	0,5	-0,363750
17,767000	0,5	-0,302750
17,775333	0,5	-0,265750
17,783667	0,5	-0,263350
17,792000	0,5	-0,285050
17,800333	0,5	-0,330300
17,808667	0,5	-0,364850
17,817000	0,5	-0,397050
17,825333	0,5	-0,434000
17,833667	0,5	-0,460800
17,842000	0,5	-0,489150
17,850333	0,5	-0,517900
17,858667	0,5	-0,553300
17,867000	0,5	-0,556200
17,875333	0,5	-0,587600
17,883667	0,5	-0,601250
17,892000	0,5	-0,611800
17,900333	0,5	-0,621550
17,908667	0,5	-0,623250
17,917000	0,5	-0,613550
17,925333	0,5	-0,607650
17,933667	0,5	-0,595850
17,942000	0,5	-0,586700
17,950333	0,5	-0,542950
17,958667	0,5	-0,495550
17,967000	0,5	-0,436900
17,975333	0,5	-0,407900
17,983667	0,5	-0,383000
17,992000	0,5	-0,383550
18,000333	0,5	-0,397200
18,008667	0,5	-0,419100
18,017000	0,5	-0,459550
18,025333	0,5	-0,492850
18,033667	0,5	-0,521600
18,042000	0,5	-0,541450
18,050333	0,5	-0,579250
18,058667	0,5	-0,581000
18,067000	0,5	-0,598350
18,075333	0,5	-0,613200
18,083667	0,5	-0,630550
18,092000	0,5	-0,649600
18,100333	0,5	-0,648300
18,108667	0,5	-0,636100
18,117000	0,5	-0,624900
18,125333	0,5	-0,595000
18,133667	0,5	-0,555650
18,142000	0,5	-0,517050
18,150333	0,5	-0,467500
18,158667	0,5	-0,435300
18,167000	0,5	-0,416300
18,175333	0,5	-0,422550
18,183667	0,5	-0,408500
18,192000	0,5	-0,457500
18,200333	0,5	-0,485150
18,208667	0,5	-0,513250
18,217000	0,5	-0,534250
18,225333	0,5	-0,561250
18,233667	0,5	-0,597200
18,242000	0,5	-0,619100
18,250333	0,5	-0,609450
18,258667	0,5	-0,624000
18,267000	0,5	-0,639850
18,275333	0,5	-0,642300
18,283667	0,5	-0,627900
18,292000	0,5	-0,621400
18,300333	0,5	-0,606350
18,308667	0,5	-0,586100
18,317000	0,5	-0,560100
18,325333	0,5	-0,528450
18,333667	0,5	-0,502300
18,342000	0,5	-0,512300
18,350333	0,5	-0,499800
18,358667	0,5	-0,516600
18,367000	0,5	-0,545400
18,375333	0,5	-0,576850
18,383667	0,5	-0,629750
18,392000	0,5	-0,638550
18,400333	0,5	-0,655300
18,408667	0,5	-0,656450
18,417000	0,5	-0,671650
18,425333	0,5	-0,674400
18,433667	0,5	-0,682400
18,442000	0,5	-0,679750
18,450333	0,5	-0,684450
18,458667	0,5	-0,688200
18,467000	0,5	-0,683800
18,475333	0,5	-0,687450
18,483667	0,5	-0,664100
18,492000	0,5	-0,661750
18,500333	0,5	-0,633500
18,508667	0,5	-0,634700
18,517000	0,5	-0,639550
18,525333	0,5	-0,674850
18,533667	0,5	-0,722000
18,542000	0,5	-0,730750
18,550333	0,5	-0,739900
18,558667	0,5	-0,768700
18,567000	0,5	-0,772700
18,575333	0,5	-0,797950
18,583667	0,5	-0,801700
18,592000	0,5	-0,812350
18,600333	0,5	-0,821100
18,608667	0,5	-0,832450
18,617000	0,5	-0,836600
18,625333	0,5	-0,819900
18,633667	0,5	-0,815650
18,642000	0,5	-0,783200
18,650333	0,5	-0,751250
18,658667	0,5	-0,742850
18,667000	0,5	-0,755000
18,675333	0,5	-0,786800
18,683667	0,5	-0,820800
18,692000	0,5	-0,818600
18,700333	0,5	-0,817350
18,708667	0,5	-0,812300
18,717000	0,5	-0,816800
18,725333	0,5	-0,812650
18,733667	0,5	-0,813950
18,742000	0,5	-0,812000
18,750333	0,5	-0,801350
18,758667	0,5	-0,785800
18,767000	0,5	-0,753450
18,775333	0,5	-0,731000
18,783667	0,5	-0,743050
18,792000	0,5	-0,739900
18,800333	0,5	-0,747150
18,808667	0,5	-0,769100
18,817000	0,5	-0,815000
18,825333	0,5	-0,865750
18,833667	0,5	-0,898750
18,842000	0,5	-0,928050
18,850333	0,5	-0,941750
18,858667	0,5	-0,962400
18,867000	0,5	-0,954750
18,875333	0,5	-0,961450
18,883667	0,5	-0,963150
18,892000	0,5	-0,958350
18,900333	0,5	-0,941500
18,908667	0,5	-0,947550
18,917000	0,5	-0,935450
18,925333	0,5	-0,953000
18,933667	0,5	-0,972250
18,942000	0,5	-0,987500
18,950333	0,5	-1,013350
18,958667	0,5	-1,036650
18,967000	0,5	-1,070550
18,975333	0,5	-1,097650
18,983667	0,5	-1,112550
18,992000	0,5	-1,104350
19,000333	0,5	-1,115150
19,008667	0,5	-1,102900
19,017000	0,5	-1,091100
19,025333	0,5	-1,090050
19,033667	0,5	-1,081650
19,042000	0,5	-1,086950
19,050333	0,5	-1,087000
19,058667	0,5	-1,097200
19,067000	0,5	-1,096400
19,075333	0,5	-1,124000
19,083667	0,5	-1,131550
19,092000	0,5	-1,130150
19,100333	0,5	-1,142550
19,108667	0,5	-1,148200
19,117000	0,5	-1,178850
19,125333	0,5	-1,187650
19,133667	0,5	-1,181050
19,142000	0,5	-1,197250
19,150333	0,5	-1,198600
19,158667	0,5	-1,226000
19,167000	0,5	-1,238000
19,175333	0,5	-1,242500
19,183667	0,5	-1,250850
19,192000	0,5	-1,293500
19,200333	0,5	-1,296500
19,208667	0,5	-1,293450
19,217000	0,5	-1,279650
19,225333	0,5	-1,307900
19,233667	0,5	-1,298500
19,242000	0,5	-1,310800
19,250333	0,5	-1,323000
19,258667	0,5	-1,344650
19,267000	0,5	-1,374950
19,275333	0,5	-1,371000
19,283667	0,5	-1,368650
19,292000	0,5	-1,378200
19,300333	0,5	-1,387350
19,308667	0,5	-1,384100
19,317000	0,5	-1,395900
19,325333	0,5	-1,400300
19,333667	0,5	-1,409800
19,342000	0,5	-1,417100
19,350333	0,5	-1,440300
19,358667	0,5	-1,434050
19,367000	0,5	-1,454550
19,375333	0,5	-1,460050
19,383667	0,5	-1,471650
19,392000	0,5	-1,477650
19,400333	0,5	-1,510700
19,408667	0,5	-1,522000
19,417000	0,5	-1,535950
19,425333	0,5	-1,526250
19,433667	0,5	-1,525500
19,442000	0,5	-1,540650
19,450333	0,5	-1,545450
19,458667	0,5	-1,553050
19,467000	0,5	-1,549100
19,475333	0,5	-1,552300
19,483667	0,5	-1,556400
19,492000	0,5	-1,567650
19,500333	0,5	-1,585100
19,508667	0,5	-1,588150
19,517000	0,5	-1,611000
19,525333	0,5	-1,607950
19,533667	0,5	-1,610750
19,542000	0,5	-1,613550
19,550333	0,5	-1,634550
19,558667	0,5	-1,672100
19,567000	0,5	-1,671300
19,575333	0,5	-1,672100
19,583667	0,5	-1,676700
19,592000	0,5	-1,688200
19,600333	0,5	-1,694850
19,608667	0,5	-1,701500
19,617000	0,5	-1,709150
19,625333	0,5	-1,716950
19,633667	0,5	-1,729350
19,642000	0,5	-1,724900
19,650333	0,5	-1,731050
19,658667	0,5	-1,727250
19,667000	0,5	-1,749900
19,675333	0,5	-1,735850
19,683667	0,5	-1,750750
19,692000	0,5	-1,763650
19,700333	0,5	-1,795650
19,708667	0,5	-1,826500
19,717000	0,5	-1,830800
19,725333	0,5	-1,826500
19,733667	0,5	-1,853850
19,742000	0,5	-1,854050
19,750333	0,5	-1,874250
19,758667	0,5	-1,891800
19,767000	0,5	-1,896300
19,775333	0,5	-1,916100
19,783667	0,5	-1,927700
19,792000	0,5	-1,941700
19,800333	0,5	-1,937200
19,808667	0,5	-1,966700
19,817000	0,5	-1,970100
19,825333	0,5	-1,975850
19,833667	0,5	-1,990100
19,842000	0,5	-2,021450
19,850333	0,5	-2,036650
19,858667	0,5	-2,060650
19,867000	0,5	-2,063500
19,875333	0,5	-2,076550
19,883667	0,5	-2,069350
19,892000	0,5	-2,077800
19,900333	0,5	-2,087500
19,908667	0,5	-2,105700
19,917000	0,5	-2,113350
19,925333	0,5	-2,115700
19,933667	0,5	-2,122650
19,942000	0,5	-2,112750
19,950333	0,5	-2,110750
19,958667	0,5	-2,124500
19,967000	0,5	-2,131800
19,975333	0,5	-2,133400
19,983667	0,5	-2,153350
19,992000	0,5	-2,178450
20,000333	0,5	-2,218400
20,008667	0,5	-2,235300
20,017000	0,5	-2,252800
20,025333	0,5	-2,265050
20,033667	0,5	-2,272000
20,042000	0,5	-2,287650
20,050333	0,5	-2,315050
20,058667	0,5	-2,318850
20,067000	0,5	-2,331050
20,075333	0,5	-2,341550
20,083667	0,5	-2,356600
20,092000	0,5	-2,356150
20,100333	0,5	-2,374850
20,108667	0,5	-2,395850
20,117000	0,5	-2,405500
20,125333	0,5	-2,418650
20,133667	0,5	-2,424150
20,142000	0,5	-2,467800
20,150333	0,5	-2,476600
20,158667	0,5	-2,486200
20,167000	0,5	-2,477600
20,175333	0,5	-2,488850
20,183667	0,5	-2,485900
20,192000	0,5	-2,490350
20,200333	0,5	-2,502850
20,208667	0,5	-2,498150
20,217000	0,5	-2,521300
20,225333	0,5	-2,531900
20,233667	0,5	-2,538900
20,242000	0,5	-2,539950
20,250333	0,5	-2,567400
20,258667	0,5	-2,573550
20,267000	0,5	-2,587650
20,275333	0,5	-2,604450
20,283667	0,5	-2,621150
20,292000	0,5	-2,661550
20,300333	0,5	-2,662300
20,308667	0,5	-2,672950
20,317000	0,5	-2,704150
20,325333	0,5	-2,717300
20,333667	0,5	-2,742350
20,342000	0,5	-2,753600
20,350333	0,5	-2,789150
20,358667	0,5	-2,800800
20,367000	0,5	-2,824750
20,375333	0,5	-2,847600
20,383667	0,5	-2,837300
20,392000	0,5	-2,869750
20,400333	0,5	-2,906500
20,408667	0,5	-2,917300
20,417000	0,5	-2,931250
20,425333	0,5	-2,969050
20,433667	0,5	-3,001150
20,442000	0,5	-3,039200
20,450333	0,5	-3,035800
20,458667	0,5	-3,059700
20,467000	0,5	-3,075450
20,475333	0,5	-3,092500
20,483667	0,5	-3,108150
20,492000	0,5	-3,136800
20,500333	0,5	-3,147950
20,508667	0,5	-3,155600
20,517000	0,5	-3,159000
20,525333	0,5	-3,152600
20,533667	0,5	-3,133300
20,542000	0,5	-3,143500
20,550333	0,5	-3,154600
20,558667	0,5	-3,175600
20,567000	0,5	-3,231700
20,575333	0,5	-3,284300
20,583667	0,5	-3,378650
20,592000	0,5	-3,418000
20,600333	0,5	-3,449550
20,608667	0,5	-3,474200
20,617000	0,5	-3,519600
20,625333	0,5	-3,547750
20,633667	0,5	-3,603000
20,642000	0,5	-3,635900
20,650333	0,5	-3,661750
20,658667	0,5	-3,699200
20,667000	0,5	-3,718000
20,675333	0,5	-3,727200
20,683667	0,5	-3,729300
20,692000	0,5	-3,736000
20,700333	0,5	-3,717250
20,708667	0,5	-3,706500
20,717000	0,5	-3,698950
20,725333	0,5	-3,731100
20,733667	0,5	-3,794100
20,742000	0,5	-3,847550
20,750333	0,5	-3,900150
20,758667	0,5	-3,978850
20,767000	0,5	-4,041800
20,775333	0,5	-4,107100
20,783667	0,5	-4,165000
20,792000	0,5	-4,225450
20,800333	0,5	-4,270050
20,808667	0,5	-4,319000
20,817000	0,5	-4,364600
20,825333	0,5	-4,382500
20,833667	0,5	-4,421500
20,842000	0,5	-4,467850
20,850333	0,5	-4,499250
20,858667	0,5	-4,538200
20,867000	0,5	-4,587000
20,875333	0,5	-4,636250
20,883667	0,5	-4,683800
20,892000	0,5	-4,691850
20,900333	0,5	-4,733250
20,908667	0,5	-4,764450
20,917000	0,5	-4,815500
20,925333	0,5	-4,857650
20,933667	0,5	-4,896750
20,942000	0,5	-4,951150
20,950333	0,5	-4,995650
20,958667	0,5	-5,025650
20,967000	0,5	-5,059800
20,975333	0,5	-5,069800
20,983667	0,5	-5,097650
20,992000	0,5	-5,128500
21,000333	0,5	-5,169300
21,008667	0,5	-5,207300
21,017000	0,5	-5,266800
21,025333	0,5	-5,327900
21,033667	0,5	-5,354400
21,042000	0,5	-5,388150
21,050333	0,5	-5,399600
21,058667	0,5	-5,432550
21,067000	0,5	-5,457700
21,075333	0,5	-5,496800
21,083667	0,5	-5,516050
21,092000	0,5	-5,547400
21,100333	0,5	-5,582000
21,108667	0,5	-5,617500
21,117000	0,5	-5,619100
21,125333	0,5	-5,644850
21,133667	0,5	-5,673200
21,142000	0,5	-5,699200
21,150333	0,5	-5,745100
21,158667	0,5	-5,776700
21,167000	0,5	-5,834850
21,175333	0,5	-5,859650
21,183667	0,5	-5,883750
21,192000	0,5	-5,901650
21,200333	0,5	-5,923400
21,208667	0,5	-5,945350
21,217000	0,5	-5,962250
21,225333	0,5	-5,981300
21,233667	0,5	-5,998900
21,242000	0,5	-6,007550
21,250333	0,5	-6,032350
21,258667	0,5	-6,031200
21,267000	0,5	-6,010400
21,275333	0,5	-6,016300
21,283667	0,5	-6,016850
21,292000	0,5	-6,029400
21,300333	0,5	-6,056350
21,308667	0,5	-6,107100
21,317000	0,5	-6,164200
21,325333	0,5	-6,191100
21,333667	0,5	-6,205000
21,342000	0,5	-6,232300
21,350333	0,5	-6,250600
21,358667	0,5	-6,283850
21,367000	0,5	-6,300250
21,375333	0,5	-6,328000
21,383667	0,5	-6,336400
21,392000	0,5	-6,359650
21,400333	0,5	-6,383450
21,408667	0,5	-6,356050
21,417000	0,5	-6,351000
21,425333	0,5	-6,368400
21,433667	0,5	-6,387450
21,442000	0,5	-6,412950
21,450333	0,5	-6,449400
21,458667	0,5	-6,502750
21,467000	0,5	-6,522650
21,475333	0,5	-6,530000
21,483667	0,5	-6,556800
21,492000	0,5	-6,573650
21,500333	0,5	-6,599500
21,508667	0,5	-6,599750
21,517000	0,5	-6,624150
21,525333	0,5	-6,637400
21,533667	0,5	-6,647800
21,542000	0,5	-6,675050
21,550333	0,5	-6,670500
21,558667	0,5	-6,655350
21,567000	0,5	-6,673150
21,575333	0,5	-6,687900
21,583667	0,5	-6,708400
21,592000	0,5	-6,720150
21,600333	0,5	-6,746450
21,608667	0,5	-6,781850
21,617000	0,5	-6,763050
21,625333	0,5	-6,781450
21,633667	0,5	-6,775550
21,642000	0,5	-6,777150
21,650333	0,5	-6,756550
21,658667	0,5	-6,762950
21,667000	0,5	-6,762600
21,675333	0,5	-6,774700
21,683667	0,5	-6,799050
21,692000	0,5	-6,816150
21,700333	0,5	-6,806100
21,708667	0,5	-6,809800
21,717000	0,5	-6,828000
21,725333	0,5	-6,825900
21,733667	0,5	-6,850400
21,742000	0,5	-6,871250
21,750333	0,5	-6,898350
21,758667	0,5	-6,927600
21,767000	0,5	-6,934400
21,775333	0,5	-6,935700
21,783667	0,5	-6,956300
21,792000	0,5	-6,953900
21,800333	0,5	-6,961900
21,808667	0,5	-6,965500
21,817000	0,5	-6,970500
21,825333	0,5	-6,970700
21,833667	0,5	-6,972500
21,842000	0,5	-6,960900
21,850333	0,5	-6,956100
21,858667	0,5	-6,965750
21,867000	0,5	-6,975100
21,875333	0,5	-6,987650
21,883667	0,5	-6,997950
21,892000	0,5	-7,028650
21,900333	0,5	-7,051200
21,908667	0,5	-7,039000
21,917000	0,5	-7,001800
21,925333	0,5	-6,958650
21,933667	0,5	-6,900350
21,942000	0,5	-6,897750
21,950333	0,5	-6,902200
21,958667	0,5	-6,957650
21,967000	0,5	-7,002350
21,975333	0,5	-7,060450
21,983667	0,5	-7,100200
21,992000	0,5	-7,120750
22,000333	0,5	-7,165700
22,008667	0,5	-7,198850
22,017000	0,5	-7,232250
22,025333	0,5	-7,260650
22,033667	0,5	-7,290950
22,042000	0,5	-7,343450
22,050333	0,5	-7,384700
22,058667	0,5	-7,403850
22,067000	0,5	-7,425650
22,075333	0,5	-7,442650
22,083667	0,5	-7,467000
22,092000	0,5	-7,467600
22,100333	0,5	-7,513700
22,108667	0,5	-7,522950
22,117000	0,5	-7,527700
22,125333	0,5	-7,552400
22,133667	0,5	-7,577650
22,142000	0,5	-7,580050
22,150333	0,5	-7,615500
22,158667	0,5	-7,618400
22,167000	0,5	-7,624300
22,175333	0,5	-7,655150
22,183667	0,5	-7,674150
22,192000	0,5	-7,697550
22,200333	0,5	-7,703250
22,208667	0,5	-7,710150
22,217000	0,5	-7,702900
22,225333	0,5	-7,724450
22,233667	0,5	-7,713600
22,242000	0,5	-7,719700
22,250333	0,5	-7,717250
22,258667	0,5	-7,716250
22,267000	0,5	-7,713350
22,275333	0,5	-7,720700
22,283667	0,5	-7,739500
22,292000	0,5	-7,738250
22,300333	0,5	-7,712450
22,308667	0,5	-7,683900
22,317000	0,5	-7,671050
22,325333	0,5	-7,677750
22,333667	0,5	-7,685500
22,342000	0,5	-7,644350
22,350333	0,5	-7,586200
22,358667	0,5	-7,479600
22,367000	0,5	-7,402250
22,375333	0,5	-7,350750
22,383667	0,5	-7,353450
22,392000	0,5	-7,390550
22,400333	0,5	-7,460650
22,408667	0,5	-7,507300
22,417000	0,5	-7,549100
22,425333	0,5	-7,597450
22,433667	0,5	-7,640700
22,442000	0,5	-7,672300
22,450333	0,5	-7,658100
22,458667	0,5	-7,669600
22,467000	0,5	-7,679250
22,475333	0,5	-7,695050
22,483667	0,5	-7,716300
22,492000	0,5	-7,705800
22,500333	0,5	-7,695000
22,508667	0,5	-7,693800
22,517000	0,5	-7,671750
22,525333	0,5	-7,665200
22,533667	0,5	-7,638000
22,542000	0,5	-7,629600
22,550333	0,5	-7,587200
22,558667	0,5	-7,561350
22,567000	0,5	-7,539450
22,575333	0,5	-7,554800
22,583667	0,5	-7,559350
22,592000	0,5	-7,515150
22,600333	0,5	-7,472250
22,608667	0,5	-7,463550
22,617000	0,5	-7,472900
22,625333	0,5	-7,484600
22,633667	0,5	-7,472950
22,642000	0,5	-7,446750
22,650333	0,5	-7,445750
22,658667	0,5	-7,450300
22,667000	0,5	-7,450850
22,675333	0,5	-7,451900
22,683667	0,5	-7,468150
22,692000	0,5	-7,444600
22,700333	0,5	-7,443400
22,708667	0,5	-7,448000
22,717000	0,5	-7,495450
22,725333	0,5	-7,523850
22,733667	0,5	-7,506300
22,742000	0,5	-7,479550
22,750333	0,5	-7,484750
22,758667	0,5	-7,482950
22,767000	0,5	-7,489900
22,775333	0,5	-7,523600
22,783667	0,5	-7,536750
22,792000	0,5	-7,549550
22,800333	0,5	-7,548950
22,808667	0,5	-7,560650
22,817000	0,5	-7,573100
22,825333	0,5	-7,600100
22,833667	0,5	-7,628750
22,842000	0,5	-7,637350
22,850333	0,5	-7,644200
22,858667	0,5	-7,672600
22,867000	0,5	-7,795850
22,875333	0,5	-7,801400
22,883667	0,5	-7,812850
22,892000	0,5	-7,820000
22,900333	0,5	-7,848000
22,908667	0,5	-7,885300
22,917000	0,5	-7,916100
22,925333	0,5	-7,936100
22,933667	0,5	-7,973050
22,942000	0,5	-7,996850
22,950333	0,5	-8,010400
22,958667	0,5	-8,034150
22,967000	0,5	-8,040900
22,975333	0,5	-8,039800
22,983667	0,5	-8,037350
22,992000	0,5	-8,029850
23,000333	0,5	-8,011400
23,008667	0,5	-7,985000
23,017000	0,5	-8,002250
23,025333	0,5	-7,965500
23,033667	0,5	-7,955150
23,042000	0,5	-7,951200
23,050333	0,5	-7,938400
23,058667	0,5	-7,901750
23,067000	0,5	-7,858300
23,075333	0,5	-7,824650
23,083667	0,5	-7,805750
23,092000	0,5	-7,766500
23,100333	0,5	-7,723750
23,108667	0,5	-7,664400
23,117000	0,5	-7,611500
23,125333	0,5	-7,530350
23,133667	0,5	-7,468350
23,142000	0,5	-7,390100
23,150333	0,5	-7,313400
23,158667	0,5	-7,174450
23,167000	0,5	-7,120450
23,175333	0,5	-7,028350
23,183667	0,5	-6,988950
23,192000	0,5	-6,937750
23,200333	0,5	-6,862050
23,208667	0,5	-6,778000
23,217000	0,5	-6,686200
23,225333	0,5	-6,623550
23,233667	0,5	-6,551500
23,242000	0,5	-6,470450
23,250333	0,5	-6,393200
23,258667	0,5	-6,318550
23,267000	0,5	-6,221200
23,275333	0,5	-6,134500
23,283667	0,5	-6,030700
23,292000	0,5	-5,949350
23,300333	0,5	-5,837950
23,308667	0,5	-5,765850
23,317000	0,5	-5,653300
23,325333	0,5	-5,536500
23,333667	0,5	-5,492050
23,342000	0,5	-5,410400
23,350333	0,5	-5,337800
23,358667	0,5	-5,235750
23,367000	0,5	-5,168300
23,375333	0,5	-5,111500
23,383667	0,5	-5,039000
23,392000	0,5	-4,965350
23,400333	0,5	-4,910100
23,408667	0,5	-4,836550
23,417000	0,5	-4,768500
23,425333	0,5	-4,688650
23,433667	0,5	-4,621350
23,442000	0,5	-4,539550
23,450333	0,5	-4,451000
23,458667	0,5	-4,433250
23,467000	0,5	-4,323500
23,475333	0,5	-4,233100
23,483667	0,5	-4,175450
23,492000	0,5	-4,120500
23,500333	0,5	-4,063650
23,508667	0,5	-3,998250
23,517000	0,5	-3,953200
23,525333	0,5	-3,913350
23,533667	0,5	-3,866800
23,542000	0,5	-3,817300
23,550333	0,5	-3,767550
23,558667	0,5	-3,730250
23,567000	0,5	-3,679150
23,575333	0,5	-3,635900
23,583667	0,5	-3,590650
23,592000	0,5	-3,547250
23,600333	0,5	-3,642200
23,608667	0,5	-3,565250
23,617000	0,5	-3,495300
23,625333	0,5	-3,408550
23,633667	0,5	-3,378750
23,642000	0,5	-3,339250
23,650333	0,5	-3,302700
23,658667	0,5	-3,268300
23,667000	0,5	-3,241850
23,675333	0,5	-3,212650
23,683667	0,5	-3,179550
23,692000	0,5	-3,154200
23,700333	0,5	-3,126700
23,708667	0,5	-3,097500
23,717000	0,5	-3,062100
23,725333	0,5	-3,028850
23,733667	0,5	-3,001800
23,742000	0,5	-3,005950
23,750333	0,5	-3,116850
23,758667	0,5	-3,080250
23,767000	0,5	-2,986750
23,775333	0,5	-2,924250
23,783667	0,5	-2,887400
23,792000	0,5	-2,865350
23,800333	0,5	-2,847250
23,808667	0,5	-2,827950
23,817000	0,5	-2,796850
23,825333	0,5	-2,774250
23,833667	0,5	-2,749400
23,842000	0,5	-2,724600
23,850333	0,5	-2,700150
23,858667	0,5	-2,677850
23,867000	0,5	-2,646050
23,875333	0,5	-2,617350
23,883667	0,5	-2,591150
23,892000	0,5	-2,703500
23,900333	0,5	-2,737600
23,908667	0,5	-2,670600
23,917000	0,5	-2,586500
23,925333	0,5	-2,526900
23,933667	0,5	-2,489450
23,942000	0,5	-2,460350
23,950333	0,5	-2,450150
23,958667	0,5	-2,426400
23,967000	0,5	-2,401600
23,975333	0,5	-2,371850
23,983667	0,5	-2,350100
23,992000	0,5	-2,323100
24,000333	0,5	-2,305600
24,008667	0,5	-2,284450
24,017000	0,5	-2,252450
24,025333	0,5	-2,224800
24,033667	0,5	-2,216050
24,042000	0,5	-2,395150
24,050333	0,5	-2,343600
24,058667	0,5	-2,288200
24,067000	0,5	-2,211200
24,075333	0,5	-2,164550
24,083667	0,5	-2,133650
24,092000	0,5	-2,105750
24,100333	0,5	-2,101600
24,108667	0,5	-2,079850
24,117000	0,5	-2,036600
24,125333	0,5	-2,005100
24,133667	0,5	-1,975600
24,142000	0,5	-1,954600
24,150333	0,5	-1,925150
24,158667	0,5	-1,899650
24,167000	0,5	-1,863200
24,175333	0,5	-1,841350
24,183667	0,5	-1,871800
24,192000	0,5	-1,959000
24,200333	0,5	-1,932500
24,208667	0,5	-1,872400
24,217000	0,5	-1,815400
24,225333	0,5	-1,781550
24,233667	0,5	-1,755600
24,242000	0,5	-1,743900
24,250333	0,5	-1,739400
24,258667	0,5	-1,705550
24,267000	0,5	-1,684600
24,275333	0,5	-1,655650
24,283667	0,5	-1,639000
24,292000	0,5	-1,607450
24,300333	0,5	-1,584450
24,308667	0,5	-1,562650
24,317000	0,5	-1,537250
24,325333	0,5	-1,512100
24,333667	0,5	-1,603700
24,342000	0,5	-1,602500
24,350333	0,5	-1,571200
24,358667	0,5	-1,508700
24,367000	0,5	-1,459250
24,375333	0,5	-1,430250
24,383667	0,5	-1,403850
24,392000	0,5	-1,410700
24,400333	0,5	-1,386300
24,408667	0,5	-1,373000
24,417000	0,5	-1,345900
24,425333	0,5	-1,329000
24,433667	0,5	-1,311200
24,442000	0,5	-1,295400
24,450333	0,5	-1,274550
24,458667	0,5	-1,259200
24,467000	0,5	-1,237400
24,475333	0,5	-1,228650
24,483667	0,5	-1,315600
24,492000	0,5	-1,295650
24,500333	0,5	-1,257650
24,508667	0,5	-1,218300
24,517000	0,5	-1,190550
24,525333	0,5	-1,173400
24,533667	0,5	-1,159000
24,542000	0,5	-1,153150
24,550333	0,5	-1,131250
24,558667	0,5	-1,109900
24,567000	0,5	-1,100300
24,575333	0,5	-1,082600
24,583667	0,5	-1,067600
24,592000	0,5	-1,046850
24,600333	0,5	-1,030100
24,608667	0,5	-1,008300
24,617000	0,5	-1,002800
24,625333	0,5	-1,039950
24,633667	0,5	-1,056300
24,642000	0,5	-1,041050
24,650333	0,5	-1,009050
24,658667	0,5	-0,980100
24,667000	0,5	-0,959850
24,675333	0,5	-0,955700
24,683667	0,5	-0,958150
24,692000	0,5	-0,947950
24,700333	0,5	-0,931050
24,708667	0,5	-0,927450
24,717000	0,5	-0,915250
24,725333	0,5	-0,906850
24,733667	0,5	-0,894850
24,742000	0,5	-0,880450
24,750333	0,5	-0,867750
24,758667	0,5	-0,860500
24,767000	0,5	-0,844000
24,775333	0,5	-0,894100
24,783667	0,5	-0,866600
24,792000	0,5	-0,860500
24,800333	0,5	-0,825650
24,808667	0,5	-0,811250
24,817000	0,5	-0,800800
24,825333	0,5	-0,790750
24,833667	0,5	-0,798100
24,842000	0,5	-0,787450
24,850333	0,5	-0,776300
24,858667	0,5	-0,769500
24,867000	0,5	-0,761050
24,875333	0,5	-0,757250
24,883667	0,5	-0,751750
24,892000	0,5	-0,748650
24,900333	0,5	-0,740200
24,908667	0,5	-0,733200
24,917000	0,5	-0,737400
24,925333	0,5	-0,763700
24,933667	0,5	-0,750350
24,942000	0,5	-0,732300
24,950333	0,5	-0,720000
24,958667	0,5	-0,710000
24,967000	0,5	-0,700700
24,975333	0,5	-0,694000
24,983667	0,5	-0,691750
24,992000	0,5	-0,680950
25,000333	0,5	-0,672000
25,008667	0,5	-0,665300
25,017000	0,5	-0,661750
25,025333	0,5	-0,655400
25,033667	0,5	-0,650750
25,042000	0,5	-0,640050
25,050333	0,5	-0,636500
25,058667	0,5	-0,633050
25,067000	0,5	-0,647400
25,075333	0,5	-0,651550
25,083667	0,5	-0,648700
25,092000	0,5	-0,642000
25,100333	0,5	-0,632700
25,108667	0,5	-0,633500
25,117000	0,5	-0,629650
25,125333	0,5	-0,626200
25,133667	0,5	-0,624850
25,142000	0,5	-0,620900
25,150333	0,5	-0,616600
25,158667	0,5	-0,613650
25,167000	0,5	-0,606600
25,175333	0,5	-0,600450
25,183667	0,5	-0,594550
25,192000	0,5	-0,589250
25,200333	0,5	-0,585300
25,208667	0,5	-0,580900
25,217000	0,5	-0,586400
25,225333	0,5	-0,575950
25,233667	0,5	-0,576450
25,242000	0,5	-0,564000
25,250333	0,5	-0,564650
25,258667	0,5	-0,567500
25,267000	0,5	-0,573550
25,275333	0,5	-0,568350
25,283667	0,5	-0,573300
25,292000	0,5	-0,570850
25,300333	0,5	-0,572000
25,308667	0,5	-0,572050
25,317000	0,5	-0,570650
25,325333	0,5	-0,570800
25,333667	0,5	-0,568150
25,342000	0,5	-0,564450
25,350333	0,5	-0,554100
25,358667	0,5	-0,557800
25,367000	0,5	-0,551450
25,375333	0,5	-0,544800
25,383667	0,5	-0,537250
25,392000	0,5	-0,538300
25,400333	0,5	-0,536650
25,408667	0,5	-0,532550
25,417000	0,5	-0,533800
25,425333	0,5	-0,529300
25,433667	0,5	-0,531550
25,442000	0,5	-0,532850
25,450333	0,5	-0,529950
25,458667	0,5	-0,532400
25,467000	0,5	-0,535450
25,475333	0,5	-0,539900
25,483667	0,5	-0,536550
25,492000	0,5	-0,537500
25,500333	0,5	-0,536700
25,508667	0,5	-0,533450
25,517000	0,5	-0,530350
25,525333	0,5	-0,516750
25,533667	0,5	-0,521700
25,542000	0,5	-0,529700
25,550333	0,5	-0,529900
25,558667	0,5	-0,524250
25,567000	0,5	-0,522850
25,575333	0,5	-0,521100
25,583667	0,5	-0,521300
25,592000	0,5	-0,522700
25,600333	0,5	-0,522050
25,608667	0,5	-0,520750
25,617000	0,5	-0,518150
25,625333	0,5	-0,519800
25,633667	0,5	-0,519650
25,642000	0,5	-0,516800
25,650333	0,5	-0,518800
25,658667	0,5	-0,511900
25,667000	0,5	-0,507600
25,675333	0,5	-0,501650
25,683667	0,5	-0,511850
25,692000	0,5	-0,516850
25,700333	0,5	-0,519600
25,708667	0,5	-0,514700
25,717000	0,5	-0,504550
25,725333	0,5	-0,506950
25,733667	0,5	-0,512900
25,742000	0,5	-0,512500
25,750333	0,5	-0,512450
25,758667	0,5	-0,509900
25,767000	0,5	-0,511000
25,775333	0,5	-0,505200
25,783667	0,5	-0,514000
25,792000	0,5	-0,506700
25,800333	0,5	-0,502400
25,808667	0,5	-0,484100
25,817000	0,5	-0,492100
25,825333	0,5	-0,487000
25,833667	0,5	-0,498500
25,842000	0,5	-0,498450
25,850333	0,5	-0,495250
25,858667	0,5	-0,495950
25,867000	0,5	-0,486350
25,875333	0,5	-0,492750
25,883667	0,5	-0,497350
25,892000	0,5	-0,497100
25,900333	0,5	-0,497850
25,908667	0,5	-0,494750
25,917000	0,5	-0,489200
25,925333	0,5	-0,489350
25,933667	0,5	-0,485900
25,942000	0,5	-0,486200
25,950333	0,5	-0,472200
25,958667	0,5	-0,465800
25,967000	0,5	-0,460400
25,975333	0,5	-0,459750
25,983667	0,5	-0,462750
25,992000	0,5	-0,469600
26,000333	0,5	-0,461450
