File Path	chrom://chromeleon01/ikbm_chromeleon/2022/ICS-5000/ED1/Esteban/20220427_Cell_Amandas_mutants.seq/202.smp/ED_1.channel/ED_1.chm
Channel	ED_1

Injection Information:
Data Vault	ikbm_chromeleon
Injection	EG_Avi_2a
Injection Number	38
Position	RD6
Comment	
Processing Method	Stop sequence after Cell Death
Instrument Method	ICS5000_PA200_FullNative_Ox_26min_ED1
Type	Unknown
Status	Finished
Injection Date	28.04.2022
Injection Time	06:35:41
Injection Volume (µl)	5,0
Dilution Factor	1,0000
Weight	1,0000

Chromatogram Data Information:
Time Min. (min)	0,000167
Time Max. (min)	26,000167
Data Points	3121
Detector	EDet1
Generating Data System	Chromeleon 7.2.9.11323
Exporting Data System	Chromeleon 7.2.9.0
Operator	Instrument Controller
Signal Quantity	
Signal Unit	nC
Signal Min.	-7,674750
Signal Max.	769,958361
Channel	ED_1
Driver Name	DC-5000
Channel Type	Evaluation
Min. Step (s)	0,5
Max. Step (s)	0,5
Average Step (s)	0,5

Signal Parameter Information:
Signal Info	

Chromatogram Data:
Time (min)	Step (s)	Value (nC)
0,000167	n.a.	-0,091850
0,008500	0,5	-0,088800
0,016833	0,5	-0,080300
0,025167	0,5	-0,071850
0,033500	0,5	-0,040050
0,041833	0,5	-0,066500
0,050167	0,5	-0,067350
0,058500	0,5	-0,037650
0,066833	0,5	-0,048150
0,075167	0,5	-0,063000
0,083500	0,5	-0,052650
0,091833	0,5	-0,028650
0,100167	0,5	0,021400
0,108500	0,5	0,036700
0,116833	0,5	0,037200
0,125167	0,5	0,020100
0,133500	0,5	0,022750
0,141833	0,5	0,006750
0,150167	0,5	0,009600
0,158500	0,5	0,004850
0,166833	0,5	-0,004500
0,175167	0,5	-0,001500
0,183500	0,5	0,004700
0,191833	0,5	-0,018800
0,200167	0,5	-0,018800
0,208500	0,5	0,000750
0,216833	0,5	-0,017250
0,225167	0,5	-0,021350
0,233500	0,5	-0,024450
0,241833	0,5	0,006600
0,250167	0,5	0,026150
0,258500	0,5	0,039350
0,266833	0,5	0,014000
0,275167	0,5	0,030750
0,283500	0,5	0,011950
0,291833	0,5	0,017200
0,300167	0,5	0,057650
0,308500	0,5	0,082600
0,316833	0,5	0,022750
0,325167	0,5	-0,005300
0,333500	0,5	-0,015200
0,341833	0,5	-0,027450
0,350167	0,5	-0,020400
0,358500	0,5	-0,012050
0,366833	0,5	-0,031800
0,375167	0,5	-0,033600
0,383500	0,5	-0,028500
0,391833	0,5	0,008550
0,400167	0,5	0,028150
0,408500	0,5	0,016100
0,416833	0,5	0,026350
0,425167	0,5	0,015650
0,433500	0,5	0,014000
0,441833	0,5	-0,003500
0,450167	0,5	0,001350
0,458500	0,5	-0,005200
0,466833	0,5	-0,000800
0,475167	0,5	-0,002050
0,483500	0,5	-0,013300
0,491833	0,5	-0,038750
0,500167	0,5	-0,008650
0,508500	0,5	-0,020150
0,516833	0,5	-0,023050
0,525167	0,5	-0,022000
0,533500	0,5	-0,016650
0,541833	0,5	0,035000
0,550167	0,5	0,025600
0,558500	0,5	0,019900
0,566833	0,5	0,014550
0,575167	0,5	0,013100
0,583500	0,5	0,008200
0,591833	0,5	0,014000
0,600167	0,5	0,012150
0,608500	0,5	0,018750
0,616833	0,5	0,018500
0,625167	0,5	0,030750
0,633500	0,5	0,003250
0,641833	0,5	0,002900
0,650167	0,5	0,024700
0,658500	0,5	0,009400
0,666833	0,5	-0,003350
0,675167	0,5	0,006250
0,683500	0,5	0,014650
0,691833	0,5	0,057150
0,700167	0,5	0,040000
0,708500	0,5	0,040900
0,716833	0,5	0,045750
0,725167	0,5	0,044700
0,733500	0,5	0,034950
0,741833	0,5	0,036050
0,750167	0,5	0,039300
0,758500	0,5	0,032900
0,766833	0,5	0,039350
0,775167	0,5	0,037700
0,783500	0,5	0,038150
0,791833	0,5	0,035200
0,800167	0,5	0,057000
0,808500	0,5	0,036150
0,816833	0,5	0,037900
0,825167	0,5	0,040000
0,833500	0,5	0,077450
0,841833	0,5	0,097350
0,850167	0,5	0,085300
0,858500	0,5	0,069000
0,866833	0,5	0,080550
0,875167	0,5	0,071900
0,883500	0,5	0,076500
0,891833	0,5	0,078000
0,900167	0,5	0,080550
0,908500	0,5	0,086950
0,916833	0,5	0,087200
0,925167	0,5	0,099100
0,933500	0,5	0,068050
0,941833	0,5	0,094550
0,950167	0,5	0,096950
0,958500	0,5	0,079400
0,966833	0,5	0,077950
0,975167	0,5	0,093150
0,983500	0,5	0,114750
0,991833	0,5	0,141200
1,000167	0,5	0,122850
1,008500	0,5	0,137000
1,016833	0,5	0,126150
1,025167	0,5	0,136450
1,033500	0,5	0,127700
1,041833	0,5	0,139000
1,050167	0,5	0,128500
1,058500	0,5	0,129150
1,066833	0,5	0,147250
1,075167	0,5	0,127750
1,083500	0,5	0,117850
1,091833	0,5	0,144050
1,100167	0,5	0,130950
1,108500	0,5	0,130200
1,116833	0,5	0,139600
1,125167	0,5	0,156050
1,133500	0,5	0,200950
1,141833	0,5	0,205050
1,150167	0,5	0,209650
1,158500	0,5	0,201200
1,166833	0,5	0,210650
1,175167	0,5	0,195800
1,183500	0,5	0,202750
1,191833	0,5	0,202000
1,200167	0,5	0,207750
1,208500	0,5	0,210900
1,216833	0,5	0,218850
1,225167	0,5	0,209450
1,233500	0,5	0,222900
1,241833	0,5	0,236300
1,250167	0,5	0,222850
1,258500	0,5	0,219600
1,266833	0,5	0,229650
1,275167	0,5	0,263050
1,283500	0,5	0,290100
1,291833	0,5	0,301750
1,300167	0,5	0,283200
1,308500	0,5	0,303300
1,316833	0,5	0,304150
1,325167	0,5	0,306400
1,333500	0,5	0,313850
1,341833	0,5	0,316950
1,350167	0,5	0,309000
1,358500	0,5	0,327250
1,366833	0,5	0,330450
1,375167	0,5	0,338600
1,383500	0,5	0,350700
1,391833	0,5	0,360350
1,400167	0,5	0,340600
1,408500	0,5	0,359850
1,416833	0,5	0,363600
1,425167	0,5	0,406150
1,433500	0,5	0,429850
1,441833	0,5	0,428500
1,450167	0,5	0,432350
1,458500	0,5	0,430950
1,466833	0,5	0,436800
1,475167	0,5	0,436050
1,483500	0,5	0,445300
1,491833	0,5	0,439050
1,500167	0,5	0,452950
1,508500	0,5	0,462800
1,516833	0,5	0,461800
1,525167	0,5	0,449100
1,533500	0,5	0,483950
1,541833	0,5	0,470750
1,550167	0,5	0,470500
1,558500	0,5	0,470250
1,566833	0,5	0,425750
1,575167	0,5	0,191100
1,583500	0,5	-0,606350
1,591833	0,5	-1,687750
1,600167	0,5	-1,676600
1,608500	0,5	0,243100
1,616833	0,5	3,054800
1,625167	0,5	6,322550
1,633500	0,5	10,468750
1,641833	0,5	14,419900
1,650167	0,5	16,272600
1,658500	0,5	15,747500
1,666833	0,5	14,101950
1,675167	0,5	12,420500
1,683500	0,5	10,961500
1,691833	0,5	9,684100
1,700167	0,5	8,592450
1,708500	0,5	7,741350
1,716833	0,5	7,175900
1,725167	0,5	6,934200
1,733500	0,5	6,687550
1,741833	0,5	6,202650
1,750167	0,5	5,506250
1,758500	0,5	4,868500
1,766833	0,5	4,417600
1,775167	0,5	4,242800
1,783500	0,5	4,340250
1,791833	0,5	4,662800
1,800167	0,5	5,044050
1,808500	0,5	5,232400
1,816833	0,5	5,116000
1,825167	0,5	4,872900
1,833500	0,5	4,581650
1,841833	0,5	4,266300
1,850167	0,5	3,960850
1,858500	0,5	3,695250
1,866833	0,5	3,481600
1,875167	0,5	3,291950
1,883500	0,5	3,110750
1,891833	0,5	2,944100
1,900167	0,5	2,812800
1,908500	0,5	2,675800
1,916833	0,5	2,555850
1,925167	0,5	2,450000
1,933500	0,5	2,411850
1,941833	0,5	2,466150
1,950167	0,5	2,641650
1,958500	0,5	2,800400
1,966833	0,5	2,792650
1,975167	0,5	2,804250
1,983500	0,5	3,174950
1,991833	0,5	4,549450
2,000167	0,5	7,946350
2,008500	0,5	15,243500
2,016833	0,5	31,326300
2,025167	0,5	66,552951
2,033500	0,5	125,974302
2,041833	0,5	184,106503
2,050167	0,5	199,417503
2,058500	0,5	169,674653
2,066833	0,5	127,533852
2,075167	0,5	95,256901
2,083500	0,5	74,520751
2,091833	0,5	60,940351
2,100167	0,5	51,405701
2,108500	0,5	44,420651
2,116833	0,5	39,133601
2,125167	0,5	35,155951
2,133500	0,5	32,067850
2,141833	0,5	29,731800
2,150167	0,5	27,961600
2,158500	0,5	26,760500
2,166833	0,5	25,953900
2,175167	0,5	25,105300
2,183500	0,5	24,040700
2,191833	0,5	22,909150
2,200167	0,5	21,930250
2,208500	0,5	21,162150
2,216833	0,5	20,568150
2,225167	0,5	20,077100
2,233500	0,5	19,698500
2,241833	0,5	19,400300
2,250167	0,5	19,178850
2,258500	0,5	18,991900
2,266833	0,5	18,888250
2,275167	0,5	18,841900
2,283500	0,5	18,811350
2,291833	0,5	18,783550
2,300167	0,5	18,734100
2,308500	0,5	18,687500
2,316833	0,5	18,642350
2,325167	0,5	18,594000
2,333500	0,5	18,568250
2,341833	0,5	18,561500
2,350167	0,5	18,558400
2,358500	0,5	18,556350
2,366833	0,5	18,558850
2,375167	0,5	18,574350
2,383500	0,5	18,609150
2,391833	0,5	18,678150
2,400167	0,5	18,764450
2,408500	0,5	18,905100
2,416833	0,5	19,118950
2,425167	0,5	19,433600
2,433500	0,5	19,851300
2,441833	0,5	20,360750
2,450167	0,5	20,821800
2,458500	0,5	21,166750
2,466833	0,5	21,261450
2,475167	0,5	21,109250
2,483500	0,5	20,822000
2,491833	0,5	20,559950
2,500167	0,5	20,351300
2,508500	0,5	20,181150
2,516833	0,5	20,014850
2,525167	0,5	19,835200
2,533500	0,5	19,665600
2,541833	0,5	19,495600
2,550167	0,5	19,333500
2,558500	0,5	19,172350
2,566833	0,5	19,044450
2,575167	0,5	18,880500
2,583500	0,5	18,741050
2,591833	0,5	18,637500
2,600167	0,5	18,584300
2,608500	0,5	18,602150
2,616833	0,5	18,688650
2,625167	0,5	18,923650
2,633500	0,5	19,406350
2,641833	0,5	20,052050
2,650167	0,5	20,680300
2,658500	0,5	21,018550
2,666833	0,5	20,964550
2,675167	0,5	20,600100
2,683500	0,5	20,164050
2,691833	0,5	19,990050
2,700167	0,5	20,540000
2,708500	0,5	22,638650
2,716833	0,5	27,162800
2,725167	0,5	34,730251
2,733500	0,5	45,507351
2,741833	0,5	60,242451
2,750167	0,5	82,316251
2,758500	0,5	122,520152
2,766833	0,5	204,726803
2,775167	0,5	353,948805
2,783500	0,5	545,688508
2,791833	0,5	702,116460
2,800167	0,5	769,958361
2,808500	0,5	752,799211
2,816833	0,5	679,857660
2,825167	0,5	581,240209
2,833500	0,5	480,203057
2,841833	0,5	391,340856
2,850167	0,5	320,074655
2,858500	0,5	265,263954
2,866833	0,5	222,509653
2,875167	0,5	188,188953
2,883500	0,5	160,213602
2,891833	0,5	137,456002
2,900167	0,5	119,013302
2,908500	0,5	103,835002
2,916833	0,5	91,045151
2,925167	0,5	80,049951
2,933500	0,5	70,580451
2,941833	0,5	62,458551
2,950167	0,5	55,601301
2,958500	0,5	49,843651
2,966833	0,5	45,013501
2,975167	0,5	40,916251
2,983500	0,5	37,428301
2,991833	0,5	34,439651
3,000167	0,5	31,825150
3,008500	0,5	29,575850
3,016833	0,5	27,532300
3,025167	0,5	25,725900
3,033500	0,5	24,116000
3,041833	0,5	22,693900
3,050167	0,5	21,427750
3,058500	0,5	20,260350
3,066833	0,5	19,186800
3,075167	0,5	18,216700
3,083500	0,5	17,326350
3,091833	0,5	16,501350
3,100167	0,5	15,732300
3,108500	0,5	15,031000
3,116833	0,5	14,348950
3,125167	0,5	13,735700
3,133500	0,5	13,152500
3,141833	0,5	12,624800
3,150167	0,5	12,109100
3,158500	0,5	11,667750
3,166833	0,5	11,206000
3,175167	0,5	10,795250
3,183500	0,5	10,411700
3,191833	0,5	10,081750
3,200167	0,5	9,791100
3,208500	0,5	9,504700
3,216833	0,5	9,242300
3,225167	0,5	9,021100
3,233500	0,5	8,828300
3,241833	0,5	8,712750
3,250167	0,5	8,688200
3,258500	0,5	8,774350
3,266833	0,5	8,970500
3,275167	0,5	9,200500
3,283500	0,5	9,375150
3,291833	0,5	9,359200
3,300167	0,5	9,147500
3,308500	0,5	8,739500
3,316833	0,5	8,204400
3,325167	0,5	7,677700
3,333500	0,5	7,211250
3,341833	0,5	6,831050
3,350167	0,5	6,525400
3,358500	0,5	6,246750
3,366833	0,5	6,017650
3,375167	0,5	5,820850
3,383500	0,5	5,654150
3,391833	0,5	5,504400
3,400167	0,5	5,383650
3,408500	0,5	5,280400
3,416833	0,5	5,178350
3,425167	0,5	5,096000
3,433500	0,5	5,015000
3,441833	0,5	4,932550
3,450167	0,5	4,861100
3,458500	0,5	4,771900
3,466833	0,5	4,669150
3,475167	0,5	4,580300
3,483500	0,5	4,504050
3,491833	0,5	4,447600
3,500167	0,5	4,381800
3,508500	0,5	4,324250
3,516833	0,5	4,247900
3,525167	0,5	4,202600
3,533500	0,5	4,140650
3,541833	0,5	4,097000
3,550167	0,5	4,056000
3,558500	0,5	4,015350
3,566833	0,5	3,978750
3,575167	0,5	3,933900
3,583500	0,5	3,896400
3,591833	0,5	3,852400
3,600167	0,5	3,808850
3,608500	0,5	3,751900
3,616833	0,5	3,688750
3,625167	0,5	3,632900
3,633500	0,5	3,588450
3,641833	0,5	3,549600
3,650167	0,5	3,496550
3,658500	0,5	3,428450
3,666833	0,5	3,382350
3,675167	0,5	3,324450
3,683500	0,5	3,271500
3,691833	0,5	3,214050
3,700167	0,5	3,165450
3,708500	0,5	3,110100
3,716833	0,5	3,067150
3,725167	0,5	3,019400
3,733500	0,5	2,955600
3,741833	0,5	2,920100
3,750167	0,5	2,874600
3,758500	0,5	2,814200
3,766833	0,5	2,761150
3,775167	0,5	2,733150
3,783500	0,5	2,712300
3,791833	0,5	2,688500
3,800167	0,5	2,640750
3,808500	0,5	2,626250
3,816833	0,5	2,614600
3,825167	0,5	2,616050
3,833500	0,5	2,614150
3,841833	0,5	2,637750
3,850167	0,5	2,654650
3,858500	0,5	2,682600
3,866833	0,5	2,702750
3,875167	0,5	2,705850
3,883500	0,5	2,672500
3,891833	0,5	2,676150
3,900167	0,5	2,607000
3,908500	0,5	2,543600
3,916833	0,5	2,486250
3,925167	0,5	2,445150
3,933500	0,5	2,423050
3,941833	0,5	2,367850
3,950167	0,5	2,319500
3,958500	0,5	2,278000
3,966833	0,5	2,243750
3,975167	0,5	2,202500
3,983500	0,5	2,170000
3,991833	0,5	2,129750
4,000167	0,5	2,100100
4,008500	0,5	2,062100
4,016833	0,5	2,039050
4,025167	0,5	2,003150
4,033500	0,5	1,964400
4,041833	0,5	1,946750
4,050167	0,5	1,906900
4,058500	0,5	1,881050
4,066833	0,5	1,857650
4,075167	0,5	1,846350
4,083500	0,5	1,859900
4,091833	0,5	1,838750
4,100167	0,5	1,820650
4,108500	0,5	1,800500
4,116833	0,5	1,785300
4,125167	0,5	1,765550
4,133500	0,5	1,743400
4,141833	0,5	1,721600
4,150167	0,5	1,687050
4,158500	0,5	1,667350
4,166833	0,5	1,644250
4,175167	0,5	1,634200
4,183500	0,5	1,603150
4,191833	0,5	1,596350
4,200167	0,5	1,559500
4,208500	0,5	1,539350
4,216833	0,5	1,523850
4,225167	0,5	1,537150
4,233500	0,5	1,550700
4,241833	0,5	1,535900
4,250167	0,5	1,525000
4,258500	0,5	1,525500
4,266833	0,5	1,511050
4,275167	0,5	1,509600
4,283500	0,5	1,501600
4,291833	0,5	1,498750
4,300167	0,5	1,498050
4,308500	0,5	1,497850
4,316833	0,5	1,518250
4,325167	0,5	1,528100
4,333500	0,5	1,567150
4,341833	0,5	1,603200
4,350167	0,5	1,652750
4,358500	0,5	1,735450
4,366833	0,5	1,854150
4,375167	0,5	2,010000
4,383500	0,5	2,192100
4,391833	0,5	2,368350
4,400167	0,5	2,578950
4,408500	0,5	2,817300
4,416833	0,5	3,101500
4,425167	0,5	3,431950
4,433500	0,5	3,852850
4,441833	0,5	4,391950
4,450167	0,5	5,130300
4,458500	0,5	6,131800
4,466833	0,5	7,444450
4,475167	0,5	9,109950
4,483500	0,5	11,142850
4,491833	0,5	13,400950
4,500167	0,5	15,765400
4,508500	0,5	18,038250
4,516833	0,5	19,969250
4,525167	0,5	21,368950
4,533500	0,5	22,058400
4,541833	0,5	21,990650
4,550167	0,5	21,210500
4,558500	0,5	19,869750
4,566833	0,5	18,109800
4,575167	0,5	16,157450
4,583500	0,5	14,136600
4,591833	0,5	12,211350
4,600167	0,5	10,458600
4,608500	0,5	8,932350
4,616833	0,5	7,629550
4,625167	0,5	6,572600
4,633500	0,5	5,702250
4,641833	0,5	4,986300
4,650167	0,5	4,413100
4,658500	0,5	3,972800
4,666833	0,5	3,634850
4,675167	0,5	3,360600
4,683500	0,5	3,125000
4,691833	0,5	2,919250
4,700167	0,5	2,750350
4,708500	0,5	2,600050
4,716833	0,5	2,476150
4,725167	0,5	2,358150
4,733500	0,5	2,260550
4,741833	0,5	2,159250
4,750167	0,5	2,079950
4,758500	0,5	2,009600
4,766833	0,5	1,947750
4,775167	0,5	1,909550
4,783500	0,5	1,867350
4,791833	0,5	1,820300
4,800167	0,5	1,799050
4,808500	0,5	1,782100
4,816833	0,5	1,789250
4,825167	0,5	1,778750
4,833500	0,5	1,740750
4,841833	0,5	1,706250
4,850167	0,5	1,662750
4,858500	0,5	1,606150
4,866833	0,5	1,554700
4,875167	0,5	1,505650
4,883500	0,5	1,443100
4,891833	0,5	1,394600
4,900167	0,5	1,347850
4,908500	0,5	1,309600
4,916833	0,5	1,260950
4,925167	0,5	1,262600
4,933500	0,5	1,218950
4,941833	0,5	1,194150
4,950167	0,5	1,175750
4,958500	0,5	1,178650
4,966833	0,5	1,193500
4,975167	0,5	1,184800
4,983500	0,5	1,171750
4,991833	0,5	1,176150
5,000167	0,5	1,177500
5,008500	0,5	1,179200
5,016833	0,5	1,189100
5,025167	0,5	1,193250
5,033500	0,5	1,206450
5,041833	0,5	1,214300
5,050167	0,5	1,231450
5,058500	0,5	1,226400
5,066833	0,5	1,224050
5,075167	0,5	1,247100
5,083500	0,5	1,232750
5,091833	0,5	1,224800
5,100167	0,5	1,228850
5,108500	0,5	1,225400
5,116833	0,5	1,247550
5,125167	0,5	1,221050
5,133500	0,5	1,215550
5,141833	0,5	1,207600
5,150167	0,5	1,202850
5,158500	0,5	1,191800
5,166833	0,5	1,185050
5,175167	0,5	1,177850
5,183500	0,5	1,168950
5,191833	0,5	1,165950
5,200167	0,5	1,167600
5,208500	0,5	1,164150
5,216833	0,5	1,167050
5,225167	0,5	1,177850
5,233500	0,5	1,176000
5,241833	0,5	1,184100
5,250167	0,5	1,197450
5,258500	0,5	1,230850
5,266833	0,5	1,260700
5,275167	0,5	1,274200
5,283500	0,5	1,275400
5,291833	0,5	1,284250
5,300167	0,5	1,273750
5,308500	0,5	1,270800
5,316833	0,5	1,261100
5,325167	0,5	1,250050
5,333500	0,5	1,232100
5,341833	0,5	1,228500
5,350167	0,5	1,213600
5,358500	0,5	1,187200
5,366833	0,5	1,181000
5,375167	0,5	1,165700
5,383500	0,5	1,150600
5,391833	0,5	1,145350
5,400167	0,5	1,152400
5,408500	0,5	1,164300
5,416833	0,5	1,174650
5,425167	0,5	1,162800
5,433500	0,5	1,167500
5,441833	0,5	1,168150
5,450167	0,5	1,166800
5,458500	0,5	1,160400
5,466833	0,5	1,166150
5,475167	0,5	1,154700
5,483500	0,5	1,152200
5,491833	0,5	1,149900
5,500167	0,5	1,142250
5,508500	0,5	1,134700
5,516833	0,5	1,149200
5,525167	0,5	1,138850
5,533500	0,5	1,132250
5,541833	0,5	1,141850
5,550167	0,5	1,166250
5,558500	0,5	1,183950
5,566833	0,5	1,188400
5,575167	0,5	1,198250
5,583500	0,5	1,204650
5,591833	0,5	1,211650
5,600167	0,5	1,209450
5,608500	0,5	1,222150
5,616833	0,5	1,224500
5,625167	0,5	1,236150
5,633500	0,5	1,242650
5,641833	0,5	1,260200
5,650167	0,5	1,259350
5,658500	0,5	1,278450
5,666833	0,5	1,285150
5,675167	0,5	1,293850
5,683500	0,5	1,300900
5,691833	0,5	1,320250
5,700167	0,5	1,363100
5,708500	0,5	1,400550
5,716833	0,5	1,426550
5,725167	0,5	1,449250
5,733500	0,5	1,470550
5,741833	0,5	1,499450
5,750167	0,5	1,521950
5,758500	0,5	1,538300
5,766833	0,5	1,544300
5,775167	0,5	1,543750
5,783500	0,5	1,545000
5,791833	0,5	1,525300
5,800167	0,5	1,505950
5,808500	0,5	1,496550
5,816833	0,5	1,471300
5,825167	0,5	1,438500
5,833500	0,5	1,421150
5,841833	0,5	1,402400
5,850167	0,5	1,417050
5,858500	0,5	1,403200
5,866833	0,5	1,391100
5,875167	0,5	1,383400
5,883500	0,5	1,382300
5,891833	0,5	1,373150
5,900167	0,5	1,376100
5,908500	0,5	1,375850
5,916833	0,5	1,374100
5,925167	0,5	1,371900
5,933500	0,5	1,374800
5,941833	0,5	1,383550
5,950167	0,5	1,383400
5,958500	0,5	1,409550
5,966833	0,5	1,387950
5,975167	0,5	1,381900
5,983500	0,5	1,378250
5,991833	0,5	1,390050
6,000167	0,5	1,410500
6,008500	0,5	1,406050
6,016833	0,5	1,404450
6,025167	0,5	1,410750
6,033500	0,5	1,405300
6,041833	0,5	1,409600
6,050167	0,5	1,412600
6,058500	0,5	1,416350
6,066833	0,5	1,415900
6,075167	0,5	1,419300
6,083500	0,5	1,430050
6,091833	0,5	1,422500
6,100167	0,5	1,426300
6,108500	0,5	1,449400
6,116833	0,5	1,443750
6,125167	0,5	1,445300
6,133500	0,5	1,458150
6,141833	0,5	1,470600
6,150167	0,5	1,501400
6,158500	0,5	1,493100
6,166833	0,5	1,500600
6,175167	0,5	1,503400
6,183500	0,5	1,512700
6,191833	0,5	1,517750
6,200167	0,5	1,538200
6,208500	0,5	1,538400
6,216833	0,5	1,539900
6,225167	0,5	1,548900
6,233500	0,5	1,554300
6,241833	0,5	1,548300
6,250167	0,5	1,563100
6,258500	0,5	1,570500
6,266833	0,5	1,564400
6,275167	0,5	1,566400
6,283500	0,5	1,578650
6,291833	0,5	1,598950
6,300167	0,5	1,617550
6,308500	0,5	1,628750
6,316833	0,5	1,631600
6,325167	0,5	1,649050
6,333500	0,5	1,654900
6,341833	0,5	1,667000
6,350167	0,5	1,681300
6,358500	0,5	1,703650
6,366833	0,5	1,724500
6,375167	0,5	1,747650
6,383500	0,5	1,779050
6,391833	0,5	1,813650
6,400167	0,5	1,857450
6,408500	0,5	1,890800
6,416833	0,5	1,913450
6,425167	0,5	1,947800
6,433500	0,5	1,982850
6,441833	0,5	2,021700
6,450167	0,5	2,040900
6,458500	0,5	2,037700
6,466833	0,5	2,032400
6,475167	0,5	2,015250
6,483500	0,5	2,003300
6,491833	0,5	1,988700
6,500167	0,5	1,979850
6,508500	0,5	1,971300
6,516833	0,5	1,973100
6,525167	0,5	1,982550
6,533500	0,5	1,986800
6,541833	0,5	1,991350
6,550167	0,5	2,023100
6,558500	0,5	2,025750
6,566833	0,5	2,039800
6,575167	0,5	2,052150
6,583500	0,5	2,074600
6,591833	0,5	2,098700
6,600167	0,5	2,107350
6,608500	0,5	2,108000
6,616833	0,5	2,103500
6,625167	0,5	2,106850
6,633500	0,5	2,110050
6,641833	0,5	2,119800
6,650167	0,5	2,126300
6,658500	0,5	2,149950
6,666833	0,5	2,173550
6,675167	0,5	2,203600
6,683500	0,5	2,222600
6,691833	0,5	2,260750
6,700167	0,5	2,288150
6,708500	0,5	2,304450
6,716833	0,5	2,306350
6,725167	0,5	2,309350
6,733500	0,5	2,313950
6,741833	0,5	2,305950
6,750167	0,5	2,276850
6,758500	0,5	2,252800
6,766833	0,5	2,227600
6,775167	0,5	2,206350
6,783500	0,5	2,183600
6,791833	0,5	2,171950
6,800167	0,5	2,161350
6,808500	0,5	2,154900
6,816833	0,5	2,150500
6,825167	0,5	2,139250
6,833500	0,5	2,134500
6,841833	0,5	2,147400
6,850167	0,5	2,142250
6,858500	0,5	2,139650
6,866833	0,5	2,145300
6,875167	0,5	2,154400
6,883500	0,5	2,182250
6,891833	0,5	2,192550
6,900167	0,5	2,199000
6,908500	0,5	2,203300
6,916833	0,5	2,214200
6,925167	0,5	2,214950
6,933500	0,5	2,219850
6,941833	0,5	2,213750
6,950167	0,5	2,215150
6,958500	0,5	2,216150
6,966833	0,5	2,225900
6,975167	0,5	2,219550
6,983500	0,5	2,220400
6,991833	0,5	2,232900
7,000167	0,5	2,229700
7,008500	0,5	2,224000
7,016833	0,5	2,225150
7,025167	0,5	2,225950
7,033500	0,5	2,247150
7,041833	0,5	2,249300
7,050167	0,5	2,243850
7,058500	0,5	2,250750
7,066833	0,5	2,249400
7,075167	0,5	2,259350
7,083500	0,5	2,261950
7,091833	0,5	2,276050
7,100167	0,5	2,279700
7,108500	0,5	2,298350
7,116833	0,5	2,325400
7,125167	0,5	2,341950
7,133500	0,5	2,368050
7,141833	0,5	2,397550
7,150167	0,5	2,408850
7,158500	0,5	2,413900
7,166833	0,5	2,414500
7,175167	0,5	2,409950
7,183500	0,5	2,398100
7,191833	0,5	2,367000
7,200167	0,5	2,343000
7,208500	0,5	2,315900
7,216833	0,5	2,300700
7,225167	0,5	2,280150
7,233500	0,5	2,277100
7,241833	0,5	2,271600
7,250167	0,5	2,277450
7,258500	0,5	2,289700
7,266833	0,5	2,300100
7,275167	0,5	2,308950
7,283500	0,5	2,338200
7,291833	0,5	2,360000
7,300167	0,5	2,365950
7,308500	0,5	2,375400
7,316833	0,5	2,391300
7,325167	0,5	2,405000
7,333500	0,5	2,400200
7,341833	0,5	2,383700
7,350167	0,5	2,360200
7,358500	0,5	2,329300
7,366833	0,5	2,299800
7,375167	0,5	2,272650
7,383500	0,5	2,244750
7,391833	0,5	2,228100
7,400167	0,5	2,218300
7,408500	0,5	2,228450
7,416833	0,5	2,232800
7,425167	0,5	2,251400
7,433500	0,5	2,279850
7,441833	0,5	2,302250
7,450167	0,5	2,321300
7,458500	0,5	2,335400
7,466833	0,5	2,351300
7,475167	0,5	2,376150
7,483500	0,5	2,388600
7,491833	0,5	2,379750
7,500167	0,5	2,359900
7,508500	0,5	2,333450
7,516833	0,5	2,306400
7,525167	0,5	2,281450
7,533500	0,5	2,262100
7,541833	0,5	2,246100
7,550167	0,5	2,230400
7,558500	0,5	2,217650
7,566833	0,5	2,208600
7,575167	0,5	2,196750
7,583500	0,5	2,210250
7,591833	0,5	2,219400
7,600167	0,5	2,248500
7,608500	0,5	2,287500
7,616833	0,5	2,344650
7,625167	0,5	2,404700
7,633500	0,5	2,468350
7,641833	0,5	2,522250
7,650167	0,5	2,562250
7,658500	0,5	2,582400
7,666833	0,5	2,585350
7,675167	0,5	2,577800
7,683500	0,5	2,571100
7,691833	0,5	2,585050
7,700167	0,5	2,639700
7,708500	0,5	2,757200
7,716833	0,5	2,963300
7,725167	0,5	3,263950
7,733500	0,5	3,597700
7,741833	0,5	3,864200
7,750167	0,5	3,995500
7,758500	0,5	3,984000
7,766833	0,5	3,905600
7,775167	0,5	3,837700
7,783500	0,5	3,823150
7,791833	0,5	3,872450
7,800167	0,5	3,932950
7,808500	0,5	3,952800
7,816833	0,5	3,875100
7,825167	0,5	3,700150
7,833500	0,5	3,467150
7,841833	0,5	3,240750
7,850167	0,5	3,061650
7,858500	0,5	2,970100
7,866833	0,5	2,964650
7,875167	0,5	3,039750
7,883500	0,5	3,151500
7,891833	0,5	3,251250
7,900167	0,5	3,316050
7,908500	0,5	3,318250
7,916833	0,5	3,275200
7,925167	0,5	3,203000
7,933500	0,5	3,152950
7,941833	0,5	3,173600
7,950167	0,5	3,321150
7,958500	0,5	3,627400
7,966833	0,5	4,067950
7,975167	0,5	4,531800
7,983500	0,5	4,847350
7,991833	0,5	4,888450
8,000167	0,5	4,639200
8,008500	0,5	4,194000
8,016833	0,5	3,715350
8,025167	0,5	3,307400
8,033500	0,5	3,003300
8,041833	0,5	2,795700
8,050167	0,5	2,654900
8,058500	0,5	2,559800
8,066833	0,5	2,504350
8,075167	0,5	2,457600
8,083500	0,5	2,441600
8,091833	0,5	2,446100
8,100167	0,5	2,453900
8,108500	0,5	2,454950
8,116833	0,5	2,449050
8,125167	0,5	2,431050
8,133500	0,5	2,411350
8,141833	0,5	2,391700
8,150167	0,5	2,373950
8,158500	0,5	2,367800
8,166833	0,5	2,371350
8,175167	0,5	2,388800
8,183500	0,5	2,405850
8,191833	0,5	2,416400
8,200167	0,5	2,414050
8,208500	0,5	2,406050
8,216833	0,5	2,386550
8,225167	0,5	2,350300
8,233500	0,5	2,328050
8,241833	0,5	2,299000
8,250167	0,5	2,283800
8,258500	0,5	2,266200
8,266833	0,5	2,251250
8,275167	0,5	2,247450
8,283500	0,5	2,236500
8,291833	0,5	2,241850
8,300167	0,5	2,257100
8,308500	0,5	2,276250
8,316833	0,5	2,302650
8,325167	0,5	2,320550
8,333500	0,5	2,334400
8,341833	0,5	2,330400
8,350167	0,5	2,336600
8,358500	0,5	2,350450
8,366833	0,5	2,369250
8,375167	0,5	2,384000
8,383500	0,5	2,408800
8,391833	0,5	2,426200
8,400167	0,5	2,436700
8,408500	0,5	2,433800
8,416833	0,5	2,424200
8,425167	0,5	2,411850
8,433500	0,5	2,401900
8,441833	0,5	2,414650
8,450167	0,5	2,453950
8,458500	0,5	2,519750
8,466833	0,5	2,635650
8,475167	0,5	2,769800
8,483500	0,5	2,895250
8,491833	0,5	2,978300
8,500167	0,5	2,986000
8,508500	0,5	2,933250
8,516833	0,5	2,931400
8,525167	0,5	2,700950
8,533500	0,5	2,583450
8,541833	0,5	2,488500
8,550167	0,5	2,418650
8,558500	0,5	2,351650
8,566833	0,5	2,293450
8,575167	0,5	2,229700
8,583500	0,5	2,172400
8,591833	0,5	2,128300
8,600167	0,5	2,098100
8,608500	0,5	2,070850
8,616833	0,5	2,053550
8,625167	0,5	2,034600
8,633500	0,5	2,020950
8,641833	0,5	2,014800
8,650167	0,5	2,005100
8,658500	0,5	1,997000
8,666833	0,5	1,988000
8,675167	0,5	1,969550
8,683500	0,5	1,956000
8,691833	0,5	1,947200
8,700167	0,5	1,935650
8,708500	0,5	1,931350
8,716833	0,5	1,929100
8,725167	0,5	1,925150
8,733500	0,5	1,923650
8,741833	0,5	1,919550
8,750167	0,5	1,912800
8,758500	0,5	1,912050
8,766833	0,5	1,909850
8,775167	0,5	1,907800
8,783500	0,5	1,899950
8,791833	0,5	1,896400
8,800167	0,5	1,893200
8,808500	0,5	1,899250
8,816833	0,5	1,901100
8,825167	0,5	1,901350
8,833500	0,5	1,908850
8,841833	0,5	1,917250
8,850167	0,5	1,929400
8,858500	0,5	1,943350
8,866833	0,5	1,956950
8,875167	0,5	1,972250
8,883500	0,5	1,988300
8,891833	0,5	2,009350
8,900167	0,5	2,033450
8,908500	0,5	2,078750
8,916833	0,5	2,125700
8,925167	0,5	2,172850
8,933500	0,5	2,204600
8,941833	0,5	2,222300
8,950167	0,5	2,224050
8,958500	0,5	2,203100
8,966833	0,5	2,176650
8,975167	0,5	2,148950
8,983500	0,5	2,128900
8,991833	0,5	2,120200
9,000167	0,5	2,119700
9,008500	0,5	2,130300
9,016833	0,5	2,145650
9,025167	0,5	2,159450
9,033500	0,5	2,180200
9,041833	0,5	2,202300
9,050167	0,5	2,236400
9,058500	0,5	2,270900
9,066833	0,5	2,307650
9,075167	0,5	2,346650
9,083500	0,5	2,402000
9,091833	0,5	2,488400
9,100167	0,5	2,629550
9,108500	0,5	2,843400
9,116833	0,5	3,151300
9,125167	0,5	3,556750
9,133500	0,5	4,020550
9,141833	0,5	4,448250
9,150167	0,5	4,754150
9,158500	0,5	4,859600
9,166833	0,5	4,748000
9,175167	0,5	4,436350
9,183500	0,5	3,996650
9,191833	0,5	3,527150
9,200167	0,5	3,100700
9,208500	0,5	2,761550
9,216833	0,5	2,522200
9,225167	0,5	2,372000
9,233500	0,5	2,282000
9,241833	0,5	2,237850
9,250167	0,5	2,209450
9,258500	0,5	2,191950
9,266833	0,5	2,161000
9,275167	0,5	2,129150
9,283500	0,5	2,091200
9,291833	0,5	2,052900
9,300167	0,5	2,010750
9,308500	0,5	1,977250
9,316833	0,5	1,952850
9,325167	0,5	1,925350
9,333500	0,5	1,915600
9,341833	0,5	1,903850
9,350167	0,5	1,898500
9,358500	0,5	1,893950
9,366833	0,5	1,895500
9,375167	0,5	1,903250
9,383500	0,5	1,916150
9,391833	0,5	1,935500
9,400167	0,5	1,952100
9,408500	0,5	1,963650
9,416833	0,5	1,963400
9,425167	0,5	1,954300
9,433500	0,5	1,946150
9,441833	0,5	1,928950
9,450167	0,5	1,908600
9,458500	0,5	1,889450
9,466833	0,5	1,867000
9,475167	0,5	1,839150
9,483500	0,5	1,813900
9,491833	0,5	1,783750
9,500167	0,5	1,759050
9,508500	0,5	1,746050
9,516833	0,5	1,731250
9,525167	0,5	1,719300
9,533500	0,5	1,711950
9,541833	0,5	1,709950
9,550167	0,5	1,717900
9,558500	0,5	1,716450
9,566833	0,5	1,719750
9,575167	0,5	1,721750
9,583500	0,5	1,718300
9,591833	0,5	1,712100
9,600167	0,5	1,702600
9,608500	0,5	1,683200
9,616833	0,5	1,665350
9,625167	0,5	1,656300
9,633500	0,5	1,640450
9,641833	0,5	1,627200
9,650167	0,5	1,619350
9,658500	0,5	1,607000
9,666833	0,5	1,591600
9,675167	0,5	1,582550
9,683500	0,5	1,571550
9,691833	0,5	1,565650
9,700167	0,5	1,561400
9,708500	0,5	1,560350
9,716833	0,5	1,546650
9,725167	0,5	1,537250
9,733500	0,5	1,527600
9,741833	0,5	1,514700
9,750167	0,5	1,502750
9,758500	0,5	1,488650
9,766833	0,5	1,479100
9,775167	0,5	1,475700
9,783500	0,5	1,468150
9,791833	0,5	1,459050
9,800167	0,5	1,453150
9,808500	0,5	1,451200
9,816833	0,5	1,446000
9,825167	0,5	1,440250
9,833500	0,5	1,444750
9,841833	0,5	1,448700
9,850167	0,5	1,454000
9,858500	0,5	1,464450
9,866833	0,5	1,471550
9,875167	0,5	1,476350
9,883500	0,5	1,477400
9,891833	0,5	1,476750
9,900167	0,5	1,483650
9,908500	0,5	1,488950
9,916833	0,5	1,501300
9,925167	0,5	1,518550
9,933500	0,5	1,536150
9,941833	0,5	1,556650
9,950167	0,5	1,573900
9,958500	0,5	1,578700
9,966833	0,5	1,581550
9,975167	0,5	1,571500
9,983500	0,5	1,562150
9,991833	0,5	1,548400
10,000167	0,5	1,534750
10,008500	0,5	1,525900
10,016833	0,5	1,518100
10,025167	0,5	1,518250
10,033500	0,5	1,517250
10,041833	0,5	1,524200
10,050167	0,5	1,532850
10,058500	0,5	1,536250
10,066833	0,5	1,540600
10,075167	0,5	1,547050
10,083500	0,5	1,549900
10,091833	0,5	1,560400
10,100167	0,5	1,565550
10,108500	0,5	1,569900
10,116833	0,5	1,575000
10,125167	0,5	1,573950
10,133500	0,5	1,583500
10,141833	0,5	1,593700
10,150167	0,5	1,608750
10,158500	0,5	1,623600
10,166833	0,5	1,637900
10,175167	0,5	1,656250
10,183500	0,5	1,673850
10,191833	0,5	1,679100
10,200167	0,5	1,685600
10,208500	0,5	1,679750
10,216833	0,5	1,664000
10,225167	0,5	1,638750
10,233500	0,5	1,611900
10,241833	0,5	1,593650
10,250167	0,5	1,568050
10,258500	0,5	1,541950
10,266833	0,5	1,519100
10,275167	0,5	1,494250
10,283500	0,5	1,483550
10,291833	0,5	1,467700
10,300167	0,5	1,452750
10,308500	0,5	1,441500
10,316833	0,5	1,433650
10,325167	0,5	1,422050
10,333500	0,5	1,417350
10,341833	0,5	1,410900
10,350167	0,5	1,408700
10,358500	0,5	1,402900
10,366833	0,5	1,403000
10,375167	0,5	1,405350
10,383500	0,5	1,408900
10,391833	0,5	1,424600
10,400167	0,5	1,432200
10,408500	0,5	1,452150
10,416833	0,5	1,467850
10,425167	0,5	1,488750
10,433500	0,5	1,515150
10,441833	0,5	1,548400
10,450167	0,5	1,584450
10,458500	0,5	1,630200
10,466833	0,5	1,681450
10,475167	0,5	1,729000
10,483500	0,5	1,774100
10,491833	0,5	1,804300
10,500167	0,5	1,813750
10,508500	0,5	1,802300
10,516833	0,5	1,782250
10,525167	0,5	1,740950
10,533500	0,5	1,695850
10,541833	0,5	1,651050
10,550167	0,5	1,608950
10,558500	0,5	1,558050
10,566833	0,5	1,516750
10,575167	0,5	1,479700
10,583500	0,5	1,459600
10,591833	0,5	1,435100
10,600167	0,5	1,412850
10,608500	0,5	1,402500
10,616833	0,5	1,380200
10,625167	0,5	1,378350
10,633500	0,5	1,365600
10,641833	0,5	1,357950
10,650167	0,5	1,356800
10,658500	0,5	1,350400
10,666833	0,5	1,345150
10,675167	0,5	1,338200
10,683500	0,5	1,336500
10,691833	0,5	1,332900
10,700167	0,5	1,331200
10,708500	0,5	1,338950
10,716833	0,5	1,341750
10,725167	0,5	1,357200
10,733500	0,5	1,382150
10,741833	0,5	1,410100
10,750167	0,5	1,436350
10,758500	0,5	1,472600
10,766833	0,5	1,495300
10,775167	0,5	1,509000
10,783500	0,5	1,495700
10,791833	0,5	1,471100
10,800167	0,5	1,421650
10,808500	0,5	1,375700
10,816833	0,5	1,317250
10,825167	0,5	1,273050
10,833500	0,5	1,238650
10,841833	0,5	1,221550
10,850167	0,5	1,215300
10,858500	0,5	1,215450
10,866833	0,5	1,227200
10,875167	0,5	1,252750
10,883500	0,5	1,275300
10,891833	0,5	1,297750
10,900167	0,5	1,324950
10,908500	0,5	1,342600
10,916833	0,5	1,359800
10,925167	0,5	1,372350
10,933500	0,5	1,377650
10,941833	0,5	1,381950
10,950167	0,5	1,378950
10,958500	0,5	1,376350
10,966833	0,5	1,369950
10,975167	0,5	1,365250
10,983500	0,5	1,364950
10,991833	0,5	1,359850
11,000167	0,5	1,359350
11,008500	0,5	1,354900
11,016833	0,5	1,349100
11,025167	0,5	1,356900
11,033500	0,5	1,357150
11,041833	0,5	1,358800
11,050167	0,5	1,362100
11,058500	0,5	1,361050
11,066833	0,5	1,363250
11,075167	0,5	1,373600
11,083500	0,5	1,372550
11,091833	0,5	1,373650
11,100167	0,5	1,372300
11,108500	0,5	1,373250
11,116833	0,5	1,366700
11,125167	0,5	1,366850
11,133500	0,5	1,363700
11,141833	0,5	1,357700
11,150167	0,5	1,356100
11,158500	0,5	1,357600
11,166833	0,5	1,366400
11,175167	0,5	1,374250
11,183500	0,5	1,375850
11,191833	0,5	1,377350
11,200167	0,5	1,372700
11,208500	0,5	1,365400
11,216833	0,5	1,355800
11,225167	0,5	1,348800
11,233500	0,5	1,340300
11,241833	0,5	1,331400
11,250167	0,5	1,334950
11,258500	0,5	1,327700
11,266833	0,5	1,327400
11,275167	0,5	1,338850
11,283500	0,5	1,349500
11,291833	0,5	1,347500
11,300167	0,5	1,355750
11,308500	0,5	1,368250
11,316833	0,5	1,409050
11,325167	0,5	1,452250
11,333500	0,5	1,512700
11,341833	0,5	1,584900
11,350167	0,5	1,665100
11,358500	0,5	1,735300
11,366833	0,5	1,794250
11,375167	0,5	1,817550
11,383500	0,5	1,808450
11,391833	0,5	1,772850
11,400167	0,5	1,719350
11,408500	0,5	1,658550
11,416833	0,5	1,606100
11,425167	0,5	1,564900
11,433500	0,5	1,525350
11,441833	0,5	1,491100
11,450167	0,5	1,459450
11,458500	0,5	1,439550
11,466833	0,5	1,419600
11,475167	0,5	1,399850
11,483500	0,5	1,374400
11,491833	0,5	1,358900
11,500167	0,5	1,336250
11,508500	0,5	1,330650
11,516833	0,5	1,325950
11,525167	0,5	1,327650
11,533500	0,5	1,337250
11,541833	0,5	1,348400
11,550167	0,5	1,381300
11,558500	0,5	1,419500
11,566833	0,5	1,490450
11,575167	0,5	1,563750
11,583500	0,5	1,638800
11,591833	0,5	1,695600
11,600167	0,5	1,733800
11,608500	0,5	1,748850
11,616833	0,5	1,743850
11,625167	0,5	1,712450
11,633500	0,5	1,676950
11,641833	0,5	1,638250
11,650167	0,5	1,593500
11,658500	0,5	1,549850
11,666833	0,5	1,511100
11,675167	0,5	1,461900
11,683500	0,5	1,428000
11,691833	0,5	1,391250
11,700167	0,5	1,369500
11,708500	0,5	1,343750
11,716833	0,5	1,333450
11,725167	0,5	1,323100
11,733500	0,5	1,320800
11,741833	0,5	1,308600
11,750167	0,5	1,299800
11,758500	0,5	1,307250
11,766833	0,5	1,311300
11,775167	0,5	1,312000
11,783500	0,5	1,305700
11,791833	0,5	1,302050
11,800167	0,5	1,285250
11,808500	0,5	1,272100
11,816833	0,5	1,257050
11,825167	0,5	1,237900
11,833500	0,5	1,226700
11,841833	0,5	1,214200
11,850167	0,5	1,199950
11,858500	0,5	1,188700
11,866833	0,5	1,190750
11,875167	0,5	1,187400
11,883500	0,5	1,181800
11,891833	0,5	1,181150
11,900167	0,5	1,176100
11,908500	0,5	1,189200
11,916833	0,5	1,193950
11,925167	0,5	1,199000
11,933500	0,5	1,210050
11,941833	0,5	1,214700
11,950167	0,5	1,226350
11,958500	0,5	1,235950
11,966833	0,5	1,247550
11,975167	0,5	1,251500
11,983500	0,5	1,260400
11,991833	0,5	1,267900
12,000167	0,5	1,264500
12,008500	0,5	1,273300
12,016833	0,5	1,281500
12,025167	0,5	1,278050
12,033500	0,5	1,283100
12,041833	0,5	1,292750
12,050167	0,5	1,308300
12,058500	0,5	1,326050
12,066833	0,5	1,352850
12,075167	0,5	1,383650
12,083500	0,5	1,416450
12,091833	0,5	1,444000
12,100167	0,5	1,471750
12,108500	0,5	1,487700
12,116833	0,5	1,495700
12,125167	0,5	1,491350
12,133500	0,5	1,480800
12,141833	0,5	1,465600
12,150167	0,5	1,449650
12,158500	0,5	1,440850
12,166833	0,5	1,432600
12,175167	0,5	1,422150
12,183500	0,5	1,415250
12,191833	0,5	1,410800
12,200167	0,5	1,419200
12,208500	0,5	1,432050
12,216833	0,5	1,442400
12,225167	0,5	1,462100
12,233500	0,5	1,472300
12,241833	0,5	1,490300
12,250167	0,5	1,512350
12,258500	0,5	1,527150
12,266833	0,5	1,555200
12,275167	0,5	1,601800
12,283500	0,5	1,671850
12,291833	0,5	1,736250
12,300167	0,5	1,824650
12,308500	0,5	1,901050
12,316833	0,5	1,962450
12,325167	0,5	2,006300
12,333500	0,5	2,035800
12,341833	0,5	2,060850
12,350167	0,5	2,091900
12,358500	0,5	2,109400
12,366833	0,5	2,144450
12,375167	0,5	2,163350
12,383500	0,5	2,182450
12,391833	0,5	2,175400
12,400167	0,5	2,168000
12,408500	0,5	2,149650
12,416833	0,5	2,137700
12,425167	0,5	2,117350
12,433500	0,5	2,101850
12,441833	0,5	2,062100
12,450167	0,5	2,033550
12,458500	0,5	1,979950
12,466833	0,5	1,918250
12,475167	0,5	1,863000
12,483500	0,5	1,812150
12,491833	0,5	1,800350
12,500167	0,5	1,797150
12,508500	0,5	1,800550
12,516833	0,5	1,794850
12,525167	0,5	1,784700
12,533500	0,5	1,763200
12,541833	0,5	1,730950
12,550167	0,5	1,682450
12,558500	0,5	1,625400
12,566833	0,5	1,563200
12,575167	0,5	1,507700
12,583500	0,5	1,460000
12,591833	0,5	1,407750
12,600167	0,5	1,380350
12,608500	0,5	1,340700
12,616833	0,5	1,310550
12,625167	0,5	1,280300
12,633500	0,5	1,250900
12,641833	0,5	1,236700
12,650167	0,5	1,226900
12,658500	0,5	1,213000
12,666833	0,5	1,199800
12,675167	0,5	1,186600
12,683500	0,5	1,176300
12,691833	0,5	1,161350
12,700167	0,5	1,149550
12,708500	0,5	1,131450
12,716833	0,5	1,113750
12,725167	0,5	1,108450
12,733500	0,5	1,092800
12,741833	0,5	1,086950
12,750167	0,5	1,087700
12,758500	0,5	1,079400
12,766833	0,5	1,070100
12,775167	0,5	1,054850
12,783500	0,5	1,044400
12,791833	0,5	1,043050
12,800167	0,5	1,038050
12,808500	0,5	1,031750
12,816833	0,5	1,022000
12,825167	0,5	1,017050
12,833500	0,5	1,001200
12,841833	0,5	0,997950
12,850167	0,5	0,986400
12,858500	0,5	0,981050
12,866833	0,5	0,980000
12,875167	0,5	1,000150
12,883500	0,5	1,021450
12,891833	0,5	1,064350
12,900167	0,5	1,118900
12,908500	0,5	1,159850
12,916833	0,5	1,184550
12,925167	0,5	1,187050
12,933500	0,5	1,175000
12,941833	0,5	1,130250
12,950167	0,5	1,065950
12,958500	0,5	0,978800
12,966833	0,5	0,904500
12,975167	0,5	0,821500
12,983500	0,5	0,742450
12,991833	0,5	0,672550
13,000167	0,5	0,609300
13,008500	0,5	0,549000
13,016833	0,5	0,454500
13,025167	0,5	0,339150
13,033500	0,5	0,145000
13,041833	0,5	-0,170950
13,050167	0,5	-0,598250
13,058500	0,5	-0,955700
13,066833	0,5	-1,250800
13,075167	0,5	-1,546250
13,083500	0,5	-1,752200
13,091833	0,5	-1,899500
13,100167	0,5	-1,995200
13,108500	0,5	-2,074750
13,116833	0,5	-2,138300
13,125167	0,5	-2,205100
13,133500	0,5	-2,257400
13,141833	0,5	-2,302050
13,150167	0,5	-2,348950
13,158500	0,5	-2,377550
13,166833	0,5	-2,402000
13,175167	0,5	-2,426650
13,183500	0,5	-2,430650
13,191833	0,5	-2,421500
13,200167	0,5	-2,409050
13,208500	0,5	-2,386400
13,216833	0,5	-2,382750
13,225167	0,5	-2,356950
13,233500	0,5	-2,336950
13,241833	0,5	-2,324450
13,250167	0,5	-2,329850
13,258500	0,5	-2,329150
13,266833	0,5	-2,350500
13,275167	0,5	-2,379600
13,283500	0,5	-2,414100
13,291833	0,5	-2,442350
13,300167	0,5	-2,473350
13,308500	0,5	-2,500250
13,316833	0,5	-2,524600
13,325167	0,5	-2,549250
13,333500	0,5	-2,554050
13,341833	0,5	-2,558100
13,350167	0,5	-2,562150
13,358500	0,5	-2,565550
13,366833	0,5	-2,573950
13,375167	0,5	-2,568150
13,383500	0,5	-2,549600
13,391833	0,5	-2,536650
13,400167	0,5	-2,521000
13,408500	0,5	-2,500650
13,416833	0,5	-2,473800
13,425167	0,5	-2,447700
13,433500	0,5	-2,420750
13,441833	0,5	-2,393750
13,450167	0,5	-2,376700
13,458500	0,5	-2,352500
13,466833	0,5	-2,341350
13,475167	0,5	-2,343200
13,483500	0,5	-2,325500
13,491833	0,5	-2,309450
13,500167	0,5	-2,301950
13,508500	0,5	-2,291550
13,516833	0,5	-2,286800
13,525167	0,5	-2,258500
13,533500	0,5	-2,248250
13,541833	0,5	-2,236250
13,550167	0,5	-2,233450
13,558500	0,5	-2,226800
13,566833	0,5	-2,233950
13,575167	0,5	-2,234400
13,583500	0,5	-2,244050
13,591833	0,5	-2,252000
13,600167	0,5	-2,263650
13,608500	0,5	-2,265900
13,616833	0,5	-2,270200
13,625167	0,5	-2,279600
13,633500	0,5	-2,268200
13,641833	0,5	-2,261000
13,650167	0,5	-2,258400
13,658500	0,5	-2,263150
13,666833	0,5	-2,251500
13,675167	0,5	-2,233650
13,683500	0,5	-2,219500
13,691833	0,5	-2,202900
13,700167	0,5	-2,178750
13,708500	0,5	-2,157700
13,716833	0,5	-2,134500
13,725167	0,5	-2,109200
13,733500	0,5	-2,086100
13,741833	0,5	-2,068550
13,750167	0,5	-2,052150
13,758500	0,5	-2,025650
13,766833	0,5	-2,014950
13,775167	0,5	-1,988600
13,783500	0,5	-1,973250
13,791833	0,5	-1,948200
13,800167	0,5	-1,936650
13,808500	0,5	-1,917750
13,816833	0,5	-1,893100
13,825167	0,5	-1,850250
13,833500	0,5	-1,819950
13,841833	0,5	-1,788950
13,850167	0,5	-1,762150
13,858500	0,5	-1,728000
13,866833	0,5	-1,703850
13,875167	0,5	-1,672250
13,883500	0,5	-1,655100
13,891833	0,5	-1,627650
13,900167	0,5	-1,602750
13,908500	0,5	-1,583050
13,916833	0,5	-1,590750
13,925167	0,5	-1,578700
13,933500	0,5	-1,573100
13,941833	0,5	-1,557200
13,950167	0,5	-1,556400
13,958500	0,5	-1,560850
13,966833	0,5	-1,537150
13,975167	0,5	-1,517600
13,983500	0,5	-1,499200
13,991833	0,5	-1,476000
14,000167	0,5	-1,458950
14,008500	0,5	-1,434800
14,016833	0,5	-1,405000
14,025167	0,5	-1,375650
14,033500	0,5	-1,339450
14,041833	0,5	-1,305950
14,050167	0,5	-1,241450
14,058500	0,5	-1,192350
14,066833	0,5	-1,118500
14,075167	0,5	-1,023900
14,083500	0,5	-0,928500
14,091833	0,5	-0,840050
14,100167	0,5	-0,757350
14,108500	0,5	-0,677550
14,116833	0,5	-0,607900
14,125167	0,5	-0,548550
14,133500	0,5	-0,512700
14,141833	0,5	-0,489600
14,150167	0,5	-0,479300
14,158500	0,5	-0,481950
14,166833	0,5	-0,480050
14,175167	0,5	-0,466550
14,183500	0,5	-0,439550
14,191833	0,5	-0,383500
14,200167	0,5	-0,310500
14,208500	0,5	-0,229250
14,216833	0,5	-0,125550
14,225167	0,5	-0,016550
14,233500	0,5	0,064400
14,241833	0,5	0,128750
14,250167	0,5	0,145900
14,258500	0,5	0,154850
14,266833	0,5	0,149300
14,275167	0,5	0,127600
14,283500	0,5	0,099300
14,291833	0,5	0,090850
14,300167	0,5	0,073100
14,308500	0,5	0,081100
14,316833	0,5	0,080850
14,325167	0,5	0,085100
14,333500	0,5	0,090150
14,341833	0,5	0,104200
14,350167	0,5	0,107800
14,358500	0,5	0,103100
14,366833	0,5	0,114250
14,375167	0,5	0,121800
14,383500	0,5	0,125950
14,391833	0,5	0,120100
14,400167	0,5	0,112050
14,408500	0,5	0,124600
14,416833	0,5	0,135900
14,425167	0,5	0,134450
14,433500	0,5	0,144100
14,441833	0,5	0,151200
14,450167	0,5	0,163600
14,458500	0,5	0,179050
14,466833	0,5	0,200150
14,475167	0,5	0,214200
14,483500	0,5	0,223050
14,491833	0,5	0,231900
14,500167	0,5	0,208900
14,508500	0,5	0,193800
14,516833	0,5	0,179050
14,525167	0,5	0,163500
14,533500	0,5	0,134700
14,541833	0,5	0,106900
14,550167	0,5	0,081950
14,558500	0,5	0,081000
14,566833	0,5	0,063650
14,575167	0,5	0,058800
14,583500	0,5	0,050750
14,591833	0,5	0,057400
14,600167	0,5	0,043900
14,608500	0,5	0,047400
14,616833	0,5	0,046950
14,625167	0,5	0,047500
14,633500	0,5	0,048850
14,641833	0,5	0,060000
14,650167	0,5	0,057150
14,658500	0,5	0,086050
14,666833	0,5	0,126050
14,675167	0,5	0,193450
14,683500	0,5	0,288550
14,691833	0,5	0,379400
14,700167	0,5	0,497650
14,708500	0,5	0,593400
14,716833	0,5	0,640500
14,725167	0,5	0,629950
14,733500	0,5	0,580900
14,741833	0,5	0,508450
14,750167	0,5	0,442450
14,758500	0,5	0,398450
14,766833	0,5	0,384900
14,775167	0,5	0,407750
14,783500	0,5	0,466550
14,791833	0,5	0,552300
14,800167	0,5	0,612200
14,808500	0,5	0,662300
14,816833	0,5	0,665550
14,825167	0,5	0,622200
14,833500	0,5	0,545400
14,841833	0,5	0,449550
14,850167	0,5	0,382100
14,858500	0,5	0,334900
14,866833	0,5	0,284850
14,875167	0,5	0,253350
14,883500	0,5	0,226450
14,891833	0,5	0,207200
14,900167	0,5	0,191750
14,908500	0,5	0,187200
14,916833	0,5	0,179600
14,925167	0,5	0,186300
14,933500	0,5	0,194150
14,941833	0,5	0,207850
14,950167	0,5	0,211950
14,958500	0,5	0,227600
14,966833	0,5	0,221600
14,975167	0,5	0,210150
14,983500	0,5	0,183100
14,991833	0,5	0,167200
15,000167	0,5	0,168500
15,008500	0,5	0,162200
15,016833	0,5	0,163350
15,025167	0,5	0,157900
15,033500	0,5	0,147550
15,041833	0,5	0,129850
15,050167	0,5	0,114800
15,058500	0,5	0,092800
15,066833	0,5	0,072900
15,075167	0,5	0,058500
15,083500	0,5	0,050700
15,091833	0,5	0,028900
15,100167	0,5	0,039050
15,108500	0,5	0,029850
15,116833	0,5	0,024850
15,125167	0,5	0,009850
15,133500	0,5	-0,016950
15,141833	0,5	-0,022650
15,150167	0,5	-0,022800
15,158500	0,5	-0,019450
15,166833	0,5	-0,004600
15,175167	0,5	0,012400
15,183500	0,5	0,044750
15,191833	0,5	0,112200
15,200167	0,5	0,205600
15,208500	0,5	0,320200
15,216833	0,5	0,442300
15,225167	0,5	0,562750
15,233500	0,5	0,611900
15,241833	0,5	0,610250
15,250167	0,5	0,567900
15,258500	0,5	0,508100
15,266833	0,5	0,450100
15,275167	0,5	0,423950
15,283500	0,5	0,441550
15,291833	0,5	0,508500
15,300167	0,5	0,584350
15,308500	0,5	0,629200
15,316833	0,5	0,626650
15,325167	0,5	0,581600
15,333500	0,5	0,503900
15,341833	0,5	0,412750
15,350167	0,5	0,338700
15,358500	0,5	0,276550
15,366833	0,5	0,236250
15,375167	0,5	0,209650
15,383500	0,5	0,188750
15,391833	0,5	0,183800
15,400167	0,5	0,182050
15,408500	0,5	0,162050
15,416833	0,5	0,138500
15,425167	0,5	0,104600
15,433500	0,5	0,100450
15,441833	0,5	0,098800
15,450167	0,5	0,104750
15,458500	0,5	0,101600
15,466833	0,5	0,116250
15,475167	0,5	0,109000
15,483500	0,5	0,098050
15,491833	0,5	0,082700
15,500167	0,5	0,058800
15,508500	0,5	0,032450
15,516833	0,5	-0,005000
15,525167	0,5	-0,022950
15,533500	0,5	-0,066900
15,541833	0,5	-0,076100
15,550167	0,5	-0,090150
15,558500	0,5	-0,111800
15,566833	0,5	-0,139250
15,575167	0,5	-0,170550
15,583500	0,5	-0,175600
15,591833	0,5	-0,177100
15,600167	0,5	-0,188200
15,608500	0,5	-0,191150
15,616833	0,5	-0,192200
15,625167	0,5	-0,168950
15,633500	0,5	-0,130400
15,641833	0,5	-0,053900
15,650167	0,5	0,045950
15,658500	0,5	0,174400
15,666833	0,5	0,319500
15,675167	0,5	0,414200
15,683500	0,5	0,439700
15,691833	0,5	0,451550
15,700167	0,5	0,417300
15,708500	0,5	0,374950
15,716833	0,5	0,357100
15,725167	0,5	0,368900
15,733500	0,5	0,429300
15,741833	0,5	0,457950
15,750167	0,5	0,456450
15,758500	0,5	0,408250
15,766833	0,5	0,331950
15,775167	0,5	0,239950
15,783500	0,5	0,155700
15,791833	0,5	0,079950
15,800167	0,5	0,017450
15,808500	0,5	-0,037200
15,816833	0,5	-0,056300
15,825167	0,5	-0,094800
15,833500	0,5	-0,100250
15,841833	0,5	-0,088250
15,850167	0,5	-0,080700
15,858500	0,5	-0,077350
15,866833	0,5	-0,085200
15,875167	0,5	-0,088500
15,883500	0,5	-0,093100
15,891833	0,5	-0,089600
15,900167	0,5	-0,109900
15,908500	0,5	-0,120750
15,916833	0,5	-0,148800
15,925167	0,5	-0,172400
15,933500	0,5	-0,200700
15,941833	0,5	-0,211200
15,950167	0,5	-0,233650
15,958500	0,5	-0,250300
15,966833	0,5	-0,258300
15,975167	0,5	-0,280850
15,983500	0,5	-0,279000
15,991833	0,5	-0,281550
16,000167	0,5	-0,283150
16,008500	0,5	-0,301400
16,016833	0,5	-0,310800
16,025167	0,5	-0,316150
16,033500	0,5	-0,279700
16,041833	0,5	-0,235700
16,050167	0,5	-0,155650
16,058500	0,5	-0,047250
16,066833	0,5	0,096050
16,075167	0,5	0,225200
16,083500	0,5	0,338200
16,091833	0,5	0,389550
16,100167	0,5	0,397550
16,108500	0,5	0,398400
16,116833	0,5	0,401600
16,125167	0,5	0,399000
16,133500	0,5	0,432300
16,141833	0,5	0,435000
16,150167	0,5	0,405500
16,158500	0,5	0,312550
16,166833	0,5	0,203800
16,175167	0,5	0,120850
16,183500	0,5	0,041350
16,191833	0,5	-0,019400
16,200167	0,5	-0,057700
16,208500	0,5	-0,076700
16,216833	0,5	-0,093950
16,225167	0,5	-0,096600
16,233500	0,5	-0,095400
16,241833	0,5	-0,083500
16,250167	0,5	-0,078550
16,258500	0,5	-0,067700
16,266833	0,5	-0,079700
16,275167	0,5	-0,082350
16,283500	0,5	-0,095150
16,291833	0,5	-0,113950
16,300167	0,5	-0,148700
16,308500	0,5	-0,188700
16,316833	0,5	-0,223000
16,325167	0,5	-0,249650
16,333500	0,5	-0,279800
16,341833	0,5	-0,308250
16,350167	0,5	-0,325800
16,358500	0,5	-0,355450
16,366833	0,5	-0,375600
16,375167	0,5	-0,391950
16,383500	0,5	-0,392350
16,391833	0,5	-0,395800
16,400167	0,5	-0,372600
16,408500	0,5	-0,328000
16,416833	0,5	-0,256300
16,425167	0,5	-0,131750
16,433500	0,5	0,008300
16,441833	0,5	0,134300
16,450167	0,5	0,225950
16,458500	0,5	0,259250
16,466833	0,5	0,278300
16,475167	0,5	0,282600
16,483500	0,5	0,281150
16,491833	0,5	0,271800
16,500167	0,5	0,249650
16,508500	0,5	0,192300
16,516833	0,5	0,121700
16,525167	0,5	0,049150
16,533500	0,5	-0,032900
16,541833	0,5	-0,078950
16,550167	0,5	-0,105600
16,558500	0,5	-0,112350
16,566833	0,5	-0,111450
16,575167	0,5	-0,083750
16,583500	0,5	-0,050000
16,591833	0,5	-0,043100
16,600167	0,5	-0,043750
16,608500	0,5	-0,036200
16,616833	0,5	-0,018000
16,625167	0,5	-0,013350
16,633500	0,5	-0,033650
16,641833	0,5	-0,045800
16,650167	0,5	-0,069950
16,658500	0,5	-0,081150
16,666833	0,5	-0,095750
16,675167	0,5	-0,097300
16,683500	0,5	-0,107650
16,691833	0,5	-0,116800
16,700167	0,5	-0,111900
16,708500	0,5	-0,142050
16,716833	0,5	-0,133500
16,725167	0,5	-0,139000
16,733500	0,5	-0,140300
16,741833	0,5	-0,127350
16,750167	0,5	-0,085050
16,758500	0,5	0,011900
16,766833	0,5	0,121400
16,775167	0,5	0,202550
16,783500	0,5	0,265650
16,791833	0,5	0,284150
16,800167	0,5	0,288200
16,808500	0,5	0,280400
16,816833	0,5	0,265000
16,825167	0,5	0,222500
16,833500	0,5	0,165150
16,841833	0,5	0,104600
16,850167	0,5	0,039550
16,858500	0,5	-0,050400
16,866833	0,5	-0,090750
16,875167	0,5	-0,126250
16,883500	0,5	-0,152450
16,891833	0,5	-0,178200
16,900167	0,5	-0,217800
16,908500	0,5	-0,211250
16,916833	0,5	-0,216050
16,925167	0,5	-0,218500
16,933500	0,5	-0,234950
16,941833	0,5	-0,249000
16,950167	0,5	-0,270000
16,958500	0,5	-0,277400
16,966833	0,5	-0,292150
16,975167	0,5	-0,310500
16,983500	0,5	-0,332200
16,991833	0,5	-0,333750
17,000167	0,5	-0,346350
17,008500	0,5	-0,350600
17,016833	0,5	-0,334600
17,025167	0,5	-0,317150
17,033500	0,5	-0,267950
17,041833	0,5	-0,222700
17,050167	0,5	-0,131050
17,058500	0,5	-0,005950
17,066833	0,5	0,130600
17,075167	0,5	0,237950
17,083500	0,5	0,342500
17,091833	0,5	0,432550
17,100167	0,5	0,524900
17,108500	0,5	0,621650
17,116833	0,5	0,731800
17,125167	0,5	0,837900
17,133500	0,5	0,968250
17,141833	0,5	1,108200
17,150167	0,5	1,248000
17,158500	0,5	1,409850
17,166833	0,5	1,571800
17,175167	0,5	1,702800
17,183500	0,5	1,812850
17,191833	0,5	1,894000
17,200167	0,5	1,960900
17,208500	0,5	2,029000
17,216833	0,5	2,048800
17,225167	0,5	2,045050
17,233500	0,5	1,985750
17,241833	0,5	1,874300
17,250167	0,5	1,715950
17,258500	0,5	1,539500
17,266833	0,5	1,338700
17,275167	0,5	1,147400
17,283500	0,5	0,982950
17,291833	0,5	0,841200
17,300167	0,5	0,732300
17,308500	0,5	0,680950
17,316833	0,5	0,679400
17,325167	0,5	0,701750
17,333500	0,5	0,725950
17,341833	0,5	0,750950
17,350167	0,5	0,770750
17,358500	0,5	0,776050
17,366833	0,5	0,759150
17,375167	0,5	0,706450
17,383500	0,5	0,640900
17,391833	0,5	0,549800
17,400167	0,5	0,469200
17,408500	0,5	0,402100
17,416833	0,5	0,356150
17,425167	0,5	0,337700
17,433500	0,5	0,351950
17,441833	0,5	0,347600
17,450167	0,5	0,371400
17,458500	0,5	0,404150
17,466833	0,5	0,435050
17,475167	0,5	0,445350
17,483500	0,5	0,439750
17,491833	0,5	0,445450
17,500167	0,5	0,447750
17,508500	0,5	0,424850
17,516833	0,5	0,403400
17,525167	0,5	0,363850
17,533500	0,5	0,311250
17,541833	0,5	0,252000
17,550167	0,5	0,203100
17,558500	0,5	0,174800
17,566833	0,5	0,167150
17,575167	0,5	0,185350
17,583500	0,5	0,205750
17,591833	0,5	0,200900
17,600167	0,5	0,208950
17,608500	0,5	0,202200
17,616833	0,5	0,165950
17,625167	0,5	0,113250
17,633500	0,5	0,027350
17,641833	0,5	-0,036200
17,650167	0,5	-0,095000
17,658500	0,5	-0,146950
17,666833	0,5	-0,192250
17,675167	0,5	-0,221150
17,683500	0,5	-0,248500
17,691833	0,5	-0,272550
17,700167	0,5	-0,293750
17,708500	0,5	-0,317500
17,716833	0,5	-0,345400
17,725167	0,5	-0,364750
17,733500	0,5	-0,372700
17,741833	0,5	-0,416300
17,750167	0,5	-0,405850
17,758500	0,5	-0,421550
17,766833	0,5	-0,424600
17,775167	0,5	-0,430450
17,783500	0,5	-0,427300
17,791833	0,5	-0,381300
17,800167	0,5	-0,320800
17,808500	0,5	-0,264050
17,816833	0,5	-0,210850
17,825167	0,5	-0,172150
17,833500	0,5	-0,155550
17,841833	0,5	-0,156100
17,850167	0,5	-0,182000
17,858500	0,5	-0,236300
17,866833	0,5	-0,291100
17,875167	0,5	-0,309350
17,883500	0,5	-0,358950
17,891833	0,5	-0,388550
17,900167	0,5	-0,418800
17,908500	0,5	-0,438500
17,916833	0,5	-0,472750
17,925167	0,5	-0,507500
17,933500	0,5	-0,546200
17,941833	0,5	-0,544600
17,950167	0,5	-0,559300
17,958500	0,5	-0,565550
17,966833	0,5	-0,564750
17,975167	0,5	-0,554000
17,983500	0,5	-0,545600
17,991833	0,5	-0,513800
18,000167	0,5	-0,470600
18,008500	0,5	-0,416850
18,016833	0,5	-0,361500
18,025167	0,5	-0,310250
18,033500	0,5	-0,304750
18,041833	0,5	-0,305100
18,050167	0,5	-0,324800
18,058500	0,5	-0,369650
18,066833	0,5	-0,419450
18,075167	0,5	-0,478150
18,083500	0,5	-0,499400
18,091833	0,5	-0,517100
18,100167	0,5	-0,527900
18,108500	0,5	-0,547950
18,116833	0,5	-0,549250
18,125167	0,5	-0,569900
18,133500	0,5	-0,571050
18,141833	0,5	-0,579350
18,150167	0,5	-0,574650
18,158500	0,5	-0,583400
18,166833	0,5	-0,568550
18,175167	0,5	-0,543600
18,183500	0,5	-0,515700
18,191833	0,5	-0,450300
18,200167	0,5	-0,409900
18,208500	0,5	-0,364500
18,216833	0,5	-0,359450
18,225167	0,5	-0,365050
18,233500	0,5	-0,378000
18,241833	0,5	-0,390750
18,250167	0,5	-0,426350
18,258500	0,5	-0,445250
18,266833	0,5	-0,482600
18,275167	0,5	-0,497900
18,283500	0,5	-0,509100
18,291833	0,5	-0,516450
18,300167	0,5	-0,522900
18,308500	0,5	-0,534250
18,316833	0,5	-0,536800
18,325167	0,5	-0,553500
18,333500	0,5	-0,547000
18,341833	0,5	-0,529550
18,350167	0,5	-0,516150
18,358500	0,5	-0,503250
18,366833	0,5	-0,506100
18,375167	0,5	-0,476350
18,383500	0,5	-0,436400
18,391833	0,5	-0,419700
18,400167	0,5	-0,407250
18,408500	0,5	-0,418450
18,416833	0,5	-0,437300
18,425167	0,5	-0,465450
18,433500	0,5	-0,483000
18,441833	0,5	-0,507250
18,450167	0,5	-0,521800
18,458500	0,5	-0,522950
18,466833	0,5	-0,531300
18,475167	0,5	-0,558900
18,483500	0,5	-0,549450
18,491833	0,5	-0,546250
18,500167	0,5	-0,557650
18,508500	0,5	-0,567950
18,516833	0,5	-0,583850
18,525167	0,5	-0,574100
18,533500	0,5	-0,560650
18,541833	0,5	-0,543200
18,550167	0,5	-0,534250
18,558500	0,5	-0,519600
18,566833	0,5	-0,532750
18,575167	0,5	-0,539850
18,583500	0,5	-0,561950
18,591833	0,5	-0,585350
18,600167	0,5	-0,612750
18,608500	0,5	-0,621400
18,616833	0,5	-0,652500
18,625167	0,5	-0,662800
18,633500	0,5	-0,669000
18,641833	0,5	-0,664150
18,650167	0,5	-0,689750
18,658500	0,5	-0,720750
18,666833	0,5	-0,728700
18,675167	0,5	-0,726050
18,683500	0,5	-0,697300
18,691833	0,5	-0,675000
18,700167	0,5	-0,650650
18,708500	0,5	-0,640000
18,716833	0,5	-0,633950
18,725167	0,5	-0,650600
18,733500	0,5	-0,659500
18,741833	0,5	-0,682850
18,750167	0,5	-0,685350
18,758500	0,5	-0,680250
18,766833	0,5	-0,692550
18,775167	0,5	-0,686550
18,783500	0,5	-0,677950
18,791833	0,5	-0,671500
18,800167	0,5	-0,658300
18,808500	0,5	-0,666800
18,816833	0,5	-0,638600
18,825167	0,5	-0,615550
18,833500	0,5	-0,613400
18,841833	0,5	-0,626100
18,850167	0,5	-0,644400
18,858500	0,5	-0,672300
18,866833	0,5	-0,713300
18,875167	0,5	-0,754400
18,883500	0,5	-0,800550
18,891833	0,5	-0,820550
18,900167	0,5	-0,833100
18,908500	0,5	-0,837350
18,916833	0,5	-0,848450
18,925167	0,5	-0,829850
18,933500	0,5	-0,825800
18,941833	0,5	-0,825350
18,950167	0,5	-0,830800
18,958500	0,5	-0,856950
18,966833	0,5	-0,845550
18,975167	0,5	-0,866150
18,983500	0,5	-0,897500
18,991833	0,5	-0,914300
19,000167	0,5	-0,933900
19,008500	0,5	-0,957900
19,016833	0,5	-0,962600
19,025167	0,5	-0,967650
19,033500	0,5	-0,973850
19,041833	0,5	-0,975300
19,050167	0,5	-0,948000
19,058500	0,5	-0,948750
19,066833	0,5	-0,950450
19,075167	0,5	-0,949000
19,083500	0,5	-0,954500
19,091833	0,5	-0,975500
19,100167	0,5	-0,996550
19,108500	0,5	-1,016300
19,116833	0,5	-1,007950
19,125167	0,5	-1,014950
19,133500	0,5	-1,019950
19,141833	0,5	-1,023600
19,150167	0,5	-1,023650
19,158500	0,5	-1,028500
19,166833	0,5	-1,036650
19,175167	0,5	-1,044900
19,183500	0,5	-1,067600
19,191833	0,5	-1,062800
19,200167	0,5	-1,070750
19,208500	0,5	-1,098350
19,216833	0,5	-1,104300
19,225167	0,5	-1,122300
19,233500	0,5	-1,131300
19,241833	0,5	-1,151900
19,250167	0,5	-1,177250
19,258500	0,5	-1,184050
19,266833	0,5	-1,185200
19,275167	0,5	-1,184400
19,283500	0,5	-1,210450
19,291833	0,5	-1,205800
19,300167	0,5	-1,224700
19,308500	0,5	-1,229050
19,316833	0,5	-1,234050
19,325167	0,5	-1,241250
19,333500	0,5	-1,239400
19,341833	0,5	-1,235050
19,350167	0,5	-1,239000
19,358500	0,5	-1,254850
19,366833	0,5	-1,257350
19,375167	0,5	-1,274750
19,383500	0,5	-1,292600
19,391833	0,5	-1,331100
19,400167	0,5	-1,349750
19,408500	0,5	-1,358450
19,416833	0,5	-1,352850
19,425167	0,5	-1,366650
19,433500	0,5	-1,373950
19,441833	0,5	-1,378300
19,450167	0,5	-1,378100
19,458500	0,5	-1,387100
19,466833	0,5	-1,390850
19,475167	0,5	-1,408150
19,483500	0,5	-1,411450
19,491833	0,5	-1,403750
19,500167	0,5	-1,424000
19,508500	0,5	-1,417250
19,516833	0,5	-1,413050
19,525167	0,5	-1,417250
19,533500	0,5	-1,429750
19,541833	0,5	-1,476900
19,550167	0,5	-1,493650
19,558500	0,5	-1,485950
19,566833	0,5	-1,504850
19,575167	0,5	-1,499450
19,583500	0,5	-1,514800
19,591833	0,5	-1,528850
19,600167	0,5	-1,535750
19,608500	0,5	-1,538700
19,616833	0,5	-1,545250
19,625167	0,5	-1,566050
19,633500	0,5	-1,559800
19,641833	0,5	-1,561150
19,650167	0,5	-1,588700
19,658500	0,5	-1,581600
19,666833	0,5	-1,577650
19,675167	0,5	-1,593800
19,683500	0,5	-1,604350
19,691833	0,5	-1,644400
19,700167	0,5	-1,625300
19,708500	0,5	-1,628100
19,716833	0,5	-1,630000
19,725167	0,5	-1,640850
19,733500	0,5	-1,641300
19,741833	0,5	-1,655850
19,750167	0,5	-1,663400
19,758500	0,5	-1,680300
19,766833	0,5	-1,688300
19,775167	0,5	-1,691000
19,783500	0,5	-1,694150
19,791833	0,5	-1,731550
19,800167	0,5	-1,741550
19,808500	0,5	-1,744900
19,816833	0,5	-1,753250
19,825167	0,5	-1,766550
19,833500	0,5	-1,803750
19,841833	0,5	-1,821050
19,850167	0,5	-1,819900
19,858500	0,5	-1,821100
19,866833	0,5	-1,844150
19,875167	0,5	-1,845050
19,883500	0,5	-1,855050
19,891833	0,5	-1,869650
19,900167	0,5	-1,876600
19,908500	0,5	-1,879650
19,916833	0,5	-1,886550
19,925167	0,5	-1,900900
19,933500	0,5	-1,896550
19,941833	0,5	-1,925300
19,950167	0,5	-1,914450
19,958500	0,5	-1,923350
19,966833	0,5	-1,926000
19,975167	0,5	-1,937300
19,983500	0,5	-1,970300
19,991833	0,5	-1,983050
20,000167	0,5	-1,975100
20,008500	0,5	-1,989500
20,016833	0,5	-1,991800
20,025167	0,5	-2,012050
20,033500	0,5	-2,030450
20,041833	0,5	-2,054550
20,050167	0,5	-2,056600
20,058500	0,5	-2,081650
20,066833	0,5	-2,106700
20,075167	0,5	-2,111150
20,083500	0,5	-2,114350
20,091833	0,5	-2,141450
20,100167	0,5	-2,152100
20,108500	0,5	-2,165850
20,116833	0,5	-2,184900
20,125167	0,5	-2,222600
20,133500	0,5	-2,254250
20,141833	0,5	-2,250050
20,150167	0,5	-2,265750
20,158500	0,5	-2,278700
20,166833	0,5	-2,285050
20,175167	0,5	-2,287350
20,183500	0,5	-2,304850
20,191833	0,5	-2,299150
20,200167	0,5	-2,319050
20,208500	0,5	-2,322450
20,216833	0,5	-2,330650
20,225167	0,5	-2,319950
20,233500	0,5	-2,334900
20,241833	0,5	-2,349900
20,250167	0,5	-2,345750
20,258500	0,5	-2,367100
20,266833	0,5	-2,384050
20,275167	0,5	-2,430700
20,283500	0,5	-2,452500
20,291833	0,5	-2,462400
20,300167	0,5	-2,480700
20,308500	0,5	-2,493550
20,316833	0,5	-2,497850
20,325167	0,5	-2,517150
20,333500	0,5	-2,525300
20,341833	0,5	-2,544000
20,350167	0,5	-2,561800
20,358500	0,5	-2,597250
20,366833	0,5	-2,601350
20,375167	0,5	-2,615700
20,383500	0,5	-2,642900
20,391833	0,5	-2,666300
20,400167	0,5	-2,692200
20,408500	0,5	-2,720150
20,416833	0,5	-2,764000
20,425167	0,5	-2,799150
20,433500	0,5	-2,823000
20,441833	0,5	-2,838250
20,450167	0,5	-2,861800
20,458500	0,5	-2,875050
20,466833	0,5	-2,884450
20,475167	0,5	-2,911350
20,483500	0,5	-2,926150
20,491833	0,5	-2,944250
20,500167	0,5	-2,973000
20,508500	0,5	-2,996200
20,516833	0,5	-2,992750
20,525167	0,5	-3,010850
20,533500	0,5	-3,035150
20,541833	0,5	-3,028350
20,550167	0,5	-3,022100
20,558500	0,5	-3,018600
20,566833	0,5	-3,046400
20,575167	0,5	-3,076300
20,583500	0,5	-3,099650
20,591833	0,5	-3,138300
20,600167	0,5	-3,193550
20,608500	0,5	-3,251200
20,616833	0,5	-3,280350
20,625167	0,5	-3,328350
20,633500	0,5	-3,359300
20,641833	0,5	-3,403650
20,650167	0,5	-3,430500
20,658500	0,5	-3,448500
20,666833	0,5	-3,468300
20,675167	0,5	-3,505600
20,683500	0,5	-3,537250
20,691833	0,5	-3,561150
20,700167	0,5	-3,586050
20,708500	0,5	-3,638650
20,716833	0,5	-3,663400
20,725167	0,5	-3,636000
20,733500	0,5	-3,619700
20,741833	0,5	-3,605200
20,750167	0,5	-3,621500
20,758500	0,5	-3,643300
20,766833	0,5	-3,702750
20,775167	0,5	-3,772150
20,783500	0,5	-3,837600
20,791833	0,5	-3,911800
20,800167	0,5	-3,984550
20,808500	0,5	-4,007700
20,816833	0,5	-4,061450
20,825167	0,5	-4,115600
20,833500	0,5	-4,164100
20,841833	0,5	-4,202500
20,850167	0,5	-4,267300
20,858500	0,5	-4,334800
20,866833	0,5	-4,378200
20,875167	0,5	-4,405900
20,883500	0,5	-4,439450
20,891833	0,5	-4,473900
20,900167	0,5	-4,494600
20,908500	0,5	-4,533100
20,916833	0,5	-4,563500
20,925167	0,5	-4,601300
20,933500	0,5	-4,637850
20,941833	0,5	-4,698750
20,950167	0,5	-4,726550
20,958500	0,5	-4,751000
20,966833	0,5	-4,788100
20,975167	0,5	-4,831100
20,983500	0,5	-4,873950
20,991833	0,5	-4,915650
21,000167	0,5	-4,963850
21,008500	0,5	-5,033200
21,016833	0,5	-5,078400
21,025167	0,5	-5,101600
21,033500	0,5	-5,134400
21,041833	0,5	-5,158650
21,050167	0,5	-5,183150
21,058500	0,5	-5,220450
21,066833	0,5	-5,253950
21,075167	0,5	-5,273350
21,083500	0,5	-5,308850
21,091833	0,5	-5,333900
21,100167	0,5	-5,332200
21,108500	0,5	-5,338850
21,116833	0,5	-5,381100
21,125167	0,5	-5,417100
21,133500	0,5	-5,454850
21,141833	0,5	-5,487600
21,150167	0,5	-5,546050
21,158500	0,5	-5,593000
21,166833	0,5	-5,610150
21,175167	0,5	-5,628550
21,183500	0,5	-5,658300
21,191833	0,5	-5,681500
21,200167	0,5	-5,695400
21,208500	0,5	-5,720300
21,216833	0,5	-5,736100
21,225167	0,5	-5,768100
21,233500	0,5	-5,774450
21,241833	0,5	-5,787450
21,250167	0,5	-5,774900
21,258500	0,5	-5,775500
21,266833	0,5	-5,797050
21,275167	0,5	-5,812800
21,283500	0,5	-5,827300
21,291833	0,5	-5,851350
21,300167	0,5	-5,867100
21,308500	0,5	-5,887400
21,316833	0,5	-5,895950
21,325167	0,5	-5,929900
21,333500	0,5	-5,958300
21,341833	0,5	-5,976750
21,350167	0,5	-5,997450
21,358500	0,5	-6,030900
21,366833	0,5	-6,049150
21,375167	0,5	-6,067350
21,383500	0,5	-6,097850
21,391833	0,5	-6,080250
21,400167	0,5	-6,082500
21,408500	0,5	-6,093100
21,416833	0,5	-6,115400
21,425167	0,5	-6,138150
21,433500	0,5	-6,175450
21,441833	0,5	-6,212250
21,450167	0,5	-6,247150
21,458500	0,5	-6,259600
21,466833	0,5	-6,269100
21,475167	0,5	-6,287450
21,483500	0,5	-6,305500
21,491833	0,5	-6,320750
21,500167	0,5	-6,338200
21,508500	0,5	-6,365650
21,516833	0,5	-6,372300
21,525167	0,5	-6,401550
21,533500	0,5	-6,405250
21,541833	0,5	-6,392250
21,550167	0,5	-6,402550
21,558500	0,5	-6,424750
21,566833	0,5	-6,438500
21,575167	0,5	-6,476700
21,583500	0,5	-6,497800
21,591833	0,5	-6,545950
21,600167	0,5	-6,559400
21,608500	0,5	-6,568700
21,616833	0,5	-6,571250
21,625167	0,5	-6,587450
21,633500	0,5	-6,607400
21,641833	0,5	-6,609600
21,650167	0,5	-6,609050
21,658500	0,5	-6,607450
21,666833	0,5	-6,606050
21,675167	0,5	-6,603350
21,683500	0,5	-6,577100
21,691833	0,5	-6,571100
21,700167	0,5	-6,605550
21,708500	0,5	-6,625750
21,716833	0,5	-6,659300
21,725167	0,5	-6,691350
21,733500	0,5	-6,750050
21,741833	0,5	-6,770450
21,750167	0,5	-6,762200
21,758500	0,5	-6,786450
21,766833	0,5	-6,803850
21,775167	0,5	-6,810600
21,783500	0,5	-6,818750
21,791833	0,5	-6,830950
21,800167	0,5	-6,837100
21,808500	0,5	-6,845600
21,816833	0,5	-6,850850
21,825167	0,5	-6,848000
21,833500	0,5	-6,817750
21,841833	0,5	-6,833100
21,850167	0,5	-6,820750
21,858500	0,5	-6,820550
21,866833	0,5	-6,819600
21,875167	0,5	-6,839700
21,883500	0,5	-6,862150
21,891833	0,5	-6,841100
21,900167	0,5	-6,823700
21,908500	0,5	-6,816050
21,916833	0,5	-6,814000
21,925167	0,5	-6,791550
21,933500	0,5	-6,747650
21,941833	0,5	-6,697350
21,950167	0,5	-6,645950
21,958500	0,5	-6,622850
21,966833	0,5	-6,647350
21,975167	0,5	-6,658450
21,983500	0,5	-6,694100
21,991833	0,5	-6,744200
22,000167	0,5	-6,777150
22,008500	0,5	-6,806950
22,016833	0,5	-6,849100
22,025167	0,5	-6,895050
22,033500	0,5	-6,946500
22,041833	0,5	-6,970250
22,050167	0,5	-6,988450
22,058500	0,5	-7,016200
22,066833	0,5	-7,033900
22,075167	0,5	-7,061350
22,083500	0,5	-7,082800
22,091833	0,5	-7,106850
22,100167	0,5	-7,126050
22,108500	0,5	-7,157900
22,116833	0,5	-7,180950
22,125167	0,5	-7,197200
22,133500	0,5	-7,227100
22,141833	0,5	-7,251350
22,150167	0,5	-7,256650
22,158500	0,5	-7,279550
22,166833	0,5	-7,299650
22,175167	0,5	-7,331050
22,183500	0,5	-7,349550
22,191833	0,5	-7,353950
22,200167	0,5	-7,359950
22,208500	0,5	-7,376300
22,216833	0,5	-7,382100
22,225167	0,5	-7,395750
22,233500	0,5	-7,400750
22,241833	0,5	-7,397450
22,250167	0,5	-7,415800
22,258500	0,5	-7,416700
22,266833	0,5	-7,433400
22,275167	0,5	-7,427500
22,283500	0,5	-7,433550
22,291833	0,5	-7,405150
22,300167	0,5	-7,403600
22,308500	0,5	-7,390900
22,316833	0,5	-7,399150
22,325167	0,5	-7,400050
22,333500	0,5	-7,378500
22,341833	0,5	-7,364000
22,350167	0,5	-7,343600
22,358500	0,5	-7,300700
22,366833	0,5	-7,224750
22,375167	0,5	-7,144600
22,383500	0,5	-7,079950
22,391833	0,5	-7,056200
22,400167	0,5	-7,090850
22,408500	0,5	-7,150300
22,416833	0,5	-7,227750
22,425167	0,5	-7,275800
22,433500	0,5	-7,279100
22,441833	0,5	-7,294300
22,450167	0,5	-7,317450
22,458500	0,5	-7,348200
22,466833	0,5	-7,377800
22,475167	0,5	-7,385450
22,483500	0,5	-7,382950
22,491833	0,5	-7,383300
22,500167	0,5	-7,376100
22,508500	0,5	-7,366050
22,516833	0,5	-7,362100
22,525167	0,5	-7,357750
22,533500	0,5	-7,341350
22,541833	0,5	-7,333550
22,550167	0,5	-7,327000
22,558500	0,5	-7,322850
22,566833	0,5	-7,308700
22,575167	0,5	-7,253850
22,583500	0,5	-7,214150
22,591833	0,5	-7,175800
22,600167	0,5	-7,164650
22,608500	0,5	-7,157850
22,616833	0,5	-7,146150
22,625167	0,5	-7,132400
22,633500	0,5	-7,115400
22,641833	0,5	-7,109200
22,650167	0,5	-7,093450
22,658500	0,5	-7,091200
22,666833	0,5	-7,077850
22,675167	0,5	-7,072650
22,683500	0,5	-7,062200
22,691833	0,5	-7,060950
22,700167	0,5	-7,068050
22,708500	0,5	-7,122500
22,716833	0,5	-7,110600
22,725167	0,5	-7,070500
22,733500	0,5	-7,050000
22,741833	0,5	-7,061450
22,750167	0,5	-7,073950
22,758500	0,5	-7,101950
22,766833	0,5	-7,106600
22,775167	0,5	-7,093700
22,783500	0,5	-7,096700
22,791833	0,5	-7,107800
22,800167	0,5	-7,104450
22,808500	0,5	-7,115900
22,816833	0,5	-7,131950
22,825167	0,5	-7,146850
22,833500	0,5	-7,157550
22,841833	0,5	-7,190000
22,850167	0,5	-7,288100
22,858500	0,5	-7,306400
22,866833	0,5	-7,332900
22,875167	0,5	-7,328700
22,883500	0,5	-7,372100
22,891833	0,5	-7,406300
22,900167	0,5	-7,435600
22,908500	0,5	-7,472850
22,916833	0,5	-7,519050
22,925167	0,5	-7,555600
22,933500	0,5	-7,583800
22,941833	0,5	-7,604000
22,950167	0,5	-7,637300
22,958500	0,5	-7,644700
22,966833	0,5	-7,669500
22,975167	0,5	-7,669950
22,983500	0,5	-7,674750
22,991833	0,5	-7,661850
23,000167	0,5	-7,668100
23,008500	0,5	-7,664450
23,016833	0,5	-7,649100
23,025167	0,5	-7,665650
23,033500	0,5	-7,670100
23,041833	0,5	-7,631350
23,050167	0,5	-7,616150
23,058500	0,5	-7,599400
23,066833	0,5	-7,588350
23,075167	0,5	-7,569350
23,083500	0,5	-7,522100
23,091833	0,5	-7,485900
23,100167	0,5	-7,434550
23,108500	0,5	-7,378400
23,116833	0,5	-7,312100
23,125167	0,5	-7,261300
23,133500	0,5	-7,172050
23,141833	0,5	-7,057350
23,150167	0,5	-7,002400
23,158500	0,5	-6,921950
23,166833	0,5	-6,882900
23,175167	0,5	-6,836600
23,183500	0,5	-6,763500
23,191833	0,5	-6,673450
23,200167	0,5	-6,582250
23,208500	0,5	-6,520650
23,216833	0,5	-6,462950
23,225167	0,5	-6,388450
23,233500	0,5	-6,301450
23,241833	0,5	-6,224450
23,250167	0,5	-6,119900
23,258500	0,5	-6,043550
23,266833	0,5	-5,957800
23,275167	0,5	-5,852850
23,283500	0,5	-5,765450
23,291833	0,5	-5,658850
23,300167	0,5	-5,545750
23,308500	0,5	-5,441450
23,316833	0,5	-5,402900
23,325167	0,5	-5,314850
23,333500	0,5	-5,244900
23,341833	0,5	-5,145450
23,350167	0,5	-5,061000
23,358500	0,5	-4,996750
23,366833	0,5	-4,935150
23,375167	0,5	-4,856100
23,383500	0,5	-4,786200
23,391833	0,5	-4,708750
23,400167	0,5	-4,629800
23,408500	0,5	-4,560950
23,416833	0,5	-4,489750
23,425167	0,5	-4,402500
23,433500	0,5	-4,307450
23,441833	0,5	-4,304250
23,450167	0,5	-4,185250
23,458500	0,5	-4,074000
23,466833	0,5	-4,023600
23,475167	0,5	-3,969050
23,483500	0,5	-3,902250
23,491833	0,5	-3,831350
23,500167	0,5	-3,774050
23,508500	0,5	-3,739350
23,516833	0,5	-3,684050
23,525167	0,5	-3,636500
23,533500	0,5	-3,588650
23,541833	0,5	-3,544500
23,550167	0,5	-3,483100
23,558500	0,5	-3,446700
23,566833	0,5	-3,405100
23,575167	0,5	-3,354850
23,583500	0,5	-3,368100
23,591833	0,5	-3,365900
23,600167	0,5	-3,271600
23,608500	0,5	-3,194000
23,616833	0,5	-3,149900
23,625167	0,5	-3,107050
23,633500	0,5	-3,068900
23,641833	0,5	-3,029900
23,650167	0,5	-3,003350
23,658500	0,5	-2,970950
23,666833	0,5	-2,941800
23,675167	0,5	-2,914400
23,683500	0,5	-2,883300
23,691833	0,5	-2,849000
23,700167	0,5	-2,820500
23,708500	0,5	-2,791250
23,716833	0,5	-2,764250
23,725167	0,5	-2,730400
23,733500	0,5	-2,871350
23,741833	0,5	-2,834750
23,750167	0,5	-2,764350
23,758500	0,5	-2,691250
23,766833	0,5	-2,649250
23,775167	0,5	-2,616600
23,783500	0,5	-2,592600
23,791833	0,5	-2,579150
23,800167	0,5	-2,556800
23,808500	0,5	-2,531950
23,816833	0,5	-2,512400
23,825167	0,5	-2,484450
23,833500	0,5	-2,463250
23,841833	0,5	-2,437200
23,850167	0,5	-2,411800
23,858500	0,5	-2,380450
23,866833	0,5	-2,358050
23,875167	0,5	-2,387700
23,883500	0,5	-2,484350
23,891833	0,5	-2,440950
23,900167	0,5	-2,350900
23,908500	0,5	-2,293950
23,916833	0,5	-2,255600
23,925167	0,5	-2,226350
23,933500	0,5	-2,220600
23,941833	0,5	-2,196450
23,950167	0,5	-2,172000
23,958500	0,5	-2,149300
23,966833	0,5	-2,128000
23,975167	0,5	-2,111200
23,983500	0,5	-2,084550
23,991833	0,5	-2,068050
24,000167	0,5	-2,038550
24,008500	0,5	-2,015700
24,016833	0,5	-1,994300
24,025167	0,5	-2,147950
24,033500	0,5	-2,121500
24,041833	0,5	-2,100250
24,050167	0,5	-2,010700
24,058500	0,5	-1,968750
24,066833	0,5	-1,922550
24,075167	0,5	-1,895950
24,083500	0,5	-1,893750
24,091833	0,5	-1,860600
24,100167	0,5	-1,826800
24,108500	0,5	-1,803700
24,116833	0,5	-1,777600
24,125167	0,5	-1,748550
24,133500	0,5	-1,722650
24,141833	0,5	-1,693900
24,150167	0,5	-1,673250
24,158500	0,5	-1,648000
24,166833	0,5	-1,652100
24,175167	0,5	-1,776700
24,183500	0,5	-1,744000
24,191833	0,5	-1,699200
24,200167	0,5	-1,634300
24,208500	0,5	-1,594050
24,216833	0,5	-1,565900
24,225167	0,5	-1,556250
24,233500	0,5	-1,560250
24,241833	0,5	-1,523350
24,250167	0,5	-1,499750
24,258500	0,5	-1,479300
24,266833	0,5	-1,452850
24,275167	0,5	-1,427750
24,283500	0,5	-1,404100
24,291833	0,5	-1,375950
24,300167	0,5	-1,349950
24,308500	0,5	-1,329800
24,316833	0,5	-1,378400
24,325167	0,5	-1,428050
24,333500	0,5	-1,385650
24,341833	0,5	-1,332950
24,350167	0,5	-1,280850
24,358500	0,5	-1,256150
24,366833	0,5	-1,232150
24,375167	0,5	-1,227000
24,383500	0,5	-1,218200
24,391833	0,5	-1,199250
24,400167	0,5	-1,173350
24,408500	0,5	-1,164200
24,416833	0,5	-1,139600
24,425167	0,5	-1,126850
24,433500	0,5	-1,106800
24,441833	0,5	-1,088200
24,450167	0,5	-1,068600
24,458500	0,5	-1,058300
24,466833	0,5	-1,155800
24,475167	0,5	-1,130400
24,483500	0,5	-1,098650
24,491833	0,5	-1,056650
24,500167	0,5	-1,021800
24,508500	0,5	-0,993900
24,516833	0,5	-0,993800
24,525167	0,5	-0,980650
24,533500	0,5	-0,977000
24,541833	0,5	-0,950200
24,550167	0,5	-0,939550
24,558500	0,5	-0,921950
24,566833	0,5	-0,903500
24,575167	0,5	-0,885200
24,583500	0,5	-0,877750
24,591833	0,5	-0,851400
24,600167	0,5	-0,842850
24,608500	0,5	-0,845100
24,616833	0,5	-0,899650
24,625167	0,5	-0,885800
24,633500	0,5	-0,856850
24,641833	0,5	-0,826050
24,650167	0,5	-0,808350
24,658500	0,5	-0,804200
24,666833	0,5	-0,801050
24,675167	0,5	-0,804650
24,683500	0,5	-0,785850
24,691833	0,5	-0,774750
24,700167	0,5	-0,762950
24,708500	0,5	-0,754950
24,716833	0,5	-0,742550
24,725167	0,5	-0,736250
24,733500	0,5	-0,717200
24,741833	0,5	-0,704300
24,750167	0,5	-0,689000
24,758500	0,5	-0,718150
24,766833	0,5	-0,728800
24,775167	0,5	-0,716300
24,783500	0,5	-0,688300
24,791833	0,5	-0,667650
24,800167	0,5	-0,650950
24,808500	0,5	-0,641100
24,816833	0,5	-0,648800
24,825167	0,5	-0,642600
24,833500	0,5	-0,638450
24,841833	0,5	-0,624600
24,850167	0,5	-0,627050
24,858500	0,5	-0,619000
24,866833	0,5	-0,619750
24,875167	0,5	-0,614000
24,883500	0,5	-0,605650
24,891833	0,5	-0,600350
24,900167	0,5	-0,593450
24,908500	0,5	-0,626850
24,916833	0,5	-0,617700
24,925167	0,5	-0,606700
24,933500	0,5	-0,587350
24,941833	0,5	-0,571900
24,950167	0,5	-0,561400
24,958500	0,5	-0,556600
24,966833	0,5	-0,559950
24,975167	0,5	-0,547500
24,983500	0,5	-0,540650
24,991833	0,5	-0,530750
25,000167	0,5	-0,523550
25,008500	0,5	-0,518250
25,016833	0,5	-0,513000
25,025167	0,5	-0,513000
25,033500	0,5	-0,505450
25,041833	0,5	-0,509150
25,050167	0,5	-0,509450
25,058500	0,5	-0,531500
25,066833	0,5	-0,523300
25,075167	0,5	-0,516750
25,083500	0,5	-0,511650
25,091833	0,5	-0,507200
25,100167	0,5	-0,505750
25,108500	0,5	-0,502000
25,116833	0,5	-0,502950
25,125167	0,5	-0,496700
25,133500	0,5	-0,491900
25,141833	0,5	-0,484700
25,150167	0,5	-0,480650
25,158500	0,5	-0,478850
25,166833	0,5	-0,478750
25,175167	0,5	-0,469650
25,183500	0,5	-0,464350
25,191833	0,5	-0,460550
25,200167	0,5	-0,467100
25,208500	0,5	-0,460600
25,216833	0,5	-0,462900
25,225167	0,5	-0,460350
25,233500	0,5	-0,455800
25,241833	0,5	-0,457000
25,250167	0,5	-0,458500
25,258500	0,5	-0,463400
25,266833	0,5	-0,460400
25,275167	0,5	-0,463500
25,283500	0,5	-0,460100
25,291833	0,5	-0,463200
25,300167	0,5	-0,462500
25,308500	0,5	-0,464700
25,316833	0,5	-0,459600
25,325167	0,5	-0,456500
25,333500	0,5	-0,448650
25,341833	0,5	-0,451100
25,350167	0,5	-0,445650
25,358500	0,5	-0,439500
25,366833	0,5	-0,434200
25,375167	0,5	-0,433200
25,383500	0,5	-0,434250
25,391833	0,5	-0,436100
25,400167	0,5	-0,429100
25,408500	0,5	-0,432950
25,416833	0,5	-0,430800
25,425167	0,5	-0,432900
25,433500	0,5	-0,435650
25,441833	0,5	-0,436000
25,450167	0,5	-0,441900
25,458500	0,5	-0,442150
25,466833	0,5	-0,443150
25,475167	0,5	-0,445300
25,483500	0,5	-0,444700
25,491833	0,5	-0,439050
25,500167	0,5	-0,431000
25,508500	0,5	-0,433250
25,516833	0,5	-0,430850
25,525167	0,5	-0,437400
25,533500	0,5	-0,433800
25,541833	0,5	-0,433150
25,550167	0,5	-0,428700
25,558500	0,5	-0,422900
25,566833	0,5	-0,421550
25,575167	0,5	-0,426150
25,583500	0,5	-0,426300
25,591833	0,5	-0,428750
25,600167	0,5	-0,429350
25,608500	0,5	-0,430500
25,616833	0,5	-0,432800
25,625167	0,5	-0,433850
25,633500	0,5	-0,435150
25,641833	0,5	-0,429200
25,650167	0,5	-0,424700
25,658500	0,5	-0,422500
25,666833	0,5	-0,429900
25,675167	0,5	-0,432850
25,683500	0,5	-0,436050
25,691833	0,5	-0,437700
25,700167	0,5	-0,431500
25,708500	0,5	-0,428000
25,716833	0,5	-0,432650
25,725167	0,5	-0,427450
25,733500	0,5	-0,429700
25,741833	0,5	-0,427450
25,750167	0,5	-0,429100
25,758500	0,5	-0,425050
25,766833	0,5	-0,429700
25,775167	0,5	-0,425400
25,783500	0,5	-0,423300
25,791833	0,5	-0,415400
25,800167	0,5	-0,412900
25,808500	0,5	-0,402000
25,816833	0,5	-0,416450
25,825167	0,5	-0,420100
25,833500	0,5	-0,420100
25,841833	0,5	-0,419100
25,850167	0,5	-0,412300
25,858500	0,5	-0,416450
25,866833	0,5	-0,409700
25,875167	0,5	-0,412050
25,883500	0,5	-0,411900
25,891833	0,5	-0,413750
25,900167	0,5	-0,413450
25,908500	0,5	-0,414650
25,916833	0,5	-0,408550
25,925167	0,5	-0,408600
25,933500	0,5	-0,401650
25,941833	0,5	-0,399250
25,950167	0,5	-0,390500
25,958500	0,5	-0,387100
25,966833	0,5	-0,388500
25,975167	0,5	-0,393650
25,983500	0,5	-0,389850
25,991833	0,5	-0,386500
26,000167	0,5	-0,376650
