File Path	chrom://chromeleon01/ikbm_chromeleon/2022/ICS-5000/ED1/Esteban/20220427_Cell_Amandas_mutants.seq/945.smp/ED_1.channel/ED_1.chm
Channel	ED_1

Injection Information:
Data Vault	ikbm_chromeleon
Injection	EG_BMCC_WT
Injection Number	20
Position	RB6
Comment	
Processing Method	Stop sequence after Cell Death
Instrument Method	ICS5000_PA200_FullNative_Ox_26min_ED1
Type	Unknown
Status	Finished
Injection Date	27.04.2022
Injection Time	21:57:48
Injection Volume (µl)	5,0
Dilution Factor	1,0000
Weight	1,0000

Chromatogram Data Information:
Time Min. (min)	0,000333
Time Max. (min)	26,000333
Data Points	3121
Detector	EDet1
Generating Data System	Chromeleon 7.2.9.11323
Exporting Data System	Chromeleon 7.2.9.0
Operator	Instrument Controller
Signal Quantity	
Signal Unit	nC
Signal Min.	-6,911100
Signal Max.	1 969,374129
Channel	ED_1
Driver Name	DC-5000
Channel Type	Evaluation
Min. Step (s)	0,5
Max. Step (s)	0,5
Average Step (s)	0,5

Signal Parameter Information:
Signal Info	

Chromatogram Data:
Time (min)	Step (s)	Value (nC)
0,000333	n.a.	-0,049400
0,008667	0,5	-0,090300
0,017000	0,5	-0,091900
0,025333	0,5	-0,077800
0,033667	0,5	-0,059500
0,042000	0,5	-0,041600
0,050333	0,5	-0,038650
0,058667	0,5	-0,018000
0,067000	0,5	-0,061500
0,075333	0,5	-0,051900
0,083667	0,5	-0,037400
0,092000	0,5	0,000800
0,100333	0,5	0,025800
0,108667	0,5	0,019900
0,117000	0,5	0,014650
0,125333	0,5	0,016150
0,133667	0,5	0,004800
0,142000	0,5	-0,000900
0,150333	0,5	0,003550
0,158667	0,5	-0,009250
0,167000	0,5	-0,008250
0,175333	0,5	-0,016600
0,183667	0,5	-0,010050
0,192000	0,5	-0,032600
0,200333	0,5	0,002700
0,208667	0,5	-0,016300
0,217000	0,5	-0,039950
0,225333	0,5	-0,034200
0,233667	0,5	-0,022650
0,242000	0,5	0,010050
0,250333	0,5	0,018750
0,258667	0,5	-0,002200
0,267000	0,5	-0,005800
0,275333	0,5	-0,012100
0,283667	0,5	-0,004000
0,292000	0,5	-0,005050
0,300333	0,5	0,019150
0,308667	0,5	0,062450
0,317000	0,5	0,034500
0,325333	0,5	-0,008200
0,333667	0,5	-0,036400
0,342000	0,5	-0,041700
0,350333	0,5	-0,025300
0,358667	0,5	-0,033200
0,367000	0,5	-0,053750
0,375333	0,5	-0,047950
0,383667	0,5	-0,036550
0,392000	0,5	0,009750
0,400333	0,5	-0,015600
0,408667	0,5	-0,015700
0,417000	0,5	-0,026150
0,425333	0,5	-0,026950
0,433667	0,5	-0,033650
0,442000	0,5	-0,029800
0,450333	0,5	-0,036700
0,458667	0,5	-0,053550
0,467000	0,5	-0,044100
0,475333	0,5	-0,045450
0,483667	0,5	-0,044600
0,492000	0,5	-0,018400
0,500333	0,5	-0,017400
0,508667	0,5	-0,054400
0,517000	0,5	-0,059150
0,525333	0,5	-0,055100
0,533667	0,5	-0,020000
0,542000	0,5	-0,011500
0,550333	0,5	-0,024050
0,558667	0,5	-0,039450
0,567000	0,5	-0,028950
0,575333	0,5	-0,047800
0,583667	0,5	-0,036100
0,592000	0,5	-0,029800
0,600333	0,5	-0,035500
0,608667	0,5	-0,043850
0,617000	0,5	-0,047050
0,625333	0,5	-0,041650
0,633667	0,5	-0,060550
0,642000	0,5	-0,038150
0,650333	0,5	-0,044350
0,658667	0,5	-0,064000
0,667000	0,5	-0,078100
0,675333	0,5	-0,062950
0,683667	0,5	-0,028000
0,692000	0,5	-0,009250
0,700333	0,5	-0,047100
0,708667	0,5	-0,048900
0,717000	0,5	-0,052600
0,725333	0,5	-0,048700
0,733667	0,5	-0,053450
0,742000	0,5	-0,053150
0,750333	0,5	-0,068800
0,758667	0,5	-0,065950
0,767000	0,5	-0,065200
0,775333	0,5	-0,067600
0,783667	0,5	-0,084400
0,792000	0,5	-0,043400
0,800333	0,5	-0,078200
0,808667	0,5	-0,083250
0,817000	0,5	-0,094550
0,825333	0,5	-0,073300
0,833667	0,5	-0,033050
0,842000	0,5	-0,049550
0,850333	0,5	-0,049750
0,858667	0,5	-0,061100
0,867000	0,5	-0,059650
0,875333	0,5	-0,069900
0,883667	0,5	-0,065950
0,892000	0,5	-0,068250
0,900333	0,5	-0,069800
0,908667	0,5	-0,084900
0,917000	0,5	-0,076400
0,925333	0,5	-0,093700
0,933667	0,5	-0,095600
0,942000	0,5	-0,089300
0,950333	0,5	-0,105550
0,958667	0,5	-0,108450
0,967000	0,5	-0,098500
0,975333	0,5	-0,076900
0,983667	0,5	-0,043500
0,992000	0,5	-0,037900
1,000333	0,5	-0,057750
1,008667	0,5	-0,062900
1,017000	0,5	-0,066950
1,025333	0,5	-0,073600
1,033667	0,5	-0,073500
1,042000	0,5	-0,071450
1,050333	0,5	-0,086550
1,058667	0,5	-0,078700
1,067000	0,5	-0,091450
1,075333	0,5	-0,095950
1,083667	0,5	-0,084700
1,092000	0,5	-0,072600
1,100333	0,5	-0,108800
1,108667	0,5	-0,105200
1,117000	0,5	-0,108050
1,125333	0,5	-0,073900
1,133667	0,5	-0,057800
1,142000	0,5	-0,063900
1,150333	0,5	-0,079050
1,158667	0,5	-0,069100
1,167000	0,5	-0,081250
1,175333	0,5	-0,078650
1,183667	0,5	-0,088150
1,192000	0,5	-0,093350
1,200333	0,5	-0,092000
1,208667	0,5	-0,096350
1,217000	0,5	-0,097750
1,225333	0,5	-0,107950
1,233667	0,5	-0,078050
1,242000	0,5	-0,101050
1,250333	0,5	-0,116850
1,258667	0,5	-0,116300
1,267000	0,5	-0,107000
1,275333	0,5	-0,076750
1,283667	0,5	-0,066350
1,292000	0,5	-0,079750
1,300333	0,5	-0,083250
1,308667	0,5	-0,097800
1,317000	0,5	-0,097950
1,325333	0,5	-0,099100
1,333667	0,5	-0,097200
1,342000	0,5	-0,106500
1,350333	0,5	-0,105050
1,358667	0,5	-0,103750
1,367000	0,5	-0,128000
1,375333	0,5	-0,119550
1,383667	0,5	-0,103400
1,392000	0,5	-0,114900
1,400333	0,5	-0,127950
1,408667	0,5	-0,121100
1,417000	0,5	-0,112200
1,425333	0,5	-0,074700
1,433667	0,5	-0,103900
1,442000	0,5	-0,094700
1,450333	0,5	-0,105200
1,458667	0,5	-0,101050
1,467000	0,5	-0,111800
1,475333	0,5	-0,107650
1,483667	0,5	-0,114550
1,492000	0,5	-0,113800
1,500333	0,5	-0,110100
1,508667	0,5	-0,113700
1,517000	0,5	-0,123300
1,525333	0,5	-0,100600
1,533667	0,5	-0,105050
1,542000	0,5	-0,123750
1,550333	0,5	-0,129300
1,558667	0,5	-0,126800
1,567000	0,5	-0,098600
1,575333	0,5	-0,147150
1,583667	0,5	-0,423850
1,592000	0,5	-1,109650
1,600333	0,5	-1,699850
1,608667	0,5	-0,983350
1,617000	0,5	1,462800
1,625333	0,5	4,999600
1,633667	0,5	10,115300
1,642000	0,5	17,009850
1,650333	0,5	23,240550
1,658667	0,5	25,732350
1,667000	0,5	24,507100
1,675333	0,5	21,855750
1,683667	0,5	19,184050
1,692000	0,5	16,821600
1,700333	0,5	14,792050
1,708667	0,5	13,280300
1,717000	0,5	12,782100
1,725333	0,5	14,354750
1,733667	0,5	19,035350
1,742000	0,5	24,897300
1,750333	0,5	27,095650
1,758667	0,5	24,073000
1,767000	0,5	18,963400
1,775333	0,5	14,665700
1,783667	0,5	11,893650
1,792000	0,5	10,614150
1,800333	0,5	10,593950
1,808667	0,5	11,343500
1,817000	0,5	11,899650
1,825333	0,5	11,792800
1,833667	0,5	11,082250
1,842000	0,5	10,234850
1,850333	0,5	9,366150
1,858667	0,5	8,556800
1,867000	0,5	7,846500
1,875333	0,5	7,178450
1,883667	0,5	6,602450
1,892000	0,5	6,127350
1,900333	0,5	5,708050
1,908667	0,5	5,331950
1,917000	0,5	5,009200
1,925333	0,5	4,737400
1,933667	0,5	4,489900
1,942000	0,5	4,274800
1,950333	0,5	4,109450
1,958667	0,5	3,978250
1,967000	0,5	3,946250
1,975333	0,5	3,936650
1,983667	0,5	3,893150
1,992000	0,5	3,958300
2,000333	0,5	4,508300
2,008667	0,5	6,785550
2,017000	0,5	13,552650
2,025333	0,5	29,211500
2,033667	0,5	62,153201
2,042000	0,5	135,486302
2,050333	0,5	291,843154
2,058667	0,5	525,425358
2,067000	0,5	704,226360
2,075333	0,5	711,497311
2,083667	0,5	584,561559
2,092000	0,5	432,028306
2,100333	0,5	316,395255
2,108667	0,5	240,741754
2,117000	0,5	190,644853
2,125333	0,5	155,442652
2,133667	0,5	129,508652
2,142000	0,5	109,921852
2,150333	0,5	94,868501
2,158667	0,5	83,127151
2,167000	0,5	73,654901
2,175333	0,5	65,903301
2,183667	0,5	59,709201
2,192000	0,5	54,766151
2,200333	0,5	50,383001
2,208667	0,5	46,330601
2,217000	0,5	42,740451
2,225333	0,5	39,760301
2,233667	0,5	37,325151
2,242000	0,5	35,295851
2,250333	0,5	33,594851
2,258667	0,5	32,175750
2,267000	0,5	31,033300
2,275333	0,5	30,001100
2,283667	0,5	29,062950
2,292000	0,5	28,213850
2,300333	0,5	27,471500
2,308667	0,5	26,840200
2,317000	0,5	26,271200
2,325333	0,5	25,730000
2,333667	0,5	25,256550
2,342000	0,5	24,810700
2,350333	0,5	24,422150
2,358667	0,5	24,063600
2,367000	0,5	23,755900
2,375333	0,5	23,465850
2,383667	0,5	23,230850
2,392000	0,5	23,026800
2,400333	0,5	22,819450
2,408667	0,5	22,648750
2,417000	0,5	22,514450
2,425333	0,5	22,376400
2,433667	0,5	22,318100
2,442000	0,5	22,392350
2,450333	0,5	22,685300
2,458667	0,5	23,244700
2,467000	0,5	23,969700
2,475333	0,5	24,663000
2,483667	0,5	24,824250
2,492000	0,5	24,373900
2,500333	0,5	23,758400
2,508667	0,5	23,367100
2,517000	0,5	23,098000
2,525333	0,5	22,876750
2,533667	0,5	22,652850
2,542000	0,5	22,436650
2,550333	0,5	22,207000
2,558667	0,5	22,045300
2,567000	0,5	21,888600
2,575333	0,5	21,785300
2,583667	0,5	21,780800
2,592000	0,5	21,976250
2,600333	0,5	22,452500
2,608667	0,5	23,261250
2,617000	0,5	24,391250
2,625333	0,5	25,644850
2,633667	0,5	26,679350
2,642000	0,5	27,195400
2,650333	0,5	27,160800
2,658667	0,5	26,743300
2,667000	0,5	26,232700
2,675333	0,5	25,981300
2,683667	0,5	26,847600
2,692000	0,5	31,595350
2,700333	0,5	45,549451
2,708667	0,5	70,803701
2,717000	0,5	105,223852
2,725333	0,5	150,257852
2,733667	0,5	220,606303
2,742000	0,5	384,179506
2,750333	0,5	751,986161
2,758667	0,5	1 225,451268
2,767000	0,5	1 557,244923
2,775333	0,5	1 855,608828
2,783667	0,5	1 961,232829
2,792000	0,5	1 969,374129
2,800333	0,5	1 920,028879
2,808667	0,5	1 835,050477
2,817000	0,5	1 724,880426
2,825333	0,5	1 597,064074
2,833667	0,5	1 457,648622
2,842000	0,5	1 313,200270
2,850333	0,5	1 170,913017
2,858667	0,5	1 034,511315
2,867000	0,5	901,380363
2,875333	0,5	778,270912
2,883667	0,5	673,366460
2,892000	0,5	592,519959
2,900333	0,5	537,850708
2,908667	0,5	503,356008
2,917000	0,5	484,530307
2,925333	0,5	474,032757
2,933667	0,5	464,525957
2,942000	0,5	450,509407
2,950333	0,5	429,101456
2,958667	0,5	400,275806
2,967000	0,5	366,192955
2,975333	0,5	329,995955
2,983667	0,5	294,598854
2,992000	0,5	261,861554
3,000333	0,5	232,781803
3,008667	0,5	207,332253
3,017000	0,5	185,085953
3,025333	0,5	165,693152
3,033667	0,5	148,789952
3,042000	0,5	134,059302
3,050333	0,5	121,239302
3,058667	0,5	110,001952
3,067000	0,5	100,214851
3,075333	0,5	91,626051
3,083667	0,5	84,059801
3,092000	0,5	77,316751
3,100333	0,5	71,285151
3,108667	0,5	65,811501
3,117000	0,5	60,856151
3,125333	0,5	56,382501
3,133667	0,5	52,309851
3,142000	0,5	48,624651
3,150333	0,5	45,309751
3,158667	0,5	42,270001
3,167000	0,5	39,482051
3,175333	0,5	36,944201
3,183667	0,5	34,603501
3,192000	0,5	32,484750
3,200333	0,5	30,506350
3,208667	0,5	28,673350
3,217000	0,5	26,971050
3,225333	0,5	25,421800
3,233667	0,5	23,996800
3,242000	0,5	22,710200
3,250333	0,5	21,553650
3,258667	0,5	20,527250
3,267000	0,5	19,637650
3,275333	0,5	18,879200
3,283667	0,5	18,239850
3,292000	0,5	17,764800
3,300333	0,5	17,505850
3,308667	0,5	17,506750
3,317000	0,5	17,988750
3,325333	0,5	19,173350
3,333667	0,5	21,205250
3,342000	0,5	23,990100
3,350333	0,5	27,083550
3,358667	0,5	29,815450
3,367000	0,5	31,572200
3,375333	0,5	31,987300
3,383667	0,5	31,103150
3,392000	0,5	29,190800
3,400333	0,5	26,641750
3,408667	0,5	23,799900
3,417000	0,5	20,998400
3,425333	0,5	18,435250
3,433667	0,5	16,205600
3,442000	0,5	14,356750
3,450333	0,5	12,852100
3,458667	0,5	11,616400
3,467000	0,5	10,621000
3,475333	0,5	9,821900
3,483667	0,5	9,183650
3,492000	0,5	8,666200
3,500333	0,5	8,228450
3,508667	0,5	7,885900
3,517000	0,5	7,602200
3,525333	0,5	7,370150
3,533667	0,5	7,164050
3,542000	0,5	6,990950
3,550333	0,5	6,806000
3,558667	0,5	6,639050
3,567000	0,5	6,469400
3,575333	0,5	6,320750
3,583667	0,5	6,158550
3,592000	0,5	6,031250
3,600333	0,5	5,883650
3,608667	0,5	5,744950
3,617000	0,5	5,609500
3,625333	0,5	5,510150
3,633667	0,5	5,433350
3,642000	0,5	5,353500
3,650333	0,5	5,270400
3,658667	0,5	5,198900
3,667000	0,5	5,134300
3,675333	0,5	5,064150
3,683667	0,5	4,994000
3,692000	0,5	4,906650
3,700333	0,5	4,813850
3,708667	0,5	4,709350
3,717000	0,5	4,597850
3,725333	0,5	4,462800
3,733667	0,5	4,326100
3,742000	0,5	4,217850
3,750333	0,5	4,073200
3,758667	0,5	3,939700
3,767000	0,5	3,813350
3,775333	0,5	3,693550
3,783667	0,5	3,603100
3,792000	0,5	3,480300
3,800333	0,5	3,354350
3,808667	0,5	3,248350
3,817000	0,5	3,151500
3,825333	0,5	3,045100
3,833667	0,5	2,959150
3,842000	0,5	2,865000
3,850333	0,5	2,773200
3,858667	0,5	2,692900
3,867000	0,5	2,614400
3,875333	0,5	2,549550
3,883667	0,5	2,467950
3,892000	0,5	2,418200
3,900333	0,5	2,328850
3,908667	0,5	2,275250
3,917000	0,5	2,215300
3,925333	0,5	2,184450
3,933667	0,5	2,152500
3,942000	0,5	2,113200
3,950333	0,5	2,069900
3,958667	0,5	2,051550
3,967000	0,5	2,038350
3,975333	0,5	2,045100
3,983667	0,5	2,062550
3,992000	0,5	2,078950
4,000333	0,5	2,095350
4,008667	0,5	2,114250
4,017000	0,5	2,121050
4,025333	0,5	2,099950
4,033667	0,5	2,083700
4,042000	0,5	2,047700
4,050333	0,5	1,983800
4,058667	0,5	1,931650
4,067000	0,5	1,882250
4,075333	0,5	1,836900
4,083667	0,5	1,797550
4,092000	0,5	1,722150
4,100333	0,5	1,659150
4,108667	0,5	1,585600
4,117000	0,5	1,530400
4,125333	0,5	1,458500
4,133667	0,5	1,403400
4,142000	0,5	1,347950
4,150333	0,5	1,293000
4,158667	0,5	1,252750
4,167000	0,5	1,203900
4,175333	0,5	1,162450
4,183667	0,5	1,156650
4,192000	0,5	1,123900
4,200333	0,5	1,095400
4,208667	0,5	1,082550
4,217000	0,5	1,084300
4,225333	0,5	1,082100
4,233667	0,5	1,050700
4,242000	0,5	1,015800
4,250333	0,5	0,965450
4,258667	0,5	0,930350
4,267000	0,5	0,875600
4,275333	0,5	0,834150
4,283667	0,5	0,786600
4,292000	0,5	0,749350
4,300333	0,5	0,718300
4,308667	0,5	0,689500
4,317000	0,5	0,652250
4,325333	0,5	0,639350
4,333667	0,5	0,616650
4,342000	0,5	0,575850
4,350333	0,5	0,539800
4,358667	0,5	0,517950
4,367000	0,5	0,514250
4,375333	0,5	0,500900
4,383667	0,5	0,478050
4,392000	0,5	0,438550
4,400333	0,5	0,416350
4,408667	0,5	0,389100
4,417000	0,5	0,373200
4,425333	0,5	0,354150
4,433667	0,5	0,335950
4,442000	0,5	0,315550
4,450333	0,5	0,298950
4,458667	0,5	0,291800
4,467000	0,5	0,269050
4,475333	0,5	0,271000
4,483667	0,5	0,267500
4,492000	0,5	0,249650
4,500333	0,5	0,249400
4,508667	0,5	0,258650
4,517000	0,5	0,303450
4,525333	0,5	0,330250
4,533667	0,5	0,356650
4,542000	0,5	0,420650
4,550333	0,5	0,524150
4,558667	0,5	0,669750
4,567000	0,5	0,878200
4,575333	0,5	1,157550
4,583667	0,5	1,511050
4,592000	0,5	1,966500
4,600333	0,5	2,519050
4,608667	0,5	3,167500
4,617000	0,5	3,895350
4,625333	0,5	4,775500
4,633667	0,5	5,692150
4,642000	0,5	6,752050
4,650333	0,5	7,949800
4,658667	0,5	9,395300
4,667000	0,5	11,195750
4,675333	0,5	13,493050
4,683667	0,5	16,572500
4,692000	0,5	20,870400
4,700333	0,5	26,824400
4,708667	0,5	34,940001
4,717000	0,5	45,498801
4,725333	0,5	58,458551
4,733667	0,5	73,138451
4,742000	0,5	88,366251
4,750333	0,5	102,600152
4,758667	0,5	114,326102
4,767000	0,5	122,554602
4,775333	0,5	126,951852
4,783667	0,5	127,494352
4,792000	0,5	124,820552
4,800333	0,5	119,616102
4,808667	0,5	112,621002
4,817000	0,5	104,521202
4,825333	0,5	95,766651
4,833667	0,5	86,859701
4,842000	0,5	78,121851
4,850333	0,5	69,804351
4,858667	0,5	61,994651
4,867000	0,5	54,818601
4,875333	0,5	48,261201
4,883667	0,5	42,343301
4,892000	0,5	37,045201
4,900333	0,5	32,336550
4,908667	0,5	28,191100
4,917000	0,5	24,572150
4,925333	0,5	21,461950
4,933667	0,5	18,757900
4,942000	0,5	16,480250
4,950333	0,5	14,553800
4,958667	0,5	12,949750
4,967000	0,5	11,606350
4,975333	0,5	10,455350
4,983667	0,5	9,470800
4,992000	0,5	8,630700
5,000333	0,5	7,889000
5,008667	0,5	7,232450
5,017000	0,5	6,637450
5,025333	0,5	6,096150
5,033667	0,5	5,594500
5,042000	0,5	5,129700
5,050333	0,5	4,695100
5,058667	0,5	4,286350
5,067000	0,5	3,922400
5,075333	0,5	3,585250
5,083667	0,5	3,258650
5,092000	0,5	2,982400
5,100333	0,5	2,732650
5,108667	0,5	2,517900
5,117000	0,5	2,328100
5,125333	0,5	2,128600
5,133667	0,5	1,962200
5,142000	0,5	1,795050
5,150333	0,5	1,658500
5,158667	0,5	1,534450
5,167000	0,5	1,431950
5,175333	0,5	1,324100
5,183667	0,5	1,239900
5,192000	0,5	1,167100
5,200333	0,5	1,093350
5,208667	0,5	1,031800
5,217000	0,5	0,999200
5,225333	0,5	0,947050
5,233667	0,5	0,908950
5,242000	0,5	0,876900
5,250333	0,5	0,853750
5,258667	0,5	0,848000
5,267000	0,5	0,821950
5,275333	0,5	0,790450
5,283667	0,5	0,754200
5,292000	0,5	0,729300
5,300333	0,5	0,690150
5,308667	0,5	0,667850
5,317000	0,5	0,628550
5,325333	0,5	0,598600
5,333667	0,5	0,567650
5,342000	0,5	0,548700
5,350333	0,5	0,510700
5,358667	0,5	0,509700
5,367000	0,5	0,493050
5,375333	0,5	0,470700
5,383667	0,5	0,452500
5,392000	0,5	0,451900
5,400333	0,5	0,472600
5,408667	0,5	0,494350
5,417000	0,5	0,491050
5,425333	0,5	0,498900
5,433667	0,5	0,513900
5,442000	0,5	0,519500
5,450333	0,5	0,510450
5,458667	0,5	0,505550
5,467000	0,5	0,498700
5,475333	0,5	0,475450
5,483667	0,5	0,456950
5,492000	0,5	0,430350
5,500333	0,5	0,398550
5,508667	0,5	0,380850
5,517000	0,5	0,341100
5,525333	0,5	0,298850
5,533667	0,5	0,267300
5,542000	0,5	0,246550
5,550333	0,5	0,251550
5,558667	0,5	0,228000
5,567000	0,5	0,196950
5,575333	0,5	0,175300
5,583667	0,5	0,157850
5,592000	0,5	0,142700
5,600333	0,5	0,136600
5,608667	0,5	0,129550
5,617000	0,5	0,113800
5,625333	0,5	0,106500
5,633667	0,5	0,103150
5,642000	0,5	0,116550
5,650333	0,5	0,100550
5,658667	0,5	0,120450
5,667000	0,5	0,099850
5,675333	0,5	0,098900
5,683667	0,5	0,097250
5,692000	0,5	0,106300
5,700333	0,5	0,136850
5,708667	0,5	0,136700
5,717000	0,5	0,124400
5,725333	0,5	0,136350
5,733667	0,5	0,127050
5,742000	0,5	0,139150
5,750333	0,5	0,135500
5,758667	0,5	0,133700
5,767000	0,5	0,130600
5,775333	0,5	0,124300
5,783667	0,5	0,133150
5,792000	0,5	0,122950
5,800333	0,5	0,117850
5,808667	0,5	0,134600
5,817000	0,5	0,117100
5,825333	0,5	0,114150
5,833667	0,5	0,115700
5,842000	0,5	0,134050
5,850333	0,5	0,158750
5,858667	0,5	0,143800
5,867000	0,5	0,145750
5,875333	0,5	0,139400
5,883667	0,5	0,140900
5,892000	0,5	0,142100
5,900333	0,5	0,146150
5,908667	0,5	0,142100
5,917000	0,5	0,148000
5,925333	0,5	0,150750
5,933667	0,5	0,152850
5,942000	0,5	0,150250
5,950333	0,5	0,164550
5,958667	0,5	0,174500
5,967000	0,5	0,171350
5,975333	0,5	0,187800
5,983667	0,5	0,200000
5,992000	0,5	0,232450
6,000333	0,5	0,267500
6,008667	0,5	0,294750
6,017000	0,5	0,312800
6,025333	0,5	0,346500
6,033667	0,5	0,372500
6,042000	0,5	0,410400
6,050333	0,5	0,447750
6,058667	0,5	0,484250
6,067000	0,5	0,517450
6,075333	0,5	0,558850
6,083667	0,5	0,592100
6,092000	0,5	0,620050
6,100333	0,5	0,651450
6,108667	0,5	0,668050
6,117000	0,5	0,665900
6,125333	0,5	0,675100
6,133667	0,5	0,685500
6,142000	0,5	0,704400
6,150333	0,5	0,716850
6,158667	0,5	0,703550
6,167000	0,5	0,695900
6,175333	0,5	0,686550
6,183667	0,5	0,678800
6,192000	0,5	0,664750
6,200333	0,5	0,662750
6,208667	0,5	0,651600
6,217000	0,5	0,642300
6,225333	0,5	0,627600
6,233667	0,5	0,611800
6,242000	0,5	0,597200
6,250333	0,5	0,600300
6,258667	0,5	0,575000
6,267000	0,5	0,558350
6,275333	0,5	0,549700
6,283667	0,5	0,557950
6,292000	0,5	0,561350
6,300333	0,5	0,551550
6,308667	0,5	0,543150
6,317000	0,5	0,549100
6,325333	0,5	0,546300
6,333667	0,5	0,533650
6,342000	0,5	0,526900
6,350333	0,5	0,519850
6,358667	0,5	0,507950
6,367000	0,5	0,497450
6,375333	0,5	0,494450
6,383667	0,5	0,474800
6,392000	0,5	0,481500
6,400333	0,5	0,477550
6,408667	0,5	0,466400
6,417000	0,5	0,454350
6,425333	0,5	0,457700
6,433667	0,5	0,476550
6,442000	0,5	0,490350
6,450333	0,5	0,481700
6,458667	0,5	0,491850
6,467000	0,5	0,492750
6,475333	0,5	0,492700
6,483667	0,5	0,485650
6,492000	0,5	0,496000
6,500333	0,5	0,499400
6,508667	0,5	0,503500
6,517000	0,5	0,509550
6,525333	0,5	0,514000
6,533667	0,5	0,510900
6,542000	0,5	0,531600
6,550333	0,5	0,524850
6,558667	0,5	0,528450
6,567000	0,5	0,539800
6,575333	0,5	0,545600
6,583667	0,5	0,580700
6,592000	0,5	0,578450
6,600333	0,5	0,585350
6,608667	0,5	0,593150
6,617000	0,5	0,606850
6,625333	0,5	0,610500
6,633667	0,5	0,623350
6,642000	0,5	0,631100
6,650333	0,5	0,640800
6,658667	0,5	0,655300
6,667000	0,5	0,664400
6,675333	0,5	0,692350
6,683667	0,5	0,698350
6,692000	0,5	0,732050
6,700333	0,5	0,739200
6,708667	0,5	0,758700
6,717000	0,5	0,776600
6,725333	0,5	0,811900
6,733667	0,5	0,850150
6,742000	0,5	0,869100
6,750333	0,5	0,870200
6,758667	0,5	0,899100
6,767000	0,5	0,897250
6,775333	0,5	0,900850
6,783667	0,5	0,887600
6,792000	0,5	0,885500
6,800333	0,5	0,875800
6,808667	0,5	0,877200
6,817000	0,5	0,874100
6,825333	0,5	0,865900
6,833667	0,5	0,862000
6,842000	0,5	0,871400
6,850333	0,5	0,863450
6,858667	0,5	0,863950
6,867000	0,5	0,874800
6,875333	0,5	0,890900
6,883667	0,5	0,917700
6,892000	0,5	0,914650
6,900333	0,5	0,917600
6,908667	0,5	0,921950
6,917000	0,5	0,928300
6,925333	0,5	0,930900
6,933667	0,5	0,942150
6,942000	0,5	0,945100
6,950333	0,5	0,952150
6,958667	0,5	0,957950
6,967000	0,5	0,970750
6,975333	0,5	0,972200
6,983667	0,5	0,991700
6,992000	0,5	0,999200
7,000333	0,5	1,008250
7,008667	0,5	1,019450
7,017000	0,5	1,045500
7,025333	0,5	1,075850
7,033667	0,5	1,108700
7,042000	0,5	1,128850
7,050333	0,5	1,148800
7,058667	0,5	1,174100
7,067000	0,5	1,195800
7,075333	0,5	1,218600
7,083667	0,5	1,231350
7,092000	0,5	1,249250
7,100333	0,5	1,261400
7,108667	0,5	1,277450
7,117000	0,5	1,277050
7,125333	0,5	1,287750
7,133667	0,5	1,301200
7,142000	0,5	1,302100
7,150333	0,5	1,295750
7,158667	0,5	1,307400
7,167000	0,5	1,330250
7,175333	0,5	1,365350
7,183667	0,5	1,397300
7,192000	0,5	1,422600
7,200333	0,5	1,462350
7,208667	0,5	1,506700
7,217000	0,5	1,560550
7,225333	0,5	1,614600
7,233667	0,5	1,675100
7,242000	0,5	1,717700
7,250333	0,5	1,757800
7,258667	0,5	1,780350
7,267000	0,5	1,793550
7,275333	0,5	1,787450
7,283667	0,5	1,765700
7,292000	0,5	1,719950
7,300333	0,5	1,681900
7,308667	0,5	1,641000
7,317000	0,5	1,618800
7,325333	0,5	1,600500
7,333667	0,5	1,579650
7,342000	0,5	1,557700
7,350333	0,5	1,554150
7,358667	0,5	1,551250
7,367000	0,5	1,563650
7,375333	0,5	1,576100
7,383667	0,5	1,592350
7,392000	0,5	1,608400
7,400333	0,5	1,632450
7,408667	0,5	1,660100
7,417000	0,5	1,669700
7,425333	0,5	1,697350
7,433667	0,5	1,706850
7,442000	0,5	1,704600
7,450333	0,5	1,694900
7,458667	0,5	1,685900
7,467000	0,5	1,691500
7,475333	0,5	1,679550
7,483667	0,5	1,658050
7,492000	0,5	1,642950
7,500333	0,5	1,632350
7,508667	0,5	1,622000
7,517000	0,5	1,606250
7,525333	0,5	1,606700
7,533667	0,5	1,600600
7,542000	0,5	1,600500
7,550333	0,5	1,597200
7,558667	0,5	1,594850
7,567000	0,5	1,590400
7,575333	0,5	1,610450
7,583667	0,5	1,606750
7,592000	0,5	1,603450
7,600333	0,5	1,609200
7,608667	0,5	1,617150
7,617000	0,5	1,650350
7,625333	0,5	1,654550
7,633667	0,5	1,668050
7,642000	0,5	1,676500
7,650333	0,5	1,695450
7,658667	0,5	1,708450
7,667000	0,5	1,734050
7,675333	0,5	1,762800
7,683667	0,5	1,801850
7,692000	0,5	1,844600
7,700333	0,5	1,895550
7,708667	0,5	1,957050
7,717000	0,5	1,995900
7,725333	0,5	2,045000
7,733667	0,5	2,055650
7,742000	0,5	2,053550
7,750333	0,5	2,048800
7,758667	0,5	2,045950
7,767000	0,5	2,054850
7,775333	0,5	2,059650
7,783667	0,5	2,071200
7,792000	0,5	2,100100
7,800333	0,5	2,143350
7,808667	0,5	2,210650
7,817000	0,5	2,300600
7,825333	0,5	2,429400
7,833667	0,5	2,602250
7,842000	0,5	2,811100
7,850333	0,5	3,017850
7,858667	0,5	3,186600
7,867000	0,5	3,277200
7,875333	0,5	3,276450
7,883667	0,5	3,165100
7,892000	0,5	2,996650
7,900333	0,5	2,799550
7,908667	0,5	2,604250
7,917000	0,5	2,451050
7,925333	0,5	2,311250
7,933667	0,5	2,220650
7,942000	0,5	2,164100
7,950333	0,5	2,136650
7,958667	0,5	2,127550
7,967000	0,5	2,138650
7,975333	0,5	2,157500
7,983667	0,5	2,208950
7,992000	0,5	2,285850
8,000333	0,5	2,394500
8,008667	0,5	2,546500
8,017000	0,5	2,746950
8,025333	0,5	2,963950
8,033667	0,5	3,140300
8,042000	0,5	3,271750
8,050333	0,5	3,333600
8,058667	0,5	3,330600
8,067000	0,5	3,291600
8,075333	0,5	3,240450
8,083667	0,5	3,204900
8,092000	0,5	3,178000
8,100333	0,5	3,146250
8,108667	0,5	3,112450
8,117000	0,5	3,064550
8,125333	0,5	2,996550
8,133667	0,5	2,931900
8,142000	0,5	2,879950
8,150333	0,5	2,855400
8,158667	0,5	2,895100
8,167000	0,5	3,001050
8,175333	0,5	3,145950
8,183667	0,5	3,280600
8,192000	0,5	3,322350
8,200333	0,5	3,257650
8,208667	0,5	3,122400
8,217000	0,5	2,976900
8,225333	0,5	2,897200
8,233667	0,5	2,916450
8,242000	0,5	3,068450
8,250333	0,5	3,322650
8,258667	0,5	3,635050
8,267000	0,5	3,901650
8,275333	0,5	4,029950
8,283667	0,5	4,001250
8,292000	0,5	3,890400
8,300333	0,5	3,788050
8,308667	0,5	3,770600
8,317000	0,5	3,848550
8,325333	0,5	3,985750
8,333667	0,5	4,118600
8,342000	0,5	4,171150
8,350333	0,5	4,116950
8,358667	0,5	3,954100
8,367000	0,5	3,720450
8,375333	0,5	3,457550
8,383667	0,5	3,207800
8,392000	0,5	3,006650
8,400333	0,5	2,872500
8,408667	0,5	2,833900
8,417000	0,5	2,917050
8,425333	0,5	3,156950
8,433667	0,5	3,541500
8,442000	0,5	4,007600
8,450333	0,5	4,402900
8,458667	0,5	4,589350
8,467000	0,5	4,495350
8,475333	0,5	4,173600
8,483667	0,5	3,757000
8,492000	0,5	3,378850
8,500333	0,5	3,099250
8,508667	0,5	2,916550
8,517000	0,5	2,791100
8,525333	0,5	2,702400
8,533667	0,5	2,629100
8,542000	0,5	2,557550
8,550333	0,5	2,480350
8,558667	0,5	2,422000
8,567000	0,5	2,369300
8,575333	0,5	2,336600
8,583667	0,5	2,316850
8,592000	0,5	2,313200
8,600333	0,5	2,316850
8,608667	0,5	2,314600
8,617000	0,5	2,296350
8,625333	0,5	2,265350
8,633667	0,5	2,220950
8,642000	0,5	2,180300
8,650333	0,5	2,141400
8,658667	0,5	2,098800
8,667000	0,5	2,063450
8,675333	0,5	2,049750
8,683667	0,5	2,056950
8,692000	0,5	2,087150
8,700333	0,5	2,153350
8,708667	0,5	2,236450
8,717000	0,5	2,311700
8,725333	0,5	2,354600
8,733667	0,5	2,346650
8,742000	0,5	2,302400
8,750333	0,5	2,247900
8,758667	0,5	2,195300
8,767000	0,5	2,155200
8,775333	0,5	2,126650
8,783667	0,5	2,112050
8,792000	0,5	2,116400
8,800333	0,5	2,137400
8,808667	0,5	2,158850
8,817000	0,5	2,173600
8,825333	0,5	2,181600
8,833667	0,5	2,197150
8,842000	0,5	2,221050
8,850333	0,5	2,245350
8,858667	0,5	2,250650
8,867000	0,5	2,228300
8,875333	0,5	2,184050
8,883667	0,5	2,134900
8,892000	0,5	2,097050
8,900333	0,5	2,064600
8,908667	0,5	2,042900
8,917000	0,5	2,019250
8,925333	0,5	1,991850
8,933667	0,5	1,952850
8,942000	0,5	1,904100
8,950333	0,5	1,852700
8,958667	0,5	1,801300
8,967000	0,5	1,752800
8,975333	0,5	1,725150
8,983667	0,5	1,707200
8,992000	0,5	1,708200
9,000333	0,5	1,725650
9,008667	0,5	1,761450
9,017000	0,5	1,808100
9,025333	0,5	1,880750
9,033667	0,5	2,000200
9,042000	0,5	2,201250
9,050333	0,5	2,542150
9,058667	0,5	3,066300
9,067000	0,5	3,749550
9,075333	0,5	4,459900
9,083667	0,5	4,988500
9,092000	0,5	5,155550
9,100333	0,5	4,938800
9,108667	0,5	4,449500
9,117000	0,5	3,907750
9,125333	0,5	3,438050
9,133667	0,5	3,096100
9,142000	0,5	2,852300
9,150333	0,5	2,663200
9,158667	0,5	2,505500
9,167000	0,5	2,364000
9,175333	0,5	2,252400
9,183667	0,5	2,151750
9,192000	0,5	2,072400
9,200333	0,5	2,004450
9,208667	0,5	1,954500
9,217000	0,5	1,915450
9,225333	0,5	1,885300
9,233667	0,5	1,866250
9,242000	0,5	1,854700
9,250333	0,5	1,851450
9,258667	0,5	1,848800
9,267000	0,5	1,855050
9,275333	0,5	1,868000
9,283667	0,5	1,886100
9,292000	0,5	1,913350
9,300333	0,5	1,931450
9,308667	0,5	1,946850
9,317000	0,5	1,941350
9,325333	0,5	1,931250
9,333667	0,5	1,918450
9,342000	0,5	1,902550
9,350333	0,5	1,880600
9,358667	0,5	1,868250
9,367000	0,5	1,856150
9,375333	0,5	1,858850
9,383667	0,5	1,875000
9,392000	0,5	1,891750
9,400333	0,5	1,915250
9,408667	0,5	1,949000
9,417000	0,5	1,990200
9,425333	0,5	2,053950
9,433667	0,5	2,136100
9,442000	0,5	2,239200
9,450333	0,5	2,348800
9,458667	0,5	2,436500
9,467000	0,5	2,490150
9,475333	0,5	2,493550
9,483667	0,5	2,449450
9,492000	0,5	2,377650
9,500333	0,5	2,295200
9,508667	0,5	2,228800
9,517000	0,5	2,191900
9,525333	0,5	2,172350
9,533667	0,5	2,186400
9,542000	0,5	2,213250
9,550333	0,5	2,251150
9,558667	0,5	2,285800
9,567000	0,5	2,301350
9,575333	0,5	2,302050
9,583667	0,5	2,295250
9,592000	0,5	2,290650
9,600333	0,5	2,299450
9,608667	0,5	2,315000
9,617000	0,5	2,324050
9,625333	0,5	2,319550
9,633667	0,5	2,291950
9,642000	0,5	2,261350
9,650333	0,5	2,259900
9,658667	0,5	2,304250
9,667000	0,5	2,402900
9,675333	0,5	2,546050
9,683667	0,5	2,716150
9,692000	0,5	2,862800
9,700333	0,5	2,943250
9,708667	0,5	2,931950
9,717000	0,5	2,841000
9,725333	0,5	2,689350
9,733667	0,5	2,515850
9,742000	0,5	2,361500
9,750333	0,5	2,246150
9,758667	0,5	2,180250
9,767000	0,5	2,175800
9,775333	0,5	2,222000
9,783667	0,5	2,301650
9,792000	0,5	2,391300
9,800333	0,5	2,444450
9,808667	0,5	2,435750
9,817000	0,5	2,388550
9,825333	0,5	2,320550
9,833667	0,5	2,244200
9,842000	0,5	2,171950
9,850333	0,5	2,112550
9,858667	0,5	2,063400
9,867000	0,5	2,033550
9,875333	0,5	2,004750
9,883667	0,5	1,980700
9,892000	0,5	1,958350
9,900333	0,5	1,930700
9,908667	0,5	1,897050
9,917000	0,5	1,865750
9,925333	0,5	1,832900
9,933667	0,5	1,796650
9,942000	0,5	1,766050
9,950333	0,5	1,735600
9,958667	0,5	1,710050
9,967000	0,5	1,684850
9,975333	0,5	1,669000
9,983667	0,5	1,650300
9,992000	0,5	1,644850
10,000333	0,5	1,630350
10,008667	0,5	1,625700
10,017000	0,5	1,621700
10,025333	0,5	1,616050
10,033667	0,5	1,619050
10,042000	0,5	1,617400
10,050333	0,5	1,610800
10,058667	0,5	1,604400
10,067000	0,5	1,590950
10,075333	0,5	1,575200
10,083667	0,5	1,566350
10,092000	0,5	1,556600
10,100333	0,5	1,547800
10,108667	0,5	1,537750
10,117000	0,5	1,529150
10,125333	0,5	1,520150
10,133667	0,5	1,507350
10,142000	0,5	1,497150
10,150333	0,5	1,489450
10,158667	0,5	1,479350
10,167000	0,5	1,467850
10,175333	0,5	1,458450
10,183667	0,5	1,457000
10,192000	0,5	1,452850
10,200333	0,5	1,448350
10,208667	0,5	1,445950
10,217000	0,5	1,453250
10,225333	0,5	1,454400
10,233667	0,5	1,470950
10,242000	0,5	1,483500
10,250333	0,5	1,498250
10,258667	0,5	1,498150
10,267000	0,5	1,505050
10,275333	0,5	1,507700
10,283667	0,5	1,512400
10,292000	0,5	1,514850
10,300333	0,5	1,522900
10,308667	0,5	1,532950
10,317000	0,5	1,551950
10,325333	0,5	1,583900
10,333667	0,5	1,637550
10,342000	0,5	1,702800
10,350333	0,5	1,785000
10,358667	0,5	1,888950
10,367000	0,5	1,988950
10,375333	0,5	2,088100
10,383667	0,5	2,178000
10,392000	0,5	2,231450
10,400333	0,5	2,233000
10,408667	0,5	2,193250
10,417000	0,5	2,112750
10,425333	0,5	2,007150
10,433667	0,5	1,898050
10,442000	0,5	1,798400
10,450333	0,5	1,706150
10,458667	0,5	1,635800
10,467000	0,5	1,576050
10,475333	0,5	1,536900
10,483667	0,5	1,497800
10,492000	0,5	1,475900
10,500333	0,5	1,456450
10,508667	0,5	1,449600
10,517000	0,5	1,439650
10,525333	0,5	1,437800
10,533667	0,5	1,443400
10,542000	0,5	1,448600
10,550333	0,5	1,449400
10,558667	0,5	1,455450
10,567000	0,5	1,459850
10,575333	0,5	1,459750
10,583667	0,5	1,466150
10,592000	0,5	1,461200
10,600333	0,5	1,460500
10,608667	0,5	1,459000
10,617000	0,5	1,461800
10,625333	0,5	1,467050
10,633667	0,5	1,467500
10,642000	0,5	1,476400
10,650333	0,5	1,489400
10,658667	0,5	1,508250
10,667000	0,5	1,525650
10,675333	0,5	1,561600
10,683667	0,5	1,583400
10,692000	0,5	1,617750
10,700333	0,5	1,629350
10,708667	0,5	1,632850
10,717000	0,5	1,624200
10,725333	0,5	1,614650
10,733667	0,5	1,588750
10,742000	0,5	1,561200
10,750333	0,5	1,538650
10,758667	0,5	1,524000
10,767000	0,5	1,504200
10,775333	0,5	1,500050
10,783667	0,5	1,491000
10,792000	0,5	1,495350
10,800333	0,5	1,503250
10,808667	0,5	1,511300
10,817000	0,5	1,517150
10,825333	0,5	1,528350
10,833667	0,5	1,520450
10,842000	0,5	1,523800
10,850333	0,5	1,518900
10,858667	0,5	1,507950
10,867000	0,5	1,507300
10,875333	0,5	1,497850
10,883667	0,5	1,498550
10,892000	0,5	1,496000
10,900333	0,5	1,494850
10,908667	0,5	1,495750
10,917000	0,5	1,502900
10,925333	0,5	1,510700
10,933667	0,5	1,534050
10,942000	0,5	1,558950
10,950333	0,5	1,596750
10,958667	0,5	1,634800
10,967000	0,5	1,677000
10,975333	0,5	1,709900
10,983667	0,5	1,725650
10,992000	0,5	1,729800
11,000333	0,5	1,718050
11,008667	0,5	1,698850
11,017000	0,5	1,686900
11,025333	0,5	1,677350
11,033667	0,5	1,660350
11,042000	0,5	1,641300
11,050333	0,5	1,623650
11,058667	0,5	1,596700
11,067000	0,5	1,577550
11,075333	0,5	1,562050
11,083667	0,5	1,549150
11,092000	0,5	1,552550
11,100333	0,5	1,560850
11,108667	0,5	1,584050
11,117000	0,5	1,607950
11,125333	0,5	1,649300
11,133667	0,5	1,669900
11,142000	0,5	1,681350
11,150333	0,5	1,674400
11,158667	0,5	1,648800
11,167000	0,5	1,602300
11,175333	0,5	1,544700
11,183667	0,5	1,482100
11,192000	0,5	1,426200
11,200333	0,5	1,379600
11,208667	0,5	1,346900
11,217000	0,5	1,333850
11,225333	0,5	1,335050
11,233667	0,5	1,338150
11,242000	0,5	1,349100
11,250333	0,5	1,362250
11,258667	0,5	1,375150
11,267000	0,5	1,392250
11,275333	0,5	1,404400
11,283667	0,5	1,409500
11,292000	0,5	1,411700
11,300333	0,5	1,407850
11,308667	0,5	1,407000
11,317000	0,5	1,404800
11,325333	0,5	1,394250
11,333667	0,5	1,390800
11,342000	0,5	1,379400
11,350333	0,5	1,375550
11,358667	0,5	1,363600
11,367000	0,5	1,363250
11,375333	0,5	1,363700
11,383667	0,5	1,363500
11,392000	0,5	1,363750
11,400333	0,5	1,354850
11,408667	0,5	1,349600
11,417000	0,5	1,353900
11,425333	0,5	1,355000
11,433667	0,5	1,348650
11,442000	0,5	1,343200
11,450333	0,5	1,338050
11,458667	0,5	1,343150
11,467000	0,5	1,348000
11,475333	0,5	1,347800
11,483667	0,5	1,347450
11,492000	0,5	1,352400
11,500333	0,5	1,344850
11,508667	0,5	1,350450
11,517000	0,5	1,353900
11,525333	0,5	1,349200
11,533667	0,5	1,347250
11,542000	0,5	1,352950
11,550333	0,5	1,345100
11,558667	0,5	1,347450
11,567000	0,5	1,356350
11,575333	0,5	1,357950
11,583667	0,5	1,359300
11,592000	0,5	1,366800
11,600333	0,5	1,368650
11,608667	0,5	1,377650
11,617000	0,5	1,384950
11,625333	0,5	1,387100
11,633667	0,5	1,388950
11,642000	0,5	1,387000
11,650333	0,5	1,385050
11,658667	0,5	1,379650
11,667000	0,5	1,375350
11,675333	0,5	1,362350
11,683667	0,5	1,353050
11,692000	0,5	1,342000
11,700333	0,5	1,330500
11,708667	0,5	1,331850
11,717000	0,5	1,327800
11,725333	0,5	1,327100
11,733667	0,5	1,320350
11,742000	0,5	1,319750
11,750333	0,5	1,324400
11,758667	0,5	1,342300
11,767000	0,5	1,366150
11,775333	0,5	1,397350
11,783667	0,5	1,442350
11,792000	0,5	1,504950
11,800333	0,5	1,576600
11,808667	0,5	1,655750
11,817000	0,5	1,722900
11,825333	0,5	1,774000
11,833667	0,5	1,794650
11,842000	0,5	1,791050
11,850333	0,5	1,749650
11,858667	0,5	1,717000
11,867000	0,5	1,668200
11,875333	0,5	1,618000
11,883667	0,5	1,572250
11,892000	0,5	1,531850
11,900333	0,5	1,507150
11,908667	0,5	1,485650
11,917000	0,5	1,463700
11,925333	0,5	1,448200
11,933667	0,5	1,441350
11,942000	0,5	1,434150
11,950333	0,5	1,433200
11,958667	0,5	1,441950
11,967000	0,5	1,462400
11,975333	0,5	1,488550
11,983667	0,5	1,523200
11,992000	0,5	1,563800
12,000333	0,5	1,607700
12,008667	0,5	1,660450
12,017000	0,5	1,709050
12,025333	0,5	1,754700
12,033667	0,5	1,789300
12,042000	0,5	1,821500
12,050333	0,5	1,849600
12,058667	0,5	1,882650
12,067000	0,5	1,909500
12,075333	0,5	1,946250
12,083667	0,5	1,979650
12,092000	0,5	2,017250
12,100333	0,5	2,032450
12,108667	0,5	2,040750
12,117000	0,5	2,016700
12,125333	0,5	1,980450
12,133667	0,5	1,923050
12,142000	0,5	1,843300
12,150333	0,5	1,761450
12,158667	0,5	1,687800
12,167000	0,5	1,607800
12,175333	0,5	1,543300
12,183667	0,5	1,480300
12,192000	0,5	1,435850
12,200333	0,5	1,403100
12,208667	0,5	1,374700
12,217000	0,5	1,346750
12,225333	0,5	1,336450
12,233667	0,5	1,314800
12,242000	0,5	1,302750
12,250333	0,5	1,290750
12,258667	0,5	1,280450
12,267000	0,5	1,272100
12,275333	0,5	1,272000
12,283667	0,5	1,263850
12,292000	0,5	1,251500
12,300333	0,5	1,258750
12,308667	0,5	1,261550
12,317000	0,5	1,262450
12,325333	0,5	1,250250
12,333667	0,5	1,248200
12,342000	0,5	1,252900
12,350333	0,5	1,260500
12,358667	0,5	1,257750
12,367000	0,5	1,263550
12,375333	0,5	1,266200
12,383667	0,5	1,273500
12,392000	0,5	1,284600
12,400333	0,5	1,295450
12,408667	0,5	1,309550
12,417000	0,5	1,312000
12,425333	0,5	1,338950
12,433667	0,5	1,353900
12,442000	0,5	1,369250
12,450333	0,5	1,392850
12,458667	0,5	1,411650
12,467000	0,5	1,431850
12,475333	0,5	1,457950
12,483667	0,5	1,491550
12,492000	0,5	1,546100
12,500333	0,5	1,601650
12,508667	0,5	1,682850
12,517000	0,5	1,751000
12,525333	0,5	1,816650
12,533667	0,5	1,851050
12,542000	0,5	1,865500
12,550333	0,5	1,841400
12,558667	0,5	1,797600
12,567000	0,5	1,752150
12,575333	0,5	1,703950
12,583667	0,5	1,650250
12,592000	0,5	1,623000
12,600333	0,5	1,595400
12,608667	0,5	1,578100
12,617000	0,5	1,569000
12,625333	0,5	1,546350
12,633667	0,5	1,560850
12,642000	0,5	1,566050
12,650333	0,5	1,579350
12,658667	0,5	1,588850
12,667000	0,5	1,606000
12,675333	0,5	1,626450
12,683667	0,5	1,653650
12,692000	0,5	1,696050
12,700333	0,5	1,755850
12,708667	0,5	1,822300
12,717000	0,5	1,909500
12,725333	0,5	1,995850
12,733667	0,5	2,059900
12,742000	0,5	2,133250
12,750333	0,5	2,189100
12,758667	0,5	2,238450
12,767000	0,5	2,283000
12,775333	0,5	2,320700
12,783667	0,5	2,357700
12,792000	0,5	2,379100
12,800333	0,5	2,369850
12,808667	0,5	2,339050
12,817000	0,5	2,309800
12,825333	0,5	2,279650
12,833667	0,5	2,251450
12,842000	0,5	2,233200
12,850333	0,5	2,210700
12,858667	0,5	2,198550
12,867000	0,5	2,191750
12,875333	0,5	2,197150
12,883667	0,5	2,205200
12,892000	0,5	2,228800
12,900333	0,5	2,236950
12,908667	0,5	2,230500
12,917000	0,5	2,202650
12,925333	0,5	2,157000
12,933667	0,5	2,112750
12,942000	0,5	2,055850
12,950333	0,5	1,996700
12,958667	0,5	1,936800
12,967000	0,5	1,883750
12,975333	0,5	1,828800
12,983667	0,5	1,781800
12,992000	0,5	1,721150
13,000333	0,5	1,652100
13,008667	0,5	1,585950
13,017000	0,5	1,520450
13,025333	0,5	1,454200
13,033667	0,5	1,413650
13,042000	0,5	1,374550
13,050333	0,5	1,344750
13,058667	0,5	1,322700
13,067000	0,5	1,294400
13,075333	0,5	1,276000
13,083667	0,5	1,270700
13,092000	0,5	1,259100
13,100333	0,5	1,254750
13,108667	0,5	1,249850
13,117000	0,5	1,244750
13,125333	0,5	1,244900
13,133667	0,5	1,249000
13,142000	0,5	1,255450
13,150333	0,5	1,256250
13,158667	0,5	1,265550
13,167000	0,5	1,261100
13,175333	0,5	1,254950
13,183667	0,5	1,249850
13,192000	0,5	1,241450
13,200333	0,5	1,227100
13,208667	0,5	1,216750
13,217000	0,5	1,200750
13,225333	0,5	1,193350
13,233667	0,5	1,159950
13,242000	0,5	1,111400
13,250333	0,5	1,052100
13,258667	0,5	1,001700
13,267000	0,5	0,943350
13,275333	0,5	0,895750
13,283667	0,5	0,852200
13,292000	0,5	0,830650
13,300333	0,5	0,811000
13,308667	0,5	0,777900
13,317000	0,5	0,686050
13,325333	0,5	0,423150
13,333667	0,5	-0,007750
13,342000	0,5	-0,392700
13,350333	0,5	-0,693650
13,358667	0,5	-1,008100
13,367000	0,5	-1,250400
13,375333	0,5	-1,419650
13,383667	0,5	-1,529800
13,392000	0,5	-1,614600
13,400333	0,5	-1,671550
13,408667	0,5	-1,725800
13,417000	0,5	-1,760950
13,425333	0,5	-1,805350
13,433667	0,5	-1,842600
13,442000	0,5	-1,887100
13,450333	0,5	-1,940700
13,458667	0,5	-1,981950
13,467000	0,5	-2,030500
13,475333	0,5	-2,062950
13,483667	0,5	-2,090750
13,492000	0,5	-2,111650
13,500333	0,5	-2,132400
13,508667	0,5	-2,148350
13,517000	0,5	-2,154850
13,525333	0,5	-2,147350
13,533667	0,5	-2,158400
13,542000	0,5	-2,162950
13,550333	0,5	-2,173550
13,558667	0,5	-2,178300
13,567000	0,5	-2,196700
13,575333	0,5	-2,207350
13,583667	0,5	-2,221150
13,592000	0,5	-2,231850
13,600333	0,5	-2,232100
13,608667	0,5	-2,225550
13,617000	0,5	-2,235200
13,625333	0,5	-2,213750
13,633667	0,5	-2,194000
13,642000	0,5	-2,165850
13,650333	0,5	-2,138250
13,658667	0,5	-2,123200
13,667000	0,5	-2,077550
13,675333	0,5	-2,049150
13,683667	0,5	-2,031600
13,692000	0,5	-2,015400
13,700333	0,5	-1,997550
13,708667	0,5	-1,990950
13,717000	0,5	-1,976150
13,725333	0,5	-1,966600
13,733667	0,5	-1,959250
13,742000	0,5	-1,952250
13,750333	0,5	-1,947050
13,758667	0,5	-1,946050
13,767000	0,5	-1,949400
13,775333	0,5	-1,948850
13,783667	0,5	-1,949800
13,792000	0,5	-1,952800
13,800333	0,5	-1,950450
13,808667	0,5	-1,942400
13,817000	0,5	-1,910100
13,825333	0,5	-1,864750
13,833667	0,5	-1,833950
13,842000	0,5	-1,791000
13,850333	0,5	-1,757650
13,858667	0,5	-1,734900
13,867000	0,5	-1,726350
13,875333	0,5	-1,723650
13,883667	0,5	-1,733500
13,892000	0,5	-1,748050
13,900333	0,5	-1,764600
13,908667	0,5	-1,785100
13,917000	0,5	-1,799050
13,925333	0,5	-1,805950
13,933667	0,5	-1,816900
13,942000	0,5	-1,825950
13,950333	0,5	-1,841350
13,958667	0,5	-1,842900
13,967000	0,5	-1,831600
13,975333	0,5	-1,828650
13,983667	0,5	-1,827300
13,992000	0,5	-1,820350
14,000333	0,5	-1,810550
14,008667	0,5	-1,810000
14,017000	0,5	-1,792250
14,025333	0,5	-1,782450
14,033667	0,5	-1,764700
14,042000	0,5	-1,750450
14,050333	0,5	-1,729400
14,058667	0,5	-1,726300
14,067000	0,5	-1,701600
14,075333	0,5	-1,682000
14,083667	0,5	-1,664400
14,092000	0,5	-1,654150
14,100333	0,5	-1,640400
14,108667	0,5	-1,618350
14,117000	0,5	-1,583650
14,125333	0,5	-1,558700
14,133667	0,5	-1,533550
14,142000	0,5	-1,501100
14,150333	0,5	-1,474250
14,158667	0,5	-1,448800
14,167000	0,5	-1,411800
14,175333	0,5	-1,383900
14,183667	0,5	-1,349800
14,192000	0,5	-1,310250
14,200333	0,5	-1,284700
14,208667	0,5	-1,243550
14,217000	0,5	-1,216100
14,225333	0,5	-1,168800
14,233667	0,5	-1,128800
14,242000	0,5	-1,098500
14,250333	0,5	-1,059200
14,258667	0,5	-1,013750
14,267000	0,5	-0,970700
14,275333	0,5	-0,939650
14,283667	0,5	-0,917900
14,292000	0,5	-0,893900
14,300333	0,5	-0,878750
14,308667	0,5	-0,860450
14,317000	0,5	-0,831400
14,325333	0,5	-0,812250
14,333667	0,5	-0,784550
14,342000	0,5	-0,751000
14,350333	0,5	-0,731800
14,358667	0,5	-0,698900
14,367000	0,5	-0,656450
14,375333	0,5	-0,625450
14,383667	0,5	-0,585250
14,392000	0,5	-0,558400
14,400333	0,5	-0,500000
14,408667	0,5	-0,444550
14,417000	0,5	-0,360700
14,425333	0,5	-0,277450
14,433667	0,5	-0,171550
14,442000	0,5	-0,061200
14,450333	0,5	0,059800
14,458667	0,5	0,163950
14,467000	0,5	0,251950
14,475333	0,5	0,317900
14,483667	0,5	0,362450
14,492000	0,5	0,382150
14,500333	0,5	0,361000
14,508667	0,5	0,361450
14,517000	0,5	0,361250
14,525333	0,5	0,364250
14,533667	0,5	0,378500
14,542000	0,5	0,415450
14,550333	0,5	0,485500
14,558667	0,5	0,573000
14,567000	0,5	0,647800
14,575333	0,5	0,717350
14,583667	0,5	0,757100
14,592000	0,5	0,769500
14,600333	0,5	0,755050
14,608667	0,5	0,729000
14,617000	0,5	0,689350
14,625333	0,5	0,653500
14,633667	0,5	0,629850
14,642000	0,5	0,603850
14,650333	0,5	0,577500
14,658667	0,5	0,571500
14,667000	0,5	0,555100
14,675333	0,5	0,538200
14,683667	0,5	0,520950
14,692000	0,5	0,502100
14,700333	0,5	0,506000
14,708667	0,5	0,501800
14,717000	0,5	0,501250
14,725333	0,5	0,499600
14,733667	0,5	0,500550
14,742000	0,5	0,494250
14,750333	0,5	0,505450
14,758667	0,5	0,502000
14,767000	0,5	0,497900
14,775333	0,5	0,509250
14,783667	0,5	0,518900
14,792000	0,5	0,520450
14,800333	0,5	0,534550
14,808667	0,5	0,552550
14,817000	0,5	0,570900
14,825333	0,5	0,576700
14,833667	0,5	0,573900
14,842000	0,5	0,569250
14,850333	0,5	0,564050
14,858667	0,5	0,555600
14,867000	0,5	0,534950
14,875333	0,5	0,525900
14,883667	0,5	0,507300
14,892000	0,5	0,497000
14,900333	0,5	0,481000
14,908667	0,5	0,469600
14,917000	0,5	0,460750
14,925333	0,5	0,464050
14,933667	0,5	0,461350
14,942000	0,5	0,453600
14,950333	0,5	0,451550
14,958667	0,5	0,457100
14,967000	0,5	0,456750
14,975333	0,5	0,445150
14,983667	0,5	0,446400
14,992000	0,5	0,464750
15,000333	0,5	0,505400
15,008667	0,5	0,558750
15,017000	0,5	0,645300
15,025333	0,5	0,755100
15,033667	0,5	0,863100
15,042000	0,5	0,950150
15,050333	0,5	1,000150
15,058667	0,5	0,979300
15,067000	0,5	0,924550
15,075333	0,5	0,853150
15,083667	0,5	0,778250
15,092000	0,5	0,724150
15,100333	0,5	0,724050
15,108667	0,5	0,739300
15,117000	0,5	0,787800
15,125333	0,5	0,827900
15,133667	0,5	0,854700
15,142000	0,5	0,865850
15,150333	0,5	0,839500
15,158667	0,5	0,785100
15,167000	0,5	0,721150
15,175333	0,5	0,658900
15,183667	0,5	0,613700
15,192000	0,5	0,577150
15,200333	0,5	0,552450
15,208667	0,5	0,533450
15,217000	0,5	0,530550
15,225333	0,5	0,546900
15,233667	0,5	0,544350
15,242000	0,5	0,565950
15,250333	0,5	0,590300
15,258667	0,5	0,613200
15,267000	0,5	0,627800
15,275333	0,5	0,633150
15,283667	0,5	0,639450
15,292000	0,5	0,646200
15,300333	0,5	0,626500
15,308667	0,5	0,610300
15,317000	0,5	0,576750
15,325333	0,5	0,558700
15,333667	0,5	0,526550
15,342000	0,5	0,500800
15,350333	0,5	0,473950
15,358667	0,5	0,443900
15,367000	0,5	0,427000
15,375333	0,5	0,406250
15,383667	0,5	0,366850
15,392000	0,5	0,356150
15,400333	0,5	0,347000
15,408667	0,5	0,324550
15,417000	0,5	0,311150
15,425333	0,5	0,285450
15,433667	0,5	0,296200
15,442000	0,5	0,295250
15,450333	0,5	0,296750
15,458667	0,5	0,287200
15,467000	0,5	0,297850
15,475333	0,5	0,303150
15,483667	0,5	0,318600
15,492000	0,5	0,358450
15,500333	0,5	0,418000
15,508667	0,5	0,504650
15,517000	0,5	0,621400
15,525333	0,5	0,747300
15,533667	0,5	0,864650
15,542000	0,5	0,957500
15,550333	0,5	0,971550
15,558667	0,5	0,940300
15,567000	0,5	0,854350
15,575333	0,5	0,777400
15,583667	0,5	0,744000
15,592000	0,5	0,741800
15,600333	0,5	0,758700
15,608667	0,5	0,799400
15,617000	0,5	0,803700
15,625333	0,5	0,782200
15,633667	0,5	0,733300
15,642000	0,5	0,661800
15,650333	0,5	0,579250
15,658667	0,5	0,512400
15,667000	0,5	0,469200
15,675333	0,5	0,426800
15,683667	0,5	0,416550
15,692000	0,5	0,415350
15,700333	0,5	0,414450
15,708667	0,5	0,399250
15,717000	0,5	0,374000
15,725333	0,5	0,363100
15,733667	0,5	0,371100
15,742000	0,5	0,350450
15,750333	0,5	0,351800
15,758667	0,5	0,344650
15,767000	0,5	0,349600
15,775333	0,5	0,347950
15,783667	0,5	0,345900
15,792000	0,5	0,334350
15,800333	0,5	0,309400
15,808667	0,5	0,293150
15,817000	0,5	0,276100
15,825333	0,5	0,224150
15,833667	0,5	0,216550
15,842000	0,5	0,198300
15,850333	0,5	0,177250
15,858667	0,5	0,142000
15,867000	0,5	0,105750
15,875333	0,5	0,102600
15,883667	0,5	0,091150
15,892000	0,5	0,089050
15,900333	0,5	0,075200
15,908667	0,5	0,081700
15,917000	0,5	0,075150
15,925333	0,5	0,086550
15,933667	0,5	0,114600
15,942000	0,5	0,161500
15,950333	0,5	0,228450
15,958667	0,5	0,338200
15,967000	0,5	0,458700
15,975333	0,5	0,575900
15,983667	0,5	0,666350
15,992000	0,5	0,690300
16,000333	0,5	0,664900
16,008667	0,5	0,610400
16,017000	0,5	0,559250
16,025333	0,5	0,546800
16,033667	0,5	0,564300
16,042000	0,5	0,579200
16,050333	0,5	0,584000
16,058667	0,5	0,552250
16,067000	0,5	0,503150
16,075333	0,5	0,439200
16,083667	0,5	0,376750
16,092000	0,5	0,309850
16,100333	0,5	0,265500
16,108667	0,5	0,220700
16,117000	0,5	0,188500
16,125333	0,5	0,161650
16,133667	0,5	0,163900
16,142000	0,5	0,157150
16,150333	0,5	0,154650
16,158667	0,5	0,149900
16,167000	0,5	0,147500
16,175333	0,5	0,155600
16,183667	0,5	0,155900
16,192000	0,5	0,147750
16,200333	0,5	0,127450
16,208667	0,5	0,109450
16,217000	0,5	0,087750
16,225333	0,5	0,069000
16,233667	0,5	0,030350
16,242000	0,5	0,011850
16,250333	0,5	-0,002550
16,258667	0,5	-0,014100
16,267000	0,5	-0,042300
16,275333	0,5	-0,037300
16,283667	0,5	-0,047700
16,292000	0,5	-0,057700
16,300333	0,5	-0,073950
16,308667	0,5	-0,090050
16,317000	0,5	-0,085950
16,325333	0,5	-0,068250
16,333667	0,5	-0,049100
16,342000	0,5	0,007050
16,350333	0,5	0,092300
16,358667	0,5	0,210400
16,367000	0,5	0,341050
16,375333	0,5	0,456750
16,383667	0,5	0,536600
16,392000	0,5	0,554700
16,400333	0,5	0,557000
16,408667	0,5	0,510650
16,417000	0,5	0,505000
16,425333	0,5	0,513900
16,433667	0,5	0,505200
16,442000	0,5	0,466350
16,450333	0,5	0,404450
16,458667	0,5	0,334550
16,467000	0,5	0,268350
16,475333	0,5	0,201150
16,483667	0,5	0,147600
16,492000	0,5	0,116650
16,500333	0,5	0,101350
16,508667	0,5	0,094950
16,517000	0,5	0,103500
16,525333	0,5	0,111700
16,533667	0,5	0,115250
16,542000	0,5	0,123300
16,550333	0,5	0,142050
16,558667	0,5	0,123550
16,567000	0,5	0,130450
16,575333	0,5	0,122450
16,583667	0,5	0,101450
16,592000	0,5	0,068600
16,600333	0,5	0,015400
16,608667	0,5	-0,004450
16,617000	0,5	-0,024700
16,625333	0,5	-0,053400
16,633667	0,5	-0,076750
16,642000	0,5	-0,092400
16,650333	0,5	-0,109150
16,658667	0,5	-0,126250
16,667000	0,5	-0,129100
16,675333	0,5	-0,143400
16,683667	0,5	-0,142250
16,692000	0,5	-0,136350
16,700333	0,5	-0,087450
16,708667	0,5	-0,027800
16,717000	0,5	0,091450
16,725333	0,5	0,221500
16,733667	0,5	0,354150
16,742000	0,5	0,434300
16,750333	0,5	0,472200
16,758667	0,5	0,498100
16,767000	0,5	0,500100
16,775333	0,5	0,470800
16,783667	0,5	0,446150
16,792000	0,5	0,410900
16,800333	0,5	0,373900
16,808667	0,5	0,316600
16,817000	0,5	0,267700
16,825333	0,5	0,217850
16,833667	0,5	0,197100
16,842000	0,5	0,192850
16,850333	0,5	0,196250
16,858667	0,5	0,220200
16,867000	0,5	0,251700
16,875333	0,5	0,262900
16,883667	0,5	0,266750
16,892000	0,5	0,254250
16,900333	0,5	0,237500
16,908667	0,5	0,242300
16,917000	0,5	0,231100
16,925333	0,5	0,224550
16,933667	0,5	0,217250
16,942000	0,5	0,215600
16,950333	0,5	0,193100
16,958667	0,5	0,183650
16,967000	0,5	0,169250
16,975333	0,5	0,140350
16,983667	0,5	0,114550
16,992000	0,5	0,080250
17,000333	0,5	0,034600
17,008667	0,5	0,021100
17,017000	0,5	0,019450
17,025333	0,5	0,035050
17,033667	0,5	0,079950
17,042000	0,5	0,141900
17,050333	0,5	0,233300
17,058667	0,5	0,333700
17,067000	0,5	0,401950
17,075333	0,5	0,417300
17,083667	0,5	0,420700
17,092000	0,5	0,388400
17,100333	0,5	0,357250
17,108667	0,5	0,314700
17,117000	0,5	0,261700
17,125333	0,5	0,201750
17,133667	0,5	0,140050
17,142000	0,5	0,085850
17,150333	0,5	0,042800
17,158667	0,5	0,026450
17,167000	0,5	0,013450
17,175333	0,5	0,002750
17,183667	0,5	-0,018450
17,192000	0,5	-0,036600
17,200333	0,5	-0,046500
17,208667	0,5	-0,043350
17,217000	0,5	-0,049000
17,225333	0,5	-0,057800
17,233667	0,5	-0,075700
17,242000	0,5	-0,094450
17,250333	0,5	-0,117150
17,258667	0,5	-0,122250
17,267000	0,5	-0,133850
17,275333	0,5	-0,127150
17,283667	0,5	-0,120450
17,292000	0,5	-0,115250
17,300333	0,5	-0,068650
17,308667	0,5	-0,005300
17,317000	0,5	0,084750
17,325333	0,5	0,197950
17,333667	0,5	0,339750
17,342000	0,5	0,510400
17,350333	0,5	0,704450
17,358667	0,5	0,870050
17,367000	0,5	1,041950
17,375333	0,5	1,216300
17,383667	0,5	1,392350
17,392000	0,5	1,553650
17,400333	0,5	1,721800
17,408667	0,5	1,863550
17,417000	0,5	2,000500
17,425333	0,5	2,128200
17,433667	0,5	2,246250
17,442000	0,5	2,331350
17,450333	0,5	2,440500
17,458667	0,5	2,502900
17,467000	0,5	2,525950
17,475333	0,5	2,489500
17,483667	0,5	2,382600
17,492000	0,5	2,257200
17,500333	0,5	2,076750
17,508667	0,5	1,858750
17,517000	0,5	1,622650
17,525333	0,5	1,403300
17,533667	0,5	1,205950
17,542000	0,5	1,044350
17,550333	0,5	0,922450
17,558667	0,5	0,836750
17,567000	0,5	0,787300
17,575333	0,5	0,798750
17,583667	0,5	0,830550
17,592000	0,5	0,882050
17,600333	0,5	0,955900
17,608667	0,5	0,993000
17,617000	0,5	0,981550
17,625333	0,5	0,936300
17,633667	0,5	0,873050
17,642000	0,5	0,829200
17,650333	0,5	0,768550
17,658667	0,5	0,714050
17,667000	0,5	0,667350
17,675333	0,5	0,644900
17,683667	0,5	0,628850
17,692000	0,5	0,639150
17,700333	0,5	0,647600
17,708667	0,5	0,648700
17,717000	0,5	0,645550
17,725333	0,5	0,635700
17,733667	0,5	0,602700
17,742000	0,5	0,573250
17,750333	0,5	0,528200
17,758667	0,5	0,460650
17,767000	0,5	0,382300
17,775333	0,5	0,286000
17,783667	0,5	0,228700
17,792000	0,5	0,192450
17,800333	0,5	0,160950
17,808667	0,5	0,145100
17,817000	0,5	0,159150
17,825333	0,5	0,193700
17,833667	0,5	0,232050
17,842000	0,5	0,271650
17,850333	0,5	0,281550
17,858667	0,5	0,269450
17,867000	0,5	0,226300
17,875333	0,5	0,192400
17,883667	0,5	0,118400
17,892000	0,5	0,077100
17,900333	0,5	0,020300
17,908667	0,5	-0,020750
17,917000	0,5	-0,070950
17,925333	0,5	-0,114850
17,933667	0,5	-0,137350
17,942000	0,5	-0,151600
17,950333	0,5	-0,184250
17,958667	0,5	-0,199500
17,967000	0,5	-0,220950
17,975333	0,5	-0,239850
17,983667	0,5	-0,246400
17,992000	0,5	-0,260550
18,000333	0,5	-0,263600
18,008667	0,5	-0,267950
18,017000	0,5	-0,250150
18,025333	0,5	-0,230650
18,033667	0,5	-0,197000
18,042000	0,5	-0,130650
18,050333	0,5	-0,073450
18,058667	0,5	-0,046500
18,067000	0,5	-0,036550
18,075333	0,5	-0,058550
18,083667	0,5	-0,065950
18,092000	0,5	-0,097850
18,100333	0,5	-0,126350
18,108667	0,5	-0,173600
18,117000	0,5	-0,206800
18,125333	0,5	-0,246200
18,133667	0,5	-0,264700
18,142000	0,5	-0,288550
18,150333	0,5	-0,313850
18,158667	0,5	-0,317200
18,167000	0,5	-0,332900
18,175333	0,5	-0,359900
18,183667	0,5	-0,355050
18,192000	0,5	-0,336750
18,200333	0,5	-0,338050
18,208667	0,5	-0,336150
18,217000	0,5	-0,340900
18,225333	0,5	-0,307750
18,233667	0,5	-0,268700
18,242000	0,5	-0,213550
18,250333	0,5	-0,174750
18,258667	0,5	-0,146150
18,267000	0,5	-0,141300
18,275333	0,5	-0,166100
18,283667	0,5	-0,202900
18,292000	0,5	-0,233150
18,300333	0,5	-0,264650
18,308667	0,5	-0,296450
18,317000	0,5	-0,324200
18,325333	0,5	-0,345100
18,333667	0,5	-0,346350
18,342000	0,5	-0,351150
18,350333	0,5	-0,365300
18,358667	0,5	-0,386050
18,367000	0,5	-0,397550
18,375333	0,5	-0,393950
18,383667	0,5	-0,373850
18,392000	0,5	-0,367050
18,400333	0,5	-0,323300
18,408667	0,5	-0,287750
18,417000	0,5	-0,236800
18,425333	0,5	-0,190650
18,433667	0,5	-0,152150
18,442000	0,5	-0,143600
18,450333	0,5	-0,143350
18,458667	0,5	-0,150550
18,467000	0,5	-0,177350
18,475333	0,5	-0,196100
18,483667	0,5	-0,205850
18,492000	0,5	-0,202700
18,500333	0,5	-0,231100
18,508667	0,5	-0,260050
18,517000	0,5	-0,274400
18,525333	0,5	-0,278400
18,533667	0,5	-0,291800
18,542000	0,5	-0,299150
18,550333	0,5	-0,301050
18,558667	0,5	-0,288100
18,567000	0,5	-0,278500
18,575333	0,5	-0,250400
18,583667	0,5	-0,229900
18,592000	0,5	-0,208150
18,600333	0,5	-0,176800
18,608667	0,5	-0,169250
18,617000	0,5	-0,202850
18,625333	0,5	-0,211000
18,633667	0,5	-0,230700
18,642000	0,5	-0,248950
18,650333	0,5	-0,270500
18,658667	0,5	-0,318900
18,667000	0,5	-0,309950
18,675333	0,5	-0,319800
18,683667	0,5	-0,317350
18,692000	0,5	-0,326700
18,700333	0,5	-0,311950
18,708667	0,5	-0,320150
18,717000	0,5	-0,307250
18,725333	0,5	-0,299800
18,733667	0,5	-0,284300
18,742000	0,5	-0,272000
18,750333	0,5	-0,242400
18,758667	0,5	-0,238750
18,767000	0,5	-0,254300
18,775333	0,5	-0,249900
18,783667	0,5	-0,265450
18,792000	0,5	-0,294600
18,800333	0,5	-0,333700
18,808667	0,5	-0,363850
18,817000	0,5	-0,361000
18,825333	0,5	-0,365250
18,833667	0,5	-0,372600
18,842000	0,5	-0,373650
18,850333	0,5	-0,386100
18,858667	0,5	-0,381850
18,867000	0,5	-0,376850
18,875333	0,5	-0,349800
18,883667	0,5	-0,332350
18,892000	0,5	-0,319800
18,900333	0,5	-0,306750
18,908667	0,5	-0,315000
18,917000	0,5	-0,335000
18,925333	0,5	-0,333900
18,933667	0,5	-0,342000
18,942000	0,5	-0,351550
18,950333	0,5	-0,370150
18,958667	0,5	-0,377200
18,967000	0,5	-0,351650
18,975333	0,5	-0,331250
18,983667	0,5	-0,307250
18,992000	0,5	-0,273300
19,000333	0,5	-0,238950
19,008667	0,5	-0,205700
19,017000	0,5	-0,171900
19,025333	0,5	-0,171050
19,033667	0,5	-0,179750
19,042000	0,5	-0,189350
19,050333	0,5	-0,207900
19,058667	0,5	-0,244900
19,067000	0,5	-0,255900
19,075333	0,5	-0,272200
19,083667	0,5	-0,275200
19,092000	0,5	-0,296050
19,100333	0,5	-0,308500
19,108667	0,5	-0,291500
19,117000	0,5	-0,260650
19,125333	0,5	-0,247000
19,133667	0,5	-0,230150
19,142000	0,5	-0,233600
19,150333	0,5	-0,247600
19,158667	0,5	-0,268150
19,167000	0,5	-0,292600
19,175333	0,5	-0,312150
19,183667	0,5	-0,336250
19,192000	0,5	-0,328850
19,200333	0,5	-0,365300
19,208667	0,5	-0,363550
19,217000	0,5	-0,363500
19,225333	0,5	-0,364650
19,233667	0,5	-0,377150
19,242000	0,5	-0,406700
19,250333	0,5	-0,431900
19,258667	0,5	-0,445000
19,267000	0,5	-0,454300
19,275333	0,5	-0,467750
19,283667	0,5	-0,481950
19,292000	0,5	-0,493750
19,300333	0,5	-0,512900
19,308667	0,5	-0,521400
19,317000	0,5	-0,524300
19,325333	0,5	-0,539850
19,333667	0,5	-0,544050
19,342000	0,5	-0,556400
19,350333	0,5	-0,586500
19,358667	0,5	-0,602350
19,367000	0,5	-0,617450
19,375333	0,5	-0,650700
19,383667	0,5	-0,673800
19,392000	0,5	-0,724650
19,400333	0,5	-0,730800
19,408667	0,5	-0,737550
19,417000	0,5	-0,740550
19,425333	0,5	-0,750200
19,433667	0,5	-0,756000
19,442000	0,5	-0,770000
19,450333	0,5	-0,790050
19,458667	0,5	-0,802950
19,467000	0,5	-0,821250
19,475333	0,5	-0,829750
19,483667	0,5	-0,831150
19,492000	0,5	-0,836600
19,500333	0,5	-0,857350
19,508667	0,5	-0,852650
19,517000	0,5	-0,869800
19,525333	0,5	-0,885500
19,533667	0,5	-0,916550
19,542000	0,5	-0,940100
19,550333	0,5	-0,944000
19,558667	0,5	-0,939750
19,567000	0,5	-0,963900
19,575333	0,5	-0,966700
19,583667	0,5	-0,983600
19,592000	0,5	-0,984850
19,600333	0,5	-0,990200
19,608667	0,5	-0,998550
19,617000	0,5	-1,006450
19,625333	0,5	-1,018400
19,633667	0,5	-1,013600
19,642000	0,5	-1,031300
19,650333	0,5	-1,023750
19,658667	0,5	-1,012850
19,667000	0,5	-1,011800
19,675333	0,5	-1,027600
19,683667	0,5	-1,049200
19,692000	0,5	-1,075350
19,700333	0,5	-1,062200
19,708667	0,5	-1,079650
19,717000	0,5	-1,086350
19,725333	0,5	-1,091700
19,733667	0,5	-1,097100
19,742000	0,5	-1,113200
19,750333	0,5	-1,115100
19,758667	0,5	-1,136000
19,767000	0,5	-1,151300
19,775333	0,5	-1,152250
19,783667	0,5	-1,155200
19,792000	0,5	-1,189050
19,800333	0,5	-1,174800
19,808667	0,5	-1,183000
19,817000	0,5	-1,201650
19,825333	0,5	-1,211500
19,833667	0,5	-1,244200
19,842000	0,5	-1,228550
19,850333	0,5	-1,230600
19,858667	0,5	-1,237000
19,867000	0,5	-1,245850
19,875333	0,5	-1,252350
19,883667	0,5	-1,267450
19,892000	0,5	-1,268900
19,900333	0,5	-1,277200
19,908667	0,5	-1,293100
19,917000	0,5	-1,316050
19,925333	0,5	-1,334900
19,933667	0,5	-1,346250
19,942000	0,5	-1,360950
19,950333	0,5	-1,355650
19,958667	0,5	-1,367500
19,967000	0,5	-1,380850
19,975333	0,5	-1,410600
19,983667	0,5	-1,434400
19,992000	0,5	-1,448500
20,000333	0,5	-1,450300
20,008667	0,5	-1,463700
20,017000	0,5	-1,457300
20,025333	0,5	-1,473800
20,033667	0,5	-1,471000
20,042000	0,5	-1,476850
20,050333	0,5	-1,474000
20,058667	0,5	-1,471650
20,067000	0,5	-1,467900
20,075333	0,5	-1,462500
20,083667	0,5	-1,470650
20,092000	0,5	-1,465900
20,100333	0,5	-1,455200
20,108667	0,5	-1,465500
20,117000	0,5	-1,492000
20,125333	0,5	-1,522150
20,133667	0,5	-1,554600
20,142000	0,5	-1,551400
20,150333	0,5	-1,572250
20,158667	0,5	-1,580700
20,167000	0,5	-1,605600
20,175333	0,5	-1,618400
20,183667	0,5	-1,645750
20,192000	0,5	-1,655000
20,200333	0,5	-1,673050
20,208667	0,5	-1,697400
20,217000	0,5	-1,699600
20,225333	0,5	-1,717950
20,233667	0,5	-1,749150
20,242000	0,5	-1,754550
20,250333	0,5	-1,763900
20,258667	0,5	-1,782900
20,267000	0,5	-1,815000
20,275333	0,5	-1,846150
20,283667	0,5	-1,845750
20,292000	0,5	-1,866150
20,300333	0,5	-1,874700
20,308667	0,5	-1,893250
20,317000	0,5	-1,891700
20,325333	0,5	-1,922350
20,333667	0,5	-1,923750
20,342000	0,5	-1,926850
20,350333	0,5	-1,938000
20,358667	0,5	-1,939450
20,367000	0,5	-1,927400
20,375333	0,5	-1,959600
20,383667	0,5	-1,959850
20,392000	0,5	-1,956150
20,400333	0,5	-1,966250
20,408667	0,5	-1,984100
20,417000	0,5	-2,028250
20,425333	0,5	-2,037450
20,433667	0,5	-2,061400
20,442000	0,5	-2,066650
20,450333	0,5	-2,090450
20,458667	0,5	-2,101650
20,467000	0,5	-2,129050
20,475333	0,5	-2,148200
20,483667	0,5	-2,187450
20,492000	0,5	-2,209850
20,500333	0,5	-2,246950
20,508667	0,5	-2,249500
20,517000	0,5	-2,259900
20,525333	0,5	-2,300800
20,533667	0,5	-2,326550
20,542000	0,5	-2,344450
20,550333	0,5	-2,365150
20,558667	0,5	-2,406750
20,567000	0,5	-2,447300
20,575333	0,5	-2,454650
20,583667	0,5	-2,456100
20,592000	0,5	-2,492150
20,600333	0,5	-2,511000
20,608667	0,5	-2,538900
20,617000	0,5	-2,561750
20,625333	0,5	-2,589200
20,633667	0,5	-2,603150
20,642000	0,5	-2,633300
20,650333	0,5	-2,632050
20,658667	0,5	-2,611500
20,667000	0,5	-2,615850
20,675333	0,5	-2,644650
20,683667	0,5	-2,671800
20,692000	0,5	-2,713950
20,700333	0,5	-2,768050
20,708667	0,5	-2,839700
20,717000	0,5	-2,893500
20,725333	0,5	-2,914600
20,733667	0,5	-2,952750
20,742000	0,5	-2,999400
20,750333	0,5	-3,030550
20,758667	0,5	-3,060800
20,767000	0,5	-3,090250
20,775333	0,5	-3,123300
20,783667	0,5	-3,154450
20,792000	0,5	-3,185350
20,800333	0,5	-3,192050
20,808667	0,5	-3,185750
20,817000	0,5	-3,194500
20,825333	0,5	-3,188950
20,833667	0,5	-3,192800
20,842000	0,5	-3,212800
20,850333	0,5	-3,270900
20,858667	0,5	-3,337350
20,867000	0,5	-3,381350
20,875333	0,5	-3,434650
20,883667	0,5	-3,488250
20,892000	0,5	-3,547700
20,900333	0,5	-3,589950
20,908667	0,5	-3,643950
20,917000	0,5	-3,683150
20,925333	0,5	-3,721750
20,933667	0,5	-3,753400
20,942000	0,5	-3,797500
20,950333	0,5	-3,802450
20,958667	0,5	-3,828200
20,967000	0,5	-3,867300
20,975333	0,5	-3,889200
20,983667	0,5	-3,917350
20,992000	0,5	-3,942250
21,000333	0,5	-3,997850
21,008667	0,5	-4,054100
21,017000	0,5	-4,092500
21,025333	0,5	-4,130250
21,033667	0,5	-4,172100
21,042000	0,5	-4,207500
21,050333	0,5	-4,241550
21,058667	0,5	-4,277300
21,067000	0,5	-4,301300
21,075333	0,5	-4,329900
21,083667	0,5	-4,370400
21,092000	0,5	-4,374550
21,100333	0,5	-4,384050
21,108667	0,5	-4,396200
21,117000	0,5	-4,432650
21,125333	0,5	-4,451000
21,133667	0,5	-4,495600
21,142000	0,5	-4,547850
21,150333	0,5	-4,602300
21,158667	0,5	-4,641800
21,167000	0,5	-4,650950
21,175333	0,5	-4,676700
21,183667	0,5	-4,700950
21,192000	0,5	-4,730000
21,200333	0,5	-4,751600
21,208667	0,5	-4,779350
21,217000	0,5	-4,791200
21,225333	0,5	-4,821600
21,233667	0,5	-4,845250
21,242000	0,5	-4,833100
21,250333	0,5	-4,831700
21,258667	0,5	-4,858450
21,267000	0,5	-4,881300
21,275333	0,5	-4,906350
21,283667	0,5	-4,939900
21,292000	0,5	-4,979150
21,300333	0,5	-5,015050
21,308667	0,5	-5,015750
21,317000	0,5	-5,036850
21,325333	0,5	-5,058000
21,333667	0,5	-5,074650
21,342000	0,5	-5,081850
21,350333	0,5	-5,094600
21,358667	0,5	-5,090100
21,367000	0,5	-5,098550
21,375333	0,5	-5,098450
21,383667	0,5	-5,102900
21,392000	0,5	-5,083250
21,400333	0,5	-5,093650
21,408667	0,5	-5,128250
21,417000	0,5	-5,160000
21,425333	0,5	-5,181500
21,433667	0,5	-5,217250
21,442000	0,5	-5,279250
21,450333	0,5	-5,295050
21,458667	0,5	-5,309150
21,467000	0,5	-5,338950
21,475333	0,5	-5,363250
21,483667	0,5	-5,375100
21,492000	0,5	-5,403000
21,500333	0,5	-5,406000
21,508667	0,5	-5,422850
21,517000	0,5	-5,441000
21,525333	0,5	-5,458850
21,533667	0,5	-5,443000
21,542000	0,5	-5,427500
21,550333	0,5	-5,453300
21,558667	0,5	-5,469900
21,567000	0,5	-5,510750
21,575333	0,5	-5,540400
21,583667	0,5	-5,569300
21,592000	0,5	-5,602550
21,600333	0,5	-5,610700
21,608667	0,5	-5,615500
21,617000	0,5	-5,643450
21,625333	0,5	-5,648650
21,633667	0,5	-5,667950
21,642000	0,5	-5,676750
21,650333	0,5	-5,697150
21,658667	0,5	-5,700600
21,667000	0,5	-5,720550
21,675333	0,5	-5,716600
21,683667	0,5	-5,692250
21,692000	0,5	-5,682950
21,700333	0,5	-5,702800
21,708667	0,5	-5,713800
21,717000	0,5	-5,714800
21,725333	0,5	-5,722650
21,733667	0,5	-5,745550
21,742000	0,5	-5,747500
21,750333	0,5	-5,759150
21,758667	0,5	-5,785600
21,767000	0,5	-5,818800
21,775333	0,5	-5,843100
21,783667	0,5	-5,865350
21,792000	0,5	-5,880700
21,800333	0,5	-5,897150
21,808667	0,5	-5,907450
21,817000	0,5	-5,928400
21,825333	0,5	-5,916650
21,833667	0,5	-5,925650
21,842000	0,5	-5,952050
21,850333	0,5	-5,958050
21,858667	0,5	-5,984050
21,867000	0,5	-5,998550
21,875333	0,5	-6,029550
21,883667	0,5	-6,056050
21,892000	0,5	-6,037400
21,900333	0,5	-6,028000
21,908667	0,5	-6,029000
21,917000	0,5	-6,034150
21,925333	0,5	-6,037000
21,933667	0,5	-6,039800
21,942000	0,5	-6,045400
21,950333	0,5	-6,044200
21,958667	0,5	-6,033900
21,967000	0,5	-6,028500
21,975333	0,5	-5,997250
21,983667	0,5	-5,989250
21,992000	0,5	-5,952450
22,000333	0,5	-5,894000
22,008667	0,5	-5,881200
22,017000	0,5	-5,879100
22,025333	0,5	-5,903150
22,033667	0,5	-5,931550
22,042000	0,5	-5,936700
22,050333	0,5	-5,951000
22,058667	0,5	-5,964300
22,067000	0,5	-5,968650
22,075333	0,5	-5,977050
22,083667	0,5	-5,983400
22,092000	0,5	-5,978900
22,100333	0,5	-5,984000
22,108667	0,5	-6,004250
22,117000	0,5	-5,993750
22,125333	0,5	-6,009350
22,133667	0,5	-6,021650
22,142000	0,5	-6,029650
22,150333	0,5	-6,029100
22,158667	0,5	-6,045700
22,167000	0,5	-6,081850
22,175333	0,5	-6,107600
22,183667	0,5	-6,131500
22,192000	0,5	-6,135650
22,200333	0,5	-6,153000
22,208667	0,5	-6,160450
22,217000	0,5	-6,179050
22,225333	0,5	-6,199650
22,233667	0,5	-6,213200
22,242000	0,5	-6,227050
22,250333	0,5	-6,250700
22,258667	0,5	-6,271350
22,267000	0,5	-6,285150
22,275333	0,5	-6,315450
22,283667	0,5	-6,318150
22,292000	0,5	-6,320450
22,300333	0,5	-6,331050
22,308667	0,5	-6,341450
22,317000	0,5	-6,365900
22,325333	0,5	-6,375250
22,333667	0,5	-6,357850
22,342000	0,5	-6,363300
22,350333	0,5	-6,350500
22,358667	0,5	-6,342250
22,367000	0,5	-6,327550
22,375333	0,5	-6,316150
22,383667	0,5	-6,294850
22,392000	0,5	-6,279600
22,400333	0,5	-6,248500
22,408667	0,5	-6,214900
22,417000	0,5	-6,171650
22,425333	0,5	-6,128650
22,433667	0,5	-6,084600
22,442000	0,5	-6,112400
22,450333	0,5	-6,156150
22,458667	0,5	-6,218250
22,467000	0,5	-6,275400
22,475333	0,5	-6,290650
22,483667	0,5	-6,308350
22,492000	0,5	-6,330000
22,500333	0,5	-6,341850
22,508667	0,5	-6,348050
22,517000	0,5	-6,362750
22,525333	0,5	-6,372900
22,533667	0,5	-6,368050
22,542000	0,5	-6,378750
22,550333	0,5	-6,393150
22,558667	0,5	-6,419600
22,567000	0,5	-6,438950
22,575333	0,5	-6,402050
22,583667	0,5	-6,394400
22,592000	0,5	-6,397250
22,600333	0,5	-6,394100
22,608667	0,5	-6,406050
22,617000	0,5	-6,380900
22,625333	0,5	-6,361950
22,633667	0,5	-6,348250
22,642000	0,5	-6,320550
22,650333	0,5	-6,302850
22,658667	0,5	-6,283100
22,667000	0,5	-6,247100
22,675333	0,5	-6,229300
22,683667	0,5	-6,199450
22,692000	0,5	-6,205450
22,700333	0,5	-6,234850
22,708667	0,5	-6,239450
22,717000	0,5	-6,241950
22,725333	0,5	-6,224400
22,733667	0,5	-6,237900
22,742000	0,5	-6,253900
22,750333	0,5	-6,295600
22,758667	0,5	-6,336650
22,767000	0,5	-6,356850
22,775333	0,5	-6,369850
22,783667	0,5	-6,385850
22,792000	0,5	-6,424350
22,800333	0,5	-6,439650
22,808667	0,5	-6,452550
22,817000	0,5	-6,466250
22,825333	0,5	-6,466950
22,833667	0,5	-6,496400
22,842000	0,5	-6,516650
22,850333	0,5	-6,608750
22,858667	0,5	-6,599100
22,867000	0,5	-6,608000
22,875333	0,5	-6,613550
22,883667	0,5	-6,644350
22,892000	0,5	-6,677650
22,900333	0,5	-6,714300
22,908667	0,5	-6,751700
22,917000	0,5	-6,789550
22,925333	0,5	-6,808450
22,933667	0,5	-6,848750
22,942000	0,5	-6,854850
22,950333	0,5	-6,883450
22,958667	0,5	-6,891500
22,967000	0,5	-6,906200
22,975333	0,5	-6,905550
22,983667	0,5	-6,911100
22,992000	0,5	-6,872000
23,000333	0,5	-6,902150
23,008667	0,5	-6,877250
23,017000	0,5	-6,890450
23,025333	0,5	-6,893550
23,033667	0,5	-6,881500
23,042000	0,5	-6,854650
23,050333	0,5	-6,827550
23,058667	0,5	-6,820250
23,067000	0,5	-6,802250
23,075333	0,5	-6,776500
23,083667	0,5	-6,730450
23,092000	0,5	-6,689250
23,100333	0,5	-6,644350
23,108667	0,5	-6,607800
23,117000	0,5	-6,541750
23,125333	0,5	-6,485200
23,133667	0,5	-6,413100
23,142000	0,5	-6,296950
23,150333	0,5	-6,248800
23,158667	0,5	-6,198700
23,167000	0,5	-6,160650
23,175333	0,5	-6,101750
23,183667	0,5	-6,028200
23,192000	0,5	-5,939650
23,200333	0,5	-5,870500
23,208667	0,5	-5,809350
23,217000	0,5	-5,755050
23,225333	0,5	-5,682900
23,233667	0,5	-5,626300
23,242000	0,5	-5,546300
23,250333	0,5	-5,466450
23,258667	0,5	-5,385400
23,267000	0,5	-5,302400
23,275333	0,5	-5,208150
23,283667	0,5	-5,100900
23,292000	0,5	-5,037350
23,300333	0,5	-4,924400
23,308667	0,5	-4,850050
23,317000	0,5	-4,810150
23,325333	0,5	-4,736750
23,333667	0,5	-4,665200
23,342000	0,5	-4,569550
23,350333	0,5	-4,518300
23,358667	0,5	-4,453850
23,367000	0,5	-4,392450
23,375333	0,5	-4,322150
23,383667	0,5	-4,262950
23,392000	0,5	-4,194850
23,400333	0,5	-4,118950
23,408667	0,5	-4,054250
23,417000	0,5	-3,985700
23,425333	0,5	-3,923200
23,433667	0,5	-3,859100
23,442000	0,5	-3,793350
23,450333	0,5	-3,708600
23,458667	0,5	-3,633050
23,467000	0,5	-3,586100
23,475333	0,5	-3,534150
23,483667	0,5	-3,471850
23,492000	0,5	-3,413200
23,500333	0,5	-3,361250
23,508667	0,5	-3,326050
23,517000	0,5	-3,280000
23,525333	0,5	-3,241950
23,533667	0,5	-3,197300
23,542000	0,5	-3,158050
23,550333	0,5	-3,111900
23,558667	0,5	-3,070050
23,567000	0,5	-3,030050
23,575333	0,5	-2,980000
23,583667	0,5	-3,050300
23,592000	0,5	-2,992550
23,600333	0,5	-2,914000
23,608667	0,5	-2,848050
23,617000	0,5	-2,816100
23,625333	0,5	-2,775750
23,633667	0,5	-2,749900
23,642000	0,5	-2,712550
23,650333	0,5	-2,690700
23,658667	0,5	-2,656400
23,667000	0,5	-2,629100
23,675333	0,5	-2,598250
23,683667	0,5	-2,572900
23,692000	0,5	-2,544900
23,700333	0,5	-2,514450
23,708667	0,5	-2,484900
23,717000	0,5	-2,454650
23,725333	0,5	-2,490600
23,733667	0,5	-2,557150
23,742000	0,5	-2,510650
23,750333	0,5	-2,425650
23,758667	0,5	-2,370950
23,767000	0,5	-2,334200
23,775333	0,5	-2,314700
23,783667	0,5	-2,288400
23,792000	0,5	-2,274750
23,800333	0,5	-2,254050
23,808667	0,5	-2,232100
23,817000	0,5	-2,213100
23,825333	0,5	-2,182150
23,833667	0,5	-2,158450
23,842000	0,5	-2,131350
23,850333	0,5	-2,102300
23,858667	0,5	-2,076700
23,867000	0,5	-2,048500
23,875333	0,5	-2,202450
23,883667	0,5	-2,169150
23,892000	0,5	-2,119800
23,900333	0,5	-2,031050
23,908667	0,5	-1,981500
23,917000	0,5	-1,952150
23,925333	0,5	-1,924050
23,933667	0,5	-1,916800
23,942000	0,5	-1,895650
23,950333	0,5	-1,860300
23,958667	0,5	-1,841900
23,967000	0,5	-1,814000
23,975333	0,5	-1,792750
23,983667	0,5	-1,770950
23,992000	0,5	-1,748400
24,000333	0,5	-1,722500
24,008667	0,5	-1,708150
24,017000	0,5	-1,706400
24,025333	0,5	-1,853800
24,033667	0,5	-1,804450
24,042000	0,5	-1,751900
24,050333	0,5	-1,671000
24,058667	0,5	-1,631400
24,067000	0,5	-1,598450
24,075333	0,5	-1,583350
24,083667	0,5	-1,576600
24,092000	0,5	-1,539900
24,100333	0,5	-1,509950
24,108667	0,5	-1,493650
24,117000	0,5	-1,465200
24,125333	0,5	-1,438900
24,133667	0,5	-1,412600
24,142000	0,5	-1,384350
24,150333	0,5	-1,357450
24,158667	0,5	-1,336800
24,167000	0,5	-1,403250
24,175333	0,5	-1,449450
24,183667	0,5	-1,428150
24,192000	0,5	-1,357450
24,200333	0,5	-1,303050
24,208667	0,5	-1,279550
24,217000	0,5	-1,260000
24,225333	0,5	-1,262550
24,233667	0,5	-1,244050
24,242000	0,5	-1,219800
24,250333	0,5	-1,192700
24,258667	0,5	-1,167550
24,267000	0,5	-1,146000
24,275333	0,5	-1,118650
24,283667	0,5	-1,095650
24,292000	0,5	-1,070250
24,300333	0,5	-1,049000
24,308667	0,5	-1,032000
24,317000	0,5	-1,140650
24,325333	0,5	-1,124950
24,333667	0,5	-1,086650
24,342000	0,5	-1,028450
24,350333	0,5	-0,988050
24,358667	0,5	-0,963450
24,367000	0,5	-0,949150
24,375333	0,5	-0,949700
24,383667	0,5	-0,927300
24,392000	0,5	-0,908050
24,400333	0,5	-0,888600
24,408667	0,5	-0,872500
24,417000	0,5	-0,867450
24,425333	0,5	-0,850350
24,433667	0,5	-0,832900
24,442000	0,5	-0,808800
24,450333	0,5	-0,798700
24,458667	0,5	-0,800450
24,467000	0,5	-0,873100
24,475333	0,5	-0,850600
24,483667	0,5	-0,822150
24,492000	0,5	-0,778000
24,500333	0,5	-0,752850
24,508667	0,5	-0,737000
24,517000	0,5	-0,740450
24,525333	0,5	-0,729950
24,533667	0,5	-0,707450
24,542000	0,5	-0,684000
24,550333	0,5	-0,674250
24,558667	0,5	-0,656150
24,567000	0,5	-0,643400
24,575333	0,5	-0,626850
24,583667	0,5	-0,609650
24,592000	0,5	-0,597950
24,600333	0,5	-0,587500
24,608667	0,5	-0,640650
24,617000	0,5	-0,642600
24,625333	0,5	-0,636150
24,633667	0,5	-0,601700
24,642000	0,5	-0,578150
24,650333	0,5	-0,569700
24,658667	0,5	-0,560350
24,667000	0,5	-0,562000
24,675333	0,5	-0,556100
24,683667	0,5	-0,538900
24,692000	0,5	-0,535100
24,700333	0,5	-0,521350
24,708667	0,5	-0,515800
24,717000	0,5	-0,508500
24,725333	0,5	-0,510400
24,733667	0,5	-0,486500
24,742000	0,5	-0,478850
24,750333	0,5	-0,472500
24,758667	0,5	-0,513500
24,767000	0,5	-0,498950
24,775333	0,5	-0,490500
24,783667	0,5	-0,460900
24,792000	0,5	-0,445500
24,800333	0,5	-0,439800
24,808667	0,5	-0,435350
24,817000	0,5	-0,448250
24,825333	0,5	-0,434950
24,833667	0,5	-0,430850
24,842000	0,5	-0,426850
24,850333	0,5	-0,418600
24,858667	0,5	-0,413100
24,867000	0,5	-0,410950
24,875333	0,5	-0,404800
24,883667	0,5	-0,397100
24,892000	0,5	-0,396200
24,900333	0,5	-0,402650
24,908667	0,5	-0,422050
24,917000	0,5	-0,410550
24,925333	0,5	-0,401750
24,933667	0,5	-0,385700
24,942000	0,5	-0,374650
24,950333	0,5	-0,363250
24,958667	0,5	-0,366850
24,967000	0,5	-0,366500
24,975333	0,5	-0,360050
24,983667	0,5	-0,352400
24,992000	0,5	-0,346250
25,000333	0,5	-0,337850
25,008667	0,5	-0,339950
25,017000	0,5	-0,333350
25,025333	0,5	-0,337050
25,033667	0,5	-0,329650
25,042000	0,5	-0,328800
25,050333	0,5	-0,339800
25,058667	0,5	-0,342000
25,067000	0,5	-0,340850
25,075333	0,5	-0,334700
25,083667	0,5	-0,326550
25,092000	0,5	-0,324150
25,100333	0,5	-0,321750
25,108667	0,5	-0,325100
25,117000	0,5	-0,321150
25,125333	0,5	-0,321700
25,133667	0,5	-0,318100
25,142000	0,5	-0,315650
25,150333	0,5	-0,312750
25,158667	0,5	-0,300600
25,167000	0,5	-0,301300
25,175333	0,5	-0,294350
25,183667	0,5	-0,296200
25,192000	0,5	-0,291750
25,200333	0,5	-0,298050
25,208667	0,5	-0,295950
25,217000	0,5	-0,293950
25,225333	0,5	-0,293050
25,233667	0,5	-0,291050
25,242000	0,5	-0,287850
25,250333	0,5	-0,292800
25,258667	0,5	-0,296250
25,267000	0,5	-0,296800
25,275333	0,5	-0,294600
25,283667	0,5	-0,296800
25,292000	0,5	-0,298150
25,300333	0,5	-0,292900
25,308667	0,5	-0,293350
25,317000	0,5	-0,292500
25,325333	0,5	-0,284400
25,333667	0,5	-0,287250
25,342000	0,5	-0,284900
25,350333	0,5	-0,278550
25,358667	0,5	-0,281200
25,367000	0,5	-0,274800
25,375333	0,5	-0,279100
25,383667	0,5	-0,270750
25,392000	0,5	-0,273650
25,400333	0,5	-0,272900
25,408667	0,5	-0,274400
25,417000	0,5	-0,276900
25,425333	0,5	-0,278600
25,433667	0,5	-0,282350
25,442000	0,5	-0,285900
25,450333	0,5	-0,284500
25,458667	0,5	-0,285200
25,467000	0,5	-0,283100
25,475333	0,5	-0,281750
25,483667	0,5	-0,283150
25,492000	0,5	-0,279500
25,500333	0,5	-0,279250
25,508667	0,5	-0,275500
25,517000	0,5	-0,273300
25,525333	0,5	-0,275500
25,533667	0,5	-0,278500
25,542000	0,5	-0,276000
25,550333	0,5	-0,272500
25,558667	0,5	-0,269700
25,567000	0,5	-0,277100
25,575333	0,5	-0,275450
25,583667	0,5	-0,274550
25,592000	0,5	-0,277450
25,600333	0,5	-0,279550
25,608667	0,5	-0,276900
25,617000	0,5	-0,280450
25,625333	0,5	-0,282500
25,633667	0,5	-0,282750
25,642000	0,5	-0,275050
25,650333	0,5	-0,276900
25,658667	0,5	-0,273000
25,667000	0,5	-0,288750
25,675333	0,5	-0,284250
25,683667	0,5	-0,289450
25,692000	0,5	-0,290000
25,700333	0,5	-0,280350
25,708667	0,5	-0,281000
25,717000	0,5	-0,285150
25,725333	0,5	-0,285500
25,733667	0,5	-0,290450
25,742000	0,5	-0,287950
25,750333	0,5	-0,286150
25,758667	0,5	-0,284550
25,767000	0,5	-0,289850
25,775333	0,5	-0,290750
25,783667	0,5	-0,283400
25,792000	0,5	-0,276450
25,800333	0,5	-0,280050
25,808667	0,5	-0,277100
25,817000	0,5	-0,291350
25,825333	0,5	-0,288450
25,833667	0,5	-0,286750
25,842000	0,5	-0,284450
25,850333	0,5	-0,269800
25,858667	0,5	-0,280750
25,867000	0,5	-0,282300
25,875333	0,5	-0,282350
25,883667	0,5	-0,281500
25,892000	0,5	-0,282650
25,900333	0,5	-0,283800
25,908667	0,5	-0,287800
25,917000	0,5	-0,284650
25,925333	0,5	-0,283350
25,933667	0,5	-0,275050
25,942000	0,5	-0,271900
25,950333	0,5	-0,266700
25,958667	0,5	-0,273150
25,967000	0,5	-0,278600
25,975333	0,5	-0,278000
25,983667	0,5	-0,272900
25,992000	0,5	-0,266350
26,000333	0,5	-0,260400
