File Path	chrom://chromeleon01/ikbm_chromeleon/2022/ICS-5000/ED1/Esteban/20220427_Cell_Amandas_mutants.seq/608.smp/ED_1.channel/ED_1.chm
Channel	ED_1

Injection Information:
Data Vault	ikbm_chromeleon
Injection	EG_BMCC_4a
Injection Number	26
Position	RC4
Comment	
Processing Method	Stop sequence after Cell Death
Instrument Method	ICS5000_PA200_FullNative_Ox_26min_ED1
Type	Unknown
Status	Finished
Injection Date	28.04.2022
Injection Time	00:50:24
Injection Volume (µl)	5,0
Dilution Factor	1,0000
Weight	1,0000

Chromatogram Data Information:
Time Min. (min)	0,000333
Time Max. (min)	26,000333
Data Points	3121
Detector	EDet1
Generating Data System	Chromeleon 7.2.9.11323
Exporting Data System	Chromeleon 7.2.9.0
Operator	Instrument Controller
Signal Quantity	
Signal Unit	nC
Signal Min.	-7,804350
Signal Max.	1 879,466778
Channel	ED_1
Driver Name	DC-5000
Channel Type	Evaluation
Min. Step (s)	0,5
Max. Step (s)	0,5
Average Step (s)	0,5

Signal Parameter Information:
Signal Info	

Chromatogram Data:
Time (min)	Step (s)	Value (nC)
0,000333	n.a.	-0,090150
0,008667	0,5	-0,132700
0,017000	0,5	-0,120600
0,025333	0,5	-0,118750
0,033667	0,5	-0,084100
0,042000	0,5	-0,084750
0,050333	0,5	-0,077500
0,058667	0,5	-0,068450
0,067000	0,5	-0,062750
0,075333	0,5	-0,086850
0,083667	0,5	-0,053900
0,092000	0,5	-0,059150
0,100333	0,5	-0,076800
0,108667	0,5	-0,075650
0,117000	0,5	-0,062650
0,125333	0,5	-0,026150
0,133667	0,5	0,005450
0,142000	0,5	-0,004450
0,150333	0,5	-0,027550
0,158667	0,5	-0,018250
0,167000	0,5	-0,033750
0,175333	0,5	-0,023350
0,183667	0,5	-0,035300
0,192000	0,5	-0,031150
0,200333	0,5	-0,041350
0,208667	0,5	-0,034650
0,217000	0,5	-0,034000
0,225333	0,5	-0,039800
0,233667	0,5	-0,012950
0,242000	0,5	-0,033700
0,250333	0,5	-0,052250
0,258667	0,5	-0,052950
0,267000	0,5	-0,032900
0,275333	0,5	-0,007300
0,283667	0,5	0,005200
0,292000	0,5	-0,017250
0,300333	0,5	0,021750
0,308667	0,5	0,059300
0,317000	0,5	0,027050
0,325333	0,5	-0,023500
0,333667	0,5	-0,039500
0,342000	0,5	-0,048850
0,350333	0,5	-0,049450
0,358667	0,5	-0,048700
0,367000	0,5	-0,054400
0,375333	0,5	-0,062750
0,383667	0,5	-0,040550
0,392000	0,5	-0,068700
0,400333	0,5	-0,072600
0,408667	0,5	-0,075300
0,417000	0,5	-0,036050
0,425333	0,5	-0,006100
0,433667	0,5	-0,004600
0,442000	0,5	-0,009750
0,450333	0,5	-0,018150
0,458667	0,5	-0,022900
0,467000	0,5	-0,033650
0,475333	0,5	-0,034900
0,483667	0,5	-0,042100
0,492000	0,5	-0,043450
0,500333	0,5	-0,048500
0,508667	0,5	-0,053100
0,517000	0,5	-0,077850
0,525333	0,5	-0,061400
0,533667	0,5	-0,060700
0,542000	0,5	-0,067400
0,550333	0,5	-0,073900
0,558667	0,5	-0,063700
0,567000	0,5	-0,031150
0,575333	0,5	-0,012700
0,583667	0,5	-0,023150
0,592000	0,5	-0,023000
0,600333	0,5	-0,024300
0,608667	0,5	-0,023300
0,617000	0,5	-0,032100
0,625333	0,5	-0,031850
0,633667	0,5	-0,035900
0,642000	0,5	-0,035850
0,650333	0,5	-0,030400
0,658667	0,5	-0,049950
0,667000	0,5	-0,058000
0,675333	0,5	-0,025450
0,683667	0,5	-0,039650
0,692000	0,5	-0,058500
0,700333	0,5	-0,046800
0,708667	0,5	-0,047400
0,717000	0,5	0,003300
0,725333	0,5	-0,008000
0,733667	0,5	-0,008700
0,742000	0,5	-0,011850
0,750333	0,5	-0,006500
0,758667	0,5	-0,019550
0,767000	0,5	-0,013100
0,775333	0,5	-0,018300
0,783667	0,5	-0,024100
0,792000	0,5	-0,015400
0,800333	0,5	-0,012350
0,808667	0,5	-0,015500
0,817000	0,5	-0,021300
0,825333	0,5	0,007650
0,833667	0,5	-0,017750
0,842000	0,5	-0,024850
0,850333	0,5	-0,014100
0,858667	0,5	0,003600
0,867000	0,5	0,033250
0,875333	0,5	0,025050
0,883667	0,5	0,001300
0,892000	0,5	0,017800
0,900333	0,5	0,013550
0,908667	0,5	0,018150
0,917000	0,5	0,017450
0,925333	0,5	0,021400
0,933667	0,5	0,010300
0,942000	0,5	0,018150
0,950333	0,5	0,024100
0,958667	0,5	0,004050
0,967000	0,5	0,011500
0,975333	0,5	0,036300
0,983667	0,5	0,009300
0,992000	0,5	0,009550
1,000333	0,5	0,019200
1,008667	0,5	0,051150
1,017000	0,5	0,079150
1,025333	0,5	0,050600
1,033667	0,5	0,055550
1,042000	0,5	0,055150
1,050333	0,5	0,076100
1,058667	0,5	0,053300
1,067000	0,5	0,060350
1,075333	0,5	0,052000
1,083667	0,5	0,056150
1,092000	0,5	0,061850
1,100333	0,5	0,060650
1,108667	0,5	0,039600
1,117000	0,5	0,062450
1,125333	0,5	0,055450
1,133667	0,5	0,047000
1,142000	0,5	0,050150
1,150333	0,5	0,079300
1,158667	0,5	0,113400
1,167000	0,5	0,117750
1,175333	0,5	0,111950
1,183667	0,5	0,109250
1,192000	0,5	0,113000
1,200333	0,5	0,108700
1,208667	0,5	0,121650
1,217000	0,5	0,116600
1,225333	0,5	0,123100
1,233667	0,5	0,120700
1,242000	0,5	0,127500
1,250333	0,5	0,127350
1,258667	0,5	0,126850
1,267000	0,5	0,147400
1,275333	0,5	0,132450
1,283667	0,5	0,125750
1,292000	0,5	0,129700
1,300333	0,5	0,156100
1,308667	0,5	0,195950
1,317000	0,5	0,201900
1,325333	0,5	0,190700
1,333667	0,5	0,203000
1,342000	0,5	0,203400
1,350333	0,5	0,207100
1,358667	0,5	0,215150
1,367000	0,5	0,213900
1,375333	0,5	0,209250
1,383667	0,5	0,220250
1,392000	0,5	0,222250
1,400333	0,5	0,226750
1,408667	0,5	0,231750
1,417000	0,5	0,257300
1,425333	0,5	0,229300
1,433667	0,5	0,236100
1,442000	0,5	0,235150
1,450333	0,5	0,274800
1,458667	0,5	0,308000
1,467000	0,5	0,316150
1,475333	0,5	0,305450
1,483667	0,5	0,312700
1,492000	0,5	0,312300
1,500333	0,5	0,313600
1,508667	0,5	0,319450
1,517000	0,5	0,323050
1,525333	0,5	0,327000
1,533667	0,5	0,331200
1,542000	0,5	0,339250
1,550333	0,5	0,331000
1,558667	0,5	0,362750
1,567000	0,5	0,349750
1,575333	0,5	0,281050
1,583667	0,5	-0,004450
1,592000	0,5	-0,739350
1,600333	0,5	-1,307550
1,608667	0,5	-0,392650
1,617000	0,5	2,162500
1,625333	0,5	5,665750
1,633667	0,5	10,395350
1,642000	0,5	16,081550
1,650333	0,5	20,408000
1,658667	0,5	21,613350
1,667000	0,5	20,406400
1,675333	0,5	18,421100
1,683667	0,5	16,452900
1,692000	0,5	14,658100
1,700333	0,5	13,130250
1,708667	0,5	12,070450
1,717000	0,5	11,810550
1,725333	0,5	12,922550
1,733667	0,5	14,967650
1,742000	0,5	15,909400
1,750333	0,5	14,665700
1,758667	0,5	12,252450
1,767000	0,5	10,144800
1,775333	0,5	8,803050
1,783667	0,5	8,322950
1,792000	0,5	8,666350
1,800333	0,5	9,674950
1,808667	0,5	10,707800
1,817000	0,5	11,106550
1,825333	0,5	10,836800
1,833667	0,5	10,227200
1,842000	0,5	9,478950
1,850333	0,5	8,763200
1,858667	0,5	8,113050
1,867000	0,5	7,472250
1,875333	0,5	6,928450
1,883667	0,5	6,470050
1,892000	0,5	6,100250
1,900333	0,5	5,778650
1,908667	0,5	5,456400
1,917000	0,5	5,155950
1,925333	0,5	4,905000
1,933667	0,5	4,672400
1,942000	0,5	4,498050
1,950333	0,5	4,400950
1,958667	0,5	4,371200
1,967000	0,5	4,335350
1,975333	0,5	4,414650
1,983667	0,5	5,056900
1,992000	0,5	7,563450
2,000333	0,5	14,637450
2,008667	0,5	30,613250
2,017000	0,5	64,713251
2,025333	0,5	142,293052
2,033667	0,5	300,368054
2,042000	0,5	509,866558
2,050333	0,5	635,698159
2,058667	0,5	600,363259
2,067000	0,5	469,419457
2,075333	0,5	340,351405
2,083667	0,5	250,774454
2,092000	0,5	193,494653
2,100333	0,5	155,247752
2,108667	0,5	128,009902
2,117000	0,5	107,814002
2,125333	0,5	92,408751
2,133667	0,5	80,546601
2,142000	0,5	71,239801
2,150333	0,5	63,838901
2,158667	0,5	57,823201
2,167000	0,5	53,074401
2,175333	0,5	49,063051
2,183667	0,5	45,265051
2,192000	0,5	41,669501
2,200333	0,5	38,551901
2,208667	0,5	36,020801
2,217000	0,5	33,983451
2,225333	0,5	32,297750
2,233667	0,5	30,892900
2,242000	0,5	29,737600
2,250333	0,5	28,767950
2,258667	0,5	27,918700
2,267000	0,5	27,124300
2,275333	0,5	26,392050
2,283667	0,5	25,716700
2,292000	0,5	25,152750
2,300333	0,5	24,666900
2,308667	0,5	24,199550
2,317000	0,5	23,781750
2,325333	0,5	23,423500
2,333667	0,5	23,118300
2,342000	0,5	22,874000
2,350333	0,5	22,636650
2,358667	0,5	22,439550
2,367000	0,5	22,271400
2,375333	0,5	22,159100
2,383667	0,5	22,112550
2,392000	0,5	22,168950
2,400333	0,5	22,447200
2,408667	0,5	23,134850
2,417000	0,5	24,266450
2,425333	0,5	25,256450
2,433667	0,5	25,389200
2,442000	0,5	24,852550
2,450333	0,5	24,422550
2,458667	0,5	24,210200
2,467000	0,5	24,090200
2,475333	0,5	23,946150
2,483667	0,5	23,804800
2,492000	0,5	23,608250
2,500333	0,5	23,367050
2,508667	0,5	23,089000
2,517000	0,5	22,830400
2,525333	0,5	22,575300
2,533667	0,5	22,369850
2,542000	0,5	22,229250
2,550333	0,5	22,189400
2,558667	0,5	22,330350
2,567000	0,5	22,798200
2,575333	0,5	23,706600
2,583667	0,5	25,117950
2,592000	0,5	26,927350
2,600333	0,5	28,824100
2,608667	0,5	30,960050
2,617000	0,5	34,795851
2,625333	0,5	43,908951
2,633667	0,5	62,287901
2,642000	0,5	90,794851
2,650333	0,5	129,632952
2,658667	0,5	186,941203
2,667000	0,5	303,915055
2,675333	0,5	587,379359
2,683667	0,5	1 048,957516
2,692000	0,5	1 471,227972
2,700333	0,5	1 746,736526
2,708667	0,5	1 869,294078
2,717000	0,5	1 879,466778
2,725333	0,5	1 818,535127
2,733667	0,5	1 712,627126
2,742000	0,5	1 576,994723
2,750333	0,5	1 421,485321
2,758667	0,5	1 257,616319
2,767000	0,5	1 097,900316
2,775333	0,5	947,208714
2,783667	0,5	804,881312
2,792000	0,5	679,827960
2,800333	0,5	580,056209
2,808667	0,5	509,207108
2,817000	0,5	461,630157
2,825333	0,5	433,206406
2,833667	0,5	417,337006
2,842000	0,5	407,594406
2,850333	0,5	398,825106
2,858667	0,5	387,401406
2,867000	0,5	371,354356
2,875333	0,5	349,776505
2,883667	0,5	323,344205
2,892000	0,5	293,570954
2,900333	0,5	262,833804
2,908667	0,5	233,515503
2,917000	0,5	207,213303
2,925333	0,5	184,356353
2,933667	0,5	164,717002
2,942000	0,5	147,678902
2,950333	0,5	132,829202
2,958667	0,5	119,831452
2,967000	0,5	108,433702
2,975333	0,5	98,469701
2,983667	0,5	89,759251
2,992000	0,5	82,137351
3,000333	0,5	75,400801
3,008667	0,5	69,432251
3,017000	0,5	64,087101
3,025333	0,5	59,266451
3,033667	0,5	54,934701
3,042000	0,5	50,993701
3,050333	0,5	47,410651
3,058667	0,5	44,177101
3,067000	0,5	41,259201
3,075333	0,5	38,645051
3,083667	0,5	36,222401
3,092000	0,5	33,985551
3,100333	0,5	31,931300
3,108667	0,5	30,050300
3,117000	0,5	28,307900
3,125333	0,5	26,700750
3,133667	0,5	25,221500
3,142000	0,5	23,858300
3,150333	0,5	22,639150
3,158667	0,5	21,535950
3,167000	0,5	20,581450
3,175333	0,5	19,724450
3,183667	0,5	19,047750
3,192000	0,5	18,444350
3,200333	0,5	18,001350
3,208667	0,5	17,752000
3,217000	0,5	17,832700
3,225333	0,5	18,421150
3,233667	0,5	19,721550
3,242000	0,5	21,909100
3,250333	0,5	24,929400
3,258667	0,5	28,303700
3,267000	0,5	31,310650
3,275333	0,5	33,219550
3,283667	0,5	33,653801
3,292000	0,5	32,638850
3,300333	0,5	30,521550
3,308667	0,5	27,750900
3,317000	0,5	24,707650
3,325333	0,5	21,749550
3,333667	0,5	19,085950
3,342000	0,5	16,786600
3,350333	0,5	14,899150
3,358667	0,5	13,380700
3,367000	0,5	12,184450
3,375333	0,5	11,248550
3,383667	0,5	10,444750
3,392000	0,5	9,771950
3,400333	0,5	9,196850
3,408667	0,5	8,715800
3,417000	0,5	8,289500
3,425333	0,5	7,949400
3,433667	0,5	7,652250
3,442000	0,5	7,422200
3,450333	0,5	7,242100
3,458667	0,5	7,101000
3,467000	0,5	6,971550
3,475333	0,5	6,869850
3,483667	0,5	6,744700
3,492000	0,5	6,576250
3,500333	0,5	6,435400
3,508667	0,5	6,296700
3,517000	0,5	6,193700
3,525333	0,5	6,092450
3,533667	0,5	5,995500
3,542000	0,5	5,890600
3,550333	0,5	5,829900
3,558667	0,5	5,751250
3,567000	0,5	5,700400
3,575333	0,5	5,634000
3,583667	0,5	5,580400
3,592000	0,5	5,507600
3,600333	0,5	5,427100
3,608667	0,5	5,337000
3,617000	0,5	5,228950
3,625333	0,5	5,124050
3,633667	0,5	4,993150
3,642000	0,5	4,855350
3,650333	0,5	4,729400
3,658667	0,5	4,612000
3,667000	0,5	4,511750
3,675333	0,5	4,384400
3,683667	0,5	4,243950
3,692000	0,5	4,111850
3,700333	0,5	3,976700
3,708667	0,5	3,852050
3,717000	0,5	3,728400
3,725333	0,5	3,621300
3,733667	0,5	3,506050
3,742000	0,5	3,411650
3,750333	0,5	3,315000
3,758667	0,5	3,227500
3,767000	0,5	3,143450
3,775333	0,5	3,088350
3,783667	0,5	3,002700
3,792000	0,5	2,937200
3,800333	0,5	2,889600
3,808667	0,5	2,867050
3,817000	0,5	2,859500
3,825333	0,5	2,830250
3,833667	0,5	2,828350
3,842000	0,5	2,837550
3,850333	0,5	2,849700
3,858667	0,5	2,858950
3,867000	0,5	2,872200
3,875333	0,5	2,863800
3,883667	0,5	2,854200
3,892000	0,5	2,834100
3,900333	0,5	2,801600
3,908667	0,5	2,739000
3,917000	0,5	2,708200
3,925333	0,5	2,647800
3,933667	0,5	2,582650
3,942000	0,5	2,514450
3,950333	0,5	2,458050
3,958667	0,5	2,416900
3,967000	0,5	2,365600
3,975333	0,5	2,295400
3,983667	0,5	2,237600
3,992000	0,5	2,191050
4,000333	0,5	2,131250
4,008667	0,5	2,077800
4,017000	0,5	2,028900
4,025333	0,5	1,977450
4,033667	0,5	1,921850
4,042000	0,5	1,880400
4,050333	0,5	1,831850
4,058667	0,5	1,779400
4,067000	0,5	1,755000
4,075333	0,5	1,703800
4,083667	0,5	1,653700
4,092000	0,5	1,614500
4,100333	0,5	1,589850
4,108667	0,5	1,573700
4,117000	0,5	1,535100
4,125333	0,5	1,483600
4,133667	0,5	1,436600
4,142000	0,5	1,394500
4,150333	0,5	1,339950
4,158667	0,5	1,339550
4,167000	0,5	1,245050
4,175333	0,5	1,191700
4,183667	0,5	1,147000
4,192000	0,5	1,115450
4,200333	0,5	1,102050
4,208667	0,5	1,053350
4,217000	0,5	1,043850
4,225333	0,5	0,990000
4,233667	0,5	0,965850
4,242000	0,5	0,945100
4,250333	0,5	0,948200
4,258667	0,5	0,957400
4,267000	0,5	0,958150
4,275333	0,5	0,956350
4,283667	0,5	0,983650
4,292000	0,5	1,033900
4,300333	0,5	1,128050
4,308667	0,5	1,263050
4,317000	0,5	1,477850
4,325333	0,5	1,756600
4,333667	0,5	2,136800
4,342000	0,5	2,618300
4,350333	0,5	3,197500
4,358667	0,5	3,878750
4,367000	0,5	4,671950
4,375333	0,5	5,559250
4,383667	0,5	6,580800
4,392000	0,5	7,786150
4,400333	0,5	9,264400
4,408667	0,5	11,147550
4,417000	0,5	13,611950
4,425333	0,5	17,044550
4,433667	0,5	21,874300
4,442000	0,5	28,611600
4,450333	0,5	37,629301
4,458667	0,5	49,073451
4,467000	0,5	62,490201
4,475333	0,5	76,882351
4,483667	0,5	90,777051
4,492000	0,5	102,625852
4,500333	0,5	111,222802
4,508667	0,5	116,038702
4,517000	0,5	116,960502
4,525333	0,5	114,484402
4,533667	0,5	109,408552
4,542000	0,5	102,505602
4,550333	0,5	94,544701
4,558667	0,5	86,085801
4,567000	0,5	77,601501
4,575333	0,5	69,419251
4,583667	0,5	61,767451
4,592000	0,5	54,696101
4,600333	0,5	48,282251
4,608667	0,5	42,491101
4,617000	0,5	37,307801
4,625333	0,5	32,692800
4,633667	0,5	28,635450
4,642000	0,5	25,078250
4,650333	0,5	22,004750
4,658667	0,5	19,380550
4,667000	0,5	17,119150
4,675333	0,5	15,201300
4,683667	0,5	13,593450
4,692000	0,5	12,227000
4,700333	0,5	11,080500
4,708667	0,5	10,072500
4,717000	0,5	9,176200
4,725333	0,5	8,387800
4,733667	0,5	7,674550
4,742000	0,5	7,036350
4,750333	0,5	6,441550
4,758667	0,5	5,908800
4,767000	0,5	5,412600
4,775333	0,5	4,969350
4,783667	0,5	4,564700
4,792000	0,5	4,202000
4,800333	0,5	3,890050
4,808667	0,5	3,620000
4,817000	0,5	3,342950
4,825333	0,5	3,100200
4,833667	0,5	2,888600
4,842000	0,5	2,715450
4,850333	0,5	2,547900
4,858667	0,5	2,366950
4,867000	0,5	2,207650
4,875333	0,5	2,061100
4,883667	0,5	1,926850
4,892000	0,5	1,801600
4,900333	0,5	1,686950
4,908667	0,5	1,577350
4,917000	0,5	1,498000
4,925333	0,5	1,413400
4,933667	0,5	1,347800
4,942000	0,5	1,262900
4,950333	0,5	1,230600
4,958667	0,5	1,168250
4,967000	0,5	1,116600
4,975333	0,5	1,076350
4,983667	0,5	1,059950
4,992000	0,5	1,060700
5,000333	0,5	1,057350
5,008667	0,5	1,040600
5,017000	0,5	1,044350
5,025333	0,5	1,050850
5,033667	0,5	1,060850
5,042000	0,5	1,073700
5,050333	0,5	1,084550
5,058667	0,5	1,100900
5,067000	0,5	1,102950
5,075333	0,5	1,110400
5,083667	0,5	1,108250
5,092000	0,5	1,088300
5,100333	0,5	1,101300
5,108667	0,5	1,074300
5,117000	0,5	1,049000
5,125333	0,5	1,028800
5,133667	0,5	1,009750
5,142000	0,5	1,008600
5,150333	0,5	0,970250
5,158667	0,5	0,937550
5,167000	0,5	0,910250
5,175333	0,5	0,892800
5,183667	0,5	0,861850
5,192000	0,5	0,842200
5,200333	0,5	0,827350
5,208667	0,5	0,803900
5,217000	0,5	0,790600
5,225333	0,5	0,788700
5,233667	0,5	0,785000
5,242000	0,5	0,770550
5,250333	0,5	0,791300
5,258667	0,5	0,774250
5,267000	0,5	0,775650
5,275333	0,5	0,780000
5,283667	0,5	0,808500
5,292000	0,5	0,834100
5,300333	0,5	0,836250
5,308667	0,5	0,826400
5,317000	0,5	0,817850
5,325333	0,5	0,802100
5,333667	0,5	0,784000
5,342000	0,5	0,759700
5,350333	0,5	0,737150
5,358667	0,5	0,709600
5,367000	0,5	0,691100
5,375333	0,5	0,673650
5,383667	0,5	0,649850
5,392000	0,5	0,639250
5,400333	0,5	0,633350
5,408667	0,5	0,609450
5,417000	0,5	0,607000
5,425333	0,5	0,602900
5,433667	0,5	0,620250
5,442000	0,5	0,638800
5,450333	0,5	0,624800
5,458667	0,5	0,623900
5,467000	0,5	0,615100
5,475333	0,5	0,611400
5,483667	0,5	0,604350
5,492000	0,5	0,604450
5,500333	0,5	0,601700
5,508667	0,5	0,596000
5,517000	0,5	0,591600
5,525333	0,5	0,581800
5,533667	0,5	0,575800
5,542000	0,5	0,598300
5,550333	0,5	0,588950
5,558667	0,5	0,579350
5,567000	0,5	0,581350
5,575333	0,5	0,603150
5,583667	0,5	0,626500
5,592000	0,5	0,639850
5,600333	0,5	0,653650
5,608667	0,5	0,656500
5,617000	0,5	0,670200
5,625333	0,5	0,673050
5,633667	0,5	0,688150
5,642000	0,5	0,699050
5,650333	0,5	0,717550
5,658667	0,5	0,725100
5,667000	0,5	0,741250
5,675333	0,5	0,745450
5,683667	0,5	0,765400
5,692000	0,5	0,792750
5,700333	0,5	0,807700
5,708667	0,5	0,816800
5,717000	0,5	0,849750
5,725333	0,5	0,890150
5,733667	0,5	0,951150
5,742000	0,5	0,990200
5,750333	0,5	1,022900
5,758667	0,5	1,056300
5,767000	0,5	1,092050
5,775333	0,5	1,111500
5,783667	0,5	1,131800
5,792000	0,5	1,140600
5,800333	0,5	1,133000
5,808667	0,5	1,122800
5,817000	0,5	1,100400
5,825333	0,5	1,072050
5,833667	0,5	1,047000
5,842000	0,5	1,029950
5,850333	0,5	0,981250
5,858667	0,5	0,943600
5,867000	0,5	0,921300
5,875333	0,5	0,922950
5,883667	0,5	0,916550
5,892000	0,5	0,900800
5,900333	0,5	0,888250
5,908667	0,5	0,891100
5,917000	0,5	0,892450
5,925333	0,5	0,898050
5,933667	0,5	0,900800
5,942000	0,5	0,903450
5,950333	0,5	0,908700
5,958667	0,5	0,907750
5,967000	0,5	0,912600
5,975333	0,5	0,901750
5,983667	0,5	0,918000
5,992000	0,5	0,910000
6,000333	0,5	0,901200
6,008667	0,5	0,905950
6,017000	0,5	0,916500
6,025333	0,5	0,940100
6,033667	0,5	0,952400
6,042000	0,5	0,939550
6,050333	0,5	0,946350
6,058667	0,5	0,946550
6,067000	0,5	0,954350
6,075333	0,5	0,951700
6,083667	0,5	0,956500
6,092000	0,5	0,956600
6,100333	0,5	0,958800
6,108667	0,5	0,965450
6,117000	0,5	0,953050
6,125333	0,5	0,948200
6,133667	0,5	0,974300
6,142000	0,5	0,962900
6,150333	0,5	0,976200
6,158667	0,5	0,983850
6,167000	0,5	0,997750
6,175333	0,5	1,028350
6,183667	0,5	1,027400
6,192000	0,5	1,035250
6,200333	0,5	1,039550
6,208667	0,5	1,049100
6,217000	0,5	1,051150
6,225333	0,5	1,064450
6,233667	0,5	1,069000
6,242000	0,5	1,076250
6,250333	0,5	1,091450
6,258667	0,5	1,099100
6,267000	0,5	1,098150
6,275333	0,5	1,106150
6,283667	0,5	1,117700
6,292000	0,5	1,112000
6,300333	0,5	1,120350
6,308667	0,5	1,126450
6,317000	0,5	1,144700
6,325333	0,5	1,170900
6,333667	0,5	1,188900
6,342000	0,5	1,191200
6,350333	0,5	1,209200
6,358667	0,5	1,218550
6,367000	0,5	1,232550
6,375333	0,5	1,241400
6,383667	0,5	1,254400
6,392000	0,5	1,270100
6,400333	0,5	1,292450
6,408667	0,5	1,310250
6,417000	0,5	1,334450
6,425333	0,5	1,360700
6,433667	0,5	1,394800
6,442000	0,5	1,412350
6,450333	0,5	1,439150
6,458667	0,5	1,475300
6,467000	0,5	1,517450
6,475333	0,5	1,546300
6,483667	0,5	1,551850
6,492000	0,5	1,559500
6,500333	0,5	1,560400
6,508667	0,5	1,560250
6,517000	0,5	1,553450
6,525333	0,5	1,557650
6,533667	0,5	1,553300
6,542000	0,5	1,551900
6,550333	0,5	1,553400
6,558667	0,5	1,559450
6,567000	0,5	1,562350
6,575333	0,5	1,588650
6,583667	0,5	1,594800
6,592000	0,5	1,598200
6,600333	0,5	1,612150
6,608667	0,5	1,638800
6,617000	0,5	1,664600
6,625333	0,5	1,690350
6,633667	0,5	1,691550
6,642000	0,5	1,704700
6,650333	0,5	1,710400
6,658667	0,5	1,716450
6,667000	0,5	1,732600
6,675333	0,5	1,741050
6,683667	0,5	1,754650
6,692000	0,5	1,770250
6,700333	0,5	1,796000
6,708667	0,5	1,812500
6,717000	0,5	1,854350
6,725333	0,5	1,906500
6,733667	0,5	1,952400
6,742000	0,5	1,993000
6,750333	0,5	2,043550
6,758667	0,5	2,085450
6,767000	0,5	2,129650
6,775333	0,5	2,135650
6,783667	0,5	2,132200
6,792000	0,5	2,109800
6,800333	0,5	2,082100
6,808667	0,5	2,049200
6,817000	0,5	2,021150
6,825333	0,5	1,992650
6,833667	0,5	1,966200
6,842000	0,5	1,947200
6,850333	0,5	1,930300
6,858667	0,5	1,909350
6,867000	0,5	1,917500
6,875333	0,5	1,919000
6,883667	0,5	1,910900
6,892000	0,5	1,914150
6,900333	0,5	1,921150
6,908667	0,5	1,952950
6,917000	0,5	1,970350
6,925333	0,5	1,989300
6,933667	0,5	2,004500
6,942000	0,5	2,029450
6,950333	0,5	2,042950
6,958667	0,5	2,060700
6,967000	0,5	2,066000
6,975333	0,5	2,066550
6,983667	0,5	2,054450
6,992000	0,5	2,047400
7,000333	0,5	2,028750
7,008667	0,5	2,006450
7,017000	0,5	2,001350
7,025333	0,5	1,979200
7,033667	0,5	1,957050
7,042000	0,5	1,940800
7,050333	0,5	1,940850
7,058667	0,5	1,951800
7,067000	0,5	1,952950
7,075333	0,5	1,944500
7,083667	0,5	1,949150
7,092000	0,5	1,944400
7,100333	0,5	1,946750
7,108667	0,5	1,948200
7,117000	0,5	1,957000
7,125333	0,5	1,959550
7,133667	0,5	1,966100
7,142000	0,5	1,981600
7,150333	0,5	1,994350
7,158667	0,5	2,012100
7,167000	0,5	2,053950
7,175333	0,5	2,081800
7,183667	0,5	2,119300
7,192000	0,5	2,161450
7,200333	0,5	2,204750
7,208667	0,5	2,251650
7,217000	0,5	2,258500
7,225333	0,5	2,254250
7,233667	0,5	2,239700
7,242000	0,5	2,220950
7,250333	0,5	2,188650
7,258667	0,5	2,172950
7,267000	0,5	2,155450
7,275333	0,5	2,155150
7,283667	0,5	2,165000
7,292000	0,5	2,205200
7,300333	0,5	2,265700
7,308667	0,5	2,375950
7,317000	0,5	2,549050
7,325333	0,5	2,752400
7,333667	0,5	2,975950
7,342000	0,5	3,188150
7,350333	0,5	3,352400
7,358667	0,5	3,426350
7,367000	0,5	3,389250
7,375333	0,5	3,269500
7,383667	0,5	3,109250
7,392000	0,5	2,926050
7,400333	0,5	2,753600
7,408667	0,5	2,600100
7,417000	0,5	2,476100
7,425333	0,5	2,374550
7,433667	0,5	2,304400
7,442000	0,5	2,249650
7,450333	0,5	2,207950
7,458667	0,5	2,181400
7,467000	0,5	2,173150
7,475333	0,5	2,169900
7,483667	0,5	2,189250
7,492000	0,5	2,232350
7,500333	0,5	2,313500
7,508667	0,5	2,419850
7,517000	0,5	2,563850
7,525333	0,5	2,733500
7,533667	0,5	2,911600
7,542000	0,5	3,060500
7,550333	0,5	3,139900
7,558667	0,5	3,128500
7,567000	0,5	3,035950
7,575333	0,5	2,895750
7,583667	0,5	2,742300
7,592000	0,5	2,600350
7,600333	0,5	2,483600
7,608667	0,5	2,406150
7,617000	0,5	2,348450
7,625333	0,5	2,313050
7,633667	0,5	2,300300
7,642000	0,5	2,327300
7,650333	0,5	2,382750
7,658667	0,5	2,490400
7,667000	0,5	2,640300
7,675333	0,5	2,846600
7,683667	0,5	3,097300
7,692000	0,5	3,352450
7,700333	0,5	3,560050
7,708667	0,5	3,676450
7,717000	0,5	3,675450
7,725333	0,5	3,583950
7,733667	0,5	3,453350
7,742000	0,5	3,328300
7,750333	0,5	3,289700
7,758667	0,5	3,366000
7,767000	0,5	3,538350
7,775333	0,5	3,774000
7,783667	0,5	3,968700
7,792000	0,5	4,033700
7,800333	0,5	3,932300
7,808667	0,5	3,701050
7,817000	0,5	3,467800
7,825333	0,5	3,302300
7,833667	0,5	3,248150
7,842000	0,5	3,296500
7,850333	0,5	3,429250
7,858667	0,5	3,565550
7,867000	0,5	3,642500
7,875333	0,5	3,625550
7,883667	0,5	3,525600
7,892000	0,5	3,405850
7,900333	0,5	3,365550
7,908667	0,5	3,429600
7,917000	0,5	3,604850
7,925333	0,5	3,826950
7,933667	0,5	3,987100
7,942000	0,5	4,007900
7,950333	0,5	3,867650
7,958667	0,5	3,651150
7,967000	0,5	3,457000
7,975333	0,5	3,364050
7,983667	0,5	3,433950
7,992000	0,5	3,669950
8,000333	0,5	4,004250
8,008667	0,5	4,324600
8,017000	0,5	4,482700
8,025333	0,5	4,408700
8,033667	0,5	4,127800
8,042000	0,5	3,744450
8,050333	0,5	3,381200
8,058667	0,5	3,080600
8,067000	0,5	2,860700
8,075333	0,5	2,706300
8,083667	0,5	2,595300
8,092000	0,5	2,508250
8,100333	0,5	2,434150
8,108667	0,5	2,362900
8,117000	0,5	2,309100
8,125333	0,5	2,272500
8,133667	0,5	2,249700
8,142000	0,5	2,236300
8,150333	0,5	2,239400
8,158667	0,5	2,253050
8,167000	0,5	2,284950
8,175333	0,5	2,336700
8,183667	0,5	2,405650
8,192000	0,5	2,461200
8,200333	0,5	2,520700
8,208667	0,5	2,535750
8,217000	0,5	2,520850
8,225333	0,5	2,477950
8,233667	0,5	2,427800
8,242000	0,5	2,374650
8,250333	0,5	2,326400
8,258667	0,5	2,296000
8,267000	0,5	2,289700
8,275333	0,5	2,296050
8,283667	0,5	2,298100
8,292000	0,5	2,302550
8,300333	0,5	2,296800
8,308667	0,5	2,298450
8,317000	0,5	2,309700
8,325333	0,5	2,337400
8,333667	0,5	2,360150
8,342000	0,5	2,393050
8,350333	0,5	2,424500
8,358667	0,5	2,425500
8,367000	0,5	2,416750
8,375333	0,5	2,394500
8,383667	0,5	2,382650
8,392000	0,5	2,381200
8,400333	0,5	2,394800
8,408667	0,5	2,426250
8,417000	0,5	2,464800
8,425333	0,5	2,508850
8,433667	0,5	2,540250
8,442000	0,5	2,561300
8,450333	0,5	2,572200
8,458667	0,5	2,580800
8,467000	0,5	2,601100
8,475333	0,5	2,635850
8,483667	0,5	2,662950
8,492000	0,5	2,666800
8,500333	0,5	2,643050
8,508667	0,5	2,644300
8,517000	0,5	2,720800
8,525333	0,5	2,924100
8,533667	0,5	3,273600
8,542000	0,5	3,726650
8,550333	0,5	4,193850
8,558667	0,5	4,530200
8,567000	0,5	4,619800
8,575333	0,5	4,430150
8,583667	0,5	4,050150
8,592000	0,5	3,602200
8,600333	0,5	3,209200
8,608667	0,5	2,922200
8,617000	0,5	2,725600
8,625333	0,5	2,599850
8,633667	0,5	2,502100
8,642000	0,5	2,426550
8,650333	0,5	2,345600
8,658667	0,5	2,266750
8,667000	0,5	2,194950
8,675333	0,5	2,133800
8,683667	0,5	2,085150
8,692000	0,5	2,043300
8,700333	0,5	2,013900
8,708667	0,5	1,990300
8,717000	0,5	1,973250
8,725333	0,5	1,955750
8,733667	0,5	1,945250
8,742000	0,5	1,935950
8,750333	0,5	1,925700
8,758667	0,5	1,933000
8,767000	0,5	1,948250
8,775333	0,5	1,961100
8,783667	0,5	1,968500
8,792000	0,5	1,977750
8,800333	0,5	1,969400
8,808667	0,5	1,954450
8,817000	0,5	1,940450
8,825333	0,5	1,928500
8,833667	0,5	1,920100
8,842000	0,5	1,903600
8,850333	0,5	1,894050
8,858667	0,5	1,881250
8,867000	0,5	1,875400
8,875333	0,5	1,870400
8,883667	0,5	1,872600
8,892000	0,5	1,885150
8,900333	0,5	1,897650
8,908667	0,5	1,917950
8,917000	0,5	1,937550
8,925333	0,5	1,957750
8,933667	0,5	2,002350
8,942000	0,5	2,053400
8,950333	0,5	2,123000
8,958667	0,5	2,202650
8,967000	0,5	2,299250
8,975333	0,5	2,389300
8,983667	0,5	2,454300
8,992000	0,5	2,500200
9,000333	0,5	2,512400
9,008667	0,5	2,488650
9,017000	0,5	2,439000
9,025333	0,5	2,386300
9,033667	0,5	2,333500
9,042000	0,5	2,298150
9,050333	0,5	2,297150
9,058667	0,5	2,323300
9,067000	0,5	2,367800
9,075333	0,5	2,415150
9,083667	0,5	2,456200
9,092000	0,5	2,499800
9,100333	0,5	2,528350
9,108667	0,5	2,563250
9,117000	0,5	2,597850
9,125333	0,5	2,613450
9,133667	0,5	2,604900
9,142000	0,5	2,581200
9,150333	0,5	2,565850
9,158667	0,5	2,574150
9,167000	0,5	2,630000
9,175333	0,5	2,742900
9,183667	0,5	2,910950
9,192000	0,5	3,126650
9,200333	0,5	3,355700
9,208667	0,5	3,542000
9,217000	0,5	3,624100
9,225333	0,5	3,582000
9,233667	0,5	3,426650
9,242000	0,5	3,184400
9,250333	0,5	2,919800
9,258667	0,5	2,670300
9,267000	0,5	2,484850
9,275333	0,5	2,363600
9,283667	0,5	2,317500
9,292000	0,5	2,334800
9,300333	0,5	2,387800
9,308667	0,5	2,454450
9,317000	0,5	2,489750
9,325333	0,5	2,485150
9,333667	0,5	2,434600
9,342000	0,5	2,361100
9,350333	0,5	2,274850
9,358667	0,5	2,194350
9,367000	0,5	2,117550
9,375333	0,5	2,057550
9,383667	0,5	2,010550
9,392000	0,5	1,978300
9,400333	0,5	1,950300
9,408667	0,5	1,935750
9,417000	0,5	1,930350
9,425333	0,5	1,941000
9,433667	0,5	1,945750
9,442000	0,5	1,955500
9,450333	0,5	1,963250
9,458667	0,5	1,979050
9,467000	0,5	1,978750
9,475333	0,5	1,985700
9,483667	0,5	1,975650
9,492000	0,5	1,972850
9,500333	0,5	1,958300
9,508667	0,5	1,937000
9,517000	0,5	1,907950
9,525333	0,5	1,869800
9,533667	0,5	1,833700
9,542000	0,5	1,797950
9,550333	0,5	1,769900
9,558667	0,5	1,751700
9,567000	0,5	1,738350
9,575333	0,5	1,733150
9,583667	0,5	1,727000
9,592000	0,5	1,724050
9,600333	0,5	1,715600
9,608667	0,5	1,704000
9,617000	0,5	1,690050
9,625333	0,5	1,675500
9,633667	0,5	1,665450
9,642000	0,5	1,649400
9,650333	0,5	1,638150
9,658667	0,5	1,626450
9,667000	0,5	1,615050
9,675333	0,5	1,608500
9,683667	0,5	1,601850
9,692000	0,5	1,597500
9,700333	0,5	1,589100
9,708667	0,5	1,583000
9,717000	0,5	1,580100
9,725333	0,5	1,571400
9,733667	0,5	1,564800
9,742000	0,5	1,551050
9,750333	0,5	1,546800
9,758667	0,5	1,538550
9,767000	0,5	1,536850
9,775333	0,5	1,536550
9,783667	0,5	1,534950
9,792000	0,5	1,528000
9,800333	0,5	1,524650
9,808667	0,5	1,515200
9,817000	0,5	1,503850
9,825333	0,5	1,495250
9,833667	0,5	1,494850
9,842000	0,5	1,481750
9,850333	0,5	1,478800
9,858667	0,5	1,480950
9,867000	0,5	1,488000
9,875333	0,5	1,493000
9,883667	0,5	1,497050
9,892000	0,5	1,518900
9,900333	0,5	1,530700
9,908667	0,5	1,551500
9,917000	0,5	1,576400
9,925333	0,5	1,611050
9,933667	0,5	1,647550
9,942000	0,5	1,693400
9,950333	0,5	1,746350
9,958667	0,5	1,813750
9,967000	0,5	1,907900
9,975333	0,5	2,019750
9,983667	0,5	2,144200
9,992000	0,5	2,264300
10,000333	0,5	2,372850
10,008667	0,5	2,456100
10,017000	0,5	2,497350
10,025333	0,5	2,478900
10,033667	0,5	2,402900
10,042000	0,5	2,290550
10,050333	0,5	2,157000
10,058667	0,5	2,018250
10,067000	0,5	1,888500
10,075333	0,5	1,785750
10,083667	0,5	1,702200
10,092000	0,5	1,645150
10,100333	0,5	1,614100
10,108667	0,5	1,586650
10,117000	0,5	1,571350
10,125333	0,5	1,560950
10,133667	0,5	1,551700
10,142000	0,5	1,535200
10,150333	0,5	1,524650
10,158667	0,5	1,524700
10,167000	0,5	1,529500
10,175333	0,5	1,530300
10,183667	0,5	1,534500
10,192000	0,5	1,536900
10,200333	0,5	1,538450
10,208667	0,5	1,549200
10,217000	0,5	1,556950
10,225333	0,5	1,573500
10,233667	0,5	1,590800
10,242000	0,5	1,617300
10,250333	0,5	1,641350
10,258667	0,5	1,656900
10,267000	0,5	1,669350
10,275333	0,5	1,660950
10,283667	0,5	1,645050
10,292000	0,5	1,618200
10,300333	0,5	1,592700
10,308667	0,5	1,567750
10,317000	0,5	1,544000
10,325333	0,5	1,518250
10,333667	0,5	1,490600
10,342000	0,5	1,476650
10,350333	0,5	1,464500
10,358667	0,5	1,451400
10,367000	0,5	1,450950
10,375333	0,5	1,450050
10,383667	0,5	1,447650
10,392000	0,5	1,450200
10,400333	0,5	1,452600
10,408667	0,5	1,450450
10,417000	0,5	1,449750
10,425333	0,5	1,437150
10,433667	0,5	1,423050
10,442000	0,5	1,412350
10,450333	0,5	1,410800
10,458667	0,5	1,413900
10,467000	0,5	1,425850
10,475333	0,5	1,436300
10,483667	0,5	1,447550
10,492000	0,5	1,465700
10,500333	0,5	1,487600
10,508667	0,5	1,512850
10,517000	0,5	1,539500
10,525333	0,5	1,583800
10,533667	0,5	1,625800
10,542000	0,5	1,675500
10,550333	0,5	1,710450
10,558667	0,5	1,729400
10,567000	0,5	1,734350
10,575333	0,5	1,719350
10,583667	0,5	1,688500
10,592000	0,5	1,649750
10,600333	0,5	1,623750
10,608667	0,5	1,586100
10,617000	0,5	1,552000
10,625333	0,5	1,518100
10,633667	0,5	1,487550
10,642000	0,5	1,460450
10,650333	0,5	1,438050
10,658667	0,5	1,420450
10,667000	0,5	1,408100
10,675333	0,5	1,391950
10,683667	0,5	1,387850
10,692000	0,5	1,377200
10,700333	0,5	1,370350
10,708667	0,5	1,365450
10,717000	0,5	1,362700
10,725333	0,5	1,353250
10,733667	0,5	1,351450
10,742000	0,5	1,346600
10,750333	0,5	1,352950
10,758667	0,5	1,358800
10,767000	0,5	1,373000
10,775333	0,5	1,389050
10,783667	0,5	1,417900
10,792000	0,5	1,449600
10,800333	0,5	1,482150
10,808667	0,5	1,503350
10,817000	0,5	1,503450
10,825333	0,5	1,483950
10,833667	0,5	1,446400
10,842000	0,5	1,395600
10,850333	0,5	1,335500
10,858667	0,5	1,280400
10,867000	0,5	1,238750
10,875333	0,5	1,206350
10,883667	0,5	1,184150
10,892000	0,5	1,173550
10,900333	0,5	1,185850
10,908667	0,5	1,202950
10,917000	0,5	1,221050
10,925333	0,5	1,249950
10,933667	0,5	1,276900
10,942000	0,5	1,298500
10,950333	0,5	1,320350
10,958667	0,5	1,336850
10,967000	0,5	1,343000
10,975333	0,5	1,351950
10,983667	0,5	1,351400
10,992000	0,5	1,339850
11,000333	0,5	1,331750
11,008667	0,5	1,325550
11,017000	0,5	1,313200
11,025333	0,5	1,303750
11,033667	0,5	1,293950
11,042000	0,5	1,287150
11,050333	0,5	1,286950
11,058667	0,5	1,289950
11,067000	0,5	1,285100
11,075333	0,5	1,279850
11,083667	0,5	1,280150
11,092000	0,5	1,280800
11,100333	0,5	1,280150
11,108667	0,5	1,278100
11,117000	0,5	1,276150
11,125333	0,5	1,268600
11,133667	0,5	1,277750
11,142000	0,5	1,264950
11,150333	0,5	1,272350
11,158667	0,5	1,272450
11,167000	0,5	1,276600
11,175333	0,5	1,275100
11,183667	0,5	1,266200
11,192000	0,5	1,271350
11,200333	0,5	1,276650
11,208667	0,5	1,277750
11,217000	0,5	1,277050
11,225333	0,5	1,277450
11,233667	0,5	1,280950
11,242000	0,5	1,277600
11,250333	0,5	1,275800
11,258667	0,5	1,277100
11,267000	0,5	1,273100
11,275333	0,5	1,267750
11,283667	0,5	1,271300
11,292000	0,5	1,263300
11,300333	0,5	1,269300
11,308667	0,5	1,266550
11,317000	0,5	1,264500
11,325333	0,5	1,262150
11,333667	0,5	1,257800
11,342000	0,5	1,264550
11,350333	0,5	1,278700
11,358667	0,5	1,302650
11,367000	0,5	1,340900
11,375333	0,5	1,399950
11,383667	0,5	1,461500
11,392000	0,5	1,552250
11,400333	0,5	1,638150
11,408667	0,5	1,707150
11,417000	0,5	1,750350
11,425333	0,5	1,762500
11,433667	0,5	1,744850
11,442000	0,5	1,696050
11,450333	0,5	1,644300
11,458667	0,5	1,585000
11,467000	0,5	1,531200
11,475333	0,5	1,483200
11,483667	0,5	1,443250
11,492000	0,5	1,416750
11,500333	0,5	1,388150
11,508667	0,5	1,365700
11,517000	0,5	1,340900
11,525333	0,5	1,319700
11,533667	0,5	1,302850
11,542000	0,5	1,289300
11,550333	0,5	1,284700
11,558667	0,5	1,276250
11,567000	0,5	1,276600
11,575333	0,5	1,296350
11,583667	0,5	1,313950
11,592000	0,5	1,350600
11,600333	0,5	1,408350
11,608667	0,5	1,485100
11,617000	0,5	1,569400
11,625333	0,5	1,660550
11,633667	0,5	1,747300
11,642000	0,5	1,829350
11,650333	0,5	1,873350
11,658667	0,5	1,903000
11,667000	0,5	1,908450
11,675333	0,5	1,892700
11,683667	0,5	1,862500
11,692000	0,5	1,831900
11,700333	0,5	1,794350
11,708667	0,5	1,759650
11,717000	0,5	1,746250
11,725333	0,5	1,741250
11,733667	0,5	1,751400
11,742000	0,5	1,785150
11,750333	0,5	1,836650
11,758667	0,5	1,878450
11,767000	0,5	1,909700
11,775333	0,5	1,920400
11,783667	0,5	1,915800
11,792000	0,5	1,883000
11,800333	0,5	1,835600
11,808667	0,5	1,766450
11,817000	0,5	1,692100
11,825333	0,5	1,612500
11,833667	0,5	1,541650
11,842000	0,5	1,471650
11,850333	0,5	1,416000
11,858667	0,5	1,371750
11,867000	0,5	1,336350
11,875333	0,5	1,303750
11,883667	0,5	1,279050
11,892000	0,5	1,261850
11,900333	0,5	1,251900
11,908667	0,5	1,240000
11,917000	0,5	1,227800
11,925333	0,5	1,220150
11,933667	0,5	1,223650
11,942000	0,5	1,225500
11,950333	0,5	1,217800
11,958667	0,5	1,226350
11,967000	0,5	1,218900
11,975333	0,5	1,224550
11,983667	0,5	1,222050
11,992000	0,5	1,232350
12,000333	0,5	1,228000
12,008667	0,5	1,243200
12,017000	0,5	1,255500
12,025333	0,5	1,256250
12,033667	0,5	1,272050
12,042000	0,5	1,298900
12,050333	0,5	1,309200
12,058667	0,5	1,317700
12,067000	0,5	1,322250
12,075333	0,5	1,341550
12,083667	0,5	1,372600
12,092000	0,5	1,409350
12,100333	0,5	1,446750
12,108667	0,5	1,504350
12,117000	0,5	1,569350
12,125333	0,5	1,626600
12,133667	0,5	1,678300
12,142000	0,5	1,706550
12,150333	0,5	1,714300
12,158667	0,5	1,704250
12,167000	0,5	1,681200
12,175333	0,5	1,624550
12,183667	0,5	1,602100
12,192000	0,5	1,562050
12,200333	0,5	1,532400
12,208667	0,5	1,500500
12,217000	0,5	1,483900
12,225333	0,5	1,478850
12,233667	0,5	1,475200
12,242000	0,5	1,479050
12,250333	0,5	1,483800
12,258667	0,5	1,494100
12,267000	0,5	1,509950
12,275333	0,5	1,521450
12,283667	0,5	1,539800
12,292000	0,5	1,559700
12,300333	0,5	1,582700
12,308667	0,5	1,629150
12,317000	0,5	1,687500
12,325333	0,5	1,754650
12,333667	0,5	1,841950
12,342000	0,5	1,926600
12,350333	0,5	1,991400
12,358667	0,5	2,044250
12,367000	0,5	2,078450
12,375333	0,5	2,117550
12,383667	0,5	2,158650
12,392000	0,5	2,198950
12,400333	0,5	2,245000
12,408667	0,5	2,287750
12,417000	0,5	2,326150
12,425333	0,5	2,355100
12,433667	0,5	2,362550
12,442000	0,5	2,360250
12,450333	0,5	2,348250
12,458667	0,5	2,328150
12,467000	0,5	2,291450
12,475333	0,5	2,247300
12,483667	0,5	2,199550
12,492000	0,5	2,136650
12,500333	0,5	2,081100
12,508667	0,5	2,034800
12,517000	0,5	2,022900
12,525333	0,5	2,044950
12,533667	0,5	2,090900
12,542000	0,5	2,136500
12,550333	0,5	2,188050
12,558667	0,5	2,231600
12,567000	0,5	2,259350
12,575333	0,5	2,265050
12,583667	0,5	2,248400
12,592000	0,5	2,217050
12,600333	0,5	2,175150
12,608667	0,5	2,123000
12,617000	0,5	2,048050
12,625333	0,5	1,988250
12,633667	0,5	1,905600
12,642000	0,5	1,815750
12,650333	0,5	1,717550
12,658667	0,5	1,623850
12,667000	0,5	1,547900
12,675333	0,5	1,493950
12,683667	0,5	1,446600
12,692000	0,5	1,413100
12,700333	0,5	1,378750
12,708667	0,5	1,351700
12,717000	0,5	1,330250
12,725333	0,5	1,318100
12,733667	0,5	1,295600
12,742000	0,5	1,283450
12,750333	0,5	1,275500
12,758667	0,5	1,260800
12,767000	0,5	1,247000
12,775333	0,5	1,249850
12,783667	0,5	1,247400
12,792000	0,5	1,242450
12,800333	0,5	1,241100
12,808667	0,5	1,241550
12,817000	0,5	1,244400
12,825333	0,5	1,253100
12,833667	0,5	1,255150
12,842000	0,5	1,250650
12,850333	0,5	1,249550
12,858667	0,5	1,239000
12,867000	0,5	1,237450
12,875333	0,5	1,236450
12,883667	0,5	1,247550
12,892000	0,5	1,277050
12,900333	0,5	1,324550
12,908667	0,5	1,364800
12,917000	0,5	1,416150
12,925333	0,5	1,438100
12,933667	0,5	1,404900
12,942000	0,5	1,337300
12,950333	0,5	1,235050
12,958667	0,5	1,155050
12,967000	0,5	1,058700
12,975333	0,5	0,982600
12,983667	0,5	0,908750
12,992000	0,5	0,866850
13,000333	0,5	0,799750
13,008667	0,5	0,729600
13,017000	0,5	0,576700
13,025333	0,5	0,230150
13,033667	0,5	-0,243300
13,042000	0,5	-0,619350
13,050333	0,5	-0,900900
13,058667	0,5	-1,204150
13,067000	0,5	-1,459550
13,075333	0,5	-1,631800
13,083667	0,5	-1,759950
13,092000	0,5	-1,854750
13,100333	0,5	-1,937900
13,108667	0,5	-2,000000
13,117000	0,5	-2,055450
13,125333	0,5	-2,112100
13,133667	0,5	-2,159600
13,142000	0,5	-2,198100
13,150333	0,5	-2,233950
13,158667	0,5	-2,270050
13,167000	0,5	-2,290600
13,175333	0,5	-2,313500
13,183667	0,5	-2,328250
13,192000	0,5	-2,346000
13,200333	0,5	-2,349450
13,208667	0,5	-2,364700
13,217000	0,5	-2,362250
13,225333	0,5	-2,369950
13,233667	0,5	-2,368350
13,242000	0,5	-2,364250
13,250333	0,5	-2,360600
13,258667	0,5	-2,333000
13,267000	0,5	-2,310900
13,275333	0,5	-2,287700
13,283667	0,5	-2,265250
13,292000	0,5	-2,243600
13,300333	0,5	-2,228550
13,308667	0,5	-2,216650
13,317000	0,5	-2,217800
13,325333	0,5	-2,226300
13,333667	0,5	-2,243050
13,342000	0,5	-2,254800
13,350333	0,5	-2,274400
13,358667	0,5	-2,299000
13,367000	0,5	-2,313450
13,375333	0,5	-2,333900
13,383667	0,5	-2,352200
13,392000	0,5	-2,363450
13,400333	0,5	-2,376400
13,408667	0,5	-2,368400
13,417000	0,5	-2,360250
13,425333	0,5	-2,355600
13,433667	0,5	-2,346600
13,442000	0,5	-2,329300
13,450333	0,5	-2,311050
13,458667	0,5	-2,286350
13,467000	0,5	-2,252800
13,475333	0,5	-2,215500
13,483667	0,5	-2,162150
13,492000	0,5	-2,116100
13,500333	0,5	-2,082650
13,508667	0,5	-2,045600
13,517000	0,5	-2,021000
13,525333	0,5	-2,014000
13,533667	0,5	-2,016350
13,542000	0,5	-2,036400
13,550333	0,5	-2,048050
13,558667	0,5	-2,066300
13,567000	0,5	-2,079800
13,575333	0,5	-2,103400
13,583667	0,5	-2,117850
13,592000	0,5	-2,133050
13,600333	0,5	-2,141000
13,608667	0,5	-2,146600
13,617000	0,5	-2,148950
13,625333	0,5	-2,153600
13,633667	0,5	-2,157850
13,642000	0,5	-2,155400
13,650333	0,5	-2,154300
13,658667	0,5	-2,141150
13,667000	0,5	-2,135450
13,675333	0,5	-2,127850
13,683667	0,5	-2,132650
13,692000	0,5	-2,124000
13,700333	0,5	-2,106800
13,708667	0,5	-2,086850
13,717000	0,5	-2,069500
13,725333	0,5	-2,053800
13,733667	0,5	-2,039150
13,742000	0,5	-2,021150
13,750333	0,5	-1,997600
13,758667	0,5	-1,978300
13,767000	0,5	-1,956400
13,775333	0,5	-1,935150
13,783667	0,5	-1,912250
13,792000	0,5	-1,895100
13,800333	0,5	-1,864900
13,808667	0,5	-1,837600
13,817000	0,5	-1,806000
13,825333	0,5	-1,780100
13,833667	0,5	-1,765750
13,842000	0,5	-1,743900
13,850333	0,5	-1,697250
13,858667	0,5	-1,664750
13,867000	0,5	-1,626800
13,875333	0,5	-1,588100
13,883667	0,5	-1,550150
13,892000	0,5	-1,511050
13,900333	0,5	-1,469900
13,908667	0,5	-1,428650
13,917000	0,5	-1,387950
13,925333	0,5	-1,346900
13,933667	0,5	-1,303050
13,942000	0,5	-1,289350
13,950333	0,5	-1,251450
13,958667	0,5	-1,222700
13,967000	0,5	-1,203700
13,975333	0,5	-1,194800
13,983667	0,5	-1,191350
13,992000	0,5	-1,171300
14,000333	0,5	-1,149350
14,008667	0,5	-1,126050
14,017000	0,5	-1,116000
14,025333	0,5	-1,088700
14,033667	0,5	-1,065900
14,042000	0,5	-1,043100
14,050333	0,5	-1,018550
14,058667	0,5	-0,980450
14,067000	0,5	-0,955000
14,075333	0,5	-0,905250
14,083667	0,5	-0,865300
14,092000	0,5	-0,818100
14,100333	0,5	-0,744550
14,108667	0,5	-0,662700
14,117000	0,5	-0,581600
14,125333	0,5	-0,487300
14,133667	0,5	-0,400450
14,142000	0,5	-0,303550
14,150333	0,5	-0,223000
14,158667	0,5	-0,153800
14,167000	0,5	-0,091850
14,175333	0,5	-0,052000
14,183667	0,5	-0,023450
14,192000	0,5	-0,005700
14,200333	0,5	-0,002450
14,208667	0,5	-0,011350
14,217000	0,5	-0,012450
14,225333	0,5	0,003500
14,233667	0,5	0,034350
14,242000	0,5	0,079250
14,250333	0,5	0,167000
14,258667	0,5	0,238700
14,267000	0,5	0,322100
14,275333	0,5	0,392500
14,283667	0,5	0,448450
14,292000	0,5	0,496700
14,300333	0,5	0,511150
14,308667	0,5	0,505550
14,317000	0,5	0,498400
14,325333	0,5	0,480450
14,333667	0,5	0,459150
14,342000	0,5	0,450200
14,350333	0,5	0,440700
14,358667	0,5	0,436800
14,367000	0,5	0,438500
14,375333	0,5	0,452650
14,383667	0,5	0,443650
14,392000	0,5	0,457050
14,400333	0,5	0,460250
14,408667	0,5	0,465200
14,417000	0,5	0,454400
14,425333	0,5	0,445900
14,433667	0,5	0,461050
14,442000	0,5	0,466450
14,450333	0,5	0,468550
14,458667	0,5	0,475000
14,467000	0,5	0,481900
14,475333	0,5	0,491750
14,483667	0,5	0,501850
14,492000	0,5	0,508750
14,500333	0,5	0,530400
14,508667	0,5	0,553950
14,517000	0,5	0,578700
14,525333	0,5	0,597900
14,533667	0,5	0,605600
14,542000	0,5	0,616250
14,550333	0,5	0,611000
14,558667	0,5	0,592900
14,567000	0,5	0,570550
14,575333	0,5	0,545100
14,583667	0,5	0,535650
14,592000	0,5	0,522650
14,600333	0,5	0,510300
14,608667	0,5	0,498250
14,617000	0,5	0,491900
14,625333	0,5	0,483950
14,633667	0,5	0,481850
14,642000	0,5	0,479600
14,650333	0,5	0,476650
14,658667	0,5	0,474800
14,667000	0,5	0,474800
14,675333	0,5	0,469550
14,683667	0,5	0,470750
14,692000	0,5	0,485600
14,700333	0,5	0,494450
14,708667	0,5	0,516750
14,717000	0,5	0,540150
14,725333	0,5	0,599200
14,733667	0,5	0,703200
14,742000	0,5	0,829150
14,750333	0,5	0,943900
14,758667	0,5	1,033200
14,767000	0,5	1,068750
14,775333	0,5	1,056350
14,783667	0,5	1,000300
14,792000	0,5	0,916850
14,800333	0,5	0,842350
14,808667	0,5	0,795450
14,817000	0,5	0,780300
14,825333	0,5	0,792150
14,833667	0,5	0,849450
14,842000	0,5	0,927050
14,850333	0,5	0,978750
14,858667	0,5	0,995450
14,867000	0,5	0,955700
14,875333	0,5	0,904100
14,883667	0,5	0,841700
14,892000	0,5	0,759250
14,900333	0,5	0,698450
14,908667	0,5	0,643650
14,917000	0,5	0,610750
14,925333	0,5	0,576550
14,933667	0,5	0,567300
14,942000	0,5	0,556750
14,950333	0,5	0,555550
14,958667	0,5	0,575650
14,967000	0,5	0,582400
14,975333	0,5	0,596350
14,983667	0,5	0,637250
14,992000	0,5	0,660850
15,000333	0,5	0,670000
15,008667	0,5	0,668950
15,017000	0,5	0,648550
15,025333	0,5	0,644400
15,033667	0,5	0,623350
15,042000	0,5	0,603900
15,050333	0,5	0,583700
15,058667	0,5	0,568250
15,067000	0,5	0,533550
15,075333	0,5	0,508200
15,083667	0,5	0,481850
15,092000	0,5	0,454450
15,100333	0,5	0,422050
15,108667	0,5	0,408100
15,117000	0,5	0,370450
15,125333	0,5	0,358300
15,133667	0,5	0,353050
15,142000	0,5	0,345150
15,150333	0,5	0,328650
15,158667	0,5	0,303150
15,167000	0,5	0,295300
15,175333	0,5	0,293900
15,183667	0,5	0,298150
15,192000	0,5	0,296900
15,200333	0,5	0,306500
15,208667	0,5	0,323250
15,217000	0,5	0,361500
15,225333	0,5	0,420650
15,233667	0,5	0,520250
15,242000	0,5	0,641950
15,250333	0,5	0,784450
15,258667	0,5	0,926250
15,267000	0,5	1,000350
15,275333	0,5	1,028550
15,283667	0,5	0,993300
15,292000	0,5	0,922700
15,300333	0,5	0,847250
15,308667	0,5	0,786800
15,317000	0,5	0,794800
15,325333	0,5	0,844000
15,333667	0,5	0,887950
15,342000	0,5	0,927350
15,350333	0,5	0,914350
15,358667	0,5	0,867150
15,367000	0,5	0,784450
15,375333	0,5	0,690800
15,383667	0,5	0,606500
15,392000	0,5	0,546100
15,400333	0,5	0,502900
15,408667	0,5	0,480200
15,417000	0,5	0,455150
15,425333	0,5	0,452450
15,433667	0,5	0,439550
15,442000	0,5	0,421900
15,450333	0,5	0,391550
15,458667	0,5	0,358950
15,467000	0,5	0,358200
15,475333	0,5	0,357650
15,483667	0,5	0,356050
15,492000	0,5	0,364350
15,500333	0,5	0,373400
15,508667	0,5	0,372150
15,517000	0,5	0,366450
15,525333	0,5	0,354250
15,533667	0,5	0,338650
15,542000	0,5	0,315400
15,550333	0,5	0,294050
15,558667	0,5	0,261850
15,567000	0,5	0,232700
15,575333	0,5	0,216850
15,583667	0,5	0,187050
15,592000	0,5	0,157700
15,600333	0,5	0,126650
15,608667	0,5	0,098100
15,617000	0,5	0,098700
15,625333	0,5	0,086950
15,633667	0,5	0,084800
15,642000	0,5	0,085800
15,650333	0,5	0,096050
15,658667	0,5	0,112850
15,667000	0,5	0,158850
15,675333	0,5	0,234550
15,683667	0,5	0,336950
15,692000	0,5	0,485100
15,700333	0,5	0,623600
15,708667	0,5	0,721650
15,717000	0,5	0,771400
15,725333	0,5	0,768800
15,733667	0,5	0,718900
15,742000	0,5	0,671700
15,750333	0,5	0,631250
15,758667	0,5	0,649900
15,767000	0,5	0,682150
15,775333	0,5	0,708400
15,783667	0,5	0,691150
15,792000	0,5	0,643200
15,800333	0,5	0,560500
15,808667	0,5	0,476400
15,817000	0,5	0,395050
15,825333	0,5	0,316750
15,833667	0,5	0,263800
15,842000	0,5	0,222950
15,850333	0,5	0,191750
15,858667	0,5	0,164200
15,867000	0,5	0,172950
15,875333	0,5	0,166700
15,883667	0,5	0,171350
15,892000	0,5	0,153800
15,900333	0,5	0,150050
15,908667	0,5	0,153000
15,917000	0,5	0,153850
15,925333	0,5	0,132900
15,933667	0,5	0,120950
15,942000	0,5	0,091400
15,950333	0,5	0,073250
15,958667	0,5	0,042900
15,967000	0,5	0,019350
15,975333	0,5	-0,011700
15,983667	0,5	-0,030450
15,992000	0,5	-0,045550
16,000333	0,5	-0,070600
16,008667	0,5	-0,076150
16,017000	0,5	-0,078250
16,025333	0,5	-0,080450
16,033667	0,5	-0,090500
16,042000	0,5	-0,111700
16,050333	0,5	-0,111200
16,058667	0,5	-0,077000
16,067000	0,5	-0,035350
16,075333	0,5	0,050000
16,083667	0,5	0,166000
16,092000	0,5	0,310500
16,100333	0,5	0,447800
16,108667	0,5	0,557000
16,117000	0,5	0,606250
16,125333	0,5	0,604850
16,133667	0,5	0,595850
16,142000	0,5	0,587700
16,150333	0,5	0,575100
16,158667	0,5	0,599300
16,167000	0,5	0,593350
16,175333	0,5	0,549400
16,183667	0,5	0,467350
16,192000	0,5	0,351550
16,200333	0,5	0,270100
16,208667	0,5	0,203700
16,217000	0,5	0,161400
16,225333	0,5	0,124150
16,233667	0,5	0,109050
16,242000	0,5	0,098100
16,250333	0,5	0,108000
16,258667	0,5	0,110300
16,267000	0,5	0,112100
16,275333	0,5	0,113350
16,283667	0,5	0,115450
16,292000	0,5	0,113450
16,300333	0,5	0,087850
16,308667	0,5	0,097100
16,317000	0,5	0,075100
16,325333	0,5	0,053000
16,333667	0,5	0,018900
16,342000	0,5	-0,016550
16,350333	0,5	-0,041000
16,358667	0,5	-0,062100
16,367000	0,5	-0,093950
16,375333	0,5	-0,108650
16,383667	0,5	-0,138650
16,392000	0,5	-0,155950
16,400333	0,5	-0,179650
16,408667	0,5	-0,183650
16,417000	0,5	-0,182400
16,425333	0,5	-0,160800
16,433667	0,5	-0,121900
16,442000	0,5	-0,044700
16,450333	0,5	0,073650
16,458667	0,5	0,227550
16,467000	0,5	0,364350
16,475333	0,5	0,467900
16,483667	0,5	0,512800
16,492000	0,5	0,521050
16,500333	0,5	0,522500
16,508667	0,5	0,503850
16,517000	0,5	0,490000
16,525333	0,5	0,466950
16,533667	0,5	0,422950
16,542000	0,5	0,351050
16,550333	0,5	0,279850
16,558667	0,5	0,203200
16,567000	0,5	0,153350
16,575333	0,5	0,124200
16,583667	0,5	0,130700
16,592000	0,5	0,125550
16,600333	0,5	0,162650
16,608667	0,5	0,184150
16,617000	0,5	0,209000
16,625333	0,5	0,211550
16,633667	0,5	0,207850
16,642000	0,5	0,214250
16,650333	0,5	0,214850
16,658667	0,5	0,202400
16,667000	0,5	0,182800
16,675333	0,5	0,160650
16,683667	0,5	0,143750
16,692000	0,5	0,125800
16,700333	0,5	0,116950
16,708667	0,5	0,110650
16,717000	0,5	0,103700
16,725333	0,5	0,113900
16,733667	0,5	0,101800
16,742000	0,5	0,091800
16,750333	0,5	0,090150
16,758667	0,5	0,101500
16,767000	0,5	0,123650
16,775333	0,5	0,164800
16,783667	0,5	0,233200
16,792000	0,5	0,338900
16,800333	0,5	0,426250
16,808667	0,5	0,483650
16,817000	0,5	0,492450
16,825333	0,5	0,490350
16,833667	0,5	0,462700
16,842000	0,5	0,431250
16,850333	0,5	0,389450
16,858667	0,5	0,326950
16,867000	0,5	0,258700
16,875333	0,5	0,181550
16,883667	0,5	0,107250
16,892000	0,5	0,057500
16,900333	0,5	0,032450
16,908667	0,5	0,002950
16,917000	0,5	-0,019150
16,925333	0,5	-0,058650
16,933667	0,5	-0,062000
16,942000	0,5	-0,064600
16,950333	0,5	-0,067650
16,958667	0,5	-0,085500
16,967000	0,5	-0,095800
16,975333	0,5	-0,114700
16,983667	0,5	-0,135050
16,992000	0,5	-0,149800
17,000333	0,5	-0,168800
17,008667	0,5	-0,186550
17,017000	0,5	-0,209750
17,025333	0,5	-0,217000
17,033667	0,5	-0,220350
17,042000	0,5	-0,196550
17,050333	0,5	-0,161850
17,058667	0,5	-0,115350
17,067000	0,5	-0,052200
17,075333	0,5	0,038550
17,083667	0,5	0,175800
17,092000	0,5	0,320700
17,100333	0,5	0,442700
17,108667	0,5	0,565950
17,117000	0,5	0,662500
17,125333	0,5	0,769050
17,133667	0,5	0,894100
17,142000	0,5	1,030550
17,150333	0,5	1,168200
17,158667	0,5	1,312500
17,167000	0,5	1,483100
17,175333	0,5	1,634250
17,183667	0,5	1,795500
17,192000	0,5	1,953800
17,200333	0,5	2,098400
17,208667	0,5	2,211300
17,217000	0,5	2,296600
17,225333	0,5	2,369800
17,233667	0,5	2,457250
17,242000	0,5	2,508050
17,250333	0,5	2,522450
17,258667	0,5	2,491250
17,267000	0,5	2,401600
17,275333	0,5	2,247500
17,283667	0,5	2,069600
17,292000	0,5	1,859150
17,300333	0,5	1,640400
17,308667	0,5	1,437900
17,317000	0,5	1,268050
17,325333	0,5	1,098050
17,333667	0,5	1,016000
17,342000	0,5	0,977150
17,350333	0,5	0,983200
17,358667	0,5	1,012300
17,367000	0,5	1,038750
17,375333	0,5	1,097800
17,383667	0,5	1,109600
17,392000	0,5	1,103100
17,400333	0,5	1,050850
17,408667	0,5	0,994000
17,417000	0,5	0,904250
17,425333	0,5	0,808450
17,433667	0,5	0,730600
17,442000	0,5	0,668900
17,450333	0,5	0,621850
17,458667	0,5	0,601700
17,467000	0,5	0,605450
17,475333	0,5	0,609150
17,483667	0,5	0,643450
17,492000	0,5	0,663900
17,500333	0,5	0,670600
17,508667	0,5	0,664800
17,517000	0,5	0,649700
17,525333	0,5	0,641700
17,533667	0,5	0,632250
17,542000	0,5	0,598200
17,550333	0,5	0,563400
17,558667	0,5	0,506800
17,567000	0,5	0,448750
17,575333	0,5	0,390100
17,583667	0,5	0,362000
17,592000	0,5	0,342850
17,600333	0,5	0,355200
17,608667	0,5	0,385650
17,617000	0,5	0,406300
17,625333	0,5	0,407700
17,633667	0,5	0,406600
17,642000	0,5	0,375650
17,650333	0,5	0,323550
17,658667	0,5	0,239200
17,667000	0,5	0,150950
17,675333	0,5	0,096700
17,683667	0,5	0,033600
17,692000	0,5	-0,014850
17,700333	0,5	-0,056200
17,708667	0,5	-0,085550
17,717000	0,5	-0,121450
17,725333	0,5	-0,141500
17,733667	0,5	-0,185700
17,742000	0,5	-0,210650
17,750333	0,5	-0,225500
17,758667	0,5	-0,235750
17,767000	0,5	-0,266750
17,775333	0,5	-0,275450
17,783667	0,5	-0,277000
17,792000	0,5	-0,280750
17,800333	0,5	-0,285750
17,808667	0,5	-0,287050
17,817000	0,5	-0,247100
17,825333	0,5	-0,185900
17,833667	0,5	-0,128700
17,842000	0,5	-0,069450
17,850333	0,5	-0,026250
17,858667	0,5	-0,011700
17,867000	0,5	-0,023900
17,875333	0,5	-0,054350
17,883667	0,5	-0,099700
17,892000	0,5	-0,145600
17,900333	0,5	-0,168650
17,908667	0,5	-0,218950
17,917000	0,5	-0,254700
17,925333	0,5	-0,275350
17,933667	0,5	-0,293050
17,942000	0,5	-0,328600
17,950333	0,5	-0,356350
17,958667	0,5	-0,378200
17,967000	0,5	-0,392750
17,975333	0,5	-0,393650
17,983667	0,5	-0,390200
17,992000	0,5	-0,379600
18,000333	0,5	-0,367500
18,008667	0,5	-0,340950
18,017000	0,5	-0,313650
18,025333	0,5	-0,259550
18,033667	0,5	-0,207050
18,042000	0,5	-0,162950
18,050333	0,5	-0,124350
18,058667	0,5	-0,122400
18,067000	0,5	-0,118650
18,075333	0,5	-0,142300
18,083667	0,5	-0,181150
18,092000	0,5	-0,217950
18,100333	0,5	-0,283750
18,108667	0,5	-0,307100
18,117000	0,5	-0,319950
18,125333	0,5	-0,340250
18,133667	0,5	-0,363250
18,142000	0,5	-0,369500
18,150333	0,5	-0,381000
18,158667	0,5	-0,375850
18,167000	0,5	-0,382950
18,175333	0,5	-0,382750
18,183667	0,5	-0,374550
18,192000	0,5	-0,356800
18,200333	0,5	-0,316000
18,208667	0,5	-0,299350
18,217000	0,5	-0,225400
18,225333	0,5	-0,178350
18,233667	0,5	-0,132250
18,242000	0,5	-0,134800
18,250333	0,5	-0,164550
18,258667	0,5	-0,174450
18,267000	0,5	-0,182450
18,275333	0,5	-0,205700
18,283667	0,5	-0,227150
18,292000	0,5	-0,248150
18,300333	0,5	-0,261200
18,308667	0,5	-0,276700
18,317000	0,5	-0,290850
18,325333	0,5	-0,305700
18,333667	0,5	-0,319850
18,342000	0,5	-0,309050
18,350333	0,5	-0,332800
18,358667	0,5	-0,348600
18,367000	0,5	-0,325600
18,375333	0,5	-0,311900
18,383667	0,5	-0,294050
18,392000	0,5	-0,276450
18,400333	0,5	-0,266050
18,408667	0,5	-0,240450
18,417000	0,5	-0,230850
18,425333	0,5	-0,254550
18,433667	0,5	-0,286650
18,442000	0,5	-0,312150
18,450333	0,5	-0,351500
18,458667	0,5	-0,367650
18,467000	0,5	-0,371500
18,475333	0,5	-0,393800
18,483667	0,5	-0,398250
18,492000	0,5	-0,403250
18,500333	0,5	-0,417450
18,508667	0,5	-0,415300
18,517000	0,5	-0,397750
18,525333	0,5	-0,406200
18,533667	0,5	-0,409100
18,542000	0,5	-0,423900
18,550333	0,5	-0,416650
18,558667	0,5	-0,399700
18,567000	0,5	-0,376450
18,575333	0,5	-0,383800
18,583667	0,5	-0,377700
18,592000	0,5	-0,393700
18,600333	0,5	-0,413350
18,608667	0,5	-0,421150
18,617000	0,5	-0,451250
18,625333	0,5	-0,478150
18,633667	0,5	-0,487750
18,642000	0,5	-0,493750
18,650333	0,5	-0,512100
18,658667	0,5	-0,510700
18,667000	0,5	-0,523300
18,675333	0,5	-0,522650
18,683667	0,5	-0,531600
18,692000	0,5	-0,534750
18,700333	0,5	-0,522850
18,708667	0,5	-0,474850
18,717000	0,5	-0,456150
18,725333	0,5	-0,444000
18,733667	0,5	-0,462400
18,742000	0,5	-0,472900
18,750333	0,5	-0,485550
18,758667	0,5	-0,488950
18,767000	0,5	-0,489050
18,775333	0,5	-0,481350
18,783667	0,5	-0,471700
18,792000	0,5	-0,469000
18,800333	0,5	-0,459100
18,808667	0,5	-0,433850
18,817000	0,5	-0,401500
18,825333	0,5	-0,376150
18,833667	0,5	-0,370100
18,842000	0,5	-0,357000
18,850333	0,5	-0,345950
18,858667	0,5	-0,338900
18,867000	0,5	-0,326850
18,875333	0,5	-0,352900
18,883667	0,5	-0,362350
18,892000	0,5	-0,400100
18,900333	0,5	-0,418800
18,908667	0,5	-0,410450
18,917000	0,5	-0,450300
18,925333	0,5	-0,442750
18,933667	0,5	-0,411600
18,942000	0,5	-0,412950
18,950333	0,5	-0,403350
18,958667	0,5	-0,381200
18,967000	0,5	-0,386950
18,975333	0,5	-0,394550
18,983667	0,5	-0,430250
18,992000	0,5	-0,438700
19,000333	0,5	-0,463500
19,008667	0,5	-0,488500
19,017000	0,5	-0,508400
19,025333	0,5	-0,529850
19,033667	0,5	-0,562300
19,042000	0,5	-0,557450
19,050333	0,5	-0,574600
19,058667	0,5	-0,579800
19,067000	0,5	-0,596050
19,075333	0,5	-0,578500
19,083667	0,5	-0,592700
19,092000	0,5	-0,608000
19,100333	0,5	-0,609350
19,108667	0,5	-0,621200
19,117000	0,5	-0,639050
19,125333	0,5	-0,665600
19,133667	0,5	-0,687950
19,142000	0,5	-0,698450
19,150333	0,5	-0,707850
19,158667	0,5	-0,721750
19,167000	0,5	-0,734900
19,175333	0,5	-0,753000
19,183667	0,5	-0,760900
19,192000	0,5	-0,777200
19,200333	0,5	-0,777450
19,208667	0,5	-0,807450
19,217000	0,5	-0,823650
19,225333	0,5	-0,836450
19,233667	0,5	-0,870050
19,242000	0,5	-0,884150
19,250333	0,5	-0,896400
19,258667	0,5	-0,907750
19,267000	0,5	-0,926900
19,275333	0,5	-0,957300
19,283667	0,5	-0,954350
19,292000	0,5	-0,953150
19,300333	0,5	-0,965700
19,308667	0,5	-0,980350
19,317000	0,5	-0,995850
19,325333	0,5	-1,001300
19,333667	0,5	-1,019350
19,342000	0,5	-1,022400
19,350333	0,5	-1,031050
19,358667	0,5	-1,029750
19,367000	0,5	-1,030850
19,375333	0,5	-1,029700
19,383667	0,5	-1,068550
19,392000	0,5	-1,060900
19,400333	0,5	-1,076950
19,408667	0,5	-1,086700
19,417000	0,5	-1,120350
19,425333	0,5	-1,152750
19,433667	0,5	-1,149300
19,442000	0,5	-1,152800
19,450333	0,5	-1,162100
19,458667	0,5	-1,165200
19,467000	0,5	-1,162200
19,475333	0,5	-1,179700
19,483667	0,5	-1,181700
19,492000	0,5	-1,184650
19,500333	0,5	-1,185400
19,508667	0,5	-1,197750
19,517000	0,5	-1,183650
19,525333	0,5	-1,189700
19,533667	0,5	-1,198750
19,542000	0,5	-1,185700
19,550333	0,5	-1,196350
19,558667	0,5	-1,219400
19,567000	0,5	-1,247450
19,575333	0,5	-1,284200
19,583667	0,5	-1,287300
19,592000	0,5	-1,296300
19,600333	0,5	-1,297000
19,608667	0,5	-1,299750
19,617000	0,5	-1,305250
19,625333	0,5	-1,321100
19,633667	0,5	-1,331600
19,642000	0,5	-1,336900
19,650333	0,5	-1,353300
19,658667	0,5	-1,351500
19,667000	0,5	-1,348750
19,675333	0,5	-1,360950
19,683667	0,5	-1,381550
19,692000	0,5	-1,368550
19,700333	0,5	-1,376550
19,708667	0,5	-1,390050
19,717000	0,5	-1,420500
19,725333	0,5	-1,428350
19,733667	0,5	-1,433150
19,742000	0,5	-1,434700
19,750333	0,5	-1,453600
19,758667	0,5	-1,453300
19,767000	0,5	-1,470950
19,775333	0,5	-1,485850
19,783667	0,5	-1,498650
19,792000	0,5	-1,511800
19,800333	0,5	-1,519750
19,808667	0,5	-1,530550
19,817000	0,5	-1,544300
19,825333	0,5	-1,568850
19,833667	0,5	-1,570300
19,842000	0,5	-1,576150
19,850333	0,5	-1,593550
19,858667	0,5	-1,631300
19,867000	0,5	-1,650900
19,875333	0,5	-1,665950
19,883667	0,5	-1,670050
19,892000	0,5	-1,687550
19,900333	0,5	-1,679350
19,908667	0,5	-1,687400
19,917000	0,5	-1,688650
19,925333	0,5	-1,693750
19,933667	0,5	-1,701500
19,942000	0,5	-1,714550
19,950333	0,5	-1,721400
19,958667	0,5	-1,711900
19,967000	0,5	-1,732150
19,975333	0,5	-1,738750
19,983667	0,5	-1,747300
19,992000	0,5	-1,761900
20,000333	0,5	-1,780400
20,008667	0,5	-1,812100
20,017000	0,5	-1,827400
20,025333	0,5	-1,830750
20,033667	0,5	-1,849500
20,042000	0,5	-1,858450
20,050333	0,5	-1,880650
20,058667	0,5	-1,897100
20,067000	0,5	-1,924050
20,075333	0,5	-1,938650
20,083667	0,5	-1,953700
20,092000	0,5	-1,990700
20,100333	0,5	-1,984100
20,108667	0,5	-1,987700
20,117000	0,5	-2,017050
20,125333	0,5	-2,027050
20,133667	0,5	-2,029800
20,142000	0,5	-2,056950
20,150333	0,5	-2,079150
20,158667	0,5	-2,114750
20,167000	0,5	-2,109550
20,175333	0,5	-2,124400
20,183667	0,5	-2,129350
20,192000	0,5	-2,137650
20,200333	0,5	-2,144850
20,208667	0,5	-2,152350
20,217000	0,5	-2,147950
20,225333	0,5	-2,139350
20,233667	0,5	-2,139550
20,242000	0,5	-2,140650
20,250333	0,5	-2,127850
20,258667	0,5	-2,133450
20,267000	0,5	-2,152300
20,275333	0,5	-2,148900
20,283667	0,5	-2,172050
20,292000	0,5	-2,185500
20,300333	0,5	-2,242400
20,308667	0,5	-2,262300
20,317000	0,5	-2,271650
20,325333	0,5	-2,274950
20,333667	0,5	-2,303850
20,342000	0,5	-2,313050
20,350333	0,5	-2,340450
20,358667	0,5	-2,360850
20,367000	0,5	-2,384500
20,375333	0,5	-2,406400
20,383667	0,5	-2,434850
20,392000	0,5	-2,463550
20,400333	0,5	-2,464250
20,408667	0,5	-2,505650
20,417000	0,5	-2,520550
20,425333	0,5	-2,545750
20,433667	0,5	-2,566100
20,442000	0,5	-2,610100
20,450333	0,5	-2,651800
20,458667	0,5	-2,677800
20,467000	0,5	-2,683650
20,475333	0,5	-2,708250
20,483667	0,5	-2,728300
20,492000	0,5	-2,752850
20,500333	0,5	-2,771800
20,508667	0,5	-2,806850
20,517000	0,5	-2,818100
20,525333	0,5	-2,851300
20,533667	0,5	-2,881400
20,542000	0,5	-2,878750
20,550333	0,5	-2,881000
20,558667	0,5	-2,901000
20,567000	0,5	-2,898250
20,575333	0,5	-2,907700
20,583667	0,5	-2,909500
20,592000	0,5	-2,986950
20,600333	0,5	-3,049550
20,608667	0,5	-3,093750
20,617000	0,5	-3,145900
20,625333	0,5	-3,181400
20,633667	0,5	-3,231900
20,642000	0,5	-3,257800
20,650333	0,5	-3,306650
20,658667	0,5	-3,344600
20,667000	0,5	-3,369650
20,675333	0,5	-3,413850
20,683667	0,5	-3,441900
20,692000	0,5	-3,450100
20,700333	0,5	-3,477700
20,708667	0,5	-3,512800
20,717000	0,5	-3,529750
20,725333	0,5	-3,556050
20,733667	0,5	-3,563400
20,742000	0,5	-3,583200
20,750333	0,5	-3,587350
20,758667	0,5	-3,583150
20,767000	0,5	-3,597000
20,775333	0,5	-3,663300
20,783667	0,5	-3,723850
20,792000	0,5	-3,793900
20,800333	0,5	-3,853650
20,808667	0,5	-3,854250
20,817000	0,5	-3,970150
20,825333	0,5	-4,025000
20,833667	0,5	-4,036350
20,842000	0,5	-4,064700
20,850333	0,5	-4,096750
20,858667	0,5	-4,149750
20,867000	0,5	-4,184150
20,875333	0,5	-4,234000
20,883667	0,5	-4,296200
20,892000	0,5	-4,333550
20,900333	0,5	-4,373300
20,908667	0,5	-4,384650
20,917000	0,5	-4,423000
20,925333	0,5	-4,424250
20,933667	0,5	-4,458600
20,942000	0,5	-4,505350
20,950333	0,5	-4,545050
20,958667	0,5	-4,586700
20,967000	0,5	-4,635300
20,975333	0,5	-4,665200
20,983667	0,5	-4,670100
20,992000	0,5	-4,680150
21,000333	0,5	-4,713850
21,008667	0,5	-4,758650
21,017000	0,5	-4,808700
21,025333	0,5	-4,857250
21,033667	0,5	-4,913600
21,042000	0,5	-4,941400
21,050333	0,5	-4,959550
21,058667	0,5	-4,984300
21,067000	0,5	-5,015300
21,075333	0,5	-5,054350
21,083667	0,5	-5,066400
21,092000	0,5	-5,107100
21,100333	0,5	-5,123600
21,108667	0,5	-5,155050
21,117000	0,5	-5,185150
21,125333	0,5	-5,197800
21,133667	0,5	-5,193800
21,142000	0,5	-5,223900
21,150333	0,5	-5,264800
21,158667	0,5	-5,289100
21,167000	0,5	-5,332350
21,175333	0,5	-5,385650
21,183667	0,5	-5,453250
21,192000	0,5	-5,460250
21,200333	0,5	-5,486850
21,208667	0,5	-5,517850
21,217000	0,5	-5,538800
21,225333	0,5	-5,575500
21,233667	0,5	-5,607700
21,242000	0,5	-5,618500
21,250333	0,5	-5,642900
21,258667	0,5	-5,663100
21,267000	0,5	-5,673000
21,275333	0,5	-5,669750
21,283667	0,5	-5,653950
21,292000	0,5	-5,673550
21,300333	0,5	-5,689850
21,308667	0,5	-5,703150
21,317000	0,5	-5,715600
21,325333	0,5	-5,767850
21,333667	0,5	-5,815000
21,342000	0,5	-5,831750
21,350333	0,5	-5,848600
21,358667	0,5	-5,887000
21,367000	0,5	-5,909100
21,375333	0,5	-5,940700
21,383667	0,5	-5,969100
21,392000	0,5	-5,996900
21,400333	0,5	-6,017500
21,408667	0,5	-6,051150
21,417000	0,5	-6,044600
21,425333	0,5	-6,033650
21,433667	0,5	-6,036050
21,442000	0,5	-6,068350
21,450333	0,5	-6,097350
21,458667	0,5	-6,119650
21,467000	0,5	-6,165050
21,475333	0,5	-6,201100
21,483667	0,5	-6,209150
21,492000	0,5	-6,231750
21,500333	0,5	-6,255200
21,508667	0,5	-6,271950
21,517000	0,5	-6,284100
21,525333	0,5	-6,298400
21,533667	0,5	-6,324300
21,542000	0,5	-6,327800
21,550333	0,5	-6,356950
21,558667	0,5	-6,359150
21,567000	0,5	-6,341250
21,575333	0,5	-6,330800
21,583667	0,5	-6,351100
21,592000	0,5	-6,363050
21,600333	0,5	-6,401850
21,608667	0,5	-6,421450
21,617000	0,5	-6,461300
21,625333	0,5	-6,483800
21,633667	0,5	-6,487900
21,642000	0,5	-6,493800
21,650333	0,5	-6,492300
21,658667	0,5	-6,497050
21,667000	0,5	-6,482050
21,675333	0,5	-6,490900
21,683667	0,5	-6,484550
21,692000	0,5	-6,487100
21,700333	0,5	-6,499750
21,708667	0,5	-6,498000
21,717000	0,5	-6,496850
21,725333	0,5	-6,520150
21,733667	0,5	-6,537450
21,742000	0,5	-6,560450
21,750333	0,5	-6,598250
21,758667	0,5	-6,619300
21,767000	0,5	-6,656300
21,775333	0,5	-6,676750
21,783667	0,5	-6,689350
21,792000	0,5	-6,695300
21,800333	0,5	-6,699850
21,808667	0,5	-6,699650
21,817000	0,5	-6,710400
21,825333	0,5	-6,716000
21,833667	0,5	-6,723350
21,842000	0,5	-6,707550
21,850333	0,5	-6,721300
21,858667	0,5	-6,673100
21,867000	0,5	-6,658800
21,875333	0,5	-6,663550
21,883667	0,5	-6,671550
21,892000	0,5	-6,676250
21,900333	0,5	-6,673800
21,908667	0,5	-6,687850
21,917000	0,5	-6,705250
21,925333	0,5	-6,691250
21,933667	0,5	-6,668100
21,942000	0,5	-6,626600
21,950333	0,5	-6,590250
21,958667	0,5	-6,547050
21,967000	0,5	-6,516900
21,975333	0,5	-6,541200
21,983667	0,5	-6,575550
21,992000	0,5	-6,630000
22,000333	0,5	-6,649600
22,008667	0,5	-6,667500
22,017000	0,5	-6,705200
22,025333	0,5	-6,723650
22,033667	0,5	-6,764950
22,042000	0,5	-6,801650
22,050333	0,5	-6,845950
22,058667	0,5	-6,902000
22,067000	0,5	-6,923000
22,075333	0,5	-6,950750
22,083667	0,5	-6,966900
22,092000	0,5	-6,987900
22,100333	0,5	-7,018250
22,108667	0,5	-7,029150
22,117000	0,5	-7,059050
22,125333	0,5	-7,082850
22,133667	0,5	-7,102850
22,142000	0,5	-7,125550
22,150333	0,5	-7,136850
22,158667	0,5	-7,173000
22,167000	0,5	-7,190050
22,175333	0,5	-7,191050
22,183667	0,5	-7,200200
22,192000	0,5	-7,229450
22,200333	0,5	-7,262200
22,208667	0,5	-7,284700
22,217000	0,5	-7,275150
22,225333	0,5	-7,288000
22,233667	0,5	-7,297500
22,242000	0,5	-7,313350
22,250333	0,5	-7,322150
22,258667	0,5	-7,332300
22,267000	0,5	-7,327650
22,275333	0,5	-7,325100
22,283667	0,5	-7,336550
22,292000	0,5	-7,350050
22,300333	0,5	-7,340350
22,308667	0,5	-7,370100
22,317000	0,5	-7,322350
22,325333	0,5	-7,302350
22,333667	0,5	-7,295200
22,342000	0,5	-7,295500
22,350333	0,5	-7,317450
22,358667	0,5	-7,301450
22,367000	0,5	-7,261400
22,375333	0,5	-7,185050
22,383667	0,5	-7,117300
22,392000	0,5	-7,052450
22,400333	0,5	-7,059400
22,408667	0,5	-7,086800
22,417000	0,5	-7,145100
22,425333	0,5	-7,184450
22,433667	0,5	-7,251700
22,442000	0,5	-7,315600
22,450333	0,5	-7,345550
22,458667	0,5	-7,350200
22,467000	0,5	-7,344300
22,475333	0,5	-7,368800
22,483667	0,5	-7,366400
22,492000	0,5	-7,393600
22,500333	0,5	-7,409300
22,508667	0,5	-7,400100
22,517000	0,5	-7,399350
22,525333	0,5	-7,408750
22,533667	0,5	-7,394500
22,542000	0,5	-7,397750
22,550333	0,5	-7,386000
22,558667	0,5	-7,377700
22,567000	0,5	-7,365250
22,575333	0,5	-7,344250
22,583667	0,5	-7,332800
22,592000	0,5	-7,335500
22,600333	0,5	-7,301000
22,608667	0,5	-7,263250
22,617000	0,5	-7,215950
22,625333	0,5	-7,224250
22,633667	0,5	-7,226000
22,642000	0,5	-7,230750
22,650333	0,5	-7,242250
22,658667	0,5	-7,211950
22,667000	0,5	-7,239150
22,675333	0,5	-7,216900
22,683667	0,5	-7,231800
22,692000	0,5	-7,235700
22,700333	0,5	-7,250550
22,708667	0,5	-7,244900
22,717000	0,5	-7,264950
22,725333	0,5	-7,272250
22,733667	0,5	-7,352850
22,742000	0,5	-7,343650
22,750333	0,5	-7,333700
22,758667	0,5	-7,302100
22,767000	0,5	-7,315150
22,775333	0,5	-7,324800
22,783667	0,5	-7,352450
22,792000	0,5	-7,368300
22,800333	0,5	-7,374250
22,808667	0,5	-7,379050
22,817000	0,5	-7,388650
22,825333	0,5	-7,396550
22,833667	0,5	-7,410200
22,842000	0,5	-7,443050
22,850333	0,5	-7,449350
22,858667	0,5	-7,455950
22,867000	0,5	-7,483500
22,875333	0,5	-7,509250
22,883667	0,5	-7,605100
22,892000	0,5	-7,617300
22,900333	0,5	-7,593950
22,908667	0,5	-7,633700
22,917000	0,5	-7,662500
22,925333	0,5	-7,683300
22,933667	0,5	-7,703650
22,942000	0,5	-7,729750
22,950333	0,5	-7,722950
22,958667	0,5	-7,763800
22,967000	0,5	-7,759050
22,975333	0,5	-7,785800
22,983667	0,5	-7,797150
22,992000	0,5	-7,804350
23,000333	0,5	-7,786900
23,008667	0,5	-7,774850
23,017000	0,5	-7,749750
23,025333	0,5	-7,698000
23,033667	0,5	-7,703750
23,042000	0,5	-7,653050
23,050333	0,5	-7,661650
23,058667	0,5	-7,654100
23,067000	0,5	-7,612300
23,075333	0,5	-7,571350
23,083667	0,5	-7,540300
23,092000	0,5	-7,505000
23,100333	0,5	-7,478700
23,108667	0,5	-7,420450
23,117000	0,5	-7,373100
23,125333	0,5	-7,314450
23,133667	0,5	-7,265850
23,142000	0,5	-7,173950
23,150333	0,5	-7,119350
23,158667	0,5	-7,036100
23,167000	0,5	-6,946050
23,175333	0,5	-6,864450
23,183667	0,5	-6,768600
23,192000	0,5	-6,692000
23,200333	0,5	-6,653650
23,208667	0,5	-6,591300
23,217000	0,5	-6,484500
23,225333	0,5	-6,412600
23,233667	0,5	-6,349650
23,242000	0,5	-6,284600
23,250333	0,5	-6,203850
23,258667	0,5	-6,139450
23,267000	0,5	-6,056150
23,275333	0,5	-5,972150
23,283667	0,5	-5,884200
23,292000	0,5	-5,808750
23,300333	0,5	-5,711300
23,308667	0,5	-5,631700
23,317000	0,5	-5,501500
23,325333	0,5	-5,435300
23,333667	0,5	-5,335500
23,342000	0,5	-5,244400
23,350333	0,5	-5,182650
23,358667	0,5	-5,116450
23,367000	0,5	-5,029450
23,375333	0,5	-4,935050
23,383667	0,5	-4,876800
23,392000	0,5	-4,821700
23,400333	0,5	-4,761100
23,408667	0,5	-4,688450
23,417000	0,5	-4,621950
23,425333	0,5	-4,555750
23,433667	0,5	-4,492400
23,442000	0,5	-4,424700
23,450333	0,5	-4,349400
23,458667	0,5	-4,270200
23,467000	0,5	-4,264550
23,475333	0,5	-4,196900
23,483667	0,5	-4,077300
23,492000	0,5	-4,003250
23,500333	0,5	-3,957900
23,508667	0,5	-3,904000
23,517000	0,5	-3,849750
23,525333	0,5	-3,786000
23,533667	0,5	-3,745800
23,542000	0,5	-3,714850
23,550333	0,5	-3,675800
23,558667	0,5	-3,640950
23,567000	0,5	-3,596900
23,575333	0,5	-3,548000
23,583667	0,5	-3,503800
23,592000	0,5	-3,471600
23,600333	0,5	-3,425200
23,608667	0,5	-3,394400
23,617000	0,5	-3,494200
23,625333	0,5	-3,407550
23,633667	0,5	-3,334950
23,642000	0,5	-3,273300
23,650333	0,5	-3,233350
23,658667	0,5	-3,214150
23,667000	0,5	-3,146300
23,675333	0,5	-3,147150
23,683667	0,5	-3,126300
23,692000	0,5	-3,103650
23,700333	0,5	-3,074000
23,708667	0,5	-3,051000
23,717000	0,5	-3,025000
23,725333	0,5	-3,000400
23,733667	0,5	-2,970850
23,742000	0,5	-2,942900
23,750333	0,5	-2,915100
23,758667	0,5	-3,007200
23,767000	0,5	-3,025950
23,775333	0,5	-2,974550
23,783667	0,5	-2,901600
23,792000	0,5	-2,852650
23,800333	0,5	-2,815750
23,808667	0,5	-2,795000
23,817000	0,5	-2,777700
23,825333	0,5	-2,765050
23,833667	0,5	-2,737750
23,842000	0,5	-2,713450
23,850333	0,5	-2,689800
23,858667	0,5	-2,660500
23,867000	0,5	-2,639750
23,875333	0,5	-2,614300
23,883667	0,5	-2,592200
23,892000	0,5	-2,562550
23,900333	0,5	-2,541100
23,908667	0,5	-2,698650
23,917000	0,5	-2,682350
23,925333	0,5	-2,605550
23,933667	0,5	-2,534500
23,942000	0,5	-2,483300
23,950333	0,5	-2,456350
23,958667	0,5	-2,430050
23,967000	0,5	-2,415200
23,975333	0,5	-2,380600
23,983667	0,5	-2,370450
23,992000	0,5	-2,338600
24,000333	0,5	-2,325850
24,008667	0,5	-2,299150
24,017000	0,5	-2,281200
24,025333	0,5	-2,258300
24,033667	0,5	-2,229600
24,042000	0,5	-2,215950
24,050333	0,5	-2,251600
24,058667	0,5	-2,356900
24,067000	0,5	-2,333900
24,075333	0,5	-2,248350
24,083667	0,5	-2,193900
24,092000	0,5	-2,159950
24,100333	0,5	-2,128000
24,108667	0,5	-2,118550
24,117000	0,5	-2,093050
24,125333	0,5	-2,064600
24,133667	0,5	-2,024300
24,142000	0,5	-2,002350
24,150333	0,5	-1,973550
24,158667	0,5	-1,940700
24,167000	0,5	-1,918800
24,175333	0,5	-1,893200
24,183667	0,5	-1,864450
24,192000	0,5	-1,851950
24,200333	0,5	-1,968700
24,208667	0,5	-1,949350
24,217000	0,5	-1,921400
24,225333	0,5	-1,851300
24,233667	0,5	-1,802800
24,242000	0,5	-1,776050
24,250333	0,5	-1,751500
24,258667	0,5	-1,757050
24,267000	0,5	-1,729250
24,275333	0,5	-1,695900
24,283667	0,5	-1,670550
24,292000	0,5	-1,652150
24,300333	0,5	-1,634500
24,308667	0,5	-1,604150
24,317000	0,5	-1,585650
24,325333	0,5	-1,553800
24,333667	0,5	-1,530400
24,342000	0,5	-1,515600
24,350333	0,5	-1,631450
24,358667	0,5	-1,587000
24,367000	0,5	-1,553700
24,375333	0,5	-1,492250
24,383667	0,5	-1,457150
24,392000	0,5	-1,435050
24,400333	0,5	-1,418000
24,408667	0,5	-1,419600
24,417000	0,5	-1,389850
24,425333	0,5	-1,359400
24,433667	0,5	-1,344100
24,442000	0,5	-1,321650
24,450333	0,5	-1,302050
24,458667	0,5	-1,289400
24,467000	0,5	-1,265650
24,475333	0,5	-1,241950
24,483667	0,5	-1,229950
24,492000	0,5	-1,276800
24,500333	0,5	-1,303700
24,508667	0,5	-1,275950
24,517000	0,5	-1,242350
24,525333	0,5	-1,191300
24,533667	0,5	-1,175050
24,542000	0,5	-1,163550
24,550333	0,5	-1,152050
24,558667	0,5	-1,149150
24,567000	0,5	-1,124900
24,575333	0,5	-1,103700
24,583667	0,5	-1,083150
24,592000	0,5	-1,067650
24,600333	0,5	-1,055300
24,608667	0,5	-1,030650
24,617000	0,5	-1,015200
24,625333	0,5	-1,000150
24,633667	0,5	-0,989550
24,642000	0,5	-1,045950
24,650333	0,5	-1,030600
24,658667	0,5	-1,012350
24,667000	0,5	-0,979850
24,675333	0,5	-0,954650
24,683667	0,5	-0,944250
24,692000	0,5	-0,933950
24,700333	0,5	-0,942250
24,708667	0,5	-0,933800
24,717000	0,5	-0,921100
24,725333	0,5	-0,907250
24,733667	0,5	-0,900600
24,742000	0,5	-0,888750
24,750333	0,5	-0,877400
24,758667	0,5	-0,863500
24,767000	0,5	-0,849500
24,775333	0,5	-0,840500
24,783667	0,5	-0,826150
24,792000	0,5	-0,872950
24,800333	0,5	-0,857700
24,808667	0,5	-0,830900
24,817000	0,5	-0,804850
24,825333	0,5	-0,792550
24,833667	0,5	-0,773700
24,842000	0,5	-0,773650
24,850333	0,5	-0,769100
24,858667	0,5	-0,762050
24,867000	0,5	-0,752700
24,875333	0,5	-0,744050
24,883667	0,5	-0,739550
24,892000	0,5	-0,731400
24,900333	0,5	-0,733150
24,908667	0,5	-0,727300
24,917000	0,5	-0,720750
24,925333	0,5	-0,713800
24,933667	0,5	-0,727800
24,942000	0,5	-0,731150
24,950333	0,5	-0,728450
24,958667	0,5	-0,709950
24,967000	0,5	-0,692550
24,975333	0,5	-0,687550
24,983667	0,5	-0,677650
24,992000	0,5	-0,672550
25,000333	0,5	-0,671350
25,008667	0,5	-0,661850
25,017000	0,5	-0,663850
25,025333	0,5	-0,650650
25,033667	0,5	-0,641350
25,042000	0,5	-0,637550
25,050333	0,5	-0,633100
25,058667	0,5	-0,623800
25,067000	0,5	-0,621500
25,075333	0,5	-0,615450
25,083667	0,5	-0,628550
25,092000	0,5	-0,628600
25,100333	0,5	-0,623400
25,108667	0,5	-0,623800
25,117000	0,5	-0,614750
25,125333	0,5	-0,613750
25,133667	0,5	-0,612350
25,142000	0,5	-0,611150
25,150333	0,5	-0,610300
25,158667	0,5	-0,605400
25,167000	0,5	-0,601500
25,175333	0,5	-0,601700
25,183667	0,5	-0,592650
25,192000	0,5	-0,586350
25,200333	0,5	-0,580000
25,208667	0,5	-0,580300
25,217000	0,5	-0,574100
25,225333	0,5	-0,566700
25,233667	0,5	-0,573250
25,242000	0,5	-0,562000
25,250333	0,5	-0,557400
25,258667	0,5	-0,556250
25,267000	0,5	-0,552900
25,275333	0,5	-0,558950
25,283667	0,5	-0,557300
25,292000	0,5	-0,558750
25,300333	0,5	-0,558400
25,308667	0,5	-0,563850
25,317000	0,5	-0,559900
25,325333	0,5	-0,562800
25,333667	0,5	-0,562400
25,342000	0,5	-0,558850
25,350333	0,5	-0,556600
25,358667	0,5	-0,553150
25,367000	0,5	-0,553050
25,375333	0,5	-0,550650
25,383667	0,5	-0,542950
25,392000	0,5	-0,537050
25,400333	0,5	-0,534800
25,408667	0,5	-0,529550
25,417000	0,5	-0,531400
25,425333	0,5	-0,528250
25,433667	0,5	-0,527450
25,442000	0,5	-0,525450
25,450333	0,5	-0,525700
25,458667	0,5	-0,527100
25,467000	0,5	-0,526600
25,475333	0,5	-0,528850
25,483667	0,5	-0,526300
25,492000	0,5	-0,528400
25,500333	0,5	-0,528600
25,508667	0,5	-0,526350
25,517000	0,5	-0,529000
25,525333	0,5	-0,517500
25,533667	0,5	-0,513000
25,542000	0,5	-0,513650
25,550333	0,5	-0,520550
25,558667	0,5	-0,523750
25,567000	0,5	-0,518650
25,575333	0,5	-0,517950
25,583667	0,5	-0,513100
25,592000	0,5	-0,507850
25,600333	0,5	-0,509850
25,608667	0,5	-0,510850
25,617000	0,5	-0,506200
25,625333	0,5	-0,508500
25,633667	0,5	-0,507350
25,642000	0,5	-0,507600
25,650333	0,5	-0,510300
25,658667	0,5	-0,507500
25,667000	0,5	-0,506300
25,675333	0,5	-0,494400
25,683667	0,5	-0,492550
25,692000	0,5	-0,495800
25,700333	0,5	-0,507050
25,708667	0,5	-0,506400
25,717000	0,5	-0,504750
25,725333	0,5	-0,502000
25,733667	0,5	-0,498900
25,742000	0,5	-0,499900
25,750333	0,5	-0,498850
25,758667	0,5	-0,501450
25,767000	0,5	-0,499900
25,775333	0,5	-0,500950
25,783667	0,5	-0,500400
25,792000	0,5	-0,496900
25,800333	0,5	-0,494000
25,808667	0,5	-0,494450
25,817000	0,5	-0,487350
25,825333	0,5	-0,469800
25,833667	0,5	-0,471800
25,842000	0,5	-0,470050
25,850333	0,5	-0,485550
25,858667	0,5	-0,484750
25,867000	0,5	-0,486100
25,875333	0,5	-0,480300
25,883667	0,5	-0,471850
25,892000	0,5	-0,472550
25,900333	0,5	-0,476650
25,908667	0,5	-0,475700
25,917000	0,5	-0,475850
25,925333	0,5	-0,475450
25,933667	0,5	-0,471950
25,942000	0,5	-0,471600
25,950333	0,5	-0,471150
25,958667	0,5	-0,464400
25,967000	0,5	-0,452100
25,975333	0,5	-0,457650
25,983667	0,5	-0,441550
25,992000	0,5	-0,450350
26,000333	0,5	-0,454000
