File Path	chrom://chromeleon01/ikbm_chromeleon/2022/ICS-5000/ED1/Esteban/20220427_Cell_Amandas_mutants.seq/503.smp/ED_1.channel/ED_1.chm
Channel	ED_1

Injection Information:
Data Vault	ikbm_chromeleon
Injection	EG_BMCC_3a
Injection Number	52
Position	GA4
Comment	
Processing Method	Stop sequence after Cell Death
Instrument Method	ICS5000_PA200_FullNative_Ox_26min_ED1
Type	Unknown
Status	Finished
Injection Date	28.04.2022
Injection Time	13:18:35
Injection Volume (µl)	5,0
Dilution Factor	1,0000
Weight	1,0000

Chromatogram Data Information:
Time Min. (min)	0,000333
Time Max. (min)	26,000333
Data Points	3121
Detector	EDet1
Generating Data System	Chromeleon 7.2.9.11323
Exporting Data System	Chromeleon 7.2.9.0
Operator	Instrument Controller
Signal Quantity	
Signal Unit	nC
Signal Min.	-8,165750
Signal Max.	1 718,099076
Channel	ED_1
Driver Name	DC-5000
Channel Type	Evaluation
Min. Step (s)	0,5
Max. Step (s)	0,5
Average Step (s)	0,5

Signal Parameter Information:
Signal Info	

Chromatogram Data:
Time (min)	Step (s)	Value (nC)
0,000333	n.a.	0,016950
0,008667	0,5	-0,051600
0,017000	0,5	-0,055000
0,025333	0,5	-0,044850
0,033667	0,5	-0,025200
0,042000	0,5	-0,012300
0,050333	0,5	-0,013300
0,058667	0,5	-0,018150
0,067000	0,5	-0,008300
0,075333	0,5	-0,013400
0,083667	0,5	0,000350
0,092000	0,5	-0,004900
0,100333	0,5	0,023850
0,108667	0,5	0,013850
0,117000	0,5	0,050850
0,125333	0,5	0,015550
0,133667	0,5	0,004150
0,142000	0,5	0,005850
0,150333	0,5	0,029500
0,158667	0,5	0,058200
0,167000	0,5	0,038600
0,175333	0,5	0,022600
0,183667	0,5	0,032050
0,192000	0,5	0,021350
0,200333	0,5	0,036250
0,208667	0,5	0,029750
0,217000	0,5	0,026550
0,225333	0,5	0,025250
0,233667	0,5	0,026650
0,242000	0,5	0,042350
0,250333	0,5	0,010850
0,258667	0,5	0,029650
0,267000	0,5	0,027400
0,275333	0,5	0,013600
0,283667	0,5	0,004400
0,292000	0,5	0,021350
0,300333	0,5	0,053400
0,308667	0,5	0,118850
0,317000	0,5	0,111100
0,325333	0,5	0,070050
0,333667	0,5	0,034250
0,342000	0,5	0,029300
0,350333	0,5	0,019850
0,358667	0,5	0,027300
0,367000	0,5	0,020000
0,375333	0,5	0,010100
0,383667	0,5	0,017800
0,392000	0,5	0,011600
0,400333	0,5	0,003100
0,408667	0,5	0,043300
0,417000	0,5	0,013500
0,425333	0,5	0,000900
0,433667	0,5	0,003700
0,442000	0,5	0,008650
0,450333	0,5	0,062750
0,458667	0,5	0,054650
0,467000	0,5	0,045050
0,475333	0,5	0,031600
0,483667	0,5	0,038600
0,492000	0,5	0,026250
0,500333	0,5	0,037200
0,508667	0,5	0,034850
0,517000	0,5	0,031900
0,525333	0,5	0,035650
0,533667	0,5	0,040450
0,542000	0,5	0,030150
0,550333	0,5	0,021500
0,558667	0,5	0,043950
0,567000	0,5	0,018700
0,575333	0,5	0,014550
0,583667	0,5	0,017050
0,592000	0,5	0,042500
0,600333	0,5	0,092450
0,608667	0,5	0,096850
0,617000	0,5	0,073100
0,625333	0,5	0,076400
0,633667	0,5	0,068800
0,642000	0,5	0,068600
0,650333	0,5	0,064200
0,658667	0,5	0,069350
0,667000	0,5	0,054950
0,675333	0,5	0,059250
0,683667	0,5	0,053650
0,692000	0,5	0,047900
0,700333	0,5	0,057700
0,708667	0,5	0,078300
0,717000	0,5	0,050700
0,725333	0,5	0,052200
0,733667	0,5	0,055650
0,742000	0,5	0,085850
0,750333	0,5	0,118750
0,758667	0,5	0,107150
0,767000	0,5	0,106750
0,775333	0,5	0,106450
0,783667	0,5	0,106400
0,792000	0,5	0,102650
0,800333	0,5	0,118600
0,808667	0,5	0,106600
0,817000	0,5	0,111950
0,825333	0,5	0,107050
0,833667	0,5	0,100600
0,842000	0,5	0,085400
0,850333	0,5	0,114100
0,858667	0,5	0,097050
0,867000	0,5	0,091950
0,875333	0,5	0,098550
0,883667	0,5	0,118450
0,892000	0,5	0,156750
0,900333	0,5	0,180750
0,908667	0,5	0,170700
0,917000	0,5	0,164600
0,925333	0,5	0,160150
0,933667	0,5	0,161250
0,942000	0,5	0,167100
0,950333	0,5	0,164500
0,958667	0,5	0,160650
0,967000	0,5	0,155050
0,975333	0,5	0,169100
0,983667	0,5	0,148550
0,992000	0,5	0,151100
1,000333	0,5	0,187400
1,008667	0,5	0,172000
1,017000	0,5	0,156350
1,025333	0,5	0,169750
1,033667	0,5	0,179650
1,042000	0,5	0,219350
1,050333	0,5	0,211400
1,058667	0,5	0,214200
1,067000	0,5	0,206300
1,075333	0,5	0,219600
1,083667	0,5	0,211750
1,092000	0,5	0,217200
1,100333	0,5	0,223100
1,108667	0,5	0,220550
1,117000	0,5	0,233000
1,125333	0,5	0,229100
1,133667	0,5	0,229600
1,142000	0,5	0,239950
1,150333	0,5	0,260350
1,158667	0,5	0,240250
1,167000	0,5	0,238500
1,175333	0,5	0,251300
1,183667	0,5	0,285400
1,192000	0,5	0,305900
1,200333	0,5	0,313750
1,208667	0,5	0,299150
1,217000	0,5	0,312100
1,225333	0,5	0,304600
1,233667	0,5	0,312850
1,242000	0,5	0,320050
1,250333	0,5	0,324900
1,258667	0,5	0,331700
1,267000	0,5	0,341050
1,275333	0,5	0,349050
1,283667	0,5	0,331350
1,292000	0,5	0,359000
1,300333	0,5	0,366050
1,308667	0,5	0,367800
1,317000	0,5	0,370950
1,325333	0,5	0,391800
1,333667	0,5	0,423200
1,342000	0,5	0,452850
1,350333	0,5	0,431600
1,358667	0,5	0,452850
1,367000	0,5	0,464150
1,375333	0,5	0,471250
1,383667	0,5	0,472000
1,392000	0,5	0,487800
1,400333	0,5	0,496650
1,408667	0,5	0,505100
1,417000	0,5	0,521350
1,425333	0,5	0,513500
1,433667	0,5	0,499700
1,442000	0,5	0,548950
1,450333	0,5	0,530650
1,458667	0,5	0,542200
1,467000	0,5	0,545100
1,475333	0,5	0,572950
1,483667	0,5	0,624250
1,492000	0,5	0,618100
1,500333	0,5	0,636650
1,508667	0,5	0,632600
1,517000	0,5	0,642600
1,525333	0,5	0,630500
1,533667	0,5	0,650000
1,542000	0,5	0,650350
1,550333	0,5	0,662450
1,558667	0,5	0,666650
1,567000	0,5	0,678150
1,575333	0,5	0,637950
1,583667	0,5	0,449400
1,592000	0,5	-0,170600
1,600333	0,5	-1,052750
1,608667	0,5	-0,856500
1,617000	0,5	1,269200
1,625333	0,5	4,527900
1,633667	0,5	8,702400
1,642000	0,5	14,031200
1,650333	0,5	18,928900
1,658667	0,5	21,092750
1,667000	0,5	20,420450
1,675333	0,5	18,534550
1,683667	0,5	16,571850
1,692000	0,5	14,839200
1,700333	0,5	13,497000
1,708667	0,5	13,015000
1,717000	0,5	14,548000
1,725333	0,5	20,207950
1,733667	0,5	29,489800
1,742000	0,5	35,931601
1,750333	0,5	34,244051
1,758667	0,5	27,492350
1,767000	0,5	20,872700
1,775333	0,5	16,297500
1,783667	0,5	13,521900
1,792000	0,5	12,086500
1,800333	0,5	11,754350
1,808667	0,5	11,975600
1,817000	0,5	11,959250
1,825333	0,5	11,434400
1,833667	0,5	10,639500
1,842000	0,5	9,801600
1,850333	0,5	9,040050
1,858667	0,5	8,339100
1,867000	0,5	7,688000
1,875333	0,5	7,076350
1,883667	0,5	6,599350
1,892000	0,5	6,162050
1,900333	0,5	5,786400
1,908667	0,5	5,461800
1,917000	0,5	5,175600
1,925333	0,5	4,935950
1,933667	0,5	4,730300
1,942000	0,5	4,552100
1,950333	0,5	4,460850
1,958667	0,5	4,418150
1,967000	0,5	4,408250
1,975333	0,5	4,548450
1,983667	0,5	5,397700
1,992000	0,5	8,350300
2,000333	0,5	16,007150
2,008667	0,5	32,828350
2,017000	0,5	70,001001
2,025333	0,5	154,674402
2,033667	0,5	307,618605
2,042000	0,5	466,701257
2,050333	0,5	519,134208
2,058667	0,5	449,609557
2,067000	0,5	337,247455
2,075333	0,5	245,759404
2,083667	0,5	185,790753
2,092000	0,5	146,800852
2,100333	0,5	119,769702
2,108667	0,5	100,059501
2,117000	0,5	85,170551
2,125333	0,5	73,776901
2,133667	0,5	64,966551
2,142000	0,5	58,104801
2,150333	0,5	52,635601
2,158667	0,5	48,272901
2,167000	0,5	44,738401
2,175333	0,5	41,568001
2,183667	0,5	38,438051
2,192000	0,5	35,542201
2,200333	0,5	33,153150
2,208667	0,5	31,259300
2,217000	0,5	29,757100
2,225333	0,5	28,491350
2,233667	0,5	27,442000
2,242000	0,5	26,610750
2,250333	0,5	25,945150
2,258667	0,5	25,284400
2,267000	0,5	24,650950
2,275333	0,5	24,056400
2,283667	0,5	23,542300
2,292000	0,5	23,094300
2,300333	0,5	22,719950
2,308667	0,5	22,376800
2,317000	0,5	22,057250
2,325333	0,5	21,821800
2,333667	0,5	21,606800
2,342000	0,5	21,436800
2,350333	0,5	21,319150
2,358667	0,5	21,252000
2,367000	0,5	21,230650
2,375333	0,5	21,241300
2,383667	0,5	21,323600
2,392000	0,5	21,604300
2,400333	0,5	22,197400
2,408667	0,5	23,279050
2,417000	0,5	24,815600
2,425333	0,5	26,346400
2,433667	0,5	27,021550
2,442000	0,5	26,699850
2,450333	0,5	26,037150
2,458667	0,5	25,576250
2,467000	0,5	25,246600
2,475333	0,5	24,979700
2,483667	0,5	24,632000
2,492000	0,5	24,290050
2,500333	0,5	23,936850
2,508667	0,5	23,593700
2,517000	0,5	23,258600
2,525333	0,5	22,875150
2,533667	0,5	22,516550
2,542000	0,5	22,188400
2,550333	0,5	21,911150
2,558667	0,5	21,696500
2,567000	0,5	21,587350
2,575333	0,5	21,624450
2,583667	0,5	21,934700
2,592000	0,5	22,676400
2,600333	0,5	23,986450
2,608667	0,5	25,744450
2,617000	0,5	27,671950
2,625333	0,5	29,654950
2,633667	0,5	32,645550
2,642000	0,5	39,667951
2,650333	0,5	54,634601
2,658667	0,5	78,774501
2,667000	0,5	111,622752
2,675333	0,5	156,797002
2,683667	0,5	235,209254
2,692000	0,5	418,368056
2,700333	0,5	786,499762
2,708667	0,5	1 209,469268
2,717000	0,5	1 529,191423
2,725333	0,5	1 693,910075
2,733667	0,5	1 718,099076
2,742000	0,5	1 646,849275
2,750333	0,5	1 519,287473
2,758667	0,5	1 361,675570
2,767000	0,5	1 193,819318
2,775333	0,5	1 033,457265
2,783667	0,5	885,612713
2,792000	0,5	754,302461
2,800333	0,5	649,073610
2,808667	0,5	571,737209
2,817000	0,5	517,213658
2,825333	0,5	472,932657
2,833667	0,5	433,019056
2,842000	0,5	394,181206
2,850333	0,5	356,739505
2,858667	0,5	322,425955
2,867000	0,5	291,807554
2,875333	0,5	263,853754
2,883667	0,5	237,146354
2,892000	0,5	211,231503
2,900333	0,5	186,740703
2,908667	0,5	164,557152
2,917000	0,5	145,264302
2,925333	0,5	128,721552
2,933667	0,5	114,638152
2,942000	0,5	102,674702
2,950333	0,5	92,487401
2,958667	0,5	83,792501
2,967000	0,5	76,296301
2,975333	0,5	69,760951
2,983667	0,5	64,062951
2,992000	0,5	59,008751
3,000333	0,5	54,531501
3,008667	0,5	50,509001
3,017000	0,5	46,902901
3,025333	0,5	43,648201
3,033667	0,5	40,709051
3,042000	0,5	38,057151
3,050333	0,5	35,629901
3,058667	0,5	33,432650
3,067000	0,5	31,444900
3,075333	0,5	29,588750
3,083667	0,5	27,877000
3,092000	0,5	26,306500
3,100333	0,5	24,870100
3,108667	0,5	23,543550
3,117000	0,5	22,283350
3,125333	0,5	21,141350
3,133667	0,5	20,095650
3,142000	0,5	19,177950
3,150333	0,5	18,367450
3,158667	0,5	17,688500
3,167000	0,5	17,123450
3,175333	0,5	16,677500
3,183667	0,5	16,365450
3,192000	0,5	16,249500
3,200333	0,5	16,438200
3,208667	0,5	17,208000
3,217000	0,5	18,754200
3,225333	0,5	21,298550
3,233667	0,5	24,687900
3,242000	0,5	28,281250
3,250333	0,5	31,171050
3,258667	0,5	32,525750
3,267000	0,5	32,100350
3,275333	0,5	30,166300
3,283667	0,5	27,293800
3,292000	0,5	24,022600
3,300333	0,5	20,857450
3,308667	0,5	18,074100
3,317000	0,5	15,774050
3,325333	0,5	13,957150
3,333667	0,5	12,546400
3,342000	0,5	11,438350
3,350333	0,5	10,543850
3,358667	0,5	9,838550
3,367000	0,5	9,213650
3,375333	0,5	8,684250
3,383667	0,5	8,240050
3,392000	0,5	7,865600
3,400333	0,5	7,569750
3,408667	0,5	7,296000
3,417000	0,5	7,056000
3,425333	0,5	6,882300
3,433667	0,5	6,744650
3,442000	0,5	6,634700
3,450333	0,5	6,537850
3,458667	0,5	6,446600
3,467000	0,5	6,333450
3,475333	0,5	6,220800
3,483667	0,5	6,108850
3,492000	0,5	6,013050
3,500333	0,5	5,921800
3,508667	0,5	5,890450
3,517000	0,5	5,814400
3,525333	0,5	5,782750
3,533667	0,5	5,757650
3,542000	0,5	5,748250
3,550333	0,5	5,751950
3,558667	0,5	5,704700
3,567000	0,5	5,639450
3,575333	0,5	5,575150
3,583667	0,5	5,480800
3,592000	0,5	5,371550
3,600333	0,5	5,254250
3,608667	0,5	5,123200
3,617000	0,5	4,986900
3,625333	0,5	4,844250
3,633667	0,5	4,716600
3,642000	0,5	4,554850
3,650333	0,5	4,419450
3,658667	0,5	4,292450
3,667000	0,5	4,148900
3,675333	0,5	4,015000
3,683667	0,5	3,904750
3,692000	0,5	3,802400
3,700333	0,5	3,718500
3,708667	0,5	3,601850
3,717000	0,5	3,495150
3,725333	0,5	3,396650
3,733667	0,5	3,314250
3,742000	0,5	3,224700
3,750333	0,5	3,165950
3,758667	0,5	3,105150
3,767000	0,5	3,053650
3,775333	0,5	3,031300
3,783667	0,5	3,011050
3,792000	0,5	3,008300
3,800333	0,5	3,026500
3,808667	0,5	3,042550
3,817000	0,5	3,049500
3,825333	0,5	3,070100
3,833667	0,5	3,087950
3,842000	0,5	3,113150
3,850333	0,5	3,117500
3,858667	0,5	3,091550
3,867000	0,5	3,048100
3,875333	0,5	3,015200
3,883667	0,5	2,950200
3,892000	0,5	2,898100
3,900333	0,5	2,836500
3,908667	0,5	2,778650
3,917000	0,5	2,721400
3,925333	0,5	2,659300
3,933667	0,5	2,611350
3,942000	0,5	2,560500
3,950333	0,5	2,521800
3,958667	0,5	2,455250
3,967000	0,5	2,399700
3,975333	0,5	2,339750
3,983667	0,5	2,302300
3,992000	0,5	2,276350
4,000333	0,5	2,231500
4,008667	0,5	2,161650
4,017000	0,5	2,116650
4,025333	0,5	2,054200
4,033667	0,5	2,010550
4,042000	0,5	1,966150
4,050333	0,5	1,927900
4,058667	0,5	1,877850
4,067000	0,5	1,837350
4,075333	0,5	1,799100
4,083667	0,5	1,745950
4,092000	0,5	1,710250
4,100333	0,5	1,659550
4,108667	0,5	1,600900
4,117000	0,5	1,552950
4,125333	0,5	1,514000
4,133667	0,5	1,493000
4,142000	0,5	1,473300
4,150333	0,5	1,434850
4,158667	0,5	1,405600
4,167000	0,5	1,378250
4,175333	0,5	1,357700
4,183667	0,5	1,337650
4,192000	0,5	1,327900
4,200333	0,5	1,327900
4,208667	0,5	1,337100
4,217000	0,5	1,378850
4,225333	0,5	1,444900
4,233667	0,5	1,541700
4,242000	0,5	1,732050
4,250333	0,5	1,949750
4,258667	0,5	2,259150
4,267000	0,5	2,653700
4,275333	0,5	3,155900
4,283667	0,5	3,780950
4,292000	0,5	4,461000
4,300333	0,5	5,241400
4,308667	0,5	6,137800
4,317000	0,5	7,211200
4,325333	0,5	8,509850
4,333667	0,5	10,181850
4,342000	0,5	12,427950
4,350333	0,5	15,561450
4,358667	0,5	19,953150
4,367000	0,5	26,034050
4,375333	0,5	34,109201
4,383667	0,5	44,219551
4,392000	0,5	55,995301
4,400333	0,5	68,402901
4,408667	0,5	80,195251
4,417000	0,5	90,027201
4,425333	0,5	96,847951
4,433667	0,5	100,198001
4,442000	0,5	100,006151
4,450333	0,5	96,793201
4,458667	0,5	91,275251
4,467000	0,5	84,211051
4,475333	0,5	76,277351
4,483667	0,5	68,067401
4,492000	0,5	60,013801
4,500333	0,5	52,415501
4,508667	0,5	45,474301
4,517000	0,5	39,267101
4,525333	0,5	33,826651
4,533667	0,5	29,087900
4,542000	0,5	25,068500
4,550333	0,5	21,628700
4,558667	0,5	18,762050
4,567000	0,5	16,390850
4,575333	0,5	14,447850
4,583667	0,5	12,855100
4,592000	0,5	11,507900
4,600333	0,5	10,379200
4,608667	0,5	9,448250
4,617000	0,5	8,639100
4,625333	0,5	7,939150
4,633667	0,5	7,300650
4,642000	0,5	6,723750
4,650333	0,5	6,190800
4,658667	0,5	5,692400
4,667000	0,5	5,247200
4,675333	0,5	4,806100
4,683667	0,5	4,428950
4,692000	0,5	4,075800
4,700333	0,5	3,745900
4,708667	0,5	3,460600
4,717000	0,5	3,222500
4,725333	0,5	3,024400
4,733667	0,5	2,844100
4,742000	0,5	2,651650
4,750333	0,5	2,502650
4,758667	0,5	2,356700
4,767000	0,5	2,225500
4,775333	0,5	2,101450
4,783667	0,5	1,994950
4,792000	0,5	1,883800
4,800333	0,5	1,785600
4,808667	0,5	1,697550
4,817000	0,5	1,601800
4,825333	0,5	1,525600
4,833667	0,5	1,468950
4,842000	0,5	1,393350
4,850333	0,5	1,334750
4,858667	0,5	1,288650
4,867000	0,5	1,258750
4,875333	0,5	1,248100
4,883667	0,5	1,223750
4,892000	0,5	1,207650
4,900333	0,5	1,189350
4,908667	0,5	1,183600
4,917000	0,5	1,172100
4,925333	0,5	1,182900
4,933667	0,5	1,184750
4,942000	0,5	1,194400
4,950333	0,5	1,207600
4,958667	0,5	1,225000
4,967000	0,5	1,239900
4,975333	0,5	1,256250
4,983667	0,5	1,278250
4,992000	0,5	1,276800
5,000333	0,5	1,281050
5,008667	0,5	1,288150
5,017000	0,5	1,310050
5,025333	0,5	1,324900
5,033667	0,5	1,332500
5,042000	0,5	1,313650
5,050333	0,5	1,295800
5,058667	0,5	1,272450
5,067000	0,5	1,258650
5,075333	0,5	1,235450
5,083667	0,5	1,221500
5,092000	0,5	1,194300
5,100333	0,5	1,180450
5,108667	0,5	1,161100
5,117000	0,5	1,137650
5,125333	0,5	1,127350
5,133667	0,5	1,113100
5,142000	0,5	1,080550
5,150333	0,5	1,060900
5,158667	0,5	1,045650
5,167000	0,5	1,047100
5,175333	0,5	1,045450
5,183667	0,5	1,028750
5,192000	0,5	1,025550
5,200333	0,5	1,015950
5,208667	0,5	1,007600
5,217000	0,5	1,003800
5,225333	0,5	1,003850
5,233667	0,5	1,006000
5,242000	0,5	1,009050
5,250333	0,5	1,006100
5,258667	0,5	1,008100
5,267000	0,5	0,997350
5,275333	0,5	1,019800
5,283667	0,5	0,995850
5,292000	0,5	0,976500
5,300333	0,5	0,960200
5,308667	0,5	0,955600
5,317000	0,5	0,966650
5,325333	0,5	0,955000
5,333667	0,5	0,943700
5,342000	0,5	0,941350
5,350333	0,5	0,928950
5,358667	0,5	0,914500
5,367000	0,5	0,908950
5,375333	0,5	0,907350
5,383667	0,5	0,900650
5,392000	0,5	0,895650
5,400333	0,5	0,901300
5,408667	0,5	0,880300
5,417000	0,5	0,884350
5,425333	0,5	0,897450
5,433667	0,5	0,893150
5,442000	0,5	0,892800
5,450333	0,5	0,909500
5,458667	0,5	0,921650
5,467000	0,5	0,959900
5,475333	0,5	0,958350
5,483667	0,5	0,973000
5,492000	0,5	0,981350
5,500333	0,5	0,994900
5,508667	0,5	1,003000
5,517000	0,5	1,013950
5,525333	0,5	1,026600
5,533667	0,5	1,028500
5,542000	0,5	1,049600
5,550333	0,5	1,058200
5,558667	0,5	1,074300
5,567000	0,5	1,093800
5,575333	0,5	1,117900
5,583667	0,5	1,124300
5,592000	0,5	1,142200
5,600333	0,5	1,170050
5,608667	0,5	1,216200
5,617000	0,5	1,254300
5,625333	0,5	1,272300
5,633667	0,5	1,287800
5,642000	0,5	1,317900
5,650333	0,5	1,326700
5,658667	0,5	1,339550
5,667000	0,5	1,337500
5,675333	0,5	1,338000
5,683667	0,5	1,327300
5,692000	0,5	1,315450
5,700333	0,5	1,301900
5,708667	0,5	1,266000
5,717000	0,5	1,254650
5,725333	0,5	1,227600
5,733667	0,5	1,202750
5,742000	0,5	1,189100
5,750333	0,5	1,188850
5,758667	0,5	1,199750
5,767000	0,5	1,210600
5,775333	0,5	1,198050
5,783667	0,5	1,199900
5,792000	0,5	1,197850
5,800333	0,5	1,198800
5,808667	0,5	1,199900
5,817000	0,5	1,209150
5,825333	0,5	1,205700
5,833667	0,5	1,203900
5,842000	0,5	1,207650
5,850333	0,5	1,198450
5,858667	0,5	1,189700
5,867000	0,5	1,203300
5,875333	0,5	1,191150
5,883667	0,5	1,199100
5,892000	0,5	1,209000
5,900333	0,5	1,223150
5,908667	0,5	1,252100
5,917000	0,5	1,255600
5,925333	0,5	1,261250
5,933667	0,5	1,269050
5,942000	0,5	1,272200
5,950333	0,5	1,276600
5,958667	0,5	1,281800
5,967000	0,5	1,283500
5,975333	0,5	1,288100
5,983667	0,5	1,288950
5,992000	0,5	1,295400
6,000333	0,5	1,293000
6,008667	0,5	1,302350
6,017000	0,5	1,312350
6,025333	0,5	1,302950
6,033667	0,5	1,304250
6,042000	0,5	1,317600
6,050333	0,5	1,344100
6,058667	0,5	1,369550
6,067000	0,5	1,377300
6,075333	0,5	1,374900
6,083667	0,5	1,383850
6,092000	0,5	1,389200
6,100333	0,5	1,395950
6,108667	0,5	1,402050
6,117000	0,5	1,408000
6,125333	0,5	1,413750
6,133667	0,5	1,421500
6,142000	0,5	1,422150
6,150333	0,5	1,427500
6,158667	0,5	1,444450
6,167000	0,5	1,448750
6,175333	0,5	1,438750
6,183667	0,5	1,450400
6,192000	0,5	1,458850
6,200333	0,5	1,485300
6,208667	0,5	1,503600
6,217000	0,5	1,505850
6,225333	0,5	1,511650
6,233667	0,5	1,519250
6,242000	0,5	1,525300
6,250333	0,5	1,529900
6,258667	0,5	1,541400
6,267000	0,5	1,543600
6,275333	0,5	1,556350
6,283667	0,5	1,561200
6,292000	0,5	1,580150
6,300333	0,5	1,591600
6,308667	0,5	1,631000
6,317000	0,5	1,632550
6,325333	0,5	1,651950
6,333667	0,5	1,678550
6,342000	0,5	1,706300
6,350333	0,5	1,751750
6,358667	0,5	1,781450
6,367000	0,5	1,796800
6,375333	0,5	1,814050
6,383667	0,5	1,821450
6,392000	0,5	1,830400
6,400333	0,5	1,834050
6,408667	0,5	1,833400
6,417000	0,5	1,835850
6,425333	0,5	1,835600
6,433667	0,5	1,845200
6,442000	0,5	1,839200
6,450333	0,5	1,847050
6,458667	0,5	1,865100
6,467000	0,5	1,855800
6,475333	0,5	1,856350
6,483667	0,5	1,869600
6,492000	0,5	1,889300
6,500333	0,5	1,919250
6,508667	0,5	1,925150
6,517000	0,5	1,947450
6,525333	0,5	1,968800
6,533667	0,5	2,005400
6,542000	0,5	2,034800
6,550333	0,5	2,083100
6,558667	0,5	2,127450
6,567000	0,5	2,157300
6,575333	0,5	2,189600
6,583667	0,5	2,204100
6,592000	0,5	2,203100
6,600333	0,5	2,208000
6,608667	0,5	2,185100
6,617000	0,5	2,157050
6,625333	0,5	2,126250
6,633667	0,5	2,106050
6,642000	0,5	2,104100
6,650333	0,5	2,091150
6,658667	0,5	2,081800
6,667000	0,5	2,065800
6,675333	0,5	2,071100
6,683667	0,5	2,065450
6,692000	0,5	2,073350
6,700333	0,5	2,075200
6,708667	0,5	2,082450
6,717000	0,5	2,086050
6,725333	0,5	2,099100
6,733667	0,5	2,121450
6,742000	0,5	2,128800
6,750333	0,5	2,150450
6,758667	0,5	2,159650
6,767000	0,5	2,174350
6,775333	0,5	2,187700
6,783667	0,5	2,206200
6,792000	0,5	2,227650
6,800333	0,5	2,241600
6,808667	0,5	2,232700
6,817000	0,5	2,228200
6,825333	0,5	2,210200
6,833667	0,5	2,192000
6,842000	0,5	2,179450
6,850333	0,5	2,169850
6,858667	0,5	2,157150
6,867000	0,5	2,151800
6,875333	0,5	2,145950
6,883667	0,5	2,142050
6,892000	0,5	2,134350
6,900333	0,5	2,145700
6,908667	0,5	2,137850
6,917000	0,5	2,134500
6,925333	0,5	2,136250
6,933667	0,5	2,151000
6,942000	0,5	2,171650
6,950333	0,5	2,178700
6,958667	0,5	2,190350
6,967000	0,5	2,208100
6,975333	0,5	2,230100
6,983667	0,5	2,251450
6,992000	0,5	2,283600
7,000333	0,5	2,309800
7,008667	0,5	2,340100
7,017000	0,5	2,357650
7,025333	0,5	2,375300
7,033667	0,5	2,371000
7,042000	0,5	2,366350
7,050333	0,5	2,353400
7,058667	0,5	2,324500
7,067000	0,5	2,302750
7,075333	0,5	2,291250
7,083667	0,5	2,298800
7,092000	0,5	2,316550
7,100333	0,5	2,339700
7,108667	0,5	2,388150
7,117000	0,5	2,466300
7,125333	0,5	2,582650
7,133667	0,5	2,734600
7,142000	0,5	2,912800
7,150333	0,5	3,082150
7,158667	0,5	3,201100
7,167000	0,5	3,253550
7,175333	0,5	3,216300
7,183667	0,5	3,125750
7,192000	0,5	2,997550
7,200333	0,5	2,853850
7,208667	0,5	2,728650
7,217000	0,5	2,635500
7,225333	0,5	2,567800
7,233667	0,5	2,520250
7,242000	0,5	2,476400
7,250333	0,5	2,433900
7,258667	0,5	2,386800
7,267000	0,5	2,348150
7,275333	0,5	2,315200
7,283667	0,5	2,291850
7,292000	0,5	2,279600
7,300333	0,5	2,284250
7,308667	0,5	2,298850
7,317000	0,5	2,337300
7,325333	0,5	2,411200
7,333667	0,5	2,515700
7,342000	0,5	2,653700
7,350333	0,5	2,787950
7,358667	0,5	2,905650
7,367000	0,5	2,961900
7,375333	0,5	2,967750
7,383667	0,5	2,903350
7,392000	0,5	2,785750
7,400333	0,5	2,648400
7,408667	0,5	2,530250
7,417000	0,5	2,439850
7,425333	0,5	2,375250
7,433667	0,5	2,330550
7,442000	0,5	2,305400
7,450333	0,5	2,298450
7,458667	0,5	2,302500
7,467000	0,5	2,330450
7,475333	0,5	2,379600
7,483667	0,5	2,464550
7,492000	0,5	2,575350
7,500333	0,5	2,696200
7,508667	0,5	2,810150
7,517000	0,5	2,905600
7,525333	0,5	2,982350
7,533667	0,5	3,035100
7,542000	0,5	3,071050
7,550333	0,5	3,115150
7,558667	0,5	3,158500
7,567000	0,5	3,198750
7,575333	0,5	3,231600
7,583667	0,5	3,277100
7,592000	0,5	3,337700
7,600333	0,5	3,453450
7,608667	0,5	3,619600
7,617000	0,5	3,790950
7,625333	0,5	3,892750
7,633667	0,5	3,894650
7,642000	0,5	3,793250
7,650333	0,5	3,666100
7,658667	0,5	3,566350
7,667000	0,5	3,532100
7,675333	0,5	3,544450
7,683667	0,5	3,537400
7,692000	0,5	3,480300
7,700333	0,5	3,371050
7,708667	0,5	3,240150
7,717000	0,5	3,112900
7,725333	0,5	3,036150
7,733667	0,5	3,043600
7,742000	0,5	3,113250
7,750333	0,5	3,202450
7,758667	0,5	3,269250
7,767000	0,5	3,287900
7,775333	0,5	3,256300
7,783667	0,5	3,223350
7,792000	0,5	3,173850
7,800333	0,5	3,119250
7,808667	0,5	3,059050
7,817000	0,5	3,011150
7,825333	0,5	2,985500
7,833667	0,5	2,999700
7,842000	0,5	3,050750
7,850333	0,5	3,155750
7,858667	0,5	3,267450
7,867000	0,5	3,343950
7,875333	0,5	3,340900
7,883667	0,5	3,240400
7,892000	0,5	3,075650
7,900333	0,5	2,893500
7,908667	0,5	2,730950
7,917000	0,5	2,598850
7,925333	0,5	2,495100
7,933667	0,5	2,430900
7,942000	0,5	2,374750
7,950333	0,5	2,333550
7,958667	0,5	2,309150
7,967000	0,5	2,303450
7,975333	0,5	2,313350
7,983667	0,5	2,324150
7,992000	0,5	2,336150
8,000333	0,5	2,335100
8,008667	0,5	2,326850
8,017000	0,5	2,301650
8,025333	0,5	2,274900
8,033667	0,5	2,245450
8,042000	0,5	2,230850
8,050333	0,5	2,223750
8,058667	0,5	2,227000
8,067000	0,5	2,241200
8,075333	0,5	2,274700
8,083667	0,5	2,314650
8,092000	0,5	2,336050
8,100333	0,5	2,335600
8,108667	0,5	2,314600
8,117000	0,5	2,279750
8,125333	0,5	2,243250
8,133667	0,5	2,205600
8,142000	0,5	2,185600
8,150333	0,5	2,177000
8,158667	0,5	2,185900
8,167000	0,5	2,206750
8,175333	0,5	2,230850
8,183667	0,5	2,256150
8,192000	0,5	2,275950
8,200333	0,5	2,295950
8,208667	0,5	2,308900
8,217000	0,5	2,320250
8,225333	0,5	2,333750
8,233667	0,5	2,359050
8,242000	0,5	2,377300
8,250333	0,5	2,406700
8,258667	0,5	2,440850
8,267000	0,5	2,474250
8,275333	0,5	2,495500
8,283667	0,5	2,519350
8,292000	0,5	2,552200
8,300333	0,5	2,617950
8,308667	0,5	2,741300
8,317000	0,5	2,944850
8,325333	0,5	3,238650
8,333667	0,5	3,598050
8,342000	0,5	3,973550
8,350333	0,5	4,283100
8,358667	0,5	4,432050
8,367000	0,5	4,388800
8,375333	0,5	4,181050
8,383667	0,5	3,843450
8,392000	0,5	3,458400
8,400333	0,5	3,113100
8,408667	0,5	2,841600
8,417000	0,5	2,645100
8,425333	0,5	2,499200
8,433667	0,5	2,384800
8,442000	0,5	2,294800
8,450333	0,5	2,218950
8,458667	0,5	2,161800
8,467000	0,5	2,123800
8,475333	0,5	2,090100
8,483667	0,5	2,055650
8,492000	0,5	2,024850
8,500333	0,5	1,995500
8,508667	0,5	1,966450
8,517000	0,5	1,940850
8,525333	0,5	1,930200
8,533667	0,5	1,912900
8,542000	0,5	1,904250
8,550333	0,5	1,898200
8,558667	0,5	1,897750
8,567000	0,5	1,903650
8,575333	0,5	1,908150
8,583667	0,5	1,916000
8,592000	0,5	1,921700
8,600333	0,5	1,918300
8,608667	0,5	1,913750
8,617000	0,5	1,900950
8,625333	0,5	1,892000
8,633667	0,5	1,876850
8,642000	0,5	1,863900
8,650333	0,5	1,851150
8,658667	0,5	1,833400
8,667000	0,5	1,823550
8,675333	0,5	1,813000
8,683667	0,5	1,804100
8,692000	0,5	1,794200
8,700333	0,5	1,796800
8,708667	0,5	1,811650
8,717000	0,5	1,821450
8,725333	0,5	1,837250
8,733667	0,5	1,853500
8,742000	0,5	1,881000
8,750333	0,5	1,911450
8,758667	0,5	1,948950
8,767000	0,5	1,996200
8,775333	0,5	2,049150
8,783667	0,5	2,103250
8,792000	0,5	2,163200
8,800333	0,5	2,206100
8,808667	0,5	2,237800
8,817000	0,5	2,258050
8,825333	0,5	2,254100
8,833667	0,5	2,233950
8,842000	0,5	2,214900
8,850333	0,5	2,194600
8,858667	0,5	2,189350
8,867000	0,5	2,197250
8,875333	0,5	2,223350
8,883667	0,5	2,255450
8,892000	0,5	2,287600
8,900333	0,5	2,312750
8,908667	0,5	2,338150
8,917000	0,5	2,349250
8,925333	0,5	2,357400
8,933667	0,5	2,350350
8,942000	0,5	2,328700
8,950333	0,5	2,302250
8,958667	0,5	2,269900
8,967000	0,5	2,253800
8,975333	0,5	2,259450
8,983667	0,5	2,284800
8,992000	0,5	2,342850
9,000333	0,5	2,418650
9,008667	0,5	2,510000
9,017000	0,5	2,590150
9,025333	0,5	2,638650
9,033667	0,5	2,649100
9,042000	0,5	2,608400
9,050333	0,5	2,520900
9,058667	0,5	2,408500
9,067000	0,5	2,293100
9,075333	0,5	2,192100
9,083667	0,5	2,116550
9,092000	0,5	2,082100
9,100333	0,5	2,081900
9,108667	0,5	2,125900
9,117000	0,5	2,193200
9,125333	0,5	2,253900
9,133667	0,5	2,287150
9,142000	0,5	2,283800
9,150333	0,5	2,257900
9,158667	0,5	2,210700
9,167000	0,5	2,148250
9,175333	0,5	2,095100
9,183667	0,5	2,042450
9,192000	0,5	1,994850
9,200333	0,5	1,955000
9,208667	0,5	1,925800
9,217000	0,5	1,901500
9,225333	0,5	1,880650
9,233667	0,5	1,868750
9,242000	0,5	1,854500
9,250333	0,5	1,850750
9,258667	0,5	1,848500
9,267000	0,5	1,853100
9,275333	0,5	1,857200
9,283667	0,5	1,866200
9,292000	0,5	1,871100
9,300333	0,5	1,879550
9,308667	0,5	1,884650
9,317000	0,5	1,884200
9,325333	0,5	1,883800
9,333667	0,5	1,875600
9,342000	0,5	1,873150
9,350333	0,5	1,864800
9,358667	0,5	1,857050
9,367000	0,5	1,845500
9,375333	0,5	1,822100
9,383667	0,5	1,798800
9,392000	0,5	1,777400
9,400333	0,5	1,754600
9,408667	0,5	1,737050
9,417000	0,5	1,717950
9,425333	0,5	1,705600
9,433667	0,5	1,687750
9,442000	0,5	1,679300
9,450333	0,5	1,669550
9,458667	0,5	1,659800
9,467000	0,5	1,643400
9,475333	0,5	1,633000
9,483667	0,5	1,625500
9,492000	0,5	1,613550
9,500333	0,5	1,604700
9,508667	0,5	1,596450
9,517000	0,5	1,589200
9,525333	0,5	1,584650
9,533667	0,5	1,580950
9,542000	0,5	1,574900
9,550333	0,5	1,572800
9,558667	0,5	1,565450
9,567000	0,5	1,560750
9,575333	0,5	1,554800
9,583667	0,5	1,549150
9,592000	0,5	1,551550
9,600333	0,5	1,552600
9,608667	0,5	1,546300
9,617000	0,5	1,537100
9,625333	0,5	1,527350
9,633667	0,5	1,524000
9,642000	0,5	1,508850
9,650333	0,5	1,502600
9,658667	0,5	1,492700
9,667000	0,5	1,484350
9,675333	0,5	1,479250
9,683667	0,5	1,477800
9,692000	0,5	1,476000
9,700333	0,5	1,476950
9,708667	0,5	1,481400
9,717000	0,5	1,487850
9,725333	0,5	1,495000
9,733667	0,5	1,503400
9,742000	0,5	1,521150
9,750333	0,5	1,533700
9,758667	0,5	1,539800
9,767000	0,5	1,547250
9,775333	0,5	1,559150
9,783667	0,5	1,575450
9,792000	0,5	1,605100
9,800333	0,5	1,643350
9,808667	0,5	1,701350
9,817000	0,5	1,775350
9,825333	0,5	1,869750
9,833667	0,5	1,976750
9,842000	0,5	2,081950
9,850333	0,5	2,195200
9,858667	0,5	2,284600
9,867000	0,5	2,333350
9,875333	0,5	2,342750
9,883667	0,5	2,301050
9,892000	0,5	2,225700
9,900333	0,5	2,125700
9,908667	0,5	2,004800
9,917000	0,5	1,889650
9,925333	0,5	1,783850
9,933667	0,5	1,702600
9,942000	0,5	1,638850
9,950333	0,5	1,586850
9,958667	0,5	1,555400
9,967000	0,5	1,530850
9,975333	0,5	1,505250
9,983667	0,5	1,503350
9,992000	0,5	1,486100
10,000333	0,5	1,480600
10,008667	0,5	1,479250
10,017000	0,5	1,469500
10,025333	0,5	1,466950
10,033667	0,5	1,472000
10,042000	0,5	1,478350
10,050333	0,5	1,491800
10,058667	0,5	1,509450
10,067000	0,5	1,521150
10,075333	0,5	1,537700
10,083667	0,5	1,544600
10,092000	0,5	1,544700
10,100333	0,5	1,539250
10,108667	0,5	1,525300
10,117000	0,5	1,504050
10,125333	0,5	1,482450
10,133667	0,5	1,463450
10,142000	0,5	1,441350
10,150333	0,5	1,420450
10,158667	0,5	1,398350
10,167000	0,5	1,384750
10,175333	0,5	1,370400
10,183667	0,5	1,367400
10,192000	0,5	1,367900
10,200333	0,5	1,373750
10,208667	0,5	1,380800
10,217000	0,5	1,388650
10,225333	0,5	1,387700
10,233667	0,5	1,391000
10,242000	0,5	1,392450
10,250333	0,5	1,391050
10,258667	0,5	1,384400
10,267000	0,5	1,382750
10,275333	0,5	1,383550
10,283667	0,5	1,384100
10,292000	0,5	1,390150
10,300333	0,5	1,406000
10,308667	0,5	1,424850
10,317000	0,5	1,438700
10,325333	0,5	1,460350
10,333667	0,5	1,487600
10,342000	0,5	1,528400
10,350333	0,5	1,573950
10,358667	0,5	1,623050
10,367000	0,5	1,671150
10,375333	0,5	1,713800
10,383667	0,5	1,748050
10,392000	0,5	1,765150
10,400333	0,5	1,763650
10,408667	0,5	1,742450
10,417000	0,5	1,711650
10,425333	0,5	1,670050
10,433667	0,5	1,619050
10,442000	0,5	1,581650
10,450333	0,5	1,546000
10,458667	0,5	1,506900
10,467000	0,5	1,474150
10,475333	0,5	1,446250
10,483667	0,5	1,429650
10,492000	0,5	1,415950
10,500333	0,5	1,402650
10,508667	0,5	1,391250
10,517000	0,5	1,385350
10,525333	0,5	1,374000
10,533667	0,5	1,363450
10,542000	0,5	1,361250
10,550333	0,5	1,354400
10,558667	0,5	1,350000
10,567000	0,5	1,348400
10,575333	0,5	1,341050
10,583667	0,5	1,328950
10,592000	0,5	1,331950
10,600333	0,5	1,325050
10,608667	0,5	1,324700
10,617000	0,5	1,320450
10,625333	0,5	1,321650
10,633667	0,5	1,337450
10,642000	0,5	1,351650
10,650333	0,5	1,370850
10,658667	0,5	1,400600
10,667000	0,5	1,417650
10,675333	0,5	1,437500
10,683667	0,5	1,439750
10,692000	0,5	1,430000
10,700333	0,5	1,402850
10,708667	0,5	1,360950
10,717000	0,5	1,310800
10,725333	0,5	1,250300
10,733667	0,5	1,203350
10,742000	0,5	1,170750
10,750333	0,5	1,152150
10,758667	0,5	1,145450
10,767000	0,5	1,146700
10,775333	0,5	1,158400
10,783667	0,5	1,183300
10,792000	0,5	1,209350
10,800333	0,5	1,228400
10,808667	0,5	1,256250
10,817000	0,5	1,285150
10,825333	0,5	1,299200
10,833667	0,5	1,314150
10,842000	0,5	1,325200
10,850333	0,5	1,330100
10,858667	0,5	1,329600
10,867000	0,5	1,320200
10,875333	0,5	1,303050
10,883667	0,5	1,302000
10,892000	0,5	1,285750
10,900333	0,5	1,275800
10,908667	0,5	1,261750
10,917000	0,5	1,248100
10,925333	0,5	1,244550
10,933667	0,5	1,240250
10,942000	0,5	1,232250
10,950333	0,5	1,233200
10,958667	0,5	1,226750
10,967000	0,5	1,225650
10,975333	0,5	1,224200
10,983667	0,5	1,227400
10,992000	0,5	1,224600
11,000333	0,5	1,220650
11,008667	0,5	1,224350
11,017000	0,5	1,219350
11,025333	0,5	1,218100
11,033667	0,5	1,224400
11,042000	0,5	1,222050
11,050333	0,5	1,219250
11,058667	0,5	1,217800
11,067000	0,5	1,210350
11,075333	0,5	1,216600
11,083667	0,5	1,219700
11,092000	0,5	1,216450
11,100333	0,5	1,213050
11,108667	0,5	1,211450
11,117000	0,5	1,208600
11,125333	0,5	1,206700
11,133667	0,5	1,212550
11,142000	0,5	1,208700
11,150333	0,5	1,216150
11,158667	0,5	1,222550
11,167000	0,5	1,235400
11,175333	0,5	1,238750
11,183667	0,5	1,258400
11,192000	0,5	1,266950
11,200333	0,5	1,290900
11,208667	0,5	1,317950
11,217000	0,5	1,364200
11,225333	0,5	1,427650
11,233667	0,5	1,503400
11,242000	0,5	1,572700
11,250333	0,5	1,636350
11,258667	0,5	1,678950
11,267000	0,5	1,694050
11,275333	0,5	1,684050
11,283667	0,5	1,652850
11,292000	0,5	1,613800
11,300333	0,5	1,569850
11,308667	0,5	1,531100
11,317000	0,5	1,493250
11,325333	0,5	1,466150
11,333667	0,5	1,441950
11,342000	0,5	1,413650
11,350333	0,5	1,381250
11,358667	0,5	1,361100
11,367000	0,5	1,337950
11,375333	0,5	1,330500
11,383667	0,5	1,317250
11,392000	0,5	1,315150
11,400333	0,5	1,306950
11,408667	0,5	1,312700
11,417000	0,5	1,313800
11,425333	0,5	1,329900
11,433667	0,5	1,349350
11,442000	0,5	1,381200
11,450333	0,5	1,438000
11,458667	0,5	1,498700
11,467000	0,5	1,573950
11,475333	0,5	1,652900
11,483667	0,5	1,727650
11,492000	0,5	1,790100
11,500333	0,5	1,830250
11,508667	0,5	1,852200
11,517000	0,5	1,860550
11,525333	0,5	1,859800
11,533667	0,5	1,847750
11,542000	0,5	1,826750
11,550333	0,5	1,795700
11,558667	0,5	1,748200
11,567000	0,5	1,711200
11,575333	0,5	1,666350
11,583667	0,5	1,633000
11,592000	0,5	1,618350
11,600333	0,5	1,626000
11,608667	0,5	1,642900
11,617000	0,5	1,684050
11,625333	0,5	1,731950
11,633667	0,5	1,774050
11,642000	0,5	1,801150
11,650333	0,5	1,805900
11,658667	0,5	1,801550
11,667000	0,5	1,771750
11,675333	0,5	1,727900
11,683667	0,5	1,669000
11,692000	0,5	1,602100
11,700333	0,5	1,538850
11,708667	0,5	1,476200
11,717000	0,5	1,422500
11,725333	0,5	1,380600
11,733667	0,5	1,343800
11,742000	0,5	1,319750
11,750333	0,5	1,298250
11,758667	0,5	1,274200
11,767000	0,5	1,266050
11,775333	0,5	1,255100
11,783667	0,5	1,247800
11,792000	0,5	1,237150
11,800333	0,5	1,227700
11,808667	0,5	1,228200
11,817000	0,5	1,229450
11,825333	0,5	1,222200
11,833667	0,5	1,215750
11,842000	0,5	1,220000
11,850333	0,5	1,222500
11,858667	0,5	1,219500
11,867000	0,5	1,227100
11,875333	0,5	1,230500
11,883667	0,5	1,243700
11,892000	0,5	1,252900
11,900333	0,5	1,264100
11,908667	0,5	1,263600
11,917000	0,5	1,275150
11,925333	0,5	1,283700
11,933667	0,5	1,301000
11,942000	0,5	1,319000
11,950333	0,5	1,341000
11,958667	0,5	1,382500
11,967000	0,5	1,432900
11,975333	0,5	1,479850
11,983667	0,5	1,522200
11,992000	0,5	1,554950
12,000333	0,5	1,570000
12,008667	0,5	1,568750
12,017000	0,5	1,548900
12,025333	0,5	1,523650
12,033667	0,5	1,483450
12,042000	0,5	1,459250
12,050333	0,5	1,421550
12,058667	0,5	1,394200
12,067000	0,5	1,376250
12,075333	0,5	1,365250
12,083667	0,5	1,354950
12,092000	0,5	1,354250
12,100333	0,5	1,353250
12,108667	0,5	1,367450
12,117000	0,5	1,383500
12,125333	0,5	1,392350
12,133667	0,5	1,400700
12,142000	0,5	1,410350
12,150333	0,5	1,423450
12,158667	0,5	1,439600
12,167000	0,5	1,479100
12,175333	0,5	1,527000
12,183667	0,5	1,597450
12,192000	0,5	1,672150
12,200333	0,5	1,736100
12,208667	0,5	1,798900
12,217000	0,5	1,848150
12,225333	0,5	1,873800
12,233667	0,5	1,888200
12,242000	0,5	1,896750
12,250333	0,5	1,910400
12,258667	0,5	1,936050
12,267000	0,5	1,957700
12,275333	0,5	1,976800
12,283667	0,5	1,996400
12,292000	0,5	2,002150
12,300333	0,5	2,011700
12,308667	0,5	2,012600
12,317000	0,5	2,012600
12,325333	0,5	2,007900
12,333667	0,5	1,998650
12,342000	0,5	1,982500
12,350333	0,5	1,942300
12,358667	0,5	1,896250
12,367000	0,5	1,847550
12,375333	0,5	1,800650
12,383667	0,5	1,763750
12,392000	0,5	1,747600
12,400333	0,5	1,748450
12,408667	0,5	1,780650
12,417000	0,5	1,804400
12,425333	0,5	1,835850
12,433667	0,5	1,853150
12,442000	0,5	1,863300
12,450333	0,5	1,862800
12,458667	0,5	1,854300
12,467000	0,5	1,830200
12,475333	0,5	1,808000
12,483667	0,5	1,779950
12,492000	0,5	1,736450
12,500333	0,5	1,681850
12,508667	0,5	1,638600
12,517000	0,5	1,574700
12,525333	0,5	1,512100
12,533667	0,5	1,438700
12,542000	0,5	1,377700
12,550333	0,5	1,333400
12,558667	0,5	1,295450
12,567000	0,5	1,259900
12,575333	0,5	1,235750
12,583667	0,5	1,218750
12,592000	0,5	1,196850
12,600333	0,5	1,185950
12,608667	0,5	1,172300
12,617000	0,5	1,164050
12,625333	0,5	1,152900
12,633667	0,5	1,151750
12,642000	0,5	1,130700
12,650333	0,5	1,131900
12,658667	0,5	1,132600
12,667000	0,5	1,126200
12,675333	0,5	1,120000
12,683667	0,5	1,110300
12,692000	0,5	1,110950
12,700333	0,5	1,113100
12,708667	0,5	1,115600
12,717000	0,5	1,109350
12,725333	0,5	1,108250
12,733667	0,5	1,106850
12,742000	0,5	1,105300
12,750333	0,5	1,099350
12,758667	0,5	1,091600
12,767000	0,5	1,078100
12,775333	0,5	1,075350
12,783667	0,5	1,075350
12,792000	0,5	1,067850
12,800333	0,5	1,090900
12,808667	0,5	1,116550
12,817000	0,5	1,148550
12,825333	0,5	1,194200
12,833667	0,5	1,236750
12,842000	0,5	1,279600
12,850333	0,5	1,297250
12,858667	0,5	1,285850
12,867000	0,5	1,261550
12,875333	0,5	1,219050
12,883667	0,5	1,180450
12,892000	0,5	1,108650
12,900333	0,5	1,034550
12,908667	0,5	0,958900
12,917000	0,5	0,885550
12,925333	0,5	0,816550
12,933667	0,5	0,752450
12,942000	0,5	0,683950
12,950333	0,5	0,641400
12,958667	0,5	0,593850
12,967000	0,5	0,495600
12,975333	0,5	0,379700
12,983667	0,5	0,207850
12,992000	0,5	-0,040450
13,000333	0,5	-0,455750
13,008667	0,5	-0,824350
13,017000	0,5	-1,103950
13,025333	0,5	-1,381950
13,033667	0,5	-1,602450
13,042000	0,5	-1,749050
13,050333	0,5	-1,851200
13,058667	0,5	-1,932350
13,067000	0,5	-1,993600
13,075333	0,5	-2,047400
13,083667	0,5	-2,098500
13,092000	0,5	-2,121850
13,100333	0,5	-2,139850
13,108667	0,5	-2,149800
13,117000	0,5	-2,149250
13,125333	0,5	-2,154300
13,133667	0,5	-2,148700
13,142000	0,5	-2,131450
13,150333	0,5	-2,130350
13,158667	0,5	-2,140100
13,167000	0,5	-2,161350
13,175333	0,5	-2,191850
13,183667	0,5	-2,229800
13,192000	0,5	-2,273300
13,200333	0,5	-2,313100
13,208667	0,5	-2,347150
13,217000	0,5	-2,386800
13,225333	0,5	-2,410850
13,233667	0,5	-2,440050
13,242000	0,5	-2,448900
13,250333	0,5	-2,464550
13,258667	0,5	-2,469600
13,267000	0,5	-2,476050
13,275333	0,5	-2,480700
13,283667	0,5	-2,476150
13,292000	0,5	-2,467050
13,300333	0,5	-2,444450
13,308667	0,5	-2,440700
13,317000	0,5	-2,412450
13,325333	0,5	-2,392800
13,333667	0,5	-2,369850
13,342000	0,5	-2,344200
13,350333	0,5	-2,313100
13,358667	0,5	-2,283450
13,367000	0,5	-2,264700
13,375333	0,5	-2,246650
13,383667	0,5	-2,252550
13,392000	0,5	-2,242100
13,400333	0,5	-2,240350
13,408667	0,5	-2,230700
13,417000	0,5	-2,235900
13,425333	0,5	-2,226850
13,433667	0,5	-2,205250
13,442000	0,5	-2,177950
13,450333	0,5	-2,156650
13,458667	0,5	-2,130100
13,467000	0,5	-2,114700
13,475333	0,5	-2,093150
13,483667	0,5	-2,091900
13,492000	0,5	-2,090350
13,500333	0,5	-2,096000
13,508667	0,5	-2,102550
13,517000	0,5	-2,107650
13,525333	0,5	-2,126400
13,533667	0,5	-2,136750
13,542000	0,5	-2,145000
13,550333	0,5	-2,157800
13,558667	0,5	-2,167100
13,567000	0,5	-2,178650
13,575333	0,5	-2,183100
13,583667	0,5	-2,176650
13,592000	0,5	-2,173050
13,600333	0,5	-2,169400
13,608667	0,5	-2,160400
13,617000	0,5	-2,150200
13,625333	0,5	-2,142600
13,633667	0,5	-2,131600
13,642000	0,5	-2,120950
13,650333	0,5	-2,108700
13,658667	0,5	-2,088050
13,667000	0,5	-2,072350
13,675333	0,5	-2,063000
13,683667	0,5	-2,037600
13,692000	0,5	-2,019700
13,700333	0,5	-1,996200
13,708667	0,5	-1,975850
13,717000	0,5	-1,958800
13,725333	0,5	-1,928000
13,733667	0,5	-1,895400
13,742000	0,5	-1,861100
13,750333	0,5	-1,825700
13,758667	0,5	-1,777050
13,767000	0,5	-1,747350
13,775333	0,5	-1,702100
13,783667	0,5	-1,660600
13,792000	0,5	-1,624050
13,800333	0,5	-1,583400
13,808667	0,5	-1,538900
13,817000	0,5	-1,509400
13,825333	0,5	-1,481050
13,833667	0,5	-1,452700
13,842000	0,5	-1,442200
13,850333	0,5	-1,430600
13,858667	0,5	-1,426750
13,867000	0,5	-1,422950
13,875333	0,5	-1,403550
13,883667	0,5	-1,385650
13,892000	0,5	-1,375550
13,900333	0,5	-1,352100
13,908667	0,5	-1,333250
13,917000	0,5	-1,308150
13,925333	0,5	-1,282400
13,933667	0,5	-1,253800
13,942000	0,5	-1,228350
13,950333	0,5	-1,191250
13,958667	0,5	-1,152750
13,967000	0,5	-1,123350
13,975333	0,5	-1,065500
13,983667	0,5	-0,994100
13,992000	0,5	-0,919650
14,000333	0,5	-0,831350
14,008667	0,5	-0,749500
14,017000	0,5	-0,659650
14,025333	0,5	-0,566350
14,033667	0,5	-0,494850
14,042000	0,5	-0,438100
14,050333	0,5	-0,389750
14,058667	0,5	-0,359900
14,067000	0,5	-0,345350
14,075333	0,5	-0,339000
14,083667	0,5	-0,341100
14,092000	0,5	-0,337750
14,100333	0,5	-0,321400
14,108667	0,5	-0,277350
14,117000	0,5	-0,234400
14,125333	0,5	-0,145650
14,133667	0,5	-0,057150
14,142000	0,5	0,045250
14,150333	0,5	0,137400
14,158667	0,5	0,206050
14,167000	0,5	0,267400
14,175333	0,5	0,299300
14,183667	0,5	0,304150
14,192000	0,5	0,293000
14,200333	0,5	0,268250
14,208667	0,5	0,244150
14,217000	0,5	0,232550
14,225333	0,5	0,225900
14,233667	0,5	0,230100
14,242000	0,5	0,232550
14,250333	0,5	0,252300
14,258667	0,5	0,256850
14,267000	0,5	0,259850
14,275333	0,5	0,278450
14,283667	0,5	0,289550
14,292000	0,5	0,293100
14,300333	0,5	0,292550
14,308667	0,5	0,297800
14,317000	0,5	0,312000
14,325333	0,5	0,322600
14,333667	0,5	0,332300
14,342000	0,5	0,337250
14,350333	0,5	0,345000
14,358667	0,5	0,355050
14,367000	0,5	0,364650
14,375333	0,5	0,385700
14,383667	0,5	0,400900
14,392000	0,5	0,426400
14,400333	0,5	0,447000
14,408667	0,5	0,456750
14,417000	0,5	0,457000
14,425333	0,5	0,464050
14,433667	0,5	0,453500
14,442000	0,5	0,436150
14,450333	0,5	0,412500
14,458667	0,5	0,392750
14,467000	0,5	0,378450
14,475333	0,5	0,380600
14,483667	0,5	0,364950
14,492000	0,5	0,362450
14,500333	0,5	0,351350
14,508667	0,5	0,346900
14,517000	0,5	0,349200
14,525333	0,5	0,345900
14,533667	0,5	0,343300
14,542000	0,5	0,348050
14,550333	0,5	0,352100
14,558667	0,5	0,342550
14,567000	0,5	0,353350
14,575333	0,5	0,361550
14,583667	0,5	0,369700
14,592000	0,5	0,388900
14,600333	0,5	0,431250
14,608667	0,5	0,505450
14,617000	0,5	0,616550
14,625333	0,5	0,725400
14,633667	0,5	0,826450
14,642000	0,5	0,895350
14,650333	0,5	0,908350
14,658667	0,5	0,871050
14,667000	0,5	0,809600
14,675333	0,5	0,739450
14,683667	0,5	0,680500
14,692000	0,5	0,660700
14,700333	0,5	0,671150
14,708667	0,5	0,715500
14,717000	0,5	0,799050
14,725333	0,5	0,886800
14,733667	0,5	0,941700
14,742000	0,5	0,937750
14,750333	0,5	0,893350
14,758667	0,5	0,829800
14,767000	0,5	0,741400
14,775333	0,5	0,664750
14,783667	0,5	0,589250
14,792000	0,5	0,540650
14,800333	0,5	0,501550
14,808667	0,5	0,464050
14,817000	0,5	0,447450
14,825333	0,5	0,434200
14,833667	0,5	0,435300
14,842000	0,5	0,445850
14,850333	0,5	0,440650
14,858667	0,5	0,469100
14,867000	0,5	0,496500
14,875333	0,5	0,516300
14,883667	0,5	0,520050
14,892000	0,5	0,505200
14,900333	0,5	0,498350
14,908667	0,5	0,475650
14,917000	0,5	0,466750
14,925333	0,5	0,450500
14,933667	0,5	0,436900
14,942000	0,5	0,415100
14,950333	0,5	0,389750
14,958667	0,5	0,365800
14,967000	0,5	0,337700
14,975333	0,5	0,307700
14,983667	0,5	0,282650
14,992000	0,5	0,259250
15,000333	0,5	0,232700
15,008667	0,5	0,222500
15,017000	0,5	0,216800
15,025333	0,5	0,207700
15,033667	0,5	0,190800
15,042000	0,5	0,168150
15,050333	0,5	0,169950
15,058667	0,5	0,166450
15,067000	0,5	0,154250
15,075333	0,5	0,157350
15,083667	0,5	0,164150
15,092000	0,5	0,185100
15,100333	0,5	0,221350
15,108667	0,5	0,278450
15,117000	0,5	0,362250
15,125333	0,5	0,483700
15,133667	0,5	0,617400
15,142000	0,5	0,730450
15,150333	0,5	0,792300
15,158667	0,5	0,816500
15,167000	0,5	0,774500
15,175333	0,5	0,717400
15,183667	0,5	0,649850
15,192000	0,5	0,615550
15,200333	0,5	0,652550
15,208667	0,5	0,709700
15,217000	0,5	0,770700
15,225333	0,5	0,823500
15,233667	0,5	0,831700
15,242000	0,5	0,788750
15,250333	0,5	0,705950
15,258667	0,5	0,603350
15,267000	0,5	0,516500
15,275333	0,5	0,443050
15,283667	0,5	0,408750
15,292000	0,5	0,369850
15,300333	0,5	0,353250
15,308667	0,5	0,335700
15,317000	0,5	0,314800
15,325333	0,5	0,286550
15,333667	0,5	0,261450
15,342000	0,5	0,235700
15,350333	0,5	0,230800
15,358667	0,5	0,224700
15,367000	0,5	0,221450
15,375333	0,5	0,230700
15,383667	0,5	0,237650
15,392000	0,5	0,241950
15,400333	0,5	0,242150
15,408667	0,5	0,243550
15,417000	0,5	0,218450
15,425333	0,5	0,206850
15,433667	0,5	0,186350
15,442000	0,5	0,150450
15,450333	0,5	0,139800
15,458667	0,5	0,118650
15,467000	0,5	0,091650
15,475333	0,5	0,066100
15,483667	0,5	0,025850
15,492000	0,5	0,017600
15,500333	0,5	0,004350
15,508667	0,5	-0,002700
15,517000	0,5	-0,026000
15,525333	0,5	-0,025250
15,533667	0,5	-0,029350
15,542000	0,5	-0,017350
15,550333	0,5	-0,005050
15,558667	0,5	0,029700
15,567000	0,5	0,094600
15,575333	0,5	0,183550
15,583667	0,5	0,300650
15,592000	0,5	0,427350
15,600333	0,5	0,539450
15,608667	0,5	0,588000
15,617000	0,5	0,595400
15,625333	0,5	0,546600
15,633667	0,5	0,511150
15,642000	0,5	0,512950
15,650333	0,5	0,557350
15,658667	0,5	0,599650
15,667000	0,5	0,653600
15,675333	0,5	0,661700
15,683667	0,5	0,627600
15,692000	0,5	0,551400
15,700333	0,5	0,460200
15,708667	0,5	0,360500
15,717000	0,5	0,263750
15,725333	0,5	0,201350
15,733667	0,5	0,138300
15,742000	0,5	0,098450
15,750333	0,5	0,085550
15,758667	0,5	0,063850
15,767000	0,5	0,052400
15,775333	0,5	0,039600
15,783667	0,5	0,036600
15,792000	0,5	0,053750
15,800333	0,5	0,054950
15,808667	0,5	0,054150
15,817000	0,5	0,040450
15,825333	0,5	0,020750
15,833667	0,5	-0,003150
15,842000	0,5	-0,023750
15,850333	0,5	-0,049550
15,858667	0,5	-0,083100
15,867000	0,5	-0,100800
15,875333	0,5	-0,124700
15,883667	0,5	-0,156000
15,892000	0,5	-0,162900
15,900333	0,5	-0,173600
15,908667	0,5	-0,185950
15,917000	0,5	-0,206700
15,925333	0,5	-0,240600
15,933667	0,5	-0,226550
15,942000	0,5	-0,231300
15,950333	0,5	-0,218950
15,958667	0,5	-0,203850
15,967000	0,5	-0,151500
15,975333	0,5	-0,073800
15,983667	0,5	0,045300
15,992000	0,5	0,174300
16,000333	0,5	0,299750
16,008667	0,5	0,392650
16,017000	0,5	0,445750
16,025333	0,5	0,429000
16,033667	0,5	0,444750
16,042000	0,5	0,460750
16,050333	0,5	0,491400
16,058667	0,5	0,516050
16,067000	0,5	0,500850
16,075333	0,5	0,458100
16,083667	0,5	0,385700
16,092000	0,5	0,297700
16,100333	0,5	0,196650
16,108667	0,5	0,120900
16,117000	0,5	0,061300
16,125333	0,5	0,020050
16,133667	0,5	-0,002500
16,142000	0,5	-0,007100
16,150333	0,5	-0,011250
16,158667	0,5	-0,010000
16,167000	0,5	-0,001550
16,175333	0,5	-0,004850
16,183667	0,5	0,013050
16,192000	0,5	0,010250
16,200333	0,5	0,005650
16,208667	0,5	-0,016750
16,217000	0,5	-0,057000
16,225333	0,5	-0,078050
16,233667	0,5	-0,087850
16,242000	0,5	-0,110450
16,250333	0,5	-0,136750
16,258667	0,5	-0,161150
16,267000	0,5	-0,186000
16,275333	0,5	-0,213800
16,283667	0,5	-0,235800
16,292000	0,5	-0,257850
16,300333	0,5	-0,274550
16,308667	0,5	-0,289950
16,317000	0,5	-0,280250
16,325333	0,5	-0,281900
16,333667	0,5	-0,229800
16,342000	0,5	-0,167500
16,350333	0,5	-0,064400
16,358667	0,5	0,053850
16,367000	0,5	0,167750
16,375333	0,5	0,282650
16,383667	0,5	0,343650
16,392000	0,5	0,368650
16,400333	0,5	0,367850
16,408667	0,5	0,372150
16,417000	0,5	0,367750
16,425333	0,5	0,352550
16,433667	0,5	0,306050
16,442000	0,5	0,231850
16,450333	0,5	0,148600
16,458667	0,5	0,077000
16,467000	0,5	0,000800
16,475333	0,5	-0,039950
16,483667	0,5	-0,051450
16,492000	0,5	-0,049300
16,500333	0,5	-0,048050
16,508667	0,5	-0,042200
16,517000	0,5	-0,041200
16,525333	0,5	-0,011650
16,533667	0,5	-0,009900
16,542000	0,5	0,001350
16,550333	0,5	0,005700
16,558667	0,5	-0,001050
16,567000	0,5	-0,009000
16,575333	0,5	-0,023600
16,583667	0,5	-0,043750
16,592000	0,5	-0,066550
16,600333	0,5	-0,080900
16,608667	0,5	-0,089400
16,617000	0,5	-0,105900
16,625333	0,5	-0,106050
16,633667	0,5	-0,113350
16,642000	0,5	-0,127200
16,650333	0,5	-0,134800
16,658667	0,5	-0,145900
16,667000	0,5	-0,132400
16,675333	0,5	-0,080300
16,683667	0,5	-0,000950
16,692000	0,5	0,090500
16,700333	0,5	0,176500
16,708667	0,5	0,243000
16,717000	0,5	0,278550
16,725333	0,5	0,292050
16,733667	0,5	0,287400
16,742000	0,5	0,284800
16,750333	0,5	0,259300
16,758667	0,5	0,221550
16,767000	0,5	0,153650
16,775333	0,5	0,091750
16,783667	0,5	0,013800
16,792000	0,5	-0,055700
16,800333	0,5	-0,110050
16,808667	0,5	-0,166550
16,817000	0,5	-0,189400
16,825333	0,5	-0,188550
16,833667	0,5	-0,208950
16,842000	0,5	-0,218750
16,850333	0,5	-0,221350
16,858667	0,5	-0,223850
16,867000	0,5	-0,234250
16,875333	0,5	-0,243700
16,883667	0,5	-0,257800
16,892000	0,5	-0,273900
16,900333	0,5	-0,280450
16,908667	0,5	-0,311500
16,917000	0,5	-0,325750
16,925333	0,5	-0,333900
16,933667	0,5	-0,346350
16,942000	0,5	-0,364150
16,950333	0,5	-0,375450
16,958667	0,5	-0,362700
16,967000	0,5	-0,319500
16,975333	0,5	-0,268400
16,983667	0,5	-0,193400
16,992000	0,5	-0,099300
17,000333	0,5	0,016900
17,008667	0,5	0,121250
17,017000	0,5	0,227650
17,025333	0,5	0,317800
17,033667	0,5	0,398200
17,042000	0,5	0,490000
17,050333	0,5	0,583750
17,058667	0,5	0,655350
17,067000	0,5	0,769250
17,075333	0,5	0,871400
17,083667	0,5	0,966650
17,092000	0,5	1,077100
17,100333	0,5	1,172750
17,108667	0,5	1,300800
17,117000	0,5	1,420200
17,125333	0,5	1,515950
17,133667	0,5	1,592350
17,142000	0,5	1,659800
17,150333	0,5	1,706800
17,158667	0,5	1,747500
17,167000	0,5	1,750650
17,175333	0,5	1,719200
17,183667	0,5	1,643000
17,192000	0,5	1,535200
17,200333	0,5	1,385950
17,208667	0,5	1,224600
17,217000	0,5	1,077500
17,225333	0,5	0,924950
17,233667	0,5	0,780950
17,242000	0,5	0,651850
17,250333	0,5	0,564000
17,258667	0,5	0,532600
17,267000	0,5	0,541250
17,275333	0,5	0,575450
17,283667	0,5	0,631500
17,292000	0,5	0,677200
17,300333	0,5	0,710600
17,308667	0,5	0,708200
17,317000	0,5	0,700400
17,325333	0,5	0,664350
17,333667	0,5	0,602000
17,342000	0,5	0,529050
17,350333	0,5	0,440800
17,358667	0,5	0,389050
17,367000	0,5	0,358750
17,375333	0,5	0,343900
17,383667	0,5	0,338800
17,392000	0,5	0,345900
17,400333	0,5	0,370350
17,408667	0,5	0,412000
17,417000	0,5	0,439650
17,425333	0,5	0,466700
17,433667	0,5	0,473600
17,442000	0,5	0,490650
17,450333	0,5	0,470350
17,458667	0,5	0,463300
17,467000	0,5	0,430200
17,475333	0,5	0,389650
17,483667	0,5	0,330450
17,492000	0,5	0,284700
17,500333	0,5	0,218600
17,508667	0,5	0,204750
17,517000	0,5	0,194900
17,525333	0,5	0,195400
17,533667	0,5	0,203250
17,542000	0,5	0,188750
17,550333	0,5	0,187150
17,558667	0,5	0,171400
17,567000	0,5	0,138500
17,575333	0,5	0,080150
17,583667	0,5	0,018700
17,592000	0,5	-0,059850
17,600333	0,5	-0,117450
17,608667	0,5	-0,174850
17,617000	0,5	-0,214750
17,625333	0,5	-0,253650
17,633667	0,5	-0,278650
17,642000	0,5	-0,307200
17,650333	0,5	-0,341850
17,658667	0,5	-0,359750
17,667000	0,5	-0,379650
17,675333	0,5	-0,408050
17,683667	0,5	-0,446500
17,692000	0,5	-0,474550
17,700333	0,5	-0,480550
17,708667	0,5	-0,478350
17,717000	0,5	-0,475450
17,725333	0,5	-0,462900
17,733667	0,5	-0,430800
17,742000	0,5	-0,384500
17,750333	0,5	-0,334450
17,758667	0,5	-0,273750
17,767000	0,5	-0,231550
17,775333	0,5	-0,197350
17,783667	0,5	-0,191600
17,792000	0,5	-0,212250
17,800333	0,5	-0,250150
17,808667	0,5	-0,282650
17,817000	0,5	-0,337600
17,825333	0,5	-0,381850
17,833667	0,5	-0,435650
17,842000	0,5	-0,469650
17,850333	0,5	-0,488700
17,858667	0,5	-0,504600
17,867000	0,5	-0,529750
17,875333	0,5	-0,544600
17,883667	0,5	-0,552650
17,892000	0,5	-0,559650
17,900333	0,5	-0,563900
17,908667	0,5	-0,559750
17,917000	0,5	-0,550250
17,925333	0,5	-0,529950
17,933667	0,5	-0,504050
17,942000	0,5	-0,470700
17,950333	0,5	-0,414850
17,958667	0,5	-0,367400
17,967000	0,5	-0,324000
17,975333	0,5	-0,313500
17,983667	0,5	-0,315950
17,992000	0,5	-0,326600
18,000333	0,5	-0,347950
18,008667	0,5	-0,390750
18,017000	0,5	-0,422550
18,025333	0,5	-0,452000
18,033667	0,5	-0,474700
18,042000	0,5	-0,499000
18,050333	0,5	-0,520300
18,058667	0,5	-0,550500
18,067000	0,5	-0,560750
18,075333	0,5	-0,549850
18,083667	0,5	-0,566100
18,092000	0,5	-0,572600
18,100333	0,5	-0,572700
18,108667	0,5	-0,563850
18,117000	0,5	-0,551200
18,125333	0,5	-0,537450
18,133667	0,5	-0,506900
18,142000	0,5	-0,446450
18,150333	0,5	-0,402100
18,158667	0,5	-0,376900
18,167000	0,5	-0,359750
18,175333	0,5	-0,352550
18,183667	0,5	-0,370250
18,192000	0,5	-0,394000
18,200333	0,5	-0,416100
18,208667	0,5	-0,444650
18,217000	0,5	-0,448350
18,225333	0,5	-0,454150
18,233667	0,5	-0,481350
18,242000	0,5	-0,485050
18,250333	0,5	-0,501150
18,258667	0,5	-0,520000
18,267000	0,5	-0,548150
18,275333	0,5	-0,586100
18,283667	0,5	-0,564850
18,292000	0,5	-0,551650
18,300333	0,5	-0,532400
18,308667	0,5	-0,520300
18,317000	0,5	-0,483850
18,325333	0,5	-0,468100
18,333667	0,5	-0,446400
18,342000	0,5	-0,445900
18,350333	0,5	-0,455450
18,358667	0,5	-0,488900
18,367000	0,5	-0,516050
18,375333	0,5	-0,528900
18,383667	0,5	-0,564600
18,392000	0,5	-0,568700
18,400333	0,5	-0,589400
18,408667	0,5	-0,600750
18,417000	0,5	-0,634300
18,425333	0,5	-0,654400
18,433667	0,5	-0,656900
18,442000	0,5	-0,642000
18,450333	0,5	-0,647700
18,458667	0,5	-0,638400
18,467000	0,5	-0,643850
18,475333	0,5	-0,626250
18,483667	0,5	-0,609550
18,492000	0,5	-0,590050
18,500333	0,5	-0,581750
18,508667	0,5	-0,590850
18,517000	0,5	-0,587150
18,525333	0,5	-0,610700
18,533667	0,5	-0,640450
18,542000	0,5	-0,657050
18,550333	0,5	-0,682700
18,558667	0,5	-0,719300
18,567000	0,5	-0,751350
18,575333	0,5	-0,768950
18,583667	0,5	-0,761250
18,592000	0,5	-0,771150
18,600333	0,5	-0,779000
18,608667	0,5	-0,790750
18,617000	0,5	-0,779050
18,625333	0,5	-0,774350
18,633667	0,5	-0,745250
18,642000	0,5	-0,730650
18,650333	0,5	-0,713450
18,658667	0,5	-0,689400
18,667000	0,5	-0,691400
18,675333	0,5	-0,719150
18,683667	0,5	-0,732800
18,692000	0,5	-0,743700
18,700333	0,5	-0,754650
18,708667	0,5	-0,772150
18,717000	0,5	-0,789100
18,725333	0,5	-0,780050
18,733667	0,5	-0,767000
18,742000	0,5	-0,757800
18,750333	0,5	-0,740950
18,758667	0,5	-0,708500
18,767000	0,5	-0,697050
18,775333	0,5	-0,672450
18,783667	0,5	-0,652250
18,792000	0,5	-0,638450
18,800333	0,5	-0,644500
18,808667	0,5	-0,640950
18,817000	0,5	-0,662550
18,825333	0,5	-0,693050
18,833667	0,5	-0,699600
18,842000	0,5	-0,725300
18,850333	0,5	-0,744650
18,858667	0,5	-0,774450
18,867000	0,5	-0,776050
18,875333	0,5	-0,785550
18,883667	0,5	-0,766250
18,892000	0,5	-0,760300
18,900333	0,5	-0,752500
18,908667	0,5	-0,744500
18,917000	0,5	-0,745050
18,925333	0,5	-0,761800
18,933667	0,5	-0,778050
18,942000	0,5	-0,813700
18,950333	0,5	-0,831200
18,958667	0,5	-0,853500
18,967000	0,5	-0,876450
18,975333	0,5	-0,903050
18,983667	0,5	-0,906850
18,992000	0,5	-0,925550
19,000333	0,5	-0,942300
19,008667	0,5	-0,972600
19,017000	0,5	-0,971500
19,025333	0,5	-0,961100
19,033667	0,5	-0,965750
19,042000	0,5	-0,967700
19,050333	0,5	-0,978150
19,058667	0,5	-0,994600
19,067000	0,5	-1,005850
19,075333	0,5	-1,019500
19,083667	0,5	-1,032950
19,092000	0,5	-1,045250
19,100333	0,5	-1,051150
19,108667	0,5	-1,055650
19,117000	0,5	-1,086900
19,125333	0,5	-1,080000
19,133667	0,5	-1,089650
19,142000	0,5	-1,108600
19,150333	0,5	-1,135900
19,158667	0,5	-1,171100
19,167000	0,5	-1,180700
19,175333	0,5	-1,201000
19,183667	0,5	-1,214750
19,192000	0,5	-1,235650
19,200333	0,5	-1,247600
19,208667	0,5	-1,260900
19,217000	0,5	-1,257900
19,225333	0,5	-1,257350
19,233667	0,5	-1,256250
19,242000	0,5	-1,277250
19,250333	0,5	-1,269950
19,258667	0,5	-1,298250
19,267000	0,5	-1,303950
19,275333	0,5	-1,312650
19,283667	0,5	-1,319350
19,292000	0,5	-1,337600
19,300333	0,5	-1,368500
19,308667	0,5	-1,378550
19,317000	0,5	-1,371300
19,325333	0,5	-1,375150
19,333667	0,5	-1,383450
19,342000	0,5	-1,393050
19,350333	0,5	-1,405050
19,358667	0,5	-1,413800
19,367000	0,5	-1,422350
19,375333	0,5	-1,430900
19,383667	0,5	-1,454850
19,392000	0,5	-1,458600
19,400333	0,5	-1,453300
19,408667	0,5	-1,474200
19,417000	0,5	-1,467150
19,425333	0,5	-1,459400
19,433667	0,5	-1,468300
19,442000	0,5	-1,485550
19,450333	0,5	-1,517400
19,458667	0,5	-1,513050
19,467000	0,5	-1,515000
19,475333	0,5	-1,510300
19,483667	0,5	-1,530900
19,492000	0,5	-1,528550
19,500333	0,5	-1,538100
19,508667	0,5	-1,545850
19,517000	0,5	-1,559850
19,525333	0,5	-1,575950
19,533667	0,5	-1,589200
19,542000	0,5	-1,595900
19,550333	0,5	-1,595000
19,558667	0,5	-1,621900
19,567000	0,5	-1,609250
19,575333	0,5	-1,623050
19,583667	0,5	-1,645600
19,592000	0,5	-1,673050
19,600333	0,5	-1,694600
19,608667	0,5	-1,686500
19,617000	0,5	-1,684350
19,625333	0,5	-1,699750
19,633667	0,5	-1,693750
19,642000	0,5	-1,706650
19,650333	0,5	-1,710900
19,658667	0,5	-1,708700
19,667000	0,5	-1,716000
19,675333	0,5	-1,726550
19,683667	0,5	-1,746700
19,692000	0,5	-1,736550
19,700333	0,5	-1,753400
19,708667	0,5	-1,757600
19,717000	0,5	-1,765800
19,725333	0,5	-1,777300
19,733667	0,5	-1,802950
19,742000	0,5	-1,829300
19,750333	0,5	-1,856750
19,758667	0,5	-1,857200
19,767000	0,5	-1,880250
19,775333	0,5	-1,883400
19,783667	0,5	-1,897150
19,792000	0,5	-1,912850
19,800333	0,5	-1,921200
19,808667	0,5	-1,928600
19,817000	0,5	-1,933900
19,825333	0,5	-1,946800
19,833667	0,5	-1,943950
19,842000	0,5	-1,949000
19,850333	0,5	-1,953650
19,858667	0,5	-1,954750
19,867000	0,5	-1,953250
19,875333	0,5	-1,973650
19,883667	0,5	-1,992850
19,892000	0,5	-2,032950
19,900333	0,5	-2,030700
19,908667	0,5	-2,043150
19,917000	0,5	-2,041150
19,925333	0,5	-2,057750
19,933667	0,5	-2,055050
19,942000	0,5	-2,069000
19,950333	0,5	-2,076150
19,958667	0,5	-2,084300
19,967000	0,5	-2,089550
19,975333	0,5	-2,102400
19,983667	0,5	-2,103100
19,992000	0,5	-2,129850
20,000333	0,5	-2,149250
20,008667	0,5	-2,161500
20,017000	0,5	-2,186000
20,025333	0,5	-2,197600
20,033667	0,5	-2,251850
20,042000	0,5	-2,270250
20,050333	0,5	-2,292000
20,058667	0,5	-2,296850
20,067000	0,5	-2,306500
20,075333	0,5	-2,314650
20,083667	0,5	-2,330100
20,092000	0,5	-2,350800
20,100333	0,5	-2,359250
20,108667	0,5	-2,372350
20,117000	0,5	-2,385650
20,125333	0,5	-2,390900
20,133667	0,5	-2,391500
20,142000	0,5	-2,408800
20,150333	0,5	-2,402200
20,158667	0,5	-2,401350
20,167000	0,5	-2,398550
20,175333	0,5	-2,399600
20,183667	0,5	-2,412500
20,192000	0,5	-2,410500
20,200333	0,5	-2,402700
20,208667	0,5	-2,400900
20,217000	0,5	-2,399100
20,225333	0,5	-2,412500
20,233667	0,5	-2,423500
20,242000	0,5	-2,453600
20,250333	0,5	-2,467300
20,258667	0,5	-2,489700
20,267000	0,5	-2,510250
20,275333	0,5	-2,513200
20,283667	0,5	-2,533250
20,292000	0,5	-2,562500
20,300333	0,5	-2,580500
20,308667	0,5	-2,583800
20,317000	0,5	-2,625550
20,325333	0,5	-2,662550
20,333667	0,5	-2,709350
20,342000	0,5	-2,715150
20,350333	0,5	-2,742850
20,358667	0,5	-2,764550
20,367000	0,5	-2,787850
20,375333	0,5	-2,804100
20,383667	0,5	-2,836300
20,392000	0,5	-2,853850
20,400333	0,5	-2,893400
20,408667	0,5	-2,914700
20,417000	0,5	-2,933150
20,425333	0,5	-2,932400
20,433667	0,5	-2,965650
20,442000	0,5	-2,991000
20,450333	0,5	-3,004400
20,458667	0,5	-3,024400
20,467000	0,5	-3,049200
20,475333	0,5	-3,102600
20,483667	0,5	-3,117800
20,492000	0,5	-3,141400
20,500333	0,5	-3,149900
20,508667	0,5	-3,173850
20,517000	0,5	-3,166150
20,525333	0,5	-3,175500
20,533667	0,5	-3,162150
20,542000	0,5	-3,153650
20,550333	0,5	-3,165850
20,558667	0,5	-3,194400
20,567000	0,5	-3,214500
20,575333	0,5	-3,256100
20,583667	0,5	-3,311550
20,592000	0,5	-3,360750
20,600333	0,5	-3,416750
20,608667	0,5	-3,457800
20,617000	0,5	-3,519700
20,625333	0,5	-3,578900
20,633667	0,5	-3,605400
20,642000	0,5	-3,624600
20,650333	0,5	-3,676200
20,658667	0,5	-3,692700
20,667000	0,5	-3,726400
20,675333	0,5	-3,748450
20,683667	0,5	-3,759650
20,692000	0,5	-3,757100
20,700333	0,5	-3,759300
20,708667	0,5	-3,739300
20,717000	0,5	-3,691750
20,725333	0,5	-3,678400
20,733667	0,5	-3,704200
20,742000	0,5	-3,742950
20,750333	0,5	-3,812500
20,758667	0,5	-3,914300
20,767000	0,5	-4,002450
20,775333	0,5	-4,095900
20,783667	0,5	-4,145100
20,792000	0,5	-4,203300
20,800333	0,5	-4,253200
20,808667	0,5	-4,320500
20,817000	0,5	-4,366150
20,825333	0,5	-4,416350
20,833667	0,5	-4,450300
20,842000	0,5	-4,496800
20,850333	0,5	-4,539350
20,858667	0,5	-4,558150
20,867000	0,5	-4,576400
20,875333	0,5	-4,612200
20,883667	0,5	-4,627900
20,892000	0,5	-4,659650
20,900333	0,5	-4,696050
20,908667	0,5	-4,767150
20,917000	0,5	-4,831200
20,925333	0,5	-4,876200
20,933667	0,5	-4,936100
20,942000	0,5	-4,971500
20,950333	0,5	-5,019400
20,958667	0,5	-5,045200
20,967000	0,5	-5,082800
20,975333	0,5	-5,118200
20,983667	0,5	-5,155550
20,992000	0,5	-5,198900
21,000333	0,5	-5,230900
21,008667	0,5	-5,235950
21,017000	0,5	-5,257550
21,025333	0,5	-5,290050
21,033667	0,5	-5,325350
21,042000	0,5	-5,364900
21,050333	0,5	-5,408700
21,058667	0,5	-5,466650
21,067000	0,5	-5,500200
21,075333	0,5	-5,531050
21,083667	0,5	-5,553800
21,092000	0,5	-5,587500
21,100333	0,5	-5,615700
21,108667	0,5	-5,653150
21,117000	0,5	-5,693500
21,125333	0,5	-5,722050
21,133667	0,5	-5,744900
21,142000	0,5	-5,789750
21,150333	0,5	-5,797300
21,158667	0,5	-5,802250
21,167000	0,5	-5,827850
21,175333	0,5	-5,855450
21,183667	0,5	-5,882950
21,192000	0,5	-5,920900
21,200333	0,5	-5,957950
21,208667	0,5	-6,002650
21,217000	0,5	-6,031550
21,225333	0,5	-6,045850
21,233667	0,5	-6,070500
21,242000	0,5	-6,084750
21,250333	0,5	-6,104200
21,258667	0,5	-6,112150
21,267000	0,5	-6,131150
21,275333	0,5	-6,125650
21,283667	0,5	-6,142900
21,292000	0,5	-6,151700
21,300333	0,5	-6,131850
21,308667	0,5	-6,129450
21,317000	0,5	-6,166850
21,325333	0,5	-6,207850
21,333667	0,5	-6,229000
21,342000	0,5	-6,270550
21,350333	0,5	-6,313550
21,358667	0,5	-6,354400
21,367000	0,5	-6,359100
21,375333	0,5	-6,386650
21,383667	0,5	-6,402150
21,392000	0,5	-6,426500
21,400333	0,5	-6,429400
21,408667	0,5	-6,446700
21,417000	0,5	-6,454450
21,425333	0,5	-6,483800
21,433667	0,5	-6,498350
21,442000	0,5	-6,495450
21,450333	0,5	-6,489400
21,458667	0,5	-6,495650
21,467000	0,5	-6,513500
21,475333	0,5	-6,539600
21,483667	0,5	-6,569050
21,492000	0,5	-6,600500
21,500333	0,5	-6,646550
21,508667	0,5	-6,645800
21,517000	0,5	-6,664750
21,525333	0,5	-6,677450
21,533667	0,5	-6,687750
21,542000	0,5	-6,703800
21,550333	0,5	-6,718550
21,558667	0,5	-6,724250
21,567000	0,5	-6,743850
21,575333	0,5	-6,746750
21,583667	0,5	-6,751200
21,592000	0,5	-6,736100
21,600333	0,5	-6,722550
21,608667	0,5	-6,734500
21,617000	0,5	-6,736550
21,625333	0,5	-6,761550
21,633667	0,5	-6,772050
21,642000	0,5	-6,788300
21,650333	0,5	-6,793500
21,658667	0,5	-6,780750
21,667000	0,5	-6,768850
21,675333	0,5	-6,776250
21,683667	0,5	-6,787400
21,692000	0,5	-6,806000
21,700333	0,5	-6,814400
21,708667	0,5	-6,839050
21,717000	0,5	-6,856600
21,725333	0,5	-6,880550
21,733667	0,5	-6,882750
21,742000	0,5	-6,867850
21,750333	0,5	-6,879700
21,758667	0,5	-6,909350
21,767000	0,5	-6,928800
21,775333	0,5	-6,953850
21,783667	0,5	-6,991550
21,792000	0,5	-7,026900
21,800333	0,5	-7,057400
21,808667	0,5	-7,052050
21,817000	0,5	-7,076050
21,825333	0,5	-7,079550
21,833667	0,5	-7,106000
21,842000	0,5	-7,109200
21,850333	0,5	-7,132950
21,858667	0,5	-7,136000
21,867000	0,5	-7,147850
21,875333	0,5	-7,147750
21,883667	0,5	-7,150100
21,892000	0,5	-7,154550
21,900333	0,5	-7,176700
21,908667	0,5	-7,166200
21,917000	0,5	-7,158100
21,925333	0,5	-7,125400
21,933667	0,5	-7,093950
21,942000	0,5	-7,072950
21,950333	0,5	-7,048800
21,958667	0,5	-7,066150
21,967000	0,5	-7,114650
21,975333	0,5	-7,173100
21,983667	0,5	-7,221350
21,992000	0,5	-7,269150
22,000333	0,5	-7,299400
22,008667	0,5	-7,332450
22,017000	0,5	-7,375500
22,025333	0,5	-7,404200
22,033667	0,5	-7,425050
22,042000	0,5	-7,463300
22,050333	0,5	-7,488200
22,058667	0,5	-7,503100
22,067000	0,5	-7,535300
22,075333	0,5	-7,564900
22,083667	0,5	-7,612200
22,092000	0,5	-7,627950
22,100333	0,5	-7,642600
22,108667	0,5	-7,658300
22,117000	0,5	-7,686850
22,125333	0,5	-7,688000
22,133667	0,5	-7,724950
22,142000	0,5	-7,737900
22,150333	0,5	-7,744500
22,158667	0,5	-7,756650
22,167000	0,5	-7,780000
22,175333	0,5	-7,784050
22,183667	0,5	-7,797550
22,192000	0,5	-7,805000
22,200333	0,5	-7,809250
22,208667	0,5	-7,811050
22,217000	0,5	-7,829350
22,225333	0,5	-7,855300
22,233667	0,5	-7,872350
22,242000	0,5	-7,871100
22,250333	0,5	-7,867100
22,258667	0,5	-7,857300
22,267000	0,5	-7,861350
22,275333	0,5	-7,863700
22,283667	0,5	-7,849250
22,292000	0,5	-7,855950
22,300333	0,5	-7,838750
22,308667	0,5	-7,844300
22,317000	0,5	-7,839800
22,325333	0,5	-7,834250
22,333667	0,5	-7,853950
22,342000	0,5	-7,796800
22,350333	0,5	-7,746700
22,358667	0,5	-7,676950
22,367000	0,5	-7,578950
22,375333	0,5	-7,503700
22,383667	0,5	-7,457350
22,392000	0,5	-7,454050
22,400333	0,5	-7,521700
22,408667	0,5	-7,576150
22,417000	0,5	-7,630350
22,425333	0,5	-7,677800
22,433667	0,5	-7,721050
22,442000	0,5	-7,743150
22,450333	0,5	-7,763650
22,458667	0,5	-7,784600
22,467000	0,5	-7,821450
22,475333	0,5	-7,847050
22,483667	0,5	-7,834450
22,492000	0,5	-7,812400
22,500333	0,5	-7,798450
22,508667	0,5	-7,799800
22,517000	0,5	-7,802350
22,525333	0,5	-7,803550
22,533667	0,5	-7,765350
22,542000	0,5	-7,744400
22,550333	0,5	-7,719350
22,558667	0,5	-7,686850
22,567000	0,5	-7,650900
22,575333	0,5	-7,636650
22,583667	0,5	-7,612100
22,592000	0,5	-7,604950
22,600333	0,5	-7,599650
22,608667	0,5	-7,629350
22,617000	0,5	-7,655200
22,625333	0,5	-7,659500
22,633667	0,5	-7,624200
22,642000	0,5	-7,620700
22,650333	0,5	-7,609050
22,658667	0,5	-7,616100
22,667000	0,5	-7,637800
22,675333	0,5	-7,634450
22,683667	0,5	-7,636900
22,692000	0,5	-7,638500
22,700333	0,5	-7,641150
22,708667	0,5	-7,650450
22,717000	0,5	-7,661350
22,725333	0,5	-7,666850
22,733667	0,5	-7,667650
22,742000	0,5	-7,676250
22,750333	0,5	-7,691200
22,758667	0,5	-7,769600
22,767000	0,5	-7,769200
22,775333	0,5	-7,764950
22,783667	0,5	-7,743000
22,792000	0,5	-7,764150
22,800333	0,5	-7,779150
22,808667	0,5	-7,810750
22,817000	0,5	-7,843050
22,825333	0,5	-7,866400
22,833667	0,5	-7,873000
22,842000	0,5	-7,904950
22,850333	0,5	-7,919350
22,858667	0,5	-7,933250
22,867000	0,5	-7,955300
22,875333	0,5	-7,973000
22,883667	0,5	-7,981050
22,892000	0,5	-7,993750
22,900333	0,5	-8,012900
22,908667	0,5	-8,092850
22,917000	0,5	-8,082200
22,925333	0,5	-8,077650
22,933667	0,5	-8,103400
22,942000	0,5	-8,125550
22,950333	0,5	-8,127300
22,958667	0,5	-8,140700
22,967000	0,5	-8,151700
22,975333	0,5	-8,165750
22,983667	0,5	-8,161600
22,992000	0,5	-8,158250
23,000333	0,5	-8,143950
23,008667	0,5	-8,128000
23,017000	0,5	-8,089100
23,025333	0,5	-8,082900
23,033667	0,5	-8,030850
23,042000	0,5	-8,009950
23,050333	0,5	-7,940700
23,058667	0,5	-7,911500
23,067000	0,5	-7,859450
23,075333	0,5	-7,857600
23,083667	0,5	-7,828000
23,092000	0,5	-7,771750
23,100333	0,5	-7,719200
23,108667	0,5	-7,656450
23,117000	0,5	-7,628900
23,125333	0,5	-7,566750
23,133667	0,5	-7,509250
23,142000	0,5	-7,436550
23,150333	0,5	-7,385100
23,158667	0,5	-7,298300
23,167000	0,5	-7,216250
23,175333	0,5	-7,135400
23,183667	0,5	-7,061400
23,192000	0,5	-6,950200
23,200333	0,5	-6,850800
23,208667	0,5	-6,762650
23,217000	0,5	-6,678250
23,225333	0,5	-6,638650
23,233667	0,5	-6,556650
23,242000	0,5	-6,489100
23,250333	0,5	-6,391150
23,258667	0,5	-6,325900
23,267000	0,5	-6,249300
23,275333	0,5	-6,173600
23,283667	0,5	-6,090900
23,292000	0,5	-6,016600
23,300333	0,5	-5,920050
23,308667	0,5	-5,841950
23,317000	0,5	-5,740650
23,325333	0,5	-5,658950
23,333667	0,5	-5,563000
23,342000	0,5	-5,444850
23,350333	0,5	-5,402100
23,358667	0,5	-5,276150
23,367000	0,5	-5,184400
23,375333	0,5	-5,140300
23,383667	0,5	-5,065600
23,392000	0,5	-4,993100
23,400333	0,5	-4,904650
23,408667	0,5	-4,847000
23,417000	0,5	-4,797800
23,425333	0,5	-4,726150
23,433667	0,5	-4,668000
23,442000	0,5	-4,600850
23,450333	0,5	-4,543100
23,458667	0,5	-4,463900
23,467000	0,5	-4,412350
23,475333	0,5	-4,332850
23,483667	0,5	-4,262300
23,492000	0,5	-4,272950
23,500333	0,5	-4,181900
23,508667	0,5	-4,086550
23,517000	0,5	-4,007850
23,525333	0,5	-3,961100
23,533667	0,5	-3,915650
23,542000	0,5	-3,859750
23,550333	0,5	-3,809150
23,558667	0,5	-3,773950
23,567000	0,5	-3,735400
23,575333	0,5	-3,693900
23,583667	0,5	-3,657100
23,592000	0,5	-3,615350
23,600333	0,5	-3,578950
23,608667	0,5	-3,533050
23,617000	0,5	-3,494300
23,625333	0,5	-3,462750
23,633667	0,5	-3,426700
23,642000	0,5	-3,519400
23,650333	0,5	-3,471700
23,658667	0,5	-3,374400
23,667000	0,5	-3,318850
23,675333	0,5	-3,283500
23,683667	0,5	-3,257550
23,692000	0,5	-3,227800
23,700333	0,5	-3,206400
23,708667	0,5	-3,176500
23,717000	0,5	-3,154800
23,725333	0,5	-3,121750
23,733667	0,5	-3,093400
23,742000	0,5	-3,068750
23,750333	0,5	-3,040100
23,758667	0,5	-3,013500
23,767000	0,5	-2,982250
23,775333	0,5	-2,956300
23,783667	0,5	-3,040050
23,792000	0,5	-3,078250
23,800333	0,5	-3,028950
23,808667	0,5	-2,942750
23,817000	0,5	-2,896900
23,825333	0,5	-2,864450
23,833667	0,5	-2,842300
23,842000	0,5	-2,842900
23,850333	0,5	-2,823400
23,858667	0,5	-2,798850
23,867000	0,5	-2,777900
23,875333	0,5	-2,754150
23,883667	0,5	-2,738500
23,892000	0,5	-2,714550
23,900333	0,5	-2,691650
23,908667	0,5	-2,665600
23,917000	0,5	-2,638350
23,925333	0,5	-2,613000
23,933667	0,5	-2,784450
23,942000	0,5	-2,744200
23,950333	0,5	-2,685800
23,958667	0,5	-2,601000
23,967000	0,5	-2,557500
23,975333	0,5	-2,522900
23,983667	0,5	-2,509050
23,992000	0,5	-2,493600
24,000333	0,5	-2,476200
24,008667	0,5	-2,442550
24,017000	0,5	-2,423550
24,025333	0,5	-2,399600
24,033667	0,5	-2,374550
24,042000	0,5	-2,358600
24,050333	0,5	-2,338100
24,058667	0,5	-2,306300
24,067000	0,5	-2,282550
24,075333	0,5	-2,308900
24,083667	0,5	-2,425000
24,092000	0,5	-2,385850
24,100333	0,5	-2,322400
24,108667	0,5	-2,256900
24,117000	0,5	-2,213600
24,125333	0,5	-2,188750
24,133667	0,5	-2,173850
24,142000	0,5	-2,180250
24,150333	0,5	-2,141850
24,158667	0,5	-2,115050
24,167000	0,5	-2,079050
24,175333	0,5	-2,049450
24,183667	0,5	-2,015450
24,192000	0,5	-1,987250
24,200333	0,5	-1,958850
24,208667	0,5	-1,933950
24,217000	0,5	-1,908200
24,225333	0,5	-2,007400
24,233667	0,5	-2,013400
24,242000	0,5	-1,985100
24,250333	0,5	-1,919850
24,258667	0,5	-1,868450
24,267000	0,5	-1,842250
24,275333	0,5	-1,826350
24,283667	0,5	-1,820850
24,292000	0,5	-1,801600
24,300333	0,5	-1,782750
24,308667	0,5	-1,750650
24,317000	0,5	-1,734400
24,325333	0,5	-1,706300
24,333667	0,5	-1,688700
24,342000	0,5	-1,667000
24,350333	0,5	-1,641750
24,358667	0,5	-1,613050
24,367000	0,5	-1,593650
24,375333	0,5	-1,685050
24,383667	0,5	-1,664800
24,392000	0,5	-1,621150
24,400333	0,5	-1,571900
24,408667	0,5	-1,527400
24,417000	0,5	-1,504550
24,425333	0,5	-1,488000
24,433667	0,5	-1,482900
24,442000	0,5	-1,462700
24,450333	0,5	-1,439450
24,458667	0,5	-1,423000
24,467000	0,5	-1,401100
24,475333	0,5	-1,380400
24,483667	0,5	-1,359550
24,492000	0,5	-1,340350
24,500333	0,5	-1,316600
24,508667	0,5	-1,304950
24,517000	0,5	-1,331700
24,525333	0,5	-1,367850
24,533667	0,5	-1,347400
24,542000	0,5	-1,311750
24,550333	0,5	-1,276550
24,558667	0,5	-1,253250
24,567000	0,5	-1,236050
24,575333	0,5	-1,231250
24,583667	0,5	-1,219400
24,592000	0,5	-1,192450
24,600333	0,5	-1,173950
24,608667	0,5	-1,156750
24,617000	0,5	-1,141800
24,625333	0,5	-1,123900
24,633667	0,5	-1,108750
24,642000	0,5	-1,091600
24,650333	0,5	-1,078750
24,658667	0,5	-1,060850
24,667000	0,5	-1,111250
24,675333	0,5	-1,084050
24,683667	0,5	-1,081350
24,692000	0,5	-1,039550
24,700333	0,5	-1,020550
24,708667	0,5	-1,006150
24,717000	0,5	-0,999250
24,725333	0,5	-1,002950
24,733667	0,5	-0,989350
24,742000	0,5	-0,976150
24,750333	0,5	-0,975550
24,758667	0,5	-0,965700
24,767000	0,5	-0,952800
24,775333	0,5	-0,940150
24,783667	0,5	-0,928950
24,792000	0,5	-0,911200
24,800333	0,5	-0,900000
24,808667	0,5	-0,896850
24,817000	0,5	-0,931950
24,825333	0,5	-0,913700
24,833667	0,5	-0,895300
24,842000	0,5	-0,866750
24,850333	0,5	-0,854500
24,858667	0,5	-0,838550
24,867000	0,5	-0,832150
24,875333	0,5	-0,832000
24,883667	0,5	-0,816100
24,892000	0,5	-0,814350
24,900333	0,5	-0,800850
24,908667	0,5	-0,792000
24,917000	0,5	-0,782950
24,925333	0,5	-0,777000
24,933667	0,5	-0,772400
24,942000	0,5	-0,763750
24,950333	0,5	-0,765450
24,958667	0,5	-0,774350
24,967000	0,5	-0,782350
24,975333	0,5	-0,770650
24,983667	0,5	-0,757750
24,992000	0,5	-0,743600
25,000333	0,5	-0,733900
25,008667	0,5	-0,726100
25,017000	0,5	-0,725850
25,025333	0,5	-0,717850
25,033667	0,5	-0,707500
25,042000	0,5	-0,698000
25,050333	0,5	-0,694050
25,058667	0,5	-0,684450
25,067000	0,5	-0,680450
25,075333	0,5	-0,670100
25,083667	0,5	-0,664150
25,092000	0,5	-0,655250
25,100333	0,5	-0,648650
25,108667	0,5	-0,660150
25,117000	0,5	-0,653200
25,125333	0,5	-0,648350
25,133667	0,5	-0,642000
25,142000	0,5	-0,639100
25,150333	0,5	-0,637550
25,158667	0,5	-0,636550
25,167000	0,5	-0,635200
25,175333	0,5	-0,634400
25,183667	0,5	-0,630550
25,192000	0,5	-0,621500
25,200333	0,5	-0,623050
25,208667	0,5	-0,617250
25,217000	0,5	-0,609050
25,225333	0,5	-0,602150
25,233667	0,5	-0,598550
25,242000	0,5	-0,592350
25,250333	0,5	-0,589200
25,258667	0,5	-0,585800
25,267000	0,5	-0,577400
25,275333	0,5	-0,568350
25,283667	0,5	-0,566750
25,292000	0,5	-0,564200
25,300333	0,5	-0,563600
25,308667	0,5	-0,561550
25,317000	0,5	-0,560650
25,325333	0,5	-0,557250
25,333667	0,5	-0,559500
25,342000	0,5	-0,557000
25,350333	0,5	-0,558450
25,358667	0,5	-0,562100
25,367000	0,5	-0,558900
25,375333	0,5	-0,555050
25,383667	0,5	-0,555900
25,392000	0,5	-0,550500
25,400333	0,5	-0,546250
25,408667	0,5	-0,541050
25,417000	0,5	-0,529900
25,425333	0,5	-0,533300
25,433667	0,5	-0,532350
25,442000	0,5	-0,529100
25,450333	0,5	-0,523300
25,458667	0,5	-0,521100
25,467000	0,5	-0,516650
25,475333	0,5	-0,516350
25,483667	0,5	-0,516200
25,492000	0,5	-0,513750
25,500333	0,5	-0,511750
25,508667	0,5	-0,514850
25,517000	0,5	-0,515250
25,525333	0,5	-0,517800
25,533667	0,5	-0,518900
25,542000	0,5	-0,516950
25,550333	0,5	-0,509050
25,558667	0,5	-0,502350
25,567000	0,5	-0,498450
25,575333	0,5	-0,504250
25,583667	0,5	-0,508050
25,592000	0,5	-0,509150
25,600333	0,5	-0,503050
25,608667	0,5	-0,502200
25,617000	0,5	-0,499400
25,625333	0,5	-0,497400
25,633667	0,5	-0,499600
25,642000	0,5	-0,498950
25,650333	0,5	-0,496600
25,658667	0,5	-0,493700
25,667000	0,5	-0,488500
25,675333	0,5	-0,495600
25,683667	0,5	-0,492700
25,692000	0,5	-0,487000
25,700333	0,5	-0,472450
25,708667	0,5	-0,476200
25,717000	0,5	-0,470450
25,725333	0,5	-0,483500
25,733667	0,5	-0,481400
25,742000	0,5	-0,482600
25,750333	0,5	-0,480500
25,758667	0,5	-0,468750
25,767000	0,5	-0,475400
25,775333	0,5	-0,484050
25,783667	0,5	-0,476700
25,792000	0,5	-0,477300
25,800333	0,5	-0,479700
25,808667	0,5	-0,475200
25,817000	0,5	-0,472950
25,825333	0,5	-0,469950
25,833667	0,5	-0,469500
25,842000	0,5	-0,455050
25,850333	0,5	-0,444450
25,858667	0,5	-0,438550
25,867000	0,5	-0,438900
25,875333	0,5	-0,449550
25,883667	0,5	-0,454450
25,892000	0,5	-0,449900
25,900333	0,5	-0,444400
25,908667	0,5	-0,434700
25,917000	0,5	-0,442900
25,925333	0,5	-0,442500
25,933667	0,5	-0,443600
25,942000	0,5	-0,441850
25,950333	0,5	-0,443650
25,958667	0,5	-0,441600
25,967000	0,5	-0,440850
25,975333	0,5	-0,437600
25,983667	0,5	-0,431350
25,992000	0,5	-0,418150
26,000333	0,5	-0,413650
