File Path	chrom://chromeleon01/ikbm_chromeleon/2022/ICS-5000/ED1/Esteban/20220427_Cell_Amandas_mutants.seq/104.smp/ED_1.channel/ED_1.chm
Channel	ED_1

Injection Information:
Data Vault	ikbm_chromeleon
Injection	EG_BMCC_2b
Injection Number	46
Position	RE6
Comment	
Processing Method	Stop sequence after Cell Death
Instrument Method	ICS5000_PA200_FullNative_Ox_26min_ED1
Type	Unknown
Status	Finished
Injection Date	28.04.2022
Injection Time	10:25:50
Injection Volume (µl)	5,0
Dilution Factor	1,0000
Weight	1,0000

Chromatogram Data Information:
Time Min. (min)	0,000333
Time Max. (min)	26,000333
Data Points	3121
Detector	EDet1
Generating Data System	Chromeleon 7.2.9.11323
Exporting Data System	Chromeleon 7.2.9.0
Operator	Instrument Controller
Signal Quantity	
Signal Unit	nC
Signal Min.	-8,007650
Signal Max.	2 027,786730
Channel	ED_1
Driver Name	DC-5000
Channel Type	Evaluation
Min. Step (s)	0,5
Max. Step (s)	0,5
Average Step (s)	0,5

Signal Parameter Information:
Signal Info	

Chromatogram Data:
Time (min)	Step (s)	Value (nC)
0,000333	n.a.	-0,058450
0,008667	0,5	-0,110500
0,017000	0,5	-0,105000
0,025333	0,5	-0,091450
0,033667	0,5	-0,085900
0,042000	0,5	-0,065900
0,050333	0,5	-0,067300
0,058667	0,5	-0,050500
0,067000	0,5	-0,032250
0,075333	0,5	-0,040450
0,083667	0,5	-0,070350
0,092000	0,5	-0,012050
0,100333	0,5	-0,045500
0,108667	0,5	-0,046600
0,117000	0,5	-0,045400
0,125333	0,5	-0,027650
0,133667	0,5	0,022400
0,142000	0,5	0,000600
0,150333	0,5	-0,000700
0,158667	0,5	-0,010600
0,167000	0,5	0,011800
0,175333	0,5	-0,002050
0,183667	0,5	0,004300
0,192000	0,5	-0,001800
0,200333	0,5	-0,011400
0,208667	0,5	-0,011300
0,217000	0,5	-0,008050
0,225333	0,5	-0,029550
0,233667	0,5	-0,035000
0,242000	0,5	-0,016250
0,250333	0,5	-0,037400
0,258667	0,5	-0,039650
0,267000	0,5	-0,021550
0,275333	0,5	0,002200
0,283667	0,5	0,033450
0,292000	0,5	0,028250
0,300333	0,5	0,035750
0,308667	0,5	0,087750
0,317000	0,5	0,069850
0,325333	0,5	0,010250
0,333667	0,5	-0,014900
0,342000	0,5	-0,014500
0,350333	0,5	-0,024750
0,358667	0,5	-0,014450
0,367000	0,5	-0,017200
0,375333	0,5	-0,018750
0,383667	0,5	-0,024800
0,392000	0,5	-0,019600
0,400333	0,5	-0,046800
0,408667	0,5	-0,048050
0,417000	0,5	-0,039600
0,425333	0,5	-0,005250
0,433667	0,5	0,025800
0,442000	0,5	0,011450
0,450333	0,5	-0,004900
0,458667	0,5	0,004150
0,467000	0,5	-0,001300
0,475333	0,5	-0,002450
0,483667	0,5	-0,002800
0,492000	0,5	-0,013550
0,500333	0,5	-0,013550
0,508667	0,5	-0,019850
0,517000	0,5	-0,031150
0,525333	0,5	-0,046700
0,533667	0,5	-0,033700
0,542000	0,5	-0,039700
0,550333	0,5	-0,044700
0,558667	0,5	-0,043950
0,567000	0,5	-0,012050
0,575333	0,5	0,015050
0,583667	0,5	0,028350
0,592000	0,5	0,010700
0,600333	0,5	0,016650
0,608667	0,5	0,006400
0,617000	0,5	0,010200
0,625333	0,5	0,005450
0,633667	0,5	0,007600
0,642000	0,5	-0,003150
0,650333	0,5	-0,001400
0,658667	0,5	0,009750
0,667000	0,5	-0,010700
0,675333	0,5	-0,000350
0,683667	0,5	0,013950
0,692000	0,5	-0,007300
0,700333	0,5	-0,019650
0,708667	0,5	-0,010850
0,717000	0,5	0,010850
0,725333	0,5	0,049750
0,733667	0,5	0,041050
0,742000	0,5	0,057000
0,750333	0,5	0,040800
0,758667	0,5	0,048400
0,767000	0,5	0,033050
0,775333	0,5	0,047550
0,783667	0,5	0,044150
0,792000	0,5	0,040350
0,800333	0,5	0,042850
0,808667	0,5	0,039000
0,817000	0,5	0,035950
0,825333	0,5	0,056550
0,833667	0,5	0,054300
0,842000	0,5	0,042200
0,850333	0,5	0,036650
0,858667	0,5	0,047850
0,867000	0,5	0,091850
0,875333	0,5	0,107150
0,883667	0,5	0,100250
0,892000	0,5	0,082900
0,900333	0,5	0,092700
0,908667	0,5	0,083100
0,917000	0,5	0,092650
0,925333	0,5	0,090250
0,933667	0,5	0,094950
0,942000	0,5	0,089650
0,950333	0,5	0,096950
0,958667	0,5	0,109250
0,967000	0,5	0,098950
0,975333	0,5	0,138950
0,983667	0,5	0,116200
0,992000	0,5	0,104850
1,000333	0,5	0,103200
1,008667	0,5	0,114450
1,017000	0,5	0,154850
1,025333	0,5	0,161250
1,033667	0,5	0,143700
1,042000	0,5	0,152050
1,050333	0,5	0,150300
1,058667	0,5	0,153500
1,067000	0,5	0,147200
1,075333	0,5	0,169100
1,083667	0,5	0,159250
1,092000	0,5	0,163200
1,100333	0,5	0,169300
1,108667	0,5	0,173900
1,117000	0,5	0,162450
1,125333	0,5	0,208800
1,133667	0,5	0,173950
1,142000	0,5	0,181250
1,150333	0,5	0,185550
1,158667	0,5	0,202100
1,167000	0,5	0,253300
1,175333	0,5	0,245200
1,183667	0,5	0,243850
1,192000	0,5	0,238800
1,200333	0,5	0,243800
1,208667	0,5	0,242200
1,217000	0,5	0,256500
1,225333	0,5	0,266050
1,233667	0,5	0,267950
1,242000	0,5	0,270950
1,250333	0,5	0,283150
1,258667	0,5	0,276300
1,267000	0,5	0,288950
1,275333	0,5	0,318900
1,283667	0,5	0,302450
1,292000	0,5	0,302650
1,300333	0,5	0,323300
1,308667	0,5	0,342850
1,317000	0,5	0,388150
1,325333	0,5	0,382000
1,333667	0,5	0,382150
1,342000	0,5	0,390650
1,350333	0,5	0,397850
1,358667	0,5	0,398150
1,367000	0,5	0,407700
1,375333	0,5	0,424950
1,383667	0,5	0,420950
1,392000	0,5	0,440000
1,400333	0,5	0,441850
1,408667	0,5	0,453450
1,417000	0,5	0,468950
1,425333	0,5	0,475900
1,433667	0,5	0,458850
1,442000	0,5	0,472950
1,450333	0,5	0,483100
1,458667	0,5	0,529800
1,467000	0,5	0,552450
1,475333	0,5	0,560800
1,483667	0,5	0,553000
1,492000	0,5	0,561450
1,500333	0,5	0,555200
1,508667	0,5	0,570000
1,517000	0,5	0,577150
1,525333	0,5	0,577400
1,533667	0,5	0,585450
1,542000	0,5	0,592900
1,550333	0,5	0,609000
1,558667	0,5	0,607250
1,567000	0,5	0,623300
1,575333	0,5	0,553500
1,583667	0,5	0,258300
1,592000	0,5	-0,530900
1,600333	0,5	-1,190850
1,608667	0,5	-0,287200
1,617000	0,5	2,395250
1,625333	0,5	5,900850
1,633667	0,5	10,554350
1,642000	0,5	16,105600
1,650333	0,5	20,291050
1,658667	0,5	21,379800
1,667000	0,5	20,238250
1,675333	0,5	18,454550
1,683667	0,5	16,646200
1,692000	0,5	14,853650
1,700333	0,5	13,185100
1,708667	0,5	11,856800
1,717000	0,5	11,110700
1,725333	0,5	11,149400
1,733667	0,5	11,575100
1,742000	0,5	11,355800
1,750333	0,5	10,212600
1,758667	0,5	8,809200
1,767000	0,5	7,703600
1,775333	0,5	7,167400
1,783667	0,5	7,234450
1,792000	0,5	7,996900
1,800333	0,5	9,267650
1,808667	0,5	10,440750
1,817000	0,5	10,819250
1,825333	0,5	10,513550
1,833667	0,5	9,875850
1,842000	0,5	9,135300
1,850333	0,5	8,400300
1,858667	0,5	7,765600
1,867000	0,5	7,168900
1,875333	0,5	6,647950
1,883667	0,5	6,220200
1,892000	0,5	5,857300
1,900333	0,5	5,559300
1,908667	0,5	5,263250
1,917000	0,5	4,981000
1,925333	0,5	4,722200
1,933667	0,5	4,526000
1,942000	0,5	4,380500
1,950333	0,5	4,333500
1,958667	0,5	4,314000
1,967000	0,5	4,370900
1,975333	0,5	4,812800
1,983667	0,5	6,785750
1,992000	0,5	12,756400
2,000333	0,5	27,038800
2,008667	0,5	57,764201
2,017000	0,5	127,530602
2,025333	0,5	280,737054
2,033667	0,5	514,282458
2,042000	0,5	690,704160
2,050333	0,5	690,537110
2,058667	0,5	557,776058
2,067000	0,5	406,576856
2,075333	0,5	296,660654
2,083667	0,5	226,312853
2,092000	0,5	179,863003
2,100333	0,5	147,131102
2,108667	0,5	122,955602
2,117000	0,5	104,523802
2,125333	0,5	90,283651
2,133667	0,5	79,130251
2,142000	0,5	70,246501
2,150333	0,5	63,044801
2,158667	0,5	57,352701
2,167000	0,5	52,577351
2,175333	0,5	48,240251
2,183667	0,5	44,190251
2,192000	0,5	40,704301
2,200333	0,5	37,886401
2,208667	0,5	35,558001
2,217000	0,5	33,626651
2,225333	0,5	32,006450
2,233667	0,5	30,664250
2,242000	0,5	29,547350
2,250333	0,5	28,592100
2,258667	0,5	27,721250
2,267000	0,5	26,925250
2,275333	0,5	26,220800
2,283667	0,5	25,626550
2,292000	0,5	25,059850
2,300333	0,5	24,572400
2,308667	0,5	24,138100
2,317000	0,5	23,737550
2,325333	0,5	23,392350
2,333667	0,5	23,113850
2,342000	0,5	22,871300
2,350333	0,5	22,677150
2,358667	0,5	22,475150
2,367000	0,5	22,356950
2,375333	0,5	22,281800
2,383667	0,5	22,325350
2,392000	0,5	22,554950
2,400333	0,5	23,020550
2,408667	0,5	23,387650
2,417000	0,5	23,282650
2,425333	0,5	22,858450
2,433667	0,5	22,558150
2,442000	0,5	22,439700
2,450333	0,5	22,394650
2,458667	0,5	22,328800
2,467000	0,5	22,254500
2,475333	0,5	22,166550
2,483667	0,5	22,077050
2,492000	0,5	21,978450
2,500333	0,5	21,847250
2,508667	0,5	21,717450
2,517000	0,5	21,610300
2,525333	0,5	21,558550
2,533667	0,5	21,571200
2,542000	0,5	21,741750
2,550333	0,5	22,167750
2,558667	0,5	23,060400
2,567000	0,5	24,712150
2,575333	0,5	27,604250
2,583667	0,5	33,039450
2,592000	0,5	44,283701
2,600333	0,5	65,459251
2,608667	0,5	97,683001
2,617000	0,5	141,756652
2,625333	0,5	207,622553
2,633667	0,5	344,975205
2,642000	0,5	670,848010
2,650333	0,5	1 168,426217
2,658667	0,5	1 557,321273
2,667000	0,5	1 899,261778
2,675333	0,5	2 019,704630
2,683667	0,5	2 027,786730
2,692000	0,5	1 964,922329
2,700333	0,5	1 855,652328
2,708667	0,5	1 713,019676
2,717000	0,5	1 547,699123
2,725333	0,5	1 370,040470
2,733667	0,5	1 192,196818
2,742000	0,5	1 026,759415
2,750333	0,5	873,548913
2,758667	0,5	736,371461
2,767000	0,5	625,094759
2,775333	0,5	543,372358
2,783667	0,5	490,418357
2,792000	0,5	457,856107
2,800333	0,5	440,540257
2,808667	0,5	431,762756
2,817000	0,5	425,249406
2,825333	0,5	416,444856
2,833667	0,5	402,865756
2,842000	0,5	383,844756
2,850333	0,5	359,537255
2,858667	0,5	330,927705
2,867000	0,5	299,719354
2,875333	0,5	268,171854
2,883667	0,5	238,410104
2,892000	0,5	211,980253
2,900333	0,5	188,987753
2,908667	0,5	169,203103
2,917000	0,5	152,111302
2,925333	0,5	137,223052
2,933667	0,5	124,183102
2,942000	0,5	112,659702
2,950333	0,5	102,505702
2,958667	0,5	93,587501
2,967000	0,5	85,752001
2,975333	0,5	78,808801
2,983667	0,5	72,627601
2,992000	0,5	67,076001
3,000333	0,5	62,067651
3,008667	0,5	57,522801
3,017000	0,5	53,437751
3,025333	0,5	49,712901
3,033667	0,5	46,363301
3,042000	0,5	43,348901
3,050333	0,5	40,565101
3,058667	0,5	38,018051
3,067000	0,5	35,706551
3,075333	0,5	33,592251
3,083667	0,5	31,657750
3,092000	0,5	29,857950
3,100333	0,5	28,185100
3,108667	0,5	26,652600
3,117000	0,5	25,267000
3,125333	0,5	23,999900
3,133667	0,5	22,877350
3,142000	0,5	21,871600
3,150333	0,5	20,983900
3,158667	0,5	20,247700
3,167000	0,5	19,651850
3,175333	0,5	19,263600
3,183667	0,5	19,190250
3,192000	0,5	19,648650
3,200333	0,5	20,790000
3,208667	0,5	22,834250
3,217000	0,5	25,660600
3,225333	0,5	28,824050
3,233667	0,5	31,576600
3,242000	0,5	33,207700
3,250333	0,5	33,430000
3,258667	0,5	32,330950
3,267000	0,5	30,233950
3,275333	0,5	27,562500
3,283667	0,5	24,691600
3,292000	0,5	21,892950
3,300333	0,5	19,359600
3,308667	0,5	17,172600
3,317000	0,5	15,364550
3,325333	0,5	13,857050
3,333667	0,5	12,650750
3,342000	0,5	11,647700
3,350333	0,5	10,809250
3,358667	0,5	10,100300
3,367000	0,5	9,518300
3,375333	0,5	9,026850
3,383667	0,5	8,608150
3,392000	0,5	8,223800
3,400333	0,5	7,927200
3,408667	0,5	7,668200
3,417000	0,5	7,474050
3,425333	0,5	7,307250
3,433667	0,5	7,185850
3,442000	0,5	7,064150
3,450333	0,5	6,947250
3,458667	0,5	6,832600
3,467000	0,5	6,692950
3,475333	0,5	6,543750
3,483667	0,5	6,429050
3,492000	0,5	6,287450
3,500333	0,5	6,166300
3,508667	0,5	6,059350
3,517000	0,5	5,982000
3,525333	0,5	5,922900
3,533667	0,5	5,840150
3,542000	0,5	5,755850
3,550333	0,5	5,664550
3,558667	0,5	5,588950
3,567000	0,5	5,483300
3,575333	0,5	5,390450
3,583667	0,5	5,271150
3,592000	0,5	5,158850
3,600333	0,5	5,033900
3,608667	0,5	4,907450
3,617000	0,5	4,766350
3,625333	0,5	4,623300
3,633667	0,5	4,495400
3,642000	0,5	4,341750
3,650333	0,5	4,205250
3,658667	0,5	4,067500
3,667000	0,5	3,955700
3,675333	0,5	3,844150
3,683667	0,5	3,732350
3,692000	0,5	3,600900
3,700333	0,5	3,503400
3,708667	0,5	3,388000
3,717000	0,5	3,292500
3,725333	0,5	3,204600
3,733667	0,5	3,122450
3,742000	0,5	3,043700
3,750333	0,5	2,988000
3,758667	0,5	2,943300
3,767000	0,5	2,907450
3,775333	0,5	2,891100
3,783667	0,5	2,887350
3,792000	0,5	2,861900
3,800333	0,5	2,858150
3,808667	0,5	2,848100
3,817000	0,5	2,850200
3,825333	0,5	2,837450
3,833667	0,5	2,790650
3,842000	0,5	2,749350
3,850333	0,5	2,708300
3,858667	0,5	2,656150
3,867000	0,5	2,595600
3,875333	0,5	2,552850
3,883667	0,5	2,499650
3,892000	0,5	2,447400
3,900333	0,5	2,400050
3,908667	0,5	2,353700
3,917000	0,5	2,297200
3,925333	0,5	2,275100
3,933667	0,5	2,215700
3,942000	0,5	2,157750
3,950333	0,5	2,116000
3,958667	0,5	2,073850
3,967000	0,5	2,051100
3,975333	0,5	1,997000
3,983667	0,5	1,935700
3,992000	0,5	1,887800
4,000333	0,5	1,833000
4,008667	0,5	1,792100
4,017000	0,5	1,745700
4,025333	0,5	1,706000
4,033667	0,5	1,663800
4,042000	0,5	1,625550
4,050333	0,5	1,598850
4,058667	0,5	1,547150
4,067000	0,5	1,512100
4,075333	0,5	1,472700
4,083667	0,5	1,409450
4,092000	0,5	1,349550
4,100333	0,5	1,301500
4,108667	0,5	1,268650
4,117000	0,5	1,243350
4,125333	0,5	1,188650
4,133667	0,5	1,156750
4,142000	0,5	1,122250
4,150333	0,5	1,092700
4,158667	0,5	1,071850
4,167000	0,5	1,063100
4,175333	0,5	1,060550
4,183667	0,5	1,082700
4,192000	0,5	1,134300
4,200333	0,5	1,233150
4,208667	0,5	1,391400
4,217000	0,5	1,627800
4,225333	0,5	1,944550
4,233667	0,5	2,347400
4,242000	0,5	2,871700
4,250333	0,5	3,521400
4,258667	0,5	4,317550
4,267000	0,5	5,206850
4,275333	0,5	6,218500
4,283667	0,5	7,378700
4,292000	0,5	8,788450
4,300333	0,5	10,535900
4,308667	0,5	12,851700
4,317000	0,5	16,048300
4,325333	0,5	20,562600
4,333667	0,5	26,929500
4,342000	0,5	35,671901
4,350333	0,5	47,056501
4,358667	0,5	60,793851
4,367000	0,5	76,022101
4,375333	0,5	91,144151
4,383667	0,5	104,400052
4,392000	0,5	114,375452
4,400333	0,5	120,231802
4,408667	0,5	121,854752
4,417000	0,5	119,650902
4,425333	0,5	114,365502
4,433667	0,5	107,032452
4,442000	0,5	98,468601
4,450333	0,5	89,437901
4,458667	0,5	80,461151
4,467000	0,5	71,927901
4,475333	0,5	63,994501
4,483667	0,5	56,770351
4,492000	0,5	50,262201
4,500333	0,5	44,394001
4,508667	0,5	39,126751
4,517000	0,5	34,462701
4,525333	0,5	30,274000
4,533667	0,5	26,604300
4,542000	0,5	23,412150
4,550333	0,5	20,679650
4,558667	0,5	18,362650
4,567000	0,5	16,363450
4,575333	0,5	14,674100
4,583667	0,5	13,227950
4,592000	0,5	11,989900
4,600333	0,5	10,897950
4,608667	0,5	9,942250
4,617000	0,5	9,075500
4,625333	0,5	8,283800
4,633667	0,5	7,560300
4,642000	0,5	6,894050
4,650333	0,5	6,263400
4,658667	0,5	5,706700
4,667000	0,5	5,208400
4,675333	0,5	4,747050
4,683667	0,5	4,339350
4,692000	0,5	3,980300
4,700333	0,5	3,678100
4,708667	0,5	3,411500
4,717000	0,5	3,152800
4,725333	0,5	2,917300
4,733667	0,5	2,712850
4,742000	0,5	2,518200
4,750333	0,5	2,353650
4,758667	0,5	2,201000
4,767000	0,5	2,053700
4,775333	0,5	1,914350
4,783667	0,5	1,797950
4,792000	0,5	1,670750
4,800333	0,5	1,564750
4,808667	0,5	1,468150
4,817000	0,5	1,382000
4,825333	0,5	1,288000
4,833667	0,5	1,222800
4,842000	0,5	1,162200
4,850333	0,5	1,131300
4,858667	0,5	1,100300
4,867000	0,5	1,058550
4,875333	0,5	1,016600
4,883667	0,5	0,992600
4,892000	0,5	0,967600
4,900333	0,5	0,948850
4,908667	0,5	0,935850
4,917000	0,5	0,914500
4,925333	0,5	0,903250
4,933667	0,5	0,895200
4,942000	0,5	0,883750
4,950333	0,5	0,870150
4,958667	0,5	0,885200
4,967000	0,5	0,860100
4,975333	0,5	0,847750
4,983667	0,5	0,846200
4,992000	0,5	0,853100
5,000333	0,5	0,868350
5,008667	0,5	0,873200
5,017000	0,5	0,858650
5,025333	0,5	0,855750
5,033667	0,5	0,849950
5,042000	0,5	0,838550
5,050333	0,5	0,832650
5,058667	0,5	0,825300
5,067000	0,5	0,805500
5,075333	0,5	0,790500
5,083667	0,5	0,780800
5,092000	0,5	0,754300
5,100333	0,5	0,744950
5,108667	0,5	0,738850
5,117000	0,5	0,712400
5,125333	0,5	0,692700
5,133667	0,5	0,692850
5,142000	0,5	0,692650
5,150333	0,5	0,696950
5,158667	0,5	0,672900
5,167000	0,5	0,664650
5,175333	0,5	0,652500
5,183667	0,5	0,649350
5,192000	0,5	0,636800
5,200333	0,5	0,637850
5,208667	0,5	0,634550
5,217000	0,5	0,638000
5,225333	0,5	0,648600
5,233667	0,5	0,654900
5,242000	0,5	0,658600
5,250333	0,5	0,677050
5,258667	0,5	0,674750
5,267000	0,5	0,656050
5,275333	0,5	0,644900
5,283667	0,5	0,639000
5,292000	0,5	0,656000
5,300333	0,5	0,648400
5,308667	0,5	0,631450
5,317000	0,5	0,608200
5,325333	0,5	0,604250
5,333667	0,5	0,589700
5,342000	0,5	0,591350
5,350333	0,5	0,580650
5,358667	0,5	0,571700
5,367000	0,5	0,559700
5,375333	0,5	0,560800
5,383667	0,5	0,568250
5,392000	0,5	0,556050
5,400333	0,5	0,575250
5,408667	0,5	0,565850
5,417000	0,5	0,562600
5,425333	0,5	0,572450
5,433667	0,5	0,585250
5,442000	0,5	0,632700
5,450333	0,5	0,636500
5,458667	0,5	0,636850
5,467000	0,5	0,658850
5,475333	0,5	0,671350
5,483667	0,5	0,682550
5,492000	0,5	0,693400
5,500333	0,5	0,715750
5,508667	0,5	0,717000
5,517000	0,5	0,735950
5,525333	0,5	0,748350
5,533667	0,5	0,768150
5,542000	0,5	0,778300
5,550333	0,5	0,826150
5,558667	0,5	0,822900
5,567000	0,5	0,851350
5,575333	0,5	0,885700
5,583667	0,5	0,927900
5,592000	0,5	0,986600
5,600333	0,5	1,006300
5,608667	0,5	1,029000
5,617000	0,5	1,065200
5,625333	0,5	1,082600
5,633667	0,5	1,098950
5,642000	0,5	1,114300
5,650333	0,5	1,117950
5,658667	0,5	1,119600
5,667000	0,5	1,110200
5,675333	0,5	1,097450
5,683667	0,5	1,066350
5,692000	0,5	1,048950
5,700333	0,5	1,023400
5,708667	0,5	0,988800
5,717000	0,5	0,963900
5,725333	0,5	0,943300
5,733667	0,5	0,941600
5,742000	0,5	0,948850
5,750333	0,5	0,942600
5,758667	0,5	0,929050
5,767000	0,5	0,922100
5,775333	0,5	0,921250
5,783667	0,5	0,919700
5,792000	0,5	0,918850
5,800333	0,5	0,914450
5,808667	0,5	0,911100
5,817000	0,5	0,913550
5,825333	0,5	0,906400
5,833667	0,5	0,904850
5,842000	0,5	0,906950
5,850333	0,5	0,904550
5,858667	0,5	0,896500
5,867000	0,5	0,896900
5,875333	0,5	0,903250
5,883667	0,5	0,923700
5,892000	0,5	0,937850
5,900333	0,5	0,945400
5,908667	0,5	0,945650
5,917000	0,5	0,956550
5,925333	0,5	0,953800
5,933667	0,5	0,961950
5,942000	0,5	0,964300
5,950333	0,5	0,965950
5,958667	0,5	0,981150
5,967000	0,5	0,983700
5,975333	0,5	0,993850
5,983667	0,5	1,001550
5,992000	0,5	1,015800
6,000333	0,5	1,009700
6,008667	0,5	1,008850
6,017000	0,5	1,021250
6,025333	0,5	1,042300
6,033667	0,5	1,059250
6,042000	0,5	1,068800
6,050333	0,5	1,066450
6,058667	0,5	1,085300
6,067000	0,5	1,083400
6,075333	0,5	1,095600
6,083667	0,5	1,100450
6,092000	0,5	1,115450
6,100333	0,5	1,115650
6,108667	0,5	1,129300
6,117000	0,5	1,141450
6,125333	0,5	1,132400
6,133667	0,5	1,150300
6,142000	0,5	1,160250
6,150333	0,5	1,160500
6,158667	0,5	1,166400
6,167000	0,5	1,176100
6,175333	0,5	1,193100
6,183667	0,5	1,212550
6,192000	0,5	1,216200
6,200333	0,5	1,229950
6,208667	0,5	1,233200
6,217000	0,5	1,243800
6,225333	0,5	1,247150
6,233667	0,5	1,260850
6,242000	0,5	1,265600
6,250333	0,5	1,276800
6,258667	0,5	1,286200
6,267000	0,5	1,295450
6,275333	0,5	1,298600
6,283667	0,5	1,331000
6,292000	0,5	1,340900
6,300333	0,5	1,358000
6,308667	0,5	1,376250
6,317000	0,5	1,402850
6,325333	0,5	1,461850
6,333667	0,5	1,485600
6,342000	0,5	1,515650
6,350333	0,5	1,540750
6,358667	0,5	1,563400
6,367000	0,5	1,580800
6,375333	0,5	1,600350
6,383667	0,5	1,608500
6,392000	0,5	1,613550
6,400333	0,5	1,616600
6,408667	0,5	1,617100
6,417000	0,5	1,613500
6,425333	0,5	1,611300
6,433667	0,5	1,627000
6,442000	0,5	1,622250
6,450333	0,5	1,623200
6,458667	0,5	1,626500
6,467000	0,5	1,647100
6,475333	0,5	1,675700
6,483667	0,5	1,677850
6,492000	0,5	1,681550
6,500333	0,5	1,698800
6,508667	0,5	1,716950
6,517000	0,5	1,742850
6,525333	0,5	1,782150
6,533667	0,5	1,826200
6,542000	0,5	1,864750
6,550333	0,5	1,914600
6,558667	0,5	1,958700
6,567000	0,5	1,997200
6,575333	0,5	2,023300
6,583667	0,5	2,049400
6,592000	0,5	2,037800
6,600333	0,5	2,017150
6,608667	0,5	1,992350
6,617000	0,5	1,966050
6,625333	0,5	1,954750
6,633667	0,5	1,915450
6,642000	0,5	1,879250
6,650333	0,5	1,861350
6,658667	0,5	1,845000
6,667000	0,5	1,828400
6,675333	0,5	1,829550
6,683667	0,5	1,824800
6,692000	0,5	1,824500
6,700333	0,5	1,826000
6,708667	0,5	1,835200
6,717000	0,5	1,827650
6,725333	0,5	1,839300
6,733667	0,5	1,850100
6,742000	0,5	1,864000
6,750333	0,5	1,876550
6,758667	0,5	1,907950
6,767000	0,5	1,942550
6,775333	0,5	1,981000
6,783667	0,5	1,991950
6,792000	0,5	2,005700
6,800333	0,5	2,011450
6,808667	0,5	2,009050
6,817000	0,5	2,001550
6,825333	0,5	1,992050
6,833667	0,5	1,973150
6,842000	0,5	1,954300
6,850333	0,5	1,942150
6,858667	0,5	1,922400
6,867000	0,5	1,908500
6,875333	0,5	1,913750
6,883667	0,5	1,901050
6,892000	0,5	1,900150
6,900333	0,5	1,898050
6,908667	0,5	1,905150
6,917000	0,5	1,928100
6,925333	0,5	1,937650
6,933667	0,5	1,948200
6,942000	0,5	1,952450
6,950333	0,5	1,973500
6,958667	0,5	1,986850
6,967000	0,5	2,005450
6,975333	0,5	2,028300
6,983667	0,5	2,065300
6,992000	0,5	2,102250
7,000333	0,5	2,143050
7,008667	0,5	2,184950
7,017000	0,5	2,222850
7,025333	0,5	2,255150
7,033667	0,5	2,263750
7,042000	0,5	2,254600
7,050333	0,5	2,242950
7,058667	0,5	2,235950
7,067000	0,5	2,223350
7,075333	0,5	2,202700
7,083667	0,5	2,185600
7,092000	0,5	2,181050
7,100333	0,5	2,185150
7,108667	0,5	2,221800
7,117000	0,5	2,285300
7,125333	0,5	2,398600
7,133667	0,5	2,551850
7,142000	0,5	2,750100
7,150333	0,5	2,970500
7,158667	0,5	3,182100
7,167000	0,5	3,344350
7,175333	0,5	3,406950
7,183667	0,5	3,370600
7,192000	0,5	3,267250
7,200333	0,5	3,114100
7,208667	0,5	2,957300
7,217000	0,5	2,813150
7,225333	0,5	2,682750
7,233667	0,5	2,584950
7,242000	0,5	2,504850
7,250333	0,5	2,439450
7,258667	0,5	2,374450
7,267000	0,5	2,320250
7,275333	0,5	2,266000
7,283667	0,5	2,225750
7,292000	0,5	2,198900
7,300333	0,5	2,187100
7,308667	0,5	2,183750
7,317000	0,5	2,212850
7,325333	0,5	2,257300
7,333667	0,5	2,335850
7,342000	0,5	2,460450
7,350333	0,5	2,633950
7,358667	0,5	2,835300
7,367000	0,5	3,013500
7,375333	0,5	3,125400
7,383667	0,5	3,144650
7,392000	0,5	3,081650
7,400333	0,5	2,936700
7,408667	0,5	2,760700
7,417000	0,5	2,594250
7,425333	0,5	2,461100
7,433667	0,5	2,358550
7,442000	0,5	2,300150
7,450333	0,5	2,252900
7,458667	0,5	2,235200
7,467000	0,5	2,237600
7,475333	0,5	2,256900
7,483667	0,5	2,305350
7,492000	0,5	2,406100
7,500333	0,5	2,553450
7,508667	0,5	2,746400
7,517000	0,5	2,934750
7,525333	0,5	3,107050
7,533667	0,5	3,227450
7,542000	0,5	3,307650
7,550333	0,5	3,344500
7,558667	0,5	3,370550
7,567000	0,5	3,376450
7,575333	0,5	3,381250
7,583667	0,5	3,377800
7,592000	0,5	3,393350
7,600333	0,5	3,447550
7,608667	0,5	3,564100
7,617000	0,5	3,776800
7,625333	0,5	4,024800
7,633667	0,5	4,244200
7,642000	0,5	4,325650
7,650333	0,5	4,262850
7,658667	0,5	4,115250
7,667000	0,5	3,963700
7,675333	0,5	3,882050
7,683667	0,5	3,880650
7,692000	0,5	3,881150
7,700333	0,5	3,853750
7,708667	0,5	3,749200
7,717000	0,5	3,592350
7,725333	0,5	3,414000
7,733667	0,5	3,287700
7,742000	0,5	3,256700
7,750333	0,5	3,334100
7,758667	0,5	3,480650
7,767000	0,5	3,621000
7,775333	0,5	3,692700
7,783667	0,5	3,687800
7,792000	0,5	3,631550
7,800333	0,5	3,552250
7,808667	0,5	3,459200
7,817000	0,5	3,349900
7,825333	0,5	3,258650
7,833667	0,5	3,202650
7,842000	0,5	3,208050
7,850333	0,5	3,278750
7,858667	0,5	3,413350
7,867000	0,5	3,571400
7,875333	0,5	3,690700
7,883667	0,5	3,698700
7,892000	0,5	3,577000
7,900333	0,5	3,364000
7,908667	0,5	3,131700
7,917000	0,5	2,908250
7,925333	0,5	2,726600
7,933667	0,5	2,593050
7,942000	0,5	2,494800
7,950333	0,5	2,428550
7,958667	0,5	2,370100
7,967000	0,5	2,329850
7,975333	0,5	2,304850
7,983667	0,5	2,298150
7,992000	0,5	2,299200
8,000333	0,5	2,328900
8,008667	0,5	2,349450
8,017000	0,5	2,351350
8,025333	0,5	2,333250
8,033667	0,5	2,306400
8,042000	0,5	2,270150
8,050333	0,5	2,238450
8,058667	0,5	2,225700
8,067000	0,5	2,214550
8,075333	0,5	2,227750
8,083667	0,5	2,255700
8,092000	0,5	2,286850
8,100333	0,5	2,312050
8,108667	0,5	2,315750
8,117000	0,5	2,295500
8,125333	0,5	2,255700
8,133667	0,5	2,210150
8,142000	0,5	2,167700
8,150333	0,5	2,139100
8,158667	0,5	2,123200
8,167000	0,5	2,128700
8,175333	0,5	2,152100
8,183667	0,5	2,185450
8,192000	0,5	2,220700
8,200333	0,5	2,250900
8,208667	0,5	2,271650
8,217000	0,5	2,274000
8,225333	0,5	2,278950
8,233667	0,5	2,287400
8,242000	0,5	2,306800
8,250333	0,5	2,339000
8,258667	0,5	2,369750
8,267000	0,5	2,399600
8,275333	0,5	2,427400
8,283667	0,5	2,449500
8,292000	0,5	2,460000
8,300333	0,5	2,488600
8,308667	0,5	2,545700
8,317000	0,5	2,656800
8,325333	0,5	2,866750
8,333667	0,5	3,191150
8,342000	0,5	3,647700
8,350333	0,5	4,212450
8,358667	0,5	4,759350
8,367000	0,5	5,161750
8,375333	0,5	5,280850
8,383667	0,5	5,082850
8,392000	0,5	4,632250
8,400333	0,5	4,073150
8,408667	0,5	3,553200
8,417000	0,5	3,149500
8,425333	0,5	2,855700
8,433667	0,5	2,647750
8,442000	0,5	2,486750
8,450333	0,5	2,368650
8,458667	0,5	2,272300
8,467000	0,5	2,194800
8,475333	0,5	2,138400
8,483667	0,5	2,087450
8,492000	0,5	2,042900
8,500333	0,5	2,002150
8,508667	0,5	1,949650
8,517000	0,5	1,908950
8,525333	0,5	1,878100
8,533667	0,5	1,863100
8,542000	0,5	1,849000
8,550333	0,5	1,836800
8,558667	0,5	1,826650
8,567000	0,5	1,820400
8,575333	0,5	1,833500
8,583667	0,5	1,837450
8,592000	0,5	1,848200
8,600333	0,5	1,859800
8,608667	0,5	1,863800
8,617000	0,5	1,857850
8,625333	0,5	1,848600
8,633667	0,5	1,832100
8,642000	0,5	1,815850
8,650333	0,5	1,803350
8,658667	0,5	1,785450
8,667000	0,5	1,767600
8,675333	0,5	1,754850
8,683667	0,5	1,747850
8,692000	0,5	1,743100
8,700333	0,5	1,742550
8,708667	0,5	1,743000
8,717000	0,5	1,747300
8,725333	0,5	1,763100
8,733667	0,5	1,779700
8,742000	0,5	1,803250
8,750333	0,5	1,827150
8,758667	0,5	1,862900
8,767000	0,5	1,911950
8,775333	0,5	1,973900
8,783667	0,5	2,044200
8,792000	0,5	2,120750
8,800333	0,5	2,192800
8,808667	0,5	2,250500
8,817000	0,5	2,285000
8,825333	0,5	2,306400
8,833667	0,5	2,310250
8,842000	0,5	2,290850
8,850333	0,5	2,263450
8,858667	0,5	2,232650
8,867000	0,5	2,220800
8,875333	0,5	2,233600
8,883667	0,5	2,268750
8,892000	0,5	2,322100
8,900333	0,5	2,368500
8,908667	0,5	2,409200
8,917000	0,5	2,438750
8,925333	0,5	2,451250
8,933667	0,5	2,456600
8,942000	0,5	2,449000
8,950333	0,5	2,416650
8,958667	0,5	2,370950
8,967000	0,5	2,331450
8,975333	0,5	2,304600
8,983667	0,5	2,318450
8,992000	0,5	2,353550
9,000333	0,5	2,423300
9,008667	0,5	2,517750
9,017000	0,5	2,619450
9,025333	0,5	2,717150
9,033667	0,5	2,777650
9,042000	0,5	2,786250
9,050333	0,5	2,723250
9,058667	0,5	2,613150
9,067000	0,5	2,478800
9,075333	0,5	2,331150
9,083667	0,5	2,204800
9,092000	0,5	2,118800
9,100333	0,5	2,074950
9,108667	0,5	2,090450
9,117000	0,5	2,149150
9,125333	0,5	2,234200
9,133667	0,5	2,311500
9,142000	0,5	2,354150
9,150333	0,5	2,349000
9,158667	0,5	2,295900
9,167000	0,5	2,224300
9,175333	0,5	2,144700
9,183667	0,5	2,072700
9,192000	0,5	2,001050
9,200333	0,5	1,945550
9,208667	0,5	1,899350
9,217000	0,5	1,860350
9,225333	0,5	1,828400
9,233667	0,5	1,810300
9,242000	0,5	1,792900
9,250333	0,5	1,782150
9,258667	0,5	1,779250
9,267000	0,5	1,780300
9,275333	0,5	1,793000
9,283667	0,5	1,808000
9,292000	0,5	1,823500
9,300333	0,5	1,831550
9,308667	0,5	1,832850
9,317000	0,5	1,837700
9,325333	0,5	1,831700
9,333667	0,5	1,826700
9,342000	0,5	1,826100
9,350333	0,5	1,816300
9,358667	0,5	1,808750
9,367000	0,5	1,789250
9,375333	0,5	1,768700
9,383667	0,5	1,744000
9,392000	0,5	1,716600
9,400333	0,5	1,686900
9,408667	0,5	1,665500
9,417000	0,5	1,649750
9,425333	0,5	1,637900
9,433667	0,5	1,630600
9,442000	0,5	1,624750
9,450333	0,5	1,613950
9,458667	0,5	1,600650
9,467000	0,5	1,592350
9,475333	0,5	1,580750
9,483667	0,5	1,574650
9,492000	0,5	1,562200
9,500333	0,5	1,551200
9,508667	0,5	1,546200
9,517000	0,5	1,537750
9,525333	0,5	1,526600
9,533667	0,5	1,521550
9,542000	0,5	1,509300
9,550333	0,5	1,502950
9,558667	0,5	1,492200
9,567000	0,5	1,480300
9,575333	0,5	1,481550
9,583667	0,5	1,473700
9,592000	0,5	1,474500
9,600333	0,5	1,472000
9,608667	0,5	1,464000
9,617000	0,5	1,461800
9,625333	0,5	1,453500
9,633667	0,5	1,440200
9,642000	0,5	1,429000
9,650333	0,5	1,419300
9,658667	0,5	1,408150
9,667000	0,5	1,398600
9,675333	0,5	1,390800
9,683667	0,5	1,387800
9,692000	0,5	1,386900
9,700333	0,5	1,390700
9,708667	0,5	1,391500
9,717000	0,5	1,401250
9,725333	0,5	1,414150
9,733667	0,5	1,423550
9,742000	0,5	1,440100
9,750333	0,5	1,454800
9,758667	0,5	1,464350
9,767000	0,5	1,472200
9,775333	0,5	1,481400
9,783667	0,5	1,493200
9,792000	0,5	1,518050
9,800333	0,5	1,559800
9,808667	0,5	1,612950
9,817000	0,5	1,688600
9,825333	0,5	1,781600
9,833667	0,5	1,887850
9,842000	0,5	1,996900
9,850333	0,5	2,109900
9,858667	0,5	2,195900
9,867000	0,5	2,258200
9,875333	0,5	2,279700
9,883667	0,5	2,249150
9,892000	0,5	2,166900
9,900333	0,5	2,059000
9,908667	0,5	1,937500
9,917000	0,5	1,815950
9,925333	0,5	1,708900
9,933667	0,5	1,621400
9,942000	0,5	1,554500
9,950333	0,5	1,505050
9,958667	0,5	1,466850
9,967000	0,5	1,438000
9,975333	0,5	1,428800
9,983667	0,5	1,418300
9,992000	0,5	1,412350
10,000333	0,5	1,409950
10,008667	0,5	1,405150
10,017000	0,5	1,408750
10,025333	0,5	1,411100
10,033667	0,5	1,411500
10,042000	0,5	1,419250
10,050333	0,5	1,424600
10,058667	0,5	1,441650
10,067000	0,5	1,455850
10,075333	0,5	1,479800
10,083667	0,5	1,488700
10,092000	0,5	1,493000
10,100333	0,5	1,492000
10,108667	0,5	1,486750
10,117000	0,5	1,467200
10,125333	0,5	1,451150
10,133667	0,5	1,429550
10,142000	0,5	1,403400
10,150333	0,5	1,380400
10,158667	0,5	1,358250
10,167000	0,5	1,345000
10,175333	0,5	1,336800
10,183667	0,5	1,328600
10,192000	0,5	1,325200
10,200333	0,5	1,326950
10,208667	0,5	1,334500
10,217000	0,5	1,340100
10,225333	0,5	1,351050
10,233667	0,5	1,354450
10,242000	0,5	1,353500
10,250333	0,5	1,352300
10,258667	0,5	1,341400
10,267000	0,5	1,336400
10,275333	0,5	1,333700
10,283667	0,5	1,329100
10,292000	0,5	1,332850
10,300333	0,5	1,341050
10,308667	0,5	1,351950
10,317000	0,5	1,375050
10,325333	0,5	1,397500
10,333667	0,5	1,424600
10,342000	0,5	1,455600
10,350333	0,5	1,490700
10,358667	0,5	1,529450
10,367000	0,5	1,576200
10,375333	0,5	1,623800
10,383667	0,5	1,661400
10,392000	0,5	1,686850
10,400333	0,5	1,697050
10,408667	0,5	1,680900
10,417000	0,5	1,660300
10,425333	0,5	1,627200
10,433667	0,5	1,585600
10,442000	0,5	1,543300
10,450333	0,5	1,498450
10,458667	0,5	1,459050
10,467000	0,5	1,430200
10,475333	0,5	1,401850
10,483667	0,5	1,379200
10,492000	0,5	1,364100
10,500333	0,5	1,349150
10,508667	0,5	1,332900
10,517000	0,5	1,324250
10,525333	0,5	1,310750
10,533667	0,5	1,303300
10,542000	0,5	1,300800
10,550333	0,5	1,296650
10,558667	0,5	1,280800
10,567000	0,5	1,290000
10,575333	0,5	1,280250
10,583667	0,5	1,278500
10,592000	0,5	1,271000
10,600333	0,5	1,265200
10,608667	0,5	1,266900
10,617000	0,5	1,274400
10,625333	0,5	1,277500
10,633667	0,5	1,292000
10,642000	0,5	1,305700
10,650333	0,5	1,331800
10,658667	0,5	1,356000
10,667000	0,5	1,379650
10,675333	0,5	1,399400
10,683667	0,5	1,400450
10,692000	0,5	1,384550
10,700333	0,5	1,348300
10,708667	0,5	1,300800
10,717000	0,5	1,256700
10,725333	0,5	1,201650
10,733667	0,5	1,158350
10,742000	0,5	1,126050
10,750333	0,5	1,108100
10,758667	0,5	1,109950
10,767000	0,5	1,115200
10,775333	0,5	1,134250
10,783667	0,5	1,159600
10,792000	0,5	1,182550
10,800333	0,5	1,204800
10,808667	0,5	1,229000
10,817000	0,5	1,246500
10,825333	0,5	1,261200
10,833667	0,5	1,277450
10,842000	0,5	1,283650
10,850333	0,5	1,286400
10,858667	0,5	1,281300
10,867000	0,5	1,276600
10,875333	0,5	1,269950
10,883667	0,5	1,259100
10,892000	0,5	1,249200
10,900333	0,5	1,239850
10,908667	0,5	1,235150
10,917000	0,5	1,233250
10,925333	0,5	1,227300
10,933667	0,5	1,227050
10,942000	0,5	1,215550
10,950333	0,5	1,215900
10,958667	0,5	1,206900
10,967000	0,5	1,206900
10,975333	0,5	1,202800
10,983667	0,5	1,200200
10,992000	0,5	1,203000
11,000333	0,5	1,200800
11,008667	0,5	1,204350
11,017000	0,5	1,203050
11,025333	0,5	1,205900
11,033667	0,5	1,199500
11,042000	0,5	1,199650
11,050333	0,5	1,200750
11,058667	0,5	1,202950
11,067000	0,5	1,199250
11,075333	0,5	1,205150
11,083667	0,5	1,198400
11,092000	0,5	1,195950
11,100333	0,5	1,190700
11,108667	0,5	1,189000
11,117000	0,5	1,181500
11,125333	0,5	1,184750
11,133667	0,5	1,179100
11,142000	0,5	1,182600
11,150333	0,5	1,186400
11,158667	0,5	1,195900
11,167000	0,5	1,195850
11,175333	0,5	1,205000
11,183667	0,5	1,209000
11,192000	0,5	1,220700
11,200333	0,5	1,244300
11,208667	0,5	1,285950
11,217000	0,5	1,332900
11,225333	0,5	1,396550
11,233667	0,5	1,473350
11,242000	0,5	1,547900
11,250333	0,5	1,624900
11,258667	0,5	1,659650
11,267000	0,5	1,683500
11,275333	0,5	1,675150
11,283667	0,5	1,643050
11,292000	0,5	1,598200
11,300333	0,5	1,556050
11,308667	0,5	1,514300
11,317000	0,5	1,479500
11,325333	0,5	1,443600
11,333667	0,5	1,406850
11,342000	0,5	1,372500
11,350333	0,5	1,355650
11,358667	0,5	1,336550
11,367000	0,5	1,313800
11,375333	0,5	1,295300
11,383667	0,5	1,278300
11,392000	0,5	1,272000
11,400333	0,5	1,268100
11,408667	0,5	1,274200
11,417000	0,5	1,273250
11,425333	0,5	1,286850
11,433667	0,5	1,309350
11,442000	0,5	1,346800
11,450333	0,5	1,404050
11,458667	0,5	1,477600
11,467000	0,5	1,549700
11,475333	0,5	1,550500
11,483667	0,5	1,695800
11,492000	0,5	1,757550
11,500333	0,5	1,801550
11,508667	0,5	1,822650
11,517000	0,5	1,834000
11,525333	0,5	1,830850
11,533667	0,5	1,813000
11,542000	0,5	1,778750
11,550333	0,5	1,739800
11,558667	0,5	1,690300
11,567000	0,5	1,643500
11,575333	0,5	1,603100
11,583667	0,5	1,571000
11,592000	0,5	1,559250
11,600333	0,5	1,582100
11,608667	0,5	1,606800
11,617000	0,5	1,644000
11,625333	0,5	1,676300
11,633667	0,5	1,709150
11,642000	0,5	1,726800
11,650333	0,5	1,723500
11,658667	0,5	1,689550
11,667000	0,5	1,645000
11,675333	0,5	1,582200
11,683667	0,5	1,517900
11,692000	0,5	1,448850
11,700333	0,5	1,385450
11,708667	0,5	1,335650
11,717000	0,5	1,284500
11,725333	0,5	1,253550
11,733667	0,5	1,219500
11,742000	0,5	1,193400
11,750333	0,5	1,182050
11,758667	0,5	1,168950
11,767000	0,5	1,155400
11,775333	0,5	1,143250
11,783667	0,5	1,138550
11,792000	0,5	1,134550
11,800333	0,5	1,128450
11,808667	0,5	1,133000
11,817000	0,5	1,133350
11,825333	0,5	1,134850
11,833667	0,5	1,136500
11,842000	0,5	1,141900
11,850333	0,5	1,147400
11,858667	0,5	1,152300
11,867000	0,5	1,162050
11,875333	0,5	1,178650
11,883667	0,5	1,186400
11,892000	0,5	1,203450
11,900333	0,5	1,217550
11,908667	0,5	1,232000
11,917000	0,5	1,244100
11,925333	0,5	1,250250
11,933667	0,5	1,278250
11,942000	0,5	1,314200
11,950333	0,5	1,358900
11,958667	0,5	1,411000
11,967000	0,5	1,471600
11,975333	0,5	1,533400
11,983667	0,5	1,589300
11,992000	0,5	1,626350
12,000333	0,5	1,645950
12,008667	0,5	1,644850
12,017000	0,5	1,623350
12,025333	0,5	1,586250
12,033667	0,5	1,540250
12,042000	0,5	1,503700
12,050333	0,5	1,466950
12,058667	0,5	1,436250
12,067000	0,5	1,410100
12,075333	0,5	1,384150
12,083667	0,5	1,374950
12,092000	0,5	1,378500
12,100333	0,5	1,377800
12,108667	0,5	1,389250
12,117000	0,5	1,397500
12,125333	0,5	1,413400
12,133667	0,5	1,423250
12,142000	0,5	1,434650
12,150333	0,5	1,440500
12,158667	0,5	1,460550
12,167000	0,5	1,489450
12,175333	0,5	1,528150
12,183667	0,5	1,581100
12,192000	0,5	1,660950
12,200333	0,5	1,730500
12,208667	0,5	1,803750
12,217000	0,5	1,859500
12,225333	0,5	1,899050
12,233667	0,5	1,939000
12,242000	0,5	1,960300
12,250333	0,5	1,985200
12,258667	0,5	2,005850
12,267000	0,5	2,035950
12,275333	0,5	2,055200
12,283667	0,5	2,073600
12,292000	0,5	2,079750
12,300333	0,5	2,074300
12,308667	0,5	2,070100
12,317000	0,5	2,068450
12,325333	0,5	2,049650
12,333667	0,5	2,044050
12,342000	0,5	2,025400
12,350333	0,5	1,993450
12,358667	0,5	1,948250
12,367000	0,5	1,897450
12,375333	0,5	1,853550
12,383667	0,5	1,810850
12,392000	0,5	1,807550
12,400333	0,5	1,806950
12,408667	0,5	1,831850
12,417000	0,5	1,859800
12,425333	0,5	1,891600
12,433667	0,5	1,913250
12,442000	0,5	1,925700
12,450333	0,5	1,919900
12,458667	0,5	1,913900
12,467000	0,5	1,885900
12,475333	0,5	1,855450
12,483667	0,5	1,825200
12,492000	0,5	1,788500
12,500333	0,5	1,732600
12,508667	0,5	1,673450
12,517000	0,5	1,607450
12,525333	0,5	1,535850
12,533667	0,5	1,470850
12,542000	0,5	1,406300
12,550333	0,5	1,347350
12,558667	0,5	1,307600
12,567000	0,5	1,269300
12,575333	0,5	1,245350
12,583667	0,5	1,222350
12,592000	0,5	1,203100
12,600333	0,5	1,185800
12,608667	0,5	1,174400
12,617000	0,5	1,161050
12,625333	0,5	1,144900
12,633667	0,5	1,140600
12,642000	0,5	1,134550
12,650333	0,5	1,130150
12,658667	0,5	1,120550
12,667000	0,5	1,117600
12,675333	0,5	1,123600
12,683667	0,5	1,126150
12,692000	0,5	1,123400
12,700333	0,5	1,125150
12,708667	0,5	1,119550
12,717000	0,5	1,121950
12,725333	0,5	1,125200
12,733667	0,5	1,118150
12,742000	0,5	1,115050
12,750333	0,5	1,107300
12,758667	0,5	1,107600
12,767000	0,5	1,087400
12,775333	0,5	1,094250
12,783667	0,5	1,105900
12,792000	0,5	1,129300
12,800333	0,5	1,165700
12,808667	0,5	1,210200
12,817000	0,5	1,261550
12,825333	0,5	1,305450
12,833667	0,5	1,310150
12,842000	0,5	1,299900
12,850333	0,5	1,268200
12,858667	0,5	1,201100
12,867000	0,5	1,114550
12,875333	0,5	1,030000
12,883667	0,5	0,953550
12,892000	0,5	0,874450
12,900333	0,5	0,801100
12,908667	0,5	0,738150
12,917000	0,5	0,669050
12,925333	0,5	0,628300
12,933667	0,5	0,546250
12,942000	0,5	0,461950
12,950333	0,5	0,319550
12,958667	0,5	0,044800
12,967000	0,5	-0,373550
12,975333	0,5	-0,738300
12,983667	0,5	-1,015850
12,992000	0,5	-1,292500
13,000333	0,5	-1,520750
13,008667	0,5	-1,674400
13,017000	0,5	-1,786450
13,025333	0,5	-1,878850
13,033667	0,5	-1,952850
13,042000	0,5	-2,019400
13,050333	0,5	-2,074050
13,058667	0,5	-2,122350
13,067000	0,5	-2,164150
13,075333	0,5	-2,181600
13,083667	0,5	-2,197550
13,092000	0,5	-2,198750
13,100333	0,5	-2,205800
13,108667	0,5	-2,199750
13,117000	0,5	-2,180250
13,125333	0,5	-2,161750
13,133667	0,5	-2,149450
13,142000	0,5	-2,140750
13,150333	0,5	-2,150650
13,158667	0,5	-2,156450
13,167000	0,5	-2,176150
13,175333	0,5	-2,204350
13,183667	0,5	-2,234000
13,192000	0,5	-2,271300
13,200333	0,5	-2,306250
13,208667	0,5	-2,346000
13,217000	0,5	-2,375000
13,225333	0,5	-2,389500
13,233667	0,5	-2,412400
13,242000	0,5	-2,426950
13,250333	0,5	-2,440200
13,258667	0,5	-2,444100
13,267000	0,5	-2,437800
13,275333	0,5	-2,434050
13,283667	0,5	-2,425700
13,292000	0,5	-2,419700
13,300333	0,5	-2,407750
13,308667	0,5	-2,398400
13,317000	0,5	-2,386000
13,325333	0,5	-2,372850
13,333667	0,5	-2,344800
13,342000	0,5	-2,313700
13,350333	0,5	-2,278150
13,358667	0,5	-2,251050
13,367000	0,5	-2,213350
13,375333	0,5	-2,188900
13,383667	0,5	-2,172400
13,392000	0,5	-2,160150
13,400333	0,5	-2,157700
13,408667	0,5	-2,134550
13,417000	0,5	-2,125200
13,425333	0,5	-2,111100
13,433667	0,5	-2,099850
13,442000	0,5	-2,094150
13,450333	0,5	-2,085850
13,458667	0,5	-2,089450
13,467000	0,5	-2,091400
13,475333	0,5	-2,098300
13,483667	0,5	-2,107750
13,492000	0,5	-2,116150
13,500333	0,5	-2,138100
13,508667	0,5	-2,154250
13,517000	0,5	-2,162550
13,525333	0,5	-2,169600
13,533667	0,5	-2,180250
13,542000	0,5	-2,190500
13,550333	0,5	-2,194350
13,558667	0,5	-2,190450
13,567000	0,5	-2,185400
13,575333	0,5	-2,171950
13,583667	0,5	-2,158300
13,592000	0,5	-2,151650
13,600333	0,5	-2,138500
13,608667	0,5	-2,129850
13,617000	0,5	-2,113200
13,625333	0,5	-2,110750
13,633667	0,5	-2,093850
13,642000	0,5	-2,072150
13,650333	0,5	-2,064100
13,658667	0,5	-2,035400
13,667000	0,5	-2,013500
13,675333	0,5	-1,996300
13,683667	0,5	-1,973900
13,692000	0,5	-1,965200
13,700333	0,5	-1,932450
13,708667	0,5	-1,904250
13,717000	0,5	-1,873950
13,725333	0,5	-1,849950
13,733667	0,5	-1,818900
13,742000	0,5	-1,788100
13,750333	0,5	-1,759450
13,758667	0,5	-1,719950
13,767000	0,5	-1,684050
13,775333	0,5	-1,647800
13,783667	0,5	-1,614050
13,792000	0,5	-1,567650
13,800333	0,5	-1,546250
13,808667	0,5	-1,502800
13,817000	0,5	-1,471900
13,825333	0,5	-1,446000
13,833667	0,5	-1,430800
13,842000	0,5	-1,421250
13,850333	0,5	-1,395250
13,858667	0,5	-1,379050
13,867000	0,5	-1,368250
13,875333	0,5	-1,357700
13,883667	0,5	-1,343300
13,892000	0,5	-1,319300
13,900333	0,5	-1,303500
13,908667	0,5	-1,282850
13,917000	0,5	-1,261250
13,925333	0,5	-1,238450
13,933667	0,5	-1,211250
13,942000	0,5	-1,181500
13,950333	0,5	-1,153100
13,958667	0,5	-1,113050
13,967000	0,5	-1,071900
13,975333	0,5	-1,033700
13,983667	0,5	-0,982500
13,992000	0,5	-0,921650
14,000333	0,5	-0,828600
14,008667	0,5	-0,745650
14,017000	0,5	-0,653800
14,025333	0,5	-0,570700
14,033667	0,5	-0,496200
14,042000	0,5	-0,431300
14,050333	0,5	-0,375450
14,058667	0,5	-0,333550
14,067000	0,5	-0,306850
14,075333	0,5	-0,285650
14,083667	0,5	-0,277850
14,092000	0,5	-0,287950
14,100333	0,5	-0,276200
14,108667	0,5	-0,262200
14,117000	0,5	-0,228900
14,125333	0,5	-0,178850
14,133667	0,5	-0,122200
14,142000	0,5	-0,030450
14,150333	0,5	0,071050
14,158667	0,5	0,169850
14,167000	0,5	0,240700
14,175333	0,5	0,297550
14,183667	0,5	0,320500
14,192000	0,5	0,330100
14,200333	0,5	0,307400
14,208667	0,5	0,288000
14,217000	0,5	0,272200
14,225333	0,5	0,257750
14,233667	0,5	0,249400
14,242000	0,5	0,238900
14,250333	0,5	0,246250
14,258667	0,5	0,254950
14,267000	0,5	0,259500
14,275333	0,5	0,255100
14,283667	0,5	0,251600
14,292000	0,5	0,255100
14,300333	0,5	0,269000
14,308667	0,5	0,279600
14,317000	0,5	0,289500
14,325333	0,5	0,294050
14,333667	0,5	0,305600
14,342000	0,5	0,304600
14,350333	0,5	0,312450
14,358667	0,5	0,313250
14,367000	0,5	0,323850
14,375333	0,5	0,335700
14,383667	0,5	0,351250
14,392000	0,5	0,361100
14,400333	0,5	0,393850
14,408667	0,5	0,411700
14,417000	0,5	0,430800
14,425333	0,5	0,423900
14,433667	0,5	0,413900
14,442000	0,5	0,410350
14,450333	0,5	0,395650
14,458667	0,5	0,389500
14,467000	0,5	0,369950
14,475333	0,5	0,356800
14,483667	0,5	0,341350
14,492000	0,5	0,326550
14,500333	0,5	0,316100
14,508667	0,5	0,309800
14,517000	0,5	0,299100
14,525333	0,5	0,303750
14,533667	0,5	0,289300
14,542000	0,5	0,288900
14,550333	0,5	0,291050
14,558667	0,5	0,289550
14,567000	0,5	0,288650
14,575333	0,5	0,274400
14,583667	0,5	0,278800
14,592000	0,5	0,295350
14,600333	0,5	0,323100
14,608667	0,5	0,376050
14,617000	0,5	0,449150
14,625333	0,5	0,551300
14,633667	0,5	0,664450
14,642000	0,5	0,756700
14,650333	0,5	0,817900
14,658667	0,5	0,826850
14,667000	0,5	0,807600
14,675333	0,5	0,737850
14,683667	0,5	0,656750
14,692000	0,5	0,608350
14,700333	0,5	0,587050
14,708667	0,5	0,592750
14,717000	0,5	0,631900
14,725333	0,5	0,686500
14,733667	0,5	0,775600
14,742000	0,5	0,841900
14,750333	0,5	0,860150
14,758667	0,5	0,830450
14,767000	0,5	0,778400
14,775333	0,5	0,690800
14,783667	0,5	0,615900
14,792000	0,5	0,543400
14,800333	0,5	0,493050
14,808667	0,5	0,453650
14,817000	0,5	0,432750
14,825333	0,5	0,410050
14,833667	0,5	0,402350
14,842000	0,5	0,411600
14,850333	0,5	0,417600
14,858667	0,5	0,432700
14,867000	0,5	0,441400
14,875333	0,5	0,466450
14,883667	0,5	0,508800
14,892000	0,5	0,532400
14,900333	0,5	0,535300
14,908667	0,5	0,533950
14,917000	0,5	0,513500
14,925333	0,5	0,495300
14,933667	0,5	0,479250
14,942000	0,5	0,462400
14,950333	0,5	0,437500
14,958667	0,5	0,401500
14,967000	0,5	0,392000
14,975333	0,5	0,340150
14,983667	0,5	0,322100
14,992000	0,5	0,291650
15,000333	0,5	0,268000
15,008667	0,5	0,241150
15,017000	0,5	0,205150
15,025333	0,5	0,193550
15,033667	0,5	0,194150
15,042000	0,5	0,176550
15,050333	0,5	0,177950
15,058667	0,5	0,153500
15,067000	0,5	0,149950
15,075333	0,5	0,148400
15,083667	0,5	0,148050
15,092000	0,5	0,151650
15,100333	0,5	0,159650
15,108667	0,5	0,196200
15,117000	0,5	0,248400
15,125333	0,5	0,306700
15,133667	0,5	0,420800
15,142000	0,5	0,544750
15,150333	0,5	0,680450
15,158667	0,5	0,762400
15,167000	0,5	0,795800
15,175333	0,5	0,801950
15,183667	0,5	0,752750
15,192000	0,5	0,697600
15,200333	0,5	0,641550
15,208667	0,5	0,641700
15,217000	0,5	0,669000
15,225333	0,5	0,733150
15,233667	0,5	0,795550
15,242000	0,5	0,823700
15,250333	0,5	0,803900
15,258667	0,5	0,737250
15,267000	0,5	0,635950
15,275333	0,5	0,533600
15,283667	0,5	0,458150
15,292000	0,5	0,399300
15,300333	0,5	0,361200
15,308667	0,5	0,324600
15,317000	0,5	0,296300
15,325333	0,5	0,282800
15,333667	0,5	0,270600
15,342000	0,5	0,245650
15,350333	0,5	0,237500
15,358667	0,5	0,218900
15,367000	0,5	0,204150
15,375333	0,5	0,204150
15,383667	0,5	0,210250
15,392000	0,5	0,212700
15,400333	0,5	0,221250
15,408667	0,5	0,224250
15,417000	0,5	0,217700
15,425333	0,5	0,201800
15,433667	0,5	0,187500
15,442000	0,5	0,155050
15,450333	0,5	0,124700
15,458667	0,5	0,084100
15,467000	0,5	0,042250
15,475333	0,5	0,036750
15,483667	0,5	0,013800
15,492000	0,5	-0,001700
15,500333	0,5	-0,018550
15,508667	0,5	-0,025150
15,517000	0,5	-0,045350
15,525333	0,5	-0,055700
15,533667	0,5	-0,059150
15,542000	0,5	-0,059700
15,550333	0,5	-0,040900
15,558667	0,5	-0,016100
15,567000	0,5	0,011550
15,575333	0,5	0,091550
15,583667	0,5	0,201950
15,592000	0,5	0,327700
15,600333	0,5	0,439350
15,608667	0,5	0,515900
15,617000	0,5	0,555050
15,625333	0,5	0,543900
15,633667	0,5	0,513300
15,642000	0,5	0,486600
15,650333	0,5	0,498200
15,658667	0,5	0,533550
15,667000	0,5	0,588200
15,675333	0,5	0,607650
15,683667	0,5	0,595300
15,692000	0,5	0,535450
15,700333	0,5	0,468250
15,708667	0,5	0,353000
15,717000	0,5	0,267750
15,725333	0,5	0,192700
15,733667	0,5	0,138850
15,742000	0,5	0,084000
15,750333	0,5	0,037200
15,758667	0,5	0,016050
15,767000	0,5	0,017450
15,775333	0,5	0,012300
15,783667	0,5	0,016950
15,792000	0,5	0,033550
15,800333	0,5	0,037100
15,808667	0,5	0,029500
15,817000	0,5	0,020550
15,825333	0,5	0,006150
15,833667	0,5	-0,019800
15,842000	0,5	-0,040200
15,850333	0,5	-0,070950
15,858667	0,5	-0,113150
15,867000	0,5	-0,121400
15,875333	0,5	-0,145100
15,883667	0,5	-0,170650
15,892000	0,5	-0,185700
15,900333	0,5	-0,225350
15,908667	0,5	-0,222400
15,917000	0,5	-0,228050
15,925333	0,5	-0,235600
15,933667	0,5	-0,247050
15,942000	0,5	-0,242200
15,950333	0,5	-0,232550
15,958667	0,5	-0,217350
15,967000	0,5	-0,167950
15,975333	0,5	-0,103300
15,983667	0,5	0,005850
15,992000	0,5	0,138300
16,000333	0,5	0,270100
16,008667	0,5	0,358350
16,017000	0,5	0,426550
16,025333	0,5	0,445350
16,033667	0,5	0,442900
16,042000	0,5	0,441900
16,050333	0,5	0,444150
16,058667	0,5	0,481550
16,067000	0,5	0,492800
16,075333	0,5	0,442550
16,083667	0,5	0,363150
16,092000	0,5	0,270300
16,100333	0,5	0,174300
16,108667	0,5	0,098550
16,117000	0,5	0,041600
16,125333	0,5	0,006300
16,133667	0,5	-0,025400
16,142000	0,5	-0,023150
16,150333	0,5	-0,026200
16,158667	0,5	-0,024750
16,167000	0,5	-0,010300
16,175333	0,5	-0,006850
16,183667	0,5	-0,022700
16,192000	0,5	-0,041400
16,200333	0,5	-0,062200
16,208667	0,5	-0,062200
16,217000	0,5	-0,087200
16,225333	0,5	-0,105300
16,233667	0,5	-0,125400
16,242000	0,5	-0,148250
16,250333	0,5	-0,180350
16,258667	0,5	-0,210750
16,267000	0,5	-0,228800
16,275333	0,5	-0,264100
16,283667	0,5	-0,275900
16,292000	0,5	-0,293300
16,300333	0,5	-0,327100
16,308667	0,5	-0,328400
16,317000	0,5	-0,321000
16,325333	0,5	-0,299550
16,333667	0,5	-0,260400
16,342000	0,5	-0,196500
16,350333	0,5	-0,081550
16,358667	0,5	0,054950
16,367000	0,5	0,190700
16,375333	0,5	0,274750
16,383667	0,5	0,334300
16,392000	0,5	0,335850
16,400333	0,5	0,336250
16,408667	0,5	0,339550
16,417000	0,5	0,336550
16,425333	0,5	0,308750
16,433667	0,5	0,271100
16,442000	0,5	0,195150
16,450333	0,5	0,108550
16,458667	0,5	0,041600
16,467000	0,5	-0,015450
16,475333	0,5	-0,044100
16,483667	0,5	-0,069900
16,492000	0,5	-0,078400
16,500333	0,5	-0,065400
16,508667	0,5	-0,036200
16,517000	0,5	-0,015800
16,525333	0,5	0,011950
16,533667	0,5	0,018350
16,542000	0,5	0,026750
16,550333	0,5	0,015550
16,558667	0,5	0,014350
16,567000	0,5	-0,004550
16,575333	0,5	-0,023450
16,583667	0,5	-0,042650
16,592000	0,5	-0,074850
16,600333	0,5	-0,085500
16,608667	0,5	-0,085350
16,617000	0,5	-0,095500
16,625333	0,5	-0,100900
16,633667	0,5	-0,121400
16,642000	0,5	-0,139100
16,650333	0,5	-0,132900
16,658667	0,5	-0,125800
16,667000	0,5	-0,096700
16,675333	0,5	-0,049500
16,683667	0,5	0,022450
16,692000	0,5	0,107350
16,700333	0,5	0,191050
16,708667	0,5	0,248750
16,717000	0,5	0,281750
16,725333	0,5	0,291050
16,733667	0,5	0,291600
16,742000	0,5	0,258600
16,750333	0,5	0,245200
16,758667	0,5	0,199950
16,767000	0,5	0,133850
16,775333	0,5	0,042300
16,783667	0,5	-0,054800
16,792000	0,5	-0,099700
16,800333	0,5	-0,147850
16,808667	0,5	-0,171300
16,817000	0,5	-0,190900
16,825333	0,5	-0,200900
16,833667	0,5	-0,211200
16,842000	0,5	-0,218200
16,850333	0,5	-0,225250
16,858667	0,5	-0,228300
16,867000	0,5	-0,248850
16,875333	0,5	-0,249250
16,883667	0,5	-0,269250
16,892000	0,5	-0,289000
16,900333	0,5	-0,305400
16,908667	0,5	-0,311650
16,917000	0,5	-0,339500
16,925333	0,5	-0,366750
16,933667	0,5	-0,385950
16,942000	0,5	-0,372500
16,950333	0,5	-0,358500
16,958667	0,5	-0,332900
16,967000	0,5	-0,301750
16,975333	0,5	-0,246150
16,983667	0,5	-0,164150
16,992000	0,5	-0,060600
17,000333	0,5	0,055200
17,008667	0,5	0,161100
17,017000	0,5	0,269350
17,025333	0,5	0,363600
17,033667	0,5	0,448050
17,042000	0,5	0,544850
17,050333	0,5	0,655250
17,058667	0,5	0,760850
17,067000	0,5	0,865300
17,075333	0,5	0,952950
17,083667	0,5	1,070300
17,092000	0,5	1,205200
17,100333	0,5	1,329950
17,108667	0,5	1,434600
17,117000	0,5	1,545500
17,125333	0,5	1,639800
17,133667	0,5	1,715600
17,142000	0,5	1,780900
17,150333	0,5	1,827050
17,158667	0,5	1,845350
17,167000	0,5	1,839000
17,175333	0,5	1,803900
17,183667	0,5	1,695050
17,192000	0,5	1,591650
17,200333	0,5	1,434650
17,208667	0,5	1,257200
17,217000	0,5	1,069300
17,225333	0,5	0,901250
17,233667	0,5	0,765150
17,242000	0,5	0,669050
17,250333	0,5	0,591750
17,258667	0,5	0,565400
17,267000	0,5	0,576650
17,275333	0,5	0,627050
17,283667	0,5	0,683700
17,292000	0,5	0,732150
17,300333	0,5	0,760550
17,308667	0,5	0,750150
17,317000	0,5	0,749300
17,325333	0,5	0,704150
17,333667	0,5	0,628850
17,342000	0,5	0,560700
17,350333	0,5	0,477800
17,358667	0,5	0,415050
17,367000	0,5	0,373250
17,375333	0,5	0,338500
17,383667	0,5	0,358050
17,392000	0,5	0,386700
17,400333	0,5	0,415600
17,408667	0,5	0,433650
17,417000	0,5	0,465250
17,425333	0,5	0,477100
17,433667	0,5	0,496750
17,442000	0,5	0,493300
17,450333	0,5	0,477700
17,458667	0,5	0,459200
17,467000	0,5	0,419550
17,475333	0,5	0,371200
17,483667	0,5	0,313100
17,492000	0,5	0,257500
17,500333	0,5	0,197850
17,508667	0,5	0,161900
17,517000	0,5	0,130800
17,525333	0,5	0,148700
17,533667	0,5	0,162600
17,542000	0,5	0,188850
17,550333	0,5	0,181700
17,558667	0,5	0,177050
17,567000	0,5	0,138200
17,575333	0,5	0,084200
17,583667	0,5	0,010600
17,592000	0,5	-0,056900
17,600333	0,5	-0,124150
17,608667	0,5	-0,168250
17,617000	0,5	-0,222650
17,625333	0,5	-0,256400
17,633667	0,5	-0,283400
17,642000	0,5	-0,310100
17,650333	0,5	-0,334050
17,658667	0,5	-0,380850
17,667000	0,5	-0,407550
17,675333	0,5	-0,432500
17,683667	0,5	-0,436700
17,692000	0,5	-0,454850
17,700333	0,5	-0,460100
17,708667	0,5	-0,473900
17,717000	0,5	-0,470750
17,725333	0,5	-0,469100
17,733667	0,5	-0,426150
17,742000	0,5	-0,382900
17,750333	0,5	-0,327650
17,758667	0,5	-0,259100
17,767000	0,5	-0,218700
17,775333	0,5	-0,196300
17,783667	0,5	-0,180950
17,792000	0,5	-0,191950
17,800333	0,5	-0,235550
17,808667	0,5	-0,299400
17,817000	0,5	-0,359350
17,825333	0,5	-0,387050
17,833667	0,5	-0,418250
17,842000	0,5	-0,441950
17,850333	0,5	-0,465300
17,858667	0,5	-0,484200
17,867000	0,5	-0,513650
17,875333	0,5	-0,523250
17,883667	0,5	-0,543200
17,892000	0,5	-0,551900
17,900333	0,5	-0,551050
17,908667	0,5	-0,540550
17,917000	0,5	-0,552650
17,925333	0,5	-0,528550
17,933667	0,5	-0,510550
17,942000	0,5	-0,479650
17,950333	0,5	-0,437850
17,958667	0,5	-0,409900
17,967000	0,5	-0,359400
17,975333	0,5	-0,328300
17,983667	0,5	-0,312000
17,992000	0,5	-0,321550
18,000333	0,5	-0,347550
18,008667	0,5	-0,389250
18,017000	0,5	-0,426100
18,025333	0,5	-0,464050
18,033667	0,5	-0,481500
18,042000	0,5	-0,502700
18,050333	0,5	-0,522400
18,058667	0,5	-0,535200
18,067000	0,5	-0,560850
18,075333	0,5	-0,562600
18,083667	0,5	-0,558350
18,092000	0,5	-0,567050
18,100333	0,5	-0,570800
18,108667	0,5	-0,590300
18,117000	0,5	-0,570900
18,125333	0,5	-0,542150
18,133667	0,5	-0,510850
18,142000	0,5	-0,456350
18,150333	0,5	-0,408250
18,158667	0,5	-0,362550
18,167000	0,5	-0,341350
18,175333	0,5	-0,329200
18,183667	0,5	-0,343500
18,192000	0,5	-0,365150
18,200333	0,5	-0,389500
18,208667	0,5	-0,412700
18,217000	0,5	-0,428950
18,225333	0,5	-0,433600
18,233667	0,5	-0,451800
18,242000	0,5	-0,473850
18,250333	0,5	-0,507650
18,258667	0,5	-0,533050
18,267000	0,5	-0,536350
18,275333	0,5	-0,546350
18,283667	0,5	-0,556650
18,292000	0,5	-0,553000
18,300333	0,5	-0,543350
18,308667	0,5	-0,529550
18,317000	0,5	-0,497250
18,325333	0,5	-0,478300
18,333667	0,5	-0,460200
18,342000	0,5	-0,450500
18,350333	0,5	-0,438650
18,358667	0,5	-0,477950
18,367000	0,5	-0,485950
18,375333	0,5	-0,515000
18,383667	0,5	-0,544700
18,392000	0,5	-0,578800
18,400333	0,5	-0,612350
18,408667	0,5	-0,622600
18,417000	0,5	-0,630050
18,425333	0,5	-0,634150
18,433667	0,5	-0,655600
18,442000	0,5	-0,650300
18,450333	0,5	-0,650550
18,458667	0,5	-0,648500
18,467000	0,5	-0,641750
18,475333	0,5	-0,634700
18,483667	0,5	-0,628250
18,492000	0,5	-0,594850
18,500333	0,5	-0,583050
18,508667	0,5	-0,584250
18,517000	0,5	-0,580500
18,525333	0,5	-0,596900
18,533667	0,5	-0,625150
18,542000	0,5	-0,671150
18,550333	0,5	-0,714100
18,558667	0,5	-0,727050
18,567000	0,5	-0,746600
18,575333	0,5	-0,752750
18,583667	0,5	-0,757100
18,592000	0,5	-0,765300
18,600333	0,5	-0,777200
18,608667	0,5	-0,780150
18,617000	0,5	-0,777200
18,625333	0,5	-0,776750
18,633667	0,5	-0,758750
18,642000	0,5	-0,735100
18,650333	0,5	-0,711850
18,658667	0,5	-0,694700
18,667000	0,5	-0,685050
18,675333	0,5	-0,702400
18,683667	0,5	-0,719050
18,692000	0,5	-0,768650
18,700333	0,5	-0,774050
18,708667	0,5	-0,773400
18,717000	0,5	-0,760150
18,725333	0,5	-0,752700
18,733667	0,5	-0,739500
18,742000	0,5	-0,740750
18,750333	0,5	-0,729950
18,758667	0,5	-0,709450
18,767000	0,5	-0,684650
18,775333	0,5	-0,659050
18,783667	0,5	-0,629700
18,792000	0,5	-0,611350
18,800333	0,5	-0,619650
18,808667	0,5	-0,612600
18,817000	0,5	-0,619400
18,825333	0,5	-0,644750
18,833667	0,5	-0,676950
18,842000	0,5	-0,716600
18,850333	0,5	-0,726000
18,858667	0,5	-0,727300
18,867000	0,5	-0,737450
18,875333	0,5	-0,724850
18,883667	0,5	-0,715800
18,892000	0,5	-0,707250
18,900333	0,5	-0,701700
18,908667	0,5	-0,695700
18,917000	0,5	-0,692350
18,925333	0,5	-0,706300
18,933667	0,5	-0,713200
18,942000	0,5	-0,758450
18,950333	0,5	-0,786250
18,958667	0,5	-0,802950
18,967000	0,5	-0,826500
18,975333	0,5	-0,854000
18,983667	0,5	-0,890300
18,992000	0,5	-0,911500
19,000333	0,5	-0,905350
19,008667	0,5	-0,901750
19,017000	0,5	-0,901900
19,025333	0,5	-0,901350
19,033667	0,5	-0,901800
19,042000	0,5	-0,920400
19,050333	0,5	-0,932700
19,058667	0,5	-0,953800
19,067000	0,5	-0,963500
19,075333	0,5	-0,973700
19,083667	0,5	-0,981750
19,092000	0,5	-1,022800
19,100333	0,5	-1,022500
19,108667	0,5	-1,030750
19,117000	0,5	-1,036450
19,125333	0,5	-1,057350
19,133667	0,5	-1,093100
19,142000	0,5	-1,093100
19,150333	0,5	-1,113800
19,158667	0,5	-1,125900
19,167000	0,5	-1,151150
19,175333	0,5	-1,161550
19,183667	0,5	-1,183950
19,192000	0,5	-1,197250
19,200333	0,5	-1,208350
19,208667	0,5	-1,212000
19,217000	0,5	-1,225950
19,225333	0,5	-1,231250
19,233667	0,5	-1,233100
19,242000	0,5	-1,255350
19,250333	0,5	-1,255600
19,258667	0,5	-1,261800
19,267000	0,5	-1,276650
19,275333	0,5	-1,308050
19,283667	0,5	-1,325350
19,292000	0,5	-1,329300
19,300333	0,5	-1,320000
19,308667	0,5	-1,325750
19,317000	0,5	-1,323500
19,325333	0,5	-1,339050
19,333667	0,5	-1,342600
19,342000	0,5	-1,362850
19,350333	0,5	-1,375600
19,358667	0,5	-1,395200
19,367000	0,5	-1,398900
19,375333	0,5	-1,397400
19,383667	0,5	-1,409800
19,392000	0,5	-1,423700
19,400333	0,5	-1,417000
19,408667	0,5	-1,420800
19,417000	0,5	-1,428400
19,425333	0,5	-1,446550
19,433667	0,5	-1,459800
19,442000	0,5	-1,450050
19,450333	0,5	-1,460950
19,458667	0,5	-1,468100
19,467000	0,5	-1,478300
19,475333	0,5	-1,471300
19,483667	0,5	-1,477950
19,492000	0,5	-1,470850
19,500333	0,5	-1,480750
19,508667	0,5	-1,495200
19,517000	0,5	-1,504400
19,525333	0,5	-1,509150
19,533667	0,5	-1,530850
19,542000	0,5	-1,523950
19,550333	0,5	-1,531350
19,558667	0,5	-1,549200
19,567000	0,5	-1,573450
19,575333	0,5	-1,606850
19,583667	0,5	-1,619750
19,592000	0,5	-1,633200
19,600333	0,5	-1,632550
19,608667	0,5	-1,634700
19,617000	0,5	-1,630800
19,625333	0,5	-1,646050
19,633667	0,5	-1,651650
19,642000	0,5	-1,654550
19,650333	0,5	-1,655750
19,658667	0,5	-1,663250
19,667000	0,5	-1,657850
19,675333	0,5	-1,667000
19,683667	0,5	-1,672500
19,692000	0,5	-1,679800
19,700333	0,5	-1,694900
19,708667	0,5	-1,710400
19,717000	0,5	-1,742750
19,725333	0,5	-1,766950
19,733667	0,5	-1,780750
19,742000	0,5	-1,780150
19,750333	0,5	-1,801050
19,758667	0,5	-1,804500
19,767000	0,5	-1,832200
19,775333	0,5	-1,842300
19,783667	0,5	-1,857250
19,792000	0,5	-1,860350
19,800333	0,5	-1,880150
19,808667	0,5	-1,880150
19,817000	0,5	-1,887050
19,825333	0,5	-1,901100
19,833667	0,5	-1,900900
19,842000	0,5	-1,894100
19,850333	0,5	-1,907400
19,858667	0,5	-1,910350
19,867000	0,5	-1,956000
19,875333	0,5	-1,958150
19,883667	0,5	-1,951150
19,892000	0,5	-1,960650
19,900333	0,5	-1,972200
19,908667	0,5	-1,982150
19,917000	0,5	-1,985450
19,925333	0,5	-2,006750
19,933667	0,5	-2,005900
19,942000	0,5	-2,028650
19,950333	0,5	-2,039900
19,958667	0,5	-2,034900
19,967000	0,5	-2,045900
19,975333	0,5	-2,072250
19,983667	0,5	-2,074900
19,992000	0,5	-2,090800
20,000333	0,5	-2,111450
20,008667	0,5	-2,158150
20,017000	0,5	-2,190000
20,025333	0,5	-2,194500
20,033667	0,5	-2,204100
20,042000	0,5	-2,218600
20,050333	0,5	-2,237100
20,058667	0,5	-2,251300
20,067000	0,5	-2,269500
20,075333	0,5	-2,277150
20,083667	0,5	-2,294750
20,092000	0,5	-2,300950
20,100333	0,5	-2,318400
20,108667	0,5	-2,313450
20,117000	0,5	-2,346300
20,125333	0,5	-2,338450
20,133667	0,5	-2,340450
20,142000	0,5	-2,339100
20,150333	0,5	-2,342050
20,158667	0,5	-2,367500
20,167000	0,5	-2,363100
20,175333	0,5	-2,351250
20,183667	0,5	-2,343550
20,192000	0,5	-2,332850
20,200333	0,5	-2,328050
20,208667	0,5	-2,327900
20,217000	0,5	-2,332800
20,225333	0,5	-2,346950
20,233667	0,5	-2,351750
20,242000	0,5	-2,373250
20,250333	0,5	-2,392900
20,258667	0,5	-2,416550
20,267000	0,5	-2,446250
20,275333	0,5	-2,454250
20,283667	0,5	-2,463550
20,292000	0,5	-2,488950
20,300333	0,5	-2,516100
20,308667	0,5	-2,569400
20,317000	0,5	-2,578550
20,325333	0,5	-2,588850
20,333667	0,5	-2,611050
20,342000	0,5	-2,642550
20,350333	0,5	-2,660250
20,358667	0,5	-2,683750
20,367000	0,5	-2,706800
20,375333	0,5	-2,730400
20,383667	0,5	-2,773200
20,392000	0,5	-2,793550
20,400333	0,5	-2,805500
20,408667	0,5	-2,829450
20,417000	0,5	-2,858000
20,425333	0,5	-2,874100
20,433667	0,5	-2,900100
20,442000	0,5	-2,925350
20,450333	0,5	-2,965200
20,458667	0,5	-2,999350
20,467000	0,5	-3,006650
20,475333	0,5	-3,026550
20,483667	0,5	-3,069900
20,492000	0,5	-3,082750
20,500333	0,5	-3,096700
20,508667	0,5	-3,110250
20,517000	0,5	-3,105100
20,525333	0,5	-3,097100
20,533667	0,5	-3,093900
20,542000	0,5	-3,093100
20,550333	0,5	-3,097200
20,558667	0,5	-3,133900
20,567000	0,5	-3,177200
20,575333	0,5	-3,221050
20,583667	0,5	-3,280500
20,592000	0,5	-3,342850
20,600333	0,5	-3,402750
20,608667	0,5	-3,448850
20,617000	0,5	-3,479700
20,625333	0,5	-3,512800
20,633667	0,5	-3,552700
20,642000	0,5	-3,581800
20,650333	0,5	-3,611500
20,658667	0,5	-3,641900
20,667000	0,5	-3,673100
20,675333	0,5	-3,698400
20,683667	0,5	-3,716100
20,692000	0,5	-3,692050
20,700333	0,5	-3,666550
20,708667	0,5	-3,647900
20,717000	0,5	-3,634650
20,725333	0,5	-3,653500
20,733667	0,5	-3,680600
20,742000	0,5	-3,762650
20,750333	0,5	-3,847800
20,758667	0,5	-3,916050
20,767000	0,5	-3,990000
20,775333	0,5	-4,058050
20,783667	0,5	-4,122450
20,792000	0,5	-4,175350
20,800333	0,5	-4,220200
20,808667	0,5	-4,270650
20,817000	0,5	-4,313450
20,825333	0,5	-4,361850
20,833667	0,5	-4,383500
20,842000	0,5	-4,410750
20,850333	0,5	-4,438550
20,858667	0,5	-4,477650
20,867000	0,5	-4,506500
20,875333	0,5	-4,550650
20,883667	0,5	-4,581850
20,892000	0,5	-4,641400
20,900333	0,5	-4,677200
20,908667	0,5	-4,714850
20,917000	0,5	-4,748450
20,925333	0,5	-4,805300
20,933667	0,5	-4,847050
20,942000	0,5	-4,889350
20,950333	0,5	-4,926900
20,958667	0,5	-4,963750
20,967000	0,5	-5,009650
20,975333	0,5	-5,040700
20,983667	0,5	-5,046550
20,992000	0,5	-5,064950
21,000333	0,5	-5,108800
21,008667	0,5	-5,133300
21,017000	0,5	-5,171050
21,025333	0,5	-5,214500
21,033667	0,5	-5,268550
21,042000	0,5	-5,308550
21,050333	0,5	-5,332050
21,058667	0,5	-5,354550
21,067000	0,5	-5,395050
21,075333	0,5	-5,416300
21,083667	0,5	-5,435700
21,092000	0,5	-5,471850
21,100333	0,5	-5,520700
21,108667	0,5	-5,551800
21,117000	0,5	-5,574550
21,125333	0,5	-5,606450
21,133667	0,5	-5,595300
21,142000	0,5	-5,617850
21,150333	0,5	-5,653400
21,158667	0,5	-5,682150
21,167000	0,5	-5,713200
21,175333	0,5	-5,763650
21,183667	0,5	-5,811050
21,192000	0,5	-5,837050
21,200333	0,5	-5,851250
21,208667	0,5	-5,877600
21,217000	0,5	-5,892700
21,225333	0,5	-5,929150
21,233667	0,5	-5,942400
21,242000	0,5	-5,969500
21,250333	0,5	-5,977950
21,258667	0,5	-5,992350
21,267000	0,5	-6,011200
21,275333	0,5	-5,984100
21,283667	0,5	-5,966100
21,292000	0,5	-5,969000
21,300333	0,5	-5,992550
21,308667	0,5	-6,032400
21,317000	0,5	-6,076300
21,325333	0,5	-6,118950
21,333667	0,5	-6,179700
21,342000	0,5	-6,189750
21,350333	0,5	-6,214250
21,358667	0,5	-6,232900
21,367000	0,5	-6,259400
21,375333	0,5	-6,273100
21,383667	0,5	-6,294850
21,392000	0,5	-6,319400
21,400333	0,5	-6,323450
21,408667	0,5	-6,351900
21,417000	0,5	-6,363850
21,425333	0,5	-6,343750
21,433667	0,5	-6,341700
21,442000	0,5	-6,354950
21,450333	0,5	-6,381300
21,458667	0,5	-6,413900
21,467000	0,5	-6,446000
21,475333	0,5	-6,492100
21,483667	0,5	-6,520550
21,492000	0,5	-6,528250
21,500333	0,5	-6,537600
21,508667	0,5	-6,568900
21,517000	0,5	-6,578500
21,525333	0,5	-6,599350
21,533667	0,5	-6,612100
21,542000	0,5	-6,626750
21,550333	0,5	-6,632300
21,558667	0,5	-6,644650
21,567000	0,5	-6,645850
21,575333	0,5	-6,627750
21,583667	0,5	-6,644450
21,592000	0,5	-6,656350
21,600333	0,5	-6,677800
21,608667	0,5	-6,681400
21,617000	0,5	-6,732750
21,625333	0,5	-6,748200
21,633667	0,5	-6,742200
21,642000	0,5	-6,732750
21,650333	0,5	-6,732050
21,658667	0,5	-6,723500
21,667000	0,5	-6,719150
21,675333	0,5	-6,720150
21,683667	0,5	-6,732000
21,692000	0,5	-6,752900
21,700333	0,5	-6,772400
21,708667	0,5	-6,798350
21,717000	0,5	-6,776150
21,725333	0,5	-6,775150
21,733667	0,5	-6,785850
21,742000	0,5	-6,802050
21,750333	0,5	-6,820350
21,758667	0,5	-6,845200
21,767000	0,5	-6,876900
21,775333	0,5	-6,903500
21,783667	0,5	-6,898700
21,792000	0,5	-6,902450
21,800333	0,5	-6,911600
21,808667	0,5	-6,914200
21,817000	0,5	-6,919650
21,825333	0,5	-6,938700
21,833667	0,5	-6,930050
21,842000	0,5	-6,934000
21,850333	0,5	-6,946800
21,858667	0,5	-6,923800
21,867000	0,5	-6,916300
21,875333	0,5	-6,928200
21,883667	0,5	-6,951650
21,892000	0,5	-6,941000
21,900333	0,5	-6,965850
21,908667	0,5	-6,976950
21,917000	0,5	-6,970950
21,925333	0,5	-6,940100
21,933667	0,5	-6,887050
21,942000	0,5	-6,840050
21,950333	0,5	-6,839600
21,958667	0,5	-6,865050
21,967000	0,5	-6,914700
21,975333	0,5	-6,963200
21,983667	0,5	-7,009900
21,992000	0,5	-7,054350
22,000333	0,5	-7,102500
22,008667	0,5	-7,117100
22,017000	0,5	-7,150600
22,025333	0,5	-7,194500
22,033667	0,5	-7,215750
22,042000	0,5	-7,248300
22,050333	0,5	-7,286950
22,058667	0,5	-7,349100
22,067000	0,5	-7,362850
22,075333	0,5	-7,387000
22,083667	0,5	-7,399450
22,092000	0,5	-7,427200
22,100333	0,5	-7,437250
22,108667	0,5	-7,460250
22,117000	0,5	-7,488250
22,125333	0,5	-7,497100
22,133667	0,5	-7,519250
22,142000	0,5	-7,535450
22,150333	0,5	-7,548400
22,158667	0,5	-7,550600
22,167000	0,5	-7,581450
22,175333	0,5	-7,576950
22,183667	0,5	-7,600700
22,192000	0,5	-7,602850
22,200333	0,5	-7,625200
22,208667	0,5	-7,649500
22,217000	0,5	-7,647250
22,225333	0,5	-7,647250
22,233667	0,5	-7,666800
22,242000	0,5	-7,669650
22,250333	0,5	-7,670250
22,258667	0,5	-7,672700
22,267000	0,5	-7,672750
22,275333	0,5	-7,664200
22,283667	0,5	-7,663700
22,292000	0,5	-7,672000
22,300333	0,5	-7,669900
22,308667	0,5	-7,685550
22,317000	0,5	-7,653000
22,325333	0,5	-7,633800
22,333667	0,5	-7,612500
22,342000	0,5	-7,619450
22,350333	0,5	-7,586700
22,358667	0,5	-7,521550
22,367000	0,5	-7,425600
22,375333	0,5	-7,343650
22,383667	0,5	-7,311800
22,392000	0,5	-7,317300
22,400333	0,5	-7,362850
22,408667	0,5	-7,420350
22,417000	0,5	-7,476850
22,425333	0,5	-7,510800
22,433667	0,5	-7,557400
22,442000	0,5	-7,586500
22,450333	0,5	-7,617400
22,458667	0,5	-7,635900
22,467000	0,5	-7,616850
22,475333	0,5	-7,617400
22,483667	0,5	-7,628500
22,492000	0,5	-7,635150
22,500333	0,5	-7,651150
22,508667	0,5	-7,634000
22,517000	0,5	-7,614200
22,525333	0,5	-7,609550
22,533667	0,5	-7,590200
22,542000	0,5	-7,565650
22,550333	0,5	-7,540150
22,558667	0,5	-7,512550
22,567000	0,5	-7,483900
22,575333	0,5	-7,459500
22,583667	0,5	-7,444400
22,592000	0,5	-7,487800
22,600333	0,5	-7,470350
22,608667	0,5	-7,449750
22,617000	0,5	-7,420650
22,625333	0,5	-7,430450
22,633667	0,5	-7,425450
22,642000	0,5	-7,431700
22,650333	0,5	-7,442900
22,658667	0,5	-7,434500
22,667000	0,5	-7,425600
22,675333	0,5	-7,426450
22,683667	0,5	-7,419750
22,692000	0,5	-7,420250
22,700333	0,5	-7,428950
22,708667	0,5	-7,424600
22,717000	0,5	-7,421100
22,725333	0,5	-7,414250
22,733667	0,5	-7,476500
22,742000	0,5	-7,483600
22,750333	0,5	-7,480750
22,758667	0,5	-7,456900
22,767000	0,5	-7,456000
22,775333	0,5	-7,457100
22,783667	0,5	-7,498950
22,792000	0,5	-7,516850
22,800333	0,5	-7,535250
22,808667	0,5	-7,539150
22,817000	0,5	-7,559550
22,825333	0,5	-7,571700
22,833667	0,5	-7,591550
22,842000	0,5	-7,605050
22,850333	0,5	-7,635250
22,858667	0,5	-7,656800
22,867000	0,5	-7,666650
22,875333	0,5	-7,698750
22,883667	0,5	-7,786100
22,892000	0,5	-7,816550
22,900333	0,5	-7,802300
22,908667	0,5	-7,829250
22,917000	0,5	-7,862400
22,925333	0,5	-7,887500
22,933667	0,5	-7,911050
22,942000	0,5	-7,943800
22,950333	0,5	-7,956700
22,958667	0,5	-7,981500
22,967000	0,5	-8,001750
22,975333	0,5	-8,000350
22,983667	0,5	-8,007650
22,992000	0,5	-7,992050
23,000333	0,5	-7,980650
23,008667	0,5	-7,973250
23,017000	0,5	-7,941500
23,025333	0,5	-7,905700
23,033667	0,5	-7,909000
23,042000	0,5	-7,860450
23,050333	0,5	-7,855100
23,058667	0,5	-7,849400
23,067000	0,5	-7,816200
23,075333	0,5	-7,790550
23,083667	0,5	-7,731050
23,092000	0,5	-7,714600
23,100333	0,5	-7,672850
23,108667	0,5	-7,620000
23,117000	0,5	-7,564150
23,125333	0,5	-7,507450
23,133667	0,5	-7,431050
23,142000	0,5	-7,358500
23,150333	0,5	-7,298950
23,158667	0,5	-7,215200
23,167000	0,5	-7,139500
23,175333	0,5	-7,018250
23,183667	0,5	-6,945800
23,192000	0,5	-6,861050
23,200333	0,5	-6,823550
23,208667	0,5	-6,768650
23,217000	0,5	-6,682300
23,225333	0,5	-6,592350
23,233667	0,5	-6,515550
23,242000	0,5	-6,447900
23,250333	0,5	-6,384850
23,258667	0,5	-6,294300
23,267000	0,5	-6,220500
23,275333	0,5	-6,127400
23,283667	0,5	-6,039800
23,292000	0,5	-5,943200
23,300333	0,5	-5,851550
23,308667	0,5	-5,762900
23,317000	0,5	-5,646550
23,325333	0,5	-5,580850
23,333667	0,5	-5,476400
23,342000	0,5	-5,362150
23,350333	0,5	-5,313250
23,358667	0,5	-5,260050
23,367000	0,5	-5,173150
23,375333	0,5	-5,085950
23,383667	0,5	-5,010900
23,392000	0,5	-4,972650
23,400333	0,5	-4,891100
23,408667	0,5	-4,831650
23,417000	0,5	-4,751500
23,425333	0,5	-4,692900
23,433667	0,5	-4,609850
23,442000	0,5	-4,546900
23,450333	0,5	-4,476350
23,458667	0,5	-4,404000
23,467000	0,5	-4,341400
23,475333	0,5	-4,318100
23,483667	0,5	-4,216500
23,492000	0,5	-4,120550
23,500333	0,5	-4,064500
23,508667	0,5	-4,021000
23,517000	0,5	-3,961050
23,525333	0,5	-3,904250
23,533667	0,5	-3,862100
23,542000	0,5	-3,819250
23,550333	0,5	-3,787000
23,558667	0,5	-3,738050
23,567000	0,5	-3,698100
23,575333	0,5	-3,644550
23,583667	0,5	-3,608350
23,592000	0,5	-3,561450
23,600333	0,5	-3,521850
23,608667	0,5	-3,476050
23,617000	0,5	-3,570250
23,625333	0,5	-3,492600
23,633667	0,5	-3,411850
23,642000	0,5	-3,345900
23,650333	0,5	-3,307750
23,658667	0,5	-3,279650
23,667000	0,5	-3,247800
23,675333	0,5	-3,213550
23,683667	0,5	-3,191000
23,692000	0,5	-3,163350
23,700333	0,5	-3,131450
23,708667	0,5	-3,108550
23,717000	0,5	-3,080600
23,725333	0,5	-3,051450
23,733667	0,5	-3,020650
23,742000	0,5	-2,993000
23,750333	0,5	-2,963150
23,758667	0,5	-2,971150
23,767000	0,5	-3,082900
23,775333	0,5	-3,018300
23,783667	0,5	-2,955500
23,792000	0,5	-2,883100
23,800333	0,5	-2,858550
23,808667	0,5	-2,831500
23,817000	0,5	-2,816200
23,825333	0,5	-2,811000
23,833667	0,5	-2,776500
23,842000	0,5	-2,760300
23,850333	0,5	-2,738600
23,858667	0,5	-2,713800
23,867000	0,5	-2,695100
23,875333	0,5	-2,673200
23,883667	0,5	-2,641300
23,892000	0,5	-2,611750
23,900333	0,5	-2,589250
23,908667	0,5	-2,715600
23,917000	0,5	-2,717050
23,925333	0,5	-2,665800
23,933667	0,5	-2,576300
23,942000	0,5	-2,522500
23,950333	0,5	-2,494550
23,958667	0,5	-2,467050
23,967000	0,5	-2,455200
23,975333	0,5	-2,429100
23,983667	0,5	-2,405000
23,992000	0,5	-2,379800
24,000333	0,5	-2,358850
24,008667	0,5	-2,333950
24,017000	0,5	-2,311900
24,025333	0,5	-2,284900
24,033667	0,5	-2,260000
24,042000	0,5	-2,235500
24,050333	0,5	-2,230550
24,058667	0,5	-2,375400
24,067000	0,5	-2,361150
24,075333	0,5	-2,285100
24,083667	0,5	-2,220750
24,092000	0,5	-2,171450
24,100333	0,5	-2,147300
24,108667	0,5	-2,131300
24,117000	0,5	-2,116850
24,125333	0,5	-2,086950
24,133667	0,5	-2,056600
24,142000	0,5	-2,026250
24,150333	0,5	-2,001950
24,158667	0,5	-1,974750
24,167000	0,5	-1,948100
24,175333	0,5	-1,919350
24,183667	0,5	-1,892250
24,192000	0,5	-1,871950
24,200333	0,5	-1,918100
24,208667	0,5	-1,983650
24,217000	0,5	-1,951850
24,225333	0,5	-1,888000
24,233667	0,5	-1,840150
24,242000	0,5	-1,810350
24,250333	0,5	-1,787250
24,258667	0,5	-1,791600
24,267000	0,5	-1,764350
24,275333	0,5	-1,740450
24,283667	0,5	-1,712350
24,292000	0,5	-1,695350
24,300333	0,5	-1,667900
24,308667	0,5	-1,652200
24,317000	0,5	-1,628500
24,325333	0,5	-1,599950
24,333667	0,5	-1,571000
24,342000	0,5	-1,549400
24,350333	0,5	-1,657900
24,358667	0,5	-1,630350
24,367000	0,5	-1,612400
24,375333	0,5	-1,547000
24,383667	0,5	-1,511700
24,392000	0,5	-1,478200
24,400333	0,5	-1,461200
24,408667	0,5	-1,457800
24,417000	0,5	-1,434600
24,425333	0,5	-1,407800
24,433667	0,5	-1,396450
24,442000	0,5	-1,375750
24,450333	0,5	-1,352400
24,458667	0,5	-1,340750
24,467000	0,5	-1,327350
24,475333	0,5	-1,309150
24,483667	0,5	-1,290700
24,492000	0,5	-1,293250
24,500333	0,5	-1,360450
24,508667	0,5	-1,340750
24,517000	0,5	-1,315000
24,525333	0,5	-1,263850
24,533667	0,5	-1,240300
24,542000	0,5	-1,225250
24,550333	0,5	-1,214950
24,558667	0,5	-1,225000
24,567000	0,5	-1,192050
24,575333	0,5	-1,177700
24,583667	0,5	-1,152500
24,592000	0,5	-1,142100
24,600333	0,5	-1,122550
24,608667	0,5	-1,106900
24,617000	0,5	-1,087850
24,625333	0,5	-1,071300
24,633667	0,5	-1,056050
24,642000	0,5	-1,085400
24,650333	0,5	-1,102750
24,658667	0,5	-1,087500
24,667000	0,5	-1,055500
24,675333	0,5	-1,028550
24,683667	0,5	-1,013650
24,692000	0,5	-1,007200
24,700333	0,5	-1,001300
24,708667	0,5	-1,002950
24,717000	0,5	-0,992300
24,725333	0,5	-0,981700
24,733667	0,5	-0,972350
24,742000	0,5	-0,954850
24,750333	0,5	-0,943750
24,758667	0,5	-0,936550
24,767000	0,5	-0,925750
24,775333	0,5	-0,908350
24,783667	0,5	-0,899050
24,792000	0,5	-0,940950
24,800333	0,5	-0,922000
24,808667	0,5	-0,902000
24,817000	0,5	-0,878900
24,825333	0,5	-0,856000
24,833667	0,5	-0,846000
24,842000	0,5	-0,841450
24,850333	0,5	-0,839550
24,858667	0,5	-0,837800
24,867000	0,5	-0,827600
24,875333	0,5	-0,818100
24,883667	0,5	-0,808250
24,892000	0,5	-0,798950
24,900333	0,5	-0,794450
24,908667	0,5	-0,790700
24,917000	0,5	-0,783100
24,925333	0,5	-0,781250
24,933667	0,5	-0,775300
24,942000	0,5	-0,803300
24,950333	0,5	-0,790200
24,958667	0,5	-0,775500
24,967000	0,5	-0,767000
24,975333	0,5	-0,753900
24,983667	0,5	-0,745100
24,992000	0,5	-0,745900
25,000333	0,5	-0,740950
25,008667	0,5	-0,731650
25,017000	0,5	-0,725550
25,025333	0,5	-0,717350
25,033667	0,5	-0,713950
25,042000	0,5	-0,706850
25,050333	0,5	-0,700000
25,058667	0,5	-0,692350
25,067000	0,5	-0,689350
25,075333	0,5	-0,685650
25,083667	0,5	-0,696350
25,092000	0,5	-0,697750
25,100333	0,5	-0,697550
25,108667	0,5	-0,686300
25,117000	0,5	-0,686700
25,125333	0,5	-0,679800
25,133667	0,5	-0,678050
25,142000	0,5	-0,680400
25,150333	0,5	-0,677600
25,158667	0,5	-0,675950
25,167000	0,5	-0,673200
25,175333	0,5	-0,667450
25,183667	0,5	-0,661900
25,192000	0,5	-0,657350
25,200333	0,5	-0,655800
25,208667	0,5	-0,641400
25,217000	0,5	-0,639850
25,225333	0,5	-0,641650
25,233667	0,5	-0,643900
25,242000	0,5	-0,633450
25,250333	0,5	-0,631550
25,258667	0,5	-0,630000
25,267000	0,5	-0,626350
25,275333	0,5	-0,624450
25,283667	0,5	-0,630300
25,292000	0,5	-0,628900
25,300333	0,5	-0,625350
25,308667	0,5	-0,626400
25,317000	0,5	-0,629300
25,325333	0,5	-0,629150
25,333667	0,5	-0,632050
25,342000	0,5	-0,628900
25,350333	0,5	-0,625850
25,358667	0,5	-0,624850
25,367000	0,5	-0,619150
25,375333	0,5	-0,619700
25,383667	0,5	-0,609300
25,392000	0,5	-0,607650
25,400333	0,5	-0,601750
25,408667	0,5	-0,604200
25,417000	0,5	-0,602850
25,425333	0,5	-0,598700
25,433667	0,5	-0,598150
25,442000	0,5	-0,589800
25,450333	0,5	-0,594800
25,458667	0,5	-0,592800
25,467000	0,5	-0,592550
25,475333	0,5	-0,592050
25,483667	0,5	-0,596450
25,492000	0,5	-0,593650
25,500333	0,5	-0,593750
25,508667	0,5	-0,594300
25,517000	0,5	-0,595450
25,525333	0,5	-0,590350
25,533667	0,5	-0,580950
25,542000	0,5	-0,577400
25,550333	0,5	-0,582300
25,558667	0,5	-0,585750
25,567000	0,5	-0,582450
25,575333	0,5	-0,586000
25,583667	0,5	-0,584550
25,592000	0,5	-0,578500
25,600333	0,5	-0,576800
25,608667	0,5	-0,578350
25,617000	0,5	-0,577900
25,625333	0,5	-0,572800
25,633667	0,5	-0,573750
25,642000	0,5	-0,569950
25,650333	0,5	-0,569900
25,658667	0,5	-0,567800
25,667000	0,5	-0,566600
25,675333	0,5	-0,556600
25,683667	0,5	-0,554550
25,692000	0,5	-0,556100
25,700333	0,5	-0,566450
25,708667	0,5	-0,564400
25,717000	0,5	-0,568550
25,725333	0,5	-0,563300
25,733667	0,5	-0,555350
25,742000	0,5	-0,556400
25,750333	0,5	-0,558650
25,758667	0,5	-0,559400
25,767000	0,5	-0,557400
25,775333	0,5	-0,559500
25,783667	0,5	-0,555750
25,792000	0,5	-0,558600
25,800333	0,5	-0,551600
25,808667	0,5	-0,551100
25,817000	0,5	-0,547150
25,825333	0,5	-0,531050
25,833667	0,5	-0,524550
25,842000	0,5	-0,527600
25,850333	0,5	-0,536150
25,858667	0,5	-0,535200
25,867000	0,5	-0,533850
25,875333	0,5	-0,523450
25,883667	0,5	-0,511200
25,892000	0,5	-0,510800
25,900333	0,5	-0,519000
25,908667	0,5	-0,518150
25,917000	0,5	-0,519850
25,925333	0,5	-0,518600
25,933667	0,5	-0,521000
25,942000	0,5	-0,512800
25,950333	0,5	-0,513300
25,958667	0,5	-0,506150
25,967000	0,5	-0,498450
25,975333	0,5	-0,484350
25,983667	0,5	-0,481600
25,992000	0,5	-0,480300
26,000333	0,5	-0,489550
