File Path	chrom://chromeleon01/ikbm_chromeleon/2022/ICS-5000/ED1/Esteban/20220427_Cell_Amandas_mutants.seq/918.smp/ED_1.channel/ED_1.chm
Channel	ED_1

Injection Information:
Data Vault	ikbm_chromeleon
Injection	EG_BMCC_4b
Injection Number	32
Position	RD2
Comment	
Processing Method	Stop sequence after Cell Death
Instrument Method	ICS5000_PA200_FullNative_Ox_26min_ED1
Type	Unknown
Status	Finished
Injection Date	28.04.2022
Injection Time	03:43:02
Injection Volume (µl)	5,0
Dilution Factor	1,0000
Weight	1,0000

Chromatogram Data Information:
Time Min. (min)	0,000333
Time Max. (min)	26,000333
Data Points	3121
Detector	EDet1
Generating Data System	Chromeleon 7.2.9.11323
Exporting Data System	Chromeleon 7.2.9.0
Operator	Instrument Controller
Signal Quantity	
Signal Unit	nC
Signal Min.	-7,832650
Signal Max.	2 015,194680
Channel	ED_1
Driver Name	DC-5000
Channel Type	Evaluation
Min. Step (s)	0,5
Max. Step (s)	0,5
Average Step (s)	0,5

Signal Parameter Information:
Signal Info	

Chromatogram Data:
Time (min)	Step (s)	Value (nC)
0,000333	n.a.	-0,013400
0,008667	0,5	-0,131350
0,017000	0,5	-0,121100
0,025333	0,5	-0,112500
0,033667	0,5	-0,090250
0,042000	0,5	-0,077400
0,050333	0,5	-0,078300
0,058667	0,5	-0,064850
0,067000	0,5	-0,068150
0,075333	0,5	-0,063150
0,083667	0,5	-0,048900
0,092000	0,5	-0,037200
0,100333	0,5	-0,072800
0,108667	0,5	-0,062850
0,117000	0,5	-0,064550
0,125333	0,5	-0,019850
0,133667	0,5	-0,002200
0,142000	0,5	-0,006100
0,150333	0,5	-0,026800
0,158667	0,5	-0,021600
0,167000	0,5	-0,033050
0,175333	0,5	-0,036950
0,183667	0,5	-0,042550
0,192000	0,5	-0,036700
0,200333	0,5	-0,042450
0,208667	0,5	-0,042000
0,217000	0,5	-0,035650
0,225333	0,5	-0,034550
0,233667	0,5	-0,021250
0,242000	0,5	-0,036100
0,250333	0,5	-0,060800
0,258667	0,5	-0,061500
0,267000	0,5	-0,047250
0,275333	0,5	-0,015600
0,283667	0,5	0,006550
0,292000	0,5	-0,013250
0,300333	0,5	0,010400
0,308667	0,5	0,045400
0,317000	0,5	0,046900
0,325333	0,5	-0,011750
0,333667	0,5	-0,036550
0,342000	0,5	-0,049200
0,350333	0,5	-0,052300
0,358667	0,5	-0,051350
0,367000	0,5	-0,059900
0,375333	0,5	-0,059600
0,383667	0,5	-0,044500
0,392000	0,5	-0,060300
0,400333	0,5	-0,069250
0,408667	0,5	-0,061850
0,417000	0,5	-0,036600
0,425333	0,5	-0,011450
0,433667	0,5	-0,026350
0,442000	0,5	-0,026550
0,450333	0,5	-0,036850
0,458667	0,5	-0,032900
0,467000	0,5	-0,041950
0,475333	0,5	-0,036700
0,483667	0,5	-0,052550
0,492000	0,5	-0,044600
0,500333	0,5	-0,050950
0,508667	0,5	-0,045300
0,517000	0,5	-0,071100
0,525333	0,5	-0,042400
0,533667	0,5	-0,046450
0,542000	0,5	-0,056000
0,550333	0,5	-0,064500
0,558667	0,5	-0,054200
0,567000	0,5	-0,020450
0,575333	0,5	-0,012200
0,583667	0,5	-0,020600
0,592000	0,5	-0,012700
0,600333	0,5	-0,011300
0,608667	0,5	-0,018400
0,617000	0,5	-0,019400
0,625333	0,5	-0,018000
0,633667	0,5	-0,015400
0,642000	0,5	-0,028650
0,650333	0,5	-0,015750
0,658667	0,5	-0,026450
0,667000	0,5	-0,033800
0,675333	0,5	-0,008750
0,683667	0,5	-0,022750
0,692000	0,5	-0,033000
0,700333	0,5	-0,025650
0,708667	0,5	-0,014550
0,717000	0,5	0,028800
0,725333	0,5	0,017800
0,733667	0,5	0,002200
0,742000	0,5	0,002400
0,750333	0,5	0,004350
0,758667	0,5	-0,001100
0,767000	0,5	0,000350
0,775333	0,5	0,001550
0,783667	0,5	-0,003800
0,792000	0,5	0,002400
0,800333	0,5	0,007300
0,808667	0,5	0,027750
0,817000	0,5	0,005850
0,825333	0,5	0,048400
0,833667	0,5	0,009900
0,842000	0,5	0,006300
0,850333	0,5	0,002800
0,858667	0,5	0,019150
0,867000	0,5	0,056250
0,875333	0,5	0,050250
0,883667	0,5	0,030850
0,892000	0,5	0,052150
0,900333	0,5	0,046950
0,908667	0,5	0,048600
0,917000	0,5	0,049150
0,925333	0,5	0,047150
0,933667	0,5	0,045300
0,942000	0,5	0,043950
0,950333	0,5	0,064400
0,958667	0,5	0,048750
0,967000	0,5	0,052900
0,975333	0,5	0,068450
0,983667	0,5	0,042300
0,992000	0,5	0,056250
1,000333	0,5	0,069700
1,008667	0,5	0,084700
1,017000	0,5	0,125100
1,025333	0,5	0,095850
1,033667	0,5	0,102100
1,042000	0,5	0,094300
1,050333	0,5	0,097550
1,058667	0,5	0,093650
1,067000	0,5	0,104450
1,075333	0,5	0,100150
1,083667	0,5	0,102750
1,092000	0,5	0,114200
1,100333	0,5	0,103050
1,108667	0,5	0,095750
1,117000	0,5	0,116150
1,125333	0,5	0,115050
1,133667	0,5	0,104350
1,142000	0,5	0,107350
1,150333	0,5	0,120300
1,158667	0,5	0,161400
1,167000	0,5	0,177250
1,175333	0,5	0,178400
1,183667	0,5	0,168250
1,192000	0,5	0,184550
1,200333	0,5	0,178100
1,208667	0,5	0,182500
1,217000	0,5	0,175250
1,225333	0,5	0,177800
1,233667	0,5	0,178900
1,242000	0,5	0,190600
1,250333	0,5	0,190650
1,258667	0,5	0,198800
1,267000	0,5	0,212850
1,275333	0,5	0,212900
1,283667	0,5	0,195050
1,292000	0,5	0,213450
1,300333	0,5	0,242850
1,308667	0,5	0,268000
1,317000	0,5	0,288650
1,325333	0,5	0,277150
1,333667	0,5	0,284700
1,342000	0,5	0,278950
1,350333	0,5	0,280800
1,358667	0,5	0,283750
1,367000	0,5	0,296450
1,375333	0,5	0,293150
1,383667	0,5	0,304300
1,392000	0,5	0,317000
1,400333	0,5	0,318350
1,408667	0,5	0,328900
1,417000	0,5	0,348750
1,425333	0,5	0,332400
1,433667	0,5	0,330650
1,442000	0,5	0,344000
1,450333	0,5	0,382950
1,458667	0,5	0,406350
1,467000	0,5	0,403450
1,475333	0,5	0,400350
1,483667	0,5	0,405250
1,492000	0,5	0,418150
1,500333	0,5	0,414200
1,508667	0,5	0,424650
1,517000	0,5	0,422850
1,525333	0,5	0,429950
1,533667	0,5	0,428950
1,542000	0,5	0,443000
1,550333	0,5	0,428000
1,558667	0,5	0,473450
1,567000	0,5	0,462050
1,575333	0,5	0,412300
1,583667	0,5	0,195100
1,592000	0,5	-0,432550
1,600333	0,5	-1,116750
1,608667	0,5	-0,488100
1,617000	0,5	2,026250
1,625333	0,5	5,606900
1,633667	0,5	10,296250
1,642000	0,5	16,136500
1,650333	0,5	21,083450
1,658667	0,5	22,967300
1,667000	0,5	22,120500
1,675333	0,5	20,199000
1,683667	0,5	18,173800
1,692000	0,5	16,290450
1,700333	0,5	14,715300
1,708667	0,5	13,843750
1,717000	0,5	14,431250
1,725333	0,5	17,780550
1,733667	0,5	23,151700
1,742000	0,5	26,270150
1,750333	0,5	24,418550
1,758667	0,5	19,774650
1,767000	0,5	15,536600
1,775333	0,5	12,749550
1,783667	0,5	11,409950
1,792000	0,5	11,408950
1,800333	0,5	12,529350
1,808667	0,5	13,913700
1,817000	0,5	14,455800
1,825333	0,5	14,015950
1,833667	0,5	13,083350
1,842000	0,5	12,028950
1,850333	0,5	10,982300
1,858667	0,5	10,058400
1,867000	0,5	9,177350
1,875333	0,5	8,440050
1,883667	0,5	7,827550
1,892000	0,5	7,335900
1,900333	0,5	6,899850
1,908667	0,5	6,479100
1,917000	0,5	6,108000
1,925333	0,5	5,807800
1,933667	0,5	5,523850
1,942000	0,5	5,327300
1,950333	0,5	5,218550
1,958667	0,5	5,183100
1,967000	0,5	5,166900
1,975333	0,5	5,319850
1,983667	0,5	6,365150
1,992000	0,5	10,074600
2,000333	0,5	19,872850
2,008667	0,5	41,354951
2,017000	0,5	88,112351
2,025333	0,5	195,378853
2,033667	0,5	397,095756
2,042000	0,5	620,350859
2,050333	0,5	708,936611
2,058667	0,5	626,890759
2,067000	0,5	473,450307
2,075333	0,5	342,179505
2,083667	0,5	255,385304
2,092000	0,5	199,644403
2,100333	0,5	161,679802
2,108667	0,5	134,186452
2,117000	0,5	113,543502
2,125333	0,5	97,681051
2,133667	0,5	85,367351
2,142000	0,5	75,639551
2,150333	0,5	67,910601
2,158667	0,5	61,821351
2,167000	0,5	57,054251
2,175333	0,5	52,716551
2,183667	0,5	48,317201
2,192000	0,5	44,193151
2,200333	0,5	40,721551
2,208667	0,5	37,935001
2,217000	0,5	35,651251
2,225333	0,5	33,755701
2,233667	0,5	32,169900
2,242000	0,5	30,876800
2,250333	0,5	29,778050
2,258667	0,5	28,776000
2,267000	0,5	27,816950
2,275333	0,5	26,942400
2,283667	0,5	26,166300
2,292000	0,5	25,497550
2,300333	0,5	24,888850
2,308667	0,5	24,315150
2,317000	0,5	23,787500
2,325333	0,5	23,344000
2,333667	0,5	22,975800
2,342000	0,5	22,677550
2,350333	0,5	22,410200
2,358667	0,5	22,175400
2,367000	0,5	22,017250
2,375333	0,5	21,923500
2,383667	0,5	21,970900
2,392000	0,5	22,340350
2,400333	0,5	23,301450
2,408667	0,5	24,784500
2,417000	0,5	25,852700
2,425333	0,5	25,756100
2,433667	0,5	25,167650
2,442000	0,5	24,873050
2,450333	0,5	24,759050
2,458667	0,5	24,618200
2,467000	0,5	24,446850
2,475333	0,5	24,211350
2,483667	0,5	23,947200
2,492000	0,5	23,614150
2,500333	0,5	23,228600
2,508667	0,5	22,837650
2,517000	0,5	22,503800
2,525333	0,5	22,202600
2,533667	0,5	22,004150
2,542000	0,5	21,952250
2,550333	0,5	22,147550
2,558667	0,5	22,796400
2,567000	0,5	24,097000
2,575333	0,5	26,191200
2,583667	0,5	29,102600
2,592000	0,5	33,572851
2,600333	0,5	42,158901
2,608667	0,5	59,424501
2,617000	0,5	87,501401
2,625333	0,5	126,647502
2,633667	0,5	182,473953
2,642000	0,5	287,982854
2,650333	0,5	548,137808
2,658667	0,5	1 019,414215
2,667000	0,5	1 495,789522
2,675333	0,5	1 824,297427
2,683667	0,5	1 982,039230
2,692000	0,5	2 015,194680
2,700333	0,5	1 970,084229
2,708667	0,5	1 875,340478
2,717000	0,5	1 745,313876
2,725333	0,5	1 589,715474
2,733667	0,5	1 418,566671
2,742000	0,5	1 243,679019
2,750333	0,5	1 076,964666
2,758667	0,5	922,987814
2,767000	0,5	782,354412
2,775333	0,5	664,066060
2,783667	0,5	573,655759
2,792000	0,5	511,852258
2,800333	0,5	471,932407
2,808667	0,5	449,466757
2,817000	0,5	437,937407
2,825333	0,5	431,197806
2,833667	0,5	424,438356
2,842000	0,5	414,249706
2,850333	0,5	398,707206
2,858667	0,5	376,950006
2,867000	0,5	349,387105
2,875333	0,5	317,772905
2,883667	0,5	284,877054
2,892000	0,5	253,370054
2,900333	0,5	224,905653
2,908667	0,5	200,186953
2,917000	0,5	178,982703
2,925333	0,5	160,674102
2,933667	0,5	144,666302
2,942000	0,5	130,502102
2,950333	0,5	117,987252
2,958667	0,5	107,028502
2,967000	0,5	97,416451
2,975333	0,5	89,000801
2,983667	0,5	81,566451
2,992000	0,5	74,986951
3,000333	0,5	69,073451
3,008667	0,5	63,793101
3,017000	0,5	59,035601
3,025333	0,5	54,714001
3,033667	0,5	50,839951
3,042000	0,5	47,326801
3,050333	0,5	44,127701
3,058667	0,5	41,241001
3,067000	0,5	38,629301
3,075333	0,5	36,252251
3,083667	0,5	34,070051
3,092000	0,5	32,039800
3,100333	0,5	30,163500
3,108667	0,5	28,437900
3,117000	0,5	26,858650
3,125333	0,5	25,427050
3,133667	0,5	24,153550
3,142000	0,5	23,001850
3,150333	0,5	22,019200
3,158667	0,5	21,167800
3,167000	0,5	20,472750
3,175333	0,5	19,915950
3,183667	0,5	19,610250
3,192000	0,5	19,565250
3,200333	0,5	20,029400
3,208667	0,5	21,273650
3,217000	0,5	23,604800
3,225333	0,5	27,052200
3,233667	0,5	31,223250
3,242000	0,5	35,300151
3,250333	0,5	38,349101
3,258667	0,5	39,673751
3,267000	0,5	39,167501
3,275333	0,5	37,124351
3,283667	0,5	34,105601
3,292000	0,5	30,623850
3,300333	0,5	27,059950
3,308667	0,5	23,728400
3,317000	0,5	20,768600
3,325333	0,5	18,304600
3,333667	0,5	16,292450
3,342000	0,5	14,648450
3,350333	0,5	13,325100
3,358667	0,5	12,263150
3,367000	0,5	11,393050
3,375333	0,5	10,682750
3,383667	0,5	10,053050
3,392000	0,5	9,528750
3,400333	0,5	9,069500
3,408667	0,5	8,693650
3,417000	0,5	8,385900
3,425333	0,5	8,161100
3,433667	0,5	7,971800
3,442000	0,5	7,826700
3,450333	0,5	7,711600
3,458667	0,5	7,571500
3,467000	0,5	7,420500
3,475333	0,5	7,290350
3,483667	0,5	7,131600
3,492000	0,5	6,965900
3,500333	0,5	6,837850
3,508667	0,5	6,720600
3,517000	0,5	6,654900
3,525333	0,5	6,581550
3,533667	0,5	6,518000
3,542000	0,5	6,458200
3,550333	0,5	6,426100
3,558667	0,5	6,381900
3,567000	0,5	6,339800
3,575333	0,5	6,284250
3,583667	0,5	6,206650
3,592000	0,5	6,118700
3,600333	0,5	6,010600
3,608667	0,5	5,887900
3,617000	0,5	5,743150
3,625333	0,5	5,626950
3,633667	0,5	5,462600
3,642000	0,5	5,296550
3,650333	0,5	5,133700
3,658667	0,5	4,991400
3,667000	0,5	4,865950
3,675333	0,5	4,714350
3,683667	0,5	4,559700
3,692000	0,5	4,426400
3,700333	0,5	4,289600
3,708667	0,5	4,158850
3,717000	0,5	4,026350
3,725333	0,5	3,907300
3,733667	0,5	3,791800
3,742000	0,5	3,695850
3,750333	0,5	3,600850
3,758667	0,5	3,511650
3,767000	0,5	3,441700
3,775333	0,5	3,413600
3,783667	0,5	3,358700
3,792000	0,5	3,332550
3,800333	0,5	3,333350
3,808667	0,5	3,342300
3,817000	0,5	3,379100
3,825333	0,5	3,365550
3,833667	0,5	3,375150
3,842000	0,5	3,364850
3,850333	0,5	3,360400
3,858667	0,5	3,339400
3,867000	0,5	3,321200
3,875333	0,5	3,278050
3,883667	0,5	3,239950
3,892000	0,5	3,199500
3,900333	0,5	3,149250
3,908667	0,5	3,067800
3,917000	0,5	3,014450
3,925333	0,5	2,955400
3,933667	0,5	2,890350
3,942000	0,5	2,818100
3,950333	0,5	2,767200
3,958667	0,5	2,728700
3,967000	0,5	2,676550
3,975333	0,5	2,607850
3,983667	0,5	2,532500
3,992000	0,5	2,475050
4,000333	0,5	2,411150
4,008667	0,5	2,353200
4,017000	0,5	2,285600
4,025333	0,5	2,229200
4,033667	0,5	2,168850
4,042000	0,5	2,132500
4,050333	0,5	2,082800
4,058667	0,5	2,032050
4,067000	0,5	1,997000
4,075333	0,5	1,945050
4,083667	0,5	1,882250
4,092000	0,5	1,829700
4,100333	0,5	1,787650
4,108667	0,5	1,748000
4,117000	0,5	1,688450
4,125333	0,5	1,618750
4,133667	0,5	1,559350
4,142000	0,5	1,503350
4,150333	0,5	1,450800
4,158667	0,5	1,404100
4,167000	0,5	1,364150
4,175333	0,5	1,324800
4,183667	0,5	1,305600
4,192000	0,5	1,276150
4,200333	0,5	1,269350
4,208667	0,5	1,246650
4,217000	0,5	1,270700
4,225333	0,5	1,282200
4,233667	0,5	1,337750
4,242000	0,5	1,433100
4,250333	0,5	1,614150
4,258667	0,5	1,873900
4,267000	0,5	2,207250
4,275333	0,5	2,631500
4,283667	0,5	3,177400
4,292000	0,5	3,845500
4,300333	0,5	4,632700
4,308667	0,5	5,541000
4,317000	0,5	6,574650
4,325333	0,5	7,764750
4,333667	0,5	9,191650
4,342000	0,5	10,970150
4,350333	0,5	13,280150
4,358667	0,5	16,483250
4,367000	0,5	20,999100
4,375333	0,5	27,380150
4,383667	0,5	36,178251
4,392000	0,5	47,699801
4,400333	0,5	61,790801
4,408667	0,5	77,547751
4,417000	0,5	93,365351
4,425333	0,5	107,495002
4,433667	0,5	118,320002
4,442000	0,5	124,932452
4,450333	0,5	127,122402
4,458667	0,5	125,364952
4,467000	0,5	120,416752
4,475333	0,5	113,223452
4,483667	0,5	104,683402
4,492000	0,5	95,521101
4,500333	0,5	86,318651
4,508667	0,5	77,510651
4,517000	0,5	69,216101
4,525333	0,5	61,582051
4,533667	0,5	54,664401
4,542000	0,5	48,414101
4,550333	0,5	42,813051
4,558667	0,5	37,738551
4,567000	0,5	33,203250
4,575333	0,5	29,173650
4,583667	0,5	25,663600
4,592000	0,5	22,608700
4,600333	0,5	19,999650
4,608667	0,5	17,772950
4,617000	0,5	15,885050
4,625333	0,5	14,280650
4,633667	0,5	12,903850
4,642000	0,5	11,727600
4,650333	0,5	10,675300
4,658667	0,5	9,764350
4,667000	0,5	8,911950
4,675333	0,5	8,132950
4,683667	0,5	7,440650
4,692000	0,5	6,806300
4,700333	0,5	6,243800
4,708667	0,5	5,724850
4,717000	0,5	5,238500
4,725333	0,5	4,814800
4,733667	0,5	4,433200
4,742000	0,5	4,101300
4,750333	0,5	3,793400
4,758667	0,5	3,527900
4,767000	0,5	3,277050
4,775333	0,5	3,061200
4,783667	0,5	2,862950
4,792000	0,5	2,678600
4,800333	0,5	2,508850
4,808667	0,5	2,369000
4,817000	0,5	2,200600
4,825333	0,5	2,056450
4,833667	0,5	1,928850
4,842000	0,5	1,829450
4,850333	0,5	1,743100
4,858667	0,5	1,629000
4,867000	0,5	1,544350
4,875333	0,5	1,462700
4,883667	0,5	1,394600
4,892000	0,5	1,334750
4,900333	0,5	1,288200
4,908667	0,5	1,245600
4,917000	0,5	1,219900
4,925333	0,5	1,184650
4,933667	0,5	1,167550
4,942000	0,5	1,140300
4,950333	0,5	1,151000
4,958667	0,5	1,145500
4,967000	0,5	1,147250
4,975333	0,5	1,153150
4,983667	0,5	1,177950
4,992000	0,5	1,209500
5,000333	0,5	1,235500
5,008667	0,5	1,235450
5,017000	0,5	1,246350
5,025333	0,5	1,250700
5,033667	0,5	1,253300
5,042000	0,5	1,241800
5,050333	0,5	1,234350
5,058667	0,5	1,219250
5,067000	0,5	1,199700
5,075333	0,5	1,184900
5,083667	0,5	1,165500
5,092000	0,5	1,137850
5,100333	0,5	1,127250
5,108667	0,5	1,090900
5,117000	0,5	1,067700
5,125333	0,5	1,043650
5,133667	0,5	1,029950
5,142000	0,5	1,025700
5,150333	0,5	1,006450
5,158667	0,5	0,987850
5,167000	0,5	0,955650
5,175333	0,5	0,939700
5,183667	0,5	0,914350
5,192000	0,5	0,905200
5,200333	0,5	0,894250
5,208667	0,5	0,882300
5,217000	0,5	0,887550
5,225333	0,5	0,880750
5,233667	0,5	0,888850
5,242000	0,5	0,879400
5,250333	0,5	0,893250
5,258667	0,5	0,873200
5,267000	0,5	0,870300
5,275333	0,5	0,858450
5,283667	0,5	0,870850
5,292000	0,5	0,868450
5,300333	0,5	0,858250
5,308667	0,5	0,829850
5,317000	0,5	0,821750
5,325333	0,5	0,796750
5,333667	0,5	0,778550
5,342000	0,5	0,764100
5,350333	0,5	0,750850
5,358667	0,5	0,737650
5,367000	0,5	0,732300
5,375333	0,5	0,725850
5,383667	0,5	0,719350
5,392000	0,5	0,724650
5,400333	0,5	0,715100
5,408667	0,5	0,693650
5,417000	0,5	0,685050
5,425333	0,5	0,686200
5,433667	0,5	0,698400
5,442000	0,5	0,718000
5,450333	0,5	0,704550
5,458667	0,5	0,706600
5,467000	0,5	0,704600
5,475333	0,5	0,706200
5,483667	0,5	0,702700
5,492000	0,5	0,712750
5,500333	0,5	0,714800
5,508667	0,5	0,724950
5,517000	0,5	0,742150
5,525333	0,5	0,747550
5,533667	0,5	0,757350
5,542000	0,5	0,786850
5,550333	0,5	0,790750
5,558667	0,5	0,797900
5,567000	0,5	0,816000
5,575333	0,5	0,834650
5,583667	0,5	0,871750
5,592000	0,5	0,890300
5,600333	0,5	0,902750
5,608667	0,5	0,909900
5,617000	0,5	0,945150
5,625333	0,5	0,963250
5,633667	0,5	0,998550
5,642000	0,5	1,026100
5,650333	0,5	1,060500
5,658667	0,5	1,096000
5,667000	0,5	1,136150
5,675333	0,5	1,162500
5,683667	0,5	1,201850
5,692000	0,5	1,234550
5,700333	0,5	1,242250
5,708667	0,5	1,229750
5,717000	0,5	1,227950
5,725333	0,5	1,230750
5,733667	0,5	1,228800
5,742000	0,5	1,191500
5,750333	0,5	1,154550
5,758667	0,5	1,126600
5,767000	0,5	1,093850
5,775333	0,5	1,060900
5,783667	0,5	1,031500
5,792000	0,5	1,017200
5,800333	0,5	0,989700
5,808667	0,5	0,983500
5,817000	0,5	0,978800
5,825333	0,5	0,983450
5,833667	0,5	0,990850
5,842000	0,5	0,993950
5,850333	0,5	0,980950
5,858667	0,5	0,975000
5,867000	0,5	0,976200
5,875333	0,5	1,002050
5,883667	0,5	1,005650
5,892000	0,5	0,994250
5,900333	0,5	0,988250
5,908667	0,5	0,990450
5,917000	0,5	0,986600
5,925333	0,5	0,986450
5,933667	0,5	0,990350
5,942000	0,5	0,988500
5,950333	0,5	0,994250
5,958667	0,5	0,995300
5,967000	0,5	1,008150
5,975333	0,5	0,995300
5,983667	0,5	1,021600
5,992000	0,5	1,014850
6,000333	0,5	1,017400
6,008667	0,5	1,012350
6,017000	0,5	1,027250
6,025333	0,5	1,055850
6,033667	0,5	1,072050
6,042000	0,5	1,061500
6,050333	0,5	1,067550
6,058667	0,5	1,068250
6,067000	0,5	1,077650
6,075333	0,5	1,081600
6,083667	0,5	1,089700
6,092000	0,5	1,095000
6,100333	0,5	1,096950
6,108667	0,5	1,110050
6,117000	0,5	1,111100
6,125333	0,5	1,112850
6,133667	0,5	1,142550
6,142000	0,5	1,139900
6,150333	0,5	1,139100
6,158667	0,5	1,150550
6,167000	0,5	1,165550
6,175333	0,5	1,197750
6,183667	0,5	1,202450
6,192000	0,5	1,210950
6,200333	0,5	1,214300
6,208667	0,5	1,222650
6,217000	0,5	1,219900
6,225333	0,5	1,233750
6,233667	0,5	1,238800
6,242000	0,5	1,245700
6,250333	0,5	1,255050
6,258667	0,5	1,261950
6,267000	0,5	1,270850
6,275333	0,5	1,282350
6,283667	0,5	1,297050
6,292000	0,5	1,301350
6,300333	0,5	1,318500
6,308667	0,5	1,322250
6,317000	0,5	1,361050
6,325333	0,5	1,388350
6,333667	0,5	1,421000
6,342000	0,5	1,434350
6,350333	0,5	1,461700
6,358667	0,5	1,483950
6,367000	0,5	1,520750
6,375333	0,5	1,542500
6,383667	0,5	1,575450
6,392000	0,5	1,594100
6,400333	0,5	1,615350
6,408667	0,5	1,634650
6,417000	0,5	1,640050
6,425333	0,5	1,651500
6,433667	0,5	1,658600
6,442000	0,5	1,646250
6,450333	0,5	1,643450
6,458667	0,5	1,645350
6,467000	0,5	1,656400
6,475333	0,5	1,677800
6,483667	0,5	1,676050
6,492000	0,5	1,682450
6,500333	0,5	1,684500
6,508667	0,5	1,690500
6,517000	0,5	1,698050
6,525333	0,5	1,706400
6,533667	0,5	1,709950
6,542000	0,5	1,722250
6,550333	0,5	1,731000
6,558667	0,5	1,734550
6,567000	0,5	1,741900
6,575333	0,5	1,774000
6,583667	0,5	1,782900
6,592000	0,5	1,803350
6,600333	0,5	1,840950
6,608667	0,5	1,890300
6,617000	0,5	1,960500
6,625333	0,5	2,011300
6,633667	0,5	2,059400
6,642000	0,5	2,103300
6,650333	0,5	2,135300
6,658667	0,5	2,145500
6,667000	0,5	2,148400
6,675333	0,5	2,136550
6,683667	0,5	2,114150
6,692000	0,5	2,079200
6,700333	0,5	2,051200
6,708667	0,5	2,006850
6,717000	0,5	1,991500
6,725333	0,5	1,973600
6,733667	0,5	1,948850
6,742000	0,5	1,929550
6,750333	0,5	1,928600
6,758667	0,5	1,931600
6,767000	0,5	1,942950
6,775333	0,5	1,944900
6,783667	0,5	1,946700
6,792000	0,5	1,954550
6,800333	0,5	1,967900
6,808667	0,5	1,976650
6,817000	0,5	1,999450
6,825333	0,5	2,011550
6,833667	0,5	2,030000
6,842000	0,5	2,056050
6,850333	0,5	2,085350
6,858667	0,5	2,087200
6,867000	0,5	2,103750
6,875333	0,5	2,102500
6,883667	0,5	2,084600
6,892000	0,5	2,067300
6,900333	0,5	2,052450
6,908667	0,5	2,054350
6,917000	0,5	2,040400
6,925333	0,5	2,023700
6,933667	0,5	2,005500
6,942000	0,5	2,001650
6,950333	0,5	1,990250
6,958667	0,5	1,989150
6,967000	0,5	1,981900
6,975333	0,5	1,980150
6,983667	0,5	1,981600
6,992000	0,5	1,981250
7,000333	0,5	1,997750
7,008667	0,5	1,988050
7,017000	0,5	2,010600
7,025333	0,5	2,016700
7,033667	0,5	2,025650
7,042000	0,5	2,045000
7,050333	0,5	2,078850
7,058667	0,5	2,124150
7,067000	0,5	2,162700
7,075333	0,5	2,197100
7,083667	0,5	2,245700
7,092000	0,5	2,279150
7,100333	0,5	2,309900
7,108667	0,5	2,318800
7,117000	0,5	2,323750
7,125333	0,5	2,306500
7,133667	0,5	2,284550
7,142000	0,5	2,255800
7,150333	0,5	2,231000
7,158667	0,5	2,212750
7,167000	0,5	2,214250
7,175333	0,5	2,216350
7,183667	0,5	2,255650
7,192000	0,5	2,326850
7,200333	0,5	2,448200
7,208667	0,5	2,634950
7,217000	0,5	2,849450
7,225333	0,5	3,085950
7,233667	0,5	3,309050
7,242000	0,5	3,476600
7,250333	0,5	3,551400
7,258667	0,5	3,526500
7,267000	0,5	3,417200
7,275333	0,5	3,259100
7,283667	0,5	3,083300
7,292000	0,5	2,919800
7,300333	0,5	2,769050
7,308667	0,5	2,644450
7,317000	0,5	2,543100
7,325333	0,5	2,447500
7,333667	0,5	2,375300
7,342000	0,5	2,320750
7,350333	0,5	2,295700
7,358667	0,5	2,275900
7,367000	0,5	2,266600
7,375333	0,5	2,262800
7,383667	0,5	2,292400
7,392000	0,5	2,333700
7,400333	0,5	2,415650
7,408667	0,5	2,532100
7,417000	0,5	2,690250
7,425333	0,5	2,875250
7,433667	0,5	3,063600
7,442000	0,5	3,201750
7,450333	0,5	3,265700
7,458667	0,5	3,234200
7,467000	0,5	3,114600
7,475333	0,5	2,945550
7,483667	0,5	2,783650
7,492000	0,5	2,651650
7,500333	0,5	2,556600
7,508667	0,5	2,488550
7,517000	0,5	2,446050
7,525333	0,5	2,416750
7,533667	0,5	2,406100
7,542000	0,5	2,429800
7,550333	0,5	2,484250
7,558667	0,5	2,596000
7,567000	0,5	2,772800
7,575333	0,5	3,023900
7,583667	0,5	3,329350
7,592000	0,5	3,642150
7,600333	0,5	3,913300
7,608667	0,5	4,094100
7,617000	0,5	4,153050
7,625333	0,5	4,110900
7,633667	0,5	4,024450
7,642000	0,5	3,936300
7,650333	0,5	3,886900
7,658667	0,5	3,902300
7,667000	0,5	4,013900
7,675333	0,5	4,223850
7,683667	0,5	4,445850
7,692000	0,5	4,568050
7,700333	0,5	4,512850
7,708667	0,5	4,303650
7,717000	0,5	4,037050
7,725333	0,5	3,814350
7,733667	0,5	3,706550
7,742000	0,5	3,711900
7,750333	0,5	3,810050
7,758667	0,5	3,930750
7,767000	0,5	3,980900
7,775333	0,5	3,934800
7,783667	0,5	3,807950
7,792000	0,5	3,681650
7,800333	0,5	3,621000
7,808667	0,5	3,668550
7,817000	0,5	3,832850
7,825333	0,5	4,036650
7,833667	0,5	4,188500
7,842000	0,5	4,215250
7,850333	0,5	4,111850
7,858667	0,5	3,915950
7,867000	0,5	3,697800
7,875333	0,5	3,515750
7,883667	0,5	3,431150
7,892000	0,5	3,468250
7,900333	0,5	3,623950
7,908667	0,5	3,845150
7,917000	0,5	4,050000
7,925333	0,5	4,151100
7,933667	0,5	4,080450
7,942000	0,5	3,876750
7,950333	0,5	3,573450
7,958667	0,5	3,279950
7,967000	0,5	3,037350
7,975333	0,5	2,863400
7,983667	0,5	2,724700
7,992000	0,5	2,621600
8,000333	0,5	2,535200
8,008667	0,5	2,463700
8,017000	0,5	2,399700
8,025333	0,5	2,359050
8,033667	0,5	2,329900
8,042000	0,5	2,318250
8,050333	0,5	2,329800
8,058667	0,5	2,351700
8,067000	0,5	2,392650
8,075333	0,5	2,430250
8,083667	0,5	2,465150
8,092000	0,5	2,489200
8,100333	0,5	2,498900
8,108667	0,5	2,497250
8,117000	0,5	2,501850
8,125333	0,5	2,493600
8,133667	0,5	2,471350
8,142000	0,5	2,438450
8,150333	0,5	2,400250
8,158667	0,5	2,368500
8,167000	0,5	2,354550
8,175333	0,5	2,355650
8,183667	0,5	2,337150
8,192000	0,5	2,317050
8,200333	0,5	2,300850
8,208667	0,5	2,276450
8,217000	0,5	2,276050
8,225333	0,5	2,297200
8,233667	0,5	2,342150
8,242000	0,5	2,402100
8,250333	0,5	2,448850
8,258667	0,5	2,473750
8,267000	0,5	2,475500
8,275333	0,5	2,459550
8,283667	0,5	2,435500
8,292000	0,5	2,430650
8,300333	0,5	2,439600
8,308667	0,5	2,469300
8,317000	0,5	2,512500
8,325333	0,5	2,547200
8,333667	0,5	2,568300
8,342000	0,5	2,581650
8,350333	0,5	2,576950
8,358667	0,5	2,571450
8,367000	0,5	2,574950
8,375333	0,5	2,622000
8,383667	0,5	2,723400
8,392000	0,5	2,878750
8,400333	0,5	3,079400
8,408667	0,5	3,327450
8,417000	0,5	3,633600
8,425333	0,5	4,000900
8,433667	0,5	4,391600
8,442000	0,5	4,709850
8,450333	0,5	4,845650
8,458667	0,5	4,744900
8,467000	0,5	4,425100
8,475333	0,5	3,977400
8,483667	0,5	3,527700
8,492000	0,5	3,151350
8,500333	0,5	2,879150
8,508667	0,5	2,693350
8,517000	0,5	2,565050
8,525333	0,5	2,472150
8,533667	0,5	2,402250
8,542000	0,5	2,336800
8,550333	0,5	2,274750
8,558667	0,5	2,204000
8,567000	0,5	2,145600
8,575333	0,5	2,087350
8,583667	0,5	2,041600
8,592000	0,5	2,001900
8,600333	0,5	1,981350
8,608667	0,5	1,959900
8,617000	0,5	1,941600
8,625333	0,5	1,931500
8,633667	0,5	1,922500
8,642000	0,5	1,917500
8,650333	0,5	1,916800
8,658667	0,5	1,925900
8,667000	0,5	1,938300
8,675333	0,5	1,960600
8,683667	0,5	1,975100
8,692000	0,5	1,977600
8,700333	0,5	1,966550
8,708667	0,5	1,954400
8,717000	0,5	1,935600
8,725333	0,5	1,913000
8,733667	0,5	1,895250
8,742000	0,5	1,874600
8,750333	0,5	1,860950
8,758667	0,5	1,842550
8,767000	0,5	1,832500
8,775333	0,5	1,830300
8,783667	0,5	1,832500
8,792000	0,5	1,849100
8,800333	0,5	1,859150
8,808667	0,5	1,877250
8,817000	0,5	1,895500
8,825333	0,5	1,931000
8,833667	0,5	1,976650
8,842000	0,5	2,037550
8,850333	0,5	2,108600
8,858667	0,5	2,194850
8,867000	0,5	2,285500
8,875333	0,5	2,369750
8,883667	0,5	2,437750
8,892000	0,5	2,479450
8,900333	0,5	2,487500
8,908667	0,5	2,470600
8,917000	0,5	2,425500
8,925333	0,5	2,369750
8,933667	0,5	2,322700
8,942000	0,5	2,284650
8,950333	0,5	2,274850
8,958667	0,5	2,294500
8,967000	0,5	2,335950
8,975333	0,5	2,390600
8,983667	0,5	2,435050
8,992000	0,5	2,474300
9,000333	0,5	2,505350
9,008667	0,5	2,539000
9,017000	0,5	2,563050
9,025333	0,5	2,580750
9,033667	0,5	2,572450
9,042000	0,5	2,547750
9,050333	0,5	2,512550
9,058667	0,5	2,493750
9,067000	0,5	2,491900
9,075333	0,5	2,521550
9,083667	0,5	2,578950
9,092000	0,5	2,649650
9,100333	0,5	2,728700
9,108667	0,5	2,798100
9,117000	0,5	2,840100
9,125333	0,5	2,838150
9,133667	0,5	2,770500
9,142000	0,5	2,657200
9,150333	0,5	2,519950
9,158667	0,5	2,376350
9,167000	0,5	2,259850
9,175333	0,5	2,174200
9,183667	0,5	2,138900
9,192000	0,5	2,150600
9,200333	0,5	2,205050
9,208667	0,5	2,293050
9,217000	0,5	2,385300
9,225333	0,5	2,451250
9,233667	0,5	2,479250
9,242000	0,5	2,452700
9,250333	0,5	2,391650
9,258667	0,5	2,315250
9,267000	0,5	2,240300
9,275333	0,5	2,171250
9,283667	0,5	2,108100
9,292000	0,5	2,056750
9,300333	0,5	2,019550
9,308667	0,5	1,987850
9,317000	0,5	1,968400
9,325333	0,5	1,959750
9,333667	0,5	1,958450
9,342000	0,5	1,967100
9,350333	0,5	1,975950
9,358667	0,5	1,988600
9,367000	0,5	1,999950
9,375333	0,5	2,003350
9,383667	0,5	2,014300
9,392000	0,5	2,009000
9,400333	0,5	2,003200
9,408667	0,5	2,000900
9,417000	0,5	1,989350
9,425333	0,5	1,981800
9,433667	0,5	1,962200
9,442000	0,5	1,933750
9,450333	0,5	1,892000
9,458667	0,5	1,862600
9,467000	0,5	1,832000
9,475333	0,5	1,809150
9,483667	0,5	1,788250
9,492000	0,5	1,777650
9,500333	0,5	1,768400
9,508667	0,5	1,759000
9,517000	0,5	1,752100
9,525333	0,5	1,741000
9,533667	0,5	1,729800
9,542000	0,5	1,709700
9,550333	0,5	1,694700
9,558667	0,5	1,681950
9,567000	0,5	1,670750
9,575333	0,5	1,658700
9,583667	0,5	1,652200
9,592000	0,5	1,646450
9,600333	0,5	1,636800
9,608667	0,5	1,636500
9,617000	0,5	1,626350
9,625333	0,5	1,622250
9,633667	0,5	1,611200
9,642000	0,5	1,598200
9,650333	0,5	1,590800
9,658667	0,5	1,578400
9,667000	0,5	1,567150
9,675333	0,5	1,563100
9,683667	0,5	1,562400
9,692000	0,5	1,563450
9,700333	0,5	1,559050
9,708667	0,5	1,552000
9,717000	0,5	1,550750
9,725333	0,5	1,542050
9,733667	0,5	1,532900
9,742000	0,5	1,521400
9,750333	0,5	1,517350
9,758667	0,5	1,509300
9,767000	0,5	1,506050
9,775333	0,5	1,509900
9,783667	0,5	1,515150
9,792000	0,5	1,519800
9,800333	0,5	1,531050
9,808667	0,5	1,540900
9,817000	0,5	1,556500
9,825333	0,5	1,584400
9,833667	0,5	1,609300
9,842000	0,5	1,641900
9,850333	0,5	1,682650
9,858667	0,5	1,733350
9,867000	0,5	1,796200
9,875333	0,5	1,873100
9,883667	0,5	1,976550
9,892000	0,5	2,105800
9,900333	0,5	2,257000
9,908667	0,5	2,410400
9,917000	0,5	2,556200
9,925333	0,5	2,673750
9,933667	0,5	2,746750
9,942000	0,5	2,751400
9,950333	0,5	2,693250
9,958667	0,5	2,571000
9,967000	0,5	2,410000
9,975333	0,5	2,233850
9,983667	0,5	2,058050
9,992000	0,5	1,903550
10,000333	0,5	1,784150
10,008667	0,5	1,701950
10,017000	0,5	1,649250
10,025333	0,5	1,607550
10,033667	0,5	1,578850
10,042000	0,5	1,555350
10,050333	0,5	1,540950
10,058667	0,5	1,528150
10,067000	0,5	1,520550
10,075333	0,5	1,516500
10,083667	0,5	1,512150
10,092000	0,5	1,509400
10,100333	0,5	1,510900
10,108667	0,5	1,515000
10,117000	0,5	1,517700
10,125333	0,5	1,529500
10,133667	0,5	1,539150
10,142000	0,5	1,556550
10,150333	0,5	1,575750
10,158667	0,5	1,602400
10,167000	0,5	1,625500
10,175333	0,5	1,638500
10,183667	0,5	1,639950
10,192000	0,5	1,629050
10,200333	0,5	1,610650
10,208667	0,5	1,586900
10,217000	0,5	1,557400
10,225333	0,5	1,535300
10,233667	0,5	1,510900
10,242000	0,5	1,493000
10,250333	0,5	1,477800
10,258667	0,5	1,463900
10,267000	0,5	1,456350
10,275333	0,5	1,453250
10,283667	0,5	1,455750
10,292000	0,5	1,453100
10,300333	0,5	1,461900
10,308667	0,5	1,467850
10,317000	0,5	1,479400
10,325333	0,5	1,472600
10,333667	0,5	1,465300
10,342000	0,5	1,456850
10,350333	0,5	1,452300
10,358667	0,5	1,448800
10,367000	0,5	1,450250
10,375333	0,5	1,456800
10,383667	0,5	1,470850
10,392000	0,5	1,487850
10,400333	0,5	1,496500
10,408667	0,5	1,514400
10,417000	0,5	1,545150
10,425333	0,5	1,567850
10,433667	0,5	1,608450
10,442000	0,5	1,643850
10,450333	0,5	1,690300
10,458667	0,5	1,733750
10,467000	0,5	1,772500
10,475333	0,5	1,782250
10,483667	0,5	1,776100
10,492000	0,5	1,752100
10,500333	0,5	1,712550
10,508667	0,5	1,681250
10,517000	0,5	1,639700
10,525333	0,5	1,602050
10,533667	0,5	1,558800
10,542000	0,5	1,524650
10,550333	0,5	1,487050
10,558667	0,5	1,460000
10,567000	0,5	1,437800
10,575333	0,5	1,417750
10,583667	0,5	1,402350
10,592000	0,5	1,392550
10,600333	0,5	1,378750
10,608667	0,5	1,377750
10,617000	0,5	1,373050
10,625333	0,5	1,372200
10,633667	0,5	1,366750
10,642000	0,5	1,365050
10,650333	0,5	1,362050
10,658667	0,5	1,360200
10,667000	0,5	1,360250
10,675333	0,5	1,364100
10,683667	0,5	1,378350
10,692000	0,5	1,392600
10,700333	0,5	1,408850
10,708667	0,5	1,441900
10,717000	0,5	1,473400
10,725333	0,5	1,491650
10,733667	0,5	1,497650
10,742000	0,5	1,472050
10,750333	0,5	1,441600
10,758667	0,5	1,390700
10,767000	0,5	1,333350
10,775333	0,5	1,276600
10,783667	0,5	1,232850
10,792000	0,5	1,199900
10,800333	0,5	1,178250
10,808667	0,5	1,173550
10,817000	0,5	1,183050
10,825333	0,5	1,195950
10,833667	0,5	1,224950
10,842000	0,5	1,244650
10,850333	0,5	1,270750
10,858667	0,5	1,297050
10,867000	0,5	1,321000
10,875333	0,5	1,330500
10,883667	0,5	1,341000
10,892000	0,5	1,347950
10,900333	0,5	1,347000
10,908667	0,5	1,346500
10,917000	0,5	1,333350
10,925333	0,5	1,319800
10,933667	0,5	1,314300
10,942000	0,5	1,301300
10,950333	0,5	1,295750
10,958667	0,5	1,295850
10,967000	0,5	1,292050
10,975333	0,5	1,289800
10,983667	0,5	1,290000
10,992000	0,5	1,278750
11,000333	0,5	1,278150
11,008667	0,5	1,278900
11,017000	0,5	1,276350
11,025333	0,5	1,274050
11,033667	0,5	1,269050
11,042000	0,5	1,272100
11,050333	0,5	1,279000
11,058667	0,5	1,277450
11,067000	0,5	1,282600
11,075333	0,5	1,285350
11,083667	0,5	1,291000
11,092000	0,5	1,290800
11,100333	0,5	1,295600
11,108667	0,5	1,290450
11,117000	0,5	1,295650
11,125333	0,5	1,299750
11,133667	0,5	1,303100
11,142000	0,5	1,297000
11,150333	0,5	1,303500
11,158667	0,5	1,299300
11,167000	0,5	1,298000
11,175333	0,5	1,299050
11,183667	0,5	1,289650
11,192000	0,5	1,294050
11,200333	0,5	1,300350
11,208667	0,5	1,303650
11,217000	0,5	1,304500
11,225333	0,5	1,312000
11,233667	0,5	1,317200
11,242000	0,5	1,323400
11,250333	0,5	1,329900
11,258667	0,5	1,342150
11,267000	0,5	1,365750
11,275333	0,5	1,408550
11,283667	0,5	1,461550
11,292000	0,5	1,530100
11,300333	0,5	1,620250
11,308667	0,5	1,698150
11,317000	0,5	1,764850
11,325333	0,5	1,805000
11,333667	0,5	1,812300
11,342000	0,5	1,790050
11,350333	0,5	1,753150
11,358667	0,5	1,704500
11,367000	0,5	1,662000
11,375333	0,5	1,609900
11,383667	0,5	1,571350
11,392000	0,5	1,534350
11,400333	0,5	1,502050
11,408667	0,5	1,472850
11,417000	0,5	1,445750
11,425333	0,5	1,419550
11,433667	0,5	1,401250
11,442000	0,5	1,386150
11,450333	0,5	1,377950
11,458667	0,5	1,370500
11,467000	0,5	1,371850
11,475333	0,5	1,365150
11,483667	0,5	1,374900
11,492000	0,5	1,404200
11,500333	0,5	1,445600
11,508667	0,5	1,501700
11,517000	0,5	1,570350
11,525333	0,5	1,660300
11,533667	0,5	1,748400
11,542000	0,5	1,839850
11,550333	0,5	1,907600
11,558667	0,5	1,955750
11,567000	0,5	1,983800
11,575333	0,5	1,995250
11,583667	0,5	1,977450
11,592000	0,5	1,958100
11,600333	0,5	1,926850
11,608667	0,5	1,884350
11,617000	0,5	1,834050
11,625333	0,5	1,798750
11,633667	0,5	1,777600
11,642000	0,5	1,783200
11,650333	0,5	1,798950
11,658667	0,5	1,839950
11,667000	0,5	1,882800
11,675333	0,5	1,929500
11,683667	0,5	1,958050
11,692000	0,5	1,965150
11,700333	0,5	1,947400
11,708667	0,5	1,904650
11,717000	0,5	1,844350
11,725333	0,5	1,764550
11,733667	0,5	1,686550
11,742000	0,5	1,605150
11,750333	0,5	1,533850
11,758667	0,5	1,463250
11,767000	0,5	1,407550
11,775333	0,5	1,358550
11,783667	0,5	1,331400
11,792000	0,5	1,308850
11,800333	0,5	1,294500
11,808667	0,5	1,278550
11,817000	0,5	1,269200
11,825333	0,5	1,261150
11,833667	0,5	1,254450
11,842000	0,5	1,254350
11,850333	0,5	1,242350
11,858667	0,5	1,243050
11,867000	0,5	1,247950
11,875333	0,5	1,242850
11,883667	0,5	1,247450
11,892000	0,5	1,250500
11,900333	0,5	1,255800
11,908667	0,5	1,260150
11,917000	0,5	1,258350
11,925333	0,5	1,274300
11,933667	0,5	1,292750
11,942000	0,5	1,319400
11,950333	0,5	1,328100
11,958667	0,5	1,348000
11,967000	0,5	1,361350
11,975333	0,5	1,382400
11,983667	0,5	1,406600
11,992000	0,5	1,434100
12,000333	0,5	1,477900
12,008667	0,5	1,525050
12,017000	0,5	1,592200
12,025333	0,5	1,645150
12,033667	0,5	1,716150
12,042000	0,5	1,763850
12,050333	0,5	1,791950
12,058667	0,5	1,797800
12,067000	0,5	1,771350
12,075333	0,5	1,741950
12,083667	0,5	1,710700
12,092000	0,5	1,663500
12,100333	0,5	1,622900
12,108667	0,5	1,589750
12,117000	0,5	1,567500
12,125333	0,5	1,543000
12,133667	0,5	1,536050
12,142000	0,5	1,526300
12,150333	0,5	1,532400
12,158667	0,5	1,535350
12,167000	0,5	1,555550
12,175333	0,5	1,548450
12,183667	0,5	1,570250
12,192000	0,5	1,580700
12,200333	0,5	1,595550
12,208667	0,5	1,610000
12,217000	0,5	1,642450
12,225333	0,5	1,706700
12,233667	0,5	1,778450
12,242000	0,5	1,858800
12,250333	0,5	1,935450
12,258667	0,5	2,004450
12,267000	0,5	2,050600
12,275333	0,5	2,091750
12,283667	0,5	2,120900
12,292000	0,5	2,152400
12,300333	0,5	2,187000
12,308667	0,5	2,228500
12,317000	0,5	2,268750
12,325333	0,5	2,302350
12,333667	0,5	2,333800
12,342000	0,5	2,352650
12,350333	0,5	2,355000
12,358667	0,5	2,349450
12,367000	0,5	2,331550
12,375333	0,5	2,311300
12,383667	0,5	2,279250
12,392000	0,5	2,222300
12,400333	0,5	2,166300
12,408667	0,5	2,109000
12,417000	0,5	2,057450
12,425333	0,5	2,023700
12,433667	0,5	2,037100
12,442000	0,5	2,040950
12,450333	0,5	2,075800
12,458667	0,5	2,113000
12,467000	0,5	2,154500
12,475333	0,5	2,182200
12,483667	0,5	2,199950
12,492000	0,5	2,199300
12,500333	0,5	2,185750
12,508667	0,5	2,158400
12,517000	0,5	2,117850
12,525333	0,5	2,076250
12,533667	0,5	2,028000
12,542000	0,5	1,962500
12,550333	0,5	1,874200
12,558667	0,5	1,785850
12,567000	0,5	1,697300
12,575333	0,5	1,615900
12,583667	0,5	1,545250
12,592000	0,5	1,491200
12,600333	0,5	1,453000
12,608667	0,5	1,415850
12,617000	0,5	1,380800
12,625333	0,5	1,362050
12,633667	0,5	1,334300
12,642000	0,5	1,318300
12,650333	0,5	1,299400
12,658667	0,5	1,283850
12,667000	0,5	1,276200
12,675333	0,5	1,274050
12,683667	0,5	1,269700
12,692000	0,5	1,273100
12,700333	0,5	1,276900
12,708667	0,5	1,283650
12,717000	0,5	1,287950
12,725333	0,5	1,295900
12,733667	0,5	1,294700
12,742000	0,5	1,303200
12,750333	0,5	1,310500
12,758667	0,5	1,303350
12,767000	0,5	1,301900
12,775333	0,5	1,297050
12,783667	0,5	1,297900
12,792000	0,5	1,294450
12,800333	0,5	1,308400
12,808667	0,5	1,328250
12,817000	0,5	1,378950
12,825333	0,5	1,435550
12,833667	0,5	1,478650
12,842000	0,5	1,501400
12,850333	0,5	1,490500
12,858667	0,5	1,414300
12,867000	0,5	1,335300
12,875333	0,5	1,240000
12,883667	0,5	1,138550
12,892000	0,5	1,059100
12,900333	0,5	0,988250
12,908667	0,5	0,912000
12,917000	0,5	0,872150
12,925333	0,5	0,794400
12,933667	0,5	0,705750
12,942000	0,5	0,538350
12,950333	0,5	0,170400
12,958667	0,5	-0,266150
12,967000	0,5	-0,621150
12,975333	0,5	-0,886450
12,983667	0,5	-1,161000
12,992000	0,5	-1,413350
13,000333	0,5	-1,592050
13,008667	0,5	-1,709550
13,017000	0,5	-1,800600
13,025333	0,5	-1,875850
13,033667	0,5	-1,943500
13,042000	0,5	-2,006600
13,050333	0,5	-2,057600
13,058667	0,5	-2,110900
13,067000	0,5	-2,141350
13,075333	0,5	-2,169950
13,083667	0,5	-2,191450
13,092000	0,5	-2,216150
13,100333	0,5	-2,238950
13,108667	0,5	-2,242850
13,117000	0,5	-2,236750
13,125333	0,5	-2,244600
13,133667	0,5	-2,253400
13,142000	0,5	-2,258450
13,150333	0,5	-2,253550
13,158667	0,5	-2,254950
13,167000	0,5	-2,247550
13,175333	0,5	-2,244250
13,183667	0,5	-2,229700
13,192000	0,5	-2,215600
13,200333	0,5	-2,200300
13,208667	0,5	-2,199150
13,217000	0,5	-2,184950
13,225333	0,5	-2,180750
13,233667	0,5	-2,195000
13,242000	0,5	-2,211300
13,250333	0,5	-2,235250
13,258667	0,5	-2,240000
13,267000	0,5	-2,260900
13,275333	0,5	-2,278250
13,283667	0,5	-2,300050
13,292000	0,5	-2,307200
13,300333	0,5	-2,324600
13,308667	0,5	-2,329650
13,317000	0,5	-2,336500
13,325333	0,5	-2,337850
13,333667	0,5	-2,336600
13,342000	0,5	-2,329300
13,350333	0,5	-2,327350
13,358667	0,5	-2,313850
13,367000	0,5	-2,296000
13,375333	0,5	-2,272000
13,383667	0,5	-2,250350
13,392000	0,5	-2,220800
13,400333	0,5	-2,180200
13,408667	0,5	-2,128250
13,417000	0,5	-2,082550
13,425333	0,5	-2,041750
13,433667	0,5	-2,004100
13,442000	0,5	-1,988750
13,450333	0,5	-1,978050
13,458667	0,5	-1,976450
13,467000	0,5	-1,989500
13,475333	0,5	-2,009550
13,483667	0,5	-2,024100
13,492000	0,5	-2,045050
13,500333	0,5	-2,070750
13,508667	0,5	-2,084150
13,517000	0,5	-2,094650
13,525333	0,5	-2,106350
13,533667	0,5	-2,131000
13,542000	0,5	-2,143950
13,550333	0,5	-2,145350
13,558667	0,5	-2,144750
13,567000	0,5	-2,141300
13,575333	0,5	-2,142300
13,583667	0,5	-2,133150
13,592000	0,5	-2,126850
13,600333	0,5	-2,123100
13,608667	0,5	-2,113400
13,617000	0,5	-2,105300
13,625333	0,5	-2,092300
13,633667	0,5	-2,076750
13,642000	0,5	-2,064450
13,650333	0,5	-2,055750
13,658667	0,5	-2,030850
13,667000	0,5	-2,015400
13,675333	0,5	-1,995650
13,683667	0,5	-1,995200
13,692000	0,5	-1,971650
13,700333	0,5	-1,950000
13,708667	0,5	-1,919950
13,717000	0,5	-1,899300
13,725333	0,5	-1,877250
13,733667	0,5	-1,852800
13,742000	0,5	-1,834600
13,750333	0,5	-1,807400
13,758667	0,5	-1,778900
13,767000	0,5	-1,755850
13,775333	0,5	-1,730000
13,783667	0,5	-1,693300
13,792000	0,5	-1,680850
13,800333	0,5	-1,642400
13,808667	0,5	-1,605650
13,817000	0,5	-1,576800
13,825333	0,5	-1,543150
13,833667	0,5	-1,519600
13,842000	0,5	-1,494300
13,850333	0,5	-1,454250
13,858667	0,5	-1,420150
13,867000	0,5	-1,379350
13,875333	0,5	-1,354550
13,883667	0,5	-1,326100
13,892000	0,5	-1,306500
13,900333	0,5	-1,291550
13,908667	0,5	-1,274450
13,917000	0,5	-1,264100
13,925333	0,5	-1,242450
13,933667	0,5	-1,227550
13,942000	0,5	-1,225100
13,950333	0,5	-1,199950
13,958667	0,5	-1,176400
13,967000	0,5	-1,159800
13,975333	0,5	-1,137550
13,983667	0,5	-1,121600
13,992000	0,5	-1,077900
14,000333	0,5	-1,047000
14,008667	0,5	-1,002900
14,017000	0,5	-0,961850
14,025333	0,5	-0,901550
14,033667	0,5	-0,841950
14,042000	0,5	-0,757900
14,050333	0,5	-0,678100
14,058667	0,5	-0,579100
14,067000	0,5	-0,485350
14,075333	0,5	-0,391400
14,083667	0,5	-0,326850
14,092000	0,5	-0,271250
14,100333	0,5	-0,211150
14,108667	0,5	-0,171650
14,117000	0,5	-0,147200
14,125333	0,5	-0,139500
14,133667	0,5	-0,142200
14,142000	0,5	-0,138750
14,150333	0,5	-0,130850
14,158667	0,5	-0,126950
14,167000	0,5	-0,090250
14,175333	0,5	-0,033450
14,183667	0,5	0,040900
14,192000	0,5	0,126400
14,200333	0,5	0,217350
14,208667	0,5	0,286300
14,217000	0,5	0,354350
14,225333	0,5	0,394750
14,233667	0,5	0,406150
14,242000	0,5	0,402400
14,250333	0,5	0,395300
14,258667	0,5	0,375350
14,267000	0,5	0,349300
14,275333	0,5	0,330550
14,283667	0,5	0,321600
14,292000	0,5	0,334350
14,300333	0,5	0,329900
14,308667	0,5	0,340300
14,317000	0,5	0,342050
14,325333	0,5	0,343100
14,333667	0,5	0,347200
14,342000	0,5	0,353200
14,350333	0,5	0,353650
14,358667	0,5	0,358650
14,367000	0,5	0,363450
14,375333	0,5	0,384450
14,383667	0,5	0,370550
14,392000	0,5	0,386800
14,400333	0,5	0,392000
14,408667	0,5	0,395950
14,417000	0,5	0,393950
14,425333	0,5	0,395650
14,433667	0,5	0,417400
14,442000	0,5	0,444550
14,450333	0,5	0,458000
14,458667	0,5	0,476200
14,467000	0,5	0,492250
14,475333	0,5	0,506150
14,483667	0,5	0,502100
14,492000	0,5	0,495000
14,500333	0,5	0,480650
14,508667	0,5	0,459400
14,517000	0,5	0,454600
14,525333	0,5	0,431850
14,533667	0,5	0,411550
14,542000	0,5	0,399300
14,550333	0,5	0,389600
14,558667	0,5	0,372900
14,567000	0,5	0,356800
14,575333	0,5	0,347250
14,583667	0,5	0,348550
14,592000	0,5	0,351600
14,600333	0,5	0,354650
14,608667	0,5	0,354550
14,617000	0,5	0,355550
14,625333	0,5	0,361050
14,633667	0,5	0,367600
14,642000	0,5	0,381550
14,650333	0,5	0,405050
14,658667	0,5	0,470450
14,667000	0,5	0,556000
14,675333	0,5	0,557350
14,683667	0,5	0,775000
14,692000	0,5	0,873750
14,700333	0,5	0,923400
14,708667	0,5	0,930950
14,717000	0,5	0,878000
14,725333	0,5	0,805900
14,733667	0,5	0,734800
14,742000	0,5	0,683950
14,750333	0,5	0,653550
14,758667	0,5	0,658750
14,767000	0,5	0,695850
14,775333	0,5	0,762900
14,783667	0,5	0,838000
14,792000	0,5	0,892000
14,800333	0,5	0,905900
14,808667	0,5	0,882500
14,817000	0,5	0,818800
14,825333	0,5	0,731800
14,833667	0,5	0,666250
14,842000	0,5	0,606200
14,850333	0,5	0,552350
14,858667	0,5	0,503950
14,867000	0,5	0,472050
14,875333	0,5	0,462850
14,883667	0,5	0,468150
14,892000	0,5	0,469350
14,900333	0,5	0,484250
14,908667	0,5	0,505600
14,917000	0,5	0,535950
14,925333	0,5	0,558350
14,933667	0,5	0,589600
14,942000	0,5	0,603950
14,950333	0,5	0,607400
14,958667	0,5	0,610950
14,967000	0,5	0,583700
14,975333	0,5	0,556500
14,983667	0,5	0,538450
14,992000	0,5	0,519200
15,000333	0,5	0,495300
15,008667	0,5	0,457450
15,017000	0,5	0,423450
15,025333	0,5	0,404550
15,033667	0,5	0,376050
15,042000	0,5	0,350200
15,050333	0,5	0,319650
15,058667	0,5	0,297000
15,067000	0,5	0,270300
15,075333	0,5	0,262350
15,083667	0,5	0,250800
15,092000	0,5	0,240650
15,100333	0,5	0,236550
15,108667	0,5	0,235300
15,117000	0,5	0,215900
15,125333	0,5	0,213600
15,133667	0,5	0,217500
15,142000	0,5	0,222100
15,150333	0,5	0,227400
15,158667	0,5	0,236100
15,167000	0,5	0,280250
15,175333	0,5	0,362200
15,183667	0,5	0,479500
15,192000	0,5	0,607900
15,200333	0,5	0,756400
15,208667	0,5	0,866550
15,217000	0,5	0,929050
15,225333	0,5	0,920850
15,233667	0,5	0,868150
15,242000	0,5	0,795650
15,250333	0,5	0,739550
15,258667	0,5	0,716400
15,267000	0,5	0,721600
15,275333	0,5	0,785050
15,283667	0,5	0,832800
15,292000	0,5	0,859900
15,300333	0,5	0,832850
15,308667	0,5	0,747600
15,317000	0,5	0,665550
15,325333	0,5	0,581800
15,333667	0,5	0,491350
15,342000	0,5	0,442950
15,350333	0,5	0,401900
15,358667	0,5	0,379750
15,367000	0,5	0,360450
15,375333	0,5	0,352000
15,383667	0,5	0,333000
15,392000	0,5	0,315350
15,400333	0,5	0,304750
15,408667	0,5	0,290850
15,417000	0,5	0,270700
15,425333	0,5	0,279500
15,433667	0,5	0,275000
15,442000	0,5	0,282850
15,450333	0,5	0,270300
15,458667	0,5	0,250650
15,467000	0,5	0,255650
15,475333	0,5	0,237850
15,483667	0,5	0,221250
15,492000	0,5	0,197400
15,500333	0,5	0,172100
15,508667	0,5	0,137350
15,517000	0,5	0,116850
15,525333	0,5	0,097150
15,533667	0,5	0,072500
15,542000	0,5	0,058950
15,550333	0,5	0,051550
15,558667	0,5	0,022850
15,567000	0,5	0,015200
15,575333	0,5	0,004100
15,583667	0,5	-0,004550
15,592000	0,5	-0,012150
15,600333	0,5	-0,019400
15,608667	0,5	-0,000450
15,617000	0,5	0,053100
15,625333	0,5	0,134950
15,633667	0,5	0,248950
15,642000	0,5	0,390100
15,650333	0,5	0,521600
15,658667	0,5	0,611500
15,667000	0,5	0,648200
15,675333	0,5	0,627100
15,683667	0,5	0,580150
15,692000	0,5	0,558100
15,700333	0,5	0,550900
15,708667	0,5	0,575650
15,717000	0,5	0,611400
15,725333	0,5	0,642350
15,733667	0,5	0,622200
15,742000	0,5	0,560400
15,750333	0,5	0,468500
15,758667	0,5	0,384950
15,767000	0,5	0,304250
15,775333	0,5	0,224100
15,783667	0,5	0,164300
15,792000	0,5	0,127550
15,800333	0,5	0,104250
15,808667	0,5	0,082550
15,817000	0,5	0,077150
15,825333	0,5	0,071200
15,833667	0,5	0,085600
15,842000	0,5	0,092150
15,850333	0,5	0,093150
15,858667	0,5	0,087550
15,867000	0,5	0,087700
15,875333	0,5	0,067150
15,883667	0,5	0,042450
15,892000	0,5	0,001000
15,900333	0,5	-0,025600
15,908667	0,5	-0,048250
15,917000	0,5	-0,071600
15,925333	0,5	-0,097750
15,933667	0,5	-0,111100
15,942000	0,5	-0,129350
15,950333	0,5	-0,138500
15,958667	0,5	-0,152100
15,967000	0,5	-0,160400
15,975333	0,5	-0,179850
15,983667	0,5	-0,185850
15,992000	0,5	-0,179850
16,000333	0,5	-0,190300
16,008667	0,5	-0,160100
16,017000	0,5	-0,115650
16,025333	0,5	-0,044850
16,033667	0,5	0,058850
16,042000	0,5	0,179600
16,050333	0,5	0,319450
16,058667	0,5	0,438550
16,067000	0,5	0,493300
16,075333	0,5	0,512600
16,083667	0,5	0,497650
16,092000	0,5	0,492100
16,100333	0,5	0,497700
16,108667	0,5	0,518550
16,117000	0,5	0,521800
16,125333	0,5	0,480700
16,133667	0,5	0,421450
16,142000	0,5	0,337450
16,150333	0,5	0,228950
16,158667	0,5	0,159700
16,167000	0,5	0,105700
16,175333	0,5	0,061400
16,183667	0,5	0,029500
16,192000	0,5	0,004550
16,200333	0,5	0,022450
16,208667	0,5	0,027050
16,217000	0,5	0,029100
16,225333	0,5	0,028900
16,233667	0,5	0,037600
16,242000	0,5	0,026450
16,250333	0,5	0,021450
16,258667	0,5	0,006650
16,267000	0,5	-0,011300
16,275333	0,5	-0,038000
16,283667	0,5	-0,052800
16,292000	0,5	-0,085650
16,300333	0,5	-0,123150
16,308667	0,5	-0,137150
16,317000	0,5	-0,166850
16,325333	0,5	-0,198600
16,333667	0,5	-0,238000
16,342000	0,5	-0,264150
16,350333	0,5	-0,271000
16,358667	0,5	-0,269350
16,367000	0,5	-0,271600
16,375333	0,5	-0,252500
16,383667	0,5	-0,228750
16,392000	0,5	-0,154200
16,400333	0,5	-0,047750
16,408667	0,5	0,086450
16,417000	0,5	0,221400
16,425333	0,5	0,339850
16,433667	0,5	0,419950
16,442000	0,5	0,433350
16,450333	0,5	0,435350
16,458667	0,5	0,440000
16,467000	0,5	0,425000
16,475333	0,5	0,388850
16,483667	0,5	0,333350
16,492000	0,5	0,266300
16,500333	0,5	0,203500
16,508667	0,5	0,130100
16,517000	0,5	0,084300
16,525333	0,5	0,043200
16,533667	0,5	0,042900
16,542000	0,5	0,048850
16,550333	0,5	0,069250
16,558667	0,5	0,090300
16,567000	0,5	0,118500
16,575333	0,5	0,135400
16,583667	0,5	0,146150
16,592000	0,5	0,131800
16,600333	0,5	0,142100
16,608667	0,5	0,128150
16,617000	0,5	0,110350
16,625333	0,5	0,076250
16,633667	0,5	0,039500
16,642000	0,5	0,036150
16,650333	0,5	0,029400
16,658667	0,5	0,023000
16,667000	0,5	0,024550
16,675333	0,5	0,020800
16,683667	0,5	0,005900
16,692000	0,5	-0,003650
16,700333	0,5	-0,021500
16,708667	0,5	-0,027350
16,717000	0,5	-0,017750
16,725333	0,5	0,031000
16,733667	0,5	0,087650
16,742000	0,5	0,178750
16,750333	0,5	0,284350
16,758667	0,5	0,360700
16,767000	0,5	0,403500
16,775333	0,5	0,396350
16,783667	0,5	0,370250
16,792000	0,5	0,356150
16,800333	0,5	0,338900
16,808667	0,5	0,298050
16,817000	0,5	0,244100
16,825333	0,5	0,169700
16,833667	0,5	0,094200
16,842000	0,5	0,023750
16,850333	0,5	-0,015100
16,858667	0,5	-0,055450
16,867000	0,5	-0,066850
16,875333	0,5	-0,078400
16,883667	0,5	-0,098450
16,892000	0,5	-0,111400
16,900333	0,5	-0,104350
16,908667	0,5	-0,121400
16,917000	0,5	-0,139050
16,925333	0,5	-0,177600
16,933667	0,5	-0,187000
16,942000	0,5	-0,202600
16,950333	0,5	-0,218700
16,958667	0,5	-0,234100
16,967000	0,5	-0,246700
16,975333	0,5	-0,256800
16,983667	0,5	-0,267950
16,992000	0,5	-0,262250
17,000333	0,5	-0,248700
17,008667	0,5	-0,213000
17,017000	0,5	-0,155600
17,025333	0,5	-0,080200
17,033667	0,5	0,019000
17,042000	0,5	0,164600
17,050333	0,5	0,315250
17,058667	0,5	0,453600
17,067000	0,5	0,565000
17,075333	0,5	0,675600
17,083667	0,5	0,813400
17,092000	0,5	0,947900
17,100333	0,5	1,085950
17,108667	0,5	1,240100
17,117000	0,5	1,376050
17,125333	0,5	1,513300
17,133667	0,5	1,652200
17,142000	0,5	1,787000
17,150333	0,5	1,905350
17,158667	0,5	2,011050
17,167000	0,5	2,111150
17,175333	0,5	2,184450
17,183667	0,5	2,245600
17,192000	0,5	2,281750
17,200333	0,5	2,295400
17,208667	0,5	2,254400
17,217000	0,5	2,159750
17,225333	0,5	2,026100
17,233667	0,5	1,877850
17,242000	0,5	1,682650
17,250333	0,5	1,485150
17,258667	0,5	1,285500
17,267000	0,5	1,117600
17,275333	0,5	0,967950
17,283667	0,5	0,871150
17,292000	0,5	0,818050
17,300333	0,5	0,801850
17,308667	0,5	0,842900
17,317000	0,5	0,916900
17,325333	0,5	0,957700
17,333667	0,5	1,012400
17,342000	0,5	1,022100
17,350333	0,5	0,995250
17,358667	0,5	0,944450
17,367000	0,5	0,843650
17,375333	0,5	0,771200
17,383667	0,5	0,683800
17,392000	0,5	0,613700
17,400333	0,5	0,555000
17,408667	0,5	0,543300
17,417000	0,5	0,534750
17,425333	0,5	0,549100
17,433667	0,5	0,567450
17,442000	0,5	0,585050
17,450333	0,5	0,604350
17,458667	0,5	0,613800
17,467000	0,5	0,617550
17,475333	0,5	0,606300
17,483667	0,5	0,593550
17,492000	0,5	0,567600
17,500333	0,5	0,516850
17,508667	0,5	0,441100
17,517000	0,5	0,369200
17,525333	0,5	0,317650
17,533667	0,5	0,287600
17,542000	0,5	0,250600
17,550333	0,5	0,262800
17,558667	0,5	0,280400
17,567000	0,5	0,309150
17,575333	0,5	0,319350
17,583667	0,5	0,326200
17,592000	0,5	0,295800
17,600333	0,5	0,249550
17,608667	0,5	0,199100
17,617000	0,5	0,124300
17,625333	0,5	0,048600
17,633667	0,5	-0,011650
17,642000	0,5	-0,069150
17,650333	0,5	-0,119200
17,658667	0,5	-0,172700
17,667000	0,5	-0,220250
17,675333	0,5	-0,235050
17,683667	0,5	-0,261100
17,692000	0,5	-0,276350
17,700333	0,5	-0,313850
17,708667	0,5	-0,329850
17,717000	0,5	-0,349250
17,725333	0,5	-0,354700
17,733667	0,5	-0,367850
17,742000	0,5	-0,376250
17,750333	0,5	-0,356200
17,758667	0,5	-0,333800
17,767000	0,5	-0,315550
17,775333	0,5	-0,254350
17,783667	0,5	-0,186800
17,792000	0,5	-0,148100
17,800333	0,5	-0,127300
17,808667	0,5	-0,124900
17,817000	0,5	-0,122050
17,825333	0,5	-0,150500
17,833667	0,5	-0,184700
17,842000	0,5	-0,230600
17,850333	0,5	-0,263350
17,858667	0,5	-0,311250
17,867000	0,5	-0,339850
17,875333	0,5	-0,368900
17,883667	0,5	-0,390200
17,892000	0,5	-0,411050
17,900333	0,5	-0,408450
17,908667	0,5	-0,447200
17,917000	0,5	-0,452700
17,925333	0,5	-0,457100
17,933667	0,5	-0,449300
17,942000	0,5	-0,454200
17,950333	0,5	-0,465900
17,958667	0,5	-0,446950
17,967000	0,5	-0,417300
17,975333	0,5	-0,371600
17,983667	0,5	-0,316900
17,992000	0,5	-0,261500
18,000333	0,5	-0,228850
18,008667	0,5	-0,207750
18,017000	0,5	-0,210700
18,025333	0,5	-0,228800
18,033667	0,5	-0,264250
18,042000	0,5	-0,296900
18,050333	0,5	-0,322450
18,058667	0,5	-0,361700
18,067000	0,5	-0,383300
18,075333	0,5	-0,393800
18,083667	0,5	-0,416250
18,092000	0,5	-0,433250
18,100333	0,5	-0,469500
18,108667	0,5	-0,481000
18,117000	0,5	-0,471850
18,125333	0,5	-0,467500
18,133667	0,5	-0,465150
18,142000	0,5	-0,456800
18,150333	0,5	-0,441050
18,158667	0,5	-0,413200
18,167000	0,5	-0,369500
18,175333	0,5	-0,316850
18,183667	0,5	-0,272550
18,192000	0,5	-0,238150
18,200333	0,5	-0,212300
18,208667	0,5	-0,246300
18,217000	0,5	-0,241750
18,225333	0,5	-0,263750
18,233667	0,5	-0,286900
18,242000	0,5	-0,320900
18,250333	0,5	-0,353500
18,258667	0,5	-0,355500
18,267000	0,5	-0,364150
18,275333	0,5	-0,385250
18,283667	0,5	-0,403550
18,292000	0,5	-0,420850
18,300333	0,5	-0,437650
18,308667	0,5	-0,451650
18,317000	0,5	-0,455100
18,325333	0,5	-0,447100
18,333667	0,5	-0,435600
18,342000	0,5	-0,399050
18,350333	0,5	-0,387750
18,358667	0,5	-0,369200
18,367000	0,5	-0,337450
18,375333	0,5	-0,323950
18,383667	0,5	-0,350000
18,392000	0,5	-0,383950
18,400333	0,5	-0,425050
18,408667	0,5	-0,444600
18,417000	0,5	-0,464900
18,425333	0,5	-0,482850
18,433667	0,5	-0,497500
18,442000	0,5	-0,507500
18,450333	0,5	-0,528750
18,458667	0,5	-0,534650
18,467000	0,5	-0,538400
18,475333	0,5	-0,546650
18,483667	0,5	-0,548250
18,492000	0,5	-0,527500
18,500333	0,5	-0,536900
18,508667	0,5	-0,523650
18,517000	0,5	-0,507550
18,525333	0,5	-0,492350
18,533667	0,5	-0,493200
18,542000	0,5	-0,506200
18,550333	0,5	-0,512150
18,558667	0,5	-0,518250
18,567000	0,5	-0,532500
18,575333	0,5	-0,563600
18,583667	0,5	-0,578700
18,592000	0,5	-0,602250
18,600333	0,5	-0,626300
18,608667	0,5	-0,635000
18,617000	0,5	-0,647300
18,625333	0,5	-0,651900
18,633667	0,5	-0,661450
18,642000	0,5	-0,664400
18,650333	0,5	-0,680750
18,658667	0,5	-0,658900
18,667000	0,5	-0,649900
18,675333	0,5	-0,621950
18,683667	0,5	-0,623350
18,692000	0,5	-0,611200
18,700333	0,5	-0,595350
18,708667	0,5	-0,592500
18,717000	0,5	-0,619500
18,725333	0,5	-0,618300
18,733667	0,5	-0,623050
18,742000	0,5	-0,617550
18,750333	0,5	-0,603750
18,758667	0,5	-0,595800
18,767000	0,5	-0,585650
18,775333	0,5	-0,574400
18,783667	0,5	-0,548450
18,792000	0,5	-0,531750
18,800333	0,5	-0,512250
18,808667	0,5	-0,476100
18,817000	0,5	-0,453750
18,825333	0,5	-0,446100
18,833667	0,5	-0,459900
18,842000	0,5	-0,469450
18,850333	0,5	-0,466700
18,858667	0,5	-0,478600
18,867000	0,5	-0,490950
18,875333	0,5	-0,506900
18,883667	0,5	-0,517200
18,892000	0,5	-0,531850
18,900333	0,5	-0,526150
18,908667	0,5	-0,523750
18,917000	0,5	-0,521950
18,925333	0,5	-0,500300
18,933667	0,5	-0,482100
18,942000	0,5	-0,494250
18,950333	0,5	-0,482900
18,958667	0,5	-0,481900
18,967000	0,5	-0,504500
18,975333	0,5	-0,543250
18,983667	0,5	-0,597100
18,992000	0,5	-0,617050
19,000333	0,5	-0,644450
19,008667	0,5	-0,657250
19,017000	0,5	-0,687750
19,025333	0,5	-0,691150
19,033667	0,5	-0,708350
19,042000	0,5	-0,696950
19,050333	0,5	-0,697100
19,058667	0,5	-0,697450
19,067000	0,5	-0,703250
19,075333	0,5	-0,702450
19,083667	0,5	-0,724900
19,092000	0,5	-0,733850
19,100333	0,5	-0,743950
19,108667	0,5	-0,753700
19,117000	0,5	-0,784100
19,125333	0,5	-0,828350
19,133667	0,5	-0,841550
19,142000	0,5	-0,856000
19,150333	0,5	-0,850200
19,158667	0,5	-0,869200
19,167000	0,5	-0,871800
19,175333	0,5	-0,886850
19,183667	0,5	-0,895650
19,192000	0,5	-0,920350
19,200333	0,5	-0,927150
19,208667	0,5	-0,963450
19,217000	0,5	-0,982750
19,225333	0,5	-0,995700
19,233667	0,5	-1,026350
19,242000	0,5	-1,015950
19,250333	0,5	-1,011200
19,258667	0,5	-1,018450
19,267000	0,5	-1,030150
19,275333	0,5	-1,068450
19,283667	0,5	-1,074400
19,292000	0,5	-1,072200
19,300333	0,5	-1,093500
19,308667	0,5	-1,105000
19,317000	0,5	-1,114600
19,325333	0,5	-1,124400
19,333667	0,5	-1,133400
19,342000	0,5	-1,127600
19,350333	0,5	-1,141300
19,358667	0,5	-1,150250
19,367000	0,5	-1,159550
19,375333	0,5	-1,164900
19,383667	0,5	-1,192850
19,392000	0,5	-1,186400
19,400333	0,5	-1,200200
19,408667	0,5	-1,212750
19,417000	0,5	-1,229400
19,425333	0,5	-1,274050
19,433667	0,5	-1,260050
19,442000	0,5	-1,256400
19,450333	0,5	-1,259300
19,458667	0,5	-1,269650
19,467000	0,5	-1,264750
19,475333	0,5	-1,282500
19,483667	0,5	-1,288700
19,492000	0,5	-1,292800
19,500333	0,5	-1,297550
19,508667	0,5	-1,301450
19,517000	0,5	-1,291300
19,525333	0,5	-1,321100
19,533667	0,5	-1,329400
19,542000	0,5	-1,342150
19,550333	0,5	-1,355100
19,558667	0,5	-1,365800
19,567000	0,5	-1,392800
19,575333	0,5	-1,411450
19,583667	0,5	-1,418300
19,592000	0,5	-1,430800
19,600333	0,5	-1,443000
19,608667	0,5	-1,450300
19,617000	0,5	-1,460800
19,625333	0,5	-1,469750
19,633667	0,5	-1,483600
19,642000	0,5	-1,476800
19,650333	0,5	-1,486150
19,658667	0,5	-1,485600
19,667000	0,5	-1,492350
19,675333	0,5	-1,505550
19,683667	0,5	-1,501550
19,692000	0,5	-1,501400
19,700333	0,5	-1,510150
19,708667	0,5	-1,536450
19,717000	0,5	-1,562300
19,725333	0,5	-1,581950
19,733667	0,5	-1,584350
19,742000	0,5	-1,586200
19,750333	0,5	-1,602950
19,758667	0,5	-1,608300
19,767000	0,5	-1,621650
19,775333	0,5	-1,636650
19,783667	0,5	-1,646250
19,792000	0,5	-1,668200
19,800333	0,5	-1,677200
19,808667	0,5	-1,686850
19,817000	0,5	-1,694750
19,825333	0,5	-1,715850
19,833667	0,5	-1,708700
19,842000	0,5	-1,719800
19,850333	0,5	-1,725050
19,858667	0,5	-1,749350
19,867000	0,5	-1,761600
19,875333	0,5	-1,759300
19,883667	0,5	-1,753450
19,892000	0,5	-1,758800
19,900333	0,5	-1,754000
19,908667	0,5	-1,761350
19,917000	0,5	-1,774150
19,925333	0,5	-1,782500
19,933667	0,5	-1,809600
19,942000	0,5	-1,813500
19,950333	0,5	-1,818400
19,958667	0,5	-1,816700
19,967000	0,5	-1,842150
19,975333	0,5	-1,849850
19,983667	0,5	-1,858300
19,992000	0,5	-1,882100
20,000333	0,5	-1,907350
20,008667	0,5	-1,945950
20,017000	0,5	-1,963250
20,025333	0,5	-1,975500
20,033667	0,5	-2,007000
20,042000	0,5	-2,025650
20,050333	0,5	-2,038750
20,058667	0,5	-2,052900
20,067000	0,5	-2,071650
20,075333	0,5	-2,084300
20,083667	0,5	-2,099950
20,092000	0,5	-2,118200
20,100333	0,5	-2,112250
20,108667	0,5	-2,125400
20,117000	0,5	-2,148600
20,125333	0,5	-2,152750
20,133667	0,5	-2,157350
20,142000	0,5	-2,176500
20,150333	0,5	-2,191450
20,158667	0,5	-2,223100
20,167000	0,5	-2,212550
20,175333	0,5	-2,204550
20,183667	0,5	-2,195600
20,192000	0,5	-2,187550
20,200333	0,5	-2,183800
20,208667	0,5	-2,180400
20,217000	0,5	-2,173600
20,225333	0,5	-2,168950
20,233667	0,5	-2,181200
20,242000	0,5	-2,191150
20,250333	0,5	-2,191300
20,258667	0,5	-2,215800
20,267000	0,5	-2,235550
20,275333	0,5	-2,254900
20,283667	0,5	-2,274350
20,292000	0,5	-2,309100
20,300333	0,5	-2,358000
20,308667	0,5	-2,371100
20,317000	0,5	-2,386650
20,325333	0,5	-2,401950
20,333667	0,5	-2,437300
20,342000	0,5	-2,458600
20,350333	0,5	-2,490150
20,358667	0,5	-2,514150
20,367000	0,5	-2,533150
20,375333	0,5	-2,553950
20,383667	0,5	-2,581850
20,392000	0,5	-2,608850
20,400333	0,5	-2,615650
20,408667	0,5	-2,662600
20,417000	0,5	-2,673050
20,425333	0,5	-2,699400
20,433667	0,5	-2,720350
20,442000	0,5	-2,776500
20,450333	0,5	-2,810450
20,458667	0,5	-2,827450
20,467000	0,5	-2,835150
20,475333	0,5	-2,858600
20,483667	0,5	-2,877350
20,492000	0,5	-2,903500
20,500333	0,5	-2,924350
20,508667	0,5	-2,956800
20,517000	0,5	-2,975350
20,525333	0,5	-2,991450
20,533667	0,5	-3,002050
20,542000	0,5	-2,977650
20,550333	0,5	-2,967300
20,558667	0,5	-2,993900
20,567000	0,5	-3,006450
20,575333	0,5	-3,043700
20,583667	0,5	-3,098750
20,592000	0,5	-3,165650
20,600333	0,5	-3,238400
20,608667	0,5	-3,266600
20,617000	0,5	-3,308750
20,625333	0,5	-3,337800
20,633667	0,5	-3,386000
20,642000	0,5	-3,415250
20,650333	0,5	-3,463350
20,658667	0,5	-3,486250
20,667000	0,5	-3,516200
20,675333	0,5	-3,553950
20,683667	0,5	-3,561550
20,692000	0,5	-3,566650
20,700333	0,5	-3,580450
20,708667	0,5	-3,589450
20,717000	0,5	-3,571800
20,725333	0,5	-3,571350
20,733667	0,5	-3,577650
20,742000	0,5	-3,623900
20,750333	0,5	-3,660150
20,758667	0,5	-3,711350
20,767000	0,5	-3,763950
20,775333	0,5	-3,835700
20,783667	0,5	-3,898150
20,792000	0,5	-3,959550
20,800333	0,5	-4,012750
20,808667	0,5	-4,064000
20,817000	0,5	-4,111800
20,825333	0,5	-4,161700
20,833667	0,5	-4,179450
20,842000	0,5	-4,206500
20,850333	0,5	-4,255900
20,858667	0,5	-4,286800
20,867000	0,5	-4,330100
20,875333	0,5	-4,370800
20,883667	0,5	-4,440550
20,892000	0,5	-4,471200
20,900333	0,5	-4,496050
20,908667	0,5	-4,510950
20,917000	0,5	-4,555000
20,925333	0,5	-4,584350
20,933667	0,5	-4,633150
20,942000	0,5	-4,674400
20,950333	0,5	-4,730250
20,958667	0,5	-4,760200
20,967000	0,5	-4,797600
20,975333	0,5	-4,826550
20,983667	0,5	-4,836350
20,992000	0,5	-4,856900
21,000333	0,5	-4,892850
21,008667	0,5	-4,925000
21,017000	0,5	-4,969750
21,025333	0,5	-5,018350
21,033667	0,5	-5,074350
21,042000	0,5	-5,100800
21,050333	0,5	-5,124800
21,058667	0,5	-5,166200
21,067000	0,5	-5,185650
21,075333	0,5	-5,209700
21,083667	0,5	-5,235800
21,092000	0,5	-5,269550
21,100333	0,5	-5,288200
21,108667	0,5	-5,326650
21,117000	0,5	-5,365000
21,125333	0,5	-5,360600
21,133667	0,5	-5,370100
21,142000	0,5	-5,405500
21,150333	0,5	-5,441750
21,158667	0,5	-5,480750
21,167000	0,5	-5,523400
21,175333	0,5	-5,569400
21,183667	0,5	-5,616250
21,192000	0,5	-5,630150
21,200333	0,5	-5,660400
21,208667	0,5	-5,674100
21,217000	0,5	-5,704200
21,225333	0,5	-5,725300
21,233667	0,5	-5,736900
21,242000	0,5	-5,760050
21,250333	0,5	-5,776400
21,258667	0,5	-5,807200
21,267000	0,5	-5,814100
21,275333	0,5	-5,792850
21,283667	0,5	-5,782000
21,292000	0,5	-5,790300
21,300333	0,5	-5,804650
21,308667	0,5	-5,818650
21,317000	0,5	-5,856800
21,325333	0,5	-5,920200
21,333667	0,5	-5,939200
21,342000	0,5	-5,969900
21,350333	0,5	-5,992300
21,358667	0,5	-6,039350
21,367000	0,5	-6,050500
21,375333	0,5	-6,081300
21,383667	0,5	-6,102200
21,392000	0,5	-6,122050
21,400333	0,5	-6,139950
21,408667	0,5	-6,157150
21,417000	0,5	-6,138900
21,425333	0,5	-6,139750
21,433667	0,5	-6,144300
21,442000	0,5	-6,169950
21,450333	0,5	-6,201300
21,458667	0,5	-6,223300
21,467000	0,5	-6,271450
21,475333	0,5	-6,312550
21,483667	0,5	-6,329600
21,492000	0,5	-6,333800
21,500333	0,5	-6,354900
21,508667	0,5	-6,364350
21,517000	0,5	-6,383050
21,525333	0,5	-6,389600
21,533667	0,5	-6,408950
21,542000	0,5	-6,422700
21,550333	0,5	-6,440250
21,558667	0,5	-6,452400
21,567000	0,5	-6,439000
21,575333	0,5	-6,434300
21,583667	0,5	-6,455100
21,592000	0,5	-6,470650
21,600333	0,5	-6,494050
21,608667	0,5	-6,524750
21,617000	0,5	-6,545300
21,625333	0,5	-6,581450
21,633667	0,5	-6,571800
21,642000	0,5	-6,572300
21,650333	0,5	-6,567500
21,658667	0,5	-6,567000
21,667000	0,5	-6,560250
21,675333	0,5	-6,567800
21,683667	0,5	-6,558250
21,692000	0,5	-6,572350
21,700333	0,5	-6,592200
21,708667	0,5	-6,584750
21,717000	0,5	-6,589950
21,725333	0,5	-6,603000
21,733667	0,5	-6,619850
21,742000	0,5	-6,636950
21,750333	0,5	-6,659050
21,758667	0,5	-6,693800
21,767000	0,5	-6,740250
21,775333	0,5	-6,743750
21,783667	0,5	-6,747650
21,792000	0,5	-6,750200
21,800333	0,5	-6,759800
21,808667	0,5	-6,755300
21,817000	0,5	-6,761950
21,825333	0,5	-6,762800
21,833667	0,5	-6,771000
21,842000	0,5	-6,771600
21,850333	0,5	-6,761200
21,858667	0,5	-6,730950
21,867000	0,5	-6,731100
21,875333	0,5	-6,744850
21,883667	0,5	-6,745600
21,892000	0,5	-6,755650
21,900333	0,5	-6,758800
21,908667	0,5	-6,792450
21,917000	0,5	-6,788300
21,925333	0,5	-6,765350
21,933667	0,5	-6,711550
21,942000	0,5	-6,672750
21,950333	0,5	-6,629900
21,958667	0,5	-6,635500
21,967000	0,5	-6,651600
21,975333	0,5	-6,711800
21,983667	0,5	-6,739350
21,992000	0,5	-6,784250
22,000333	0,5	-6,811200
22,008667	0,5	-6,828750
22,017000	0,5	-6,881050
22,025333	0,5	-6,914000
22,033667	0,5	-6,939700
22,042000	0,5	-6,984150
22,050333	0,5	-7,032200
22,058667	0,5	-7,071800
22,067000	0,5	-7,103000
22,075333	0,5	-7,118300
22,083667	0,5	-7,146750
22,092000	0,5	-7,157950
22,100333	0,5	-7,177250
22,108667	0,5	-7,198050
22,117000	0,5	-7,231400
22,125333	0,5	-7,243700
22,133667	0,5	-7,265150
22,142000	0,5	-7,294150
22,150333	0,5	-7,290600
22,158667	0,5	-7,319000
22,167000	0,5	-7,324250
22,175333	0,5	-7,344550
22,183667	0,5	-7,347850
22,192000	0,5	-7,370300
22,200333	0,5	-7,399250
22,208667	0,5	-7,415400
22,217000	0,5	-7,403850
22,225333	0,5	-7,423050
22,233667	0,5	-7,422150
22,242000	0,5	-7,432800
22,250333	0,5	-7,438850
22,258667	0,5	-7,445250
22,267000	0,5	-7,435000
22,275333	0,5	-7,443500
22,283667	0,5	-7,446550
22,292000	0,5	-7,443450
22,300333	0,5	-7,431400
22,308667	0,5	-7,440050
22,317000	0,5	-7,403550
22,325333	0,5	-7,392000
22,333667	0,5	-7,396750
22,342000	0,5	-7,392500
22,350333	0,5	-7,391650
22,358667	0,5	-7,326850
22,367000	0,5	-7,264750
22,375333	0,5	-7,176150
22,383667	0,5	-7,116400
22,392000	0,5	-7,086700
22,400333	0,5	-7,115300
22,408667	0,5	-7,158550
22,417000	0,5	-7,214600
22,425333	0,5	-7,275200
22,433667	0,5	-7,310150
22,442000	0,5	-7,378900
22,450333	0,5	-7,401600
22,458667	0,5	-7,392900
22,467000	0,5	-7,401750
22,475333	0,5	-7,406400
22,483667	0,5	-7,416550
22,492000	0,5	-7,438050
22,500333	0,5	-7,434200
22,508667	0,5	-7,428900
22,517000	0,5	-7,419950
22,525333	0,5	-7,422050
22,533667	0,5	-7,405450
22,542000	0,5	-7,400150
22,550333	0,5	-7,379450
22,558667	0,5	-7,347250
22,567000	0,5	-7,311600
22,575333	0,5	-7,284050
22,583667	0,5	-7,294050
22,592000	0,5	-7,278400
22,600333	0,5	-7,254450
22,608667	0,5	-7,204000
22,617000	0,5	-7,198100
22,625333	0,5	-7,194300
22,633667	0,5	-7,212800
22,642000	0,5	-7,228950
22,650333	0,5	-7,223800
22,658667	0,5	-7,206700
22,667000	0,5	-7,218300
22,675333	0,5	-7,209250
22,683667	0,5	-7,218250
22,692000	0,5	-7,206500
22,700333	0,5	-7,215400
22,708667	0,5	-7,213050
22,717000	0,5	-7,212550
22,725333	0,5	-7,235550
22,733667	0,5	-7,297900
22,742000	0,5	-7,292050
22,750333	0,5	-7,266050
22,758667	0,5	-7,248200
22,767000	0,5	-7,262700
22,775333	0,5	-7,270500
22,783667	0,5	-7,292100
22,792000	0,5	-7,312300
22,800333	0,5	-7,303000
22,808667	0,5	-7,317650
22,817000	0,5	-7,325450
22,825333	0,5	-7,360700
22,833667	0,5	-7,373200
22,842000	0,5	-7,398900
22,850333	0,5	-7,410650
22,858667	0,5	-7,433150
22,867000	0,5	-7,459350
22,875333	0,5	-7,522100
22,883667	0,5	-7,604550
22,892000	0,5	-7,586700
22,900333	0,5	-7,596100
22,908667	0,5	-7,625350
22,917000	0,5	-7,655250
22,925333	0,5	-7,683300
22,933667	0,5	-7,709500
22,942000	0,5	-7,737900
22,950333	0,5	-7,775000
22,958667	0,5	-7,797400
22,967000	0,5	-7,813500
22,975333	0,5	-7,832650
22,983667	0,5	-7,821300
22,992000	0,5	-7,828150
23,000333	0,5	-7,814950
23,008667	0,5	-7,801200
23,017000	0,5	-7,794000
23,025333	0,5	-7,773050
23,033667	0,5	-7,766650
23,042000	0,5	-7,727250
23,050333	0,5	-7,743950
23,058667	0,5	-7,724550
23,067000	0,5	-7,698350
23,075333	0,5	-7,642300
23,083667	0,5	-7,630550
23,092000	0,5	-7,599600
23,100333	0,5	-7,573800
23,108667	0,5	-7,516200
23,117000	0,5	-7,473100
23,125333	0,5	-7,410650
23,133667	0,5	-7,355650
23,142000	0,5	-7,279700
23,150333	0,5	-7,216400
23,158667	0,5	-7,137450
23,167000	0,5	-7,029500
23,175333	0,5	-6,966450
23,183667	0,5	-6,870650
23,192000	0,5	-6,810550
23,200333	0,5	-6,774050
23,208667	0,5	-6,703200
23,217000	0,5	-6,625750
23,225333	0,5	-6,529800
23,233667	0,5	-6,465050
23,242000	0,5	-6,401100
23,250333	0,5	-6,323700
23,258667	0,5	-6,246850
23,267000	0,5	-6,164100
23,275333	0,5	-6,081550
23,283667	0,5	-5,987200
23,292000	0,5	-5,914450
23,300333	0,5	-5,820650
23,308667	0,5	-5,723600
23,317000	0,5	-5,611550
23,325333	0,5	-5,533550
23,333667	0,5	-5,422000
23,342000	0,5	-5,359200
23,350333	0,5	-5,299150
23,358667	0,5	-5,224300
23,367000	0,5	-5,142600
23,375333	0,5	-5,046550
23,383667	0,5	-5,001100
23,392000	0,5	-4,936000
23,400333	0,5	-4,870300
23,408667	0,5	-4,796500
23,417000	0,5	-4,733900
23,425333	0,5	-4,653100
23,433667	0,5	-4,592700
23,442000	0,5	-4,512350
23,450333	0,5	-4,448550
23,458667	0,5	-4,357850
23,467000	0,5	-4,369250
23,475333	0,5	-4,277950
23,483667	0,5	-4,157650
23,492000	0,5	-4,089150
23,500333	0,5	-4,042000
23,508667	0,5	-3,984450
23,517000	0,5	-3,920600
23,525333	0,5	-3,868450
23,533667	0,5	-3,828600
23,542000	0,5	-3,790700
23,550333	0,5	-3,741850
23,558667	0,5	-3,699450
23,567000	0,5	-3,655000
23,575333	0,5	-3,615450
23,583667	0,5	-3,575950
23,592000	0,5	-3,534500
23,600333	0,5	-3,486250
23,608667	0,5	-3,490500
23,617000	0,5	-3,535600
23,625333	0,5	-3,448650
23,633667	0,5	-3,362350
23,642000	0,5	-3,319100
23,650333	0,5	-3,283950
23,658667	0,5	-3,247300
23,667000	0,5	-3,212400
23,675333	0,5	-3,184650
23,683667	0,5	-3,164650
23,692000	0,5	-3,137150
23,700333	0,5	-3,107700
23,708667	0,5	-3,079750
23,717000	0,5	-3,049850
23,725333	0,5	-3,019000
23,733667	0,5	-2,989600
23,742000	0,5	-2,958500
23,750333	0,5	-2,935200
23,758667	0,5	-3,091850
23,767000	0,5	-3,042100
23,775333	0,5	-2,999450
23,783667	0,5	-2,909050
23,792000	0,5	-2,870950
23,800333	0,5	-2,839800
23,808667	0,5	-2,824750
23,817000	0,5	-2,808850
23,825333	0,5	-2,785100
23,833667	0,5	-2,761250
23,842000	0,5	-2,739800
23,850333	0,5	-2,719650
23,858667	0,5	-2,697450
23,867000	0,5	-2,670900
23,875333	0,5	-2,643900
23,883667	0,5	-2,621250
23,892000	0,5	-2,586450
23,900333	0,5	-2,594350
23,908667	0,5	-2,737200
23,917000	0,5	-2,702800
23,925333	0,5	-2,610900
23,933667	0,5	-2,543300
23,942000	0,5	-2,494700
23,950333	0,5	-2,464800
23,958667	0,5	-2,452000
23,967000	0,5	-2,434450
23,975333	0,5	-2,414100
23,983667	0,5	-2,393350
23,992000	0,5	-2,366350
24,000333	0,5	-2,341050
24,008667	0,5	-2,320400
24,017000	0,5	-2,302800
24,025333	0,5	-2,272550
24,033667	0,5	-2,248100
24,042000	0,5	-2,231150
24,050333	0,5	-2,327600
24,058667	0,5	-2,374650
24,067000	0,5	-2,332100
24,075333	0,5	-2,260400
24,083667	0,5	-2,195800
24,092000	0,5	-2,167500
24,100333	0,5	-2,140700
24,108667	0,5	-2,133200
24,117000	0,5	-2,096450
24,125333	0,5	-2,068600
24,133667	0,5	-2,036100
24,142000	0,5	-2,012450
24,150333	0,5	-1,984900
24,158667	0,5	-1,957300
24,167000	0,5	-1,931400
24,175333	0,5	-1,904050
24,183667	0,5	-1,882000
24,192000	0,5	-1,863300
24,200333	0,5	-2,010000
24,208667	0,5	-1,977200
24,217000	0,5	-1,931350
24,225333	0,5	-1,868200
24,233667	0,5	-1,821750
24,242000	0,5	-1,794550
24,250333	0,5	-1,777600
24,258667	0,5	-1,773150
24,267000	0,5	-1,744200
24,275333	0,5	-1,710550
24,283667	0,5	-1,702300
24,292000	0,5	-1,670750
24,300333	0,5	-1,650350
24,308667	0,5	-1,622100
24,317000	0,5	-1,602100
24,325333	0,5	-1,571900
24,333667	0,5	-1,555300
24,342000	0,5	-1,580850
24,350333	0,5	-1,649300
24,358667	0,5	-1,616900
24,367000	0,5	-1,566600
24,375333	0,5	-1,512250
24,383667	0,5	-1,479950
24,392000	0,5	-1,461000
24,400333	0,5	-1,443750
24,408667	0,5	-1,440350
24,417000	0,5	-1,404300
24,425333	0,5	-1,382850
24,433667	0,5	-1,364500
24,442000	0,5	-1,349850
24,450333	0,5	-1,327100
24,458667	0,5	-1,312600
24,467000	0,5	-1,289650
24,475333	0,5	-1,272600
24,483667	0,5	-1,265600
24,492000	0,5	-1,345800
24,500333	0,5	-1,327000
24,508667	0,5	-1,314150
24,517000	0,5	-1,267450
24,525333	0,5	-1,236600
24,533667	0,5	-1,212100
24,542000	0,5	-1,199750
24,550333	0,5	-1,193700
24,558667	0,5	-1,172000
24,567000	0,5	-1,151900
24,575333	0,5	-1,132650
24,583667	0,5	-1,118600
24,592000	0,5	-1,100150
24,600333	0,5	-1,083950
24,608667	0,5	-1,066650
24,617000	0,5	-1,047100
24,625333	0,5	-1,023650
24,633667	0,5	-1,029550
24,642000	0,5	-1,093650
24,650333	0,5	-1,066750
24,658667	0,5	-1,043750
24,667000	0,5	-1,011750
24,675333	0,5	-0,989650
24,683667	0,5	-0,978900
24,692000	0,5	-0,978450
24,700333	0,5	-0,980850
24,708667	0,5	-0,966000
24,717000	0,5	-0,959900
24,725333	0,5	-0,949950
24,733667	0,5	-0,935450
24,742000	0,5	-0,921750
24,750333	0,5	-0,907000
24,758667	0,5	-0,899750
24,767000	0,5	-0,883900
24,775333	0,5	-0,868800
24,783667	0,5	-0,884750
24,792000	0,5	-0,915050
24,800333	0,5	-0,885200
24,808667	0,5	-0,862450
24,817000	0,5	-0,842800
24,825333	0,5	-0,828400
24,833667	0,5	-0,811250
24,842000	0,5	-0,811950
24,850333	0,5	-0,808700
24,858667	0,5	-0,796800
24,867000	0,5	-0,789350
24,875333	0,5	-0,779800
24,883667	0,5	-0,776450
24,892000	0,5	-0,771800
24,900333	0,5	-0,764550
24,908667	0,5	-0,755800
24,917000	0,5	-0,750950
24,925333	0,5	-0,745900
24,933667	0,5	-0,775050
24,942000	0,5	-0,765550
24,950333	0,5	-0,758900
24,958667	0,5	-0,739150
24,967000	0,5	-0,722500
24,975333	0,5	-0,714400
24,983667	0,5	-0,710000
24,992000	0,5	-0,711100
25,000333	0,5	-0,702300
25,008667	0,5	-0,691500
25,017000	0,5	-0,684150
25,025333	0,5	-0,678650
25,033667	0,5	-0,667400
25,042000	0,5	-0,662650
25,050333	0,5	-0,657100
25,058667	0,5	-0,652050
25,067000	0,5	-0,649000
25,075333	0,5	-0,649050
25,083667	0,5	-0,665850
25,092000	0,5	-0,659600
25,100333	0,5	-0,651750
25,108667	0,5	-0,650050
25,117000	0,5	-0,643650
25,125333	0,5	-0,637150
25,133667	0,5	-0,640700
25,142000	0,5	-0,637750
25,150333	0,5	-0,630000
25,158667	0,5	-0,625250
25,167000	0,5	-0,625400
25,175333	0,5	-0,619650
25,183667	0,5	-0,610650
25,192000	0,5	-0,613500
25,200333	0,5	-0,606650
25,208667	0,5	-0,599700
25,217000	0,5	-0,593050
25,225333	0,5	-0,596350
25,233667	0,5	-0,594700
25,242000	0,5	-0,586100
25,250333	0,5	-0,581350
25,258667	0,5	-0,584800
25,267000	0,5	-0,579700
25,275333	0,5	-0,578900
25,283667	0,5	-0,585850
25,292000	0,5	-0,582400
25,300333	0,5	-0,584700
25,308667	0,5	-0,582600
25,317000	0,5	-0,584750
25,325333	0,5	-0,580800
25,333667	0,5	-0,581150
25,342000	0,5	-0,580750
25,350333	0,5	-0,578350
25,358667	0,5	-0,573750
25,367000	0,5	-0,567550
25,375333	0,5	-0,563100
25,383667	0,5	-0,556200
25,392000	0,5	-0,553050
25,400333	0,5	-0,553150
25,408667	0,5	-0,551750
25,417000	0,5	-0,548050
25,425333	0,5	-0,550450
25,433667	0,5	-0,549150
25,442000	0,5	-0,541600
25,450333	0,5	-0,540600
25,458667	0,5	-0,544100
25,467000	0,5	-0,542050
25,475333	0,5	-0,541150
25,483667	0,5	-0,546200
25,492000	0,5	-0,547750
25,500333	0,5	-0,546200
25,508667	0,5	-0,545100
25,517000	0,5	-0,549050
25,525333	0,5	-0,533100
25,533667	0,5	-0,533650
25,542000	0,5	-0,529750
25,550333	0,5	-0,535000
25,558667	0,5	-0,535700
25,567000	0,5	-0,532050
25,575333	0,5	-0,528350
25,583667	0,5	-0,522650
25,592000	0,5	-0,527450
25,600333	0,5	-0,526350
25,608667	0,5	-0,523950
25,617000	0,5	-0,523200
25,625333	0,5	-0,523000
25,633667	0,5	-0,520200
25,642000	0,5	-0,522450
25,650333	0,5	-0,522650
25,658667	0,5	-0,521000
25,667000	0,5	-0,515850
25,675333	0,5	-0,505700
25,683667	0,5	-0,502950
25,692000	0,5	-0,503950
25,700333	0,5	-0,517400
25,708667	0,5	-0,517750
25,717000	0,5	-0,517900
25,725333	0,5	-0,516600
25,733667	0,5	-0,510450
25,742000	0,5	-0,508850
25,750333	0,5	-0,512800
25,758667	0,5	-0,511900
25,767000	0,5	-0,512350
25,775333	0,5	-0,511000
25,783667	0,5	-0,512450
25,792000	0,5	-0,506800
25,800333	0,5	-0,508350
25,808667	0,5	-0,504400
25,817000	0,5	-0,490850
25,825333	0,5	-0,484450
25,833667	0,5	-0,488000
25,842000	0,5	-0,490100
25,850333	0,5	-0,498200
25,858667	0,5	-0,498500
25,867000	0,5	-0,494100
25,875333	0,5	-0,484350
25,883667	0,5	-0,477350
25,892000	0,5	-0,479800
25,900333	0,5	-0,483600
25,908667	0,5	-0,480850
25,917000	0,5	-0,485050
25,925333	0,5	-0,484650
25,933667	0,5	-0,478500
25,942000	0,5	-0,480450
25,950333	0,5	-0,475700
25,958667	0,5	-0,475550
25,967000	0,5	-0,454050
25,975333	0,5	-0,449600
25,983667	0,5	-0,444200
25,992000	0,5	-0,452500
26,000333	0,5	-0,454050
