File Path	chrom://chromeleon01/ikbm_chromeleon/2022/ICS-5000/ED1/Esteban/20220427_Cell_Amandas_mutants.seq/362.smp/ED_1.channel/ED_1.chm
Channel	ED_1

Injection Information:
Data Vault	ikbm_chromeleon
Injection	EG_BMCC_C-NE
Injection Number	64
Position	GB8
Comment	
Processing Method	Stop sequence after Cell Death
Instrument Method	ICS5000_PA200_FullNative_Ox_26min_ED1
Type	Unknown
Status	Finished
Injection Date	28.04.2022
Injection Time	19:04:05
Injection Volume (µl)	5,0
Dilution Factor	1,0000
Weight	1,0000

Chromatogram Data Information:
Time Min. (min)	0,000333
Time Max. (min)	26,000333
Data Points	3121
Detector	EDet1
Generating Data System	Chromeleon 7.2.9.11323
Exporting Data System	Chromeleon 7.2.9.0
Operator	Instrument Controller
Signal Quantity	
Signal Unit	nC
Signal Min.	-8,544450
Signal Max.	1 261,937069
Channel	ED_1
Driver Name	DC-5000
Channel Type	Evaluation
Min. Step (s)	0,5
Max. Step (s)	0,5
Average Step (s)	0,5

Signal Parameter Information:
Signal Info	

Chromatogram Data:
Time (min)	Step (s)	Value (nC)
0,000333	n.a.	-0,090750
0,008667	0,5	-0,099500
0,017000	0,5	-0,084650
0,025333	0,5	-0,081550
0,033667	0,5	-0,071500
0,042000	0,5	-0,061200
0,050333	0,5	-0,015500
0,058667	0,5	0,013250
0,067000	0,5	0,009950
0,075333	0,5	-0,001850
0,083667	0,5	0,001200
0,092000	0,5	0,008700
0,100333	0,5	-0,003350
0,108667	0,5	0,003500
0,117000	0,5	0,004200
0,125333	0,5	0,011500
0,133667	0,5	-0,004050
0,142000	0,5	0,001300
0,150333	0,5	-0,028700
0,158667	0,5	0,014750
0,167000	0,5	0,009250
0,175333	0,5	-0,006250
0,183667	0,5	-0,021700
0,192000	0,5	-0,009150
0,200333	0,5	0,021800
0,208667	0,5	0,040100
0,217000	0,5	0,020150
0,225333	0,5	0,029050
0,233667	0,5	0,024200
0,242000	0,5	0,017850
0,250333	0,5	0,017250
0,258667	0,5	0,009900
0,267000	0,5	0,020900
0,275333	0,5	0,007800
0,283667	0,5	0,010100
0,292000	0,5	-0,002450
0,300333	0,5	0,013850
0,308667	0,5	0,099550
0,317000	0,5	0,025850
0,325333	0,5	-0,017900
0,333667	0,5	-0,030850
0,342000	0,5	-0,020600
0,350333	0,5	0,030650
0,358667	0,5	0,017950
0,367000	0,5	0,015700
0,375333	0,5	0,009050
0,383667	0,5	0,018050
0,392000	0,5	0,008500
0,400333	0,5	0,016200
0,408667	0,5	0,010400
0,417000	0,5	0,009550
0,425333	0,5	-0,005100
0,433667	0,5	-0,003650
0,442000	0,5	-0,001250
0,450333	0,5	-0,013800
0,458667	0,5	0,019500
0,467000	0,5	-0,015900
0,475333	0,5	-0,007650
0,483667	0,5	-0,013000
0,492000	0,5	0,005500
0,500333	0,5	0,043300
0,508667	0,5	0,036250
0,517000	0,5	0,023250
0,525333	0,5	0,035000
0,533667	0,5	0,023250
0,542000	0,5	0,023750
0,550333	0,5	0,017600
0,558667	0,5	0,018000
0,567000	0,5	0,005300
0,575333	0,5	0,018650
0,583667	0,5	0,009950
0,592000	0,5	-0,000600
0,600333	0,5	0,000500
0,608667	0,5	0,015000
0,617000	0,5	-0,004900
0,625333	0,5	-0,006350
0,633667	0,5	-0,003800
0,642000	0,5	0,038450
0,650333	0,5	0,075500
0,658667	0,5	0,055000
0,667000	0,5	0,058800
0,675333	0,5	0,056650
0,683667	0,5	0,062300
0,692000	0,5	0,053150
0,700333	0,5	0,058400
0,708667	0,5	0,045600
0,717000	0,5	0,059300
0,725333	0,5	0,049200
0,733667	0,5	0,029100
0,742000	0,5	0,012600
0,750333	0,5	0,038200
0,758667	0,5	0,032500
0,767000	0,5	0,023800
0,775333	0,5	0,037500
0,783667	0,5	0,058250
0,792000	0,5	0,095150
0,800333	0,5	0,110750
0,808667	0,5	0,099150
0,817000	0,5	0,098500
0,825333	0,5	0,100500
0,833667	0,5	0,093750
0,842000	0,5	0,104000
0,850333	0,5	0,099200
0,858667	0,5	0,097300
0,867000	0,5	0,088550
0,875333	0,5	0,105100
0,883667	0,5	0,092150
0,892000	0,5	0,098800
0,900333	0,5	0,109100
0,908667	0,5	0,101800
0,917000	0,5	0,088600
0,925333	0,5	0,101400
0,933667	0,5	0,123000
0,942000	0,5	0,159550
0,950333	0,5	0,167300
0,958667	0,5	0,167250
0,967000	0,5	0,165200
0,975333	0,5	0,170550
0,983667	0,5	0,167600
0,992000	0,5	0,174100
1,000333	0,5	0,178650
1,008667	0,5	0,164700
1,017000	0,5	0,170650
1,025333	0,5	0,165000
1,033667	0,5	0,157300
1,042000	0,5	0,165450
1,050333	0,5	0,179450
1,058667	0,5	0,168050
1,067000	0,5	0,163050
1,075333	0,5	0,169150
1,083667	0,5	0,222250
1,092000	0,5	0,244350
1,100333	0,5	0,231000
1,108667	0,5	0,218950
1,117000	0,5	0,233500
1,125333	0,5	0,227550
1,133667	0,5	0,234600
1,142000	0,5	0,241250
1,150333	0,5	0,235150
1,158667	0,5	0,234950
1,167000	0,5	0,238200
1,175333	0,5	0,258700
1,183667	0,5	0,240300
1,192000	0,5	0,290850
1,200333	0,5	0,274500
1,208667	0,5	0,263850
1,217000	0,5	0,263150
1,225333	0,5	0,276050
1,233667	0,5	0,312050
1,242000	0,5	0,327450
1,250333	0,5	0,310150
1,258667	0,5	0,334100
1,267000	0,5	0,335350
1,275333	0,5	0,345800
1,283667	0,5	0,341500
1,292000	0,5	0,360750
1,300333	0,5	0,354750
1,308667	0,5	0,363100
1,317000	0,5	0,376950
1,325333	0,5	0,365550
1,333667	0,5	0,363100
1,342000	0,5	0,408700
1,350333	0,5	0,382050
1,358667	0,5	0,391750
1,367000	0,5	0,406800
1,375333	0,5	0,434700
1,383667	0,5	0,488550
1,392000	0,5	0,471700
1,400333	0,5	0,490750
1,408667	0,5	0,484150
1,417000	0,5	0,501900
1,425333	0,5	0,495800
1,433667	0,5	0,510800
1,442000	0,5	0,513300
1,450333	0,5	0,520650
1,458667	0,5	0,533050
1,467000	0,5	0,547050
1,475333	0,5	0,554950
1,483667	0,5	0,564450
1,492000	0,5	0,598000
1,500333	0,5	0,585450
1,508667	0,5	0,583250
1,517000	0,5	0,595500
1,525333	0,5	0,621200
1,533667	0,5	0,662950
1,542000	0,5	0,668650
1,550333	0,5	0,667750
1,558667	0,5	0,678500
1,567000	0,5	0,639050
1,575333	0,5	0,463100
1,583667	0,5	-0,149700
1,592000	0,5	-1,063100
1,600333	0,5	-1,020050
1,608667	0,5	1,019750
1,617000	0,5	4,130550
1,625333	0,5	7,468750
1,633667	0,5	11,196200
1,642000	0,5	15,012250
1,650333	0,5	17,640250
1,658667	0,5	18,336550
1,667000	0,5	17,529950
1,675333	0,5	16,157950
1,683667	0,5	14,733600
1,692000	0,5	13,459550
1,700333	0,5	12,639150
1,708667	0,5	12,742200
1,717000	0,5	14,793150
1,725333	0,5	18,858000
1,733667	0,5	22,008850
1,742000	0,5	21,314450
1,750333	0,5	17,918000
1,758667	0,5	14,454900
1,767000	0,5	12,003500
1,775333	0,5	10,610400
1,783667	0,5	10,437150
1,792000	0,5	11,502050
1,800333	0,5	13,311500
1,808667	0,5	14,483500
1,817000	0,5	14,422150
1,825333	0,5	13,632600
1,833667	0,5	12,614400
1,842000	0,5	11,581100
1,850333	0,5	10,658850
1,858667	0,5	9,853450
1,867000	0,5	9,174050
1,875333	0,5	8,618200
1,883667	0,5	8,125900
1,892000	0,5	7,666400
1,900333	0,5	7,246500
1,908667	0,5	6,900400
1,917000	0,5	6,599650
1,925333	0,5	6,365450
1,933667	0,5	6,168950
1,942000	0,5	6,018950
1,950333	0,5	5,952650
1,958667	0,5	5,949450
1,967000	0,5	6,102850
1,975333	0,5	6,782000
1,983667	0,5	8,748700
1,992000	0,5	13,468150
2,000333	0,5	23,624000
2,008667	0,5	45,716451
2,017000	0,5	96,041251
2,025333	0,5	193,871853
2,033667	0,5	313,542505
2,042000	0,5	373,821906
2,050333	0,5	340,038255
2,058667	0,5	261,710654
2,067000	0,5	193,138853
2,075333	0,5	147,910202
2,083667	0,5	118,700302
2,092000	0,5	98,423701
2,100333	0,5	83,546601
2,108667	0,5	72,296951
2,117000	0,5	63,738951
2,125333	0,5	57,177251
2,133667	0,5	52,238551
2,142000	0,5	48,716301
2,150333	0,5	46,677101
2,158667	0,5	45,579201
2,167000	0,5	44,028201
2,175333	0,5	41,257251
2,183667	0,5	38,139001
2,192000	0,5	35,564501
2,200333	0,5	33,532400
2,208667	0,5	31,714450
2,217000	0,5	30,065400
2,225333	0,5	28,745650
2,233667	0,5	27,701650
2,242000	0,5	26,897150
2,250333	0,5	26,223000
2,258667	0,5	25,614900
2,267000	0,5	25,100250
2,275333	0,5	24,636450
2,283667	0,5	24,222650
2,292000	0,5	23,868800
2,300333	0,5	23,538400
2,308667	0,5	23,257750
2,317000	0,5	23,020600
2,325333	0,5	22,834600
2,333667	0,5	22,656800
2,342000	0,5	22,524600
2,350333	0,5	22,417600
2,358667	0,5	22,357200
2,367000	0,5	22,340700
2,375333	0,5	22,449750
2,383667	0,5	22,655850
2,392000	0,5	23,070850
2,400333	0,5	23,455150
2,408667	0,5	23,488700
2,417000	0,5	23,185850
2,425333	0,5	22,856850
2,433667	0,5	22,707000
2,442000	0,5	22,629500
2,450333	0,5	22,546300
2,458667	0,5	22,469250
2,467000	0,5	22,389200
2,475333	0,5	22,286100
2,483667	0,5	22,189050
2,492000	0,5	22,066200
2,500333	0,5	21,967300
2,508667	0,5	21,855950
2,517000	0,5	21,791850
2,525333	0,5	21,780050
2,533667	0,5	21,815050
2,542000	0,5	21,999450
2,550333	0,5	22,425150
2,558667	0,5	23,250600
2,567000	0,5	24,641250
2,575333	0,5	26,763300
2,583667	0,5	30,123450
2,592000	0,5	35,765701
2,600333	0,5	45,370651
2,608667	0,5	60,670001
2,617000	0,5	83,527851
2,625333	0,5	118,618202
2,633667	0,5	180,710503
2,642000	0,5	306,934705
2,650333	0,5	538,834858
2,658667	0,5	836,034412
2,667000	0,5	1 078,579816
2,675333	0,5	1 219,107568
2,683667	0,5	1 261,937069
2,692000	0,5	1 225,487618
2,700333	0,5	1 136,191217
2,708667	0,5	1 018,493565
2,717000	0,5	887,068663
2,725333	0,5	748,378761
2,733667	0,5	615,642659
2,742000	0,5	501,154457
2,750333	0,5	411,587756
2,758667	0,5	347,083205
2,767000	0,5	303,793805
2,775333	0,5	276,412304
2,783667	0,5	259,894904
2,792000	0,5	249,897354
2,800333	0,5	242,915404
2,808667	0,5	236,460904
2,817000	0,5	229,290853
2,825333	0,5	220,460753
2,833667	0,5	209,317003
2,842000	0,5	195,257003
2,850333	0,5	178,578353
2,858667	0,5	160,488052
2,867000	0,5	142,708952
2,875333	0,5	126,544802
2,883667	0,5	112,673802
2,892000	0,5	100,933002
2,900333	0,5	90,904701
2,908667	0,5	82,168851
2,917000	0,5	74,483301
2,925333	0,5	67,688151
2,933667	0,5	61,717551
2,942000	0,5	56,480401
2,950333	0,5	51,880551
2,958667	0,5	47,851201
2,967000	0,5	44,283751
2,975333	0,5	41,083951
2,983667	0,5	38,227951
2,992000	0,5	35,682201
3,000333	0,5	33,418850
3,008667	0,5	31,398850
3,017000	0,5	29,545800
3,025333	0,5	27,874700
3,033667	0,5	26,348000
3,042000	0,5	24,939800
3,050333	0,5	23,618600
3,058667	0,5	22,402800
3,067000	0,5	21,260350
3,075333	0,5	20,214450
3,083667	0,5	19,257300
3,092000	0,5	18,387850
3,100333	0,5	17,592650
3,108667	0,5	16,921550
3,117000	0,5	16,301250
3,125333	0,5	15,778800
3,133667	0,5	15,386900
3,142000	0,5	15,104100
3,150333	0,5	15,017150
3,158667	0,5	15,121550
3,167000	0,5	15,625850
3,175333	0,5	16,761000
3,183667	0,5	18,762650
3,192000	0,5	21,671300
3,200333	0,5	25,174650
3,208667	0,5	28,554400
3,217000	0,5	31,030950
3,225333	0,5	32,081150
3,233667	0,5	31,625450
3,242000	0,5	29,966850
3,250333	0,5	27,529400
3,258667	0,5	24,766100
3,267000	0,5	21,961950
3,275333	0,5	19,390400
3,283667	0,5	17,176950
3,292000	0,5	15,333650
3,300333	0,5	13,832700
3,308667	0,5	12,567650
3,317000	0,5	11,497700
3,325333	0,5	10,617550
3,333667	0,5	9,878900
3,342000	0,5	9,267950
3,350333	0,5	8,743450
3,358667	0,5	8,316200
3,367000	0,5	7,941550
3,375333	0,5	7,634900
3,383667	0,5	7,390450
3,392000	0,5	7,191200
3,400333	0,5	7,044550
3,408667	0,5	6,973300
3,417000	0,5	6,900450
3,425333	0,5	6,865350
3,433667	0,5	6,816850
3,442000	0,5	6,756100
3,450333	0,5	6,660300
3,458667	0,5	6,491900
3,467000	0,5	6,318700
3,475333	0,5	6,164200
3,483667	0,5	6,000900
3,492000	0,5	5,866250
3,500333	0,5	5,744400
3,508667	0,5	5,628300
3,517000	0,5	5,527350
3,525333	0,5	5,424950
3,533667	0,5	5,351400
3,542000	0,5	5,227900
3,550333	0,5	5,160400
3,558667	0,5	5,053550
3,567000	0,5	4,941200
3,575333	0,5	4,826850
3,583667	0,5	4,724950
3,592000	0,5	4,632500
3,600333	0,5	4,536300
3,608667	0,5	4,412300
3,617000	0,5	4,308500
3,625333	0,5	4,203450
3,633667	0,5	4,105000
3,642000	0,5	4,004200
3,650333	0,5	3,920700
3,658667	0,5	3,834950
3,667000	0,5	3,750650
3,675333	0,5	3,678400
3,683667	0,5	3,596600
3,692000	0,5	3,531600
3,700333	0,5	3,493700
3,708667	0,5	3,435050
3,717000	0,5	3,398150
3,725333	0,5	3,377000
3,733667	0,5	3,382150
3,742000	0,5	3,426450
3,750333	0,5	3,439550
3,758667	0,5	3,453250
3,767000	0,5	3,442300
3,775333	0,5	3,425900
3,783667	0,5	3,379000
3,792000	0,5	3,337250
3,800333	0,5	3,280350
3,808667	0,5	3,220650
3,817000	0,5	3,168100
3,825333	0,5	3,114850
3,833667	0,5	3,070450
3,842000	0,5	3,016300
3,850333	0,5	2,982150
3,858667	0,5	2,931200
3,867000	0,5	2,893450
3,875333	0,5	2,848250
3,883667	0,5	2,838400
3,892000	0,5	2,819950
3,900333	0,5	2,790800
3,908667	0,5	2,737500
3,917000	0,5	2,708800
3,925333	0,5	2,663200
3,933667	0,5	2,630950
3,942000	0,5	2,587500
3,950333	0,5	2,557550
3,958667	0,5	2,522250
3,967000	0,5	2,489300
3,975333	0,5	2,465650
3,983667	0,5	2,433950
3,992000	0,5	2,423400
4,000333	0,5	2,411550
4,008667	0,5	2,374750
4,017000	0,5	2,351150
4,025333	0,5	2,324650
4,033667	0,5	2,307550
4,042000	0,5	2,290750
4,050333	0,5	2,243900
4,058667	0,5	2,204600
4,067000	0,5	2,165300
4,075333	0,5	2,132200
4,083667	0,5	2,093900
4,092000	0,5	2,072450
4,100333	0,5	2,042600
4,108667	0,5	2,030800
4,117000	0,5	2,027700
4,125333	0,5	2,034150
4,133667	0,5	2,067200
4,142000	0,5	2,156100
4,150333	0,5	2,257950
4,158667	0,5	2,412950
4,167000	0,5	2,626700
4,175333	0,5	2,920050
4,183667	0,5	3,290450
4,192000	0,5	3,704750
4,200333	0,5	4,187200
4,208667	0,5	4,743550
4,217000	0,5	5,418400
4,225333	0,5	6,250900
4,233667	0,5	7,328500
4,242000	0,5	8,761050
4,250333	0,5	10,767050
4,258667	0,5	13,586100
4,267000	0,5	17,499550
4,275333	0,5	22,710750
4,283667	0,5	29,290550
4,292000	0,5	36,990801
4,300333	0,5	45,178301
4,308667	0,5	53,016101
4,317000	0,5	59,599201
4,325333	0,5	64,141901
4,333667	0,5	66,279501
4,342000	0,5	65,905701
4,350333	0,5	63,405951
4,358667	0,5	59,345551
4,367000	0,5	54,313451
4,375333	0,5	48,878201
4,383667	0,5	43,482501
4,392000	0,5	38,392101
4,400333	0,5	33,744001
4,408667	0,5	29,630400
4,417000	0,5	26,007500
4,425333	0,5	22,861150
4,433667	0,5	20,170800
4,442000	0,5	17,911400
4,450333	0,5	16,029750
4,458667	0,5	14,527800
4,467000	0,5	13,361500
4,475333	0,5	12,463000
4,483667	0,5	11,733450
4,492000	0,5	11,085050
4,500333	0,5	10,487050
4,508667	0,5	9,903750
4,517000	0,5	9,289350
4,525333	0,5	8,674150
4,533667	0,5	8,048050
4,542000	0,5	7,431800
4,550333	0,5	6,840700
4,558667	0,5	6,296150
4,567000	0,5	5,791650
4,575333	0,5	5,318800
4,583667	0,5	4,937450
4,592000	0,5	4,590750
4,600333	0,5	4,277900
4,608667	0,5	4,008000
4,617000	0,5	3,779400
4,625333	0,5	3,588200
4,633667	0,5	3,415650
4,642000	0,5	3,239750
4,650333	0,5	3,111600
4,658667	0,5	2,988300
4,667000	0,5	2,896000
4,675333	0,5	2,796550
4,683667	0,5	2,715000
4,692000	0,5	2,634850
4,700333	0,5	2,566350
4,708667	0,5	2,507950
4,717000	0,5	2,432800
4,725333	0,5	2,363150
4,733667	0,5	2,333750
4,742000	0,5	2,273900
4,750333	0,5	2,231300
4,758667	0,5	2,194900
4,767000	0,5	2,176000
4,775333	0,5	2,174000
4,783667	0,5	2,141000
4,792000	0,5	2,119800
4,800333	0,5	2,094850
4,808667	0,5	2,070950
4,817000	0,5	2,040050
4,825333	0,5	2,024500
4,833667	0,5	1,996000
4,842000	0,5	1,985950
4,850333	0,5	1,972350
4,858667	0,5	1,969350
4,867000	0,5	1,963150
4,875333	0,5	1,962400
4,883667	0,5	1,974750
4,892000	0,5	1,974000
4,900333	0,5	1,994100
4,908667	0,5	2,013050
4,917000	0,5	2,044450
4,925333	0,5	2,082800
4,933667	0,5	2,102300
4,942000	0,5	2,107050
4,950333	0,5	2,128150
4,958667	0,5	2,140250
4,967000	0,5	2,153400
4,975333	0,5	2,159700
4,983667	0,5	2,176400
4,992000	0,5	2,172000
5,000333	0,5	2,177250
5,008667	0,5	2,175000
5,017000	0,5	2,163250
5,025333	0,5	2,153600
5,033667	0,5	2,140800
5,042000	0,5	2,116750
5,050333	0,5	2,102950
5,058667	0,5	2,090600
5,067000	0,5	2,106000
5,075333	0,5	2,119950
5,083667	0,5	2,111400
5,092000	0,5	2,116100
5,100333	0,5	2,120300
5,108667	0,5	2,133550
5,117000	0,5	2,148700
5,125333	0,5	2,169250
5,133667	0,5	2,169850
5,142000	0,5	2,185850
5,150333	0,5	2,188950
5,158667	0,5	2,183350
5,167000	0,5	2,170550
5,175333	0,5	2,180650
5,183667	0,5	2,157650
5,192000	0,5	2,136500
5,200333	0,5	2,122900
5,208667	0,5	2,122850
5,217000	0,5	2,144050
5,225333	0,5	2,135850
5,233667	0,5	2,126700
5,242000	0,5	2,121950
5,250333	0,5	2,116200
5,258667	0,5	2,113500
5,267000	0,5	2,116250
5,275333	0,5	2,123450
5,283667	0,5	2,131650
5,292000	0,5	2,138050
5,300333	0,5	2,144700
5,308667	0,5	2,132350
5,317000	0,5	2,137250
5,325333	0,5	2,145300
5,333667	0,5	2,132000
5,342000	0,5	2,116900
5,350333	0,5	2,107100
5,358667	0,5	2,114850
5,367000	0,5	2,126600
5,375333	0,5	2,119550
5,383667	0,5	2,125100
5,392000	0,5	2,123000
5,400333	0,5	2,125500
5,408667	0,5	2,115150
5,417000	0,5	2,114600
5,425333	0,5	2,100050
5,433667	0,5	2,082850
5,442000	0,5	2,075100
5,450333	0,5	2,047800
5,458667	0,5	2,016500
5,467000	0,5	2,010150
5,475333	0,5	1,987450
5,483667	0,5	1,959500
5,492000	0,5	1,942600
5,500333	0,5	1,924000
5,508667	0,5	1,928900
5,517000	0,5	1,914900
5,525333	0,5	1,895900
5,533667	0,5	1,874450
5,542000	0,5	1,866800
5,550333	0,5	1,846900
5,558667	0,5	1,840850
5,567000	0,5	1,827150
5,575333	0,5	1,816250
5,583667	0,5	1,802000
5,592000	0,5	1,792350
5,600333	0,5	1,781300
5,608667	0,5	1,764150
5,617000	0,5	1,769600
5,625333	0,5	1,754350
5,633667	0,5	1,749150
5,642000	0,5	1,738200
5,650333	0,5	1,733100
5,658667	0,5	1,748400
5,667000	0,5	1,744850
5,675333	0,5	1,726800
5,683667	0,5	1,728750
5,692000	0,5	1,718750
5,700333	0,5	1,715100
5,708667	0,5	1,707400
5,717000	0,5	1,700300
5,725333	0,5	1,685850
5,733667	0,5	1,674500
5,742000	0,5	1,664700
5,750333	0,5	1,652650
5,758667	0,5	1,625550
5,767000	0,5	1,627800
5,775333	0,5	1,603400
5,783667	0,5	1,584700
5,792000	0,5	1,571800
5,800333	0,5	1,574400
5,808667	0,5	1,591250
5,817000	0,5	1,578250
5,825333	0,5	1,574550
5,833667	0,5	1,567500
5,842000	0,5	1,574550
5,850333	0,5	1,561350
5,858667	0,5	1,566000
5,867000	0,5	1,555850
5,875333	0,5	1,553200
5,883667	0,5	1,554150
5,892000	0,5	1,556750
5,900333	0,5	1,551650
5,908667	0,5	1,568850
5,917000	0,5	1,592250
5,925333	0,5	1,607000
5,933667	0,5	1,635200
5,942000	0,5	1,665900
5,950333	0,5	1,700350
5,958667	0,5	1,732400
5,967000	0,5	1,739400
5,975333	0,5	1,738400
5,983667	0,5	1,737400
5,992000	0,5	1,731300
6,000333	0,5	1,724850
6,008667	0,5	1,703650
6,017000	0,5	1,675950
6,025333	0,5	1,632900
6,033667	0,5	1,594900
6,042000	0,5	1,541750
6,050333	0,5	1,495950
6,058667	0,5	1,467500
6,067000	0,5	1,435150
6,075333	0,5	1,392600
6,083667	0,5	1,367950
6,092000	0,5	1,355600
6,100333	0,5	1,355250
6,108667	0,5	1,354700
6,117000	0,5	1,344150
6,125333	0,5	1,328400
6,133667	0,5	1,317200
6,142000	0,5	1,300300
6,150333	0,5	1,291600
6,158667	0,5	1,280800
6,167000	0,5	1,273200
6,175333	0,5	1,268250
6,183667	0,5	1,259850
6,192000	0,5	1,261150
6,200333	0,5	1,258050
6,208667	0,5	1,275900
6,217000	0,5	1,276000
6,225333	0,5	1,278200
6,233667	0,5	1,278900
6,242000	0,5	1,294350
6,250333	0,5	1,303700
6,258667	0,5	1,303950
6,267000	0,5	1,286250
6,275333	0,5	1,278650
6,283667	0,5	1,259950
6,292000	0,5	1,247050
6,300333	0,5	1,233550
6,308667	0,5	1,229350
6,317000	0,5	1,225200
6,325333	0,5	1,225200
6,333667	0,5	1,224900
6,342000	0,5	1,224000
6,350333	0,5	1,230600
6,358667	0,5	1,242650
6,367000	0,5	1,252950
6,375333	0,5	1,260300
6,383667	0,5	1,283550
6,392000	0,5	1,305550
6,400333	0,5	1,343250
6,408667	0,5	1,348000
6,417000	0,5	1,367400
6,425333	0,5	1,373850
6,433667	0,5	1,378750
6,442000	0,5	1,378250
6,450333	0,5	1,372450
6,458667	0,5	1,368800
6,467000	0,5	1,364700
6,475333	0,5	1,365000
6,483667	0,5	1,365450
6,492000	0,5	1,361750
6,500333	0,5	1,393950
6,508667	0,5	1,407400
6,517000	0,5	1,434550
6,525333	0,5	1,486100
6,533667	0,5	1,557300
6,542000	0,5	1,662000
6,550333	0,5	1,752750
6,558667	0,5	1,853200
6,567000	0,5	1,933300
6,575333	0,5	2,001950
6,583667	0,5	2,024750
6,592000	0,5	2,024950
6,600333	0,5	1,985750
6,608667	0,5	1,925550
6,617000	0,5	1,856500
6,625333	0,5	1,786200
6,633667	0,5	1,728550
6,642000	0,5	1,670200
6,650333	0,5	1,640000
6,658667	0,5	1,598450
6,667000	0,5	1,577700
6,675333	0,5	1,570850
6,683667	0,5	1,571150
6,692000	0,5	1,590600
6,700333	0,5	1,601600
6,708667	0,5	1,608100
6,717000	0,5	1,627650
6,725333	0,5	1,649650
6,733667	0,5	1,678550
6,742000	0,5	1,696750
6,750333	0,5	1,724100
6,758667	0,5	1,742200
6,767000	0,5	1,758450
6,775333	0,5	1,765200
6,783667	0,5	1,778250
6,792000	0,5	1,777450
6,800333	0,5	1,808250
6,808667	0,5	1,812150
6,817000	0,5	1,836450
6,825333	0,5	1,869050
6,833667	0,5	1,931000
6,842000	0,5	2,010750
6,850333	0,5	2,072800
6,858667	0,5	2,138700
6,867000	0,5	2,197850
6,875333	0,5	2,241500
6,883667	0,5	2,251800
6,892000	0,5	2,245100
6,900333	0,5	2,208150
6,908667	0,5	2,159600
6,917000	0,5	2,102750
6,925333	0,5	2,050900
6,933667	0,5	1,996450
6,942000	0,5	1,967950
6,950333	0,5	1,937550
6,958667	0,5	1,917450
6,967000	0,5	1,914150
6,975333	0,5	1,921450
6,983667	0,5	1,947350
6,992000	0,5	1,984750
7,000333	0,5	2,017050
7,008667	0,5	2,059050
7,017000	0,5	2,104100
7,025333	0,5	2,156000
7,033667	0,5	2,205450
7,042000	0,5	2,251800
7,050333	0,5	2,287200
7,058667	0,5	2,305200
7,067000	0,5	2,320900
7,075333	0,5	2,321400
7,083667	0,5	2,323450
7,092000	0,5	2,338600
7,100333	0,5	2,355050
7,108667	0,5	2,382700
7,117000	0,5	2,442050
7,125333	0,5	2,533500
7,133667	0,5	2,682700
7,142000	0,5	2,890500
7,150333	0,5	3,156800
7,158667	0,5	3,504100
7,167000	0,5	3,924700
7,175333	0,5	4,383700
7,183667	0,5	4,857050
7,192000	0,5	5,288350
7,200333	0,5	5,624450
7,208667	0,5	5,825000
7,217000	0,5	5,877100
7,225333	0,5	5,798500
7,233667	0,5	5,613900
7,242000	0,5	5,389600
7,250333	0,5	5,135150
7,258667	0,5	4,902350
7,267000	0,5	4,685550
7,275333	0,5	4,502950
7,283667	0,5	4,320900
7,292000	0,5	4,135850
7,300333	0,5	3,933250
7,308667	0,5	3,735450
7,317000	0,5	3,543700
7,325333	0,5	3,376150
7,333667	0,5	3,228400
7,342000	0,5	3,102600
7,350333	0,5	3,004950
7,358667	0,5	2,924050
7,367000	0,5	2,859650
7,375333	0,5	2,809350
7,383667	0,5	2,799500
7,392000	0,5	2,824300
7,400333	0,5	2,886550
7,408667	0,5	2,994200
7,417000	0,5	3,133600
7,425333	0,5	3,275850
7,433667	0,5	3,371250
7,442000	0,5	3,395400
7,450333	0,5	3,356650
7,458667	0,5	3,282800
7,467000	0,5	3,208500
7,475333	0,5	3,156100
7,483667	0,5	3,156950
7,492000	0,5	3,199550
7,500333	0,5	3,279200
7,508667	0,5	3,363250
7,517000	0,5	3,413250
7,525333	0,5	3,402550
7,533667	0,5	3,337850
7,542000	0,5	3,199100
7,550333	0,5	3,021550
7,558667	0,5	2,833650
7,567000	0,5	2,671900
7,575333	0,5	2,548850
7,583667	0,5	2,448900
7,592000	0,5	2,376800
7,600333	0,5	2,332750
7,608667	0,5	2,310750
7,617000	0,5	2,296700
7,625333	0,5	2,291750
7,633667	0,5	2,288800
7,642000	0,5	2,292050
7,650333	0,5	2,298050
7,658667	0,5	2,313350
7,667000	0,5	2,322350
7,675333	0,5	2,318400
7,683667	0,5	2,317250
7,692000	0,5	2,289200
7,700333	0,5	2,259900
7,708667	0,5	2,236250
7,717000	0,5	2,205000
7,725333	0,5	2,195400
7,733667	0,5	2,177200
7,742000	0,5	2,159100
7,750333	0,5	2,152150
7,758667	0,5	2,156000
7,767000	0,5	2,162400
7,775333	0,5	2,171950
7,783667	0,5	2,188300
7,792000	0,5	2,198600
7,800333	0,5	2,215800
7,808667	0,5	2,232600
7,817000	0,5	2,243350
7,825333	0,5	2,252100
7,833667	0,5	2,266450
7,842000	0,5	2,265050
7,850333	0,5	2,258300
7,858667	0,5	2,252700
7,867000	0,5	2,250300
7,875333	0,5	2,248400
7,883667	0,5	2,245400
7,892000	0,5	2,236800
7,900333	0,5	2,239750
7,908667	0,5	2,240700
7,917000	0,5	2,245350
7,925333	0,5	2,263450
7,933667	0,5	2,277900
7,942000	0,5	2,303100
7,950333	0,5	2,335250
7,958667	0,5	2,362500
7,967000	0,5	2,387550
7,975333	0,5	2,415150
7,983667	0,5	2,447800
7,992000	0,5	2,478100
8,000333	0,5	2,516400
8,008667	0,5	2,572100
8,017000	0,5	2,654600
8,025333	0,5	2,771550
8,033667	0,5	2,937500
8,042000	0,5	3,158400
8,050333	0,5	3,396150
8,058667	0,5	3,602050
8,067000	0,5	3,699100
8,075333	0,5	3,677550
8,083667	0,5	3,528300
8,092000	0,5	3,314450
8,100333	0,5	3,086550
8,108667	0,5	2,880300
8,117000	0,5	2,720950
8,125333	0,5	2,608850
8,133667	0,5	2,540400
8,142000	0,5	2,495100
8,150333	0,5	2,484200
8,158667	0,5	2,493950
8,167000	0,5	2,492800
8,175333	0,5	2,454850
8,183667	0,5	2,366700
8,192000	0,5	2,261950
8,200333	0,5	2,166700
8,208667	0,5	2,083800
8,217000	0,5	2,014800
8,225333	0,5	1,961550
8,233667	0,5	1,912150
8,242000	0,5	1,871350
8,250333	0,5	1,838900
8,258667	0,5	1,809350
8,267000	0,5	1,794400
8,275333	0,5	1,782150
8,283667	0,5	1,770300
8,292000	0,5	1,765700
8,300333	0,5	1,762550
8,308667	0,5	1,769250
8,317000	0,5	1,779900
8,325333	0,5	1,784900
8,333667	0,5	1,786650
8,342000	0,5	1,786050
8,350333	0,5	1,789200
8,358667	0,5	1,788600
8,367000	0,5	1,782800
8,375333	0,5	1,775050
8,383667	0,5	1,762950
8,392000	0,5	1,749550
8,400333	0,5	1,738350
8,408667	0,5	1,724000
8,417000	0,5	1,711550
8,425333	0,5	1,705450
8,433667	0,5	1,695600
8,442000	0,5	1,687250
8,450333	0,5	1,682900
8,458667	0,5	1,691900
8,467000	0,5	1,697250
8,475333	0,5	1,704950
8,483667	0,5	1,722450
8,492000	0,5	1,741300
8,500333	0,5	1,765150
8,508667	0,5	1,795800
8,517000	0,5	1,837000
8,525333	0,5	1,876950
8,533667	0,5	1,922200
8,542000	0,5	1,962500
8,550333	0,5	2,005650
8,558667	0,5	2,020800
8,567000	0,5	2,039450
8,575333	0,5	2,034250
8,583667	0,5	2,021400
8,592000	0,5	1,999150
8,600333	0,5	1,978700
8,608667	0,5	1,963200
8,617000	0,5	1,941900
8,625333	0,5	1,922500
8,633667	0,5	1,908200
8,642000	0,5	1,904750
8,650333	0,5	1,911200
8,658667	0,5	1,917250
8,667000	0,5	1,938900
8,675333	0,5	1,962050
8,683667	0,5	1,980100
8,692000	0,5	1,994550
8,700333	0,5	2,004250
8,708667	0,5	2,004400
8,717000	0,5	2,024500
8,725333	0,5	2,047950
8,733667	0,5	2,078900
8,742000	0,5	2,112850
8,750333	0,5	2,146250
8,758667	0,5	2,184600
8,767000	0,5	2,202400
8,775333	0,5	2,220450
8,783667	0,5	2,240850
8,792000	0,5	2,266050
8,800333	0,5	2,293200
8,808667	0,5	2,319350
8,817000	0,5	2,319900
8,825333	0,5	2,304750
8,833667	0,5	2,252150
8,842000	0,5	2,190700
8,850333	0,5	2,108650
8,858667	0,5	2,035550
8,867000	0,5	1,969300
8,875333	0,5	1,906800
8,883667	0,5	1,862250
8,892000	0,5	1,836050
8,900333	0,5	1,824000
8,908667	0,5	1,832600
8,917000	0,5	1,845550
8,925333	0,5	1,875700
8,933667	0,5	1,925550
8,942000	0,5	1,980450
8,950333	0,5	2,032650
8,958667	0,5	2,070200
8,967000	0,5	2,076500
8,975333	0,5	2,065200
8,983667	0,5	2,030300
8,992000	0,5	2,000100
9,000333	0,5	1,956950
9,008667	0,5	1,920750
9,017000	0,5	1,898600
9,025333	0,5	1,871150
9,033667	0,5	1,856750
9,042000	0,5	1,854150
9,050333	0,5	1,862550
9,058667	0,5	1,869350
9,067000	0,5	1,880800
9,075333	0,5	1,894450
9,083667	0,5	1,900650
9,092000	0,5	1,901450
9,100333	0,5	1,896200
9,108667	0,5	1,882400
9,117000	0,5	1,869700
9,125333	0,5	1,854100
9,133667	0,5	1,841250
9,142000	0,5	1,824400
9,150333	0,5	1,815200
9,158667	0,5	1,803350
9,167000	0,5	1,792950
9,175333	0,5	1,767350
9,183667	0,5	1,740600
9,192000	0,5	1,720900
9,200333	0,5	1,696250
9,208667	0,5	1,679550
9,217000	0,5	1,666000
9,225333	0,5	1,649150
9,233667	0,5	1,634650
9,242000	0,5	1,621100
9,250333	0,5	1,609500
9,258667	0,5	1,596000
9,267000	0,5	1,584700
9,275333	0,5	1,568200
9,283667	0,5	1,551050
9,292000	0,5	1,536600
9,300333	0,5	1,525300
9,308667	0,5	1,511450
9,317000	0,5	1,498150
9,325333	0,5	1,488500
9,333667	0,5	1,476150
9,342000	0,5	1,466300
9,350333	0,5	1,460500
9,358667	0,5	1,456850
9,367000	0,5	1,456750
9,375333	0,5	1,440650
9,383667	0,5	1,431850
9,392000	0,5	1,424950
9,400333	0,5	1,416200
9,408667	0,5	1,400700
9,417000	0,5	1,397400
9,425333	0,5	1,394850
9,433667	0,5	1,394900
9,442000	0,5	1,390400
9,450333	0,5	1,391350
9,458667	0,5	1,389700
9,467000	0,5	1,384350
9,475333	0,5	1,375150
9,483667	0,5	1,367500
9,492000	0,5	1,360150
9,500333	0,5	1,352300
9,508667	0,5	1,344150
9,517000	0,5	1,338950
9,525333	0,5	1,332750
9,533667	0,5	1,333000
9,542000	0,5	1,325950
9,550333	0,5	1,330150
9,558667	0,5	1,327150
9,567000	0,5	1,327200
9,575333	0,5	1,332700
9,583667	0,5	1,337750
9,592000	0,5	1,350700
9,600333	0,5	1,360450
9,608667	0,5	1,385650
9,617000	0,5	1,406100
9,625333	0,5	1,430850
9,633667	0,5	1,460900
9,642000	0,5	1,500150
9,650333	0,5	1,549200
9,658667	0,5	1,592750
9,667000	0,5	1,634050
9,675333	0,5	1,661550
9,683667	0,5	1,673100
9,692000	0,5	1,664750
9,700333	0,5	1,641850
9,708667	0,5	1,603900
9,717000	0,5	1,562550
9,725333	0,5	1,514650
9,733667	0,5	1,475250
9,742000	0,5	1,433400
9,750333	0,5	1,412650
9,758667	0,5	1,392100
9,767000	0,5	1,384900
9,775333	0,5	1,380800
9,783667	0,5	1,385500
9,792000	0,5	1,395150
9,800333	0,5	1,401800
9,808667	0,5	1,414050
9,817000	0,5	1,422400
9,825333	0,5	1,427550
9,833667	0,5	1,431950
9,842000	0,5	1,433850
9,850333	0,5	1,439900
9,858667	0,5	1,445050
9,867000	0,5	1,448650
9,875333	0,5	1,458800
9,883667	0,5	1,465800
9,892000	0,5	1,465700
9,900333	0,5	1,475150
9,908667	0,5	1,480000
9,917000	0,5	1,485400
9,925333	0,5	1,495350
9,933667	0,5	1,508650
9,942000	0,5	1,523650
9,950333	0,5	1,535700
9,958667	0,5	1,540300
9,967000	0,5	1,533950
9,975333	0,5	1,525900
9,983667	0,5	1,509000
9,992000	0,5	1,492850
10,000333	0,5	1,470600
10,008667	0,5	1,451450
10,017000	0,5	1,439300
10,025333	0,5	1,428300
10,033667	0,5	1,418100
10,042000	0,5	1,404450
10,050333	0,5	1,403100
10,058667	0,5	1,395450
10,067000	0,5	1,390600
10,075333	0,5	1,395450
10,083667	0,5	1,391600
10,092000	0,5	1,395850
10,100333	0,5	1,398250
10,108667	0,5	1,395500
10,117000	0,5	1,391600
10,125333	0,5	1,388400
10,133667	0,5	1,389150
10,142000	0,5	1,391900
10,150333	0,5	1,399150
10,158667	0,5	1,404450
10,167000	0,5	1,414750
10,175333	0,5	1,433100
10,183667	0,5	1,445150
10,192000	0,5	1,460950
10,200333	0,5	1,474800
10,208667	0,5	1,481850
10,217000	0,5	1,495050
10,225333	0,5	1,513600
10,233667	0,5	1,534950
10,242000	0,5	1,565350
10,250333	0,5	1,605950
10,258667	0,5	1,637650
10,267000	0,5	1,668250
10,275333	0,5	1,681150
10,283667	0,5	1,684450
10,292000	0,5	1,672150
10,300333	0,5	1,649500
10,308667	0,5	1,622900
10,317000	0,5	1,597500
10,325333	0,5	1,563150
10,333667	0,5	1,529300
10,342000	0,5	1,504700
10,350333	0,5	1,476450
10,358667	0,5	1,453400
10,367000	0,5	1,429400
10,375333	0,5	1,416050
10,383667	0,5	1,404450
10,392000	0,5	1,401250
10,400333	0,5	1,393850
10,408667	0,5	1,390250
10,417000	0,5	1,392450
10,425333	0,5	1,390650
10,433667	0,5	1,384850
10,442000	0,5	1,387250
10,450333	0,5	1,389800
10,458667	0,5	1,390450
10,467000	0,5	1,393150
10,475333	0,5	1,395750
10,483667	0,5	1,403450
10,492000	0,5	1,415850
10,500333	0,5	1,430400
10,508667	0,5	1,446400
10,517000	0,5	1,471650
10,525333	0,5	1,493950
10,533667	0,5	1,527450
10,542000	0,5	1,552400
10,550333	0,5	1,566000
10,558667	0,5	1,570100
10,567000	0,5	1,551850
10,575333	0,5	1,527750
10,583667	0,5	1,493700
10,592000	0,5	1,463950
10,600333	0,5	1,439000
10,608667	0,5	1,424500
10,617000	0,5	1,419250
10,625333	0,5	1,422300
10,633667	0,5	1,440650
10,642000	0,5	1,468650
10,650333	0,5	1,494850
10,658667	0,5	1,535350
10,667000	0,5	1,561450
10,675333	0,5	1,599050
10,683667	0,5	1,642600
10,692000	0,5	1,678350
10,700333	0,5	1,703050
10,708667	0,5	1,731850
10,717000	0,5	1,749150
10,725333	0,5	1,756250
10,733667	0,5	1,766200
10,742000	0,5	1,772650
10,750333	0,5	1,780750
10,758667	0,5	1,783000
10,767000	0,5	1,789000
10,775333	0,5	1,792900
10,783667	0,5	1,807750
10,792000	0,5	1,814500
10,800333	0,5	1,821050
10,808667	0,5	1,833300
10,817000	0,5	1,837400
10,825333	0,5	1,848700
10,833667	0,5	1,858600
10,842000	0,5	1,865950
10,850333	0,5	1,868200
10,858667	0,5	1,874700
10,867000	0,5	1,879900
10,875333	0,5	1,889850
10,883667	0,5	1,896550
10,892000	0,5	1,903950
10,900333	0,5	1,912650
10,908667	0,5	1,924750
10,917000	0,5	1,932450
10,925333	0,5	1,936100
10,933667	0,5	1,948850
10,942000	0,5	1,956900
10,950333	0,5	1,960550
10,958667	0,5	1,969550
10,967000	0,5	1,968500
10,975333	0,5	1,982500
10,983667	0,5	1,986300
10,992000	0,5	1,998050
11,000333	0,5	2,007100
11,008667	0,5	2,017050
11,017000	0,5	2,021250
11,025333	0,5	2,025800
11,033667	0,5	2,031600
11,042000	0,5	2,042500
11,050333	0,5	2,046150
11,058667	0,5	2,049300
11,067000	0,5	2,046600
11,075333	0,5	2,045200
11,083667	0,5	2,055150
11,092000	0,5	2,057150
11,100333	0,5	2,051050
11,108667	0,5	2,056750
11,117000	0,5	2,069350
11,125333	0,5	2,096700
11,133667	0,5	2,133300
11,142000	0,5	2,188100
11,150333	0,5	2,250300
11,158667	0,5	2,322350
11,167000	0,5	2,396400
11,175333	0,5	2,466600
11,183667	0,5	2,514200
11,192000	0,5	2,529550
11,200333	0,5	2,513250
11,208667	0,5	2,484350
11,217000	0,5	2,436950
11,225333	0,5	2,395200
11,233667	0,5	2,360400
11,242000	0,5	2,330550
11,250333	0,5	2,305750
11,258667	0,5	2,292400
11,267000	0,5	2,283650
11,275333	0,5	2,274950
11,283667	0,5	2,261100
11,292000	0,5	2,251250
11,300333	0,5	2,238650
11,308667	0,5	2,224100
11,317000	0,5	2,215000
11,325333	0,5	2,207050
11,333667	0,5	2,204250
11,342000	0,5	2,197000
11,350333	0,5	2,203850
11,358667	0,5	2,220100
11,367000	0,5	2,251700
11,375333	0,5	2,314100
11,383667	0,5	2,391400
11,392000	0,5	2,484050
11,400333	0,5	2,574000
11,408667	0,5	2,655350
11,417000	0,5	2,716850
11,425333	0,5	2,743600
11,433667	0,5	2,725150
11,442000	0,5	2,684900
11,450333	0,5	2,613450
11,458667	0,5	2,545350
11,467000	0,5	2,477000
11,475333	0,5	2,414200
11,483667	0,5	2,369800
11,492000	0,5	2,331900
11,500333	0,5	2,310600
11,508667	0,5	2,287500
11,517000	0,5	2,276150
11,525333	0,5	2,269200
11,533667	0,5	2,254400
11,542000	0,5	2,235150
11,550333	0,5	2,212450
11,558667	0,5	2,185700
11,567000	0,5	2,162600
11,575333	0,5	2,136550
11,583667	0,5	2,111450
11,592000	0,5	2,084350
11,600333	0,5	2,059100
11,608667	0,5	2,032900
11,617000	0,5	2,012950
11,625333	0,5	1,995300
11,633667	0,5	1,974350
11,642000	0,5	1,967550
11,650333	0,5	1,952050
11,658667	0,5	1,940700
11,667000	0,5	1,937950
11,675333	0,5	1,939150
11,683667	0,5	1,929300
11,692000	0,5	1,927400
11,700333	0,5	1,917600
11,708667	0,5	1,918000
11,717000	0,5	1,919000
11,725333	0,5	1,919150
11,733667	0,5	1,923450
11,742000	0,5	1,921800
11,750333	0,5	1,923400
11,758667	0,5	1,917000
11,767000	0,5	1,920100
11,775333	0,5	1,924650
11,783667	0,5	1,924300
11,792000	0,5	1,926050
11,800333	0,5	1,939250
11,808667	0,5	1,945400
11,817000	0,5	1,962400
11,825333	0,5	1,977150
11,833667	0,5	1,986500
11,842000	0,5	1,989050
11,850333	0,5	1,993750
11,858667	0,5	2,006200
11,867000	0,5	2,026050
11,875333	0,5	2,037600
11,883667	0,5	2,061550
11,892000	0,5	2,081550
11,900333	0,5	2,118300
11,908667	0,5	2,146450
11,917000	0,5	2,171250
11,925333	0,5	2,193550
11,933667	0,5	2,195500
11,942000	0,5	2,193850
11,950333	0,5	2,174200
11,958667	0,5	2,143250
11,967000	0,5	2,118150
11,975333	0,5	2,090650
11,983667	0,5	2,059000
11,992000	0,5	2,025200
12,000333	0,5	2,000750
12,008667	0,5	1,989100
12,017000	0,5	1,985050
12,025333	0,5	1,982800
12,033667	0,5	1,984500
12,042000	0,5	1,986950
12,050333	0,5	1,993650
12,058667	0,5	2,010400
12,067000	0,5	2,018800
12,075333	0,5	2,026650
12,083667	0,5	2,040150
12,092000	0,5	2,046550
12,100333	0,5	2,051850
12,108667	0,5	2,082450
12,117000	0,5	2,116400
12,125333	0,5	2,164700
12,133667	0,5	2,228600
12,142000	0,5	2,289100
12,150333	0,5	2,372900
12,158667	0,5	2,453650
12,167000	0,5	2,518150
12,175333	0,5	2,555500
12,183667	0,5	2,573450
12,192000	0,5	2,574400
12,200333	0,5	2,561500
12,208667	0,5	2,534800
12,217000	0,5	2,504550
12,225333	0,5	2,460150
12,233667	0,5	2,411450
12,242000	0,5	2,368500
12,250333	0,5	2,316400
12,258667	0,5	2,287800
12,267000	0,5	2,268800
12,275333	0,5	2,266850
12,283667	0,5	2,268650
12,292000	0,5	2,263600
12,300333	0,5	2,262550
12,308667	0,5	2,259000
12,317000	0,5	2,233050
12,325333	0,5	2,202700
12,333667	0,5	2,170000
12,342000	0,5	2,154950
12,350333	0,5	2,137800
12,358667	0,5	2,138450
12,367000	0,5	2,141250
12,375333	0,5	2,138800
12,383667	0,5	2,128650
12,392000	0,5	2,110850
12,400333	0,5	2,065950
12,408667	0,5	2,033500
12,417000	0,5	1,982700
12,425333	0,5	1,948200
12,433667	0,5	1,899150
12,442000	0,5	1,860650
12,450333	0,5	1,837500
12,458667	0,5	1,810750
12,467000	0,5	1,773550
12,475333	0,5	1,741400
12,483667	0,5	1,708100
12,492000	0,5	1,676800
12,500333	0,5	1,646900
12,508667	0,5	1,612950
12,517000	0,5	1,595900
12,525333	0,5	1,579000
12,533667	0,5	1,566600
12,542000	0,5	1,544850
12,550333	0,5	1,535450
12,558667	0,5	1,530750
12,567000	0,5	1,513100
12,575333	0,5	1,498250
12,583667	0,5	1,481350
12,592000	0,5	1,471050
12,600333	0,5	1,472100
12,608667	0,5	1,461650
12,617000	0,5	1,448400
12,625333	0,5	1,444650
12,633667	0,5	1,438750
12,642000	0,5	1,431900
12,650333	0,5	1,421450
12,658667	0,5	1,421950
12,667000	0,5	1,415900
12,675333	0,5	1,413300
12,683667	0,5	1,403700
12,692000	0,5	1,385850
12,700333	0,5	1,382450
12,708667	0,5	1,368850
12,717000	0,5	1,349000
12,725333	0,5	1,334650
12,733667	0,5	1,315850
12,742000	0,5	1,311200
12,750333	0,5	1,305550
12,758667	0,5	1,306050
12,767000	0,5	1,315700
12,775333	0,5	1,343300
12,783667	0,5	1,373050
12,792000	0,5	1,415550
12,800333	0,5	1,466650
12,808667	0,5	1,517100
12,817000	0,5	1,546100
12,825333	0,5	1,554700
12,833667	0,5	1,537550
12,842000	0,5	1,499750
12,850333	0,5	1,461300
12,858667	0,5	1,416800
12,867000	0,5	1,372550
12,875333	0,5	1,324550
12,883667	0,5	1,276950
12,892000	0,5	1,224900
12,900333	0,5	1,167300
12,908667	0,5	1,105900
12,917000	0,5	1,057350
12,925333	0,5	1,007750
12,933667	0,5	0,954600
12,942000	0,5	0,902050
12,950333	0,5	0,872050
12,958667	0,5	0,789500
12,967000	0,5	0,691600
12,975333	0,5	0,547750
12,983667	0,5	0,293600
12,992000	0,5	-0,108500
13,000333	0,5	-0,476800
13,008667	0,5	-0,792400
13,017000	0,5	-1,065500
13,025333	0,5	-1,278450
13,033667	0,5	-1,403450
13,042000	0,5	-1,494600
13,050333	0,5	-1,562950
13,058667	0,5	-1,612750
13,067000	0,5	-1,661200
13,075333	0,5	-1,689400
13,083667	0,5	-1,719450
13,092000	0,5	-1,731500
13,100333	0,5	-1,762050
13,108667	0,5	-1,787800
13,117000	0,5	-1,814600
13,125333	0,5	-1,848200
13,133667	0,5	-1,900800
13,142000	0,5	-1,936150
13,150333	0,5	-1,982600
13,158667	0,5	-2,026850
13,167000	0,5	-2,077050
13,175333	0,5	-2,140400
13,183667	0,5	-2,167350
13,192000	0,5	-2,200200
13,200333	0,5	-2,224600
13,208667	0,5	-2,243900
13,217000	0,5	-2,258400
13,225333	0,5	-2,271200
13,233667	0,5	-2,275200
13,242000	0,5	-2,282450
13,250333	0,5	-2,275850
13,258667	0,5	-2,263800
13,267000	0,5	-2,244950
13,275333	0,5	-2,222350
13,283667	0,5	-2,207250
13,292000	0,5	-2,168950
13,300333	0,5	-2,151200
13,308667	0,5	-2,137300
13,317000	0,5	-2,133150
13,325333	0,5	-2,140500
13,333667	0,5	-2,134550
13,342000	0,5	-2,141300
13,350333	0,5	-2,150050
13,358667	0,5	-2,149750
13,367000	0,5	-2,153100
13,375333	0,5	-2,139700
13,383667	0,5	-2,130850
13,392000	0,5	-2,107300
13,400333	0,5	-2,079950
13,408667	0,5	-2,053550
13,417000	0,5	-2,024400
13,425333	0,5	-2,004500
13,433667	0,5	-1,991850
13,442000	0,5	-1,970950
13,450333	0,5	-1,968300
13,458667	0,5	-1,973100
13,467000	0,5	-1,976950
13,475333	0,5	-1,997600
13,483667	0,5	-2,005150
13,492000	0,5	-2,010600
13,500333	0,5	-2,018850
13,508667	0,5	-2,031800
13,517000	0,5	-2,042700
13,525333	0,5	-2,049850
13,533667	0,5	-2,052450
13,542000	0,5	-2,053100
13,550333	0,5	-2,056150
13,558667	0,5	-2,058200
13,567000	0,5	-2,046000
13,575333	0,5	-2,044450
13,583667	0,5	-2,027900
13,592000	0,5	-2,024300
13,600333	0,5	-2,005450
13,608667	0,5	-2,006600
13,617000	0,5	-2,000100
13,625333	0,5	-1,990100
13,633667	0,5	-1,967300
13,642000	0,5	-1,949450
13,650333	0,5	-1,928850
13,658667	0,5	-1,905500
13,667000	0,5	-1,889800
13,675333	0,5	-1,866000
13,683667	0,5	-1,839450
13,692000	0,5	-1,809550
13,700333	0,5	-1,784250
13,708667	0,5	-1,742200
13,717000	0,5	-1,721800
13,725333	0,5	-1,697200
13,733667	0,5	-1,659900
13,742000	0,5	-1,627800
13,750333	0,5	-1,606950
13,758667	0,5	-1,594350
13,767000	0,5	-1,579250
13,775333	0,5	-1,552850
13,783667	0,5	-1,543850
13,792000	0,5	-1,532400
13,800333	0,5	-1,531100
13,808667	0,5	-1,526450
13,817000	0,5	-1,517350
13,825333	0,5	-1,513750
13,833667	0,5	-1,498400
13,842000	0,5	-1,495500
13,850333	0,5	-1,479450
13,858667	0,5	-1,459250
13,867000	0,5	-1,453150
13,875333	0,5	-1,420950
13,883667	0,5	-1,390450
13,892000	0,5	-1,362500
13,900333	0,5	-1,337850
13,908667	0,5	-1,320150
13,917000	0,5	-1,275750
13,925333	0,5	-1,220850
13,933667	0,5	-1,165100
13,942000	0,5	-1,102250
13,950333	0,5	-1,012200
13,958667	0,5	-0,928100
13,967000	0,5	-0,841000
13,975333	0,5	-0,749650
13,983667	0,5	-0,676900
13,992000	0,5	-0,616900
14,000333	0,5	-0,563050
14,008667	0,5	-0,532300
14,017000	0,5	-0,529350
14,025333	0,5	-0,510150
14,033667	0,5	-0,507900
14,042000	0,5	-0,506400
14,050333	0,5	-0,508400
14,058667	0,5	-0,502950
14,067000	0,5	-0,460100
14,075333	0,5	-0,391700
14,083667	0,5	-0,313350
14,092000	0,5	-0,208150
14,100333	0,5	-0,102700
14,108667	0,5	-0,001500
14,117000	0,5	0,070550
14,125333	0,5	0,117350
14,133667	0,5	0,140650
14,142000	0,5	0,131550
14,150333	0,5	0,106750
14,158667	0,5	0,083500
14,167000	0,5	0,059900
14,175333	0,5	0,053550
14,183667	0,5	0,051350
14,192000	0,5	0,048750
14,200333	0,5	0,052450
14,208667	0,5	0,047300
14,217000	0,5	0,080100
14,225333	0,5	0,087050
14,233667	0,5	0,090800
14,242000	0,5	0,105850
14,250333	0,5	0,121550
14,258667	0,5	0,128050
14,267000	0,5	0,141050
14,275333	0,5	0,149200
14,283667	0,5	0,159400
14,292000	0,5	0,169450
14,300333	0,5	0,176650
14,308667	0,5	0,173700
14,317000	0,5	0,186550
14,325333	0,5	0,201950
14,333667	0,5	0,219950
14,342000	0,5	0,232650
14,350333	0,5	0,246500
14,358667	0,5	0,261650
14,367000	0,5	0,282050
14,375333	0,5	0,286700
14,383667	0,5	0,284000
14,392000	0,5	0,280400
14,400333	0,5	0,266350
14,408667	0,5	0,252900
14,417000	0,5	0,242300
14,425333	0,5	0,232250
14,433667	0,5	0,218900
14,442000	0,5	0,202650
14,450333	0,5	0,195200
14,458667	0,5	0,182250
14,467000	0,5	0,185450
14,475333	0,5	0,176900
14,483667	0,5	0,176550
14,492000	0,5	0,163000
14,500333	0,5	0,156850
14,508667	0,5	0,155550
14,517000	0,5	0,162200
14,525333	0,5	0,170150
14,533667	0,5	0,169050
14,542000	0,5	0,180100
14,550333	0,5	0,201900
14,558667	0,5	0,245450
14,567000	0,5	0,307650
14,575333	0,5	0,397700
14,583667	0,5	0,506050
14,592000	0,5	0,604900
14,600333	0,5	0,682400
14,608667	0,5	0,704850
14,617000	0,5	0,699400
14,625333	0,5	0,637850
14,633667	0,5	0,572200
14,642000	0,5	0,492350
14,650333	0,5	0,446350
14,658667	0,5	0,449700
14,667000	0,5	0,493800
14,675333	0,5	0,564100
14,683667	0,5	0,661250
14,692000	0,5	0,733600
14,700333	0,5	0,767300
14,708667	0,5	0,764000
14,717000	0,5	0,714000
14,725333	0,5	0,635050
14,733667	0,5	0,550050
14,742000	0,5	0,473550
14,750333	0,5	0,393350
14,758667	0,5	0,345850
14,767000	0,5	0,319150
14,775333	0,5	0,286050
14,783667	0,5	0,263550
14,792000	0,5	0,235000
14,800333	0,5	0,229450
14,808667	0,5	0,239200
14,817000	0,5	0,247000
14,825333	0,5	0,272850
14,833667	0,5	0,288650
14,842000	0,5	0,309500
14,850333	0,5	0,312450
14,858667	0,5	0,314100
14,867000	0,5	0,299500
14,875333	0,5	0,285100
14,883667	0,5	0,279350
14,892000	0,5	0,257950
14,900333	0,5	0,233300
14,908667	0,5	0,230350
14,917000	0,5	0,221200
14,925333	0,5	0,198350
14,933667	0,5	0,171400
14,942000	0,5	0,131350
14,950333	0,5	0,117600
14,958667	0,5	0,095500
14,967000	0,5	0,083550
14,975333	0,5	0,068950
14,983667	0,5	0,070650
14,992000	0,5	0,052550
15,000333	0,5	0,049600
15,008667	0,5	0,031600
15,017000	0,5	0,021550
15,025333	0,5	0,015500
15,033667	0,5	0,013750
15,042000	0,5	0,007800
15,050333	0,5	0,007550
15,058667	0,5	0,026800
15,067000	0,5	0,046300
15,075333	0,5	0,080900
15,083667	0,5	0,132700
15,092000	0,5	0,222700
15,100333	0,5	0,347100
15,108667	0,5	0,472400
15,117000	0,5	0,573050
15,125333	0,5	0,629850
15,133667	0,5	0,619350
15,142000	0,5	0,574650
15,150333	0,5	0,508050
15,158667	0,5	0,468750
15,167000	0,5	0,459500
15,175333	0,5	0,487350
15,183667	0,5	0,567000
15,192000	0,5	0,625200
15,200333	0,5	0,683950
15,208667	0,5	0,686300
15,217000	0,5	0,632850
15,225333	0,5	0,539400
15,233667	0,5	0,420050
15,242000	0,5	0,337600
15,250333	0,5	0,282300
15,258667	0,5	0,228200
15,267000	0,5	0,209200
15,275333	0,5	0,189350
15,283667	0,5	0,176300
15,292000	0,5	0,149500
15,300333	0,5	0,132900
15,308667	0,5	0,107850
15,317000	0,5	0,074500
15,325333	0,5	0,063650
15,333667	0,5	0,066400
15,342000	0,5	0,049950
15,350333	0,5	0,069700
15,358667	0,5	0,073400
15,367000	0,5	0,076150
15,375333	0,5	0,060650
15,383667	0,5	0,037500
15,392000	0,5	0,033900
15,400333	0,5	0,018000
15,408667	0,5	-0,002550
15,417000	0,5	-0,030750
15,425333	0,5	-0,055750
15,433667	0,5	-0,082550
15,442000	0,5	-0,093600
15,450333	0,5	-0,106600
15,458667	0,5	-0,121350
15,467000	0,5	-0,135250
15,475333	0,5	-0,140500
15,483667	0,5	-0,157550
15,492000	0,5	-0,175100
15,500333	0,5	-0,170700
15,508667	0,5	-0,177800
15,517000	0,5	-0,166750
15,525333	0,5	-0,160350
15,533667	0,5	-0,133050
15,542000	0,5	-0,053150
15,550333	0,5	0,055100
15,558667	0,5	0,175450
15,567000	0,5	0,310550
15,575333	0,5	0,402950
15,583667	0,5	0,444950
15,592000	0,5	0,436850
15,600333	0,5	0,412950
15,608667	0,5	0,380450
15,617000	0,5	0,392200
15,625333	0,5	0,432800
15,633667	0,5	0,482200
15,642000	0,5	0,534750
15,650333	0,5	0,553750
15,658667	0,5	0,502500
15,667000	0,5	0,414850
15,675333	0,5	0,294450
15,683667	0,5	0,187550
15,692000	0,5	0,103600
15,700333	0,5	0,037600
15,708667	0,5	-0,014950
15,717000	0,5	-0,046450
15,725333	0,5	-0,074450
15,733667	0,5	-0,093250
15,742000	0,5	-0,088750
15,750333	0,5	-0,089150
15,758667	0,5	-0,075500
15,767000	0,5	-0,066000
15,775333	0,5	-0,063950
15,783667	0,5	-0,086750
15,792000	0,5	-0,094300
15,800333	0,5	-0,110350
15,808667	0,5	-0,139850
15,817000	0,5	-0,182200
15,825333	0,5	-0,213700
15,833667	0,5	-0,243650
15,842000	0,5	-0,262800
15,850333	0,5	-0,287750
15,858667	0,5	-0,294850
15,867000	0,5	-0,309750
15,875333	0,5	-0,324850
15,883667	0,5	-0,326800
15,892000	0,5	-0,334750
15,900333	0,5	-0,340600
15,908667	0,5	-0,349500
15,917000	0,5	-0,341750
15,925333	0,5	-0,347200
15,933667	0,5	-0,321050
15,942000	0,5	-0,266200
15,950333	0,5	-0,171550
15,958667	0,5	-0,054700
15,967000	0,5	0,062050
15,975333	0,5	0,171450
15,983667	0,5	0,276450
15,992000	0,5	0,310600
16,000333	0,5	0,322600
16,008667	0,5	0,333700
16,017000	0,5	0,361800
16,025333	0,5	0,391650
16,033667	0,5	0,423000
16,042000	0,5	0,416800
16,050333	0,5	0,361950
16,058667	0,5	0,270350
16,067000	0,5	0,177650
16,075333	0,5	0,059850
16,083667	0,5	-0,004000
16,092000	0,5	-0,056300
16,100333	0,5	-0,096650
16,108667	0,5	-0,116200
16,117000	0,5	-0,148300
16,125333	0,5	-0,140300
16,133667	0,5	-0,135800
16,142000	0,5	-0,125100
16,150333	0,5	-0,142450
16,158667	0,5	-0,135200
16,167000	0,5	-0,149300
16,175333	0,5	-0,158750
16,183667	0,5	-0,180850
16,192000	0,5	-0,200800
16,200333	0,5	-0,231300
16,208667	0,5	-0,259700
16,217000	0,5	-0,287500
16,225333	0,5	-0,328800
16,233667	0,5	-0,337050
16,242000	0,5	-0,360250
16,250333	0,5	-0,390650
16,258667	0,5	-0,424900
16,267000	0,5	-0,458850
16,275333	0,5	-0,455700
16,283667	0,5	-0,450350
16,292000	0,5	-0,453650
16,300333	0,5	-0,430100
16,308667	0,5	-0,372550
16,317000	0,5	-0,288300
16,325333	0,5	-0,170950
16,333667	0,5	-0,031700
16,342000	0,5	0,080850
16,350333	0,5	0,160200
16,358667	0,5	0,205500
16,367000	0,5	0,208150
16,375333	0,5	0,217050
16,383667	0,5	0,235150
16,392000	0,5	0,239250
16,400333	0,5	0,207750
16,408667	0,5	0,147250
16,417000	0,5	0,052050
16,425333	0,5	-0,025500
16,433667	0,5	-0,111550
16,442000	0,5	-0,164700
16,450333	0,5	-0,195950
16,458667	0,5	-0,205850
16,467000	0,5	-0,210000
16,475333	0,5	-0,191050
16,483667	0,5	-0,184900
16,492000	0,5	-0,163650
16,500333	0,5	-0,148700
16,508667	0,5	-0,129400
16,517000	0,5	-0,137850
16,525333	0,5	-0,124050
16,533667	0,5	-0,131400
16,542000	0,5	-0,141850
16,550333	0,5	-0,173900
16,558667	0,5	-0,209350
16,567000	0,5	-0,227500
16,575333	0,5	-0,239500
16,583667	0,5	-0,248750
16,592000	0,5	-0,252150
16,600333	0,5	-0,257050
16,608667	0,5	-0,268200
16,617000	0,5	-0,268750
16,625333	0,5	-0,270600
16,633667	0,5	-0,250650
16,642000	0,5	-0,215400
16,650333	0,5	-0,151150
16,658667	0,5	-0,067650
16,667000	0,5	0,012850
16,675333	0,5	0,106950
16,683667	0,5	0,165150
16,692000	0,5	0,179900
16,700333	0,5	0,177850
16,708667	0,5	0,159600
16,717000	0,5	0,156900
16,725333	0,5	0,127050
16,733667	0,5	0,081550
16,742000	0,5	-0,002300
16,750333	0,5	-0,084100
16,758667	0,5	-0,157500
16,767000	0,5	-0,220300
16,775333	0,5	-0,251900
16,783667	0,5	-0,292350
16,792000	0,5	-0,300650
16,800333	0,5	-0,313000
16,808667	0,5	-0,330100
16,817000	0,5	-0,343700
16,825333	0,5	-0,334900
16,833667	0,5	-0,349400
16,842000	0,5	-0,362950
16,850333	0,5	-0,393300
16,858667	0,5	-0,407250
16,867000	0,5	-0,416450
16,875333	0,5	-0,447850
16,883667	0,5	-0,466650
16,892000	0,5	-0,473300
16,900333	0,5	-0,484900
16,908667	0,5	-0,493600
16,917000	0,5	-0,491400
16,925333	0,5	-0,472400
16,933667	0,5	-0,443950
16,942000	0,5	-0,394650
16,950333	0,5	-0,307200
16,958667	0,5	-0,225300
16,967000	0,5	-0,105300
16,975333	0,5	0,006600
16,983667	0,5	0,098300
16,992000	0,5	0,163800
17,000333	0,5	0,218900
17,008667	0,5	0,289600
17,017000	0,5	0,371250
17,025333	0,5	0,422650
17,033667	0,5	0,484550
17,042000	0,5	0,553650
17,050333	0,5	0,637750
17,058667	0,5	0,741000
17,067000	0,5	0,852300
17,075333	0,5	0,969200
17,083667	0,5	1,075750
17,092000	0,5	1,187300
17,100333	0,5	1,255800
17,108667	0,5	1,317650
17,117000	0,5	1,379400
17,125333	0,5	1,420250
17,133667	0,5	1,424300
17,142000	0,5	1,395750
17,150333	0,5	1,334650
17,158667	0,5	1,266850
17,167000	0,5	1,165450
17,175333	0,5	1,048350
17,183667	0,5	0,906800
17,192000	0,5	0,769200
17,200333	0,5	0,643150
17,208667	0,5	0,541450
17,217000	0,5	0,478700
17,225333	0,5	0,437200
17,233667	0,5	0,439650
17,242000	0,5	0,456850
17,250333	0,5	0,473450
17,258667	0,5	0,521300
17,267000	0,5	0,546550
17,275333	0,5	0,544850
17,283667	0,5	0,526750
17,292000	0,5	0,470200
17,300333	0,5	0,419150
17,308667	0,5	0,345850
17,317000	0,5	0,278500
17,325333	0,5	0,217350
17,333667	0,5	0,180300
17,342000	0,5	0,161500
17,350333	0,5	0,163850
17,358667	0,5	0,185200
17,367000	0,5	0,216700
17,375333	0,5	0,248700
17,383667	0,5	0,271450
17,392000	0,5	0,311100
17,400333	0,5	0,307000
17,408667	0,5	0,354250
17,417000	0,5	0,364350
17,425333	0,5	0,357850
17,433667	0,5	0,333600
17,442000	0,5	0,287100
17,450333	0,5	0,249550
17,458667	0,5	0,222000
17,467000	0,5	0,175850
17,475333	0,5	0,157750
17,483667	0,5	0,145850
17,492000	0,5	0,156400
17,500333	0,5	0,151600
17,508667	0,5	0,151250
17,517000	0,5	0,135200
17,525333	0,5	0,100800
17,533667	0,5	0,059850
17,542000	0,5	-0,002350
17,550333	0,5	-0,095150
17,558667	0,5	-0,154050
17,567000	0,5	-0,218500
17,575333	0,5	-0,284650
17,583667	0,5	-0,341050
17,592000	0,5	-0,393900
17,600333	0,5	-0,406300
17,608667	0,5	-0,438950
17,617000	0,5	-0,460100
17,625333	0,5	-0,483900
17,633667	0,5	-0,498150
17,642000	0,5	-0,526950
17,650333	0,5	-0,535150
17,658667	0,5	-0,548900
17,667000	0,5	-0,557300
17,675333	0,5	-0,564350
17,683667	0,5	-0,557650
17,692000	0,5	-0,555300
17,700333	0,5	-0,512200
17,708667	0,5	-0,467250
17,717000	0,5	-0,416350
17,725333	0,5	-0,364700
17,733667	0,5	-0,342150
17,742000	0,5	-0,317750
17,750333	0,5	-0,309300
17,758667	0,5	-0,309400
17,767000	0,5	-0,340150
17,775333	0,5	-0,371450
17,783667	0,5	-0,418750
17,792000	0,5	-0,459350
17,800333	0,5	-0,493000
17,808667	0,5	-0,509750
17,817000	0,5	-0,540350
17,825333	0,5	-0,550100
17,833667	0,5	-0,570750
17,842000	0,5	-0,595200
17,850333	0,5	-0,595100
17,858667	0,5	-0,604250
17,867000	0,5	-0,611700
17,875333	0,5	-0,631700
17,883667	0,5	-0,640750
17,892000	0,5	-0,635200
17,900333	0,5	-0,600300
17,908667	0,5	-0,576600
17,917000	0,5	-0,535750
17,925333	0,5	-0,484100
17,933667	0,5	-0,427500
17,942000	0,5	-0,394300
17,950333	0,5	-0,363700
17,958667	0,5	-0,374150
17,967000	0,5	-0,388150
17,975333	0,5	-0,429050
17,983667	0,5	-0,468000
17,992000	0,5	-0,503950
18,000333	0,5	-0,518000
18,008667	0,5	-0,540050
18,017000	0,5	-0,563350
18,025333	0,5	-0,611100
18,033667	0,5	-0,635800
18,042000	0,5	-0,635150
18,050333	0,5	-0,642000
18,058667	0,5	-0,655150
18,067000	0,5	-0,653150
18,075333	0,5	-0,658600
18,083667	0,5	-0,653250
18,092000	0,5	-0,628800
18,100333	0,5	-0,606850
18,108667	0,5	-0,570900
18,117000	0,5	-0,523500
18,125333	0,5	-0,470100
18,133667	0,5	-0,461000
18,142000	0,5	-0,423200
18,150333	0,5	-0,420600
18,158667	0,5	-0,435800
18,167000	0,5	-0,476950
18,175333	0,5	-0,525600
18,183667	0,5	-0,542850
18,192000	0,5	-0,558750
18,200333	0,5	-0,588750
18,208667	0,5	-0,596350
18,217000	0,5	-0,610600
18,225333	0,5	-0,624250
18,233667	0,5	-0,642300
18,242000	0,5	-0,667400
18,250333	0,5	-0,668300
18,258667	0,5	-0,682900
18,267000	0,5	-0,673750
18,275333	0,5	-0,671250
18,283667	0,5	-0,658650
18,292000	0,5	-0,628750
18,300333	0,5	-0,599850
18,308667	0,5	-0,597300
18,317000	0,5	-0,586650
18,325333	0,5	-0,616550
18,333667	0,5	-0,625550
18,342000	0,5	-0,651900
18,350333	0,5	-0,674900
18,358667	0,5	-0,703050
18,367000	0,5	-0,720800
18,375333	0,5	-0,736550
18,383667	0,5	-0,747600
18,392000	0,5	-0,758600
18,400333	0,5	-0,761000
18,408667	0,5	-0,770450
18,417000	0,5	-0,772950
18,425333	0,5	-0,779650
18,433667	0,5	-0,774100
18,442000	0,5	-0,766700
18,450333	0,5	-0,754650
18,458667	0,5	-0,747550
18,467000	0,5	-0,751800
18,475333	0,5	-0,737150
18,483667	0,5	-0,724450
18,492000	0,5	-0,718550
18,500333	0,5	-0,734000
18,508667	0,5	-0,756600
18,517000	0,5	-0,786650
18,525333	0,5	-0,816950
18,533667	0,5	-0,843500
18,542000	0,5	-0,875500
18,550333	0,5	-0,891750
18,558667	0,5	-0,901750
18,567000	0,5	-0,899750
18,575333	0,5	-0,922200
18,583667	0,5	-0,917250
18,592000	0,5	-0,925900
18,600333	0,5	-0,926000
18,608667	0,5	-0,930300
18,617000	0,5	-0,929700
18,625333	0,5	-0,899800
18,633667	0,5	-0,868750
18,642000	0,5	-0,862000
18,650333	0,5	-0,872600
18,658667	0,5	-0,885400
18,667000	0,5	-0,892500
18,675333	0,5	-0,913350
18,683667	0,5	-0,907350
18,692000	0,5	-0,908700
18,700333	0,5	-0,903100
18,708667	0,5	-0,888300
18,717000	0,5	-0,878600
18,725333	0,5	-0,877500
18,733667	0,5	-0,841050
18,742000	0,5	-0,810850
18,750333	0,5	-0,789500
18,758667	0,5	-0,777900
18,767000	0,5	-0,769500
18,775333	0,5	-0,742250
18,783667	0,5	-0,738000
18,792000	0,5	-0,736100
18,800333	0,5	-0,746700
18,808667	0,5	-0,747100
18,817000	0,5	-0,776500
18,825333	0,5	-0,782650
18,833667	0,5	-0,790250
18,842000	0,5	-0,792200
18,850333	0,5	-0,773550
18,858667	0,5	-0,767850
18,867000	0,5	-0,771950
18,875333	0,5	-0,764450
18,883667	0,5	-0,752700
18,892000	0,5	-0,760100
18,900333	0,5	-0,769950
18,908667	0,5	-0,813950
18,917000	0,5	-0,844050
18,925333	0,5	-0,875900
18,933667	0,5	-0,904750
18,942000	0,5	-0,931300
18,950333	0,5	-0,950600
18,958667	0,5	-0,979300
18,967000	0,5	-0,992550
18,975333	0,5	-1,006000
18,983667	0,5	-1,007550
18,992000	0,5	-1,014850
19,000333	0,5	-1,014200
19,008667	0,5	-1,021350
19,017000	0,5	-1,035950
19,025333	0,5	-1,044050
19,033667	0,5	-1,053950
19,042000	0,5	-1,071700
19,050333	0,5	-1,103600
19,058667	0,5	-1,123050
19,067000	0,5	-1,154650
19,075333	0,5	-1,155600
19,083667	0,5	-1,173450
19,092000	0,5	-1,170200
19,100333	0,5	-1,180900
19,108667	0,5	-1,189950
19,117000	0,5	-1,203800
19,125333	0,5	-1,210700
19,133667	0,5	-1,223000
19,142000	0,5	-1,249750
19,150333	0,5	-1,262600
19,158667	0,5	-1,294800
19,167000	0,5	-1,315100
19,175333	0,5	-1,314100
19,183667	0,5	-1,324250
19,192000	0,5	-1,332500
19,200333	0,5	-1,365450
19,208667	0,5	-1,371000
19,217000	0,5	-1,369450
19,225333	0,5	-1,386200
19,233667	0,5	-1,391800
19,242000	0,5	-1,407950
19,250333	0,5	-1,420000
19,258667	0,5	-1,433950
19,267000	0,5	-1,435450
19,275333	0,5	-1,446800
19,283667	0,5	-1,450700
19,292000	0,5	-1,456350
19,300333	0,5	-1,455550
19,308667	0,5	-1,484000
19,317000	0,5	-1,479900
19,325333	0,5	-1,493850
19,333667	0,5	-1,510500
19,342000	0,5	-1,525100
19,350333	0,5	-1,561250
19,358667	0,5	-1,561550
19,367000	0,5	-1,570850
19,375333	0,5	-1,583450
19,383667	0,5	-1,595050
19,392000	0,5	-1,600700
19,400333	0,5	-1,602900
19,408667	0,5	-1,599350
19,417000	0,5	-1,612400
19,425333	0,5	-1,617500
19,433667	0,5	-1,626550
19,442000	0,5	-1,623650
19,450333	0,5	-1,628200
19,458667	0,5	-1,637850
19,467000	0,5	-1,627150
19,475333	0,5	-1,630200
19,483667	0,5	-1,666700
19,492000	0,5	-1,699150
19,500333	0,5	-1,732150
19,508667	0,5	-1,725550
19,517000	0,5	-1,727000
19,525333	0,5	-1,742950
19,533667	0,5	-1,747000
19,542000	0,5	-1,753900
19,550333	0,5	-1,759400
19,558667	0,5	-1,778900
19,567000	0,5	-1,783900
19,575333	0,5	-1,797650
19,583667	0,5	-1,810450
19,592000	0,5	-1,814600
19,600333	0,5	-1,827950
19,608667	0,5	-1,825800
19,617000	0,5	-1,828650
19,625333	0,5	-1,833000
19,633667	0,5	-1,845950
19,642000	0,5	-1,875250
19,650333	0,5	-1,882650
19,658667	0,5	-1,874550
19,667000	0,5	-1,878800
19,675333	0,5	-1,892400
19,683667	0,5	-1,889100
19,692000	0,5	-1,910550
19,700333	0,5	-1,917400
19,708667	0,5	-1,918650
19,717000	0,5	-1,932100
19,725333	0,5	-1,938350
19,733667	0,5	-1,946850
19,742000	0,5	-1,943650
19,750333	0,5	-1,972850
19,758667	0,5	-1,956750
19,767000	0,5	-1,967250
19,775333	0,5	-1,961600
19,783667	0,5	-1,971600
19,792000	0,5	-1,980500
19,800333	0,5	-1,953500
19,808667	0,5	-1,915950
19,817000	0,5	-1,886950
19,825333	0,5	-1,850150
19,833667	0,5	-1,815550
19,842000	0,5	-1,788100
19,850333	0,5	-1,770450
19,858667	0,5	-1,759650
19,867000	0,5	-1,768750
19,875333	0,5	-1,785700
19,883667	0,5	-1,788150
19,892000	0,5	-1,830200
19,900333	0,5	-1,876300
19,908667	0,5	-1,906500
19,917000	0,5	-1,945350
19,925333	0,5	-1,990250
19,933667	0,5	-2,040750
19,942000	0,5	-2,089000
19,950333	0,5	-2,107750
19,958667	0,5	-2,129200
19,967000	0,5	-2,160550
19,975333	0,5	-2,187700
19,983667	0,5	-2,205000
19,992000	0,5	-2,237850
20,000333	0,5	-2,260150
20,008667	0,5	-2,289500
20,017000	0,5	-2,318400
20,025333	0,5	-2,330700
20,033667	0,5	-2,344750
20,042000	0,5	-2,375200
20,050333	0,5	-2,398350
20,058667	0,5	-2,408100
20,067000	0,5	-2,434350
20,075333	0,5	-2,456400
20,083667	0,5	-2,492750
20,092000	0,5	-2,509050
20,100333	0,5	-2,518700
20,108667	0,5	-2,535700
20,117000	0,5	-2,549000
20,125333	0,5	-2,550850
20,133667	0,5	-2,552400
20,142000	0,5	-2,555800
20,150333	0,5	-2,558000
20,158667	0,5	-2,554350
20,167000	0,5	-2,557100
20,175333	0,5	-2,541350
20,183667	0,5	-2,540550
20,192000	0,5	-2,547550
20,200333	0,5	-2,541650
20,208667	0,5	-2,558600
20,217000	0,5	-2,572750
20,225333	0,5	-2,625050
20,233667	0,5	-2,644700
20,242000	0,5	-2,670000
20,250333	0,5	-2,684500
20,258667	0,5	-2,707550
20,267000	0,5	-2,709550
20,275333	0,5	-2,732100
20,283667	0,5	-2,745500
20,292000	0,5	-2,768800
20,300333	0,5	-2,778500
20,308667	0,5	-2,802350
20,317000	0,5	-2,822850
20,325333	0,5	-2,834700
20,333667	0,5	-2,867700
20,342000	0,5	-2,890150
20,350333	0,5	-2,914300
20,358667	0,5	-2,941450
20,367000	0,5	-2,978700
20,375333	0,5	-3,032000
20,383667	0,5	-3,047450
20,392000	0,5	-3,064850
20,400333	0,5	-3,095000
20,408667	0,5	-3,112650
20,417000	0,5	-3,150250
20,425333	0,5	-3,171400
20,433667	0,5	-3,206050
20,442000	0,5	-3,218100
20,450333	0,5	-3,233650
20,458667	0,5	-3,265850
20,467000	0,5	-3,257650
20,475333	0,5	-3,275400
20,483667	0,5	-3,303900
20,492000	0,5	-3,308950
20,500333	0,5	-3,311850
20,508667	0,5	-3,313800
20,517000	0,5	-3,313100
20,525333	0,5	-3,350900
20,533667	0,5	-3,337350
20,542000	0,5	-3,352050
20,550333	0,5	-3,385900
20,558667	0,5	-3,441850
20,567000	0,5	-3,481450
20,575333	0,5	-3,555550
20,583667	0,5	-3,592450
20,592000	0,5	-3,638050
20,600333	0,5	-3,682250
20,608667	0,5	-3,708550
20,617000	0,5	-3,724050
20,625333	0,5	-3,747700
20,633667	0,5	-3,805800
20,642000	0,5	-3,841500
20,650333	0,5	-3,864150
20,658667	0,5	-3,900850
20,667000	0,5	-3,952300
20,675333	0,5	-3,957500
20,683667	0,5	-3,941600
20,692000	0,5	-3,915800
20,700333	0,5	-3,891850
20,708667	0,5	-3,864500
20,717000	0,5	-3,876800
20,725333	0,5	-3,904400
20,733667	0,5	-3,975600
20,742000	0,5	-4,055600
20,750333	0,5	-4,139950
20,758667	0,5	-4,199400
20,767000	0,5	-4,256650
20,775333	0,5	-4,317750
20,783667	0,5	-4,373450
20,792000	0,5	-4,438900
20,800333	0,5	-4,499550
20,808667	0,5	-4,573150
20,817000	0,5	-4,635650
20,825333	0,5	-4,688000
20,833667	0,5	-4,720700
20,842000	0,5	-4,770450
20,850333	0,5	-4,797000
20,858667	0,5	-4,819200
20,867000	0,5	-4,853600
20,875333	0,5	-4,875350
20,883667	0,5	-4,901350
20,892000	0,5	-4,939850
20,900333	0,5	-4,988750
20,908667	0,5	-5,014550
20,917000	0,5	-5,050050
20,925333	0,5	-5,100100
20,933667	0,5	-5,149850
20,942000	0,5	-5,201300
20,950333	0,5	-5,250100
20,958667	0,5	-5,302400
20,967000	0,5	-5,362200
20,975333	0,5	-5,387200
20,983667	0,5	-5,426500
20,992000	0,5	-5,463150
21,000333	0,5	-5,500750
21,008667	0,5	-5,537700
21,017000	0,5	-5,574250
21,025333	0,5	-5,593600
21,033667	0,5	-5,623150
21,042000	0,5	-5,651200
21,050333	0,5	-5,669500
21,058667	0,5	-5,666100
21,067000	0,5	-5,692950
21,075333	0,5	-5,721900
21,083667	0,5	-5,764800
21,092000	0,5	-5,802750
21,100333	0,5	-5,855300
21,108667	0,5	-5,913050
21,117000	0,5	-5,956000
21,125333	0,5	-5,991550
21,133667	0,5	-6,029750
21,142000	0,5	-6,060150
21,150333	0,5	-6,079700
21,158667	0,5	-6,113450
21,167000	0,5	-6,139700
21,175333	0,5	-6,159450
21,183667	0,5	-6,186700
21,192000	0,5	-6,211900
21,200333	0,5	-6,204550
21,208667	0,5	-6,210200
21,217000	0,5	-6,230650
21,225333	0,5	-6,251900
21,233667	0,5	-6,272550
21,242000	0,5	-6,307000
21,250333	0,5	-6,363450
21,258667	0,5	-6,395150
21,267000	0,5	-6,393800
21,275333	0,5	-6,384000
21,283667	0,5	-6,407700
21,292000	0,5	-6,417750
21,300333	0,5	-6,446300
21,308667	0,5	-6,472050
21,317000	0,5	-6,502300
21,325333	0,5	-6,519900
21,333667	0,5	-6,546200
21,342000	0,5	-6,553850
21,350333	0,5	-6,552650
21,358667	0,5	-6,557550
21,367000	0,5	-6,593350
21,375333	0,5	-6,619400
21,383667	0,5	-6,641200
21,392000	0,5	-6,678000
21,400333	0,5	-6,709400
21,408667	0,5	-6,709550
21,417000	0,5	-6,717550
21,425333	0,5	-6,739650
21,433667	0,5	-6,748900
21,442000	0,5	-6,769900
21,450333	0,5	-6,781300
21,458667	0,5	-6,805800
21,467000	0,5	-6,806200
21,475333	0,5	-6,827000
21,483667	0,5	-6,842800
21,492000	0,5	-6,823750
21,500333	0,5	-6,819250
21,508667	0,5	-6,830800
21,517000	0,5	-6,835200
21,525333	0,5	-6,842300
21,533667	0,5	-6,870800
21,542000	0,5	-6,905250
21,550333	0,5	-6,930850
21,558667	0,5	-6,928500
21,567000	0,5	-6,948000
21,575333	0,5	-6,959850
21,583667	0,5	-6,972700
21,592000	0,5	-6,969850
21,600333	0,5	-6,985250
21,608667	0,5	-6,976000
21,617000	0,5	-6,977550
21,625333	0,5	-6,983800
21,633667	0,5	-6,970050
21,642000	0,5	-6,933300
21,650333	0,5	-6,919000
21,658667	0,5	-6,919350
21,667000	0,5	-6,935700
21,675333	0,5	-6,960950
21,683667	0,5	-7,008100
21,692000	0,5	-7,066400
21,700333	0,5	-7,081050
21,708667	0,5	-7,103350
21,717000	0,5	-7,111550
21,725333	0,5	-7,144500
21,733667	0,5	-7,147200
21,742000	0,5	-7,178700
21,750333	0,5	-7,195300
21,758667	0,5	-7,233200
21,767000	0,5	-7,266050
21,775333	0,5	-7,287450
21,783667	0,5	-7,297400
21,792000	0,5	-7,307550
21,800333	0,5	-7,337600
21,808667	0,5	-7,349800
21,817000	0,5	-7,388400
21,825333	0,5	-7,398200
21,833667	0,5	-7,435700
21,842000	0,5	-7,461050
21,850333	0,5	-7,473150
21,858667	0,5	-7,479800
21,867000	0,5	-7,503300
21,875333	0,5	-7,496400
21,883667	0,5	-7,506900
21,892000	0,5	-7,521700
21,900333	0,5	-7,522450
21,908667	0,5	-7,476950
21,917000	0,5	-7,425500
21,925333	0,5	-7,357850
21,933667	0,5	-7,299100
21,942000	0,5	-7,295200
21,950333	0,5	-7,338950
21,958667	0,5	-7,389100
21,967000	0,5	-7,456750
21,975333	0,5	-7,529850
21,983667	0,5	-7,595600
21,992000	0,5	-7,664300
22,000333	0,5	-7,675000
22,008667	0,5	-7,721950
22,017000	0,5	-7,741050
22,025333	0,5	-7,780450
22,033667	0,5	-7,806300
22,042000	0,5	-7,846350
22,050333	0,5	-7,861500
22,058667	0,5	-7,887500
22,067000	0,5	-7,922950
22,075333	0,5	-7,927950
22,083667	0,5	-7,953900
22,092000	0,5	-7,974550
22,100333	0,5	-7,990550
22,108667	0,5	-8,017450
22,117000	0,5	-8,038900
22,125333	0,5	-8,067650
22,133667	0,5	-8,106450
22,142000	0,5	-8,108950
22,150333	0,5	-8,126400
22,158667	0,5	-8,129950
22,167000	0,5	-8,148750
22,175333	0,5	-8,145400
22,183667	0,5	-8,163150
22,192000	0,5	-8,163900
22,200333	0,5	-8,181000
22,208667	0,5	-8,186600
22,217000	0,5	-8,189700
22,225333	0,5	-8,200950
22,233667	0,5	-8,226150
22,242000	0,5	-8,201650
22,250333	0,5	-8,197400
22,258667	0,5	-8,198000
22,267000	0,5	-8,189550
22,275333	0,5	-8,215800
22,283667	0,5	-8,211400
22,292000	0,5	-8,207950
22,300333	0,5	-8,173600
22,308667	0,5	-8,169200
22,317000	0,5	-8,142800
22,325333	0,5	-8,124550
22,333667	0,5	-8,084000
22,342000	0,5	-8,022650
22,350333	0,5	-7,931950
22,358667	0,5	-7,826750
22,367000	0,5	-7,759400
22,375333	0,5	-7,738650
22,383667	0,5	-7,762550
22,392000	0,5	-7,813300
22,400333	0,5	-7,872150
22,408667	0,5	-7,943500
22,417000	0,5	-8,002250
22,425333	0,5	-8,042450
22,433667	0,5	-8,055250
22,442000	0,5	-8,072950
22,450333	0,5	-8,095800
22,458667	0,5	-8,094900
22,467000	0,5	-8,102400
22,475333	0,5	-8,100850
22,483667	0,5	-8,099950
22,492000	0,5	-8,086550
22,500333	0,5	-8,081550
22,508667	0,5	-8,091550
22,517000	0,5	-8,109600
22,525333	0,5	-8,098500
22,533667	0,5	-8,040800
22,542000	0,5	-7,994850
22,550333	0,5	-7,963000
22,558667	0,5	-7,951150
22,567000	0,5	-7,947400
22,575333	0,5	-7,936200
22,583667	0,5	-7,926400
22,592000	0,5	-7,932650
22,600333	0,5	-7,928350
22,608667	0,5	-7,938600
22,617000	0,5	-7,923700
22,625333	0,5	-7,937050
22,633667	0,5	-7,909950
22,642000	0,5	-7,910050
22,650333	0,5	-7,920000
22,658667	0,5	-7,975100
22,667000	0,5	-7,986100
22,675333	0,5	-7,979850
22,683667	0,5	-7,955800
22,692000	0,5	-7,961950
22,700333	0,5	-7,974650
22,708667	0,5	-7,993550
22,717000	0,5	-8,048700
22,725333	0,5	-8,044850
22,733667	0,5	-8,064550
22,742000	0,5	-8,072150
22,750333	0,5	-8,082600
22,758667	0,5	-8,102000
22,767000	0,5	-8,120550
22,775333	0,5	-8,130750
22,783667	0,5	-8,146450
22,792000	0,5	-8,161000
22,800333	0,5	-8,183000
22,808667	0,5	-8,286800
22,817000	0,5	-8,296900
22,825333	0,5	-8,283900
22,833667	0,5	-8,300000
22,842000	0,5	-8,345150
22,850333	0,5	-8,370100
22,858667	0,5	-8,398200
22,867000	0,5	-8,439500
22,875333	0,5	-8,464100
22,883667	0,5	-8,495550
22,892000	0,5	-8,510800
22,900333	0,5	-8,528000
22,908667	0,5	-8,536900
22,917000	0,5	-8,544450
22,925333	0,5	-8,538800
22,933667	0,5	-8,541000
22,942000	0,5	-8,525550
22,950333	0,5	-8,502750
22,958667	0,5	-8,522300
22,967000	0,5	-8,483750
22,975333	0,5	-8,490800
22,983667	0,5	-8,478200
22,992000	0,5	-8,468000
23,000333	0,5	-8,427450
23,008667	0,5	-8,402700
23,017000	0,5	-8,368700
23,025333	0,5	-8,352800
23,033667	0,5	-8,296550
23,042000	0,5	-8,261000
23,050333	0,5	-8,189700
23,058667	0,5	-8,141450
23,067000	0,5	-8,061150
23,075333	0,5	-7,988900
23,083667	0,5	-7,903500
23,092000	0,5	-7,811700
23,100333	0,5	-7,723100
23,108667	0,5	-7,632850
23,117000	0,5	-7,564750
23,125333	0,5	-7,523900
23,133667	0,5	-7,454050
23,142000	0,5	-7,380100
23,150333	0,5	-7,290550
23,158667	0,5	-7,203150
23,167000	0,5	-7,138000
23,175333	0,5	-7,059900
23,183667	0,5	-6,974100
23,192000	0,5	-6,883900
23,200333	0,5	-6,794950
23,208667	0,5	-6,696400
23,217000	0,5	-6,612850
23,225333	0,5	-6,504800
23,233667	0,5	-6,403550
23,242000	0,5	-6,275950
23,250333	0,5	-6,223550
23,258667	0,5	-6,095750
23,267000	0,5	-6,000700
23,275333	0,5	-5,943650
23,283667	0,5	-5,870550
23,292000	0,5	-5,780750
23,300333	0,5	-5,684500
23,308667	0,5	-5,617450
23,317000	0,5	-5,551050
23,325333	0,5	-5,472050
23,333667	0,5	-5,392900
23,342000	0,5	-5,328250
23,350333	0,5	-5,241250
23,358667	0,5	-5,171600
23,367000	0,5	-5,092700
23,375333	0,5	-5,011650
23,383667	0,5	-4,931550
23,392000	0,5	-4,885400
23,400333	0,5	-4,824100
23,408667	0,5	-4,691400
23,417000	0,5	-4,610950
23,425333	0,5	-4,565000
23,433667	0,5	-4,501050
23,442000	0,5	-4,436250
23,450333	0,5	-4,378750
23,458667	0,5	-4,335150
23,467000	0,5	-4,284300
23,475333	0,5	-4,229700
23,483667	0,5	-4,182400
23,492000	0,5	-4,134200
23,500333	0,5	-4,079100
23,508667	0,5	-4,030750
23,517000	0,5	-3,992200
23,525333	0,5	-3,934350
23,533667	0,5	-3,889300
23,542000	0,5	-3,974400
23,550333	0,5	-3,895550
23,558667	0,5	-3,801750
23,567000	0,5	-3,740050
23,575333	0,5	-3,696750
23,583667	0,5	-3,658950
23,592000	0,5	-3,615900
23,600333	0,5	-3,576100
23,608667	0,5	-3,550150
23,617000	0,5	-3,515200
23,625333	0,5	-3,485500
23,633667	0,5	-3,448500
23,642000	0,5	-3,420800
23,650333	0,5	-3,391200
23,658667	0,5	-3,356050
23,667000	0,5	-3,322900
23,675333	0,5	-3,288950
23,683667	0,5	-3,375200
23,692000	0,5	-3,386600
23,700333	0,5	-3,354150
23,708667	0,5	-3,253600
23,717000	0,5	-3,206850
23,725333	0,5	-3,169900
23,733667	0,5	-3,149000
23,742000	0,5	-3,138550
23,750333	0,5	-3,117650
23,758667	0,5	-3,087950
23,767000	0,5	-3,062250
23,775333	0,5	-3,036700
23,783667	0,5	-3,015700
23,792000	0,5	-2,988400
23,800333	0,5	-2,959450
23,808667	0,5	-2,929550
23,817000	0,5	-2,896450
23,825333	0,5	-2,869750
23,833667	0,5	-3,034900
23,842000	0,5	-2,995650
23,850333	0,5	-2,941200
23,858667	0,5	-2,852450
23,867000	0,5	-2,803900
23,875333	0,5	-2,763650
23,883667	0,5	-2,737200
23,892000	0,5	-2,728850
23,900333	0,5	-2,697450
23,908667	0,5	-2,672900
23,917000	0,5	-2,649500
23,925333	0,5	-2,631850
23,933667	0,5	-2,601000
23,942000	0,5	-2,577250
23,950333	0,5	-2,550800
23,958667	0,5	-2,528600
23,967000	0,5	-2,506750
23,975333	0,5	-2,525350
23,983667	0,5	-2,658450
23,992000	0,5	-2,596500
24,000333	0,5	-2,538250
24,008667	0,5	-2,461950
24,017000	0,5	-2,427750
24,025333	0,5	-2,392000
24,033667	0,5	-2,382150
24,042000	0,5	-2,365350
24,050333	0,5	-2,341900
24,058667	0,5	-2,298850
24,067000	0,5	-2,271450
24,075333	0,5	-2,234950
24,083667	0,5	-2,208600
24,092000	0,5	-2,176500
24,100333	0,5	-2,150700
24,108667	0,5	-2,115000
24,117000	0,5	-2,093500
24,125333	0,5	-2,201950
24,133667	0,5	-2,214000
24,142000	0,5	-2,168150
24,150333	0,5	-2,105200
24,158667	0,5	-2,064350
24,167000	0,5	-2,029950
24,175333	0,5	-2,007900
24,183667	0,5	-1,998450
24,192000	0,5	-1,984700
24,200333	0,5	-1,949600
24,208667	0,5	-1,930100
24,217000	0,5	-1,899450
24,225333	0,5	-1,874650
24,233667	0,5	-1,844900
24,242000	0,5	-1,829500
24,250333	0,5	-1,787800
24,258667	0,5	-1,768100
24,267000	0,5	-1,751500
24,275333	0,5	-1,858200
24,283667	0,5	-1,828700
24,292000	0,5	-1,776700
24,300333	0,5	-1,714000
24,308667	0,5	-1,677150
24,317000	0,5	-1,644850
24,325333	0,5	-1,637600
24,333667	0,5	-1,632700
24,342000	0,5	-1,608350
24,350333	0,5	-1,590950
24,358667	0,5	-1,570850
24,367000	0,5	-1,554300
24,375333	0,5	-1,530750
24,383667	0,5	-1,516250
24,392000	0,5	-1,491800
24,400333	0,5	-1,477450
24,408667	0,5	-1,454050
24,417000	0,5	-1,482000
24,425333	0,5	-1,523150
24,433667	0,5	-1,508250
24,442000	0,5	-1,455000
24,450333	0,5	-1,422900
24,458667	0,5	-1,391450
24,467000	0,5	-1,381300
24,475333	0,5	-1,376000
24,483667	0,5	-1,359000
24,492000	0,5	-1,338350
24,500333	0,5	-1,315350
24,508667	0,5	-1,295750
24,517000	0,5	-1,280250
24,525333	0,5	-1,266350
24,533667	0,5	-1,251400
24,542000	0,5	-1,229950
24,550333	0,5	-1,203900
24,558667	0,5	-1,194300
24,567000	0,5	-1,259450
24,575333	0,5	-1,250550
24,583667	0,5	-1,225350
24,592000	0,5	-1,189550
24,600333	0,5	-1,165500
24,608667	0,5	-1,156000
24,617000	0,5	-1,141150
24,625333	0,5	-1,143600
24,633667	0,5	-1,131750
24,642000	0,5	-1,121300
24,650333	0,5	-1,110600
24,658667	0,5	-1,102350
24,667000	0,5	-1,090400
24,675333	0,5	-1,080700
24,683667	0,5	-1,068050
24,692000	0,5	-1,051200
24,700333	0,5	-1,039100
24,708667	0,5	-1,027800
24,717000	0,5	-1,073250
24,725333	0,5	-1,047900
24,733667	0,5	-1,032950
24,742000	0,5	-1,004600
24,750333	0,5	-0,989150
24,758667	0,5	-0,975500
24,767000	0,5	-0,968700
24,775333	0,5	-0,965850
24,783667	0,5	-0,955150
24,792000	0,5	-0,945650
24,800333	0,5	-0,937500
24,808667	0,5	-0,930650
24,817000	0,5	-0,930300
24,825333	0,5	-0,924850
24,833667	0,5	-0,917450
24,842000	0,5	-0,911450
24,850333	0,5	-0,900400
24,858667	0,5	-0,923700
24,867000	0,5	-0,923200
24,875333	0,5	-0,916200
24,883667	0,5	-0,900700
24,892000	0,5	-0,886300
24,900333	0,5	-0,871600
24,908667	0,5	-0,864550
24,917000	0,5	-0,862650
24,925333	0,5	-0,857800
24,933667	0,5	-0,842250
24,942000	0,5	-0,836350
24,950333	0,5	-0,829350
24,958667	0,5	-0,825500
24,967000	0,5	-0,818350
24,975333	0,5	-0,814300
24,983667	0,5	-0,808850
24,992000	0,5	-0,801400
25,000333	0,5	-0,801400
25,008667	0,5	-0,820150
25,017000	0,5	-0,812400
25,025333	0,5	-0,811750
25,033667	0,5	-0,803500
25,042000	0,5	-0,796950
25,050333	0,5	-0,791750
25,058667	0,5	-0,791550
25,067000	0,5	-0,793150
25,075333	0,5	-0,788450
25,083667	0,5	-0,781150
25,092000	0,5	-0,784850
25,100333	0,5	-0,780650
25,108667	0,5	-0,770750
25,117000	0,5	-0,763400
25,125333	0,5	-0,757050
25,133667	0,5	-0,753250
25,142000	0,5	-0,748800
25,150333	0,5	-0,743250
25,158667	0,5	-0,748000
25,167000	0,5	-0,736400
25,175333	0,5	-0,732400
25,183667	0,5	-0,728400
25,192000	0,5	-0,733200
25,200333	0,5	-0,731500
25,208667	0,5	-0,732450
25,217000	0,5	-0,734300
25,225333	0,5	-0,733350
25,233667	0,5	-0,735600
25,242000	0,5	-0,734600
25,250333	0,5	-0,734650
25,258667	0,5	-0,735600
25,267000	0,5	-0,729550
25,275333	0,5	-0,727850
25,283667	0,5	-0,723200
25,292000	0,5	-0,720300
25,300333	0,5	-0,718250
25,308667	0,5	-0,703950
25,317000	0,5	-0,701700
25,325333	0,5	-0,694850
25,333667	0,5	-0,693250
25,342000	0,5	-0,697050
25,350333	0,5	-0,688350
25,358667	0,5	-0,689350
25,367000	0,5	-0,682950
25,375333	0,5	-0,682550
25,383667	0,5	-0,687850
25,392000	0,5	-0,686200
25,400333	0,5	-0,683900
25,408667	0,5	-0,689700
25,417000	0,5	-0,692100
25,425333	0,5	-0,692200
25,433667	0,5	-0,690200
25,442000	0,5	-0,690800
25,450333	0,5	-0,680300
25,458667	0,5	-0,677600
25,467000	0,5	-0,667100
25,475333	0,5	-0,672250
25,483667	0,5	-0,674750
25,492000	0,5	-0,673200
25,500333	0,5	-0,671600
25,508667	0,5	-0,662900
25,517000	0,5	-0,670100
25,525333	0,5	-0,659500
25,533667	0,5	-0,660250
25,542000	0,5	-0,661850
25,550333	0,5	-0,659250
25,558667	0,5	-0,656100
25,567000	0,5	-0,656750
25,575333	0,5	-0,654600
25,583667	0,5	-0,655450
25,592000	0,5	-0,652650
25,600333	0,5	-0,640550
25,608667	0,5	-0,637100
25,617000	0,5	-0,637900
25,625333	0,5	-0,644000
25,633667	0,5	-0,647150
25,642000	0,5	-0,645800
25,650333	0,5	-0,642000
25,658667	0,5	-0,638050
25,667000	0,5	-0,637400
25,675333	0,5	-0,642000
25,683667	0,5	-0,638800
25,692000	0,5	-0,638100
25,700333	0,5	-0,633350
25,708667	0,5	-0,632950
25,717000	0,5	-0,630900
25,725333	0,5	-0,632650
25,733667	0,5	-0,623500
25,742000	0,5	-0,619650
25,750333	0,5	-0,601700
25,758667	0,5	-0,592800
25,767000	0,5	-0,601150
25,775333	0,5	-0,609100
25,783667	0,5	-0,609100
25,792000	0,5	-0,607750
25,800333	0,5	-0,597300
25,808667	0,5	-0,591650
25,817000	0,5	-0,592800
25,825333	0,5	-0,602150
25,833667	0,5	-0,597400
25,842000	0,5	-0,595850
25,850333	0,5	-0,590900
25,858667	0,5	-0,585150
25,867000	0,5	-0,587800
25,875333	0,5	-0,585200
25,883667	0,5	-0,580250
25,892000	0,5	-0,554950
25,900333	0,5	-0,558750
25,908667	0,5	-0,546550
25,917000	0,5	-0,553000
25,925333	0,5	-0,554500
25,933667	0,5	-0,555050
25,942000	0,5	-0,545150
25,950333	0,5	-0,529400
25,958667	0,5	-0,525700
25,967000	0,5	-0,527300
25,975333	0,5	-0,523150
25,983667	0,5	-0,523050
25,992000	0,5	-0,519400
26,000333	0,5	-0,518550
