File Path	chrom://chromeleon01/ikbm_chromeleon/2022/ICS-5000/ED1/Esteban/20220427_Cell_Amandas_mutants.seq/698.smp/ED_1.channel/ED_1.chm
Channel	ED_1

Injection Information:
Data Vault	ikbm_chromeleon
Injection	EG_BMCC_2a
Injection Number	40
Position	RD8
Comment	
Processing Method	Stop sequence after Cell Death
Instrument Method	ICS5000_PA200_FullNative_Ox_26min_ED1
Type	Unknown
Status	Finished
Injection Date	28.04.2022
Injection Time	07:33:13
Injection Volume (µl)	5,0
Dilution Factor	1,0000
Weight	1,0000

Chromatogram Data Information:
Time Min. (min)	0,000333
Time Max. (min)	26,000333
Data Points	3121
Detector	EDet1
Generating Data System	Chromeleon 7.2.9.11323
Exporting Data System	Chromeleon 7.2.9.0
Operator	Instrument Controller
Signal Quantity	
Signal Unit	nC
Signal Min.	-7,663200
Signal Max.	1 930,717829
Channel	ED_1
Driver Name	DC-5000
Channel Type	Evaluation
Min. Step (s)	0,5
Max. Step (s)	0,5
Average Step (s)	0,5

Signal Parameter Information:
Signal Info	

Chromatogram Data:
Time (min)	Step (s)	Value (nC)
0,000333	n.a.	-0,015650
0,008667	0,5	-0,110100
0,017000	0,5	-0,110400
0,025333	0,5	-0,108200
0,033667	0,5	-0,089450
0,042000	0,5	-0,084300
0,050333	0,5	-0,076900
0,058667	0,5	-0,076600
0,067000	0,5	-0,048600
0,075333	0,5	-0,064950
0,083667	0,5	-0,011050
0,092000	0,5	-0,022750
0,100333	0,5	-0,044200
0,108667	0,5	-0,058650
0,117000	0,5	-0,047900
0,125333	0,5	-0,017050
0,133667	0,5	0,002250
0,142000	0,5	-0,013650
0,150333	0,5	-0,013250
0,158667	0,5	-0,020850
0,167000	0,5	-0,020200
0,175333	0,5	-0,028600
0,183667	0,5	-0,013800
0,192000	0,5	-0,022350
0,200333	0,5	-0,031550
0,208667	0,5	-0,019300
0,217000	0,5	-0,029400
0,225333	0,5	-0,037600
0,233667	0,5	-0,001750
0,242000	0,5	-0,024500
0,250333	0,5	-0,047450
0,258667	0,5	-0,046200
0,267000	0,5	-0,043400
0,275333	0,5	0,015050
0,283667	0,5	0,010200
0,292000	0,5	-0,004500
0,300333	0,5	-0,012650
0,308667	0,5	0,042750
0,317000	0,5	0,052900
0,325333	0,5	0,005550
0,333667	0,5	-0,035950
0,342000	0,5	-0,045650
0,350333	0,5	-0,044900
0,358667	0,5	-0,044200
0,367000	0,5	-0,015450
0,375333	0,5	-0,028800
0,383667	0,5	0,016700
0,392000	0,5	-0,032300
0,400333	0,5	-0,038700
0,408667	0,5	-0,045700
0,417000	0,5	-0,035450
0,425333	0,5	-0,000500
0,433667	0,5	-0,009400
0,442000	0,5	-0,031250
0,450333	0,5	-0,026400
0,458667	0,5	-0,034450
0,467000	0,5	-0,027500
0,475333	0,5	-0,032000
0,483667	0,5	-0,025200
0,492000	0,5	-0,036500
0,500333	0,5	-0,036050
0,508667	0,5	-0,018100
0,517000	0,5	-0,017800
0,525333	0,5	-0,025100
0,533667	0,5	-0,000900
0,542000	0,5	-0,036500
0,550333	0,5	-0,041650
0,558667	0,5	-0,037400
0,567000	0,5	-0,015900
0,575333	0,5	0,022850
0,583667	0,5	0,011800
0,592000	0,5	0,011450
0,600333	0,5	-0,004350
0,608667	0,5	0,001250
0,617000	0,5	-0,012950
0,625333	0,5	-0,004150
0,633667	0,5	-0,014450
0,642000	0,5	-0,014000
0,650333	0,5	-0,011850
0,658667	0,5	-0,006150
0,667000	0,5	-0,022250
0,675333	0,5	0,006550
0,683667	0,5	0,005550
0,692000	0,5	-0,016850
0,700333	0,5	-0,019250
0,708667	0,5	-0,008500
0,717000	0,5	0,028100
0,725333	0,5	0,043750
0,733667	0,5	0,036600
0,742000	0,5	0,025500
0,750333	0,5	0,030550
0,758667	0,5	0,026500
0,767000	0,5	0,024700
0,775333	0,5	0,025650
0,783667	0,5	0,027650
0,792000	0,5	0,021300
0,800333	0,5	0,033550
0,808667	0,5	0,034200
0,817000	0,5	0,039800
0,825333	0,5	0,044650
0,833667	0,5	0,036400
0,842000	0,5	0,018100
0,850333	0,5	0,023300
0,858667	0,5	0,040250
0,867000	0,5	0,069700
0,875333	0,5	0,091850
0,883667	0,5	0,089850
0,892000	0,5	0,088250
0,900333	0,5	0,078050
0,908667	0,5	0,066850
0,917000	0,5	0,067250
0,925333	0,5	0,075500
0,933667	0,5	0,067000
0,942000	0,5	0,077900
0,950333	0,5	0,077700
0,958667	0,5	0,068850
0,967000	0,5	0,073900
0,975333	0,5	0,086050
0,983667	0,5	0,072350
0,992000	0,5	0,067250
1,000333	0,5	0,070600
1,008667	0,5	0,103650
1,017000	0,5	0,120650
1,025333	0,5	0,120900
1,033667	0,5	0,111200
1,042000	0,5	0,122600
1,050333	0,5	0,115050
1,058667	0,5	0,113200
1,067000	0,5	0,110900
1,075333	0,5	0,114950
1,083667	0,5	0,118350
1,092000	0,5	0,116150
1,100333	0,5	0,123350
1,108667	0,5	0,101050
1,117000	0,5	0,131400
1,125333	0,5	0,128500
1,133667	0,5	0,113100
1,142000	0,5	0,110450
1,150333	0,5	0,121250
1,158667	0,5	0,157150
1,167000	0,5	0,174500
1,175333	0,5	0,162450
1,183667	0,5	0,178800
1,192000	0,5	0,164900
1,200333	0,5	0,179900
1,208667	0,5	0,171450
1,217000	0,5	0,180350
1,225333	0,5	0,177750
1,233667	0,5	0,180150
1,242000	0,5	0,190450
1,250333	0,5	0,178550
1,258667	0,5	0,167350
1,267000	0,5	0,202100
1,275333	0,5	0,189550
1,283667	0,5	0,193000
1,292000	0,5	0,200650
1,300333	0,5	0,216400
1,308667	0,5	0,269850
1,317000	0,5	0,258600
1,325333	0,5	0,263250
1,333667	0,5	0,263300
1,342000	0,5	0,274500
1,350333	0,5	0,267800
1,358667	0,5	0,280150
1,367000	0,5	0,278600
1,375333	0,5	0,287600
1,383667	0,5	0,297150
1,392000	0,5	0,304850
1,400333	0,5	0,304700
1,408667	0,5	0,301400
1,417000	0,5	0,343450
1,425333	0,5	0,326000
1,433667	0,5	0,328900
1,442000	0,5	0,336850
1,450333	0,5	0,356650
1,458667	0,5	0,397950
1,467000	0,5	0,395750
1,475333	0,5	0,390900
1,483667	0,5	0,407500
1,492000	0,5	0,404700
1,500333	0,5	0,414600
1,508667	0,5	0,413750
1,517000	0,5	0,426400
1,525333	0,5	0,421300
1,533667	0,5	0,432450
1,542000	0,5	0,446750
1,550333	0,5	0,449300
1,558667	0,5	0,452050
1,567000	0,5	0,477150
1,575333	0,5	0,432400
1,583667	0,5	0,292400
1,592000	0,5	-0,242100
1,600333	0,5	-1,090050
1,608667	0,5	-1,027050
1,617000	0,5	0,935750
1,625333	0,5	4,137250
1,633667	0,5	8,319100
1,642000	0,5	13,994450
1,650333	0,5	19,628350
1,658667	0,5	22,452600
1,667000	0,5	22,008800
1,675333	0,5	20,044150
1,683667	0,5	17,901650
1,692000	0,5	15,936650
1,700333	0,5	14,207300
1,708667	0,5	13,026450
1,717000	0,5	12,877700
1,725333	0,5	14,950650
1,733667	0,5	19,635500
1,742000	0,5	23,887550
1,750333	0,5	23,757250
1,758667	0,5	19,903050
1,767000	0,5	15,561550
1,775333	0,5	12,442550
1,783667	0,5	10,653650
1,792000	0,5	10,039100
1,800333	0,5	10,456350
1,808667	0,5	11,441500
1,817000	0,5	12,097700
1,825333	0,5	11,953350
1,833667	0,5	11,306350
1,842000	0,5	10,439850
1,850333	0,5	9,569650
1,858667	0,5	8,792150
1,867000	0,5	8,059950
1,875333	0,5	7,414950
1,883667	0,5	6,891600
1,892000	0,5	6,454550
1,900333	0,5	6,089450
1,908667	0,5	5,737150
1,917000	0,5	5,428650
1,925333	0,5	5,136850
1,933667	0,5	4,886800
1,942000	0,5	4,666500
1,950333	0,5	4,531200
1,958667	0,5	4,468500
1,967000	0,5	4,444250
1,975333	0,5	4,456850
1,983667	0,5	4,769250
1,992000	0,5	6,314950
2,000333	0,5	11,310500
2,008667	0,5	23,544700
2,017000	0,5	49,776001
2,025333	0,5	108,572202
2,033667	0,5	240,389704
2,042000	0,5	457,377157
2,050333	0,5	645,390810
2,058667	0,5	671,827610
2,067000	0,5	556,326408
2,075333	0,5	408,651256
2,083667	0,5	296,766054
2,092000	0,5	224,867303
2,100333	0,5	177,901103
2,108667	0,5	145,170952
2,117000	0,5	121,152452
2,125333	0,5	102,958402
2,133667	0,5	88,915201
2,142000	0,5	77,935101
2,150333	0,5	69,246751
2,158667	0,5	62,160151
2,167000	0,5	56,492201
2,175333	0,5	51,920501
2,183667	0,5	47,817501
2,192000	0,5	43,927351
2,200333	0,5	40,420201
2,208667	0,5	37,501101
2,217000	0,5	35,146151
2,225333	0,5	33,177650
2,233667	0,5	31,525150
2,242000	0,5	30,131250
2,250333	0,5	28,992100
2,258667	0,5	28,016550
2,267000	0,5	27,142750
2,275333	0,5	26,331050
2,283667	0,5	25,593100
2,292000	0,5	24,929250
2,300333	0,5	24,391700
2,308667	0,5	23,844150
2,317000	0,5	23,362000
2,325333	0,5	22,934250
2,333667	0,5	22,565600
2,342000	0,5	22,279600
2,350333	0,5	21,978200
2,358667	0,5	21,735600
2,367000	0,5	21,522300
2,375333	0,5	21,371950
2,383667	0,5	21,286250
2,392000	0,5	21,308150
2,400333	0,5	21,561350
2,408667	0,5	22,230100
2,417000	0,5	23,269150
2,425333	0,5	24,082750
2,433667	0,5	24,009650
2,442000	0,5	23,408400
2,450333	0,5	22,996800
2,458667	0,5	22,777000
2,467000	0,5	22,619450
2,475333	0,5	22,478000
2,483667	0,5	22,309550
2,492000	0,5	22,121600
2,500333	0,5	21,865200
2,508667	0,5	21,593700
2,517000	0,5	21,334600
2,525333	0,5	21,097450
2,533667	0,5	20,889200
2,542000	0,5	20,734150
2,550333	0,5	20,672950
2,558667	0,5	20,754950
2,567000	0,5	21,122200
2,575333	0,5	21,885050
2,583667	0,5	23,136050
2,592000	0,5	24,883700
2,600333	0,5	27,277200
2,608667	0,5	31,387800
2,617000	0,5	40,393551
2,625333	0,5	58,388851
2,633667	0,5	86,829451
2,642000	0,5	126,012252
2,650333	0,5	183,353503
2,658667	0,5	298,759204
2,667000	0,5	579,110859
2,675333	0,5	1 045,121766
2,683667	0,5	1 483,849472
2,692000	0,5	1 775,672126
2,700333	0,5	1 910,770628
2,708667	0,5	1 930,717829
2,717000	0,5	1 877,512178
2,725333	0,5	1 777,491476
2,733667	0,5	1 644,773275
2,742000	0,5	1 490,700872
2,750333	0,5	1 324,591120
2,758667	0,5	1 158,024067
2,767000	0,5	1 000,789415
2,775333	0,5	852,466513
2,783667	0,5	718,039511
2,792000	0,5	606,702409
2,800333	0,5	524,029558
2,808667	0,5	466,400107
2,817000	0,5	430,787756
2,825333	0,5	411,228256
2,833667	0,5	401,549006
2,842000	0,5	396,230106
2,850333	0,5	390,474406
2,858667	0,5	381,144656
2,867000	0,5	366,373605
2,875333	0,5	345,513455
2,883667	0,5	319,459605
2,892000	0,5	290,185904
2,900333	0,5	260,014104
2,908667	0,5	231,354853
2,917000	0,5	205,664703
2,925333	0,5	183,369253
2,933667	0,5	164,202452
2,942000	0,5	147,532752
2,950333	0,5	132,944002
2,958667	0,5	120,071002
2,967000	0,5	108,739552
2,975333	0,5	98,763651
2,983667	0,5	90,052651
2,992000	0,5	82,385201
3,000333	0,5	75,628501
3,008667	0,5	69,621551
3,017000	0,5	64,237101
3,025333	0,5	59,364801
3,033667	0,5	55,003401
3,042000	0,5	51,044401
3,050333	0,5	47,460501
3,058667	0,5	44,219251
3,067000	0,5	41,289651
3,075333	0,5	38,656151
3,083667	0,5	36,244101
3,092000	0,5	34,017151
3,100333	0,5	31,950350
3,108667	0,5	30,060300
3,117000	0,5	28,303450
3,125333	0,5	26,701500
3,133667	0,5	25,221050
3,142000	0,5	23,874350
3,150333	0,5	22,643800
3,158667	0,5	21,548200
3,167000	0,5	20,564550
3,175333	0,5	19,716150
3,183667	0,5	19,018700
3,192000	0,5	18,420850
3,200333	0,5	17,957550
3,208667	0,5	17,706450
3,217000	0,5	17,773550
3,225333	0,5	18,383100
3,233667	0,5	19,698150
3,242000	0,5	21,882100
3,250333	0,5	24,837550
3,258667	0,5	28,077900
3,267000	0,5	30,896050
3,275333	0,5	32,628050
3,283667	0,5	32,971450
3,292000	0,5	31,959300
3,300333	0,5	29,955000
3,308667	0,5	27,336450
3,317000	0,5	24,472850
3,325333	0,5	21,654600
3,333667	0,5	19,125100
3,342000	0,5	16,888800
3,350333	0,5	15,036600
3,358667	0,5	13,529300
3,367000	0,5	12,323700
3,375333	0,5	11,360000
3,383667	0,5	10,539200
3,392000	0,5	9,846500
3,400333	0,5	9,262250
3,408667	0,5	8,757550
3,417000	0,5	8,332100
3,425333	0,5	7,969750
3,433667	0,5	7,669350
3,442000	0,5	7,423100
3,450333	0,5	7,230600
3,458667	0,5	7,088200
3,467000	0,5	6,940850
3,475333	0,5	6,833250
3,483667	0,5	6,741400
3,492000	0,5	6,612650
3,500333	0,5	6,481300
3,508667	0,5	6,370600
3,517000	0,5	6,267150
3,525333	0,5	6,193050
3,533667	0,5	6,099900
3,542000	0,5	6,032250
3,550333	0,5	5,979700
3,558667	0,5	5,933600
3,567000	0,5	5,890450
3,575333	0,5	5,852000
3,583667	0,5	5,806850
3,592000	0,5	5,738400
3,600333	0,5	5,670700
3,608667	0,5	5,567450
3,617000	0,5	5,451450
3,625333	0,5	5,350100
3,633667	0,5	5,217050
3,642000	0,5	5,074750
3,650333	0,5	4,934400
3,658667	0,5	4,805600
3,667000	0,5	4,693500
3,675333	0,5	4,565800
3,683667	0,5	4,420650
3,692000	0,5	4,275050
3,700333	0,5	4,152350
3,708667	0,5	4,008700
3,717000	0,5	3,891350
3,725333	0,5	3,772200
3,733667	0,5	3,661550
3,742000	0,5	3,552500
3,750333	0,5	3,454200
3,758667	0,5	3,358400
3,767000	0,5	3,259050
3,775333	0,5	3,195050
3,783667	0,5	3,112300
3,792000	0,5	3,054200
3,800333	0,5	3,000100
3,808667	0,5	2,980900
3,817000	0,5	2,991400
3,825333	0,5	2,993450
3,833667	0,5	2,985000
3,842000	0,5	3,004950
3,850333	0,5	3,018250
3,858667	0,5	3,044550
3,867000	0,5	3,051900
3,875333	0,5	3,055600
3,883667	0,5	3,031300
3,892000	0,5	3,019750
3,900333	0,5	2,980650
3,908667	0,5	2,931500
3,917000	0,5	2,869750
3,925333	0,5	2,821200
3,933667	0,5	2,742200
3,942000	0,5	2,676500
3,950333	0,5	2,611650
3,958667	0,5	2,565350
3,967000	0,5	2,527500
3,975333	0,5	2,464100
3,983667	0,5	2,404950
3,992000	0,5	2,350150
4,000333	0,5	2,296050
4,008667	0,5	2,236100
4,017000	0,5	2,181450
4,025333	0,5	2,116400
4,033667	0,5	2,062700
4,042000	0,5	2,010300
4,050333	0,5	1,948300
4,058667	0,5	1,887750
4,067000	0,5	1,854150
4,075333	0,5	1,805350
4,083667	0,5	1,756000
4,092000	0,5	1,724100
4,100333	0,5	1,699400
4,108667	0,5	1,686450
4,117000	0,5	1,653650
4,125333	0,5	1,603600
4,133667	0,5	1,548950
4,142000	0,5	1,501050
4,150333	0,5	1,440700
4,158667	0,5	1,387650
4,167000	0,5	1,339050
4,175333	0,5	1,288800
4,183667	0,5	1,238350
4,192000	0,5	1,214850
4,200333	0,5	1,167950
4,208667	0,5	1,129050
4,217000	0,5	1,117250
4,225333	0,5	1,088550
4,233667	0,5	1,061850
4,242000	0,5	1,047800
4,250333	0,5	1,042450
4,258667	0,5	1,073550
4,267000	0,5	1,087650
4,275333	0,5	1,119800
4,283667	0,5	1,180250
4,292000	0,5	1,296100
4,300333	0,5	1,462150
4,308667	0,5	1,700500
4,317000	0,5	2,009350
4,325333	0,5	2,413800
4,333667	0,5	2,922050
4,342000	0,5	3,528100
4,350333	0,5	4,231250
4,358667	0,5	5,038000
4,367000	0,5	5,988000
4,375333	0,5	7,053300
4,383667	0,5	8,342800
4,392000	0,5	9,972300
4,400333	0,5	12,149500
4,408667	0,5	15,127300
4,417000	0,5	19,274750
4,425333	0,5	25,072750
4,433667	0,5	32,968950
4,442000	0,5	43,128401
4,450333	0,5	55,355551
4,458667	0,5	68,827101
4,467000	0,5	82,275301
4,475333	0,5	94,185001
4,483667	0,5	103,318902
4,492000	0,5	108,873752
4,500333	0,5	110,639702
4,508667	0,5	109,050752
4,517000	0,5	104,720952
4,525333	0,5	98,382801
4,533667	0,5	90,848251
4,542000	0,5	82,824101
4,550333	0,5	74,751651
4,558667	0,5	67,002051
4,567000	0,5	59,692501
4,575333	0,5	53,022201
4,583667	0,5	46,971651
4,592000	0,5	41,517251
4,600333	0,5	36,616701
4,608667	0,5	32,235500
4,617000	0,5	28,329100
4,625333	0,5	24,896050
4,633667	0,5	21,902300
4,642000	0,5	19,304400
4,650333	0,5	17,064950
4,658667	0,5	15,196250
4,667000	0,5	13,586150
4,675333	0,5	12,218550
4,683667	0,5	11,045350
4,692000	0,5	10,040750
4,700333	0,5	9,192700
4,708667	0,5	8,406300
4,717000	0,5	7,688850
4,725333	0,5	7,033950
4,733667	0,5	6,445300
4,742000	0,5	5,891050
4,750333	0,5	5,402350
4,758667	0,5	4,943950
4,767000	0,5	4,541750
4,775333	0,5	4,174350
4,783667	0,5	3,853950
4,792000	0,5	3,552950
4,800333	0,5	3,285150
4,808667	0,5	3,077650
4,817000	0,5	2,856400
4,825333	0,5	2,659550
4,833667	0,5	2,488900
4,842000	0,5	2,341000
4,850333	0,5	2,217600
4,858667	0,5	2,079000
4,867000	0,5	1,938000
4,875333	0,5	1,812900
4,883667	0,5	1,703900
4,892000	0,5	1,598550
4,900333	0,5	1,505700
4,908667	0,5	1,433100
4,917000	0,5	1,346300
4,925333	0,5	1,289200
4,933667	0,5	1,223800
4,942000	0,5	1,176500
4,950333	0,5	1,135000
4,958667	0,5	1,114350
4,967000	0,5	1,074150
4,975333	0,5	1,057350
4,983667	0,5	1,050950
4,992000	0,5	1,070150
5,000333	0,5	1,093550
5,008667	0,5	1,115600
5,017000	0,5	1,124500
5,025333	0,5	1,144200
5,033667	0,5	1,157750
5,042000	0,5	1,173850
5,050333	0,5	1,188250
5,058667	0,5	1,195950
5,067000	0,5	1,200850
5,075333	0,5	1,194550
5,083667	0,5	1,182400
5,092000	0,5	1,155800
5,100333	0,5	1,145950
5,108667	0,5	1,123650
5,117000	0,5	1,094950
5,125333	0,5	1,065600
5,133667	0,5	1,050300
5,142000	0,5	1,035900
5,150333	0,5	1,026650
5,158667	0,5	0,994150
5,167000	0,5	0,972150
5,175333	0,5	0,942450
5,183667	0,5	0,920850
5,192000	0,5	0,896200
5,200333	0,5	0,876550
5,208667	0,5	0,862500
5,217000	0,5	0,844450
5,225333	0,5	0,838700
5,233667	0,5	0,819650
5,242000	0,5	0,811550
5,250333	0,5	0,826700
5,258667	0,5	0,816250
5,267000	0,5	0,808750
5,275333	0,5	0,820550
5,283667	0,5	0,828300
5,292000	0,5	0,856600
5,300333	0,5	0,851900
5,308667	0,5	0,854100
5,317000	0,5	0,843100
5,325333	0,5	0,839900
5,333667	0,5	0,810300
5,342000	0,5	0,799700
5,350333	0,5	0,782250
5,358667	0,5	0,760500
5,367000	0,5	0,744400
5,375333	0,5	0,730000
5,383667	0,5	0,713250
5,392000	0,5	0,708050
5,400333	0,5	0,708800
5,408667	0,5	0,689500
5,417000	0,5	0,679050
5,425333	0,5	0,672650
5,433667	0,5	0,688750
5,442000	0,5	0,696000
5,450333	0,5	0,687650
5,458667	0,5	0,679850
5,467000	0,5	0,677950
5,475333	0,5	0,667150
5,483667	0,5	0,669400
5,492000	0,5	0,663350
5,500333	0,5	0,664400
5,508667	0,5	0,656650
5,517000	0,5	0,667250
5,525333	0,5	0,676350
5,533667	0,5	0,670700
5,542000	0,5	0,689300
5,550333	0,5	0,697200
5,558667	0,5	0,696400
5,567000	0,5	0,699800
5,575333	0,5	0,715050
5,583667	0,5	0,743600
5,592000	0,5	0,767850
5,600333	0,5	0,761700
5,608667	0,5	0,781350
5,617000	0,5	0,796700
5,625333	0,5	0,813850
5,633667	0,5	0,827900
5,642000	0,5	0,844000
5,650333	0,5	0,851150
5,658667	0,5	0,866650
5,667000	0,5	0,885200
5,675333	0,5	0,916050
5,683667	0,5	0,924750
5,692000	0,5	0,983100
5,700333	0,5	0,995200
5,708667	0,5	1,027700
5,717000	0,5	1,060100
5,725333	0,5	1,111750
5,733667	0,5	1,170650
5,742000	0,5	1,200500
5,750333	0,5	1,223250
5,758667	0,5	1,237850
5,767000	0,5	1,245950
5,775333	0,5	1,236650
5,783667	0,5	1,221900
5,792000	0,5	1,200050
5,800333	0,5	1,180450
5,808667	0,5	1,139650
5,817000	0,5	1,113450
5,825333	0,5	1,080100
5,833667	0,5	1,049450
5,842000	0,5	1,033000
5,850333	0,5	0,997250
5,858667	0,5	0,973000
5,867000	0,5	0,964350
5,875333	0,5	0,977900
5,883667	0,5	1,000950
5,892000	0,5	0,995850
5,900333	0,5	0,991300
5,908667	0,5	0,993200
5,917000	0,5	0,999500
5,925333	0,5	1,004300
5,933667	0,5	1,000600
5,942000	0,5	0,997250
5,950333	0,5	0,988000
5,958667	0,5	0,993250
5,967000	0,5	0,994200
5,975333	0,5	0,989900
5,983667	0,5	0,991450
5,992000	0,5	0,997950
6,000333	0,5	0,986300
6,008667	0,5	0,992350
6,017000	0,5	0,990450
6,025333	0,5	1,017200
6,033667	0,5	1,035050
6,042000	0,5	1,036000
6,050333	0,5	1,034800
6,058667	0,5	1,040550
6,067000	0,5	1,037900
6,075333	0,5	1,040950
6,083667	0,5	1,046200
6,092000	0,5	1,048250
6,100333	0,5	1,052000
6,108667	0,5	1,059150
6,117000	0,5	1,061050
6,125333	0,5	1,063750
6,133667	0,5	1,077050
6,142000	0,5	1,079750
6,150333	0,5	1,073750
6,158667	0,5	1,079750
6,167000	0,5	1,099250
6,175333	0,5	1,127600
6,183667	0,5	1,151600
6,192000	0,5	1,148500
6,200333	0,5	1,163550
6,208667	0,5	1,168250
6,217000	0,5	1,175050
6,225333	0,5	1,178850
6,233667	0,5	1,194700
6,242000	0,5	1,196050
6,250333	0,5	1,201950
6,258667	0,5	1,206650
6,267000	0,5	1,202150
6,275333	0,5	1,203050
6,283667	0,5	1,225550
6,292000	0,5	1,219200
6,300333	0,5	1,222350
6,308667	0,5	1,235400
6,317000	0,5	1,254550
6,325333	0,5	1,283600
6,333667	0,5	1,298200
6,342000	0,5	1,312450
6,350333	0,5	1,317400
6,358667	0,5	1,334450
6,367000	0,5	1,338600
6,375333	0,5	1,357700
6,383667	0,5	1,371400
6,392000	0,5	1,386600
6,400333	0,5	1,404350
6,408667	0,5	1,430050
6,417000	0,5	1,443800
6,425333	0,5	1,479400
6,433667	0,5	1,511500
6,442000	0,5	1,533250
6,450333	0,5	1,550350
6,458667	0,5	1,572100
6,467000	0,5	1,614350
6,475333	0,5	1,625500
6,483667	0,5	1,638400
6,492000	0,5	1,637750
6,500333	0,5	1,645950
6,508667	0,5	1,641400
6,517000	0,5	1,642400
6,525333	0,5	1,641750
6,533667	0,5	1,650150
6,542000	0,5	1,656850
6,550333	0,5	1,662350
6,558667	0,5	1,667750
6,567000	0,5	1,665850
6,575333	0,5	1,684150
6,583667	0,5	1,695300
6,592000	0,5	1,699800
6,600333	0,5	1,706400
6,608667	0,5	1,722000
6,617000	0,5	1,748800
6,625333	0,5	1,758300
6,633667	0,5	1,769750
6,642000	0,5	1,783050
6,650333	0,5	1,809250
6,658667	0,5	1,838100
6,667000	0,5	1,875750
6,675333	0,5	1,922850
6,683667	0,5	1,971000
6,692000	0,5	2,022200
6,700333	0,5	2,063150
6,708667	0,5	2,105200
6,717000	0,5	2,121800
6,725333	0,5	2,151050
6,733667	0,5	2,137850
6,742000	0,5	2,118400
6,750333	0,5	2,088550
6,758667	0,5	2,066350
6,767000	0,5	2,057150
6,775333	0,5	2,025700
6,783667	0,5	1,999250
6,792000	0,5	1,983450
6,800333	0,5	1,966750
6,808667	0,5	1,955500
6,817000	0,5	1,951550
6,825333	0,5	1,949800
6,833667	0,5	1,949400
6,842000	0,5	1,958150
6,850333	0,5	1,965800
6,858667	0,5	1,960650
6,867000	0,5	1,972800
6,875333	0,5	1,994000
6,883667	0,5	2,006800
6,892000	0,5	2,030350
6,900333	0,5	2,046950
6,908667	0,5	2,078350
6,917000	0,5	2,114900
6,925333	0,5	2,120500
6,933667	0,5	2,115700
6,942000	0,5	2,112550
6,950333	0,5	2,101950
6,958667	0,5	2,081900
6,967000	0,5	2,070600
6,975333	0,5	2,046700
6,983667	0,5	2,028100
6,992000	0,5	2,016300
7,000333	0,5	2,002900
7,008667	0,5	1,991350
7,017000	0,5	1,988850
7,025333	0,5	1,987250
7,033667	0,5	1,970700
7,042000	0,5	1,973500
7,050333	0,5	1,975750
7,058667	0,5	1,992850
7,067000	0,5	2,004350
7,075333	0,5	2,017700
7,083667	0,5	2,020600
7,092000	0,5	2,033150
7,100333	0,5	2,046900
7,108667	0,5	2,069000
7,117000	0,5	2,093250
7,125333	0,5	2,128300
7,133667	0,5	2,167000
7,142000	0,5	2,212500
7,150333	0,5	2,243550
7,158667	0,5	2,271600
7,167000	0,5	2,294050
7,175333	0,5	2,293050
7,183667	0,5	2,271750
7,192000	0,5	2,250300
7,200333	0,5	2,225150
7,208667	0,5	2,216450
7,217000	0,5	2,208350
7,225333	0,5	2,198800
7,233667	0,5	2,208500
7,242000	0,5	2,240950
7,250333	0,5	2,302600
7,258667	0,5	2,410200
7,267000	0,5	2,572200
7,275333	0,5	2,766350
7,283667	0,5	2,995250
7,292000	0,5	3,205350
7,300333	0,5	3,346550
7,308667	0,5	3,413050
7,317000	0,5	3,393500
7,325333	0,5	3,281900
7,333667	0,5	3,126900
7,342000	0,5	2,957100
7,350333	0,5	2,818400
7,358667	0,5	2,694200
7,367000	0,5	2,580950
7,375333	0,5	2,478900
7,383667	0,5	2,402050
7,392000	0,5	2,343400
7,400333	0,5	2,291150
7,408667	0,5	2,260000
7,417000	0,5	2,232550
7,425333	0,5	2,224150
7,433667	0,5	2,227100
7,442000	0,5	2,252350
7,450333	0,5	2,288950
7,458667	0,5	2,371400
7,467000	0,5	2,487200
7,475333	0,5	2,639550
7,483667	0,5	2,810350
7,492000	0,5	2,983850
7,500333	0,5	3,125000
7,508667	0,5	3,179750
7,517000	0,5	3,140050
7,525333	0,5	3,028300
7,533667	0,5	2,877750
7,542000	0,5	2,722200
7,550333	0,5	2,591650
7,558667	0,5	2,497900
7,567000	0,5	2,426350
7,575333	0,5	2,380950
7,583667	0,5	2,354700
7,592000	0,5	2,338000
7,600333	0,5	2,347900
7,608667	0,5	2,398400
7,617000	0,5	2,489950
7,625333	0,5	2,631950
7,633667	0,5	2,839600
7,642000	0,5	3,097600
7,650333	0,5	3,377300
7,658667	0,5	3,603450
7,667000	0,5	3,733000
7,675333	0,5	3,768600
7,683667	0,5	3,731250
7,692000	0,5	3,645950
7,700333	0,5	3,554300
7,708667	0,5	3,483800
7,717000	0,5	3,473050
7,725333	0,5	3,553500
7,733667	0,5	3,736700
7,742000	0,5	3,978200
7,750333	0,5	4,180500
7,758667	0,5	4,265300
7,767000	0,5	4,162500
7,775333	0,5	3,957150
7,783667	0,5	3,742450
7,792000	0,5	3,618050
7,800333	0,5	3,601650
7,808667	0,5	3,662350
7,817000	0,5	3,742500
7,825333	0,5	3,791200
7,833667	0,5	3,741050
7,842000	0,5	3,610850
7,850333	0,5	3,439900
7,858667	0,5	3,308050
7,867000	0,5	3,272950
7,875333	0,5	3,362900
7,883667	0,5	3,546400
7,892000	0,5	3,743700
7,900333	0,5	3,873350
7,908667	0,5	3,900650
7,917000	0,5	3,797850
7,925333	0,5	3,621650
7,933667	0,5	3,439050
7,942000	0,5	3,298200
7,950333	0,5	3,243900
7,958667	0,5	3,289300
7,967000	0,5	3,433500
7,975333	0,5	3,638500
7,983667	0,5	3,832050
7,992000	0,5	3,918550
8,000333	0,5	3,857750
8,008667	0,5	3,658150
8,017000	0,5	3,395650
8,025333	0,5	3,133450
8,033667	0,5	2,922450
8,042000	0,5	2,752450
8,050333	0,5	2,636150
8,058667	0,5	2,546450
8,067000	0,5	2,471450
8,075333	0,5	2,402300
8,083667	0,5	2,351750
8,092000	0,5	2,320950
8,100333	0,5	2,300300
8,108667	0,5	2,292550
8,117000	0,5	2,299100
8,125333	0,5	2,320850
8,133667	0,5	2,357350
8,142000	0,5	2,396650
8,150333	0,5	2,419700
8,158667	0,5	2,432200
8,167000	0,5	2,426050
8,175333	0,5	2,424250
8,183667	0,5	2,417250
8,192000	0,5	2,416600
8,200333	0,5	2,410600
8,208667	0,5	2,392000
8,217000	0,5	2,359900
8,225333	0,5	2,336400
8,233667	0,5	2,321100
8,242000	0,5	2,319600
8,250333	0,5	2,306500
8,258667	0,5	2,290800
8,267000	0,5	2,271500
8,275333	0,5	2,251800
8,283667	0,5	2,241950
8,292000	0,5	2,253550
8,300333	0,5	2,286100
8,308667	0,5	2,326100
8,317000	0,5	2,370650
8,325333	0,5	2,395850
8,333667	0,5	2,399200
8,342000	0,5	2,384850
8,350333	0,5	2,368400
8,358667	0,5	2,350050
8,367000	0,5	2,347150
8,375333	0,5	2,364150
8,383667	0,5	2,400350
8,392000	0,5	2,440450
8,400333	0,5	2,477850
8,408667	0,5	2,498650
8,417000	0,5	2,506850
8,425333	0,5	2,505650
8,433667	0,5	2,512500
8,442000	0,5	2,541000
8,450333	0,5	2,603700
8,458667	0,5	2,733950
8,467000	0,5	2,942150
8,475333	0,5	3,245150
8,483667	0,5	3,622300
8,492000	0,5	4,049600
8,500333	0,5	4,457450
8,508667	0,5	4,767250
8,517000	0,5	4,870850
8,525333	0,5	4,730600
8,533667	0,5	4,382950
8,542000	0,5	3,924800
8,550333	0,5	3,474350
8,558667	0,5	3,111950
8,567000	0,5	2,846700
8,575333	0,5	2,669800
8,583667	0,5	2,544600
8,592000	0,5	2,449150
8,600333	0,5	2,368200
8,608667	0,5	2,299700
8,617000	0,5	2,239450
8,625333	0,5	2,186250
8,633667	0,5	2,124300
8,642000	0,5	2,077100
8,650333	0,5	2,040400
8,658667	0,5	2,003300
8,667000	0,5	1,982750
8,675333	0,5	1,967750
8,683667	0,5	1,957500
8,692000	0,5	1,948300
8,700333	0,5	1,945950
8,708667	0,5	1,942200
8,717000	0,5	1,944400
8,725333	0,5	1,957800
8,733667	0,5	1,973600
8,742000	0,5	1,981700
8,750333	0,5	1,986550
8,758667	0,5	1,986750
8,767000	0,5	1,976850
8,775333	0,5	1,961000
8,783667	0,5	1,943850
8,792000	0,5	1,932350
8,800333	0,5	1,918900
8,808667	0,5	1,901450
8,817000	0,5	1,888000
8,825333	0,5	1,874600
8,833667	0,5	1,878800
8,842000	0,5	1,877650
8,850333	0,5	1,876050
8,858667	0,5	1,894550
8,867000	0,5	1,910600
8,875333	0,5	1,929750
8,883667	0,5	1,951300
8,892000	0,5	1,979700
8,900333	0,5	2,013600
8,908667	0,5	2,066450
8,917000	0,5	2,126750
8,925333	0,5	2,201100
8,933667	0,5	2,272450
8,942000	0,5	2,349400
8,950333	0,5	2,401500
8,958667	0,5	2,434850
8,967000	0,5	2,446350
8,975333	0,5	2,436900
8,983667	0,5	2,413800
8,992000	0,5	2,372300
9,000333	0,5	2,340550
9,008667	0,5	2,324500
9,017000	0,5	2,339600
9,025333	0,5	2,371900
9,033667	0,5	2,415900
9,042000	0,5	2,457500
9,050333	0,5	2,492350
9,058667	0,5	2,521550
9,067000	0,5	2,540100
9,075333	0,5	2,554950
9,083667	0,5	2,561450
9,092000	0,5	2,550300
9,100333	0,5	2,520300
9,108667	0,5	2,492450
9,117000	0,5	2,481900
9,125333	0,5	2,500650
9,133667	0,5	2,550500
9,142000	0,5	2,642800
9,150333	0,5	2,739250
9,158667	0,5	2,843950
9,167000	0,5	2,919150
9,175333	0,5	2,952950
9,183667	0,5	2,936550
9,192000	0,5	2,853150
9,200333	0,5	2,729600
9,208667	0,5	2,580850
9,217000	0,5	2,433800
9,225333	0,5	2,309100
9,233667	0,5	2,237100
9,242000	0,5	2,218150
9,250333	0,5	2,245550
9,258667	0,5	2,314250
9,267000	0,5	2,395050
9,275333	0,5	2,459900
9,283667	0,5	2,479150
9,292000	0,5	2,452100
9,300333	0,5	2,393350
9,308667	0,5	2,319050
9,317000	0,5	2,243750
9,325333	0,5	2,173700
9,333667	0,5	2,106050
9,342000	0,5	2,051400
9,350333	0,5	2,010600
9,358667	0,5	1,983450
9,367000	0,5	1,964050
9,375333	0,5	1,944500
9,383667	0,5	1,935450
9,392000	0,5	1,934600
9,400333	0,5	1,937150
9,408667	0,5	1,950450
9,417000	0,5	1,958300
9,425333	0,5	1,974350
9,433667	0,5	1,978950
9,442000	0,5	1,980600
9,450333	0,5	1,978400
9,458667	0,5	1,972000
9,467000	0,5	1,963750
9,475333	0,5	1,948400
9,483667	0,5	1,930500
9,492000	0,5	1,904300
9,500333	0,5	1,871000
9,508667	0,5	1,835800
9,517000	0,5	1,803600
9,525333	0,5	1,777750
9,533667	0,5	1,761550
9,542000	0,5	1,742500
9,550333	0,5	1,728850
9,558667	0,5	1,722400
9,567000	0,5	1,711550
9,575333	0,5	1,701150
9,583667	0,5	1,686650
9,592000	0,5	1,678000
9,600333	0,5	1,661700
9,608667	0,5	1,651650
9,617000	0,5	1,638700
9,625333	0,5	1,630250
9,633667	0,5	1,615950
9,642000	0,5	1,613600
9,650333	0,5	1,607050
9,658667	0,5	1,601750
9,667000	0,5	1,594850
9,675333	0,5	1,589700
9,683667	0,5	1,587750
9,692000	0,5	1,575400
9,700333	0,5	1,563400
9,708667	0,5	1,560300
9,717000	0,5	1,557150
9,725333	0,5	1,559950
9,733667	0,5	1,558850
9,742000	0,5	1,558650
9,750333	0,5	1,550900
9,758667	0,5	1,544800
9,767000	0,5	1,539750
9,775333	0,5	1,530550
9,783667	0,5	1,521000
9,792000	0,5	1,509050
9,800333	0,5	1,505800
9,808667	0,5	1,500150
9,817000	0,5	1,501000
9,825333	0,5	1,500650
9,833667	0,5	1,508400
9,842000	0,5	1,513500
9,850333	0,5	1,516950
9,858667	0,5	1,532300
9,867000	0,5	1,551600
9,875333	0,5	1,572150
9,883667	0,5	1,587850
9,892000	0,5	1,605600
9,900333	0,5	1,631450
9,908667	0,5	1,654250
9,917000	0,5	1,687050
9,925333	0,5	1,732950
9,933667	0,5	1,797050
9,942000	0,5	1,880550
9,950333	0,5	1,982650
9,958667	0,5	2,096000
9,967000	0,5	2,199700
9,975333	0,5	2,296500
9,983667	0,5	2,360450
9,992000	0,5	2,382150
10,000333	0,5	2,355200
10,008667	0,5	2,289500
10,017000	0,5	2,192900
10,025333	0,5	2,078850
10,033667	0,5	1,956600
10,042000	0,5	1,855200
10,050333	0,5	1,769400
10,058667	0,5	1,711000
10,067000	0,5	1,665850
10,075333	0,5	1,633850
10,083667	0,5	1,615300
10,092000	0,5	1,597250
10,100333	0,5	1,587000
10,108667	0,5	1,577500
10,117000	0,5	1,573050
10,125333	0,5	1,569850
10,133667	0,5	1,563100
10,142000	0,5	1,569550
10,150333	0,5	1,566400
10,158667	0,5	1,567750
10,167000	0,5	1,578450
10,175333	0,5	1,582700
10,183667	0,5	1,600300
10,192000	0,5	1,618300
10,200333	0,5	1,641050
10,208667	0,5	1,664100
10,217000	0,5	1,679500
10,225333	0,5	1,688150
10,233667	0,5	1,686350
10,242000	0,5	1,678500
10,250333	0,5	1,667300
10,258667	0,5	1,641300
10,267000	0,5	1,615200
10,275333	0,5	1,591100
10,283667	0,5	1,563600
10,292000	0,5	1,535950
10,300333	0,5	1,514900
10,308667	0,5	1,503400
10,317000	0,5	1,500150
10,325333	0,5	1,496650
10,333667	0,5	1,494750
10,342000	0,5	1,503650
10,350333	0,5	1,507300
10,358667	0,5	1,510300
10,367000	0,5	1,510200
10,375333	0,5	1,507200
10,383667	0,5	1,496250
10,392000	0,5	1,490350
10,400333	0,5	1,485200
10,408667	0,5	1,477800
10,417000	0,5	1,484600
10,425333	0,5	1,490600
10,433667	0,5	1,498550
10,442000	0,5	1,512800
10,450333	0,5	1,528550
10,458667	0,5	1,555350
10,467000	0,5	1,584150
10,475333	0,5	1,620500
10,483667	0,5	1,661750
10,492000	0,5	1,709250
10,500333	0,5	1,753750
10,508667	0,5	1,797400
10,517000	0,5	1,825700
10,525333	0,5	1,832500
10,533667	0,5	1,822550
10,542000	0,5	1,797500
10,550333	0,5	1,764850
10,558667	0,5	1,721450
10,567000	0,5	1,680700
10,575333	0,5	1,639300
10,583667	0,5	1,593750
10,592000	0,5	1,553100
10,600333	0,5	1,522050
10,608667	0,5	1,501250
10,617000	0,5	1,485850
10,625333	0,5	1,470900
10,633667	0,5	1,456150
10,642000	0,5	1,446400
10,650333	0,5	1,435200
10,658667	0,5	1,430250
10,667000	0,5	1,421350
10,675333	0,5	1,414100
10,683667	0,5	1,414650
10,692000	0,5	1,408000
10,700333	0,5	1,397050
10,708667	0,5	1,397950
10,717000	0,5	1,398200
10,725333	0,5	1,395800
10,733667	0,5	1,396600
10,742000	0,5	1,403500
10,750333	0,5	1,416900
10,758667	0,5	1,446600
10,767000	0,5	1,479950
10,775333	0,5	1,513350
10,783667	0,5	1,531000
10,792000	0,5	1,549950
10,800333	0,5	1,542450
10,808667	0,5	1,520150
10,817000	0,5	1,477300
10,825333	0,5	1,427250
10,833667	0,5	1,377850
10,842000	0,5	1,327900
10,850333	0,5	1,280350
10,858667	0,5	1,263550
10,867000	0,5	1,249200
10,875333	0,5	1,248800
10,883667	0,5	1,259150
10,892000	0,5	1,272900
10,900333	0,5	1,299350
10,908667	0,5	1,322400
10,917000	0,5	1,351050
10,925333	0,5	1,374050
10,933667	0,5	1,392650
10,942000	0,5	1,408050
10,950333	0,5	1,413350
10,958667	0,5	1,417550
10,967000	0,5	1,419550
10,975333	0,5	1,412950
10,983667	0,5	1,403450
10,992000	0,5	1,396400
11,000333	0,5	1,386200
11,008667	0,5	1,380350
11,017000	0,5	1,374500
11,025333	0,5	1,368800
11,033667	0,5	1,361750
11,042000	0,5	1,357500
11,050333	0,5	1,357250
11,058667	0,5	1,359250
11,067000	0,5	1,355300
11,075333	0,5	1,353000
11,083667	0,5	1,352250
11,092000	0,5	1,354200
11,100333	0,5	1,352850
11,108667	0,5	1,352250
11,117000	0,5	1,350650
11,125333	0,5	1,353150
11,133667	0,5	1,356050
11,142000	0,5	1,361200
11,150333	0,5	1,357100
11,158667	0,5	1,366050
11,167000	0,5	1,363750
11,175333	0,5	1,364350
11,183667	0,5	1,360400
11,192000	0,5	1,354100
11,200333	0,5	1,357300
11,208667	0,5	1,363400
11,217000	0,5	1,360450
11,225333	0,5	1,361100
11,233667	0,5	1,355800
11,242000	0,5	1,357550
11,250333	0,5	1,356200
11,258667	0,5	1,359700
11,267000	0,5	1,363400
11,275333	0,5	1,365500
11,283667	0,5	1,376750
11,292000	0,5	1,374650
11,300333	0,5	1,379300
11,308667	0,5	1,387450
11,317000	0,5	1,399950
11,325333	0,5	1,416900
11,333667	0,5	1,449850
11,342000	0,5	1,502150
11,350333	0,5	1,570150
11,358667	0,5	1,641900
11,367000	0,5	1,729600
11,375333	0,5	1,802900
11,383667	0,5	1,854050
11,392000	0,5	1,871650
11,400333	0,5	1,859050
11,408667	0,5	1,827250
11,417000	0,5	1,782850
11,425333	0,5	1,742250
11,433667	0,5	1,692200
11,442000	0,5	1,653350
11,450333	0,5	1,624450
11,458667	0,5	1,595550
11,467000	0,5	1,562000
11,475333	0,5	1,533250
11,483667	0,5	1,506550
11,492000	0,5	1,487700
11,500333	0,5	1,475750
11,508667	0,5	1,460450
11,517000	0,5	1,452100
11,525333	0,5	1,450250
11,533667	0,5	1,447550
11,542000	0,5	1,457250
11,550333	0,5	1,470350
11,558667	0,5	1,496950
11,567000	0,5	1,541650
11,575333	0,5	1,593700
11,583667	0,5	1,669050
11,592000	0,5	1,751250
11,600333	0,5	1,842700
11,608667	0,5	1,916050
11,617000	0,5	1,963850
11,625333	0,5	1,993850
11,633667	0,5	2,008400
11,642000	0,5	2,007950
11,650333	0,5	1,999150
11,658667	0,5	1,966250
11,667000	0,5	1,935750
11,675333	0,5	1,884850
11,683667	0,5	1,841050
11,692000	0,5	1,801450
11,700333	0,5	1,776950
11,708667	0,5	1,768000
11,717000	0,5	1,774400
11,725333	0,5	1,806250
11,733667	0,5	1,829050
11,742000	0,5	1,866550
11,750333	0,5	1,894850
11,758667	0,5	1,899100
11,767000	0,5	1,881050
11,775333	0,5	1,835050
11,783667	0,5	1,792200
11,792000	0,5	1,734750
11,800333	0,5	1,660000
11,808667	0,5	1,590250
11,817000	0,5	1,526300
11,825333	0,5	1,474750
11,833667	0,5	1,421350
11,842000	0,5	1,395650
11,850333	0,5	1,364800
11,858667	0,5	1,342950
11,867000	0,5	1,325900
11,875333	0,5	1,314050
11,883667	0,5	1,293050
11,892000	0,5	1,290500
11,900333	0,5	1,286400
11,908667	0,5	1,276700
11,917000	0,5	1,266450
11,925333	0,5	1,261650
11,933667	0,5	1,265000
11,942000	0,5	1,267500
11,950333	0,5	1,269150
11,958667	0,5	1,274000
11,967000	0,5	1,281900
11,975333	0,5	1,280300
11,983667	0,5	1,292600
11,992000	0,5	1,304400
12,000333	0,5	1,316000
12,008667	0,5	1,327950
12,017000	0,5	1,340150
12,025333	0,5	1,348000
12,033667	0,5	1,366750
12,042000	0,5	1,387950
12,050333	0,5	1,417100
12,058667	0,5	1,438800
12,067000	0,5	1,483250
12,075333	0,5	1,536050
12,083667	0,5	1,600300
12,092000	0,5	1,661900
12,100333	0,5	1,704800
12,108667	0,5	1,732300
12,117000	0,5	1,729600
12,125333	0,5	1,718500
12,133667	0,5	1,684650
12,142000	0,5	1,645550
12,150333	0,5	1,601950
12,158667	0,5	1,565950
12,167000	0,5	1,536600
12,175333	0,5	1,514000
12,183667	0,5	1,501350
12,192000	0,5	1,495600
12,200333	0,5	1,492650
12,208667	0,5	1,492350
12,217000	0,5	1,497200
12,225333	0,5	1,504950
12,233667	0,5	1,525750
12,242000	0,5	1,537050
12,250333	0,5	1,546950
12,258667	0,5	1,559500
12,267000	0,5	1,584550
12,275333	0,5	1,615250
12,283667	0,5	1,673100
12,292000	0,5	1,737150
12,300333	0,5	1,814050
12,308667	0,5	1,893350
12,317000	0,5	1,960400
12,325333	0,5	1,997900
12,333667	0,5	2,040900
12,342000	0,5	2,065850
12,350333	0,5	2,087350
12,358667	0,5	2,102800
12,367000	0,5	2,131800
12,375333	0,5	2,164800
12,383667	0,5	2,200350
12,392000	0,5	2,229350
12,400333	0,5	2,244700
12,408667	0,5	2,255500
12,417000	0,5	2,264100
12,425333	0,5	2,257700
12,433667	0,5	2,251600
12,442000	0,5	2,230650
12,450333	0,5	2,193000
12,458667	0,5	2,146900
12,467000	0,5	2,090600
12,475333	0,5	2,036250
12,483667	0,5	1,995500
12,492000	0,5	1,971650
12,500333	0,5	1,967600
12,508667	0,5	1,981400
12,517000	0,5	2,003500
12,525333	0,5	2,040200
12,533667	0,5	2,070100
12,542000	0,5	2,089600
12,550333	0,5	2,095500
12,558667	0,5	2,085200
12,567000	0,5	2,067000
12,575333	0,5	2,040550
12,583667	0,5	2,012950
12,592000	0,5	1,963950
12,600333	0,5	1,917450
12,608667	0,5	1,865450
12,617000	0,5	1,788050
12,625333	0,5	1,716800
12,633667	0,5	1,647950
12,642000	0,5	1,576400
12,650333	0,5	1,518250
12,658667	0,5	1,461700
12,667000	0,5	1,426650
12,675333	0,5	1,399000
12,683667	0,5	1,382650
12,692000	0,5	1,364350
12,700333	0,5	1,350100
12,708667	0,5	1,335000
12,717000	0,5	1,322200
12,725333	0,5	1,308350
12,733667	0,5	1,296800
12,742000	0,5	1,289700
12,750333	0,5	1,285450
12,758667	0,5	1,285900
12,767000	0,5	1,279500
12,775333	0,5	1,290200
12,783667	0,5	1,290250
12,792000	0,5	1,286050
12,800333	0,5	1,283250
12,808667	0,5	1,275550
12,817000	0,5	1,279200
12,825333	0,5	1,282350
12,833667	0,5	1,279950
12,842000	0,5	1,278450
12,850333	0,5	1,267600
12,858667	0,5	1,258050
12,867000	0,5	1,251050
12,875333	0,5	1,250300
12,883667	0,5	1,259200
12,892000	0,5	1,286550
12,900333	0,5	1,328950
12,908667	0,5	1,368550
12,917000	0,5	1,404650
12,925333	0,5	1,446250
12,933667	0,5	1,455500
12,942000	0,5	1,446900
12,950333	0,5	1,383150
12,958667	0,5	1,308000
12,967000	0,5	1,225200
12,975333	0,5	1,139650
12,983667	0,5	1,058950
12,992000	0,5	0,984200
13,000333	0,5	0,910400
13,008667	0,5	0,849750
13,017000	0,5	0,795700
13,025333	0,5	0,692600
13,033667	0,5	0,595800
13,042000	0,5	0,427650
13,050333	0,5	0,124850
13,058667	0,5	-0,306650
13,067000	0,5	-0,633050
13,075333	0,5	-0,897700
13,083667	0,5	-1,174850
13,092000	0,5	-1,389050
13,100333	0,5	-1,543500
13,108667	0,5	-1,643650
13,117000	0,5	-1,723750
13,125333	0,5	-1,795650
13,133667	0,5	-1,864250
13,142000	0,5	-1,919700
13,150333	0,5	-1,972750
13,158667	0,5	-2,011550
13,167000	0,5	-2,045350
13,175333	0,5	-2,067350
13,183667	0,5	-2,082200
13,192000	0,5	-2,077150
13,200333	0,5	-2,065800
13,208667	0,5	-2,053800
13,217000	0,5	-2,025400
13,225333	0,5	-2,005450
13,233667	0,5	-1,988300
13,242000	0,5	-1,981150
13,250333	0,5	-1,984100
13,258667	0,5	-1,982300
13,267000	0,5	-1,990700
13,275333	0,5	-2,013200
13,283667	0,5	-2,039200
13,292000	0,5	-2,076850
13,300333	0,5	-2,110950
13,308667	0,5	-2,144800
13,317000	0,5	-2,167800
13,325333	0,5	-2,191900
13,333667	0,5	-2,214200
13,342000	0,5	-2,233750
13,350333	0,5	-2,234900
13,358667	0,5	-2,239750
13,367000	0,5	-2,232800
13,375333	0,5	-2,227900
13,383667	0,5	-2,223100
13,392000	0,5	-2,225050
13,400333	0,5	-2,219900
13,408667	0,5	-2,204800
13,417000	0,5	-2,182900
13,425333	0,5	-2,157400
13,433667	0,5	-2,131350
13,442000	0,5	-2,099600
13,450333	0,5	-2,062850
13,458667	0,5	-2,033650
13,467000	0,5	-2,008500
13,475333	0,5	-1,983600
13,483667	0,5	-1,968450
13,492000	0,5	-1,949750
13,500333	0,5	-1,941450
13,508667	0,5	-1,931250
13,517000	0,5	-1,912200
13,525333	0,5	-1,901150
13,533667	0,5	-1,898700
13,542000	0,5	-1,897000
13,550333	0,5	-1,900750
13,558667	0,5	-1,890800
13,567000	0,5	-1,891600
13,575333	0,5	-1,894350
13,583667	0,5	-1,908250
13,592000	0,5	-1,915250
13,600333	0,5	-1,930500
13,608667	0,5	-1,936700
13,617000	0,5	-1,951200
13,625333	0,5	-1,956650
13,633667	0,5	-1,960850
13,642000	0,5	-1,962350
13,650333	0,5	-1,970850
13,658667	0,5	-1,960650
13,667000	0,5	-1,948200
13,675333	0,5	-1,949250
13,683667	0,5	-1,944800
13,692000	0,5	-1,943150
13,700333	0,5	-1,926750
13,708667	0,5	-1,919950
13,717000	0,5	-1,900300
13,725333	0,5	-1,896650
13,733667	0,5	-1,875650
13,742000	0,5	-1,866550
13,750333	0,5	-1,843250
13,758667	0,5	-1,829200
13,767000	0,5	-1,807500
13,775333	0,5	-1,790300
13,783667	0,5	-1,765100
13,792000	0,5	-1,751950
13,800333	0,5	-1,724900
13,808667	0,5	-1,692700
13,817000	0,5	-1,668650
13,825333	0,5	-1,640800
13,833667	0,5	-1,622600
13,842000	0,5	-1,598350
13,850333	0,5	-1,560950
13,858667	0,5	-1,516300
13,867000	0,5	-1,482550
13,875333	0,5	-1,440900
13,883667	0,5	-1,402500
13,892000	0,5	-1,367300
13,900333	0,5	-1,333550
13,908667	0,5	-1,297450
13,917000	0,5	-1,271050
13,925333	0,5	-1,255250
13,933667	0,5	-1,232800
13,942000	0,5	-1,230600
13,950333	0,5	-1,209800
13,958667	0,5	-1,195300
13,967000	0,5	-1,182550
13,975333	0,5	-1,166400
13,983667	0,5	-1,162650
13,992000	0,5	-1,135000
14,000333	0,5	-1,107250
14,008667	0,5	-1,088050
14,017000	0,5	-1,063500
14,025333	0,5	-1,036600
14,033667	0,5	-1,007800
14,042000	0,5	-0,979600
14,050333	0,5	-0,936350
14,058667	0,5	-0,897500
14,067000	0,5	-0,844850
14,075333	0,5	-0,783850
14,083667	0,5	-0,698450
14,092000	0,5	-0,637950
14,100333	0,5	-0,527650
14,108667	0,5	-0,434700
14,117000	0,5	-0,347300
14,125333	0,5	-0,278700
14,133667	0,5	-0,228600
14,142000	0,5	-0,174200
14,150333	0,5	-0,140000
14,158667	0,5	-0,115250
14,167000	0,5	-0,112200
14,175333	0,5	-0,104850
14,183667	0,5	-0,101600
14,192000	0,5	-0,101200
14,200333	0,5	-0,077600
14,208667	0,5	-0,035850
14,217000	0,5	0,029450
14,225333	0,5	0,120500
14,233667	0,5	0,211150
14,242000	0,5	0,299600
14,250333	0,5	0,384900
14,258667	0,5	0,447300
14,267000	0,5	0,472650
14,275333	0,5	0,475650
14,283667	0,5	0,451500
14,292000	0,5	0,435400
14,300333	0,5	0,418850
14,308667	0,5	0,401700
14,317000	0,5	0,393050
14,325333	0,5	0,384800
14,333667	0,5	0,383700
14,342000	0,5	0,387650
14,350333	0,5	0,388950
14,358667	0,5	0,394300
14,367000	0,5	0,400000
14,375333	0,5	0,401050
14,383667	0,5	0,407250
14,392000	0,5	0,405550
14,400333	0,5	0,424100
14,408667	0,5	0,427900
14,417000	0,5	0,426750
14,425333	0,5	0,419150
14,433667	0,5	0,420300
14,442000	0,5	0,432700
14,450333	0,5	0,436150
14,458667	0,5	0,446700
14,467000	0,5	0,461900
14,475333	0,5	0,486100
14,483667	0,5	0,507900
14,492000	0,5	0,529750
14,500333	0,5	0,541600
14,508667	0,5	0,549700
14,517000	0,5	0,553200
14,525333	0,5	0,547950
14,533667	0,5	0,527850
14,542000	0,5	0,521050
14,550333	0,5	0,508100
14,558667	0,5	0,488650
14,567000	0,5	0,467050
14,575333	0,5	0,445000
14,583667	0,5	0,435100
14,592000	0,5	0,431750
14,600333	0,5	0,423300
14,608667	0,5	0,426950
14,617000	0,5	0,424400
14,625333	0,5	0,424750
14,633667	0,5	0,419500
14,642000	0,5	0,426850
14,650333	0,5	0,421400
14,658667	0,5	0,421250
14,667000	0,5	0,440600
14,675333	0,5	0,446450
14,683667	0,5	0,474850
14,692000	0,5	0,534050
14,700333	0,5	0,609100
14,708667	0,5	0,711650
14,717000	0,5	0,815250
14,725333	0,5	0,911700
14,733667	0,5	0,974850
14,742000	0,5	0,980300
14,750333	0,5	0,940450
14,758667	0,5	0,872450
14,767000	0,5	0,800950
14,775333	0,5	0,742800
14,783667	0,5	0,720750
14,792000	0,5	0,734600
14,800333	0,5	0,786250
14,808667	0,5	0,863050
14,817000	0,5	0,942200
14,825333	0,5	0,968050
14,833667	0,5	0,985250
14,842000	0,5	0,950450
14,850333	0,5	0,876550
14,858667	0,5	0,789150
14,867000	0,5	0,689900
14,875333	0,5	0,631350
14,883667	0,5	0,584250
14,892000	0,5	0,555800
14,900333	0,5	0,528300
14,908667	0,5	0,523800
14,917000	0,5	0,511300
14,925333	0,5	0,522300
14,933667	0,5	0,525750
14,942000	0,5	0,548050
14,950333	0,5	0,568500
14,958667	0,5	0,600950
14,967000	0,5	0,624900
14,975333	0,5	0,626000
14,983667	0,5	0,641150
14,992000	0,5	0,629700
15,000333	0,5	0,613850
15,008667	0,5	0,591650
15,017000	0,5	0,556850
15,025333	0,5	0,545950
15,033667	0,5	0,528850
15,042000	0,5	0,495750
15,050333	0,5	0,468550
15,058667	0,5	0,430000
15,067000	0,5	0,404850
15,075333	0,5	0,372200
15,083667	0,5	0,358550
15,092000	0,5	0,335550
15,100333	0,5	0,320750
15,108667	0,5	0,314850
15,117000	0,5	0,305400
15,125333	0,5	0,283450
15,133667	0,5	0,286750
15,142000	0,5	0,277900
15,150333	0,5	0,267300
15,158667	0,5	0,243400
15,167000	0,5	0,236600
15,175333	0,5	0,255500
15,183667	0,5	0,276900
15,192000	0,5	0,309500
15,200333	0,5	0,368600
15,208667	0,5	0,467300
15,217000	0,5	0,577300
15,225333	0,5	0,716200
15,233667	0,5	0,832900
15,242000	0,5	0,915800
15,250333	0,5	0,936600
15,258667	0,5	0,913750
15,267000	0,5	0,836600
15,275333	0,5	0,782300
15,283667	0,5	0,751750
15,292000	0,5	0,759700
15,300333	0,5	0,791000
15,308667	0,5	0,836200
15,317000	0,5	0,878750
15,325333	0,5	0,889950
15,333667	0,5	0,862100
15,342000	0,5	0,782850
15,350333	0,5	0,695000
15,358667	0,5	0,592650
15,367000	0,5	0,519850
15,375333	0,5	0,474900
15,383667	0,5	0,450000
15,392000	0,5	0,430150
15,400333	0,5	0,424300
15,408667	0,5	0,408450
15,417000	0,5	0,376450
15,425333	0,5	0,364200
15,433667	0,5	0,350900
15,442000	0,5	0,330550
15,450333	0,5	0,322200
15,458667	0,5	0,289350
15,467000	0,5	0,299000
15,475333	0,5	0,319950
15,483667	0,5	0,328150
15,492000	0,5	0,327600
15,500333	0,5	0,321550
15,508667	0,5	0,307750
15,517000	0,5	0,294300
15,525333	0,5	0,275200
15,533667	0,5	0,244100
15,542000	0,5	0,226350
15,550333	0,5	0,200050
15,558667	0,5	0,172400
15,567000	0,5	0,145050
15,575333	0,5	0,137750
15,583667	0,5	0,119550
15,592000	0,5	0,104800
15,600333	0,5	0,071150
15,608667	0,5	0,052900
15,617000	0,5	0,049450
15,625333	0,5	0,054350
15,633667	0,5	0,057150
15,642000	0,5	0,077700
15,650333	0,5	0,108250
15,658667	0,5	0,165850
15,667000	0,5	0,252250
15,675333	0,5	0,375500
15,683667	0,5	0,514750
15,692000	0,5	0,622250
15,700333	0,5	0,692750
15,708667	0,5	0,691850
15,717000	0,5	0,672050
15,725333	0,5	0,639150
15,733667	0,5	0,615350
15,742000	0,5	0,625200
15,750333	0,5	0,651150
15,758667	0,5	0,689150
15,767000	0,5	0,708100
15,775333	0,5	0,677400
15,783667	0,5	0,622800
15,792000	0,5	0,532850
15,800333	0,5	0,448950
15,808667	0,5	0,363800
15,817000	0,5	0,291300
15,825333	0,5	0,241950
15,833667	0,5	0,196900
15,842000	0,5	0,176050
15,850333	0,5	0,162250
15,858667	0,5	0,137050
15,867000	0,5	0,150300
15,875333	0,5	0,157250
15,883667	0,5	0,162250
15,892000	0,5	0,159850
15,900333	0,5	0,139050
15,908667	0,5	0,141050
15,917000	0,5	0,119600
15,925333	0,5	0,109650
15,933667	0,5	0,074050
15,942000	0,5	0,053200
15,950333	0,5	0,017450
15,958667	0,5	-0,006450
15,967000	0,5	-0,030250
15,975333	0,5	-0,051950
15,983667	0,5	-0,065350
15,992000	0,5	-0,069900
16,000333	0,5	-0,095550
16,008667	0,5	-0,099250
16,017000	0,5	-0,101600
16,025333	0,5	-0,099300
16,033667	0,5	-0,111350
16,042000	0,5	-0,127100
16,050333	0,5	-0,103600
16,058667	0,5	-0,050750
16,067000	0,5	0,037000
16,075333	0,5	0,144600
16,083667	0,5	0,288850
16,092000	0,5	0,410950
16,100333	0,5	0,513750
16,108667	0,5	0,550800
16,117000	0,5	0,559150
16,125333	0,5	0,548750
16,133667	0,5	0,557350
16,142000	0,5	0,576800
16,150333	0,5	0,583700
16,158667	0,5	0,588900
16,167000	0,5	0,542050
16,175333	0,5	0,460150
16,183667	0,5	0,356500
16,192000	0,5	0,248850
16,200333	0,5	0,177850
16,208667	0,5	0,137850
16,217000	0,5	0,099950
16,225333	0,5	0,085300
16,233667	0,5	0,079450
16,242000	0,5	0,085750
16,250333	0,5	0,093450
16,258667	0,5	0,098950
16,267000	0,5	0,097850
16,275333	0,5	0,088050
16,283667	0,5	0,087500
16,292000	0,5	0,092300
16,300333	0,5	0,058800
16,308667	0,5	0,057800
16,317000	0,5	0,034050
16,325333	0,5	0,006900
16,333667	0,5	-0,026200
16,342000	0,5	-0,077400
16,350333	0,5	-0,082300
16,358667	0,5	-0,104850
16,367000	0,5	-0,131000
16,375333	0,5	-0,158400
16,383667	0,5	-0,174000
16,392000	0,5	-0,194400
16,400333	0,5	-0,197800
16,408667	0,5	-0,194100
16,417000	0,5	-0,166700
16,425333	0,5	-0,117750
16,433667	0,5	-0,021300
16,442000	0,5	0,094500
16,450333	0,5	0,228950
16,458667	0,5	0,359400
16,467000	0,5	0,451550
16,475333	0,5	0,472350
16,483667	0,5	0,470500
16,492000	0,5	0,465200
16,500333	0,5	0,465550
16,508667	0,5	0,458900
16,517000	0,5	0,434350
16,525333	0,5	0,377650
16,533667	0,5	0,304850
16,542000	0,5	0,228200
16,550333	0,5	0,160200
16,558667	0,5	0,110750
16,567000	0,5	0,081450
16,575333	0,5	0,088450
16,583667	0,5	0,094400
16,592000	0,5	0,103750
16,600333	0,5	0,134250
16,608667	0,5	0,158000
16,617000	0,5	0,171650
16,625333	0,5	0,173900
16,633667	0,5	0,158900
16,642000	0,5	0,143750
16,650333	0,5	0,139650
16,658667	0,5	0,127450
16,667000	0,5	0,113450
16,675333	0,5	0,093550
16,683667	0,5	0,069850
16,692000	0,5	0,068450
16,700333	0,5	0,059500
16,708667	0,5	0,056200
16,717000	0,5	0,047500
16,725333	0,5	0,042300
16,733667	0,5	0,040800
16,742000	0,5	0,033050
16,750333	0,5	0,054850
16,758667	0,5	0,086450
16,767000	0,5	0,150250
16,775333	0,5	0,217100
16,783667	0,5	0,295750
16,792000	0,5	0,374450
16,800333	0,5	0,429150
16,808667	0,5	0,435650
16,817000	0,5	0,442900
16,825333	0,5	0,428750
16,833667	0,5	0,406650
16,842000	0,5	0,361600
16,850333	0,5	0,300800
16,858667	0,5	0,227150
16,867000	0,5	0,146800
16,875333	0,5	0,092400
16,883667	0,5	0,023700
16,892000	0,5	-0,009650
16,900333	0,5	-0,019900
16,908667	0,5	-0,032500
16,917000	0,5	-0,049500
16,925333	0,5	-0,072450
16,933667	0,5	-0,086450
16,942000	0,5	-0,087250
16,950333	0,5	-0,098950
16,958667	0,5	-0,109850
16,967000	0,5	-0,127500
16,975333	0,5	-0,134750
16,983667	0,5	-0,171800
16,992000	0,5	-0,182500
17,000333	0,5	-0,202850
17,008667	0,5	-0,218650
17,017000	0,5	-0,217700
17,025333	0,5	-0,212000
17,033667	0,5	-0,216850
17,042000	0,5	-0,172800
17,050333	0,5	-0,120250
17,058667	0,5	-0,053900
17,067000	0,5	0,037050
17,075333	0,5	0,127500
17,083667	0,5	0,256000
17,092000	0,5	0,367800
17,100333	0,5	0,475100
17,108667	0,5	0,564500
17,117000	0,5	0,659050
17,125333	0,5	0,757900
17,133667	0,5	0,865700
17,142000	0,5	0,973650
17,150333	0,5	1,094800
17,158667	0,5	1,219300
17,167000	0,5	1,357900
17,175333	0,5	1,498450
17,183667	0,5	1,628800
17,192000	0,5	1,762500
17,200333	0,5	1,888550
17,208667	0,5	1,979100
17,217000	0,5	2,043800
17,225333	0,5	2,097150
17,233667	0,5	2,141000
17,242000	0,5	2,158950
17,250333	0,5	2,119250
17,258667	0,5	2,037500
17,267000	0,5	1,901300
17,275333	0,5	1,743500
17,283667	0,5	1,554550
17,292000	0,5	1,369550
17,300333	0,5	1,193000
17,308667	0,5	1,040450
17,317000	0,5	0,928850
17,325333	0,5	0,847950
17,333667	0,5	0,828150
17,342000	0,5	0,856100
17,350333	0,5	0,898000
17,358667	0,5	0,930850
17,367000	0,5	0,940500
17,375333	0,5	0,934850
17,383667	0,5	0,932350
17,392000	0,5	0,878600
17,400333	0,5	0,819500
17,408667	0,5	0,731350
17,417000	0,5	0,648800
17,425333	0,5	0,570800
17,433667	0,5	0,533300
17,442000	0,5	0,501750
17,450333	0,5	0,507300
17,458667	0,5	0,523450
17,467000	0,5	0,550100
17,475333	0,5	0,558800
17,483667	0,5	0,593550
17,492000	0,5	0,611400
17,500333	0,5	0,628150
17,508667	0,5	0,614600
17,517000	0,5	0,598150
17,525333	0,5	0,592850
17,533667	0,5	0,576300
17,542000	0,5	0,535600
17,550333	0,5	0,483050
17,558667	0,5	0,427700
17,567000	0,5	0,383100
17,575333	0,5	0,367400
17,583667	0,5	0,361950
17,592000	0,5	0,365750
17,600333	0,5	0,365900
17,608667	0,5	0,385300
17,617000	0,5	0,370750
17,625333	0,5	0,337900
17,633667	0,5	0,301200
17,642000	0,5	0,238150
17,650333	0,5	0,152450
17,658667	0,5	0,070400
17,667000	0,5	-0,013200
17,675333	0,5	-0,060100
17,683667	0,5	-0,095350
17,692000	0,5	-0,132500
17,700333	0,5	-0,155350
17,708667	0,5	-0,178650
17,717000	0,5	-0,207600
17,725333	0,5	-0,233550
17,733667	0,5	-0,253500
17,742000	0,5	-0,281400
17,750333	0,5	-0,293300
17,758667	0,5	-0,308800
17,767000	0,5	-0,326600
17,775333	0,5	-0,325600
17,783667	0,5	-0,307350
17,792000	0,5	-0,297200
17,800333	0,5	-0,265850
17,808667	0,5	-0,232000
17,817000	0,5	-0,176700
17,825333	0,5	-0,125950
17,833667	0,5	-0,081150
17,842000	0,5	-0,072950
17,850333	0,5	-0,067700
17,858667	0,5	-0,100450
17,867000	0,5	-0,138450
17,875333	0,5	-0,179050
17,883667	0,5	-0,222600
17,892000	0,5	-0,253450
17,900333	0,5	-0,289850
17,908667	0,5	-0,305550
17,917000	0,5	-0,342300
17,925333	0,5	-0,352800
17,933667	0,5	-0,366050
17,942000	0,5	-0,381950
17,950333	0,5	-0,412100
17,958667	0,5	-0,425600
17,967000	0,5	-0,429200
17,975333	0,5	-0,407650
17,983667	0,5	-0,399250
17,992000	0,5	-0,380300
18,000333	0,5	-0,354600
18,008667	0,5	-0,305600
18,017000	0,5	-0,256850
18,025333	0,5	-0,205150
18,033667	0,5	-0,161450
18,042000	0,5	-0,155800
18,050333	0,5	-0,146250
18,058667	0,5	-0,180650
18,067000	0,5	-0,212750
18,075333	0,5	-0,251850
18,083667	0,5	-0,268850
18,092000	0,5	-0,311800
18,100333	0,5	-0,357300
18,108667	0,5	-0,389600
18,117000	0,5	-0,388350
18,125333	0,5	-0,408350
18,133667	0,5	-0,407150
18,142000	0,5	-0,413950
18,150333	0,5	-0,417150
18,158667	0,5	-0,427900
18,167000	0,5	-0,411200
18,175333	0,5	-0,399950
18,183667	0,5	-0,381500
18,192000	0,5	-0,335000
18,200333	0,5	-0,289150
18,208667	0,5	-0,267050
18,217000	0,5	-0,208450
18,225333	0,5	-0,180250
18,233667	0,5	-0,179250
18,242000	0,5	-0,189000
18,250333	0,5	-0,239450
18,258667	0,5	-0,246600
18,267000	0,5	-0,264750
18,275333	0,5	-0,274700
18,283667	0,5	-0,294350
18,292000	0,5	-0,292850
18,300333	0,5	-0,315250
18,308667	0,5	-0,324050
18,317000	0,5	-0,341300
18,325333	0,5	-0,358650
18,333667	0,5	-0,362150
18,342000	0,5	-0,374950
18,350333	0,5	-0,368250
18,358667	0,5	-0,371100
18,367000	0,5	-0,331600
18,375333	0,5	-0,306700
18,383667	0,5	-0,278050
18,392000	0,5	-0,267650
18,400333	0,5	-0,285300
18,408667	0,5	-0,286150
18,417000	0,5	-0,287350
18,425333	0,5	-0,317400
18,433667	0,5	-0,342300
18,442000	0,5	-0,373400
18,450333	0,5	-0,389950
18,458667	0,5	-0,408750
18,467000	0,5	-0,411950
18,475333	0,5	-0,419350
18,483667	0,5	-0,436200
18,492000	0,5	-0,437250
18,500333	0,5	-0,437700
18,508667	0,5	-0,449450
18,517000	0,5	-0,437900
18,525333	0,5	-0,433400
18,533667	0,5	-0,431850
18,542000	0,5	-0,432000
18,550333	0,5	-0,431850
18,558667	0,5	-0,400600
18,567000	0,5	-0,400450
18,575333	0,5	-0,399100
18,583667	0,5	-0,420150
18,592000	0,5	-0,438650
18,600333	0,5	-0,471800
18,608667	0,5	-0,492900
18,617000	0,5	-0,517300
18,625333	0,5	-0,538600
18,633667	0,5	-0,536150
18,642000	0,5	-0,536900
18,650333	0,5	-0,561950
18,658667	0,5	-0,561750
18,667000	0,5	-0,564150
18,675333	0,5	-0,566950
18,683667	0,5	-0,578500
18,692000	0,5	-0,585050
18,700333	0,5	-0,563550
18,708667	0,5	-0,548400
18,717000	0,5	-0,524450
18,725333	0,5	-0,528000
18,733667	0,5	-0,535250
18,742000	0,5	-0,555950
18,750333	0,5	-0,575200
18,758667	0,5	-0,574150
18,767000	0,5	-0,580050
18,775333	0,5	-0,587150
18,783667	0,5	-0,558900
18,792000	0,5	-0,561350
18,800333	0,5	-0,548800
18,808667	0,5	-0,530100
18,817000	0,5	-0,503600
18,825333	0,5	-0,481950
18,833667	0,5	-0,472750
18,842000	0,5	-0,463700
18,850333	0,5	-0,445750
18,858667	0,5	-0,440450
18,867000	0,5	-0,448400
18,875333	0,5	-0,463500
18,883667	0,5	-0,484750
18,892000	0,5	-0,507550
18,900333	0,5	-0,529850
18,908667	0,5	-0,536750
18,917000	0,5	-0,547300
18,925333	0,5	-0,538300
18,933667	0,5	-0,535400
18,942000	0,5	-0,523400
18,950333	0,5	-0,513500
18,958667	0,5	-0,491400
18,967000	0,5	-0,491800
18,975333	0,5	-0,487650
18,983667	0,5	-0,523450
18,992000	0,5	-0,548650
19,000333	0,5	-0,563800
19,008667	0,5	-0,595900
19,017000	0,5	-0,627550
19,025333	0,5	-0,641100
19,033667	0,5	-0,650750
19,042000	0,5	-0,666950
19,050333	0,5	-0,677900
19,058667	0,5	-0,693400
19,067000	0,5	-0,690650
19,075333	0,5	-0,683800
19,083667	0,5	-0,677000
19,092000	0,5	-0,697100
19,100333	0,5	-0,693400
19,108667	0,5	-0,701050
19,117000	0,5	-0,722700
19,125333	0,5	-0,747450
19,133667	0,5	-0,779500
19,142000	0,5	-0,771900
19,150333	0,5	-0,779750
19,158667	0,5	-0,794800
19,167000	0,5	-0,804700
19,175333	0,5	-0,814300
19,183667	0,5	-0,815500
19,192000	0,5	-0,833150
19,200333	0,5	-0,846800
19,208667	0,5	-0,853800
19,217000	0,5	-0,883700
19,225333	0,5	-0,880050
19,233667	0,5	-0,917400
19,242000	0,5	-0,929650
19,250333	0,5	-0,939650
19,258667	0,5	-0,946300
19,267000	0,5	-0,970450
19,275333	0,5	-0,987550
19,283667	0,5	-0,999200
19,292000	0,5	-0,988400
19,300333	0,5	-0,995700
19,308667	0,5	-1,010450
19,317000	0,5	-1,034350
19,325333	0,5	-1,046500
19,333667	0,5	-1,048100
19,342000	0,5	-1,052100
19,350333	0,5	-1,058800
19,358667	0,5	-1,067350
19,367000	0,5	-1,061450
19,375333	0,5	-1,065350
19,383667	0,5	-1,088450
19,392000	0,5	-1,095900
19,400333	0,5	-1,097600
19,408667	0,5	-1,116900
19,417000	0,5	-1,136400
19,425333	0,5	-1,173200
19,433667	0,5	-1,171950
19,442000	0,5	-1,178100
19,450333	0,5	-1,187250
19,458667	0,5	-1,192850
19,467000	0,5	-1,189500
19,475333	0,5	-1,207600
19,483667	0,5	-1,207900
19,492000	0,5	-1,213700
19,500333	0,5	-1,232950
19,508667	0,5	-1,225450
19,517000	0,5	-1,235750
19,525333	0,5	-1,221200
19,533667	0,5	-1,249600
19,542000	0,5	-1,232300
19,550333	0,5	-1,248750
19,558667	0,5	-1,267650
19,567000	0,5	-1,302600
19,575333	0,5	-1,332350
19,583667	0,5	-1,329800
19,592000	0,5	-1,327750
19,600333	0,5	-1,341800
19,608667	0,5	-1,355850
19,617000	0,5	-1,370800
19,625333	0,5	-1,382100
19,633667	0,5	-1,393150
19,642000	0,5	-1,400500
19,650333	0,5	-1,406400
19,658667	0,5	-1,417450
19,667000	0,5	-1,414700
19,675333	0,5	-1,425500
19,683667	0,5	-1,431950
19,692000	0,5	-1,431200
19,700333	0,5	-1,435000
19,708667	0,5	-1,453900
19,717000	0,5	-1,473750
19,725333	0,5	-1,507000
19,733667	0,5	-1,497250
19,742000	0,5	-1,504650
19,750333	0,5	-1,505700
19,758667	0,5	-1,521850
19,767000	0,5	-1,532750
19,775333	0,5	-1,544850
19,783667	0,5	-1,551700
19,792000	0,5	-1,565050
19,800333	0,5	-1,586650
19,808667	0,5	-1,585050
19,817000	0,5	-1,596950
19,825333	0,5	-1,628250
19,833667	0,5	-1,629100
19,842000	0,5	-1,640750
19,850333	0,5	-1,656350
19,858667	0,5	-1,684450
19,867000	0,5	-1,714200
19,875333	0,5	-1,718500
19,883667	0,5	-1,729250
19,892000	0,5	-1,724750
19,900333	0,5	-1,726250
19,908667	0,5	-1,719950
19,917000	0,5	-1,726300
19,925333	0,5	-1,725300
19,933667	0,5	-1,736250
19,942000	0,5	-1,741950
19,950333	0,5	-1,756700
19,958667	0,5	-1,756350
19,967000	0,5	-1,767750
19,975333	0,5	-1,779950
19,983667	0,5	-1,788850
19,992000	0,5	-1,802350
20,000333	0,5	-1,809900
20,008667	0,5	-1,851650
20,017000	0,5	-1,871750
20,025333	0,5	-1,898300
20,033667	0,5	-1,909400
20,042000	0,5	-1,927000
20,050333	0,5	-1,939350
20,058667	0,5	-1,959050
20,067000	0,5	-1,971500
20,075333	0,5	-1,993200
20,083667	0,5	-2,005050
20,092000	0,5	-2,030400
20,100333	0,5	-2,045700
20,108667	0,5	-2,045900
20,117000	0,5	-2,078000
20,125333	0,5	-2,082550
20,133667	0,5	-2,096500
20,142000	0,5	-2,111050
20,150333	0,5	-2,130700
20,158667	0,5	-2,157950
20,167000	0,5	-2,172850
20,175333	0,5	-2,164400
20,183667	0,5	-2,172300
20,192000	0,5	-2,172850
20,200333	0,5	-2,176400
20,208667	0,5	-2,168600
20,217000	0,5	-2,174350
20,225333	0,5	-2,159950
20,233667	0,5	-2,167150
20,242000	0,5	-2,151800
20,250333	0,5	-2,137150
20,258667	0,5	-2,131750
20,267000	0,5	-2,151700
20,275333	0,5	-2,148700
20,283667	0,5	-2,154150
20,292000	0,5	-2,183900
20,300333	0,5	-2,214150
20,308667	0,5	-2,258050
20,317000	0,5	-2,254850
20,325333	0,5	-2,271400
20,333667	0,5	-2,297650
20,342000	0,5	-2,321850
20,350333	0,5	-2,326100
20,358667	0,5	-2,359450
20,367000	0,5	-2,375200
20,375333	0,5	-2,400350
20,383667	0,5	-2,427500
20,392000	0,5	-2,448100
20,400333	0,5	-2,456650
20,408667	0,5	-2,498850
20,417000	0,5	-2,516650
20,425333	0,5	-2,529350
20,433667	0,5	-2,563600
20,442000	0,5	-2,603600
20,450333	0,5	-2,652600
20,458667	0,5	-2,664650
20,467000	0,5	-2,688800
20,475333	0,5	-2,697750
20,483667	0,5	-2,722650
20,492000	0,5	-2,736200
20,500333	0,5	-2,765300
20,508667	0,5	-2,794050
20,517000	0,5	-2,814000
20,525333	0,5	-2,846400
20,533667	0,5	-2,866100
20,542000	0,5	-2,880450
20,550333	0,5	-2,874100
20,558667	0,5	-2,897450
20,567000	0,5	-2,882950
20,575333	0,5	-2,887250
20,583667	0,5	-2,900450
20,592000	0,5	-2,942100
20,600333	0,5	-3,012350
20,608667	0,5	-3,048600
20,617000	0,5	-3,087850
20,625333	0,5	-3,144500
20,633667	0,5	-3,189050
20,642000	0,5	-3,240350
20,650333	0,5	-3,278000
20,658667	0,5	-3,307300
20,667000	0,5	-3,351900
20,675333	0,5	-3,392700
20,683667	0,5	-3,424100
20,692000	0,5	-3,441200
20,700333	0,5	-3,465900
20,708667	0,5	-3,498350
20,717000	0,5	-3,522450
20,725333	0,5	-3,536950
20,733667	0,5	-3,534100
20,742000	0,5	-3,547100
20,750333	0,5	-3,549250
20,758667	0,5	-3,530950
20,767000	0,5	-3,554550
20,775333	0,5	-3,596500
20,783667	0,5	-3,653200
20,792000	0,5	-3,719200
20,800333	0,5	-3,811550
20,808667	0,5	-3,859050
20,817000	0,5	-3,920400
20,825333	0,5	-3,978100
20,833667	0,5	-4,018200
20,842000	0,5	-4,042400
20,850333	0,5	-4,100100
20,858667	0,5	-4,135200
20,867000	0,5	-4,176450
20,875333	0,5	-4,224250
20,883667	0,5	-4,283850
20,892000	0,5	-4,347950
20,900333	0,5	-4,377250
20,908667	0,5	-4,398850
20,917000	0,5	-4,410400
20,925333	0,5	-4,441850
20,933667	0,5	-4,468300
20,942000	0,5	-4,519950
20,950333	0,5	-4,554600
20,958667	0,5	-4,606550
20,967000	0,5	-4,640000
20,975333	0,5	-4,692550
20,983667	0,5	-4,691700
20,992000	0,5	-4,718800
21,000333	0,5	-4,760050
21,008667	0,5	-4,796200
21,017000	0,5	-4,832400
21,025333	0,5	-4,871200
21,033667	0,5	-4,942250
21,042000	0,5	-4,984350
21,050333	0,5	-5,015250
21,058667	0,5	-5,036750
21,067000	0,5	-5,062000
21,075333	0,5	-5,091250
21,083667	0,5	-5,124250
21,092000	0,5	-5,143850
21,100333	0,5	-5,172000
21,108667	0,5	-5,186400
21,117000	0,5	-5,220800
21,125333	0,5	-5,241650
21,133667	0,5	-5,255650
21,142000	0,5	-5,278100
21,150333	0,5	-5,317800
21,158667	0,5	-5,341150
21,167000	0,5	-5,389800
21,175333	0,5	-5,430400
21,183667	0,5	-5,489050
21,192000	0,5	-5,516550
21,200333	0,5	-5,533150
21,208667	0,5	-5,565850
21,217000	0,5	-5,587100
21,225333	0,5	-5,609500
21,233667	0,5	-5,628250
21,242000	0,5	-5,656150
21,250333	0,5	-5,670750
21,258667	0,5	-5,698850
21,267000	0,5	-5,717550
21,275333	0,5	-5,709450
21,283667	0,5	-5,699400
21,292000	0,5	-5,711650
21,300333	0,5	-5,723400
21,308667	0,5	-5,728600
21,317000	0,5	-5,747100
21,325333	0,5	-5,790500
21,333667	0,5	-5,825200
21,342000	0,5	-5,843350
21,350333	0,5	-5,881750
21,358667	0,5	-5,911200
21,367000	0,5	-5,941900
21,375333	0,5	-5,963400
21,383667	0,5	-5,984600
21,392000	0,5	-6,003500
21,400333	0,5	-6,026800
21,408667	0,5	-6,050050
21,417000	0,5	-6,057050
21,425333	0,5	-6,041250
21,433667	0,5	-6,059950
21,442000	0,5	-6,078450
21,450333	0,5	-6,096750
21,458667	0,5	-6,131200
21,467000	0,5	-6,152850
21,475333	0,5	-6,207850
21,483667	0,5	-6,216100
21,492000	0,5	-6,235650
21,500333	0,5	-6,242550
21,508667	0,5	-6,267900
21,517000	0,5	-6,292200
21,525333	0,5	-6,312700
21,533667	0,5	-6,323950
21,542000	0,5	-6,336450
21,550333	0,5	-6,350700
21,558667	0,5	-6,386800
21,567000	0,5	-6,353700
21,575333	0,5	-6,359050
21,583667	0,5	-6,378750
21,592000	0,5	-6,395100
21,600333	0,5	-6,416700
21,608667	0,5	-6,441400
21,617000	0,5	-6,475850
21,625333	0,5	-6,503800
21,633667	0,5	-6,496650
21,642000	0,5	-6,498150
21,650333	0,5	-6,505900
21,658667	0,5	-6,508900
21,667000	0,5	-6,513400
21,675333	0,5	-6,503450
21,683667	0,5	-6,496650
21,692000	0,5	-6,485800
21,700333	0,5	-6,514000
21,708667	0,5	-6,520900
21,717000	0,5	-6,522850
21,725333	0,5	-6,539550
21,733667	0,5	-6,568050
21,742000	0,5	-6,576200
21,750333	0,5	-6,577800
21,758667	0,5	-6,624150
21,767000	0,5	-6,656200
21,775333	0,5	-6,670150
21,783667	0,5	-6,668100
21,792000	0,5	-6,681400
21,800333	0,5	-6,687100
21,808667	0,5	-6,698850
21,817000	0,5	-6,692000
21,825333	0,5	-6,703800
21,833667	0,5	-6,696300
21,842000	0,5	-6,700450
21,850333	0,5	-6,699700
21,858667	0,5	-6,671200
21,867000	0,5	-6,666300
21,875333	0,5	-6,672000
21,883667	0,5	-6,669500
21,892000	0,5	-6,666500
21,900333	0,5	-6,675300
21,908667	0,5	-6,699900
21,917000	0,5	-6,719250
21,925333	0,5	-6,698800
21,933667	0,5	-6,683750
21,942000	0,5	-6,631550
21,950333	0,5	-6,597150
21,958667	0,5	-6,546850
21,967000	0,5	-6,545050
21,975333	0,5	-6,553900
21,983667	0,5	-6,602300
21,992000	0,5	-6,642400
22,000333	0,5	-6,676900
22,008667	0,5	-6,706100
22,017000	0,5	-6,760200
22,025333	0,5	-6,788700
22,033667	0,5	-6,812600
22,042000	0,5	-6,852850
22,050333	0,5	-6,883150
22,058667	0,5	-6,940200
22,067000	0,5	-6,980700
22,075333	0,5	-7,007600
22,083667	0,5	-7,010850
22,092000	0,5	-7,043650
22,100333	0,5	-7,053300
22,108667	0,5	-7,082150
22,117000	0,5	-7,099600
22,125333	0,5	-7,127600
22,133667	0,5	-7,143550
22,142000	0,5	-7,168500
22,150333	0,5	-7,180550
22,158667	0,5	-7,208500
22,167000	0,5	-7,224450
22,175333	0,5	-7,220000
22,183667	0,5	-7,227400
22,192000	0,5	-7,257750
22,200333	0,5	-7,281050
22,208667	0,5	-7,299050
22,217000	0,5	-7,305600
22,225333	0,5	-7,310800
22,233667	0,5	-7,321150
22,242000	0,5	-7,322200
22,250333	0,5	-7,325700
22,258667	0,5	-7,326900
22,267000	0,5	-7,336250
22,275333	0,5	-7,327350
22,283667	0,5	-7,331700
22,292000	0,5	-7,338100
22,300333	0,5	-7,330300
22,308667	0,5	-7,350700
22,317000	0,5	-7,319200
22,325333	0,5	-7,302200
22,333667	0,5	-7,284950
22,342000	0,5	-7,282950
22,350333	0,5	-7,292550
22,358667	0,5	-7,268700
22,367000	0,5	-7,205300
22,375333	0,5	-7,142850
22,383667	0,5	-7,056300
22,392000	0,5	-6,998350
22,400333	0,5	-6,995800
22,408667	0,5	-7,026750
22,417000	0,5	-7,068100
22,425333	0,5	-7,122200
22,433667	0,5	-7,174750
22,442000	0,5	-7,224750
22,450333	0,5	-7,259900
22,458667	0,5	-7,276850
22,467000	0,5	-7,275200
22,475333	0,5	-7,287650
22,483667	0,5	-7,299050
22,492000	0,5	-7,305500
22,500333	0,5	-7,332750
22,508667	0,5	-7,310400
22,517000	0,5	-7,308100
22,525333	0,5	-7,288500
22,533667	0,5	-7,289900
22,542000	0,5	-7,278650
22,550333	0,5	-7,281150
22,558667	0,5	-7,257300
22,567000	0,5	-7,228300
22,575333	0,5	-7,198100
22,583667	0,5	-7,177650
22,592000	0,5	-7,182150
22,600333	0,5	-7,165850
22,608667	0,5	-7,104050
22,617000	0,5	-7,095000
22,625333	0,5	-7,072650
22,633667	0,5	-7,080700
22,642000	0,5	-7,098400
22,650333	0,5	-7,092850
22,658667	0,5	-7,088800
22,667000	0,5	-7,077950
22,675333	0,5	-7,078050
22,683667	0,5	-7,071650
22,692000	0,5	-7,075900
22,700333	0,5	-7,069250
22,708667	0,5	-7,067700
22,717000	0,5	-7,065050
22,725333	0,5	-7,077400
22,733667	0,5	-7,144950
22,742000	0,5	-7,137750
22,750333	0,5	-7,120950
22,758667	0,5	-7,095550
22,767000	0,5	-7,101450
22,775333	0,5	-7,117950
22,783667	0,5	-7,134450
22,792000	0,5	-7,161900
22,800333	0,5	-7,180500
22,808667	0,5	-7,173200
22,817000	0,5	-7,197800
22,825333	0,5	-7,207900
22,833667	0,5	-7,225850
22,842000	0,5	-7,242400
22,850333	0,5	-7,262800
22,858667	0,5	-7,283250
22,867000	0,5	-7,295650
22,875333	0,5	-7,333300
22,883667	0,5	-7,434650
22,892000	0,5	-7,428700
22,900333	0,5	-7,439400
22,908667	0,5	-7,464550
22,917000	0,5	-7,491050
22,925333	0,5	-7,514050
22,933667	0,5	-7,539600
22,942000	0,5	-7,581200
22,950333	0,5	-7,609600
22,958667	0,5	-7,628100
22,967000	0,5	-7,639200
22,975333	0,5	-7,649150
22,983667	0,5	-7,663200
22,992000	0,5	-7,659600
23,000333	0,5	-7,650200
23,008667	0,5	-7,626000
23,017000	0,5	-7,615300
23,025333	0,5	-7,567600
23,033667	0,5	-7,576000
23,042000	0,5	-7,545200
23,050333	0,5	-7,549600
23,058667	0,5	-7,536750
23,067000	0,5	-7,507950
23,075333	0,5	-7,475900
23,083667	0,5	-7,431700
23,092000	0,5	-7,407700
23,100333	0,5	-7,374400
23,108667	0,5	-7,337950
23,117000	0,5	-7,281100
23,125333	0,5	-7,237350
23,133667	0,5	-7,162850
23,142000	0,5	-7,109600
23,150333	0,5	-7,024300
23,158667	0,5	-6,965050
23,167000	0,5	-6,857250
23,175333	0,5	-6,760500
23,183667	0,5	-6,684400
23,192000	0,5	-6,627250
23,200333	0,5	-6,587550
23,208667	0,5	-6,519450
23,217000	0,5	-6,441600
23,225333	0,5	-6,347100
23,233667	0,5	-6,265300
23,242000	0,5	-6,201550
23,250333	0,5	-6,128100
23,258667	0,5	-6,057400
23,267000	0,5	-5,982250
23,275333	0,5	-5,895950
23,283667	0,5	-5,817100
23,292000	0,5	-5,724750
23,300333	0,5	-5,652150
23,308667	0,5	-5,543350
23,317000	0,5	-5,428450
23,325333	0,5	-5,363450
23,333667	0,5	-5,243200
23,342000	0,5	-5,169300
23,350333	0,5	-5,122150
23,358667	0,5	-5,040300
23,367000	0,5	-4,961300
23,375333	0,5	-4,868650
23,383667	0,5	-4,814750
23,392000	0,5	-4,759950
23,400333	0,5	-4,692500
23,408667	0,5	-4,618350
23,417000	0,5	-4,554650
23,425333	0,5	-4,479900
23,433667	0,5	-4,409850
23,442000	0,5	-4,347800
23,450333	0,5	-4,270800
23,458667	0,5	-4,202650
23,467000	0,5	-4,183350
23,475333	0,5	-4,095200
23,483667	0,5	-4,005250
23,492000	0,5	-3,920850
23,500333	0,5	-3,880250
23,508667	0,5	-3,824600
23,517000	0,5	-3,758050
23,525333	0,5	-3,689950
23,533667	0,5	-3,656150
23,542000	0,5	-3,620450
23,550333	0,5	-3,574950
23,558667	0,5	-3,535850
23,567000	0,5	-3,493100
23,575333	0,5	-3,449050
23,583667	0,5	-3,410650
23,592000	0,5	-3,368150
23,600333	0,5	-3,325850
23,608667	0,5	-3,278250
23,617000	0,5	-3,354450
23,625333	0,5	-3,294600
23,633667	0,5	-3,203350
23,642000	0,5	-3,153200
23,650333	0,5	-3,120200
23,658667	0,5	-3,085750
23,667000	0,5	-3,054950
23,675333	0,5	-3,027100
23,683667	0,5	-3,007300
23,692000	0,5	-2,973000
23,700333	0,5	-2,946500
23,708667	0,5	-2,922850
23,717000	0,5	-2,894750
23,725333	0,5	-2,868150
23,733667	0,5	-2,840850
23,742000	0,5	-2,811550
23,750333	0,5	-2,782750
23,758667	0,5	-2,837750
23,767000	0,5	-2,902900
23,775333	0,5	-2,849750
23,783667	0,5	-2,765200
23,792000	0,5	-2,717600
23,800333	0,5	-2,691300
23,808667	0,5	-2,667800
23,817000	0,5	-2,661100
23,825333	0,5	-2,636600
23,833667	0,5	-2,615600
23,842000	0,5	-2,592150
23,850333	0,5	-2,568350
23,858667	0,5	-2,547800
23,867000	0,5	-2,533250
23,875333	0,5	-2,508950
23,883667	0,5	-2,477850
23,892000	0,5	-2,452600
23,900333	0,5	-2,429000
23,908667	0,5	-2,594400
23,917000	0,5	-2,552100
23,925333	0,5	-2,493500
23,933667	0,5	-2,406600
23,942000	0,5	-2,363600
23,950333	0,5	-2,327700
23,958667	0,5	-2,310050
23,967000	0,5	-2,308050
23,975333	0,5	-2,294500
23,983667	0,5	-2,260350
23,992000	0,5	-2,240400
24,000333	0,5	-2,213850
24,008667	0,5	-2,196800
24,017000	0,5	-2,175650
24,025333	0,5	-2,154450
24,033667	0,5	-2,129750
24,042000	0,5	-2,105700
24,050333	0,5	-2,117750
24,058667	0,5	-2,244050
24,067000	0,5	-2,208950
24,075333	0,5	-2,156050
24,083667	0,5	-2,085600
24,092000	0,5	-2,049200
24,100333	0,5	-2,017800
24,108667	0,5	-2,001750
24,117000	0,5	-1,998850
24,125333	0,5	-1,959700
24,133667	0,5	-1,943350
24,142000	0,5	-1,909900
24,150333	0,5	-1,883450
24,158667	0,5	-1,853550
24,167000	0,5	-1,833000
24,175333	0,5	-1,803800
24,183667	0,5	-1,779150
24,192000	0,5	-1,759850
24,200333	0,5	-1,850250
24,208667	0,5	-1,864500
24,217000	0,5	-1,835100
24,225333	0,5	-1,763400
24,233667	0,5	-1,715100
24,242000	0,5	-1,685300
24,250333	0,5	-1,665300
24,258667	0,5	-1,672250
24,267000	0,5	-1,645950
24,275333	0,5	-1,637100
24,283667	0,5	-1,608150
24,292000	0,5	-1,585500
24,300333	0,5	-1,563050
24,308667	0,5	-1,541400
24,317000	0,5	-1,518050
24,325333	0,5	-1,493350
24,333667	0,5	-1,463950
24,342000	0,5	-1,442550
24,350333	0,5	-1,538050
24,358667	0,5	-1,520350
24,367000	0,5	-1,473700
24,375333	0,5	-1,432850
24,383667	0,5	-1,384950
24,392000	0,5	-1,372400
24,400333	0,5	-1,354750
24,408667	0,5	-1,350550
24,417000	0,5	-1,325800
24,425333	0,5	-1,302250
24,433667	0,5	-1,284350
24,442000	0,5	-1,272550
24,450333	0,5	-1,250850
24,458667	0,5	-1,234100
24,467000	0,5	-1,216450
24,475333	0,5	-1,201800
24,483667	0,5	-1,191850
24,492000	0,5	-1,208050
24,500333	0,5	-1,264500
24,508667	0,5	-1,236400
24,517000	0,5	-1,208000
24,525333	0,5	-1,173100
24,533667	0,5	-1,143250
24,542000	0,5	-1,126500
24,550333	0,5	-1,117100
24,558667	0,5	-1,113000
24,567000	0,5	-1,089600
24,575333	0,5	-1,076550
24,583667	0,5	-1,065200
24,592000	0,5	-1,047450
24,600333	0,5	-1,031900
24,608667	0,5	-1,017000
24,617000	0,5	-0,997400
24,625333	0,5	-0,983850
24,633667	0,5	-0,965550
24,642000	0,5	-1,020400
24,650333	0,5	-1,001900
24,658667	0,5	-1,000250
24,667000	0,5	-0,958800
24,675333	0,5	-0,942400
24,683667	0,5	-0,930950
24,692000	0,5	-0,928050
24,700333	0,5	-0,929950
24,708667	0,5	-0,918000
24,717000	0,5	-0,903550
24,725333	0,5	-0,895500
24,733667	0,5	-0,885550
24,742000	0,5	-0,871650
24,750333	0,5	-0,861550
24,758667	0,5	-0,853800
24,767000	0,5	-0,841000
24,775333	0,5	-0,837700
24,783667	0,5	-0,835400
24,792000	0,5	-0,867800
24,800333	0,5	-0,843950
24,808667	0,5	-0,833200
24,817000	0,5	-0,805650
24,825333	0,5	-0,789500
24,833667	0,5	-0,776150
24,842000	0,5	-0,771450
24,850333	0,5	-0,775550
24,858667	0,5	-0,761750
24,867000	0,5	-0,757650
24,875333	0,5	-0,748900
24,883667	0,5	-0,746200
24,892000	0,5	-0,742000
24,900333	0,5	-0,740000
24,908667	0,5	-0,732000
24,917000	0,5	-0,722100
24,925333	0,5	-0,717350
24,933667	0,5	-0,726250
24,942000	0,5	-0,743300
24,950333	0,5	-0,731300
24,958667	0,5	-0,719950
24,967000	0,5	-0,705050
24,975333	0,5	-0,700050
24,983667	0,5	-0,694000
24,992000	0,5	-0,694000
25,000333	0,5	-0,685750
25,008667	0,5	-0,680350
25,017000	0,5	-0,667750
25,025333	0,5	-0,661850
25,033667	0,5	-0,652900
25,042000	0,5	-0,648850
25,050333	0,5	-0,644550
25,058667	0,5	-0,642500
25,067000	0,5	-0,632500
25,075333	0,5	-0,629900
25,083667	0,5	-0,649400
25,092000	0,5	-0,642600
25,100333	0,5	-0,639350
25,108667	0,5	-0,628950
25,117000	0,5	-0,623950
25,125333	0,5	-0,626150
25,133667	0,5	-0,626700
25,142000	0,5	-0,626600
25,150333	0,5	-0,623250
25,158667	0,5	-0,617450
25,167000	0,5	-0,612950
25,175333	0,5	-0,609900
25,183667	0,5	-0,605300
25,192000	0,5	-0,598550
25,200333	0,5	-0,590800
25,208667	0,5	-0,582850
25,217000	0,5	-0,576350
25,225333	0,5	-0,573100
25,233667	0,5	-0,574450
25,242000	0,5	-0,571650
25,250333	0,5	-0,568000
25,258667	0,5	-0,559450
25,267000	0,5	-0,561450
25,275333	0,5	-0,558300
25,283667	0,5	-0,561800
25,292000	0,5	-0,564650
25,300333	0,5	-0,564100
25,308667	0,5	-0,563650
25,317000	0,5	-0,562250
25,325333	0,5	-0,562800
25,333667	0,5	-0,561600
25,342000	0,5	-0,561050
25,350333	0,5	-0,555400
25,358667	0,5	-0,550650
25,367000	0,5	-0,548700
25,375333	0,5	-0,551500
25,383667	0,5	-0,543650
25,392000	0,5	-0,537750
25,400333	0,5	-0,533300
25,408667	0,5	-0,531300
25,417000	0,5	-0,528350
25,425333	0,5	-0,527100
25,433667	0,5	-0,526750
25,442000	0,5	-0,522550
25,450333	0,5	-0,521800
25,458667	0,5	-0,525300
25,467000	0,5	-0,521600
25,475333	0,5	-0,526800
25,483667	0,5	-0,525750
25,492000	0,5	-0,524050
25,500333	0,5	-0,528000
25,508667	0,5	-0,528700
25,517000	0,5	-0,528900
25,525333	0,5	-0,525000
25,533667	0,5	-0,519100
25,542000	0,5	-0,513850
25,550333	0,5	-0,518000
25,558667	0,5	-0,520100
25,567000	0,5	-0,520900
25,575333	0,5	-0,520250
25,583667	0,5	-0,510250
25,592000	0,5	-0,512100
25,600333	0,5	-0,516200
25,608667	0,5	-0,512600
25,617000	0,5	-0,511200
25,625333	0,5	-0,511250
25,633667	0,5	-0,507350
25,642000	0,5	-0,507900
25,650333	0,5	-0,511850
25,658667	0,5	-0,508250
25,667000	0,5	-0,509900
25,675333	0,5	-0,496450
25,683667	0,5	-0,497150
25,692000	0,5	-0,491000
25,700333	0,5	-0,504150
25,708667	0,5	-0,505200
25,717000	0,5	-0,507400
25,725333	0,5	-0,502900
25,733667	0,5	-0,491250
25,742000	0,5	-0,499850
25,750333	0,5	-0,502850
25,758667	0,5	-0,501100
25,767000	0,5	-0,499100
25,775333	0,5	-0,501650
25,783667	0,5	-0,496600
25,792000	0,5	-0,495550
25,800333	0,5	-0,495000
25,808667	0,5	-0,495450
25,817000	0,5	-0,486850
25,825333	0,5	-0,484000
25,833667	0,5	-0,480550
25,842000	0,5	-0,479700
25,850333	0,5	-0,484900
25,858667	0,5	-0,487550
25,867000	0,5	-0,490400
25,875333	0,5	-0,481050
25,883667	0,5	-0,467000
25,892000	0,5	-0,476050
25,900333	0,5	-0,477250
25,908667	0,5	-0,477550
25,917000	0,5	-0,476850
25,925333	0,5	-0,481050
25,933667	0,5	-0,479300
25,942000	0,5	-0,479750
25,950333	0,5	-0,477750
25,958667	0,5	-0,471150
25,967000	0,5	-0,462500
25,975333	0,5	-0,458650
25,983667	0,5	-0,446700
25,992000	0,5	-0,456850
26,000333	0,5	-0,459350
