File Path	chrom://chromeleon01/ikbm_chromeleon/2022/ICS-5000/ED1/Esteban/20220427_Cell_Amandas_mutants.seq/875.smp/ED_1.channel/ED_1.chm
Channel	ED_1

Injection Information:
Data Vault	ikbm_chromeleon
Injection	EG_BMCC_CelS2
Injection Number	14
Position	RA8
Comment	
Processing Method	Stop sequence after Cell Death
Instrument Method	ICS5000_PA200_FullNative_Ox_26min_ED1
Type	Unknown
Status	Finished
Injection Date	27.04.2022
Injection Time	19:05:09
Injection Volume (µl)	5,0
Dilution Factor	1,0000
Weight	1,0000

Chromatogram Data Information:
Time Min. (min)	0,000333
Time Max. (min)	26,000333
Data Points	3121
Detector	EDet1
Generating Data System	Chromeleon 7.2.9.11323
Exporting Data System	Chromeleon 7.2.9.0
Operator	Instrument Controller
Signal Quantity	
Signal Unit	nC
Signal Min.	-7,005550
Signal Max.	1 987,313630
Channel	ED_1
Driver Name	DC-5000
Channel Type	Evaluation
Min. Step (s)	0,5
Max. Step (s)	0,5
Average Step (s)	0,5

Signal Parameter Information:
Signal Info	

Chromatogram Data:
Time (min)	Step (s)	Value (nC)
0,000333	n.a.	-0,088650
0,008667	0,5	-0,105500
0,017000	0,5	-0,097500
0,025333	0,5	-0,084850
0,033667	0,5	-0,075300
0,042000	0,5	-0,056650
0,050333	0,5	-0,052550
0,058667	0,5	-0,044050
0,067000	0,5	-0,005200
0,075333	0,5	-0,040950
0,083667	0,5	-0,054750
0,092000	0,5	-0,036850
0,100333	0,5	-0,008250
0,108667	0,5	0,027150
0,117000	0,5	0,009350
0,125333	0,5	-0,010700
0,133667	0,5	-0,002900
0,142000	0,5	-0,001150
0,150333	0,5	0,012300
0,158667	0,5	0,005100
0,167000	0,5	-0,001600
0,175333	0,5	-0,016950
0,183667	0,5	-0,004700
0,192000	0,5	-0,002900
0,200333	0,5	-0,018650
0,208667	0,5	-0,016700
0,217000	0,5	0,010950
0,225333	0,5	-0,029750
0,233667	0,5	-0,030800
0,242000	0,5	-0,027300
0,250333	0,5	0,015600
0,258667	0,5	0,040350
0,267000	0,5	0,002700
0,275333	0,5	0,004900
0,283667	0,5	0,000650
0,292000	0,5	0,004650
0,300333	0,5	0,014100
0,308667	0,5	0,053100
0,317000	0,5	0,010600
0,325333	0,5	-0,014050
0,333667	0,5	-0,025250
0,342000	0,5	-0,015500
0,350333	0,5	-0,043400
0,358667	0,5	-0,014950
0,367000	0,5	-0,034150
0,375333	0,5	-0,047850
0,383667	0,5	-0,052100
0,392000	0,5	-0,033450
0,400333	0,5	-0,003650
0,408667	0,5	0,007950
0,417000	0,5	-0,011100
0,425333	0,5	-0,007300
0,433667	0,5	-0,009350
0,442000	0,5	-0,015000
0,450333	0,5	-0,006900
0,458667	0,5	-0,010000
0,467000	0,5	-0,017750
0,475333	0,5	-0,027850
0,483667	0,5	-0,018500
0,492000	0,5	-0,050650
0,500333	0,5	-0,057850
0,508667	0,5	-0,033650
0,517000	0,5	-0,048050
0,525333	0,5	-0,056900
0,533667	0,5	-0,058400
0,542000	0,5	-0,033150
0,550333	0,5	0,020750
0,558667	0,5	0,005700
0,567000	0,5	-0,003500
0,575333	0,5	-0,017600
0,583667	0,5	-0,008000
0,592000	0,5	-0,029200
0,600333	0,5	-0,023150
0,608667	0,5	-0,034300
0,617000	0,5	-0,045850
0,625333	0,5	-0,036300
0,633667	0,5	-0,044000
0,642000	0,5	-0,045900
0,650333	0,5	-0,046400
0,658667	0,5	-0,034400
0,667000	0,5	-0,064900
0,675333	0,5	-0,066250
0,683667	0,5	-0,072850
0,692000	0,5	-0,036400
0,700333	0,5	-0,019850
0,708667	0,5	-0,002800
0,717000	0,5	-0,027400
0,725333	0,5	-0,020050
0,733667	0,5	-0,039900
0,742000	0,5	-0,033500
0,750333	0,5	-0,040150
0,758667	0,5	-0,042200
0,767000	0,5	-0,051200
0,775333	0,5	-0,055300
0,783667	0,5	-0,055550
0,792000	0,5	-0,066200
0,800333	0,5	-0,047600
0,808667	0,5	-0,047850
0,817000	0,5	-0,074950
0,825333	0,5	-0,074550
0,833667	0,5	-0,073000
0,842000	0,5	-0,031900
0,850333	0,5	-0,012200
0,858667	0,5	-0,041750
0,867000	0,5	-0,032900
0,875333	0,5	-0,049050
0,883667	0,5	-0,042800
0,892000	0,5	-0,060100
0,900333	0,5	-0,050000
0,908667	0,5	-0,061450
0,917000	0,5	-0,064450
0,925333	0,5	-0,065100
0,933667	0,5	-0,080750
0,942000	0,5	-0,086800
0,950333	0,5	-0,032850
0,958667	0,5	-0,076150
0,967000	0,5	-0,089500
0,975333	0,5	-0,088550
0,983667	0,5	-0,081650
0,992000	0,5	-0,038800
1,000333	0,5	-0,043350
1,008667	0,5	-0,045300
1,017000	0,5	-0,062750
1,025333	0,5	-0,057100
1,033667	0,5	-0,077000
1,042000	0,5	-0,058450
1,050333	0,5	-0,063450
1,058667	0,5	-0,069250
1,067000	0,5	-0,081450
1,075333	0,5	-0,071450
1,083667	0,5	-0,085850
1,092000	0,5	-0,074250
1,100333	0,5	-0,060500
1,108667	0,5	-0,084900
1,117000	0,5	-0,095350
1,125333	0,5	-0,095150
1,133667	0,5	-0,076200
1,142000	0,5	-0,025100
1,150333	0,5	-0,052300
1,158667	0,5	-0,076400
1,167000	0,5	-0,072050
1,175333	0,5	-0,073450
1,183667	0,5	-0,072550
1,192000	0,5	-0,069600
1,200333	0,5	-0,070200
1,208667	0,5	-0,084250
1,217000	0,5	-0,079100
1,225333	0,5	-0,071350
1,233667	0,5	-0,073150
1,242000	0,5	-0,050650
1,250333	0,5	-0,043800
1,258667	0,5	-0,086150
1,267000	0,5	-0,094650
1,275333	0,5	-0,091650
1,283667	0,5	-0,055550
1,292000	0,5	-0,033100
1,300333	0,5	-0,059700
1,308667	0,5	-0,070800
1,317000	0,5	-0,065600
1,325333	0,5	-0,067900
1,333667	0,5	-0,072150
1,342000	0,5	-0,061400
1,350333	0,5	-0,083450
1,358667	0,5	-0,077500
1,367000	0,5	-0,085450
1,375333	0,5	-0,060950
1,383667	0,5	-0,090950
1,392000	0,5	-0,056550
1,400333	0,5	-0,080050
1,408667	0,5	-0,090050
1,417000	0,5	-0,098150
1,425333	0,5	-0,081850
1,433667	0,5	-0,044450
1,442000	0,5	-0,026050
1,450333	0,5	-0,059850
1,458667	0,5	-0,051300
1,467000	0,5	-0,061800
1,475333	0,5	-0,059300
1,483667	0,5	-0,060750
1,492000	0,5	-0,062000
1,500333	0,5	-0,066800
1,508667	0,5	-0,075300
1,517000	0,5	-0,066050
1,525333	0,5	-0,074400
1,533667	0,5	-0,076550
1,542000	0,5	-0,048150
1,550333	0,5	-0,075100
1,558667	0,5	-0,087950
1,567000	0,5	-0,121450
1,575333	0,5	-0,280350
1,583667	0,5	-0,817700
1,592000	0,5	-1,822750
1,600333	0,5	-2,447150
1,608667	0,5	-1,592150
1,617000	0,5	0,953200
1,625333	0,5	5,153850
1,633667	0,5	13,241250
1,642000	0,5	26,063200
1,650333	0,5	37,900851
1,658667	0,5	41,231901
1,667000	0,5	36,503751
1,675333	0,5	29,551050
1,683667	0,5	23,797250
1,692000	0,5	19,531100
1,700333	0,5	16,267600
1,708667	0,5	13,720000
1,717000	0,5	11,722800
1,725333	0,5	10,337300
1,733667	0,5	9,554700
1,742000	0,5	9,076900
1,750333	0,5	8,357600
1,758667	0,5	7,307450
1,767000	0,5	6,191550
1,775333	0,5	5,322000
1,783667	0,5	4,778750
1,792000	0,5	4,623600
1,800333	0,5	4,775250
1,808667	0,5	5,031000
1,817000	0,5	5,110700
1,825333	0,5	4,922850
1,833667	0,5	4,659900
1,842000	0,5	4,318200
1,850333	0,5	3,959900
1,858667	0,5	3,651600
1,867000	0,5	3,374700
1,875333	0,5	3,177950
1,883667	0,5	3,011250
1,892000	0,5	2,836000
1,900333	0,5	2,676250
1,908667	0,5	2,508200
1,917000	0,5	2,350150
1,925333	0,5	2,206850
1,933667	0,5	2,123300
1,942000	0,5	2,028550
1,950333	0,5	1,983750
1,958667	0,5	1,938250
1,967000	0,5	1,928550
1,975333	0,5	1,916900
1,983667	0,5	1,995800
1,992000	0,5	2,232000
2,000333	0,5	3,344700
2,008667	0,5	6,881350
2,017000	0,5	15,567800
2,025333	0,5	34,013351
2,033667	0,5	74,009951
2,042000	0,5	161,738352
2,050333	0,5	310,830305
2,058667	0,5	456,218507
2,067000	0,5	497,928107
2,075333	0,5	429,610006
2,083667	0,5	324,139555
2,092000	0,5	237,651204
2,100333	0,5	179,762653
2,108667	0,5	141,417302
2,117000	0,5	114,469052
2,125333	0,5	94,661101
2,133667	0,5	79,657051
2,142000	0,5	68,057051
2,150333	0,5	59,015751
2,158667	0,5	51,926551
2,167000	0,5	46,404851
2,175333	0,5	42,331901
2,183667	0,5	39,175101
2,192000	0,5	36,243001
2,200333	0,5	33,182200
2,208667	0,5	30,373850
2,217000	0,5	28,178400
2,225333	0,5	26,445450
2,233667	0,5	24,819050
2,242000	0,5	23,198100
2,250333	0,5	21,750850
2,258667	0,5	20,551500
2,267000	0,5	19,570550
2,275333	0,5	18,793500
2,283667	0,5	18,135550
2,292000	0,5	17,565450
2,300333	0,5	17,105700
2,308667	0,5	16,727500
2,317000	0,5	16,440000
2,325333	0,5	16,171350
2,333667	0,5	15,931850
2,342000	0,5	15,708050
2,350333	0,5	15,541150
2,358667	0,5	15,385950
2,367000	0,5	15,262050
2,375333	0,5	15,146250
2,383667	0,5	15,038650
2,392000	0,5	14,964050
2,400333	0,5	14,903200
2,408667	0,5	14,864900
2,417000	0,5	14,811050
2,425333	0,5	14,832450
2,433667	0,5	14,811400
2,442000	0,5	14,836500
2,450333	0,5	14,879900
2,458667	0,5	15,009750
2,467000	0,5	15,200350
2,475333	0,5	15,451450
2,483667	0,5	15,729550
2,492000	0,5	16,010100
2,500333	0,5	16,115250
2,508667	0,5	16,058650
2,517000	0,5	15,917700
2,525333	0,5	15,818900
2,533667	0,5	15,739550
2,542000	0,5	15,665750
2,550333	0,5	15,586700
2,558667	0,5	15,472550
2,567000	0,5	15,369100
2,575333	0,5	15,271150
2,583667	0,5	15,130950
2,592000	0,5	15,010400
2,600333	0,5	14,908000
2,608667	0,5	14,847450
2,617000	0,5	14,815550
2,625333	0,5	14,803350
2,633667	0,5	14,866900
2,642000	0,5	15,039600
2,650333	0,5	15,325700
2,658667	0,5	15,612200
2,667000	0,5	15,810450
2,675333	0,5	15,810400
2,683667	0,5	15,656400
2,692000	0,5	15,412150
2,700333	0,5	15,222800
2,708667	0,5	15,560800
2,717000	0,5	18,678500
2,725333	0,5	30,279850
2,733667	0,5	54,069251
2,742000	0,5	87,298551
2,750333	0,5	129,118752
2,758667	0,5	186,452453
2,767000	0,5	290,925554
2,775333	0,5	540,739208
2,783667	0,5	986,695815
2,792000	0,5	1 432,975771
2,800333	0,5	1 762,983276
2,808667	0,5	1 942,830679
2,817000	0,5	1 987,313630
2,825333	0,5	1 944,147529
2,833667	0,5	1 851,647228
2,842000	0,5	1 729,040426
2,850333	0,5	1 587,110774
2,858667	0,5	1 435,599071
2,867000	0,5	1 284,549919
2,875333	0,5	1 142,362517
2,883667	0,5	1 011,018115
2,892000	0,5	891,790563
2,900333	0,5	788,304062
2,908667	0,5	699,751410
2,917000	0,5	622,054009
2,925333	0,5	552,023308
2,933667	0,5	489,616157
2,942000	0,5	431,814856
2,950333	0,5	379,849156
2,958667	0,5	333,154705
2,967000	0,5	291,431404
2,975333	0,5	254,545154
2,983667	0,5	222,593703
2,992000	0,5	195,234203
3,000333	0,5	172,015503
3,008667	0,5	152,340352
3,017000	0,5	135,739352
3,025333	0,5	121,539502
3,033667	0,5	109,429852
3,042000	0,5	99,051901
3,050333	0,5	90,112901
3,058667	0,5	82,338601
3,067000	0,5	75,399701
3,075333	0,5	69,200101
3,083667	0,5	63,687101
3,092000	0,5	58,697501
3,100333	0,5	54,211751
3,108667	0,5	50,152001
3,117000	0,5	46,466601
3,125333	0,5	43,141601
3,133667	0,5	40,119501
3,142000	0,5	37,378251
3,150333	0,5	34,822401
3,158667	0,5	32,509300
3,167000	0,5	30,356500
3,175333	0,5	28,334300
3,183667	0,5	26,452150
3,192000	0,5	24,738450
3,200333	0,5	23,164100
3,208667	0,5	21,724000
3,217000	0,5	20,348550
3,225333	0,5	19,135450
3,233667	0,5	18,017250
3,242000	0,5	17,037900
3,250333	0,5	16,155750
3,258667	0,5	15,402000
3,267000	0,5	14,749700
3,275333	0,5	14,227050
3,283667	0,5	13,893050
3,292000	0,5	13,830400
3,300333	0,5	14,199150
3,308667	0,5	15,207700
3,317000	0,5	16,855200
3,325333	0,5	19,008400
3,333667	0,5	21,174950
3,342000	0,5	22,763800
3,350333	0,5	23,340100
3,358667	0,5	22,709350
3,367000	0,5	21,086050
3,375333	0,5	18,858150
3,383667	0,5	16,471200
3,392000	0,5	14,208850
3,400333	0,5	12,266200
3,408667	0,5	10,676750
3,417000	0,5	9,406800
3,425333	0,5	8,406900
3,433667	0,5	7,585850
3,442000	0,5	6,916950
3,450333	0,5	6,334600
3,458667	0,5	5,849400
3,467000	0,5	5,407850
3,475333	0,5	5,042300
3,483667	0,5	4,743950
3,492000	0,5	4,520450
3,500333	0,5	4,340700
3,508667	0,5	4,174750
3,517000	0,5	3,996450
3,525333	0,5	3,870900
3,533667	0,5	3,731000
3,542000	0,5	3,613950
3,550333	0,5	3,493200
3,558667	0,5	3,388300
3,567000	0,5	3,278800
3,575333	0,5	3,177800
3,583667	0,5	3,085900
3,592000	0,5	2,983650
3,600333	0,5	2,891250
3,608667	0,5	2,813400
3,617000	0,5	2,697900
3,625333	0,5	2,621150
3,633667	0,5	2,534350
3,642000	0,5	2,472550
3,650333	0,5	2,400350
3,658667	0,5	2,294700
3,667000	0,5	2,192900
3,675333	0,5	2,092450
3,683667	0,5	1,993550
3,692000	0,5	1,886550
3,700333	0,5	1,789900
3,708667	0,5	1,677100
3,717000	0,5	1,586000
3,725333	0,5	1,502350
3,733667	0,5	1,406150
3,742000	0,5	1,297500
3,750333	0,5	1,250650
3,758667	0,5	1,158300
3,767000	0,5	1,082350
3,775333	0,5	1,029400
3,783667	0,5	0,994150
3,792000	0,5	1,002950
3,800333	0,5	1,006850
3,808667	0,5	1,029600
3,817000	0,5	1,075450
3,825333	0,5	1,164750
3,833667	0,5	1,268700
3,842000	0,5	1,408700
3,850333	0,5	1,592650
3,858667	0,5	1,844900
3,867000	0,5	2,165600
3,875333	0,5	2,631650
3,883667	0,5	3,269600
3,892000	0,5	4,248050
3,900333	0,5	5,669150
3,908667	0,5	7,604800
3,917000	0,5	10,077100
3,925333	0,5	12,968350
3,933667	0,5	15,976100
3,942000	0,5	18,834600
3,950333	0,5	21,194100
3,958667	0,5	22,945900
3,967000	0,5	23,971250
3,975333	0,5	24,182300
3,983667	0,5	23,479950
3,992000	0,5	21,817350
4,000333	0,5	19,311500
4,008667	0,5	16,324400
4,017000	0,5	13,308350
4,025333	0,5	10,593650
4,033667	0,5	8,339150
4,042000	0,5	6,550050
4,050333	0,5	5,205600
4,058667	0,5	4,143050
4,067000	0,5	3,348250
4,075333	0,5	2,745050
4,083667	0,5	2,291350
4,092000	0,5	1,933750
4,100333	0,5	1,618600
4,108667	0,5	1,359950
4,117000	0,5	1,159700
4,125333	0,5	0,985150
4,133667	0,5	0,836750
4,142000	0,5	0,706000
4,150333	0,5	0,592900
4,158667	0,5	0,480450
4,167000	0,5	0,388100
4,175333	0,5	0,306250
4,183667	0,5	0,206950
4,192000	0,5	0,144900
4,200333	0,5	0,073650
4,208667	0,5	-0,008850
4,217000	0,5	-0,072150
4,225333	0,5	-0,096000
4,233667	0,5	-0,122700
4,242000	0,5	-0,151950
4,250333	0,5	-0,211900
4,258667	0,5	-0,241450
4,267000	0,5	-0,278850
4,275333	0,5	-0,313600
4,283667	0,5	-0,354900
4,292000	0,5	-0,378900
4,300333	0,5	-0,413050
4,308667	0,5	-0,444750
4,317000	0,5	-0,472800
4,325333	0,5	-0,500600
4,333667	0,5	-0,534550
4,342000	0,5	-0,539800
4,350333	0,5	-0,579800
4,358667	0,5	-0,604450
4,367000	0,5	-0,624500
4,375333	0,5	-0,638750
4,383667	0,5	-0,626450
4,392000	0,5	-0,648650
4,400333	0,5	-0,662250
4,408667	0,5	-0,685950
4,417000	0,5	-0,682850
4,425333	0,5	-0,691400
4,433667	0,5	-0,679300
4,442000	0,5	-0,684150
4,450333	0,5	-0,669650
4,458667	0,5	-0,644150
4,467000	0,5	-0,597050
4,475333	0,5	-0,528300
4,483667	0,5	-0,414900
4,492000	0,5	-0,240900
4,500333	0,5	-0,038400
4,508667	0,5	0,250200
4,517000	0,5	0,623150
4,525333	0,5	1,114600
4,533667	0,5	1,711150
4,542000	0,5	2,357600
4,550333	0,5	3,069350
4,558667	0,5	3,882600
4,567000	0,5	4,795100
4,575333	0,5	5,851550
4,583667	0,5	7,090950
4,592000	0,5	8,633350
4,600333	0,5	10,599950
4,608667	0,5	13,265750
4,617000	0,5	16,914800
4,625333	0,5	21,977100
4,633667	0,5	28,854400
4,642000	0,5	37,853051
4,650333	0,5	48,972851
4,658667	0,5	61,851401
4,667000	0,5	75,477551
4,675333	0,5	88,580851
4,683667	0,5	99,718701
4,692000	0,5	107,735502
4,700333	0,5	112,091652
4,708667	0,5	112,776502
4,717000	0,5	110,172002
4,725333	0,5	104,952852
4,733667	0,5	97,854001
4,742000	0,5	89,543851
4,750333	0,5	80,644251
4,758667	0,5	71,657901
4,767000	0,5	62,943401
4,775333	0,5	54,742601
4,783667	0,5	47,310251
4,792000	0,5	40,601001
4,800333	0,5	34,715301
4,808667	0,5	29,630300
4,817000	0,5	25,308750
4,825333	0,5	21,664050
4,833667	0,5	18,579250
4,842000	0,5	15,971450
4,850333	0,5	13,797500
4,858667	0,5	11,988700
4,867000	0,5	10,478850
4,875333	0,5	9,222250
4,883667	0,5	8,168600
4,892000	0,5	7,281050
4,900333	0,5	6,523200
4,908667	0,5	5,884700
4,917000	0,5	5,289850
4,925333	0,5	4,786850
4,933667	0,5	4,352550
4,942000	0,5	3,911950
4,950333	0,5	3,510750
4,958667	0,5	3,161000
4,967000	0,5	2,841150
4,975333	0,5	2,573850
4,983667	0,5	2,279450
4,992000	0,5	2,019900
5,000333	0,5	1,782500
5,008667	0,5	1,579650
5,017000	0,5	1,386450
5,025333	0,5	1,216900
5,033667	0,5	1,059550
5,042000	0,5	0,900950
5,050333	0,5	0,768450
5,058667	0,5	0,633800
5,067000	0,5	0,504500
5,075333	0,5	0,396450
5,083667	0,5	0,304300
5,092000	0,5	0,189250
5,100333	0,5	0,099200
5,108667	0,5	0,022850
5,117000	0,5	-0,022600
5,125333	0,5	-0,077250
5,133667	0,5	-0,135100
5,142000	0,5	-0,193750
5,150333	0,5	-0,231750
5,158667	0,5	-0,277900
5,167000	0,5	-0,303400
5,175333	0,5	-0,337500
5,183667	0,5	-0,358650
5,192000	0,5	-0,382600
5,200333	0,5	-0,389100
5,208667	0,5	-0,390650
5,217000	0,5	-0,405900
5,225333	0,5	-0,395550
5,233667	0,5	-0,398300
5,242000	0,5	-0,404600
5,250333	0,5	-0,404950
5,258667	0,5	-0,385300
5,267000	0,5	-0,362500
5,275333	0,5	-0,340200
5,283667	0,5	-0,354200
5,292000	0,5	-0,338350
5,300333	0,5	-0,332050
5,308667	0,5	-0,324250
5,317000	0,5	-0,318050
5,325333	0,5	-0,304100
5,333667	0,5	-0,293850
5,342000	0,5	-0,273850
5,350333	0,5	-0,248450
5,358667	0,5	-0,234600
5,367000	0,5	-0,221800
5,375333	0,5	-0,177350
5,383667	0,5	-0,173650
5,392000	0,5	-0,151400
5,400333	0,5	-0,141200
5,408667	0,5	-0,121500
5,417000	0,5	-0,100650
5,425333	0,5	-0,116250
5,433667	0,5	-0,130450
5,442000	0,5	-0,160450
5,450333	0,5	-0,188750
5,458667	0,5	-0,231950
5,467000	0,5	-0,259300
5,475333	0,5	-0,299700
5,483667	0,5	-0,333050
5,492000	0,5	-0,368850
5,500333	0,5	-0,389950
5,508667	0,5	-0,426150
5,517000	0,5	-0,437400
5,525333	0,5	-0,446750
5,533667	0,5	-0,468300
5,542000	0,5	-0,478350
5,550333	0,5	-0,478450
5,558667	0,5	-0,463650
5,567000	0,5	-0,439950
5,575333	0,5	-0,439950
5,583667	0,5	-0,438400
5,592000	0,5	-0,436500
5,600333	0,5	-0,446550
5,608667	0,5	-0,446550
5,617000	0,5	-0,449200
5,625333	0,5	-0,447950
5,633667	0,5	-0,452050
5,642000	0,5	-0,446150
5,650333	0,5	-0,455350
5,658667	0,5	-0,456100
5,667000	0,5	-0,450750
5,675333	0,5	-0,441950
5,683667	0,5	-0,461650
5,692000	0,5	-0,456750
5,700333	0,5	-0,453450
5,708667	0,5	-0,429750
5,717000	0,5	-0,416700
5,725333	0,5	-0,423500
5,733667	0,5	-0,430700
5,742000	0,5	-0,423300
5,750333	0,5	-0,426650
5,758667	0,5	-0,425000
5,767000	0,5	-0,427550
5,775333	0,5	-0,427650
5,783667	0,5	-0,425300
5,792000	0,5	-0,422150
5,800333	0,5	-0,409350
5,808667	0,5	-0,415800
5,817000	0,5	-0,379450
5,825333	0,5	-0,392950
5,833667	0,5	-0,391950
5,842000	0,5	-0,383800
5,850333	0,5	-0,360650
5,858667	0,5	-0,324400
5,867000	0,5	-0,297100
5,875333	0,5	-0,291150
5,883667	0,5	-0,260550
5,892000	0,5	-0,244300
5,900333	0,5	-0,214450
5,908667	0,5	-0,188800
5,917000	0,5	-0,153500
5,925333	0,5	-0,129700
5,933667	0,5	-0,098950
5,942000	0,5	-0,047900
5,950333	0,5	-0,031200
5,958667	0,5	0,000950
5,967000	0,5	0,054800
5,975333	0,5	0,070550
5,983667	0,5	0,084900
5,992000	0,5	0,115550
6,000333	0,5	0,142850
6,008667	0,5	0,188850
6,017000	0,5	0,174250
6,025333	0,5	0,179750
6,033667	0,5	0,177400
6,042000	0,5	0,190950
6,050333	0,5	0,175500
6,058667	0,5	0,180450
6,067000	0,5	0,170000
6,075333	0,5	0,164950
6,083667	0,5	0,146950
6,092000	0,5	0,128750
6,100333	0,5	0,104050
6,108667	0,5	0,106050
6,117000	0,5	0,088350
6,125333	0,5	0,052750
6,133667	0,5	0,038100
6,142000	0,5	0,035200
6,150333	0,5	0,047600
6,158667	0,5	0,052850
6,167000	0,5	0,040300
6,175333	0,5	0,018650
6,183667	0,5	0,022350
6,192000	0,5	0,010850
6,200333	0,5	0,005950
6,208667	0,5	-0,003500
6,217000	0,5	-0,011200
6,225333	0,5	-0,023600
6,233667	0,5	-0,023950
6,242000	0,5	-0,008400
6,250333	0,5	-0,013500
6,258667	0,5	-0,002950
6,267000	0,5	-0,014800
6,275333	0,5	-0,036350
6,283667	0,5	-0,034500
6,292000	0,5	-0,026150
6,300333	0,5	0,002800
6,308667	0,5	0,015200
6,317000	0,5	-0,001850
6,325333	0,5	0,004700
6,333667	0,5	0,003750
6,342000	0,5	0,009700
6,350333	0,5	0,019350
6,358667	0,5	0,020650
6,367000	0,5	0,022450
6,375333	0,5	0,032550
6,383667	0,5	0,033900
6,392000	0,5	0,045100
6,400333	0,5	0,040250
6,408667	0,5	0,064600
6,417000	0,5	0,055000
6,425333	0,5	0,057500
6,433667	0,5	0,062800
6,442000	0,5	0,090250
6,450333	0,5	0,123850
6,458667	0,5	0,129350
6,467000	0,5	0,131550
6,475333	0,5	0,135050
6,483667	0,5	0,146650
6,492000	0,5	0,149250
6,500333	0,5	0,158900
6,508667	0,5	0,162750
6,517000	0,5	0,167350
6,525333	0,5	0,175200
6,533667	0,5	0,185400
6,542000	0,5	0,185250
6,550333	0,5	0,214600
6,558667	0,5	0,227650
6,567000	0,5	0,218600
6,575333	0,5	0,227800
6,583667	0,5	0,239050
6,592000	0,5	0,276550
6,600333	0,5	0,301700
6,608667	0,5	0,307650
6,617000	0,5	0,318950
6,625333	0,5	0,320300
6,633667	0,5	0,329250
6,642000	0,5	0,335800
6,650333	0,5	0,345350
6,658667	0,5	0,350850
6,667000	0,5	0,352750
6,675333	0,5	0,368500
6,683667	0,5	0,371400
6,692000	0,5	0,381750
6,700333	0,5	0,402150
6,708667	0,5	0,403500
6,717000	0,5	0,405350
6,725333	0,5	0,418150
6,733667	0,5	0,424850
6,742000	0,5	0,461750
6,750333	0,5	0,474000
6,758667	0,5	0,480200
6,767000	0,5	0,474600
6,775333	0,5	0,486250
6,783667	0,5	0,488350
6,792000	0,5	0,503950
6,800333	0,5	0,505000
6,808667	0,5	0,515700
6,817000	0,5	0,518000
6,825333	0,5	0,536400
6,833667	0,5	0,553550
6,842000	0,5	0,558400
6,850333	0,5	0,600600
6,858667	0,5	0,596200
6,867000	0,5	0,607150
6,875333	0,5	0,629450
6,883667	0,5	0,662900
6,892000	0,5	0,704350
6,900333	0,5	0,718900
6,908667	0,5	0,732400
6,917000	0,5	0,765850
6,925333	0,5	0,778250
6,933667	0,5	0,797600
6,942000	0,5	0,805850
6,950333	0,5	0,823600
6,958667	0,5	0,832900
6,967000	0,5	0,840550
6,975333	0,5	0,857900
6,983667	0,5	0,850800
6,992000	0,5	0,859200
7,000333	0,5	0,890950
7,008667	0,5	0,887100
7,017000	0,5	0,901050
7,025333	0,5	0,926450
7,033667	0,5	0,970500
7,042000	0,5	1,020950
7,050333	0,5	1,050150
7,058667	0,5	1,097250
7,067000	0,5	1,141000
7,075333	0,5	1,189900
7,083667	0,5	1,232700
7,092000	0,5	1,275400
7,100333	0,5	1,288350
7,108667	0,5	1,306100
7,117000	0,5	1,306900
7,125333	0,5	1,297600
7,133667	0,5	1,263900
7,142000	0,5	1,254200
7,150333	0,5	1,232250
7,158667	0,5	1,209500
7,167000	0,5	1,188950
7,175333	0,5	1,184550
7,183667	0,5	1,194900
7,192000	0,5	1,196950
7,200333	0,5	1,194350
7,208667	0,5	1,200150
7,217000	0,5	1,213600
7,225333	0,5	1,221650
7,233667	0,5	1,243350
7,242000	0,5	1,256550
7,250333	0,5	1,274650
7,258667	0,5	1,295750
7,267000	0,5	1,320250
7,275333	0,5	1,331900
7,283667	0,5	1,335600
7,292000	0,5	1,348950
7,300333	0,5	1,340200
7,308667	0,5	1,324750
7,317000	0,5	1,310750
7,325333	0,5	1,309250
7,333667	0,5	1,322250
7,342000	0,5	1,314200
7,350333	0,5	1,295100
7,358667	0,5	1,292750
7,367000	0,5	1,282750
7,375333	0,5	1,274950
7,383667	0,5	1,268250
7,392000	0,5	1,271550
7,400333	0,5	1,268650
7,408667	0,5	1,276350
7,417000	0,5	1,274900
7,425333	0,5	1,278750
7,433667	0,5	1,282200
7,442000	0,5	1,297450
7,450333	0,5	1,285700
7,458667	0,5	1,297150
7,467000	0,5	1,302300
7,475333	0,5	1,326200
7,483667	0,5	1,347250
7,492000	0,5	1,365450
7,500333	0,5	1,374850
7,508667	0,5	1,389900
7,517000	0,5	1,411250
7,525333	0,5	1,436900
7,533667	0,5	1,470500
7,542000	0,5	1,510750
7,550333	0,5	1,552550
7,558667	0,5	1,594500
7,567000	0,5	1,618900
7,575333	0,5	1,615150
7,583667	0,5	1,622300
7,592000	0,5	1,600350
7,600333	0,5	1,568800
7,608667	0,5	1,541150
7,617000	0,5	1,533450
7,625333	0,5	1,545300
7,633667	0,5	1,568400
7,642000	0,5	1,585650
7,650333	0,5	1,637050
7,658667	0,5	1,704600
7,667000	0,5	1,817550
7,675333	0,5	1,961650
7,683667	0,5	2,133950
7,692000	0,5	2,293750
7,700333	0,5	2,417150
7,708667	0,5	2,474600
7,717000	0,5	2,440350
7,725333	0,5	2,336300
7,733667	0,5	2,210250
7,742000	0,5	2,045000
7,750333	0,5	1,890150
7,758667	0,5	1,782050
7,767000	0,5	1,701050
7,775333	0,5	1,673200
7,783667	0,5	1,635700
7,792000	0,5	1,624200
7,800333	0,5	1,620050
7,808667	0,5	1,639800
7,817000	0,5	1,665050
7,825333	0,5	1,711850
7,833667	0,5	1,779500
7,842000	0,5	1,878100
7,850333	0,5	2,018450
7,858667	0,5	2,183700
7,867000	0,5	2,357250
7,875333	0,5	2,501150
7,883667	0,5	2,609400
7,892000	0,5	2,648850
7,900333	0,5	2,672500
7,908667	0,5	2,716600
7,917000	0,5	2,796100
7,925333	0,5	2,920450
7,933667	0,5	3,050100
7,942000	0,5	3,174650
7,950333	0,5	3,273300
7,958667	0,5	3,310550
7,967000	0,5	3,310100
7,975333	0,5	3,249000
7,983667	0,5	3,162800
7,992000	0,5	3,042650
8,000333	0,5	2,939800
8,008667	0,5	2,850100
8,017000	0,5	2,786650
8,025333	0,5	2,775900
8,033667	0,5	2,815750
8,042000	0,5	2,862100
8,050333	0,5	2,899450
8,058667	0,5	2,876000
8,067000	0,5	2,785650
8,075333	0,5	2,642950
8,083667	0,5	2,472100
8,092000	0,5	2,349600
8,100333	0,5	2,264250
8,108667	0,5	2,230500
8,117000	0,5	2,235800
8,125333	0,5	2,285950
8,133667	0,5	2,381700
8,142000	0,5	2,546950
8,150333	0,5	2,781850
8,158667	0,5	3,089400
8,167000	0,5	3,415950
8,175333	0,5	3,780500
8,183667	0,5	4,154600
8,192000	0,5	4,668600
8,200333	0,5	5,471500
8,208667	0,5	6,704600
8,217000	0,5	8,390150
8,225333	0,5	10,458700
8,233667	0,5	12,831150
8,242000	0,5	15,471700
8,250333	0,5	18,410800
8,258667	0,5	21,778650
8,267000	0,5	26,002200
8,275333	0,5	32,057750
8,283667	0,5	41,892501
8,292000	0,5	58,664451
8,300333	0,5	86,264451
8,308667	0,5	126,685702
8,317000	0,5	176,695753
8,325333	0,5	227,526453
8,333667	0,5	269,183754
8,342000	0,5	294,258154
8,350333	0,5	298,280854
8,358667	0,5	281,115404
8,367000	0,5	248,659654
8,375333	0,5	209,802053
8,383667	0,5	171,589403
8,392000	0,5	137,973652
8,400333	0,5	110,124702
8,408667	0,5	87,562601
8,417000	0,5	69,258851
8,425333	0,5	54,616751
8,433667	0,5	43,064301
8,442000	0,5	34,082151
8,450333	0,5	27,263650
8,458667	0,5	22,218350
8,467000	0,5	18,532750
8,475333	0,5	15,865250
8,483667	0,5	13,865150
8,492000	0,5	12,358600
8,500333	0,5	11,163650
8,508667	0,5	10,207150
8,517000	0,5	9,404350
8,525333	0,5	8,725400
8,533667	0,5	8,134550
8,542000	0,5	7,625900
8,550333	0,5	7,190950
8,558667	0,5	6,816100
8,567000	0,5	6,490350
8,575333	0,5	6,217750
8,583667	0,5	5,991450
8,592000	0,5	5,808200
8,600333	0,5	5,646500
8,608667	0,5	5,465800
8,617000	0,5	5,286700
8,625333	0,5	5,083700
8,633667	0,5	4,873100
8,642000	0,5	4,667250
8,650333	0,5	4,478600
8,658667	0,5	4,319300
8,667000	0,5	4,170800
8,675333	0,5	4,026250
8,683667	0,5	3,903000
8,692000	0,5	3,793300
8,700333	0,5	3,695850
8,708667	0,5	3,593450
8,717000	0,5	3,503000
8,725333	0,5	3,419100
8,733667	0,5	3,347500
8,742000	0,5	3,294350
8,750333	0,5	3,240100
8,758667	0,5	3,192200
8,767000	0,5	3,170950
8,775333	0,5	3,123300
8,783667	0,5	3,057050
8,792000	0,5	2,996550
8,800333	0,5	2,931200
8,808667	0,5	2,877350
8,817000	0,5	2,812950
8,825333	0,5	2,755100
8,833667	0,5	2,704450
8,842000	0,5	2,661150
8,850333	0,5	2,619050
8,858667	0,5	2,593550
8,867000	0,5	2,580800
8,875333	0,5	2,582050
8,883667	0,5	2,592450
8,892000	0,5	2,620350
8,900333	0,5	2,663450
8,908667	0,5	2,774050
8,917000	0,5	2,978500
8,925333	0,5	3,354900
8,933667	0,5	3,957450
8,942000	0,5	4,757450
8,950333	0,5	5,563050
8,958667	0,5	6,092450
8,967000	0,5	6,134600
8,975333	0,5	5,715050
8,983667	0,5	5,056850
8,992000	0,5	4,367450
9,000333	0,5	3,815950
9,008667	0,5	3,419500
9,017000	0,5	3,145250
9,025333	0,5	2,930950
9,033667	0,5	2,762900
9,042000	0,5	2,618900
9,050333	0,5	2,494600
9,058667	0,5	2,396950
9,067000	0,5	2,315750
9,075333	0,5	2,238900
9,083667	0,5	2,169600
9,092000	0,5	2,116350
9,100333	0,5	2,067000
9,108667	0,5	2,029500
9,117000	0,5	1,990100
9,125333	0,5	1,964350
9,133667	0,5	1,944600
9,142000	0,5	1,931100
9,150333	0,5	1,926550
9,158667	0,5	1,926700
9,167000	0,5	1,928500
9,175333	0,5	1,929200
9,183667	0,5	1,929850
9,192000	0,5	1,929100
9,200333	0,5	1,908900
9,208667	0,5	1,897250
9,217000	0,5	1,880100
9,225333	0,5	1,864950
9,233667	0,5	1,851400
9,242000	0,5	1,846900
9,250333	0,5	1,850500
9,258667	0,5	1,849700
9,267000	0,5	1,852150
9,275333	0,5	1,851250
9,283667	0,5	1,856650
9,292000	0,5	1,868100
9,300333	0,5	1,898050
9,308667	0,5	1,932700
9,317000	0,5	1,974900
9,325333	0,5	2,017350
9,333667	0,5	2,056850
9,342000	0,5	2,072300
9,350333	0,5	2,065800
9,358667	0,5	2,040050
9,367000	0,5	1,999850
9,375333	0,5	1,956050
9,383667	0,5	1,925650
9,392000	0,5	1,913800
9,400333	0,5	1,932400
9,408667	0,5	2,010950
9,417000	0,5	2,188850
9,425333	0,5	2,540250
9,433667	0,5	3,166550
9,442000	0,5	4,152650
9,450333	0,5	5,550950
9,458667	0,5	7,351550
9,467000	0,5	9,518350
9,475333	0,5	12,028300
9,483667	0,5	14,976750
9,492000	0,5	18,730500
9,500333	0,5	24,237450
9,508667	0,5	33,397200
9,517000	0,5	49,045451
9,525333	0,5	73,891951
9,533667	0,5	107,886102
9,542000	0,5	146,180952
9,550333	0,5	180,241853
9,558667	0,5	202,394403
9,567000	0,5	209,141403
9,575333	0,5	201,684203
9,583667	0,5	184,172053
9,592000	0,5	161,656602
9,600333	0,5	137,635302
9,608667	0,5	113,602802
9,617000	0,5	90,755201
9,625333	0,5	70,378751
9,633667	0,5	53,512051
9,642000	0,5	40,606001
9,650333	0,5	31,309200
9,658667	0,5	24,760400
9,667000	0,5	20,141200
9,675333	0,5	16,801600
9,683667	0,5	14,323400
9,692000	0,5	12,440700
9,700333	0,5	10,963800
9,708667	0,5	9,780900
9,717000	0,5	8,829450
9,725333	0,5	8,043750
9,733667	0,5	7,392700
9,742000	0,5	6,845100
9,750333	0,5	6,387500
9,758667	0,5	5,990000
9,767000	0,5	5,652800
9,775333	0,5	5,352100
9,783667	0,5	5,077700
9,792000	0,5	4,834750
9,800333	0,5	4,615850
9,808667	0,5	4,400550
9,817000	0,5	4,212850
9,825333	0,5	4,044750
9,833667	0,5	3,884450
9,842000	0,5	3,747600
9,850333	0,5	3,612300
9,858667	0,5	3,497100
9,867000	0,5	3,383500
9,875333	0,5	3,279700
9,883667	0,5	3,184350
9,892000	0,5	3,090100
9,900333	0,5	2,999750
9,908667	0,5	2,916900
9,917000	0,5	2,836350
9,925333	0,5	2,755800
9,933667	0,5	2,676700
9,942000	0,5	2,606500
9,950333	0,5	2,542850
9,958667	0,5	2,471750
9,967000	0,5	2,414650
9,975333	0,5	2,357800
9,983667	0,5	2,310050
9,992000	0,5	2,270300
10,000333	0,5	2,220000
10,008667	0,5	2,179200
10,017000	0,5	2,137150
10,025333	0,5	2,103750
10,033667	0,5	2,069900
10,042000	0,5	2,040900
10,050333	0,5	2,006100
10,058667	0,5	1,982500
10,067000	0,5	1,954000
10,075333	0,5	1,935450
10,083667	0,5	1,907850
10,092000	0,5	1,890850
10,100333	0,5	1,862250
10,108667	0,5	1,841900
10,117000	0,5	1,822400
10,125333	0,5	1,810650
10,133667	0,5	1,801250
10,142000	0,5	1,786400
10,150333	0,5	1,776250
10,158667	0,5	1,753350
10,167000	0,5	1,736900
10,175333	0,5	1,725150
10,183667	0,5	1,702650
10,192000	0,5	1,681600
10,200333	0,5	1,672450
10,208667	0,5	1,655050
10,217000	0,5	1,642050
10,225333	0,5	1,635700
10,233667	0,5	1,627350
10,242000	0,5	1,624600
10,250333	0,5	1,627500
10,258667	0,5	1,625600
10,267000	0,5	1,617000
10,275333	0,5	1,615600
10,283667	0,5	1,618900
10,292000	0,5	1,608300
10,300333	0,5	1,591000
10,308667	0,5	1,578200
10,317000	0,5	1,562250
10,325333	0,5	1,545700
10,333667	0,5	1,531400
10,342000	0,5	1,526150
10,350333	0,5	1,524550
10,358667	0,5	1,519100
10,367000	0,5	1,513900
10,375333	0,5	1,510350
10,383667	0,5	1,507550
10,392000	0,5	1,504000
10,400333	0,5	1,495550
10,408667	0,5	1,492500
10,417000	0,5	1,493000
10,425333	0,5	1,489550
10,433667	0,5	1,491050
10,442000	0,5	1,494800
10,450333	0,5	1,503050
10,458667	0,5	1,508400
10,467000	0,5	1,511250
10,475333	0,5	1,511900
10,483667	0,5	1,514150
10,492000	0,5	1,515800
10,500333	0,5	1,513250
10,508667	0,5	1,515000
10,517000	0,5	1,511750
10,525333	0,5	1,516700
10,533667	0,5	1,515950
10,542000	0,5	1,524350
10,550333	0,5	1,533450
10,558667	0,5	1,549800
10,567000	0,5	1,563050
10,575333	0,5	1,592450
10,583667	0,5	1,631800
10,592000	0,5	1,674650
10,600333	0,5	1,729000
10,608667	0,5	1,794400
10,617000	0,5	1,856300
10,625333	0,5	1,898600
10,633667	0,5	1,921750
10,642000	0,5	1,907950
10,650333	0,5	1,873950
10,658667	0,5	1,815150
10,667000	0,5	1,748850
10,675333	0,5	1,685750
10,683667	0,5	1,635300
10,692000	0,5	1,591700
10,700333	0,5	1,557500
10,708667	0,5	1,526150
10,717000	0,5	1,504950
10,725333	0,5	1,488700
10,733667	0,5	1,470250
10,742000	0,5	1,455550
10,750333	0,5	1,449400
10,758667	0,5	1,438200
10,767000	0,5	1,435200
10,775333	0,5	1,432400
10,783667	0,5	1,429950
10,792000	0,5	1,425300
10,800333	0,5	1,427850
10,808667	0,5	1,431200
10,817000	0,5	1,440900
10,825333	0,5	1,441000
10,833667	0,5	1,452800
10,842000	0,5	1,460350
10,850333	0,5	1,459950
10,858667	0,5	1,471050
10,867000	0,5	1,483250
10,875333	0,5	1,502100
10,883667	0,5	1,513800
10,892000	0,5	1,528750
10,900333	0,5	1,534750
10,908667	0,5	1,538950
10,917000	0,5	1,541450
10,925333	0,5	1,535150
10,933667	0,5	1,525200
10,942000	0,5	1,512850
10,950333	0,5	1,501450
10,958667	0,5	1,491050
10,967000	0,5	1,484200
10,975333	0,5	1,480800
10,983667	0,5	1,478900
10,992000	0,5	1,475150
11,000333	0,5	1,473150
11,008667	0,5	1,477800
11,017000	0,5	1,486650
11,025333	0,5	1,497700
11,033667	0,5	1,498300
11,042000	0,5	1,495700
11,050333	0,5	1,484550
11,058667	0,5	1,466450
11,067000	0,5	1,439900
11,075333	0,5	1,412850
11,083667	0,5	1,389100
11,092000	0,5	1,373650
11,100333	0,5	1,359650
11,108667	0,5	1,359900
11,117000	0,5	1,366200
11,125333	0,5	1,373850
11,133667	0,5	1,383250
11,142000	0,5	1,396350
11,150333	0,5	1,398950
11,158667	0,5	1,408250
11,167000	0,5	1,419250
11,175333	0,5	1,426500
11,183667	0,5	1,435750
11,192000	0,5	1,436050
11,200333	0,5	1,437950
11,208667	0,5	1,435400
11,217000	0,5	1,433450
11,225333	0,5	1,426850
11,233667	0,5	1,419300
11,242000	0,5	1,415350
11,250333	0,5	1,408450
11,258667	0,5	1,403250
11,267000	0,5	1,404800
11,275333	0,5	1,402450
11,283667	0,5	1,401650
11,292000	0,5	1,398950
11,300333	0,5	1,397700
11,308667	0,5	1,394650
11,317000	0,5	1,400200
11,325333	0,5	1,398750
11,333667	0,5	1,398050
11,342000	0,5	1,398900
11,350333	0,5	1,397100
11,358667	0,5	1,395900
11,367000	0,5	1,390650
11,375333	0,5	1,390250
11,383667	0,5	1,392450
11,392000	0,5	1,390150
11,400333	0,5	1,388650
11,408667	0,5	1,395700
11,417000	0,5	1,390650
11,425333	0,5	1,393250
11,433667	0,5	1,397250
11,442000	0,5	1,393700
11,450333	0,5	1,396800
11,458667	0,5	1,401850
11,467000	0,5	1,407350
11,475333	0,5	1,415350
11,483667	0,5	1,423250
11,492000	0,5	1,429500
11,500333	0,5	1,444250
11,508667	0,5	1,464400
11,517000	0,5	1,482850
11,525333	0,5	1,497800
11,533667	0,5	1,507700
11,542000	0,5	1,511000
11,550333	0,5	1,510250
11,558667	0,5	1,494950
11,567000	0,5	1,483850
11,575333	0,5	1,473050
11,583667	0,5	1,457950
11,592000	0,5	1,447600
11,600333	0,5	1,437900
11,608667	0,5	1,429300
11,617000	0,5	1,424400
11,625333	0,5	1,417650
11,633667	0,5	1,410900
11,642000	0,5	1,403600
11,650333	0,5	1,400150
11,658667	0,5	1,396750
11,667000	0,5	1,387650
11,675333	0,5	1,391050
11,683667	0,5	1,391200
11,692000	0,5	1,396850
11,700333	0,5	1,403700
11,708667	0,5	1,414450
11,717000	0,5	1,435750
11,725333	0,5	1,468850
11,733667	0,5	1,504550
11,742000	0,5	1,553350
11,750333	0,5	1,625350
11,758667	0,5	1,701550
11,767000	0,5	1,784150
11,775333	0,5	1,854300
11,783667	0,5	1,899300
11,792000	0,5	1,921350
11,800333	0,5	1,917600
11,808667	0,5	1,888600
11,817000	0,5	1,848050
11,825333	0,5	1,802400
11,833667	0,5	1,771850
11,842000	0,5	1,756600
11,850333	0,5	1,760800
11,858667	0,5	1,781450
11,867000	0,5	1,817600
11,875333	0,5	1,872200
11,883667	0,5	1,916050
11,892000	0,5	1,954000
11,900333	0,5	1,976650
11,908667	0,5	1,981250
11,917000	0,5	1,963400
11,925333	0,5	1,924250
11,933667	0,5	1,876650
11,942000	0,5	1,822200
11,950333	0,5	1,773050
11,958667	0,5	1,732950
11,967000	0,5	1,711450
11,975333	0,5	1,710850
11,983667	0,5	1,734750
11,992000	0,5	1,767550
12,000333	0,5	1,802800
12,008667	0,5	1,824850
12,017000	0,5	1,844200
12,025333	0,5	1,837650
12,033667	0,5	1,809100
12,042000	0,5	1,774500
12,050333	0,5	1,736100
12,058667	0,5	1,702450
12,067000	0,5	1,653850
12,075333	0,5	1,620800
12,083667	0,5	1,589150
12,092000	0,5	1,564800
12,100333	0,5	1,539700
12,108667	0,5	1,520900
12,117000	0,5	1,501750
12,125333	0,5	1,488550
12,133667	0,5	1,477850
12,142000	0,5	1,468600
12,150333	0,5	1,462050
12,158667	0,5	1,454050
12,167000	0,5	1,450950
12,175333	0,5	1,443200
12,183667	0,5	1,439600
12,192000	0,5	1,436800
12,200333	0,5	1,432800
12,208667	0,5	1,439600
12,217000	0,5	1,442750
12,225333	0,5	1,445400
12,233667	0,5	1,441350
12,242000	0,5	1,438550
12,250333	0,5	1,441050
12,258667	0,5	1,434550
12,267000	0,5	1,435550
12,275333	0,5	1,432000
12,283667	0,5	1,436650
12,292000	0,5	1,441650
12,300333	0,5	1,445850
12,308667	0,5	1,458650
12,317000	0,5	1,468250
12,325333	0,5	1,472600
12,333667	0,5	1,482750
12,342000	0,5	1,486250
12,350333	0,5	1,486400
12,358667	0,5	1,495950
12,367000	0,5	1,498950
12,375333	0,5	1,510300
12,383667	0,5	1,521450
12,392000	0,5	1,525050
12,400333	0,5	1,544000
12,408667	0,5	1,558200
12,417000	0,5	1,579100
12,425333	0,5	1,594150
12,433667	0,5	1,612200
12,442000	0,5	1,627300
12,450333	0,5	1,642350
12,458667	0,5	1,672100
12,467000	0,5	1,713950
12,475333	0,5	1,744150
12,483667	0,5	1,794700
12,492000	0,5	1,839450
12,500333	0,5	1,888800
12,508667	0,5	1,932900
12,517000	0,5	1,954550
12,525333	0,5	1,946500
12,533667	0,5	1,926150
12,542000	0,5	1,905450
12,550333	0,5	1,868500
12,558667	0,5	1,833650
12,567000	0,5	1,801300
12,575333	0,5	1,764800
12,583667	0,5	1,744600
12,592000	0,5	1,721200
12,600333	0,5	1,713750
12,608667	0,5	1,702200
12,617000	0,5	1,700250
12,625333	0,5	1,694150
12,633667	0,5	1,689700
12,642000	0,5	1,700500
12,650333	0,5	1,701450
12,658667	0,5	1,720100
12,667000	0,5	1,740600
12,675333	0,5	1,768950
12,683667	0,5	1,809200
12,692000	0,5	1,849200
12,700333	0,5	1,894750
12,708667	0,5	1,948700
12,717000	0,5	2,007850
12,725333	0,5	2,061550
12,733667	0,5	2,111050
12,742000	0,5	2,137500
12,750333	0,5	2,168150
12,758667	0,5	2,166900
12,767000	0,5	2,150700
12,775333	0,5	2,137100
12,783667	0,5	2,118050
12,792000	0,5	2,115450
12,800333	0,5	2,097600
12,808667	0,5	2,078950
12,817000	0,5	2,047650
12,825333	0,5	2,027950
12,833667	0,5	2,004450
12,842000	0,5	1,988250
12,850333	0,5	1,977450
12,858667	0,5	1,987400
12,867000	0,5	1,990550
12,875333	0,5	1,983250
12,883667	0,5	1,972000
12,892000	0,5	1,927450
12,900333	0,5	1,888150
12,908667	0,5	1,841900
12,917000	0,5	1,796400
12,925333	0,5	1,760050
12,933667	0,5	1,730350
12,942000	0,5	1,720400
12,950333	0,5	1,710050
12,958667	0,5	1,697400
12,967000	0,5	1,680200
12,975333	0,5	1,647100
12,983667	0,5	1,617200
12,992000	0,5	1,587000
13,000333	0,5	1,562300
13,008667	0,5	1,544150
13,017000	0,5	1,529800
13,025333	0,5	1,525700
13,033667	0,5	1,516600
13,042000	0,5	1,503100
13,050333	0,5	1,481050
13,058667	0,5	1,448200
13,067000	0,5	1,410400
13,075333	0,5	1,371800
13,083667	0,5	1,336450
13,092000	0,5	1,321600
13,100333	0,5	1,300900
13,108667	0,5	1,287150
13,117000	0,5	1,279350
13,125333	0,5	1,268100
13,133667	0,5	1,256250
13,142000	0,5	1,253050
13,150333	0,5	1,244000
13,158667	0,5	1,232400
13,167000	0,5	1,223100
13,175333	0,5	1,218500
13,183667	0,5	1,205850
13,192000	0,5	1,201250
13,200333	0,5	1,198800
13,208667	0,5	1,194300
13,217000	0,5	1,182350
13,225333	0,5	1,175700
13,233667	0,5	1,168900
13,242000	0,5	1,178300
13,250333	0,5	1,181850
13,258667	0,5	1,177750
13,267000	0,5	1,170200
13,275333	0,5	1,163400
13,283667	0,5	1,149750
13,292000	0,5	1,139300
13,300333	0,5	1,118900
13,308667	0,5	1,101950
13,317000	0,5	1,090950
13,325333	0,5	1,079200
13,333667	0,5	1,066800
13,342000	0,5	1,066950
13,350333	0,5	1,063450
13,358667	0,5	1,061100
13,367000	0,5	1,056050
13,375333	0,5	1,049000
13,383667	0,5	1,044900
13,392000	0,5	1,047800
13,400333	0,5	1,045500
13,408667	0,5	1,038900
13,417000	0,5	1,041200
13,425333	0,5	1,039450
13,433667	0,5	1,035500
13,442000	0,5	1,048450
13,450333	0,5	1,064200
13,458667	0,5	1,088800
13,467000	0,5	1,092800
13,475333	0,5	1,091550
13,483667	0,5	1,076400
13,492000	0,5	1,070450
13,500333	0,5	1,043700
13,508667	0,5	1,021950
13,517000	0,5	0,993750
13,525333	0,5	0,976900
13,533667	0,5	0,971950
13,542000	0,5	0,950700
13,550333	0,5	0,896850
13,558667	0,5	0,786300
13,567000	0,5	0,581500
13,575333	0,5	0,286800
13,583667	0,5	-0,122750
13,592000	0,5	-0,466800
13,600333	0,5	-0,699700
13,608667	0,5	-0,848300
13,617000	0,5	-0,957150
13,625333	0,5	-1,048550
13,633667	0,5	-1,115650
13,642000	0,5	-1,177600
13,650333	0,5	-1,216100
13,658667	0,5	-1,252550
13,667000	0,5	-1,278400
13,675333	0,5	-1,299200
13,683667	0,5	-1,309750
13,692000	0,5	-1,325100
13,700333	0,5	-1,340750
13,708667	0,5	-1,354900
13,717000	0,5	-1,356500
13,725333	0,5	-1,355950
13,733667	0,5	-1,351450
13,742000	0,5	-1,332850
13,750333	0,5	-1,324450
13,758667	0,5	-1,297800
13,767000	0,5	-1,288400
13,775333	0,5	-1,298600
13,783667	0,5	-1,292500
13,792000	0,5	-1,305700
13,800333	0,5	-1,324350
13,808667	0,5	-1,348450
13,817000	0,5	-1,381750
13,825333	0,5	-1,395250
13,833667	0,5	-1,409550
13,842000	0,5	-1,428000
13,850333	0,5	-1,435750
13,858667	0,5	-1,431750
13,867000	0,5	-1,429700
13,875333	0,5	-1,422500
13,883667	0,5	-1,416750
13,892000	0,5	-1,410300
13,900333	0,5	-1,398350
13,908667	0,5	-1,385850
13,917000	0,5	-1,373900
13,925333	0,5	-1,369350
13,933667	0,5	-1,352050
13,942000	0,5	-1,338450
13,950333	0,5	-1,329400
13,958667	0,5	-1,315450
13,967000	0,5	-1,295450
13,975333	0,5	-1,274100
13,983667	0,5	-1,243450
13,992000	0,5	-1,224250
14,000333	0,5	-1,198300
14,008667	0,5	-1,177150
14,017000	0,5	-1,151100
14,025333	0,5	-1,133600
14,033667	0,5	-1,113350
14,042000	0,5	-1,093700
14,050333	0,5	-1,075650
14,058667	0,5	-1,048500
14,067000	0,5	-1,025600
14,075333	0,5	-0,999450
14,083667	0,5	-0,964800
14,092000	0,5	-0,939400
14,100333	0,5	-0,915300
14,108667	0,5	-0,889600
14,117000	0,5	-0,865500
14,125333	0,5	-0,829550
14,133667	0,5	-0,804550
14,142000	0,5	-0,781950
14,150333	0,5	-0,759100
14,158667	0,5	-0,727650
14,167000	0,5	-0,713100
14,175333	0,5	-0,688300
14,183667	0,5	-0,664250
14,192000	0,5	-0,634250
14,200333	0,5	-0,605300
14,208667	0,5	-0,580800
14,217000	0,5	-0,568550
14,225333	0,5	-0,552150
14,233667	0,5	-0,532700
14,242000	0,5	-0,522550
14,250333	0,5	-0,523650
14,258667	0,5	-0,508400
14,267000	0,5	-0,476000
14,275333	0,5	-0,440700
14,283667	0,5	-0,404150
14,292000	0,5	-0,375200
14,300333	0,5	-0,335400
14,308667	0,5	-0,301800
14,317000	0,5	-0,257050
14,325333	0,5	-0,208200
14,333667	0,5	-0,158000
14,342000	0,5	-0,105000
14,350333	0,5	-0,028700
14,358667	0,5	0,063000
14,367000	0,5	0,171550
14,375333	0,5	0,306850
14,383667	0,5	0,445000
14,392000	0,5	0,570500
14,400333	0,5	0,645900
14,408667	0,5	0,683400
14,417000	0,5	0,683500
14,425333	0,5	0,648700
14,433667	0,5	0,600250
14,442000	0,5	0,542550
14,450333	0,5	0,511400
14,458667	0,5	0,501350
14,467000	0,5	0,513250
14,475333	0,5	0,547300
14,483667	0,5	0,590300
14,492000	0,5	0,661350
14,500333	0,5	0,706600
14,508667	0,5	0,730900
14,517000	0,5	0,738950
14,525333	0,5	0,710200
14,533667	0,5	0,670100
14,542000	0,5	0,629000
14,550333	0,5	0,568200
14,558667	0,5	0,537150
14,567000	0,5	0,522700
14,575333	0,5	0,512300
14,583667	0,5	0,498450
14,592000	0,5	0,501550
14,600333	0,5	0,495700
14,608667	0,5	0,496650
14,617000	0,5	0,492350
14,625333	0,5	0,484700
14,633667	0,5	0,485700
14,642000	0,5	0,480050
14,650333	0,5	0,482700
14,658667	0,5	0,474500
14,667000	0,5	0,482600
14,675333	0,5	0,487450
14,683667	0,5	0,475300
14,692000	0,5	0,468800
14,700333	0,5	0,462450
14,708667	0,5	0,464950
14,717000	0,5	0,485850
14,725333	0,5	0,493600
14,733667	0,5	0,509950
14,742000	0,5	0,522000
14,750333	0,5	0,526750
14,758667	0,5	0,536150
14,767000	0,5	0,528950
14,775333	0,5	0,517500
14,783667	0,5	0,496350
14,792000	0,5	0,488050
14,800333	0,5	0,475200
14,808667	0,5	0,452750
14,817000	0,5	0,447650
14,825333	0,5	0,442400
14,833667	0,5	0,437400
14,842000	0,5	0,419400
14,850333	0,5	0,418050
14,858667	0,5	0,435950
14,867000	0,5	0,430850
14,875333	0,5	0,441750
14,883667	0,5	0,432750
14,892000	0,5	0,433550
14,900333	0,5	0,440200
14,908667	0,5	0,448100
14,917000	0,5	0,464850
14,925333	0,5	0,501000
14,933667	0,5	0,572050
14,942000	0,5	0,672350
14,950333	0,5	0,767800
14,958667	0,5	0,880250
14,967000	0,5	0,955600
14,975333	0,5	0,972350
14,983667	0,5	0,928900
14,992000	0,5	0,844650
15,000333	0,5	0,772600
15,008667	0,5	0,709250
15,017000	0,5	0,674800
15,025333	0,5	0,668650
15,033667	0,5	0,699600
15,042000	0,5	0,744650
15,050333	0,5	0,783400
15,058667	0,5	0,807750
15,067000	0,5	0,790200
15,075333	0,5	0,751100
15,083667	0,5	0,693950
15,092000	0,5	0,644900
15,100333	0,5	0,582200
15,108667	0,5	0,554400
15,117000	0,5	0,524500
15,125333	0,5	0,506850
15,133667	0,5	0,488850
15,142000	0,5	0,476800
15,150333	0,5	0,486550
15,158667	0,5	0,501000
15,167000	0,5	0,516150
15,175333	0,5	0,541500
15,183667	0,5	0,564650
15,192000	0,5	0,589750
15,200333	0,5	0,606250
15,208667	0,5	0,632200
15,217000	0,5	0,629850
15,225333	0,5	0,619050
15,233667	0,5	0,591450
15,242000	0,5	0,566800
15,250333	0,5	0,526150
15,258667	0,5	0,499300
15,267000	0,5	0,468500
15,275333	0,5	0,438700
15,283667	0,5	0,406350
15,292000	0,5	0,359150
15,300333	0,5	0,351100
15,308667	0,5	0,330800
15,317000	0,5	0,312250
15,325333	0,5	0,299200
15,333667	0,5	0,298050
15,342000	0,5	0,286450
15,350333	0,5	0,292250
15,358667	0,5	0,282650
15,367000	0,5	0,285150
15,375333	0,5	0,288200
15,383667	0,5	0,299950
15,392000	0,5	0,298150
15,400333	0,5	0,313450
15,408667	0,5	0,332600
15,417000	0,5	0,370700
15,425333	0,5	0,408450
15,433667	0,5	0,469900
15,442000	0,5	0,573100
15,450333	0,5	0,709050
15,458667	0,5	0,830400
15,467000	0,5	0,926250
15,475333	0,5	0,973850
15,483667	0,5	0,954000
15,492000	0,5	0,890900
15,500333	0,5	0,814100
15,508667	0,5	0,743050
15,517000	0,5	0,700500
15,525333	0,5	0,712000
15,533667	0,5	0,724900
15,542000	0,5	0,729100
15,550333	0,5	0,733400
15,558667	0,5	0,713800
15,567000	0,5	0,649550
15,575333	0,5	0,583900
15,583667	0,5	0,509050
15,592000	0,5	0,461350
15,600333	0,5	0,425750
15,608667	0,5	0,410900
15,617000	0,5	0,396550
15,625333	0,5	0,401100
15,633667	0,5	0,400450
15,642000	0,5	0,402550
15,650333	0,5	0,396850
15,658667	0,5	0,381500
15,667000	0,5	0,367750
15,675333	0,5	0,367700
15,683667	0,5	0,351300
15,692000	0,5	0,342500
15,700333	0,5	0,346100
15,708667	0,5	0,346100
15,717000	0,5	0,339000
15,725333	0,5	0,310700
15,733667	0,5	0,293700
15,742000	0,5	0,274000
15,750333	0,5	0,261150
15,758667	0,5	0,232500
15,767000	0,5	0,213300
15,775333	0,5	0,194550
15,783667	0,5	0,177500
15,792000	0,5	0,160100
15,800333	0,5	0,152450
15,808667	0,5	0,134350
15,817000	0,5	0,130050
15,825333	0,5	0,125850
15,833667	0,5	0,112900
15,842000	0,5	0,122750
15,850333	0,5	0,126000
15,858667	0,5	0,139600
15,867000	0,5	0,140350
15,875333	0,5	0,173050
15,883667	0,5	0,237950
15,892000	0,5	0,342000
15,900333	0,5	0,464150
15,908667	0,5	0,589700
15,917000	0,5	0,704350
15,925333	0,5	0,775650
15,933667	0,5	0,783200
15,942000	0,5	0,746400
15,950333	0,5	0,689700
15,958667	0,5	0,628750
15,967000	0,5	0,610000
15,975333	0,5	0,615000
15,983667	0,5	0,597550
15,992000	0,5	0,600450
16,000333	0,5	0,572700
16,008667	0,5	0,521050
16,017000	0,5	0,452500
16,025333	0,5	0,376000
16,033667	0,5	0,337650
16,042000	0,5	0,296750
16,050333	0,5	0,266150
16,058667	0,5	0,235950
16,067000	0,5	0,214400
16,075333	0,5	0,197550
16,083667	0,5	0,201900
16,092000	0,5	0,202350
16,100333	0,5	0,202100
16,108667	0,5	0,200100
16,117000	0,5	0,206800
16,125333	0,5	0,204650
16,133667	0,5	0,190600
16,142000	0,5	0,185250
16,150333	0,5	0,166650
16,158667	0,5	0,140850
16,167000	0,5	0,103500
16,175333	0,5	0,070550
16,183667	0,5	0,060450
16,192000	0,5	0,047800
16,200333	0,5	0,031950
16,208667	0,5	0,024900
16,217000	0,5	0,011550
16,225333	0,5	0,003500
16,233667	0,5	-0,001650
16,242000	0,5	-0,001500
16,250333	0,5	-0,004250
16,258667	0,5	0,000000
16,267000	0,5	0,004350
16,275333	0,5	0,028550
16,283667	0,5	0,091150
16,292000	0,5	0,174550
16,300333	0,5	0,284250
16,308667	0,5	0,411650
16,317000	0,5	0,523350
16,325333	0,5	0,601350
16,333667	0,5	0,639100
16,342000	0,5	0,631450
16,350333	0,5	0,604900
16,358667	0,5	0,586700
16,367000	0,5	0,574650
16,375333	0,5	0,565000
16,383667	0,5	0,546050
16,392000	0,5	0,490550
16,400333	0,5	0,411650
16,408667	0,5	0,344400
16,417000	0,5	0,343650
16,425333	0,5	0,207100
16,433667	0,5	0,182400
16,442000	0,5	0,160950
16,450333	0,5	0,152350
16,458667	0,5	0,135950
16,467000	0,5	0,121950
16,475333	0,5	0,119850
16,483667	0,5	0,124300
16,492000	0,5	0,127450
16,500333	0,5	0,115100
16,508667	0,5	0,105650
16,517000	0,5	0,088850
16,525333	0,5	0,068750
16,533667	0,5	0,044750
16,542000	0,5	0,028350
16,550333	0,5	-0,000150
16,558667	0,5	-0,011500
16,567000	0,5	-0,045850
16,575333	0,5	-0,063800
16,583667	0,5	-0,078100
16,592000	0,5	-0,081650
16,600333	0,5	-0,097400
16,608667	0,5	-0,108500
16,617000	0,5	-0,105200
16,625333	0,5	-0,072350
16,633667	0,5	-0,026800
16,642000	0,5	0,054550
16,650333	0,5	0,168050
16,658667	0,5	0,308450
16,667000	0,5	0,448300
16,675333	0,5	0,552250
16,683667	0,5	0,613150
16,692000	0,5	0,612500
16,700333	0,5	0,598450
16,708667	0,5	0,566650
16,717000	0,5	0,518400
16,725333	0,5	0,484150
16,733667	0,5	0,438900
16,742000	0,5	0,382650
16,750333	0,5	0,331000
16,758667	0,5	0,279150
16,767000	0,5	0,278450
16,775333	0,5	0,282050
16,783667	0,5	0,308450
16,792000	0,5	0,333450
16,800333	0,5	0,360600
16,808667	0,5	0,384500
16,817000	0,5	0,389300
16,825333	0,5	0,410150
16,833667	0,5	0,416500
16,842000	0,5	0,415750
16,850333	0,5	0,399150
16,858667	0,5	0,393150
16,867000	0,5	0,344850
16,875333	0,5	0,311650
16,883667	0,5	0,267800
16,892000	0,5	0,223700
16,900333	0,5	0,165250
16,908667	0,5	0,112400
16,917000	0,5	0,081750
16,925333	0,5	0,059850
16,933667	0,5	0,028450
16,942000	0,5	0,026500
16,950333	0,5	0,041450
16,958667	0,5	0,084300
16,967000	0,5	0,177350
16,975333	0,5	0,268650
16,983667	0,5	0,382800
16,992000	0,5	0,451150
17,000333	0,5	0,503100
17,008667	0,5	0,493050
17,017000	0,5	0,464150
17,025333	0,5	0,430750
17,033667	0,5	0,385600
17,042000	0,5	0,326800
17,050333	0,5	0,253700
17,058667	0,5	0,184900
17,067000	0,5	0,144650
17,075333	0,5	0,096250
17,083667	0,5	0,074650
17,092000	0,5	0,059550
17,100333	0,5	0,044550
17,108667	0,5	0,044900
17,117000	0,5	0,042550
17,125333	0,5	0,041750
17,133667	0,5	0,031800
17,142000	0,5	0,030250
17,150333	0,5	0,026050
17,158667	0,5	-0,000450
17,167000	0,5	-0,003750
17,175333	0,5	-0,014100
17,183667	0,5	-0,025950
17,192000	0,5	-0,040350
17,200333	0,5	-0,051500
17,208667	0,5	-0,034550
17,217000	0,5	-0,018550
17,225333	0,5	0,026000
17,233667	0,5	0,082300
17,242000	0,5	0,173450
17,250333	0,5	0,296200
17,258667	0,5	0,460200
17,267000	0,5	0,660450
17,275333	0,5	0,875000
17,283667	0,5	1,089650
17,292000	0,5	1,314800
17,300333	0,5	1,526250
17,308667	0,5	1,750400
17,317000	0,5	1,987000
17,325333	0,5	2,210850
17,333667	0,5	2,417100
17,342000	0,5	2,583050
17,350333	0,5	2,720350
17,358667	0,5	2,824150
17,367000	0,5	2,883050
17,375333	0,5	2,866500
17,383667	0,5	2,798250
17,392000	0,5	2,657100
17,400333	0,5	2,461450
17,408667	0,5	2,234250
17,417000	0,5	1,992600
17,425333	0,5	1,732400
17,433667	0,5	1,500200
17,442000	0,5	1,294700
17,450333	0,5	1,107450
17,458667	0,5	0,961250
17,467000	0,5	0,845450
17,475333	0,5	0,757450
17,483667	0,5	0,680500
17,492000	0,5	0,622200
17,500333	0,5	0,599400
17,508667	0,5	0,605800
17,517000	0,5	0,636300
17,525333	0,5	0,682550
17,533667	0,5	0,738800
17,542000	0,5	0,782900
17,550333	0,5	0,813750
17,558667	0,5	0,824950
17,567000	0,5	0,814450
17,575333	0,5	0,815650
17,583667	0,5	0,800200
17,592000	0,5	0,793500
17,600333	0,5	0,756850
17,608667	0,5	0,767600
17,617000	0,5	0,762950
17,625333	0,5	0,747800
17,633667	0,5	0,734050
17,642000	0,5	0,697400
17,650333	0,5	0,681000
17,658667	0,5	0,644250
17,667000	0,5	0,585250
17,675333	0,5	0,521250
17,683667	0,5	0,445650
17,692000	0,5	0,382100
17,700333	0,5	0,317050
17,708667	0,5	0,264050
17,717000	0,5	0,217400
17,725333	0,5	0,175150
17,733667	0,5	0,167150
17,742000	0,5	0,148200
17,750333	0,5	0,142700
17,758667	0,5	0,178100
17,767000	0,5	0,225400
17,775333	0,5	0,272000
17,783667	0,5	0,299000
17,792000	0,5	0,308750
17,800333	0,5	0,319650
17,808667	0,5	0,300050
17,817000	0,5	0,264950
17,825333	0,5	0,214950
17,833667	0,5	0,164500
17,842000	0,5	0,109650
17,850333	0,5	0,070300
17,858667	0,5	0,048850
17,867000	0,5	0,014000
17,875333	0,5	-0,004150
17,883667	0,5	-0,024750
17,892000	0,5	-0,045550
17,900333	0,5	-0,065550
17,908667	0,5	-0,068650
17,917000	0,5	-0,085950
17,925333	0,5	-0,108100
17,933667	0,5	-0,135400
17,942000	0,5	-0,142000
17,950333	0,5	-0,138000
17,958667	0,5	-0,127300
17,967000	0,5	-0,117650
17,975333	0,5	-0,083500
17,983667	0,5	-0,043150
17,992000	0,5	0,015100
18,000333	0,5	0,076200
18,008667	0,5	0,106500
18,017000	0,5	0,126550
18,025333	0,5	0,113950
18,033667	0,5	0,099400
18,042000	0,5	0,038150
18,050333	0,5	0,014000
18,058667	0,5	-0,032950
18,067000	0,5	-0,060800
18,075333	0,5	-0,097750
18,083667	0,5	-0,145400
18,092000	0,5	-0,164400
18,100333	0,5	-0,166250
18,108667	0,5	-0,182450
18,117000	0,5	-0,189550
18,125333	0,5	-0,195500
18,133667	0,5	-0,200350
18,142000	0,5	-0,196450
18,150333	0,5	-0,189700
18,158667	0,5	-0,179800
18,167000	0,5	-0,173400
18,175333	0,5	-0,126000
18,183667	0,5	-0,089150
18,192000	0,5	-0,051800
18,200333	0,5	-0,007050
18,208667	0,5	0,005600
18,217000	0,5	-0,009100
18,225333	0,5	-0,049200
18,233667	0,5	-0,103900
18,242000	0,5	-0,130700
18,250333	0,5	-0,163850
18,258667	0,5	-0,180900
18,267000	0,5	-0,213950
18,275333	0,5	-0,222200
18,283667	0,5	-0,244450
18,292000	0,5	-0,244450
18,300333	0,5	-0,249450
18,308667	0,5	-0,252250
18,317000	0,5	-0,245650
18,325333	0,5	-0,235200
18,333667	0,5	-0,236850
18,342000	0,5	-0,222400
18,350333	0,5	-0,184750
18,358667	0,5	-0,145200
18,367000	0,5	-0,102350
18,375333	0,5	-0,078450
18,383667	0,5	-0,067100
18,392000	0,5	-0,061850
18,400333	0,5	-0,061350
18,408667	0,5	-0,094350
18,417000	0,5	-0,108100
18,425333	0,5	-0,136700
18,433667	0,5	-0,149800
18,442000	0,5	-0,161250
18,450333	0,5	-0,179850
18,458667	0,5	-0,194800
18,467000	0,5	-0,197750
18,475333	0,5	-0,209800
18,483667	0,5	-0,231550
18,492000	0,5	-0,220750
18,500333	0,5	-0,211350
18,508667	0,5	-0,194900
18,517000	0,5	-0,193100
18,525333	0,5	-0,175350
18,533667	0,5	-0,143950
18,542000	0,5	-0,112000
18,550333	0,5	-0,104950
18,558667	0,5	-0,104350
18,567000	0,5	-0,121000
18,575333	0,5	-0,143950
18,583667	0,5	-0,170350
18,592000	0,5	-0,183800
18,600333	0,5	-0,194500
18,608667	0,5	-0,202350
18,617000	0,5	-0,204650
18,625333	0,5	-0,214050
18,633667	0,5	-0,229250
18,642000	0,5	-0,221500
18,650333	0,5	-0,218500
18,658667	0,5	-0,223050
18,667000	0,5	-0,230150
18,675333	0,5	-0,229500
18,683667	0,5	-0,204400
18,692000	0,5	-0,197500
18,700333	0,5	-0,180350
18,708667	0,5	-0,183850
18,717000	0,5	-0,181200
18,725333	0,5	-0,204750
18,733667	0,5	-0,213100
18,742000	0,5	-0,232950
18,750333	0,5	-0,249100
18,758667	0,5	-0,260700
18,767000	0,5	-0,254100
18,775333	0,5	-0,283400
18,783667	0,5	-0,270950
18,792000	0,5	-0,271900
18,800333	0,5	-0,272350
18,808667	0,5	-0,272150
18,817000	0,5	-0,285800
18,825333	0,5	-0,260450
18,833667	0,5	-0,239450
18,842000	0,5	-0,210550
18,850333	0,5	-0,199450
18,858667	0,5	-0,185500
18,867000	0,5	-0,190250
18,875333	0,5	-0,188850
18,883667	0,5	-0,187100
18,892000	0,5	-0,183400
18,900333	0,5	-0,175450
18,908667	0,5	-0,148100
18,917000	0,5	-0,141450
18,925333	0,5	-0,131000
18,933667	0,5	-0,105800
18,942000	0,5	-0,100100
18,950333	0,5	-0,079750
18,958667	0,5	-0,076400
18,967000	0,5	-0,080850
18,975333	0,5	-0,072950
18,983667	0,5	-0,070700
18,992000	0,5	-0,109300
19,000333	0,5	-0,137500
19,008667	0,5	-0,159400
19,017000	0,5	-0,181750
19,025333	0,5	-0,214400
19,033667	0,5	-0,222500
19,042000	0,5	-0,237400
19,050333	0,5	-0,232950
19,058667	0,5	-0,215850
19,067000	0,5	-0,207000
19,075333	0,5	-0,200600
19,083667	0,5	-0,178550
19,092000	0,5	-0,184550
19,100333	0,5	-0,199150
19,108667	0,5	-0,231050
19,117000	0,5	-0,264950
19,125333	0,5	-0,277150
19,133667	0,5	-0,296150
19,142000	0,5	-0,312700
19,150333	0,5	-0,319850
19,158667	0,5	-0,323250
19,167000	0,5	-0,326100
19,175333	0,5	-0,318900
19,183667	0,5	-0,321450
19,192000	0,5	-0,316550
19,200333	0,5	-0,317050
19,208667	0,5	-0,313350
19,217000	0,5	-0,327250
19,225333	0,5	-0,331150
19,233667	0,5	-0,342350
19,242000	0,5	-0,350950
19,250333	0,5	-0,381000
19,258667	0,5	-0,409250
19,267000	0,5	-0,424450
19,275333	0,5	-0,432550
19,283667	0,5	-0,435700
19,292000	0,5	-0,445200
19,300333	0,5	-0,450450
19,308667	0,5	-0,464350
19,317000	0,5	-0,474800
19,325333	0,5	-0,494700
19,333667	0,5	-0,507200
19,342000	0,5	-0,514150
19,350333	0,5	-0,520950
19,358667	0,5	-0,536800
19,367000	0,5	-0,545800
19,375333	0,5	-0,546050
19,383667	0,5	-0,547450
19,392000	0,5	-0,555400
19,400333	0,5	-0,591100
19,408667	0,5	-0,607050
19,417000	0,5	-0,612650
19,425333	0,5	-0,627550
19,433667	0,5	-0,639800
19,442000	0,5	-0,651800
19,450333	0,5	-0,655150
19,458667	0,5	-0,654750
19,467000	0,5	-0,665050
19,475333	0,5	-0,658450
19,483667	0,5	-0,685300
19,492000	0,5	-0,689600
19,500333	0,5	-0,691450
19,508667	0,5	-0,725950
19,517000	0,5	-0,726800
19,525333	0,5	-0,718350
19,533667	0,5	-0,730750
19,542000	0,5	-0,735300
19,550333	0,5	-0,771100
19,558667	0,5	-0,766100
19,567000	0,5	-0,765600
19,575333	0,5	-0,762350
19,583667	0,5	-0,776900
19,592000	0,5	-0,778850
19,600333	0,5	-0,797650
19,608667	0,5	-0,804850
19,617000	0,5	-0,798200
19,625333	0,5	-0,801700
19,633667	0,5	-0,809250
19,642000	0,5	-0,810800
19,650333	0,5	-0,821900
19,658667	0,5	-0,849950
19,667000	0,5	-0,837000
19,675333	0,5	-0,850300
19,683667	0,5	-0,863450
19,692000	0,5	-0,885850
19,700333	0,5	-0,928500
19,708667	0,5	-0,926900
19,717000	0,5	-0,926600
19,725333	0,5	-0,944150
19,733667	0,5	-0,946250
19,742000	0,5	-0,954400
19,750333	0,5	-0,967800
19,758667	0,5	-0,972700
19,767000	0,5	-0,979850
19,775333	0,5	-0,978050
19,783667	0,5	-0,994550
19,792000	0,5	-0,982800
19,800333	0,5	-1,008500
19,808667	0,5	-1,019900
19,817000	0,5	-1,020150
19,825333	0,5	-1,021850
19,833667	0,5	-1,045400
19,842000	0,5	-1,078950
19,850333	0,5	-1,092300
19,858667	0,5	-1,090050
19,867000	0,5	-1,106300
19,875333	0,5	-1,111650
19,883667	0,5	-1,133700
19,892000	0,5	-1,142150
19,900333	0,5	-1,155100
19,908667	0,5	-1,165950
19,917000	0,5	-1,169500
19,925333	0,5	-1,171100
19,933667	0,5	-1,164450
19,942000	0,5	-1,153350
19,950333	0,5	-1,173700
19,958667	0,5	-1,165350
19,967000	0,5	-1,168650
19,975333	0,5	-1,173850
19,983667	0,5	-1,185050
19,992000	0,5	-1,210250
20,000333	0,5	-1,196200
20,008667	0,5	-1,186950
20,017000	0,5	-1,163350
20,025333	0,5	-1,152000
20,033667	0,5	-1,141350
20,042000	0,5	-1,147450
20,050333	0,5	-1,146600
20,058667	0,5	-1,156500
20,067000	0,5	-1,169400
20,075333	0,5	-1,200450
20,083667	0,5	-1,209050
20,092000	0,5	-1,241100
20,100333	0,5	-1,278350
20,108667	0,5	-1,292650
20,117000	0,5	-1,327600
20,125333	0,5	-1,344100
20,133667	0,5	-1,396550
20,142000	0,5	-1,432300
20,150333	0,5	-1,456550
20,158667	0,5	-1,470150
20,167000	0,5	-1,497950
20,175333	0,5	-1,512600
20,183667	0,5	-1,532050
20,192000	0,5	-1,549300
20,200333	0,5	-1,566750
20,208667	0,5	-1,589400
20,217000	0,5	-1,612600
20,225333	0,5	-1,620000
20,233667	0,5	-1,631350
20,242000	0,5	-1,646050
20,250333	0,5	-1,657450
20,258667	0,5	-1,660050
20,267000	0,5	-1,677400
20,275333	0,5	-1,705550
20,283667	0,5	-1,735950
20,292000	0,5	-1,754850
20,300333	0,5	-1,753050
20,308667	0,5	-1,786350
20,317000	0,5	-1,793000
20,325333	0,5	-1,808050
20,333667	0,5	-1,818900
20,342000	0,5	-1,835350
20,350333	0,5	-1,849500
20,358667	0,5	-1,864050
20,367000	0,5	-1,887300
20,375333	0,5	-1,879500
20,383667	0,5	-1,878600
20,392000	0,5	-1,910500
20,400333	0,5	-1,907850
20,408667	0,5	-1,920500
20,417000	0,5	-1,943950
20,425333	0,5	-1,979050
20,433667	0,5	-2,012100
20,442000	0,5	-2,028100
20,450333	0,5	-2,048450
20,458667	0,5	-2,061900
20,467000	0,5	-2,090500
20,475333	0,5	-2,107450
20,483667	0,5	-2,133750
20,492000	0,5	-2,142500
20,500333	0,5	-2,168550
20,508667	0,5	-2,188150
20,517000	0,5	-2,209100
20,525333	0,5	-2,200000
20,533667	0,5	-2,220900
20,542000	0,5	-2,238750
20,550333	0,5	-2,251750
20,558667	0,5	-2,270900
20,567000	0,5	-2,301550
20,575333	0,5	-2,349400
20,583667	0,5	-2,371950
20,592000	0,5	-2,391950
20,600333	0,5	-2,400000
20,608667	0,5	-2,427950
20,617000	0,5	-2,433550
20,625333	0,5	-2,455200
20,633667	0,5	-2,468350
20,642000	0,5	-2,508650
20,650333	0,5	-2,534650
20,658667	0,5	-2,576200
20,667000	0,5	-2,591550
20,675333	0,5	-2,617950
20,683667	0,5	-2,649700
20,692000	0,5	-2,678200
20,700333	0,5	-2,711800
20,708667	0,5	-2,752800
20,717000	0,5	-2,803550
20,725333	0,5	-2,856600
20,733667	0,5	-2,879850
20,742000	0,5	-2,907350
20,750333	0,5	-2,941200
20,758667	0,5	-2,962750
20,767000	0,5	-2,992750
20,775333	0,5	-2,996050
20,783667	0,5	-3,008950
20,792000	0,5	-3,002950
20,800333	0,5	-3,011800
20,808667	0,5	-3,024750
20,817000	0,5	-3,033750
20,825333	0,5	-3,052050
20,833667	0,5	-3,116700
20,842000	0,5	-3,161800
20,850333	0,5	-3,216150
20,858667	0,5	-3,280000
20,867000	0,5	-3,333700
20,875333	0,5	-3,397400
20,883667	0,5	-3,420000
20,892000	0,5	-3,457550
20,900333	0,5	-3,487850
20,908667	0,5	-3,529800
20,917000	0,5	-3,556450
20,925333	0,5	-3,602100
20,933667	0,5	-3,623000
20,942000	0,5	-3,646650
20,950333	0,5	-3,675100
20,958667	0,5	-3,675350
20,967000	0,5	-3,678000
20,975333	0,5	-3,685900
20,983667	0,5	-3,731350
20,992000	0,5	-3,761900
21,000333	0,5	-3,804800
21,008667	0,5	-3,859450
21,017000	0,5	-3,925800
21,025333	0,5	-3,958150
21,033667	0,5	-3,984750
21,042000	0,5	-4,004850
21,050333	0,5	-4,037600
21,058667	0,5	-4,059300
21,067000	0,5	-4,097550
21,075333	0,5	-4,124400
21,083667	0,5	-4,140850
21,092000	0,5	-4,167600
21,100333	0,5	-4,192650
21,108667	0,5	-4,191400
21,117000	0,5	-4,191200
21,125333	0,5	-4,226350
21,133667	0,5	-4,251400
21,142000	0,5	-4,284900
21,150333	0,5	-4,309150
21,158667	0,5	-4,362750
21,167000	0,5	-4,395450
21,175333	0,5	-4,435050
21,183667	0,5	-4,447500
21,192000	0,5	-4,477950
21,200333	0,5	-4,496400
21,208667	0,5	-4,526500
21,217000	0,5	-4,542800
21,225333	0,5	-4,573800
21,233667	0,5	-4,590700
21,242000	0,5	-4,605400
21,250333	0,5	-4,611100
21,258667	0,5	-4,599550
21,267000	0,5	-4,598800
21,275333	0,5	-4,627200
21,283667	0,5	-4,641650
21,292000	0,5	-4,667650
21,300333	0,5	-4,699400
21,308667	0,5	-4,733900
21,317000	0,5	-4,756500
21,325333	0,5	-4,768750
21,333667	0,5	-4,773500
21,342000	0,5	-4,762550
21,350333	0,5	-4,772200
21,358667	0,5	-4,771800
21,367000	0,5	-4,783800
21,375333	0,5	-4,792850
21,383667	0,5	-4,814650
21,392000	0,5	-4,825150
21,400333	0,5	-4,816300
21,408667	0,5	-4,814550
21,417000	0,5	-4,848900
21,425333	0,5	-4,877600
21,433667	0,5	-4,906500
21,442000	0,5	-4,940350
21,450333	0,5	-4,983900
21,458667	0,5	-5,021300
21,467000	0,5	-5,022800
21,475333	0,5	-5,047700
21,483667	0,5	-5,071500
21,492000	0,5	-5,079400
21,500333	0,5	-5,097750
21,508667	0,5	-5,117950
21,517000	0,5	-5,126200
21,525333	0,5	-5,146200
21,533667	0,5	-5,169050
21,542000	0,5	-5,180450
21,550333	0,5	-5,170000
21,558667	0,5	-5,168300
21,567000	0,5	-5,180600
21,575333	0,5	-5,203550
21,583667	0,5	-5,222200
21,592000	0,5	-5,253250
21,600333	0,5	-5,313900
21,608667	0,5	-5,316300
21,617000	0,5	-5,324600
21,625333	0,5	-5,335100
21,633667	0,5	-5,374500
21,642000	0,5	-5,378400
21,650333	0,5	-5,390600
21,658667	0,5	-5,391350
21,667000	0,5	-5,407100
21,675333	0,5	-5,408150
21,683667	0,5	-5,414000
21,692000	0,5	-5,381800
21,700333	0,5	-5,353300
21,708667	0,5	-5,340850
21,717000	0,5	-5,328600
21,725333	0,5	-5,344700
21,733667	0,5	-5,383550
21,742000	0,5	-5,422000
21,750333	0,5	-5,472250
21,758667	0,5	-5,488700
21,767000	0,5	-5,508750
21,775333	0,5	-5,518850
21,783667	0,5	-5,536900
21,792000	0,5	-5,559100
21,800333	0,5	-5,568950
21,808667	0,5	-5,593850
21,817000	0,5	-5,600800
21,825333	0,5	-5,631350
21,833667	0,5	-5,656450
21,842000	0,5	-5,630450
21,850333	0,5	-5,638800
21,858667	0,5	-5,657850
21,867000	0,5	-5,663650
21,875333	0,5	-5,683400
21,883667	0,5	-5,692100
21,892000	0,5	-5,717750
21,900333	0,5	-5,724650
21,908667	0,5	-5,719450
21,917000	0,5	-5,734700
21,925333	0,5	-5,735400
21,933667	0,5	-5,749050
21,942000	0,5	-5,743900
21,950333	0,5	-5,754500
21,958667	0,5	-5,734300
21,967000	0,5	-5,726350
21,975333	0,5	-5,711350
21,983667	0,5	-5,660900
21,992000	0,5	-5,614750
22,000333	0,5	-5,629800
22,008667	0,5	-5,619800
22,017000	0,5	-5,642350
22,025333	0,5	-5,664400
22,033667	0,5	-5,702750
22,042000	0,5	-5,747450
22,050333	0,5	-5,744050
22,058667	0,5	-5,748450
22,067000	0,5	-5,761650
22,075333	0,5	-5,769750
22,083667	0,5	-5,776250
22,092000	0,5	-5,805250
22,100333	0,5	-5,802900
22,108667	0,5	-5,825700
22,117000	0,5	-5,840350
22,125333	0,5	-5,859850
22,133667	0,5	-5,854700
22,142000	0,5	-5,886200
22,150333	0,5	-5,914700
22,158667	0,5	-5,934550
22,167000	0,5	-5,962600
22,175333	0,5	-5,986400
22,183667	0,5	-6,021500
22,192000	0,5	-6,048350
22,200333	0,5	-6,061900
22,208667	0,5	-6,076350
22,217000	0,5	-6,110600
22,225333	0,5	-6,128800
22,233667	0,5	-6,146300
22,242000	0,5	-6,171050
22,250333	0,5	-6,193650
22,258667	0,5	-6,199200
22,267000	0,5	-6,218500
22,275333	0,5	-6,248100
22,283667	0,5	-6,265100
22,292000	0,5	-6,286200
22,300333	0,5	-6,286500
22,308667	0,5	-6,281800
22,317000	0,5	-6,294450
22,325333	0,5	-6,327500
22,333667	0,5	-6,340900
22,342000	0,5	-6,340700
22,350333	0,5	-6,327300
22,358667	0,5	-6,318850
22,367000	0,5	-6,308450
22,375333	0,5	-6,299500
22,383667	0,5	-6,288900
22,392000	0,5	-6,271100
22,400333	0,5	-6,230550
22,408667	0,5	-6,202400
22,417000	0,5	-6,171250
22,425333	0,5	-6,170350
22,433667	0,5	-6,219450
22,442000	0,5	-6,248800
22,450333	0,5	-6,288700
22,458667	0,5	-6,321100
22,467000	0,5	-6,351300
22,475333	0,5	-6,397950
22,483667	0,5	-6,427750
22,492000	0,5	-6,431900
22,500333	0,5	-6,463400
22,508667	0,5	-6,467950
22,517000	0,5	-6,482200
22,525333	0,5	-6,499250
22,533667	0,5	-6,504050
22,542000	0,5	-6,508150
22,550333	0,5	-6,519050
22,558667	0,5	-6,530750
22,567000	0,5	-6,563350
22,575333	0,5	-6,562850
22,583667	0,5	-6,571250
22,592000	0,5	-6,536750
22,600333	0,5	-6,506100
22,608667	0,5	-6,501200
22,617000	0,5	-6,494900
22,625333	0,5	-6,521850
22,633667	0,5	-6,506750
22,642000	0,5	-6,493750
22,650333	0,5	-6,479900
22,658667	0,5	-6,466150
22,667000	0,5	-6,437000
22,675333	0,5	-6,434300
22,683667	0,5	-6,420750
22,692000	0,5	-6,413900
22,700333	0,5	-6,415300
22,708667	0,5	-6,436850
22,717000	0,5	-6,484400
22,725333	0,5	-6,485100
22,733667	0,5	-6,478750
22,742000	0,5	-6,484650
22,750333	0,5	-6,507100
22,758667	0,5	-6,537450
22,767000	0,5	-6,570500
22,775333	0,5	-6,593900
22,783667	0,5	-6,598700
22,792000	0,5	-6,614000
22,800333	0,5	-6,640800
22,808667	0,5	-6,639850
22,817000	0,5	-6,657950
22,825333	0,5	-6,656000
22,833667	0,5	-6,679050
22,842000	0,5	-6,688200
22,850333	0,5	-6,703500
22,858667	0,5	-6,755550
22,867000	0,5	-6,792650
22,875333	0,5	-6,794450
22,883667	0,5	-6,779100
22,892000	0,5	-6,795250
22,900333	0,5	-6,829300
22,908667	0,5	-6,856900
22,917000	0,5	-6,881900
22,925333	0,5	-6,906650
22,933667	0,5	-6,921600
22,942000	0,5	-6,954500
22,950333	0,5	-6,977550
22,958667	0,5	-6,990300
22,967000	0,5	-6,997250
22,975333	0,5	-6,998900
22,983667	0,5	-7,005550
22,992000	0,5	-6,993950
23,000333	0,5	-6,985650
23,008667	0,5	-6,964950
23,017000	0,5	-6,952500
23,025333	0,5	-6,942150
23,033667	0,5	-6,960300
23,042000	0,5	-6,926300
23,050333	0,5	-6,909550
23,058667	0,5	-6,883700
23,067000	0,5	-6,844150
23,075333	0,5	-6,847100
23,083667	0,5	-6,806450
23,092000	0,5	-6,785200
23,100333	0,5	-6,745500
23,108667	0,5	-6,705400
23,117000	0,5	-6,657550
23,125333	0,5	-6,606700
23,133667	0,5	-6,539900
23,142000	0,5	-6,476200
23,150333	0,5	-6,374350
23,158667	0,5	-6,298650
23,167000	0,5	-6,234150
23,175333	0,5	-6,206750
23,183667	0,5	-6,151600
23,192000	0,5	-6,080100
23,200333	0,5	-5,989100
23,208667	0,5	-5,911750
23,217000	0,5	-5,852350
23,225333	0,5	-5,792350
23,233667	0,5	-5,721350
23,242000	0,5	-5,649350
23,250333	0,5	-5,585950
23,258667	0,5	-5,506950
23,267000	0,5	-5,433500
23,275333	0,5	-5,351350
23,283667	0,5	-5,274300
23,292000	0,5	-5,180600
23,300333	0,5	-5,060750
23,308667	0,5	-4,977100
23,317000	0,5	-4,878650
23,325333	0,5	-4,842350
23,333667	0,5	-4,781850
23,342000	0,5	-4,699950
23,350333	0,5	-4,608000
23,358667	0,5	-4,540200
23,367000	0,5	-4,479850
23,375333	0,5	-4,415850
23,383667	0,5	-4,354850
23,392000	0,5	-4,277100
23,400333	0,5	-4,224800
23,408667	0,5	-4,153800
23,417000	0,5	-4,089600
23,425333	0,5	-4,025500
23,433667	0,5	-3,945800
23,442000	0,5	-3,866000
23,450333	0,5	-3,847650
23,458667	0,5	-3,736850
23,467000	0,5	-3,643650
23,475333	0,5	-3,617150
23,483667	0,5	-3,562550
23,492000	0,5	-3,501400
23,500333	0,5	-3,433900
23,508667	0,5	-3,385050
23,517000	0,5	-3,347850
23,525333	0,5	-3,308500
23,533667	0,5	-3,256400
23,542000	0,5	-3,217400
23,550333	0,5	-3,176250
23,558667	0,5	-3,135000
23,567000	0,5	-3,094900
23,575333	0,5	-3,054200
23,583667	0,5	-3,011000
23,592000	0,5	-2,999100
23,600333	0,5	-2,997450
23,608667	0,5	-2,942450
23,617000	0,5	-2,853850
23,625333	0,5	-2,821150
23,633667	0,5	-2,790900
23,642000	0,5	-2,752750
23,650333	0,5	-2,717400
23,658667	0,5	-2,687550
23,667000	0,5	-2,662800
23,675333	0,5	-2,636100
23,683667	0,5	-2,608750
23,692000	0,5	-2,575950
23,700333	0,5	-2,552100
23,708667	0,5	-2,518600
23,717000	0,5	-2,497150
23,725333	0,5	-2,467800
23,733667	0,5	-2,434950
23,742000	0,5	-2,554200
23,750333	0,5	-2,500750
23,758667	0,5	-2,451400
23,767000	0,5	-2,369650
23,775333	0,5	-2,338800
23,783667	0,5	-2,306500
23,792000	0,5	-2,290300
23,800333	0,5	-2,273150
23,808667	0,5	-2,246350
23,817000	0,5	-2,221550
23,825333	0,5	-2,197350
23,833667	0,5	-2,183100
23,842000	0,5	-2,157150
23,850333	0,5	-2,133850
23,858667	0,5	-2,111750
23,867000	0,5	-2,080750
23,875333	0,5	-2,051850
23,883667	0,5	-2,060250
23,892000	0,5	-2,194300
23,900333	0,5	-2,128650
23,908667	0,5	-2,064450
23,917000	0,5	-1,995600
23,925333	0,5	-1,957300
23,933667	0,5	-1,924750
23,942000	0,5	-1,908950
23,950333	0,5	-1,890350
23,958667	0,5	-1,869550
23,967000	0,5	-1,835950
23,975333	0,5	-1,821050
23,983667	0,5	-1,802850
23,992000	0,5	-1,780500
24,000333	0,5	-1,756450
24,008667	0,5	-1,730750
24,017000	0,5	-1,708550
24,025333	0,5	-1,684000
24,033667	0,5	-1,791300
24,042000	0,5	-1,819200
24,050333	0,5	-1,767050
24,058667	0,5	-1,700400
24,067000	0,5	-1,638950
24,075333	0,5	-1,609600
24,083667	0,5	-1,582500
24,092000	0,5	-1,568200
24,100333	0,5	-1,556450
24,108667	0,5	-1,521900
24,117000	0,5	-1,495500
24,125333	0,5	-1,461500
24,133667	0,5	-1,443750
24,142000	0,5	-1,420050
24,150333	0,5	-1,398950
24,158667	0,5	-1,370250
24,167000	0,5	-1,346650
24,175333	0,5	-1,327150
24,183667	0,5	-1,444800
24,192000	0,5	-1,418050
24,200333	0,5	-1,389450
24,208667	0,5	-1,318650
24,217000	0,5	-1,275950
24,225333	0,5	-1,249550
24,233667	0,5	-1,245450
24,242000	0,5	-1,251500
24,250333	0,5	-1,211250
24,258667	0,5	-1,189450
24,267000	0,5	-1,164400
24,275333	0,5	-1,150150
24,283667	0,5	-1,125150
24,292000	0,5	-1,110400
24,300333	0,5	-1,085700
24,308667	0,5	-1,058550
24,317000	0,5	-1,036700
24,325333	0,5	-1,063150
24,333667	0,5	-1,123650
24,342000	0,5	-1,119950
24,350333	0,5	-1,062000
24,358667	0,5	-1,014400
24,367000	0,5	-0,976900
24,375333	0,5	-0,956950
24,383667	0,5	-0,947750
24,392000	0,5	-0,940700
24,400333	0,5	-0,922400
24,408667	0,5	-0,900850
24,417000	0,5	-0,882950
24,425333	0,5	-0,875550
24,433667	0,5	-0,861250
24,442000	0,5	-0,857300
24,450333	0,5	-0,836300
24,458667	0,5	-0,813200
24,467000	0,5	-0,804100
24,475333	0,5	-0,865050
24,483667	0,5	-0,865250
24,492000	0,5	-0,849100
24,500333	0,5	-0,805850
24,508667	0,5	-0,774200
24,517000	0,5	-0,753600
24,525333	0,5	-0,741400
24,533667	0,5	-0,756700
24,542000	0,5	-0,733650
24,550333	0,5	-0,715300
24,558667	0,5	-0,692800
24,567000	0,5	-0,681250
24,575333	0,5	-0,669650
24,583667	0,5	-0,658450
24,592000	0,5	-0,650100
24,600333	0,5	-0,632800
24,608667	0,5	-0,619400
24,617000	0,5	-0,609850
24,625333	0,5	-0,680750
24,633667	0,5	-0,660700
24,642000	0,5	-0,656450
24,650333	0,5	-0,622350
24,658667	0,5	-0,606800
24,667000	0,5	-0,589650
24,675333	0,5	-0,590350
24,683667	0,5	-0,594300
24,692000	0,5	-0,576950
24,700333	0,5	-0,566300
24,708667	0,5	-0,558750
24,717000	0,5	-0,548350
24,725333	0,5	-0,545150
24,733667	0,5	-0,535950
24,742000	0,5	-0,530800
24,750333	0,5	-0,518300
24,758667	0,5	-0,511400
24,767000	0,5	-0,530150
24,775333	0,5	-0,541600
24,783667	0,5	-0,531750
24,792000	0,5	-0,511450
24,800333	0,5	-0,487050
24,808667	0,5	-0,478850
24,817000	0,5	-0,477450
24,825333	0,5	-0,478200
24,833667	0,5	-0,486850
24,842000	0,5	-0,478600
24,850333	0,5	-0,471500
24,858667	0,5	-0,463350
24,867000	0,5	-0,462500
24,875333	0,5	-0,460600
24,883667	0,5	-0,458000
24,892000	0,5	-0,457300
24,900333	0,5	-0,445900
24,908667	0,5	-0,444650
24,917000	0,5	-0,472050
24,925333	0,5	-0,466150
24,933667	0,5	-0,456750
24,942000	0,5	-0,442150
24,950333	0,5	-0,428300
24,958667	0,5	-0,422650
24,967000	0,5	-0,417600
24,975333	0,5	-0,422650
24,983667	0,5	-0,418200
24,992000	0,5	-0,409750
25,000333	0,5	-0,408400
25,008667	0,5	-0,410400
25,017000	0,5	-0,408550
25,025333	0,5	-0,400950
25,033667	0,5	-0,399650
25,042000	0,5	-0,401700
25,050333	0,5	-0,394200
25,058667	0,5	-0,398800
25,067000	0,5	-0,416950
25,075333	0,5	-0,418950
25,083667	0,5	-0,409300
25,092000	0,5	-0,402500
25,100333	0,5	-0,398200
25,108667	0,5	-0,399300
25,117000	0,5	-0,401600
25,125333	0,5	-0,398700
25,133667	0,5	-0,398000
25,142000	0,5	-0,399550
25,150333	0,5	-0,393800
25,158667	0,5	-0,391300
25,167000	0,5	-0,390850
25,175333	0,5	-0,382450
25,183667	0,5	-0,384100
25,192000	0,5	-0,379950
25,200333	0,5	-0,379600
25,208667	0,5	-0,381150
25,217000	0,5	-0,378900
25,225333	0,5	-0,383750
25,233667	0,5	-0,383600
25,242000	0,5	-0,383750
25,250333	0,5	-0,386900
25,258667	0,5	-0,384850
25,267000	0,5	-0,388800
25,275333	0,5	-0,391150
25,283667	0,5	-0,388750
25,292000	0,5	-0,389150
25,300333	0,5	-0,392350
25,308667	0,5	-0,391350
25,317000	0,5	-0,393950
25,325333	0,5	-0,391900
25,333667	0,5	-0,386000
25,342000	0,5	-0,390400
25,350333	0,5	-0,385750
25,358667	0,5	-0,385400
25,367000	0,5	-0,381000
25,375333	0,5	-0,376050
25,383667	0,5	-0,377900
25,392000	0,5	-0,380850
25,400333	0,5	-0,383400
25,408667	0,5	-0,382650
25,417000	0,5	-0,384450
25,425333	0,5	-0,384300
25,433667	0,5	-0,390200
25,442000	0,5	-0,392750
25,450333	0,5	-0,394800
25,458667	0,5	-0,396700
25,467000	0,5	-0,396600
25,475333	0,5	-0,397650
25,483667	0,5	-0,399850
25,492000	0,5	-0,397750
25,500333	0,5	-0,398600
25,508667	0,5	-0,397600
25,517000	0,5	-0,391900
25,525333	0,5	-0,388300
25,533667	0,5	-0,390750
25,542000	0,5	-0,398250
25,550333	0,5	-0,395100
25,558667	0,5	-0,395250
25,567000	0,5	-0,386700
25,575333	0,5	-0,400300
25,583667	0,5	-0,397800
25,592000	0,5	-0,400700
25,600333	0,5	-0,403550
25,608667	0,5	-0,403350
25,617000	0,5	-0,406100
25,625333	0,5	-0,405750
25,633667	0,5	-0,410000
25,642000	0,5	-0,407300
25,650333	0,5	-0,404850
25,658667	0,5	-0,404200
25,667000	0,5	-0,406550
25,675333	0,5	-0,405400
25,683667	0,5	-0,413600
25,692000	0,5	-0,413550
25,700333	0,5	-0,416800
25,708667	0,5	-0,408850
25,717000	0,5	-0,404950
25,725333	0,5	-0,409700
25,733667	0,5	-0,409050
25,742000	0,5	-0,407650
25,750333	0,5	-0,412200
25,758667	0,5	-0,413600
25,767000	0,5	-0,413850
25,775333	0,5	-0,414500
25,783667	0,5	-0,415750
25,792000	0,5	-0,415150
25,800333	0,5	-0,408000
25,808667	0,5	-0,410150
25,817000	0,5	-0,406350
25,825333	0,5	-0,413750
25,833667	0,5	-0,418250
25,842000	0,5	-0,418050
25,850333	0,5	-0,417150
25,858667	0,5	-0,409550
25,867000	0,5	-0,400750
25,875333	0,5	-0,412550
25,883667	0,5	-0,410650
25,892000	0,5	-0,414100
25,900333	0,5	-0,412350
25,908667	0,5	-0,413850
25,917000	0,5	-0,410000
25,925333	0,5	-0,413200
25,933667	0,5	-0,410250
25,942000	0,5	-0,404950
25,950333	0,5	-0,401600
25,958667	0,5	-0,401900
25,967000	0,5	-0,390550
25,975333	0,5	-0,401350
25,983667	0,5	-0,407800
25,992000	0,5	-0,403600
26,000333	0,5	-0,400500
