File Path	chrom://chromeleon01/ikbm_chromeleon/2022/ICS-5000/ED1/Esteban/20220427_Cell_Amandas_mutants.seq/493.smp/ED_1.channel/ED_1.chm
Channel	ED_1

Injection Information:
Data Vault	ikbm_chromeleon
Injection	EG_BMCC_3b
Injection Number	58
Position	GB2
Comment	
Processing Method	Stop sequence after Cell Death
Instrument Method	ICS5000_PA200_FullNative_Ox_26min_ED1
Type	Unknown
Status	Finished
Injection Date	28.04.2022
Injection Time	16:11:20
Injection Volume (µl)	5,0
Dilution Factor	1,0000
Weight	1,0000

Chromatogram Data Information:
Time Min. (min)	0,000167
Time Max. (min)	26,000167
Data Points	3121
Detector	EDet1
Generating Data System	Chromeleon 7.2.9.11323
Exporting Data System	Chromeleon 7.2.9.0
Operator	Instrument Controller
Signal Quantity	
Signal Unit	nC
Signal Min.	-8,204950
Signal Max.	1 538,838023
Channel	ED_1
Driver Name	DC-5000
Channel Type	Evaluation
Min. Step (s)	0,5
Max. Step (s)	0,5
Average Step (s)	0,5

Signal Parameter Information:
Signal Info	

Chromatogram Data:
Time (min)	Step (s)	Value (nC)
0,000167	n.a.	-0,060100
0,008500	0,5	-0,098000
0,016833	0,5	-0,087400
0,025167	0,5	-0,027850
0,033500	0,5	-0,016600
0,041833	0,5	-0,006400
0,050167	0,5	-0,007750
0,058500	0,5	0,002250
0,066833	0,5	-0,005800
0,075167	0,5	-0,000550
0,083500	0,5	-0,005300
0,091833	0,5	-0,006250
0,100167	0,5	-0,007750
0,108500	0,5	-0,012250
0,116833	0,5	-0,037200
0,125167	0,5	-0,002900
0,133500	0,5	-0,007350
0,141833	0,5	-0,025200
0,150167	0,5	-0,029300
0,158500	0,5	-0,023750
0,166833	0,5	0,013300
0,175167	0,5	0,038050
0,183500	0,5	0,039600
0,191833	0,5	0,026950
0,200167	0,5	0,026700
0,208500	0,5	0,022550
0,216833	0,5	0,020500
0,225167	0,5	0,021500
0,233500	0,5	0,017400
0,241833	0,5	0,012150
0,250167	0,5	0,013300
0,258500	0,5	-0,000300
0,266833	0,5	-0,010550
0,275167	0,5	0,001300
0,283500	0,5	0,000150
0,291833	0,5	-0,022250
0,300167	0,5	0,009350
0,308500	0,5	0,064150
0,316833	0,5	0,082150
0,325167	0,5	0,039650
0,333500	0,5	0,013150
0,341833	0,5	0,006300
0,350167	0,5	0,020900
0,358500	0,5	0,008250
0,366833	0,5	0,015250
0,375167	0,5	0,010650
0,383500	0,5	-0,001200
0,391833	0,5	-0,000850
0,400167	0,5	-0,006500
0,408500	0,5	-0,005750
0,416833	0,5	-0,012000
0,425167	0,5	0,040950
0,433500	0,5	0,006400
0,441833	0,5	-0,005150
0,450167	0,5	-0,004350
0,458500	0,5	0,014150
0,466833	0,5	0,046050
0,475167	0,5	0,037350
0,483500	0,5	0,019450
0,491833	0,5	0,036600
0,500167	0,5	0,028500
0,508500	0,5	0,032500
0,516833	0,5	0,030150
0,525167	0,5	0,047750
0,533500	0,5	0,040100
0,541833	0,5	0,038150
0,550167	0,5	0,043000
0,558500	0,5	0,020350
0,566833	0,5	0,031600
0,575167	0,5	0,054700
0,583500	0,5	0,030950
0,591833	0,5	0,023350
0,600167	0,5	0,044250
0,608500	0,5	0,061100
0,616833	0,5	0,106250
0,625167	0,5	0,088450
0,633500	0,5	0,094900
0,641833	0,5	0,086050
0,650167	0,5	0,097050
0,658500	0,5	0,095300
0,666833	0,5	0,100950
0,675167	0,5	0,093250
0,683500	0,5	0,096500
0,691833	0,5	0,097900
0,700167	0,5	0,090150
0,708500	0,5	0,074350
0,716833	0,5	0,094200
0,725167	0,5	0,106100
0,733500	0,5	0,100700
0,741833	0,5	0,092250
0,750167	0,5	0,110100
0,758500	0,5	0,149350
0,766833	0,5	0,162800
0,775167	0,5	0,155200
0,783500	0,5	0,146650
0,791833	0,5	0,157850
0,800167	0,5	0,142550
0,808500	0,5	0,155600
0,816833	0,5	0,152950
0,825167	0,5	0,163600
0,833500	0,5	0,155350
0,841833	0,5	0,162300
0,850167	0,5	0,162850
0,858500	0,5	0,153200
0,866833	0,5	0,174500
0,875167	0,5	0,163450
0,883500	0,5	0,150600
0,891833	0,5	0,156850
0,900167	0,5	0,177200
0,908500	0,5	0,221900
0,916833	0,5	0,238150
0,925167	0,5	0,233600
0,933500	0,5	0,237050
0,941833	0,5	0,233350
0,950167	0,5	0,234400
0,958500	0,5	0,229900
0,966833	0,5	0,244900
0,975167	0,5	0,232000
0,983500	0,5	0,242800
0,991833	0,5	0,235300
1,000167	0,5	0,226500
1,008500	0,5	0,220200
1,016833	0,5	0,255250
1,025167	0,5	0,240800
1,033500	0,5	0,250400
1,041833	0,5	0,255250
1,050167	0,5	0,287450
1,058500	0,5	0,318750
1,066833	0,5	0,320200
1,075167	0,5	0,318250
1,083500	0,5	0,326600
1,091833	0,5	0,326100
1,100167	0,5	0,328350
1,108500	0,5	0,333750
1,116833	0,5	0,338600
1,125167	0,5	0,345150
1,133500	0,5	0,353250
1,141833	0,5	0,360700
1,150167	0,5	0,349900
1,158500	0,5	0,374450
1,166833	0,5	0,382700
1,175167	0,5	0,375850
1,183500	0,5	0,375400
1,191833	0,5	0,396550
1,200167	0,5	0,429250
1,208500	0,5	0,469850
1,216833	0,5	0,479200
1,225167	0,5	0,488950
1,233500	0,5	0,487700
1,241833	0,5	0,486550
1,250167	0,5	0,486950
1,258500	0,5	0,500850
1,266833	0,5	0,505350
1,275167	0,5	0,510200
1,283500	0,5	0,521750
1,291833	0,5	0,523950
1,300167	0,5	0,528250
1,308500	0,5	0,571300
1,316833	0,5	0,566800
1,325167	0,5	0,558750
1,333500	0,5	0,574300
1,341833	0,5	0,583750
1,350167	0,5	0,633000
1,358500	0,5	0,641700
1,366833	0,5	0,648650
1,375167	0,5	0,652450
1,383500	0,5	0,664100
1,391833	0,5	0,661300
1,400167	0,5	0,670650
1,408500	0,5	0,673600
1,416833	0,5	0,684350
1,425167	0,5	0,685100
1,433500	0,5	0,689800
1,441833	0,5	0,698350
1,450167	0,5	0,703650
1,458500	0,5	0,727800
1,466833	0,5	0,709600
1,475167	0,5	0,698900
1,483500	0,5	0,700300
1,491833	0,5	0,721800
1,500167	0,5	0,750900
1,508500	0,5	0,751450
1,516833	0,5	0,744700
1,525167	0,5	0,751150
1,533500	0,5	0,739100
1,541833	0,5	0,740000
1,550167	0,5	0,730400
1,558500	0,5	0,728550
1,566833	0,5	0,711200
1,575167	0,5	0,617500
1,583500	0,5	0,233500
1,591833	0,5	-0,640500
1,600167	0,5	-1,180900
1,608500	0,5	0,087750
1,616833	0,5	2,968700
1,625167	0,5	6,194150
1,633500	0,5	9,582650
1,641833	0,5	13,145250
1,650167	0,5	16,073750
1,658500	0,5	17,332850
1,666833	0,5	17,013650
1,675167	0,5	15,820900
1,683500	0,5	14,382000
1,691833	0,5	12,933750
1,700167	0,5	11,670500
1,708500	0,5	10,710100
1,716833	0,5	10,300900
1,725167	0,5	10,520700
1,733500	0,5	10,791250
1,741833	0,5	10,293400
1,750167	0,5	9,167750
1,758500	0,5	7,966950
1,766833	0,5	7,118050
1,775167	0,5	6,723600
1,783500	0,5	6,894150
1,791833	0,5	7,727400
1,800167	0,5	8,982050
1,808500	0,5	9,998750
1,816833	0,5	10,291600
1,825167	0,5	9,993900
1,833500	0,5	9,426250
1,841833	0,5	8,796350
1,850167	0,5	8,181200
1,858500	0,5	7,625250
1,866833	0,5	7,115100
1,875167	0,5	6,693350
1,883500	0,5	6,331300
1,891833	0,5	6,000850
1,900167	0,5	5,719750
1,908500	0,5	5,412300
1,916833	0,5	5,157400
1,925167	0,5	4,928950
1,933500	0,5	4,756350
1,941833	0,5	4,671250
1,950167	0,5	4,611150
1,958500	0,5	4,579700
1,966833	0,5	4,634850
1,975167	0,5	5,160350
1,983500	0,5	7,101950
1,991833	0,5	12,501650
2,000167	0,5	24,850950
2,008500	0,5	51,824401
2,016833	0,5	113,667752
2,025167	0,5	237,331454
2,033500	0,5	396,042156
2,041833	0,5	484,401907
2,050167	0,5	448,780407
2,058500	0,5	346,162355
2,066833	0,5	250,985254
2,075167	0,5	186,663553
2,083500	0,5	145,633602
2,091833	0,5	117,908752
2,100167	0,5	97,958501
2,108500	0,5	83,013651
2,116833	0,5	71,600651
2,125167	0,5	62,761601
2,133500	0,5	55,913801
2,141833	0,5	50,515601
2,150167	0,5	46,261051
2,158500	0,5	42,925501
2,166833	0,5	40,037501
2,175167	0,5	37,155001
2,183500	0,5	34,337201
2,191833	0,5	31,950400
2,200167	0,5	30,046100
2,208500	0,5	28,516250
2,216833	0,5	27,286500
2,225167	0,5	26,277450
2,233500	0,5	25,476050
2,241833	0,5	24,841250
2,250167	0,5	24,260300
2,258500	0,5	23,741100
2,266833	0,5	23,244250
2,275167	0,5	22,806800
2,283500	0,5	22,412700
2,291833	0,5	22,063100
2,300167	0,5	21,747650
2,308500	0,5	21,456050
2,316833	0,5	21,223200
2,325167	0,5	20,993500
2,333500	0,5	20,793950
2,341833	0,5	20,656000
2,350167	0,5	20,501600
2,358500	0,5	20,374500
2,366833	0,5	20,311050
2,375167	0,5	20,286600
2,383500	0,5	20,341150
2,391833	0,5	20,446700
2,400167	0,5	20,634350
2,408500	0,5	20,701150
2,416833	0,5	20,503800
2,425167	0,5	20,126600
2,433500	0,5	19,887800
2,441833	0,5	19,767800
2,450167	0,5	19,708300
2,458500	0,5	19,668600
2,466833	0,5	19,630450
2,475167	0,5	19,591450
2,483500	0,5	19,556750
2,491833	0,5	19,506950
2,500167	0,5	19,441850
2,508500	0,5	19,390100
2,516833	0,5	19,375650
2,525167	0,5	19,409550
2,533500	0,5	19,500900
2,541833	0,5	19,687300
2,550167	0,5	20,068350
2,558500	0,5	20,813850
2,566833	0,5	22,087000
2,575167	0,5	24,100000
2,583500	0,5	27,169050
2,591833	0,5	32,193450
2,600167	0,5	41,021751
2,608500	0,5	56,025601
2,616833	0,5	78,860151
2,625167	0,5	111,743202
2,633500	0,5	163,398602
2,641833	0,5	265,036504
2,650167	0,5	483,991007
2,658500	0,5	837,364812
2,666833	0,5	1 179,305118
2,675167	0,5	1 415,874571
2,683500	0,5	1 529,519873
2,691833	0,5	1 538,838023
2,700167	0,5	1 475,690422
2,708500	0,5	1 366,729970
2,716833	0,5	1 231,365668
2,725167	0,5	1 085,758866
2,733500	0,5	940,083414
2,741833	0,5	795,199962
2,750167	0,5	660,639660
2,758500	0,5	546,610458
2,766833	0,5	459,676407
2,775167	0,5	396,026606
2,783500	0,5	353,935355
2,791833	0,5	327,666305
2,800167	0,5	312,283905
2,808500	0,5	303,148355
2,816833	0,5	296,521854
2,825167	0,5	289,438454
2,833500	0,5	280,024354
2,841833	0,5	267,415354
2,850167	0,5	251,357904
2,858500	0,5	232,075903
2,866833	0,5	210,587353
2,875167	0,5	188,598903
2,883500	0,5	167,748902
2,891833	0,5	149,128702
2,900167	0,5	133,070002
2,908500	0,5	119,361702
2,916833	0,5	107,518752
2,925167	0,5	97,170601
2,933500	0,5	88,096451
2,941833	0,5	80,024851
2,950167	0,5	72,941951
2,958500	0,5	66,734601
2,966833	0,5	61,300351
2,975167	0,5	56,528401
2,983500	0,5	52,221401
2,991833	0,5	48,359651
3,000167	0,5	44,863051
3,008500	0,5	41,719901
3,016833	0,5	38,865001
3,025167	0,5	36,297301
3,033500	0,5	33,959651
3,041833	0,5	31,829900
3,050167	0,5	29,905500
3,058500	0,5	28,133600
3,066833	0,5	26,511550
3,075167	0,5	25,018750
3,083500	0,5	23,650750
3,091833	0,5	22,349150
3,100167	0,5	21,182900
3,108500	0,5	20,112100
3,116833	0,5	19,167550
3,125167	0,5	18,299250
3,133500	0,5	17,493000
3,141833	0,5	16,776900
3,150167	0,5	16,166200
3,158500	0,5	15,643700
3,166833	0,5	15,239950
3,175167	0,5	14,986000
3,183500	0,5	14,966200
3,191833	0,5	15,323150
3,200167	0,5	16,250300
3,208500	0,5	17,884350
3,216833	0,5	20,197450
3,225167	0,5	22,882950
3,233500	0,5	25,355100
3,241833	0,5	27,027650
3,250167	0,5	27,593200
3,258500	0,5	27,026600
3,266833	0,5	25,561900
3,275167	0,5	23,494350
3,283500	0,5	21,130700
3,291833	0,5	18,782200
3,300167	0,5	16,592600
3,308500	0,5	14,694750
3,316833	0,5	13,089700
3,325167	0,5	11,773950
3,333500	0,5	10,688700
3,341833	0,5	9,809800
3,350167	0,5	9,087750
3,358500	0,5	8,468250
3,366833	0,5	7,954500
3,375167	0,5	7,540800
3,383500	0,5	7,159750
3,391833	0,5	6,839900
3,400167	0,5	6,574950
3,408500	0,5	6,371400
3,416833	0,5	6,221700
3,425167	0,5	6,076650
3,433500	0,5	5,959550
3,441833	0,5	5,856350
3,450167	0,5	5,770500
3,458500	0,5	5,666900
3,466833	0,5	5,571000
3,475167	0,5	5,451850
3,483500	0,5	5,339850
3,491833	0,5	5,221150
3,500167	0,5	5,122200
3,508500	0,5	5,003200
3,516833	0,5	4,929450
3,525167	0,5	4,851250
3,533500	0,5	4,760150
3,541833	0,5	4,676900
3,550167	0,5	4,605800
3,558500	0,5	4,554750
3,566833	0,5	4,483150
3,575167	0,5	4,402200
3,583500	0,5	4,309800
3,591833	0,5	4,222850
3,600167	0,5	4,123300
3,608500	0,5	4,019900
3,616833	0,5	3,920150
3,625167	0,5	3,816900
3,633500	0,5	3,702400
3,641833	0,5	3,602350
3,650167	0,5	3,500300
3,658500	0,5	3,393750
3,666833	0,5	3,304500
3,675167	0,5	3,208300
3,683500	0,5	3,098150
3,691833	0,5	3,010750
3,700167	0,5	2,930550
3,708500	0,5	2,892600
3,716833	0,5	2,823700
3,725167	0,5	2,754000
3,733500	0,5	2,693600
3,741833	0,5	2,639800
3,750167	0,5	2,593550
3,758500	0,5	2,553700
3,766833	0,5	2,537250
3,775167	0,5	2,519750
3,783500	0,5	2,517050
3,791833	0,5	2,516800
3,800167	0,5	2,514900
3,808500	0,5	2,500000
3,816833	0,5	2,517900
3,825167	0,5	2,482950
3,833500	0,5	2,453300
3,841833	0,5	2,416100
3,850167	0,5	2,387600
3,858500	0,5	2,367200
3,866833	0,5	2,316200
3,875167	0,5	2,262950
3,883500	0,5	2,226750
3,891833	0,5	2,179400
3,900167	0,5	2,141600
3,908500	0,5	2,094300
3,916833	0,5	2,057550
3,925167	0,5	2,025750
3,933500	0,5	1,985550
3,941833	0,5	1,961450
3,950167	0,5	1,909900
3,958500	0,5	1,874850
3,966833	0,5	1,857050
3,975167	0,5	1,804200
3,983500	0,5	1,763950
3,991833	0,5	1,735700
4,000167	0,5	1,710900
4,008500	0,5	1,699550
4,016833	0,5	1,655100
4,025167	0,5	1,633450
4,033500	0,5	1,600700
4,041833	0,5	1,573950
4,050167	0,5	1,539650
4,058500	0,5	1,518300
4,066833	0,5	1,481400
4,075167	0,5	1,448500
4,083500	0,5	1,414450
4,091833	0,5	1,369500
4,100167	0,5	1,322450
4,108500	0,5	1,292550
4,116833	0,5	1,254650
4,125167	0,5	1,212000
4,133500	0,5	1,190200
4,141833	0,5	1,163750
4,150167	0,5	1,167900
4,158500	0,5	1,160200
4,166833	0,5	1,145200
4,175167	0,5	1,126300
4,183500	0,5	1,128800
4,191833	0,5	1,130650
4,200167	0,5	1,168850
4,208500	0,5	1,222200
4,216833	0,5	1,319450
4,225167	0,5	1,459250
4,233500	0,5	1,666650
4,241833	0,5	1,943100
4,250167	0,5	2,284700
4,258500	0,5	2,716400
4,266833	0,5	3,213450
4,275167	0,5	3,785800
4,283500	0,5	4,460400
4,291833	0,5	5,253900
4,300167	0,5	6,214350
4,308500	0,5	7,393350
4,316833	0,5	8,881350
4,325167	0,5	10,918350
4,333500	0,5	13,718450
4,341833	0,5	17,636650
4,350167	0,5	22,969400
4,358500	0,5	29,962450
4,366833	0,5	38,565351
4,375167	0,5	48,410101
4,383500	0,5	58,693551
4,391833	0,5	68,351901
4,400167	0,5	76,341251
4,408500	0,5	81,888951
4,416833	0,5	84,495801
4,425167	0,5	84,280501
4,433500	0,5	81,625951
4,441833	0,5	77,134851
4,450167	0,5	71,417601
4,458500	0,5	65,037251
4,466833	0,5	58,507151
4,475167	0,5	52,187651
4,483500	0,5	46,305251
4,491833	0,5	40,940451
4,500167	0,5	36,137251
4,508500	0,5	31,845300
4,516833	0,5	28,040950
4,525167	0,5	24,667950
4,533500	0,5	21,708200
4,541833	0,5	19,097050
4,550167	0,5	16,866800
4,558500	0,5	14,922100
4,566833	0,5	13,252800
4,575167	0,5	11,834750
4,583500	0,5	10,641950
4,591833	0,5	9,643400
4,600167	0,5	8,776900
4,608500	0,5	8,009550
4,616833	0,5	7,326850
4,625167	0,5	6,715400
4,633500	0,5	6,161350
4,641833	0,5	5,647450
4,650167	0,5	5,177350
4,658500	0,5	4,745500
4,666833	0,5	4,348150
4,675167	0,5	4,002950
4,683500	0,5	3,686100
4,691833	0,5	3,403250
4,700167	0,5	3,165900
4,708500	0,5	2,924900
4,716833	0,5	2,715500
4,725167	0,5	2,533550
4,733500	0,5	2,377400
4,741833	0,5	2,266350
4,750167	0,5	2,127750
4,758500	0,5	2,008150
4,766833	0,5	1,888750
4,775167	0,5	1,788500
4,783500	0,5	1,687600
4,791833	0,5	1,598750
4,800167	0,5	1,517700
4,808500	0,5	1,432800
4,816833	0,5	1,362450
4,825167	0,5	1,291050
4,833500	0,5	1,255100
4,841833	0,5	1,193500
4,850167	0,5	1,160550
4,858500	0,5	1,104400
4,866833	0,5	1,059850
4,875167	0,5	1,029450
4,883500	0,5	1,019750
4,891833	0,5	1,019600
4,900167	0,5	0,993550
4,908500	0,5	0,968150
4,916833	0,5	0,965900
4,925167	0,5	0,952250
4,933500	0,5	0,951000
4,941833	0,5	0,944550
4,950167	0,5	0,932700
4,958500	0,5	0,923100
4,966833	0,5	0,915700
4,975167	0,5	0,925150
4,983500	0,5	0,919850
4,991833	0,5	0,922100
5,000167	0,5	0,927050
5,008500	0,5	0,911000
5,016833	0,5	0,894850
5,025167	0,5	0,902700
5,033500	0,5	0,912550
5,041833	0,5	0,934600
5,050167	0,5	0,907050
5,058500	0,5	0,904750
5,066833	0,5	0,892750
5,075167	0,5	0,885800
5,083500	0,5	0,872700
5,091833	0,5	0,871650
5,100167	0,5	0,859150
5,108500	0,5	0,850900
5,116833	0,5	0,848000
5,125167	0,5	0,846650
5,133500	0,5	0,827800
5,141833	0,5	0,849900
5,150167	0,5	0,831700
5,158500	0,5	0,813700
5,166833	0,5	0,807950
5,175167	0,5	0,810000
5,183500	0,5	0,832450
5,191833	0,5	0,831350
5,200167	0,5	0,829700
5,208500	0,5	0,818750
5,216833	0,5	0,828700
5,225167	0,5	0,832150
5,233500	0,5	0,837100
5,241833	0,5	0,851450
5,250167	0,5	0,854750
5,258500	0,5	0,858100
5,266833	0,5	0,858850
5,275167	0,5	0,868200
5,283500	0,5	0,866950
5,291833	0,5	0,867900
5,300167	0,5	0,859650
5,308500	0,5	0,841850
5,316833	0,5	0,833400
5,325167	0,5	0,833950
5,333500	0,5	0,844600
5,341833	0,5	0,852800
5,350167	0,5	0,840450
5,358500	0,5	0,835050
5,366833	0,5	0,828900
5,375167	0,5	0,823900
5,383500	0,5	0,811450
5,391833	0,5	0,810950
5,400167	0,5	0,806550
5,408500	0,5	0,810400
5,416833	0,5	0,811050
5,425167	0,5	0,813400
5,433500	0,5	0,818650
5,441833	0,5	0,840150
5,450167	0,5	0,831700
5,458500	0,5	0,840850
5,466833	0,5	0,845450
5,475167	0,5	0,875850
5,483500	0,5	0,907850
5,491833	0,5	0,919750
5,500167	0,5	0,924500
5,508500	0,5	0,939350
5,516833	0,5	0,942300
5,525167	0,5	0,948950
5,533500	0,5	0,959850
5,541833	0,5	0,973350
5,550167	0,5	0,991150
5,558500	0,5	1,000550
5,566833	0,5	1,017650
5,575167	0,5	1,021450
5,583500	0,5	1,058900
5,591833	0,5	1,074300
5,600167	0,5	1,091450
5,608500	0,5	1,112550
5,616833	0,5	1,139050
5,625167	0,5	1,181100
5,633500	0,5	1,202600
5,641833	0,5	1,211050
5,650167	0,5	1,234250
5,658500	0,5	1,238000
5,666833	0,5	1,241400
5,675167	0,5	1,235750
5,683500	0,5	1,232900
5,691833	0,5	1,218550
5,700167	0,5	1,206350
5,708500	0,5	1,199350
5,716833	0,5	1,179500
5,725167	0,5	1,165250
5,733500	0,5	1,169750
5,741833	0,5	1,144750
5,750167	0,5	1,133500
5,758500	0,5	1,134350
5,766833	0,5	1,129050
5,775167	0,5	1,160950
5,783500	0,5	1,150650
5,791833	0,5	1,157950
5,800167	0,5	1,153100
5,808500	0,5	1,156100
5,816833	0,5	1,152250
5,825167	0,5	1,149250
5,833500	0,5	1,148000
5,841833	0,5	1,147150
5,850167	0,5	1,151450
5,858500	0,5	1,153200
5,866833	0,5	1,151050
5,875167	0,5	1,151600
5,883500	0,5	1,168150
5,891833	0,5	1,166100
5,900167	0,5	1,161250
5,908500	0,5	1,166900
5,916833	0,5	1,186850
5,925167	0,5	1,208950
5,933500	0,5	1,209800
5,941833	0,5	1,204750
5,950167	0,5	1,217250
5,958500	0,5	1,218850
5,966833	0,5	1,231900
5,975167	0,5	1,231250
5,983500	0,5	1,240550
5,991833	0,5	1,240350
6,000167	0,5	1,242550
6,008500	0,5	1,259600
6,016833	0,5	1,253100
6,025167	0,5	1,264550
6,033500	0,5	1,277800
6,041833	0,5	1,274750
6,050167	0,5	1,281150
6,058500	0,5	1,291550
6,066833	0,5	1,313550
6,075167	0,5	1,334400
6,083500	0,5	1,328250
6,091833	0,5	1,343150
6,100167	0,5	1,347850
6,108500	0,5	1,361000
6,116833	0,5	1,357400
6,125167	0,5	1,370500
6,133500	0,5	1,375900
6,141833	0,5	1,387200
6,150167	0,5	1,390550
6,158500	0,5	1,395300
6,166833	0,5	1,398450
6,175167	0,5	1,419800
6,183500	0,5	1,414450
6,191833	0,5	1,420950
6,200167	0,5	1,423650
6,208500	0,5	1,446000
6,216833	0,5	1,471500
6,225167	0,5	1,486100
6,233500	0,5	1,491650
6,241833	0,5	1,497600
6,250167	0,5	1,505000
6,258500	0,5	1,513650
6,266833	0,5	1,522700
6,275167	0,5	1,536100
6,283500	0,5	1,542100
6,291833	0,5	1,550250
6,300167	0,5	1,566150
6,308500	0,5	1,584100
6,316833	0,5	1,606700
6,325167	0,5	1,635300
6,333500	0,5	1,655200
6,341833	0,5	1,676750
6,350167	0,5	1,706200
6,358500	0,5	1,738450
6,366833	0,5	1,786100
6,375167	0,5	1,813000
6,383500	0,5	1,821150
6,391833	0,5	1,827500
6,400167	0,5	1,828050
6,408500	0,5	1,828000
6,416833	0,5	1,822650
6,425167	0,5	1,823500
6,433500	0,5	1,816150
6,441833	0,5	1,810450
6,450167	0,5	1,815400
6,458500	0,5	1,822350
6,466833	0,5	1,832650
6,475167	0,5	1,837300
6,483500	0,5	1,829250
6,491833	0,5	1,837100
6,500167	0,5	1,847450
6,508500	0,5	1,886300
6,516833	0,5	1,917300
6,525167	0,5	1,949700
6,533500	0,5	1,976900
6,541833	0,5	2,011250
6,550167	0,5	2,036950
6,558500	0,5	2,068150
6,566833	0,5	2,088650
6,575167	0,5	2,097050
6,583500	0,5	2,091350
6,591833	0,5	2,076900
6,600167	0,5	2,060000
6,608500	0,5	2,030700
6,616833	0,5	2,020700
6,625167	0,5	1,992700
6,633500	0,5	1,972650
6,641833	0,5	1,952700
6,650167	0,5	1,955150
6,658500	0,5	1,962550
6,666833	0,5	1,971150
6,675167	0,5	1,968500
6,683500	0,5	1,973650
6,691833	0,5	1,978700
6,700167	0,5	1,981300
6,708500	0,5	1,990200
6,716833	0,5	1,998700
6,725167	0,5	1,998900
6,733500	0,5	2,012850
6,741833	0,5	2,029600
6,750167	0,5	2,037600
6,758500	0,5	2,046300
6,766833	0,5	2,080050
6,775167	0,5	2,086700
6,783500	0,5	2,092500
6,791833	0,5	2,100350
6,800167	0,5	2,109300
6,808500	0,5	2,120450
6,816833	0,5	2,112100
6,825167	0,5	2,109100
6,833500	0,5	2,094950
6,841833	0,5	2,089000
6,850167	0,5	2,078400
6,858500	0,5	2,072250
6,866833	0,5	2,067950
6,875167	0,5	2,067600
6,883500	0,5	2,061900
6,891833	0,5	2,063400
6,900167	0,5	2,054850
6,908500	0,5	2,065800
6,916833	0,5	2,072950
6,925167	0,5	2,069000
6,933500	0,5	2,074450
6,941833	0,5	2,088650
6,950167	0,5	2,117250
6,958500	0,5	2,140550
6,966833	0,5	2,158000
6,975167	0,5	2,180750
6,983500	0,5	2,211350
6,991833	0,5	2,232800
7,000167	0,5	2,259950
7,008500	0,5	2,276100
7,016833	0,5	2,287200
7,025167	0,5	2,285300
7,033500	0,5	2,284550
7,041833	0,5	2,273500
7,050167	0,5	2,255800
7,058500	0,5	2,249400
7,066833	0,5	2,234200
7,075167	0,5	2,225600
7,083500	0,5	2,227150
7,091833	0,5	2,251000
7,100167	0,5	2,308950
7,108500	0,5	2,387050
7,116833	0,5	2,487150
7,125167	0,5	2,626000
7,133500	0,5	2,780850
7,141833	0,5	2,930300
7,150167	0,5	3,039650
7,158500	0,5	3,090350
7,166833	0,5	3,061500
7,175167	0,5	2,988800
7,183500	0,5	2,876850
7,191833	0,5	2,755150
7,200167	0,5	2,635200
7,208500	0,5	2,560150
7,216833	0,5	2,494050
7,225167	0,5	2,443650
7,233500	0,5	2,406900
7,241833	0,5	2,380650
7,250167	0,5	2,353700
7,258500	0,5	2,318650
7,266833	0,5	2,286700
7,275167	0,5	2,261250
7,283500	0,5	2,243400
7,291833	0,5	2,234800
7,300167	0,5	2,239600
7,308500	0,5	2,267050
7,316833	0,5	2,311750
7,325167	0,5	2,383250
7,333500	0,5	2,485100
7,341833	0,5	2,600850
7,350167	0,5	2,720500
7,358500	0,5	2,813850
7,366833	0,5	2,848750
7,375167	0,5	2,821450
7,383500	0,5	2,743150
7,391833	0,5	2,638650
7,400167	0,5	2,538850
7,408500	0,5	2,436850
7,416833	0,5	2,366650
7,425167	0,5	2,310400
7,433500	0,5	2,278850
7,441833	0,5	2,267800
7,450167	0,5	2,263900
7,458500	0,5	2,274600
7,466833	0,5	2,303450
7,475167	0,5	2,361900
7,483500	0,5	2,437850
7,491833	0,5	2,536300
7,500167	0,5	2,640500
7,508500	0,5	2,737150
7,516833	0,5	2,794400
7,525167	0,5	2,835100
7,533500	0,5	2,891950
7,541833	0,5	2,956200
7,550167	0,5	3,038150
7,558500	0,5	3,125000
7,566833	0,5	3,186700
7,575167	0,5	3,252450
7,583500	0,5	3,292700
7,591833	0,5	3,340700
7,600167	0,5	3,420050
7,608500	0,5	3,534150
7,616833	0,5	3,664600
7,625167	0,5	3,778600
7,633500	0,5	3,815150
7,641833	0,5	3,778700
7,650167	0,5	3,703200
7,658500	0,5	3,628800
7,666833	0,5	3,576050
7,675167	0,5	3,540700
7,683500	0,5	3,496850
7,691833	0,5	3,420650
7,700167	0,5	3,304750
7,708500	0,5	3,168250
7,716833	0,5	3,045100
7,725167	0,5	2,958300
7,733500	0,5	2,933950
7,741833	0,5	2,989950
7,750167	0,5	3,094200
7,758500	0,5	3,201050
7,766833	0,5	3,274400
7,775167	0,5	3,291900
7,783500	0,5	3,269800
7,791833	0,5	3,231800
7,800167	0,5	3,190600
7,808500	0,5	3,144400
7,816833	0,5	3,088200
7,825167	0,5	3,061750
7,833500	0,5	3,070800
7,841833	0,5	3,139000
7,850167	0,5	3,238650
7,858500	0,5	3,368950
7,866833	0,5	3,485450
7,875167	0,5	3,524100
7,883500	0,5	3,466900
7,891833	0,5	3,319700
7,900167	0,5	3,121600
7,908500	0,5	2,923950
7,916833	0,5	2,749500
7,925167	0,5	2,621250
7,933500	0,5	2,519150
7,941833	0,5	2,455800
7,950167	0,5	2,407000
7,958500	0,5	2,364700
7,966833	0,5	2,339850
7,975167	0,5	2,332000
7,983500	0,5	2,349450
7,991833	0,5	2,360550
8,000167	0,5	2,361000
8,008500	0,5	2,343750
8,016833	0,5	2,318250
8,025167	0,5	2,287850
8,033500	0,5	2,263000
8,041833	0,5	2,236550
8,050167	0,5	2,218950
8,058500	0,5	2,205500
8,066833	0,5	2,214600
8,075167	0,5	2,237550
8,083500	0,5	2,270300
8,091833	0,5	2,317950
8,100167	0,5	2,338550
8,108500	0,5	2,330150
8,116833	0,5	2,292800
8,125167	0,5	2,245950
8,133500	0,5	2,207050
8,141833	0,5	2,175150
8,150167	0,5	2,154900
8,158500	0,5	2,153650
8,166833	0,5	2,168050
8,175167	0,5	2,178150
8,183500	0,5	2,202300
8,191833	0,5	2,215400
8,200167	0,5	2,222200
8,208500	0,5	2,232100
8,216833	0,5	2,250750
8,225167	0,5	2,268500
8,233500	0,5	2,288450
8,241833	0,5	2,314050
8,250167	0,5	2,331950
8,258500	0,5	2,357000
8,266833	0,5	2,383900
8,275167	0,5	2,410550
8,283500	0,5	2,442100
8,291833	0,5	2,482300
8,300167	0,5	2,556200
8,308500	0,5	2,694450
8,316833	0,5	2,907500
8,325167	0,5	3,206850
8,333500	0,5	3,562100
8,341833	0,5	3,897900
8,350167	0,5	4,123300
8,358500	0,5	4,170750
8,366833	0,5	4,047250
8,375167	0,5	3,793250
8,383500	0,5	3,495800
8,391833	0,5	3,216850
8,400167	0,5	2,959650
8,408500	0,5	2,729600
8,416833	0,5	2,541850
8,425167	0,5	2,392400
8,433500	0,5	2,274800
8,441833	0,5	2,181600
8,450167	0,5	2,109800
8,458500	0,5	2,054050
8,466833	0,5	2,009400
8,475167	0,5	1,973350
8,483500	0,5	1,944700
8,491833	0,5	1,918850
8,500167	0,5	1,891600
8,508500	0,5	1,869050
8,516833	0,5	1,848750
8,525167	0,5	1,825100
8,533500	0,5	1,818800
8,541833	0,5	1,812500
8,550167	0,5	1,806800
8,558500	0,5	1,816000
8,566833	0,5	1,819500
8,575167	0,5	1,831650
8,583500	0,5	1,842750
8,591833	0,5	1,843750
8,600167	0,5	1,836400
8,608500	0,5	1,823000
8,616833	0,5	1,812500
8,625167	0,5	1,801550
8,633500	0,5	1,796650
8,641833	0,5	1,786150
8,650167	0,5	1,777950
8,658500	0,5	1,772150
8,666833	0,5	1,762350
8,675167	0,5	1,763700
8,683500	0,5	1,759150
8,691833	0,5	1,762550
8,700167	0,5	1,765700
8,708500	0,5	1,774750
8,716833	0,5	1,789700
8,725167	0,5	1,814750
8,733500	0,5	1,838600
8,741833	0,5	1,867400
8,750167	0,5	1,902000
8,758500	0,5	1,947600
8,766833	0,5	1,992450
8,775167	0,5	2,043600
8,783500	0,5	2,092300
8,791833	0,5	2,130800
8,800167	0,5	2,164150
8,808500	0,5	2,187750
8,816833	0,5	2,196150
8,825167	0,5	2,191300
8,833500	0,5	2,182250
8,841833	0,5	2,175900
8,850167	0,5	2,169600
8,858500	0,5	2,180050
8,866833	0,5	2,201500
8,875167	0,5	2,244900
8,883500	0,5	2,271900
8,891833	0,5	2,297000
8,900167	0,5	2,324300
8,908500	0,5	2,330500
8,916833	0,5	2,320550
8,925167	0,5	2,288350
8,933500	0,5	2,248150
8,941833	0,5	2,196150
8,950167	0,5	2,158050
8,958500	0,5	2,136900
8,966833	0,5	2,152250
8,975167	0,5	2,201200
8,983500	0,5	2,278600
8,991833	0,5	2,381150
9,000167	0,5	2,494750
9,008500	0,5	2,614450
9,016833	0,5	2,709900
9,025167	0,5	2,752800
9,033500	0,5	2,725700
9,041833	0,5	2,636700
9,050167	0,5	2,502550
9,058500	0,5	2,358000
9,066833	0,5	2,227200
9,075167	0,5	2,152000
9,083500	0,5	2,128250
9,091833	0,5	2,140200
9,100167	0,5	2,179650
9,108500	0,5	2,210400
9,116833	0,5	2,209350
9,125167	0,5	2,191050
9,133500	0,5	2,142850
9,141833	0,5	2,083700
9,150167	0,5	2,023550
9,158500	0,5	1,970100
9,166833	0,5	1,925000
9,175167	0,5	1,887050
9,183500	0,5	1,858850
9,191833	0,5	1,834750
9,200167	0,5	1,814300
9,208500	0,5	1,801750
9,216833	0,5	1,792000
9,225167	0,5	1,773850
9,233500	0,5	1,770700
9,241833	0,5	1,774050
9,250167	0,5	1,781550
9,258500	0,5	1,791400
9,266833	0,5	1,807300
9,275167	0,5	1,822450
9,283500	0,5	1,826100
9,291833	0,5	1,834100
9,300167	0,5	1,836300
9,308500	0,5	1,837200
9,316833	0,5	1,836700
9,325167	0,5	1,838550
9,333500	0,5	1,831250
9,341833	0,5	1,824550
9,350167	0,5	1,819550
9,358500	0,5	1,808600
9,366833	0,5	1,797700
9,375167	0,5	1,777100
9,383500	0,5	1,757500
9,391833	0,5	1,733000
9,400167	0,5	1,708900
9,408500	0,5	1,695700
9,416833	0,5	1,682350
9,425167	0,5	1,670550
9,433500	0,5	1,655950
9,441833	0,5	1,640800
9,450167	0,5	1,626600
9,458500	0,5	1,614200
9,466833	0,5	1,604850
9,475167	0,5	1,596950
9,483500	0,5	1,588150
9,491833	0,5	1,585400
9,500167	0,5	1,575300
9,508500	0,5	1,568550
9,516833	0,5	1,563450
9,525167	0,5	1,555750
9,533500	0,5	1,547450
9,541833	0,5	1,542850
9,550167	0,5	1,538350
9,558500	0,5	1,529800
9,566833	0,5	1,530750
9,575167	0,5	1,521550
9,583500	0,5	1,511350
9,591833	0,5	1,503750
9,600167	0,5	1,490950
9,608500	0,5	1,481350
9,616833	0,5	1,472400
9,625167	0,5	1,465300
9,633500	0,5	1,456850
9,641833	0,5	1,449650
9,650167	0,5	1,444100
9,658500	0,5	1,436800
9,666833	0,5	1,428600
9,675167	0,5	1,428000
9,683500	0,5	1,421350
9,691833	0,5	1,424150
9,700167	0,5	1,424050
9,708500	0,5	1,428550
9,716833	0,5	1,436800
9,725167	0,5	1,445350
9,733500	0,5	1,442650
9,741833	0,5	1,438800
9,750167	0,5	1,437050
9,758500	0,5	1,444600
9,766833	0,5	1,457300
9,775167	0,5	1,469600
9,783500	0,5	1,496600
9,791833	0,5	1,527900
9,800167	0,5	1,574800
9,808500	0,5	1,641200
9,816833	0,5	1,720200
9,825167	0,5	1,812900
9,833500	0,5	1,914800
9,841833	0,5	2,016500
9,850167	0,5	2,097250
9,858500	0,5	2,154750
9,866833	0,5	2,173900
9,875167	0,5	2,145450
9,883500	0,5	2,075950
9,891833	0,5	1,983350
9,900167	0,5	1,873500
9,908500	0,5	1,791800
9,916833	0,5	1,728650
9,925167	0,5	1,615650
9,933500	0,5	1,550350
9,941833	0,5	1,506300
9,950167	0,5	1,476100
9,958500	0,5	1,456650
9,966833	0,5	1,449000
9,975167	0,5	1,435750
9,983500	0,5	1,432550
9,991833	0,5	1,425800
10,000167	0,5	1,428200
10,008500	0,5	1,425500
10,016833	0,5	1,431400
10,025167	0,5	1,445500
10,033500	0,5	1,452450
10,041833	0,5	1,469650
10,050167	0,5	1,476050
10,058500	0,5	1,494750
10,066833	0,5	1,505650
10,075167	0,5	1,504650
10,083500	0,5	1,500450
10,091833	0,5	1,485650
10,100167	0,5	1,471950
10,108500	0,5	1,457600
10,116833	0,5	1,436050
10,125167	0,5	1,421800
10,133500	0,5	1,402750
10,141833	0,5	1,389900
10,150167	0,5	1,389500
10,158500	0,5	1,361250
10,166833	0,5	1,355350
10,175167	0,5	1,350400
10,183500	0,5	1,348850
10,191833	0,5	1,356450
10,200167	0,5	1,359200
10,208500	0,5	1,366750
10,216833	0,5	1,372650
10,225167	0,5	1,369550
10,233500	0,5	1,369550
10,241833	0,5	1,370600
10,250167	0,5	1,405000
10,258500	0,5	4,924450
10,266833	0,5	1,345150
10,275167	0,5	1,441350
10,283500	0,5	1,458750
10,291833	0,5	1,463050
10,300167	0,5	1,466300
10,308500	0,5	1,482550
10,316833	0,5	1,502450
10,325167	0,5	1,530600
10,333500	0,5	1,566800
10,341833	0,5	1,606050
10,350167	0,5	1,656150
10,358500	0,5	1,696750
10,366833	0,5	1,739000
10,375167	0,5	1,745050
10,383500	0,5	1,742750
10,391833	0,5	1,711500
10,400167	0,5	1,677100
10,408500	0,5	1,637600
10,416833	0,5	1,587200
10,425167	0,5	1,540400
10,433500	0,5	1,496000
10,441833	0,5	1,463100
10,450167	0,5	1,429400
10,458500	0,5	1,405000
10,466833	0,5	1,385600
10,475167	0,5	1,375400
10,483500	0,5	1,347100
10,491833	0,5	1,335700
10,500167	0,5	1,332000
10,508500	0,5	1,328800
10,516833	0,5	1,320050
10,525167	0,5	1,318150
10,533500	0,5	1,313150
10,541833	0,5	1,312250
10,550167	0,5	1,306300
10,558500	0,5	1,304250
10,566833	0,5	1,300700
10,575167	0,5	1,295900
10,583500	0,5	1,307350
10,591833	0,5	1,291650
10,600167	0,5	1,288350
10,608500	0,5	1,293950
10,616833	0,5	1,291450
10,625167	0,5	1,299250
10,633500	0,5	1,307750
10,641833	0,5	1,313350
10,650167	0,5	1,334300
10,658500	0,5	1,358700
10,666833	0,5	1,381300
10,675167	0,5	1,393350
10,683500	0,5	1,396650
10,691833	0,5	1,383200
10,700167	0,5	1,338750
10,708500	0,5	1,304800
10,716833	0,5	1,246600
10,725167	0,5	1,200650
10,733500	0,5	1,159050
10,741833	0,5	1,128600
10,750167	0,5	1,112950
10,758500	0,5	1,108650
10,766833	0,5	1,117150
10,775167	0,5	1,127900
10,783500	0,5	1,140450
10,791833	0,5	1,160400
10,800167	0,5	1,184200
10,808500	0,5	1,200550
10,816833	0,5	1,225850
10,825167	0,5	1,234750
10,833500	0,5	1,251600
10,841833	0,5	1,258650
10,850167	0,5	1,262400
10,858500	0,5	1,258850
10,866833	0,5	1,248250
10,875167	0,5	1,239900
10,883500	0,5	1,227200
10,891833	0,5	1,214700
10,900167	0,5	1,205800
10,908500	0,5	1,198450
10,916833	0,5	1,186150
10,925167	0,5	1,174250
10,933500	0,5	1,164200
10,941833	0,5	1,159000
10,950167	0,5	1,157050
10,958500	0,5	1,157650
10,966833	0,5	1,154700
10,975167	0,5	1,155800
10,983500	0,5	1,155600
10,991833	0,5	1,152300
11,000167	0,5	1,153300
11,008500	0,5	1,149300
11,016833	0,5	1,156300
11,025167	0,5	1,150700
11,033500	0,5	1,147650
11,041833	0,5	1,141500
11,050167	0,5	1,153400
11,058500	0,5	1,146950
11,066833	0,5	1,138650
11,075167	0,5	1,132650
11,083500	0,5	1,123950
11,091833	0,5	1,129150
11,100167	0,5	1,126400
11,108500	0,5	1,129300
11,116833	0,5	1,132750
11,125167	0,5	1,140350
11,133500	0,5	1,135550
11,141833	0,5	1,148100
11,150167	0,5	1,158900
11,158500	0,5	1,170550
11,166833	0,5	1,189850
11,175167	0,5	1,222450
11,183500	0,5	1,249050
11,191833	0,5	1,303050
11,200167	0,5	1,370550
11,208500	0,5	1,446750
11,216833	0,5	1,516500
11,225167	0,5	1,576150
11,233500	0,5	1,629800
11,241833	0,5	1,642950
11,250167	0,5	1,639200
11,258500	0,5	1,607750
11,266833	0,5	1,570050
11,275167	0,5	1,531350
11,283500	0,5	1,492850
11,291833	0,5	1,461050
11,300167	0,5	1,431150
11,308500	0,5	1,399100
11,316833	0,5	1,377650
11,325167	0,5	1,347550
11,333500	0,5	1,323500
11,341833	0,5	1,306950
11,350167	0,5	1,286250
11,358500	0,5	1,270400
11,366833	0,5	1,259400
11,375167	0,5	1,244350
11,383500	0,5	1,250850
11,391833	0,5	1,255900
11,400167	0,5	1,264850
11,408500	0,5	1,285400
11,416833	0,5	1,319150
11,425167	0,5	1,356100
11,433500	0,5	1,416250
11,441833	0,5	1,486650
11,450167	0,5	1,560150
11,458500	0,5	1,628250
11,466833	0,5	1,677600
11,475167	0,5	1,717150
11,483500	0,5	1,727950
11,491833	0,5	1,738700
11,500167	0,5	1,735700
11,508500	0,5	1,731150
11,516833	0,5	1,718500
11,525167	0,5	1,701800
11,533500	0,5	1,684700
11,541833	0,5	1,653750
11,550167	0,5	1,612450
11,558500	0,5	1,568400
11,566833	0,5	1,529950
11,575167	0,5	1,498650
11,583500	0,5	1,487500
11,591833	0,5	1,498250
11,600167	0,5	1,526100
11,608500	0,5	1,563700
11,616833	0,5	1,611450
11,625167	0,5	1,660000
11,633500	0,5	1,691800
11,641833	0,5	1,721850
11,650167	0,5	1,712450
11,658500	0,5	1,688450
11,666833	0,5	1,639300
11,675167	0,5	1,580500
11,683500	0,5	1,524650
11,691833	0,5	1,463650
11,700167	0,5	1,416250
11,708500	0,5	1,361750
11,716833	0,5	1,324050
11,725167	0,5	1,292300
11,733500	0,5	1,269950
11,741833	0,5	1,249450
11,750167	0,5	1,235500
11,758500	0,5	1,227350
11,766833	0,5	1,219300
11,775167	0,5	1,204900
11,783500	0,5	1,206400
11,791833	0,5	1,204100
11,800167	0,5	1,195150
11,808500	0,5	1,192700
11,816833	0,5	1,190000
11,825167	0,5	1,193850
11,833500	0,5	1,199550
11,841833	0,5	1,208450
11,850167	0,5	1,211900
11,858500	0,5	1,224700
11,866833	0,5	1,232400
11,875167	0,5	1,242300
11,883500	0,5	1,250750
11,891833	0,5	1,263300
11,900167	0,5	1,266050
11,908500	0,5	1,280250
11,916833	0,5	1,297500
11,925167	0,5	1,307200
11,933500	0,5	1,329950
11,941833	0,5	1,368850
11,950167	0,5	1,400350
11,958500	0,5	1,441800
11,966833	0,5	1,479150
11,975167	0,5	1,511050
11,983500	0,5	1,532200
11,991833	0,5	1,531800
12,000167	0,5	1,529750
12,008500	0,5	1,507700
12,016833	0,5	1,479100
12,025167	0,5	1,451250
12,033500	0,5	1,424100
12,041833	0,5	1,402950
12,050167	0,5	1,381350
12,058500	0,5	1,365700
12,066833	0,5	1,352300
12,075167	0,5	1,351850
12,083500	0,5	1,363550
12,091833	0,5	1,362400
12,100167	0,5	1,367050
12,108500	0,5	1,369850
12,116833	0,5	1,378950
12,125167	0,5	1,391300
12,133500	0,5	1,402450
12,141833	0,5	1,417000
12,150167	0,5	1,441450
12,158500	0,5	1,476850
12,166833	0,5	1,530750
12,175167	0,5	1,601800
12,183500	0,5	1,676450
12,191833	0,5	1,744050
12,200167	0,5	1,801200
12,208500	0,5	1,842350
12,216833	0,5	1,851700
12,225167	0,5	1,869000
12,233500	0,5	1,878200
12,241833	0,5	1,886700
12,250167	0,5	1,888350
12,258500	0,5	1,899900
12,266833	0,5	1,920500
12,275167	0,5	1,937650
12,283500	0,5	1,945700
12,291833	0,5	1,954350
12,300167	0,5	1,956900
12,308500	0,5	1,962800
12,316833	0,5	1,970350
12,325167	0,5	1,972900
12,333500	0,5	1,955300
12,341833	0,5	1,928950
12,350167	0,5	1,895750
12,358500	0,5	1,843550
12,366833	0,5	1,783550
12,375167	0,5	1,755650
12,383500	0,5	1,744000
12,391833	0,5	1,737600
12,400167	0,5	1,752500
12,408500	0,5	1,764250
12,416833	0,5	1,787450
12,425167	0,5	1,800200
12,433500	0,5	1,812900
12,441833	0,5	1,810550
12,450167	0,5	1,808950
12,458500	0,5	1,794600
12,466833	0,5	1,779150
12,475167	0,5	1,755000
12,483500	0,5	1,730200
12,491833	0,5	1,685100
12,500167	0,5	1,636600
12,508500	0,5	1,583600
12,516833	0,5	1,504450
12,525167	0,5	1,450600
12,533500	0,5	1,385800
12,541833	0,5	1,337500
12,550167	0,5	1,285900
12,558500	0,5	1,252100
12,566833	0,5	1,229500
12,575167	0,5	1,214450
12,583500	0,5	1,191350
12,591833	0,5	1,176150
12,600167	0,5	1,163300
12,608500	0,5	1,154350
12,616833	0,5	1,145200
12,625167	0,5	1,131750
12,633500	0,5	1,121200
12,641833	0,5	1,111450
12,650167	0,5	1,110000
12,658500	0,5	1,100700
12,666833	0,5	1,093450
12,675167	0,5	1,096750
12,683500	0,5	1,091450
12,691833	0,5	1,081550
12,700167	0,5	1,072350
12,708500	0,5	1,064200
12,716833	0,5	1,069500
12,725167	0,5	1,064800
12,733500	0,5	1,062900
12,741833	0,5	1,049750
12,750167	0,5	1,050900
12,758500	0,5	1,042450
12,766833	0,5	1,036800
12,775167	0,5	1,033200
12,783500	0,5	1,041150
12,791833	0,5	1,057100
12,800167	0,5	1,095550
12,808500	0,5	1,130800
12,816833	0,5	1,188450
12,825167	0,5	1,241650
12,833500	0,5	1,267700
12,841833	0,5	1,264550
12,850167	0,5	1,241100
12,858500	0,5	1,200900
12,866833	0,5	1,149900
12,875167	0,5	1,101750
12,883500	0,5	1,057750
12,891833	0,5	1,005950
12,900167	0,5	0,939600
12,908500	0,5	0,868600
12,916833	0,5	0,810550
12,925167	0,5	0,757050
12,933500	0,5	0,693650
12,941833	0,5	0,636950
12,950167	0,5	0,580450
12,958500	0,5	0,529550
12,966833	0,5	0,449700
12,975167	0,5	0,343050
12,983500	0,5	0,196250
12,991833	0,5	-0,059700
13,000167	0,5	-0,472900
13,008500	0,5	-0,874000
13,016833	0,5	-1,182350
13,025167	0,5	-1,469700
13,033500	0,5	-1,678250
13,041833	0,5	-1,808850
13,050167	0,5	-1,895800
13,058500	0,5	-1,962150
13,066833	0,5	-1,996550
13,075167	0,5	-2,040100
13,083500	0,5	-2,066850
13,091833	0,5	-2,093950
13,100167	0,5	-2,126650
13,108500	0,5	-2,154500
13,116833	0,5	-2,174000
13,125167	0,5	-2,211900
13,133500	0,5	-2,242350
13,141833	0,5	-2,296850
13,150167	0,5	-2,330000
13,158500	0,5	-2,367300
13,166833	0,5	-2,408150
13,175167	0,5	-2,444800
13,183500	0,5	-2,477350
13,191833	0,5	-2,509500
13,200167	0,5	-2,539500
13,208500	0,5	-2,561000
13,216833	0,5	-2,576750
13,225167	0,5	-2,589250
13,233500	0,5	-2,599650
13,241833	0,5	-2,593500
13,250167	0,5	-2,605700
13,258500	0,5	-2,590050
13,266833	0,5	-2,581650
13,275167	0,5	-2,569800
13,283500	0,5	-2,555800
13,291833	0,5	-2,529100
13,300167	0,5	-2,490850
13,308500	0,5	-2,450750
13,316833	0,5	-2,436300
13,325167	0,5	-2,410850
13,333500	0,5	-2,393550
13,341833	0,5	-2,398800
13,350167	0,5	-2,395500
13,358500	0,5	-2,397750
13,366833	0,5	-2,403300
13,375167	0,5	-2,416050
13,383500	0,5	-2,409900
13,391833	0,5	-2,412450
13,400167	0,5	-2,410000
13,408500	0,5	-2,394250
13,416833	0,5	-2,374150
13,425167	0,5	-2,356450
13,433500	0,5	-2,342750
13,441833	0,5	-2,315300
13,450167	0,5	-2,281250
13,458500	0,5	-2,255400
13,466833	0,5	-2,224600
13,475167	0,5	-2,215250
13,483500	0,5	-2,199000
13,491833	0,5	-2,191100
13,500167	0,5	-2,187150
13,508500	0,5	-2,198800
13,516833	0,5	-2,201200
13,525167	0,5	-2,215800
13,533500	0,5	-2,215050
13,541833	0,5	-2,236900
13,550167	0,5	-2,239200
13,558500	0,5	-2,240800
13,566833	0,5	-2,244350
13,575167	0,5	-2,249500
13,583500	0,5	-2,263200
13,591833	0,5	-2,258350
13,600167	0,5	-2,248100
13,608500	0,5	-2,233250
13,616833	0,5	-2,228800
13,625167	0,5	-2,215800
13,633500	0,5	-2,210250
13,641833	0,5	-2,187900
13,650167	0,5	-2,171500
13,658500	0,5	-2,162200
13,666833	0,5	-2,145250
13,675167	0,5	-2,123300
13,683500	0,5	-2,097700
13,691833	0,5	-2,090950
13,700167	0,5	-2,052550
13,708500	0,5	-2,022750
13,716833	0,5	-1,992550
13,725167	0,5	-1,967900
13,733500	0,5	-1,940350
13,741833	0,5	-1,892150
13,750167	0,5	-1,837450
13,758500	0,5	-1,803200
13,766833	0,5	-1,758100
13,775167	0,5	-1,717450
13,783500	0,5	-1,682750
13,791833	0,5	-1,651100
13,800167	0,5	-1,628150
13,808500	0,5	-1,615200
13,816833	0,5	-1,602400
13,825167	0,5	-1,587400
13,833500	0,5	-1,580700
13,841833	0,5	-1,573500
13,850167	0,5	-1,551400
13,858500	0,5	-1,536100
13,866833	0,5	-1,526400
13,875167	0,5	-1,515700
13,883500	0,5	-1,500800
13,891833	0,5	-1,466900
13,900167	0,5	-1,446250
13,908500	0,5	-1,419750
13,916833	0,5	-1,385600
13,925167	0,5	-1,346650
13,933500	0,5	-1,311550
13,941833	0,5	-1,262650
13,950167	0,5	-1,208800
13,958500	0,5	-1,146250
13,966833	0,5	-1,064950
13,975167	0,5	-0,973400
13,983500	0,5	-0,893100
13,991833	0,5	-0,802050
14,000167	0,5	-0,718200
14,008500	0,5	-0,655150
14,016833	0,5	-0,603800
14,025167	0,5	-0,571150
14,033500	0,5	-0,546400
14,041833	0,5	-0,530700
14,050167	0,5	-0,529900
14,058500	0,5	-0,528750
14,066833	0,5	-0,514750
14,075167	0,5	-0,502450
14,083500	0,5	-0,466000
14,091833	0,5	-0,412400
14,100167	0,5	-0,326350
14,108500	0,5	-0,237150
14,116833	0,5	-0,117850
14,125167	0,5	-0,022100
14,133500	0,5	0,070300
14,141833	0,5	0,133900
14,150167	0,5	0,177900
14,158500	0,5	0,178100
14,166833	0,5	0,160700
14,175167	0,5	0,123500
14,183500	0,5	0,108100
14,191833	0,5	0,088800
14,200167	0,5	0,087400
14,208500	0,5	0,088200
14,216833	0,5	0,094900
14,225167	0,5	0,103300
14,233500	0,5	0,112950
14,241833	0,5	0,135550
14,250167	0,5	0,142100
14,258500	0,5	0,156950
14,266833	0,5	0,176350
14,275167	0,5	0,184500
14,283500	0,5	0,193400
14,291833	0,5	0,208050
14,300167	0,5	0,224300
14,308500	0,5	0,227350
14,316833	0,5	0,215400
14,325167	0,5	0,219600
14,333500	0,5	0,236900
14,341833	0,5	0,250500
14,350167	0,5	0,265150
14,358500	0,5	0,283350
14,366833	0,5	0,307300
14,375167	0,5	0,329250
14,383500	0,5	0,341300
14,391833	0,5	0,346850
14,400167	0,5	0,342350
14,408500	0,5	0,340050
14,416833	0,5	0,334200
14,425167	0,5	0,304100
14,433500	0,5	0,298300
14,441833	0,5	0,284750
14,450167	0,5	0,276850
14,458500	0,5	0,253550
14,466833	0,5	0,230350
14,475167	0,5	0,223500
14,483500	0,5	0,231000
14,491833	0,5	0,223200
14,500167	0,5	0,225200
14,508500	0,5	0,226200
14,516833	0,5	0,240450
14,525167	0,5	0,231300
14,533500	0,5	0,231600
14,541833	0,5	0,239450
14,550167	0,5	0,240500
14,558500	0,5	0,261450
14,566833	0,5	0,291650
14,575167	0,5	0,317750
14,583500	0,5	0,403350
14,591833	0,5	0,502950
14,600167	0,5	0,608000
14,608500	0,5	0,704700
14,616833	0,5	0,749850
14,625167	0,5	0,788050
14,633500	0,5	0,749650
14,641833	0,5	0,692400
14,650167	0,5	0,621100
14,658500	0,5	0,566550
14,666833	0,5	0,527650
14,675167	0,5	0,542200
14,683500	0,5	0,587900
14,691833	0,5	0,664300
14,700167	0,5	0,758950
14,708500	0,5	0,827450
14,716833	0,5	0,858900
14,725167	0,5	0,815900
14,733500	0,5	0,766450
14,741833	0,5	0,676250
14,750167	0,5	0,585650
14,758500	0,5	0,494600
14,766833	0,5	0,426300
14,775167	0,5	0,387700
14,783500	0,5	0,364350
14,791833	0,5	0,338400
14,800167	0,5	0,335650
14,808500	0,5	0,324100
14,816833	0,5	0,331600
14,825167	0,5	0,336500
14,833500	0,5	0,358050
14,841833	0,5	0,377400
14,850167	0,5	0,392150
14,858500	0,5	0,409000
14,866833	0,5	0,412150
14,875167	0,5	0,410200
14,883500	0,5	0,406500
14,891833	0,5	0,389800
14,900167	0,5	0,366550
14,908500	0,5	0,346550
14,916833	0,5	0,321800
14,925167	0,5	0,314500
14,933500	0,5	0,298600
14,941833	0,5	0,281350
14,950167	0,5	0,241400
14,958500	0,5	0,218200
14,966833	0,5	0,192700
14,975167	0,5	0,178800
14,983500	0,5	0,156900
14,991833	0,5	0,146550
15,000167	0,5	0,147300
15,008500	0,5	0,143400
15,016833	0,5	0,128000
15,025167	0,5	0,126300
15,033500	0,5	0,117950
15,041833	0,5	0,108150
15,050167	0,5	0,084300
15,058500	0,5	0,080700
15,066833	0,5	0,084400
15,075167	0,5	0,109000
15,083500	0,5	0,132450
15,091833	0,5	0,184600
15,100167	0,5	0,263000
15,108500	0,5	0,367500
15,116833	0,5	0,492800
15,125167	0,5	0,614800
15,133500	0,5	0,706600
15,141833	0,5	0,737250
15,150167	0,5	0,733000
15,158500	0,5	0,662400
15,166833	0,5	0,603100
15,175167	0,5	0,567050
15,183500	0,5	0,567800
15,191833	0,5	0,605500
15,200167	0,5	0,658850
15,208500	0,5	0,723100
15,216833	0,5	0,766900
15,225167	0,5	0,758600
15,233500	0,5	0,702750
15,241833	0,5	0,613850
15,250167	0,5	0,518550
15,258500	0,5	0,424050
15,266833	0,5	0,355100
15,275167	0,5	0,319550
15,283500	0,5	0,296350
15,291833	0,5	0,283750
15,300167	0,5	0,272250
15,308500	0,5	0,241250
15,316833	0,5	0,225100
15,325167	0,5	0,213250
15,333500	0,5	0,194500
15,341833	0,5	0,176500
15,350167	0,5	0,142950
15,358500	0,5	0,155600
15,366833	0,5	0,164900
15,375167	0,5	0,169000
15,383500	0,5	0,178700
15,391833	0,5	0,176100
15,400167	0,5	0,171250
15,408500	0,5	0,151250
15,416833	0,5	0,137100
15,425167	0,5	0,119550
15,433500	0,5	0,096650
15,441833	0,5	0,072400
15,450167	0,5	0,043100
15,458500	0,5	0,010700
15,466833	0,5	0,013600
15,475167	0,5	-0,011650
15,483500	0,5	-0,029800
15,491833	0,5	-0,060750
15,500167	0,5	-0,081100
15,508500	0,5	-0,086800
15,516833	0,5	-0,085400
15,525167	0,5	-0,102250
15,533500	0,5	-0,085850
15,541833	0,5	-0,065600
15,550167	0,5	-0,023000
15,558500	0,5	0,044700
15,566833	0,5	0,149950
15,575167	0,5	0,272700
15,583500	0,5	0,393500
15,591833	0,5	0,492950
15,600167	0,5	0,528400
15,608500	0,5	0,522750
15,616833	0,5	0,522300
15,625167	0,5	0,472500
15,633500	0,5	0,470350
15,641833	0,5	0,502500
15,650167	0,5	0,543200
15,658500	0,5	0,600750
15,666833	0,5	0,606600
15,675167	0,5	0,563150
15,683500	0,5	0,470700
15,691833	0,5	0,378000
15,700167	0,5	0,277000
15,708500	0,5	0,194300
15,716833	0,5	0,122250
15,725167	0,5	0,067000
15,733500	0,5	0,037750
15,741833	0,5	0,013900
15,750167	0,5	-0,016050
15,758500	0,5	-0,000050
15,766833	0,5	0,001250
15,775167	0,5	0,007350
15,783500	0,5	0,006400
15,791833	0,5	-0,018650
15,800167	0,5	-0,013500
15,808500	0,5	-0,022050
15,816833	0,5	-0,045900
15,825167	0,5	-0,075850
15,833500	0,5	-0,095350
15,841833	0,5	-0,120650
15,850167	0,5	-0,134350
15,858500	0,5	-0,161800
15,866833	0,5	-0,177500
15,875167	0,5	-0,201800
15,883500	0,5	-0,222800
15,891833	0,5	-0,242050
15,900167	0,5	-0,259000
15,908500	0,5	-0,247400
15,916833	0,5	-0,262200
15,925167	0,5	-0,267500
15,933500	0,5	-0,276350
15,941833	0,5	-0,282650
15,950167	0,5	-0,258750
15,958500	0,5	-0,193950
15,966833	0,5	-0,118050
15,975167	0,5	0,015750
15,983500	0,5	0,152500
15,991833	0,5	0,274200
16,000167	0,5	0,351050
16,008500	0,5	0,398800
16,016833	0,5	0,402900
16,025167	0,5	0,406950
16,033500	0,5	0,431350
16,041833	0,5	0,460850
16,050167	0,5	0,484050
16,058500	0,5	0,486500
16,066833	0,5	0,432500
16,075167	0,5	0,348800
16,083500	0,5	0,231400
16,091833	0,5	0,128250
16,100167	0,5	0,051200
16,108500	0,5	-0,012350
16,116833	0,5	-0,043650
16,125167	0,5	-0,055850
16,133500	0,5	-0,064450
16,141833	0,5	-0,054000
16,150167	0,5	-0,046650
16,158500	0,5	-0,042250
16,166833	0,5	-0,036250
16,175167	0,5	-0,032000
16,183500	0,5	-0,026950
16,191833	0,5	-0,062900
16,200167	0,5	-0,058900
16,208500	0,5	-0,079450
16,216833	0,5	-0,106750
16,225167	0,5	-0,136950
16,233500	0,5	-0,176950
16,241833	0,5	-0,201150
16,250167	0,5	-0,225850
16,258500	0,5	-0,251550
16,266833	0,5	-0,273200
16,275167	0,5	-0,292900
16,283500	0,5	-0,314050
16,291833	0,5	-0,326950
16,300167	0,5	-0,341650
16,308500	0,5	-0,336650
16,316833	0,5	-0,325100
16,325167	0,5	-0,264450
16,333500	0,5	-0,191500
16,341833	0,5	-0,079500
16,350167	0,5	0,063900
16,358500	0,5	0,191650
16,366833	0,5	0,273100
16,375167	0,5	0,307100
16,383500	0,5	0,301950
16,391833	0,5	0,308500
16,400167	0,5	0,320600
16,408500	0,5	0,326450
16,416833	0,5	0,296350
16,425167	0,5	0,249100
16,433500	0,5	0,166600
16,441833	0,5	0,079350
16,450167	0,5	0,003400
16,458500	0,5	-0,054350
16,466833	0,5	-0,085700
16,475167	0,5	-0,098150
16,483500	0,5	-0,110750
16,491833	0,5	-0,095450
16,500167	0,5	-0,072750
16,508500	0,5	-0,058100
16,516833	0,5	-0,050550
16,525167	0,5	-0,063900
16,533500	0,5	-0,056900
16,541833	0,5	-0,043600
16,550167	0,5	-0,042400
16,558500	0,5	-0,063550
16,566833	0,5	-0,076200
16,575167	0,5	-0,100250
16,583500	0,5	-0,121450
16,591833	0,5	-0,132700
16,600167	0,5	-0,143650
16,608500	0,5	-0,149750
16,616833	0,5	-0,156450
16,625167	0,5	-0,156350
16,633500	0,5	-0,182350
16,641833	0,5	-0,161450
16,650167	0,5	-0,144500
16,658500	0,5	-0,111800
16,666833	0,5	-0,060100
16,675167	0,5	0,001750
16,683500	0,5	0,101300
16,691833	0,5	0,183900
16,700167	0,5	0,235400
16,708500	0,5	0,257250
16,716833	0,5	0,258050
16,725167	0,5	0,257650
16,733500	0,5	0,247400
16,741833	0,5	0,217750
16,750167	0,5	0,167950
16,758500	0,5	0,086950
16,766833	0,5	0,022700
16,775167	0,5	-0,049850
16,783500	0,5	-0,114850
16,791833	0,5	-0,149550
16,800167	0,5	-0,178350
16,808500	0,5	-0,207750
16,816833	0,5	-0,229200
16,825167	0,5	-0,246550
16,833500	0,5	-0,238300
16,841833	0,5	-0,261350
16,850167	0,5	-0,260600
16,858500	0,5	-0,274400
16,866833	0,5	-0,277450
16,875167	0,5	-0,292950
16,883500	0,5	-0,306200
16,891833	0,5	-0,329150
16,900167	0,5	-0,341900
16,908500	0,5	-0,358450
16,916833	0,5	-0,366500
16,925167	0,5	-0,381100
16,933500	0,5	-0,377450
16,941833	0,5	-0,360150
16,950167	0,5	-0,334350
16,958500	0,5	-0,301400
16,966833	0,5	-0,242800
16,975167	0,5	-0,162450
16,983500	0,5	-0,054450
16,991833	0,5	0,072300
17,000167	0,5	0,152650
17,008500	0,5	0,240800
17,016833	0,5	0,310500
17,025167	0,5	0,377700
17,033500	0,5	0,455300
17,041833	0,5	0,511400
17,050167	0,5	0,581200
17,058500	0,5	0,659550
17,066833	0,5	0,756100
17,075167	0,5	0,858750
17,083500	0,5	0,990600
17,091833	0,5	1,120300
17,100167	0,5	1,237350
17,108500	0,5	1,335950
17,116833	0,5	1,409050
17,125167	0,5	1,481400
17,133500	0,5	1,551350
17,141833	0,5	1,584600
17,150167	0,5	1,611400
17,158500	0,5	1,600400
17,166833	0,5	1,565200
17,175167	0,5	1,479250
17,183500	0,5	1,371700
17,191833	0,5	1,230500
17,200167	0,5	1,074200
17,208500	0,5	0,933550
17,216833	0,5	0,795800
17,225167	0,5	0,672600
17,233500	0,5	0,612150
17,241833	0,5	0,578300
17,250167	0,5	0,575350
17,258500	0,5	0,585700
17,266833	0,5	0,612500
17,275167	0,5	0,653450
17,283500	0,5	0,666750
17,291833	0,5	0,675350
17,300167	0,5	0,650400
17,308500	0,5	0,612050
17,316833	0,5	0,528100
17,325167	0,5	0,459650
17,333500	0,5	0,371550
17,341833	0,5	0,318100
17,350167	0,5	0,276900
17,358500	0,5	0,261450
17,366833	0,5	0,250350
17,375167	0,5	0,275200
17,383500	0,5	0,313500
17,391833	0,5	0,342300
17,400167	0,5	0,370500
17,408500	0,5	0,368900
17,416833	0,5	0,404500
17,425167	0,5	0,422500
17,433500	0,5	0,433950
17,441833	0,5	0,429250
17,450167	0,5	0,415950
17,458500	0,5	0,376600
17,466833	0,5	0,339600
17,475167	0,5	0,299600
17,483500	0,5	0,268650
17,491833	0,5	0,243800
17,500167	0,5	0,251750
17,508500	0,5	0,254350
17,516833	0,5	0,247850
17,525167	0,5	0,248500
17,533500	0,5	0,231000
17,541833	0,5	0,187350
17,550167	0,5	0,127800
17,558500	0,5	0,035850
17,566833	0,5	-0,037400
17,575167	0,5	-0,106750
17,583500	0,5	-0,171900
17,591833	0,5	-0,221000
17,600167	0,5	-0,256550
17,608500	0,5	-0,290150
17,616833	0,5	-0,321100
17,625167	0,5	-0,344800
17,633500	0,5	-0,373000
17,641833	0,5	-0,398150
17,650167	0,5	-0,424300
17,658500	0,5	-0,442600
17,666833	0,5	-0,470850
17,675167	0,5	-0,478800
17,683500	0,5	-0,488400
17,691833	0,5	-0,487950
17,700167	0,5	-0,498750
17,708500	0,5	-0,481750
17,716833	0,5	-0,436200
17,725167	0,5	-0,390250
17,733500	0,5	-0,333550
17,741833	0,5	-0,279800
17,750167	0,5	-0,243750
17,758500	0,5	-0,226350
17,766833	0,5	-0,232450
17,775167	0,5	-0,258650
17,783500	0,5	-0,299700
17,791833	0,5	-0,349350
17,800167	0,5	-0,378550
17,808500	0,5	-0,438750
17,816833	0,5	-0,457700
17,825167	0,5	-0,479300
17,833500	0,5	-0,507300
17,841833	0,5	-0,534650
17,850167	0,5	-0,568300
17,858500	0,5	-0,581550
17,866833	0,5	-0,582300
17,875167	0,5	-0,601800
17,883500	0,5	-0,609350
17,891833	0,5	-0,602000
17,900167	0,5	-0,585100
17,908500	0,5	-0,573450
17,916833	0,5	-0,543850
17,925167	0,5	-0,499700
17,933500	0,5	-0,455050
17,941833	0,5	-0,393000
17,950167	0,5	-0,346200
17,958500	0,5	-0,334600
17,966833	0,5	-0,319100
17,975167	0,5	-0,333900
17,983500	0,5	-0,382000
17,991833	0,5	-0,425300
18,000167	0,5	-0,483450
18,008500	0,5	-0,509400
18,016833	0,5	-0,530500
18,025167	0,5	-0,541900
18,033500	0,5	-0,555900
18,041833	0,5	-0,573250
18,050167	0,5	-0,590600
18,058500	0,5	-0,594500
18,066833	0,5	-0,598100
18,075167	0,5	-0,612350
18,083500	0,5	-0,607250
18,091833	0,5	-0,600700
18,100167	0,5	-0,594200
18,108500	0,5	-0,570750
18,116833	0,5	-0,518300
18,125167	0,5	-0,480450
18,133500	0,5	-0,432050
18,141833	0,5	-0,422950
18,150167	0,5	-0,406150
18,158500	0,5	-0,399300
18,166833	0,5	-0,395950
18,175167	0,5	-0,427500
18,183500	0,5	-0,447450
18,191833	0,5	-0,483050
18,200167	0,5	-0,501650
18,208500	0,5	-0,507600
18,216833	0,5	-0,516300
18,225167	0,5	-0,528200
18,233500	0,5	-0,542000
18,241833	0,5	-0,555800
18,250167	0,5	-0,579600
18,258500	0,5	-0,574200
18,266833	0,5	-0,580700
18,275167	0,5	-0,578750
18,283500	0,5	-0,575900
18,291833	0,5	-0,588850
18,300167	0,5	-0,568750
18,308500	0,5	-0,534950
18,316833	0,5	-0,512000
18,325167	0,5	-0,492350
18,333500	0,5	-0,500700
18,341833	0,5	-0,508450
18,350167	0,5	-0,539300
18,358500	0,5	-0,560000
18,366833	0,5	-0,590850
18,375167	0,5	-0,616950
18,383500	0,5	-0,609650
18,391833	0,5	-0,628800
18,400167	0,5	-0,649550
18,408500	0,5	-0,658500
18,416833	0,5	-0,664100
18,425167	0,5	-0,673650
18,433500	0,5	-0,690150
18,441833	0,5	-0,705950
18,450167	0,5	-0,691050
18,458500	0,5	-0,690800
18,466833	0,5	-0,671350
18,475167	0,5	-0,661050
18,483500	0,5	-0,645350
18,491833	0,5	-0,643250
18,500167	0,5	-0,640750
18,508500	0,5	-0,653850
18,516833	0,5	-0,671900
18,525167	0,5	-0,690350
18,533500	0,5	-0,707650
18,541833	0,5	-0,749200
18,550167	0,5	-0,765550
18,558500	0,5	-0,772400
18,566833	0,5	-0,779850
18,575167	0,5	-0,796850
18,583500	0,5	-0,834750
18,591833	0,5	-0,832550
18,600167	0,5	-0,834350
18,608500	0,5	-0,838850
18,616833	0,5	-0,830800
18,625167	0,5	-0,803800
18,633500	0,5	-0,779400
18,641833	0,5	-0,750900
18,650167	0,5	-0,749200
18,658500	0,5	-0,742850
18,666833	0,5	-0,770700
18,675167	0,5	-0,777400
18,683500	0,5	-0,786100
18,691833	0,5	-0,813650
18,700167	0,5	-0,802500
18,708500	0,5	-0,798550
18,716833	0,5	-0,796950
18,725167	0,5	-0,805150
18,733500	0,5	-0,816900
18,741833	0,5	-0,794300
18,750167	0,5	-0,760400
18,758500	0,5	-0,740400
18,766833	0,5	-0,718850
18,775167	0,5	-0,695450
18,783500	0,5	-0,689300
18,791833	0,5	-0,687600
18,800167	0,5	-0,688200
18,808500	0,5	-0,706000
18,816833	0,5	-0,734850
18,825167	0,5	-0,748100
18,833500	0,5	-0,766350
18,841833	0,5	-0,780900
18,850167	0,5	-0,771600
18,858500	0,5	-0,778700
18,866833	0,5	-0,776450
18,875167	0,5	-0,785850
18,883500	0,5	-0,792650
18,891833	0,5	-0,759300
18,900167	0,5	-0,763200
18,908500	0,5	-0,764200
18,916833	0,5	-0,777500
18,925167	0,5	-0,788050
18,933500	0,5	-0,822450
18,941833	0,5	-0,842400
18,950167	0,5	-0,873200
18,958500	0,5	-0,890750
18,966833	0,5	-0,913400
18,975167	0,5	-0,909900
18,983500	0,5	-0,946850
18,991833	0,5	-0,940650
19,000167	0,5	-0,942300
19,008500	0,5	-0,941300
19,016833	0,5	-0,956700
19,025167	0,5	-0,990700
19,033500	0,5	-0,989900
19,041833	0,5	-1,009200
19,050167	0,5	-1,018200
19,058500	0,5	-1,032350
19,066833	0,5	-1,036100
19,075167	0,5	-1,043950
19,083500	0,5	-1,061050
19,091833	0,5	-1,075950
19,100167	0,5	-1,080600
19,108500	0,5	-1,094150
19,116833	0,5	-1,102300
19,125167	0,5	-1,113850
19,133500	0,5	-1,134950
19,141833	0,5	-1,140550
19,150167	0,5	-1,160600
19,158500	0,5	-1,182600
19,166833	0,5	-1,221950
19,175167	0,5	-1,256500
19,183500	0,5	-1,271250
19,191833	0,5	-1,275050
19,200167	0,5	-1,283550
19,208500	0,5	-1,281250
19,216833	0,5	-1,282500
19,225167	0,5	-1,291200
19,233500	0,5	-1,307450
19,241833	0,5	-1,319600
19,250167	0,5	-1,334550
19,258500	0,5	-1,341900
19,266833	0,5	-1,349450
19,275167	0,5	-1,357600
19,283500	0,5	-1,368600
19,291833	0,5	-1,355250
19,300167	0,5	-1,386200
19,308500	0,5	-1,372000
19,316833	0,5	-1,407550
19,325167	0,5	-1,427100
19,333500	0,5	-1,442650
19,341833	0,5	-1,443900
19,350167	0,5	-1,453450
19,358500	0,5	-1,459450
19,366833	0,5	-1,472750
19,375167	0,5	-1,480050
19,383500	0,5	-1,482400
19,391833	0,5	-1,492450
19,400167	0,5	-1,491450
19,408500	0,5	-1,504550
19,416833	0,5	-1,498200
19,425167	0,5	-1,511700
19,433500	0,5	-1,506950
19,441833	0,5	-1,515650
19,450167	0,5	-1,507450
19,458500	0,5	-1,544100
19,466833	0,5	-1,564650
19,475167	0,5	-1,562800
19,483500	0,5	-1,555850
19,491833	0,5	-1,577150
19,500167	0,5	-1,584250
19,508500	0,5	-1,594150
19,516833	0,5	-1,611900
19,525167	0,5	-1,626450
19,533500	0,5	-1,631650
19,541833	0,5	-1,632750
19,550167	0,5	-1,651200
19,558500	0,5	-1,639550
19,566833	0,5	-1,663950
19,575167	0,5	-1,684500
19,583500	0,5	-1,689550
19,591833	0,5	-1,687400
19,600167	0,5	-1,708750
19,608500	0,5	-1,730500
19,616833	0,5	-1,741300
19,625167	0,5	-1,737700
19,633500	0,5	-1,744800
19,641833	0,5	-1,738050
19,650167	0,5	-1,759900
19,658500	0,5	-1,759450
19,666833	0,5	-1,762350
19,675167	0,5	-1,759700
19,683500	0,5	-1,770250
19,691833	0,5	-1,782950
19,700167	0,5	-1,795550
19,708500	0,5	-1,791400
19,716833	0,5	-1,827300
19,725167	0,5	-1,822500
19,733500	0,5	-1,829450
19,741833	0,5	-1,845800
19,750167	0,5	-1,864600
19,758500	0,5	-1,923200
19,766833	0,5	-1,917250
19,775167	0,5	-1,935000
19,783500	0,5	-1,937450
19,791833	0,5	-1,953900
19,800167	0,5	-1,952600
19,808500	0,5	-1,964550
19,816833	0,5	-1,969450
19,825167	0,5	-1,979500
19,833500	0,5	-1,983700
19,841833	0,5	-1,987300
19,850167	0,5	-1,990600
19,858500	0,5	-1,994950
19,866833	0,5	-2,023850
19,875167	0,5	-2,012750
19,883500	0,5	-2,014200
19,891833	0,5	-2,027350
19,900167	0,5	-2,052250
19,908500	0,5	-2,081650
19,916833	0,5	-2,077350
19,925167	0,5	-2,079050
19,933500	0,5	-2,098600
19,941833	0,5	-2,090000
19,950167	0,5	-2,107950
19,958500	0,5	-2,112600
19,966833	0,5	-2,122600
19,975167	0,5	-2,127750
19,983500	0,5	-2,141200
19,991833	0,5	-2,154000
20,000167	0,5	-2,156250
20,008500	0,5	-2,184800
20,016833	0,5	-2,203050
20,025167	0,5	-2,213750
20,033500	0,5	-2,227550
20,041833	0,5	-2,260250
20,050167	0,5	-2,296500
20,058500	0,5	-2,315900
20,066833	0,5	-2,319300
20,075167	0,5	-2,344050
20,083500	0,5	-2,344250
20,091833	0,5	-2,360400
20,100167	0,5	-2,362050
20,108500	0,5	-2,380300
20,116833	0,5	-2,375400
20,125167	0,5	-2,391050
20,133500	0,5	-2,399500
20,141833	0,5	-2,391750
20,150167	0,5	-2,387150
20,158500	0,5	-2,389450
20,166833	0,5	-2,377500
20,175167	0,5	-2,372000
20,183500	0,5	-2,367900
20,191833	0,5	-2,379600
20,200167	0,5	-2,405000
20,208500	0,5	-2,404900
20,216833	0,5	-2,403450
20,225167	0,5	-2,415300
20,233500	0,5	-2,428750
20,241833	0,5	-2,440150
20,250167	0,5	-2,469500
20,258500	0,5	-2,490950
20,266833	0,5	-2,501250
20,275167	0,5	-2,516350
20,283500	0,5	-2,539900
20,291833	0,5	-2,539350
20,300167	0,5	-2,562500
20,308500	0,5	-2,586750
20,316833	0,5	-2,600950
20,325167	0,5	-2,635250
20,333500	0,5	-2,654500
20,341833	0,5	-2,706350
20,350167	0,5	-2,745600
20,358500	0,5	-2,772700
20,366833	0,5	-2,794400
20,375167	0,5	-2,822700
20,383500	0,5	-2,847450
20,391833	0,5	-2,874350
20,400167	0,5	-2,889750
20,408500	0,5	-2,919900
20,416833	0,5	-2,939700
20,425167	0,5	-2,964900
20,433500	0,5	-2,979100
20,441833	0,5	-2,979050
20,450167	0,5	-3,013750
20,458500	0,5	-3,031500
20,466833	0,5	-3,048350
20,475167	0,5	-3,081050
20,483500	0,5	-3,121800
20,491833	0,5	-3,170400
20,500167	0,5	-3,195200
20,508500	0,5	-3,176250
20,516833	0,5	-3,179050
20,525167	0,5	-3,164300
20,533500	0,5	-3,160700
20,541833	0,5	-3,171900
20,550167	0,5	-3,192900
20,558500	0,5	-3,222350
20,566833	0,5	-3,274900
20,575167	0,5	-3,327200
20,583500	0,5	-3,354850
20,591833	0,5	-3,403250
20,600167	0,5	-3,470900
20,608500	0,5	-3,497850
20,616833	0,5	-3,537700
20,625167	0,5	-3,581750
20,633500	0,5	-3,643250
20,641833	0,5	-3,703300
20,650167	0,5	-3,723650
20,658500	0,5	-3,761000
20,666833	0,5	-3,785050
20,675167	0,5	-3,817600
20,683500	0,5	-3,811500
20,691833	0,5	-3,814500
20,700167	0,5	-3,784800
20,708500	0,5	-3,760150
20,716833	0,5	-3,743000
20,725167	0,5	-3,740400
20,733500	0,5	-3,763600
20,741833	0,5	-3,819550
20,750167	0,5	-3,891700
20,758500	0,5	-3,980750
20,766833	0,5	-4,063350
20,775167	0,5	-4,140250
20,783500	0,5	-4,238150
20,791833	0,5	-4,275600
20,800167	0,5	-4,343700
20,808500	0,5	-4,390500
20,816833	0,5	-4,444700
20,825167	0,5	-4,476700
20,833500	0,5	-4,512000
20,841833	0,5	-4,565000
20,850167	0,5	-4,601650
20,858500	0,5	-4,635550
20,866833	0,5	-4,668800
20,875167	0,5	-4,672000
20,883500	0,5	-4,666950
20,891833	0,5	-4,701500
20,900167	0,5	-4,739600
20,908500	0,5	-4,790350
20,916833	0,5	-4,846850
20,925167	0,5	-4,918400
20,933500	0,5	-4,983550
20,941833	0,5	-5,019500
20,950167	0,5	-5,056500
20,958500	0,5	-5,098450
20,966833	0,5	-5,141600
20,975167	0,5	-5,178550
20,983500	0,5	-5,211100
20,991833	0,5	-5,246100
21,000167	0,5	-5,268950
21,008500	0,5	-5,318850
21,016833	0,5	-5,351550
21,025167	0,5	-5,350900
21,033500	0,5	-5,364650
21,041833	0,5	-5,403200
21,050167	0,5	-5,431400
21,058500	0,5	-5,470150
21,066833	0,5	-5,513350
21,075167	0,5	-5,563200
21,083500	0,5	-5,616950
21,091833	0,5	-5,629300
21,100167	0,5	-5,679950
21,108500	0,5	-5,713750
21,116833	0,5	-5,753350
21,125167	0,5	-5,779600
21,133500	0,5	-5,823250
21,141833	0,5	-5,835200
21,150167	0,5	-5,874850
21,158500	0,5	-5,907400
21,166833	0,5	-5,910100
21,175167	0,5	-5,912500
21,183500	0,5	-5,939250
21,191833	0,5	-5,961550
21,200167	0,5	-6,003800
21,208500	0,5	-6,026550
21,216833	0,5	-6,077500
21,225167	0,5	-6,120050
21,233500	0,5	-6,140800
21,241833	0,5	-6,158750
21,250167	0,5	-6,175700
21,258500	0,5	-6,184700
21,266833	0,5	-6,192450
21,275167	0,5	-6,204800
21,283500	0,5	-6,213050
21,291833	0,5	-6,231150
21,300167	0,5	-6,241250
21,308500	0,5	-6,265800
21,316833	0,5	-6,252600
21,325167	0,5	-6,269750
21,333500	0,5	-6,302200
21,341833	0,5	-6,331300
21,350167	0,5	-6,366050
21,358500	0,5	-6,389400
21,366833	0,5	-6,449350
21,375167	0,5	-6,479650
21,383500	0,5	-6,501250
21,391833	0,5	-6,508300
21,400167	0,5	-6,531150
21,408500	0,5	-6,527900
21,416833	0,5	-6,554450
21,425167	0,5	-6,568750
21,433500	0,5	-6,585150
21,441833	0,5	-6,592600
21,450167	0,5	-6,616550
21,458500	0,5	-6,619900
21,466833	0,5	-6,604450
21,475167	0,5	-6,620500
21,483500	0,5	-6,639200
21,491833	0,5	-6,658950
21,500167	0,5	-6,680600
21,508500	0,5	-6,733000
21,516833	0,5	-6,765150
21,525167	0,5	-6,781700
21,533500	0,5	-6,798950
21,541833	0,5	-6,823350
21,550167	0,5	-6,831100
21,558500	0,5	-6,837850
21,566833	0,5	-6,854300
21,575167	0,5	-6,875050
21,583500	0,5	-6,881150
21,591833	0,5	-6,883150
21,600167	0,5	-6,888200
21,608500	0,5	-6,871500
21,616833	0,5	-6,849450
21,625167	0,5	-6,869100
21,633500	0,5	-6,867000
21,641833	0,5	-6,866850
21,650167	0,5	-6,879500
21,658500	0,5	-6,895650
21,666833	0,5	-6,913450
21,675167	0,5	-6,893250
21,683500	0,5	-6,926300
21,691833	0,5	-6,943100
21,700167	0,5	-6,965250
21,708500	0,5	-6,974150
21,716833	0,5	-6,993800
21,725167	0,5	-6,997450
21,733500	0,5	-7,005400
21,741833	0,5	-7,021350
21,750167	0,5	-7,018150
21,758500	0,5	-7,008800
21,766833	0,5	-7,034800
21,775167	0,5	-7,048000
21,783500	0,5	-7,054600
21,791833	0,5	-7,074850
21,800167	0,5	-7,104350
21,808500	0,5	-7,150100
21,816833	0,5	-7,135700
21,825167	0,5	-7,140150
21,833500	0,5	-7,142300
21,841833	0,5	-7,166350
21,850167	0,5	-7,163050
21,858500	0,5	-7,179500
21,866833	0,5	-7,175700
21,875167	0,5	-7,196900
21,883500	0,5	-7,196600
21,891833	0,5	-7,206150
21,900167	0,5	-7,180450
21,908500	0,5	-7,164750
21,916833	0,5	-7,117150
21,925167	0,5	-7,061200
21,933500	0,5	-7,018300
21,941833	0,5	-7,011750
21,950167	0,5	-7,077250
21,958500	0,5	-7,106500
21,966833	0,5	-7,167550
21,975167	0,5	-7,217900
21,983500	0,5	-7,270850
21,991833	0,5	-7,310750
22,000167	0,5	-7,363450
22,008500	0,5	-7,388350
22,016833	0,5	-7,432900
22,025167	0,5	-7,454700
22,033500	0,5	-7,494300
22,041833	0,5	-7,520000
22,050167	0,5	-7,548650
22,058500	0,5	-7,593400
22,066833	0,5	-7,602600
22,075167	0,5	-7,617850
22,083500	0,5	-7,641100
22,091833	0,5	-7,671900
22,100167	0,5	-7,716800
22,108500	0,5	-7,726650
22,116833	0,5	-7,732250
22,125167	0,5	-7,755850
22,133500	0,5	-7,771200
22,141833	0,5	-7,794400
22,150167	0,5	-7,796100
22,158500	0,5	-7,812450
22,166833	0,5	-7,824100
22,175167	0,5	-7,843150
22,183500	0,5	-7,857950
22,191833	0,5	-7,865800
22,200167	0,5	-7,879350
22,208500	0,5	-7,885800
22,216833	0,5	-7,877300
22,225167	0,5	-7,881050
22,233500	0,5	-7,905600
22,241833	0,5	-7,920150
22,250167	0,5	-7,939050
22,258500	0,5	-7,917600
22,266833	0,5	-7,919000
22,275167	0,5	-7,908600
22,283500	0,5	-7,912450
22,291833	0,5	-7,906550
22,300167	0,5	-7,904350
22,308500	0,5	-7,882800
22,316833	0,5	-7,869900
22,325167	0,5	-7,863600
22,333500	0,5	-7,849300
22,341833	0,5	-7,826250
22,350167	0,5	-7,751600
22,358500	0,5	-7,626200
22,366833	0,5	-7,522400
22,375167	0,5	-7,461100
22,383500	0,5	-7,475450
22,391833	0,5	-7,547150
22,400167	0,5	-7,616250
22,408500	0,5	-7,682600
22,416833	0,5	-7,721000
22,425167	0,5	-7,747850
22,433500	0,5	-7,771700
22,441833	0,5	-7,792350
22,450167	0,5	-7,808850
22,458500	0,5	-7,826850
22,466833	0,5	-7,840650
22,475167	0,5	-7,849550
22,483500	0,5	-7,884350
22,491833	0,5	-7,891150
22,500167	0,5	-7,862350
22,508500	0,5	-7,834400
22,516833	0,5	-7,825700
22,525167	0,5	-7,807850
22,533500	0,5	-7,817200
22,541833	0,5	-7,802650
22,550167	0,5	-7,765450
22,558500	0,5	-7,721600
22,566833	0,5	-7,724450
22,575167	0,5	-7,692000
22,583500	0,5	-7,686050
22,591833	0,5	-7,674150
22,600167	0,5	-7,682050
22,608500	0,5	-7,678500
22,616833	0,5	-7,683900
22,625167	0,5	-7,707700
22,633500	0,5	-7,759950
22,641833	0,5	-7,744650
22,650167	0,5	-7,722800
22,658500	0,5	-7,723400
22,666833	0,5	-7,737950
22,675167	0,5	-7,757100
22,683500	0,5	-7,782650
22,691833	0,5	-7,795100
22,700167	0,5	-7,793950
22,708500	0,5	-7,817850
22,716833	0,5	-7,829600
22,725167	0,5	-7,844700
22,733500	0,5	-7,849400
22,741833	0,5	-7,868550
22,750167	0,5	-7,866750
22,758500	0,5	-7,892050
22,766833	0,5	-7,908450
22,775167	0,5	-8,010750
22,783500	0,5	-8,013150
22,791833	0,5	-8,000700
22,800167	0,5	-8,001150
22,808500	0,5	-8,025500
22,816833	0,5	-8,047000
22,825167	0,5	-8,066400
22,833500	0,5	-8,095250
22,841833	0,5	-8,122500
22,850167	0,5	-8,152850
22,858500	0,5	-8,172900
22,866833	0,5	-8,178300
22,875167	0,5	-8,194150
22,883500	0,5	-8,194000
22,891833	0,5	-8,195550
22,900167	0,5	-8,204950
22,908500	0,5	-8,199350
22,916833	0,5	-8,187400
22,925167	0,5	-8,200750
22,933500	0,5	-8,202650
22,941833	0,5	-8,178600
22,950167	0,5	-8,182900
22,958500	0,5	-8,178400
22,966833	0,5	-8,168100
22,975167	0,5	-8,126500
22,983500	0,5	-8,109300
22,991833	0,5	-8,109650
23,000167	0,5	-8,070650
23,008500	0,5	-8,025750
23,016833	0,5	-7,991900
23,025167	0,5	-7,924250
23,033500	0,5	-7,877200
23,041833	0,5	-7,809450
23,050167	0,5	-7,752650
23,058500	0,5	-7,673000
23,066833	0,5	-7,561150
23,075167	0,5	-7,504000
23,083500	0,5	-7,430650
23,091833	0,5	-7,416550
23,100167	0,5	-7,352250
23,108500	0,5	-7,278300
23,116833	0,5	-7,202600
23,125167	0,5	-7,118700
23,133500	0,5	-7,052500
23,141833	0,5	-6,993900
23,150167	0,5	-6,906550
23,158500	0,5	-6,836250
23,166833	0,5	-6,745500
23,175167	0,5	-6,655400
23,183500	0,5	-6,556150
23,191833	0,5	-6,475350
23,200167	0,5	-6,373950
23,208500	0,5	-6,263050
23,216833	0,5	-6,196500
23,225167	0,5	-6,063250
23,233500	0,5	-5,970100
23,241833	0,5	-5,929400
23,250167	0,5	-5,842450
23,258500	0,5	-5,767700
23,266833	0,5	-5,672350
23,275167	0,5	-5,590100
23,283500	0,5	-5,526250
23,291833	0,5	-5,452700
23,300167	0,5	-5,381350
23,308500	0,5	-5,299550
23,316833	0,5	-5,224150
23,325167	0,5	-5,132700
23,333500	0,5	-5,058650
23,341833	0,5	-4,975450
23,350167	0,5	-4,886150
23,358500	0,5	-4,789950
23,366833	0,5	-4,763350
23,375167	0,5	-4,640350
23,383500	0,5	-4,542200
23,391833	0,5	-4,497950
23,400167	0,5	-4,443950
23,408500	0,5	-4,372650
23,416833	0,5	-4,301900
23,425167	0,5	-4,248100
23,433500	0,5	-4,207550
23,441833	0,5	-4,150400
23,450167	0,5	-4,094850
23,458500	0,5	-4,055900
23,466833	0,5	-4,003150
23,475167	0,5	-3,952350
23,483500	0,5	-3,891450
23,491833	0,5	-3,840000
23,500167	0,5	-3,781700
23,508500	0,5	-3,839800
23,516833	0,5	-3,784600
23,525167	0,5	-3,671900
23,533500	0,5	-3,604900
23,541833	0,5	-3,559000
23,550167	0,5	-3,517200
23,558500	0,5	-3,478050
23,566833	0,5	-3,441850
23,575167	0,5	-3,409100
23,583500	0,5	-3,380000
23,591833	0,5	-3,348950
23,600167	0,5	-3,315750
23,608500	0,5	-3,291250
23,616833	0,5	-3,251300
23,625167	0,5	-3,223800
23,633500	0,5	-3,191350
23,641833	0,5	-3,161600
23,650167	0,5	-3,139600
23,658500	0,5	-3,269650
23,666833	0,5	-3,206250
23,675167	0,5	-3,119150
23,683500	0,5	-3,065850
23,691833	0,5	-3,035450
23,700167	0,5	-3,009950
23,708500	0,5	-3,001350
23,716833	0,5	-2,981800
23,725167	0,5	-2,955000
23,733500	0,5	-2,932100
23,741833	0,5	-2,910050
23,750167	0,5	-2,882000
23,758500	0,5	-2,850650
23,766833	0,5	-2,825200
23,775167	0,5	-2,793850
23,783500	0,5	-2,767500
23,791833	0,5	-2,727150
23,800167	0,5	-2,851250
23,808500	0,5	-2,861950
23,816833	0,5	-2,825100
23,825167	0,5	-2,725900
23,833500	0,5	-2,677000
23,841833	0,5	-2,633150
23,850167	0,5	-2,619500
23,858500	0,5	-2,608750
23,866833	0,5	-2,583400
23,875167	0,5	-2,557100
23,883500	0,5	-2,539500
23,891833	0,5	-2,519450
23,900167	0,5	-2,498000
23,908500	0,5	-2,475300
23,916833	0,5	-2,449500
23,925167	0,5	-2,425850
23,933500	0,5	-2,401750
23,941833	0,5	-2,384300
23,950167	0,5	-2,538800
23,958500	0,5	-2,510800
23,966833	0,5	-2,453350
23,975167	0,5	-2,368400
23,983500	0,5	-2,319800
23,991833	0,5	-2,290050
24,000167	0,5	-2,270500
24,008500	0,5	-2,267850
24,016833	0,5	-2,215850
24,025167	0,5	-2,190500
24,033500	0,5	-2,155300
24,041833	0,5	-2,132450
24,050167	0,5	-2,100550
24,058500	0,5	-2,079050
24,066833	0,5	-2,044800
24,075167	0,5	-2,020900
24,083500	0,5	-1,994300
24,091833	0,5	-2,035300
24,100167	0,5	-2,127050
24,108500	0,5	-2,109050
24,116833	0,5	-2,044100
24,125167	0,5	-1,980600
24,133500	0,5	-1,947200
24,141833	0,5	-1,919650
24,150167	0,5	-1,912350
24,158500	0,5	-1,887950
24,166833	0,5	-1,858500
24,175167	0,5	-1,831250
24,183500	0,5	-1,805500
24,191833	0,5	-1,781600
24,200167	0,5	-1,746650
24,208500	0,5	-1,723900
24,216833	0,5	-1,693850
24,225167	0,5	-1,662250
24,233500	0,5	-1,640850
24,241833	0,5	-1,749650
24,250167	0,5	-1,731100
24,258500	0,5	-1,687650
24,266833	0,5	-1,625450
24,275167	0,5	-1,578700
24,283500	0,5	-1,544400
24,291833	0,5	-1,526400
24,300167	0,5	-1,523350
24,308500	0,5	-1,515800
24,316833	0,5	-1,486600
24,325167	0,5	-1,470950
24,333500	0,5	-1,447300
24,341833	0,5	-1,424950
24,350167	0,5	-1,400650
24,358500	0,5	-1,382650
24,366833	0,5	-1,357600
24,375167	0,5	-1,338100
24,383500	0,5	-1,321250
24,391833	0,5	-1,423250
24,400167	0,5	-1,376000
24,408500	0,5	-1,354450
24,416833	0,5	-1,299400
24,425167	0,5	-1,274850
24,433500	0,5	-1,244050
24,441833	0,5	-1,233200
24,450167	0,5	-1,230750
24,458500	0,5	-1,205750
24,466833	0,5	-1,180200
24,475167	0,5	-1,162650
24,483500	0,5	-1,140750
24,491833	0,5	-1,114100
24,500167	0,5	-1,097600
24,508500	0,5	-1,076650
24,516833	0,5	-1,057400
24,525167	0,5	-1,043600
24,533500	0,5	-1,078950
24,541833	0,5	-1,105300
24,550167	0,5	-1,090000
24,558500	0,5	-1,049700
24,566833	0,5	-1,016750
24,575167	0,5	-0,995650
24,583500	0,5	-0,984900
24,591833	0,5	-0,987000
24,600167	0,5	-0,984850
24,608500	0,5	-0,967700
24,616833	0,5	-0,950700
24,625167	0,5	-0,944700
24,633500	0,5	-0,925100
24,641833	0,5	-0,900550
24,650167	0,5	-0,889250
24,658500	0,5	-0,880300
24,666833	0,5	-0,856750
24,675167	0,5	-0,840750
24,683500	0,5	-0,883450
24,691833	0,5	-0,878750
24,700167	0,5	-0,858400
24,708500	0,5	-0,828650
24,716833	0,5	-0,795550
24,725167	0,5	-0,789600
24,733500	0,5	-0,786150
24,741833	0,5	-0,788950
24,750167	0,5	-0,775000
24,758500	0,5	-0,768950
24,766833	0,5	-0,756500
24,775167	0,5	-0,752550
24,783500	0,5	-0,745650
24,791833	0,5	-0,736450
24,800167	0,5	-0,725200
24,808500	0,5	-0,715850
24,816833	0,5	-0,704850
24,825167	0,5	-0,704350
24,833500	0,5	-0,749700
24,841833	0,5	-0,732950
24,850167	0,5	-0,715000
24,858500	0,5	-0,691200
24,866833	0,5	-0,673800
24,875167	0,5	-0,661800
24,883500	0,5	-0,659100
24,891833	0,5	-0,653100
24,900167	0,5	-0,641900
24,908500	0,5	-0,630200
24,916833	0,5	-0,619600
24,925167	0,5	-0,615950
24,933500	0,5	-0,613450
24,941833	0,5	-0,606350
24,950167	0,5	-0,602300
24,958500	0,5	-0,594750
24,966833	0,5	-0,587600
24,975167	0,5	-0,606800
24,983500	0,5	-0,609900
24,991833	0,5	-0,612550
25,000167	0,5	-0,600700
25,008500	0,5	-0,591050
25,016833	0,5	-0,581700
25,025167	0,5	-0,577500
25,033500	0,5	-0,589450
25,041833	0,5	-0,583950
25,050167	0,5	-0,567100
25,058500	0,5	-0,562750
25,066833	0,5	-0,559400
25,075167	0,5	-0,557500
25,083500	0,5	-0,546350
25,091833	0,5	-0,542600
25,100167	0,5	-0,535000
25,108500	0,5	-0,532200
25,116833	0,5	-0,521650
25,125167	0,5	-0,535250
25,133500	0,5	-0,531400
25,141833	0,5	-0,532350
25,150167	0,5	-0,526450
25,158500	0,5	-0,519050
25,166833	0,5	-0,515700
25,175167	0,5	-0,516650
25,183500	0,5	-0,526050
25,191833	0,5	-0,521650
25,200167	0,5	-0,521200
25,208500	0,5	-0,520600
25,216833	0,5	-0,523000
25,225167	0,5	-0,517850
25,233500	0,5	-0,514900
25,241833	0,5	-0,512000
25,250167	0,5	-0,507450
25,258500	0,5	-0,499950
25,266833	0,5	-0,497750
25,275167	0,5	-0,503700
25,283500	0,5	-0,494400
25,291833	0,5	-0,489900
25,300167	0,5	-0,482600
25,308500	0,5	-0,478650
25,316833	0,5	-0,474400
25,325167	0,5	-0,473400
25,333500	0,5	-0,477200
25,341833	0,5	-0,471550
25,350167	0,5	-0,469300
25,358500	0,5	-0,474850
25,366833	0,5	-0,470650
25,375167	0,5	-0,474000
25,383500	0,5	-0,475500
25,391833	0,5	-0,473200
25,400167	0,5	-0,469300
25,408500	0,5	-0,468350
25,416833	0,5	-0,469800
25,425167	0,5	-0,465300
25,433500	0,5	-0,463250
25,441833	0,5	-0,460550
25,450167	0,5	-0,460600
25,458500	0,5	-0,459400
25,466833	0,5	-0,457650
25,475167	0,5	-0,453200
25,483500	0,5	-0,453000
25,491833	0,5	-0,448100
25,500167	0,5	-0,448250
25,508500	0,5	-0,445200
25,516833	0,5	-0,443550
25,525167	0,5	-0,444950
25,533500	0,5	-0,441450
25,541833	0,5	-0,439950
25,550167	0,5	-0,440300
25,558500	0,5	-0,440050
25,566833	0,5	-0,439750
25,575167	0,5	-0,433400
25,583500	0,5	-0,433200
25,591833	0,5	-0,436400
25,600167	0,5	-0,435650
25,608500	0,5	-0,437850
25,616833	0,5	-0,439250
25,625167	0,5	-0,434900
25,633500	0,5	-0,432150
25,641833	0,5	-0,431950
25,650167	0,5	-0,433800
25,658500	0,5	-0,423850
25,666833	0,5	-0,428800
25,675167	0,5	-0,426550
25,683500	0,5	-0,425450
25,691833	0,5	-0,424150
25,700167	0,5	-0,417750
25,708500	0,5	-0,416650
25,716833	0,5	-0,411100
25,725167	0,5	-0,407000
25,733500	0,5	-0,408350
25,741833	0,5	-0,412400
25,750167	0,5	-0,410800
25,758500	0,5	-0,411750
25,766833	0,5	-0,405450
25,775167	0,5	-0,405050
25,783500	0,5	-0,404050
25,791833	0,5	-0,399750
25,800167	0,5	-0,398150
25,808500	0,5	-0,397200
25,816833	0,5	-0,397850
25,825167	0,5	-0,395650
25,833500	0,5	-0,394300
25,841833	0,5	-0,388200
25,850167	0,5	-0,384700
25,858500	0,5	-0,381450
25,866833	0,5	-0,373750
25,875167	0,5	-0,364000
25,883500	0,5	-0,362900
25,891833	0,5	-0,365100
25,900167	0,5	-0,364650
25,908500	0,5	-0,356700
25,916833	0,5	-0,344950
25,925167	0,5	-0,342800
25,933500	0,5	-0,345100
25,941833	0,5	-0,339450
25,950167	0,5	-0,335050
25,958500	0,5	-0,333100
25,966833	0,5	-0,326000
25,975167	0,5	-0,328400
25,983500	0,5	-0,320600
25,991833	0,5	-0,322000
26,000167	0,5	-0,322450
