File Path	chrom://chromeleon01/ikbm_chromeleon/2022/ICS-5000/ED1/Esteban/20220427_Cell_Amandas_mutants.seq/225.smp/ED_1.channel/ED_1.chm
Channel	ED_1

Injection Information:
Data Vault	ikbm_chromeleon
Injection	EG_PASC_4a
Injection Number	25
Position	RC3
Comment	
Processing Method	Stop sequence after Cell Death
Instrument Method	ICS5000_PA200_FullNative_Ox_26min_ED1
Type	Unknown
Status	Finished
Injection Date	28.04.2022
Injection Time	00:21:38
Injection Volume (µl)	5,0
Dilution Factor	1,0000
Weight	1,0000

Chromatogram Data Information:
Time Min. (min)	0,000167
Time Max. (min)	26,000167
Data Points	3121
Detector	EDet1
Generating Data System	Chromeleon 7.2.9.11323
Exporting Data System	Chromeleon 7.2.9.0
Operator	Instrument Controller
Signal Quantity	
Signal Unit	nC
Signal Min.	-7,645900
Signal Max.	2 704,460040
Channel	ED_1
Driver Name	DC-5000
Channel Type	Evaluation
Min. Step (s)	0,5
Max. Step (s)	0,5
Average Step (s)	0,5

Signal Parameter Information:
Signal Info	

Chromatogram Data:
Time (min)	Step (s)	Value (nC)
0,000167	n.a.	-0,003200
0,008500	0,5	-0,070900
0,016833	0,5	-0,079200
0,025167	0,5	-0,077600
0,033500	0,5	-0,067250
0,041833	0,5	-0,023650
0,050167	0,5	-0,003650
0,058500	0,5	0,004550
0,066833	0,5	0,001650
0,075167	0,5	0,006400
0,083500	0,5	-0,007200
0,091833	0,5	0,001150
0,100167	0,5	-0,001950
0,108500	0,5	0,001850
0,116833	0,5	-0,011450
0,125167	0,5	0,002700
0,133500	0,5	0,011800
0,141833	0,5	-0,018450
0,150167	0,5	0,017000
0,158500	0,5	0,003250
0,166833	0,5	-0,002500
0,175167	0,5	-0,017100
0,183500	0,5	-0,004800
0,191833	0,5	0,029400
0,200167	0,5	0,045800
0,208500	0,5	0,019600
0,216833	0,5	0,026700
0,225167	0,5	0,016850
0,233500	0,5	0,019200
0,241833	0,5	0,000150
0,250167	0,5	0,011400
0,258500	0,5	0,001300
0,266833	0,5	0,010750
0,275167	0,5	0,018100
0,283500	0,5	0,001250
0,291833	0,5	-0,021200
0,300167	0,5	0,033450
0,308500	0,5	0,060100
0,316833	0,5	0,082650
0,325167	0,5	0,021500
0,333500	0,5	-0,011950
0,341833	0,5	0,007300
0,350167	0,5	0,005900
0,358500	0,5	-0,006100
0,366833	0,5	-0,004450
0,375167	0,5	0,011800
0,383500	0,5	-0,008250
0,391833	0,5	0,000750
0,400167	0,5	-0,005750
0,408500	0,5	-0,007200
0,416833	0,5	-0,014200
0,425167	0,5	-0,009250
0,433500	0,5	-0,008600
0,441833	0,5	-0,020400
0,450167	0,5	0,000600
0,458500	0,5	-0,029150
0,466833	0,5	-0,031200
0,475167	0,5	-0,030650
0,483500	0,5	-0,018050
0,491833	0,5	0,028100
0,500167	0,5	0,016400
0,508500	0,5	0,004050
0,516833	0,5	0,003150
0,525167	0,5	-0,009950
0,533500	0,5	-0,011150
0,541833	0,5	-0,017400
0,550167	0,5	-0,012150
0,558500	0,5	-0,029900
0,566833	0,5	-0,017350
0,575167	0,5	-0,010650
0,583500	0,5	-0,021300
0,591833	0,5	-0,025950
0,600167	0,5	-0,007650
0,608500	0,5	-0,042100
0,616833	0,5	-0,032750
0,625167	0,5	-0,032300
0,633500	0,5	0,001800
0,641833	0,5	0,030150
0,650167	0,5	0,008500
0,658500	0,5	-0,001050
0,666833	0,5	-0,002950
0,675167	0,5	0,003550
0,683500	0,5	-0,000750
0,691833	0,5	0,005000
0,700167	0,5	-0,005100
0,708500	0,5	-0,004550
0,716833	0,5	-0,014500
0,725167	0,5	-0,015050
0,733500	0,5	-0,034100
0,741833	0,5	-0,014950
0,750167	0,5	-0,026500
0,758500	0,5	-0,038950
0,766833	0,5	-0,038450
0,775167	0,5	-0,008900
0,783500	0,5	0,024250
0,791833	0,5	0,039850
0,800167	0,5	0,028650
0,808500	0,5	0,024700
0,816833	0,5	0,019550
0,825167	0,5	0,012900
0,833500	0,5	0,014000
0,841833	0,5	0,011200
0,850167	0,5	0,007600
0,858500	0,5	0,003900
0,866833	0,5	0,013300
0,875167	0,5	-0,000800
0,883500	0,5	0,002550
0,891833	0,5	0,027850
0,900167	0,5	0,010200
0,908500	0,5	-0,010650
0,916833	0,5	0,003800
0,925167	0,5	0,021600
0,933500	0,5	0,060450
0,941833	0,5	0,059200
0,950167	0,5	0,056750
0,958500	0,5	0,044550
0,966833	0,5	0,054600
0,975167	0,5	0,049550
0,983500	0,5	0,059400
0,991833	0,5	0,051100
1,000167	0,5	0,047350
1,008500	0,5	0,049250
1,016833	0,5	0,048850
1,025167	0,5	0,038700
1,033500	0,5	0,057650
1,041833	0,5	0,067050
1,050167	0,5	0,045200
1,058500	0,5	0,041700
1,066833	0,5	0,049950
1,075167	0,5	0,083000
1,083500	0,5	0,103050
1,091833	0,5	0,099150
1,100167	0,5	0,081700
1,108500	0,5	0,088650
1,116833	0,5	0,079550
1,125167	0,5	0,086450
1,133500	0,5	0,081300
1,141833	0,5	0,085850
1,150167	0,5	0,079350
1,158500	0,5	0,088800
1,166833	0,5	0,098450
1,175167	0,5	0,088200
1,183500	0,5	0,135950
1,191833	0,5	0,115800
1,200167	0,5	0,096500
1,208500	0,5	0,084000
1,216833	0,5	0,098900
1,225167	0,5	0,135250
1,233500	0,5	0,148400
1,241833	0,5	0,121500
1,250167	0,5	0,133300
1,258500	0,5	0,135950
1,266833	0,5	0,136650
1,275167	0,5	0,132050
1,283500	0,5	0,144450
1,291833	0,5	0,137700
1,300167	0,5	0,147800
1,308500	0,5	0,153300
1,316833	0,5	0,163700
1,325167	0,5	0,142050
1,333500	0,5	0,191000
1,341833	0,5	0,165200
1,350167	0,5	0,162450
1,358500	0,5	0,165950
1,366833	0,5	0,183850
1,375167	0,5	0,231700
1,383500	0,5	0,223550
1,391833	0,5	0,219200
1,400167	0,5	0,215300
1,408500	0,5	0,224700
1,416833	0,5	0,221100
1,425167	0,5	0,237500
1,433500	0,5	0,232950
1,441833	0,5	0,241650
1,450167	0,5	0,241200
1,458500	0,5	0,256900
1,466833	0,5	0,248100
1,475167	0,5	0,255300
1,483500	0,5	0,282900
1,491833	0,5	0,265300
1,500167	0,5	0,269700
1,508500	0,5	0,276000
1,516833	0,5	0,296950
1,525167	0,5	0,344750
1,533500	0,5	0,339850
1,541833	0,5	0,344050
1,550167	0,5	0,349250
1,558500	0,5	0,350500
1,566833	0,5	0,354350
1,575167	0,5	0,350650
1,583500	0,5	0,256750
1,591833	0,5	-0,228700
1,600167	0,5	-1,195350
1,608500	0,5	-1,562150
1,616833	0,5	-0,011950
1,625167	0,5	2,888250
1,633500	0,5	6,324000
1,641833	0,5	10,572650
1,650167	0,5	15,031400
1,658500	0,5	17,655300
1,666833	0,5	17,737300
1,675167	0,5	16,365250
1,683500	0,5	14,663000
1,691833	0,5	13,080800
1,700167	0,5	11,684900
1,708500	0,5	10,510200
1,716833	0,5	9,753800
1,725167	0,5	9,768000
1,733500	0,5	10,848700
1,741833	0,5	12,210650
1,750167	0,5	12,304600
1,758500	0,5	10,902750
1,766833	0,5	9,155300
1,775167	0,5	8,039600
1,783500	0,5	7,748000
1,791833	0,5	8,269200
1,800167	0,5	9,239550
1,808500	0,5	10,107600
1,816833	0,5	10,366750
1,825167	0,5	9,977750
1,833500	0,5	9,235650
1,841833	0,5	8,501950
1,850167	0,5	7,812150
1,858500	0,5	7,178950
1,866833	0,5	6,595650
1,875167	0,5	6,075600
1,883500	0,5	5,629850
1,891833	0,5	5,275250
1,900167	0,5	4,977550
1,908500	0,5	4,676000
1,916833	0,5	4,441950
1,925167	0,5	4,258250
1,933500	0,5	4,088450
1,941833	0,5	4,034300
1,950167	0,5	4,202400
1,958500	0,5	4,656100
1,966833	0,5	5,134750
1,975167	0,5	5,249800
1,983500	0,5	5,382950
1,991833	0,5	6,979050
2,000167	0,5	13,231900
2,008500	0,5	29,349350
2,016833	0,5	63,807051
2,025167	0,5	139,450302
2,033500	0,5	314,103055
2,041833	0,5	618,778009
2,050167	0,5	898,588013
2,058500	0,5	957,289564
2,066833	0,5	812,763912
2,075167	0,5	604,182709
2,083500	0,5	436,580407
2,091833	0,5	327,457255
2,100167	0,5	256,426504
2,108500	0,5	207,164903
2,116833	0,5	171,043603
2,125167	0,5	143,722552
2,133500	0,5	122,719502
2,141833	0,5	106,402002
2,150167	0,5	93,344351
2,158500	0,5	82,863751
2,166833	0,5	74,785001
2,175167	0,5	68,521301
2,183500	0,5	62,817501
2,191833	0,5	57,113951
2,200167	0,5	51,805101
2,208500	0,5	47,330251
2,216833	0,5	43,766551
2,225167	0,5	40,819351
2,233500	0,5	38,361301
2,241833	0,5	36,327551
2,250167	0,5	34,638851
2,258500	0,5	33,242700
2,266833	0,5	32,003400
2,275167	0,5	30,906450
2,283500	0,5	30,013300
2,291833	0,5	29,259750
2,300167	0,5	28,577500
2,308500	0,5	27,875400
2,316833	0,5	27,176250
2,325167	0,5	26,520850
2,333500	0,5	25,965350
2,341833	0,5	25,494450
2,350167	0,5	25,086800
2,358500	0,5	24,707650
2,366833	0,5	24,428500
2,375167	0,5	24,143950
2,383500	0,5	23,971950
2,391833	0,5	23,905450
2,400167	0,5	23,966050
2,408500	0,5	24,144700
2,416833	0,5	24,370850
2,425167	0,5	24,769050
2,433500	0,5	25,491800
2,441833	0,5	26,576100
2,450167	0,5	27,809850
2,458500	0,5	28,581300
2,466833	0,5	28,291100
2,475167	0,5	27,364550
2,483500	0,5	26,636150
2,491833	0,5	26,176550
2,500167	0,5	25,747950
2,508500	0,5	25,335250
2,516833	0,5	24,938250
2,525167	0,5	24,541650
2,533500	0,5	24,188500
2,541833	0,5	23,875850
2,550167	0,5	23,591300
2,558500	0,5	23,338550
2,566833	0,5	23,075700
2,575167	0,5	22,923300
2,583500	0,5	22,887550
2,591833	0,5	23,052900
2,600167	0,5	23,504750
2,608500	0,5	24,546300
2,616833	0,5	26,604700
2,625167	0,5	29,979000
2,633500	0,5	34,210101
2,641833	0,5	39,165101
2,650167	0,5	52,197551
2,658500	0,5	87,523651
2,666833	0,5	142,117552
2,675167	0,5	211,097203
2,683500	0,5	305,271505
2,691833	0,5	481,106007
2,700167	0,5	906,159914
2,708500	0,5	1 541,197273
2,716833	0,5	2 188,703083
2,725167	0,5	2 531,826338
2,733500	0,5	2 674,171940
2,741833	0,5	2 704,460040
2,750167	0,5	2 677,777040
2,758500	0,5	2 613,740839
2,766833	0,5	2 518,836188
2,775167	0,5	2 395,097386
2,783500	0,5	2 244,605133
2,791833	0,5	2 072,161781
2,800167	0,5	1 887,724528
2,808500	0,5	1 705,787075
2,816833	0,5	1 539,347623
2,825167	0,5	1 396,205571
2,833500	0,5	1 275,232469
2,841833	0,5	1 168,153417
2,850167	0,5	1 065,249416
2,858500	0,5	960,982314
2,866833	0,5	855,317263
2,875167	0,5	753,875511
2,883500	0,5	660,646160
2,891833	0,5	578,341359
2,900167	0,5	508,265408
2,908500	0,5	446,354957
2,916833	0,5	392,304256
2,925167	0,5	345,186605
2,933500	0,5	304,375255
2,941833	0,5	269,312604
2,950167	0,5	239,548404
2,958500	0,5	214,331653
2,966833	0,5	192,821053
2,975167	0,5	174,423703
2,983500	0,5	158,614302
2,991833	0,5	144,883502
3,000167	0,5	132,769952
3,008500	0,5	121,887652
3,016833	0,5	112,115202
3,025167	0,5	103,296302
3,033500	0,5	95,380751
3,041833	0,5	88,234701
3,050167	0,5	81,824551
3,058500	0,5	76,025851
3,066833	0,5	70,799801
3,075167	0,5	66,068251
3,083500	0,5	61,781951
3,091833	0,5	57,842251
3,100167	0,5	54,290601
3,108500	0,5	50,966351
3,116833	0,5	47,885051
3,125167	0,5	45,011951
3,133500	0,5	42,366901
3,141833	0,5	39,946001
3,150167	0,5	37,683751
3,158500	0,5	35,581501
3,166833	0,5	33,651951
3,175167	0,5	31,903000
3,183500	0,5	30,309500
3,191833	0,5	28,890350
3,200167	0,5	27,618450
3,208500	0,5	26,488800
3,216833	0,5	25,515200
3,225167	0,5	24,743450
3,233500	0,5	24,237550
3,241833	0,5	24,119400
3,250167	0,5	24,560850
3,258500	0,5	25,481450
3,266833	0,5	26,698200
3,275167	0,5	27,753850
3,283500	0,5	28,150900
3,291833	0,5	27,622950
3,300167	0,5	26,126050
3,308500	0,5	24,019150
3,316833	0,5	21,734150
3,325167	0,5	19,595950
3,333500	0,5	17,771800
3,341833	0,5	16,296000
3,350167	0,5	15,121050
3,358500	0,5	14,162900
3,366833	0,5	13,369900
3,375167	0,5	12,688250
3,383500	0,5	12,105550
3,391833	0,5	11,579750
3,400167	0,5	11,156850
3,408500	0,5	10,741650
3,416833	0,5	10,397550
3,425167	0,5	10,096050
3,433500	0,5	9,846600
3,441833	0,5	9,630950
3,450167	0,5	9,414750
3,458500	0,5	9,219400
3,466833	0,5	9,058050
3,475167	0,5	8,916950
3,483500	0,5	8,784900
3,491833	0,5	8,667100
3,500167	0,5	8,550050
3,508500	0,5	8,428550
3,516833	0,5	8,315500
3,525167	0,5	8,203400
3,533500	0,5	8,047000
3,541833	0,5	7,917500
3,550167	0,5	7,781150
3,558500	0,5	7,618000
3,566833	0,5	7,458550
3,575167	0,5	7,311750
3,583500	0,5	7,159050
3,591833	0,5	7,014150
3,600167	0,5	6,818400
3,608500	0,5	6,638150
3,616833	0,5	6,449600
3,625167	0,5	6,272250
3,633500	0,5	6,088200
3,641833	0,5	5,920500
3,650167	0,5	5,745950
3,658500	0,5	5,592750
3,666833	0,5	5,450400
3,675167	0,5	5,292900
3,683500	0,5	5,141100
3,691833	0,5	5,008300
3,700167	0,5	4,853250
3,708500	0,5	4,691550
3,716833	0,5	4,545750
3,725167	0,5	4,411850
3,733500	0,5	4,304850
3,741833	0,5	4,170150
3,750167	0,5	4,040500
3,758500	0,5	3,904650
3,766833	0,5	3,796300
3,775167	0,5	3,687450
3,783500	0,5	3,601700
3,791833	0,5	3,527200
3,800167	0,5	3,472850
3,808500	0,5	3,445300
3,816833	0,5	3,448700
3,825167	0,5	3,483050
3,833500	0,5	3,574550
3,841833	0,5	3,682700
3,850167	0,5	3,770200
3,858500	0,5	3,824700
3,866833	0,5	3,827250
3,875167	0,5	3,776950
3,883500	0,5	3,661650
3,891833	0,5	3,496050
3,900167	0,5	3,281800
3,908500	0,5	3,088700
3,916833	0,5	2,910850
3,925167	0,5	2,751800
3,933500	0,5	2,616400
3,941833	0,5	2,504050
3,950167	0,5	2,388000
3,958500	0,5	2,298200
3,966833	0,5	2,219450
3,975167	0,5	2,136050
3,983500	0,5	2,063750
3,991833	0,5	1,991700
4,000167	0,5	1,901250
4,008500	0,5	1,837050
4,016833	0,5	1,768250
4,025167	0,5	1,738000
4,033500	0,5	1,709150
4,041833	0,5	1,657700
4,050167	0,5	1,622750
4,058500	0,5	1,594100
4,066833	0,5	1,574800
4,075167	0,5	1,567000
4,083500	0,5	1,563750
4,091833	0,5	1,547150
4,100167	0,5	1,524800
4,108500	0,5	1,491500
4,116833	0,5	1,452150
4,125167	0,5	1,380300
4,133500	0,5	1,345600
4,141833	0,5	1,270700
4,150167	0,5	1,199250
4,158500	0,5	1,114650
4,166833	0,5	1,044450
4,175167	0,5	0,995450
4,183500	0,5	0,921000
4,191833	0,5	0,852900
4,200167	0,5	0,790150
4,208500	0,5	0,750100
4,216833	0,5	0,712200
4,225167	0,5	0,678000
4,233500	0,5	0,662350
4,241833	0,5	0,654050
4,250167	0,5	0,652100
4,258500	0,5	0,677350
4,266833	0,5	0,697950
4,275167	0,5	0,764400
4,283500	0,5	0,902900
4,291833	0,5	1,075650
4,300167	0,5	1,336800
4,308500	0,5	1,733000
4,316833	0,5	2,275650
4,325167	0,5	3,022250
4,333500	0,5	3,899900
4,341833	0,5	4,958650
4,350167	0,5	6,197750
4,358500	0,5	7,612100
4,366833	0,5	9,196600
4,375167	0,5	11,007900
4,383500	0,5	13,094400
4,391833	0,5	15,610700
4,400167	0,5	18,854250
4,408500	0,5	23,265550
4,416833	0,5	29,523200
4,425167	0,5	38,542001
4,433500	0,5	51,304001
4,441833	0,5	68,369851
4,450167	0,5	89,604351
4,458500	0,5	113,436152
4,466833	0,5	137,255202
4,475167	0,5	157,984102
4,483500	0,5	173,115303
4,491833	0,5	181,485753
4,500167	0,5	183,317653
4,508500	0,5	179,460853
4,516833	0,5	171,298253
4,525167	0,5	160,085702
4,533500	0,5	146,966852
4,541833	0,5	132,870352
4,550167	0,5	118,539652
4,558500	0,5	104,528752
4,566833	0,5	91,199851
4,575167	0,5	78,926501
4,583500	0,5	67,847551
4,591833	0,5	58,014751
4,600167	0,5	49,498001
4,608500	0,5	42,249601
4,616833	0,5	36,155501
4,625167	0,5	31,094750
4,633500	0,5	26,877100
4,641833	0,5	23,429700
4,650167	0,5	20,574200
4,658500	0,5	18,224950
4,666833	0,5	16,232750
4,675167	0,5	14,554050
4,683500	0,5	13,101850
4,691833	0,5	11,842650
4,700167	0,5	10,729850
4,708500	0,5	9,729200
4,716833	0,5	8,832350
4,725167	0,5	8,061000
4,733500	0,5	7,339950
4,741833	0,5	6,698100
4,750167	0,5	6,132700
4,758500	0,5	5,645400
4,766833	0,5	5,230550
4,775167	0,5	4,848250
4,783500	0,5	4,511450
4,791833	0,5	4,213950
4,800167	0,5	3,955850
4,808500	0,5	3,715900
4,816833	0,5	3,495050
4,825167	0,5	3,277700
4,833500	0,5	3,058500
4,841833	0,5	2,840300
4,850167	0,5	2,617250
4,858500	0,5	2,385750
4,866833	0,5	2,178200
4,875167	0,5	1,975600
4,883500	0,5	1,776300
4,891833	0,5	1,586550
4,900167	0,5	1,435000
4,908500	0,5	1,300950
4,916833	0,5	1,187000
4,925167	0,5	1,079900
4,933500	0,5	0,976600
4,941833	0,5	0,897850
4,950167	0,5	0,819750
4,958500	0,5	0,761750
4,966833	0,5	0,718000
4,975167	0,5	0,680200
4,983500	0,5	0,644050
4,991833	0,5	0,635100
5,000167	0,5	0,623150
5,008500	0,5	0,617250
5,016833	0,5	0,634500
5,025167	0,5	0,646700
5,033500	0,5	0,640050
5,041833	0,5	0,653250
5,050167	0,5	0,659800
5,058500	0,5	0,694250
5,066833	0,5	0,704700
5,075167	0,5	0,695700
5,083500	0,5	0,673200
5,091833	0,5	0,653700
5,100167	0,5	0,625100
5,108500	0,5	0,589150
5,116833	0,5	0,565300
5,125167	0,5	0,538550
5,133500	0,5	0,515500
5,141833	0,5	0,494250
5,150167	0,5	0,471900
5,158500	0,5	0,448400
5,166833	0,5	0,463850
5,175167	0,5	0,450750
5,183500	0,5	0,442250
5,191833	0,5	0,435000
5,200167	0,5	0,438050
5,208500	0,5	0,455000
5,216833	0,5	0,445500
5,225167	0,5	0,428450
5,233500	0,5	0,416050
5,241833	0,5	0,406100
5,250167	0,5	0,390900
5,258500	0,5	0,377600
5,266833	0,5	0,366000
5,275167	0,5	0,344500
5,283500	0,5	0,319200
5,291833	0,5	0,300250
5,300167	0,5	0,253600
5,308500	0,5	0,219450
5,316833	0,5	0,216150
5,325167	0,5	0,190000
5,333500	0,5	0,161700
5,341833	0,5	0,157500
5,350167	0,5	0,157900
5,358500	0,5	0,189450
5,366833	0,5	0,177350
5,375167	0,5	0,188250
5,383500	0,5	0,196100
5,391833	0,5	0,208400
5,400167	0,5	0,206600
5,408500	0,5	0,225900
5,416833	0,5	0,232150
5,425167	0,5	0,240850
5,433500	0,5	0,250800
5,441833	0,5	0,261900
5,450167	0,5	0,260600
5,458500	0,5	0,263450
5,466833	0,5	0,278150
5,475167	0,5	0,269550
5,483500	0,5	0,266300
5,491833	0,5	0,265050
5,500167	0,5	0,281700
5,508500	0,5	0,290300
5,516833	0,5	0,278900
5,525167	0,5	0,257900
5,533500	0,5	0,262850
5,541833	0,5	0,253950
5,550167	0,5	0,262000
5,558500	0,5	0,261500
5,566833	0,5	0,265050
5,575167	0,5	0,260950
5,583500	0,5	0,284900
5,591833	0,5	0,296600
5,600167	0,5	0,297350
5,608500	0,5	0,326450
5,616833	0,5	0,346900
5,625167	0,5	0,353700
5,633500	0,5	0,385000
5,641833	0,5	0,421600
5,650167	0,5	0,477400
5,658500	0,5	0,526550
5,666833	0,5	0,566400
5,675167	0,5	0,628900
5,683500	0,5	0,699850
5,691833	0,5	0,791700
5,700167	0,5	0,889000
5,708500	0,5	0,999350
5,716833	0,5	1,112100
5,725167	0,5	1,240650
5,733500	0,5	1,361150
5,741833	0,5	1,466900
5,750167	0,5	1,545600
5,758500	0,5	1,622850
5,766833	0,5	1,630400
5,775167	0,5	1,612750
5,783500	0,5	1,560800
5,791833	0,5	1,509850
5,800167	0,5	1,426550
5,808500	0,5	1,315400
5,816833	0,5	1,192900
5,825167	0,5	1,077400
5,833500	0,5	0,973700
5,841833	0,5	0,878700
5,850167	0,5	0,807900
5,858500	0,5	0,752950
5,866833	0,5	0,709150
5,875167	0,5	0,680500
5,883500	0,5	0,656750
5,891833	0,5	0,632750
5,900167	0,5	0,630950
5,908500	0,5	0,632150
5,916833	0,5	0,623300
5,925167	0,5	0,615850
5,933500	0,5	0,619400
5,941833	0,5	0,635200
5,950167	0,5	0,653650
5,958500	0,5	0,647950
5,966833	0,5	0,645150
5,975167	0,5	0,643100
5,983500	0,5	0,644300
5,991833	0,5	0,638650
6,000167	0,5	0,643350
6,008500	0,5	0,637150
6,016833	0,5	0,629550
6,025167	0,5	0,626500
6,033500	0,5	0,614550
6,041833	0,5	0,602850
6,050167	0,5	0,613300
6,058500	0,5	0,609650
6,066833	0,5	0,598250
6,075167	0,5	0,602900
6,083500	0,5	0,605100
6,091833	0,5	0,636800
6,100167	0,5	0,651850
6,108500	0,5	0,662400
6,116833	0,5	0,657100
6,125167	0,5	0,672900
6,133500	0,5	0,683200
6,141833	0,5	0,695650
6,150167	0,5	0,713400
6,158500	0,5	0,730350
6,166833	0,5	0,747300
6,175167	0,5	0,774200
6,183500	0,5	0,794900
6,191833	0,5	0,803500
6,200167	0,5	0,846050
6,208500	0,5	0,849800
6,216833	0,5	0,852750
6,225167	0,5	0,867750
6,233500	0,5	0,883750
6,241833	0,5	0,911400
6,250167	0,5	0,917950
6,258500	0,5	0,914200
6,266833	0,5	0,926050
6,275167	0,5	0,931800
6,283500	0,5	0,947550
6,291833	0,5	0,962300
6,300167	0,5	0,983700
6,308500	0,5	1,011250
6,316833	0,5	1,038900
6,325167	0,5	1,080200
6,333500	0,5	1,116000
6,341833	0,5	1,167400
6,350167	0,5	1,254150
6,358500	0,5	1,332850
6,366833	0,5	1,430450
6,375167	0,5	1,562300
6,383500	0,5	1,706200
6,391833	0,5	1,880650
6,400167	0,5	2,013950
6,408500	0,5	2,153100
6,416833	0,5	2,258400
6,425167	0,5	2,328350
6,433500	0,5	2,342300
6,441833	0,5	2,324800
6,450167	0,5	2,255300
6,458500	0,5	2,165550
6,466833	0,5	2,051600
6,475167	0,5	1,933000
6,483500	0,5	1,802400
6,491833	0,5	1,711150
6,500167	0,5	1,646700
6,508500	0,5	1,587750
6,516833	0,5	1,556900
6,525167	0,5	1,544350
6,533500	0,5	1,550350
6,541833	0,5	1,572000
6,550167	0,5	1,578000
6,558500	0,5	1,581300
6,566833	0,5	1,602300
6,575167	0,5	1,613550
6,583500	0,5	1,630950
6,591833	0,5	1,644350
6,600167	0,5	1,662850
6,608500	0,5	1,675200
6,616833	0,5	1,706650
6,625167	0,5	1,718000
6,633500	0,5	1,737550
6,641833	0,5	1,772200
6,650167	0,5	1,809050
6,658500	0,5	1,845350
6,666833	0,5	1,905200
6,675167	0,5	1,977600
6,683500	0,5	2,072850
6,691833	0,5	2,157300
6,700167	0,5	2,226700
6,708500	0,5	2,282950
6,716833	0,5	2,332450
6,725167	0,5	2,351500
6,733500	0,5	2,340950
6,741833	0,5	2,315750
6,750167	0,5	2,254300
6,758500	0,5	2,192950
6,766833	0,5	2,121250
6,775167	0,5	2,051850
6,783500	0,5	1,988750
6,791833	0,5	1,952800
6,800167	0,5	1,909200
6,808500	0,5	1,876000
6,816833	0,5	1,853600
6,825167	0,5	1,862650
6,833500	0,5	1,876450
6,841833	0,5	1,880200
6,850167	0,5	1,885050
6,858500	0,5	1,904100
6,866833	0,5	1,926900
6,875167	0,5	1,965100
6,883500	0,5	2,006200
6,891833	0,5	2,046950
6,900167	0,5	2,083550
6,908500	0,5	2,122850
6,916833	0,5	2,145050
6,925167	0,5	2,145650
6,933500	0,5	2,143950
6,941833	0,5	2,136350
6,950167	0,5	2,109350
6,958500	0,5	2,086850
6,966833	0,5	2,063650
6,975167	0,5	2,054150
6,983500	0,5	2,051950
6,991833	0,5	2,038750
7,000167	0,5	2,025750
7,008500	0,5	2,009050
7,016833	0,5	1,998200
7,025167	0,5	1,990550
7,033500	0,5	1,982550
7,041833	0,5	1,973700
7,050167	0,5	1,968750
7,058500	0,5	1,983600
7,066833	0,5	2,000250
7,075167	0,5	2,022150
7,083500	0,5	2,068750
7,091833	0,5	2,109050
7,100167	0,5	2,152550
7,108500	0,5	2,198100
7,116833	0,5	2,246950
7,125167	0,5	2,328550
7,133500	0,5	2,400600
7,141833	0,5	2,486100
7,150167	0,5	2,565250
7,158500	0,5	2,661800
7,166833	0,5	2,740250
7,175167	0,5	2,813850
7,183500	0,5	2,869650
7,191833	0,5	2,914150
7,200167	0,5	2,951850
7,208500	0,5	2,982450
7,216833	0,5	3,033150
7,225167	0,5	3,096800
7,233500	0,5	3,200100
7,241833	0,5	3,302150
7,250167	0,5	3,437250
7,258500	0,5	3,648250
7,266833	0,5	3,942150
7,275167	0,5	4,300600
7,283500	0,5	4,665400
7,291833	0,5	4,961350
7,300167	0,5	5,135950
7,308500	0,5	5,171000
7,316833	0,5	5,090250
7,325167	0,5	4,923500
7,333500	0,5	4,728950
7,341833	0,5	4,507250
7,350167	0,5	4,275000
7,358500	0,5	4,035250
7,366833	0,5	3,789650
7,375167	0,5	3,565850
7,383500	0,5	3,362700
7,391833	0,5	3,185950
7,400167	0,5	3,041500
7,408500	0,5	2,936550
7,416833	0,5	2,879950
7,425167	0,5	2,877750
7,433500	0,5	2,906700
7,441833	0,5	2,998200
7,450167	0,5	3,119900
7,458500	0,5	3,275700
7,466833	0,5	3,449150
7,475167	0,5	3,630250
7,483500	0,5	3,814900
7,491833	0,5	3,997850
7,500167	0,5	4,168800
7,508500	0,5	4,290800
7,516833	0,5	4,305850
7,525167	0,5	4,241750
7,533500	0,5	4,093200
7,541833	0,5	3,903500
7,550167	0,5	3,699050
7,558500	0,5	3,503350
7,566833	0,5	3,321500
7,575167	0,5	3,158900
7,583500	0,5	3,014900
7,591833	0,5	2,909300
7,600167	0,5	2,859050
7,608500	0,5	2,875400
7,616833	0,5	2,952750
7,625167	0,5	3,120050
7,633500	0,5	3,374000
7,641833	0,5	3,737100
7,650167	0,5	4,164350
7,658500	0,5	4,594400
7,666833	0,5	4,962000
7,675167	0,5	5,267250
7,683500	0,5	5,557150
7,691833	0,5	6,052850
7,700167	0,5	7,124350
7,708500	0,5	9,259900
7,716833	0,5	12,854700
7,725167	0,5	17,669950
7,733500	0,5	22,487200
7,741833	0,5	25,605650
7,750167	0,5	26,027300
7,758500	0,5	24,107050
7,766833	0,5	21,130450
7,775167	0,5	18,313050
7,783500	0,5	16,298850
7,791833	0,5	15,175050
7,800167	0,5	14,694500
7,808500	0,5	14,477100
7,816833	0,5	14,168450
7,825167	0,5	13,541800
7,833500	0,5	12,524100
7,841833	0,5	11,270650
7,850167	0,5	10,035700
7,858500	0,5	9,126950
7,866833	0,5	8,713100
7,875167	0,5	8,831250
7,883500	0,5	9,271150
7,891833	0,5	9,701050
7,900167	0,5	9,773550
7,908500	0,5	9,385550
7,916833	0,5	8,691550
7,925167	0,5	7,997150
7,933500	0,5	7,630850
7,941833	0,5	7,840000
7,950167	0,5	8,730400
7,958500	0,5	10,216650
7,966833	0,5	11,866250
7,975167	0,5	13,012050
7,983500	0,5	13,095450
7,991833	0,5	12,062200
8,000167	0,5	10,323300
8,008500	0,5	8,482800
8,016833	0,5	6,938000
8,025167	0,5	5,815200
8,033500	0,5	5,063750
8,041833	0,5	4,546900
8,050167	0,5	4,152850
8,058500	0,5	3,839100
8,066833	0,5	3,592850
8,075167	0,5	3,421200
8,083500	0,5	3,329650
8,091833	0,5	3,299450
8,100167	0,5	3,323300
8,108500	0,5	3,370050
8,116833	0,5	3,429500
8,125167	0,5	3,465100
8,133500	0,5	3,495900
8,141833	0,5	3,530050
8,150167	0,5	3,569200
8,158500	0,5	3,596550
8,166833	0,5	3,573250
8,175167	0,5	3,491700
8,183500	0,5	3,376900
8,191833	0,5	3,263400
8,200167	0,5	3,154750
8,208500	0,5	3,059500
8,216833	0,5	2,977050
8,225167	0,5	2,906150
8,233500	0,5	2,841750
8,241833	0,5	2,788550
8,250167	0,5	2,755250
8,258500	0,5	2,739100
8,266833	0,5	2,738150
8,275167	0,5	2,732100
8,283500	0,5	2,737400
8,291833	0,5	2,741250
8,300167	0,5	2,752100
8,308500	0,5	2,765300
8,316833	0,5	2,772200
8,325167	0,5	2,786500
8,333500	0,5	2,821400
8,341833	0,5	2,892850
8,350167	0,5	3,015600
8,358500	0,5	3,209450
8,366833	0,5	3,470100
8,375167	0,5	3,775350
8,383500	0,5	4,062350
8,391833	0,5	4,263150
8,400167	0,5	4,323650
8,408500	0,5	4,253800
8,416833	0,5	4,101800
8,425167	0,5	3,938450
8,433500	0,5	3,874700
8,441833	0,5	3,973700
8,450167	0,5	4,282150
8,458500	0,5	4,832000
8,466833	0,5	5,606750
8,475167	0,5	6,563550
8,483500	0,5	7,594700
8,491833	0,5	8,493800
8,500167	0,5	9,054900
8,508500	0,5	9,129300
8,516833	0,5	8,742200
8,525167	0,5	8,063450
8,533500	0,5	7,296600
8,541833	0,5	6,591600
8,550167	0,5	6,002500
8,558500	0,5	5,549900
8,566833	0,5	5,190600
8,575167	0,5	4,901500
8,583500	0,5	4,638250
8,591833	0,5	4,382300
8,600167	0,5	4,118050
8,608500	0,5	3,843150
8,616833	0,5	3,607300
8,625167	0,5	3,421150
8,633500	0,5	3,296500
8,641833	0,5	3,210850
8,650167	0,5	3,142500
8,658500	0,5	3,056850
8,666833	0,5	2,951150
8,675167	0,5	2,840400
8,683500	0,5	2,738600
8,691833	0,5	2,646400
8,700167	0,5	2,572600
8,708500	0,5	2,525150
8,716833	0,5	2,484200
8,725167	0,5	2,449300
8,733500	0,5	2,429000
8,741833	0,5	2,409000
8,750167	0,5	2,398600
8,758500	0,5	2,374550
8,766833	0,5	2,343550
8,775167	0,5	2,307400
8,783500	0,5	2,277950
8,791833	0,5	2,244250
8,800167	0,5	2,225750
8,808500	0,5	2,212450
8,816833	0,5	2,208250
8,825167	0,5	2,205850
8,833500	0,5	2,207600
8,841833	0,5	2,218800
8,850167	0,5	2,236400
8,858500	0,5	2,263200
8,866833	0,5	2,304450
8,875167	0,5	2,380650
8,883500	0,5	2,490700
8,891833	0,5	2,641850
8,900167	0,5	2,824200
8,908500	0,5	3,021000
8,916833	0,5	3,199600
8,925167	0,5	3,331450
8,933500	0,5	3,408700
8,941833	0,5	3,416550
8,950167	0,5	3,353600
8,958500	0,5	3,245250
8,966833	0,5	3,110000
8,975167	0,5	2,969350
8,983500	0,5	2,858350
8,991833	0,5	2,788800
9,000167	0,5	2,782250
9,008500	0,5	2,838350
9,016833	0,5	2,945550
9,025167	0,5	3,082750
9,033500	0,5	3,213750
9,041833	0,5	3,317550
9,050167	0,5	3,378900
9,058500	0,5	3,398150
9,066833	0,5	3,410200
9,075167	0,5	3,418050
9,083500	0,5	3,418800
9,091833	0,5	3,398150
9,100167	0,5	3,372350
9,108500	0,5	3,381550
9,116833	0,5	3,482550
9,125167	0,5	3,697500
9,133500	0,5	4,043650
9,141833	0,5	4,491850
9,150167	0,5	4,979050
9,158500	0,5	5,404850
9,166833	0,5	5,655500
9,175167	0,5	5,668950
9,183500	0,5	5,435850
9,191833	0,5	5,018550
9,200167	0,5	4,509900
9,208500	0,5	4,011400
9,216833	0,5	3,586100
9,225167	0,5	3,271150
9,233500	0,5	3,062650
9,241833	0,5	2,970050
9,250167	0,5	2,967500
9,258500	0,5	3,041450
9,266833	0,5	3,170450
9,275167	0,5	3,303450
9,283500	0,5	3,378100
9,291833	0,5	3,383650
9,300167	0,5	3,317150
9,308500	0,5	3,208100
9,316833	0,5	3,067850
9,325167	0,5	2,938550
9,333500	0,5	2,820450
9,341833	0,5	2,728550
9,350167	0,5	2,668600
9,358500	0,5	2,635700
9,366833	0,5	2,634000
9,375167	0,5	2,667800
9,383500	0,5	2,713400
9,391833	0,5	2,769100
9,400167	0,5	2,824000
9,408500	0,5	2,864900
9,416833	0,5	2,876050
9,425167	0,5	2,857000
9,433500	0,5	2,807400
9,441833	0,5	2,731200
9,450167	0,5	2,652850
9,458500	0,5	2,565200
9,466833	0,5	2,476050
9,475167	0,5	2,389100
9,483500	0,5	2,312100
9,491833	0,5	2,241850
9,500167	0,5	2,182800
9,508500	0,5	2,137300
9,516833	0,5	2,106500
9,525167	0,5	2,085400
9,533500	0,5	2,078050
9,541833	0,5	2,092200
9,550167	0,5	2,098300
9,558500	0,5	2,105000
9,566833	0,5	2,103100
9,575167	0,5	2,093400
9,583500	0,5	2,073050
9,591833	0,5	2,048450
9,600167	0,5	2,020100
9,608500	0,5	1,996400
9,616833	0,5	1,979300
9,625167	0,5	1,981450
9,633500	0,5	1,983700
9,641833	0,5	1,995700
9,650167	0,5	2,010650
9,658500	0,5	2,019550
9,666833	0,5	2,028400
9,675167	0,5	2,019900
9,683500	0,5	2,001500
9,691833	0,5	1,959000
9,700167	0,5	1,924000
9,708500	0,5	1,879550
9,716833	0,5	1,847300
9,725167	0,5	1,827050
9,733500	0,5	1,805050
9,741833	0,5	1,783050
9,750167	0,5	1,761150
9,758500	0,5	1,732950
9,766833	0,5	1,703350
9,775167	0,5	1,680250
9,783500	0,5	1,658850
9,791833	0,5	1,641700
9,800167	0,5	1,635100
9,808500	0,5	1,626650
9,816833	0,5	1,625350
9,825167	0,5	1,622800
9,833500	0,5	1,623100
9,841833	0,5	1,629750
9,850167	0,5	1,643400
9,858500	0,5	1,658850
9,866833	0,5	1,683950
9,875167	0,5	1,714050
9,883500	0,5	1,749250
9,891833	0,5	1,791150
9,900167	0,5	1,839750
9,908500	0,5	1,889250
9,916833	0,5	1,963200
9,925167	0,5	2,046050
9,933500	0,5	2,146650
9,941833	0,5	2,237250
9,950167	0,5	2,313450
9,958500	0,5	2,351700
9,966833	0,5	2,351250
9,975167	0,5	2,298450
9,983500	0,5	2,213000
9,991833	0,5	2,107450
10,000167	0,5	1,991600
10,008500	0,5	1,881050
10,016833	0,5	1,787950
10,025167	0,5	1,720750
10,033500	0,5	1,671250
10,041833	0,5	1,642600
10,050167	0,5	1,624250
10,058500	0,5	1,610750
10,066833	0,5	1,596800
10,075167	0,5	1,598150
10,083500	0,5	1,594150
10,091833	0,5	1,591150
10,100167	0,5	1,587050
10,108500	0,5	1,588400
10,116833	0,5	1,587450
10,125167	0,5	1,588450
10,133500	0,5	1,594550
10,141833	0,5	1,602150
10,150167	0,5	1,612900
10,158500	0,5	1,630050
10,166833	0,5	1,653600
10,175167	0,5	1,689700
10,183500	0,5	1,730800
10,191833	0,5	1,770200
10,200167	0,5	1,798950
10,208500	0,5	1,814300
10,216833	0,5	1,805300
10,225167	0,5	1,775150
10,233500	0,5	1,737450
10,241833	0,5	1,693700
10,250167	0,5	1,640300
10,258500	0,5	1,599950
10,266833	0,5	1,564750
10,275167	0,5	1,533450
10,283500	0,5	1,501650
10,291833	0,5	1,486150
10,300167	0,5	1,464400
10,308500	0,5	1,450450
10,316833	0,5	1,443050
10,325167	0,5	1,426900
10,333500	0,5	1,428550
10,341833	0,5	1,430000
10,350167	0,5	1,433350
10,358500	0,5	1,427000
10,366833	0,5	1,430650
10,375167	0,5	1,440350
10,383500	0,5	1,451700
10,391833	0,5	1,461700
10,400167	0,5	1,486300
10,408500	0,5	1,510050
10,416833	0,5	1,539500
10,425167	0,5	1,571450
10,433500	0,5	1,616550
10,441833	0,5	1,667300
10,450167	0,5	1,732200
10,458500	0,5	1,799250
10,466833	0,5	1,868650
10,475167	0,5	1,918100
10,483500	0,5	1,954300
10,491833	0,5	1,961300
10,500167	0,5	1,941050
10,508500	0,5	1,898200
10,516833	0,5	1,846300
10,525167	0,5	1,806200
10,533500	0,5	1,770800
10,541833	0,5	1,740050
10,550167	0,5	1,722500
10,558500	0,5	1,706900
10,566833	0,5	1,694450
10,575167	0,5	1,692550
10,583500	0,5	1,699400
10,591833	0,5	1,710450
10,600167	0,5	1,734300
10,608500	0,5	1,770850
10,616833	0,5	1,841050
10,625167	0,5	1,949100
10,633500	0,5	2,123500
10,641833	0,5	2,379450
10,650167	0,5	2,711050
10,658500	0,5	3,095950
10,666833	0,5	3,487050
10,675167	0,5	3,831350
10,683500	0,5	4,040100
10,691833	0,5	4,060700
10,700167	0,5	3,927600
10,708500	0,5	3,666650
10,716833	0,5	3,354900
10,725167	0,5	3,042800
10,733500	0,5	2,763550
10,741833	0,5	2,535000
10,750167	0,5	2,337700
10,758500	0,5	2,170300
10,766833	0,5	2,007050
10,775167	0,5	1,857700
10,783500	0,5	1,718800
10,791833	0,5	1,593800
10,800167	0,5	1,488900
10,808500	0,5	1,419900
10,816833	0,5	1,364150
10,825167	0,5	1,344800
10,833500	0,5	1,332800
10,841833	0,5	1,343950
10,850167	0,5	1,360200
10,858500	0,5	1,384550
10,866833	0,5	1,412750
10,875167	0,5	1,440950
10,883500	0,5	1,464850
10,891833	0,5	1,481300
10,900167	0,5	1,491150
10,908500	0,5	1,491100
10,916833	0,5	1,480550
10,925167	0,5	1,461750
10,933500	0,5	1,452700
10,941833	0,5	1,432550
10,950167	0,5	1,418050
10,958500	0,5	1,405750
10,966833	0,5	1,402500
10,975167	0,5	1,400950
10,983500	0,5	1,399850
10,991833	0,5	1,393750
11,000167	0,5	1,391700
11,008500	0,5	1,386050
11,016833	0,5	1,384450
11,025167	0,5	1,382150
11,033500	0,5	1,380600
11,041833	0,5	1,378950
11,050167	0,5	1,379550
11,058500	0,5	1,380200
11,066833	0,5	1,384400
11,075167	0,5	1,394950
11,083500	0,5	1,402350
11,091833	0,5	1,411300
11,100167	0,5	1,427250
11,108500	0,5	1,452100
11,116833	0,5	1,487950
11,125167	0,5	1,543700
11,133500	0,5	1,585650
11,141833	0,5	1,632450
11,150167	0,5	1,670950
11,158500	0,5	1,704850
11,166833	0,5	1,719750
11,175167	0,5	1,727800
11,183500	0,5	1,711350
11,191833	0,5	1,700550
11,200167	0,5	1,679200
11,208500	0,5	1,644850
11,216833	0,5	1,628100
11,225167	0,5	1,609050
11,233500	0,5	1,593800
11,241833	0,5	1,588900
11,250167	0,5	1,579750
11,258500	0,5	1,595200
11,266833	0,5	1,622000
11,275167	0,5	1,641650
11,283500	0,5	1,673850
11,291833	0,5	1,724650
11,300167	0,5	1,788250
11,308500	0,5	1,847150
11,316833	0,5	1,912050
11,325167	0,5	1,953150
11,333500	0,5	1,962800
11,341833	0,5	1,949250
11,350167	0,5	1,904450
11,358500	0,5	1,838900
11,366833	0,5	1,786800
11,375167	0,5	1,735200
11,383500	0,5	1,685250
11,391833	0,5	1,644700
11,400167	0,5	1,608400
11,408500	0,5	1,583800
11,416833	0,5	1,559050
11,425167	0,5	1,533450
11,433500	0,5	1,512150
11,441833	0,5	1,496300
11,450167	0,5	1,489150
11,458500	0,5	1,486050
11,466833	0,5	1,483000
11,475167	0,5	1,498050
11,483500	0,5	1,516450
11,491833	0,5	1,555700
11,500167	0,5	1,608750
11,508500	0,5	1,670350
11,516833	0,5	1,769150
11,525167	0,5	1,889550
11,533500	0,5	2,035900
11,541833	0,5	2,218050
11,550167	0,5	2,416100
11,558500	0,5	2,638450
11,566833	0,5	2,852450
11,575167	0,5	3,040700
11,583500	0,5	3,167150
11,591833	0,5	3,211950
11,600167	0,5	3,165700
11,608500	0,5	3,038400
11,616833	0,5	2,851250
11,625167	0,5	2,642100
11,633500	0,5	2,438250
11,641833	0,5	2,254500
11,650167	0,5	2,099900
11,658500	0,5	1,976450
11,666833	0,5	1,905700
11,675167	0,5	1,851850
11,683500	0,5	1,827000
11,691833	0,5	1,810400
11,700167	0,5	1,810850
11,708500	0,5	1,803700
11,716833	0,5	1,790000
11,725167	0,5	1,765650
11,733500	0,5	1,736550
11,741833	0,5	1,690200
11,750167	0,5	1,652350
11,758500	0,5	1,607450
11,766833	0,5	1,562550
11,775167	0,5	1,519350
11,783500	0,5	1,483850
11,791833	0,5	1,450500
11,800167	0,5	1,407850
11,808500	0,5	1,383700
11,816833	0,5	1,360450
11,825167	0,5	1,338000
11,833500	0,5	1,319050
11,841833	0,5	1,304300
11,850167	0,5	1,294000
11,858500	0,5	1,300050
11,866833	0,5	1,291250
11,875167	0,5	1,300250
11,883500	0,5	1,303700
11,891833	0,5	1,312850
11,900167	0,5	1,315600
11,908500	0,5	1,335300
11,916833	0,5	1,344200
11,925167	0,5	1,360350
11,933500	0,5	1,382050
11,941833	0,5	1,412750
11,950167	0,5	1,443300
11,958500	0,5	1,503000
11,966833	0,5	1,563250
11,975167	0,5	1,647950
11,983500	0,5	1,743850
11,991833	0,5	1,840700
12,000167	0,5	1,950750
12,008500	0,5	2,033750
12,016833	0,5	2,097250
12,025167	0,5	2,119100
12,033500	0,5	2,107150
12,041833	0,5	2,061350
12,050167	0,5	1,993150
12,058500	0,5	1,914450
12,066833	0,5	1,837700
12,075167	0,5	1,782750
12,083500	0,5	1,746100
12,091833	0,5	1,707850
12,100167	0,5	1,695650
12,108500	0,5	1,689350
12,116833	0,5	1,688400
12,125167	0,5	1,685050
12,133500	0,5	1,685800
12,141833	0,5	1,686900
12,150167	0,5	1,698600
12,158500	0,5	1,708200
12,166833	0,5	1,723650
12,175167	0,5	1,744000
12,183500	0,5	1,776950
12,191833	0,5	1,827050
12,200167	0,5	1,887350
12,208500	0,5	1,950950
12,216833	0,5	2,007750
12,225167	0,5	2,054050
12,233500	0,5	2,086550
12,241833	0,5	2,101950
12,250167	0,5	2,131750
12,258500	0,5	2,165750
12,266833	0,5	2,214250
12,275167	0,5	2,274850
12,283500	0,5	2,352700
12,291833	0,5	2,459050
12,300167	0,5	2,578650
12,308500	0,5	2,687100
12,316833	0,5	2,786200
12,325167	0,5	2,845450
12,333500	0,5	2,858450
12,341833	0,5	2,825150
12,350167	0,5	2,751650
12,358500	0,5	2,650750
12,366833	0,5	2,541600
12,375167	0,5	2,442650
12,383500	0,5	2,361900
12,391833	0,5	2,297250
12,400167	0,5	2,268750
12,408500	0,5	2,244000
12,416833	0,5	2,220750
12,425167	0,5	2,196700
12,433500	0,5	2,159650
12,441833	0,5	2,131800
12,450167	0,5	2,087550
12,458500	0,5	2,040200
12,466833	0,5	2,002500
12,475167	0,5	1,965400
12,483500	0,5	1,934200
12,491833	0,5	1,917050
12,500167	0,5	1,896100
12,508500	0,5	1,880450
12,516833	0,5	1,855800
12,525167	0,5	1,839850
12,533500	0,5	1,807650
12,541833	0,5	1,768050
12,550167	0,5	1,742100
12,558500	0,5	1,700850
12,566833	0,5	1,661300
12,575167	0,5	1,630450
12,583500	0,5	1,595800
12,591833	0,5	1,584100
12,600167	0,5	1,571400
12,608500	0,5	1,564250
12,616833	0,5	1,561550
12,625167	0,5	1,562500
12,633500	0,5	1,564450
12,641833	0,5	1,578900
12,650167	0,5	1,598100
12,658500	0,5	1,628950
12,666833	0,5	1,639400
12,675167	0,5	1,647900
12,683500	0,5	1,653100
12,691833	0,5	1,676000
12,700167	0,5	1,679750
12,708500	0,5	1,654700
12,716833	0,5	1,642250
12,725167	0,5	1,700050
12,733500	0,5	1,790250
12,741833	0,5	1,743150
12,750167	0,5	1,408350
12,758500	0,5	0,804100
12,766833	0,5	0,259600
12,775167	0,5	-0,107500
12,783500	0,5	-0,381200
12,791833	0,5	-0,634300
12,800167	0,5	-0,882550
12,808500	0,5	-1,205850
12,816833	0,5	-1,487050
12,825167	0,5	-1,681700
12,833500	0,5	-1,826350
12,841833	0,5	-1,927200
12,850167	0,5	-2,024350
12,858500	0,5	-2,099250
12,866833	0,5	-2,175150
12,875167	0,5	-2,246850
12,883500	0,5	-2,305400
12,891833	0,5	-2,346200
12,900167	0,5	-2,390950
12,908500	0,5	-2,428750
12,916833	0,5	-2,458850
12,925167	0,5	-2,484150
12,933500	0,5	-2,508450
12,941833	0,5	-2,526300
12,950167	0,5	-2,536400
12,958500	0,5	-2,552200
12,966833	0,5	-2,561500
12,975167	0,5	-2,571150
12,983500	0,5	-2,586550
12,991833	0,5	-2,590200
13,000167	0,5	-2,601600
13,008500	0,5	-2,614450
13,016833	0,5	-2,619850
13,025167	0,5	-2,632400
13,033500	0,5	-2,632650
13,041833	0,5	-2,636050
13,050167	0,5	-2,634100
13,058500	0,5	-2,637150
13,066833	0,5	-2,638900
13,075167	0,5	-2,638400
13,083500	0,5	-2,636100
13,091833	0,5	-2,641050
13,100167	0,5	-2,644100
13,108500	0,5	-2,642050
13,116833	0,5	-2,633350
13,125167	0,5	-2,640450
13,133500	0,5	-2,633000
13,141833	0,5	-2,622550
13,150167	0,5	-2,626800
13,158500	0,5	-2,623450
13,166833	0,5	-2,631350
13,175167	0,5	-2,617500
13,183500	0,5	-2,600900
13,191833	0,5	-2,585900
13,200167	0,5	-2,561550
13,208500	0,5	-2,534550
13,216833	0,5	-2,506700
13,225167	0,5	-2,476500
13,233500	0,5	-2,451400
13,241833	0,5	-2,417400
13,250167	0,5	-2,380950
13,258500	0,5	-2,345950
13,266833	0,5	-2,315850
13,275167	0,5	-2,298200
13,283500	0,5	-2,275750
13,291833	0,5	-2,261250
13,300167	0,5	-2,264900
13,308500	0,5	-2,282050
13,316833	0,5	-2,301050
13,325167	0,5	-2,317050
13,333500	0,5	-2,342550
13,341833	0,5	-2,367150
13,350167	0,5	-2,392650
13,358500	0,5	-2,412550
13,366833	0,5	-2,423350
13,375167	0,5	-2,438200
13,383500	0,5	-2,447800
13,391833	0,5	-2,450000
13,400167	0,5	-2,454000
13,408500	0,5	-2,450950
13,416833	0,5	-2,451800
13,425167	0,5	-2,448550
13,433500	0,5	-2,425850
13,441833	0,5	-2,412450
13,450167	0,5	-2,400800
13,458500	0,5	-2,388850
13,466833	0,5	-2,361600
13,475167	0,5	-2,319550
13,483500	0,5	-2,286750
13,491833	0,5	-2,258350
13,500167	0,5	-2,232000
13,508500	0,5	-2,220200
13,516833	0,5	-2,207600
13,525167	0,5	-2,196900
13,533500	0,5	-2,197850
13,541833	0,5	-2,193900
13,550167	0,5	-2,188200
13,558500	0,5	-2,178800
13,566833	0,5	-2,185700
13,575167	0,5	-2,169100
13,583500	0,5	-2,158600
13,591833	0,5	-2,147000
13,600167	0,5	-2,141000
13,608500	0,5	-2,135450
13,616833	0,5	-2,124150
13,625167	0,5	-2,099150
13,633500	0,5	-2,077200
13,641833	0,5	-2,053550
13,650167	0,5	-2,023250
13,658500	0,5	-1,996650
13,666833	0,5	-1,964200
13,675167	0,5	-1,932350
13,683500	0,5	-1,899950
13,691833	0,5	-1,865100
13,700167	0,5	-1,821400
13,708500	0,5	-1,787850
13,716833	0,5	-1,768550
13,725167	0,5	-1,727250
13,733500	0,5	-1,694500
13,741833	0,5	-1,668650
13,750167	0,5	-1,648650
13,758500	0,5	-1,641450
13,766833	0,5	-1,611700
13,775167	0,5	-1,588850
13,783500	0,5	-1,569150
13,791833	0,5	-1,553000
13,800167	0,5	-1,528150
13,808500	0,5	-1,511750
13,816833	0,5	-1,493900
13,825167	0,5	-1,472600
13,833500	0,5	-1,449800
13,841833	0,5	-1,426000
13,850167	0,5	-1,397550
13,858500	0,5	-1,368200
13,866833	0,5	-1,340550
13,875167	0,5	-1,305500
13,883500	0,5	-1,275200
13,891833	0,5	-1,243150
13,900167	0,5	-1,225250
13,908500	0,5	-1,195600
13,916833	0,5	-1,162350
13,925167	0,5	-1,127350
13,933500	0,5	-1,102900
13,941833	0,5	-1,067250
13,950167	0,5	-1,044350
13,958500	0,5	-1,024050
13,966833	0,5	-1,008650
13,975167	0,5	-0,986300
13,983500	0,5	-0,977450
13,991833	0,5	-0,968100
14,000167	0,5	-0,949750
14,008500	0,5	-0,945200
14,016833	0,5	-0,920350
14,025167	0,5	-0,895700
14,033500	0,5	-0,879850
14,041833	0,5	-0,862650
14,050167	0,5	-0,836750
14,058500	0,5	-0,800750
14,066833	0,5	-0,728400
14,075167	0,5	-0,665450
14,083500	0,5	-0,584200
14,091833	0,5	-0,513200
14,100167	0,5	-0,439350
14,108500	0,5	-0,385550
14,116833	0,5	-0,340500
14,125167	0,5	-0,315850
14,133500	0,5	-0,286150
14,141833	0,5	-0,247400
14,150167	0,5	-0,188450
14,158500	0,5	-0,142350
14,166833	0,5	-0,072000
14,175167	0,5	-0,022700
14,183500	0,5	0,004050
14,191833	0,5	0,010900
14,200167	0,5	0,025200
14,208500	0,5	0,059050
14,216833	0,5	0,095900
14,225167	0,5	0,152700
14,233500	0,5	0,209450
14,241833	0,5	0,277900
14,250167	0,5	0,324700
14,258500	0,5	0,383650
14,266833	0,5	0,423350
14,275167	0,5	0,471350
14,283500	0,5	0,495950
14,291833	0,5	0,523000
14,300167	0,5	0,519650
14,308500	0,5	0,515850
14,316833	0,5	0,512950
14,325167	0,5	0,504950
14,333500	0,5	0,486300
14,341833	0,5	0,484000
14,350167	0,5	0,485250
14,358500	0,5	0,501350
14,366833	0,5	0,519000
14,375167	0,5	0,523200
14,383500	0,5	0,534150
14,391833	0,5	0,543250
14,400167	0,5	0,559250
14,408500	0,5	0,572800
14,416833	0,5	0,592050
14,425167	0,5	0,595600
14,433500	0,5	0,596350
14,441833	0,5	0,604600
14,450167	0,5	0,591700
14,458500	0,5	0,607750
14,466833	0,5	0,609150
14,475167	0,5	0,614600
14,483500	0,5	0,624550
14,491833	0,5	0,619700
14,500167	0,5	0,642000
14,508500	0,5	0,661750
14,516833	0,5	0,666650
14,525167	0,5	0,666500
14,533500	0,5	0,656550
14,541833	0,5	0,642900
14,550167	0,5	0,622750
14,558500	0,5	0,605750
14,566833	0,5	0,584550
14,575167	0,5	0,562950
14,583500	0,5	0,546050
14,591833	0,5	0,544250
14,600167	0,5	0,520600
14,608500	0,5	0,532650
14,616833	0,5	0,525400
14,625167	0,5	0,524150
14,633500	0,5	0,511700
14,641833	0,5	0,498450
14,650167	0,5	0,514750
14,658500	0,5	0,528300
14,666833	0,5	0,529500
14,675167	0,5	0,543800
14,683500	0,5	0,573450
14,691833	0,5	0,616500
14,700167	0,5	0,681050
14,708500	0,5	0,763050
14,716833	0,5	0,866000
14,725167	0,5	0,960450
14,733500	0,5	1,045150
14,741833	0,5	1,086000
14,750167	0,5	1,086850
14,758500	0,5	1,067400
14,766833	0,5	1,003350
14,775167	0,5	0,937400
14,783500	0,5	0,876800
14,791833	0,5	0,839600
14,800167	0,5	0,857800
14,808500	0,5	0,898500
14,816833	0,5	0,956800
14,825167	0,5	1,004850
14,833500	0,5	1,041850
14,841833	0,5	1,041250
14,850167	0,5	1,015600
14,858500	0,5	0,961050
14,866833	0,5	0,889550
14,875167	0,5	0,832900
14,883500	0,5	0,777050
14,891833	0,5	0,726300
14,900167	0,5	0,695200
14,908500	0,5	0,676450
14,916833	0,5	0,653550
14,925167	0,5	0,635150
14,933500	0,5	0,613100
14,941833	0,5	0,609950
14,950167	0,5	0,605400
14,958500	0,5	0,626150
14,966833	0,5	0,634850
14,975167	0,5	0,646850
14,983500	0,5	0,651300
14,991833	0,5	0,650850
15,000167	0,5	0,640800
15,008500	0,5	0,636900
15,016833	0,5	0,617850
15,025167	0,5	0,613150
15,033500	0,5	0,598050
15,041833	0,5	0,581300
15,050167	0,5	0,576550
15,058500	0,5	0,560900
15,066833	0,5	0,547050
15,075167	0,5	0,511700
15,083500	0,5	0,486850
15,091833	0,5	0,461250
15,100167	0,5	0,456650
15,108500	0,5	0,439550
15,116833	0,5	0,427250
15,125167	0,5	0,421350
15,133500	0,5	0,416450
15,141833	0,5	0,417950
15,150167	0,5	0,409600
15,158500	0,5	0,406100
15,166833	0,5	0,403400
15,175167	0,5	0,410550
15,183500	0,5	0,403950
15,191833	0,5	0,417000
15,200167	0,5	0,446900
15,208500	0,5	0,483550
15,216833	0,5	0,546650
15,225167	0,5	0,621050
15,233500	0,5	0,733550
15,241833	0,5	0,870250
15,250167	0,5	0,969100
15,258500	0,5	1,024500
15,266833	0,5	1,019250
15,275167	0,5	0,980000
15,283500	0,5	0,909600
15,291833	0,5	0,855800
15,300167	0,5	0,826950
15,308500	0,5	0,844200
15,316833	0,5	0,885200
15,325167	0,5	0,946800
15,333500	0,5	0,958900
15,341833	0,5	0,961900
15,350167	0,5	0,920650
15,358500	0,5	0,841700
15,366833	0,5	0,750300
15,375167	0,5	0,666350
15,383500	0,5	0,621300
15,391833	0,5	0,593100
15,400167	0,5	0,574200
15,408500	0,5	0,563250
15,416833	0,5	0,560250
15,425167	0,5	0,549100
15,433500	0,5	0,537000
15,441833	0,5	0,517750
15,450167	0,5	0,507650
15,458500	0,5	0,492100
15,466833	0,5	0,484450
15,475167	0,5	0,479300
15,483500	0,5	0,471750
15,491833	0,5	0,487600
15,500167	0,5	0,490700
15,508500	0,5	0,475750
15,516833	0,5	0,454150
15,525167	0,5	0,423950
15,533500	0,5	0,407700
15,541833	0,5	0,391100
15,550167	0,5	0,364550
15,558500	0,5	0,341100
15,566833	0,5	0,319700
15,575167	0,5	0,299200
15,583500	0,5	0,282150
15,591833	0,5	0,271650
15,600167	0,5	0,247500
15,608500	0,5	0,240450
15,616833	0,5	0,228800
15,625167	0,5	0,220100
15,633500	0,5	0,215150
15,641833	0,5	0,228750
15,650167	0,5	0,236750
15,658500	0,5	0,260000
15,666833	0,5	0,290600
15,675167	0,5	0,369350
15,683500	0,5	0,496450
15,691833	0,5	0,635900
15,700167	0,5	0,760400
15,708500	0,5	0,845900
15,716833	0,5	0,871500
15,725167	0,5	0,847250
15,733500	0,5	0,802850
15,741833	0,5	0,772700
15,750167	0,5	0,763700
15,758500	0,5	0,775600
15,766833	0,5	0,817100
15,775167	0,5	0,806250
15,783500	0,5	0,801250
15,791833	0,5	0,746950
15,800167	0,5	0,678200
15,808500	0,5	0,585200
15,816833	0,5	0,501650
15,825167	0,5	0,437850
15,833500	0,5	0,401900
15,841833	0,5	0,359350
15,850167	0,5	0,331600
15,858500	0,5	0,315650
15,866833	0,5	0,311250
15,875167	0,5	0,305300
15,883500	0,5	0,320450
15,891833	0,5	0,324350
15,900167	0,5	0,326100
15,908500	0,5	0,335300
15,916833	0,5	0,329750
15,925167	0,5	0,301850
15,933500	0,5	0,294550
15,941833	0,5	0,269000
15,950167	0,5	0,243200
15,958500	0,5	0,204400
15,966833	0,5	0,159850
15,975167	0,5	0,137500
15,983500	0,5	0,122750
15,991833	0,5	0,117900
16,000167	0,5	0,100800
16,008500	0,5	0,103150
16,016833	0,5	0,083500
16,025167	0,5	0,077600
16,033500	0,5	0,075650
16,041833	0,5	0,080150
16,050167	0,5	0,087100
16,058500	0,5	0,112650
16,066833	0,5	0,145300
16,075167	0,5	0,222050
16,083500	0,5	0,340800
16,091833	0,5	0,472750
16,100167	0,5	0,624000
16,108500	0,5	0,716300
16,116833	0,5	0,792250
16,125167	0,5	0,807850
16,133500	0,5	0,806200
16,141833	0,5	0,794450
16,150167	0,5	0,806300
16,158500	0,5	0,818150
16,166833	0,5	0,820600
16,175167	0,5	0,783700
16,183500	0,5	0,713300
16,191833	0,5	0,619200
16,200167	0,5	0,530150
16,208500	0,5	0,454100
16,216833	0,5	0,383800
16,225167	0,5	0,355500
16,233500	0,5	0,342800
16,241833	0,5	0,331550
16,250167	0,5	0,330450
16,258500	0,5	0,327250
16,266833	0,5	0,352600
16,275167	0,5	0,352950
16,283500	0,5	0,413850
16,291833	0,5	0,454550
16,300167	0,5	0,477300
16,308500	0,5	0,507100
16,316833	0,5	0,505400
16,325167	0,5	0,498750
16,333500	0,5	0,460900
16,341833	0,5	0,411150
16,350167	0,5	0,366850
16,358500	0,5	0,300050
16,366833	0,5	0,230350
16,375167	0,5	0,190850
16,383500	0,5	0,150500
16,391833	0,5	0,106650
16,400167	0,5	0,062150
16,408500	0,5	0,037950
16,416833	0,5	0,050800
16,425167	0,5	0,068800
16,433500	0,5	0,122800
16,441833	0,5	0,208450
16,450167	0,5	0,337000
16,458500	0,5	0,477350
16,466833	0,5	0,621950
16,475167	0,5	0,718100
16,483500	0,5	0,753150
16,491833	0,5	0,746150
16,500167	0,5	0,746050
16,508500	0,5	0,705050
16,516833	0,5	0,690800
16,525167	0,5	0,650700
16,533500	0,5	0,596900
16,541833	0,5	0,520150
16,550167	0,5	0,430300
16,558500	0,5	0,386800
16,566833	0,5	0,364300
16,575167	0,5	0,357400
16,583500	0,5	0,360850
16,591833	0,5	0,390150
16,600167	0,5	0,395650
16,608500	0,5	0,417800
16,616833	0,5	0,418000
16,625167	0,5	0,412300
16,633500	0,5	0,389650
16,641833	0,5	0,375400
16,650167	0,5	0,353850
16,658500	0,5	0,314200
16,666833	0,5	0,293150
16,675167	0,5	0,281850
16,683500	0,5	0,271050
16,691833	0,5	0,264100
16,700167	0,5	0,236400
16,708500	0,5	0,258150
16,716833	0,5	0,274200
16,725167	0,5	0,274200
16,733500	0,5	0,263250
16,741833	0,5	0,266600
16,750167	0,5	0,269450
16,758500	0,5	0,292900
16,766833	0,5	0,352050
16,775167	0,5	0,438550
16,783500	0,5	0,553850
16,791833	0,5	0,663600
16,800167	0,5	0,746200
16,808500	0,5	0,776400
16,816833	0,5	0,816600
16,825167	0,5	0,821600
16,833500	0,5	0,816150
16,841833	0,5	0,789400
16,850167	0,5	0,735300
16,858500	0,5	0,686100
16,866833	0,5	0,613500
16,875167	0,5	0,534450
16,883500	0,5	0,461550
16,891833	0,5	0,395150
16,900167	0,5	0,339050
16,908500	0,5	0,299950
16,916833	0,5	0,271450
16,925167	0,5	0,247700
16,933500	0,5	0,225800
16,941833	0,5	0,226150
16,950167	0,5	0,202850
16,958500	0,5	0,203750
16,966833	0,5	0,196800
16,975167	0,5	0,191050
16,983500	0,5	0,166700
16,991833	0,5	0,152800
17,000167	0,5	0,116750
17,008500	0,5	0,112050
17,016833	0,5	0,098800
17,025167	0,5	0,102850
17,033500	0,5	0,110750
17,041833	0,5	0,124800
17,050167	0,5	0,155850
17,058500	0,5	0,223650
17,066833	0,5	0,312850
17,075167	0,5	0,430600
17,083500	0,5	0,593700
17,091833	0,5	0,755500
17,100167	0,5	0,894800
17,108500	0,5	1,045900
17,116833	0,5	1,192800
17,125167	0,5	1,333200
17,133500	0,5	1,474700
17,141833	0,5	1,602800
17,150167	0,5	1,746600
17,158500	0,5	1,867150
17,166833	0,5	1,970150
17,175167	0,5	2,055800
17,183500	0,5	2,126300
17,191833	0,5	2,178600
17,200167	0,5	2,243200
17,208500	0,5	2,309700
17,216833	0,5	2,371800
17,225167	0,5	2,446850
17,233500	0,5	2,522800
17,241833	0,5	2,548500
17,250167	0,5	2,553250
17,258500	0,5	2,515800
17,266833	0,5	2,419200
17,275167	0,5	2,279550
17,283500	0,5	2,095400
17,291833	0,5	1,932900
17,300167	0,5	1,785950
17,308500	0,5	1,696500
17,316833	0,5	1,648950
17,325167	0,5	1,703900
17,333500	0,5	1,840350
17,341833	0,5	2,066850
17,350167	0,5	2,353800
17,358500	0,5	2,655750
17,366833	0,5	2,904800
17,375167	0,5	3,068300
17,383500	0,5	3,118050
17,391833	0,5	3,011600
17,400167	0,5	2,832000
17,408500	0,5	2,557250
17,416833	0,5	2,229200
17,425167	0,5	1,904900
17,433500	0,5	1,611100
17,441833	0,5	1,400050
17,450167	0,5	1,253850
17,458500	0,5	1,138850
17,466833	0,5	1,073200
17,475167	0,5	1,019800
17,483500	0,5	0,987100
17,491833	0,5	0,943900
17,500167	0,5	0,933000
17,508500	0,5	0,906750
17,516833	0,5	0,871050
17,525167	0,5	0,843500
17,533500	0,5	0,809550
17,541833	0,5	0,743050
17,550167	0,5	0,702700
17,558500	0,5	0,644000
17,566833	0,5	0,589850
17,575167	0,5	0,536600
17,583500	0,5	0,495400
17,591833	0,5	0,523600
17,600167	0,5	0,563550
17,608500	0,5	0,589400
17,616833	0,5	0,614700
17,625167	0,5	0,618900
17,633500	0,5	0,596300
17,641833	0,5	0,562450
17,650167	0,5	0,500900
17,658500	0,5	0,429700
17,666833	0,5	0,346350
17,675167	0,5	0,292950
17,683500	0,5	0,230600
17,691833	0,5	0,182550
17,700167	0,5	0,161200
17,708500	0,5	0,127100
17,716833	0,5	0,098000
17,725167	0,5	0,034300
17,733500	0,5	-0,000500
17,741833	0,5	-0,014250
17,750167	0,5	-0,037250
17,758500	0,5	-0,057050
17,766833	0,5	-0,071850
17,775167	0,5	-0,084100
17,783500	0,5	-0,082750
17,791833	0,5	-0,083350
17,800167	0,5	-0,073300
17,808500	0,5	-0,046050
17,816833	0,5	-0,008350
17,825167	0,5	0,045800
17,833500	0,5	0,099000
17,841833	0,5	0,159800
17,850167	0,5	0,209200
17,858500	0,5	0,217350
17,866833	0,5	0,196050
17,875167	0,5	0,153500
17,883500	0,5	0,118000
17,891833	0,5	0,092700
17,900167	0,5	0,056050
17,908500	0,5	0,028400
17,916833	0,5	0,004400
17,925167	0,5	-0,013750
17,933500	0,5	-0,042500
17,941833	0,5	-0,048050
17,950167	0,5	-0,063550
17,958500	0,5	-0,067450
17,966833	0,5	-0,080450
17,975167	0,5	-0,072000
17,983500	0,5	-0,078950
17,991833	0,5	-0,051600
18,000167	0,5	-0,037100
18,008500	0,5	-0,020500
18,016833	0,5	-0,004350
18,025167	0,5	0,026450
18,033500	0,5	0,079000
18,041833	0,5	0,141900
18,050167	0,5	0,181200
18,058500	0,5	0,210050
18,066833	0,5	0,205250
18,075167	0,5	0,173900
18,083500	0,5	0,145950
18,091833	0,5	0,107500
18,100167	0,5	0,072050
18,108500	0,5	0,044800
18,116833	0,5	0,033800
18,125167	0,5	-0,006000
18,133500	0,5	-0,021050
18,141833	0,5	-0,028500
18,150167	0,5	-0,035900
18,158500	0,5	-0,049650
18,166833	0,5	-0,081450
18,175167	0,5	-0,094500
18,183500	0,5	-0,083000
18,191833	0,5	-0,071250
18,200167	0,5	-0,042250
18,208500	0,5	-0,004400
18,216833	0,5	0,038000
18,225167	0,5	0,084100
18,233500	0,5	0,127800
18,241833	0,5	0,142900
18,250167	0,5	0,137450
18,258500	0,5	0,133300
18,266833	0,5	0,103100
18,275167	0,5	0,064050
18,283500	0,5	0,044250
18,291833	0,5	0,026650
18,300167	0,5	-0,002500
18,308500	0,5	-0,026050
18,316833	0,5	-0,079500
18,325167	0,5	-0,100300
18,333500	0,5	-0,127300
18,341833	0,5	-0,147600
18,350167	0,5	-0,165750
18,358500	0,5	-0,162150
18,366833	0,5	-0,168450
18,375167	0,5	-0,157550
18,383500	0,5	-0,134250
18,391833	0,5	-0,118250
18,400167	0,5	-0,092850
18,408500	0,5	-0,080350
18,416833	0,5	-0,083600
18,425167	0,5	-0,103300
18,433500	0,5	-0,118650
18,441833	0,5	-0,150400
18,450167	0,5	-0,192400
18,458500	0,5	-0,230700
18,466833	0,5	-0,250150
18,475167	0,5	-0,250350
18,483500	0,5	-0,256500
18,491833	0,5	-0,274750
18,500167	0,5	-0,276250
18,508500	0,5	-0,294500
18,516833	0,5	-0,305950
18,525167	0,5	-0,312000
18,533500	0,5	-0,316750
18,541833	0,5	-0,316850
18,550167	0,5	-0,315650
18,558500	0,5	-0,293050
18,566833	0,5	-0,306200
18,575167	0,5	-0,291850
18,583500	0,5	-0,302650
18,591833	0,5	-0,311450
18,600167	0,5	-0,342850
18,608500	0,5	-0,385700
18,616833	0,5	-0,411400
18,625167	0,5	-0,416450
18,633500	0,5	-0,442150
18,641833	0,5	-0,442600
18,650167	0,5	-0,460650
18,658500	0,5	-0,460350
18,666833	0,5	-0,477300
18,675167	0,5	-0,477050
18,683500	0,5	-0,475950
18,691833	0,5	-0,480700
18,700167	0,5	-0,453300
18,708500	0,5	-0,418250
18,716833	0,5	-0,417500
18,725167	0,5	-0,373350
18,733500	0,5	-0,373700
18,741833	0,5	-0,382050
18,750167	0,5	-0,405250
18,758500	0,5	-0,451950
18,766833	0,5	-0,437900
18,775167	0,5	-0,432050
18,783500	0,5	-0,415600
18,791833	0,5	-0,418150
18,800167	0,5	-0,391700
18,808500	0,5	-0,389900
18,816833	0,5	-0,370800
18,825167	0,5	-0,349900
18,833500	0,5	-0,316450
18,841833	0,5	-0,289400
18,850167	0,5	-0,262800
18,858500	0,5	-0,263800
18,866833	0,5	-0,268650
18,875167	0,5	-0,271500
18,883500	0,5	-0,290400
18,891833	0,5	-0,317300
18,900167	0,5	-0,363250
18,908500	0,5	-0,396000
18,916833	0,5	-0,396900
18,925167	0,5	-0,386700
18,933500	0,5	-0,388600
18,941833	0,5	-0,368600
18,950167	0,5	-0,359900
18,958500	0,5	-0,352600
18,966833	0,5	-0,347150
18,975167	0,5	-0,327900
18,983500	0,5	-0,328050
18,991833	0,5	-0,335450
19,000167	0,5	-0,354600
19,008500	0,5	-0,391300
19,016833	0,5	-0,413850
19,025167	0,5	-0,424000
19,033500	0,5	-0,450450
19,041833	0,5	-0,468750
19,050167	0,5	-0,501200
19,058500	0,5	-0,525050
19,066833	0,5	-0,516050
19,075167	0,5	-0,513450
19,083500	0,5	-0,504550
19,091833	0,5	-0,509900
19,100167	0,5	-0,506700
19,108500	0,5	-0,528100
19,116833	0,5	-0,530300
19,125167	0,5	-0,545250
19,133500	0,5	-0,559800
19,141833	0,5	-0,556650
19,150167	0,5	-0,568200
19,158500	0,5	-0,593500
19,166833	0,5	-0,599200
19,175167	0,5	-0,612250
19,183500	0,5	-0,625350
19,191833	0,5	-0,658550
19,200167	0,5	-0,683100
19,208500	0,5	-0,687400
19,216833	0,5	-0,706500
19,225167	0,5	-0,721550
19,233500	0,5	-0,742100
19,241833	0,5	-0,749600
19,250167	0,5	-0,773450
19,258500	0,5	-0,782100
19,266833	0,5	-0,796350
19,275167	0,5	-0,794300
19,283500	0,5	-0,797800
19,291833	0,5	-0,791050
19,300167	0,5	-0,824550
19,308500	0,5	-0,825200
19,316833	0,5	-0,835500
19,325167	0,5	-0,846950
19,333500	0,5	-0,864550
19,341833	0,5	-0,888300
19,350167	0,5	-0,894700
19,358500	0,5	-0,897700
19,366833	0,5	-0,896200
19,375167	0,5	-0,914200
19,383500	0,5	-0,919950
19,391833	0,5	-0,938050
19,400167	0,5	-0,946900
19,408500	0,5	-0,959550
19,416833	0,5	-0,964950
19,425167	0,5	-0,979150
19,433500	0,5	-0,984150
19,441833	0,5	-0,984700
19,450167	0,5	-1,007550
19,458500	0,5	-1,008800
19,466833	0,5	-1,007350
19,475167	0,5	-1,032400
19,483500	0,5	-1,041200
19,491833	0,5	-1,074000
19,500167	0,5	-1,067950
19,508500	0,5	-1,068800
19,516833	0,5	-1,075300
19,525167	0,5	-1,078400
19,533500	0,5	-1,082700
19,541833	0,5	-1,082850
19,550167	0,5	-1,109550
19,558500	0,5	-1,117750
19,566833	0,5	-1,140800
19,575167	0,5	-1,159900
19,583500	0,5	-1,152050
19,591833	0,5	-1,159750
19,600167	0,5	-1,179400
19,608500	0,5	-1,173650
19,616833	0,5	-1,195000
19,625167	0,5	-1,217350
19,633500	0,5	-1,243700
19,641833	0,5	-1,261400
19,650167	0,5	-1,258800
19,658500	0,5	-1,267250
19,666833	0,5	-1,280150
19,675167	0,5	-1,286400
19,683500	0,5	-1,292750
19,691833	0,5	-1,299850
19,700167	0,5	-1,294500
19,708500	0,5	-1,307900
19,716833	0,5	-1,307300
19,725167	0,5	-1,312250
19,733500	0,5	-1,300000
19,741833	0,5	-1,322950
19,750167	0,5	-1,323250
19,758500	0,5	-1,326750
19,766833	0,5	-1,333000
19,775167	0,5	-1,366050
19,783500	0,5	-1,410550
19,791833	0,5	-1,417550
19,800167	0,5	-1,414900
19,808500	0,5	-1,427550
19,816833	0,5	-1,441150
19,825167	0,5	-1,444500
19,833500	0,5	-1,463950
19,841833	0,5	-1,463000
19,850167	0,5	-1,472600
19,858500	0,5	-1,494350
19,866833	0,5	-1,506200
19,875167	0,5	-1,498350
19,883500	0,5	-1,513050
19,891833	0,5	-1,536900
19,900167	0,5	-1,529100
19,908500	0,5	-1,534450
19,916833	0,5	-1,545600
19,925167	0,5	-1,566200
19,933500	0,5	-1,602200
19,941833	0,5	-1,597000
19,950167	0,5	-1,608850
19,958500	0,5	-1,609350
19,966833	0,5	-1,616550
19,975167	0,5	-1,618200
19,983500	0,5	-1,621650
19,991833	0,5	-1,632100
20,000167	0,5	-1,631900
20,008500	0,5	-1,641100
20,016833	0,5	-1,644350
20,025167	0,5	-1,645450
20,033500	0,5	-1,661850
20,041833	0,5	-1,683650
20,050167	0,5	-1,687050
20,058500	0,5	-1,709850
20,066833	0,5	-1,725300
20,075167	0,5	-1,772800
20,083500	0,5	-1,791600
20,091833	0,5	-1,821750
20,100167	0,5	-1,824850
20,108500	0,5	-1,837800
20,116833	0,5	-1,838550
20,125167	0,5	-1,854200
20,133500	0,5	-1,868450
20,141833	0,5	-1,883350
20,150167	0,5	-1,901150
20,158500	0,5	-1,908400
20,166833	0,5	-1,913400
20,175167	0,5	-1,921350
20,183500	0,5	-1,945800
20,191833	0,5	-1,951050
20,200167	0,5	-1,961350
20,208500	0,5	-1,969800
20,216833	0,5	-2,003200
20,225167	0,5	-2,024700
20,233500	0,5	-2,035700
20,241833	0,5	-2,028850
20,250167	0,5	-2,041300
20,258500	0,5	-2,048900
20,266833	0,5	-2,070150
20,275167	0,5	-2,087950
20,283500	0,5	-2,102350
20,291833	0,5	-2,117650
20,300167	0,5	-2,139750
20,308500	0,5	-2,158000
20,316833	0,5	-2,149900
20,325167	0,5	-2,173550
20,333500	0,5	-2,191050
20,341833	0,5	-2,196750
20,350167	0,5	-2,204350
20,358500	0,5	-2,237500
20,366833	0,5	-2,272150
20,375167	0,5	-2,306750
20,383500	0,5	-2,320300
20,391833	0,5	-2,349900
20,400167	0,5	-2,370400
20,408500	0,5	-2,396800
20,416833	0,5	-2,401850
20,425167	0,5	-2,441700
20,433500	0,5	-2,454050
20,441833	0,5	-2,477750
20,450167	0,5	-2,501300
20,458500	0,5	-2,511600
20,466833	0,5	-2,517950
20,475167	0,5	-2,554400
20,483500	0,5	-2,559950
20,491833	0,5	-2,579200
20,500167	0,5	-2,610300
20,508500	0,5	-2,645000
20,516833	0,5	-2,705300
20,525167	0,5	-2,708800
20,533500	0,5	-2,732200
20,541833	0,5	-2,745300
20,550167	0,5	-2,767700
20,558500	0,5	-2,774950
20,566833	0,5	-2,777300
20,575167	0,5	-2,783400
20,583500	0,5	-2,803750
20,591833	0,5	-2,823650
20,600167	0,5	-2,858400
20,608500	0,5	-2,886750
20,616833	0,5	-2,926250
20,625167	0,5	-2,987300
20,633500	0,5	-3,019750
20,641833	0,5	-3,061700
20,650167	0,5	-3,103850
20,658500	0,5	-3,160450
20,666833	0,5	-3,218250
20,675167	0,5	-3,241450
20,683500	0,5	-3,265700
20,691833	0,5	-3,314250
20,700167	0,5	-3,335200
20,708500	0,5	-3,378500
20,716833	0,5	-3,403450
20,725167	0,5	-3,412600
20,733500	0,5	-3,412900
20,741833	0,5	-3,410200
20,750167	0,5	-3,399050
20,758500	0,5	-3,375150
20,766833	0,5	-3,395650
20,775167	0,5	-3,443100
20,783500	0,5	-3,495150
20,791833	0,5	-3,565550
20,800167	0,5	-3,652850
20,808500	0,5	-3,744150
20,816833	0,5	-3,811750
20,825167	0,5	-3,851450
20,833500	0,5	-3,895850
20,841833	0,5	-3,930650
20,850167	0,5	-3,973950
20,858500	0,5	-4,011300
20,866833	0,5	-4,050450
20,875167	0,5	-4,083200
20,883500	0,5	-4,125800
20,891833	0,5	-4,160850
20,900167	0,5	-4,163950
20,908500	0,5	-4,165350
20,916833	0,5	-4,199050
20,925167	0,5	-4,230050
20,933500	0,5	-4,268950
20,941833	0,5	-4,309900
20,950167	0,5	-4,375550
20,958500	0,5	-4,443950
20,966833	0,5	-4,475350
20,975167	0,5	-4,519100
20,983500	0,5	-4,545350
20,991833	0,5	-4,587650
21,000167	0,5	-4,620550
21,008500	0,5	-4,665200
21,016833	0,5	-4,685700
21,025167	0,5	-4,728200
21,033500	0,5	-4,755850
21,041833	0,5	-4,778750
21,050167	0,5	-4,780050
21,058500	0,5	-4,801450
21,066833	0,5	-4,836250
21,075167	0,5	-4,863600
21,083500	0,5	-4,891350
21,091833	0,5	-4,934300
21,100167	0,5	-4,982500
21,108500	0,5	-5,024650
21,116833	0,5	-5,052650
21,125167	0,5	-5,072400
21,133500	0,5	-5,116300
21,141833	0,5	-5,133850
21,150167	0,5	-5,158750
21,158500	0,5	-5,189350
21,166833	0,5	-5,220100
21,175167	0,5	-5,243250
21,183500	0,5	-5,279900
21,191833	0,5	-5,271650
21,200167	0,5	-5,275650
21,208500	0,5	-5,297150
21,216833	0,5	-5,314950
21,225167	0,5	-5,339750
21,233500	0,5	-5,379550
21,241833	0,5	-5,419750
21,250167	0,5	-5,455750
21,258500	0,5	-5,467800
21,266833	0,5	-5,474750
21,275167	0,5	-5,500950
21,283500	0,5	-5,509850
21,291833	0,5	-5,523950
21,300167	0,5	-5,516400
21,308500	0,5	-5,524400
21,316833	0,5	-5,525100
21,325167	0,5	-5,532200
21,333500	0,5	-5,551650
21,341833	0,5	-5,539500
21,350167	0,5	-5,558700
21,358500	0,5	-5,594000
21,366833	0,5	-5,627300
21,375167	0,5	-5,654500
21,383500	0,5	-5,695800
21,391833	0,5	-5,743000
21,400167	0,5	-5,773500
21,408500	0,5	-5,787650
21,416833	0,5	-5,807700
21,425167	0,5	-5,821950
21,433500	0,5	-5,839300
21,441833	0,5	-5,852150
21,450167	0,5	-5,883200
21,458500	0,5	-5,886250
21,466833	0,5	-5,902650
21,475167	0,5	-5,918850
21,483500	0,5	-5,903150
21,491833	0,5	-5,893150
21,500167	0,5	-5,919500
21,508500	0,5	-5,933350
21,516833	0,5	-5,947400
21,525167	0,5	-5,974950
21,533500	0,5	-6,002350
21,541833	0,5	-6,050350
21,550167	0,5	-6,040400
21,558500	0,5	-6,055300
21,566833	0,5	-6,063000
21,575167	0,5	-6,086250
21,583500	0,5	-6,092650
21,591833	0,5	-6,106050
21,600167	0,5	-6,110800
21,608500	0,5	-6,126550
21,616833	0,5	-6,129150
21,625167	0,5	-6,133450
21,633500	0,5	-6,103100
21,641833	0,5	-6,091300
21,650167	0,5	-6,108200
21,658500	0,5	-6,112300
21,666833	0,5	-6,110300
21,675167	0,5	-6,112600
21,683500	0,5	-6,123400
21,691833	0,5	-6,118000
21,700167	0,5	-6,114100
21,708500	0,5	-6,124900
21,716833	0,5	-6,158150
21,725167	0,5	-6,171100
21,733500	0,5	-6,205500
21,741833	0,5	-6,227000
21,750167	0,5	-6,250200
21,758500	0,5	-6,263600
21,766833	0,5	-6,286050
21,775167	0,5	-6,296100
21,783500	0,5	-6,299500
21,791833	0,5	-6,330250
21,800167	0,5	-6,345400
21,808500	0,5	-6,374650
21,816833	0,5	-6,391600
21,825167	0,5	-6,436250
21,833500	0,5	-6,471350
21,841833	0,5	-6,483050
21,850167	0,5	-6,484900
21,858500	0,5	-6,508800
21,866833	0,5	-6,512750
21,875167	0,5	-6,531050
21,883500	0,5	-6,527400
21,891833	0,5	-6,552250
21,900167	0,5	-6,567100
21,908500	0,5	-6,582850
21,916833	0,5	-6,603500
21,925167	0,5	-6,589850
21,933500	0,5	-6,591000
21,941833	0,5	-6,580450
21,950167	0,5	-6,543950
21,958500	0,5	-6,530600
21,966833	0,5	-6,528000
21,975167	0,5	-6,552800
21,983500	0,5	-6,598700
21,991833	0,5	-6,630600
22,000167	0,5	-6,674850
22,008500	0,5	-6,706100
22,016833	0,5	-6,747750
22,025167	0,5	-6,771350
22,033500	0,5	-6,811600
22,041833	0,5	-6,826950
22,050167	0,5	-6,860350
22,058500	0,5	-6,893900
22,066833	0,5	-6,916600
22,075167	0,5	-6,940800
22,083500	0,5	-6,967550
22,091833	0,5	-6,970500
22,100167	0,5	-6,986650
22,108500	0,5	-7,017950
22,116833	0,5	-7,040400
22,125167	0,5	-7,076900
22,133500	0,5	-7,094750
22,141833	0,5	-7,109900
22,150167	0,5	-7,117100
22,158500	0,5	-7,134050
22,166833	0,5	-7,145250
22,175167	0,5	-7,162800
22,183500	0,5	-7,168900
22,191833	0,5	-7,188750
22,200167	0,5	-7,200300
22,208500	0,5	-7,213400
22,216833	0,5	-7,243500
22,225167	0,5	-7,262550
22,233500	0,5	-7,251800
22,241833	0,5	-7,238100
22,250167	0,5	-7,246700
22,258500	0,5	-7,252550
22,266833	0,5	-7,293500
22,275167	0,5	-7,290300
22,283500	0,5	-7,290500
22,291833	0,5	-7,270450
22,300167	0,5	-7,278100
22,308500	0,5	-7,264150
22,316833	0,5	-7,267150
22,325167	0,5	-7,244050
22,333500	0,5	-7,245500
22,341833	0,5	-7,237400
22,350167	0,5	-7,227900
22,358500	0,5	-7,228050
22,366833	0,5	-7,229550
22,375167	0,5	-7,182400
22,383500	0,5	-7,083650
22,391833	0,5	-7,017200
22,400167	0,5	-6,981800
22,408500	0,5	-7,007050
22,416833	0,5	-7,063150
22,425167	0,5	-7,113000
22,433500	0,5	-7,147150
22,441833	0,5	-7,191650
22,450167	0,5	-7,205000
22,458500	0,5	-7,231650
22,466833	0,5	-7,251600
22,475167	0,5	-7,278500
22,483500	0,5	-7,274750
22,491833	0,5	-7,287850
22,500167	0,5	-7,300300
22,508500	0,5	-7,344450
22,516833	0,5	-7,355850
22,525167	0,5	-7,332950
22,533500	0,5	-7,311900
22,541833	0,5	-7,303400
22,550167	0,5	-7,306050
22,558500	0,5	-7,313550
22,566833	0,5	-7,312600
22,575167	0,5	-7,279600
22,583500	0,5	-7,265500
22,591833	0,5	-7,234700
22,600167	0,5	-7,209500
22,608500	0,5	-7,184600
22,616833	0,5	-7,175100
22,625167	0,5	-7,154750
22,633500	0,5	-7,145550
22,641833	0,5	-7,143700
22,650167	0,5	-7,182250
22,658500	0,5	-7,209700
22,666833	0,5	-7,222400
22,675167	0,5	-7,200100
22,683500	0,5	-7,193400
22,691833	0,5	-7,208300
22,700167	0,5	-7,229900
22,708500	0,5	-7,269250
22,716833	0,5	-7,273900
22,725167	0,5	-7,292650
22,733500	0,5	-7,306300
22,741833	0,5	-7,333200
22,750167	0,5	-7,353300
22,758500	0,5	-7,374550
22,766833	0,5	-7,380950
22,775167	0,5	-7,401400
22,783500	0,5	-7,416950
22,791833	0,5	-7,432450
22,800167	0,5	-7,527100
22,808500	0,5	-7,518950
22,816833	0,5	-7,507600
22,825167	0,5	-7,490800
22,833500	0,5	-7,515300
22,841833	0,5	-7,523950
22,850167	0,5	-7,543800
22,858500	0,5	-7,561100
22,866833	0,5	-7,589550
22,875167	0,5	-7,604850
22,883500	0,5	-7,620500
22,891833	0,5	-7,640050
22,900167	0,5	-7,645900
22,908500	0,5	-7,645750
22,916833	0,5	-7,642000
22,925167	0,5	-7,630750
22,933500	0,5	-7,618700
22,941833	0,5	-7,585150
22,950167	0,5	-7,601200
22,958500	0,5	-7,569650
22,966833	0,5	-7,552600
22,975167	0,5	-7,547150
22,983500	0,5	-7,530550
22,991833	0,5	-7,494500
23,000167	0,5	-7,475350
23,008500	0,5	-7,439650
23,016833	0,5	-7,429400
23,025167	0,5	-7,387500
23,033500	0,5	-7,343700
23,041833	0,5	-7,289500
23,050167	0,5	-7,240950
23,058500	0,5	-7,175850
23,066833	0,5	-7,126350
23,075167	0,5	-7,041750
23,083500	0,5	-6,969200
23,091833	0,5	-6,849750
23,100167	0,5	-6,791450
23,108500	0,5	-6,709950
23,116833	0,5	-6,684250
23,125167	0,5	-6,623150
23,133500	0,5	-6,545100
23,141833	0,5	-6,452450
23,150167	0,5	-6,374300
23,158500	0,5	-6,313150
23,166833	0,5	-6,243850
23,175167	0,5	-6,164650
23,183500	0,5	-6,082650
23,191833	0,5	-6,016050
23,200167	0,5	-5,929050
23,208500	0,5	-5,855050
23,216833	0,5	-5,759750
23,225167	0,5	-5,666400
23,233500	0,5	-5,567500
23,241833	0,5	-5,468500
23,250167	0,5	-5,379050
23,258500	0,5	-5,272800
23,266833	0,5	-5,225750
23,275167	0,5	-5,157650
23,283500	0,5	-5,068600
23,291833	0,5	-4,984650
23,300167	0,5	-4,919500
23,308500	0,5	-4,849800
23,316833	0,5	-4,791050
23,325167	0,5	-4,714250
23,333500	0,5	-4,651900
23,341833	0,5	-4,582200
23,350167	0,5	-4,521650
23,358500	0,5	-4,440150
23,366833	0,5	-4,375400
23,375167	0,5	-4,295250
23,383500	0,5	-4,220350
23,391833	0,5	-4,203850
23,400167	0,5	-4,093450
23,408500	0,5	-3,997750
23,416833	0,5	-3,950650
23,425167	0,5	-3,894000
23,433500	0,5	-3,838300
23,441833	0,5	-3,769250
23,450167	0,5	-3,727550
23,458500	0,5	-3,687250
23,466833	0,5	-3,640650
23,475167	0,5	-3,595150
23,483500	0,5	-3,546850
23,491833	0,5	-3,513150
23,500167	0,5	-3,464400
23,508500	0,5	-3,431900
23,516833	0,5	-3,384550
23,525167	0,5	-3,346200
23,533500	0,5	-3,422750
23,541833	0,5	-3,353500
23,550167	0,5	-3,287800
23,558500	0,5	-3,208350
23,566833	0,5	-3,176650
23,575167	0,5	-3,139200
23,583500	0,5	-3,103750
23,591833	0,5	-3,075950
23,600167	0,5	-3,049050
23,608500	0,5	-3,016850
23,616833	0,5	-2,992350
23,625167	0,5	-2,961050
23,633500	0,5	-2,937600
23,641833	0,5	-2,902750
23,650167	0,5	-2,871000
23,658500	0,5	-2,845000
23,666833	0,5	-2,811750
23,675167	0,5	-2,811000
23,683500	0,5	-2,919750
23,691833	0,5	-2,890800
23,700167	0,5	-2,810900
23,708500	0,5	-2,742300
23,716833	0,5	-2,703300
23,725167	0,5	-2,680100
23,733500	0,5	-2,657950
23,741833	0,5	-2,642200
23,750167	0,5	-2,619800
23,758500	0,5	-2,595850
23,766833	0,5	-2,579650
23,775167	0,5	-2,555350
23,783500	0,5	-2,523650
23,791833	0,5	-2,506650
23,800167	0,5	-2,481350
23,808500	0,5	-2,452450
23,816833	0,5	-2,424050
23,825167	0,5	-2,539550
23,833500	0,5	-2,561300
23,841833	0,5	-2,509900
23,850167	0,5	-2,414050
23,858500	0,5	-2,353200
23,866833	0,5	-2,313250
23,875167	0,5	-2,285400
23,883500	0,5	-2,274100
23,891833	0,5	-2,258100
23,900167	0,5	-2,240050
23,908500	0,5	-2,212550
23,916833	0,5	-2,193600
23,925167	0,5	-2,164500
23,933500	0,5	-2,146050
23,941833	0,5	-2,115550
23,950167	0,5	-2,097600
23,958500	0,5	-2,067550
23,966833	0,5	-2,051200
23,975167	0,5	-2,220650
23,983500	0,5	-2,173050
23,991833	0,5	-2,127750
24,000167	0,5	-2,058100
24,008500	0,5	-2,008450
24,016833	0,5	-1,966200
24,025167	0,5	-1,956050
24,033500	0,5	-1,939550
24,041833	0,5	-1,918200
24,050167	0,5	-1,876350
24,058500	0,5	-1,848650
24,066833	0,5	-1,818500
24,075167	0,5	-1,794750
24,083500	0,5	-1,767100
24,091833	0,5	-1,738950
24,100167	0,5	-1,713750
24,108500	0,5	-1,689700
24,116833	0,5	-1,719900
24,125167	0,5	-1,814600
24,133500	0,5	-1,776500
24,141833	0,5	-1,721200
24,150167	0,5	-1,658000
24,158500	0,5	-1,617100
24,166833	0,5	-1,593250
24,175167	0,5	-1,593050
24,183500	0,5	-1,587800
24,191833	0,5	-1,548100
24,200167	0,5	-1,534250
24,208500	0,5	-1,510750
24,216833	0,5	-1,490400
24,225167	0,5	-1,463100
24,233500	0,5	-1,440600
24,241833	0,5	-1,410750
24,250167	0,5	-1,383500
24,258500	0,5	-1,358450
24,266833	0,5	-1,448000
24,275167	0,5	-1,442150
24,283500	0,5	-1,417000
24,291833	0,5	-1,353800
24,300167	0,5	-1,312200
24,308500	0,5	-1,285850
24,316833	0,5	-1,263050
24,325167	0,5	-1,261650
24,333500	0,5	-1,234550
24,341833	0,5	-1,218300
24,350167	0,5	-1,194050
24,358500	0,5	-1,173800
24,366833	0,5	-1,156000
24,375167	0,5	-1,142850
24,383500	0,5	-1,119800
24,391833	0,5	-1,103950
24,400167	0,5	-1,085850
24,408500	0,5	-1,090950
24,416833	0,5	-1,162600
24,425167	0,5	-1,153400
24,433500	0,5	-1,114750
24,441833	0,5	-1,076200
24,450167	0,5	-1,040050
24,458500	0,5	-1,029200
24,466833	0,5	-1,017650
24,475167	0,5	-1,007950
24,483500	0,5	-0,986500
24,491833	0,5	-0,964000
24,500167	0,5	-0,955050
24,508500	0,5	-0,945050
24,516833	0,5	-0,928700
24,525167	0,5	-0,912250
24,533500	0,5	-0,896450
24,541833	0,5	-0,871050
24,550167	0,5	-0,854450
24,558500	0,5	-0,882550
24,566833	0,5	-0,908250
24,575167	0,5	-0,892900
24,583500	0,5	-0,864100
24,591833	0,5	-0,836700
24,600167	0,5	-0,821400
24,608500	0,5	-0,812850
24,616833	0,5	-0,816300
24,625167	0,5	-0,815050
24,633500	0,5	-0,797500
24,641833	0,5	-0,784900
24,650167	0,5	-0,772600
24,658500	0,5	-0,767350
24,666833	0,5	-0,755150
24,675167	0,5	-0,746800
24,683500	0,5	-0,729050
24,691833	0,5	-0,721900
24,700167	0,5	-0,712500
24,708500	0,5	-0,760200
24,716833	0,5	-0,735500
24,725167	0,5	-0,719150
24,733500	0,5	-0,693950
24,741833	0,5	-0,675850
24,750167	0,5	-0,657800
24,758500	0,5	-0,655100
24,766833	0,5	-0,651400
24,775167	0,5	-0,641700
24,783500	0,5	-0,634600
24,791833	0,5	-0,626800
24,800167	0,5	-0,628250
24,808500	0,5	-0,616700
24,816833	0,5	-0,616250
24,825167	0,5	-0,616000
24,833500	0,5	-0,606100
24,841833	0,5	-0,599350
24,850167	0,5	-0,596050
24,858500	0,5	-0,622250
24,866833	0,5	-0,610850
24,875167	0,5	-0,601700
24,883500	0,5	-0,579600
24,891833	0,5	-0,567750
24,900167	0,5	-0,558200
24,908500	0,5	-0,555200
24,916833	0,5	-0,561800
24,925167	0,5	-0,546000
24,933500	0,5	-0,536500
24,941833	0,5	-0,530750
24,950167	0,5	-0,520750
24,958500	0,5	-0,512650
24,966833	0,5	-0,508800
24,975167	0,5	-0,500400
24,983500	0,5	-0,496700
24,991833	0,5	-0,497100
25,000167	0,5	-0,506950
25,008500	0,5	-0,510600
25,016833	0,5	-0,508400
25,025167	0,5	-0,502150
25,033500	0,5	-0,500150
25,041833	0,5	-0,493650
25,050167	0,5	-0,490600
25,058500	0,5	-0,491150
25,066833	0,5	-0,487350
25,075167	0,5	-0,487000
25,083500	0,5	-0,481750
25,091833	0,5	-0,477500
25,100167	0,5	-0,471050
25,108500	0,5	-0,464600
25,116833	0,5	-0,464000
25,125167	0,5	-0,457600
25,133500	0,5	-0,455650
25,141833	0,5	-0,445800
25,150167	0,5	-0,450000
25,158500	0,5	-0,443600
25,166833	0,5	-0,439400
25,175167	0,5	-0,436650
25,183500	0,5	-0,437200
25,191833	0,5	-0,435700
25,200167	0,5	-0,434300
25,208500	0,5	-0,439700
25,216833	0,5	-0,434100
25,225167	0,5	-0,440200
25,233500	0,5	-0,436600
25,241833	0,5	-0,438050
25,250167	0,5	-0,434850
25,258500	0,5	-0,435550
25,266833	0,5	-0,427400
25,275167	0,5	-0,429350
25,283500	0,5	-0,426250
25,291833	0,5	-0,421500
25,300167	0,5	-0,419300
25,308500	0,5	-0,408800
25,316833	0,5	-0,401150
25,325167	0,5	-0,401550
25,333500	0,5	-0,401200
25,341833	0,5	-0,397000
25,350167	0,5	-0,398000
25,358500	0,5	-0,395450
25,366833	0,5	-0,397400
25,375167	0,5	-0,396850
25,383500	0,5	-0,398200
25,391833	0,5	-0,397800
25,400167	0,5	-0,400700
25,408500	0,5	-0,398550
25,416833	0,5	-0,399950
25,425167	0,5	-0,399050
25,433500	0,5	-0,400700
25,441833	0,5	-0,394700
25,450167	0,5	-0,390200
25,458500	0,5	-0,383550
25,466833	0,5	-0,388900
25,475167	0,5	-0,389750
25,483500	0,5	-0,387550
25,491833	0,5	-0,385750
25,500167	0,5	-0,385950
25,508500	0,5	-0,381700
25,516833	0,5	-0,381250
25,525167	0,5	-0,384650
25,533500	0,5	-0,382350
25,541833	0,5	-0,380650
25,550167	0,5	-0,380050
25,558500	0,5	-0,385950
25,566833	0,5	-0,389100
25,575167	0,5	-0,387650
25,583500	0,5	-0,387450
25,591833	0,5	-0,378850
25,600167	0,5	-0,376450
25,608500	0,5	-0,369150
25,616833	0,5	-0,381650
25,625167	0,5	-0,388100
25,633500	0,5	-0,388400
25,641833	0,5	-0,392450
25,650167	0,5	-0,383500
25,658500	0,5	-0,386050
25,666833	0,5	-0,387150
25,675167	0,5	-0,387950
25,683500	0,5	-0,387900
25,691833	0,5	-0,388350
25,700167	0,5	-0,387650
25,708500	0,5	-0,387200
25,716833	0,5	-0,387750
25,725167	0,5	-0,384350
25,733500	0,5	-0,383850
25,741833	0,5	-0,360850
25,750167	0,5	-0,372000
25,758500	0,5	-0,362200
25,766833	0,5	-0,381300
25,775167	0,5	-0,378650
25,783500	0,5	-0,385500
25,791833	0,5	-0,377450
25,800167	0,5	-0,365700
25,808500	0,5	-0,369800
25,816833	0,5	-0,378000
25,825167	0,5	-0,376250
25,833500	0,5	-0,375200
25,841833	0,5	-0,371450
25,850167	0,5	-0,370200
25,858500	0,5	-0,371550
25,866833	0,5	-0,365600
25,875167	0,5	-0,369500
25,883500	0,5	-0,356100
25,891833	0,5	-0,346900
25,900167	0,5	-0,341300
25,908500	0,5	-0,344750
25,916833	0,5	-0,353300
25,925167	0,5	-0,349500
25,933500	0,5	-0,344500
25,941833	0,5	-0,335000
25,950167	0,5	-0,317800
25,958500	0,5	-0,325400
25,966833	0,5	-0,327350
25,975167	0,5	-0,330400
25,983500	0,5	-0,322950
25,991833	0,5	-0,325600
26,000167	0,5	-0,321850
