File Path	chrom://chromeleon01/ikbm_chromeleon/2022/ICS-5000/ED1/Esteban/20220427_Cell_Amandas_mutants.seq/793.smp/ED_1.channel/ED_1.chm
Channel	ED_1

Injection Information:
Data Vault	ikbm_chromeleon
Injection	EG_PASC_C-NE
Injection Number	63
Position	GB7
Comment	
Processing Method	Stop sequence after Cell Death
Instrument Method	ICS5000_PA200_FullNative_Ox_26min_ED1
Type	Unknown
Status	Finished
Injection Date	28.04.2022
Injection Time	18:35:19
Injection Volume (µl)	5,0
Dilution Factor	1,0000
Weight	1,0000

Chromatogram Data Information:
Time Min. (min)	0,000167
Time Max. (min)	26,000167
Data Points	3121
Detector	EDet1
Generating Data System	Chromeleon 7.2.9.11323
Exporting Data System	Chromeleon 7.2.9.0
Operator	Instrument Controller
Signal Quantity	
Signal Unit	nC
Signal Min.	-8,470500
Signal Max.	2 758,308241
Channel	ED_1
Driver Name	DC-5000
Channel Type	Evaluation
Min. Step (s)	0,5
Max. Step (s)	0,5
Average Step (s)	0,5

Signal Parameter Information:
Signal Info	

Chromatogram Data:
Time (min)	Step (s)	Value (nC)
0,000167	n.a.	-0,014050
0,008500	0,5	-0,109200
0,016833	0,5	-0,111350
0,025167	0,5	-0,102250
0,033500	0,5	-0,087800
0,041833	0,5	-0,082500
0,050167	0,5	-0,065100
0,058500	0,5	-0,067850
0,066833	0,5	-0,039300
0,075167	0,5	-0,050250
0,083500	0,5	-0,002650
0,091833	0,5	-0,035500
0,100167	0,5	-0,049650
0,108500	0,5	-0,054900
0,116833	0,5	-0,043000
0,125167	0,5	0,012500
0,133500	0,5	0,010950
0,141833	0,5	-0,010400
0,150167	0,5	-0,001950
0,158500	0,5	-0,010100
0,166833	0,5	-0,008950
0,175167	0,5	-0,017450
0,183500	0,5	-0,012550
0,191833	0,5	-0,017750
0,200167	0,5	-0,024100
0,208500	0,5	-0,023050
0,216833	0,5	-0,039100
0,225167	0,5	-0,029900
0,233500	0,5	0,012350
0,241833	0,5	-0,024900
0,250167	0,5	-0,036700
0,258500	0,5	-0,028500
0,266833	0,5	-0,022500
0,275167	0,5	0,022150
0,283500	0,5	-0,004250
0,291833	0,5	-0,002000
0,300167	0,5	0,007850
0,308500	0,5	0,074250
0,316833	0,5	0,084400
0,325167	0,5	0,025550
0,333500	0,5	-0,022300
0,341833	0,5	-0,033500
0,350167	0,5	-0,034100
0,358500	0,5	-0,032950
0,366833	0,5	-0,025550
0,375167	0,5	-0,008650
0,383500	0,5	-0,001950
0,391833	0,5	-0,031750
0,400167	0,5	-0,031450
0,408500	0,5	-0,032800
0,416833	0,5	-0,005000
0,425167	0,5	0,015450
0,433500	0,5	0,014350
0,441833	0,5	-0,004150
0,450167	0,5	0,003750
0,458500	0,5	-0,011450
0,466833	0,5	-0,008800
0,475167	0,5	-0,005850
0,483500	0,5	-0,002850
0,491833	0,5	-0,009350
0,500167	0,5	-0,005450
0,508500	0,5	-0,006350
0,516833	0,5	-0,019850
0,525167	0,5	0,002000
0,533500	0,5	-0,001000
0,541833	0,5	-0,008550
0,550167	0,5	-0,015000
0,558500	0,5	-0,000750
0,566833	0,5	0,039800
0,575167	0,5	0,054850
0,583500	0,5	0,030100
0,591833	0,5	0,031800
0,600167	0,5	0,036150
0,608500	0,5	0,036450
0,616833	0,5	0,032200
0,625167	0,5	0,038950
0,633500	0,5	0,023750
0,641833	0,5	0,039300
0,650167	0,5	0,036050
0,658500	0,5	0,039050
0,666833	0,5	0,020400
0,675167	0,5	0,052000
0,683500	0,5	0,031950
0,691833	0,5	0,030250
0,700167	0,5	0,026950
0,708500	0,5	0,050150
0,716833	0,5	0,095650
0,725167	0,5	0,095500
0,733500	0,5	0,090450
0,741833	0,5	0,100750
0,750167	0,5	0,097850
0,758500	0,5	0,096500
0,766833	0,5	0,102000
0,775167	0,5	0,099600
0,783500	0,5	0,095200
0,791833	0,5	0,093900
0,800167	0,5	0,106500
0,808500	0,5	0,081200
0,816833	0,5	0,089500
0,825167	0,5	0,095600
0,833500	0,5	0,083200
0,841833	0,5	0,088800
0,850167	0,5	0,108100
0,858500	0,5	0,141500
0,866833	0,5	0,173850
0,875167	0,5	0,170100
0,883500	0,5	0,169500
0,891833	0,5	0,168300
0,900167	0,5	0,173600
0,908500	0,5	0,162500
0,916833	0,5	0,168750
0,925167	0,5	0,178750
0,933500	0,5	0,163850
0,941833	0,5	0,170850
0,950167	0,5	0,167750
0,958500	0,5	0,163100
0,966833	0,5	0,187050
0,975167	0,5	0,183450
0,983500	0,5	0,166050
0,991833	0,5	0,173500
1,000167	0,5	0,179850
1,008500	0,5	0,222200
1,016833	0,5	0,234500
1,025167	0,5	0,234650
1,033500	0,5	0,223000
1,041833	0,5	0,241950
1,050167	0,5	0,241900
1,058500	0,5	0,246150
1,066833	0,5	0,242050
1,075167	0,5	0,240800
1,083500	0,5	0,244950
1,091833	0,5	0,251100
1,100167	0,5	0,261100
1,108500	0,5	0,250600
1,116833	0,5	0,283450
1,125167	0,5	0,271050
1,133500	0,5	0,260300
1,141833	0,5	0,262100
1,150167	0,5	0,285000
1,158500	0,5	0,328200
1,166833	0,5	0,336900
1,175167	0,5	0,321400
1,183500	0,5	0,335700
1,191833	0,5	0,335650
1,200167	0,5	0,345400
1,208500	0,5	0,343700
1,216833	0,5	0,358150
1,225167	0,5	0,346500
1,233500	0,5	0,350650
1,241833	0,5	0,361150
1,250167	0,5	0,351950
1,258500	0,5	0,370600
1,266833	0,5	0,397900
1,275167	0,5	0,381200
1,283500	0,5	0,388200
1,291833	0,5	0,404900
1,300167	0,5	0,434100
1,308500	0,5	0,473500
1,316833	0,5	0,458650
1,325167	0,5	0,470250
1,333500	0,5	0,481950
1,341833	0,5	0,494200
1,350167	0,5	0,485950
1,358500	0,5	0,513450
1,366833	0,5	0,506900
1,375167	0,5	0,520900
1,383500	0,5	0,527200
1,391833	0,5	0,542000
1,400167	0,5	0,539400
1,408500	0,5	0,580600
1,416833	0,5	0,575750
1,425167	0,5	0,575050
1,433500	0,5	0,569450
1,441833	0,5	0,590850
1,450167	0,5	0,632250
1,458500	0,5	0,657750
1,466833	0,5	0,657800
1,475167	0,5	0,658350
1,483500	0,5	0,669150
1,491833	0,5	0,658950
1,500167	0,5	0,676000
1,508500	0,5	0,679850
1,516833	0,5	0,690250
1,525167	0,5	0,697200
1,533500	0,5	0,707950
1,541833	0,5	0,721450
1,550167	0,5	0,719100
1,558500	0,5	0,746450
1,566833	0,5	0,758550
1,575167	0,5	0,750050
1,583500	0,5	0,653900
1,591833	0,5	0,073250
1,600167	0,5	-0,962700
1,608500	0,5	-0,984350
1,616833	0,5	1,206700
1,625167	0,5	4,642650
1,633500	0,5	8,869200
1,641833	0,5	14,180000
1,650167	0,5	18,949200
1,658500	0,5	20,839150
1,666833	0,5	20,007800
1,675167	0,5	18,144200
1,683500	0,5	16,262850
1,691833	0,5	14,647350
1,700167	0,5	13,308900
1,708500	0,5	12,472100
1,716833	0,5	12,413500
1,725167	0,5	13,803600
1,733500	0,5	16,054350
1,741833	0,5	16,989650
1,750167	0,5	15,437950
1,758500	0,5	12,771950
1,766833	0,5	10,681300
1,775167	0,5	9,823800
1,783500	0,5	10,295900
1,791833	0,5	12,115750
1,800167	0,5	14,937850
1,808500	0,5	17,564250
1,816833	0,5	18,370750
1,825167	0,5	17,468550
1,833500	0,5	16,001850
1,841833	0,5	14,496700
1,850167	0,5	13,074500
1,858500	0,5	11,796900
1,866833	0,5	10,749350
1,875167	0,5	9,967700
1,883500	0,5	9,346350
1,891833	0,5	8,755550
1,900167	0,5	8,187900
1,908500	0,5	7,649000
1,916833	0,5	7,276800
1,925167	0,5	7,102600
1,933500	0,5	7,293300
1,941833	0,5	8,171950
1,950167	0,5	10,017250
1,958500	0,5	11,852950
1,966833	0,5	12,268500
1,975167	0,5	11,784700
1,983500	0,5	13,178650
1,991833	0,5	20,734250
2,000167	0,5	40,781551
2,008500	0,5	84,346401
2,016833	0,5	183,826353
2,025167	0,5	411,583656
2,033500	0,5	769,190311
2,041833	0,5	1 035,009815
2,050167	0,5	1 036,840315
2,058500	0,5	848,901113
2,066833	0,5	624,886059
2,075167	0,5	457,481957
2,083500	0,5	349,798955
2,091833	0,5	277,872254
2,100167	0,5	226,394353
2,108500	0,5	188,076903
2,116833	0,5	159,012402
2,125167	0,5	136,850402
2,133500	0,5	119,836752
2,141833	0,5	106,790902
2,150167	0,5	97,722051
2,158500	0,5	92,590701
2,166833	0,5	88,678351
2,175167	0,5	82,259301
2,183500	0,5	73,676551
2,191833	0,5	65,848501
2,200167	0,5	59,766401
2,208500	0,5	54,629601
2,216833	0,5	49,973651
2,225167	0,5	45,956601
2,233500	0,5	42,770151
2,241833	0,5	40,266951
2,250167	0,5	38,246851
2,258500	0,5	36,511151
2,266833	0,5	35,054751
2,275167	0,5	33,808451
2,283500	0,5	32,666600
2,291833	0,5	31,590250
2,300167	0,5	30,586750
2,308500	0,5	29,665550
2,316833	0,5	28,885450
2,325167	0,5	28,230250
2,333500	0,5	27,660600
2,341833	0,5	27,137750
2,350167	0,5	26,640150
2,358500	0,5	26,260700
2,366833	0,5	26,009150
2,375167	0,5	25,881750
2,383500	0,5	25,859550
2,391833	0,5	25,936950
2,400167	0,5	26,225800
2,408500	0,5	26,940000
2,416833	0,5	28,254700
2,425167	0,5	29,595750
2,433500	0,5	29,564250
2,441833	0,5	28,358350
2,450167	0,5	27,401450
2,458500	0,5	26,893450
2,466833	0,5	26,432450
2,475167	0,5	26,006800
2,483500	0,5	25,631500
2,491833	0,5	25,293150
2,500167	0,5	25,002350
2,508500	0,5	24,770900
2,516833	0,5	24,557850
2,525167	0,5	24,311250
2,533500	0,5	24,040200
2,541833	0,5	23,754350
2,550167	0,5	23,529700
2,558500	0,5	23,404800
2,566833	0,5	23,469350
2,575167	0,5	23,823200
2,583500	0,5	24,727000
2,591833	0,5	26,815600
2,600167	0,5	32,170400
2,608500	0,5	51,501301
2,616833	0,5	97,224551
2,625167	0,5	162,672252
2,633500	0,5	244,838654
2,641833	0,5	363,586655
2,650167	0,5	624,190009
2,658500	0,5	1 187,679918
2,666833	0,5	1 562,364623
2,675167	0,5	2 445,988936
2,683500	0,5	2 680,079590
2,691833	0,5	2 757,961141
2,700167	0,5	2 758,308241
2,708500	0,5	2 714,166040
2,716833	0,5	2 634,527139
2,725167	0,5	2 521,506238
2,733500	0,5	2 375,211035
2,741833	0,5	2 198,712133
2,750167	0,5	1 998,024030
2,758500	0,5	1 788,027527
2,766833	0,5	1 587,753674
2,775167	0,5	1 416,398871
2,783500	0,5	1 284,629419
2,791833	0,5	1 187,903668
2,800167	0,5	1 109,066767
2,808500	0,5	1 031,547415
2,816833	0,5	946,873364
2,825167	0,5	855,694213
2,833500	0,5	763,559111
2,841833	0,5	675,565960
2,850167	0,5	595,141459
2,858500	0,5	525,365608
2,866833	0,5	463,006807
2,875167	0,5	408,240106
2,883500	0,5	360,085105
2,891833	0,5	317,912205
2,900167	0,5	281,305004
2,908500	0,5	249,964404
2,916833	0,5	223,270353
2,925167	0,5	200,584803
2,933500	0,5	181,192953
2,941833	0,5	164,396052
2,950167	0,5	149,772452
2,958500	0,5	136,864902
2,966833	0,5	125,391502
2,975167	0,5	115,116302
2,983500	0,5	105,950052
2,991833	0,5	97,731951
3,000167	0,5	90,384151
3,008500	0,5	83,786051
3,016833	0,5	77,851901
3,025167	0,5	72,520951
3,033500	0,5	67,768851
3,041833	0,5	63,430551
3,050167	0,5	59,470501
3,058500	0,5	55,852451
3,066833	0,5	52,502301
3,075167	0,5	49,377901
3,083500	0,5	46,430151
3,091833	0,5	43,676151
3,100167	0,5	41,128101
3,108500	0,5	38,805001
3,116833	0,5	36,684651
3,125167	0,5	34,794551
3,133500	0,5	33,102900
3,141833	0,5	31,613600
3,150167	0,5	30,299050
3,158500	0,5	29,170850
3,166833	0,5	28,196500
3,175167	0,5	27,428450
3,183500	0,5	26,918150
3,191833	0,5	26,770250
3,200167	0,5	27,177250
3,208500	0,5	28,284450
3,216833	0,5	29,966850
3,225167	0,5	31,729050
3,233500	0,5	32,886150
3,241833	0,5	32,913150
3,250167	0,5	31,724850
3,258500	0,5	29,547550
3,266833	0,5	26,879200
3,275167	0,5	24,197350
3,283500	0,5	21,833950
3,291833	0,5	19,886050
3,300167	0,5	18,356300
3,308500	0,5	17,124000
3,316833	0,5	16,116350
3,325167	0,5	15,245350
3,333500	0,5	14,473900
3,341833	0,5	13,768500
3,350167	0,5	13,145450
3,358500	0,5	12,600900
3,366833	0,5	12,152350
3,375167	0,5	11,743050
3,383500	0,5	11,377100
3,391833	0,5	11,073100
3,400167	0,5	10,822200
3,408500	0,5	10,603000
3,416833	0,5	10,420600
3,425167	0,5	10,258850
3,433500	0,5	10,104050
3,441833	0,5	9,950050
3,450167	0,5	9,807600
3,458500	0,5	9,699450
3,466833	0,5	9,561300
3,475167	0,5	9,473200
3,483500	0,5	9,338800
3,491833	0,5	9,206250
3,500167	0,5	9,067800
3,508500	0,5	8,929200
3,516833	0,5	8,796700
3,525167	0,5	8,626350
3,533500	0,5	8,431000
3,541833	0,5	8,251050
3,550167	0,5	8,053100
3,558500	0,5	7,864350
3,566833	0,5	7,682500
3,575167	0,5	7,503600
3,583500	0,5	7,327350
3,591833	0,5	7,148100
3,600167	0,5	6,976450
3,608500	0,5	6,779000
3,616833	0,5	6,579400
3,625167	0,5	6,418150
3,633500	0,5	6,205700
3,641833	0,5	6,008150
3,650167	0,5	5,826650
3,658500	0,5	5,666750
3,666833	0,5	5,541450
3,675167	0,5	5,382350
3,683500	0,5	5,250200
3,691833	0,5	5,131350
3,700167	0,5	5,045700
3,708500	0,5	4,962050
3,716833	0,5	4,932400
3,725167	0,5	4,945950
3,733500	0,5	5,021850
3,741833	0,5	5,206750
3,750167	0,5	5,503650
3,758500	0,5	5,913350
3,766833	0,5	6,400350
3,775167	0,5	6,888550
3,783500	0,5	7,248900
3,791833	0,5	7,437050
3,800167	0,5	7,395650
3,808500	0,5	7,134250
3,816833	0,5	6,700300
3,825167	0,5	6,159150
3,833500	0,5	5,594650
3,841833	0,5	5,093500
3,850167	0,5	4,661000
3,858500	0,5	4,313450
3,866833	0,5	4,048550
3,875167	0,5	3,836250
3,883500	0,5	3,665400
3,891833	0,5	3,540800
3,900167	0,5	3,430050
3,908500	0,5	3,345600
3,916833	0,5	3,279400
3,925167	0,5	3,217300
3,933500	0,5	3,148050
3,941833	0,5	3,108700
3,950167	0,5	3,091050
3,958500	0,5	3,107600
3,966833	0,5	3,155650
3,975167	0,5	3,210500
3,983500	0,5	3,342800
3,991833	0,5	3,514200
4,000167	0,5	3,718500
4,008500	0,5	3,914300
4,016833	0,5	4,066900
4,025167	0,5	4,113700
4,033500	0,5	4,054850
4,041833	0,5	3,891400
4,050167	0,5	3,641300
4,058500	0,5	3,361650
4,066833	0,5	3,100650
4,075167	0,5	2,852400
4,083500	0,5	2,639350
4,091833	0,5	2,476800
4,100167	0,5	2,365100
4,108500	0,5	2,287650
4,116833	0,5	2,223400
4,125167	0,5	2,176900
4,133500	0,5	2,159200
4,141833	0,5	2,202750
4,150167	0,5	2,316800
4,158500	0,5	2,547600
4,166833	0,5	2,925550
4,175167	0,5	3,489400
4,183500	0,5	4,281900
4,191833	0,5	5,315100
4,200167	0,5	6,560450
4,208500	0,5	8,070700
4,216833	0,5	9,795350
4,225167	0,5	11,778500
4,233500	0,5	14,091250
4,241833	0,5	16,936700
4,250167	0,5	20,617900
4,258500	0,5	25,617650
4,266833	0,5	32,721450
4,275167	0,5	43,084451
4,283500	0,5	57,984851
4,291833	0,5	78,444201
4,300167	0,5	104,273052
4,308500	0,5	133,511752
4,316833	0,5	162,359202
4,325167	0,5	186,611103
4,333500	0,5	203,203403
4,341833	0,5	210,958603
4,350167	0,5	210,551453
4,358500	0,5	203,614153
4,366833	0,5	191,896253
4,375167	0,5	177,097003
4,383500	0,5	160,703952
4,391833	0,5	143,753502
4,400167	0,5	127,063352
4,408500	0,5	111,069602
4,416833	0,5	96,220701
4,425167	0,5	82,779701
4,433500	0,5	70,916601
4,441833	0,5	60,595301
4,450167	0,5	51,805151
4,458500	0,5	44,423851
4,466833	0,5	38,298301
4,475167	0,5	33,249850
4,483500	0,5	29,128800
4,491833	0,5	25,767550
4,500167	0,5	22,987200
4,508500	0,5	20,720850
4,516833	0,5	18,775900
4,525167	0,5	17,114400
4,533500	0,5	15,651750
4,541833	0,5	14,351450
4,550167	0,5	13,202850
4,558500	0,5	12,139950
4,566833	0,5	11,172900
4,575167	0,5	10,353350
4,583500	0,5	9,658050
4,591833	0,5	9,103400
4,600167	0,5	8,648950
4,608500	0,5	8,307100
4,616833	0,5	8,005200
4,625167	0,5	7,750500
4,633500	0,5	7,492300
4,641833	0,5	7,189100
4,650167	0,5	6,841000
4,658500	0,5	6,474950
4,666833	0,5	6,037800
4,675167	0,5	5,593550
4,683500	0,5	5,162300
4,691833	0,5	4,758700
4,700167	0,5	4,403950
4,708500	0,5	4,038600
4,716833	0,5	3,727350
4,725167	0,5	3,454900
4,733500	0,5	3,223600
4,741833	0,5	3,016050
4,750167	0,5	2,851050
4,758500	0,5	2,704200
4,766833	0,5	2,589300
4,775167	0,5	2,484250
4,783500	0,5	2,399700
4,791833	0,5	2,316100
4,800167	0,5	2,246850
4,808500	0,5	2,179800
4,816833	0,5	2,101600
4,825167	0,5	2,032750
4,833500	0,5	2,032300
4,841833	0,5	1,917900
4,850167	0,5	1,875650
4,858500	0,5	1,821500
4,866833	0,5	1,776200
4,875167	0,5	1,754200
4,883500	0,5	1,727500
4,891833	0,5	1,722600
4,900167	0,5	1,715050
4,908500	0,5	1,726850
4,916833	0,5	1,731700
4,925167	0,5	1,756450
4,933500	0,5	1,782650
4,941833	0,5	1,800300
4,950167	0,5	1,820550
4,958500	0,5	1,828250
4,966833	0,5	1,819500
4,975167	0,5	1,820600
4,983500	0,5	1,817900
4,991833	0,5	1,819200
5,000167	0,5	1,804850
5,008500	0,5	1,775750
5,016833	0,5	1,747300
5,025167	0,5	1,715700
5,033500	0,5	1,688050
5,041833	0,5	1,665200
5,050167	0,5	1,655450
5,058500	0,5	1,651700
5,066833	0,5	1,665150
5,075167	0,5	1,690900
5,083500	0,5	1,729800
5,091833	0,5	1,774700
5,100167	0,5	1,854600
5,108500	0,5	1,914200
5,116833	0,5	1,991800
5,125167	0,5	2,064350
5,133500	0,5	2,154250
5,141833	0,5	2,229200
5,150167	0,5	2,280850
5,158500	0,5	2,307400
5,166833	0,5	2,331800
5,175167	0,5	2,325000
5,183500	0,5	2,313050
5,191833	0,5	2,289000
5,200167	0,5	2,247400
5,208500	0,5	2,198650
5,216833	0,5	2,150050
5,225167	0,5	2,096250
5,233500	0,5	2,035150
5,241833	0,5	1,999450
5,250167	0,5	1,971850
5,258500	0,5	1,936050
5,266833	0,5	1,912450
5,275167	0,5	1,913100
5,283500	0,5	1,942600
5,291833	0,5	1,988450
5,300167	0,5	2,024900
5,308500	0,5	2,082450
5,316833	0,5	2,145450
5,325167	0,5	2,209900
5,333500	0,5	2,268750
5,341833	0,5	2,324200
5,350167	0,5	2,364100
5,358500	0,5	2,403650
5,366833	0,5	2,438750
5,375167	0,5	2,479600
5,383500	0,5	2,527400
5,391833	0,5	2,621000
5,400167	0,5	2,694100
5,408500	0,5	2,758500
5,416833	0,5	2,805350
5,425167	0,5	2,805700
5,433500	0,5	2,778750
5,441833	0,5	2,694750
5,450167	0,5	2,562900
5,458500	0,5	2,406500
5,466833	0,5	2,257050
5,475167	0,5	2,110600
5,483500	0,5	1,988600
5,491833	0,5	1,884600
5,500167	0,5	1,792150
5,508500	0,5	1,713100
5,516833	0,5	1,646750
5,525167	0,5	1,584800
5,533500	0,5	1,543500
5,541833	0,5	1,518150
5,550167	0,5	1,480000
5,558500	0,5	1,454900
5,566833	0,5	1,445650
5,575167	0,5	1,442900
5,583500	0,5	1,457850
5,591833	0,5	1,457100
5,600167	0,5	1,458150
5,608500	0,5	1,460700
5,616833	0,5	1,451000
5,625167	0,5	1,445700
5,633500	0,5	1,449450
5,641833	0,5	1,456700
5,650167	0,5	1,457750
5,658500	0,5	1,471400
5,666833	0,5	1,490150
5,675167	0,5	1,498100
5,683500	0,5	1,514900
5,691833	0,5	1,541650
5,700167	0,5	1,537800
5,708500	0,5	1,543700
5,716833	0,5	1,541850
5,725167	0,5	1,539900
5,733500	0,5	1,542350
5,741833	0,5	1,514450
5,750167	0,5	1,501350
5,758500	0,5	1,499100
5,766833	0,5	1,503250
5,775167	0,5	1,516000
5,783500	0,5	1,538900
5,791833	0,5	1,561800
5,800167	0,5	1,592100
5,808500	0,5	1,613250
5,816833	0,5	1,638150
5,825167	0,5	1,644000
5,833500	0,5	1,676500
5,841833	0,5	1,700250
5,850167	0,5	1,736200
5,858500	0,5	1,796450
5,866833	0,5	1,896500
5,875167	0,5	2,062650
5,883500	0,5	2,297450
5,891833	0,5	2,625000
5,900167	0,5	3,076600
5,908500	0,5	3,657300
5,916833	0,5	4,355350
5,925167	0,5	5,089250
5,933500	0,5	5,766350
5,941833	0,5	6,292850
5,950167	0,5	6,576200
5,958500	0,5	6,604250
5,966833	0,5	6,371950
5,975167	0,5	5,952950
5,983500	0,5	5,445650
5,991833	0,5	4,912550
6,000167	0,5	4,419600
6,008500	0,5	4,007850
6,016833	0,5	3,663300
6,025167	0,5	3,383300
6,033500	0,5	3,107350
6,041833	0,5	2,848200
6,050167	0,5	2,595000
6,058500	0,5	2,361800
6,066833	0,5	2,149950
6,075167	0,5	1,969150
6,083500	0,5	1,814700
6,091833	0,5	1,683450
6,100167	0,5	1,583900
6,108500	0,5	1,502500
6,116833	0,5	1,433800
6,125167	0,5	1,378350
6,133500	0,5	1,337600
6,141833	0,5	1,278850
6,150167	0,5	1,237300
6,158500	0,5	1,192750
6,166833	0,5	1,172850
6,175167	0,5	1,160300
6,183500	0,5	1,146500
6,191833	0,5	1,124400
6,200167	0,5	1,129400
6,208500	0,5	1,135300
6,216833	0,5	1,151700
6,225167	0,5	1,180200
6,233500	0,5	1,208450
6,241833	0,5	1,220550
6,250167	0,5	1,240750
6,258500	0,5	1,238600
6,266833	0,5	1,220200
6,275167	0,5	1,190550
6,283500	0,5	1,152800
6,291833	0,5	1,089800
6,300167	0,5	1,033550
6,308500	0,5	0,995850
6,316833	0,5	0,967200
6,325167	0,5	0,954000
6,333500	0,5	0,942400
6,341833	0,5	0,949200
6,350167	0,5	0,960300
6,358500	0,5	0,984050
6,366833	0,5	1,012700
6,375167	0,5	1,065450
6,383500	0,5	1,124800
6,391833	0,5	1,200400
6,400167	0,5	1,300100
6,408500	0,5	1,407950
6,416833	0,5	1,522900
6,425167	0,5	1,670550
6,433500	0,5	1,785500
6,441833	0,5	1,892950
6,450167	0,5	1,987100
6,458500	0,5	2,069550
6,466833	0,5	2,139700
6,475167	0,5	2,181450
6,483500	0,5	2,230000
6,491833	0,5	2,293700
6,500167	0,5	2,414600
6,508500	0,5	2,574700
6,516833	0,5	2,797550
6,525167	0,5	3,047650
6,533500	0,5	3,283550
6,541833	0,5	3,492850
6,550167	0,5	3,630250
6,558500	0,5	3,688100
6,566833	0,5	3,676900
6,575167	0,5	3,601750
6,583500	0,5	3,470150
6,591833	0,5	3,294000
6,600167	0,5	3,101150
6,608500	0,5	2,896050
6,616833	0,5	2,694800
6,625167	0,5	2,495250
6,633500	0,5	2,314850
6,641833	0,5	2,169150
6,650167	0,5	2,058750
6,658500	0,5	1,979400
6,666833	0,5	1,935750
6,675167	0,5	1,922550
6,683500	0,5	1,944300
6,691833	0,5	2,010450
6,700167	0,5	2,124900
6,708500	0,5	2,277750
6,716833	0,5	2,488550
6,725167	0,5	2,754900
6,733500	0,5	3,047150
6,741833	0,5	3,371800
6,750167	0,5	3,687300
6,758500	0,5	3,971400
6,766833	0,5	4,169050
6,775167	0,5	4,259450
6,783500	0,5	4,253900
6,791833	0,5	4,175650
6,800167	0,5	4,035150
6,808500	0,5	3,897750
6,816833	0,5	3,774550
6,825167	0,5	3,693600
6,833500	0,5	3,658450
6,841833	0,5	3,668100
6,850167	0,5	3,717950
6,858500	0,5	3,763200
6,866833	0,5	3,828200
6,875167	0,5	3,858700
6,883500	0,5	3,857700
6,891833	0,5	3,806850
6,900167	0,5	3,723750
6,908500	0,5	3,602450
6,916833	0,5	3,440300
6,925167	0,5	3,255250
6,933500	0,5	3,084900
6,941833	0,5	2,929450
6,950167	0,5	2,812600
6,958500	0,5	2,715650
6,966833	0,5	2,650150
6,975167	0,5	2,609500
6,983500	0,5	2,602750
6,991833	0,5	2,628300
7,000167	0,5	2,684100
7,008500	0,5	2,784450
7,016833	0,5	2,946250
7,025167	0,5	3,128050
7,033500	0,5	3,349900
7,041833	0,5	3,599500
7,050167	0,5	3,846000
7,058500	0,5	4,074650
7,066833	0,5	4,238600
7,075167	0,5	4,326850
7,083500	0,5	4,365000
7,091833	0,5	4,368400
7,100167	0,5	4,357400
7,108500	0,5	4,379800
7,116833	0,5	4,470600
7,125167	0,5	4,671200
7,133500	0,5	5,045750
7,141833	0,5	5,680550
7,150167	0,5	6,680400
7,158500	0,5	8,173900
7,166833	0,5	10,249550
7,175167	0,5	12,829400
7,183500	0,5	15,729700
7,191833	0,5	18,529100
7,200167	0,5	20,762950
7,208500	0,5	22,008950
7,216833	0,5	22,094500
7,225167	0,5	21,175450
7,233500	0,5	19,663150
7,241833	0,5	18,000800
7,250167	0,5	16,559350
7,258500	0,5	15,493300
7,266833	0,5	14,819200
7,275167	0,5	14,443850
7,283500	0,5	14,268200
7,291833	0,5	14,145100
7,300167	0,5	13,926800
7,308500	0,5	13,489850
7,316833	0,5	12,777450
7,325167	0,5	11,806650
7,333500	0,5	10,704450
7,341833	0,5	9,593600
7,350167	0,5	8,599600
7,358500	0,5	7,850950
7,366833	0,5	7,406900
7,375167	0,5	7,358150
7,383500	0,5	7,720550
7,391833	0,5	8,506750
7,400167	0,5	9,659000
7,408500	0,5	11,092400
7,416833	0,5	12,619200
7,425167	0,5	14,021900
7,433500	0,5	15,030050
7,441833	0,5	15,485100
7,450167	0,5	15,414300
7,458500	0,5	15,100400
7,466833	0,5	14,908200
7,475167	0,5	15,318800
7,483500	0,5	16,660100
7,491833	0,5	18,967350
7,500167	0,5	21,898450
7,508500	0,5	24,746050
7,516833	0,5	26,665950
7,525167	0,5	26,997600
7,533500	0,5	25,531650
7,541833	0,5	22,602550
7,550167	0,5	18,906500
7,558500	0,5	15,203800
7,566833	0,5	12,027900
7,575167	0,5	9,594150
7,583500	0,5	7,880000
7,591833	0,5	6,716500
7,600167	0,5	5,943650
7,608500	0,5	5,443250
7,616833	0,5	5,115100
7,625167	0,5	4,926000
7,633500	0,5	4,837050
7,641833	0,5	4,803100
7,650167	0,5	4,786900
7,658500	0,5	4,704000
7,666833	0,5	4,560000
7,675167	0,5	4,350900
7,683500	0,5	4,115150
7,691833	0,5	3,872250
7,700167	0,5	3,659750
7,708500	0,5	3,492050
7,716833	0,5	3,347400
7,725167	0,5	3,257700
7,733500	0,5	3,198600
7,741833	0,5	3,160700
7,750167	0,5	3,156150
7,758500	0,5	3,150600
7,766833	0,5	3,139150
7,775167	0,5	3,125000
7,783500	0,5	3,096450
7,791833	0,5	3,055050
7,800167	0,5	2,986050
7,808500	0,5	2,898250
7,816833	0,5	2,815300
7,825167	0,5	2,760800
7,833500	0,5	2,732150
7,841833	0,5	2,729350
7,850167	0,5	2,751350
7,858500	0,5	2,792400
7,866833	0,5	2,863150
7,875167	0,5	2,972900
7,883500	0,5	3,146150
7,891833	0,5	3,404050
7,900167	0,5	3,781750
7,908500	0,5	4,243200
7,916833	0,5	4,758950
7,925167	0,5	5,248500
7,933500	0,5	5,636350
7,941833	0,5	5,879250
7,950167	0,5	5,979300
7,958500	0,5	6,034600
7,966833	0,5	6,215350
7,975167	0,5	6,688850
7,983500	0,5	7,508500
7,991833	0,5	8,559650
8,000167	0,5	9,550200
8,008500	0,5	10,133350
8,016833	0,5	10,124100
8,025167	0,5	9,590900
8,033500	0,5	8,757700
8,041833	0,5	7,864200
8,050167	0,5	7,051000
8,058500	0,5	6,357350
8,066833	0,5	5,794500
8,075167	0,5	5,339400
8,083500	0,5	4,948550
8,091833	0,5	4,590500
8,100167	0,5	4,218250
8,108500	0,5	3,896550
8,116833	0,5	3,661700
8,125167	0,5	3,521200
8,133500	0,5	3,439000
8,141833	0,5	3,392000
8,150167	0,5	3,349200
8,158500	0,5	3,294400
8,166833	0,5	3,220050
8,175167	0,5	3,127150
8,183500	0,5	3,027250
8,191833	0,5	2,938150
8,200167	0,5	2,866350
8,208500	0,5	2,804300
8,216833	0,5	2,765050
8,225167	0,5	2,734750
8,233500	0,5	2,709650
8,241833	0,5	2,691800
8,250167	0,5	2,661750
8,258500	0,5	2,622100
8,266833	0,5	2,571650
8,275167	0,5	2,514100
8,283500	0,5	2,452350
8,291833	0,5	2,403150
8,300167	0,5	2,358000
8,308500	0,5	2,316100
8,316833	0,5	2,292150
8,325167	0,5	2,266800
8,333500	0,5	2,245350
8,341833	0,5	2,230200
8,350167	0,5	2,212250
8,358500	0,5	2,183400
8,366833	0,5	2,161400
8,375167	0,5	2,150050
8,383500	0,5	2,143500
8,391833	0,5	2,154900
8,400167	0,5	2,181850
8,408500	0,5	2,224600
8,416833	0,5	2,296100
8,425167	0,5	2,394000
8,433500	0,5	2,516600
8,441833	0,5	2,656000
8,450167	0,5	2,811950
8,458500	0,5	2,966550
8,466833	0,5	3,104900
8,475167	0,5	3,225550
8,483500	0,5	3,300100
8,491833	0,5	3,329550
8,500167	0,5	3,300550
8,508500	0,5	3,239050
8,516833	0,5	3,154250
8,525167	0,5	3,058600
8,533500	0,5	2,948450
8,541833	0,5	2,851800
8,550167	0,5	2,749400
8,558500	0,5	2,666400
8,566833	0,5	2,598750
8,575167	0,5	2,548800
8,583500	0,5	2,513450
8,591833	0,5	2,506300
8,600167	0,5	2,520300
8,608500	0,5	2,588550
8,616833	0,5	2,722850
8,625167	0,5	2,933100
8,633500	0,5	3,228550
8,641833	0,5	3,574150
8,650167	0,5	3,911050
8,658500	0,5	4,124150
8,666833	0,5	4,179450
8,675167	0,5	4,067800
8,683500	0,5	3,861600
8,691833	0,5	3,658400
8,700167	0,5	3,553750
8,708500	0,5	3,570700
8,716833	0,5	3,713450
8,725167	0,5	3,948350
8,733500	0,5	4,278550
8,741833	0,5	4,668350
8,750167	0,5	5,115750
8,758500	0,5	5,600200
8,766833	0,5	6,090500
8,775167	0,5	6,524300
8,783500	0,5	6,833350
8,791833	0,5	6,924250
8,800167	0,5	6,739950
8,808500	0,5	6,314800
8,816833	0,5	5,713800
8,825167	0,5	5,046050
8,833500	0,5	4,399100
8,841833	0,5	3,846050
8,850167	0,5	3,412250
8,858500	0,5	3,102900
8,866833	0,5	2,893600
8,875167	0,5	2,756300
8,883500	0,5	2,672650
8,891833	0,5	2,633650
8,900167	0,5	2,622800
8,908500	0,5	2,645350
8,916833	0,5	2,712500
8,925167	0,5	2,823600
8,933500	0,5	2,970000
8,941833	0,5	3,135650
8,950167	0,5	3,281400
8,958500	0,5	3,357700
8,966833	0,5	3,364400
8,975167	0,5	3,317250
8,983500	0,5	3,235100
8,991833	0,5	3,172350
9,000167	0,5	3,139900
9,008500	0,5	3,157450
9,016833	0,5	3,237900
9,025167	0,5	3,382350
9,033500	0,5	3,558350
9,041833	0,5	3,733050
9,050167	0,5	3,858400
9,058500	0,5	3,891200
9,066833	0,5	3,821700
9,075167	0,5	3,658450
9,083500	0,5	3,451150
9,091833	0,5	3,232000
9,100167	0,5	3,039350
9,108500	0,5	2,880600
9,116833	0,5	2,753900
9,125167	0,5	2,637650
9,133500	0,5	2,523800
9,141833	0,5	2,403000
9,150167	0,5	2,282000
9,158500	0,5	2,178850
9,166833	0,5	2,087000
9,175167	0,5	2,017500
9,183500	0,5	1,963450
9,191833	0,5	1,925150
9,200167	0,5	1,898650
9,208500	0,5	1,880150
9,216833	0,5	1,874200
9,225167	0,5	1,875600
9,233500	0,5	1,875000
9,241833	0,5	1,867900
9,250167	0,5	1,863300
9,258500	0,5	1,853350
9,266833	0,5	1,849050
9,275167	0,5	1,846650
9,283500	0,5	1,843800
9,291833	0,5	1,845150
9,300167	0,5	1,838350
9,308500	0,5	1,843850
9,316833	0,5	1,837900
9,325167	0,5	1,844200
9,333500	0,5	1,833800
9,341833	0,5	1,823100
9,350167	0,5	1,810950
9,358500	0,5	1,796900
9,366833	0,5	1,772250
9,375167	0,5	1,749950
9,383500	0,5	1,713900
9,391833	0,5	1,669700
9,400167	0,5	1,623950
9,408500	0,5	1,587550
9,416833	0,5	1,562400
9,425167	0,5	1,551050
9,433500	0,5	1,553250
9,441833	0,5	1,556350
9,450167	0,5	1,557750
9,458500	0,5	1,549200
9,466833	0,5	1,534800
9,475167	0,5	1,517800
9,483500	0,5	1,498600
9,491833	0,5	1,478050
9,500167	0,5	1,458750
9,508500	0,5	1,449800
9,516833	0,5	1,442300
9,525167	0,5	1,436100
9,533500	0,5	1,434400
9,541833	0,5	1,428250
9,550167	0,5	1,437750
9,558500	0,5	1,442400
9,566833	0,5	1,466000
9,575167	0,5	1,498850
9,583500	0,5	1,534950
9,591833	0,5	1,578950
9,600167	0,5	1,632000
9,608500	0,5	1,676100
9,616833	0,5	1,713500
9,625167	0,5	1,756450
9,633500	0,5	1,789750
9,641833	0,5	1,808600
9,650167	0,5	1,812600
9,658500	0,5	1,789150
9,666833	0,5	1,750950
9,675167	0,5	1,695850
9,683500	0,5	1,631450
9,691833	0,5	1,558700
9,700167	0,5	1,494200
9,708500	0,5	1,447350
9,716833	0,5	1,409600
9,725167	0,5	1,382750
9,733500	0,5	1,375250
9,741833	0,5	1,360700
9,750167	0,5	1,358700
9,758500	0,5	1,365250
9,766833	0,5	1,374900
9,775167	0,5	1,377400
9,783500	0,5	1,382350
9,791833	0,5	1,390450
9,800167	0,5	1,393150
9,808500	0,5	1,391300
9,816833	0,5	1,392350
9,825167	0,5	1,396900
9,833500	0,5	1,400100
9,841833	0,5	1,406400
9,850167	0,5	1,413900
9,858500	0,5	1,422300
9,866833	0,5	1,440500
9,875167	0,5	1,455450
9,883500	0,5	1,476050
9,891833	0,5	1,503250
9,900167	0,5	1,535950
9,908500	0,5	1,569300
9,916833	0,5	1,592800
9,925167	0,5	1,596650
9,933500	0,5	1,579800
9,941833	0,5	1,544450
9,950167	0,5	1,496400
9,958500	0,5	1,445700
9,966833	0,5	1,398200
9,975167	0,5	1,359750
9,983500	0,5	1,327950
9,991833	0,5	1,297350
10,000167	0,5	1,280200
10,008500	0,5	1,267300
10,016833	0,5	1,263400
10,025167	0,5	1,256300
10,033500	0,5	1,255400
10,041833	0,5	1,262900
10,050167	0,5	1,261900
10,058500	0,5	1,272650
10,066833	0,5	1,285800
10,075167	0,5	1,298000
10,083500	0,5	1,315300
10,091833	0,5	1,339550
10,100167	0,5	1,368450
10,108500	0,5	1,390800
10,116833	0,5	1,421650
10,125167	0,5	1,458650
10,133500	0,5	1,490250
10,141833	0,5	1,522450
10,150167	0,5	1,566950
10,158500	0,5	1,619150
10,166833	0,5	1,681550
10,175167	0,5	1,743800
10,183500	0,5	1,832950
10,191833	0,5	1,918400
10,200167	0,5	1,995050
10,208500	0,5	2,062250
10,216833	0,5	2,103150
10,225167	0,5	2,110800
10,233500	0,5	2,093450
10,241833	0,5	2,058900
10,250167	0,5	2,018400
10,258500	0,5	1,970800
10,266833	0,5	1,931700
10,275167	0,5	1,889800
10,283500	0,5	1,840400
10,291833	0,5	1,785250
10,300167	0,5	1,735100
10,308500	0,5	1,688350
10,316833	0,5	1,654000
10,325167	0,5	1,622200
10,333500	0,5	1,615500
10,341833	0,5	1,619100
10,350167	0,5	1,639450
10,358500	0,5	1,696700
10,366833	0,5	1,799150
10,375167	0,5	1,962050
10,383500	0,5	2,193400
10,391833	0,5	2,496050
10,400167	0,5	2,857200
10,408500	0,5	3,227850
10,416833	0,5	3,557350
10,425167	0,5	3,778500
10,433500	0,5	3,844100
10,441833	0,5	3,751750
10,450167	0,5	3,535750
10,458500	0,5	3,246750
10,466833	0,5	2,940250
10,475167	0,5	2,654100
10,483500	0,5	2,422750
10,491833	0,5	2,230050
10,500167	0,5	2,068250
10,508500	0,5	1,919800
10,516833	0,5	1,775750
10,525167	0,5	1,633800
10,533500	0,5	1,495950
10,541833	0,5	1,375500
10,550167	0,5	1,276450
10,558500	0,5	1,198800
10,566833	0,5	1,153650
10,575167	0,5	1,129150
10,583500	0,5	1,129650
10,591833	0,5	1,145200
10,600167	0,5	1,177950
10,608500	0,5	1,219700
10,616833	0,5	1,268900
10,625167	0,5	1,318450
10,633500	0,5	1,351300
10,641833	0,5	1,373600
10,650167	0,5	1,390400
10,658500	0,5	1,395250
10,666833	0,5	1,382450
10,675167	0,5	1,367850
10,683500	0,5	1,347750
10,691833	0,5	1,327450
10,700167	0,5	1,305700
10,708500	0,5	1,297350
10,716833	0,5	1,289400
10,725167	0,5	1,283600
10,733500	0,5	1,280700
10,741833	0,5	1,282150
10,750167	0,5	1,285400
10,758500	0,5	1,288700
10,766833	0,5	1,282650
10,775167	0,5	1,282250
10,783500	0,5	1,274100
10,791833	0,5	1,275350
10,800167	0,5	1,265950
10,808500	0,5	1,265100
10,816833	0,5	1,262500
10,825167	0,5	1,259050
10,833500	0,5	1,261550
10,841833	0,5	1,269150
10,850167	0,5	1,288300
10,858500	0,5	1,308400
10,866833	0,5	1,345200
10,875167	0,5	1,382250
10,883500	0,5	1,421400
10,891833	0,5	1,469400
10,900167	0,5	1,521200
10,908500	0,5	1,558750
10,916833	0,5	1,586350
10,925167	0,5	1,597000
10,933500	0,5	1,602100
10,941833	0,5	1,587650
10,950167	0,5	1,571800
10,958500	0,5	1,551200
10,966833	0,5	1,533350
10,975167	0,5	1,517350
10,983500	0,5	1,506300
10,991833	0,5	1,491600
11,000167	0,5	1,495700
11,008500	0,5	1,506900
11,016833	0,5	1,518200
11,025167	0,5	1,534300
11,033500	0,5	1,547800
11,041833	0,5	1,573650
11,050167	0,5	1,611200
11,058500	0,5	1,652600
11,066833	0,5	1,695800
11,075167	0,5	1,742500
11,083500	0,5	1,769000
11,091833	0,5	1,769400
11,100167	0,5	1,749500
11,108500	0,5	1,705550
11,116833	0,5	1,649200
11,125167	0,5	1,594100
11,133500	0,5	1,548150
11,141833	0,5	1,500400
11,150167	0,5	1,473600
11,158500	0,5	1,448050
11,166833	0,5	1,420050
11,175167	0,5	1,384350
11,183500	0,5	1,352100
11,191833	0,5	1,328800
11,200167	0,5	1,313700
11,208500	0,5	1,298850
11,216833	0,5	1,292050
11,225167	0,5	1,291200
11,233500	0,5	1,304900
11,241833	0,5	1,322100
11,250167	0,5	1,358800
11,258500	0,5	1,408200
11,266833	0,5	1,476750
11,275167	0,5	1,564550
11,283500	0,5	1,673650
11,291833	0,5	1,796500
11,300167	0,5	1,944400
11,308500	0,5	2,102050
11,316833	0,5	2,270550
11,325167	0,5	2,462150
11,333500	0,5	2,657150
11,341833	0,5	2,841500
11,350167	0,5	2,981450
11,358500	0,5	3,037350
11,366833	0,5	3,005000
11,375167	0,5	2,871500
11,383500	0,5	2,684400
11,391833	0,5	2,453900
11,400167	0,5	2,229600
11,408500	0,5	2,024500
11,416833	0,5	1,862050
11,425167	0,5	1,738250
11,433500	0,5	1,641300
11,441833	0,5	1,581400
11,450167	0,5	1,542050
11,458500	0,5	1,517150
11,466833	0,5	1,503500
11,475167	0,5	1,489700
11,483500	0,5	1,481500
11,491833	0,5	1,476000
11,500167	0,5	1,462700
11,508500	0,5	1,445000
11,516833	0,5	1,422650
11,525167	0,5	1,396700
11,533500	0,5	1,374950
11,541833	0,5	1,349100
11,550167	0,5	1,321650
11,558500	0,5	1,292300
11,566833	0,5	1,274700
11,575167	0,5	1,246850
11,583500	0,5	1,225950
11,591833	0,5	1,213100
11,600167	0,5	1,206350
11,608500	0,5	1,201850
11,616833	0,5	1,199750
11,625167	0,5	1,200800
11,633500	0,5	1,209600
11,641833	0,5	1,229350
11,650167	0,5	1,251850
11,658500	0,5	1,275450
11,666833	0,5	1,312600
11,675167	0,5	1,337000
11,683500	0,5	1,373750
11,691833	0,5	1,413100
11,700167	0,5	1,469300
11,708500	0,5	1,536400
11,716833	0,5	1,617200
11,725167	0,5	1,714500
11,733500	0,5	1,834600
11,741833	0,5	1,972100
11,750167	0,5	2,106250
11,758500	0,5	2,236650
11,766833	0,5	2,344900
11,775167	0,5	2,429250
11,783500	0,5	2,469300
11,791833	0,5	2,466450
11,800167	0,5	2,415150
11,808500	0,5	2,338850
11,816833	0,5	2,225200
11,825167	0,5	2,108050
11,833500	0,5	1,989700
11,841833	0,5	1,891400
11,850167	0,5	1,811450
11,858500	0,5	1,748000
11,866833	0,5	1,702100
11,875167	0,5	1,661750
11,883500	0,5	1,639750
11,891833	0,5	1,620350
11,900167	0,5	1,599850
11,908500	0,5	1,585500
11,916833	0,5	1,567850
11,925167	0,5	1,556600
11,933500	0,5	1,555850
11,941833	0,5	1,559800
11,950167	0,5	1,569200
11,958500	0,5	1,598350
11,966833	0,5	1,641450
11,975167	0,5	1,700300
11,983500	0,5	1,766100
11,991833	0,5	1,829850
12,000167	0,5	1,882250
12,008500	0,5	1,931650
12,016833	0,5	1,963050
12,025167	0,5	1,973450
12,033500	0,5	2,018700
12,041833	0,5	2,053200
12,050167	0,5	2,112400
12,058500	0,5	2,182700
12,066833	0,5	2,253550
12,075167	0,5	2,354550
12,083500	0,5	2,446600
12,091833	0,5	2,524400
12,100167	0,5	2,561800
12,108500	0,5	2,572250
12,116833	0,5	2,527250
12,125167	0,5	2,448250
12,133500	0,5	2,333800
12,141833	0,5	2,211250
12,150167	0,5	2,091550
12,158500	0,5	1,986350
12,166833	0,5	1,899300
12,175167	0,5	1,830850
12,183500	0,5	1,789950
12,191833	0,5	1,761950
12,200167	0,5	1,735650
12,208500	0,5	1,715650
12,216833	0,5	1,694000
12,225167	0,5	1,684400
12,233500	0,5	1,666450
12,241833	0,5	1,657550
12,250167	0,5	1,643050
12,258500	0,5	1,628650
12,266833	0,5	1,619000
12,275167	0,5	1,608550
12,283500	0,5	1,607800
12,291833	0,5	1,600800
12,300167	0,5	1,596950
12,308500	0,5	1,589400
12,316833	0,5	1,571050
12,325167	0,5	1,553250
12,333500	0,5	1,532000
12,341833	0,5	1,506200
12,350167	0,5	1,467100
12,358500	0,5	1,420250
12,366833	0,5	1,393050
12,375167	0,5	1,370350
12,383500	0,5	1,351450
12,391833	0,5	1,332750
12,400167	0,5	1,334000
12,408500	0,5	1,337300
12,416833	0,5	1,342950
12,425167	0,5	1,355150
12,433500	0,5	1,381200
12,441833	0,5	1,421950
12,450167	0,5	1,456700
12,458500	0,5	1,471650
12,466833	0,5	1,474800
12,475167	0,5	1,497950
12,483500	0,5	1,500550
12,491833	0,5	1,502150
12,500167	0,5	1,523450
12,508500	0,5	1,653950
12,516833	0,5	1,916550
12,525167	0,5	2,085100
12,533500	0,5	2,014500
12,541833	0,5	1,584600
12,550167	0,5	0,904250
12,558500	0,5	0,374200
12,566833	0,5	0,022150
12,575167	0,5	-0,244350
12,583500	0,5	-0,485250
12,591833	0,5	-0,740200
12,600167	0,5	-1,015900
12,608500	0,5	-1,394600
12,616833	0,5	-1,721000
12,625167	0,5	-1,950500
12,633500	0,5	-2,122950
12,641833	0,5	-2,266950
12,650167	0,5	-2,388000
12,658500	0,5	-2,493700
12,666833	0,5	-2,576050
12,675167	0,5	-2,656850
12,683500	0,5	-2,713600
12,691833	0,5	-2,778000
12,700167	0,5	-2,825550
12,708500	0,5	-2,873200
12,716833	0,5	-2,912600
12,725167	0,5	-2,946400
12,733500	0,5	-2,979000
12,741833	0,5	-3,000600
12,750167	0,5	-3,017000
12,758500	0,5	-3,046450
12,766833	0,5	-3,056300
12,775167	0,5	-3,067600
12,783500	0,5	-3,074000
12,791833	0,5	-3,083100
12,800167	0,5	-3,103150
12,808500	0,5	-3,104350
12,816833	0,5	-3,107750
12,825167	0,5	-3,102250
12,833500	0,5	-3,112850
12,841833	0,5	-3,109800
12,850167	0,5	-3,114850
12,858500	0,5	-3,110150
12,866833	0,5	-3,113250
12,875167	0,5	-3,106550
12,883500	0,5	-3,105450
12,891833	0,5	-3,096350
12,900167	0,5	-3,086200
12,908500	0,5	-3,084300
12,916833	0,5	-3,050950
12,925167	0,5	-3,033600
12,933500	0,5	-3,013400
12,941833	0,5	-2,995400
12,950167	0,5	-2,979900
12,958500	0,5	-2,952650
12,966833	0,5	-2,930450
12,975167	0,5	-2,918250
12,983500	0,5	-2,897050
12,991833	0,5	-2,887750
13,000167	0,5	-2,879200
13,008500	0,5	-2,884200
13,016833	0,5	-2,875550
13,025167	0,5	-2,878250
13,033500	0,5	-2,881750
13,041833	0,5	-2,877950
13,050167	0,5	-2,868400
13,058500	0,5	-2,873450
13,066833	0,5	-2,861700
13,075167	0,5	-2,856850
13,083500	0,5	-2,857950
13,091833	0,5	-2,863350
13,100167	0,5	-2,869950
13,108500	0,5	-2,869050
13,116833	0,5	-2,878050
13,125167	0,5	-2,888400
13,133500	0,5	-2,901200
13,141833	0,5	-2,912400
13,150167	0,5	-2,931450
13,158500	0,5	-2,941600
13,166833	0,5	-2,951650
13,175167	0,5	-2,966200
13,183500	0,5	-2,966150
13,191833	0,5	-2,959500
13,200167	0,5	-2,972650
13,208500	0,5	-2,969100
13,216833	0,5	-2,966300
13,225167	0,5	-2,960600
13,233500	0,5	-2,958400
13,241833	0,5	-2,953450
13,250167	0,5	-2,945150
13,258500	0,5	-2,924950
13,266833	0,5	-2,900900
13,275167	0,5	-2,875050
13,283500	0,5	-2,842450
13,291833	0,5	-2,806500
13,300167	0,5	-2,774300
13,308500	0,5	-2,743650
13,316833	0,5	-2,715500
13,325167	0,5	-2,698200
13,333500	0,5	-2,673850
13,341833	0,5	-2,667000
13,350167	0,5	-2,671250
13,358500	0,5	-2,682200
13,366833	0,5	-2,681600
13,375167	0,5	-2,691400
13,383500	0,5	-2,703000
13,391833	0,5	-2,719500
13,400167	0,5	-2,718850
13,408500	0,5	-2,714150
13,416833	0,5	-2,709400
13,425167	0,5	-2,706900
13,433500	0,5	-2,692400
13,441833	0,5	-2,694250
13,450167	0,5	-2,678200
13,458500	0,5	-2,669000
13,466833	0,5	-2,660850
13,475167	0,5	-2,650900
13,483500	0,5	-2,632200
13,491833	0,5	-2,625050
13,500167	0,5	-2,618350
13,508500	0,5	-2,592050
13,516833	0,5	-2,582950
13,525167	0,5	-2,569600
13,533500	0,5	-2,561500
13,541833	0,5	-2,547550
13,550167	0,5	-2,524700
13,558500	0,5	-2,494950
13,566833	0,5	-2,481050
13,575167	0,5	-2,456500
13,583500	0,5	-2,433700
13,591833	0,5	-2,406800
13,600167	0,5	-2,393800
13,608500	0,5	-2,372050
13,616833	0,5	-2,351400
13,625167	0,5	-2,332450
13,633500	0,5	-2,308550
13,641833	0,5	-2,296850
13,650167	0,5	-2,281700
13,658500	0,5	-2,254800
13,666833	0,5	-2,238050
13,675167	0,5	-2,225850
13,683500	0,5	-2,213050
13,691833	0,5	-2,206600
13,700167	0,5	-2,180200
13,708500	0,5	-2,164900
13,716833	0,5	-2,136450
13,725167	0,5	-2,120400
13,733500	0,5	-2,105950
13,741833	0,5	-2,097250
13,750167	0,5	-2,079900
13,758500	0,5	-2,070000
13,766833	0,5	-2,054350
13,775167	0,5	-2,026550
13,783500	0,5	-2,009300
13,791833	0,5	-1,994250
13,800167	0,5	-1,972200
13,808500	0,5	-1,951200
13,816833	0,5	-1,943450
13,825167	0,5	-1,929550
13,833500	0,5	-1,926450
13,841833	0,5	-1,917650
13,850167	0,5	-1,894450
13,858500	0,5	-1,869050
13,866833	0,5	-1,838850
13,875167	0,5	-1,798150
13,883500	0,5	-1,761000
13,891833	0,5	-1,714900
13,900167	0,5	-1,650300
13,908500	0,5	-1,588700
13,916833	0,5	-1,526700
13,925167	0,5	-1,462550
13,933500	0,5	-1,432850
13,941833	0,5	-1,407950
13,950167	0,5	-1,392350
13,958500	0,5	-1,378800
13,966833	0,5	-1,379800
13,975167	0,5	-1,372900
13,983500	0,5	-1,344050
13,991833	0,5	-1,287700
14,000167	0,5	-1,217400
14,008500	0,5	-1,152300
14,016833	0,5	-1,077700
14,025167	0,5	-1,016750
14,033500	0,5	-0,962200
14,041833	0,5	-0,915450
14,050167	0,5	-0,869950
14,058500	0,5	-0,827000
14,066833	0,5	-0,769100
14,075167	0,5	-0,708250
14,083500	0,5	-0,665450
14,091833	0,5	-0,627150
14,100167	0,5	-0,584950
14,108500	0,5	-0,551550
14,116833	0,5	-0,514550
14,125167	0,5	-0,479200
14,133500	0,5	-0,427550
14,141833	0,5	-0,368150
14,150167	0,5	-0,335850
14,158500	0,5	-0,316000
14,166833	0,5	-0,308500
14,175167	0,5	-0,309000
14,183500	0,5	-0,308700
14,191833	0,5	-0,293450
14,200167	0,5	-0,281100
14,208500	0,5	-0,270600
14,216833	0,5	-0,255950
14,225167	0,5	-0,222700
14,233500	0,5	-0,211000
14,241833	0,5	-0,174200
14,250167	0,5	-0,150100
14,258500	0,5	-0,130100
14,266833	0,5	-0,123850
14,275167	0,5	-0,115750
14,283500	0,5	-0,095250
14,291833	0,5	-0,086250
14,300167	0,5	-0,081150
14,308500	0,5	-0,067000
14,316833	0,5	-0,056050
14,325167	0,5	-0,045200
14,333500	0,5	-0,029200
14,341833	0,5	-0,000950
14,350167	0,5	0,014600
14,358500	0,5	0,027800
14,366833	0,5	0,049150
14,375167	0,5	0,054750
14,383500	0,5	0,054150
14,391833	0,5	0,058000
14,400167	0,5	0,051650
14,408500	0,5	0,035100
14,416833	0,5	0,017750
14,425167	0,5	-0,009250
14,433500	0,5	-0,013850
14,441833	0,5	-0,021750
14,450167	0,5	-0,023150
14,458500	0,5	-0,033550
14,466833	0,5	-0,040400
14,475167	0,5	-0,047850
14,483500	0,5	-0,044050
14,491833	0,5	-0,045750
14,500167	0,5	-0,048200
14,508500	0,5	-0,040750
14,516833	0,5	-0,037250
14,525167	0,5	-0,040200
14,533500	0,5	-0,037450
14,541833	0,5	-0,012550
14,550167	0,5	0,006750
14,558500	0,5	0,036300
14,566833	0,5	0,079800
14,575167	0,5	0,141300
14,583500	0,5	0,229450
14,591833	0,5	0,317800
14,600167	0,5	0,386300
14,608500	0,5	0,441400
14,616833	0,5	0,458450
14,625167	0,5	0,452750
14,633500	0,5	0,424600
14,641833	0,5	0,387100
14,650167	0,5	0,346850
14,658500	0,5	0,327600
14,666833	0,5	0,337000
14,675167	0,5	0,359700
14,683500	0,5	0,431550
14,691833	0,5	0,505450
14,700167	0,5	0,558950
14,708500	0,5	0,583250
14,716833	0,5	0,578400
14,725167	0,5	0,537700
14,733500	0,5	0,493050
14,741833	0,5	0,422050
14,750167	0,5	0,355300
14,758500	0,5	0,290900
14,766833	0,5	0,242600
14,775167	0,5	0,191400
14,783500	0,5	0,160300
14,791833	0,5	0,137050
14,800167	0,5	0,119300
14,808500	0,5	0,113400
14,816833	0,5	0,098300
14,825167	0,5	0,097550
14,833500	0,5	0,106450
14,841833	0,5	0,111850
14,850167	0,5	0,116800
14,858500	0,5	0,099000
14,866833	0,5	0,086500
14,875167	0,5	0,081050
14,883500	0,5	0,054150
14,891833	0,5	0,044850
14,900167	0,5	0,035300
14,908500	0,5	0,036750
14,916833	0,5	0,026800
14,925167	0,5	0,020400
14,933500	0,5	0,009600
14,941833	0,5	-0,009600
14,950167	0,5	-0,025200
14,958500	0,5	-0,037750
14,966833	0,5	-0,070500
14,975167	0,5	-0,077750
14,983500	0,5	-0,088000
14,991833	0,5	-0,104900
15,000167	0,5	-0,117750
15,008500	0,5	-0,134850
15,016833	0,5	-0,137000
15,025167	0,5	-0,137250
15,033500	0,5	-0,138050
15,041833	0,5	-0,142600
15,050167	0,5	-0,127250
15,058500	0,5	-0,132300
15,066833	0,5	-0,117250
15,075167	0,5	-0,104650
15,083500	0,5	-0,060600
15,091833	0,5	-0,014650
15,100167	0,5	0,068250
15,108500	0,5	0,176550
15,116833	0,5	0,277400
15,125167	0,5	0,387400
15,133500	0,5	0,441650
15,141833	0,5	0,441600
15,150167	0,5	0,398000
15,158500	0,5	0,327950
15,166833	0,5	0,289600
15,175167	0,5	0,281300
15,183500	0,5	0,315000
15,191833	0,5	0,379450
15,200167	0,5	0,453600
15,208500	0,5	0,507150
15,216833	0,5	0,516000
15,225167	0,5	0,482000
15,233500	0,5	0,410600
15,241833	0,5	0,321200
15,250167	0,5	0,239150
15,258500	0,5	0,166100
15,266833	0,5	0,109500
15,275167	0,5	0,097000
15,283500	0,5	0,080550
15,291833	0,5	0,063150
15,300167	0,5	0,028000
15,308500	0,5	-0,000200
15,316833	0,5	-0,011800
15,325167	0,5	-0,025850
15,333500	0,5	-0,036900
15,341833	0,5	-0,055400
15,350167	0,5	-0,055200
15,358500	0,5	-0,052200
15,366833	0,5	-0,050100
15,375167	0,5	-0,046600
15,383500	0,5	-0,053100
15,391833	0,5	-0,062600
15,400167	0,5	-0,061700
15,408500	0,5	-0,102050
15,416833	0,5	-0,113350
15,425167	0,5	-0,135800
15,433500	0,5	-0,159050
15,441833	0,5	-0,186650
15,450167	0,5	-0,218050
15,458500	0,5	-0,240750
15,466833	0,5	-0,239000
15,475167	0,5	-0,251450
15,483500	0,5	-0,264300
15,491833	0,5	-0,267200
15,500167	0,5	-0,278550
15,508500	0,5	-0,295650
15,516833	0,5	-0,290300
15,525167	0,5	-0,284650
15,533500	0,5	-0,273600
15,541833	0,5	-0,232400
15,550167	0,5	-0,186600
15,558500	0,5	-0,115400
15,566833	0,5	-0,002950
15,575167	0,5	0,117600
15,583500	0,5	0,232400
15,591833	0,5	0,294150
15,600167	0,5	0,309950
15,608500	0,5	0,302050
15,616833	0,5	0,271800
15,625167	0,5	0,260850
15,633500	0,5	0,273650
15,641833	0,5	0,329100
15,650167	0,5	0,382900
15,658500	0,5	0,422050
15,666833	0,5	0,427400
15,675167	0,5	0,385800
15,683500	0,5	0,312500
15,691833	0,5	0,218800
15,700167	0,5	0,123150
15,708500	0,5	0,032950
15,716833	0,5	-0,020950
15,725167	0,5	-0,081950
15,733500	0,5	-0,117000
15,741833	0,5	-0,161400
15,750167	0,5	-0,179500
15,758500	0,5	-0,179750
15,766833	0,5	-0,159100
15,775167	0,5	-0,149250
15,783500	0,5	-0,132450
15,791833	0,5	-0,127650
15,800167	0,5	-0,128100
15,808500	0,5	-0,143200
15,816833	0,5	-0,162450
15,825167	0,5	-0,185050
15,833500	0,5	-0,209850
15,841833	0,5	-0,225550
15,850167	0,5	-0,257900
15,858500	0,5	-0,274700
15,866833	0,5	-0,285450
15,875167	0,5	-0,302050
15,883500	0,5	-0,318800
15,891833	0,5	-0,344950
15,900167	0,5	-0,355450
15,908500	0,5	-0,354450
15,916833	0,5	-0,362700
15,925167	0,5	-0,362450
15,933500	0,5	-0,369100
15,941833	0,5	-0,351700
15,950167	0,5	-0,338550
15,958500	0,5	-0,286600
15,966833	0,5	-0,206750
15,975167	0,5	-0,103300
15,983500	0,5	0,040200
15,991833	0,5	0,176600
16,000167	0,5	0,273400
16,008500	0,5	0,342400
16,016833	0,5	0,366250
16,025167	0,5	0,370250
16,033500	0,5	0,369950
16,041833	0,5	0,388150
16,050167	0,5	0,439350
16,058500	0,5	0,448800
16,066833	0,5	0,417700
16,075167	0,5	0,339500
16,083500	0,5	0,242700
16,091833	0,5	0,134950
16,100167	0,5	0,047250
16,108500	0,5	-0,028900
16,116833	0,5	-0,071500
16,125167	0,5	-0,105350
16,133500	0,5	-0,109150
16,141833	0,5	-0,132550
16,150167	0,5	-0,117750
16,158500	0,5	-0,094350
16,166833	0,5	-0,068400
16,175167	0,5	-0,041050
16,183500	0,5	-0,018800
16,191833	0,5	0,018750
16,200167	0,5	0,067200
16,208500	0,5	0,122400
16,216833	0,5	0,153000
16,225167	0,5	0,162750
16,233500	0,5	0,147500
16,241833	0,5	0,108900
16,250167	0,5	0,057500
16,258500	0,5	-0,011550
16,266833	0,5	-0,093250
16,275167	0,5	-0,161750
16,283500	0,5	-0,217450
16,291833	0,5	-0,268300
16,300167	0,5	-0,287550
16,308500	0,5	-0,299650
16,316833	0,5	-0,296100
16,325167	0,5	-0,263950
16,333500	0,5	-0,205800
16,341833	0,5	-0,084500
16,350167	0,5	0,041400
16,358500	0,5	0,154400
16,366833	0,5	0,230400
16,375167	0,5	0,275250
16,383500	0,5	0,281150
16,391833	0,5	0,283500
16,400167	0,5	0,296900
16,408500	0,5	0,294700
16,416833	0,5	0,257400
16,425167	0,5	0,204000
16,433500	0,5	0,129800
16,441833	0,5	0,033700
16,450167	0,5	-0,014750
16,458500	0,5	-0,064100
16,466833	0,5	-0,070800
16,475167	0,5	-0,088700
16,483500	0,5	-0,099100
16,491833	0,5	-0,071300
16,500167	0,5	-0,054650
16,508500	0,5	-0,057300
16,516833	0,5	-0,061550
16,525167	0,5	-0,076500
16,533500	0,5	-0,096900
16,541833	0,5	-0,116700
16,550167	0,5	-0,154950
16,558500	0,5	-0,173550
16,566833	0,5	-0,204700
16,575167	0,5	-0,197250
16,583500	0,5	-0,211050
16,591833	0,5	-0,213650
16,600167	0,5	-0,196200
16,608500	0,5	-0,185900
16,616833	0,5	-0,185400
16,625167	0,5	-0,186050
16,633500	0,5	-0,188950
16,641833	0,5	-0,146450
16,650167	0,5	-0,095650
16,658500	0,5	-0,017000
16,666833	0,5	0,099900
16,675167	0,5	0,241550
16,683500	0,5	0,378500
16,691833	0,5	0,497650
16,700167	0,5	0,590650
16,708500	0,5	0,651450
16,716833	0,5	0,700550
16,725167	0,5	0,708150
16,733500	0,5	0,668500
16,741833	0,5	0,590650
16,750167	0,5	0,480200
16,758500	0,5	0,336250
16,766833	0,5	0,196900
16,775167	0,5	0,073500
16,783500	0,5	-0,009750
16,791833	0,5	-0,065800
16,800167	0,5	-0,096750
16,808500	0,5	-0,128500
16,816833	0,5	-0,133550
16,825167	0,5	-0,143350
16,833500	0,5	-0,139550
16,841833	0,5	-0,143600
16,850167	0,5	-0,137700
16,858500	0,5	-0,120250
16,866833	0,5	-0,094700
16,875167	0,5	-0,042600
16,883500	0,5	0,009600
16,891833	0,5	0,084450
16,900167	0,5	0,152750
16,908500	0,5	0,204850
16,916833	0,5	0,221650
16,925167	0,5	0,226800
16,933500	0,5	0,218700
16,941833	0,5	0,219050
16,950167	0,5	0,206150
16,958500	0,5	0,229000
16,966833	0,5	0,265050
16,975167	0,5	0,328150
16,983500	0,5	0,402550
16,991833	0,5	0,471900
17,000167	0,5	0,545500
17,008500	0,5	0,620050
17,016833	0,5	0,719950
17,025167	0,5	0,780950
17,033500	0,5	0,848000
17,041833	0,5	0,923650
17,050167	0,5	0,961350
17,058500	0,5	1,010300
17,066833	0,5	1,034700
17,075167	0,5	1,056050
17,083500	0,5	1,092550
17,091833	0,5	1,108600
17,100167	0,5	1,127500
17,108500	0,5	1,148000
17,116833	0,5	1,180400
17,125167	0,5	1,206150
17,133500	0,5	1,263100
17,141833	0,5	1,305650
17,150167	0,5	1,331850
17,158500	0,5	1,355500
17,166833	0,5	1,345600
17,175167	0,5	1,275650
17,183500	0,5	1,239950
17,191833	0,5	1,177100
17,200167	0,5	1,120900
17,208500	0,5	1,098000
17,216833	0,5	1,111500
17,225167	0,5	1,237650
17,233500	0,5	1,450350
17,241833	0,5	1,763850
17,250167	0,5	2,150350
17,258500	0,5	2,599800
17,266833	0,5	3,041800
17,275167	0,5	3,457950
17,283500	0,5	3,758150
17,291833	0,5	3,906450
17,300167	0,5	3,849300
17,308500	0,5	3,609750
17,316833	0,5	3,211250
17,325167	0,5	2,730200
17,333500	0,5	2,258100
17,341833	0,5	1,835500
17,350167	0,5	1,477300
17,358500	0,5	1,196800
17,366833	0,5	0,979750
17,375167	0,5	0,846200
17,383500	0,5	0,741600
17,391833	0,5	0,661850
17,400167	0,5	0,612100
17,408500	0,5	0,566300
17,416833	0,5	0,532050
17,425167	0,5	0,508950
17,433500	0,5	0,487000
17,441833	0,5	0,447950
17,450167	0,5	0,417200
17,458500	0,5	0,373100
17,466833	0,5	0,335150
17,475167	0,5	0,307650
17,483500	0,5	0,312550
17,491833	0,5	0,315200
17,500167	0,5	0,326600
17,508500	0,5	0,324150
17,516833	0,5	0,318150
17,525167	0,5	0,329150
17,533500	0,5	0,306950
17,541833	0,5	0,258400
17,550167	0,5	0,194900
17,558500	0,5	0,123600
17,566833	0,5	0,040050
17,575167	0,5	-0,011800
17,583500	0,5	-0,069250
17,591833	0,5	-0,118200
17,600167	0,5	-0,159150
17,608500	0,5	-0,174700
17,616833	0,5	-0,219300
17,625167	0,5	-0,230800
17,633500	0,5	-0,259600
17,641833	0,5	-0,279350
17,650167	0,5	-0,317650
17,658500	0,5	-0,350950
17,666833	0,5	-0,357850
17,675167	0,5	-0,358900
17,683500	0,5	-0,359800
17,691833	0,5	-0,352050
17,700167	0,5	-0,337650
17,708500	0,5	-0,309200
17,716833	0,5	-0,252350
17,725167	0,5	-0,192600
17,733500	0,5	-0,134850
17,741833	0,5	-0,089150
17,750167	0,5	-0,037250
17,758500	0,5	-0,027050
17,766833	0,5	-0,038700
17,775167	0,5	-0,051200
17,783500	0,5	-0,097500
17,791833	0,5	-0,147450
17,800167	0,5	-0,204700
17,808500	0,5	-0,257800
17,816833	0,5	-0,277500
17,825167	0,5	-0,286950
17,833500	0,5	-0,307150
17,841833	0,5	-0,321750
17,850167	0,5	-0,340750
17,858500	0,5	-0,358150
17,866833	0,5	-0,368300
17,875167	0,5	-0,380100
17,883500	0,5	-0,399500
17,891833	0,5	-0,395500
17,900167	0,5	-0,392850
17,908500	0,5	-0,388650
17,916833	0,5	-0,370250
17,925167	0,5	-0,317150
17,933500	0,5	-0,291200
17,941833	0,5	-0,245200
17,950167	0,5	-0,234000
17,958500	0,5	-0,222350
17,966833	0,5	-0,218400
17,975167	0,5	-0,234150
17,983500	0,5	-0,268050
17,991833	0,5	-0,309850
18,000167	0,5	-0,352200
18,008500	0,5	-0,389250
18,016833	0,5	-0,428450
18,025167	0,5	-0,454800
18,033500	0,5	-0,488100
18,041833	0,5	-0,496300
18,050167	0,5	-0,523800
18,058500	0,5	-0,550950
18,066833	0,5	-0,554650
18,075167	0,5	-0,571800
18,083500	0,5	-0,580100
18,091833	0,5	-0,606300
18,100167	0,5	-0,615050
18,108500	0,5	-0,596100
18,116833	0,5	-0,556050
18,125167	0,5	-0,523850
18,133500	0,5	-0,471200
18,141833	0,5	-0,427700
18,150167	0,5	-0,397700
18,158500	0,5	-0,385950
18,166833	0,5	-0,384850
18,175167	0,5	-0,396200
18,183500	0,5	-0,423450
18,191833	0,5	-0,434200
18,200167	0,5	-0,473500
18,208500	0,5	-0,484450
18,216833	0,5	-0,512150
18,225167	0,5	-0,546750
18,233500	0,5	-0,597800
18,241833	0,5	-0,651200
18,250167	0,5	-0,701200
18,258500	0,5	-0,716100
18,266833	0,5	-0,734500
18,275167	0,5	-0,750050
18,283500	0,5	-0,749150
18,291833	0,5	-0,733750
18,300167	0,5	-0,718450
18,308500	0,5	-0,700000
18,316833	0,5	-0,687100
18,325167	0,5	-0,693900
18,333500	0,5	-0,694600
18,341833	0,5	-0,703550
18,350167	0,5	-0,749700
18,358500	0,5	-0,762850
18,366833	0,5	-0,776950
18,375167	0,5	-0,781550
18,383500	0,5	-0,780100
18,391833	0,5	-0,796200
18,400167	0,5	-0,740550
18,408500	0,5	-0,708950
18,416833	0,5	-0,669400
18,425167	0,5	-0,646050
18,433500	0,5	-0,638450
18,441833	0,5	-0,652550
18,450167	0,5	-0,668150
18,458500	0,5	-0,700150
18,466833	0,5	-0,723500
18,475167	0,5	-0,747250
18,483500	0,5	-0,776300
18,491833	0,5	-0,790700
18,500167	0,5	-0,821850
18,508500	0,5	-0,834650
18,516833	0,5	-0,863400
18,525167	0,5	-0,899050
18,533500	0,5	-0,946900
18,541833	0,5	-0,994200
18,550167	0,5	-1,007550
18,558500	0,5	-1,009700
18,566833	0,5	-1,025300
18,575167	0,5	-1,021200
18,583500	0,5	-1,034400
18,591833	0,5	-1,040300
18,600167	0,5	-1,050700
18,608500	0,5	-1,048800
18,616833	0,5	-1,038700
18,625167	0,5	-1,026100
18,633500	0,5	-0,992200
18,641833	0,5	-0,981450
18,650167	0,5	-0,975600
18,658500	0,5	-0,962850
18,666833	0,5	-0,971350
18,675167	0,5	-1,007900
18,683500	0,5	-1,039800
18,691833	0,5	-1,050500
18,700167	0,5	-1,041100
18,708500	0,5	-1,032800
18,716833	0,5	-1,036500
18,725167	0,5	-1,021200
18,733500	0,5	-1,008850
18,741833	0,5	-1,011900
18,750167	0,5	-0,972900
18,758500	0,5	-0,943050
18,766833	0,5	-0,915200
18,775167	0,5	-0,892850
18,783500	0,5	-0,872150
18,791833	0,5	-0,889150
18,800167	0,5	-0,876100
18,808500	0,5	-0,886100
18,816833	0,5	-0,905450
18,825167	0,5	-0,936400
18,833500	0,5	-0,971950
18,841833	0,5	-0,980000
18,850167	0,5	-0,985500
18,858500	0,5	-0,964050
18,866833	0,5	-0,961050
18,875167	0,5	-0,948850
18,883500	0,5	-0,934900
18,891833	0,5	-0,933550
18,900167	0,5	-0,930400
18,908500	0,5	-0,935450
18,916833	0,5	-0,968350
18,925167	0,5	-0,976300
18,933500	0,5	-1,012650
18,941833	0,5	-1,039250
18,950167	0,5	-1,054250
18,958500	0,5	-1,079300
18,966833	0,5	-1,095550
18,975167	0,5	-1,125400
18,983500	0,5	-1,159500
18,991833	0,5	-1,154850
19,000167	0,5	-1,151750
19,008500	0,5	-1,142650
19,016833	0,5	-1,139550
19,025167	0,5	-1,146550
19,033500	0,5	-1,158050
19,041833	0,5	-1,174000
19,050167	0,5	-1,176600
19,058500	0,5	-1,198850
19,066833	0,5	-1,205200
19,075167	0,5	-1,216700
19,083500	0,5	-1,239100
19,091833	0,5	-1,236850
19,100167	0,5	-1,233850
19,108500	0,5	-1,242050
19,116833	0,5	-1,255550
19,125167	0,5	-1,283300
19,133500	0,5	-1,306350
19,141833	0,5	-1,313150
19,150167	0,5	-1,326100
19,158500	0,5	-1,346700
19,166833	0,5	-1,359600
19,175167	0,5	-1,374900
19,183500	0,5	-1,381700
19,191833	0,5	-1,396650
19,200167	0,5	-1,403300
19,208500	0,5	-1,407100
19,216833	0,5	-1,404200
19,225167	0,5	-1,402650
19,233500	0,5	-1,433850
19,241833	0,5	-1,433600
19,250167	0,5	-1,442000
19,258500	0,5	-1,453200
19,266833	0,5	-1,492100
19,275167	0,5	-1,513450
19,283500	0,5	-1,508450
19,291833	0,5	-1,501550
19,300167	0,5	-1,505650
19,308500	0,5	-1,506850
19,316833	0,5	-1,513000
19,325167	0,5	-1,523700
19,333500	0,5	-1,535600
19,341833	0,5	-1,544900
19,350167	0,5	-1,551300
19,358500	0,5	-1,559400
19,366833	0,5	-1,563400
19,375167	0,5	-1,594300
19,383500	0,5	-1,586800
19,391833	0,5	-1,584750
19,400167	0,5	-1,586500
19,408500	0,5	-1,593950
19,416833	0,5	-1,611700
19,425167	0,5	-1,614000
19,433500	0,5	-1,607800
19,441833	0,5	-1,616600
19,450167	0,5	-1,629850
19,458500	0,5	-1,644100
19,466833	0,5	-1,639350
19,475167	0,5	-1,656550
19,483500	0,5	-1,663700
19,491833	0,5	-1,664050
19,500167	0,5	-1,683100
19,508500	0,5	-1,690500
19,516833	0,5	-1,701550
19,525167	0,5	-1,734650
19,533500	0,5	-1,726300
19,541833	0,5	-1,724950
19,550167	0,5	-1,731600
19,558500	0,5	-1,762700
19,566833	0,5	-1,801700
19,575167	0,5	-1,800700
19,583500	0,5	-1,809150
19,591833	0,5	-1,811350
19,600167	0,5	-1,819900
19,608500	0,5	-1,819600
19,616833	0,5	-1,825950
19,625167	0,5	-1,835200
19,633500	0,5	-1,834050
19,641833	0,5	-1,840550
19,650167	0,5	-1,844950
19,658500	0,5	-1,854750
19,666833	0,5	-1,844700
19,675167	0,5	-1,860350
19,683500	0,5	-1,855100
19,691833	0,5	-1,870750
19,700167	0,5	-1,875350
19,708500	0,5	-1,914700
19,716833	0,5	-1,942750
19,725167	0,5	-1,958400
19,733500	0,5	-1,955550
19,741833	0,5	-1,989150
19,750167	0,5	-1,992000
19,758500	0,5	-2,011800
19,766833	0,5	-2,025800
19,775167	0,5	-2,046450
19,783500	0,5	-2,054700
19,791833	0,5	-2,077300
19,800167	0,5	-2,090900
19,808500	0,5	-2,085600
19,816833	0,5	-2,114100
19,825167	0,5	-2,120350
19,833500	0,5	-2,126600
19,841833	0,5	-2,134450
19,850167	0,5	-2,158500
19,858500	0,5	-2,186900
19,866833	0,5	-2,198200
19,875167	0,5	-2,195800
19,883500	0,5	-2,206250
19,891833	0,5	-2,210850
19,900167	0,5	-2,218100
19,908500	0,5	-2,221000
19,916833	0,5	-2,226800
19,925167	0,5	-2,216350
19,933500	0,5	-2,232550
19,941833	0,5	-2,236200
19,950167	0,5	-2,241550
19,958500	0,5	-2,244250
19,966833	0,5	-2,260850
19,975167	0,5	-2,267300
19,983500	0,5	-2,277250
19,991833	0,5	-2,296950
20,000167	0,5	-2,331550
20,008500	0,5	-2,378800
20,016833	0,5	-2,389450
20,025167	0,5	-2,407550
20,033500	0,5	-2,410000
20,041833	0,5	-2,439850
20,050167	0,5	-2,445200
20,058500	0,5	-2,465100
20,066833	0,5	-2,475050
20,075167	0,5	-2,488900
20,083500	0,5	-2,501950
20,091833	0,5	-2,510350
20,100167	0,5	-2,521200
20,108500	0,5	-2,540350
20,116833	0,5	-2,548250
20,125167	0,5	-2,552100
20,133500	0,5	-2,568100
20,141833	0,5	-2,576400
20,150167	0,5	-2,607400
20,158500	0,5	-2,611850
20,166833	0,5	-2,618150
20,175167	0,5	-2,612350
20,183500	0,5	-2,608450
20,191833	0,5	-2,600250
20,200167	0,5	-2,608650
20,208500	0,5	-2,606050
20,216833	0,5	-2,620700
20,225167	0,5	-2,623600
20,233500	0,5	-2,644500
20,241833	0,5	-2,654900
20,250167	0,5	-2,665550
20,258500	0,5	-2,696000
20,266833	0,5	-2,692450
20,275167	0,5	-2,694700
20,283500	0,5	-2,713850
20,291833	0,5	-2,730850
20,300167	0,5	-2,771800
20,308500	0,5	-2,786750
20,316833	0,5	-2,794400
20,325167	0,5	-2,814500
20,333500	0,5	-2,836250
20,341833	0,5	-2,847250
20,350167	0,5	-2,873450
20,358500	0,5	-2,901250
20,366833	0,5	-2,915300
20,375167	0,5	-2,945200
20,383500	0,5	-2,968200
20,391833	0,5	-2,958450
20,400167	0,5	-2,981500
20,408500	0,5	-3,015900
20,416833	0,5	-3,042350
20,425167	0,5	-3,070800
20,433500	0,5	-3,092800
20,441833	0,5	-3,139900
20,450167	0,5	-3,170450
20,458500	0,5	-3,167550
20,466833	0,5	-3,194600
20,475167	0,5	-3,215100
20,483500	0,5	-3,237150
20,491833	0,5	-3,251000
20,500167	0,5	-3,274000
20,508500	0,5	-3,268600
20,516833	0,5	-3,272150
20,525167	0,5	-3,262650
20,533500	0,5	-3,242300
20,541833	0,5	-3,217450
20,550167	0,5	-3,248250
20,558500	0,5	-3,265250
20,566833	0,5	-3,331050
20,575167	0,5	-3,379450
20,583500	0,5	-3,439850
20,591833	0,5	-3,535250
20,600167	0,5	-3,568700
20,608500	0,5	-3,607300
20,616833	0,5	-3,643550
20,625167	0,5	-3,685750
20,633500	0,5	-3,714200
20,641833	0,5	-3,749600
20,650167	0,5	-3,779650
20,658500	0,5	-3,818600
20,666833	0,5	-3,840650
20,675167	0,5	-3,868500
20,683500	0,5	-3,846450
20,691833	0,5	-3,828300
20,700167	0,5	-3,822950
20,708500	0,5	-3,785400
20,716833	0,5	-3,767700
20,725167	0,5	-3,767300
20,733500	0,5	-3,829550
20,741833	0,5	-3,904050
20,750167	0,5	-3,976750
20,758500	0,5	-4,046350
20,766833	0,5	-4,133400
20,775167	0,5	-4,188700
20,783500	0,5	-4,260900
20,791833	0,5	-4,317450
20,800167	0,5	-4,386900
20,808500	0,5	-4,431400
20,816833	0,5	-4,483200
20,825167	0,5	-4,513250
20,833500	0,5	-4,536150
20,841833	0,5	-4,583250
20,850167	0,5	-4,629900
20,858500	0,5	-4,658750
20,866833	0,5	-4,700550
20,875167	0,5	-4,746000
20,883500	0,5	-4,792900
20,891833	0,5	-4,837600
20,900167	0,5	-4,855500
20,908500	0,5	-4,895300
20,916833	0,5	-4,945900
20,925167	0,5	-4,995300
20,933500	0,5	-5,039800
20,941833	0,5	-5,096400
20,950167	0,5	-5,129450
20,958500	0,5	-5,179200
20,966833	0,5	-5,215850
20,975167	0,5	-5,224950
20,983500	0,5	-5,244100
20,991833	0,5	-5,289900
21,000167	0,5	-5,324000
21,008500	0,5	-5,363500
21,016833	0,5	-5,403100
21,025167	0,5	-5,464850
21,033500	0,5	-5,522500
21,041833	0,5	-5,553450
21,050167	0,5	-5,586500
21,058500	0,5	-5,616400
21,066833	0,5	-5,641150
21,075167	0,5	-5,668250
21,083500	0,5	-5,697800
21,091833	0,5	-5,731100
21,100167	0,5	-5,769350
21,108500	0,5	-5,809700
21,116833	0,5	-5,839300
21,125167	0,5	-5,834550
21,133500	0,5	-5,857550
21,141833	0,5	-5,892600
21,150167	0,5	-5,925450
21,158500	0,5	-5,972050
21,166833	0,5	-6,010250
21,175167	0,5	-6,064200
21,183500	0,5	-6,092450
21,191833	0,5	-6,114350
21,200167	0,5	-6,129550
21,208500	0,5	-6,155500
21,216833	0,5	-6,149000
21,225167	0,5	-6,179050
21,233500	0,5	-6,189200
21,241833	0,5	-6,216000
21,250167	0,5	-6,220100
21,258500	0,5	-6,256150
21,266833	0,5	-6,242900
21,275167	0,5	-6,229200
21,283500	0,5	-6,230300
21,291833	0,5	-6,248000
21,300167	0,5	-6,267450
21,308500	0,5	-6,306700
21,316833	0,5	-6,358700
21,325167	0,5	-6,405150
21,333500	0,5	-6,433800
21,341833	0,5	-6,457050
21,350167	0,5	-6,481600
21,358500	0,5	-6,510550
21,366833	0,5	-6,546500
21,375167	0,5	-6,573850
21,383500	0,5	-6,591650
21,391833	0,5	-6,595500
21,400167	0,5	-6,626450
21,408500	0,5	-6,641750
21,416833	0,5	-6,633750
21,425167	0,5	-6,622650
21,433500	0,5	-6,639350
21,441833	0,5	-6,665650
21,450167	0,5	-6,690850
21,458500	0,5	-6,723950
21,466833	0,5	-6,783400
21,475167	0,5	-6,807600
21,483500	0,5	-6,807600
21,491833	0,5	-6,834650
21,500167	0,5	-6,853800
21,508500	0,5	-6,873600
21,516833	0,5	-6,894750
21,525167	0,5	-6,917000
21,533500	0,5	-6,915650
21,541833	0,5	-6,939950
21,550167	0,5	-6,960250
21,558500	0,5	-6,962000
21,566833	0,5	-6,943150
21,575167	0,5	-6,971800
21,583500	0,5	-6,982550
21,591833	0,5	-7,004750
21,600167	0,5	-7,020600
21,608500	0,5	-7,042900
21,616833	0,5	-7,079200
21,625167	0,5	-7,064200
21,633500	0,5	-7,057800
21,641833	0,5	-7,068550
21,650167	0,5	-7,062550
21,658500	0,5	-7,045150
21,666833	0,5	-7,037700
21,675167	0,5	-7,033400
21,683500	0,5	-7,062500
21,691833	0,5	-7,090000
21,700167	0,5	-7,123750
21,708500	0,5	-7,107850
21,716833	0,5	-7,107950
21,725167	0,5	-7,129750
21,733500	0,5	-7,136000
21,741833	0,5	-7,148400
21,750167	0,5	-7,177400
21,758500	0,5	-7,217600
21,766833	0,5	-7,243050
21,775167	0,5	-7,257600
21,783500	0,5	-7,262450
21,791833	0,5	-7,279750
21,800167	0,5	-7,269550
21,808500	0,5	-7,288750
21,816833	0,5	-7,277350
21,825167	0,5	-7,289450
21,833500	0,5	-7,273750
21,841833	0,5	-7,274100
21,850167	0,5	-7,253350
21,858500	0,5	-7,231600
21,866833	0,5	-7,242350
21,875167	0,5	-7,249700
21,883500	0,5	-7,266500
21,891833	0,5	-7,282250
21,900167	0,5	-7,312550
21,908500	0,5	-7,307850
21,916833	0,5	-7,279500
21,925167	0,5	-7,214200
21,933500	0,5	-7,156050
21,941833	0,5	-7,108400
21,950167	0,5	-7,103950
21,958500	0,5	-7,122200
21,966833	0,5	-7,182400
21,975167	0,5	-7,226800
21,983500	0,5	-7,290850
21,991833	0,5	-7,352950
22,000167	0,5	-7,395950
22,008500	0,5	-7,415650
22,016833	0,5	-7,475700
22,025167	0,5	-7,498900
22,033500	0,5	-7,544150
22,041833	0,5	-7,582650
22,050167	0,5	-7,630050
22,058500	0,5	-7,670950
22,066833	0,5	-7,693400
22,075167	0,5	-7,714100
22,083500	0,5	-7,726150
22,091833	0,5	-7,748450
22,100167	0,5	-7,765800
22,108500	0,5	-7,800550
22,116833	0,5	-7,804250
22,125167	0,5	-7,837300
22,133500	0,5	-7,852750
22,141833	0,5	-7,854950
22,150167	0,5	-7,882550
22,158500	0,5	-7,907550
22,166833	0,5	-7,922850
22,175167	0,5	-7,934650
22,183500	0,5	-7,945900
22,191833	0,5	-7,968250
22,200167	0,5	-8,005050
22,208500	0,5	-8,001050
22,216833	0,5	-8,005100
22,225167	0,5	-8,007600
22,233500	0,5	-8,025800
22,241833	0,5	-8,010600
22,250167	0,5	-8,017850
22,258500	0,5	-8,023250
22,266833	0,5	-8,014450
22,275167	0,5	-8,015550
22,283500	0,5	-8,029650
22,291833	0,5	-8,039500
22,300167	0,5	-8,051750
22,308500	0,5	-8,028500
22,316833	0,5	-8,003850
22,325167	0,5	-7,981850
22,333500	0,5	-7,973450
22,341833	0,5	-7,976200
22,350167	0,5	-7,918350
22,358500	0,5	-7,839700
22,366833	0,5	-7,705200
22,375167	0,5	-7,600300
22,383500	0,5	-7,546200
22,391833	0,5	-7,579850
22,400167	0,5	-7,646550
22,408500	0,5	-7,716100
22,416833	0,5	-7,773500
22,425167	0,5	-7,829200
22,433500	0,5	-7,873500
22,441833	0,5	-7,909450
22,450167	0,5	-7,921950
22,458500	0,5	-7,915400
22,466833	0,5	-7,917350
22,475167	0,5	-7,931350
22,483500	0,5	-7,939500
22,491833	0,5	-7,955450
22,500167	0,5	-7,943450
22,508500	0,5	-7,923850
22,516833	0,5	-7,917800
22,525167	0,5	-7,902100
22,533500	0,5	-7,885450
22,541833	0,5	-7,863900
22,550167	0,5	-7,847050
22,558500	0,5	-7,809950
22,566833	0,5	-7,796900
22,575167	0,5	-7,767650
22,583500	0,5	-7,796950
22,591833	0,5	-7,793900
22,600167	0,5	-7,769050
22,608500	0,5	-7,746800
22,616833	0,5	-7,748300
22,625167	0,5	-7,740950
22,633500	0,5	-7,761600
22,641833	0,5	-7,748400
22,650167	0,5	-7,729400
22,658500	0,5	-7,722100
22,666833	0,5	-7,719600
22,675167	0,5	-7,725250
22,683500	0,5	-7,713200
22,691833	0,5	-7,720650
22,700167	0,5	-7,704750
22,708500	0,5	-7,702700
22,716833	0,5	-7,704300
22,725167	0,5	-7,737100
22,733500	0,5	-7,774850
22,741833	0,5	-7,757450
22,750167	0,5	-7,732950
22,758500	0,5	-7,743750
22,766833	0,5	-7,736050
22,775167	0,5	-7,769150
22,783500	0,5	-7,800400
22,791833	0,5	-7,799100
22,800167	0,5	-7,807850
22,808500	0,5	-7,829900
22,816833	0,5	-7,855250
22,825167	0,5	-7,874700
22,833500	0,5	-7,901900
22,841833	0,5	-7,920300
22,850167	0,5	-7,952400
22,858500	0,5	-7,975400
22,866833	0,5	-8,004400
22,875167	0,5	-8,125800
22,883500	0,5	-8,146600
22,891833	0,5	-8,150150
22,900167	0,5	-8,170700
22,908500	0,5	-8,214600
22,916833	0,5	-8,253200
22,925167	0,5	-8,288800
22,933500	0,5	-8,320550
22,941833	0,5	-8,360300
22,950167	0,5	-8,396150
22,958500	0,5	-8,408950
22,966833	0,5	-8,437050
22,975167	0,5	-8,451250
22,983500	0,5	-8,470500
22,991833	0,5	-8,460950
23,000167	0,5	-8,468700
23,008500	0,5	-8,455100
23,016833	0,5	-8,417700
23,025167	0,5	-8,440350
23,033500	0,5	-8,404950
23,041833	0,5	-8,402700
23,050167	0,5	-8,415650
23,058500	0,5	-8,395350
23,066833	0,5	-8,366850
23,075167	0,5	-8,322450
23,083500	0,5	-8,305450
23,091833	0,5	-8,286950
23,100167	0,5	-8,236600
23,108500	0,5	-8,195000
23,116833	0,5	-8,135150
23,125167	0,5	-8,071200
23,133500	0,5	-7,997800
23,141833	0,5	-7,933600
23,150167	0,5	-7,853850
23,158500	0,5	-7,775450
23,166833	0,5	-7,648300
23,175167	0,5	-7,575000
23,183500	0,5	-7,502100
23,191833	0,5	-7,468800
23,200167	0,5	-7,395700
23,208500	0,5	-7,309150
23,216833	0,5	-7,217450
23,225167	0,5	-7,138300
23,233500	0,5	-7,057800
23,241833	0,5	-6,992600
23,250167	0,5	-6,905300
23,258500	0,5	-6,825500
23,266833	0,5	-6,746100
23,275167	0,5	-6,643550
23,283500	0,5	-6,556200
23,291833	0,5	-6,450950
23,300167	0,5	-6,362900
23,308500	0,5	-6,241150
23,316833	0,5	-6,156900
23,325167	0,5	-6,052500
23,333500	0,5	-5,933350
23,341833	0,5	-5,883200
23,350167	0,5	-5,816200
23,358500	0,5	-5,733650
23,366833	0,5	-5,630900
23,375167	0,5	-5,566650
23,383500	0,5	-5,500450
23,391833	0,5	-5,428700
23,400167	0,5	-5,351050
23,408500	0,5	-5,274650
23,416833	0,5	-5,200800
23,425167	0,5	-5,129600
23,433500	0,5	-5,049000
23,441833	0,5	-4,968700
23,450167	0,5	-4,889250
23,458500	0,5	-4,808000
23,466833	0,5	-4,785400
23,475167	0,5	-4,671100
23,483500	0,5	-4,578150
23,491833	0,5	-4,524250
23,500167	0,5	-4,460450
23,508500	0,5	-4,412150
23,516833	0,5	-4,337200
23,525167	0,5	-4,287700
23,533500	0,5	-4,241150
23,541833	0,5	-4,196450
23,550167	0,5	-4,150350
23,558500	0,5	-4,108850
23,566833	0,5	-4,052200
23,575167	0,5	-4,008250
23,583500	0,5	-3,959550
23,591833	0,5	-3,909300
23,600167	0,5	-3,868550
23,608500	0,5	-3,929150
23,616833	0,5	-3,864050
23,625167	0,5	-3,791000
23,633500	0,5	-3,705400
23,641833	0,5	-3,663500
23,650167	0,5	-3,626350
23,658500	0,5	-3,585900
23,666833	0,5	-3,558300
23,675167	0,5	-3,529350
23,683500	0,5	-3,499600
23,691833	0,5	-3,468900
23,700167	0,5	-3,441200
23,708500	0,5	-3,410400
23,716833	0,5	-3,377150
23,725167	0,5	-3,343450
23,733500	0,5	-3,311200
23,741833	0,5	-3,276250
23,750167	0,5	-3,288700
23,758500	0,5	-3,391400
23,766833	0,5	-3,350500
23,775167	0,5	-3,265200
23,783500	0,5	-3,212350
23,791833	0,5	-3,174000
23,800167	0,5	-3,149750
23,808500	0,5	-3,128750
23,816833	0,5	-3,120200
23,825167	0,5	-3,090550
23,833500	0,5	-3,067700
23,841833	0,5	-3,046450
23,850167	0,5	-3,020300
23,858500	0,5	-2,999000
23,866833	0,5	-2,975300
23,875167	0,5	-2,945000
23,883500	0,5	-2,910500
23,891833	0,5	-2,878050
23,900167	0,5	-2,997900
23,908500	0,5	-2,990300
23,916833	0,5	-2,955100
23,925167	0,5	-2,867300
23,933500	0,5	-2,809550
23,941833	0,5	-2,773100
23,950167	0,5	-2,746800
23,958500	0,5	-2,750150
23,966833	0,5	-2,718400
23,975167	0,5	-2,692350
23,983500	0,5	-2,669300
23,991833	0,5	-2,642150
24,000167	0,5	-2,618750
24,008500	0,5	-2,595700
24,016833	0,5	-2,570900
24,025167	0,5	-2,543650
24,033500	0,5	-2,512400
24,041833	0,5	-2,501200
24,050167	0,5	-2,673350
24,058500	0,5	-2,635400
24,066833	0,5	-2,575550
24,075167	0,5	-2,498950
24,083500	0,5	-2,447700
24,091833	0,5	-2,410600
24,100167	0,5	-2,390450
24,108500	0,5	-2,378950
24,116833	0,5	-2,350600
24,125167	0,5	-2,317600
24,133500	0,5	-2,286650
24,141833	0,5	-2,252100
24,150167	0,5	-2,217350
24,158500	0,5	-2,189000
24,166833	0,5	-2,167850
24,175167	0,5	-2,130700
24,183500	0,5	-2,103100
24,191833	0,5	-2,127000
24,200167	0,5	-2,223300
24,208500	0,5	-2,177600
24,216833	0,5	-2,121250
24,225167	0,5	-2,057600
24,233500	0,5	-2,025450
24,241833	0,5	-2,002550
24,250167	0,5	-1,996750
24,258500	0,5	-1,985450
24,266833	0,5	-1,961450
24,275167	0,5	-1,938000
24,283500	0,5	-1,906900
24,291833	0,5	-1,880250
24,300167	0,5	-1,856400
24,308500	0,5	-1,829350
24,316833	0,5	-1,795300
24,325167	0,5	-1,767100
24,333500	0,5	-1,737200
24,341833	0,5	-1,824250
24,350167	0,5	-1,815100
24,358500	0,5	-1,785250
24,366833	0,5	-1,728250
24,375167	0,5	-1,684900
24,383500	0,5	-1,654750
24,391833	0,5	-1,636800
24,400167	0,5	-1,629200
24,408500	0,5	-1,613400
24,416833	0,5	-1,588000
24,425167	0,5	-1,570150
24,433500	0,5	-1,549300
24,441833	0,5	-1,529450
24,450167	0,5	-1,510400
24,458500	0,5	-1,490800
24,466833	0,5	-1,469950
24,475167	0,5	-1,448750
24,483500	0,5	-1,454050
24,491833	0,5	-1,525250
24,500167	0,5	-1,508400
24,508500	0,5	-1,467650
24,516833	0,5	-1,427950
24,525167	0,5	-1,389950
24,533500	0,5	-1,381150
24,541833	0,5	-1,366250
24,550167	0,5	-1,356550
24,558500	0,5	-1,333600
24,566833	0,5	-1,317100
24,575167	0,5	-1,299400
24,583500	0,5	-1,283450
24,591833	0,5	-1,263950
24,600167	0,5	-1,249500
24,608500	0,5	-1,226200
24,616833	0,5	-1,202600
24,625167	0,5	-1,188850
24,633500	0,5	-1,206200
24,641833	0,5	-1,240450
24,650167	0,5	-1,224950
24,658500	0,5	-1,192700
24,666833	0,5	-1,167850
24,675167	0,5	-1,146750
24,683500	0,5	-1,141700
24,691833	0,5	-1,144550
24,700167	0,5	-1,134550
24,708500	0,5	-1,118450
24,716833	0,5	-1,105200
24,725167	0,5	-1,099800
24,733500	0,5	-1,082900
24,741833	0,5	-1,079450
24,750167	0,5	-1,061800
24,758500	0,5	-1,045500
24,766833	0,5	-1,030900
24,775167	0,5	-1,018500
24,783500	0,5	-1,070700
24,791833	0,5	-1,046900
24,800167	0,5	-1,037050
24,808500	0,5	-1,007700
24,816833	0,5	-0,984550
24,825167	0,5	-0,970250
24,833500	0,5	-0,962900
24,841833	0,5	-0,962800
24,850167	0,5	-0,957500
24,858500	0,5	-0,938600
24,866833	0,5	-0,937250
24,875167	0,5	-0,929550
24,883500	0,5	-0,928950
24,891833	0,5	-0,921150
24,900167	0,5	-0,922000
24,908500	0,5	-0,909800
24,916833	0,5	-0,903900
24,925167	0,5	-0,899850
24,933500	0,5	-0,926400
24,941833	0,5	-0,908450
24,950167	0,5	-0,899900
24,958500	0,5	-0,878400
24,966833	0,5	-0,867800
24,975167	0,5	-0,860550
24,983500	0,5	-0,853600
24,991833	0,5	-0,855800
25,000167	0,5	-0,842000
25,008500	0,5	-0,835700
25,016833	0,5	-0,829200
25,025167	0,5	-0,823800
25,033500	0,5	-0,812600
25,041833	0,5	-0,809850
25,050167	0,5	-0,803250
25,058500	0,5	-0,799100
25,066833	0,5	-0,791100
25,075167	0,5	-0,803850
25,083500	0,5	-0,806650
25,091833	0,5	-0,796600
25,100167	0,5	-0,799800
25,108500	0,5	-0,787550
25,116833	0,5	-0,787350
25,125167	0,5	-0,780450
25,133500	0,5	-0,782250
25,141833	0,5	-0,781650
25,150167	0,5	-0,775300
25,158500	0,5	-0,773150
25,166833	0,5	-0,766000
25,175167	0,5	-0,764900
25,183500	0,5	-0,753700
25,191833	0,5	-0,750850
25,200167	0,5	-0,741500
25,208500	0,5	-0,731900
25,216833	0,5	-0,728200
25,225167	0,5	-0,735450
25,233500	0,5	-0,728300
25,241833	0,5	-0,721000
25,250167	0,5	-0,718100
25,258500	0,5	-0,716350
25,266833	0,5	-0,712850
25,275167	0,5	-0,712600
25,283500	0,5	-0,714750
25,291833	0,5	-0,715500
25,300167	0,5	-0,711500
25,308500	0,5	-0,719000
25,316833	0,5	-0,715450
25,325167	0,5	-0,715700
25,333500	0,5	-0,711650
25,341833	0,5	-0,711700
25,350167	0,5	-0,705050
25,358500	0,5	-0,704600
25,366833	0,5	-0,698650
25,375167	0,5	-0,691350
25,383500	0,5	-0,685650
25,391833	0,5	-0,677100
25,400167	0,5	-0,677650
25,408500	0,5	-0,677950
25,416833	0,5	-0,672650
25,425167	0,5	-0,674600
25,433500	0,5	-0,670900
25,441833	0,5	-0,665750
25,450167	0,5	-0,669950
25,458500	0,5	-0,666600
25,466833	0,5	-0,667500
25,475167	0,5	-0,668000
25,483500	0,5	-0,664800
25,491833	0,5	-0,670050
25,500167	0,5	-0,671400
25,508500	0,5	-0,671800
25,516833	0,5	-0,670850
25,525167	0,5	-0,658700
25,533500	0,5	-0,657100
25,541833	0,5	-0,654600
25,550167	0,5	-0,659350
25,558500	0,5	-0,658800
25,566833	0,5	-0,657500
25,575167	0,5	-0,655200
25,583500	0,5	-0,647300
25,591833	0,5	-0,643250
25,600167	0,5	-0,645250
25,608500	0,5	-0,643300
25,616833	0,5	-0,641900
25,625167	0,5	-0,645750
25,633500	0,5	-0,641150
25,641833	0,5	-0,646100
25,650167	0,5	-0,644400
25,658500	0,5	-0,643700
25,666833	0,5	-0,635500
25,675167	0,5	-0,635450
25,683500	0,5	-0,629950
25,691833	0,5	-0,637950
25,700167	0,5	-0,643200
25,708500	0,5	-0,642350
25,716833	0,5	-0,643500
25,725167	0,5	-0,630950
25,733500	0,5	-0,636000
25,741833	0,5	-0,637600
25,750167	0,5	-0,635750
25,758500	0,5	-0,633300
25,766833	0,5	-0,633350
25,775167	0,5	-0,633800
25,783500	0,5	-0,631050
25,791833	0,5	-0,629700
25,800167	0,5	-0,632400
25,808500	0,5	-0,626700
25,816833	0,5	-0,617350
25,825167	0,5	-0,611500
25,833500	0,5	-0,605350
25,841833	0,5	-0,617750
25,850167	0,5	-0,619650
25,858500	0,5	-0,621400
25,866833	0,5	-0,614350
25,875167	0,5	-0,604700
25,883500	0,5	-0,607000
25,891833	0,5	-0,614550
25,900167	0,5	-0,609650
25,908500	0,5	-0,611400
25,916833	0,5	-0,609150
25,925167	0,5	-0,609900
25,933500	0,5	-0,608300
25,941833	0,5	-0,606650
25,950167	0,5	-0,598800
25,958500	0,5	-0,591200
25,966833	0,5	-0,582200
25,975167	0,5	-0,578150
25,983500	0,5	-0,575650
25,991833	0,5	-0,581950
26,000167	0,5	-0,576200
