File Path	chrom://chromeleon01/ikbm_chromeleon/2022/ICS-5000/ED1/Esteban/20220427_Cell_Amandas_mutants.seq/799.smp/ED_1.channel/ED_1.chm
Channel	ED_1

Injection Information:
Data Vault	ikbm_chromeleon
Injection	EG_PASC_3b
Injection Number	57
Position	GB1
Comment	
Processing Method	Stop sequence after Cell Death
Instrument Method	ICS5000_PA200_FullNative_Ox_26min_ED1
Type	Unknown
Status	Finished
Injection Date	28.04.2022
Injection Time	15:42:26
Injection Volume (µl)	5,0
Dilution Factor	1,0000
Weight	1,0000

Chromatogram Data Information:
Time Min. (min)	0,000167
Time Max. (min)	26,000167
Data Points	3121
Detector	EDet1
Generating Data System	Chromeleon 7.2.9.11323
Exporting Data System	Chromeleon 7.2.9.0
Operator	Instrument Controller
Signal Quantity	
Signal Unit	nC
Signal Min.	-8,338200
Signal Max.	2 760,675691
Channel	ED_1
Driver Name	DC-5000
Channel Type	Evaluation
Min. Step (s)	0,5
Max. Step (s)	0,5
Average Step (s)	0,5

Signal Parameter Information:
Signal Info	

Chromatogram Data:
Time (min)	Step (s)	Value (nC)
0,000167	n.a.	-0,032950
0,008500	0,5	-0,084850
0,016833	0,5	-0,089500
0,025167	0,5	-0,064500
0,033500	0,5	-0,065700
0,041833	0,5	-0,075000
0,050167	0,5	-0,056100
0,058500	0,5	-0,018800
0,066833	0,5	0,037200
0,075167	0,5	0,031400
0,083500	0,5	0,033400
0,091833	0,5	0,026000
0,100167	0,5	0,031050
0,108500	0,5	0,009300
0,116833	0,5	0,017100
0,125167	0,5	0,011450
0,133500	0,5	0,007600
0,141833	0,5	0,010150
0,150167	0,5	0,004750
0,158500	0,5	0,002150
0,166833	0,5	0,011300
0,175167	0,5	0,017200
0,183500	0,5	-0,008650
0,191833	0,5	-0,011400
0,200167	0,5	-0,011950
0,208500	0,5	0,022150
0,216833	0,5	0,042750
0,225167	0,5	0,052400
0,233500	0,5	0,026800
0,241833	0,5	0,033300
0,250167	0,5	0,022400
0,258500	0,5	0,032700
0,266833	0,5	0,032450
0,275167	0,5	0,028850
0,283500	0,5	0,010800
0,291833	0,5	0,017850
0,300167	0,5	0,041150
0,308500	0,5	0,098550
0,316833	0,5	0,096950
0,325167	0,5	0,030000
0,333500	0,5	-0,018750
0,341833	0,5	-0,018600
0,350167	0,5	-0,024700
0,358500	0,5	0,020100
0,366833	0,5	0,047450
0,375167	0,5	0,037150
0,383500	0,5	0,030950
0,391833	0,5	0,029650
0,400167	0,5	0,024700
0,408500	0,5	0,011300
0,416833	0,5	0,014300
0,425167	0,5	-0,001200
0,433500	0,5	0,002500
0,441833	0,5	-0,005600
0,450167	0,5	-0,006550
0,458500	0,5	-0,021100
0,466833	0,5	0,031100
0,475167	0,5	-0,004250
0,483500	0,5	-0,021250
0,491833	0,5	-0,020150
0,500167	0,5	-0,002500
0,508500	0,5	0,037400
0,516833	0,5	0,027800
0,525167	0,5	0,014900
0,533500	0,5	0,021100
0,541833	0,5	0,018350
0,550167	0,5	0,023850
0,558500	0,5	0,024550
0,566833	0,5	0,028500
0,575167	0,5	0,023400
0,583500	0,5	0,011600
0,591833	0,5	0,016950
0,600167	0,5	-0,014550
0,608500	0,5	-0,015450
0,616833	0,5	0,012700
0,625167	0,5	-0,004000
0,633500	0,5	-0,016200
0,641833	0,5	0,002700
0,650167	0,5	0,017500
0,658500	0,5	0,063400
0,666833	0,5	0,051050
0,675167	0,5	0,049500
0,683500	0,5	0,042800
0,691833	0,5	0,051800
0,700167	0,5	0,042600
0,708500	0,5	0,045550
0,716833	0,5	0,041850
0,725167	0,5	0,029300
0,733500	0,5	0,044400
0,741833	0,5	0,033000
0,750167	0,5	0,022550
0,758500	0,5	0,038550
0,766833	0,5	0,058850
0,775167	0,5	0,030500
0,783500	0,5	0,029900
0,791833	0,5	0,040150
0,800167	0,5	0,074650
0,808500	0,5	0,096150
0,816833	0,5	0,085100
0,825167	0,5	0,071400
0,833500	0,5	0,090050
0,841833	0,5	0,078200
0,850167	0,5	0,085900
0,858500	0,5	0,087300
0,866833	0,5	0,092500
0,875167	0,5	0,091850
0,883500	0,5	0,089450
0,891833	0,5	0,113250
0,900167	0,5	0,086050
0,908500	0,5	0,113200
0,916833	0,5	0,105650
0,925167	0,5	0,097600
0,933500	0,5	0,093050
0,941833	0,5	0,117050
0,950167	0,5	0,145850
0,958500	0,5	0,161250
0,966833	0,5	0,139650
0,975167	0,5	0,155600
0,983500	0,5	0,156150
0,991833	0,5	0,157500
1,000167	0,5	0,152400
1,008500	0,5	0,164300
1,016833	0,5	0,148600
1,025167	0,5	0,161400
1,033500	0,5	0,162650
1,041833	0,5	0,158850
1,050167	0,5	0,149100
1,058500	0,5	0,187050
1,066833	0,5	0,160900
1,075167	0,5	0,163150
1,083500	0,5	0,164750
1,091833	0,5	0,191150
1,100167	0,5	0,239500
1,108500	0,5	0,227600
1,116833	0,5	0,228200
1,125167	0,5	0,227650
1,133500	0,5	0,232600
1,141833	0,5	0,223400
1,150167	0,5	0,233250
1,158500	0,5	0,230000
1,166833	0,5	0,238700
1,175167	0,5	0,239350
1,183500	0,5	0,249450
1,191833	0,5	0,244000
1,200167	0,5	0,258950
1,208500	0,5	0,263150
1,216833	0,5	0,247850
1,225167	0,5	0,256050
1,233500	0,5	0,266650
1,241833	0,5	0,294400
1,250167	0,5	0,321850
1,258500	0,5	0,334100
1,266833	0,5	0,335150
1,275167	0,5	0,335850
1,283500	0,5	0,331800
1,291833	0,5	0,340250
1,300167	0,5	0,342400
1,308500	0,5	0,349550
1,316833	0,5	0,343400
1,325167	0,5	0,354400
1,333500	0,5	0,362650
1,341833	0,5	0,370300
1,350167	0,5	0,390750
1,358500	0,5	0,395800
1,366833	0,5	0,379350
1,375167	0,5	0,396200
1,383500	0,5	0,401750
1,391833	0,5	0,445750
1,400167	0,5	0,468950
1,408500	0,5	0,472300
1,416833	0,5	0,477300
1,425167	0,5	0,488500
1,433500	0,5	0,483750
1,441833	0,5	0,488450
1,450167	0,5	0,503100
1,458500	0,5	0,504250
1,466833	0,5	0,518700
1,475167	0,5	0,521750
1,483500	0,5	0,523400
1,491833	0,5	0,523850
1,500167	0,5	0,570000
1,508500	0,5	0,557500
1,516833	0,5	0,552300
1,525167	0,5	0,563250
1,533500	0,5	0,587200
1,541833	0,5	0,631800
1,550167	0,5	0,639850
1,558500	0,5	0,641400
1,566833	0,5	0,666700
1,575167	0,5	0,632400
1,583500	0,5	0,369550
1,591833	0,5	-0,535350
1,600167	0,5	-1,436650
1,608500	0,5	-0,643950
1,616833	0,5	2,083150
1,625167	0,5	5,453500
1,633500	0,5	9,390150
1,641833	0,5	13,727050
1,650167	0,5	16,720100
1,658500	0,5	17,235600
1,666833	0,5	16,179000
1,675167	0,5	14,773950
1,683500	0,5	13,385050
1,691833	0,5	12,043250
1,700167	0,5	10,816750
1,708500	0,5	10,016350
1,716833	0,5	10,034050
1,725167	0,5	11,336550
1,733500	0,5	13,133400
1,741833	0,5	13,516350
1,750167	0,5	11,983300
1,758500	0,5	9,932800
1,766833	0,5	8,518600
1,775167	0,5	8,062050
1,783500	0,5	8,511550
1,791833	0,5	9,594550
1,800167	0,5	10,731250
1,808500	0,5	11,382300
1,816833	0,5	11,225250
1,825167	0,5	10,557350
1,833500	0,5	9,800400
1,841833	0,5	9,017600
1,850167	0,5	8,264800
1,858500	0,5	7,582100
1,866833	0,5	7,009800
1,875167	0,5	6,495900
1,883500	0,5	6,099200
1,891833	0,5	5,748350
1,900167	0,5	5,432400
1,908500	0,5	5,140550
1,916833	0,5	4,893000
1,925167	0,5	4,719400
1,933500	0,5	4,650600
1,941833	0,5	4,889800
1,950167	0,5	5,380700
1,958500	0,5	5,857550
1,966833	0,5	6,002050
1,975167	0,5	6,434200
1,983500	0,5	9,197950
1,991833	0,5	18,192500
2,000167	0,5	39,713051
2,008500	0,5	85,606601
2,016833	0,5	191,780803
2,025167	0,5	428,672606
2,033500	0,5	770,689861
2,041833	0,5	990,334815
2,050167	0,5	954,924414
2,058500	0,5	759,255661
2,066833	0,5	549,924358
2,075167	0,5	400,960956
2,083500	0,5	306,141055
2,091833	0,5	243,101804
2,100167	0,5	198,075753
2,108500	0,5	164,600252
2,116833	0,5	139,081452
2,125167	0,5	119,398802
2,133500	0,5	103,948752
2,141833	0,5	91,490601
2,150167	0,5	81,728151
2,158500	0,5	74,400751
2,166833	0,5	68,296251
2,175167	0,5	62,105151
2,183500	0,5	55,928801
2,191833	0,5	50,540251
2,200167	0,5	46,248401
2,208500	0,5	42,807601
2,216833	0,5	39,967251
2,225167	0,5	37,578251
2,233500	0,5	35,616251
2,241833	0,5	33,967001
2,250167	0,5	32,548300
2,258500	0,5	31,344750
2,266833	0,5	30,354050
2,275167	0,5	29,497150
2,283500	0,5	28,688250
2,291833	0,5	27,838050
2,300167	0,5	27,049700
2,308500	0,5	26,354650
2,316833	0,5	25,771500
2,325167	0,5	25,271300
2,333500	0,5	24,824350
2,341833	0,5	24,421000
2,350167	0,5	24,061500
2,358500	0,5	23,792700
2,366833	0,5	23,600650
2,375167	0,5	23,508400
2,383500	0,5	23,554350
2,391833	0,5	23,742000
2,400167	0,5	24,187950
2,408500	0,5	25,055800
2,416833	0,5	26,342250
2,425167	0,5	27,704450
2,433500	0,5	28,154300
2,441833	0,5	27,413100
2,450167	0,5	26,475550
2,458500	0,5	25,924300
2,466833	0,5	25,519900
2,475167	0,5	25,128050
2,483500	0,5	24,740750
2,491833	0,5	24,374200
2,500167	0,5	24,047700
2,508500	0,5	23,760150
2,516833	0,5	23,505350
2,525167	0,5	23,263450
2,533500	0,5	23,039150
2,541833	0,5	22,790100
2,550167	0,5	22,581900
2,558500	0,5	22,484500
2,566833	0,5	22,561250
2,575167	0,5	22,878900
2,583500	0,5	23,713350
2,591833	0,5	25,555250
2,600167	0,5	29,294250
2,608500	0,5	38,633751
2,616833	0,5	67,241751
2,625167	0,5	120,703902
2,633500	0,5	190,244653
2,641833	0,5	278,919754
2,650167	0,5	422,442056
2,658500	0,5	765,975361
2,666833	0,5	1 406,475871
2,675167	0,5	2 095,539181
2,683500	0,5	2 521,208588
2,691833	0,5	2 707,879790
2,700167	0,5	2 760,675691
2,708500	0,5	2 746,180291
2,716833	0,5	2 689,473990
2,725167	0,5	2 597,734989
2,733500	0,5	2 472,566387
2,741833	0,5	2 316,200135
2,750167	0,5	2 132,425132
2,758500	0,5	1 930,904229
2,766833	0,5	1 728,087576
2,775167	0,5	1 543,195073
2,783500	0,5	1 389,230521
2,791833	0,5	1 267,240269
2,800167	0,5	1 166,010317
2,808500	0,5	1 070,700166
2,816833	0,5	972,670364
2,825167	0,5	871,126313
2,833500	0,5	770,460561
2,841833	0,5	676,087310
2,850167	0,5	591,718809
2,858500	0,5	519,996808
2,866833	0,5	457,199507
2,875167	0,5	402,642656
2,883500	0,5	354,869505
2,891833	0,5	313,034505
2,900167	0,5	276,847154
2,908500	0,5	245,802454
2,916833	0,5	219,416503
2,925167	0,5	197,002303
2,933500	0,5	177,933253
2,941833	0,5	161,523202
2,950167	0,5	147,274252
2,958500	0,5	134,686402
2,966833	0,5	123,463302
2,975167	0,5	113,482952
2,983500	0,5	104,464352
2,991833	0,5	96,396451
3,000167	0,5	89,164401
3,008500	0,5	82,698251
3,016833	0,5	76,906701
3,025167	0,5	71,616201
3,033500	0,5	66,814251
3,041833	0,5	62,451651
3,050167	0,5	58,467701
3,058500	0,5	54,813951
3,066833	0,5	51,441101
3,075167	0,5	48,310201
3,083500	0,5	45,382951
3,091833	0,5	42,681351
3,100167	0,5	40,182351
3,108500	0,5	37,912001
3,116833	0,5	35,810151
3,125167	0,5	33,941251
3,133500	0,5	32,196600
3,141833	0,5	30,664100
3,150167	0,5	29,289450
3,158500	0,5	28,098650
3,166833	0,5	27,066900
3,175167	0,5	26,138200
3,183500	0,5	25,427400
3,191833	0,5	25,068850
3,200167	0,5	25,179050
3,208500	0,5	25,862700
3,216833	0,5	27,000150
3,225167	0,5	28,194550
3,233500	0,5	28,911750
3,241833	0,5	28,732200
3,250167	0,5	27,579550
3,258500	0,5	25,640650
3,266833	0,5	23,374000
3,275167	0,5	21,120250
3,283500	0,5	19,140300
3,291833	0,5	17,532700
3,300167	0,5	16,268600
3,308500	0,5	15,269250
3,316833	0,5	14,457000
3,325167	0,5	13,725500
3,333500	0,5	13,088950
3,341833	0,5	12,516000
3,350167	0,5	12,001600
3,358500	0,5	11,536700
3,366833	0,5	11,133550
3,375167	0,5	10,762900
3,383500	0,5	10,438700
3,391833	0,5	10,173050
3,400167	0,5	9,933550
3,408500	0,5	9,746900
3,416833	0,5	9,601700
3,425167	0,5	9,449700
3,433500	0,5	9,309050
3,441833	0,5	9,184000
3,450167	0,5	9,067100
3,458500	0,5	8,977800
3,466833	0,5	8,874000
3,475167	0,5	8,775650
3,483500	0,5	8,657750
3,491833	0,5	8,558100
3,500167	0,5	8,424700
3,508500	0,5	8,303900
3,516833	0,5	8,159100
3,525167	0,5	8,001450
3,533500	0,5	7,835850
3,541833	0,5	7,653400
3,550167	0,5	7,472250
3,558500	0,5	7,302850
3,566833	0,5	7,134450
3,575167	0,5	6,941250
3,583500	0,5	6,761400
3,591833	0,5	6,576900
3,600167	0,5	6,425150
3,608500	0,5	6,247550
3,616833	0,5	6,053800
3,625167	0,5	5,839450
3,633500	0,5	5,643850
3,641833	0,5	5,437400
3,650167	0,5	5,251700
3,658500	0,5	5,064700
3,666833	0,5	4,900250
3,675167	0,5	4,741350
3,683500	0,5	4,596450
3,691833	0,5	4,469900
3,700167	0,5	4,345450
3,708500	0,5	4,254750
3,716833	0,5	4,167000
3,725167	0,5	4,089950
3,733500	0,5	4,062550
3,741833	0,5	4,088250
3,750167	0,5	4,181350
3,758500	0,5	4,303150
3,766833	0,5	4,432050
3,775167	0,5	4,579300
3,783500	0,5	4,656400
3,791833	0,5	4,674400
3,800167	0,5	4,599750
3,808500	0,5	4,454300
3,816833	0,5	4,243150
3,825167	0,5	4,023900
3,833500	0,5	3,800050
3,841833	0,5	3,599000
3,850167	0,5	3,415200
3,858500	0,5	3,301300
3,866833	0,5	3,146450
3,875167	0,5	3,033500
3,883500	0,5	2,933600
3,891833	0,5	2,854750
3,900167	0,5	2,801650
3,908500	0,5	2,721050
3,916833	0,5	2,654150
3,925167	0,5	2,583550
3,933500	0,5	2,522750
3,941833	0,5	2,462250
3,950167	0,5	2,409950
3,958500	0,5	2,362150
3,966833	0,5	2,321300
3,975167	0,5	2,291050
3,983500	0,5	2,296550
3,991833	0,5	2,281350
4,000167	0,5	2,285750
4,008500	0,5	2,301000
4,016833	0,5	2,275250
4,025167	0,5	2,236650
4,033500	0,5	2,182900
4,041833	0,5	2,118900
4,050167	0,5	2,059700
4,058500	0,5	1,948050
4,066833	0,5	1,847500
4,075167	0,5	1,767950
4,083500	0,5	1,701550
4,091833	0,5	1,639550
4,100167	0,5	1,595900
4,108500	0,5	1,555850
4,116833	0,5	1,520900
4,125167	0,5	1,516800
4,133500	0,5	1,524600
4,141833	0,5	1,570600
4,150167	0,5	1,675200
4,158500	0,5	1,874400
4,166833	0,5	2,164250
4,175167	0,5	2,622650
4,183500	0,5	3,267000
4,191833	0,5	4,116800
4,200167	0,5	5,160150
4,208500	0,5	6,365900
4,216833	0,5	7,758100
4,225167	0,5	9,376100
4,233500	0,5	11,248600
4,241833	0,5	13,521900
4,250167	0,5	16,391650
4,258500	0,5	20,275850
4,266833	0,5	25,818400
4,275167	0,5	33,868601
4,283500	0,5	45,552851
4,291833	0,5	61,668601
4,300167	0,5	82,444551
4,308500	0,5	106,579352
4,316833	0,5	131,334452
4,325167	0,5	153,332302
4,333500	0,5	169,593853
4,341833	0,5	178,566503
4,350167	0,5	180,210003
4,358500	0,5	175,448253
4,366833	0,5	165,949802
4,375167	0,5	153,220502
4,383500	0,5	138,674152
4,391833	0,5	123,387752
4,400167	0,5	108,232702
4,408500	0,5	93,791001
4,416833	0,5	80,492451
4,425167	0,5	68,583351
4,433500	0,5	58,136851
4,441833	0,5	49,192351
4,450167	0,5	41,697451
4,458500	0,5	35,448701
4,466833	0,5	30,339900
4,475167	0,5	26,206150
4,483500	0,5	22,906600
4,491833	0,5	20,256300
4,500167	0,5	18,093400
4,508500	0,5	16,318450
4,516833	0,5	14,822350
4,525167	0,5	13,538700
4,533500	0,5	12,372100
4,541833	0,5	11,322600
4,550167	0,5	10,340450
4,558500	0,5	9,446800
4,566833	0,5	8,625650
4,575167	0,5	7,890800
4,583500	0,5	7,227450
4,591833	0,5	6,687600
4,600167	0,5	6,208750
4,608500	0,5	5,787800
4,616833	0,5	5,429950
4,625167	0,5	5,119250
4,633500	0,5	4,854400
4,641833	0,5	4,589450
4,650167	0,5	4,329950
4,658500	0,5	4,057300
4,666833	0,5	3,797850
4,675167	0,5	3,540700
4,683500	0,5	3,299450
4,691833	0,5	3,079250
4,700167	0,5	2,882250
4,708500	0,5	2,692250
4,716833	0,5	2,528450
4,725167	0,5	2,377400
4,733500	0,5	2,252000
4,741833	0,5	2,147300
4,750167	0,5	2,052450
4,758500	0,5	1,961500
4,766833	0,5	1,901050
4,775167	0,5	1,846300
4,783500	0,5	1,822350
4,791833	0,5	1,789800
4,800167	0,5	1,737450
4,808500	0,5	1,693300
4,816833	0,5	1,646850
4,825167	0,5	1,602900
4,833500	0,5	1,545650
4,841833	0,5	1,508600
4,850167	0,5	1,460950
4,858500	0,5	1,429900
4,866833	0,5	1,409200
4,875167	0,5	1,396500
4,883500	0,5	1,389550
4,891833	0,5	1,436500
4,900167	0,5	1,443650
4,908500	0,5	1,474400
4,916833	0,5	1,505300
4,925167	0,5	1,556500
4,933500	0,5	1,611550
4,941833	0,5	1,634500
4,950167	0,5	1,643100
4,958500	0,5	1,650200
4,966833	0,5	1,639250
4,975167	0,5	1,612500
4,983500	0,5	1,578150
4,991833	0,5	1,545600
5,000167	0,5	1,507100
5,008500	0,5	1,463250
5,016833	0,5	1,432250
5,025167	0,5	1,373100
5,033500	0,5	1,338250
5,041833	0,5	1,325800
5,050167	0,5	1,291550
5,058500	0,5	1,271650
5,066833	0,5	1,270050
5,075167	0,5	1,281350
5,083500	0,5	1,311850
5,091833	0,5	1,322300
5,100167	0,5	1,351750
5,108500	0,5	1,372050
5,116833	0,5	1,401900
5,125167	0,5	1,423150
5,133500	0,5	1,449550
5,141833	0,5	1,457800
5,150167	0,5	1,466900
5,158500	0,5	1,473900
5,166833	0,5	1,468500
5,175167	0,5	1,463950
5,183500	0,5	1,465300
5,191833	0,5	1,462300
5,200167	0,5	1,448200
5,208500	0,5	1,445600
5,216833	0,5	1,448250
5,225167	0,5	1,472500
5,233500	0,5	1,479700
5,241833	0,5	1,480400
5,250167	0,5	1,479950
5,258500	0,5	1,495950
5,266833	0,5	1,508000
5,275167	0,5	1,529850
5,283500	0,5	1,560250
5,291833	0,5	1,608600
5,300167	0,5	1,668750
5,308500	0,5	1,740000
5,316833	0,5	1,821950
5,325167	0,5	1,889650
5,333500	0,5	1,962550
5,341833	0,5	2,010800
5,350167	0,5	2,050750
5,358500	0,5	2,083850
5,366833	0,5	2,135600
5,375167	0,5	2,202250
5,383500	0,5	2,280800
5,391833	0,5	2,337050
5,400167	0,5	2,407200
5,408500	0,5	2,437350
5,416833	0,5	2,444950
5,425167	0,5	2,401250
5,433500	0,5	2,317200
5,441833	0,5	2,198000
5,450167	0,5	2,062100
5,458500	0,5	1,924150
5,466833	0,5	1,788100
5,475167	0,5	1,669800
5,483500	0,5	1,586400
5,491833	0,5	1,493050
5,500167	0,5	1,414400
5,508500	0,5	1,355400
5,516833	0,5	1,315100
5,525167	0,5	1,289150
5,533500	0,5	1,250150
5,541833	0,5	1,215900
5,550167	0,5	1,189800
5,558500	0,5	1,175250
5,566833	0,5	1,154200
5,575167	0,5	1,150400
5,583500	0,5	1,127000
5,591833	0,5	1,118900
5,600167	0,5	1,108150
5,608500	0,5	1,108650
5,616833	0,5	1,094300
5,625167	0,5	1,101150
5,633500	0,5	1,096350
5,641833	0,5	1,082900
5,650167	0,5	1,081400
5,658500	0,5	1,085750
5,666833	0,5	1,112750
5,675167	0,5	1,125000
5,683500	0,5	1,135350
5,691833	0,5	1,137300
5,700167	0,5	1,143250
5,708500	0,5	1,146450
5,716833	0,5	1,144050
5,725167	0,5	1,132350
5,733500	0,5	1,119250
5,741833	0,5	1,097800
5,750167	0,5	1,083250
5,758500	0,5	1,065550
5,766833	0,5	1,050250
5,775167	0,5	1,051750
5,783500	0,5	1,040850
5,791833	0,5	1,024950
5,800167	0,5	1,037350
5,808500	0,5	1,052650
5,816833	0,5	1,089600
5,825167	0,5	1,107600
5,833500	0,5	1,121600
5,841833	0,5	1,140700
5,850167	0,5	1,174450
5,858500	0,5	1,206600
5,866833	0,5	1,264050
5,875167	0,5	1,353750
5,883500	0,5	1,462300
5,891833	0,5	1,623150
5,900167	0,5	1,827600
5,908500	0,5	2,072400
5,916833	0,5	2,314100
5,925167	0,5	2,548550
5,933500	0,5	2,703800
5,941833	0,5	2,790750
5,950167	0,5	2,798450
5,958500	0,5	2,747450
5,966833	0,5	2,660550
5,975167	0,5	2,543750
5,983500	0,5	2,428750
5,991833	0,5	2,352950
6,000167	0,5	2,286000
6,008500	0,5	2,227850
6,016833	0,5	2,153150
6,025167	0,5	2,050050
6,033500	0,5	1,926400
6,041833	0,5	1,783500
6,050167	0,5	1,641300
6,058500	0,5	1,489150
6,066833	0,5	1,368800
6,075167	0,5	1,257500
6,083500	0,5	1,164650
6,091833	0,5	1,086350
6,100167	0,5	1,042700
6,108500	0,5	1,015750
6,116833	0,5	1,002300
6,125167	0,5	0,963100
6,133500	0,5	0,942750
6,141833	0,5	0,920100
6,150167	0,5	0,905000
6,158500	0,5	0,888550
6,166833	0,5	0,872700
6,175167	0,5	0,860300
6,183500	0,5	0,855450
6,191833	0,5	0,862800
6,200167	0,5	0,876900
6,208500	0,5	0,886650
6,216833	0,5	0,936550
6,225167	0,5	0,956250
6,233500	0,5	0,978250
6,241833	0,5	0,997450
6,250167	0,5	1,008050
6,258500	0,5	1,016700
6,266833	0,5	0,997700
6,275167	0,5	0,964350
6,283500	0,5	0,921750
6,291833	0,5	0,883100
6,300167	0,5	0,821450
6,308500	0,5	0,797550
6,316833	0,5	0,769900
6,325167	0,5	0,754150
6,333500	0,5	0,748850
6,341833	0,5	0,759200
6,350167	0,5	0,787950
6,358500	0,5	0,817100
6,366833	0,5	0,871350
6,375167	0,5	0,919950
6,383500	0,5	0,987500
6,391833	0,5	1,069050
6,400167	0,5	1,173100
6,408500	0,5	1,299000
6,416833	0,5	1,421000
6,425167	0,5	1,535050
6,433500	0,5	1,648650
6,441833	0,5	1,736500
6,450167	0,5	1,816400
6,458500	0,5	1,873400
6,466833	0,5	1,916700
6,475167	0,5	1,945300
6,483500	0,5	1,992750
6,491833	0,5	2,063250
6,500167	0,5	2,173950
6,508500	0,5	2,325850
6,516833	0,5	2,535300
6,525167	0,5	2,727300
6,533500	0,5	2,901850
6,541833	0,5	3,017200
6,550167	0,5	3,070250
6,558500	0,5	3,051000
6,566833	0,5	2,946900
6,575167	0,5	2,799300
6,583500	0,5	2,631700
6,591833	0,5	2,447300
6,600167	0,5	2,264100
6,608500	0,5	2,090250
6,616833	0,5	1,927300
6,625167	0,5	1,788400
6,633500	0,5	1,668950
6,641833	0,5	1,568000
6,650167	0,5	1,488800
6,658500	0,5	1,455400
6,666833	0,5	1,432900
6,675167	0,5	1,432500
6,683500	0,5	1,454150
6,691833	0,5	1,512550
6,700167	0,5	1,605750
6,708500	0,5	1,728500
6,716833	0,5	1,861450
6,725167	0,5	2,035750
6,733500	0,5	2,215400
6,741833	0,5	2,397950
6,750167	0,5	2,570200
6,758500	0,5	2,707400
6,766833	0,5	2,797800
6,775167	0,5	2,821950
6,783500	0,5	2,805900
6,791833	0,5	2,733700
6,800167	0,5	2,647400
6,808500	0,5	2,569600
6,816833	0,5	2,503950
6,825167	0,5	2,464900
6,833500	0,5	2,478150
6,841833	0,5	2,532350
6,850167	0,5	2,629300
6,858500	0,5	2,735100
6,866833	0,5	2,841100
6,875167	0,5	2,928350
6,883500	0,5	2,979600
6,891833	0,5	2,973050
6,900167	0,5	2,920500
6,908500	0,5	2,815850
6,916833	0,5	2,678500
6,925167	0,5	2,527500
6,933500	0,5	2,388700
6,941833	0,5	2,262450
6,950167	0,5	2,164200
6,958500	0,5	2,097750
6,966833	0,5	2,040100
6,975167	0,5	1,996250
6,983500	0,5	1,990550
6,991833	0,5	2,015700
7,000167	0,5	2,064550
7,008500	0,5	2,129300
7,016833	0,5	2,228750
7,025167	0,5	2,362950
7,033500	0,5	2,511400
7,041833	0,5	2,666300
7,050167	0,5	2,807800
7,058500	0,5	2,935000
7,066833	0,5	3,022900
7,075167	0,5	3,086250
7,083500	0,5	3,127400
7,091833	0,5	3,157150
7,100167	0,5	3,209050
7,108500	0,5	3,277650
7,116833	0,5	3,398750
7,125167	0,5	3,605750
7,133500	0,5	3,960150
7,141833	0,5	4,549350
7,150167	0,5	5,452100
7,158500	0,5	6,787300
7,166833	0,5	8,655350
7,175167	0,5	10,996300
7,183500	0,5	13,611750
7,191833	0,5	16,113150
7,200167	0,5	18,078850
7,208500	0,5	19,144400
7,216833	0,5	19,203950
7,225167	0,5	18,406900
7,233500	0,5	17,103850
7,241833	0,5	15,680100
7,250167	0,5	14,501000
7,258500	0,5	13,650500
7,266833	0,5	13,144800
7,275167	0,5	12,878250
7,283500	0,5	12,728600
7,291833	0,5	12,598850
7,300167	0,5	12,377200
7,308500	0,5	11,999400
7,316833	0,5	11,431000
7,325167	0,5	10,661650
7,333500	0,5	9,732100
7,341833	0,5	8,724250
7,350167	0,5	7,713650
7,358500	0,5	6,810200
7,366833	0,5	6,117000
7,375167	0,5	5,682350
7,383500	0,5	5,552450
7,391833	0,5	5,700300
7,400167	0,5	6,073600
7,408500	0,5	6,569600
7,416833	0,5	7,077900
7,425167	0,5	7,500650
7,433500	0,5	7,763750
7,441833	0,5	7,837150
7,450167	0,5	7,727150
7,458500	0,5	7,527050
7,466833	0,5	7,387350
7,475167	0,5	7,463000
7,483500	0,5	7,864550
7,491833	0,5	8,627400
7,500167	0,5	9,663350
7,508500	0,5	10,722350
7,516833	0,5	11,540050
7,525167	0,5	11,822900
7,533500	0,5	11,462650
7,541833	0,5	10,506200
7,550167	0,5	9,176350
7,558500	0,5	7,735800
7,566833	0,5	6,431100
7,575167	0,5	5,388000
7,583500	0,5	4,649700
7,591833	0,5	4,159950
7,600167	0,5	3,832550
7,608500	0,5	3,624900
7,616833	0,5	3,497450
7,625167	0,5	3,419850
7,633500	0,5	3,386800
7,641833	0,5	3,392100
7,650167	0,5	3,419450
7,658500	0,5	3,434950
7,666833	0,5	3,411950
7,675167	0,5	3,349450
7,683500	0,5	3,227700
7,691833	0,5	3,091000
7,700167	0,5	2,942800
7,708500	0,5	2,802700
7,716833	0,5	2,690600
7,725167	0,5	2,604050
7,733500	0,5	2,546500
7,741833	0,5	2,509750
7,750167	0,5	2,489400
7,758500	0,5	2,496100
7,766833	0,5	2,520350
7,775167	0,5	2,553750
7,783500	0,5	2,581200
7,791833	0,5	2,591850
7,800167	0,5	2,570850
7,808500	0,5	2,521600
7,816833	0,5	2,451950
7,825167	0,5	2,366650
7,833500	0,5	2,299900
7,841833	0,5	2,259300
7,850167	0,5	2,241950
7,858500	0,5	2,241550
7,866833	0,5	2,264350
7,875167	0,5	2,310550
7,883500	0,5	2,370900
7,891833	0,5	2,464200
7,900167	0,5	2,600550
7,908500	0,5	2,807450
7,916833	0,5	3,092350
7,925167	0,5	3,428750
7,933500	0,5	3,796000
7,941833	0,5	4,115200
7,950167	0,5	4,346000
7,958500	0,5	4,460450
7,966833	0,5	4,511050
7,975167	0,5	4,600500
7,983500	0,5	4,877500
7,991833	0,5	5,457300
8,000167	0,5	6,377400
8,008500	0,5	7,514050
8,016833	0,5	8,602650
8,025167	0,5	9,309350
8,033500	0,5	9,433450
8,041833	0,5	9,000050
8,050167	0,5	8,233300
8,058500	0,5	7,363050
8,066833	0,5	6,555600
8,075167	0,5	5,875750
8,083500	0,5	5,317100
8,091833	0,5	4,871250
8,100167	0,5	4,508750
8,108500	0,5	4,192650
8,116833	0,5	3,893850
8,125167	0,5	3,615350
8,133500	0,5	3,403300
8,141833	0,5	3,267600
8,150167	0,5	3,192400
8,158500	0,5	3,142550
8,166833	0,5	3,098300
8,175167	0,5	3,034850
8,183500	0,5	2,943500
8,191833	0,5	2,835000
8,200167	0,5	2,720800
8,208500	0,5	2,622750
8,216833	0,5	2,546050
8,225167	0,5	2,486100
8,233500	0,5	2,449100
8,241833	0,5	2,405500
8,250167	0,5	2,375100
8,258500	0,5	2,339450
8,266833	0,5	2,301000
8,275167	0,5	2,249900
8,283500	0,5	2,208700
8,291833	0,5	2,158300
8,300167	0,5	2,108300
8,308500	0,5	2,067900
8,316833	0,5	2,042300
8,325167	0,5	2,019950
8,333500	0,5	1,995600
8,341833	0,5	1,974950
8,350167	0,5	1,959600
8,358500	0,5	1,940150
8,366833	0,5	1,925950
8,375167	0,5	1,903750
8,383500	0,5	1,887850
8,391833	0,5	1,873900
8,400167	0,5	1,859150
8,408500	0,5	1,850450
8,416833	0,5	1,850700
8,425167	0,5	1,870300
8,433500	0,5	1,909050
8,441833	0,5	1,960200
8,450167	0,5	2,031400
8,458500	0,5	2,125750
8,466833	0,5	2,241700
8,475167	0,5	2,371500
8,483500	0,5	2,494950
8,491833	0,5	2,608650
8,500167	0,5	2,694750
8,508500	0,5	2,747800
8,516833	0,5	2,767400
8,525167	0,5	2,761400
8,533500	0,5	2,721900
8,541833	0,5	2,664600
8,550167	0,5	2,583000
8,558500	0,5	2,497750
8,566833	0,5	2,407600
8,575167	0,5	2,330400
8,583500	0,5	2,265800
8,591833	0,5	2,207250
8,600167	0,5	2,165500
8,608500	0,5	2,140250
8,616833	0,5	2,133550
8,625167	0,5	2,148100
8,633500	0,5	2,195650
8,641833	0,5	2,275050
8,650167	0,5	2,400350
8,658500	0,5	2,537100
8,666833	0,5	2,689200
8,675167	0,5	2,807350
8,683500	0,5	2,872150
8,691833	0,5	2,875850
8,700167	0,5	2,840250
8,708500	0,5	2,812300
8,716833	0,5	2,813850
8,725167	0,5	2,872150
8,733500	0,5	2,992250
8,741833	0,5	3,174450
8,750167	0,5	3,418050
8,758500	0,5	3,704100
8,766833	0,5	4,038200
8,775167	0,5	4,395650
8,783500	0,5	4,743050
8,791833	0,5	5,028000
8,800167	0,5	5,189600
8,808500	0,5	5,166350
8,816833	0,5	4,954350
8,825167	0,5	4,574800
8,833500	0,5	4,100750
8,841833	0,5	3,615150
8,850167	0,5	3,181100
8,858500	0,5	2,829850
8,866833	0,5	2,571800
8,875167	0,5	2,400700
8,883500	0,5	2,294750
8,891833	0,5	2,231500
8,900167	0,5	2,202700
8,908500	0,5	2,202250
8,916833	0,5	2,230000
8,925167	0,5	2,280200
8,933500	0,5	2,366600
8,941833	0,5	2,485700
8,950167	0,5	2,622800
8,958500	0,5	2,765200
8,966833	0,5	2,856850
8,975167	0,5	2,891250
8,983500	0,5	2,842800
8,991833	0,5	2,764700
9,000167	0,5	2,678500
9,008500	0,5	2,598650
9,016833	0,5	2,543200
9,025167	0,5	2,514350
9,033500	0,5	2,501300
9,041833	0,5	2,513200
9,050167	0,5	2,538600
9,058500	0,5	2,549600
9,066833	0,5	2,543150
9,075167	0,5	2,507300
9,083500	0,5	2,448600
9,091833	0,5	2,383700
9,100167	0,5	2,312400
9,108500	0,5	2,257400
9,116833	0,5	2,206550
9,125167	0,5	2,162100
9,133500	0,5	2,112300
9,141833	0,5	2,054500
9,150167	0,5	1,984650
9,158500	0,5	1,915200
9,166833	0,5	1,856250
9,175167	0,5	1,804250
9,183500	0,5	1,759550
9,191833	0,5	1,731050
9,200167	0,5	1,705700
9,208500	0,5	1,699500
9,216833	0,5	1,698300
9,225167	0,5	1,704550
9,233500	0,5	1,714450
9,241833	0,5	1,734850
9,250167	0,5	1,741350
9,258500	0,5	1,741750
9,266833	0,5	1,724200
9,275167	0,5	1,701150
9,283500	0,5	1,678650
9,291833	0,5	1,652400
9,300167	0,5	1,625850
9,308500	0,5	1,611750
9,316833	0,5	1,603550
9,325167	0,5	1,598700
9,333500	0,5	1,594350
9,341833	0,5	1,596350
9,350167	0,5	1,596900
9,358500	0,5	1,609300
9,366833	0,5	1,611900
9,375167	0,5	1,607500
9,383500	0,5	1,599900
9,391833	0,5	1,584500
9,400167	0,5	1,556700
9,408500	0,5	1,520550
9,416833	0,5	1,480800
9,425167	0,5	1,446250
9,433500	0,5	1,421200
9,441833	0,5	1,406550
9,450167	0,5	1,398750
9,458500	0,5	1,396450
9,466833	0,5	1,403150
9,475167	0,5	1,396550
9,483500	0,5	1,390950
9,491833	0,5	1,374350
9,500167	0,5	1,356500
9,508500	0,5	1,347100
9,516833	0,5	1,340900
9,525167	0,5	1,333000
9,533500	0,5	1,332400
9,541833	0,5	1,336500
9,550167	0,5	1,342550
9,558500	0,5	1,351150
9,566833	0,5	1,375200
9,575167	0,5	1,399800
9,583500	0,5	1,436800
9,591833	0,5	1,493300
9,600167	0,5	1,562100
9,608500	0,5	1,646550
9,616833	0,5	1,738350
9,625167	0,5	1,832850
9,633500	0,5	1,918450
9,641833	0,5	1,988650
9,650167	0,5	2,046350
9,658500	0,5	2,073550
9,666833	0,5	2,061150
9,675167	0,5	2,013500
9,683500	0,5	1,935150
9,691833	0,5	1,833700
9,700167	0,5	1,721550
9,708500	0,5	1,606500
9,716833	0,5	1,505050
9,725167	0,5	1,421650
9,733500	0,5	1,361750
9,741833	0,5	1,317500
9,750167	0,5	1,287300
9,758500	0,5	1,267150
9,766833	0,5	1,259650
9,775167	0,5	1,247100
9,783500	0,5	1,249550
9,791833	0,5	1,254450
9,800167	0,5	1,260750
9,808500	0,5	1,266450
9,816833	0,5	1,266150
9,825167	0,5	1,265900
9,833500	0,5	1,266100
9,841833	0,5	1,264400
9,850167	0,5	1,264000
9,858500	0,5	1,260700
9,866833	0,5	1,261000
9,875167	0,5	1,264250
9,883500	0,5	1,272100
9,891833	0,5	1,287800
9,900167	0,5	1,310500
9,908500	0,5	1,344800
9,916833	0,5	1,378950
9,925167	0,5	1,413200
9,933500	0,5	1,429700
9,941833	0,5	1,430800
9,950167	0,5	1,416900
9,958500	0,5	1,382700
9,966833	0,5	1,345300
9,975167	0,5	1,304400
9,983500	0,5	1,255600
9,991833	0,5	1,227050
10,000167	0,5	1,195350
10,008500	0,5	1,173050
10,016833	0,5	1,156300
10,025167	0,5	1,140800
10,033500	0,5	1,138750
10,041833	0,5	1,124400
10,050167	0,5	1,119450
10,058500	0,5	1,119550
10,066833	0,5	1,124000
10,075167	0,5	1,121200
10,083500	0,5	1,125300
10,091833	0,5	1,137200
10,100167	0,5	1,156800
10,108500	0,5	1,172050
10,116833	0,5	1,194050
10,125167	0,5	1,216150
10,133500	0,5	1,241150
10,141833	0,5	1,265300
10,150167	0,5	1,291550
10,158500	0,5	1,316500
10,166833	0,5	1,341850
10,175167	0,5	1,371100
10,183500	0,5	1,412700
10,191833	0,5	1,454550
10,200167	0,5	1,519850
10,208500	0,5	1,583750
10,216833	0,5	1,647600
10,225167	0,5	1,690200
10,233500	0,5	1,718600
10,241833	0,5	1,722000
10,250167	0,5	1,706400
10,258500	0,5	1,674850
10,266833	0,5	1,631150
10,275167	0,5	1,594650
10,283500	0,5	1,555700
10,291833	0,5	1,525050
10,300167	0,5	1,498500
10,308500	0,5	1,471250
10,316833	0,5	1,454450
10,325167	0,5	1,441750
10,333500	0,5	1,441550
10,341833	0,5	1,453650
10,350167	0,5	1,478200
10,358500	0,5	1,533250
10,366833	0,5	1,604500
10,375167	0,5	1,728800
10,383500	0,5	1,906650
10,391833	0,5	2,172500
10,400167	0,5	2,503750
10,408500	0,5	2,886000
10,416833	0,5	3,268800
10,425167	0,5	3,583650
10,433500	0,5	3,770700
10,441833	0,5	3,792800
10,450167	0,5	3,663350
10,458500	0,5	3,402100
10,466833	0,5	3,096600
10,475167	0,5	2,774850
10,483500	0,5	2,487750
10,491833	0,5	2,239850
10,500167	0,5	2,036600
10,508500	0,5	1,859650
10,516833	0,5	1,698650
10,525167	0,5	1,545200
10,533500	0,5	1,401800
10,541833	0,5	1,281550
10,550167	0,5	1,177050
10,558500	0,5	1,101000
10,566833	0,5	1,052950
10,575167	0,5	1,029900
10,583500	0,5	1,022200
10,591833	0,5	1,028100
10,600167	0,5	1,046950
10,608500	0,5	1,078350
10,616833	0,5	1,117300
10,625167	0,5	1,153200
10,633500	0,5	1,180050
10,641833	0,5	1,198850
10,650167	0,5	1,218050
10,658500	0,5	1,220050
10,666833	0,5	1,205300
10,675167	0,5	1,186050
10,683500	0,5	1,166450
10,691833	0,5	1,148650
10,700167	0,5	1,124450
10,708500	0,5	1,108850
10,716833	0,5	1,096400
10,725167	0,5	1,087650
10,733500	0,5	1,083150
10,741833	0,5	1,076750
10,750167	0,5	1,069900
10,758500	0,5	1,064400
10,766833	0,5	1,061150
10,775167	0,5	1,050850
10,783500	0,5	1,046900
10,791833	0,5	1,039900
10,800167	0,5	1,041000
10,808500	0,5	1,035550
10,816833	0,5	1,034500
10,825167	0,5	1,035750
10,833500	0,5	1,039400
10,841833	0,5	1,045300
10,850167	0,5	1,062700
10,858500	0,5	1,075250
10,866833	0,5	1,096550
10,875167	0,5	1,121500
10,883500	0,5	1,158800
10,891833	0,5	1,203150
10,900167	0,5	1,246100
10,908500	0,5	1,298700
10,916833	0,5	1,345150
10,925167	0,5	1,385650
10,933500	0,5	1,416500
10,941833	0,5	1,436400
10,950167	0,5	1,430500
10,958500	0,5	1,414400
10,966833	0,5	1,389450
10,975167	0,5	1,362850
10,983500	0,5	1,338600
10,991833	0,5	1,312400
11,000167	0,5	1,296000
11,008500	0,5	1,290800
11,016833	0,5	1,288500
11,025167	0,5	1,294250
11,033500	0,5	1,302550
11,041833	0,5	1,314300
11,050167	0,5	1,333700
11,058500	0,5	1,365400
11,066833	0,5	1,397150
11,075167	0,5	1,449650
11,083500	0,5	1,498650
11,091833	0,5	1,554250
11,100167	0,5	1,593150
11,108500	0,5	1,616000
11,116833	0,5	1,605650
11,125167	0,5	1,576700
11,133500	0,5	1,535750
11,141833	0,5	1,485200
11,150167	0,5	1,440200
11,158500	0,5	1,397450
11,166833	0,5	1,364500
11,175167	0,5	1,339200
11,183500	0,5	1,320800
11,191833	0,5	1,291150
11,200167	0,5	1,261750
11,208500	0,5	1,261650
11,216833	0,5	1,223000
11,225167	0,5	1,200950
11,233500	0,5	1,197350
11,241833	0,5	1,197300
11,250167	0,5	1,207700
11,258500	0,5	1,212000
11,266833	0,5	1,233050
11,275167	0,5	1,270000
11,283500	0,5	1,318100
11,291833	0,5	1,393200
11,300167	0,5	1,478700
11,308500	0,5	1,596850
11,316833	0,5	1,742300
11,325167	0,5	1,910100
11,333500	0,5	2,098150
11,341833	0,5	2,302850
11,350167	0,5	2,513550
11,358500	0,5	2,716700
11,366833	0,5	2,879900
11,375167	0,5	2,978550
11,383500	0,5	3,000900
11,391833	0,5	2,919300
11,400167	0,5	2,755400
11,408500	0,5	2,535750
11,416833	0,5	2,299450
11,425167	0,5	2,094500
11,433500	0,5	1,918200
11,441833	0,5	1,784200
11,450167	0,5	1,690650
11,458500	0,5	1,633900
11,466833	0,5	1,602100
11,475167	0,5	1,574950
11,483500	0,5	1,559600
11,491833	0,5	1,538150
11,500167	0,5	1,516350
11,508500	0,5	1,482200
11,516833	0,5	1,454450
11,525167	0,5	1,413250
11,533500	0,5	1,381350
11,541833	0,5	1,344700
11,550167	0,5	1,306650
11,558500	0,5	1,271550
11,566833	0,5	1,240950
11,575167	0,5	1,219350
11,583500	0,5	1,198000
11,591833	0,5	1,171650
11,600167	0,5	1,150300
11,608500	0,5	1,128150
11,616833	0,5	1,112900
11,625167	0,5	1,101500
11,633500	0,5	1,093950
11,641833	0,5	1,090200
11,650167	0,5	1,087150
11,658500	0,5	1,088750
11,666833	0,5	1,089850
11,675167	0,5	1,090900
11,683500	0,5	1,102200
11,691833	0,5	1,113650
11,700167	0,5	1,127000
11,708500	0,5	1,133500
11,716833	0,5	1,150350
11,725167	0,5	1,189200
11,733500	0,5	1,213900
11,741833	0,5	1,259500
11,750167	0,5	1,307250
11,758500	0,5	1,366400
11,766833	0,5	1,427350
11,775167	0,5	1,511650
11,783500	0,5	1,595600
11,791833	0,5	1,686200
11,800167	0,5	1,770400
11,808500	0,5	1,836250
11,816833	0,5	1,884100
11,825167	0,5	1,903050
11,833500	0,5	1,890600
11,841833	0,5	1,844650
11,850167	0,5	1,773900
11,858500	0,5	1,694700
11,866833	0,5	1,617150
11,875167	0,5	1,552850
11,883500	0,5	1,495700
11,891833	0,5	1,447200
11,900167	0,5	1,417450
11,908500	0,5	1,387400
11,916833	0,5	1,367200
11,925167	0,5	1,353700
11,933500	0,5	1,343200
11,941833	0,5	1,343800
11,950167	0,5	1,342300
11,958500	0,5	1,338450
11,966833	0,5	1,340950
11,975167	0,5	1,356100
11,983500	0,5	1,384800
11,991833	0,5	1,423450
12,000167	0,5	1,478550
12,008500	0,5	1,544200
12,016833	0,5	1,608500
12,025167	0,5	1,679600
12,033500	0,5	1,737700
12,041833	0,5	1,790500
12,050167	0,5	1,828250
12,058500	0,5	1,872600
12,066833	0,5	1,928350
12,075167	0,5	1,998750
12,083500	0,5	2,066800
12,091833	0,5	2,144450
12,100167	0,5	2,222400
12,108500	0,5	2,284800
12,116833	0,5	2,326950
12,125167	0,5	2,350700
12,133500	0,5	2,339600
12,141833	0,5	2,296200
12,150167	0,5	2,218100
12,158500	0,5	2,114250
12,166833	0,5	2,013850
12,175167	0,5	1,910450
12,183500	0,5	1,817650
12,191833	0,5	1,747550
12,200167	0,5	1,695650
12,208500	0,5	1,658800
12,216833	0,5	1,638100
12,225167	0,5	1,620050
12,233500	0,5	1,610050
12,241833	0,5	1,603850
12,250167	0,5	1,597200
12,258500	0,5	1,578800
12,266833	0,5	1,572300
12,275167	0,5	1,560400
12,283500	0,5	1,551450
12,291833	0,5	1,529450
12,300167	0,5	1,504100
12,308500	0,5	1,494100
12,316833	0,5	1,467250
12,325167	0,5	1,441800
12,333500	0,5	1,414600
12,341833	0,5	1,373250
12,350167	0,5	1,344150
12,358500	0,5	1,313200
12,366833	0,5	1,278550
12,375167	0,5	1,249900
12,383500	0,5	1,218650
12,391833	0,5	1,200700
12,400167	0,5	1,182000
12,408500	0,5	1,166000
12,416833	0,5	1,157450
12,425167	0,5	1,147500
12,433500	0,5	1,142750
12,441833	0,5	1,142400
12,450167	0,5	1,139700
12,458500	0,5	1,151900
12,466833	0,5	1,172400
12,475167	0,5	1,197250
12,483500	0,5	1,232950
12,491833	0,5	1,267250
12,500167	0,5	1,281300
12,508500	0,5	1,283000
12,516833	0,5	1,277550
12,525167	0,5	1,245100
12,533500	0,5	1,204600
12,541833	0,5	1,178200
12,550167	0,5	1,202700
12,558500	0,5	1,260750
12,566833	0,5	1,243950
12,575167	0,5	1,072650
12,583500	0,5	0,679200
12,591833	0,5	0,110600
12,600167	0,5	-0,337500
12,608500	0,5	-0,629300
12,616833	0,5	-0,870550
12,625167	0,5	-1,094200
12,633500	0,5	-1,306450
12,641833	0,5	-1,572100
12,650167	0,5	-1,845600
12,658500	0,5	-2,048850
12,666833	0,5	-2,198550
12,675167	0,5	-2,316050
12,683500	0,5	-2,416800
12,691833	0,5	-2,494650
12,700167	0,5	-2,576300
12,708500	0,5	-2,639350
12,716833	0,5	-2,697800
12,725167	0,5	-2,753750
12,733500	0,5	-2,804900
12,741833	0,5	-2,852400
12,750167	0,5	-2,888200
12,758500	0,5	-2,914800
12,766833	0,5	-2,944050
12,775167	0,5	-2,970200
12,783500	0,5	-2,992050
12,791833	0,5	-3,008700
12,800167	0,5	-3,028850
12,808500	0,5	-3,040450
12,816833	0,5	-3,052550
12,825167	0,5	-3,066050
12,833500	0,5	-3,069750
12,841833	0,5	-3,072200
12,850167	0,5	-3,078550
12,858500	0,5	-3,077950
12,866833	0,5	-3,083500
12,875167	0,5	-3,085000
12,883500	0,5	-3,087950
12,891833	0,5	-3,093200
12,900167	0,5	-3,090650
12,908500	0,5	-3,084000
12,916833	0,5	-3,077050
12,925167	0,5	-3,072500
12,933500	0,5	-3,059250
12,941833	0,5	-3,059950
12,950167	0,5	-3,040050
12,958500	0,5	-3,038800
12,966833	0,5	-3,024050
12,975167	0,5	-3,012550
12,983500	0,5	-2,992300
12,991833	0,5	-2,972550
13,000167	0,5	-2,955300
13,008500	0,5	-2,931700
13,016833	0,5	-2,912200
13,025167	0,5	-2,892700
13,033500	0,5	-2,885050
13,041833	0,5	-2,865300
13,050167	0,5	-2,848800
13,058500	0,5	-2,818250
13,066833	0,5	-2,802800
13,075167	0,5	-2,784800
13,083500	0,5	-2,769400
13,091833	0,5	-2,755550
13,100167	0,5	-2,758300
13,108500	0,5	-2,759700
13,116833	0,5	-2,768150
13,125167	0,5	-2,782000
13,133500	0,5	-2,800500
13,141833	0,5	-2,827350
13,150167	0,5	-2,845400
13,158500	0,5	-2,856850
13,166833	0,5	-2,874100
13,175167	0,5	-2,891850
13,183500	0,5	-2,909000
13,191833	0,5	-2,920050
13,200167	0,5	-2,912050
13,208500	0,5	-2,912400
13,216833	0,5	-2,910950
13,225167	0,5	-2,910000
13,233500	0,5	-2,903300
13,241833	0,5	-2,894050
13,250167	0,5	-2,881450
13,258500	0,5	-2,870950
13,266833	0,5	-2,852250
13,275167	0,5	-2,825200
13,283500	0,5	-2,794450
13,291833	0,5	-2,772100
13,300167	0,5	-2,729100
13,308500	0,5	-2,690750
13,316833	0,5	-2,658550
13,325167	0,5	-2,633100
13,333500	0,5	-2,620850
13,341833	0,5	-2,604150
13,350167	0,5	-2,594600
13,358500	0,5	-2,591850
13,366833	0,5	-2,591300
13,375167	0,5	-2,585700
13,383500	0,5	-2,589250
13,391833	0,5	-2,581950
13,400167	0,5	-2,574750
13,408500	0,5	-2,563600
13,416833	0,5	-2,555750
13,425167	0,5	-2,537050
13,433500	0,5	-2,523300
13,441833	0,5	-2,502800
13,450167	0,5	-2,484900
13,458500	0,5	-2,461350
13,466833	0,5	-2,446250
13,475167	0,5	-2,432400
13,483500	0,5	-2,421250
13,491833	0,5	-2,394450
13,500167	0,5	-2,373950
13,508500	0,5	-2,352050
13,516833	0,5	-2,330450
13,525167	0,5	-2,319150
13,533500	0,5	-2,303400
13,541833	0,5	-2,292450
13,550167	0,5	-2,271250
13,558500	0,5	-2,256450
13,566833	0,5	-2,237250
13,575167	0,5	-2,217750
13,583500	0,5	-2,206800
13,591833	0,5	-2,181950
13,600167	0,5	-2,167800
13,608500	0,5	-2,148950
13,616833	0,5	-2,128250
13,625167	0,5	-2,123800
13,633500	0,5	-2,095950
13,641833	0,5	-2,074750
13,650167	0,5	-2,050550
13,658500	0,5	-2,023900
13,666833	0,5	-1,996400
13,675167	0,5	-1,974750
13,683500	0,5	-1,958600
13,691833	0,5	-1,930750
13,700167	0,5	-1,908850
13,708500	0,5	-1,885950
13,716833	0,5	-1,872350
13,725167	0,5	-1,840750
13,733500	0,5	-1,833100
13,741833	0,5	-1,800900
13,750167	0,5	-1,786750
13,758500	0,5	-1,768750
13,766833	0,5	-1,767350
13,775167	0,5	-1,752900
13,783500	0,5	-1,731100
13,791833	0,5	-1,702700
13,800167	0,5	-1,692600
13,808500	0,5	-1,675400
13,816833	0,5	-1,662500
13,825167	0,5	-1,648150
13,833500	0,5	-1,637450
13,841833	0,5	-1,623700
13,850167	0,5	-1,610300
13,858500	0,5	-1,593900
13,866833	0,5	-1,572000
13,875167	0,5	-1,549450
13,883500	0,5	-1,525500
13,891833	0,5	-1,485750
13,900167	0,5	-1,438100
13,908500	0,5	-1,395750
13,916833	0,5	-1,340250
13,925167	0,5	-1,279950
13,933500	0,5	-1,201350
13,941833	0,5	-1,141750
13,950167	0,5	-1,102250
13,958500	0,5	-1,075150
13,966833	0,5	-1,050350
13,975167	0,5	-1,035200
13,983500	0,5	-1,014750
13,991833	0,5	-0,986750
14,000167	0,5	-0,937500
14,008500	0,5	-0,879650
14,016833	0,5	-0,823250
14,025167	0,5	-0,764950
14,033500	0,5	-0,709550
14,041833	0,5	-0,664700
14,050167	0,5	-0,637950
14,058500	0,5	-0,600600
14,066833	0,5	-0,567500
14,075167	0,5	-0,507550
14,083500	0,5	-0,449300
14,091833	0,5	-0,381400
14,100167	0,5	-0,330350
14,108500	0,5	-0,279450
14,116833	0,5	-0,238250
14,125167	0,5	-0,195900
14,133500	0,5	-0,144550
14,141833	0,5	-0,093800
14,150167	0,5	-0,072900
14,158500	0,5	-0,051300
14,166833	0,5	-0,043800
14,175167	0,5	-0,046100
14,183500	0,5	-0,048300
14,191833	0,5	-0,040350
14,200167	0,5	-0,037050
14,208500	0,5	-0,038550
14,216833	0,5	-0,035500
14,225167	0,5	-0,023600
14,233500	0,5	0,002450
14,241833	0,5	0,018500
14,250167	0,5	0,041700
14,258500	0,5	0,057850
14,266833	0,5	0,083400
14,275167	0,5	0,100400
14,283500	0,5	0,113200
14,291833	0,5	0,120500
14,300167	0,5	0,133200
14,308500	0,5	0,138200
14,316833	0,5	0,136850
14,325167	0,5	0,141100
14,333500	0,5	0,160300
14,341833	0,5	0,172600
14,350167	0,5	0,187450
14,358500	0,5	0,194600
14,366833	0,5	0,215250
14,375167	0,5	0,231900
14,383500	0,5	0,239450
14,391833	0,5	0,227650
14,400167	0,5	0,227450
14,408500	0,5	0,217900
14,416833	0,5	0,200500
14,425167	0,5	0,191450
14,433500	0,5	0,179300
14,441833	0,5	0,164050
14,450167	0,5	0,148850
14,458500	0,5	0,142750
14,466833	0,5	0,121750
14,475167	0,5	0,128950
14,483500	0,5	0,124450
14,491833	0,5	0,121750
14,500167	0,5	0,115050
14,508500	0,5	0,101400
14,516833	0,5	0,109000
14,525167	0,5	0,120300
14,533500	0,5	0,122050
14,541833	0,5	0,135650
14,550167	0,5	0,148550
14,558500	0,5	0,178000
14,566833	0,5	0,232500
14,575167	0,5	0,312650
14,583500	0,5	0,407100
14,591833	0,5	0,488650
14,600167	0,5	0,568850
14,608500	0,5	0,609850
14,616833	0,5	0,608050
14,625167	0,5	0,596700
14,633500	0,5	0,557000
14,641833	0,5	0,503100
14,650167	0,5	0,467600
14,658500	0,5	0,431250
14,666833	0,5	0,458900
14,675167	0,5	0,507550
14,683500	0,5	0,578100
14,691833	0,5	0,639700
14,700167	0,5	0,686900
14,708500	0,5	0,705850
14,716833	0,5	0,680350
14,725167	0,5	0,626100
14,733500	0,5	0,548450
14,741833	0,5	0,472900
14,750167	0,5	0,402250
14,758500	0,5	0,338500
14,766833	0,5	0,290950
14,775167	0,5	0,271500
14,783500	0,5	0,241100
14,791833	0,5	0,222550
14,800167	0,5	0,197800
14,808500	0,5	0,180250
14,816833	0,5	0,189550
14,825167	0,5	0,195350
14,833500	0,5	0,201200
14,841833	0,5	0,207250
14,850167	0,5	0,207650
14,858500	0,5	0,197700
14,866833	0,5	0,175900
14,875167	0,5	0,160250
14,883500	0,5	0,146750
14,891833	0,5	0,131200
14,900167	0,5	0,139350
14,908500	0,5	0,117200
14,916833	0,5	0,110150
14,925167	0,5	0,095400
14,933500	0,5	0,086250
14,941833	0,5	0,054550
14,950167	0,5	0,033200
14,958500	0,5	0,011800
14,966833	0,5	-0,000350
14,975167	0,5	-0,017950
14,983500	0,5	-0,022650
14,991833	0,5	-0,026950
15,000167	0,5	-0,030400
15,008500	0,5	-0,036950
15,016833	0,5	-0,035000
15,025167	0,5	-0,034700
15,033500	0,5	-0,043800
15,041833	0,5	-0,035450
15,050167	0,5	-0,025100
15,058500	0,5	-0,024550
15,066833	0,5	0,000450
15,075167	0,5	0,034450
15,083500	0,5	0,091400
15,091833	0,5	0,171250
15,100167	0,5	0,261150
15,108500	0,5	0,382000
15,116833	0,5	0,470150
15,125167	0,5	0,522750
15,133500	0,5	0,526500
15,141833	0,5	0,496000
15,150167	0,5	0,432700
15,158500	0,5	0,397350
15,166833	0,5	0,378250
15,175167	0,5	0,404600
15,183500	0,5	0,467450
15,191833	0,5	0,544150
15,200167	0,5	0,591850
15,208500	0,5	0,602750
15,216833	0,5	0,576750
15,225167	0,5	0,502200
15,233500	0,5	0,414700
15,241833	0,5	0,310900
15,250167	0,5	0,245900
15,258500	0,5	0,199050
15,266833	0,5	0,183300
15,275167	0,5	0,156250
15,283500	0,5	0,146050
15,291833	0,5	0,133900
15,300167	0,5	0,120350
15,308500	0,5	0,102600
15,316833	0,5	0,083050
15,325167	0,5	0,067350
15,333500	0,5	0,059000
15,341833	0,5	0,058600
15,350167	0,5	0,048850
15,358500	0,5	0,053300
15,366833	0,5	0,067150
15,375167	0,5	0,059650
15,383500	0,5	0,047650
15,391833	0,5	0,018900
15,400167	0,5	-0,003350
15,408500	0,5	-0,010700
15,416833	0,5	-0,037950
15,425167	0,5	-0,059500
15,433500	0,5	-0,084100
15,441833	0,5	-0,098550
15,450167	0,5	-0,116200
15,458500	0,5	-0,121900
15,466833	0,5	-0,132150
15,475167	0,5	-0,153150
15,483500	0,5	-0,156400
15,491833	0,5	-0,161250
15,500167	0,5	-0,186250
15,508500	0,5	-0,173500
15,516833	0,5	-0,173850
15,525167	0,5	-0,171400
15,533500	0,5	-0,155100
15,541833	0,5	-0,121900
15,550167	0,5	-0,032850
15,558500	0,5	0,076700
15,566833	0,5	0,201950
15,575167	0,5	0,309400
15,583500	0,5	0,391200
15,591833	0,5	0,415550
15,600167	0,5	0,405150
15,608500	0,5	0,376050
15,616833	0,5	0,365350
15,625167	0,5	0,372700
15,633500	0,5	0,422400
15,641833	0,5	0,464900
15,650167	0,5	0,504550
15,658500	0,5	0,502900
15,666833	0,5	0,455100
15,675167	0,5	0,355750
15,683500	0,5	0,247500
15,691833	0,5	0,157200
15,700167	0,5	0,086350
15,708500	0,5	0,031400
15,716833	0,5	-0,018600
15,725167	0,5	-0,049950
15,733500	0,5	-0,071450
15,741833	0,5	-0,081600
15,750167	0,5	-0,079200
15,758500	0,5	-0,069800
15,766833	0,5	-0,068550
15,775167	0,5	-0,062100
15,783500	0,5	-0,066900
15,791833	0,5	-0,082650
15,800167	0,5	-0,091400
15,808500	0,5	-0,100700
15,816833	0,5	-0,123200
15,825167	0,5	-0,157100
15,833500	0,5	-0,210050
15,841833	0,5	-0,227850
15,850167	0,5	-0,245550
15,858500	0,5	-0,257100
15,866833	0,5	-0,273050
15,875167	0,5	-0,289200
15,883500	0,5	-0,305250
15,891833	0,5	-0,315250
15,900167	0,5	-0,313350
15,908500	0,5	-0,324750
15,916833	0,5	-0,325550
15,925167	0,5	-0,326850
15,933500	0,5	-0,301850
15,941833	0,5	-0,286150
15,950167	0,5	-0,215050
15,958500	0,5	-0,121200
15,966833	0,5	0,003500
15,975167	0,5	0,123500
15,983500	0,5	0,230350
15,991833	0,5	0,320450
16,000167	0,5	0,371400
16,008500	0,5	0,379200
16,016833	0,5	0,391250
16,025167	0,5	0,414200
16,033500	0,5	0,450150
16,041833	0,5	0,474800
16,050167	0,5	0,465350
16,058500	0,5	0,410250
16,066833	0,5	0,322650
16,075167	0,5	0,230800
16,083500	0,5	0,123150
16,091833	0,5	0,048550
16,100167	0,5	-0,005150
16,108500	0,5	-0,046600
16,116833	0,5	-0,076700
16,125167	0,5	-0,092300
16,133500	0,5	-0,109300
16,141833	0,5	-0,091850
16,150167	0,5	-0,084700
16,158500	0,5	-0,060500
16,166833	0,5	-0,035350
16,175167	0,5	-0,001650
16,183500	0,5	0,012250
16,191833	0,5	0,037400
16,200167	0,5	0,052450
16,208500	0,5	0,053800
16,216833	0,5	0,045850
16,225167	0,5	0,018000
16,233500	0,5	-0,040150
16,241833	0,5	-0,082400
16,250167	0,5	-0,137200
16,258500	0,5	-0,191850
16,266833	0,5	-0,249450
16,275167	0,5	-0,312050
16,283500	0,5	-0,346300
16,291833	0,5	-0,370300
16,300167	0,5	-0,371100
16,308500	0,5	-0,354600
16,316833	0,5	-0,309200
16,325167	0,5	-0,224700
16,333500	0,5	-0,111800
16,341833	0,5	0,026700
16,350167	0,5	0,150100
16,358500	0,5	0,228350
16,366833	0,5	0,284900
16,375167	0,5	0,289400
16,383500	0,5	0,288000
16,391833	0,5	0,299650
16,400167	0,5	0,299300
16,408500	0,5	0,279400
16,416833	0,5	0,213250
16,425167	0,5	0,142000
16,433500	0,5	0,061650
16,441833	0,5	0,005550
16,450167	0,5	-0,049100
16,458500	0,5	-0,067000
16,466833	0,5	-0,064550
16,475167	0,5	-0,051700
16,483500	0,5	-0,042100
16,491833	0,5	-0,030100
16,500167	0,5	-0,031950
16,508500	0,5	-0,034000
16,516833	0,5	-0,035850
16,525167	0,5	-0,067100
16,533500	0,5	-0,084900
16,541833	0,5	-0,099850
16,550167	0,5	-0,120700
16,558500	0,5	-0,152950
16,566833	0,5	-0,183000
16,575167	0,5	-0,192300
16,583500	0,5	-0,190350
16,591833	0,5	-0,200600
16,600167	0,5	-0,188300
16,608500	0,5	-0,180900
16,616833	0,5	-0,180800
16,625167	0,5	-0,180550
16,633500	0,5	-0,180000
16,641833	0,5	-0,163750
16,650167	0,5	-0,126350
16,658500	0,5	-0,058250
16,666833	0,5	0,045100
16,675167	0,5	0,137000
16,683500	0,5	0,269300
16,691833	0,5	0,365600
16,700167	0,5	0,427800
16,708500	0,5	0,470050
16,716833	0,5	0,475450
16,725167	0,5	0,495200
16,733500	0,5	0,472250
16,741833	0,5	0,421800
16,750167	0,5	0,332300
16,758500	0,5	0,223800
16,766833	0,5	0,116500
16,775167	0,5	0,032500
16,783500	0,5	-0,039350
16,791833	0,5	-0,093100
16,800167	0,5	-0,134600
16,808500	0,5	-0,147350
16,816833	0,5	-0,178250
16,825167	0,5	-0,203050
16,833500	0,5	-0,193050
16,841833	0,5	-0,203150
16,850167	0,5	-0,218300
16,858500	0,5	-0,237800
16,866833	0,5	-0,257700
16,875167	0,5	-0,252650
16,883500	0,5	-0,254850
16,891833	0,5	-0,268250
16,900167	0,5	-0,275350
16,908500	0,5	-0,286400
16,916833	0,5	-0,296400
16,925167	0,5	-0,296200
16,933500	0,5	-0,286450
16,941833	0,5	-0,269800
16,950167	0,5	-0,234150
16,958500	0,5	-0,176450
16,966833	0,5	-0,081050
16,975167	0,5	0,045300
16,983500	0,5	0,182550
16,991833	0,5	0,312400
17,000167	0,5	0,422050
17,008500	0,5	0,520150
17,016833	0,5	0,631700
17,025167	0,5	0,766400
17,033500	0,5	0,875450
17,041833	0,5	0,953700
17,050167	0,5	1,032100
17,058500	0,5	1,081050
17,066833	0,5	1,125550
17,075167	0,5	1,163750
17,083500	0,5	1,192650
17,091833	0,5	1,216850
17,100167	0,5	1,220450
17,108500	0,5	1,257800
17,116833	0,5	1,275750
17,125167	0,5	1,334400
17,133500	0,5	1,373500
17,141833	0,5	1,397600
17,150167	0,5	1,394000
17,158500	0,5	1,350100
17,166833	0,5	1,295150
17,175167	0,5	1,229550
17,183500	0,5	1,136600
17,191833	0,5	1,046100
17,200167	0,5	0,965850
17,208500	0,5	0,921400
17,216833	0,5	0,923900
17,225167	0,5	1,002900
17,233500	0,5	1,161650
17,241833	0,5	1,391700
17,250167	0,5	1,696150
17,258500	0,5	2,008750
17,266833	0,5	2,301950
17,275167	0,5	2,530450
17,283500	0,5	2,659350
17,291833	0,5	2,655100
17,300167	0,5	2,504600
17,308500	0,5	2,244700
17,316833	0,5	1,950450
17,325167	0,5	1,614500
17,333500	0,5	1,318400
17,341833	0,5	1,063150
17,350167	0,5	0,878750
17,358500	0,5	0,746100
17,366833	0,5	0,663050
17,375167	0,5	0,612600
17,383500	0,5	0,570400
17,391833	0,5	0,543850
17,400167	0,5	0,511150
17,408500	0,5	0,468000
17,416833	0,5	0,464050
17,425167	0,5	0,451250
17,433500	0,5	0,418850
17,441833	0,5	0,382000
17,450167	0,5	0,313750
17,458500	0,5	0,269100
17,466833	0,5	0,223350
17,475167	0,5	0,206500
17,483500	0,5	0,186600
17,491833	0,5	0,205350
17,500167	0,5	0,224800
17,508500	0,5	0,243700
17,516833	0,5	0,255900
17,525167	0,5	0,251800
17,533500	0,5	0,220300
17,541833	0,5	0,183600
17,550167	0,5	0,118900
17,558500	0,5	0,041100
17,566833	0,5	-0,022850
17,575167	0,5	-0,074200
17,583500	0,5	-0,133150
17,591833	0,5	-0,184150
17,600167	0,5	-0,221400
17,608500	0,5	-0,251900
17,616833	0,5	-0,264950
17,625167	0,5	-0,294850
17,633500	0,5	-0,310250
17,641833	0,5	-0,332900
17,650167	0,5	-0,345900
17,658500	0,5	-0,362350
17,666833	0,5	-0,367550
17,675167	0,5	-0,372900
17,683500	0,5	-0,378800
17,691833	0,5	-0,351400
17,700167	0,5	-0,337150
17,708500	0,5	-0,309700
17,716833	0,5	-0,248350
17,725167	0,5	-0,179900
17,733500	0,5	-0,125150
17,741833	0,5	-0,103000
17,750167	0,5	-0,076650
17,758500	0,5	-0,048950
17,766833	0,5	-0,067750
17,775167	0,5	-0,092500
17,783500	0,5	-0,144700
17,791833	0,5	-0,167800
17,800167	0,5	-0,207250
17,808500	0,5	-0,232250
17,816833	0,5	-0,267700
17,825167	0,5	-0,284700
17,833500	0,5	-0,305100
17,841833	0,5	-0,315900
17,850167	0,5	-0,359600
17,858500	0,5	-0,350300
17,866833	0,5	-0,358650
17,875167	0,5	-0,365650
17,883500	0,5	-0,370250
17,891833	0,5	-0,397250
17,900167	0,5	-0,378500
17,908500	0,5	-0,349800
17,916833	0,5	-0,326650
17,925167	0,5	-0,284400
17,933500	0,5	-0,223750
17,941833	0,5	-0,185250
17,950167	0,5	-0,159850
17,958500	0,5	-0,163750
17,966833	0,5	-0,183050
17,975167	0,5	-0,218900
17,983500	0,5	-0,259900
17,991833	0,5	-0,302100
18,000167	0,5	-0,347600
18,008500	0,5	-0,369900
18,016833	0,5	-0,407700
18,025167	0,5	-0,440500
18,033500	0,5	-0,480800
18,041833	0,5	-0,509200
18,050167	0,5	-0,525200
18,058500	0,5	-0,531600
18,066833	0,5	-0,545700
18,075167	0,5	-0,552700
18,083500	0,5	-0,561000
18,091833	0,5	-0,551100
18,100167	0,5	-0,535900
18,108500	0,5	-0,495200
18,116833	0,5	-0,464750
18,125167	0,5	-0,423200
18,133500	0,5	-0,391100
18,141833	0,5	-0,377800
18,150167	0,5	-0,395850
18,158500	0,5	-0,400550
18,166833	0,5	-0,430650
18,175167	0,5	-0,466050
18,183500	0,5	-0,503400
18,191833	0,5	-0,540800
18,200167	0,5	-0,558200
18,208500	0,5	-0,575550
18,216833	0,5	-0,605450
18,225167	0,5	-0,630100
18,233500	0,5	-0,645300
18,241833	0,5	-0,682800
18,250167	0,5	-0,691400
18,258500	0,5	-0,705400
18,266833	0,5	-0,705150
18,275167	0,5	-0,697800
18,283500	0,5	-0,673750
18,291833	0,5	-0,675900
18,300167	0,5	-0,655250
18,308500	0,5	-0,629200
18,316833	0,5	-0,634350
18,325167	0,5	-0,677500
18,333500	0,5	-0,709600
18,341833	0,5	-0,747750
18,350167	0,5	-0,762500
18,358500	0,5	-0,785500
18,366833	0,5	-0,808700
18,375167	0,5	-0,814200
18,383500	0,5	-0,831850
18,391833	0,5	-0,835250
18,400167	0,5	-0,837300
18,408500	0,5	-0,833400
18,416833	0,5	-0,832450
18,425167	0,5	-0,831100
18,433500	0,5	-0,841800
18,441833	0,5	-0,844300
18,450167	0,5	-0,840100
18,458500	0,5	-0,831600
18,466833	0,5	-0,827650
18,475167	0,5	-0,838200
18,483500	0,5	-0,859950
18,491833	0,5	-0,861950
18,500167	0,5	-0,877950
18,508500	0,5	-0,897600
18,516833	0,5	-0,920500
18,525167	0,5	-0,945300
18,533500	0,5	-0,966250
18,541833	0,5	-0,983350
18,550167	0,5	-0,987900
18,558500	0,5	-1,004500
18,566833	0,5	-1,004450
18,575167	0,5	-1,009950
18,583500	0,5	-1,034150
18,591833	0,5	-1,027300
18,600167	0,5	-1,014350
18,608500	0,5	-1,004600
18,616833	0,5	-0,989300
18,625167	0,5	-1,003700
18,633500	0,5	-0,983400
18,641833	0,5	-0,966850
18,650167	0,5	-0,966700
18,658500	0,5	-0,988400
18,666833	0,5	-0,991850
18,675167	0,5	-1,008400
18,683500	0,5	-1,013250
18,691833	0,5	-1,007950
18,700167	0,5	-1,003550
18,708500	0,5	-0,995050
18,716833	0,5	-0,995450
18,725167	0,5	-0,983000
18,733500	0,5	-0,991250
18,741833	0,5	-0,950700
18,750167	0,5	-0,923200
18,758500	0,5	-0,896450
18,766833	0,5	-0,882800
18,775167	0,5	-0,894550
18,783500	0,5	-0,880750
18,791833	0,5	-0,883250
18,800167	0,5	-0,894400
18,808500	0,5	-0,906100
18,816833	0,5	-0,929250
18,825167	0,5	-0,948100
18,833500	0,5	-0,964200
18,841833	0,5	-0,966800
18,850167	0,5	-0,963450
18,858500	0,5	-0,968950
18,866833	0,5	-0,947850
18,875167	0,5	-0,951400
18,883500	0,5	-0,951000
18,891833	0,5	-0,942100
18,900167	0,5	-0,934250
18,908500	0,5	-0,958450
18,916833	0,5	-0,988950
18,925167	0,5	-1,034400
18,933500	0,5	-1,047100
18,941833	0,5	-1,081700
18,950167	0,5	-1,099600
18,958500	0,5	-1,119650
18,966833	0,5	-1,126350
18,975167	0,5	-1,143150
18,983500	0,5	-1,143800
18,991833	0,5	-1,146600
19,000167	0,5	-1,140700
19,008500	0,5	-1,133450
19,016833	0,5	-1,123950
19,025167	0,5	-1,141150
19,033500	0,5	-1,144000
19,041833	0,5	-1,158500
19,050167	0,5	-1,163750
19,058500	0,5	-1,183700
19,066833	0,5	-1,229350
19,075167	0,5	-1,229300
19,083500	0,5	-1,235350
19,091833	0,5	-1,242500
19,100167	0,5	-1,258900
19,108500	0,5	-1,260500
19,116833	0,5	-1,272650
19,125167	0,5	-1,274100
19,133500	0,5	-1,293400
19,141833	0,5	-1,300000
19,150167	0,5	-1,314550
19,158500	0,5	-1,335050
19,166833	0,5	-1,348250
19,175167	0,5	-1,372900
19,183500	0,5	-1,367900
19,191833	0,5	-1,381200
19,200167	0,5	-1,387750
19,208500	0,5	-1,408850
19,216833	0,5	-1,423200
19,225167	0,5	-1,426750
19,233500	0,5	-1,436450
19,241833	0,5	-1,449850
19,250167	0,5	-1,450950
19,258500	0,5	-1,462600
19,266833	0,5	-1,473150
19,275167	0,5	-1,475250
19,283500	0,5	-1,477700
19,291833	0,5	-1,479100
19,300167	0,5	-1,487100
19,308500	0,5	-1,484500
19,316833	0,5	-1,490300
19,325167	0,5	-1,503900
19,333500	0,5	-1,517050
19,341833	0,5	-1,532500
19,350167	0,5	-1,552150
19,358500	0,5	-1,576200
19,366833	0,5	-1,599200
19,375167	0,5	-1,600150
19,383500	0,5	-1,601600
19,391833	0,5	-1,599250
19,400167	0,5	-1,605450
19,408500	0,5	-1,601200
19,416833	0,5	-1,608400
19,425167	0,5	-1,607550
19,433500	0,5	-1,624650
19,441833	0,5	-1,636200
19,450167	0,5	-1,632450
19,458500	0,5	-1,626750
19,466833	0,5	-1,636650
19,475167	0,5	-1,639600
19,483500	0,5	-1,643150
19,491833	0,5	-1,660950
19,500167	0,5	-1,695000
19,508500	0,5	-1,725100
19,516833	0,5	-1,731300
19,525167	0,5	-1,738000
19,533500	0,5	-1,742250
19,541833	0,5	-1,764450
19,550167	0,5	-1,762500
19,558500	0,5	-1,772750
19,566833	0,5	-1,784100
19,575167	0,5	-1,799000
19,583500	0,5	-1,793150
19,591833	0,5	-1,800350
19,600167	0,5	-1,792200
19,608500	0,5	-1,815450
19,616833	0,5	-1,809850
19,625167	0,5	-1,823550
19,633500	0,5	-1,827950
19,641833	0,5	-1,842850
19,650167	0,5	-1,875600
19,658500	0,5	-1,879100
19,666833	0,5	-1,892600
19,675167	0,5	-1,887550
19,683500	0,5	-1,900900
19,691833	0,5	-1,907950
19,700167	0,5	-1,931950
19,708500	0,5	-1,936500
19,716833	0,5	-1,956750
19,725167	0,5	-1,964100
19,733500	0,5	-1,981450
19,741833	0,5	-1,988300
19,750167	0,5	-1,992350
19,758500	0,5	-2,011800
19,766833	0,5	-2,014650
19,775167	0,5	-2,023500
19,783500	0,5	-2,048000
19,791833	0,5	-2,071200
19,800167	0,5	-2,106400
19,808500	0,5	-2,114450
19,816833	0,5	-2,114950
19,825167	0,5	-2,125500
19,833500	0,5	-2,138750
19,841833	0,5	-2,149350
19,850167	0,5	-2,164700
19,858500	0,5	-2,166300
19,866833	0,5	-2,168700
19,875167	0,5	-2,182150
19,883500	0,5	-2,185600
19,891833	0,5	-2,192500
19,900167	0,5	-2,193000
19,908500	0,5	-2,221000
19,916833	0,5	-2,209700
19,925167	0,5	-2,215350
19,933500	0,5	-2,225400
19,941833	0,5	-2,248550
19,950167	0,5	-2,281750
19,958500	0,5	-2,266500
19,966833	0,5	-2,278850
19,975167	0,5	-2,294850
19,983500	0,5	-2,311250
19,991833	0,5	-2,322850
20,000167	0,5	-2,344900
20,008500	0,5	-2,363600
20,016833	0,5	-2,381700
20,025167	0,5	-2,398500
20,033500	0,5	-2,410250
20,041833	0,5	-2,408100
20,050167	0,5	-2,434000
20,058500	0,5	-2,449800
20,066833	0,5	-2,453350
20,075167	0,5	-2,463800
20,083500	0,5	-2,496800
20,091833	0,5	-2,533750
20,100167	0,5	-2,548200
20,108500	0,5	-2,551000
20,116833	0,5	-2,563700
20,125167	0,5	-2,565750
20,133500	0,5	-2,578050
20,141833	0,5	-2,574600
20,150167	0,5	-2,586850
20,158500	0,5	-2,586250
20,166833	0,5	-2,580600
20,175167	0,5	-2,581650
20,183500	0,5	-2,572200
20,191833	0,5	-2,571050
20,200167	0,5	-2,585250
20,208500	0,5	-2,590000
20,216833	0,5	-2,605700
20,225167	0,5	-2,623550
20,233500	0,5	-2,650400
20,241833	0,5	-2,689850
20,250167	0,5	-2,716250
20,258500	0,5	-2,718300
20,266833	0,5	-2,727750
20,275167	0,5	-2,738500
20,283500	0,5	-2,745400
20,291833	0,5	-2,761450
20,300167	0,5	-2,780050
20,308500	0,5	-2,797250
20,316833	0,5	-2,815650
20,325167	0,5	-2,843300
20,333500	0,5	-2,846200
20,341833	0,5	-2,864500
20,350167	0,5	-2,900000
20,358500	0,5	-2,912050
20,366833	0,5	-2,941450
20,375167	0,5	-2,962750
20,383500	0,5	-3,020250
20,391833	0,5	-3,055800
20,400167	0,5	-3,069850
20,408500	0,5	-3,089350
20,416833	0,5	-3,110250
20,425167	0,5	-3,118200
20,433500	0,5	-3,143950
20,441833	0,5	-3,156850
20,450167	0,5	-3,181050
20,458500	0,5	-3,203250
20,466833	0,5	-3,220350
20,475167	0,5	-3,232450
20,483500	0,5	-3,233000
20,491833	0,5	-3,245000
20,500167	0,5	-3,256150
20,508500	0,5	-3,247900
20,516833	0,5	-3,244250
20,525167	0,5	-3,254600
20,533500	0,5	-3,280150
20,541833	0,5	-3,298550
20,550167	0,5	-3,334200
20,558500	0,5	-3,388050
20,566833	0,5	-3,438200
20,575167	0,5	-3,491000
20,583500	0,5	-3,530750
20,591833	0,5	-3,579900
20,600167	0,5	-3,611900
20,608500	0,5	-3,642950
20,616833	0,5	-3,711400
20,625167	0,5	-3,693350
20,633500	0,5	-3,724100
20,641833	0,5	-3,763750
20,650167	0,5	-3,791400
20,658500	0,5	-3,826900
20,666833	0,5	-3,861250
20,675167	0,5	-3,891900
20,683500	0,5	-3,896000
20,691833	0,5	-3,873600
20,700167	0,5	-3,847850
20,708500	0,5	-3,823350
20,716833	0,5	-3,830900
20,725167	0,5	-3,859050
20,733500	0,5	-3,922500
20,741833	0,5	-3,986550
20,750167	0,5	-4,064000
20,758500	0,5	-4,153050
20,766833	0,5	-4,207050
20,775167	0,5	-4,245650
20,783500	0,5	-4,291000
20,791833	0,5	-4,347600
20,800167	0,5	-4,396300
20,808500	0,5	-4,453650
20,816833	0,5	-4,506200
20,825167	0,5	-4,579050
20,833500	0,5	-4,612350
20,841833	0,5	-4,650000
20,850167	0,5	-4,673450
20,858500	0,5	-4,727900
20,866833	0,5	-4,750950
20,875167	0,5	-4,769400
20,883500	0,5	-4,794050
20,891833	0,5	-4,822000
20,900167	0,5	-4,854100
20,908500	0,5	-4,901200
20,916833	0,5	-4,928750
20,925167	0,5	-4,952300
20,933500	0,5	-4,999000
20,941833	0,5	-5,039700
20,950167	0,5	-5,085650
20,958500	0,5	-5,137200
20,966833	0,5	-5,201950
20,975167	0,5	-5,259950
20,983500	0,5	-5,281000
20,991833	0,5	-5,309800
21,000167	0,5	-5,357700
21,008500	0,5	-5,388600
21,016833	0,5	-5,423600
21,025167	0,5	-5,443900
21,033500	0,5	-5,481000
21,041833	0,5	-5,508950
21,050167	0,5	-5,543100
21,058500	0,5	-5,566700
21,066833	0,5	-5,568350
21,075167	0,5	-5,583950
21,083500	0,5	-5,625400
21,091833	0,5	-5,659700
21,100167	0,5	-5,706600
21,108500	0,5	-5,759450
21,116833	0,5	-5,818300
21,125167	0,5	-5,858800
21,133500	0,5	-5,875950
21,141833	0,5	-5,913200
21,150167	0,5	-5,944600
21,158500	0,5	-5,971500
21,166833	0,5	-6,007450
21,175167	0,5	-6,027050
21,183500	0,5	-6,038000
21,191833	0,5	-6,066200
21,200167	0,5	-6,091400
21,208500	0,5	-6,080000
21,216833	0,5	-6,084900
21,225167	0,5	-6,096000
21,233500	0,5	-6,120350
21,241833	0,5	-6,147250
21,250167	0,5	-6,174250
21,258500	0,5	-6,210250
21,266833	0,5	-6,258500
21,275167	0,5	-6,253150
21,283500	0,5	-6,263800
21,291833	0,5	-6,282150
21,300167	0,5	-6,302150
21,308500	0,5	-6,327950
21,316833	0,5	-6,360950
21,325167	0,5	-6,375550
21,333500	0,5	-6,402050
21,341833	0,5	-6,421100
21,350167	0,5	-6,440750
21,358500	0,5	-6,432200
21,366833	0,5	-6,442150
21,375167	0,5	-6,458850
21,383500	0,5	-6,484050
21,391833	0,5	-6,508650
21,400167	0,5	-6,531650
21,408500	0,5	-6,578950
21,416833	0,5	-6,603650
21,425167	0,5	-6,620300
21,433500	0,5	-6,622200
21,441833	0,5	-6,651500
21,450167	0,5	-6,649450
21,458500	0,5	-6,667100
21,466833	0,5	-6,683650
21,475167	0,5	-6,708000
21,483500	0,5	-6,740050
21,491833	0,5	-6,747150
21,500167	0,5	-6,734400
21,508500	0,5	-6,732200
21,516833	0,5	-6,743950
21,525167	0,5	-6,759850
21,533500	0,5	-6,780800
21,541833	0,5	-6,804200
21,550167	0,5	-6,847750
21,558500	0,5	-6,874000
21,566833	0,5	-6,887550
21,575167	0,5	-6,901250
21,583500	0,5	-6,907350
21,591833	0,5	-6,911700
21,600167	0,5	-6,907100
21,608500	0,5	-6,910500
21,616833	0,5	-6,912000
21,625167	0,5	-6,910150
21,633500	0,5	-6,901850
21,641833	0,5	-6,893400
21,650167	0,5	-6,859850
21,658500	0,5	-6,834750
21,666833	0,5	-6,836100
21,675167	0,5	-6,858350
21,683500	0,5	-6,886550
21,691833	0,5	-6,926450
21,700167	0,5	-6,978850
21,708500	0,5	-7,005100
21,716833	0,5	-7,011350
21,725167	0,5	-7,024600
21,733500	0,5	-7,034400
21,741833	0,5	-7,049500
21,750167	0,5	-7,072700
21,758500	0,5	-7,095350
21,766833	0,5	-7,111250
21,775167	0,5	-7,131050
21,783500	0,5	-7,158550
21,791833	0,5	-7,157250
21,800167	0,5	-7,148100
21,808500	0,5	-7,173700
21,816833	0,5	-7,187650
21,825167	0,5	-7,195600
21,833500	0,5	-7,228550
21,841833	0,5	-7,249450
21,850167	0,5	-7,289850
21,858500	0,5	-7,282300
21,866833	0,5	-7,302050
21,875167	0,5	-7,307000
21,883500	0,5	-7,321850
21,891833	0,5	-7,333300
21,900167	0,5	-7,336000
21,908500	0,5	-7,307500
21,916833	0,5	-7,260650
21,925167	0,5	-7,206000
21,933500	0,5	-7,158500
21,941833	0,5	-7,124550
21,950167	0,5	-7,160600
21,958500	0,5	-7,219700
21,966833	0,5	-7,271350
21,975167	0,5	-7,317550
21,983500	0,5	-7,387850
21,991833	0,5	-7,451750
22,000167	0,5	-7,480400
22,008500	0,5	-7,517800
22,016833	0,5	-7,544050
22,025167	0,5	-7,582450
22,033500	0,5	-7,605500
22,041833	0,5	-7,628450
22,050167	0,5	-7,663450
22,058500	0,5	-7,678300
22,066833	0,5	-7,700350
22,075167	0,5	-7,721300
22,083500	0,5	-7,747500
22,091833	0,5	-7,753300
22,100167	0,5	-7,798100
22,108500	0,5	-7,803350
22,116833	0,5	-7,820000
22,125167	0,5	-7,829250
22,133500	0,5	-7,863700
22,141833	0,5	-7,902950
22,150167	0,5	-7,904000
22,158500	0,5	-7,899900
22,166833	0,5	-7,918850
22,175167	0,5	-7,933800
22,183500	0,5	-7,959400
22,191833	0,5	-7,957750
22,200167	0,5	-7,971100
22,208500	0,5	-7,968750
22,216833	0,5	-7,972050
22,225167	0,5	-7,983050
22,233500	0,5	-7,993050
22,241833	0,5	-8,008450
22,250167	0,5	-7,992150
22,258500	0,5	-7,993350
22,266833	0,5	-7,982900
22,275167	0,5	-7,989150
22,283500	0,5	-7,994700
22,291833	0,5	-8,011800
22,300167	0,5	-7,985100
22,308500	0,5	-7,970750
22,316833	0,5	-7,962100
22,325167	0,5	-7,959500
22,333500	0,5	-7,932800
22,341833	0,5	-7,879850
22,350167	0,5	-7,807050
22,358500	0,5	-7,714600
22,366833	0,5	-7,618200
22,375167	0,5	-7,566500
22,383500	0,5	-7,606950
22,391833	0,5	-7,640950
22,400167	0,5	-7,690150
22,408500	0,5	-7,736300
22,416833	0,5	-7,786000
22,425167	0,5	-7,825300
22,433500	0,5	-7,874900
22,441833	0,5	-7,888800
22,450167	0,5	-7,904150
22,458500	0,5	-7,913650
22,466833	0,5	-7,927200
22,475167	0,5	-7,911750
22,483500	0,5	-7,933850
22,491833	0,5	-7,931450
22,500167	0,5	-7,913700
22,508500	0,5	-7,915050
22,516833	0,5	-7,904050
22,525167	0,5	-7,944300
22,533500	0,5	-7,913400
22,541833	0,5	-7,880100
22,550167	0,5	-7,819950
22,558500	0,5	-7,801000
22,566833	0,5	-7,794100
22,575167	0,5	-7,797750
22,583500	0,5	-7,799600
22,591833	0,5	-7,781800
22,600167	0,5	-7,770800
22,608500	0,5	-7,769750
22,616833	0,5	-7,760700
22,625167	0,5	-7,764100
22,633500	0,5	-7,749800
22,641833	0,5	-7,739000
22,650167	0,5	-7,728800
22,658500	0,5	-7,732850
22,666833	0,5	-7,770000
22,675167	0,5	-7,798750
22,683500	0,5	-7,797800
22,691833	0,5	-7,769150
22,700167	0,5	-7,763650
22,708500	0,5	-7,781250
22,716833	0,5	-7,796600
22,725167	0,5	-7,823900
22,733500	0,5	-7,843350
22,741833	0,5	-7,843500
22,750167	0,5	-7,862700
22,758500	0,5	-7,870000
22,766833	0,5	-7,886700
22,775167	0,5	-7,900250
22,783500	0,5	-7,900200
22,791833	0,5	-7,916300
22,800167	0,5	-7,931600
22,808500	0,5	-7,959900
22,816833	0,5	-8,055450
22,825167	0,5	-8,096900
22,833500	0,5	-8,081350
22,841833	0,5	-8,087500
22,850167	0,5	-8,113900
22,858500	0,5	-8,151400
22,866833	0,5	-8,181450
22,875167	0,5	-8,214300
22,883500	0,5	-8,251450
22,891833	0,5	-8,274900
22,900167	0,5	-8,300750
22,908500	0,5	-8,316300
22,916833	0,5	-8,338200
22,925167	0,5	-8,328700
22,933500	0,5	-8,332050
22,941833	0,5	-8,333800
22,950167	0,5	-8,322650
22,958500	0,5	-8,293550
22,966833	0,5	-8,311400
22,975167	0,5	-8,301700
22,983500	0,5	-8,271800
22,991833	0,5	-8,288850
23,000167	0,5	-8,275600
23,008500	0,5	-8,249750
23,016833	0,5	-8,209750
23,025167	0,5	-8,203150
23,033500	0,5	-8,158650
23,041833	0,5	-8,134800
23,050167	0,5	-8,081750
23,058500	0,5	-8,027250
23,066833	0,5	-7,962050
23,075167	0,5	-7,901300
23,083500	0,5	-7,835750
23,091833	0,5	-7,753000
23,100167	0,5	-7,685650
23,108500	0,5	-7,567250
23,116833	0,5	-7,497850
23,125167	0,5	-7,411650
23,133500	0,5	-7,389300
23,141833	0,5	-7,325050
23,150167	0,5	-7,250350
23,158500	0,5	-7,157350
23,166833	0,5	-7,072950
23,175167	0,5	-7,017300
23,183500	0,5	-6,939800
23,191833	0,5	-6,851300
23,200167	0,5	-6,776700
23,208500	0,5	-6,689700
23,216833	0,5	-6,603050
23,225167	0,5	-6,497050
23,233500	0,5	-6,403900
23,241833	0,5	-6,317000
23,250167	0,5	-6,200200
23,258500	0,5	-6,099250
23,266833	0,5	-6,009800
23,275167	0,5	-5,930000
23,283500	0,5	-5,855000
23,291833	0,5	-5,773150
23,300167	0,5	-5,687200
23,308500	0,5	-5,597600
23,316833	0,5	-5,525800
23,325167	0,5	-5,463500
23,333500	0,5	-5,379750
23,341833	0,5	-5,307250
23,350167	0,5	-5,234500
23,358500	0,5	-5,171850
23,366833	0,5	-5,079750
23,375167	0,5	-5,013050
23,383500	0,5	-4,930400
23,391833	0,5	-4,853600
23,400167	0,5	-4,760000
23,408500	0,5	-4,684800
23,416833	0,5	-4,610750
23,425167	0,5	-4,556850
23,433500	0,5	-4,500850
23,441833	0,5	-4,438500
23,450167	0,5	-4,370050
23,458500	0,5	-4,306150
23,466833	0,5	-4,252600
23,475167	0,5	-4,205150
23,483500	0,5	-4,155450
23,491833	0,5	-4,110850
23,500167	0,5	-4,068500
23,508500	0,5	-4,017650
23,516833	0,5	-3,972450
23,525167	0,5	-3,925150
23,533500	0,5	-3,876050
23,541833	0,5	-3,823800
23,550167	0,5	-3,783250
23,558500	0,5	-3,733350
23,566833	0,5	-3,690650
23,575167	0,5	-3,656800
23,583500	0,5	-3,618900
23,591833	0,5	-3,583000
23,600167	0,5	-3,549050
23,608500	0,5	-3,519000
23,616833	0,5	-3,484700
23,625167	0,5	-3,453700
23,633500	0,5	-3,425200
23,641833	0,5	-3,396350
23,650167	0,5	-3,365750
23,658500	0,5	-3,340650
23,666833	0,5	-3,305600
23,675167	0,5	-3,272200
23,683500	0,5	-3,244000
23,691833	0,5	-3,212600
23,700167	0,5	-3,214300
23,708500	0,5	-3,180350
23,716833	0,5	-3,145150
23,725167	0,5	-3,106600
23,733500	0,5	-3,086600
23,741833	0,5	-3,073100
23,750167	0,5	-3,061150
23,758500	0,5	-3,049900
23,766833	0,5	-3,025800
23,775167	0,5	-3,003150
23,783500	0,5	-2,987700
23,791833	0,5	-2,963050
23,800167	0,5	-2,934050
23,808500	0,5	-2,909900
23,816833	0,5	-2,876900
23,825167	0,5	-2,847050
23,833500	0,5	-2,819700
23,841833	0,5	-2,810800
23,850167	0,5	-2,786800
23,858500	0,5	-2,796400
23,866833	0,5	-2,718450
23,875167	0,5	-2,687050
23,883500	0,5	-2,667500
23,891833	0,5	-2,654550
23,900167	0,5	-2,662000
23,908500	0,5	-2,642850
23,916833	0,5	-2,608350
23,925167	0,5	-2,587850
23,933500	0,5	-2,569100
23,941833	0,5	-2,554900
23,950167	0,5	-2,533100
23,958500	0,5	-2,513550
23,966833	0,5	-2,483100
23,975167	0,5	-2,458650
23,983500	0,5	-2,445700
23,991833	0,5	-2,457250
24,000167	0,5	-2,432500
24,008500	0,5	-2,436550
24,016833	0,5	-2,373100
24,025167	0,5	-2,334150
24,033500	0,5	-2,315300
24,041833	0,5	-2,296350
24,050167	0,5	-2,311100
24,058500	0,5	-2,266200
24,066833	0,5	-2,240300
24,075167	0,5	-2,209650
24,083500	0,5	-2,201900
24,091833	0,5	-2,176200
24,100167	0,5	-2,153250
24,108500	0,5	-2,116750
24,116833	0,5	-2,085750
24,125167	0,5	-2,066100
24,133500	0,5	-2,041150
24,141833	0,5	-2,048800
24,150167	0,5	-2,027550
24,158500	0,5	-2,017550
24,166833	0,5	-1,962150
24,175167	0,5	-1,943150
24,183500	0,5	-1,932400
24,191833	0,5	-1,955650
24,200167	0,5	-1,953500
24,208500	0,5	-1,912700
24,216833	0,5	-1,879400
24,225167	0,5	-1,872200
24,233500	0,5	-1,838600
24,241833	0,5	-1,819950
24,250167	0,5	-1,795400
24,258500	0,5	-1,775150
24,266833	0,5	-1,746350
24,275167	0,5	-1,726950
24,283500	0,5	-1,724050
24,291833	0,5	-1,700100
24,300167	0,5	-1,695650
24,308500	0,5	-1,653200
24,316833	0,5	-1,620150
24,325167	0,5	-1,598200
24,333500	0,5	-1,590100
24,341833	0,5	-1,593400
24,350167	0,5	-1,595900
24,358500	0,5	-1,553400
24,366833	0,5	-1,548050
24,375167	0,5	-1,535700
24,383500	0,5	-1,519950
24,391833	0,5	-1,509100
24,400167	0,5	-1,499000
24,408500	0,5	-1,469600
24,416833	0,5	-1,452550
24,425167	0,5	-1,436050
24,433500	0,5	-1,433150
24,441833	0,5	-1,399650
24,450167	0,5	-1,410900
24,458500	0,5	-1,371550
24,466833	0,5	-1,356900
24,475167	0,5	-1,338100
24,483500	0,5	-1,336050
24,491833	0,5	-1,365200
24,500167	0,5	-1,339600
24,508500	0,5	-1,321300
24,516833	0,5	-1,298650
24,525167	0,5	-1,286900
24,533500	0,5	-1,267300
24,541833	0,5	-1,253550
24,550167	0,5	-1,232950
24,558500	0,5	-1,214150
24,566833	0,5	-1,201350
24,575167	0,5	-1,191400
24,583500	0,5	-1,169900
24,591833	0,5	-1,174750
24,600167	0,5	-1,163450
24,608500	0,5	-1,140950
24,616833	0,5	-1,124950
24,625167	0,5	-1,127000
24,633500	0,5	-1,134900
24,641833	0,5	-1,143500
24,650167	0,5	-1,124000
24,658500	0,5	-1,115300
24,666833	0,5	-1,107700
24,675167	0,5	-1,096600
24,683500	0,5	-1,085250
24,691833	0,5	-1,071900
24,700167	0,5	-1,062950
24,708500	0,5	-1,045200
24,716833	0,5	-1,031350
24,725167	0,5	-1,013650
24,733500	0,5	-1,008300
24,741833	0,5	-0,994950
24,750167	0,5	-0,985600
24,758500	0,5	-0,965850
24,766833	0,5	-0,959050
24,775167	0,5	-0,949800
24,783500	0,5	-0,957800
24,791833	0,5	-0,960600
24,800167	0,5	-0,952400
24,808500	0,5	-0,943950
24,816833	0,5	-0,937550
24,825167	0,5	-0,929100
24,833500	0,5	-0,924650
24,841833	0,5	-0,918200
24,850167	0,5	-0,909050
24,858500	0,5	-0,904250
24,866833	0,5	-0,897550
24,875167	0,5	-0,888000
24,883500	0,5	-0,876850
24,891833	0,5	-0,890500
24,900167	0,5	-0,872950
24,908500	0,5	-0,863900
24,916833	0,5	-0,849750
24,925167	0,5	-0,845000
24,933500	0,5	-0,847800
24,941833	0,5	-0,838750
24,950167	0,5	-0,830550
24,958500	0,5	-0,820850
24,966833	0,5	-0,810400
24,975167	0,5	-0,808050
24,983500	0,5	-0,803700
24,991833	0,5	-0,798550
25,000167	0,5	-0,794750
25,008500	0,5	-0,789850
25,016833	0,5	-0,790300
25,025167	0,5	-0,778700
25,033500	0,5	-0,781000
25,041833	0,5	-0,787600
25,050167	0,5	-0,775750
25,058500	0,5	-0,771750
25,066833	0,5	-0,773900
25,075167	0,5	-0,771150
25,083500	0,5	-0,778900
25,091833	0,5	-0,771950
25,100167	0,5	-0,769700
25,108500	0,5	-0,760450
25,116833	0,5	-0,758500
25,125167	0,5	-0,753400
25,133500	0,5	-0,746700
25,141833	0,5	-0,740300
25,150167	0,5	-0,729900
25,158500	0,5	-0,727050
25,166833	0,5	-0,719250
25,175167	0,5	-0,716500
25,183500	0,5	-0,721600
25,191833	0,5	-0,717250
25,200167	0,5	-0,710550
25,208500	0,5	-0,711800
25,216833	0,5	-0,716250
25,225167	0,5	-0,714250
25,233500	0,5	-0,713700
25,241833	0,5	-0,717050
25,250167	0,5	-0,716500
25,258500	0,5	-0,718600
25,266833	0,5	-0,715450
25,275167	0,5	-0,712350
25,283500	0,5	-0,709050
25,291833	0,5	-0,704600
25,300167	0,5	-0,702100
25,308500	0,5	-0,699250
25,316833	0,5	-0,695000
25,325167	0,5	-0,685650
25,333500	0,5	-0,688500
25,341833	0,5	-0,679150
25,350167	0,5	-0,677450
25,358500	0,5	-0,674350
25,366833	0,5	-0,673850
25,375167	0,5	-0,670600
25,383500	0,5	-0,665700
25,391833	0,5	-0,660750
25,400167	0,5	-0,667350
25,408500	0,5	-0,667700
25,416833	0,5	-0,667050
25,425167	0,5	-0,670450
25,433500	0,5	-0,664100
25,441833	0,5	-0,664800
25,450167	0,5	-0,669250
25,458500	0,5	-0,668550
25,466833	0,5	-0,667500
25,475167	0,5	-0,671450
25,483500	0,5	-0,659900
25,491833	0,5	-0,665700
25,500167	0,5	-0,662700
25,508500	0,5	-0,659050
25,516833	0,5	-0,655900
25,525167	0,5	-0,641900
25,533500	0,5	-0,642600
25,541833	0,5	-0,642550
25,550167	0,5	-0,641300
25,558500	0,5	-0,642750
25,566833	0,5	-0,637450
25,575167	0,5	-0,640500
25,583500	0,5	-0,642650
25,591833	0,5	-0,637150
25,600167	0,5	-0,639800
25,608500	0,5	-0,639200
25,616833	0,5	-0,639950
25,625167	0,5	-0,637450
25,633500	0,5	-0,641400
25,641833	0,5	-0,641050
25,650167	0,5	-0,643750
25,658500	0,5	-0,643400
25,666833	0,5	-0,633550
25,675167	0,5	-0,625650
25,683500	0,5	-0,627250
25,691833	0,5	-0,624800
25,700167	0,5	-0,623700
25,708500	0,5	-0,620400
25,716833	0,5	-0,620150
25,725167	0,5	-0,617500
25,733500	0,5	-0,618850
25,741833	0,5	-0,624050
25,750167	0,5	-0,618200
25,758500	0,5	-0,620300
25,766833	0,5	-0,618000
25,775167	0,5	-0,613650
25,783500	0,5	-0,609600
25,791833	0,5	-0,617450
25,800167	0,5	-0,612500
25,808500	0,5	-0,607750
25,816833	0,5	-0,595650
25,825167	0,5	-0,591450
25,833500	0,5	-0,587100
25,841833	0,5	-0,593200
25,850167	0,5	-0,584550
25,858500	0,5	-0,592650
25,866833	0,5	-0,585300
25,875167	0,5	-0,589050
25,883500	0,5	-0,585150
25,891833	0,5	-0,579950
25,900167	0,5	-0,580250
25,908500	0,5	-0,569950
25,916833	0,5	-0,568400
25,925167	0,5	-0,562300
25,933500	0,5	-0,569600
25,941833	0,5	-0,564400
25,950167	0,5	-0,562500
25,958500	0,5	-0,558150
25,966833	0,5	-0,544750
25,975167	0,5	-0,537800
25,983500	0,5	-0,544400
25,991833	0,5	-0,528750
26,000167	0,5	-0,534000
