File Path	chrom://chromeleon01/ikbm_chromeleon/2022/ICS-5000/ED1/Esteban/20220427_Cell_Amandas_mutants.seq/729.smp/ED_1.channel/ED_1.chm
Channel	ED_1

Injection Information:
Data Vault	ikbm_chromeleon
Injection	EG_PASC_4b
Injection Number	31
Position	RD1
Comment	
Processing Method	Stop sequence after Cell Death
Instrument Method	ICS5000_PA200_FullNative_Ox_26min_ED1
Type	Unknown
Status	Finished
Injection Date	28.04.2022
Injection Time	03:14:16
Injection Volume (µl)	5,0
Dilution Factor	1,0000
Weight	1,0000

Chromatogram Data Information:
Time Min. (min)	0,000167
Time Max. (min)	26,000167
Data Points	3121
Detector	EDet1
Generating Data System	Chromeleon 7.2.9.11323
Exporting Data System	Chromeleon 7.2.9.0
Operator	Instrument Controller
Signal Quantity	
Signal Unit	nC
Signal Min.	-7,838850
Signal Max.	2 751,517891
Channel	ED_1
Driver Name	DC-5000
Channel Type	Evaluation
Min. Step (s)	0,5
Max. Step (s)	0,5
Average Step (s)	0,5

Signal Parameter Information:
Signal Info	

Chromatogram Data:
Time (min)	Step (s)	Value (nC)
0,000167	n.a.	-0,050200
0,008500	0,5	-0,078000
0,016833	0,5	-0,076100
0,025167	0,5	-0,073200
0,033500	0,5	-0,070350
0,041833	0,5	-0,034200
0,050167	0,5	0,009150
0,058500	0,5	0,025300
0,066833	0,5	0,014900
0,075167	0,5	0,018550
0,083500	0,5	0,009200
0,091833	0,5	0,007450
0,100167	0,5	0,006700
0,108500	0,5	0,014650
0,116833	0,5	0,011500
0,125167	0,5	0,010300
0,133500	0,5	0,012900
0,141833	0,5	-0,013000
0,150167	0,5	-0,004850
0,158500	0,5	0,019300
0,166833	0,5	-0,003550
0,175167	0,5	-0,015400
0,183500	0,5	-0,007100
0,191833	0,5	0,018600
0,200167	0,5	0,055900
0,208500	0,5	0,045400
0,216833	0,5	0,036200
0,225167	0,5	0,024150
0,233500	0,5	0,025050
0,241833	0,5	0,017300
0,250167	0,5	0,017700
0,258500	0,5	0,016200
0,266833	0,5	0,006250
0,275167	0,5	0,010350
0,283500	0,5	-0,001650
0,291833	0,5	-0,004000
0,300167	0,5	0,060250
0,308500	0,5	0,099800
0,316833	0,5	0,051300
0,325167	0,5	-0,007550
0,333500	0,5	-0,030300
0,341833	0,5	-0,006250
0,350167	0,5	0,014200
0,358500	0,5	0,024900
0,366833	0,5	0,005450
0,375167	0,5	0,014950
0,383500	0,5	-0,007950
0,391833	0,5	0,002350
0,400167	0,5	-0,007450
0,408500	0,5	-0,010150
0,416833	0,5	-0,016200
0,425167	0,5	-0,013050
0,433500	0,5	-0,012550
0,441833	0,5	-0,023850
0,450167	0,5	0,002300
0,458500	0,5	-0,014300
0,466833	0,5	-0,034000
0,475167	0,5	-0,030550
0,483500	0,5	-0,020350
0,491833	0,5	0,016200
0,500167	0,5	0,013300
0,508500	0,5	-0,006850
0,516833	0,5	-0,003400
0,525167	0,5	-0,013050
0,533500	0,5	-0,011050
0,541833	0,5	-0,024950
0,550167	0,5	-0,007650
0,558500	0,5	-0,016300
0,566833	0,5	-0,011050
0,575167	0,5	-0,013400
0,583500	0,5	-0,022150
0,591833	0,5	-0,020150
0,600167	0,5	0,015300
0,608500	0,5	-0,014800
0,616833	0,5	-0,028500
0,625167	0,5	-0,019750
0,633500	0,5	-0,005650
0,641833	0,5	0,029100
0,650167	0,5	0,003750
0,658500	0,5	0,016800
0,666833	0,5	0,013550
0,675167	0,5	0,013350
0,683500	0,5	0,002150
0,691833	0,5	0,000250
0,700167	0,5	-0,007550
0,708500	0,5	-0,006900
0,716833	0,5	-0,009550
0,725167	0,5	-0,005350
0,733500	0,5	-0,022350
0,741833	0,5	0,002300
0,750167	0,5	-0,009150
0,758500	0,5	-0,009200
0,766833	0,5	-0,025900
0,775167	0,5	-0,002700
0,783500	0,5	0,022050
0,791833	0,5	0,044150
0,800167	0,5	0,021350
0,808500	0,5	0,014500
0,816833	0,5	0,019100
0,825167	0,5	0,007800
0,833500	0,5	0,013800
0,841833	0,5	0,015250
0,850167	0,5	0,013000
0,858500	0,5	0,017550
0,866833	0,5	0,026200
0,875167	0,5	0,027300
0,883500	0,5	0,010050
0,891833	0,5	0,036700
0,900167	0,5	0,023300
0,908500	0,5	0,008550
0,916833	0,5	0,012300
0,925167	0,5	0,023950
0,933500	0,5	0,070400
0,941833	0,5	0,060150
0,950167	0,5	0,055950
0,958500	0,5	0,056250
0,966833	0,5	0,070450
0,975167	0,5	0,063800
0,983500	0,5	0,063300
0,991833	0,5	0,063250
1,000167	0,5	0,053500
1,008500	0,5	0,062400
1,016833	0,5	0,057950
1,025167	0,5	0,059700
1,033500	0,5	0,042000
1,041833	0,5	0,078250
1,050167	0,5	0,046850
1,058500	0,5	0,055100
1,066833	0,5	0,052300
1,075167	0,5	0,081750
1,083500	0,5	0,120750
1,091833	0,5	0,125050
1,100167	0,5	0,106250
1,108500	0,5	0,108400
1,116833	0,5	0,103750
1,125167	0,5	0,104600
1,133500	0,5	0,102550
1,141833	0,5	0,107850
1,150167	0,5	0,098800
1,158500	0,5	0,118950
1,166833	0,5	0,118200
1,175167	0,5	0,097400
1,183500	0,5	0,102300
1,191833	0,5	0,104600
1,200167	0,5	0,092750
1,208500	0,5	0,100950
1,216833	0,5	0,106600
1,225167	0,5	0,131050
1,233500	0,5	0,169800
1,241833	0,5	0,162600
1,250167	0,5	0,165650
1,258500	0,5	0,172400
1,266833	0,5	0,176300
1,275167	0,5	0,168650
1,283500	0,5	0,180600
1,291833	0,5	0,170650
1,300167	0,5	0,172800
1,308500	0,5	0,172850
1,316833	0,5	0,164050
1,325167	0,5	0,163200
1,333500	0,5	0,194700
1,341833	0,5	0,183450
1,350167	0,5	0,173900
1,358500	0,5	0,192350
1,366833	0,5	0,204400
1,375167	0,5	0,244300
1,383500	0,5	0,251650
1,391833	0,5	0,258200
1,400167	0,5	0,255950
1,408500	0,5	0,266750
1,416833	0,5	0,253850
1,425167	0,5	0,262950
1,433500	0,5	0,259350
1,441833	0,5	0,271700
1,450167	0,5	0,275400
1,458500	0,5	0,299000
1,466833	0,5	0,288250
1,475167	0,5	0,294350
1,483500	0,5	0,314300
1,491833	0,5	0,305850
1,500167	0,5	0,297450
1,508500	0,5	0,313500
1,516833	0,5	0,322600
1,525167	0,5	0,367550
1,533500	0,5	0,372100
1,541833	0,5	0,369300
1,550167	0,5	0,372000
1,558500	0,5	0,390700
1,566833	0,5	0,401500
1,575167	0,5	0,340900
1,583500	0,5	0,002600
1,591833	0,5	-0,943350
1,600167	0,5	-1,654450
1,608500	0,5	-0,615800
1,616833	0,5	2,134000
1,625167	0,5	5,467550
1,633500	0,5	9,525850
1,641833	0,5	13,938150
1,650167	0,5	17,003750
1,658500	0,5	17,631850
1,666833	0,5	16,609650
1,675167	0,5	15,063550
1,683500	0,5	13,494000
1,691833	0,5	12,088850
1,700167	0,5	10,955050
1,708500	0,5	10,349050
1,716833	0,5	10,923900
1,725167	0,5	13,430500
1,733500	0,5	16,879650
1,741833	0,5	18,247100
1,750167	0,5	16,358650
1,758500	0,5	13,219450
1,766833	0,5	10,724950
1,775167	0,5	9,545750
1,783500	0,5	9,504550
1,791833	0,5	10,263250
1,800167	0,5	11,151850
1,808500	0,5	11,563750
1,816833	0,5	11,221800
1,825167	0,5	10,418400
1,833500	0,5	9,525500
1,841833	0,5	8,724900
1,850167	0,5	7,995550
1,858500	0,5	7,329400
1,866833	0,5	6,726250
1,875167	0,5	6,226000
1,883500	0,5	5,801300
1,891833	0,5	5,439900
1,900167	0,5	5,135850
1,908500	0,5	4,843750
1,916833	0,5	4,591950
1,925167	0,5	4,441950
1,933500	0,5	4,338500
1,941833	0,5	4,461650
1,950167	0,5	4,912550
1,958500	0,5	5,479500
1,966833	0,5	5,723800
1,975167	0,5	5,748000
1,983500	0,5	6,973350
1,991833	0,5	12,398150
2,000167	0,5	27,240250
2,008500	0,5	59,420451
2,016833	0,5	129,289652
2,025167	0,5	293,021254
2,033500	0,5	599,748609
2,041833	0,5	913,294564
2,050167	0,5	1 010,193015
2,058500	0,5	880,398713
2,066833	0,5	662,637660
2,075167	0,5	477,796707
2,083500	0,5	355,792405
2,091833	0,5	277,166754
2,100167	0,5	223,082203
2,108500	0,5	183,773203
2,116833	0,5	154,168802
2,125167	0,5	131,397652
2,133500	0,5	113,641802
2,141833	0,5	99,500001
2,150167	0,5	88,059501
2,158500	0,5	79,190901
2,166833	0,5	72,400751
2,175167	0,5	66,430501
2,183500	0,5	60,443101
2,191833	0,5	54,795801
2,200167	0,5	49,989801
2,208500	0,5	46,090751
2,216833	0,5	42,910951
2,225167	0,5	40,282851
2,233500	0,5	38,054401
2,241833	0,5	36,215401
2,250167	0,5	34,673001
2,258500	0,5	33,390500
2,266833	0,5	32,271550
2,275167	0,5	31,298350
2,283500	0,5	30,499550
2,291833	0,5	29,752850
2,300167	0,5	28,998350
2,308500	0,5	28,241150
2,316833	0,5	27,559750
2,325167	0,5	26,954950
2,333500	0,5	26,451900
2,341833	0,5	26,017450
2,350167	0,5	25,617000
2,358500	0,5	25,263950
2,366833	0,5	25,007000
2,375167	0,5	24,776000
2,383500	0,5	24,629850
2,391833	0,5	24,580200
2,400167	0,5	24,693850
2,408500	0,5	25,061600
2,416833	0,5	25,780000
2,425167	0,5	26,956900
2,433500	0,5	28,481550
2,441833	0,5	30,023800
2,450167	0,5	30,759100
2,458500	0,5	30,231300
2,466833	0,5	29,120000
2,475167	0,5	28,330150
2,483500	0,5	27,783600
2,491833	0,5	27,287900
2,500167	0,5	26,756400
2,508500	0,5	26,271450
2,516833	0,5	25,821150
2,525167	0,5	25,395150
2,533500	0,5	25,000700
2,541833	0,5	24,642650
2,550167	0,5	24,318550
2,558500	0,5	24,046000
2,566833	0,5	23,828000
2,575167	0,5	23,733850
2,583500	0,5	23,803550
2,591833	0,5	24,128250
2,600167	0,5	24,932300
2,608500	0,5	26,644250
2,616833	0,5	29,567600
2,625167	0,5	33,562801
2,633500	0,5	40,716501
2,641833	0,5	64,180651
2,650167	0,5	112,317302
2,658500	0,5	176,780103
2,666833	0,5	258,961254
2,675167	0,5	384,469456
2,683500	0,5	667,782810
2,691833	0,5	1 247,832869
2,700167	0,5	1 561,935623
2,708500	0,5	2 443,967436
2,716833	0,5	2 671,089640
2,725167	0,5	2 749,469091
2,733500	0,5	2 751,517891
2,741833	0,5	2 710,345090
2,750167	0,5	2 637,022689
2,758500	0,5	2 535,011788
2,766833	0,5	2 405,514986
2,775167	0,5	2 250,282834
2,783500	0,5	2 074,397231
2,791833	0,5	1 888,375078
2,800167	0,5	1 706,167925
2,808500	0,5	1 542,382923
2,816833	0,5	1 402,450821
2,825167	0,5	1 283,267769
2,833500	0,5	1 176,050618
2,841833	0,5	1 072,503366
2,850167	0,5	967,829664
2,858500	0,5	861,996563
2,866833	0,5	760,122361
2,875167	0,5	666,868610
2,883500	0,5	584,407709
2,891833	0,5	514,154308
2,900167	0,5	451,915207
2,908500	0,5	397,716156
2,916833	0,5	350,397155
2,925167	0,5	309,427105
2,933500	0,5	274,301704
2,941833	0,5	244,296954
2,950167	0,5	218,768853
2,958500	0,5	197,171053
2,966833	0,5	178,590353
2,975167	0,5	162,550102
2,983500	0,5	148,534902
2,991833	0,5	136,167752
3,000167	0,5	125,149102
3,008500	0,5	115,166752
3,016833	0,5	106,178902
3,025167	0,5	98,074851
3,033500	0,5	90,795401
3,041833	0,5	84,209051
3,050167	0,5	78,297451
3,058500	0,5	72,932851
3,066833	0,5	68,076801
3,075167	0,5	63,664351
3,083500	0,5	59,655451
3,091833	0,5	55,971801
3,100167	0,5	52,566751
3,108500	0,5	49,431801
3,116833	0,5	46,470651
3,125167	0,5	43,742501
3,133500	0,5	41,216601
3,141833	0,5	38,913051
3,150167	0,5	36,792851
3,158500	0,5	34,828901
3,166833	0,5	33,007600
3,175167	0,5	31,370600
3,183500	0,5	29,880350
3,191833	0,5	28,564300
3,200167	0,5	27,379200
3,208500	0,5	26,363300
3,216833	0,5	25,532450
3,225167	0,5	24,965800
3,233500	0,5	24,768200
3,241833	0,5	25,056700
3,250167	0,5	25,809300
3,258500	0,5	26,790700
3,266833	0,5	27,542750
3,275167	0,5	27,693300
3,283500	0,5	26,990750
3,291833	0,5	25,508850
3,300167	0,5	23,529300
3,308500	0,5	21,396950
3,316833	0,5	19,438600
3,325167	0,5	17,774150
3,333500	0,5	16,430050
3,341833	0,5	15,341700
3,350167	0,5	14,450400
3,358500	0,5	13,696000
3,366833	0,5	13,047800
3,375167	0,5	12,477450
3,383500	0,5	11,976300
3,391833	0,5	11,531450
3,400167	0,5	11,166100
3,408500	0,5	10,802600
3,416833	0,5	10,483400
3,425167	0,5	10,209300
3,433500	0,5	9,984450
3,441833	0,5	9,799250
3,450167	0,5	9,628000
3,458500	0,5	9,472500
3,466833	0,5	9,338200
3,475167	0,5	9,206900
3,483500	0,5	9,084600
3,491833	0,5	8,979600
3,500167	0,5	8,863350
3,508500	0,5	8,748150
3,516833	0,5	8,626900
3,525167	0,5	8,503150
3,533500	0,5	8,366050
3,541833	0,5	8,249350
3,550167	0,5	8,106650
3,558500	0,5	7,946250
3,566833	0,5	7,767000
3,575167	0,5	7,599400
3,583500	0,5	7,429950
3,591833	0,5	7,255800
3,600167	0,5	7,051250
3,608500	0,5	6,846800
3,616833	0,5	6,642350
3,625167	0,5	6,454150
3,633500	0,5	6,273650
3,641833	0,5	6,110450
3,650167	0,5	5,948800
3,658500	0,5	5,782900
3,666833	0,5	5,638600
3,675167	0,5	5,474200
3,683500	0,5	5,300350
3,691833	0,5	5,147150
3,700167	0,5	4,974100
3,708500	0,5	4,796000
3,716833	0,5	4,630900
3,725167	0,5	4,475900
3,733500	0,5	4,364600
3,741833	0,5	4,230950
3,750167	0,5	4,102200
3,758500	0,5	3,983000
3,766833	0,5	3,895800
3,775167	0,5	3,798600
3,783500	0,5	3,736250
3,791833	0,5	3,696550
3,800167	0,5	3,696300
3,808500	0,5	3,734450
3,816833	0,5	3,821800
3,825167	0,5	3,944650
3,833500	0,5	4,047250
3,841833	0,5	4,159350
3,850167	0,5	4,163700
3,858500	0,5	4,107550
3,866833	0,5	3,979950
3,875167	0,5	3,817500
3,883500	0,5	3,633700
3,891833	0,5	3,417400
3,900167	0,5	3,205650
3,908500	0,5	3,037650
3,916833	0,5	2,883150
3,925167	0,5	2,750700
3,933500	0,5	2,640400
3,941833	0,5	2,537550
3,950167	0,5	2,437350
3,958500	0,5	2,346950
3,966833	0,5	2,267000
3,975167	0,5	2,167950
3,983500	0,5	2,078950
3,991833	0,5	2,017250
4,000167	0,5	1,927500
4,008500	0,5	1,857350
4,016833	0,5	1,805150
4,025167	0,5	1,775500
4,033500	0,5	1,773600
4,041833	0,5	1,738650
4,050167	0,5	1,729350
4,058500	0,5	1,727550
4,066833	0,5	1,743700
4,075167	0,5	1,732300
4,083500	0,5	1,721850
4,091833	0,5	1,680200
4,100167	0,5	1,630700
4,108500	0,5	1,559450
4,116833	0,5	1,484150
4,125167	0,5	1,391550
4,133500	0,5	1,308400
4,141833	0,5	1,227400
4,150167	0,5	1,123050
4,158500	0,5	1,034700
4,166833	0,5	0,969100
4,175167	0,5	0,925450
4,183500	0,5	0,889150
4,191833	0,5	0,841800
4,200167	0,5	0,799000
4,208500	0,5	0,776450
4,216833	0,5	0,763700
4,225167	0,5	0,762050
4,233500	0,5	0,776350
4,241833	0,5	0,810100
4,250167	0,5	0,871400
4,258500	0,5	0,986850
4,266833	0,5	1,155850
4,275167	0,5	1,415450
4,283500	0,5	1,802800
4,291833	0,5	2,330250
4,300167	0,5	3,011550
4,308500	0,5	3,897900
4,316833	0,5	4,971200
4,325167	0,5	6,246400
4,333500	0,5	7,682100
4,341833	0,5	9,285900
4,350167	0,5	11,119800
4,358500	0,5	13,267850
4,366833	0,5	15,895700
4,375167	0,5	19,305150
4,383500	0,5	23,971450
4,391833	0,5	30,618550
4,400167	0,5	40,199951
4,408500	0,5	53,638801
4,416833	0,5	71,514951
4,425167	0,5	93,400251
4,433500	0,5	117,589502
4,441833	0,5	141,084102
4,450167	0,5	160,871202
4,458500	0,5	174,713753
4,466833	0,5	181,754753
4,475167	0,5	182,278753
4,483500	0,5	177,325103
4,491833	0,5	168,215303
4,500167	0,5	156,340902
4,508500	0,5	142,767602
4,516833	0,5	128,418802
4,525167	0,5	113,987652
4,533500	0,5	100,028401
4,541833	0,5	86,917451
4,550167	0,5	74,912401
4,558500	0,5	64,174151
4,566833	0,5	54,724001
4,575167	0,5	46,624601
4,583500	0,5	39,739401
4,591833	0,5	33,973501
4,600167	0,5	29,196950
4,608500	0,5	25,294400
4,616833	0,5	22,112250
4,625167	0,5	19,500200
4,633500	0,5	17,306000
4,641833	0,5	15,469900
4,650167	0,5	13,902600
4,658500	0,5	12,561900
4,666833	0,5	11,362750
4,675167	0,5	10,317800
4,683500	0,5	9,374600
4,691833	0,5	8,530850
4,700167	0,5	7,769650
4,708500	0,5	7,087750
4,716833	0,5	6,465750
4,725167	0,5	5,940250
4,733500	0,5	5,447450
4,741833	0,5	5,022700
4,750167	0,5	4,662800
4,758500	0,5	4,353300
4,766833	0,5	4,112050
4,775167	0,5	3,867100
4,783500	0,5	3,641500
4,791833	0,5	3,416500
4,800167	0,5	3,199350
4,808500	0,5	2,964600
4,816833	0,5	2,741950
4,825167	0,5	2,506850
4,833500	0,5	2,273950
4,841833	0,5	2,050250
4,850167	0,5	1,847700
4,858500	0,5	1,661750
4,866833	0,5	1,483600
4,875167	0,5	1,352300
4,883500	0,5	1,199250
4,891833	0,5	1,064750
4,900167	0,5	0,958050
4,908500	0,5	0,875650
4,916833	0,5	0,832600
4,925167	0,5	0,765850
4,933500	0,5	0,712100
4,941833	0,5	0,683800
4,950167	0,5	0,657100
4,958500	0,5	0,651200
4,966833	0,5	0,646750
4,975167	0,5	0,658550
4,983500	0,5	0,671600
4,991833	0,5	0,694400
5,000167	0,5	0,707500
5,008500	0,5	0,724250
5,016833	0,5	0,719900
5,025167	0,5	0,734300
5,033500	0,5	0,706100
5,041833	0,5	0,690900
5,050167	0,5	0,668000
5,058500	0,5	0,643900
5,066833	0,5	0,636150
5,075167	0,5	0,586900
5,083500	0,5	0,555750
5,091833	0,5	0,522350
5,100167	0,5	0,493000
5,108500	0,5	0,472850
5,116833	0,5	0,459350
5,125167	0,5	0,441650
5,133500	0,5	0,430600
5,141833	0,5	0,415300
5,150167	0,5	0,412500
5,158500	0,5	0,392600
5,166833	0,5	0,388400
5,175167	0,5	0,374050
5,183500	0,5	0,351100
5,191833	0,5	0,333300
5,200167	0,5	0,323700
5,208500	0,5	0,325000
5,216833	0,5	0,327600
5,225167	0,5	0,312650
5,233500	0,5	0,298350
5,241833	0,5	0,283800
5,250167	0,5	0,272850
5,258500	0,5	0,242250
5,266833	0,5	0,224000
5,275167	0,5	0,203000
5,283500	0,5	0,179600
5,291833	0,5	0,169500
5,300167	0,5	0,142250
5,308500	0,5	0,130150
5,316833	0,5	0,131350
5,325167	0,5	0,120550
5,333500	0,5	0,105300
5,341833	0,5	0,108500
5,350167	0,5	0,121350
5,358500	0,5	0,154900
5,366833	0,5	0,174850
5,375167	0,5	0,183500
5,383500	0,5	0,185950
5,391833	0,5	0,199950
5,400167	0,5	0,200050
5,408500	0,5	0,203900
5,416833	0,5	0,213200
5,425167	0,5	0,213350
5,433500	0,5	0,202300
5,441833	0,5	0,196800
5,450167	0,5	0,195750
5,458500	0,5	0,192350
5,466833	0,5	0,195550
5,475167	0,5	0,180600
5,483500	0,5	0,175900
5,491833	0,5	0,168850
5,500167	0,5	0,185900
5,508500	0,5	0,200850
5,516833	0,5	0,209350
5,525167	0,5	0,206200
5,533500	0,5	0,223500
5,541833	0,5	0,232200
5,550167	0,5	0,253500
5,558500	0,5	0,276250
5,566833	0,5	0,295950
5,575167	0,5	0,314600
5,583500	0,5	0,344350
5,591833	0,5	0,378900
5,600167	0,5	0,398050
5,608500	0,5	0,449900
5,616833	0,5	0,491750
5,625167	0,5	0,528850
5,633500	0,5	0,587400
5,641833	0,5	0,666250
5,650167	0,5	0,782550
5,658500	0,5	0,894950
5,666833	0,5	1,003000
5,675167	0,5	1,130450
5,683500	0,5	1,257950
5,691833	0,5	1,390900
5,700167	0,5	1,495650
5,708500	0,5	1,589600
5,716833	0,5	1,642200
5,725167	0,5	1,665600
5,733500	0,5	1,645900
5,741833	0,5	1,586200
5,750167	0,5	1,487850
5,758500	0,5	1,407200
5,766833	0,5	1,272150
5,775167	0,5	1,137400
5,783500	0,5	1,016800
5,791833	0,5	0,918400
5,800167	0,5	0,857150
5,808500	0,5	0,767300
5,816833	0,5	0,714850
5,825167	0,5	0,664400
5,833500	0,5	0,641450
5,841833	0,5	0,619100
5,850167	0,5	0,614250
5,858500	0,5	0,604850
5,866833	0,5	0,599750
5,875167	0,5	0,593900
5,883500	0,5	0,595000
5,891833	0,5	0,586400
5,900167	0,5	0,580750
5,908500	0,5	0,588300
5,916833	0,5	0,569400
5,925167	0,5	0,552800
5,933500	0,5	0,545650
5,941833	0,5	0,549000
5,950167	0,5	0,561400
5,958500	0,5	0,550450
5,966833	0,5	0,533400
5,975167	0,5	0,530900
5,983500	0,5	0,523100
5,991833	0,5	0,523150
6,000167	0,5	0,515900
6,008500	0,5	0,515900
6,016833	0,5	0,511000
6,025167	0,5	0,517600
6,033500	0,5	0,525500
6,041833	0,5	0,532100
6,050167	0,5	0,536450
6,058500	0,5	0,550750
6,066833	0,5	0,544100
6,075167	0,5	0,555650
6,083500	0,5	0,569050
6,091833	0,5	0,605000
6,100167	0,5	0,641400
6,108500	0,5	0,644100
6,116833	0,5	0,660800
6,125167	0,5	0,692650
6,133500	0,5	0,715250
6,141833	0,5	0,730100
6,150167	0,5	0,761150
6,158500	0,5	0,776150
6,166833	0,5	0,793750
6,175167	0,5	0,806350
6,183500	0,5	0,826300
6,191833	0,5	0,824850
6,200167	0,5	0,853300
6,208500	0,5	0,848050
6,216833	0,5	0,848750
6,225167	0,5	0,850450
6,233500	0,5	0,868100
6,241833	0,5	0,894500
6,250167	0,5	0,919850
6,258500	0,5	0,934550
6,266833	0,5	0,954500
6,275167	0,5	0,979350
6,283500	0,5	1,007800
6,291833	0,5	1,043100
6,300167	0,5	1,098050
6,308500	0,5	1,162150
6,316833	0,5	1,245900
6,325167	0,5	1,349500
6,333500	0,5	1,457800
6,341833	0,5	1,598000
6,350167	0,5	1,758900
6,358500	0,5	1,916500
6,366833	0,5	2,074400
6,375167	0,5	2,220550
6,383500	0,5	2,338550
6,391833	0,5	2,430050
6,400167	0,5	2,457100
6,408500	0,5	2,426400
6,416833	0,5	2,346300
6,425167	0,5	2,239450
6,433500	0,5	2,107850
6,441833	0,5	1,983250
6,450167	0,5	1,873600
6,458500	0,5	1,773750
6,466833	0,5	1,694150
6,475167	0,5	1,638150
6,483500	0,5	1,599850
6,491833	0,5	1,580500
6,500167	0,5	1,579100
6,508500	0,5	1,566550
6,516833	0,5	1,566650
6,525167	0,5	1,568950
6,533500	0,5	1,592250
6,541833	0,5	1,608100
6,550167	0,5	1,624700
6,558500	0,5	1,635250
6,566833	0,5	1,667200
6,575167	0,5	1,689750
6,583500	0,5	1,728000
6,591833	0,5	1,763750
6,600167	0,5	1,818400
6,608500	0,5	1,885300
6,616833	0,5	1,952150
6,625167	0,5	2,027950
6,633500	0,5	2,098450
6,641833	0,5	2,179850
6,650167	0,5	2,229850
6,658500	0,5	2,253650
6,666833	0,5	2,255900
6,675167	0,5	2,239450
6,683500	0,5	2,216250
6,691833	0,5	2,166100
6,700167	0,5	2,093450
6,708500	0,5	2,024700
6,716833	0,5	1,955800
6,725167	0,5	1,901900
6,733500	0,5	1,853550
6,741833	0,5	1,827600
6,750167	0,5	1,794100
6,758500	0,5	1,792400
6,766833	0,5	1,785150
6,775167	0,5	1,786500
6,783500	0,5	1,783600
6,791833	0,5	1,817950
6,800167	0,5	1,826750
6,808500	0,5	1,855100
6,816833	0,5	1,889350
6,825167	0,5	1,929100
6,833500	0,5	1,979050
6,841833	0,5	2,012400
6,850167	0,5	2,042800
6,858500	0,5	2,064350
6,866833	0,5	2,080700
6,875167	0,5	2,083750
6,883500	0,5	2,084750
6,891833	0,5	2,069650
6,900167	0,5	2,050450
6,908500	0,5	2,026900
6,916833	0,5	2,011600
6,925167	0,5	1,975850
6,933500	0,5	1,958300
6,941833	0,5	1,946850
6,950167	0,5	1,926150
6,958500	0,5	1,905500
6,966833	0,5	1,904150
6,975167	0,5	1,898600
6,983500	0,5	1,920600
6,991833	0,5	1,919050
7,000167	0,5	1,929450
7,008500	0,5	1,950500
7,016833	0,5	1,978950
7,025167	0,5	2,001700
7,033500	0,5	2,033650
7,041833	0,5	2,070500
7,050167	0,5	2,104500
7,058500	0,5	2,166850
7,066833	0,5	2,243350
7,075167	0,5	2,332350
7,083500	0,5	2,439250
7,091833	0,5	2,560950
7,100167	0,5	2,663150
7,108500	0,5	2,768800
7,116833	0,5	2,856300
7,125167	0,5	2,930650
7,133500	0,5	2,969500
7,141833	0,5	2,992200
7,150167	0,5	3,019550
7,158500	0,5	3,073000
7,166833	0,5	3,140600
7,175167	0,5	3,234950
7,183500	0,5	3,361250
7,191833	0,5	3,533000
7,200167	0,5	3,776450
7,208500	0,5	4,094400
7,216833	0,5	4,452650
7,225167	0,5	4,758750
7,233500	0,5	4,975350
7,241833	0,5	5,024800
7,250167	0,5	4,939750
7,258500	0,5	4,773100
7,266833	0,5	4,589500
7,275167	0,5	4,423650
7,283500	0,5	4,277850
7,291833	0,5	4,128000
7,300167	0,5	3,978750
7,308500	0,5	3,803100
7,316833	0,5	3,616900
7,325167	0,5	3,423850
7,333500	0,5	3,236700
7,341833	0,5	3,066450
7,350167	0,5	2,935000
7,358500	0,5	2,859800
7,366833	0,5	2,840550
7,375167	0,5	2,883800
7,383500	0,5	2,986750
7,391833	0,5	3,115550
7,400167	0,5	3,270800
7,408500	0,5	3,436700
7,416833	0,5	3,619350
7,425167	0,5	3,809600
7,433500	0,5	3,981100
7,441833	0,5	4,129250
7,450167	0,5	4,216400
7,458500	0,5	4,222950
7,466833	0,5	4,138650
7,475167	0,5	3,994650
7,483500	0,5	3,824600
7,491833	0,5	3,646300
7,500167	0,5	3,474150
7,508500	0,5	3,308200
7,516833	0,5	3,150650
7,525167	0,5	3,022450
7,533500	0,5	2,924850
7,541833	0,5	2,855600
7,550167	0,5	2,844600
7,558500	0,5	2,892700
7,566833	0,5	3,033000
7,575167	0,5	3,274600
7,583500	0,5	3,625750
7,591833	0,5	4,063300
7,600167	0,5	4,504150
7,608500	0,5	4,876150
7,616833	0,5	5,155600
7,625167	0,5	5,404350
7,633500	0,5	5,789450
7,641833	0,5	6,593350
7,650167	0,5	8,268100
7,658500	0,5	11,303950
7,666833	0,5	15,852950
7,675167	0,5	21,184550
7,683500	0,5	25,608900
7,691833	0,5	27,544550
7,700167	0,5	26,653900
7,708500	0,5	23,916350
7,716833	0,5	20,794150
7,725167	0,5	18,286000
7,733500	0,5	16,765700
7,741833	0,5	16,076250
7,750167	0,5	15,794300
7,758500	0,5	15,437900
7,766833	0,5	14,687850
7,775167	0,5	13,480350
7,783500	0,5	11,970750
7,791833	0,5	10,471700
7,800167	0,5	9,274300
7,808500	0,5	8,591950
7,816833	0,5	8,503000
7,825167	0,5	8,902400
7,833500	0,5	9,467100
7,841833	0,5	9,867650
7,850167	0,5	9,852500
7,858500	0,5	9,413200
7,866833	0,5	8,738650
7,875167	0,5	8,150450
7,883500	0,5	7,964100
7,891833	0,5	8,423200
7,900167	0,5	9,614850
7,908500	0,5	11,359700
7,916833	0,5	13,118000
7,925167	0,5	14,146300
7,933500	0,5	13,934750
7,941833	0,5	12,549000
7,950167	0,5	10,532700
7,958500	0,5	8,520150
7,966833	0,5	6,919800
7,975167	0,5	5,806250
7,983500	0,5	5,039700
7,991833	0,5	4,504550
8,000167	0,5	4,099600
8,008500	0,5	3,799950
8,016833	0,5	3,599850
8,025167	0,5	3,487750
8,033500	0,5	3,453650
8,041833	0,5	3,473000
8,050167	0,5	3,512600
8,058500	0,5	3,550150
8,066833	0,5	3,571450
8,075167	0,5	3,582050
8,083500	0,5	3,583000
8,091833	0,5	3,563200
8,100167	0,5	3,516700
8,108500	0,5	3,439400
8,116833	0,5	3,356800
8,125167	0,5	3,271050
8,133500	0,5	3,191800
8,141833	0,5	3,111850
8,150167	0,5	3,025200
8,158500	0,5	2,934500
8,166833	0,5	2,845450
8,175167	0,5	2,765200
8,183500	0,5	2,708500
8,191833	0,5	2,672950
8,200167	0,5	2,645400
8,208500	0,5	2,619400
8,216833	0,5	2,608750
8,225167	0,5	2,600800
8,233500	0,5	2,608050
8,241833	0,5	2,623200
8,250167	0,5	2,649100
8,258500	0,5	2,665750
8,266833	0,5	2,703250
8,275167	0,5	2,755550
8,283500	0,5	2,844250
8,291833	0,5	3,003000
8,300167	0,5	3,244050
8,308500	0,5	3,567450
8,316833	0,5	3,915400
8,325167	0,5	4,223150
8,333500	0,5	4,422450
8,341833	0,5	4,474350
8,350167	0,5	4,405150
8,358500	0,5	4,316250
8,366833	0,5	4,333900
8,375167	0,5	4,589050
8,383500	0,5	5,179400
8,391833	0,5	6,116900
8,400167	0,5	7,306800
8,408500	0,5	8,485800
8,416833	0,5	9,365350
8,425167	0,5	9,688600
8,433500	0,5	9,462350
8,441833	0,5	8,841950
8,450167	0,5	8,047700
8,458500	0,5	7,210950
8,466833	0,5	6,453600
8,475167	0,5	5,818100
8,483500	0,5	5,314500
8,491833	0,5	4,930450
8,500167	0,5	4,650700
8,508500	0,5	4,440900
8,516833	0,5	4,265900
8,525167	0,5	4,076900
8,533500	0,5	3,855500
8,541833	0,5	3,625000
8,550167	0,5	3,407350
8,558500	0,5	3,251250
8,566833	0,5	3,140750
8,575167	0,5	3,053950
8,583500	0,5	2,966350
8,591833	0,5	2,872850
8,600167	0,5	2,776950
8,608500	0,5	2,677950
8,616833	0,5	2,589000
8,625167	0,5	2,510650
8,633500	0,5	2,453500
8,641833	0,5	2,403350
8,650167	0,5	2,373300
8,658500	0,5	2,347800
8,666833	0,5	2,329700
8,675167	0,5	2,309550
8,683500	0,5	2,280350
8,691833	0,5	2,247900
8,700167	0,5	2,213650
8,708500	0,5	2,178050
8,716833	0,5	2,147900
8,725167	0,5	2,113300
8,733500	0,5	2,094350
8,741833	0,5	2,089700
8,750167	0,5	2,095300
8,758500	0,5	2,105250
8,766833	0,5	2,122500
8,775167	0,5	2,136850
8,783500	0,5	2,152200
8,791833	0,5	2,187500
8,800167	0,5	2,242600
8,808500	0,5	2,329000
8,816833	0,5	2,456650
8,825167	0,5	2,608250
8,833500	0,5	2,779400
8,841833	0,5	2,947850
8,850167	0,5	3,092900
8,858500	0,5	3,195200
8,866833	0,5	3,239250
8,875167	0,5	3,226450
8,883500	0,5	3,153150
8,891833	0,5	3,050050
8,900167	0,5	2,934050
8,908500	0,5	2,814050
8,916833	0,5	2,722400
8,925167	0,5	2,681550
8,933500	0,5	2,687800
8,941833	0,5	2,750400
8,950167	0,5	2,852800
8,958500	0,5	2,973100
8,966833	0,5	3,103550
8,975167	0,5	3,226300
8,983500	0,5	3,340700
8,991833	0,5	3,435150
9,000167	0,5	3,492950
9,008500	0,5	3,525100
9,016833	0,5	3,506650
9,025167	0,5	3,463800
9,033500	0,5	3,426400
9,041833	0,5	3,471400
9,050167	0,5	3,648000
9,058500	0,5	3,967600
9,066833	0,5	4,404950
9,075167	0,5	4,895400
9,083500	0,5	5,341050
9,091833	0,5	5,624500
9,100167	0,5	5,674600
9,108500	0,5	5,462450
9,116833	0,5	5,051950
9,125167	0,5	4,536250
9,133500	0,5	4,013600
9,141833	0,5	3,564450
9,150167	0,5	3,230250
9,158500	0,5	3,019100
9,166833	0,5	2,918300
9,175167	0,5	2,924650
9,183500	0,5	3,010100
9,191833	0,5	3,144400
9,200167	0,5	3,269500
9,208500	0,5	3,336350
9,216833	0,5	3,305850
9,225167	0,5	3,212300
9,233500	0,5	3,077700
9,241833	0,5	2,939450
9,250167	0,5	2,799750
9,258500	0,5	2,677100
9,266833	0,5	2,583450
9,275167	0,5	2,518950
9,283500	0,5	2,483300
9,291833	0,5	2,469450
9,300167	0,5	2,483600
9,308500	0,5	2,504700
9,316833	0,5	2,537850
9,325167	0,5	2,585000
9,333500	0,5	2,630300
9,341833	0,5	2,660350
9,350167	0,5	2,670850
9,358500	0,5	2,647450
9,366833	0,5	2,595150
9,375167	0,5	2,534350
9,383500	0,5	2,463850
9,391833	0,5	2,385700
9,400167	0,5	2,292900
9,408500	0,5	2,206200
9,416833	0,5	2,117600
9,425167	0,5	2,042850
9,433500	0,5	1,979000
9,441833	0,5	1,937700
9,450167	0,5	1,912900
9,458500	0,5	1,901600
9,466833	0,5	1,900650
9,475167	0,5	1,910400
9,483500	0,5	1,916400
9,491833	0,5	1,915650
9,500167	0,5	1,900650
9,508500	0,5	1,875900
9,516833	0,5	1,849900
9,525167	0,5	1,817250
9,533500	0,5	1,790800
9,541833	0,5	1,771150
9,550167	0,5	1,762800
9,558500	0,5	1,764200
9,566833	0,5	1,772350
9,575167	0,5	1,785300
9,583500	0,5	1,802500
9,591833	0,5	1,807300
9,600167	0,5	1,802950
9,608500	0,5	1,788650
9,616833	0,5	1,752850
9,625167	0,5	1,715250
9,633500	0,5	1,685500
9,641833	0,5	1,650350
9,650167	0,5	1,622050
9,658500	0,5	1,586050
9,666833	0,5	1,550550
9,675167	0,5	1,525500
9,683500	0,5	1,491850
9,691833	0,5	1,462300
9,700167	0,5	1,441550
9,708500	0,5	1,419900
9,716833	0,5	1,405350
9,725167	0,5	1,393150
9,733500	0,5	1,382250
9,741833	0,5	1,384900
9,750167	0,5	1,384650
9,758500	0,5	1,388300
9,766833	0,5	1,386050
9,775167	0,5	1,399050
9,783500	0,5	1,416650
9,791833	0,5	1,442150
9,800167	0,5	1,468250
9,808500	0,5	1,485200
9,816833	0,5	1,501650
9,825167	0,5	1,514400
9,833500	0,5	1,537600
9,841833	0,5	1,569550
9,850167	0,5	1,609400
9,858500	0,5	1,666550
9,866833	0,5	1,738550
9,875167	0,5	1,808550
9,883500	0,5	1,869350
9,891833	0,5	1,924350
9,900167	0,5	1,944100
9,908500	0,5	1,931250
9,916833	0,5	1,891300
9,925167	0,5	1,820250
9,933500	0,5	1,740300
9,941833	0,5	1,659200
9,950167	0,5	1,582400
9,958500	0,5	1,522000
9,966833	0,5	1,483000
9,975167	0,5	1,454250
9,983500	0,5	1,434050
9,991833	0,5	1,424950
10,000167	0,5	1,413200
10,008500	0,5	1,404550
10,016833	0,5	1,398150
10,025167	0,5	1,397600
10,033500	0,5	1,398050
10,041833	0,5	1,403550
10,050167	0,5	1,406150
10,058500	0,5	1,410650
10,066833	0,5	1,417100
10,075167	0,5	1,428950
10,083500	0,5	1,448950
10,091833	0,5	1,473050
10,100167	0,5	1,500850
10,108500	0,5	1,536800
10,116833	0,5	1,580800
10,125167	0,5	1,617400
10,133500	0,5	1,644800
10,141833	0,5	1,644550
10,150167	0,5	1,645050
10,158500	0,5	1,618550
10,166833	0,5	1,578900
10,175167	0,5	1,538950
10,183500	0,5	1,493000
10,191833	0,5	1,455600
10,200167	0,5	1,419200
10,208500	0,5	1,392350
10,216833	0,5	1,370850
10,225167	0,5	1,351050
10,233500	0,5	1,341750
10,241833	0,5	1,331800
10,250167	0,5	1,327750
10,258500	0,5	1,318500
10,266833	0,5	1,311750
10,275167	0,5	1,311850
10,283500	0,5	1,310650
10,291833	0,5	1,311350
10,300167	0,5	1,312800
10,308500	0,5	1,317900
10,316833	0,5	1,323300
10,325167	0,5	1,327600
10,333500	0,5	1,342850
10,341833	0,5	1,360850
10,350167	0,5	1,378100
10,358500	0,5	1,408400
10,366833	0,5	1,439650
10,375167	0,5	1,492050
10,383500	0,5	1,554250
10,391833	0,5	1,632250
10,400167	0,5	1,708550
10,408500	0,5	1,786050
10,416833	0,5	1,843650
10,425167	0,5	1,874300
10,433500	0,5	1,864600
10,441833	0,5	1,832200
10,450167	0,5	1,782100
10,458500	0,5	1,728100
10,466833	0,5	1,676450
10,475167	0,5	1,635900
10,483500	0,5	1,597750
10,491833	0,5	1,571050
10,500167	0,5	1,550550
10,508500	0,5	1,537200
10,516833	0,5	1,530600
10,525167	0,5	1,537100
10,533500	0,5	1,552500
10,541833	0,5	1,574050
10,550167	0,5	1,616200
10,558500	0,5	1,684750
10,566833	0,5	1,810500
10,575167	0,5	1,994800
10,583500	0,5	2,268600
10,591833	0,5	2,626550
10,600167	0,5	3,039050
10,608500	0,5	3,461950
10,616833	0,5	3,808100
10,625167	0,5	4,014050
10,633500	0,5	4,026350
10,641833	0,5	3,865300
10,650167	0,5	3,568600
10,658500	0,5	3,217950
10,666833	0,5	2,876500
10,675167	0,5	2,589150
10,683500	0,5	2,363050
10,691833	0,5	2,177900
10,700167	0,5	2,018000
10,708500	0,5	1,861500
10,716833	0,5	1,714300
10,725167	0,5	1,574600
10,733500	0,5	1,442350
10,741833	0,5	1,324750
10,750167	0,5	1,235400
10,758500	0,5	1,169750
10,766833	0,5	1,125350
10,775167	0,5	1,113950
10,783500	0,5	1,114850
10,791833	0,5	1,131350
10,800167	0,5	1,153550
10,808500	0,5	1,176500
10,816833	0,5	1,213250
10,825167	0,5	1,242100
10,833500	0,5	1,269800
10,841833	0,5	1,283300
10,850167	0,5	1,290650
10,858500	0,5	1,291100
10,866833	0,5	1,281550
10,875167	0,5	1,271550
10,883500	0,5	1,258150
10,891833	0,5	1,244050
10,900167	0,5	1,230500
10,908500	0,5	1,223900
10,916833	0,5	1,210500
10,925167	0,5	1,211150
10,933500	0,5	1,198400
10,941833	0,5	1,193550
10,950167	0,5	1,186350
10,958500	0,5	1,176800
10,966833	0,5	1,175700
10,975167	0,5	1,177150
10,983500	0,5	1,179800
10,991833	0,5	1,179250
11,000167	0,5	1,185900
11,008500	0,5	1,186650
11,016833	0,5	1,192050
11,025167	0,5	1,209800
11,033500	0,5	1,224250
11,041833	0,5	1,253500
11,050167	0,5	1,291700
11,058500	0,5	1,332650
11,066833	0,5	1,373600
11,075167	0,5	1,426550
11,083500	0,5	1,468900
11,091833	0,5	1,501350
11,100167	0,5	1,514550
11,108500	0,5	1,515800
11,116833	0,5	1,523050
11,125167	0,5	1,514900
11,133500	0,5	1,498000
11,141833	0,5	1,480400
11,150167	0,5	1,463200
11,158500	0,5	1,442950
11,166833	0,5	1,423900
11,175167	0,5	1,417450
11,183500	0,5	1,420800
11,191833	0,5	1,430850
11,200167	0,5	1,454800
11,208500	0,5	1,474800
11,216833	0,5	1,504600
11,225167	0,5	1,552650
11,233500	0,5	1,599900
11,241833	0,5	1,657850
11,250167	0,5	1,717450
11,258500	0,5	1,759350
11,266833	0,5	1,785500
11,275167	0,5	1,773900
11,283500	0,5	1,741500
11,291833	0,5	1,690850
11,300167	0,5	1,632850
11,308500	0,5	1,575550
11,316833	0,5	1,533550
11,325167	0,5	1,488700
11,333500	0,5	1,454500
11,341833	0,5	1,426050
11,350167	0,5	1,397400
11,358500	0,5	1,365000
11,366833	0,5	1,342500
11,375167	0,5	1,325100
11,383500	0,5	1,307850
11,391833	0,5	1,295850
11,400167	0,5	1,295300
11,408500	0,5	1,301050
11,416833	0,5	1,323300
11,425167	0,5	1,348650
11,433500	0,5	1,382300
11,441833	0,5	1,443700
11,450167	0,5	1,514600
11,458500	0,5	1,618550
11,466833	0,5	1,739800
11,475167	0,5	1,884650
11,483500	0,5	2,049800
11,491833	0,5	2,243900
11,500167	0,5	2,451800
11,508500	0,5	2,652900
11,516833	0,5	2,837650
11,525167	0,5	2,966050
11,533500	0,5	3,009550
11,541833	0,5	2,970250
11,550167	0,5	2,848250
11,558500	0,5	2,679150
11,566833	0,5	2,475550
11,575167	0,5	2,262150
11,583500	0,5	2,072950
11,591833	0,5	1,909800
11,600167	0,5	1,783050
11,608500	0,5	1,688800
11,616833	0,5	1,629500
11,625167	0,5	1,595600
11,633500	0,5	1,583400
11,641833	0,5	1,579000
11,650167	0,5	1,575800
11,658500	0,5	1,567600
11,666833	0,5	1,566950
11,675167	0,5	1,542250
11,683500	0,5	1,515850
11,691833	0,5	1,474850
11,700167	0,5	1,440200
11,708500	0,5	1,406750
11,716833	0,5	1,366000
11,725167	0,5	1,327550
11,733500	0,5	1,296200
11,741833	0,5	1,262850
11,750167	0,5	1,233300
11,758500	0,5	1,205750
11,766833	0,5	1,185300
11,775167	0,5	1,173950
11,783500	0,5	1,157850
11,791833	0,5	1,156650
11,800167	0,5	1,145700
11,808500	0,5	1,153000
11,816833	0,5	1,155150
11,825167	0,5	1,159100
11,833500	0,5	1,161650
11,841833	0,5	1,161150
11,850167	0,5	1,175650
11,858500	0,5	1,199250
11,866833	0,5	1,211550
11,875167	0,5	1,228050
11,883500	0,5	1,260500
11,891833	0,5	1,302650
11,900167	0,5	1,356050
11,908500	0,5	1,426650
11,916833	0,5	1,511750
11,925167	0,5	1,607950
11,933500	0,5	1,723600
11,941833	0,5	1,826350
11,950167	0,5	1,908850
11,958500	0,5	1,982650
11,966833	0,5	2,003500
11,975167	0,5	1,985300
11,983500	0,5	1,928950
11,991833	0,5	1,846300
12,000167	0,5	1,769900
12,008500	0,5	1,689150
12,016833	0,5	1,624700
12,025167	0,5	1,578400
12,033500	0,5	1,546450
12,041833	0,5	1,523350
12,050167	0,5	1,513400
12,058500	0,5	1,510850
12,066833	0,5	1,510500
12,075167	0,5	1,511550
12,083500	0,5	1,519050
12,091833	0,5	1,514900
12,100167	0,5	1,521650
12,108500	0,5	1,542050
12,116833	0,5	1,554350
12,125167	0,5	1,580800
12,133500	0,5	1,619250
12,141833	0,5	1,683750
12,150167	0,5	1,755150
12,158500	0,5	1,820550
12,166833	0,5	1,872400
12,175167	0,5	1,907200
12,183500	0,5	1,930600
12,191833	0,5	1,955650
12,200167	0,5	1,983000
12,208500	0,5	2,024750
12,216833	0,5	2,082750
12,225167	0,5	2,157000
12,233500	0,5	2,255200
12,241833	0,5	2,358650
12,250167	0,5	2,476100
12,258500	0,5	2,575350
12,266833	0,5	2,647150
12,275167	0,5	2,675400
12,283500	0,5	2,645600
12,291833	0,5	2,579050
12,300167	0,5	2,490100
12,308500	0,5	2,373800
12,316833	0,5	2,269800
12,325167	0,5	2,180600
12,333500	0,5	2,114550
12,341833	0,5	2,065100
12,350167	0,5	2,038200
12,358500	0,5	2,009350
12,366833	0,5	1,979300
12,375167	0,5	1,949800
12,383500	0,5	1,907050
12,391833	0,5	1,849850
12,400167	0,5	1,812150
12,408500	0,5	1,764100
12,416833	0,5	1,721800
12,425167	0,5	1,681600
12,433500	0,5	1,646250
12,441833	0,5	1,634500
12,450167	0,5	1,621500
12,458500	0,5	1,606600
12,466833	0,5	1,585850
12,475167	0,5	1,571500
12,483500	0,5	1,540500
12,491833	0,5	1,513100
12,500167	0,5	1,480700
12,508500	0,5	1,454600
12,516833	0,5	1,414150
12,525167	0,5	1,395950
12,533500	0,5	1,366850
12,541833	0,5	1,346550
12,550167	0,5	1,340800
12,558500	0,5	1,333050
12,566833	0,5	1,327300
12,575167	0,5	1,318050
12,583500	0,5	1,324100
12,591833	0,5	1,340250
12,600167	0,5	1,379850
12,608500	0,5	1,416800
12,616833	0,5	1,438100
12,625167	0,5	1,451950
12,633500	0,5	1,465750
12,641833	0,5	1,467350
12,650167	0,5	1,439100
12,658500	0,5	1,407900
12,666833	0,5	1,406350
12,675167	0,5	1,477400
12,683500	0,5	1,511200
12,691833	0,5	1,408600
12,700167	0,5	1,058400
12,708500	0,5	0,473200
12,716833	0,5	-0,038550
12,725167	0,5	-0,401300
12,733500	0,5	-0,652000
12,741833	0,5	-0,882500
12,750167	0,5	-1,106050
12,758500	0,5	-1,394450
12,766833	0,5	-1,675500
12,775167	0,5	-1,879500
12,783500	0,5	-2,034700
12,791833	0,5	-2,149850
12,800167	0,5	-2,244800
12,808500	0,5	-2,315100
12,816833	0,5	-2,384300
12,825167	0,5	-2,449500
12,833500	0,5	-2,505700
12,841833	0,5	-2,545400
12,850167	0,5	-2,585650
12,858500	0,5	-2,621350
12,866833	0,5	-2,663200
12,875167	0,5	-2,686900
12,883500	0,5	-2,709450
12,891833	0,5	-2,727050
12,900167	0,5	-2,753300
12,908500	0,5	-2,767600
12,916833	0,5	-2,782100
12,925167	0,5	-2,800650
12,933500	0,5	-2,816050
12,941833	0,5	-2,827200
12,950167	0,5	-2,843350
12,958500	0,5	-2,861300
12,966833	0,5	-2,862550
12,975167	0,5	-2,879800
12,983500	0,5	-2,886750
12,991833	0,5	-2,888950
13,000167	0,5	-2,891150
13,008500	0,5	-2,896000
13,016833	0,5	-2,907300
13,025167	0,5	-2,913850
13,033500	0,5	-2,903600
13,041833	0,5	-2,904750
13,050167	0,5	-2,902300
13,058500	0,5	-2,899500
13,066833	0,5	-2,895900
13,075167	0,5	-2,897800
13,083500	0,5	-2,890400
13,091833	0,5	-2,895800
13,100167	0,5	-2,893200
13,108500	0,5	-2,888800
13,116833	0,5	-2,875150
13,125167	0,5	-2,866200
13,133500	0,5	-2,839850
13,141833	0,5	-2,820600
13,150167	0,5	-2,793950
13,158500	0,5	-2,770100
13,166833	0,5	-2,752700
13,175167	0,5	-2,707450
13,183500	0,5	-2,672800
13,191833	0,5	-2,639300
13,200167	0,5	-2,606150
13,208500	0,5	-2,575000
13,216833	0,5	-2,554450
13,225167	0,5	-2,536100
13,233500	0,5	-2,540050
13,241833	0,5	-2,548450
13,250167	0,5	-2,567150
13,258500	0,5	-2,598050
13,266833	0,5	-2,621050
13,275167	0,5	-2,649800
13,283500	0,5	-2,668550
13,291833	0,5	-2,689600
13,300167	0,5	-2,709150
13,308500	0,5	-2,725950
13,316833	0,5	-2,742700
13,325167	0,5	-2,744550
13,333500	0,5	-2,740000
13,341833	0,5	-2,741850
13,350167	0,5	-2,729650
13,358500	0,5	-2,730550
13,366833	0,5	-2,726450
13,375167	0,5	-2,716350
13,383500	0,5	-2,693650
13,391833	0,5	-2,677000
13,400167	0,5	-2,660850
13,408500	0,5	-2,625600
13,416833	0,5	-2,586400
13,425167	0,5	-2,566300
13,433500	0,5	-2,526700
13,441833	0,5	-2,506950
13,450167	0,5	-2,492150
13,458500	0,5	-2,495050
13,466833	0,5	-2,499700
13,475167	0,5	-2,485500
13,483500	0,5	-2,483600
13,491833	0,5	-2,484450
13,500167	0,5	-2,484800
13,508500	0,5	-2,477050
13,516833	0,5	-2,469900
13,525167	0,5	-2,460550
13,533500	0,5	-2,456550
13,541833	0,5	-2,437050
13,550167	0,5	-2,432200
13,558500	0,5	-2,412650
13,566833	0,5	-2,416400
13,575167	0,5	-2,387750
13,583500	0,5	-2,364850
13,591833	0,5	-2,351450
13,600167	0,5	-2,335750
13,608500	0,5	-2,325450
13,616833	0,5	-2,299600
13,625167	0,5	-2,269200
13,633500	0,5	-2,237000
13,641833	0,5	-2,210250
13,650167	0,5	-2,180100
13,658500	0,5	-2,148450
13,666833	0,5	-2,124350
13,675167	0,5	-2,097350
13,683500	0,5	-2,072700
13,691833	0,5	-2,054700
13,700167	0,5	-2,033600
13,708500	0,5	-2,021450
13,716833	0,5	-2,006600
13,725167	0,5	-1,979500
13,733500	0,5	-1,953100
13,741833	0,5	-1,936300
13,750167	0,5	-1,922850
13,758500	0,5	-1,912050
13,766833	0,5	-1,888500
13,775167	0,5	-1,858350
13,783500	0,5	-1,825750
13,791833	0,5	-1,797950
13,800167	0,5	-1,769700
13,808500	0,5	-1,742500
13,816833	0,5	-1,705800
13,825167	0,5	-1,677050
13,833500	0,5	-1,640350
13,841833	0,5	-1,609950
13,850167	0,5	-1,579900
13,858500	0,5	-1,559050
13,866833	0,5	-1,532700
13,875167	0,5	-1,489250
13,883500	0,5	-1,466600
13,891833	0,5	-1,441850
13,900167	0,5	-1,436750
13,908500	0,5	-1,422250
13,916833	0,5	-1,395250
13,925167	0,5	-1,381550
13,933500	0,5	-1,377500
13,941833	0,5	-1,360450
13,950167	0,5	-1,342950
13,958500	0,5	-1,335100
13,966833	0,5	-1,311550
13,975167	0,5	-1,289800
13,983500	0,5	-1,264850
13,991833	0,5	-1,241250
14,000167	0,5	-1,200150
14,008500	0,5	-1,175450
14,016833	0,5	-1,102550
14,025167	0,5	-1,032750
14,033500	0,5	-0,954350
14,041833	0,5	-0,885700
14,050167	0,5	-0,837650
14,058500	0,5	-0,783300
14,066833	0,5	-0,741400
14,075167	0,5	-0,717500
14,083500	0,5	-0,693350
14,091833	0,5	-0,654600
14,100167	0,5	-0,603950
14,108500	0,5	-0,543650
14,116833	0,5	-0,480900
14,125167	0,5	-0,436550
14,133500	0,5	-0,404600
14,141833	0,5	-0,376500
14,150167	0,5	-0,357950
14,158500	0,5	-0,340000
14,166833	0,5	-0,284050
14,175167	0,5	-0,226700
14,183500	0,5	-0,167750
14,191833	0,5	-0,111800
14,200167	0,5	-0,068150
14,208500	0,5	-0,004200
14,216833	0,5	0,042300
14,225167	0,5	0,093450
14,233500	0,5	0,122700
14,241833	0,5	0,156150
14,250167	0,5	0,162950
14,258500	0,5	0,167850
14,266833	0,5	0,159000
14,275167	0,5	0,153650
14,283500	0,5	0,147300
14,291833	0,5	0,152050
14,300167	0,5	0,155600
14,308500	0,5	0,156450
14,316833	0,5	0,174100
14,325167	0,5	0,186200
14,333500	0,5	0,192400
14,341833	0,5	0,194650
14,350167	0,5	0,200800
14,358500	0,5	0,217200
14,366833	0,5	0,240200
14,375167	0,5	0,244450
14,383500	0,5	0,257500
14,391833	0,5	0,258550
14,400167	0,5	0,266300
14,408500	0,5	0,251900
14,416833	0,5	0,248700
14,425167	0,5	0,255350
14,433500	0,5	0,267850
14,441833	0,5	0,284650
14,450167	0,5	0,300550
14,458500	0,5	0,309350
14,466833	0,5	0,324100
14,475167	0,5	0,325350
14,483500	0,5	0,307500
14,491833	0,5	0,281000
14,500167	0,5	0,266550
14,508500	0,5	0,249500
14,516833	0,5	0,233900
14,525167	0,5	0,220000
14,533500	0,5	0,202250
14,541833	0,5	0,196200
14,550167	0,5	0,183650
14,558500	0,5	0,182500
14,566833	0,5	0,175450
14,575167	0,5	0,170400
14,583500	0,5	0,180700
14,591833	0,5	0,184800
14,600167	0,5	0,178350
14,608500	0,5	0,183850
14,616833	0,5	0,187150
14,625167	0,5	0,197350
14,633500	0,5	0,205650
14,641833	0,5	0,230500
14,650167	0,5	0,278000
14,658500	0,5	0,362750
14,666833	0,5	0,462600
14,675167	0,5	0,562700
14,683500	0,5	0,657250
14,691833	0,5	0,718700
14,700167	0,5	0,747300
14,708500	0,5	0,728850
14,716833	0,5	0,680400
14,725167	0,5	0,628800
14,733500	0,5	0,577950
14,741833	0,5	0,536150
14,750167	0,5	0,532150
14,758500	0,5	0,565200
14,766833	0,5	0,612400
14,775167	0,5	0,668500
14,783500	0,5	0,707900
14,791833	0,5	0,732950
14,800167	0,5	0,732800
14,808500	0,5	0,695500
14,816833	0,5	0,636300
14,825167	0,5	0,576400
14,833500	0,5	0,514100
14,841833	0,5	0,460300
14,850167	0,5	0,414300
14,858500	0,5	0,388850
14,866833	0,5	0,357600
14,875167	0,5	0,345800
14,883500	0,5	0,337800
14,891833	0,5	0,316800
14,900167	0,5	0,322900
14,908500	0,5	0,333150
14,916833	0,5	0,329200
14,925167	0,5	0,341500
14,933500	0,5	0,328100
14,941833	0,5	0,337900
14,950167	0,5	0,338750
14,958500	0,5	0,324800
14,966833	0,5	0,311600
14,975167	0,5	0,301600
14,983500	0,5	0,288150
14,991833	0,5	0,277400
15,000167	0,5	0,269100
15,008500	0,5	0,258150
15,016833	0,5	0,239150
15,025167	0,5	0,217250
15,033500	0,5	0,196400
15,041833	0,5	0,167600
15,050167	0,5	0,161500
15,058500	0,5	0,145600
15,066833	0,5	0,125900
15,075167	0,5	0,098350
15,083500	0,5	0,082500
15,091833	0,5	0,082850
15,100167	0,5	0,083100
15,108500	0,5	0,077150
15,116833	0,5	0,074800
15,125167	0,5	0,073750
15,133500	0,5	0,081600
15,141833	0,5	0,082450
15,150167	0,5	0,098100
15,158500	0,5	0,120700
15,166833	0,5	0,164950
15,175167	0,5	0,254900
15,183500	0,5	0,352300
15,191833	0,5	0,468450
15,200167	0,5	0,590400
15,208500	0,5	0,687050
15,216833	0,5	0,704950
15,225167	0,5	0,669150
15,233500	0,5	0,603900
15,241833	0,5	0,553550
15,250167	0,5	0,512750
15,258500	0,5	0,514050
15,266833	0,5	0,540950
15,275167	0,5	0,598500
15,283500	0,5	0,647850
15,291833	0,5	0,671750
15,300167	0,5	0,646850
15,308500	0,5	0,579250
15,316833	0,5	0,495450
15,325167	0,5	0,421350
15,333500	0,5	0,338300
15,341833	0,5	0,310100
15,350167	0,5	0,276300
15,358500	0,5	0,261200
15,366833	0,5	0,242550
15,375167	0,5	0,216600
15,383500	0,5	0,204200
15,391833	0,5	0,191500
15,400167	0,5	0,178250
15,408500	0,5	0,157050
15,416833	0,5	0,159500
15,425167	0,5	0,150700
15,433500	0,5	0,157950
15,441833	0,5	0,159500
15,450167	0,5	0,163700
15,458500	0,5	0,149400
15,466833	0,5	0,143300
15,475167	0,5	0,135300
15,483500	0,5	0,103250
15,491833	0,5	0,085800
15,500167	0,5	0,057700
15,508500	0,5	0,035950
15,516833	0,5	0,000650
15,525167	0,5	-0,036950
15,533500	0,5	-0,048250
15,541833	0,5	-0,053900
15,550167	0,5	-0,071250
15,558500	0,5	-0,074650
15,566833	0,5	-0,088550
15,575167	0,5	-0,095450
15,583500	0,5	-0,106950
15,591833	0,5	-0,100150
15,600167	0,5	-0,097200
15,608500	0,5	-0,075600
15,616833	0,5	-0,033300
15,625167	0,5	0,033950
15,633500	0,5	0,137250
15,641833	0,5	0,283950
15,650167	0,5	0,411950
15,658500	0,5	0,510050
15,666833	0,5	0,539150
15,675167	0,5	0,520450
15,683500	0,5	0,488850
15,691833	0,5	0,451450
15,700167	0,5	0,443400
15,708500	0,5	0,468850
15,716833	0,5	0,510000
15,725167	0,5	0,524850
15,733500	0,5	0,528300
15,741833	0,5	0,489500
15,750167	0,5	0,419200
15,758500	0,5	0,337200
15,766833	0,5	0,263250
15,775167	0,5	0,168950
15,783500	0,5	0,127250
15,791833	0,5	0,081350
15,800167	0,5	0,050900
15,808500	0,5	0,016250
15,816833	0,5	-0,014450
15,825167	0,5	-0,016300
15,833500	0,5	-0,007150
15,841833	0,5	0,007300
15,850167	0,5	0,012800
15,858500	0,5	0,018100
15,866833	0,5	0,010600
15,875167	0,5	0,003000
15,883500	0,5	-0,010600
15,891833	0,5	-0,040500
15,900167	0,5	-0,063000
15,908500	0,5	-0,079400
15,916833	0,5	-0,109250
15,925167	0,5	-0,137600
15,933500	0,5	-0,158850
15,941833	0,5	-0,165300
15,950167	0,5	-0,187450
15,958500	0,5	-0,209250
15,966833	0,5	-0,223850
15,975167	0,5	-0,223450
15,983500	0,5	-0,228600
15,991833	0,5	-0,230300
16,000167	0,5	-0,223100
16,008500	0,5	-0,210150
16,016833	0,5	-0,184400
16,025167	0,5	-0,118500
16,033500	0,5	-0,028950
16,041833	0,5	0,095200
16,050167	0,5	0,242750
16,058500	0,5	0,384050
16,066833	0,5	0,467150
16,075167	0,5	0,513750
16,083500	0,5	0,525250
16,091833	0,5	0,522200
16,100167	0,5	0,524250
16,108500	0,5	0,520750
16,116833	0,5	0,534050
16,125167	0,5	0,531750
16,133500	0,5	0,479650
16,141833	0,5	0,392300
16,150167	0,5	0,301700
16,158500	0,5	0,207350
16,166833	0,5	0,133100
16,175167	0,5	0,080900
16,183500	0,5	0,043550
16,191833	0,5	0,030400
16,200167	0,5	0,025300
16,208500	0,5	0,044400
16,216833	0,5	0,043750
16,225167	0,5	0,072250
16,233500	0,5	0,089850
16,241833	0,5	0,118150
16,250167	0,5	0,137250
16,258500	0,5	0,144300
16,266833	0,5	0,170950
16,275167	0,5	0,181450
16,283500	0,5	0,158400
16,291833	0,5	0,123100
16,300167	0,5	0,073000
16,308500	0,5	0,015700
16,316833	0,5	-0,044450
16,325167	0,5	-0,096950
16,333500	0,5	-0,156700
16,341833	0,5	-0,199700
16,350167	0,5	-0,217300
16,358500	0,5	-0,234200
16,366833	0,5	-0,258650
16,375167	0,5	-0,246950
16,383500	0,5	-0,211600
16,391833	0,5	-0,149300
16,400167	0,5	-0,049900
16,408500	0,5	0,074450
16,416833	0,5	0,229800
16,425167	0,5	0,339750
16,433500	0,5	0,415400
16,441833	0,5	0,424900
16,450167	0,5	0,435550
16,458500	0,5	0,419550
16,466833	0,5	0,411900
16,475167	0,5	0,389400
16,483500	0,5	0,334750
16,491833	0,5	0,277900
16,500167	0,5	0,210850
16,508500	0,5	0,145600
16,516833	0,5	0,100900
16,525167	0,5	0,085300
16,533500	0,5	0,083000
16,541833	0,5	0,088450
16,550167	0,5	0,088200
16,558500	0,5	0,099650
16,566833	0,5	0,114250
16,575167	0,5	0,122700
16,583500	0,5	0,104650
16,591833	0,5	0,096800
16,600167	0,5	0,068900
16,608500	0,5	0,049100
16,616833	0,5	0,018500
16,625167	0,5	-0,006900
16,633500	0,5	-0,031900
16,641833	0,5	-0,039900
16,650167	0,5	-0,027400
16,658500	0,5	-0,033250
16,666833	0,5	-0,024050
16,675167	0,5	-0,013700
16,683500	0,5	-0,019200
16,691833	0,5	-0,029450
16,700167	0,5	-0,043400
16,708500	0,5	-0,034150
16,716833	0,5	0,011600
16,725167	0,5	0,088600
16,733500	0,5	0,195400
16,741833	0,5	0,301100
16,750167	0,5	0,419350
16,758500	0,5	0,488550
16,766833	0,5	0,537150
16,775167	0,5	0,562200
16,783500	0,5	0,565100
16,791833	0,5	0,567600
16,800167	0,5	0,538150
16,808500	0,5	0,475750
16,816833	0,5	0,414350
16,825167	0,5	0,319500
16,833500	0,5	0,227500
16,841833	0,5	0,118800
16,850167	0,5	0,051100
16,858500	0,5	0,013100
16,866833	0,5	-0,020900
16,875167	0,5	-0,042600
16,883500	0,5	-0,064750
16,891833	0,5	-0,068800
16,900167	0,5	-0,091050
16,908500	0,5	-0,095850
16,916833	0,5	-0,104350
16,925167	0,5	-0,113000
16,933500	0,5	-0,116550
16,941833	0,5	-0,121150
16,950167	0,5	-0,154550
16,958500	0,5	-0,149200
16,966833	0,5	-0,158800
16,975167	0,5	-0,168400
16,983500	0,5	-0,176900
16,991833	0,5	-0,186750
17,000167	0,5	-0,172100
17,008500	0,5	-0,125300
17,016833	0,5	-0,054000
17,025167	0,5	0,036850
17,033500	0,5	0,168000
17,041833	0,5	0,308050
17,050167	0,5	0,459550
17,058500	0,5	0,609000
17,066833	0,5	0,749100
17,075167	0,5	0,880250
17,083500	0,5	1,030150
17,091833	0,5	1,174450
17,100167	0,5	1,292900
17,108500	0,5	1,432550
17,116833	0,5	1,546300
17,125167	0,5	1,630100
17,133500	0,5	1,694550
17,141833	0,5	1,731800
17,150167	0,5	1,790800
17,158500	0,5	1,856750
17,166833	0,5	1,914300
17,175167	0,5	1,973250
17,183500	0,5	2,044850
17,191833	0,5	2,104800
17,200167	0,5	2,148800
17,208500	0,5	2,156050
17,216833	0,5	2,105000
17,225167	0,5	2,009250
17,233500	0,5	1,875550
17,241833	0,5	1,720550
17,250167	0,5	1,558850
17,258500	0,5	1,445950
17,266833	0,5	1,357950
17,275167	0,5	1,334100
17,283500	0,5	1,362750
17,291833	0,5	1,498450
17,300167	0,5	1,743700
17,308500	0,5	2,042850
17,316833	0,5	2,353050
17,325167	0,5	2,633400
17,333500	0,5	2,817200
17,341833	0,5	2,878650
17,350167	0,5	2,812550
17,358500	0,5	2,621350
17,366833	0,5	2,347750
17,375167	0,5	2,011850
17,383500	0,5	1,700100
17,391833	0,5	1,389050
17,400167	0,5	1,173500
17,408500	0,5	1,008800
17,416833	0,5	0,898900
17,425167	0,5	0,811700
17,433500	0,5	0,740850
17,441833	0,5	0,705350
17,450167	0,5	0,681000
17,458500	0,5	0,657100
17,466833	0,5	0,641450
17,475167	0,5	0,608300
17,483500	0,5	0,583700
17,491833	0,5	0,546500
17,500167	0,5	0,502200
17,508500	0,5	0,448100
17,516833	0,5	0,377450
17,525167	0,5	0,335000
17,533500	0,5	0,296300
17,541833	0,5	0,268150
17,550167	0,5	0,280950
17,558500	0,5	0,313150
17,566833	0,5	0,335900
17,575167	0,5	0,340950
17,583500	0,5	0,316550
17,591833	0,5	0,300100
17,600167	0,5	0,260100
17,608500	0,5	0,211200
17,616833	0,5	0,135250
17,625167	0,5	0,061500
17,633500	0,5	-0,007300
17,641833	0,5	-0,057900
17,650167	0,5	-0,108700
17,658500	0,5	-0,148250
17,666833	0,5	-0,178350
17,675167	0,5	-0,199700
17,683500	0,5	-0,241550
17,691833	0,5	-0,268550
17,700167	0,5	-0,287600
17,708500	0,5	-0,314250
17,716833	0,5	-0,332600
17,725167	0,5	-0,370650
17,733500	0,5	-0,388150
17,741833	0,5	-0,396800
17,750167	0,5	-0,384250
17,758500	0,5	-0,375750
17,766833	0,5	-0,323650
17,775167	0,5	-0,270100
17,783500	0,5	-0,204200
17,791833	0,5	-0,143100
17,800167	0,5	-0,102200
17,808500	0,5	-0,076050
17,816833	0,5	-0,072650
17,825167	0,5	-0,082350
17,833500	0,5	-0,131900
17,841833	0,5	-0,168250
17,850167	0,5	-0,201900
17,858500	0,5	-0,243750
17,866833	0,5	-0,285850
17,875167	0,5	-0,317000
17,883500	0,5	-0,340550
17,891833	0,5	-0,342900
17,900167	0,5	-0,361850
17,908500	0,5	-0,363900
17,916833	0,5	-0,377100
17,925167	0,5	-0,372300
17,933500	0,5	-0,374550
17,941833	0,5	-0,357600
17,950167	0,5	-0,356500
17,958500	0,5	-0,348450
17,966833	0,5	-0,300350
17,975167	0,5	-0,255500
17,983500	0,5	-0,207100
17,991833	0,5	-0,150500
18,000167	0,5	-0,095650
18,008500	0,5	-0,081500
18,016833	0,5	-0,091900
18,025167	0,5	-0,120700
18,033500	0,5	-0,134650
18,041833	0,5	-0,178550
18,050167	0,5	-0,212950
18,058500	0,5	-0,249300
18,066833	0,5	-0,279450
18,075167	0,5	-0,305250
18,083500	0,5	-0,316500
18,091833	0,5	-0,333300
18,100167	0,5	-0,346150
18,108500	0,5	-0,356800
18,116833	0,5	-0,352250
18,125167	0,5	-0,382250
18,133500	0,5	-0,371700
18,141833	0,5	-0,365150
18,150167	0,5	-0,352350
18,158500	0,5	-0,336700
18,166833	0,5	-0,322650
18,175167	0,5	-0,262650
18,183500	0,5	-0,209400
18,191833	0,5	-0,174800
18,200167	0,5	-0,164900
18,208500	0,5	-0,163250
18,216833	0,5	-0,181950
18,225167	0,5	-0,206000
18,233500	0,5	-0,239850
18,241833	0,5	-0,261500
18,250167	0,5	-0,293250
18,258500	0,5	-0,312650
18,266833	0,5	-0,331900
18,275167	0,5	-0,375250
18,283500	0,5	-0,383350
18,291833	0,5	-0,404450
18,300167	0,5	-0,429200
18,308500	0,5	-0,449950
18,316833	0,5	-0,486600
18,325167	0,5	-0,474650
18,333500	0,5	-0,456550
18,341833	0,5	-0,438100
18,350167	0,5	-0,419450
18,358500	0,5	-0,403400
18,366833	0,5	-0,392350
18,375167	0,5	-0,397350
18,383500	0,5	-0,403800
18,391833	0,5	-0,436050
18,400167	0,5	-0,467250
18,408500	0,5	-0,483600
18,416833	0,5	-0,502100
18,425167	0,5	-0,535300
18,433500	0,5	-0,531850
18,441833	0,5	-0,545000
18,450167	0,5	-0,556050
18,458500	0,5	-0,592200
18,466833	0,5	-0,619200
18,475167	0,5	-0,611050
18,483500	0,5	-0,613050
18,491833	0,5	-0,620300
18,500167	0,5	-0,621350
18,508500	0,5	-0,618250
18,516833	0,5	-0,610650
18,525167	0,5	-0,599550
18,533500	0,5	-0,596050
18,541833	0,5	-0,593750
18,550167	0,5	-0,606650
18,558500	0,5	-0,608450
18,566833	0,5	-0,648450
18,575167	0,5	-0,663800
18,583500	0,5	-0,680200
18,591833	0,5	-0,698700
18,600167	0,5	-0,728700
18,608500	0,5	-0,753300
18,616833	0,5	-0,770600
18,625167	0,5	-0,766550
18,633500	0,5	-0,768050
18,641833	0,5	-0,768950
18,650167	0,5	-0,762250
18,658500	0,5	-0,755100
18,666833	0,5	-0,737900
18,675167	0,5	-0,712750
18,683500	0,5	-0,684650
18,691833	0,5	-0,676200
18,700167	0,5	-0,663150
18,708500	0,5	-0,679950
18,716833	0,5	-0,704000
18,725167	0,5	-0,706450
18,733500	0,5	-0,704700
18,741833	0,5	-0,700600
18,750167	0,5	-0,712550
18,758500	0,5	-0,722150
18,766833	0,5	-0,725250
18,775167	0,5	-0,709350
18,783500	0,5	-0,680750
18,791833	0,5	-0,661150
18,800167	0,5	-0,631150
18,808500	0,5	-0,610000
18,816833	0,5	-0,602950
18,825167	0,5	-0,595200
18,833500	0,5	-0,611000
18,841833	0,5	-0,620300
18,850167	0,5	-0,642050
18,858500	0,5	-0,673200
18,866833	0,5	-0,704600
18,875167	0,5	-0,707300
18,883500	0,5	-0,721700
18,891833	0,5	-0,722000
18,900167	0,5	-0,751700
18,908500	0,5	-0,745350
18,916833	0,5	-0,728550
18,925167	0,5	-0,710100
18,933500	0,5	-0,710950
18,941833	0,5	-0,701300
18,950167	0,5	-0,702800
18,958500	0,5	-0,716900
18,966833	0,5	-0,748250
18,975167	0,5	-0,782250
18,983500	0,5	-0,807750
18,991833	0,5	-0,828550
19,000167	0,5	-0,831850
19,008500	0,5	-0,862550
19,016833	0,5	-0,857750
19,025167	0,5	-0,864600
19,033500	0,5	-0,867250
19,041833	0,5	-0,873900
19,050167	0,5	-0,882200
19,058500	0,5	-0,880850
19,066833	0,5	-0,878300
19,075167	0,5	-0,900000
19,083500	0,5	-0,896350
19,091833	0,5	-0,914500
19,100167	0,5	-0,917300
19,108500	0,5	-0,934300
19,116833	0,5	-0,944200
19,125167	0,5	-0,951250
19,133500	0,5	-0,972900
19,141833	0,5	-0,958100
19,150167	0,5	-0,969100
19,158500	0,5	-0,986500
19,166833	0,5	-0,993000
19,175167	0,5	-0,995300
19,183500	0,5	-1,024200
19,191833	0,5	-1,052200
19,200167	0,5	-1,092850
19,208500	0,5	-1,093000
19,216833	0,5	-1,111050
19,225167	0,5	-1,115950
19,233500	0,5	-1,128550
19,241833	0,5	-1,125100
19,250167	0,5	-1,126500
19,258500	0,5	-1,118400
19,266833	0,5	-1,126900
19,275167	0,5	-1,155900
19,283500	0,5	-1,161750
19,291833	0,5	-1,153000
19,300167	0,5	-1,172050
19,308500	0,5	-1,176050
19,316833	0,5	-1,175200
19,325167	0,5	-1,177650
19,333500	0,5	-1,194450
19,341833	0,5	-1,220650
19,350167	0,5	-1,225800
19,358500	0,5	-1,230100
19,366833	0,5	-1,230350
19,375167	0,5	-1,257000
19,383500	0,5	-1,257600
19,391833	0,5	-1,273750
19,400167	0,5	-1,274700
19,408500	0,5	-1,284900
19,416833	0,5	-1,286050
19,425167	0,5	-1,293200
19,433500	0,5	-1,301050
19,441833	0,5	-1,285850
19,450167	0,5	-1,304100
19,458500	0,5	-1,293250
19,466833	0,5	-1,303700
19,475167	0,5	-1,316050
19,483500	0,5	-1,342650
19,491833	0,5	-1,361950
19,500167	0,5	-1,353950
19,508500	0,5	-1,340900
19,516833	0,5	-1,359750
19,525167	0,5	-1,369400
19,533500	0,5	-1,385700
19,541833	0,5	-1,391750
19,550167	0,5	-1,410250
19,558500	0,5	-1,406850
19,566833	0,5	-1,419300
19,575167	0,5	-1,436450
19,583500	0,5	-1,431950
19,591833	0,5	-1,445400
19,600167	0,5	-1,465500
19,608500	0,5	-1,462200
19,616833	0,5	-1,467350
19,625167	0,5	-1,488050
19,633500	0,5	-1,512550
19,641833	0,5	-1,546650
19,650167	0,5	-1,537100
19,658500	0,5	-1,540950
19,666833	0,5	-1,542100
19,675167	0,5	-1,545150
19,683500	0,5	-1,555250
19,691833	0,5	-1,567000
19,700167	0,5	-1,560800
19,708500	0,5	-1,577450
19,716833	0,5	-1,592100
19,725167	0,5	-1,587250
19,733500	0,5	-1,588900
19,741833	0,5	-1,615150
19,750167	0,5	-1,618650
19,758500	0,5	-1,633800
19,766833	0,5	-1,650000
19,775167	0,5	-1,685600
19,783500	0,5	-1,724550
19,791833	0,5	-1,736750
19,800167	0,5	-1,752100
19,808500	0,5	-1,754550
19,816833	0,5	-1,771950
19,825167	0,5	-1,773950
19,833500	0,5	-1,796650
19,841833	0,5	-1,798000
19,850167	0,5	-1,812250
19,858500	0,5	-1,817400
19,866833	0,5	-1,832800
19,875167	0,5	-1,826600
19,883500	0,5	-1,843900
19,891833	0,5	-1,853150
19,900167	0,5	-1,861200
19,908500	0,5	-1,866850
19,916833	0,5	-1,875700
19,925167	0,5	-1,908850
19,933500	0,5	-1,927050
19,941833	0,5	-1,929100
19,950167	0,5	-1,931500
19,958500	0,5	-1,941800
19,966833	0,5	-1,941100
19,975167	0,5	-1,945550
19,983500	0,5	-1,957650
19,991833	0,5	-1,983250
20,000167	0,5	-1,984900
20,008500	0,5	-2,007600
20,016833	0,5	-2,026950
20,025167	0,5	-2,026300
20,033500	0,5	-2,056450
20,041833	0,5	-2,074200
20,050167	0,5	-2,076550
20,058500	0,5	-2,098950
20,066833	0,5	-2,125050
20,075167	0,5	-2,165850
20,083500	0,5	-2,182150
20,091833	0,5	-2,188350
20,100167	0,5	-2,195100
20,108500	0,5	-2,210150
20,116833	0,5	-2,230750
20,125167	0,5	-2,238900
20,133500	0,5	-2,257150
20,141833	0,5	-2,262950
20,150167	0,5	-2,270200
20,158500	0,5	-2,279300
20,166833	0,5	-2,272300
20,175167	0,5	-2,276850
20,183500	0,5	-2,310450
20,191833	0,5	-2,308950
20,200167	0,5	-2,305500
20,208500	0,5	-2,316950
20,216833	0,5	-2,333100
20,225167	0,5	-2,369350
20,233500	0,5	-2,370050
20,241833	0,5	-2,375000
20,250167	0,5	-2,396950
20,258500	0,5	-2,406800
20,266833	0,5	-2,412950
20,275167	0,5	-2,432200
20,283500	0,5	-2,443800
20,291833	0,5	-2,472100
20,300167	0,5	-2,466050
20,308500	0,5	-2,488850
20,316833	0,5	-2,472500
20,325167	0,5	-2,492100
20,333500	0,5	-2,512650
20,341833	0,5	-2,530550
20,350167	0,5	-2,541750
20,358500	0,5	-2,582950
20,366833	0,5	-2,624150
20,375167	0,5	-2,659050
20,383500	0,5	-2,660300
20,391833	0,5	-2,684350
20,400167	0,5	-2,704750
20,408500	0,5	-2,724100
20,416833	0,5	-2,748950
20,425167	0,5	-2,771700
20,433500	0,5	-2,801100
20,441833	0,5	-2,813800
20,450167	0,5	-2,843600
20,458500	0,5	-2,829950
20,466833	0,5	-2,835500
20,475167	0,5	-2,864250
20,483500	0,5	-2,888000
20,491833	0,5	-2,916100
20,500167	0,5	-2,946500
20,508500	0,5	-2,979250
20,516833	0,5	-3,029350
20,525167	0,5	-3,028550
20,533500	0,5	-3,030800
20,541833	0,5	-3,030200
20,550167	0,5	-3,032500
20,558500	0,5	-3,044100
20,566833	0,5	-3,068350
20,575167	0,5	-3,110150
20,583500	0,5	-3,151200
20,591833	0,5	-3,204650
20,600167	0,5	-3,252300
20,608500	0,5	-3,276250
20,616833	0,5	-3,309300
20,625167	0,5	-3,350600
20,633500	0,5	-3,382250
20,641833	0,5	-3,420650
20,650167	0,5	-3,454900
20,658500	0,5	-3,518050
20,666833	0,5	-3,573650
20,675167	0,5	-3,593000
20,683500	0,5	-3,611950
20,691833	0,5	-3,632650
20,700167	0,5	-3,643400
20,708500	0,5	-3,638200
20,716833	0,5	-3,627950
20,725167	0,5	-3,612200
20,733500	0,5	-3,624900
20,741833	0,5	-3,638250
20,750167	0,5	-3,670350
20,758500	0,5	-3,707250
20,766833	0,5	-3,765250
20,775167	0,5	-3,836250
20,783500	0,5	-3,902400
20,791833	0,5	-3,954900
20,800167	0,5	-4,046150
20,808500	0,5	-4,110300
20,816833	0,5	-4,171400
20,825167	0,5	-4,199650
20,833500	0,5	-4,240300
20,841833	0,5	-4,287600
20,850167	0,5	-4,315150
20,858500	0,5	-4,353950
20,866833	0,5	-4,382650
20,875167	0,5	-4,413400
20,883500	0,5	-4,434700
20,891833	0,5	-4,468450
20,900167	0,5	-4,466350
20,908500	0,5	-4,473100
20,916833	0,5	-4,519100
20,925167	0,5	-4,572500
20,933500	0,5	-4,615000
20,941833	0,5	-4,673300
20,950167	0,5	-4,743300
20,958500	0,5	-4,802150
20,966833	0,5	-4,838650
20,975167	0,5	-4,880450
20,983500	0,5	-4,915950
20,991833	0,5	-4,948850
21,000167	0,5	-4,984550
21,008500	0,5	-5,022300
21,016833	0,5	-5,045150
21,025167	0,5	-5,075300
21,033500	0,5	-5,112500
21,041833	0,5	-5,135950
21,050167	0,5	-5,139350
21,058500	0,5	-5,153800
21,066833	0,5	-5,193550
21,075167	0,5	-5,217900
21,083500	0,5	-5,257200
21,091833	0,5	-5,293900
21,100167	0,5	-5,365350
21,108500	0,5	-5,404100
21,116833	0,5	-5,427200
21,125167	0,5	-5,447650
21,133500	0,5	-5,487800
21,141833	0,5	-5,504950
21,150167	0,5	-5,543250
21,158500	0,5	-5,567500
21,166833	0,5	-5,590250
21,175167	0,5	-5,609800
21,183500	0,5	-5,641650
21,191833	0,5	-5,636750
21,200167	0,5	-5,628350
21,208500	0,5	-5,647500
21,216833	0,5	-5,671700
21,225167	0,5	-5,692000
21,233500	0,5	-5,720950
21,241833	0,5	-5,760250
21,250167	0,5	-5,802750
21,258500	0,5	-5,805150
21,266833	0,5	-5,812250
21,275167	0,5	-5,837450
21,283500	0,5	-5,838350
21,291833	0,5	-5,833450
21,300167	0,5	-5,837150
21,308500	0,5	-5,857850
21,316833	0,5	-5,888050
21,325167	0,5	-5,915300
21,333500	0,5	-5,942400
21,341833	0,5	-5,933000
21,350167	0,5	-5,935100
21,358500	0,5	-5,970750
21,366833	0,5	-5,995900
21,375167	0,5	-6,020700
21,383500	0,5	-6,064300
21,391833	0,5	-6,106500
21,400167	0,5	-6,124350
21,408500	0,5	-6,126000
21,416833	0,5	-6,156900
21,425167	0,5	-6,166400
21,433500	0,5	-6,181150
21,441833	0,5	-6,192300
21,450167	0,5	-6,215500
21,458500	0,5	-6,228650
21,466833	0,5	-6,243800
21,475167	0,5	-6,266150
21,483500	0,5	-6,246700
21,491833	0,5	-6,244200
21,500167	0,5	-6,246500
21,508500	0,5	-6,267700
21,516833	0,5	-6,289000
21,525167	0,5	-6,320100
21,533500	0,5	-6,340050
21,541833	0,5	-6,383850
21,550167	0,5	-6,384550
21,558500	0,5	-6,403550
21,566833	0,5	-6,410500
21,575167	0,5	-6,423950
21,583500	0,5	-6,429400
21,591833	0,5	-6,439550
21,600167	0,5	-6,440550
21,608500	0,5	-6,436150
21,616833	0,5	-6,457000
21,625167	0,5	-6,450400
21,633500	0,5	-6,416700
21,641833	0,5	-6,399200
21,650167	0,5	-6,397400
21,658500	0,5	-6,384800
21,666833	0,5	-6,389100
21,675167	0,5	-6,397700
21,683500	0,5	-6,428850
21,691833	0,5	-6,461000
21,700167	0,5	-6,483300
21,708500	0,5	-6,494550
21,716833	0,5	-6,520150
21,725167	0,5	-6,540100
21,733500	0,5	-6,549100
21,741833	0,5	-6,558100
21,750167	0,5	-6,580900
21,758500	0,5	-6,602400
21,766833	0,5	-6,619050
21,775167	0,5	-6,630850
21,783500	0,5	-6,624050
21,791833	0,5	-6,644150
21,800167	0,5	-6,660200
21,808500	0,5	-6,678250
21,816833	0,5	-6,704450
21,825167	0,5	-6,747350
21,833500	0,5	-6,774850
21,841833	0,5	-6,776300
21,850167	0,5	-6,776000
21,858500	0,5	-6,799150
21,866833	0,5	-6,807500
21,875167	0,5	-6,815400
21,883500	0,5	-6,839350
21,891833	0,5	-6,848450
21,900167	0,5	-6,860000
21,908500	0,5	-6,858800
21,916833	0,5	-6,866600
21,925167	0,5	-6,816050
21,933500	0,5	-6,791100
21,941833	0,5	-6,755800
21,950167	0,5	-6,746900
21,958500	0,5	-6,762850
21,966833	0,5	-6,815100
21,975167	0,5	-6,879650
21,983500	0,5	-6,932750
21,991833	0,5	-6,962800
22,000167	0,5	-6,993450
22,008500	0,5	-7,025000
22,016833	0,5	-7,050400
22,025167	0,5	-7,088700
22,033500	0,5	-7,122200
22,041833	0,5	-7,140100
22,050167	0,5	-7,164300
22,058500	0,5	-7,197550
22,066833	0,5	-7,200450
22,075167	0,5	-7,224900
22,083500	0,5	-7,257400
22,091833	0,5	-7,267600
22,100167	0,5	-7,273800
22,108500	0,5	-7,306950
22,116833	0,5	-7,334650
22,125167	0,5	-7,378300
22,133500	0,5	-7,380550
22,141833	0,5	-7,385900
22,150167	0,5	-7,403300
22,158500	0,5	-7,422650
22,166833	0,5	-7,424350
22,175167	0,5	-7,446800
22,183500	0,5	-7,458150
22,191833	0,5	-7,460150
22,200167	0,5	-7,467350
22,208500	0,5	-7,479700
22,216833	0,5	-7,490950
22,225167	0,5	-7,521900
22,233500	0,5	-7,511650
22,241833	0,5	-7,499900
22,250167	0,5	-7,501850
22,258500	0,5	-7,498050
22,266833	0,5	-7,520350
22,275167	0,5	-7,528250
22,283500	0,5	-7,504300
22,291833	0,5	-7,496750
22,300167	0,5	-7,492650
22,308500	0,5	-7,478750
22,316833	0,5	-7,469700
22,325167	0,5	-7,460650
22,333500	0,5	-7,450850
22,341833	0,5	-7,438500
22,350167	0,5	-7,400350
22,358500	0,5	-7,371100
22,366833	0,5	-7,294850
22,375167	0,5	-7,243400
22,383500	0,5	-7,168550
22,391833	0,5	-7,190600
22,400167	0,5	-7,231100
22,408500	0,5	-7,309800
22,416833	0,5	-7,373900
22,425167	0,5	-7,398200
22,433500	0,5	-7,420750
22,441833	0,5	-7,441750
22,450167	0,5	-7,458150
22,458500	0,5	-7,466350
22,466833	0,5	-7,490650
22,475167	0,5	-7,497550
22,483500	0,5	-7,495650
22,491833	0,5	-7,499900
22,500167	0,5	-7,503550
22,508500	0,5	-7,524550
22,516833	0,5	-7,520800
22,525167	0,5	-7,504050
22,533500	0,5	-7,483800
22,541833	0,5	-7,461100
22,550167	0,5	-7,451200
22,558500	0,5	-7,444900
22,566833	0,5	-7,432600
22,575167	0,5	-7,389400
22,583500	0,5	-7,368850
22,591833	0,5	-7,343400
22,600167	0,5	-7,329750
22,608500	0,5	-7,315750
22,616833	0,5	-7,314550
22,625167	0,5	-7,308050
22,633500	0,5	-7,303600
22,641833	0,5	-7,315800
22,650167	0,5	-7,337800
22,658500	0,5	-7,379550
22,666833	0,5	-7,365450
22,675167	0,5	-7,353250
22,683500	0,5	-7,358200
22,691833	0,5	-7,368550
22,700167	0,5	-7,396100
22,708500	0,5	-7,420800
22,716833	0,5	-7,443550
22,725167	0,5	-7,449750
22,733500	0,5	-7,467150
22,741833	0,5	-7,484750
22,750167	0,5	-7,497950
22,758500	0,5	-7,509400
22,766833	0,5	-7,526050
22,775167	0,5	-7,525100
22,783500	0,5	-7,548650
22,791833	0,5	-7,564100
22,800167	0,5	-7,661900
22,808500	0,5	-7,655200
22,816833	0,5	-7,643900
22,825167	0,5	-7,646300
22,833500	0,5	-7,670700
22,841833	0,5	-7,694150
22,850167	0,5	-7,720050
22,858500	0,5	-7,748650
22,866833	0,5	-7,773700
22,875167	0,5	-7,793500
22,883500	0,5	-7,814800
22,891833	0,5	-7,824900
22,900167	0,5	-7,835100
22,908500	0,5	-7,827900
22,916833	0,5	-7,838850
22,925167	0,5	-7,827150
22,933500	0,5	-7,825750
22,941833	0,5	-7,798700
22,950167	0,5	-7,797400
22,958500	0,5	-7,785650
22,966833	0,5	-7,765500
22,975167	0,5	-7,770500
22,983500	0,5	-7,756400
22,991833	0,5	-7,719400
23,000167	0,5	-7,693900
23,008500	0,5	-7,676900
23,016833	0,5	-7,650450
23,025167	0,5	-7,604950
23,033500	0,5	-7,563250
23,041833	0,5	-7,526500
23,050167	0,5	-7,470250
23,058500	0,5	-7,406150
23,066833	0,5	-7,341600
23,075167	0,5	-7,270950
23,083500	0,5	-7,192950
23,091833	0,5	-7,069250
23,100167	0,5	-7,000950
23,108500	0,5	-6,937150
23,116833	0,5	-6,901150
23,125167	0,5	-6,838250
23,133500	0,5	-6,757750
23,141833	0,5	-6,683800
23,150167	0,5	-6,589750
23,158500	0,5	-6,543150
23,166833	0,5	-6,464300
23,175167	0,5	-6,392500
23,183500	0,5	-6,313300
23,191833	0,5	-6,230400
23,200167	0,5	-6,137250
23,208500	0,5	-6,057950
23,216833	0,5	-5,971450
23,225167	0,5	-5,874950
23,233500	0,5	-5,777300
23,241833	0,5	-5,692700
23,250167	0,5	-5,589750
23,258500	0,5	-5,488150
23,266833	0,5	-5,445450
23,275167	0,5	-5,364900
23,283500	0,5	-5,293050
23,291833	0,5	-5,196700
23,300167	0,5	-5,131000
23,308500	0,5	-5,071250
23,316833	0,5	-5,006250
23,325167	0,5	-4,928850
23,333500	0,5	-4,869300
23,341833	0,5	-4,795300
23,350167	0,5	-4,724950
23,358500	0,5	-4,654550
23,366833	0,5	-4,577600
23,375167	0,5	-4,502950
23,383500	0,5	-4,425200
23,391833	0,5	-4,393050
23,400167	0,5	-4,295850
23,408500	0,5	-4,204450
23,416833	0,5	-4,159200
23,425167	0,5	-4,110850
23,433500	0,5	-4,043400
23,441833	0,5	-3,987650
23,450167	0,5	-3,941100
23,458500	0,5	-3,905600
23,466833	0,5	-3,857600
23,475167	0,5	-3,813000
23,483500	0,5	-3,771600
23,491833	0,5	-3,727550
23,500167	0,5	-3,685450
23,508500	0,5	-3,641850
23,516833	0,5	-3,598750
23,525167	0,5	-3,554650
23,533500	0,5	-3,644400
23,541833	0,5	-3,559250
23,550167	0,5	-3,497950
23,558500	0,5	-3,420350
23,566833	0,5	-3,383450
23,575167	0,5	-3,353900
23,583500	0,5	-3,320500
23,591833	0,5	-3,290550
23,600167	0,5	-3,256900
23,608500	0,5	-3,234300
23,616833	0,5	-3,204800
23,625167	0,5	-3,180050
23,633500	0,5	-3,152950
23,641833	0,5	-3,125000
23,650167	0,5	-3,094750
23,658500	0,5	-3,065850
23,666833	0,5	-3,039150
23,675167	0,5	-3,027550
23,683500	0,5	-3,151700
23,691833	0,5	-3,102200
23,700167	0,5	-3,022400
23,708500	0,5	-2,961950
23,716833	0,5	-2,928000
23,725167	0,5	-2,907950
23,733500	0,5	-2,892400
23,741833	0,5	-2,882450
23,750167	0,5	-2,861100
23,758500	0,5	-2,831650
23,766833	0,5	-2,812750
23,775167	0,5	-2,789250
23,783500	0,5	-2,762050
23,791833	0,5	-2,738600
23,800167	0,5	-2,713600
23,808500	0,5	-2,683250
23,816833	0,5	-2,657250
23,825167	0,5	-2,756000
23,833500	0,5	-2,797950
23,841833	0,5	-2,731650
23,850167	0,5	-2,653450
23,858500	0,5	-2,592350
23,866833	0,5	-2,556000
23,875167	0,5	-2,527000
23,883500	0,5	-2,517300
23,891833	0,5	-2,501450
23,900167	0,5	-2,476500
23,908500	0,5	-2,448200
23,916833	0,5	-2,432200
23,925167	0,5	-2,413700
23,933500	0,5	-2,396350
23,941833	0,5	-2,376100
23,950167	0,5	-2,345850
23,958500	0,5	-2,326550
23,966833	0,5	-2,303700
23,975167	0,5	-2,456850
23,983500	0,5	-2,422650
23,991833	0,5	-2,371550
24,000167	0,5	-2,298550
24,008500	0,5	-2,251950
24,016833	0,5	-2,216100
24,025167	0,5	-2,203500
24,033500	0,5	-2,200950
24,041833	0,5	-2,169200
24,050167	0,5	-2,135200
24,058500	0,5	-2,110400
24,066833	0,5	-2,080500
24,075167	0,5	-2,055100
24,083500	0,5	-2,025900
24,091833	0,5	-1,999100
24,100167	0,5	-1,966300
24,108500	0,5	-1,941600
24,116833	0,5	-1,981800
24,125167	0,5	-2,056150
24,133500	0,5	-2,049400
24,141833	0,5	-1,975900
24,150167	0,5	-1,921650
24,158500	0,5	-1,880200
24,166833	0,5	-1,863300
24,175167	0,5	-1,855050
24,183500	0,5	-1,840400
24,191833	0,5	-1,804950
24,200167	0,5	-1,784350
24,208500	0,5	-1,753350
24,216833	0,5	-1,734050
24,225167	0,5	-1,706100
24,233500	0,5	-1,697200
24,241833	0,5	-1,668750
24,250167	0,5	-1,638800
24,258500	0,5	-1,617900
24,266833	0,5	-1,693200
24,275167	0,5	-1,692750
24,283500	0,5	-1,669400
24,291833	0,5	-1,605250
24,300167	0,5	-1,562350
24,308500	0,5	-1,533050
24,316833	0,5	-1,513050
24,325167	0,5	-1,521250
24,333500	0,5	-1,496200
24,341833	0,5	-1,471950
24,350167	0,5	-1,450650
24,358500	0,5	-1,436150
24,366833	0,5	-1,415850
24,375167	0,5	-1,404000
24,383500	0,5	-1,379050
24,391833	0,5	-1,361800
24,400167	0,5	-1,340600
24,408500	0,5	-1,340250
24,416833	0,5	-1,422350
24,425167	0,5	-1,393750
24,433500	0,5	-1,375850
24,441833	0,5	-1,329800
24,450167	0,5	-1,298750
24,458500	0,5	-1,274400
24,466833	0,5	-1,264350
24,475167	0,5	-1,263450
24,483500	0,5	-1,242650
24,491833	0,5	-1,215000
24,500167	0,5	-1,203050
24,508500	0,5	-1,187100
24,516833	0,5	-1,168300
24,525167	0,5	-1,151850
24,533500	0,5	-1,138700
24,541833	0,5	-1,113050
24,550167	0,5	-1,102800
24,558500	0,5	-1,133450
24,566833	0,5	-1,144600
24,575167	0,5	-1,130800
24,583500	0,5	-1,103050
24,591833	0,5	-1,072500
24,600167	0,5	-1,058950
24,608500	0,5	-1,045250
24,616833	0,5	-1,051500
24,625167	0,5	-1,051800
24,633500	0,5	-1,031900
24,641833	0,5	-1,028900
24,650167	0,5	-1,010800
24,658500	0,5	-0,998400
24,666833	0,5	-0,986050
24,675167	0,5	-0,979650
24,683500	0,5	-0,960350
24,691833	0,5	-0,949350
24,700167	0,5	-0,934050
24,708500	0,5	-0,971500
24,716833	0,5	-0,957250
24,725167	0,5	-0,944950
24,733500	0,5	-0,920350
24,741833	0,5	-0,903750
24,750167	0,5	-0,886450
24,758500	0,5	-0,878700
24,766833	0,5	-0,876200
24,775167	0,5	-0,869100
24,783500	0,5	-0,864600
24,791833	0,5	-0,857900
24,800167	0,5	-0,852000
24,808500	0,5	-0,846600
24,816833	0,5	-0,838750
24,825167	0,5	-0,822100
24,833500	0,5	-0,823900
24,841833	0,5	-0,819600
24,850167	0,5	-0,819350
24,858500	0,5	-0,842300
24,866833	0,5	-0,826100
24,875167	0,5	-0,815000
24,883500	0,5	-0,795350
24,891833	0,5	-0,781800
24,900167	0,5	-0,773650
24,908500	0,5	-0,770500
24,916833	0,5	-0,772200
24,925167	0,5	-0,762250
24,933500	0,5	-0,752650
24,941833	0,5	-0,747500
24,950167	0,5	-0,739100
24,958500	0,5	-0,732650
24,966833	0,5	-0,727100
24,975167	0,5	-0,721300
24,983500	0,5	-0,716100
24,991833	0,5	-0,712600
25,000167	0,5	-0,715100
25,008500	0,5	-0,724200
25,016833	0,5	-0,720150
25,025167	0,5	-0,716150
25,033500	0,5	-0,705950
25,041833	0,5	-0,704600
25,050167	0,5	-0,700900
25,058500	0,5	-0,708850
25,066833	0,5	-0,695300
25,075167	0,5	-0,696250
25,083500	0,5	-0,692700
25,091833	0,5	-0,688450
25,100167	0,5	-0,680200
25,108500	0,5	-0,675650
25,116833	0,5	-0,666450
25,125167	0,5	-0,665550
25,133500	0,5	-0,661000
25,141833	0,5	-0,657400
25,150167	0,5	-0,660550
25,158500	0,5	-0,656150
25,166833	0,5	-0,656100
25,175167	0,5	-0,649400
25,183500	0,5	-0,644950
25,191833	0,5	-0,642700
25,200167	0,5	-0,644300
25,208500	0,5	-0,652800
25,216833	0,5	-0,647100
25,225167	0,5	-0,649700
25,233500	0,5	-0,644600
25,241833	0,5	-0,651150
25,250167	0,5	-0,652350
25,258500	0,5	-0,649450
25,266833	0,5	-0,648450
25,275167	0,5	-0,645600
25,283500	0,5	-0,642650
25,291833	0,5	-0,638850
25,300167	0,5	-0,635300
25,308500	0,5	-0,627300
25,316833	0,5	-0,627800
25,325167	0,5	-0,622700
25,333500	0,5	-0,623950
25,341833	0,5	-0,623950
25,350167	0,5	-0,622250
25,358500	0,5	-0,617900
25,366833	0,5	-0,618400
25,375167	0,5	-0,622450
25,383500	0,5	-0,621100
25,391833	0,5	-0,625800
25,400167	0,5	-0,628650
25,408500	0,5	-0,629450
25,416833	0,5	-0,628200
25,425167	0,5	-0,627600
25,433500	0,5	-0,626300
25,441833	0,5	-0,627500
25,450167	0,5	-0,621600
25,458500	0,5	-0,623050
25,466833	0,5	-0,619500
25,475167	0,5	-0,625650
25,483500	0,5	-0,621800
25,491833	0,5	-0,620950
25,500167	0,5	-0,613550
25,508500	0,5	-0,611400
25,516833	0,5	-0,615200
25,525167	0,5	-0,612600
25,533500	0,5	-0,612750
25,541833	0,5	-0,610050
25,550167	0,5	-0,612400
25,558500	0,5	-0,609700
25,566833	0,5	-0,612800
25,575167	0,5	-0,615100
25,583500	0,5	-0,615500
25,591833	0,5	-0,607500
25,600167	0,5	-0,604900
25,608500	0,5	-0,604950
25,616833	0,5	-0,615700
25,625167	0,5	-0,618900
25,633500	0,5	-0,622100
25,641833	0,5	-0,622100
25,650167	0,5	-0,611550
25,658500	0,5	-0,609000
25,666833	0,5	-0,615050
25,675167	0,5	-0,615050
25,683500	0,5	-0,614600
25,691833	0,5	-0,614550
25,700167	0,5	-0,616250
25,708500	0,5	-0,610100
25,716833	0,5	-0,612100
25,725167	0,5	-0,610050
25,733500	0,5	-0,605850
25,741833	0,5	-0,595950
25,750167	0,5	-0,596300
25,758500	0,5	-0,593400
25,766833	0,5	-0,598100
25,775167	0,5	-0,599300
25,783500	0,5	-0,601950
25,791833	0,5	-0,599350
25,800167	0,5	-0,592100
25,808500	0,5	-0,589150
25,816833	0,5	-0,595550
25,825167	0,5	-0,593100
25,833500	0,5	-0,591900
25,841833	0,5	-0,595100
25,850167	0,5	-0,588350
25,858500	0,5	-0,589150
25,866833	0,5	-0,588050
25,875167	0,5	-0,589600
25,883500	0,5	-0,581050
25,891833	0,5	-0,574600
25,900167	0,5	-0,565250
25,908500	0,5	-0,562400
25,916833	0,5	-0,567750
25,925167	0,5	-0,570150
25,933500	0,5	-0,562950
25,941833	0,5	-0,549500
25,950167	0,5	-0,539250
25,958500	0,5	-0,541000
25,966833	0,5	-0,542150
25,975167	0,5	-0,539850
25,983500	0,5	-0,537950
25,991833	0,5	-0,534950
26,000167	0,5	-0,535050
