File Path	chrom://chromeleon01/ikbm_chromeleon/2022/ICS-5000/ED1/Esteban/20220427_Cell_Amandas_mutants.seq/223.smp/ED_1.channel/ED_1.chm
Channel	ED_1

Injection Information:
Data Vault	ikbm_chromeleon
Injection	EG_PASC_WT
Injection Number	19
Position	RB5
Comment	
Processing Method	Stop sequence after Cell Death
Instrument Method	ICS5000_PA200_FullNative_Ox_26min_ED1
Type	Unknown
Status	Finished
Injection Date	27.04.2022
Injection Time	21:29:01
Injection Volume (µl)	5,0
Dilution Factor	1,0000
Weight	1,0000

Chromatogram Data Information:
Time Min. (min)	0,000333
Time Max. (min)	26,000333
Data Points	3121
Detector	EDet1
Generating Data System	Chromeleon 7.2.9.11323
Exporting Data System	Chromeleon 7.2.9.0
Operator	Instrument Controller
Signal Quantity	
Signal Unit	nC
Signal Min.	-6,930950
Signal Max.	2 688,159940
Channel	ED_1
Driver Name	DC-5000
Channel Type	Evaluation
Min. Step (s)	0,5
Max. Step (s)	0,5
Average Step (s)	0,5

Signal Parameter Information:
Signal Info	

Chromatogram Data:
Time (min)	Step (s)	Value (nC)
0,000333	n.a.	-0,057500
0,008667	0,5	-0,071200
0,017000	0,5	-0,067500
0,025333	0,5	-0,032700
0,033667	0,5	0,023600
0,042000	0,5	0,020100
0,050333	0,5	0,017700
0,058667	0,5	0,020100
0,067000	0,5	0,023350
0,075333	0,5	0,009650
0,083667	0,5	0,018500
0,092000	0,5	0,018700
0,100333	0,5	0,019300
0,108667	0,5	0,016850
0,117000	0,5	0,009450
0,125333	0,5	-0,005300
0,133667	0,5	0,021550
0,142000	0,5	0,016200
0,150333	0,5	-0,007400
0,158667	0,5	-0,009850
0,167000	0,5	-0,006300
0,175333	0,5	0,028650
0,183667	0,5	0,052950
0,192000	0,5	0,036600
0,200333	0,5	0,038850
0,208667	0,5	0,023850
0,217000	0,5	0,030400
0,225333	0,5	0,025200
0,233667	0,5	0,025050
0,242000	0,5	0,011150
0,250333	0,5	0,007000
0,258667	0,5	0,021650
0,267000	0,5	0,005850
0,275333	0,5	0,002550
0,283667	0,5	0,023200
0,292000	0,5	0,013200
0,300333	0,5	0,030150
0,308667	0,5	0,096600
0,317000	0,5	0,043550
0,325333	0,5	0,020600
0,333667	0,5	0,015500
0,342000	0,5	0,014950
0,350333	0,5	0,008000
0,358667	0,5	0,005200
0,367000	0,5	-0,009100
0,375333	0,5	-0,003750
0,383667	0,5	-0,006800
0,392000	0,5	-0,007000
0,400333	0,5	-0,009600
0,408667	0,5	-0,009200
0,417000	0,5	-0,004800
0,425333	0,5	-0,017900
0,433667	0,5	0,024850
0,442000	0,5	-0,014350
0,450333	0,5	-0,024600
0,458667	0,5	-0,022200
0,467000	0,5	-0,003550
0,475333	0,5	0,022250
0,483667	0,5	0,010250
0,492000	0,5	-0,006850
0,500333	0,5	0,000900
0,508667	0,5	-0,009350
0,517000	0,5	-0,008650
0,525333	0,5	-0,018500
0,533667	0,5	0,001000
0,542000	0,5	-0,015650
0,550333	0,5	-0,021050
0,558667	0,5	-0,014500
0,567000	0,5	-0,029850
0,575333	0,5	-0,021750
0,583667	0,5	-0,000100
0,592000	0,5	-0,026800
0,600333	0,5	-0,036050
0,608667	0,5	-0,028600
0,617000	0,5	-0,010900
0,625333	0,5	0,022250
0,633667	0,5	-0,001400
0,642000	0,5	-0,000750
0,650333	0,5	-0,012650
0,658667	0,5	-0,007700
0,667000	0,5	-0,021650
0,675333	0,5	-0,009800
0,683667	0,5	-0,022200
0,692000	0,5	-0,025200
0,700333	0,5	-0,028050
0,708667	0,5	-0,027300
0,717000	0,5	-0,050300
0,725333	0,5	-0,030600
0,733667	0,5	-0,035450
0,742000	0,5	-0,049200
0,750333	0,5	-0,058550
0,758667	0,5	-0,046150
0,767000	0,5	-0,009350
0,775333	0,5	0,000450
0,783667	0,5	-0,018300
0,792000	0,5	-0,030950
0,800333	0,5	-0,028950
0,808667	0,5	-0,039500
0,817000	0,5	-0,033750
0,825333	0,5	-0,043250
0,833667	0,5	-0,032700
0,842000	0,5	-0,050300
0,850333	0,5	-0,046550
0,858667	0,5	-0,047350
0,867000	0,5	-0,052050
0,875333	0,5	-0,029600
0,883667	0,5	-0,050750
0,892000	0,5	-0,066550
0,900333	0,5	-0,066200
0,908667	0,5	-0,059500
0,917000	0,5	-0,024950
0,925333	0,5	-0,018400
0,933667	0,5	-0,034250
0,942000	0,5	-0,036550
0,950333	0,5	-0,042400
0,958667	0,5	-0,044150
0,967000	0,5	-0,051100
0,975333	0,5	-0,048950
0,983667	0,5	-0,060550
0,992000	0,5	-0,053150
1,000333	0,5	-0,054150
1,008667	0,5	-0,041450
1,017000	0,5	-0,056800
1,025333	0,5	-0,033950
1,033667	0,5	-0,072300
1,042000	0,5	-0,069400
1,050333	0,5	-0,078800
1,058667	0,5	-0,045600
1,067000	0,5	-0,017550
1,075333	0,5	-0,019550
1,083667	0,5	-0,038350
1,092000	0,5	-0,040300
1,100333	0,5	-0,050150
1,108667	0,5	-0,053850
1,117000	0,5	-0,054050
1,125333	0,5	-0,063500
1,133667	0,5	-0,056300
1,142000	0,5	-0,063900
1,150333	0,5	-0,061550
1,158667	0,5	-0,073550
1,167000	0,5	-0,057900
1,175333	0,5	-0,061700
1,183667	0,5	-0,079550
1,192000	0,5	-0,087800
1,200333	0,5	-0,076050
1,208667	0,5	-0,048650
1,217000	0,5	-0,031750
1,225333	0,5	-0,048600
1,233667	0,5	-0,034550
1,242000	0,5	-0,046350
1,250333	0,5	-0,045500
1,258667	0,5	-0,054450
1,267000	0,5	-0,050550
1,275333	0,5	-0,060750
1,283667	0,5	-0,065800
1,292000	0,5	-0,058300
1,300333	0,5	-0,079250
1,308667	0,5	-0,084800
1,317000	0,5	-0,059900
1,325333	0,5	-0,074850
1,333667	0,5	-0,087750
1,342000	0,5	-0,078250
1,350333	0,5	-0,073450
1,358667	0,5	-0,032700
1,367000	0,5	-0,044900
1,375333	0,5	-0,045300
1,383667	0,5	-0,056750
1,392000	0,5	-0,048850
1,400333	0,5	-0,065550
1,408667	0,5	-0,059400
1,417000	0,5	-0,062250
1,425333	0,5	-0,067100
1,433667	0,5	-0,060050
1,442000	0,5	-0,057300
1,450333	0,5	-0,071150
1,458667	0,5	-0,067400
1,467000	0,5	-0,048950
1,475333	0,5	-0,072500
1,483667	0,5	-0,081500
1,492000	0,5	-0,076400
1,500333	0,5	-0,050700
1,508667	0,5	-0,033400
1,517000	0,5	-0,041950
1,525333	0,5	-0,062850
1,533667	0,5	-0,047200
1,542000	0,5	-0,052650
1,550333	0,5	-0,050450
1,558667	0,5	-0,049800
1,567000	0,5	-0,045850
1,575333	0,5	-0,115500
1,583667	0,5	-0,436050
1,592000	0,5	-1,264100
1,600333	0,5	-1,884800
1,608667	0,5	-0,846850
1,617000	0,5	1,885300
1,625333	0,5	5,492600
1,633667	0,5	10,520650
1,642000	0,5	16,707600
1,650333	0,5	21,443700
1,658667	0,5	22,527300
1,667000	0,5	20,731500
1,675333	0,5	18,126750
1,683667	0,5	15,711250
1,692000	0,5	13,673900
1,700333	0,5	11,984250
1,708667	0,5	10,730800
1,717000	0,5	10,187200
1,725333	0,5	11,006000
1,733667	0,5	13,365050
1,742000	0,5	15,615600
1,750333	0,5	15,431050
1,758667	0,5	13,141150
1,767000	0,5	10,510350
1,775333	0,5	8,769550
1,783667	0,5	8,218600
1,792000	0,5	8,930000
1,800333	0,5	10,533400
1,808667	0,5	11,938200
1,817000	0,5	12,226350
1,825333	0,5	11,520900
1,833667	0,5	10,492000
1,842000	0,5	9,506850
1,850333	0,5	8,644250
1,858667	0,5	7,866150
1,867000	0,5	7,169850
1,875333	0,5	6,563450
1,883667	0,5	6,060200
1,892000	0,5	5,606650
1,900333	0,5	5,210550
1,908667	0,5	4,879250
1,917000	0,5	4,564600
1,925333	0,5	4,322950
1,933667	0,5	4,157950
1,942000	0,5	4,111950
1,950333	0,5	4,270350
1,958667	0,5	4,702150
1,967000	0,5	5,271550
1,975333	0,5	5,509950
1,983667	0,5	5,296150
1,992000	0,5	5,343200
2,000333	0,5	7,349450
2,008667	0,5	14,788100
2,017000	0,5	33,462100
2,025333	0,5	72,989801
2,033667	0,5	160,006652
2,042000	0,5	356,181705
2,050333	0,5	678,856010
2,058667	0,5	952,829214
2,067000	0,5	993,530965
2,075333	0,5	836,837162
2,083667	0,5	623,317859
2,092000	0,5	453,317507
2,100333	0,5	341,598805
2,108667	0,5	268,095154
2,117000	0,5	216,678103
2,125333	0,5	178,937753
2,133667	0,5	150,373952
2,142000	0,5	128,483002
2,150333	0,5	111,462202
2,158667	0,5	97,844251
2,167000	0,5	86,836351
2,175333	0,5	78,275851
2,183667	0,5	71,628451
2,192000	0,5	65,684451
2,200333	0,5	59,955901
2,208667	0,5	54,632401
2,217000	0,5	49,997801
2,225333	0,5	46,073051
2,233667	0,5	42,769751
2,242000	0,5	40,033501
2,250333	0,5	37,753001
2,258667	0,5	35,815151
2,267000	0,5	34,184551
2,275333	0,5	32,740850
2,283667	0,5	31,506700
2,292000	0,5	30,412400
2,300333	0,5	29,469900
2,308667	0,5	28,634850
2,317000	0,5	27,927250
2,325333	0,5	27,326900
2,333667	0,5	26,726750
2,342000	0,5	26,130200
2,350333	0,5	25,552400
2,358667	0,5	24,967600
2,367000	0,5	24,452750
2,375333	0,5	24,036600
2,383667	0,5	23,674550
2,392000	0,5	23,389700
2,400333	0,5	23,061550
2,408667	0,5	22,756650
2,417000	0,5	22,469150
2,425333	0,5	22,245700
2,433667	0,5	22,074700
2,442000	0,5	21,981900
2,450333	0,5	21,951000
2,458667	0,5	22,031950
2,467000	0,5	22,277100
2,475333	0,5	22,713800
2,483667	0,5	23,257150
2,492000	0,5	23,804050
2,500333	0,5	24,211250
2,508667	0,5	24,265200
2,517000	0,5	23,809750
2,525333	0,5	23,089900
2,533667	0,5	22,507100
2,542000	0,5	22,109050
2,550333	0,5	21,781100
2,558667	0,5	21,506550
2,567000	0,5	21,280350
2,575333	0,5	21,043900
2,583667	0,5	20,813250
2,592000	0,5	20,613100
2,600333	0,5	20,494450
2,608667	0,5	20,494350
2,617000	0,5	20,691150
2,625333	0,5	21,201000
2,633667	0,5	22,339450
2,642000	0,5	24,679700
2,650333	0,5	28,529200
2,658667	0,5	33,265200
2,667000	0,5	37,284251
2,675333	0,5	39,145301
2,683667	0,5	38,697151
2,692000	0,5	37,610751
2,700333	0,5	44,812251
2,708667	0,5	75,740701
2,717000	0,5	126,371502
2,725333	0,5	190,795553
2,733667	0,5	276,480154
2,742000	0,5	423,126506
2,750333	0,5	766,804211
2,758667	0,5	1 376,289671
2,767000	0,5	2 015,054380
2,775333	0,5	2 426,454836
2,783667	0,5	2 622,447339
2,792000	0,5	2 688,159940
2,800333	0,5	2 687,466840
2,808667	0,5	2 648,221039
2,817000	0,5	2 579,688238
2,825333	0,5	2 486,248337
2,833667	0,5	2 370,821135
2,842000	0,5	2 236,600283
2,850333	0,5	2 088,696331
2,858667	0,5	1 934,539629
2,867000	0,5	1 781,141677
2,875333	0,5	1 634,566224
2,883667	0,5	1 497,601922
2,892000	0,5	1 369,988120
2,900333	0,5	1 249,865469
2,908667	0,5	1 134,749917
2,917000	0,5	1 021,915315
2,925333	0,5	910,188464
2,933667	0,5	804,173462
2,942000	0,5	707,124711
2,950333	0,5	620,214409
2,958667	0,5	543,559358
2,967000	0,5	477,551207
2,975333	0,5	418,461206
2,983667	0,5	367,155205
2,992000	0,5	322,903305
3,000333	0,5	285,204854
3,008667	0,5	253,218654
3,017000	0,5	226,163003
3,025333	0,5	203,154853
3,033667	0,5	183,487703
3,042000	0,5	166,479402
3,050333	0,5	151,639452
3,058667	0,5	138,579102
3,067000	0,5	126,954752
3,075333	0,5	116,534702
3,083667	0,5	107,178702
3,092000	0,5	98,741801
3,100333	0,5	91,078951
3,108667	0,5	84,218951
3,117000	0,5	78,040851
3,125333	0,5	72,513651
3,133667	0,5	67,487651
3,142000	0,5	62,926301
3,150333	0,5	58,729601
3,158667	0,5	54,909451
3,167000	0,5	51,388151
3,175333	0,5	48,168251
3,183667	0,5	45,208151
3,192000	0,5	42,496401
3,200333	0,5	40,021151
3,208667	0,5	37,772551
3,217000	0,5	35,708351
3,225333	0,5	33,809451
3,233667	0,5	32,094250
3,242000	0,5	30,493700
3,250333	0,5	28,994600
3,258667	0,5	27,643050
3,267000	0,5	26,421950
3,275333	0,5	25,356000
3,283667	0,5	24,420350
3,292000	0,5	23,664350
3,300333	0,5	23,244350
3,308667	0,5	23,270150
3,317000	0,5	23,886700
3,325333	0,5	25,037650
3,333667	0,5	26,462550
3,342000	0,5	27,641550
3,350333	0,5	28,093150
3,358667	0,5	27,528200
3,367000	0,5	25,989750
3,375333	0,5	23,841950
3,383667	0,5	21,537700
3,392000	0,5	19,348050
3,400333	0,5	17,506200
3,408667	0,5	16,029750
3,417000	0,5	14,869650
3,425333	0,5	13,952300
3,433667	0,5	13,148150
3,442000	0,5	12,476750
3,450333	0,5	11,885100
3,458667	0,5	11,363600
3,467000	0,5	10,903200
3,475333	0,5	10,516000
3,483667	0,5	10,171000
3,492000	0,5	9,876700
3,500333	0,5	9,635750
3,508667	0,5	9,431150
3,517000	0,5	9,245550
3,525333	0,5	9,122000
3,533667	0,5	9,014800
3,542000	0,5	8,911850
3,550333	0,5	8,796600
3,558667	0,5	8,693000
3,567000	0,5	8,578250
3,575333	0,5	8,439750
3,583667	0,5	8,256650
3,592000	0,5	8,056450
3,600333	0,5	7,868100
3,608667	0,5	7,677050
3,617000	0,5	7,498700
3,625333	0,5	7,327350
3,633667	0,5	7,162200
3,642000	0,5	7,003050
3,650333	0,5	6,845300
3,658667	0,5	6,665100
3,667000	0,5	6,472800
3,675333	0,5	6,290800
3,683667	0,5	6,089600
3,692000	0,5	5,873800
3,700333	0,5	5,676950
3,708667	0,5	5,486550
3,717000	0,5	5,332550
3,725333	0,5	5,157000
3,733667	0,5	4,985150
3,742000	0,5	4,821400
3,750333	0,5	4,681300
3,758667	0,5	4,538050
3,767000	0,5	4,400350
3,775333	0,5	4,281250
3,783667	0,5	4,164450
3,792000	0,5	4,063350
3,800333	0,5	3,960950
3,808667	0,5	3,861300
3,817000	0,5	3,742800
3,825333	0,5	3,665900
3,833667	0,5	3,544200
3,842000	0,5	3,442600
3,850333	0,5	3,339650
3,858667	0,5	3,257200
3,867000	0,5	3,178650
3,875333	0,5	3,095450
3,883667	0,5	3,007750
3,892000	0,5	2,945400
3,900333	0,5	2,905750
3,908667	0,5	2,893550
3,917000	0,5	2,917800
3,925333	0,5	2,992750
3,933667	0,5	3,097650
3,942000	0,5	3,229250
3,950333	0,5	3,377450
3,958667	0,5	3,474000
3,967000	0,5	3,541550
3,975333	0,5	3,538750
3,983667	0,5	3,439850
3,992000	0,5	3,269400
4,000333	0,5	3,069900
4,008667	0,5	2,860350
4,017000	0,5	2,666400
4,025333	0,5	2,448400
4,033667	0,5	2,269700
4,042000	0,5	2,113950
4,050333	0,5	1,985000
4,058667	0,5	1,861450
4,067000	0,5	1,763050
4,075333	0,5	1,664550
4,083667	0,5	1,580650
4,092000	0,5	1,510050
4,100333	0,5	1,432900
4,108667	0,5	1,361400
4,117000	0,5	1,320750
4,125333	0,5	1,277250
4,133667	0,5	1,234100
4,142000	0,5	1,218900
4,150333	0,5	1,219400
4,158667	0,5	1,254150
4,167000	0,5	1,277600
4,175333	0,5	1,289100
4,183667	0,5	1,278600
4,192000	0,5	1,263350
4,200333	0,5	1,221950
4,208667	0,5	1,172900
4,217000	0,5	1,107800
4,225333	0,5	1,036450
4,233667	0,5	0,964800
4,242000	0,5	0,915250
4,250333	0,5	0,855900
4,258667	0,5	0,811000
4,267000	0,5	0,786850
4,275333	0,5	0,735200
4,283667	0,5	0,683200
4,292000	0,5	0,641850
4,300333	0,5	0,598600
4,308667	0,5	0,575050
4,317000	0,5	0,529650
4,325333	0,5	0,470650
4,333667	0,5	0,428700
4,342000	0,5	0,388300
4,350333	0,5	0,359250
4,358667	0,5	0,338450
4,367000	0,5	0,317000
4,375333	0,5	0,279600
4,383667	0,5	0,271100
4,392000	0,5	0,257450
4,400333	0,5	0,255350
4,408667	0,5	0,247150
4,417000	0,5	0,265800
4,425333	0,5	0,254200
4,433667	0,5	0,254850
4,442000	0,5	0,273650
4,450333	0,5	0,314700
4,458667	0,5	0,386550
4,467000	0,5	0,445700
4,475333	0,5	0,550050
4,483667	0,5	0,717800
4,492000	0,5	0,956650
4,500333	0,5	1,295900
4,508667	0,5	1,754250
4,517000	0,5	2,336900
4,525333	0,5	3,062350
4,533667	0,5	3,903950
4,542000	0,5	4,871700
4,550333	0,5	5,908250
4,558667	0,5	7,067900
4,567000	0,5	8,293250
4,575333	0,5	9,624250
4,583667	0,5	11,114300
4,592000	0,5	12,886550
4,600333	0,5	15,073600
4,608667	0,5	17,917850
4,617000	0,5	21,785700
4,625333	0,5	27,302800
4,633667	0,5	35,221001
4,642000	0,5	46,421101
4,650333	0,5	61,540401
4,658667	0,5	80,677051
4,667000	0,5	102,827052
4,675333	0,5	125,894852
4,683667	0,5	147,144052
4,692000	0,5	164,062402
4,700333	0,5	175,048503
4,708667	0,5	179,881203
4,717000	0,5	178,990153
4,725333	0,5	173,481253
4,733667	0,5	164,589352
4,742000	0,5	153,378752
4,750333	0,5	140,781002
4,758667	0,5	127,426202
4,767000	0,5	113,940152
4,775333	0,5	100,764502
4,783667	0,5	88,295501
4,792000	0,5	76,719851
4,800333	0,5	66,228101
4,808667	0,5	56,882551
4,817000	0,5	48,693601
4,825333	0,5	41,643401
4,833667	0,5	35,630801
4,842000	0,5	30,578700
4,850333	0,5	26,302050
4,858667	0,5	22,752050
4,867000	0,5	19,751700
4,875333	0,5	17,269750
4,883667	0,5	15,195550
4,892000	0,5	13,488700
4,900333	0,5	12,066300
4,908667	0,5	10,846350
4,917000	0,5	9,781550
4,925333	0,5	8,893500
4,933667	0,5	8,097650
4,942000	0,5	7,405550
4,950333	0,5	6,777300
4,958667	0,5	6,215400
4,967000	0,5	5,705850
4,975333	0,5	5,243100
4,983667	0,5	4,827050
4,992000	0,5	4,447550
5,000333	0,5	4,115250
5,008667	0,5	3,831350
5,017000	0,5	3,557150
5,025333	0,5	3,325650
5,033667	0,5	3,119000
5,042000	0,5	2,936750
5,050333	0,5	2,780100
5,058667	0,5	2,582250
5,067000	0,5	2,403400
5,075333	0,5	2,216900
5,083667	0,5	2,025400
5,092000	0,5	1,830050
5,100333	0,5	1,649850
5,108667	0,5	1,470300
5,117000	0,5	1,309050
5,125333	0,5	1,162750
5,133667	0,5	1,031000
5,142000	0,5	0,905500
5,150333	0,5	0,827250
5,158667	0,5	0,730000
5,167000	0,5	0,648400
5,175333	0,5	0,593100
5,183667	0,5	0,542750
5,192000	0,5	0,516000
5,200333	0,5	0,474600
5,208667	0,5	0,440050
5,217000	0,5	0,397050
5,225333	0,5	0,366550
5,233667	0,5	0,326450
5,242000	0,5	0,299000
5,250333	0,5	0,271250
5,258667	0,5	0,250200
5,267000	0,5	0,229700
5,275333	0,5	0,220500
5,283667	0,5	0,198700
5,292000	0,5	0,200150
5,300333	0,5	0,209000
5,308667	0,5	0,206100
5,317000	0,5	0,206850
5,325333	0,5	0,230700
5,333667	0,5	0,269500
5,342000	0,5	0,311350
5,350333	0,5	0,338250
5,358667	0,5	0,356150
5,367000	0,5	0,376350
5,375333	0,5	0,393700
5,383667	0,5	0,396450
5,392000	0,5	0,392300
5,400333	0,5	0,385450
5,408667	0,5	0,362850
5,417000	0,5	0,347100
5,425333	0,5	0,317950
5,433667	0,5	0,297950
5,442000	0,5	0,267050
5,450333	0,5	0,243600
5,458667	0,5	0,195450
5,467000	0,5	0,157850
5,475333	0,5	0,131950
5,483667	0,5	0,117350
5,492000	0,5	0,097500
5,500333	0,5	0,059400
5,508667	0,5	0,028200
5,517000	0,5	0,012100
5,525333	0,5	-0,015750
5,533667	0,5	-0,025600
5,542000	0,5	-0,039100
5,550333	0,5	-0,053600
5,558667	0,5	-0,063700
5,567000	0,5	-0,067000
5,575333	0,5	-0,059400
5,583667	0,5	-0,068750
5,592000	0,5	-0,040400
5,600333	0,5	-0,051300
5,608667	0,5	-0,050550
5,617000	0,5	-0,043850
5,625333	0,5	-0,028250
5,633667	0,5	0,002000
5,642000	0,5	0,013500
5,650333	0,5	0,005950
5,658667	0,5	0,015000
5,667000	0,5	0,020400
5,675333	0,5	0,025000
5,683667	0,5	0,024700
5,692000	0,5	0,027350
5,700333	0,5	0,024000
5,708667	0,5	0,012350
5,717000	0,5	0,009450
5,725333	0,5	-0,000400
5,733667	0,5	-0,017500
5,742000	0,5	-0,017450
5,750333	0,5	-0,025950
5,758667	0,5	-0,042100
5,767000	0,5	-0,054300
5,775333	0,5	-0,057300
5,783667	0,5	-0,033850
5,792000	0,5	-0,048900
5,800333	0,5	-0,061800
5,808667	0,5	-0,073100
5,817000	0,5	-0,068000
5,825333	0,5	-0,075350
5,833667	0,5	-0,065350
5,842000	0,5	-0,066800
5,850333	0,5	-0,063350
5,858667	0,5	-0,050100
5,867000	0,5	-0,034650
5,875333	0,5	-0,018950
5,883667	0,5	0,006800
5,892000	0,5	0,045250
5,900333	0,5	0,056050
5,908667	0,5	0,093700
5,917000	0,5	0,134050
5,925333	0,5	0,208700
5,933667	0,5	0,301050
5,942000	0,5	0,385100
5,950333	0,5	0,464950
5,958667	0,5	0,570000
5,967000	0,5	0,667900
5,975333	0,5	0,777100
5,983667	0,5	0,888950
5,992000	0,5	0,991200
6,000333	0,5	1,072000
6,008667	0,5	1,137900
6,017000	0,5	1,179900
6,025333	0,5	1,202850
6,033667	0,5	1,200450
6,042000	0,5	1,177800
6,050333	0,5	1,121100
6,058667	0,5	1,070800
6,067000	0,5	1,014650
6,075333	0,5	0,973000
6,083667	0,5	0,939450
6,092000	0,5	0,878650
6,100333	0,5	0,829300
6,108667	0,5	0,784700
6,117000	0,5	0,741900
6,125333	0,5	0,695100
6,133667	0,5	0,667800
6,142000	0,5	0,625850
6,150333	0,5	0,587550
6,158667	0,5	0,560850
6,167000	0,5	0,533500
6,175333	0,5	0,507050
6,183667	0,5	0,507850
6,192000	0,5	0,486450
6,200333	0,5	0,467250
6,208667	0,5	0,461700
6,217000	0,5	0,469150
6,225333	0,5	0,481050
6,233667	0,5	0,477650
6,242000	0,5	0,469800
6,250333	0,5	0,455350
6,258667	0,5	0,442250
6,267000	0,5	0,423500
6,275333	0,5	0,411750
6,283667	0,5	0,391850
6,292000	0,5	0,385100
6,300333	0,5	0,370350
6,308667	0,5	0,365000
6,317000	0,5	0,354150
6,325333	0,5	0,364550
6,333667	0,5	0,363950
6,342000	0,5	0,358850
6,350333	0,5	0,353150
6,358667	0,5	0,361700
6,367000	0,5	0,373500
6,375333	0,5	0,400850
6,383667	0,5	0,395350
6,392000	0,5	0,398950
6,400333	0,5	0,395250
6,408667	0,5	0,399900
6,417000	0,5	0,395300
6,425333	0,5	0,401850
6,433667	0,5	0,409050
6,442000	0,5	0,414150
6,450333	0,5	0,427450
6,458667	0,5	0,446800
6,467000	0,5	0,469150
6,475333	0,5	0,496950
6,483667	0,5	0,519350
6,492000	0,5	0,533700
6,500333	0,5	0,558450
6,508667	0,5	0,585300
6,517000	0,5	0,630050
6,525333	0,5	0,669450
6,533667	0,5	0,699650
6,542000	0,5	0,737300
6,550333	0,5	0,792950
6,558667	0,5	0,855050
6,567000	0,5	0,942850
6,575333	0,5	1,045200
6,583667	0,5	1,157600
6,592000	0,5	1,290000
6,600333	0,5	1,442100
6,608667	0,5	1,584500
6,617000	0,5	1,699350
6,625333	0,5	1,822850
6,633667	0,5	1,880500
6,642000	0,5	1,900750
6,650333	0,5	1,885750
6,658667	0,5	1,836950
6,667000	0,5	1,768600
6,675333	0,5	1,664500
6,683667	0,5	1,528600
6,692000	0,5	1,410600
6,700333	0,5	1,305400
6,708667	0,5	1,206050
6,717000	0,5	1,120950
6,725333	0,5	1,049200
6,733667	0,5	0,990100
6,742000	0,5	0,952400
6,750333	0,5	0,925750
6,758667	0,5	0,905450
6,767000	0,5	0,878000
6,775333	0,5	0,887600
6,783667	0,5	0,872100
6,792000	0,5	0,871750
6,800333	0,5	0,876500
6,808667	0,5	0,892850
6,817000	0,5	0,923600
6,825333	0,5	0,928400
6,833667	0,5	0,941000
6,842000	0,5	0,951000
6,850333	0,5	0,972400
6,858667	0,5	0,983550
6,867000	0,5	0,999250
6,875333	0,5	1,008000
6,883667	0,5	1,020750
6,892000	0,5	1,031850
6,900333	0,5	1,051100
6,908667	0,5	1,053350
6,917000	0,5	1,076450
6,925333	0,5	1,103600
6,933667	0,5	1,120350
6,942000	0,5	1,148850
6,950333	0,5	1,185450
6,958667	0,5	1,237000
6,967000	0,5	1,288650
6,975333	0,5	1,329050
6,983667	0,5	1,359950
6,992000	0,5	1,397650
7,000333	0,5	1,417150
7,008667	0,5	1,446550
7,017000	0,5	1,467350
7,025333	0,5	1,493300
7,033667	0,5	1,515200
7,042000	0,5	1,551300
7,050333	0,5	1,582400
7,058667	0,5	1,623150
7,067000	0,5	1,684500
7,075333	0,5	1,749600
7,083667	0,5	1,811300
7,092000	0,5	1,896250
7,100333	0,5	1,980100
7,108667	0,5	2,077150
7,117000	0,5	2,150650
7,125333	0,5	2,184650
7,133667	0,5	2,195250
7,142000	0,5	2,183450
7,150333	0,5	2,141900
7,158667	0,5	2,080250
7,167000	0,5	2,013100
7,175333	0,5	1,932650
7,183667	0,5	1,859950
7,192000	0,5	1,798700
7,200333	0,5	1,753950
7,208667	0,5	1,710650
7,217000	0,5	1,694900
7,225333	0,5	1,664150
7,233667	0,5	1,645700
7,242000	0,5	1,643250
7,250333	0,5	1,662600
7,258667	0,5	1,693750
7,267000	0,5	1,729600
7,275333	0,5	1,761050
7,283667	0,5	1,809300
7,292000	0,5	1,850350
7,300333	0,5	1,888200
7,308667	0,5	1,917700
7,317000	0,5	1,937750
7,325333	0,5	1,941950
7,333667	0,5	1,931500
7,342000	0,5	1,917350
7,350333	0,5	1,889200
7,358667	0,5	1,879050
7,367000	0,5	1,875750
7,375333	0,5	1,875350
7,383667	0,5	1,883450
7,392000	0,5	1,914550
7,400333	0,5	1,956550
7,408667	0,5	1,997400
7,417000	0,5	2,017050
7,425333	0,5	2,032250
7,433667	0,5	2,032700
7,442000	0,5	2,033150
7,450333	0,5	2,021450
7,458667	0,5	2,011150
7,467000	0,5	1,999800
7,475333	0,5	1,988150
7,483667	0,5	1,978000
7,492000	0,5	1,976550
7,500333	0,5	1,966800
7,508667	0,5	1,982650
7,517000	0,5	1,999200
7,525333	0,5	2,010900
7,533667	0,5	2,038850
7,542000	0,5	2,085500
7,550333	0,5	2,161350
7,558667	0,5	2,241000
7,567000	0,5	2,329250
7,575333	0,5	2,429600
7,583667	0,5	2,532450
7,592000	0,5	2,611000
7,600333	0,5	2,675850
7,608667	0,5	2,723900
7,617000	0,5	2,790700
7,625333	0,5	2,878700
7,633667	0,5	3,031000
7,642000	0,5	3,265650
7,650333	0,5	3,560000
7,658667	0,5	3,892300
7,667000	0,5	4,206150
7,675333	0,5	4,489650
7,683667	0,5	4,746050
7,692000	0,5	4,999900
7,700333	0,5	5,256950
7,708667	0,5	5,474250
7,717000	0,5	5,589250
7,725333	0,5	5,548500
7,733667	0,5	5,316250
7,742000	0,5	4,941100
7,750333	0,5	4,483750
7,758667	0,5	4,042900
7,767000	0,5	3,653600
7,775333	0,5	3,358050
7,783667	0,5	3,162600
7,792000	0,5	3,049900
7,800333	0,5	3,012300
7,808667	0,5	3,054250
7,817000	0,5	3,111700
7,825333	0,5	3,203950
7,833667	0,5	3,293800
7,842000	0,5	3,385500
7,850333	0,5	3,473000
7,858667	0,5	3,555400
7,867000	0,5	3,674900
7,875333	0,5	3,850300
7,883667	0,5	4,076250
7,892000	0,5	4,306950
7,900333	0,5	4,463400
7,908667	0,5	4,485100
7,917000	0,5	4,374800
7,925333	0,5	4,181250
7,933667	0,5	3,962900
7,942000	0,5	3,744450
7,950333	0,5	3,579550
7,958667	0,5	3,434550
7,967000	0,5	3,294250
7,975333	0,5	3,200950
7,983667	0,5	3,154450
7,992000	0,5	3,198800
8,000333	0,5	3,338000
8,008667	0,5	3,580200
8,017000	0,5	3,922600
8,025333	0,5	4,361000
8,033667	0,5	4,814050
8,042000	0,5	5,234300
8,050333	0,5	5,634100
8,058667	0,5	6,181400
8,067000	0,5	7,216350
8,075333	0,5	9,239450
8,083667	0,5	12,597000
8,092000	0,5	17,131600
8,100333	0,5	21,754150
8,108667	0,5	24,901300
8,117000	0,5	25,541150
8,125333	0,5	23,929100
8,133667	0,5	21,251200
8,142000	0,5	18,744250
8,150333	0,5	17,058500
8,158667	0,5	16,302700
8,167000	0,5	16,316300
8,175333	0,5	16,831250
8,183667	0,5	17,471800
8,192000	0,5	17,866850
8,200333	0,5	17,773850
8,208667	0,5	17,092550
8,217000	0,5	15,836750
8,225333	0,5	14,141750
8,233667	0,5	12,280650
8,242000	0,5	10,584550
8,250333	0,5	9,345600
8,258667	0,5	8,749350
8,267000	0,5	8,954950
8,275333	0,5	10,076300
8,283667	0,5	12,014100
8,292000	0,5	14,262200
8,300333	0,5	15,913050
8,308667	0,5	16,186500
8,317000	0,5	14,930150
8,325333	0,5	12,667000
8,333667	0,5	10,212900
8,342000	0,5	8,144800
8,350333	0,5	6,654500
8,358667	0,5	5,666450
8,367000	0,5	5,025100
8,375333	0,5	4,597150
8,383667	0,5	4,287050
8,392000	0,5	4,061450
8,400333	0,5	3,887200
8,408667	0,5	3,730750
8,417000	0,5	3,593150
8,425333	0,5	3,470100
8,433667	0,5	3,386200
8,442000	0,5	3,338450
8,450333	0,5	3,306550
8,458667	0,5	3,295300
8,467000	0,5	3,278850
8,475333	0,5	3,268850
8,483667	0,5	3,244000
8,492000	0,5	3,218750
8,500333	0,5	3,194550
8,508667	0,5	3,174800
8,517000	0,5	3,168200
8,525333	0,5	3,178700
8,533667	0,5	3,201950
8,542000	0,5	3,255350
8,550333	0,5	3,300450
8,558667	0,5	3,306350
8,567000	0,5	3,242950
8,575333	0,5	3,145750
8,583667	0,5	3,055200
8,592000	0,5	2,972200
8,600333	0,5	2,903300
8,608667	0,5	2,846850
8,617000	0,5	2,803250
8,625333	0,5	2,768200
8,633667	0,5	2,752150
8,642000	0,5	2,745100
8,650333	0,5	2,757400
8,658667	0,5	2,776100
8,667000	0,5	2,809100
8,675333	0,5	2,849750
8,683667	0,5	2,904850
8,692000	0,5	2,985100
8,700333	0,5	3,065250
8,708667	0,5	3,149050
8,717000	0,5	3,249000
8,725333	0,5	3,380800
8,733667	0,5	3,583050
8,742000	0,5	3,828300
8,750333	0,5	4,033800
8,758667	0,5	4,115200
8,767000	0,5	4,010550
8,775333	0,5	3,739600
8,783667	0,5	3,369600
8,792000	0,5	3,017650
8,800333	0,5	2,726000
8,808667	0,5	2,521750
8,817000	0,5	2,393600
8,825333	0,5	2,322100
8,833667	0,5	2,296250
8,842000	0,5	2,325550
8,850333	0,5	2,401950
8,858667	0,5	2,529500
8,867000	0,5	2,719550
8,875333	0,5	3,039450
8,883667	0,5	3,570150
8,892000	0,5	4,451650
8,900333	0,5	5,751450
8,908667	0,5	7,379000
8,917000	0,5	8,997200
8,925333	0,5	10,148150
8,933667	0,5	10,509300
8,942000	0,5	10,101750
8,950333	0,5	9,207900
8,958667	0,5	8,176350
8,967000	0,5	7,210450
8,975333	0,5	6,380000
8,983667	0,5	5,695500
8,992000	0,5	5,126250
9,000333	0,5	4,653350
9,008667	0,5	4,277350
9,017000	0,5	3,965650
9,025333	0,5	3,708150
9,033667	0,5	3,497600
9,042000	0,5	3,331050
9,050333	0,5	3,215600
9,058667	0,5	3,128750
9,067000	0,5	3,060700
9,075333	0,5	2,971150
9,083667	0,5	2,873650
9,092000	0,5	2,767700
9,100333	0,5	2,670150
9,108667	0,5	2,594500
9,117000	0,5	2,528100
9,125333	0,5	2,485550
9,133667	0,5	2,469600
9,142000	0,5	2,450650
9,150333	0,5	2,442350
9,158667	0,5	2,425400
9,167000	0,5	2,411400
9,175333	0,5	2,390600
9,183667	0,5	2,362750
9,192000	0,5	2,337500
9,200333	0,5	2,317400
9,208667	0,5	2,312150
9,217000	0,5	2,322600
9,225333	0,5	2,341350
9,233667	0,5	2,381550
9,242000	0,5	2,428750
9,250333	0,5	2,499300
9,258667	0,5	2,601400
9,267000	0,5	2,752400
9,275333	0,5	2,956400
9,283667	0,5	3,205800
9,292000	0,5	3,464400
9,300333	0,5	3,689700
9,308667	0,5	3,835800
9,317000	0,5	3,878200
9,325333	0,5	3,827250
9,333667	0,5	3,682900
9,342000	0,5	3,466700
9,350333	0,5	3,229650
9,358667	0,5	2,985800
9,367000	0,5	2,775300
9,375333	0,5	2,615700
9,383667	0,5	2,507950
9,392000	0,5	2,450250
9,400333	0,5	2,431550
9,408667	0,5	2,457450
9,417000	0,5	2,509200
9,425333	0,5	2,563550
9,433667	0,5	2,615650
9,442000	0,5	2,658500
9,450333	0,5	2,716250
9,458667	0,5	2,814700
9,467000	0,5	2,946500
9,475333	0,5	3,093950
9,483667	0,5	3,232900
9,492000	0,5	3,361550
9,500333	0,5	3,522850
9,508667	0,5	3,769600
9,517000	0,5	4,157050
9,525333	0,5	4,690300
9,533667	0,5	5,296900
9,542000	0,5	5,856750
9,550333	0,5	6,212850
9,558667	0,5	6,264700
9,567000	0,5	5,998400
9,575333	0,5	5,496150
9,583667	0,5	4,897850
9,592000	0,5	4,306000
9,600333	0,5	3,822700
9,608667	0,5	3,475550
9,617000	0,5	3,265550
9,625333	0,5	3,174650
9,633667	0,5	3,191400
9,642000	0,5	3,294000
9,650333	0,5	3,440250
9,658667	0,5	3,555900
9,667000	0,5	3,599800
9,675333	0,5	3,551400
9,683667	0,5	3,440500
9,692000	0,5	3,313400
9,700333	0,5	3,192200
9,708667	0,5	3,104500
9,717000	0,5	3,054450
9,725333	0,5	3,044850
9,733667	0,5	3,067500
9,742000	0,5	3,094500
9,750333	0,5	3,091400
9,758667	0,5	3,047950
9,767000	0,5	2,962550
9,775333	0,5	2,834050
9,783667	0,5	2,697800
9,792000	0,5	2,561500
9,800333	0,5	2,432200
9,808667	0,5	2,329200
9,817000	0,5	2,248350
9,825333	0,5	2,181000
9,833667	0,5	2,129350
9,842000	0,5	2,086700
9,850333	0,5	2,061200
9,858667	0,5	2,034500
9,867000	0,5	2,020900
9,875333	0,5	2,019750
9,883667	0,5	2,023250
9,892000	0,5	2,028000
9,900333	0,5	2,030900
9,908667	0,5	2,025150
9,917000	0,5	2,008450
9,925333	0,5	1,991850
9,933667	0,5	1,971300
9,942000	0,5	1,957750
9,950333	0,5	1,949200
9,958667	0,5	1,941200
9,967000	0,5	1,928100
9,975333	0,5	1,908500
9,983667	0,5	1,872500
9,992000	0,5	1,828350
10,000333	0,5	1,796250
10,008667	0,5	1,764250
10,017000	0,5	1,737700
10,025333	0,5	1,726400
10,033667	0,5	1,719050
10,042000	0,5	1,715100
10,050333	0,5	1,703150
10,058667	0,5	1,685750
10,067000	0,5	1,678800
10,075333	0,5	1,673300
10,083667	0,5	1,669100
10,092000	0,5	1,667950
10,100333	0,5	1,665350
10,108667	0,5	1,655500
10,117000	0,5	1,643400
10,125333	0,5	1,626600
10,133667	0,5	1,611300
10,142000	0,5	1,603000
10,150333	0,5	1,603450
10,158667	0,5	1,606900
10,167000	0,5	1,625100
10,175333	0,5	1,660100
10,183667	0,5	1,709700
10,192000	0,5	1,774550
10,200333	0,5	1,858850
10,208667	0,5	1,956900
10,217000	0,5	2,067350
10,225333	0,5	2,165450
10,233667	0,5	2,238500
10,242000	0,5	2,275250
10,250333	0,5	2,259900
10,258667	0,5	2,199350
10,267000	0,5	2,105150
10,275333	0,5	2,000200
10,283667	0,5	1,894100
10,292000	0,5	1,801900
10,300333	0,5	1,720450
10,308667	0,5	1,654100
10,317000	0,5	1,599900
10,325333	0,5	1,562650
10,333667	0,5	1,532250
10,342000	0,5	1,511500
10,350333	0,5	1,489800
10,358667	0,5	1,484000
10,367000	0,5	1,478850
10,375333	0,5	1,480300
10,383667	0,5	1,478550
10,392000	0,5	1,489800
10,400333	0,5	1,493900
10,408667	0,5	1,497200
10,417000	0,5	1,504050
10,425333	0,5	1,505850
10,433667	0,5	1,511050
10,442000	0,5	1,512000
10,450333	0,5	1,515200
10,458667	0,5	1,513200
10,467000	0,5	1,523450
10,475333	0,5	1,528450
10,483667	0,5	1,542750
10,492000	0,5	1,559900
10,500333	0,5	1,589450
10,508667	0,5	1,631800
10,517000	0,5	1,684500
10,525333	0,5	1,734100
10,533667	0,5	1,782900
10,542000	0,5	1,797600
10,550333	0,5	1,801950
10,558667	0,5	1,776250
10,567000	0,5	1,735800
10,575333	0,5	1,688750
10,583667	0,5	1,640150
10,592000	0,5	1,604100
10,600333	0,5	1,570800
10,608667	0,5	1,540100
10,617000	0,5	1,524750
10,625333	0,5	1,511400
10,633667	0,5	1,496550
10,642000	0,5	1,496500
10,650333	0,5	1,490550
10,658667	0,5	1,503700
10,667000	0,5	1,511300
10,675333	0,5	1,526550
10,683667	0,5	1,539100
10,692000	0,5	1,560350
10,700333	0,5	1,576950
10,708667	0,5	1,595800
10,717000	0,5	1,607950
10,725333	0,5	1,616000
10,733667	0,5	1,620900
10,742000	0,5	1,627550
10,750333	0,5	1,636200
10,758667	0,5	1,654650
10,767000	0,5	1,685150
10,775333	0,5	1,724550
10,783667	0,5	1,776200
10,792000	0,5	1,825900
10,800333	0,5	1,875050
10,808667	0,5	1,905600
10,817000	0,5	1,920550
10,825333	0,5	1,910850
10,833667	0,5	1,887100
10,842000	0,5	1,861700
10,850333	0,5	1,860900
10,858667	0,5	1,864550
10,867000	0,5	1,874350
10,875333	0,5	1,894250
10,883667	0,5	1,917000
10,892000	0,5	1,941450
10,900333	0,5	1,979050
10,908667	0,5	2,045150
10,917000	0,5	2,167000
10,925333	0,5	2,354900
10,933667	0,5	2,638750
10,942000	0,5	3,022900
10,950333	0,5	3,468850
10,958667	0,5	3,925100
10,967000	0,5	4,291450
10,975333	0,5	4,485550
10,983667	0,5	4,478800
10,992000	0,5	4,259950
11,000333	0,5	3,895900
11,008667	0,5	3,464550
11,017000	0,5	3,018900
11,025333	0,5	2,632000
11,033667	0,5	2,318900
11,042000	0,5	2,087100
11,050333	0,5	1,926450
11,058667	0,5	1,821800
11,067000	0,5	1,760650
11,075333	0,5	1,722350
11,083667	0,5	1,688250
11,092000	0,5	1,677800
11,100333	0,5	1,663900
11,108667	0,5	1,653600
11,117000	0,5	1,642150
11,125333	0,5	1,627550
11,133667	0,5	1,610400
11,142000	0,5	1,592900
11,150333	0,5	1,572200
11,158667	0,5	1,550850
11,167000	0,5	1,531550
11,175333	0,5	1,511050
11,183667	0,5	1,496300
11,192000	0,5	1,478200
11,200333	0,5	1,476150
11,208667	0,5	1,470250
11,217000	0,5	1,454000
11,225333	0,5	1,444900
11,233667	0,5	1,433800
11,242000	0,5	1,430600
11,250333	0,5	1,426750
11,258667	0,5	1,425600
11,267000	0,5	1,428250
11,275333	0,5	1,424050
11,283667	0,5	1,425150
11,292000	0,5	1,427300
11,300333	0,5	1,432250
11,308667	0,5	1,427500
11,317000	0,5	1,425100
11,325333	0,5	1,427850
11,333667	0,5	1,427650
11,342000	0,5	1,426850
11,350333	0,5	1,424500
11,358667	0,5	1,429300
11,367000	0,5	1,433750
11,375333	0,5	1,437200
11,383667	0,5	1,439400
11,392000	0,5	1,454150
11,400333	0,5	1,480950
11,408667	0,5	1,514650
11,417000	0,5	1,561550
11,425333	0,5	1,623600
11,433667	0,5	1,692400
11,442000	0,5	1,767900
11,450333	0,5	1,836200
11,458667	0,5	1,883600
11,467000	0,5	1,897600
11,475333	0,5	1,880550
11,483667	0,5	1,837100
11,492000	0,5	1,764350
11,500333	0,5	1,710050
11,508667	0,5	1,645900
11,517000	0,5	1,597250
11,525333	0,5	1,561400
11,533667	0,5	1,550000
11,542000	0,5	1,554500
11,550333	0,5	1,566100
11,558667	0,5	1,579300
11,567000	0,5	1,596650
11,575333	0,5	1,615100
11,583667	0,5	1,639900
11,592000	0,5	1,671100
11,600333	0,5	1,714100
11,608667	0,5	1,764550
11,617000	0,5	1,823600
11,625333	0,5	1,876700
11,633667	0,5	1,903300
11,642000	0,5	1,906150
11,650333	0,5	1,886500
11,658667	0,5	1,841650
11,667000	0,5	1,788200
11,675333	0,5	1,729550
11,683667	0,5	1,683500
11,692000	0,5	1,648500
11,700333	0,5	1,617850
11,708667	0,5	1,592000
11,717000	0,5	1,570100
11,725333	0,5	1,561650
11,733667	0,5	1,544350
11,742000	0,5	1,541400
11,750333	0,5	1,544100
11,758667	0,5	1,550900
11,767000	0,5	1,564400
11,775333	0,5	1,595400
11,783667	0,5	1,639250
11,792000	0,5	1,711050
11,800333	0,5	1,821850
11,808667	0,5	1,974250
11,817000	0,5	2,164850
11,825333	0,5	2,390950
11,833667	0,5	2,643500
11,842000	0,5	2,875050
11,850333	0,5	3,058250
11,858667	0,5	3,163250
11,867000	0,5	3,177750
11,875333	0,5	3,104450
11,883667	0,5	2,981350
11,892000	0,5	2,819400
11,900333	0,5	2,654050
11,908667	0,5	2,499200
11,917000	0,5	2,356250
11,925333	0,5	2,233450
11,933667	0,5	2,132150
11,942000	0,5	2,043300
11,950333	0,5	1,970400
11,958667	0,5	1,904350
11,967000	0,5	1,828800
11,975333	0,5	1,760950
11,983667	0,5	1,700150
11,992000	0,5	1,642400
12,000333	0,5	1,591100
12,008667	0,5	1,545600
12,017000	0,5	1,509950
12,025333	0,5	1,486950
12,033667	0,5	1,471500
12,042000	0,5	1,459600
12,050333	0,5	1,443150
12,058667	0,5	1,430150
12,067000	0,5	1,416250
12,075333	0,5	1,391400
12,083667	0,5	1,378000
12,092000	0,5	1,361800
12,100333	0,5	1,345450
12,108667	0,5	1,327200
12,117000	0,5	1,307250
12,125333	0,5	1,299950
12,133667	0,5	1,290850
12,142000	0,5	1,300300
12,150333	0,5	1,304500
12,158667	0,5	1,309500
12,167000	0,5	1,320150
12,175333	0,5	1,337400
12,183667	0,5	1,354800
12,192000	0,5	1,370600
12,200333	0,5	1,405050
12,208667	0,5	1,440950
12,217000	0,5	1,495100
12,225333	0,5	1,541000
12,233667	0,5	1,622050
12,242000	0,5	1,700850
12,250333	0,5	1,781550
12,258667	0,5	1,858550
12,267000	0,5	1,937850
12,275333	0,5	2,013250
12,283667	0,5	2,079850
12,292000	0,5	2,120050
12,300333	0,5	2,125650
12,308667	0,5	2,106700
12,317000	0,5	2,059650
12,325333	0,5	1,985000
12,333667	0,5	1,905750
12,342000	0,5	1,825700
12,350333	0,5	1,756300
12,358667	0,5	1,704300
12,367000	0,5	1,674550
12,375333	0,5	1,646600
12,383667	0,5	1,640050
12,392000	0,5	1,635350
12,400333	0,5	1,643900
12,408667	0,5	1,649050
12,417000	0,5	1,659350
12,425333	0,5	1,689300
12,433667	0,5	1,717450
12,442000	0,5	1,759250
12,450333	0,5	1,798050
12,458667	0,5	1,852500
12,467000	0,5	1,901900
12,475333	0,5	1,946500
12,483667	0,5	1,980950
12,492000	0,5	2,011900
12,500333	0,5	2,045400
12,508667	0,5	2,098400
12,517000	0,5	2,167550
12,525333	0,5	2,280600
12,533667	0,5	2,414400
12,542000	0,5	2,559100
12,550333	0,5	2,690400
12,558667	0,5	2,789000
12,567000	0,5	2,859600
12,575333	0,5	2,876800
12,583667	0,5	2,838050
12,592000	0,5	2,754450
12,600333	0,5	2,649300
12,608667	0,5	2,549200
12,617000	0,5	2,457050
12,625333	0,5	2,385050
12,633667	0,5	2,324950
12,642000	0,5	2,274750
12,650333	0,5	2,226700
12,658667	0,5	2,185450
12,667000	0,5	2,139050
12,675333	0,5	2,110950
12,683667	0,5	2,085050
12,692000	0,5	2,071450
12,700333	0,5	2,058500
12,708667	0,5	2,030950
12,717000	0,5	2,022100
12,725333	0,5	2,013550
12,733667	0,5	1,981850
12,742000	0,5	1,948600
12,750333	0,5	1,909000
12,758667	0,5	1,868650
12,767000	0,5	1,824900
12,775333	0,5	1,790700
12,783667	0,5	1,757600
12,792000	0,5	1,741850
12,800333	0,5	1,741550
12,808667	0,5	1,723400
12,817000	0,5	1,675300
12,825333	0,5	1,635550
12,833667	0,5	1,589200
12,842000	0,5	1,551950
12,850333	0,5	1,519750
12,858667	0,5	1,549000
12,867000	0,5	1,714050
12,875333	0,5	1,951950
12,883667	0,5	1,994650
12,892000	0,5	1,648550
12,900333	0,5	1,031850
12,908667	0,5	0,490200
12,917000	0,5	0,128550
12,925333	0,5	-0,140750
12,933667	0,5	-0,387250
12,942000	0,5	-0,653100
12,950333	0,5	-0,987250
12,958667	0,5	-1,316050
12,967000	0,5	-1,552150
12,975333	0,5	-1,714400
12,983667	0,5	-1,842500
12,992000	0,5	-1,949950
13,000333	0,5	-2,041450
13,008667	0,5	-2,120000
13,017000	0,5	-2,175500
13,025333	0,5	-2,227600
13,033667	0,5	-2,271650
13,042000	0,5	-2,314100
13,050333	0,5	-2,351950
13,058667	0,5	-2,385150
13,067000	0,5	-2,414100
13,075333	0,5	-2,441700
13,083667	0,5	-2,471600
13,092000	0,5	-2,483300
13,100333	0,5	-2,507600
13,108667	0,5	-2,538400
13,117000	0,5	-2,553000
13,125333	0,5	-2,562250
13,133667	0,5	-2,577150
13,142000	0,5	-2,589600
13,150333	0,5	-2,614800
13,158667	0,5	-2,619800
13,167000	0,5	-2,628900
13,175333	0,5	-2,627600
13,183667	0,5	-2,637800
13,192000	0,5	-2,637000
13,200333	0,5	-2,643100
13,208667	0,5	-2,644950
13,217000	0,5	-2,651250
13,225333	0,5	-2,651450
13,233667	0,5	-2,649400
13,242000	0,5	-2,644950
13,250333	0,5	-2,639200
13,258667	0,5	-2,645550
13,267000	0,5	-2,635600
13,275333	0,5	-2,624700
13,283667	0,5	-2,621350
13,292000	0,5	-2,621250
13,300333	0,5	-2,616100
13,308667	0,5	-2,603800
13,317000	0,5	-2,587750
13,325333	0,5	-2,580000
13,333667	0,5	-2,562350
13,342000	0,5	-2,548550
13,350333	0,5	-2,528900
13,358667	0,5	-2,515250
13,367000	0,5	-2,493100
13,375333	0,5	-2,473300
13,383667	0,5	-2,453800
13,392000	0,5	-2,418450
13,400333	0,5	-2,406150
13,408667	0,5	-2,390400
13,417000	0,5	-2,367250
13,425333	0,5	-2,358650
13,433667	0,5	-2,349100
13,442000	0,5	-2,353750
13,450333	0,5	-2,354450
13,458667	0,5	-2,350900
13,467000	0,5	-2,365550
13,475333	0,5	-2,376800
13,483667	0,5	-2,388000
13,492000	0,5	-2,398150
13,500333	0,5	-2,413650
13,508667	0,5	-2,417300
13,517000	0,5	-2,423150
13,525333	0,5	-2,426850
13,533667	0,5	-2,412250
13,542000	0,5	-2,396800
13,550333	0,5	-2,392900
13,558667	0,5	-2,355700
13,567000	0,5	-2,328750
13,575333	0,5	-2,298600
13,583667	0,5	-2,279900
13,592000	0,5	-2,271900
13,600333	0,5	-2,245500
13,608667	0,5	-2,237100
13,617000	0,5	-2,233500
13,625333	0,5	-2,242350
13,633667	0,5	-2,242450
13,642000	0,5	-2,253100
13,650333	0,5	-2,252250
13,658667	0,5	-2,261800
13,667000	0,5	-2,263550
13,675333	0,5	-2,266900
13,683667	0,5	-2,262600
13,692000	0,5	-2,250200
13,700333	0,5	-2,249800
13,708667	0,5	-2,231050
13,717000	0,5	-2,218800
13,725333	0,5	-2,198250
13,733667	0,5	-2,178350
13,742000	0,5	-2,157000
13,750333	0,5	-2,118950
13,758667	0,5	-2,083200
13,767000	0,5	-2,048050
13,775333	0,5	-2,020050
13,783667	0,5	-2,003100
13,792000	0,5	-1,989850
13,800333	0,5	-1,985900
13,808667	0,5	-1,978400
13,817000	0,5	-1,976250
13,825333	0,5	-1,976150
13,833667	0,5	-1,970700
13,842000	0,5	-1,954600
13,850333	0,5	-1,939450
13,858667	0,5	-1,903800
13,867000	0,5	-1,885100
13,875333	0,5	-1,860150
13,883667	0,5	-1,841100
13,892000	0,5	-1,824800
13,900333	0,5	-1,787800
13,908667	0,5	-1,758250
13,917000	0,5	-1,729400
13,925333	0,5	-1,705700
13,933667	0,5	-1,673850
13,942000	0,5	-1,651000
13,950333	0,5	-1,618200
13,958667	0,5	-1,599650
13,967000	0,5	-1,576500
13,975333	0,5	-1,556550
13,983667	0,5	-1,527400
13,992000	0,5	-1,515100
14,000333	0,5	-1,489500
14,008667	0,5	-1,464900
14,017000	0,5	-1,454200
14,025333	0,5	-1,435550
14,033667	0,5	-1,427850
14,042000	0,5	-1,403850
14,050333	0,5	-1,373200
14,058667	0,5	-1,348300
14,067000	0,5	-1,322650
14,075333	0,5	-1,293450
14,083667	0,5	-1,265200
14,092000	0,5	-1,235250
14,100333	0,5	-1,205350
14,108667	0,5	-1,165850
14,117000	0,5	-1,136450
14,125333	0,5	-1,098900
14,133667	0,5	-1,074100
14,142000	0,5	-1,042050
14,150333	0,5	-0,997400
14,158667	0,5	-0,957150
14,167000	0,5	-0,925850
14,175333	0,5	-0,894350
14,183667	0,5	-0,871800
14,192000	0,5	-0,847150
14,200333	0,5	-0,812600
14,208667	0,5	-0,793500
14,217000	0,5	-0,770900
14,225333	0,5	-0,750350
14,233667	0,5	-0,741300
14,242000	0,5	-0,719150
14,250333	0,5	-0,690800
14,258667	0,5	-0,673650
14,267000	0,5	-0,645100
14,275333	0,5	-0,616050
14,283667	0,5	-0,592800
14,292000	0,5	-0,555300
14,300333	0,5	-0,500550
14,308667	0,5	-0,451750
14,317000	0,5	-0,398000
14,325333	0,5	-0,342250
14,333667	0,5	-0,257550
14,342000	0,5	-0,175100
14,350333	0,5	-0,091000
14,358667	0,5	-0,027950
14,367000	0,5	0,023850
14,375333	0,5	0,066650
14,383667	0,5	0,119800
14,392000	0,5	0,173650
14,400333	0,5	0,225750
14,408667	0,5	0,281650
14,417000	0,5	0,316650
14,425333	0,5	0,342400
14,433667	0,5	0,340450
14,442000	0,5	0,359050
14,450333	0,5	0,382500
14,458667	0,5	0,415850
14,467000	0,5	0,459200
14,475333	0,5	0,487050
14,483667	0,5	0,535300
14,492000	0,5	0,588500
14,500333	0,5	0,605950
14,508667	0,5	0,633700
14,517000	0,5	0,637100
14,525333	0,5	0,638900
14,533667	0,5	0,614700
14,542000	0,5	0,600400
14,550333	0,5	0,574200
14,558667	0,5	0,546400
14,567000	0,5	0,538050
14,575333	0,5	0,528800
14,583667	0,5	0,503000
14,592000	0,5	0,511200
14,600333	0,5	0,510250
14,608667	0,5	0,513800
14,617000	0,5	0,505100
14,625333	0,5	0,497750
14,633667	0,5	0,517400
14,642000	0,5	0,521600
14,650333	0,5	0,531150
14,658667	0,5	0,531050
14,667000	0,5	0,533250
14,675333	0,5	0,518450
14,683667	0,5	0,509950
14,692000	0,5	0,510250
14,700333	0,5	0,505200
14,708667	0,5	0,507000
14,717000	0,5	0,524500
14,725333	0,5	0,538300
14,733667	0,5	0,551800
14,742000	0,5	0,569850
14,750333	0,5	0,572400
14,758667	0,5	0,570600
14,767000	0,5	0,548600
14,775333	0,5	0,524900
14,783667	0,5	0,511900
14,792000	0,5	0,500950
14,800333	0,5	0,476700
14,808667	0,5	0,458900
14,817000	0,5	0,445000
14,825333	0,5	0,438700
14,833667	0,5	0,426600
14,842000	0,5	0,424450
14,850333	0,5	0,416850
14,858667	0,5	0,419950
14,867000	0,5	0,419950
14,875333	0,5	0,419400
14,883667	0,5	0,423150
14,892000	0,5	0,440150
14,900333	0,5	0,437500
14,908667	0,5	0,446500
14,917000	0,5	0,458900
14,925333	0,5	0,497300
14,933667	0,5	0,571700
14,942000	0,5	0,645800
14,950333	0,5	0,739100
14,958667	0,5	0,837850
14,967000	0,5	0,906500
14,975333	0,5	0,941250
14,983667	0,5	0,934300
14,992000	0,5	0,888050
15,000333	0,5	0,828150
15,008667	0,5	0,775200
15,017000	0,5	0,737650
15,025333	0,5	0,716150
15,033667	0,5	0,741050
15,042000	0,5	0,775800
15,050333	0,5	0,815050
15,058667	0,5	0,834400
15,067000	0,5	0,843100
15,075333	0,5	0,826000
15,083667	0,5	0,786450
15,092000	0,5	0,730650
15,100333	0,5	0,675850
15,108667	0,5	0,623600
15,117000	0,5	0,578350
15,125333	0,5	0,551600
15,133667	0,5	0,530700
15,142000	0,5	0,512900
15,150333	0,5	0,492250
15,158667	0,5	0,497050
15,167000	0,5	0,476900
15,175333	0,5	0,476300
15,183667	0,5	0,484350
15,192000	0,5	0,488750
15,200333	0,5	0,493200
15,208667	0,5	0,484650
15,217000	0,5	0,489250
15,225333	0,5	0,496050
15,233667	0,5	0,486100
15,242000	0,5	0,480000
15,250333	0,5	0,464850
15,258667	0,5	0,462800
15,267000	0,5	0,449400
15,275333	0,5	0,431150
15,283667	0,5	0,416200
15,292000	0,5	0,387750
15,300333	0,5	0,375800
15,308667	0,5	0,357500
15,317000	0,5	0,325350
15,325333	0,5	0,321950
15,333667	0,5	0,319300
15,342000	0,5	0,306250
15,350333	0,5	0,301550
15,358667	0,5	0,274100
15,367000	0,5	0,284450
15,375333	0,5	0,286350
15,383667	0,5	0,293550
15,392000	0,5	0,285600
15,400333	0,5	0,294100
15,408667	0,5	0,292000
15,417000	0,5	0,304750
15,425333	0,5	0,334400
15,433667	0,5	0,373000
15,442000	0,5	0,446550
15,450333	0,5	0,535950
15,458667	0,5	0,652000
15,467000	0,5	0,746600
15,475333	0,5	0,838350
15,483667	0,5	0,861600
15,492000	0,5	0,822900
15,500333	0,5	0,757950
15,508667	0,5	0,692150
15,517000	0,5	0,662950
15,525333	0,5	0,662900
15,533667	0,5	0,684100
15,542000	0,5	0,723300
15,550333	0,5	0,738750
15,558667	0,5	0,730700
15,567000	0,5	0,696900
15,575333	0,5	0,638150
15,583667	0,5	0,569600
15,592000	0,5	0,506800
15,600333	0,5	0,463950
15,608667	0,5	0,431650
15,617000	0,5	0,410600
15,625333	0,5	0,417050
15,633667	0,5	0,420300
15,642000	0,5	0,410900
15,650333	0,5	0,396000
15,658667	0,5	0,373200
15,667000	0,5	0,382850
15,675333	0,5	0,368150
15,683667	0,5	0,363100
15,692000	0,5	0,357650
15,700333	0,5	0,362850
15,708667	0,5	0,349650
15,717000	0,5	0,343450
15,725333	0,5	0,331100
15,733667	0,5	0,313500
15,742000	0,5	0,300050
15,750333	0,5	0,283850
15,758667	0,5	0,243050
15,767000	0,5	0,230750
15,775333	0,5	0,215450
15,783667	0,5	0,196550
15,792000	0,5	0,179900
15,800333	0,5	0,140750
15,808667	0,5	0,136450
15,817000	0,5	0,130900
15,825333	0,5	0,132800
15,833667	0,5	0,115700
15,842000	0,5	0,116900
15,850333	0,5	0,102600
15,858667	0,5	0,105500
15,867000	0,5	0,120450
15,875333	0,5	0,154900
15,883667	0,5	0,196500
15,892000	0,5	0,274200
15,900333	0,5	0,377250
15,908667	0,5	0,493100
15,917000	0,5	0,614300
15,925333	0,5	0,686000
15,933667	0,5	0,705850
15,942000	0,5	0,664300
15,950333	0,5	0,615550
15,958667	0,5	0,576000
15,967000	0,5	0,568850
15,975333	0,5	0,577500
15,983667	0,5	0,599750
15,992000	0,5	0,600300
16,000333	0,5	0,576100
16,008667	0,5	0,526050
16,017000	0,5	0,475150
16,025333	0,5	0,407050
16,033667	0,5	0,357200
16,042000	0,5	0,310650
16,050333	0,5	0,265400
16,058667	0,5	0,237350
16,067000	0,5	0,225050
16,075333	0,5	0,214800
16,083667	0,5	0,207650
16,092000	0,5	0,198300
16,100333	0,5	0,190200
16,108667	0,5	0,203450
16,117000	0,5	0,214300
16,125333	0,5	0,214450
16,133667	0,5	0,205600
16,142000	0,5	0,187950
16,150333	0,5	0,172300
16,158667	0,5	0,156000
16,167000	0,5	0,121250
16,175333	0,5	0,102850
16,183667	0,5	0,094800
16,192000	0,5	0,073600
16,200333	0,5	0,044400
16,208667	0,5	0,041050
16,217000	0,5	0,032450
16,225333	0,5	0,022150
16,233667	0,5	0,007050
16,242000	0,5	-0,013100
16,250333	0,5	-0,003600
16,258667	0,5	-0,002750
16,267000	0,5	0,004050
16,275333	0,5	0,024200
16,283667	0,5	0,062950
16,292000	0,5	0,127750
16,300333	0,5	0,222200
16,308667	0,5	0,337800
16,317000	0,5	0,473500
16,325333	0,5	0,573550
16,333667	0,5	0,656250
16,342000	0,5	0,664600
16,350333	0,5	0,648800
16,358667	0,5	0,645000
16,367000	0,5	0,637200
16,375333	0,5	0,630700
16,383667	0,5	0,623450
16,392000	0,5	0,587600
16,400333	0,5	0,547750
16,408667	0,5	0,487500
16,417000	0,5	0,419500
16,425333	0,5	0,359950
16,433667	0,5	0,339250
16,442000	0,5	0,323300
16,450333	0,5	0,342800
16,458667	0,5	0,379050
16,467000	0,5	0,405050
16,475333	0,5	0,440700
16,483667	0,5	0,476250
16,492000	0,5	0,490450
16,500333	0,5	0,485400
16,508667	0,5	0,468550
16,517000	0,5	0,429650
16,525333	0,5	0,369900
16,533667	0,5	0,299650
16,542000	0,5	0,246350
16,550333	0,5	0,202650
16,558667	0,5	0,161550
16,567000	0,5	0,113750
16,575333	0,5	0,069950
16,583667	0,5	0,045300
16,592000	0,5	0,015650
16,600333	0,5	-0,002100
16,608667	0,5	-0,023200
16,617000	0,5	-0,040250
16,625333	0,5	-0,052800
16,633667	0,5	-0,031950
16,642000	0,5	-0,038250
16,650333	0,5	0,020300
16,658667	0,5	0,088900
16,667000	0,5	0,197200
16,675333	0,5	0,303550
16,683667	0,5	0,411800
16,692000	0,5	0,525200
16,700333	0,5	0,594050
16,708667	0,5	0,612100
16,717000	0,5	0,614600
16,725333	0,5	0,598250
16,733667	0,5	0,589850
16,742000	0,5	0,567450
16,750333	0,5	0,547250
16,758667	0,5	0,502550
16,767000	0,5	0,453100
16,775333	0,5	0,417200
16,783667	0,5	0,388450
16,792000	0,5	0,358600
16,800333	0,5	0,364700
16,808667	0,5	0,353700
16,817000	0,5	0,335850
16,825333	0,5	0,319200
16,833667	0,5	0,290600
16,842000	0,5	0,295550
16,850333	0,5	0,290800
16,858667	0,5	0,302000
16,867000	0,5	0,307000
16,875333	0,5	0,311800
16,883667	0,5	0,302500
16,892000	0,5	0,305800
16,900333	0,5	0,297100
16,908667	0,5	0,269150
16,917000	0,5	0,247800
16,925333	0,5	0,212050
16,933667	0,5	0,163100
16,942000	0,5	0,138950
16,950333	0,5	0,129000
16,958667	0,5	0,105350
16,967000	0,5	0,102450
16,975333	0,5	0,101000
16,983667	0,5	0,138250
16,992000	0,5	0,215500
17,000333	0,5	0,327350
17,008667	0,5	0,431150
17,017000	0,5	0,529150
17,025333	0,5	0,588000
17,033667	0,5	0,624150
17,042000	0,5	0,632150
17,050333	0,5	0,634900
17,058667	0,5	0,633750
17,067000	0,5	0,622950
17,075333	0,5	0,585150
17,083667	0,5	0,517550
17,092000	0,5	0,468750
17,100333	0,5	0,425500
17,108667	0,5	0,362050
17,117000	0,5	0,311350
17,125333	0,5	0,273050
17,133667	0,5	0,245500
17,142000	0,5	0,252250
17,150333	0,5	0,245050
17,158667	0,5	0,245450
17,167000	0,5	0,227650
17,175333	0,5	0,210200
17,183667	0,5	0,182950
17,192000	0,5	0,163350
17,200333	0,5	0,136300
17,208667	0,5	0,117100
17,217000	0,5	0,110650
17,225333	0,5	0,095900
17,233667	0,5	0,094750
17,242000	0,5	0,126050
17,250333	0,5	0,169150
17,258667	0,5	0,222250
17,267000	0,5	0,301100
17,275333	0,5	0,424150
17,283667	0,5	0,609200
17,292000	0,5	0,820900
17,300333	0,5	1,071450
17,308667	0,5	1,322200
17,317000	0,5	1,553100
17,325333	0,5	1,742550
17,333667	0,5	1,909650
17,342000	0,5	2,023900
17,350333	0,5	2,100950
17,358667	0,5	2,150750
17,367000	0,5	2,193950
17,375333	0,5	2,198950
17,383667	0,5	2,250450
17,392000	0,5	2,312500
17,400333	0,5	2,382100
17,408667	0,5	2,430450
17,417000	0,5	2,434700
17,425333	0,5	2,423500
17,433667	0,5	2,356500
17,442000	0,5	2,241350
17,450333	0,5	2,086300
17,458667	0,5	1,924300
17,467000	0,5	1,767200
17,475333	0,5	1,649750
17,483667	0,5	1,575100
17,492000	0,5	1,583800
17,500333	0,5	1,682550
17,508667	0,5	1,881750
17,517000	0,5	2,157550
17,525333	0,5	2,455150
17,533667	0,5	2,758700
17,542000	0,5	2,984200
17,550333	0,5	3,082300
17,558667	0,5	3,056000
17,567000	0,5	2,883650
17,575333	0,5	2,657300
17,583667	0,5	2,372500
17,592000	0,5	2,064250
17,600333	0,5	1,795850
17,608667	0,5	1,566450
17,617000	0,5	1,370350
17,625333	0,5	1,217800
17,633667	0,5	1,110150
17,642000	0,5	1,017150
17,650333	0,5	0,952750
17,658667	0,5	0,890250
17,667000	0,5	0,859850
17,675333	0,5	0,817500
17,683667	0,5	0,798350
17,692000	0,5	0,743200
17,700333	0,5	0,675200
17,708667	0,5	0,589950
17,717000	0,5	0,501750
17,725333	0,5	0,444250
17,733667	0,5	0,380500
17,742000	0,5	0,317100
17,750333	0,5	0,286150
17,758667	0,5	0,247550
17,767000	0,5	0,233850
17,775333	0,5	0,246050
17,783667	0,5	0,265300
17,792000	0,5	0,310450
17,800333	0,5	0,349200
17,808667	0,5	0,395450
17,817000	0,5	0,394500
17,825333	0,5	0,398500
17,833667	0,5	0,363050
17,842000	0,5	0,315400
17,850333	0,5	0,242850
17,858667	0,5	0,166900
17,867000	0,5	0,111050
17,875333	0,5	0,074800
17,883667	0,5	0,041250
17,892000	0,5	0,006650
17,900333	0,5	-0,032450
17,908667	0,5	-0,057250
17,917000	0,5	-0,084950
17,925333	0,5	-0,105800
17,933667	0,5	-0,128150
17,942000	0,5	-0,148050
17,950333	0,5	-0,146750
17,958667	0,5	-0,159800
17,967000	0,5	-0,173200
17,975333	0,5	-0,157450
17,983667	0,5	-0,141900
17,992000	0,5	-0,111350
18,000333	0,5	-0,084350
18,008667	0,5	-0,036100
18,017000	0,5	0,031050
18,025333	0,5	0,075350
18,033667	0,5	0,098500
18,042000	0,5	0,099000
18,050333	0,5	0,080000
18,058667	0,5	0,047600
18,067000	0,5	0,011550
18,075333	0,5	-0,018300
18,083667	0,5	-0,055250
18,092000	0,5	-0,071750
18,100333	0,5	-0,091450
18,108667	0,5	-0,112600
18,117000	0,5	-0,128550
18,125333	0,5	-0,114300
18,133667	0,5	-0,120350
18,142000	0,5	-0,118500
18,150333	0,5	-0,140650
18,158667	0,5	-0,130650
18,167000	0,5	-0,116450
18,175333	0,5	-0,092750
18,183667	0,5	-0,067300
18,192000	0,5	-0,021450
18,200333	0,5	0,023150
18,208667	0,5	0,074350
18,217000	0,5	0,119750
18,225333	0,5	0,137950
18,233667	0,5	0,138900
18,242000	0,5	0,118450
18,250333	0,5	0,091250
18,258667	0,5	0,041800
18,267000	0,5	0,029300
18,275333	0,5	0,007450
18,283667	0,5	-0,011850
18,292000	0,5	-0,036750
18,300333	0,5	-0,072600
18,308667	0,5	-0,082550
18,317000	0,5	-0,066050
18,325333	0,5	-0,080550
18,333667	0,5	-0,078700
18,342000	0,5	-0,076700
18,350333	0,5	-0,064500
18,358667	0,5	-0,050200
18,367000	0,5	-0,016150
18,375333	0,5	0,029800
18,383667	0,5	0,072500
18,392000	0,5	0,125550
18,400333	0,5	0,134800
18,408667	0,5	0,119900
18,417000	0,5	0,116700
18,425333	0,5	0,094400
18,433667	0,5	0,061100
18,442000	0,5	0,023650
18,450333	0,5	-0,013150
18,458667	0,5	-0,016100
18,467000	0,5	-0,044650
18,475333	0,5	-0,066800
18,483667	0,5	-0,088550
18,492000	0,5	-0,107850
18,500333	0,5	-0,131700
18,508667	0,5	-0,147200
18,517000	0,5	-0,151450
18,525333	0,5	-0,146600
18,533667	0,5	-0,134050
18,542000	0,5	-0,103800
18,550333	0,5	-0,103150
18,558667	0,5	-0,069000
18,567000	0,5	-0,060000
18,575333	0,5	-0,069850
18,583667	0,5	-0,091700
18,592000	0,5	-0,138750
18,600333	0,5	-0,155700
18,608667	0,5	-0,176750
18,617000	0,5	-0,196000
18,625333	0,5	-0,218350
18,633667	0,5	-0,229300
18,642000	0,5	-0,249300
18,650333	0,5	-0,269700
18,658667	0,5	-0,270400
18,667000	0,5	-0,280100
18,675333	0,5	-0,287350
18,683667	0,5	-0,289900
18,692000	0,5	-0,285300
18,700333	0,5	-0,290150
18,708667	0,5	-0,264950
18,717000	0,5	-0,264550
18,725333	0,5	-0,261400
18,733667	0,5	-0,286550
18,742000	0,5	-0,324100
18,750333	0,5	-0,345600
18,758667	0,5	-0,349450
18,767000	0,5	-0,371750
18,775333	0,5	-0,385050
18,783667	0,5	-0,400800
18,792000	0,5	-0,405050
18,800333	0,5	-0,420550
18,808667	0,5	-0,422100
18,817000	0,5	-0,440800
18,825333	0,5	-0,443050
18,833667	0,5	-0,426400
18,842000	0,5	-0,402650
18,850333	0,5	-0,388250
18,858667	0,5	-0,351750
18,867000	0,5	-0,346750
18,875333	0,5	-0,357850
18,883667	0,5	-0,384950
18,892000	0,5	-0,415450
18,900333	0,5	-0,408950
18,908667	0,5	-0,400150
18,917000	0,5	-0,408450
18,925333	0,5	-0,392000
18,933667	0,5	-0,374900
18,942000	0,5	-0,360350
18,950333	0,5	-0,338300
18,958667	0,5	-0,315200
18,967000	0,5	-0,280750
18,975333	0,5	-0,247850
18,983667	0,5	-0,221450
18,992000	0,5	-0,230650
19,000333	0,5	-0,235900
19,008667	0,5	-0,250650
19,017000	0,5	-0,282900
19,025333	0,5	-0,320350
19,033667	0,5	-0,349250
19,042000	0,5	-0,368250
19,050333	0,5	-0,368550
19,058667	0,5	-0,364450
19,067000	0,5	-0,349300
19,075333	0,5	-0,327600
19,083667	0,5	-0,312950
19,092000	0,5	-0,304550
19,100333	0,5	-0,296800
19,108667	0,5	-0,292450
19,117000	0,5	-0,317700
19,125333	0,5	-0,320550
19,133667	0,5	-0,362250
19,142000	0,5	-0,389650
19,150333	0,5	-0,404050
19,158667	0,5	-0,410400
19,167000	0,5	-0,432800
19,175333	0,5	-0,460650
19,183667	0,5	-0,486100
19,192000	0,5	-0,479350
19,200333	0,5	-0,474850
19,208667	0,5	-0,476550
19,217000	0,5	-0,477300
19,225333	0,5	-0,491550
19,233667	0,5	-0,499450
19,242000	0,5	-0,514150
19,250333	0,5	-0,515600
19,258667	0,5	-0,539100
19,267000	0,5	-0,541250
19,275333	0,5	-0,550900
19,283667	0,5	-0,570250
19,292000	0,5	-0,578400
19,300333	0,5	-0,579100
19,308667	0,5	-0,582100
19,317000	0,5	-0,594050
19,325333	0,5	-0,640950
19,333667	0,5	-0,654300
19,342000	0,5	-0,657400
19,350333	0,5	-0,675300
19,358667	0,5	-0,693400
19,367000	0,5	-0,707650
19,375333	0,5	-0,725350
19,383667	0,5	-0,730100
19,392000	0,5	-0,731950
19,400333	0,5	-0,736200
19,408667	0,5	-0,737700
19,417000	0,5	-0,746950
19,425333	0,5	-0,758850
19,433667	0,5	-0,803200
19,442000	0,5	-0,788950
19,450333	0,5	-0,797500
19,458667	0,5	-0,802850
19,467000	0,5	-0,822600
19,475333	0,5	-0,849950
19,483667	0,5	-0,847550
19,492000	0,5	-0,844000
19,500333	0,5	-0,862850
19,508667	0,5	-0,872600
19,517000	0,5	-0,884400
19,525333	0,5	-0,898100
19,533667	0,5	-0,908550
19,542000	0,5	-0,912650
19,550333	0,5	-0,919250
19,558667	0,5	-0,933150
19,567000	0,5	-0,920050
19,575333	0,5	-0,922150
19,583667	0,5	-0,938200
19,592000	0,5	-0,930650
19,600333	0,5	-0,932150
19,608667	0,5	-0,950650
19,617000	0,5	-0,975150
19,625333	0,5	-1,000050
19,633667	0,5	-0,986600
19,642000	0,5	-0,987700
19,650333	0,5	-0,986450
19,658667	0,5	-0,998650
19,667000	0,5	-1,007100
19,675333	0,5	-1,017250
19,683667	0,5	-1,025600
19,692000	0,5	-1,023100
19,700333	0,5	-1,036400
19,708667	0,5	-1,039950
19,717000	0,5	-1,048000
19,725333	0,5	-1,067100
19,733667	0,5	-1,085500
19,742000	0,5	-1,087400
19,750333	0,5	-1,094100
19,758667	0,5	-1,110300
19,767000	0,5	-1,140000
19,775333	0,5	-1,149800
19,783667	0,5	-1,149250
19,792000	0,5	-1,142950
19,800333	0,5	-1,152800
19,808667	0,5	-1,152500
19,817000	0,5	-1,166350
19,825333	0,5	-1,165450
19,833667	0,5	-1,183600
19,842000	0,5	-1,196350
19,850333	0,5	-1,208850
19,858667	0,5	-1,215500
19,867000	0,5	-1,213250
19,875333	0,5	-1,237300
19,883667	0,5	-1,239000
19,892000	0,5	-1,250400
19,900333	0,5	-1,268600
19,908667	0,5	-1,303550
19,917000	0,5	-1,332850
19,925333	0,5	-1,349350
19,933667	0,5	-1,353500
19,942000	0,5	-1,371300
19,950333	0,5	-1,378250
19,958667	0,5	-1,394550
19,967000	0,5	-1,400200
19,975333	0,5	-1,416650
19,983667	0,5	-1,427350
19,992000	0,5	-1,440100
20,000333	0,5	-1,443600
20,008667	0,5	-1,430400
20,017000	0,5	-1,448900
20,025333	0,5	-1,460300
20,033667	0,5	-1,458600
20,042000	0,5	-1,479700
20,050333	0,5	-1,499250
20,058667	0,5	-1,523200
20,067000	0,5	-1,538400
20,075333	0,5	-1,540750
20,083667	0,5	-1,548800
20,092000	0,5	-1,553200
20,100333	0,5	-1,574600
20,108667	0,5	-1,578750
20,117000	0,5	-1,600850
20,125333	0,5	-1,615700
20,133667	0,5	-1,629300
20,142000	0,5	-1,658800
20,150333	0,5	-1,654000
20,158667	0,5	-1,659850
20,167000	0,5	-1,692600
20,175333	0,5	-1,701650
20,183667	0,5	-1,711450
20,192000	0,5	-1,731800
20,200333	0,5	-1,749850
20,208667	0,5	-1,795200
20,217000	0,5	-1,793350
20,225333	0,5	-1,808500
20,233667	0,5	-1,810100
20,242000	0,5	-1,832400
20,250333	0,5	-1,838350
20,258667	0,5	-1,857200
20,267000	0,5	-1,862650
20,275333	0,5	-1,871400
20,283667	0,5	-1,876050
20,292000	0,5	-1,891600
20,300333	0,5	-1,880000
20,308667	0,5	-1,889100
20,317000	0,5	-1,902750
20,325333	0,5	-1,910400
20,333667	0,5	-1,921650
20,342000	0,5	-1,945000
20,350333	0,5	-1,996600
20,358667	0,5	-2,006800
20,367000	0,5	-2,012500
20,375333	0,5	-2,014150
20,383667	0,5	-2,034500
20,392000	0,5	-2,034500
20,400333	0,5	-2,043650
20,408667	0,5	-2,051400
20,417000	0,5	-2,064050
20,425333	0,5	-2,071150
20,433667	0,5	-2,090400
20,442000	0,5	-2,096500
20,450333	0,5	-2,110650
20,458667	0,5	-2,148650
20,467000	0,5	-2,166300
20,475333	0,5	-2,179300
20,483667	0,5	-2,204050
20,492000	0,5	-2,237350
20,500333	0,5	-2,291900
20,508667	0,5	-2,314400
20,517000	0,5	-2,321950
20,525333	0,5	-2,345550
20,533667	0,5	-2,364900
20,542000	0,5	-2,388650
20,550333	0,5	-2,409050
20,558667	0,5	-2,434650
20,567000	0,5	-2,437500
20,575333	0,5	-2,464750
20,583667	0,5	-2,490950
20,592000	0,5	-2,493500
20,600333	0,5	-2,499600
20,608667	0,5	-2,540950
20,617000	0,5	-2,542450
20,625333	0,5	-2,559900
20,633667	0,5	-2,578450
20,642000	0,5	-2,601300
20,650333	0,5	-2,651550
20,658667	0,5	-2,663900
20,667000	0,5	-2,706550
20,675333	0,5	-2,738800
20,683667	0,5	-2,784950
20,692000	0,5	-2,824200
20,700333	0,5	-2,869850
20,708667	0,5	-2,902050
20,717000	0,5	-2,930850
20,725333	0,5	-2,952050
20,733667	0,5	-2,979950
20,742000	0,5	-2,980550
20,750333	0,5	-3,013850
20,758667	0,5	-3,050550
20,767000	0,5	-3,071050
20,775333	0,5	-3,089800
20,783667	0,5	-3,124150
20,792000	0,5	-3,160250
20,800333	0,5	-3,164400
20,808667	0,5	-3,159000
20,817000	0,5	-3,156550
20,825333	0,5	-3,174150
20,833667	0,5	-3,204000
20,842000	0,5	-3,257200
20,850333	0,5	-3,311250
20,858667	0,5	-3,373800
20,867000	0,5	-3,418100
20,875333	0,5	-3,476050
20,883667	0,5	-3,491500
20,892000	0,5	-3,517050
20,900333	0,5	-3,556600
20,908667	0,5	-3,597950
20,917000	0,5	-3,631850
20,925333	0,5	-3,665350
20,933667	0,5	-3,728100
20,942000	0,5	-3,779200
20,950333	0,5	-3,818250
20,958667	0,5	-3,834900
20,967000	0,5	-3,869250
20,975333	0,5	-3,875400
20,983667	0,5	-3,904750
20,992000	0,5	-3,932000
21,000333	0,5	-3,984800
21,008667	0,5	-4,012250
21,017000	0,5	-4,055250
21,025333	0,5	-4,086650
21,033667	0,5	-4,092400
21,042000	0,5	-4,112000
21,050333	0,5	-4,147050
21,058667	0,5	-4,181800
21,067000	0,5	-4,235500
21,075333	0,5	-4,263750
21,083667	0,5	-4,324150
21,092000	0,5	-4,367200
21,100333	0,5	-4,387000
21,108667	0,5	-4,410450
21,117000	0,5	-4,442550
21,125333	0,5	-4,470650
21,133667	0,5	-4,495900
21,142000	0,5	-4,528000
21,150333	0,5	-4,541300
21,158667	0,5	-4,565900
21,167000	0,5	-4,593600
21,175333	0,5	-4,598750
21,183667	0,5	-4,604550
21,192000	0,5	-4,636250
21,200333	0,5	-4,661700
21,208667	0,5	-4,682200
21,217000	0,5	-4,729900
21,225333	0,5	-4,764350
21,233667	0,5	-4,811700
21,242000	0,5	-4,825500
21,250333	0,5	-4,851750
21,258667	0,5	-4,859950
21,267000	0,5	-4,888350
21,275333	0,5	-4,910050
21,283667	0,5	-4,926100
21,292000	0,5	-4,935200
21,300333	0,5	-4,953450
21,308667	0,5	-4,966750
21,317000	0,5	-4,983150
21,325333	0,5	-4,961450
21,333667	0,5	-4,953000
21,342000	0,5	-4,964150
21,350333	0,5	-4,975050
21,358667	0,5	-4,979650
21,367000	0,5	-5,006150
21,375333	0,5	-5,061900
21,383667	0,5	-5,083850
21,392000	0,5	-5,099250
21,400333	0,5	-5,113450
21,408667	0,5	-5,154050
21,417000	0,5	-5,168500
21,425333	0,5	-5,200900
21,433667	0,5	-5,214550
21,442000	0,5	-5,238750
21,450333	0,5	-5,251250
21,458667	0,5	-5,283350
21,467000	0,5	-5,274350
21,475333	0,5	-5,269750
21,483667	0,5	-5,301450
21,492000	0,5	-5,308550
21,500333	0,5	-5,333650
21,508667	0,5	-5,353950
21,517000	0,5	-5,379850
21,525333	0,5	-5,426900
21,533667	0,5	-5,431200
21,542000	0,5	-5,429950
21,550333	0,5	-5,450150
21,558667	0,5	-5,461800
21,567000	0,5	-5,477500
21,575333	0,5	-5,481750
21,583667	0,5	-5,502700
21,592000	0,5	-5,512150
21,600333	0,5	-5,525950
21,608667	0,5	-5,533300
21,617000	0,5	-5,517800
21,625333	0,5	-5,513300
21,633667	0,5	-5,535050
21,642000	0,5	-5,531000
21,650333	0,5	-5,555350
21,658667	0,5	-5,580700
21,667000	0,5	-5,596700
21,675333	0,5	-5,614200
21,683667	0,5	-5,603000
21,692000	0,5	-5,609200
21,700333	0,5	-5,591000
21,708667	0,5	-5,576450
21,717000	0,5	-5,553100
21,725333	0,5	-5,551450
21,733667	0,5	-5,558950
21,742000	0,5	-5,588100
21,750333	0,5	-5,593950
21,758667	0,5	-5,609550
21,767000	0,5	-5,598000
21,775333	0,5	-5,617300
21,783667	0,5	-5,633800
21,792000	0,5	-5,644900
21,800333	0,5	-5,657950
21,808667	0,5	-5,687350
21,817000	0,5	-5,710550
21,825333	0,5	-5,717900
21,833667	0,5	-5,722750
21,842000	0,5	-5,731000
21,850333	0,5	-5,740900
21,858667	0,5	-5,733800
21,867000	0,5	-5,739200
21,875333	0,5	-5,728100
21,883667	0,5	-5,732350
21,892000	0,5	-5,736650
21,900333	0,5	-5,743000
21,908667	0,5	-5,725900
21,917000	0,5	-5,740950
21,925333	0,5	-5,745550
21,933667	0,5	-5,754250
21,942000	0,5	-5,773650
21,950333	0,5	-5,789150
21,958667	0,5	-5,814000
21,967000	0,5	-5,821900
21,975333	0,5	-5,813800
21,983667	0,5	-5,783000
21,992000	0,5	-5,772400
22,000333	0,5	-5,762150
22,008667	0,5	-5,793150
22,017000	0,5	-5,833250
22,025333	0,5	-5,874150
22,033667	0,5	-5,902900
22,042000	0,5	-5,935400
22,050333	0,5	-5,959700
22,058667	0,5	-5,987500
22,067000	0,5	-6,021600
22,075333	0,5	-6,035400
22,083667	0,5	-6,056200
22,092000	0,5	-6,097600
22,100333	0,5	-6,125900
22,108667	0,5	-6,159100
22,117000	0,5	-6,182850
22,125333	0,5	-6,185500
22,133667	0,5	-6,202350
22,142000	0,5	-6,219900
22,150333	0,5	-6,242650
22,158667	0,5	-6,254800
22,167000	0,5	-6,272550
22,175333	0,5	-6,280850
22,183667	0,5	-6,304950
22,192000	0,5	-6,327050
22,200333	0,5	-6,363350
22,208667	0,5	-6,382000
22,217000	0,5	-6,387000
22,225333	0,5	-6,383950
22,233667	0,5	-6,391950
22,242000	0,5	-6,410500
22,250333	0,5	-6,430650
22,258667	0,5	-6,443700
22,267000	0,5	-6,441550
22,275333	0,5	-6,450850
22,283667	0,5	-6,448550
22,292000	0,5	-6,455650
22,300333	0,5	-6,459700
22,308667	0,5	-6,463000
22,317000	0,5	-6,454100
22,325333	0,5	-6,457200
22,333667	0,5	-6,459100
22,342000	0,5	-6,455250
22,350333	0,5	-6,450350
22,358667	0,5	-6,449050
22,367000	0,5	-6,402800
22,375333	0,5	-6,384400
22,383667	0,5	-6,361300
22,392000	0,5	-6,361150
22,400333	0,5	-6,320600
22,408667	0,5	-6,240950
22,417000	0,5	-6,195600
22,425333	0,5	-6,189800
22,433667	0,5	-6,224850
22,442000	0,5	-6,270350
22,450333	0,5	-6,317750
22,458667	0,5	-6,345350
22,467000	0,5	-6,377100
22,475333	0,5	-6,394300
22,483667	0,5	-6,424050
22,492000	0,5	-6,477500
22,500333	0,5	-6,513200
22,508667	0,5	-6,493250
22,517000	0,5	-6,483450
22,525333	0,5	-6,478950
22,533667	0,5	-6,489150
22,542000	0,5	-6,509800
22,550333	0,5	-6,527700
22,558667	0,5	-6,528900
22,567000	0,5	-6,521550
22,575333	0,5	-6,534700
22,583667	0,5	-6,534900
22,592000	0,5	-6,541550
22,600333	0,5	-6,533900
22,608667	0,5	-6,531800
22,617000	0,5	-6,507600
22,625333	0,5	-6,505900
22,633667	0,5	-6,510650
22,642000	0,5	-6,526050
22,650333	0,5	-6,492100
22,658667	0,5	-6,445550
22,667000	0,5	-6,429500
22,675333	0,5	-6,419250
22,683667	0,5	-6,438100
22,692000	0,5	-6,460100
22,700333	0,5	-6,490350
22,708667	0,5	-6,493100
22,717000	0,5	-6,518700
22,725333	0,5	-6,532600
22,733667	0,5	-6,558000
22,742000	0,5	-6,584800
22,750333	0,5	-6,609650
22,758667	0,5	-6,615350
22,767000	0,5	-6,643500
22,775333	0,5	-6,662050
22,783667	0,5	-6,764200
22,792000	0,5	-6,764700
22,800333	0,5	-6,782700
22,808667	0,5	-6,763650
22,817000	0,5	-6,787550
22,825333	0,5	-6,810850
22,833667	0,5	-6,834950
22,842000	0,5	-6,857650
22,850333	0,5	-6,873300
22,858667	0,5	-6,894100
22,867000	0,5	-6,906000
22,875333	0,5	-6,910900
22,883667	0,5	-6,925350
22,892000	0,5	-6,922150
22,900333	0,5	-6,930950
22,908667	0,5	-6,919000
22,917000	0,5	-6,911650
22,925333	0,5	-6,875950
22,933667	0,5	-6,895200
22,942000	0,5	-6,876500
22,950333	0,5	-6,845150
22,958667	0,5	-6,865350
22,967000	0,5	-6,841500
22,975333	0,5	-6,824550
22,983667	0,5	-6,788850
22,992000	0,5	-6,762250
23,000333	0,5	-6,739100
23,008667	0,5	-6,723250
23,017000	0,5	-6,689450
23,025333	0,5	-6,650750
23,033667	0,5	-6,592300
23,042000	0,5	-6,545800
23,050333	0,5	-6,496200
23,058667	0,5	-6,428050
23,067000	0,5	-6,352450
23,075333	0,5	-6,249750
23,083667	0,5	-6,189100
23,092000	0,5	-6,120400
23,100333	0,5	-6,088100
23,108667	0,5	-6,039300
23,117000	0,5	-5,966750
23,125333	0,5	-5,889750
23,133667	0,5	-5,811350
23,142000	0,5	-5,754000
23,150333	0,5	-5,702850
23,158667	0,5	-5,624900
23,167000	0,5	-5,553100
23,175333	0,5	-5,481100
23,183667	0,5	-5,407300
23,192000	0,5	-5,332100
23,200333	0,5	-5,250700
23,208667	0,5	-5,166950
23,217000	0,5	-5,075550
23,225333	0,5	-4,995350
23,233667	0,5	-4,899050
23,242000	0,5	-4,792750
23,250333	0,5	-4,765550
23,258667	0,5	-4,695250
23,267000	0,5	-4,624800
23,275333	0,5	-4,533450
23,283667	0,5	-4,462000
23,292000	0,5	-4,413300
23,300333	0,5	-4,353950
23,308667	0,5	-4,282750
23,317000	0,5	-4,226400
23,325333	0,5	-4,160650
23,333667	0,5	-4,096250
23,342000	0,5	-4,037200
23,350333	0,5	-3,960600
23,358667	0,5	-3,896450
23,367000	0,5	-3,813650
23,375333	0,5	-3,787700
23,383667	0,5	-3,713050
23,392000	0,5	-3,605550
23,400333	0,5	-3,561600
23,408667	0,5	-3,517100
23,417000	0,5	-3,460500
23,425333	0,5	-3,396300
23,433667	0,5	-3,357800
23,442000	0,5	-3,322150
23,450333	0,5	-3,273600
23,458667	0,5	-3,229350
23,467000	0,5	-3,191000
23,475333	0,5	-3,152900
23,483667	0,5	-3,107100
23,492000	0,5	-3,068000
23,500333	0,5	-3,027300
23,508667	0,5	-2,983000
23,517000	0,5	-3,041800
23,525333	0,5	-2,996000
23,533667	0,5	-2,926900
23,542000	0,5	-2,849450
23,550333	0,5	-2,812000
23,558667	0,5	-2,777500
23,567000	0,5	-2,744600
23,575333	0,5	-2,711450
23,583667	0,5	-2,690750
23,592000	0,5	-2,654050
23,600333	0,5	-2,632450
23,608667	0,5	-2,597450
23,617000	0,5	-2,572200
23,625333	0,5	-2,548450
23,633667	0,5	-2,516950
23,642000	0,5	-2,488700
23,650333	0,5	-2,462000
23,658667	0,5	-2,440150
23,667000	0,5	-2,591350
23,675333	0,5	-2,514600
23,683667	0,5	-2,450300
23,692000	0,5	-2,380650
23,700333	0,5	-2,351450
23,708667	0,5	-2,324350
23,717000	0,5	-2,305950
23,725333	0,5	-2,293350
23,733667	0,5	-2,268150
23,742000	0,5	-2,246150
23,750333	0,5	-2,227050
23,758667	0,5	-2,207450
23,767000	0,5	-2,180550
23,775333	0,5	-2,154150
23,783667	0,5	-2,127900
23,792000	0,5	-2,095750
23,800333	0,5	-2,070050
23,808667	0,5	-2,156700
23,817000	0,5	-2,202400
23,825333	0,5	-2,147200
23,833667	0,5	-2,081850
23,842000	0,5	-2,016150
23,850333	0,5	-1,980900
23,858667	0,5	-1,951950
23,867000	0,5	-1,935050
23,875333	0,5	-1,924250
23,883667	0,5	-1,890300
23,892000	0,5	-1,870050
23,900333	0,5	-1,846600
23,908667	0,5	-1,829850
23,917000	0,5	-1,809050
23,925333	0,5	-1,787900
23,933667	0,5	-1,765400
23,942000	0,5	-1,743150
23,950333	0,5	-1,722200
23,958667	0,5	-1,866600
23,967000	0,5	-1,851150
23,975333	0,5	-1,798000
23,983667	0,5	-1,727050
23,992000	0,5	-1,674350
24,000333	0,5	-1,637300
24,008667	0,5	-1,624900
24,017000	0,5	-1,621150
24,025333	0,5	-1,592800
24,033667	0,5	-1,562700
24,042000	0,5	-1,530700
24,050333	0,5	-1,503950
24,058667	0,5	-1,470750
24,067000	0,5	-1,454300
24,075333	0,5	-1,426850
24,083667	0,5	-1,401350
24,092000	0,5	-1,369100
24,100333	0,5	-1,381650
24,108667	0,5	-1,495500
24,117000	0,5	-1,481300
24,125333	0,5	-1,412200
24,133667	0,5	-1,350650
24,142000	0,5	-1,317550
24,150333	0,5	-1,294500
24,158667	0,5	-1,287300
24,167000	0,5	-1,276900
24,175333	0,5	-1,251400
24,183667	0,5	-1,224300
24,192000	0,5	-1,207200
24,200333	0,5	-1,181100
24,208667	0,5	-1,162950
24,217000	0,5	-1,150600
24,225333	0,5	-1,125500
24,233667	0,5	-1,097850
24,242000	0,5	-1,077950
24,250333	0,5	-1,142150
24,258667	0,5	-1,163750
24,267000	0,5	-1,143400
24,275333	0,5	-1,083650
24,283667	0,5	-1,040100
24,292000	0,5	-1,006450
24,300333	0,5	-0,985350
24,308667	0,5	-0,994400
24,317000	0,5	-0,982900
24,325333	0,5	-0,949850
24,333667	0,5	-0,928250
24,342000	0,5	-0,914300
24,350333	0,5	-0,899250
24,358667	0,5	-0,886150
24,367000	0,5	-0,871700
24,375333	0,5	-0,843500
24,383667	0,5	-0,832000
24,392000	0,5	-0,818850
24,400333	0,5	-0,913700
24,408667	0,5	-0,880850
24,417000	0,5	-0,878000
24,425333	0,5	-0,820000
24,433667	0,5	-0,793150
24,442000	0,5	-0,772800
24,450333	0,5	-0,763550
24,458667	0,5	-0,772000
24,467000	0,5	-0,746500
24,475333	0,5	-0,723550
24,483667	0,5	-0,715150
24,492000	0,5	-0,693250
24,500333	0,5	-0,679050
24,508667	0,5	-0,663350
24,517000	0,5	-0,657550
24,525333	0,5	-0,646750
24,533667	0,5	-0,627650
24,542000	0,5	-0,647100
24,550333	0,5	-0,685400
24,558667	0,5	-0,670800
24,567000	0,5	-0,646350
24,575333	0,5	-0,622550
24,583667	0,5	-0,602250
24,592000	0,5	-0,593250
24,600333	0,5	-0,590500
24,608667	0,5	-0,594200
24,617000	0,5	-0,579600
24,625333	0,5	-0,572700
24,633667	0,5	-0,561350
24,642000	0,5	-0,555850
24,650333	0,5	-0,546250
24,658667	0,5	-0,538150
24,667000	0,5	-0,522950
24,675333	0,5	-0,509750
24,683667	0,5	-0,501700
24,692000	0,5	-0,533500
24,700333	0,5	-0,537000
24,708667	0,5	-0,521300
24,717000	0,5	-0,502550
24,725333	0,5	-0,486400
24,733667	0,5	-0,469050
24,742000	0,5	-0,463300
24,750333	0,5	-0,467650
24,758667	0,5	-0,464700
24,767000	0,5	-0,459000
24,775333	0,5	-0,449300
24,783667	0,5	-0,445600
24,792000	0,5	-0,441150
24,800333	0,5	-0,438500
24,808667	0,5	-0,433250
24,817000	0,5	-0,430700
24,825333	0,5	-0,427550
24,833667	0,5	-0,419350
24,842000	0,5	-0,450950
24,850333	0,5	-0,439750
24,858667	0,5	-0,428950
24,867000	0,5	-0,413100
24,875333	0,5	-0,403850
24,883667	0,5	-0,397950
24,892000	0,5	-0,395700
24,900333	0,5	-0,394050
24,908667	0,5	-0,391350
24,917000	0,5	-0,382150
24,925333	0,5	-0,381950
24,933667	0,5	-0,374900
24,942000	0,5	-0,370600
24,950333	0,5	-0,366650
24,958667	0,5	-0,363150
24,967000	0,5	-0,358700
24,975333	0,5	-0,356150
24,983667	0,5	-0,358950
24,992000	0,5	-0,373850
25,000333	0,5	-0,371950
25,008667	0,5	-0,364950
25,017000	0,5	-0,363000
25,025333	0,5	-0,355200
25,033667	0,5	-0,354700
25,042000	0,5	-0,359100
25,050333	0,5	-0,356600
25,058667	0,5	-0,349450
25,067000	0,5	-0,350600
25,075333	0,5	-0,347650
25,083667	0,5	-0,343050
25,092000	0,5	-0,338500
25,100333	0,5	-0,338400
25,108667	0,5	-0,331750
25,117000	0,5	-0,330600
25,125333	0,5	-0,325250
25,133667	0,5	-0,329650
25,142000	0,5	-0,329050
25,150333	0,5	-0,328100
25,158667	0,5	-0,326050
25,167000	0,5	-0,325650
25,175333	0,5	-0,322100
25,183667	0,5	-0,325950
25,192000	0,5	-0,330050
25,200333	0,5	-0,332200
25,208667	0,5	-0,330700
25,217000	0,5	-0,327250
25,225333	0,5	-0,331800
25,233667	0,5	-0,328600
25,242000	0,5	-0,328850
25,250333	0,5	-0,325400
25,258667	0,5	-0,322700
25,267000	0,5	-0,323550
25,275333	0,5	-0,319250
25,283667	0,5	-0,320450
25,292000	0,5	-0,315100
25,300333	0,5	-0,310300
25,308667	0,5	-0,311850
25,317000	0,5	-0,311350
25,325333	0,5	-0,309750
25,333667	0,5	-0,309100
25,342000	0,5	-0,310650
25,350333	0,5	-0,312400
25,358667	0,5	-0,313900
25,367000	0,5	-0,317550
25,375333	0,5	-0,315800
25,383667	0,5	-0,314650
25,392000	0,5	-0,321850
25,400333	0,5	-0,324950
25,408667	0,5	-0,321500
25,417000	0,5	-0,321850
25,425333	0,5	-0,321050
25,433667	0,5	-0,310650
25,442000	0,5	-0,310450
25,450333	0,5	-0,312600
25,458667	0,5	-0,317750
25,467000	0,5	-0,315300
25,475333	0,5	-0,314000
25,483667	0,5	-0,313350
25,492000	0,5	-0,309300
25,500333	0,5	-0,314950
25,508667	0,5	-0,310900
25,517000	0,5	-0,312850
25,525333	0,5	-0,314850
25,533667	0,5	-0,318050
25,542000	0,5	-0,318650
25,550333	0,5	-0,318950
25,558667	0,5	-0,321350
25,567000	0,5	-0,321700
25,575333	0,5	-0,317150
25,583667	0,5	-0,320250
25,592000	0,5	-0,310900
25,600333	0,5	-0,318200
25,608667	0,5	-0,322900
25,617000	0,5	-0,324450
25,625333	0,5	-0,322100
25,633667	0,5	-0,318750
25,642000	0,5	-0,311000
25,650333	0,5	-0,319650
25,658667	0,5	-0,316300
25,667000	0,5	-0,318850
25,675333	0,5	-0,322650
25,683667	0,5	-0,320050
25,692000	0,5	-0,321950
25,700333	0,5	-0,317600
25,708667	0,5	-0,319700
25,717000	0,5	-0,314650
25,725333	0,5	-0,310850
25,733667	0,5	-0,313200
25,742000	0,5	-0,303300
25,750333	0,5	-0,318050
25,758667	0,5	-0,318850
25,767000	0,5	-0,319450
25,775333	0,5	-0,316900
25,783667	0,5	-0,307900
25,792000	0,5	-0,306500
25,800333	0,5	-0,306550
25,808667	0,5	-0,309400
25,817000	0,5	-0,311750
25,825333	0,5	-0,311900
25,833667	0,5	-0,304350
25,842000	0,5	-0,306900
25,850333	0,5	-0,304600
25,858667	0,5	-0,303150
25,867000	0,5	-0,303500
25,875333	0,5	-0,297800
25,883667	0,5	-0,288500
25,892000	0,5	-0,290550
25,900333	0,5	-0,298550
25,908667	0,5	-0,297700
25,917000	0,5	-0,295250
25,925333	0,5	-0,288000
25,933667	0,5	-0,275150
25,942000	0,5	-0,276550
25,950333	0,5	-0,284250
25,958667	0,5	-0,282850
25,967000	0,5	-0,278400
25,975333	0,5	-0,274350
25,983667	0,5	-0,274850
25,992000	0,5	-0,270950
26,000333	0,5	-0,268750
