File Path	chrom://chromeleon01/ikbm_chromeleon/2022/ICS-5000/ED1/Esteban/20220427_Cell_Amandas_mutants.seq/205.smp/ED_1.channel/ED_1.chm
Channel	ED_1

Injection Information:
Data Vault	ikbm_chromeleon
Injection	EG_PASC_3a
Injection Number	51
Position	GA3
Comment	
Processing Method	Stop sequence after Cell Death
Instrument Method	ICS5000_PA200_FullNative_Ox_26min_ED1
Type	Unknown
Status	Finished
Injection Date	28.04.2022
Injection Time	12:49:48
Injection Volume (µl)	5,0
Dilution Factor	1,0000
Weight	1,0000

Chromatogram Data Information:
Time Min. (min)	0,000333
Time Max. (min)	26,000333
Data Points	3121
Detector	EDet1
Generating Data System	Chromeleon 7.2.9.11323
Exporting Data System	Chromeleon 7.2.9.0
Operator	Instrument Controller
Signal Quantity	
Signal Unit	nC
Signal Min.	-8,183150
Signal Max.	2 633,785989
Channel	ED_1
Driver Name	DC-5000
Channel Type	Evaluation
Min. Step (s)	0,5
Max. Step (s)	0,5
Average Step (s)	0,5

Signal Parameter Information:
Signal Info	

Chromatogram Data:
Time (min)	Step (s)	Value (nC)
0,000333	n.a.	-0,094800
0,008667	0,5	-0,097550
0,017000	0,5	-0,085650
0,025333	0,5	-0,067600
0,033667	0,5	-0,074650
0,042000	0,5	-0,035300
0,050333	0,5	-0,036500
0,058667	0,5	-0,048850
0,067000	0,5	-0,043250
0,075333	0,5	-0,033500
0,083667	0,5	0,015950
0,092000	0,5	0,036850
0,100333	0,5	0,005200
0,108667	0,5	0,013600
0,117000	0,5	0,008400
0,125333	0,5	0,012250
0,133667	0,5	0,001650
0,142000	0,5	0,012500
0,150333	0,5	-0,001100
0,158667	0,5	-0,004650
0,167000	0,5	0,004650
0,175333	0,5	-0,017000
0,183667	0,5	-0,036750
0,192000	0,5	0,022900
0,200333	0,5	-0,014050
0,208667	0,5	-0,023450
0,217000	0,5	-0,019750
0,225333	0,5	-0,012850
0,233667	0,5	0,037300
0,242000	0,5	0,016900
0,250333	0,5	0,017700
0,258667	0,5	0,009700
0,267000	0,5	0,013700
0,275333	0,5	-0,005900
0,283667	0,5	0,007900
0,292000	0,5	0,027500
0,300333	0,5	0,091500
0,308667	0,5	0,084150
0,317000	0,5	0,021200
0,325333	0,5	-0,016000
0,333667	0,5	-0,023550
0,342000	0,5	-0,003150
0,350333	0,5	-0,021300
0,358667	0,5	-0,029650
0,367000	0,5	-0,023000
0,375333	0,5	-0,001500
0,383667	0,5	0,045550
0,392000	0,5	0,031850
0,400333	0,5	0,015300
0,408667	0,5	0,016250
0,417000	0,5	0,012550
0,425333	0,5	0,014300
0,433667	0,5	0,010400
0,442000	0,5	0,014850
0,450333	0,5	0,003650
0,458667	0,5	0,015250
0,467000	0,5	0,005850
0,475333	0,5	-0,011000
0,483667	0,5	-0,014200
0,492000	0,5	0,019300
0,500333	0,5	-0,011650
0,508667	0,5	-0,009700
0,517000	0,5	-0,001750
0,525333	0,5	0,032050
0,533667	0,5	0,059750
0,542000	0,5	0,041650
0,550333	0,5	0,037650
0,558667	0,5	0,044650
0,567000	0,5	0,040450
0,575333	0,5	0,040000
0,583667	0,5	0,044550
0,592000	0,5	0,056000
0,600333	0,5	0,051400
0,608667	0,5	0,051500
0,617000	0,5	0,041750
0,625333	0,5	0,017650
0,633667	0,5	0,037500
0,642000	0,5	0,030850
0,650333	0,5	0,027450
0,658667	0,5	0,028500
0,667000	0,5	0,051300
0,675333	0,5	0,080400
0,683667	0,5	0,107750
0,692000	0,5	0,095900
0,700333	0,5	0,095900
0,708667	0,5	0,087350
0,717000	0,5	0,086850
0,725333	0,5	0,078900
0,733667	0,5	0,085550
0,742000	0,5	0,085900
0,750333	0,5	0,083600
0,758667	0,5	0,091350
0,767000	0,5	0,068050
0,775333	0,5	0,067850
0,783667	0,5	0,087600
0,792000	0,5	0,088100
0,800333	0,5	0,084550
0,808667	0,5	0,085600
0,817000	0,5	0,103600
0,825333	0,5	0,147250
0,833667	0,5	0,147050
0,842000	0,5	0,149350
0,850333	0,5	0,138650
0,858667	0,5	0,150450
0,867000	0,5	0,141750
0,875333	0,5	0,149550
0,883667	0,5	0,143000
0,892000	0,5	0,155950
0,900333	0,5	0,154650
0,908667	0,5	0,151400
0,917000	0,5	0,141350
0,925333	0,5	0,156050
0,933667	0,5	0,164850
0,942000	0,5	0,145150
0,950333	0,5	0,139900
0,958667	0,5	0,146750
0,967000	0,5	0,185800
0,975333	0,5	0,211000
0,983667	0,5	0,226400
0,992000	0,5	0,217500
1,000333	0,5	0,225700
1,008667	0,5	0,209950
1,017000	0,5	0,216950
1,025333	0,5	0,210550
1,033667	0,5	0,217300
1,042000	0,5	0,213550
1,050333	0,5	0,222050
1,058667	0,5	0,221250
1,067000	0,5	0,219150
1,075333	0,5	0,246900
1,083667	0,5	0,243850
1,092000	0,5	0,241250
1,100333	0,5	0,249900
1,108667	0,5	0,253900
1,117000	0,5	0,296350
1,125333	0,5	0,307900
1,133667	0,5	0,288800
1,142000	0,5	0,297300
1,150333	0,5	0,302350
1,158667	0,5	0,305450
1,167000	0,5	0,307650
1,175333	0,5	0,325000
1,183667	0,5	0,320300
1,192000	0,5	0,334400
1,200333	0,5	0,338550
1,208667	0,5	0,340500
1,217000	0,5	0,334400
1,225333	0,5	0,380250
1,233667	0,5	0,356800
1,242000	0,5	0,358500
1,250333	0,5	0,364450
1,258667	0,5	0,391450
1,267000	0,5	0,443750
1,275333	0,5	0,439400
1,283667	0,5	0,439500
1,292000	0,5	0,457600
1,300333	0,5	0,466800
1,308667	0,5	0,464300
1,317000	0,5	0,480000
1,325333	0,5	0,483900
1,333667	0,5	0,492400
1,342000	0,5	0,496050
1,350333	0,5	0,515650
1,358667	0,5	0,499750
1,367000	0,5	0,510500
1,375333	0,5	0,539850
1,383667	0,5	0,533300
1,392000	0,5	0,539450
1,400333	0,5	0,558900
1,408667	0,5	0,577750
1,417000	0,5	0,622150
1,425333	0,5	0,613750
1,433667	0,5	0,617800
1,442000	0,5	0,620650
1,450333	0,5	0,632400
1,458667	0,5	0,637250
1,467000	0,5	0,645650
1,475333	0,5	0,650650
1,483667	0,5	0,651100
1,492000	0,5	0,671500
1,500333	0,5	0,673950
1,508667	0,5	0,669600
1,517000	0,5	0,676650
1,525333	0,5	0,687750
1,533667	0,5	0,675250
1,542000	0,5	0,679000
1,550333	0,5	0,694400
1,558667	0,5	0,729900
1,567000	0,5	0,711400
1,575333	0,5	0,466750
1,583667	0,5	-0,348650
1,592000	0,5	-1,283450
1,600333	0,5	-0,694700
1,608667	0,5	2,087700
1,617000	0,5	5,567900
1,625333	0,5	8,983850
1,633667	0,5	12,385000
1,642000	0,5	15,267050
1,650333	0,5	16,700100
1,658667	0,5	16,462350
1,667000	0,5	15,316200
1,675333	0,5	13,854450
1,683667	0,5	12,440600
1,692000	0,5	11,236800
1,700333	0,5	10,457750
1,708667	0,5	10,455700
1,717000	0,5	11,670900
1,725333	0,5	13,406750
1,733667	0,5	13,886700
1,742000	0,5	12,471100
1,750333	0,5	10,459500
1,758667	0,5	8,995300
1,767000	0,5	8,444850
1,775333	0,5	8,748650
1,783667	0,5	9,670200
1,792000	0,5	10,826250
1,800333	0,5	11,618950
1,808667	0,5	11,656750
1,817000	0,5	11,145250
1,825333	0,5	10,414600
1,833667	0,5	9,684400
1,842000	0,5	8,975100
1,850333	0,5	8,346750
1,858667	0,5	7,810750
1,867000	0,5	7,324250
1,875333	0,5	6,926950
1,883667	0,5	6,569600
1,892000	0,5	6,264350
1,900333	0,5	5,954950
1,908667	0,5	5,703000
1,917000	0,5	5,501700
1,925333	0,5	5,449650
1,933667	0,5	5,667250
1,942000	0,5	6,166300
1,950333	0,5	6,571350
1,958667	0,5	6,689550
1,967000	0,5	7,184150
1,975333	0,5	10,013350
1,983667	0,5	18,855000
1,992000	0,5	39,623401
2,000333	0,5	84,632801
2,008667	0,5	189,937353
2,017000	0,5	414,447156
2,025333	0,5	712,497711
2,033667	0,5	879,702463
2,042000	0,5	821,598762
2,050333	0,5	638,140360
2,058667	0,5	460,074107
2,067000	0,5	338,283805
2,075333	0,5	260,613604
2,083667	0,5	208,230603
2,092000	0,5	170,526853
2,100333	0,5	142,305152
2,108667	0,5	120,767952
2,117000	0,5	104,066252
2,125333	0,5	90,872901
2,133667	0,5	80,385001
2,142000	0,5	72,363001
2,150333	0,5	66,495251
2,158667	0,5	61,412701
2,167000	0,5	55,958301
2,175333	0,5	50,467301
2,183667	0,5	45,733651
2,192000	0,5	41,962451
2,200333	0,5	38,927701
2,208667	0,5	36,427301
2,217000	0,5	34,343801
2,225333	0,5	32,631700
2,233667	0,5	31,203100
2,242000	0,5	30,004350
2,250333	0,5	28,977450
2,258667	0,5	28,152700
2,267000	0,5	27,364350
2,275333	0,5	26,617200
2,283667	0,5	25,884700
2,292000	0,5	25,245650
2,300333	0,5	24,708250
2,308667	0,5	24,220650
2,317000	0,5	23,796550
2,325333	0,5	23,417700
2,333667	0,5	23,062200
2,342000	0,5	22,752700
2,350333	0,5	22,512700
2,358667	0,5	22,339550
2,367000	0,5	22,231100
2,375333	0,5	22,173150
2,383667	0,5	22,178950
2,392000	0,5	22,230450
2,400333	0,5	22,463750
2,408667	0,5	22,870450
2,417000	0,5	23,353100
2,425333	0,5	23,631500
2,433667	0,5	23,415800
2,442000	0,5	22,853950
2,450333	0,5	22,426450
2,458667	0,5	22,148250
2,467000	0,5	21,945600
2,475333	0,5	21,745100
2,483667	0,5	21,558600
2,492000	0,5	21,386150
2,500333	0,5	21,261600
2,508667	0,5	21,149250
2,517000	0,5	21,070100
2,525333	0,5	21,014050
2,533667	0,5	20,958800
2,542000	0,5	20,919250
2,550333	0,5	20,955650
2,558667	0,5	21,055300
2,567000	0,5	21,293100
2,575333	0,5	21,812000
2,583667	0,5	22,930850
2,592000	0,5	25,214950
2,600333	0,5	29,116250
2,608667	0,5	35,682151
2,617000	0,5	51,985701
2,625333	0,5	89,149801
2,633667	0,5	143,541302
2,642000	0,5	211,710603
2,650333	0,5	306,255305
2,658667	0,5	492,107207
2,667000	0,5	938,463114
2,675333	0,5	1 551,833523
2,683667	0,5	2 179,992832
2,692000	0,5	2 499,064087
2,700333	0,5	2 622,140339
2,708667	0,5	2 633,785989
2,717000	0,5	2 584,736039
2,725333	0,5	2 493,499237
2,733667	0,5	2 366,696835
2,742000	0,5	2 208,266483
2,750333	0,5	2 024,165230
2,758667	0,5	1 826,047477
2,767000	0,5	1 631,377824
2,775333	0,5	1 455,554672
2,783667	0,5	1 307,102869
2,792000	0,5	1 183,725818
2,800333	0,5	1 074,918916
2,808667	0,5	969,593414
2,817000	0,5	863,327613
2,825333	0,5	759,594261
2,833667	0,5	662,877560
2,842000	0,5	576,825659
2,850333	0,5	504,371758
2,858667	0,5	441,503657
2,867000	0,5	387,949056
2,875333	0,5	341,525905
2,883667	0,5	300,983404
2,892000	0,5	265,639004
2,900333	0,5	235,067504
2,908667	0,5	208,997503
2,917000	0,5	186,892203
2,925333	0,5	168,200853
2,933667	0,5	152,254002
2,942000	0,5	138,543002
2,950333	0,5	126,539252
2,958667	0,5	115,943152
2,967000	0,5	106,481952
2,975333	0,5	98,027501
2,983667	0,5	90,408451
2,992000	0,5	83,631001
3,000333	0,5	77,518851
3,008667	0,5	71,983251
3,017000	0,5	66,998901
3,025333	0,5	62,513251
3,033667	0,5	58,469201
3,042000	0,5	54,772101
3,050333	0,5	51,355651
3,058667	0,5	48,196751
3,067000	0,5	45,271351
3,075333	0,5	42,536001
3,083667	0,5	40,010051
3,092000	0,5	37,660551
3,100333	0,5	35,505551
3,108667	0,5	33,509100
3,117000	0,5	31,695200
3,125333	0,5	30,039350
3,133667	0,5	28,558350
3,142000	0,5	27,236650
3,150333	0,5	26,052600
3,158667	0,5	24,993600
3,167000	0,5	24,098950
3,175333	0,5	23,371850
3,183667	0,5	22,928600
3,192000	0,5	22,843050
3,200333	0,5	23,281850
3,208667	0,5	24,268600
3,217000	0,5	25,599000
3,225333	0,5	26,785800
3,233667	0,5	27,299300
3,242000	0,5	26,811900
3,250333	0,5	25,357300
3,258667	0,5	23,273500
3,267000	0,5	20,979300
3,275333	0,5	18,842050
3,283667	0,5	17,029150
3,292000	0,5	15,588150
3,300333	0,5	14,426250
3,308667	0,5	13,501300
3,317000	0,5	12,741300
3,325333	0,5	12,108950
3,333667	0,5	11,552750
3,342000	0,5	11,031750
3,350333	0,5	10,562100
3,358667	0,5	10,157450
3,367000	0,5	9,776300
3,375333	0,5	9,447900
3,383667	0,5	9,156000
3,392000	0,5	8,909300
3,400333	0,5	8,699300
3,408667	0,5	8,521700
3,417000	0,5	8,376900
3,425333	0,5	8,217400
3,433667	0,5	8,103850
3,442000	0,5	7,975500
3,450333	0,5	7,837600
3,458667	0,5	7,711250
3,467000	0,5	7,593250
3,475333	0,5	7,493500
3,483667	0,5	7,385900
3,492000	0,5	7,238700
3,500333	0,5	7,112900
3,508667	0,5	6,966300
3,517000	0,5	6,817100
3,525333	0,5	6,658500
3,533667	0,5	6,505750
3,542000	0,5	6,329950
3,550333	0,5	6,172100
3,558667	0,5	6,010000
3,567000	0,5	5,850200
3,575333	0,5	5,686550
3,583667	0,5	5,568150
3,592000	0,5	5,410000
3,600333	0,5	5,269050
3,608667	0,5	5,121350
3,617000	0,5	4,969650
3,625333	0,5	4,843200
3,633667	0,5	4,676300
3,642000	0,5	4,518050
3,650333	0,5	4,357850
3,658667	0,5	4,221850
3,667000	0,5	4,083400
3,675333	0,5	3,963900
3,683667	0,5	3,836700
3,692000	0,5	3,728750
3,700333	0,5	3,627150
3,708667	0,5	3,544100
3,717000	0,5	3,473100
3,725333	0,5	3,409250
3,733667	0,5	3,397000
3,742000	0,5	3,387800
3,750333	0,5	3,436350
3,758667	0,5	3,518350
3,767000	0,5	3,648100
3,775333	0,5	3,783050
3,783667	0,5	3,862500
3,792000	0,5	3,862350
3,800333	0,5	3,803600
3,808667	0,5	3,664500
3,817000	0,5	3,479750
3,825333	0,5	3,266500
3,833667	0,5	3,069300
3,842000	0,5	2,876800
3,850333	0,5	2,727300
3,858667	0,5	2,587800
3,867000	0,5	2,472750
3,875333	0,5	2,374550
3,883667	0,5	2,302750
3,892000	0,5	2,219500
3,900333	0,5	2,155600
3,908667	0,5	2,104500
3,917000	0,5	2,073100
3,925333	0,5	2,050250
3,933667	0,5	1,995850
3,942000	0,5	1,950700
3,950333	0,5	1,915350
3,958667	0,5	1,882650
3,967000	0,5	1,858700
3,975333	0,5	1,849000
3,983667	0,5	1,842200
3,992000	0,5	1,848300
4,000333	0,5	1,856400
4,008667	0,5	1,867350
4,017000	0,5	1,849900
4,025333	0,5	1,845450
4,033667	0,5	1,795850
4,042000	0,5	1,727800
4,050333	0,5	1,656250
4,058667	0,5	1,584250
4,067000	0,5	1,529800
4,075333	0,5	1,472700
4,083667	0,5	1,406050
4,092000	0,5	1,350950
4,100333	0,5	1,302100
4,108667	0,5	1,265200
4,117000	0,5	1,244750
4,125333	0,5	1,230450
4,133667	0,5	1,227300
4,142000	0,5	1,247950
4,150333	0,5	1,303400
4,158667	0,5	1,389850
4,167000	0,5	1,570100
4,175333	0,5	1,867200
4,183667	0,5	2,287900
4,192000	0,5	2,865250
4,200333	0,5	3,645650
4,208667	0,5	4,606650
4,217000	0,5	5,789650
4,225333	0,5	7,108450
4,233667	0,5	8,622500
4,242000	0,5	10,373950
4,250333	0,5	12,478000
4,258667	0,5	15,114500
4,267000	0,5	18,644150
4,275333	0,5	23,597500
4,283667	0,5	30,772250
4,292000	0,5	41,163151
4,300333	0,5	55,666451
4,308667	0,5	74,575951
4,317000	0,5	97,072051
4,325333	0,5	120,782452
4,333667	0,5	142,464102
4,342000	0,5	159,162652
4,350333	0,5	169,050853
4,358667	0,5	171,861453
4,367000	0,5	168,343353
4,375333	0,5	159,870602
4,383667	0,5	147,961852
4,392000	0,5	134,085302
4,400333	0,5	119,309202
4,408667	0,5	104,567452
4,417000	0,5	90,473151
4,425333	0,5	77,473951
4,433667	0,5	65,843401
4,442000	0,5	55,700851
4,450333	0,5	47,046201
4,458667	0,5	39,770901
4,467000	0,5	33,800551
4,475333	0,5	28,899750
4,483667	0,5	24,940350
4,492000	0,5	21,755550
4,500333	0,5	19,212050
4,508667	0,5	17,173200
4,517000	0,5	15,475850
4,525333	0,5	14,024300
4,533667	0,5	12,775550
4,542000	0,5	11,645600
4,550333	0,5	10,636100
4,558667	0,5	9,703550
4,567000	0,5	8,856450
4,575333	0,5	8,083650
4,583667	0,5	7,402350
4,592000	0,5	6,809150
4,600333	0,5	6,299500
4,608667	0,5	5,846550
4,617000	0,5	5,499200
4,625333	0,5	5,156650
4,633667	0,5	4,862800
4,642000	0,5	4,592800
4,650333	0,5	4,341000
4,658667	0,5	4,110900
4,667000	0,5	3,846200
4,675333	0,5	3,593500
4,683667	0,5	3,350350
4,692000	0,5	3,122650
4,700333	0,5	2,904750
4,708667	0,5	2,709050
4,717000	0,5	2,526000
4,725333	0,5	2,371500
4,733667	0,5	2,228950
4,742000	0,5	2,117400
4,750333	0,5	1,999250
4,758667	0,5	1,911250
4,767000	0,5	1,845400
4,775333	0,5	1,772100
4,783667	0,5	1,719650
4,792000	0,5	1,674550
4,800333	0,5	1,652300
4,808667	0,5	1,638250
4,817000	0,5	1,588850
4,825333	0,5	1,543250
4,833667	0,5	1,502350
4,842000	0,5	1,451100
4,850333	0,5	1,394550
4,858667	0,5	1,347300
4,867000	0,5	1,308900
4,875333	0,5	1,267000
4,883667	0,5	1,249000
4,892000	0,5	1,235350
4,900333	0,5	1,231250
4,908667	0,5	1,238550
4,917000	0,5	1,254100
4,925333	0,5	1,263950
4,933667	0,5	1,294800
4,942000	0,5	1,320100
4,950333	0,5	1,358500
4,958667	0,5	1,386750
4,967000	0,5	1,392000
4,975333	0,5	1,383400
4,983667	0,5	1,379900
4,992000	0,5	1,356550
5,000333	0,5	1,337550
5,008667	0,5	1,310250
5,017000	0,5	1,279250
5,025333	0,5	1,254300
5,033667	0,5	1,232050
5,042000	0,5	1,213400
5,050333	0,5	1,186500
5,058667	0,5	1,191500
5,067000	0,5	1,175000
5,075333	0,5	1,171800
5,083667	0,5	1,181700
5,092000	0,5	1,203900
5,100333	0,5	1,244850
5,108667	0,5	1,286200
5,117000	0,5	1,303600
5,125333	0,5	1,332850
5,133667	0,5	1,353150
5,142000	0,5	1,364950
5,150333	0,5	1,369100
5,158667	0,5	1,375250
5,167000	0,5	1,374850
5,175333	0,5	1,376750
5,183667	0,5	1,380850
5,192000	0,5	1,362200
5,200333	0,5	1,354800
5,208667	0,5	1,359150
5,217000	0,5	1,353250
5,225333	0,5	1,348100
5,233667	0,5	1,357950
5,242000	0,5	1,374200
5,250333	0,5	1,400550
5,258667	0,5	1,410050
5,267000	0,5	1,419900
5,275333	0,5	1,429650
5,283667	0,5	1,446350
5,292000	0,5	1,470600
5,300333	0,5	1,507750
5,308667	0,5	1,544750
5,317000	0,5	1,600000
5,325333	0,5	1,661450
5,333667	0,5	1,731050
5,342000	0,5	1,787400
5,350333	0,5	1,862300
5,358667	0,5	1,914700
5,367000	0,5	1,955600
5,375333	0,5	2,002450
5,383667	0,5	2,059050
5,392000	0,5	2,137500
5,400333	0,5	2,201550
5,408667	0,5	2,259500
5,417000	0,5	2,288000
5,425333	0,5	2,293600
5,433667	0,5	2,252700
5,442000	0,5	2,185350
5,450333	0,5	2,082350
5,458667	0,5	1,961200
5,467000	0,5	1,841800
5,475333	0,5	1,724150
5,483667	0,5	1,624450
5,492000	0,5	1,528750
5,500333	0,5	1,470050
5,508667	0,5	1,406450
5,517000	0,5	1,346150
5,525333	0,5	1,289800
5,533667	0,5	1,254550
5,542000	0,5	1,241700
5,550333	0,5	1,213550
5,558667	0,5	1,184600
5,567000	0,5	1,165000
5,575333	0,5	1,150550
5,583667	0,5	1,144700
5,592000	0,5	1,143300
5,600333	0,5	1,140200
5,608667	0,5	1,131500
5,617000	0,5	1,132050
5,625333	0,5	1,124600
5,633667	0,5	1,112850
5,642000	0,5	1,096000
5,650333	0,5	1,114750
5,658667	0,5	1,091750
5,667000	0,5	1,085200
5,675333	0,5	1,086800
5,683667	0,5	1,092150
5,692000	0,5	1,120600
5,700333	0,5	1,114250
5,708667	0,5	1,117100
5,717000	0,5	1,125400
5,725333	0,5	1,125050
5,733667	0,5	1,129050
5,742000	0,5	1,136000
5,750333	0,5	1,128200
5,758667	0,5	1,114800
5,767000	0,5	1,100900
5,775333	0,5	1,090800
5,783667	0,5	1,063050
5,792000	0,5	1,052500
5,800333	0,5	1,048700
5,808667	0,5	1,031450
5,817000	0,5	1,031550
5,825333	0,5	1,045750
5,833667	0,5	1,071700
5,842000	0,5	1,117300
5,850333	0,5	1,138250
5,858667	0,5	1,168900
5,867000	0,5	1,206600
5,875333	0,5	1,260600
5,883667	0,5	1,331550
5,892000	0,5	1,434900
5,900333	0,5	1,578150
5,908667	0,5	1,746700
5,917000	0,5	1,955000
5,925333	0,5	2,155500
5,933667	0,5	2,341200
5,942000	0,5	2,483500
5,950333	0,5	2,562500
5,958667	0,5	2,553450
5,967000	0,5	2,493300
5,975333	0,5	2,390500
5,983667	0,5	2,284650
5,992000	0,5	2,187850
6,000333	0,5	2,101300
6,008667	0,5	2,046750
6,017000	0,5	2,025250
6,025333	0,5	1,999750
6,033667	0,5	1,969500
6,042000	0,5	1,911750
6,050333	0,5	1,835450
6,058667	0,5	1,724000
6,067000	0,5	1,601300
6,075333	0,5	1,473050
6,083667	0,5	1,356700
6,092000	0,5	1,266300
6,100333	0,5	1,175350
6,108667	0,5	1,098850
6,117000	0,5	1,050050
6,125333	0,5	1,022050
6,133667	0,5	1,014400
6,142000	0,5	0,994600
6,150333	0,5	0,977350
6,158667	0,5	0,957750
6,167000	0,5	0,933650
6,175333	0,5	0,920000
6,183667	0,5	0,897650
6,192000	0,5	0,891150
6,200333	0,5	0,881350
6,208667	0,5	0,886600
6,217000	0,5	0,894250
6,225333	0,5	0,901650
6,233667	0,5	0,921050
6,242000	0,5	0,952700
6,250333	0,5	0,969800
6,258667	0,5	0,989500
6,267000	0,5	0,998750
6,275333	0,5	1,010350
6,283667	0,5	1,007400
6,292000	0,5	0,983950
6,300333	0,5	0,952950
6,308667	0,5	0,915150
6,317000	0,5	0,883150
6,325333	0,5	0,848650
6,333667	0,5	0,830850
6,342000	0,5	0,810450
6,350333	0,5	0,796850
6,358667	0,5	0,797950
6,367000	0,5	0,795500
6,375333	0,5	0,805000
6,383667	0,5	0,843600
6,392000	0,5	0,874550
6,400333	0,5	0,918950
6,408667	0,5	0,974100
6,417000	0,5	1,054200
6,425333	0,5	1,153200
6,433667	0,5	1,252150
6,442000	0,5	1,352500
6,450333	0,5	1,446650
6,458667	0,5	1,551250
6,467000	0,5	1,630800
6,475333	0,5	1,706650
6,483667	0,5	1,762450
6,492000	0,5	1,805750
6,500333	0,5	1,840650
6,508667	0,5	1,884450
6,517000	0,5	1,935350
6,525333	0,5	2,021300
6,533667	0,5	2,166050
6,542000	0,5	2,328500
6,550333	0,5	2,503100
6,558667	0,5	2,685050
6,567000	0,5	2,826350
6,575333	0,5	2,916450
6,583667	0,5	2,921200
6,592000	0,5	2,848200
6,600333	0,5	2,729500
6,608667	0,5	2,581200
6,617000	0,5	2,423650
6,625333	0,5	2,262250
6,633667	0,5	2,119600
6,642000	0,5	1,976750
6,650333	0,5	1,852300
6,658667	0,5	1,746200
6,667000	0,5	1,652650
6,675333	0,5	1,579250
6,683667	0,5	1,551700
6,692000	0,5	1,523050
6,700333	0,5	1,526800
6,708667	0,5	1,555450
6,717000	0,5	1,623500
6,725333	0,5	1,723850
6,733667	0,5	1,833350
6,742000	0,5	1,966250
6,750333	0,5	2,128200
6,758667	0,5	2,288300
6,767000	0,5	2,440000
6,775333	0,5	2,566900
6,783667	0,5	2,656100
6,792000	0,5	2,706200
6,800333	0,5	2,715600
6,808667	0,5	2,696450
6,817000	0,5	2,636500
6,825333	0,5	2,582350
6,833667	0,5	2,532300
6,842000	0,5	2,483050
6,850333	0,5	2,464500
6,858667	0,5	2,481800
6,867000	0,5	2,542650
6,875333	0,5	2,627100
6,883667	0,5	2,710600
6,892000	0,5	2,806450
6,900333	0,5	2,887600
6,908667	0,5	2,939800
6,917000	0,5	2,937500
6,925333	0,5	2,894750
6,933667	0,5	2,806800
6,942000	0,5	2,692900
6,950333	0,5	2,568450
6,958667	0,5	2,435900
6,967000	0,5	2,320750
6,975333	0,5	2,227700
6,983667	0,5	2,150950
6,992000	0,5	2,094400
7,000333	0,5	2,061700
7,008667	0,5	2,056800
7,017000	0,5	2,083900
7,025333	0,5	2,128300
7,033667	0,5	2,186750
7,042000	0,5	2,271700
7,050333	0,5	2,382900
7,058667	0,5	2,506500
7,067000	0,5	2,648350
7,075333	0,5	2,773350
7,083667	0,5	2,880800
7,092000	0,5	2,949650
7,100333	0,5	2,994550
7,108667	0,5	3,014150
7,117000	0,5	3,031000
7,125333	0,5	3,062650
7,133667	0,5	3,109650
7,142000	0,5	3,206850
7,150333	0,5	3,363100
7,158667	0,5	3,636650
7,167000	0,5	4,084700
7,175333	0,5	4,776400
7,183667	0,5	5,814750
7,192000	0,5	7,310800
7,200333	0,5	9,260050
7,208667	0,5	11,537500
7,217000	0,5	13,833500
7,225333	0,5	15,749650
7,233667	0,5	16,915050
7,242000	0,5	17,176050
7,250333	0,5	16,598200
7,258667	0,5	15,487350
7,267000	0,5	14,232350
7,275333	0,5	13,153650
7,283667	0,5	12,374750
7,292000	0,5	11,918550
7,300333	0,5	11,656900
7,308667	0,5	11,476100
7,317000	0,5	11,279300
7,325333	0,5	10,991300
7,333667	0,5	10,617600
7,342000	0,5	10,136500
7,350333	0,5	9,540800
7,358667	0,5	8,824450
7,367000	0,5	8,039850
7,375333	0,5	7,235150
7,383667	0,5	6,487150
7,392000	0,5	5,899050
7,400333	0,5	5,544800
7,408667	0,5	5,472700
7,417000	0,5	5,693850
7,425333	0,5	6,108600
7,433667	0,5	6,603600
7,442000	0,5	7,056300
7,450333	0,5	7,340650
7,458667	0,5	7,415200
7,467000	0,5	7,300850
7,475333	0,5	7,082800
7,483667	0,5	6,900450
7,492000	0,5	6,895050
7,500333	0,5	7,173200
7,508667	0,5	7,790150
7,517000	0,5	8,675100
7,525333	0,5	9,641700
7,533667	0,5	10,429500
7,542000	0,5	10,796750
7,550333	0,5	10,594600
7,558667	0,5	9,854600
7,567000	0,5	8,749850
7,575333	0,5	7,477100
7,583667	0,5	6,261450
7,592000	0,5	5,256000
7,600333	0,5	4,502600
7,608667	0,5	3,990750
7,617000	0,5	3,650050
7,625333	0,5	3,430800
7,633667	0,5	3,291750
7,642000	0,5	3,204300
7,650333	0,5	3,150650
7,658667	0,5	3,132400
7,667000	0,5	3,144500
7,675333	0,5	3,179950
7,683667	0,5	3,211200
7,692000	0,5	3,216850
7,700333	0,5	3,178750
7,708667	0,5	3,101050
7,717000	0,5	3,001850
7,725333	0,5	2,880300
7,733667	0,5	2,765250
7,742000	0,5	2,670450
7,750333	0,5	2,600250
7,758667	0,5	2,540050
7,767000	0,5	2,489800
7,775333	0,5	2,452900
7,783667	0,5	2,452900
7,792000	0,5	2,468250
7,800333	0,5	2,503650
7,808667	0,5	2,538450
7,817000	0,5	2,570650
7,825333	0,5	2,571050
7,833667	0,5	2,540100
7,842000	0,5	2,487550
7,850333	0,5	2,408450
7,858667	0,5	2,337150
7,867000	0,5	2,289550
7,875333	0,5	2,252650
7,883667	0,5	2,247700
7,892000	0,5	2,265450
7,900333	0,5	2,297250
7,908667	0,5	2,346200
7,917000	0,5	2,394100
7,925333	0,5	2,480300
7,933667	0,5	2,594550
7,942000	0,5	2,772850
7,950333	0,5	3,004400
7,958667	0,5	3,295950
7,967000	0,5	3,599300
7,975333	0,5	3,858000
7,983667	0,5	4,029750
7,992000	0,5	4,089600
8,000333	0,5	4,056000
8,008667	0,5	4,021950
8,017000	0,5	4,077200
8,025333	0,5	4,323800
8,033667	0,5	4,853100
8,042000	0,5	5,660750
8,050333	0,5	6,630350
8,058667	0,5	7,533450
8,067000	0,5	8,104350
8,075333	0,5	8,220500
8,083667	0,5	7,913850
8,092000	0,5	7,328600
8,100333	0,5	6,664550
8,108667	0,5	6,031400
8,117000	0,5	5,488300
8,125333	0,5	5,038200
8,133667	0,5	4,673600
8,142000	0,5	4,353900
8,150333	0,5	4,058000
8,158667	0,5	3,770200
8,167000	0,5	3,510050
8,175333	0,5	3,324850
8,183667	0,5	3,213100
8,192000	0,5	3,157350
8,200333	0,5	3,117300
8,208667	0,5	3,067150
8,217000	0,5	2,984800
8,225333	0,5	2,883200
8,233667	0,5	2,774750
8,242000	0,5	2,670450
8,250333	0,5	2,589800
8,258667	0,5	2,532600
8,267000	0,5	2,492050
8,275333	0,5	2,470650
8,283667	0,5	2,445100
8,292000	0,5	2,419250
8,300333	0,5	2,376950
8,308667	0,5	2,327350
8,317000	0,5	2,271950
8,325333	0,5	2,220250
8,333667	0,5	2,172550
8,342000	0,5	2,137300
8,350333	0,5	2,112400
8,358667	0,5	2,087350
8,367000	0,5	2,068650
8,375333	0,5	2,046050
8,383667	0,5	2,025450
8,392000	0,5	2,006500
8,400333	0,5	1,984650
8,408667	0,5	1,960700
8,417000	0,5	1,938700
8,425333	0,5	1,917800
8,433667	0,5	1,902550
8,442000	0,5	1,888200
8,450333	0,5	1,889600
8,458667	0,5	1,899450
8,467000	0,5	1,910400
8,475333	0,5	1,946200
8,483667	0,5	1,995300
8,492000	0,5	2,067800
8,500333	0,5	2,156600
8,508667	0,5	2,251750
8,517000	0,5	2,368650
8,525333	0,5	2,488200
8,533667	0,5	2,601550
8,542000	0,5	2,698500
8,550333	0,5	2,771300
8,558667	0,5	2,809850
8,567000	0,5	2,814950
8,575333	0,5	2,785700
8,583667	0,5	2,722950
8,592000	0,5	2,640900
8,600333	0,5	2,552150
8,608667	0,5	2,465600
8,617000	0,5	2,389600
8,625333	0,5	2,322750
8,633667	0,5	2,276950
8,642000	0,5	2,246200
8,650333	0,5	2,227300
8,658667	0,5	2,219500
8,667000	0,5	2,247150
8,675333	0,5	2,302700
8,683667	0,5	2,386850
8,692000	0,5	2,499200
8,700333	0,5	2,618750
8,708667	0,5	2,725100
8,717000	0,5	2,814050
8,725333	0,5	2,863250
8,733667	0,5	2,887350
8,742000	0,5	2,899000
8,750333	0,5	2,948200
8,758667	0,5	3,027400
8,767000	0,5	3,144450
8,775333	0,5	3,304400
8,783667	0,5	3,513850
8,792000	0,5	3,774050
8,800333	0,5	4,077750
8,808667	0,5	4,410600
8,817000	0,5	4,716300
8,825333	0,5	4,906050
8,833667	0,5	4,931000
8,842000	0,5	4,764250
8,850333	0,5	4,423900
8,858667	0,5	3,991450
8,867000	0,5	3,532250
8,875333	0,5	3,119500
8,883667	0,5	2,787600
8,892000	0,5	2,547800
8,900333	0,5	2,389450
8,908667	0,5	2,282700
8,917000	0,5	2,226250
8,925333	0,5	2,207350
8,933667	0,5	2,218650
8,942000	0,5	2,255550
8,950333	0,5	2,326500
8,958667	0,5	2,436350
8,967000	0,5	2,569650
8,975333	0,5	2,706500
8,983667	0,5	2,805050
8,992000	0,5	2,839950
9,000333	0,5	2,813700
9,008667	0,5	2,746750
9,017000	0,5	2,661400
9,025333	0,5	2,586300
9,033667	0,5	2,528050
9,042000	0,5	2,494750
9,050333	0,5	2,479550
9,058667	0,5	2,487400
9,067000	0,5	2,510650
9,075333	0,5	2,540200
9,083667	0,5	2,552700
9,092000	0,5	2,540000
9,100333	0,5	2,500300
9,108667	0,5	2,446900
9,117000	0,5	2,382150
9,125333	0,5	2,326200
9,133667	0,5	2,277350
9,142000	0,5	2,230450
9,150333	0,5	2,170250
9,158667	0,5	2,108750
9,167000	0,5	2,046550
9,175333	0,5	1,971950
9,183667	0,5	1,906400
9,192000	0,5	1,855600
9,200333	0,5	1,817150
9,208667	0,5	1,784350
9,217000	0,5	1,761000
9,225333	0,5	1,751900
9,233667	0,5	1,752800
9,242000	0,5	1,765850
9,250333	0,5	1,779000
9,258667	0,5	1,791550
9,267000	0,5	1,793650
9,275333	0,5	1,787050
9,283667	0,5	1,774800
9,292000	0,5	1,746600
9,300333	0,5	1,717050
9,308667	0,5	1,694450
9,317000	0,5	1,677350
9,325333	0,5	1,662650
9,333667	0,5	1,652650
9,342000	0,5	1,648950
9,350333	0,5	1,647150
9,358667	0,5	1,645950
9,367000	0,5	1,647300
9,375333	0,5	1,647900
9,383667	0,5	1,650350
9,392000	0,5	1,637950
9,400333	0,5	1,627250
9,408667	0,5	1,599950
9,417000	0,5	1,564200
9,425333	0,5	1,529050
9,433667	0,5	1,490450
9,442000	0,5	1,461550
9,450333	0,5	1,441400
9,458667	0,5	1,426950
9,467000	0,5	1,424500
9,475333	0,5	1,420100
9,483667	0,5	1,419600
9,492000	0,5	1,413400
9,500333	0,5	1,398950
9,508667	0,5	1,376900
9,517000	0,5	1,361650
9,525333	0,5	1,349100
9,533667	0,5	1,346150
9,542000	0,5	1,337850
9,550333	0,5	1,331150
9,558667	0,5	1,334400
9,567000	0,5	1,343400
9,575333	0,5	1,352800
9,583667	0,5	1,370350
9,592000	0,5	1,402350
9,600333	0,5	1,437700
9,608667	0,5	1,493600
9,617000	0,5	1,557500
9,625333	0,5	1,639500
9,633667	0,5	1,733650
9,642000	0,5	1,823050
9,650333	0,5	1,910650
9,658667	0,5	1,981050
9,667000	0,5	2,039450
9,675333	0,5	2,070100
9,683667	0,5	2,061250
9,692000	0,5	2,015150
9,700333	0,5	1,938750
9,708667	0,5	1,841050
9,717000	0,5	1,729700
9,725333	0,5	1,626450
9,733667	0,5	1,528950
9,742000	0,5	1,456850
9,750333	0,5	1,398900
9,758667	0,5	1,361100
9,767000	0,5	1,336950
9,775333	0,5	1,314500
9,783667	0,5	1,311000
9,792000	0,5	1,308200
9,800333	0,5	1,311450
9,808667	0,5	1,321250
9,817000	0,5	1,321050
9,825333	0,5	1,332050
9,833667	0,5	1,337450
9,842000	0,5	1,341400
9,850333	0,5	1,340400
9,858667	0,5	1,348400
9,867000	0,5	1,352750
9,875333	0,5	1,353300
9,883667	0,5	1,359000
9,892000	0,5	1,363700
9,900333	0,5	1,371900
9,908667	0,5	1,386050
9,917000	0,5	1,403800
9,925333	0,5	1,428800
9,933667	0,5	1,465050
9,942000	0,5	1,497050
9,950333	0,5	1,523050
9,958667	0,5	1,536450
9,967000	0,5	1,540000
9,975333	0,5	1,528400
9,983667	0,5	1,504700
9,992000	0,5	1,460700
10,000333	0,5	1,427900
10,008667	0,5	1,391300
10,017000	0,5	1,362950
10,025333	0,5	1,335850
10,033667	0,5	1,313750
10,042000	0,5	1,300250
10,050333	0,5	1,283800
10,058667	0,5	1,276250
10,067000	0,5	1,269150
10,075333	0,5	1,265050
10,083667	0,5	1,265250
10,092000	0,5	1,264450
10,100333	0,5	1,263400
10,108667	0,5	1,272650
10,117000	0,5	1,273200
10,125333	0,5	1,282850
10,133667	0,5	1,300150
10,142000	0,5	1,318150
10,150333	0,5	1,337700
10,158667	0,5	1,359450
10,167000	0,5	1,378500
10,175333	0,5	1,398250
10,183667	0,5	1,417700
10,192000	0,5	1,435350
10,200333	0,5	1,464750
10,208667	0,5	1,496200
10,217000	0,5	1,528150
10,225333	0,5	1,581050
10,233667	0,5	1,634950
10,242000	0,5	1,689950
10,250333	0,5	1,737500
10,258667	0,5	1,766150
10,267000	0,5	1,777100
10,275333	0,5	1,765000
10,283667	0,5	1,734050
10,292000	0,5	1,697600
10,300333	0,5	1,662200
10,308667	0,5	1,630200
10,317000	0,5	1,595900
10,325333	0,5	1,568100
10,333667	0,5	1,533750
10,342000	0,5	1,510700
10,350333	0,5	1,497550
10,358667	0,5	1,490350
10,367000	0,5	1,496450
10,375333	0,5	1,526300
10,383667	0,5	1,570450
10,392000	0,5	1,653600
10,400333	0,5	1,772600
10,408667	0,5	1,962100
10,417000	0,5	2,221500
10,425333	0,5	2,531800
10,433667	0,5	2,867750
10,442000	0,5	3,174850
10,450333	0,5	3,400150
10,458667	0,5	3,493850
10,467000	0,5	3,447400
10,475333	0,5	3,268800
10,483667	0,5	3,015800
10,492000	0,5	2,734200
10,500333	0,5	2,468500
10,508667	0,5	2,238450
10,517000	0,5	2,043400
10,525333	0,5	1,871900
10,533667	0,5	1,718600
10,542000	0,5	1,577400
10,550333	0,5	1,451750
10,558667	0,5	1,337150
10,567000	0,5	1,246550
10,575333	0,5	1,173850
10,583667	0,5	1,121700
10,592000	0,5	1,094500
10,600333	0,5	1,078800
10,608667	0,5	1,085900
10,617000	0,5	1,098300
10,625333	0,5	1,121050
10,633667	0,5	1,145200
10,642000	0,5	1,174300
10,650333	0,5	1,202200
10,658667	0,5	1,221500
10,667000	0,5	1,246700
10,675333	0,5	1,258950
10,683667	0,5	1,258650
10,692000	0,5	1,247600
10,700333	0,5	1,235000
10,708667	0,5	1,222250
10,717000	0,5	1,206650
10,725333	0,5	1,197000
10,733667	0,5	1,184050
10,742000	0,5	1,175200
10,750333	0,5	1,173250
10,758667	0,5	1,171550
10,767000	0,5	1,173000
10,775333	0,5	1,177350
10,783667	0,5	1,173150
10,792000	0,5	1,176650
10,800333	0,5	1,173050
10,808667	0,5	1,166050
10,817000	0,5	1,167650
10,825333	0,5	1,164150
10,833667	0,5	1,161450
10,842000	0,5	1,160700
10,850333	0,5	1,156100
10,858667	0,5	1,172250
10,867000	0,5	1,176100
10,875333	0,5	1,180700
10,883667	0,5	1,191900
10,892000	0,5	1,201600
10,900333	0,5	1,224400
10,908667	0,5	1,248750
10,917000	0,5	1,281250
10,925333	0,5	1,320500
10,933667	0,5	1,369150
10,942000	0,5	1,413800
10,950333	0,5	1,462550
10,958667	0,5	1,497600
10,967000	0,5	1,525600
10,975333	0,5	1,534150
10,983667	0,5	1,522550
10,992000	0,5	1,498050
11,000333	0,5	1,461550
11,008667	0,5	1,429050
11,017000	0,5	1,402600
11,025333	0,5	1,374100
11,033667	0,5	1,360800
11,042000	0,5	1,352100
11,050333	0,5	1,356350
11,058667	0,5	1,357350
11,067000	0,5	1,368250
11,075333	0,5	1,383750
11,083667	0,5	1,400700
11,092000	0,5	1,427800
11,100333	0,5	1,464600
11,108667	0,5	1,523950
11,117000	0,5	1,585250
11,125333	0,5	1,640950
11,133667	0,5	1,681400
11,142000	0,5	1,697500
11,150333	0,5	1,688750
11,158667	0,5	1,659150
11,167000	0,5	1,602500
11,175333	0,5	1,549700
11,183667	0,5	1,493750
11,192000	0,5	1,447350
11,200333	0,5	1,411550
11,208667	0,5	1,386150
11,217000	0,5	1,359050
11,225333	0,5	1,334000
11,233667	0,5	1,313250
11,242000	0,5	1,289700
11,250333	0,5	1,263500
11,258667	0,5	1,253250
11,267000	0,5	1,247250
11,275333	0,5	1,251250
11,283667	0,5	1,249250
11,292000	0,5	1,265300
11,300333	0,5	1,293300
11,308667	0,5	1,340850
11,317000	0,5	1,410000
11,325333	0,5	1,499300
11,333667	0,5	1,623450
11,342000	0,5	1,766850
11,350333	0,5	1,948150
11,358667	0,5	2,139650
11,367000	0,5	2,340100
11,375333	0,5	2,538800
11,383667	0,5	2,715800
11,392000	0,5	2,842750
11,400333	0,5	2,900800
11,408667	0,5	2,879650
11,417000	0,5	2,768950
11,425333	0,5	2,594300
11,433667	0,5	2,382800
11,442000	0,5	2,176700
11,450333	0,5	1,996900
11,458667	0,5	1,858350
11,467000	0,5	1,760250
11,475333	0,5	1,692550
11,483667	0,5	1,650000
11,492000	0,5	1,619600
11,500333	0,5	1,595750
11,508667	0,5	1,566350
11,517000	0,5	1,536050
11,525333	0,5	1,505050
11,533667	0,5	1,464600
11,542000	0,5	1,426700
11,550333	0,5	1,385000
11,558667	0,5	1,352250
11,567000	0,5	1,319800
11,575333	0,5	1,294600
11,583667	0,5	1,267800
11,592000	0,5	1,246550
11,600333	0,5	1,230700
11,608667	0,5	1,216650
11,617000	0,5	1,194400
11,625333	0,5	1,182300
11,633667	0,5	1,167000
11,642000	0,5	1,156800
11,650333	0,5	1,144250
11,658667	0,5	1,133450
11,667000	0,5	1,128450
11,675333	0,5	1,127450
11,683667	0,5	1,127550
11,692000	0,5	1,129700
11,700333	0,5	1,145400
11,708667	0,5	1,154950
11,717000	0,5	1,164850
11,725333	0,5	1,177300
11,733667	0,5	1,189500
11,742000	0,5	1,210750
11,750333	0,5	1,241950
11,758667	0,5	1,265700
11,767000	0,5	1,308700
11,775333	0,5	1,352100
11,783667	0,5	1,402100
11,792000	0,5	1,461800
11,800333	0,5	1,527200
11,808667	0,5	1,594550
11,817000	0,5	1,663600
11,825333	0,5	1,740500
11,833667	0,5	1,795900
11,842000	0,5	1,839750
11,850333	0,5	1,858500
11,858667	0,5	1,847750
11,867000	0,5	1,801950
11,875333	0,5	1,745300
11,883667	0,5	1,676950
11,892000	0,5	1,612400
11,900333	0,5	1,549200
11,908667	0,5	1,500100
11,917000	0,5	1,452900
11,925333	0,5	1,419900
11,933667	0,5	1,391050
11,942000	0,5	1,377000
11,950333	0,5	1,362800
11,958667	0,5	1,355300
11,967000	0,5	1,353400
11,975333	0,5	1,361600
11,983667	0,5	1,358300
11,992000	0,5	1,365900
12,000333	0,5	1,382800
12,008667	0,5	1,406050
12,017000	0,5	1,444550
12,025333	0,5	1,492850
12,033667	0,5	1,564400
12,042000	0,5	1,645550
12,050333	0,5	1,725050
12,058667	0,5	1,780200
12,067000	0,5	1,840000
12,075333	0,5	1,888100
12,083667	0,5	1,932750
12,092000	0,5	1,981800
12,100333	0,5	2,037050
12,108667	0,5	2,095700
12,117000	0,5	2,156800
12,125333	0,5	2,220850
12,133667	0,5	2,256550
12,142000	0,5	2,295450
12,150333	0,5	2,308700
12,158667	0,5	2,290950
12,167000	0,5	2,254500
12,175333	0,5	2,193450
12,183667	0,5	2,117700
12,192000	0,5	2,039600
12,200333	0,5	1,936700
12,208667	0,5	1,847050
12,217000	0,5	1,774950
12,225333	0,5	1,717400
12,233667	0,5	1,679300
12,242000	0,5	1,660300
12,250333	0,5	1,650900
12,258667	0,5	1,646750
12,267000	0,5	1,644650
12,275333	0,5	1,650300
12,283667	0,5	1,642900
12,292000	0,5	1,646000
12,300333	0,5	1,635550
12,308667	0,5	1,616250
12,317000	0,5	1,597800
12,325333	0,5	1,567900
12,333667	0,5	1,543400
12,342000	0,5	1,513100
12,350333	0,5	1,478400
12,358667	0,5	1,437650
12,367000	0,5	1,396900
12,375333	0,5	1,358400
12,383667	0,5	1,330550
12,392000	0,5	1,298100
12,400333	0,5	1,275500
12,408667	0,5	1,248850
12,417000	0,5	1,227550
12,425333	0,5	1,198750
12,433667	0,5	1,187300
12,442000	0,5	1,171600
12,450333	0,5	1,157050
12,458667	0,5	1,147450
12,467000	0,5	1,134600
12,475333	0,5	1,132900
12,483667	0,5	1,133500
12,492000	0,5	1,139950
12,500333	0,5	1,146750
12,508667	0,5	1,150850
12,517000	0,5	1,161800
12,525333	0,5	1,176250
12,533667	0,5	1,202750
12,542000	0,5	1,258150
12,550333	0,5	1,302050
12,558667	0,5	1,340150
12,567000	0,5	1,342400
12,575333	0,5	1,329150
12,583667	0,5	1,303650
12,592000	0,5	1,252150
12,600333	0,5	1,199000
12,608667	0,5	1,163250
12,617000	0,5	1,172450
12,625333	0,5	1,136650
12,633667	0,5	1,031750
12,642000	0,5	0,782050
12,650333	0,5	0,312950
12,658667	0,5	-0,191600
12,667000	0,5	-0,552650
12,675333	0,5	-0,822850
12,683667	0,5	-1,047400
12,692000	0,5	-1,276700
12,700333	0,5	-1,553550
12,708667	0,5	-1,808900
12,717000	0,5	-1,989300
12,725333	0,5	-2,119950
12,733667	0,5	-2,216750
12,742000	0,5	-2,300800
12,750333	0,5	-2,376500
12,758667	0,5	-2,453100
12,767000	0,5	-2,514800
12,775333	0,5	-2,569300
12,783667	0,5	-2,605050
12,792000	0,5	-2,646100
12,800333	0,5	-2,678800
12,808667	0,5	-2,711550
12,817000	0,5	-2,741250
12,825333	0,5	-2,769050
12,833667	0,5	-2,789250
12,842000	0,5	-2,815550
12,850333	0,5	-2,835800
12,858667	0,5	-2,848300
12,867000	0,5	-2,877400
12,875333	0,5	-2,885700
12,883667	0,5	-2,891700
12,892000	0,5	-2,901000
12,900333	0,5	-2,909400
12,908667	0,5	-2,925100
12,917000	0,5	-2,927850
12,925333	0,5	-2,918500
12,933667	0,5	-2,918650
12,942000	0,5	-2,918700
12,950333	0,5	-2,914550
12,958667	0,5	-2,914600
12,967000	0,5	-2,921150
12,975333	0,5	-2,920200
12,983667	0,5	-2,918550
12,992000	0,5	-2,921600
13,000333	0,5	-2,921700
13,008667	0,5	-2,911650
13,017000	0,5	-2,916300
13,025333	0,5	-2,899350
13,033667	0,5	-2,882350
13,042000	0,5	-2,865700
13,050333	0,5	-2,839200
13,058667	0,5	-2,823850
13,067000	0,5	-2,773100
13,075333	0,5	-2,727900
13,083667	0,5	-2,685450
13,092000	0,5	-2,646750
13,100333	0,5	-2,609350
13,108667	0,5	-2,581000
13,117000	0,5	-2,565350
13,125333	0,5	-2,557500
13,133667	0,5	-2,556850
13,142000	0,5	-2,571400
13,150333	0,5	-2,591100
13,158667	0,5	-2,612600
13,167000	0,5	-2,645900
13,175333	0,5	-2,669950
13,183667	0,5	-2,697100
13,192000	0,5	-2,721800
13,200333	0,5	-2,746050
13,208667	0,5	-2,763050
13,217000	0,5	-2,768900
13,225333	0,5	-2,769150
13,233667	0,5	-2,780450
13,242000	0,5	-2,779700
13,250333	0,5	-2,777450
13,258667	0,5	-2,777200
13,267000	0,5	-2,770450
13,275333	0,5	-2,759550
13,283667	0,5	-2,745450
13,292000	0,5	-2,719400
13,300333	0,5	-2,689150
13,308667	0,5	-2,653550
13,317000	0,5	-2,629750
13,325333	0,5	-2,589300
13,333667	0,5	-2,564000
13,342000	0,5	-2,546200
13,350333	0,5	-2,544000
13,358667	0,5	-2,541000
13,367000	0,5	-2,525400
13,375333	0,5	-2,518650
13,383667	0,5	-2,519800
13,392000	0,5	-2,516950
13,400333	0,5	-2,509050
13,408667	0,5	-2,505350
13,417000	0,5	-2,490250
13,425333	0,5	-2,476300
13,433667	0,5	-2,463000
13,442000	0,5	-2,443600
13,450333	0,5	-2,424600
13,458667	0,5	-2,411900
13,467000	0,5	-2,385750
13,475333	0,5	-2,365750
13,483667	0,5	-2,344850
13,492000	0,5	-2,328950
13,500333	0,5	-2,311250
13,508667	0,5	-2,281050
13,517000	0,5	-2,250400
13,525333	0,5	-2,224750
13,533667	0,5	-2,197800
13,542000	0,5	-2,176600
13,550333	0,5	-2,148700
13,558667	0,5	-2,126700
13,567000	0,5	-2,107950
13,575333	0,5	-2,086500
13,583667	0,5	-2,072850
13,592000	0,5	-2,046800
13,600333	0,5	-2,031650
13,608667	0,5	-2,013700
13,617000	0,5	-1,996200
13,625333	0,5	-1,982150
13,633667	0,5	-1,965150
13,642000	0,5	-1,951050
13,650333	0,5	-1,940950
13,658667	0,5	-1,917350
13,667000	0,5	-1,893500
13,675333	0,5	-1,863100
13,683667	0,5	-1,848450
13,692000	0,5	-1,815100
13,700333	0,5	-1,791100
13,708667	0,5	-1,761400
13,717000	0,5	-1,724950
13,725333	0,5	-1,701500
13,733667	0,5	-1,666350
13,742000	0,5	-1,638000
13,750333	0,5	-1,617300
13,758667	0,5	-1,590600
13,767000	0,5	-1,559500
13,775333	0,5	-1,541750
13,783667	0,5	-1,523950
13,792000	0,5	-1,528100
13,800333	0,5	-1,504400
13,808667	0,5	-1,486950
13,817000	0,5	-1,470150
13,825333	0,5	-1,456200
13,833667	0,5	-1,443300
13,842000	0,5	-1,436950
13,850333	0,5	-1,426000
13,858667	0,5	-1,417400
13,867000	0,5	-1,408500
13,875333	0,5	-1,384800
13,883667	0,5	-1,371750
13,892000	0,5	-1,344550
13,900333	0,5	-1,333150
13,908667	0,5	-1,289900
13,917000	0,5	-1,249150
13,925333	0,5	-1,203650
13,933667	0,5	-1,150800
13,942000	0,5	-1,091550
13,950333	0,5	-1,016950
13,958667	0,5	-0,941550
13,967000	0,5	-0,889550
13,975333	0,5	-0,840350
13,983667	0,5	-0,815300
13,992000	0,5	-0,793400
14,000333	0,5	-0,766100
14,008667	0,5	-0,722150
14,017000	0,5	-0,665350
14,025333	0,5	-0,614800
14,033667	0,5	-0,557050
14,042000	0,5	-0,529450
14,050333	0,5	-0,504100
14,058667	0,5	-0,471100
14,067000	0,5	-0,442250
14,075333	0,5	-0,418150
14,083667	0,5	-0,368550
14,092000	0,5	-0,318400
14,100333	0,5	-0,236800
14,108667	0,5	-0,167150
14,117000	0,5	-0,103750
14,125333	0,5	-0,051800
14,133667	0,5	-0,001800
14,142000	0,5	0,036750
14,150333	0,5	0,070550
14,158667	0,5	0,094300
14,167000	0,5	0,101500
14,175333	0,5	0,098500
14,183667	0,5	0,098200
14,192000	0,5	0,075200
14,200333	0,5	0,082700
14,208667	0,5	0,086800
14,217000	0,5	0,097150
14,225333	0,5	0,095950
14,233667	0,5	0,094600
14,242000	0,5	0,106600
14,250333	0,5	0,122500
14,258667	0,5	0,145850
14,267000	0,5	0,155750
14,275333	0,5	0,172000
14,283667	0,5	0,185700
14,292000	0,5	0,199300
14,300333	0,5	0,211700
14,308667	0,5	0,225350
14,317000	0,5	0,227350
14,325333	0,5	0,232150
14,333667	0,5	0,241850
14,342000	0,5	0,236950
14,350333	0,5	0,254000
14,358667	0,5	0,267800
14,367000	0,5	0,284350
14,375333	0,5	0,291700
14,383667	0,5	0,291100
14,392000	0,5	0,301750
14,400333	0,5	0,305400
14,408667	0,5	0,298200
14,417000	0,5	0,287200
14,425333	0,5	0,270150
14,433667	0,5	0,252850
14,442000	0,5	0,229350
14,450333	0,5	0,228650
14,458667	0,5	0,216700
14,467000	0,5	0,201250
14,475333	0,5	0,194650
14,483667	0,5	0,192950
14,492000	0,5	0,178300
14,500333	0,5	0,188950
14,508667	0,5	0,184400
14,517000	0,5	0,187550
14,525333	0,5	0,174600
14,533667	0,5	0,165350
14,542000	0,5	0,174100
14,550333	0,5	0,187850
14,558667	0,5	0,209550
14,567000	0,5	0,232800
14,575333	0,5	0,282200
14,583667	0,5	0,348300
14,592000	0,5	0,435600
14,600333	0,5	0,528650
14,608667	0,5	0,611450
14,617000	0,5	0,675550
14,625333	0,5	0,710600
14,633667	0,5	0,695050
14,642000	0,5	0,667000
14,650333	0,5	0,617000
14,658667	0,5	0,559000
14,667000	0,5	0,519150
14,675333	0,5	0,505100
14,683667	0,5	0,522100
14,692000	0,5	0,587750
14,700333	0,5	0,654800
14,708667	0,5	0,721900
14,717000	0,5	0,767050
14,725333	0,5	0,769250
14,733667	0,5	0,741650
14,742000	0,5	0,681900
14,750333	0,5	0,613600
14,758667	0,5	0,533900
14,767000	0,5	0,478800
14,775333	0,5	0,423950
14,783667	0,5	0,377450
14,792000	0,5	0,351450
14,800333	0,5	0,334800
14,808667	0,5	0,310600
14,817000	0,5	0,294050
14,825333	0,5	0,274100
14,833667	0,5	0,283150
14,842000	0,5	0,293250
14,850333	0,5	0,302400
14,858667	0,5	0,308000
14,867000	0,5	0,313700
14,875333	0,5	0,313400
14,883667	0,5	0,300200
14,892000	0,5	0,281700
14,900333	0,5	0,264650
14,908667	0,5	0,243700
14,917000	0,5	0,235450
14,925333	0,5	0,222850
14,933667	0,5	0,217800
14,942000	0,5	0,211850
14,950333	0,5	0,198400
14,958667	0,5	0,172950
14,967000	0,5	0,134750
14,975333	0,5	0,117150
14,983667	0,5	0,101300
14,992000	0,5	0,099050
15,000333	0,5	0,073250
15,008667	0,5	0,064650
15,017000	0,5	0,060100
15,025333	0,5	0,057000
15,033667	0,5	0,051250
15,042000	0,5	0,047600
15,050333	0,5	0,041050
15,058667	0,5	0,044500
15,067000	0,5	0,056700
15,075333	0,5	0,048500
15,083667	0,5	0,069500
15,092000	0,5	0,101450
15,100333	0,5	0,152400
15,108667	0,5	0,208850
15,117000	0,5	0,295600
15,125333	0,5	0,417300
15,133667	0,5	0,538300
15,142000	0,5	0,606450
15,150333	0,5	0,626300
15,158667	0,5	0,594300
15,167000	0,5	0,542000
15,175333	0,5	0,493050
15,183667	0,5	0,466150
15,192000	0,5	0,471400
15,200333	0,5	0,514850
15,208667	0,5	0,584500
15,217000	0,5	0,648550
15,225333	0,5	0,661250
15,233667	0,5	0,657450
15,242000	0,5	0,597500
15,250333	0,5	0,505850
15,258667	0,5	0,422600
15,267000	0,5	0,321200
15,275333	0,5	0,284200
15,283667	0,5	0,248100
15,292000	0,5	0,226450
15,300333	0,5	0,218150
15,308667	0,5	0,214550
15,317000	0,5	0,189100
15,325333	0,5	0,177000
15,333667	0,5	0,162000
15,342000	0,5	0,143450
15,350333	0,5	0,132450
15,358667	0,5	0,133500
15,367000	0,5	0,127000
15,375333	0,5	0,124150
15,383667	0,5	0,138850
15,392000	0,5	0,131650
15,400333	0,5	0,117050
15,408667	0,5	0,095900
15,417000	0,5	0,058300
15,425333	0,5	0,048650
15,433667	0,5	0,029450
15,442000	0,5	0,003750
15,450333	0,5	-0,013150
15,458667	0,5	-0,034700
15,467000	0,5	-0,046200
15,475333	0,5	-0,067250
15,483667	0,5	-0,075900
15,492000	0,5	-0,091400
15,500333	0,5	-0,108700
15,508667	0,5	-0,112550
15,517000	0,5	-0,132400
15,525333	0,5	-0,132750
15,533667	0,5	-0,119150
15,542000	0,5	-0,114550
15,550333	0,5	-0,103300
15,558667	0,5	-0,067100
15,567000	0,5	-0,003050
15,575333	0,5	0,110250
15,583667	0,5	0,235050
15,592000	0,5	0,357750
15,600333	0,5	0,441400
15,608667	0,5	0,486000
15,617000	0,5	0,462800
15,625333	0,5	0,442700
15,633667	0,5	0,409300
15,642000	0,5	0,417050
15,650333	0,5	0,455900
15,658667	0,5	0,511750
15,667000	0,5	0,532350
15,675333	0,5	0,548900
15,683667	0,5	0,505900
15,692000	0,5	0,428300
15,700333	0,5	0,322950
15,708667	0,5	0,219700
15,717000	0,5	0,137100
15,725333	0,5	0,074600
15,733667	0,5	0,030800
15,742000	0,5	0,002500
15,750333	0,5	-0,020400
15,758667	0,5	-0,032950
15,767000	0,5	-0,029800
15,775333	0,5	-0,025850
15,783667	0,5	-0,016650
15,792000	0,5	-0,013150
15,800333	0,5	0,003750
15,808667	0,5	-0,005750
15,817000	0,5	-0,024850
15,825333	0,5	-0,041400
15,833667	0,5	-0,060400
15,842000	0,5	-0,088700
15,850333	0,5	-0,129800
15,858667	0,5	-0,165400
15,867000	0,5	-0,183600
15,875333	0,5	-0,197700
15,883667	0,5	-0,212700
15,892000	0,5	-0,224650
15,900333	0,5	-0,237000
15,908667	0,5	-0,247600
15,917000	0,5	-0,249750
15,925333	0,5	-0,257850
15,933667	0,5	-0,261900
15,942000	0,5	-0,252900
15,950333	0,5	-0,236600
15,958667	0,5	-0,227800
15,967000	0,5	-0,176250
15,975333	0,5	-0,093050
15,983667	0,5	0,008000
15,992000	0,5	0,143750
16,000333	0,5	0,253650
16,008667	0,5	0,365550
16,017000	0,5	0,430650
16,025333	0,5	0,452900
16,033667	0,5	0,451850
16,042000	0,5	0,474500
16,050333	0,5	0,500250
16,058667	0,5	0,525750
16,067000	0,5	0,543650
16,075333	0,5	0,509300
16,083667	0,5	0,440700
16,092000	0,5	0,339900
16,100333	0,5	0,248450
16,108667	0,5	0,141400
16,117000	0,5	0,084800
16,125333	0,5	0,037150
16,133667	0,5	0,002850
16,142000	0,5	-0,018250
16,150333	0,5	-0,034200
16,158667	0,5	-0,021400
16,167000	0,5	0,002050
16,175333	0,5	0,015250
16,183667	0,5	0,046350
16,192000	0,5	0,074350
16,200333	0,5	0,101100
16,208667	0,5	0,119650
16,217000	0,5	0,136700
16,225333	0,5	0,124100
16,233667	0,5	0,097050
16,242000	0,5	0,074050
16,250333	0,5	0,020700
16,258667	0,5	-0,042500
16,267000	0,5	-0,089550
16,275333	0,5	-0,139650
16,283667	0,5	-0,195750
16,292000	0,5	-0,250950
16,300333	0,5	-0,296950
16,308667	0,5	-0,299050
16,317000	0,5	-0,313250
16,325333	0,5	-0,298750
16,333667	0,5	-0,271600
16,342000	0,5	-0,198350
16,350333	0,5	-0,090500
16,358667	0,5	0,045650
16,367000	0,5	0,181400
16,375333	0,5	0,280850
16,383667	0,5	0,345150
16,392000	0,5	0,379500
16,400333	0,5	0,371300
16,408667	0,5	0,372150
16,417000	0,5	0,374550
16,425333	0,5	0,356450
16,433667	0,5	0,292700
16,442000	0,5	0,203050
16,450333	0,5	0,140100
16,458667	0,5	0,077150
16,467000	0,5	0,040850
16,475333	0,5	0,000600
16,483667	0,5	0,009250
16,492000	0,5	0,013200
16,500333	0,5	0,030800
16,508667	0,5	0,034250
16,517000	0,5	0,043650
16,525333	0,5	0,032800
16,533667	0,5	0,020750
16,542000	0,5	0,008400
16,550333	0,5	-0,025000
16,558667	0,5	-0,041600
16,567000	0,5	-0,058050
16,575333	0,5	-0,079600
16,583667	0,5	-0,107550
16,592000	0,5	-0,123050
16,600333	0,5	-0,125500
16,608667	0,5	-0,113650
16,617000	0,5	-0,123500
16,625333	0,5	-0,118700
16,633667	0,5	-0,135600
16,642000	0,5	-0,138150
16,650333	0,5	-0,141300
16,658667	0,5	-0,123600
16,667000	0,5	-0,083850
16,675333	0,5	-0,012800
16,683667	0,5	0,093150
16,692000	0,5	0,210050
16,700333	0,5	0,310150
16,708667	0,5	0,419550
16,717000	0,5	0,475550
16,725333	0,5	0,498200
16,733667	0,5	0,503300
16,742000	0,5	0,484950
16,750333	0,5	0,469050
16,758667	0,5	0,411700
16,767000	0,5	0,326550
16,775333	0,5	0,223250
16,783667	0,5	0,133500
16,792000	0,5	0,050600
16,800333	0,5	-0,008450
16,808667	0,5	-0,058850
16,817000	0,5	-0,089600
16,825333	0,5	-0,102750
16,833667	0,5	-0,114650
16,842000	0,5	-0,145000
16,850333	0,5	-0,143750
16,858667	0,5	-0,151500
16,867000	0,5	-0,162100
16,875333	0,5	-0,182500
16,883667	0,5	-0,210100
16,892000	0,5	-0,215250
16,900333	0,5	-0,222100
16,908667	0,5	-0,229500
16,917000	0,5	-0,238600
16,925333	0,5	-0,248700
16,933667	0,5	-0,257050
16,942000	0,5	-0,259200
16,950333	0,5	-0,244900
16,958667	0,5	-0,213000
16,967000	0,5	-0,166950
16,975333	0,5	-0,068100
16,983667	0,5	0,037800
16,992000	0,5	0,161850
17,000333	0,5	0,304250
17,008667	0,5	0,442150
17,017000	0,5	0,565900
17,025333	0,5	0,682150
17,033667	0,5	0,798800
17,042000	0,5	0,917950
17,050333	0,5	1,035400
17,058667	0,5	1,128050
17,067000	0,5	1,202650
17,075333	0,5	1,264900
17,083667	0,5	1,309650
17,092000	0,5	1,343350
17,100333	0,5	1,381850
17,108667	0,5	1,404550
17,117000	0,5	1,440600
17,125333	0,5	1,479500
17,133667	0,5	1,510800
17,142000	0,5	1,537450
17,150333	0,5	1,568600
17,158667	0,5	1,571800
17,167000	0,5	1,539200
17,175333	0,5	1,451750
17,183667	0,5	1,368900
17,192000	0,5	1,270950
17,200333	0,5	1,166900
17,208667	0,5	1,066050
17,217000	0,5	1,002900
17,225333	0,5	0,972650
17,233667	0,5	1,006900
17,242000	0,5	1,112050
17,250333	0,5	1,298800
17,258667	0,5	1,565250
17,267000	0,5	1,862100
17,275333	0,5	2,174000
17,283667	0,5	2,399800
17,292000	0,5	2,569150
17,300333	0,5	2,603600
17,308667	0,5	2,538300
17,317000	0,5	2,337100
17,325333	0,5	2,036500
17,333667	0,5	1,730650
17,342000	0,5	1,435850
17,350333	0,5	1,434100
17,358667	0,5	0,975200
17,367000	0,5	0,836900
17,375333	0,5	0,741850
17,383667	0,5	0,678350
17,392000	0,5	0,637800
17,400333	0,5	0,609000
17,408667	0,5	0,583600
17,417000	0,5	0,571950
17,425333	0,5	0,549300
17,433667	0,5	0,517100
17,442000	0,5	0,494450
17,450333	0,5	0,457050
17,458667	0,5	0,406200
17,467000	0,5	0,347450
17,475333	0,5	0,269700
17,483667	0,5	0,235650
17,492000	0,5	0,196700
17,500333	0,5	0,191050
17,508667	0,5	0,199850
17,517000	0,5	0,229000
17,525333	0,5	0,250350
17,533667	0,5	0,269200
17,542000	0,5	0,273550
17,550333	0,5	0,246800
17,558667	0,5	0,216150
17,567000	0,5	0,168200
17,575333	0,5	0,089300
17,583667	0,5	0,015500
17,592000	0,5	-0,035750
17,600333	0,5	-0,081200
17,608667	0,5	-0,127750
17,617000	0,5	-0,180750
17,625333	0,5	-0,214050
17,633667	0,5	-0,231150
17,642000	0,5	-0,246650
17,650333	0,5	-0,288100
17,658667	0,5	-0,302300
17,667000	0,5	-0,329300
17,675333	0,5	-0,335900
17,683667	0,5	-0,346600
17,692000	0,5	-0,350250
17,700333	0,5	-0,362000
17,708667	0,5	-0,360050
17,717000	0,5	-0,329100
17,725333	0,5	-0,308450
17,733667	0,5	-0,245950
17,742000	0,5	-0,177550
17,750333	0,5	-0,124450
17,758667	0,5	-0,092550
17,767000	0,5	-0,064400
17,775333	0,5	-0,060800
17,783667	0,5	-0,049900
17,792000	0,5	-0,078350
17,800333	0,5	-0,108850
17,808667	0,5	-0,154350
17,817000	0,5	-0,179950
17,825333	0,5	-0,217650
17,833667	0,5	-0,229050
17,842000	0,5	-0,264050
17,850333	0,5	-0,280100
17,858667	0,5	-0,295400
17,867000	0,5	-0,319050
17,875333	0,5	-0,333050
17,883667	0,5	-0,330700
17,892000	0,5	-0,338350
17,900333	0,5	-0,339000
17,908667	0,5	-0,357450
17,917000	0,5	-0,361900
17,925333	0,5	-0,332850
17,933667	0,5	-0,303300
17,942000	0,5	-0,252700
17,950333	0,5	-0,208850
17,958667	0,5	-0,166700
17,967000	0,5	-0,136450
17,975333	0,5	-0,115650
17,983667	0,5	-0,127950
17,992000	0,5	-0,157350
18,000333	0,5	-0,195700
18,008667	0,5	-0,230000
18,017000	0,5	-0,282650
18,025333	0,5	-0,309600
18,033667	0,5	-0,335550
18,042000	0,5	-0,364500
18,050333	0,5	-0,398450
18,058667	0,5	-0,451450
18,067000	0,5	-0,466100
18,075333	0,5	-0,474950
18,083667	0,5	-0,483800
18,092000	0,5	-0,489000
18,100333	0,5	-0,489900
18,108667	0,5	-0,486450
18,117000	0,5	-0,464550
18,125333	0,5	-0,440350
18,133667	0,5	-0,393300
18,142000	0,5	-0,365300
18,150333	0,5	-0,313700
18,158667	0,5	-0,294650
18,167000	0,5	-0,309250
18,175333	0,5	-0,309200
18,183667	0,5	-0,328700
18,192000	0,5	-0,366800
18,200333	0,5	-0,406050
18,208667	0,5	-0,456400
18,217000	0,5	-0,470200
18,225333	0,5	-0,478800
18,233667	0,5	-0,506700
18,242000	0,5	-0,529700
18,250333	0,5	-0,561600
18,258667	0,5	-0,591250
18,267000	0,5	-0,618200
18,275333	0,5	-0,619800
18,283667	0,5	-0,633550
18,292000	0,5	-0,628550
18,300333	0,5	-0,616750
18,308667	0,5	-0,595100
18,317000	0,5	-0,582150
18,325333	0,5	-0,551100
18,333667	0,5	-0,552250
18,342000	0,5	-0,570600
18,350333	0,5	-0,609900
18,358667	0,5	-0,649050
18,367000	0,5	-0,672600
18,375333	0,5	-0,694050
18,383667	0,5	-0,714000
18,392000	0,5	-0,726600
18,400333	0,5	-0,735450
18,408667	0,5	-0,748200
18,417000	0,5	-0,754600
18,425333	0,5	-0,768900
18,433667	0,5	-0,769950
18,442000	0,5	-0,775150
18,450333	0,5	-0,767850
18,458667	0,5	-0,796300
18,467000	0,5	-0,783250
18,475333	0,5	-0,780300
18,483667	0,5	-0,767400
18,492000	0,5	-0,773700
18,500333	0,5	-0,797900
18,508667	0,5	-0,803800
18,517000	0,5	-0,801700
18,525333	0,5	-0,827750
18,533667	0,5	-0,852100
18,542000	0,5	-0,875350
18,550333	0,5	-0,895650
18,558667	0,5	-0,910850
18,567000	0,5	-0,931950
18,575333	0,5	-0,933700
18,583667	0,5	-0,943150
18,592000	0,5	-0,934300
18,600333	0,5	-0,945050
18,608667	0,5	-0,963950
18,617000	0,5	-0,948200
18,625333	0,5	-0,930550
18,633667	0,5	-0,916900
18,642000	0,5	-0,893500
18,650333	0,5	-0,898800
18,658667	0,5	-0,879700
18,667000	0,5	-0,893700
18,675333	0,5	-0,897100
18,683667	0,5	-0,909600
18,692000	0,5	-0,910700
18,700333	0,5	-0,912550
18,708667	0,5	-0,903150
18,717000	0,5	-0,898800
18,725333	0,5	-0,904300
18,733667	0,5	-0,892700
18,742000	0,5	-0,882150
18,750333	0,5	-0,859200
18,758667	0,5	-0,834850
18,767000	0,5	-0,795650
18,775333	0,5	-0,779550
18,783667	0,5	-0,772100
18,792000	0,5	-0,791000
18,800333	0,5	-0,799050
18,808667	0,5	-0,809900
18,817000	0,5	-0,817950
18,825333	0,5	-0,840700
18,833667	0,5	-0,854050
18,842000	0,5	-0,872250
18,850333	0,5	-0,879450
18,858667	0,5	-0,884750
18,867000	0,5	-0,885100
18,875333	0,5	-0,878700
18,883667	0,5	-0,872350
18,892000	0,5	-0,852000
18,900333	0,5	-0,854650
18,908667	0,5	-0,861350
18,917000	0,5	-0,856900
18,925333	0,5	-0,883600
18,933667	0,5	-0,928800
18,942000	0,5	-0,973750
18,950333	0,5	-1,003350
18,958667	0,5	-1,004600
18,967000	0,5	-1,039000
18,975333	0,5	-1,044350
18,983667	0,5	-1,054450
18,992000	0,5	-1,056050
19,000333	0,5	-1,058750
19,008667	0,5	-1,055500
19,017000	0,5	-1,052750
19,025333	0,5	-1,054650
19,033667	0,5	-1,046350
19,042000	0,5	-1,067100
19,050333	0,5	-1,077150
19,058667	0,5	-1,076150
19,067000	0,5	-1,094500
19,075333	0,5	-1,118700
19,083667	0,5	-1,151200
19,092000	0,5	-1,171000
19,100333	0,5	-1,177950
19,108667	0,5	-1,183250
19,117000	0,5	-1,183100
19,125333	0,5	-1,195400
19,133667	0,5	-1,195350
19,142000	0,5	-1,227150
19,150333	0,5	-1,237600
19,158667	0,5	-1,256350
19,167000	0,5	-1,275300
19,175333	0,5	-1,292400
19,183667	0,5	-1,296000
19,192000	0,5	-1,330150
19,200333	0,5	-1,326750
19,208667	0,5	-1,323200
19,217000	0,5	-1,332350
19,225333	0,5	-1,339800
19,233667	0,5	-1,379000
19,242000	0,5	-1,378600
19,250333	0,5	-1,390600
19,258667	0,5	-1,395300
19,267000	0,5	-1,408900
19,275333	0,5	-1,415150
19,283667	0,5	-1,430750
19,292000	0,5	-1,430200
19,300333	0,5	-1,422400
19,308667	0,5	-1,429200
19,317000	0,5	-1,444500
19,325333	0,5	-1,448450
19,333667	0,5	-1,458850
19,342000	0,5	-1,478250
19,350333	0,5	-1,475900
19,358667	0,5	-1,479150
19,367000	0,5	-1,489300
19,375333	0,5	-1,522300
19,383667	0,5	-1,554550
19,392000	0,5	-1,546150
19,400333	0,5	-1,535150
19,408667	0,5	-1,547800
19,417000	0,5	-1,542400
19,425333	0,5	-1,550400
19,433667	0,5	-1,550500
19,442000	0,5	-1,562750
19,450333	0,5	-1,563400
19,458667	0,5	-1,576800
19,467000	0,5	-1,575900
19,475333	0,5	-1,567750
19,483667	0,5	-1,578500
19,492000	0,5	-1,591700
19,500333	0,5	-1,597000
19,508667	0,5	-1,601900
19,517000	0,5	-1,627250
19,525333	0,5	-1,658950
19,533667	0,5	-1,666550
19,542000	0,5	-1,655450
19,550333	0,5	-1,666900
19,558667	0,5	-1,675150
19,567000	0,5	-1,691600
19,575333	0,5	-1,699350
19,583667	0,5	-1,721800
19,592000	0,5	-1,727600
19,600333	0,5	-1,728150
19,608667	0,5	-1,735150
19,617000	0,5	-1,734850
19,625333	0,5	-1,726100
19,633667	0,5	-1,756600
19,642000	0,5	-1,744250
19,650333	0,5	-1,746650
19,658667	0,5	-1,753700
19,667000	0,5	-1,781550
19,675333	0,5	-1,813050
19,683667	0,5	-1,816300
19,692000	0,5	-1,826650
19,700333	0,5	-1,834300
19,708667	0,5	-1,852000
19,717000	0,5	-1,855800
19,725333	0,5	-1,872150
19,733667	0,5	-1,880950
19,742000	0,5	-1,890200
19,750333	0,5	-1,904800
19,758667	0,5	-1,933050
19,767000	0,5	-1,934200
19,775333	0,5	-1,943400
19,783667	0,5	-1,963250
19,792000	0,5	-1,965950
19,800333	0,5	-1,981200
19,808667	0,5	-2,001650
19,817000	0,5	-2,031550
19,825333	0,5	-2,059450
19,833667	0,5	-2,068050
19,842000	0,5	-2,070850
19,850333	0,5	-2,076750
19,858667	0,5	-2,088350
19,867000	0,5	-2,093350
19,875333	0,5	-2,105400
19,883667	0,5	-2,114750
19,892000	0,5	-2,119350
19,900333	0,5	-2,131450
19,908667	0,5	-2,133800
19,917000	0,5	-2,121450
19,925333	0,5	-2,131800
19,933667	0,5	-2,140550
19,942000	0,5	-2,138900
19,950333	0,5	-2,153250
19,958667	0,5	-2,167150
19,967000	0,5	-2,201000
19,975333	0,5	-2,224850
19,983667	0,5	-2,229150
19,992000	0,5	-2,249450
20,000333	0,5	-2,259750
20,008667	0,5	-2,278100
20,017000	0,5	-2,291500
20,025333	0,5	-2,311100
20,033667	0,5	-2,315050
20,042000	0,5	-2,336850
20,050333	0,5	-2,353250
20,058667	0,5	-2,357600
20,067000	0,5	-2,360500
20,075333	0,5	-2,381050
20,083667	0,5	-2,391600
20,092000	0,5	-2,412850
20,100333	0,5	-2,423300
20,108667	0,5	-2,451800
20,117000	0,5	-2,478400
20,125333	0,5	-2,487500
20,133667	0,5	-2,495000
20,142000	0,5	-2,497350
20,150333	0,5	-2,498650
20,158667	0,5	-2,496050
20,167000	0,5	-2,505650
20,175333	0,5	-2,504700
20,183667	0,5	-2,503600
20,192000	0,5	-2,508900
20,200333	0,5	-2,518100
20,208667	0,5	-2,507350
20,217000	0,5	-2,531100
20,225333	0,5	-2,540100
20,233667	0,5	-2,549050
20,242000	0,5	-2,564900
20,250333	0,5	-2,587200
20,258667	0,5	-2,640050
20,267000	0,5	-2,655250
20,275333	0,5	-2,657400
20,283667	0,5	-2,662050
20,292000	0,5	-2,687600
20,300333	0,5	-2,706600
20,308667	0,5	-2,718250
20,317000	0,5	-2,737200
20,325333	0,5	-2,758900
20,333667	0,5	-2,780500
20,342000	0,5	-2,809400
20,350333	0,5	-2,819900
20,358667	0,5	-2,837800
20,367000	0,5	-2,872750
20,375333	0,5	-2,895700
20,383667	0,5	-2,907300
20,392000	0,5	-2,939650
20,400333	0,5	-2,970150
20,408667	0,5	-3,013300
20,417000	0,5	-3,024650
20,425333	0,5	-3,045500
20,433667	0,5	-3,062350
20,442000	0,5	-3,085000
20,450333	0,5	-3,092350
20,458667	0,5	-3,118650
20,467000	0,5	-3,131600
20,475333	0,5	-3,153750
20,483667	0,5	-3,181800
20,492000	0,5	-3,201850
20,500333	0,5	-3,188900
20,508667	0,5	-3,179300
20,517000	0,5	-3,189500
20,525333	0,5	-3,159150
20,533667	0,5	-3,167800
20,542000	0,5	-3,189400
20,550333	0,5	-3,245150
20,558667	0,5	-3,291000
20,567000	0,5	-3,320100
20,575333	0,5	-3,362150
20,583667	0,5	-3,418600
20,592000	0,5	-3,461000
20,600333	0,5	-3,505850
20,608667	0,5	-3,548100
20,617000	0,5	-3,578800
20,625333	0,5	-3,617300
20,633667	0,5	-3,646750
20,642000	0,5	-3,670400
20,650333	0,5	-3,676750
20,658667	0,5	-3,709950
20,667000	0,5	-3,736300
20,675333	0,5	-3,755500
20,683667	0,5	-3,750200
20,692000	0,5	-3,761200
20,700333	0,5	-3,771350
20,708667	0,5	-3,748650
20,717000	0,5	-3,733250
20,725333	0,5	-3,763050
20,733667	0,5	-3,808600
20,742000	0,5	-3,878500
20,750333	0,5	-3,948550
20,758667	0,5	-4,032100
20,767000	0,5	-4,099500
20,775333	0,5	-4,163550
20,783667	0,5	-4,239150
20,792000	0,5	-4,260700
20,800333	0,5	-4,299750
20,808667	0,5	-4,359150
20,817000	0,5	-4,403350
20,825333	0,5	-4,450000
20,833667	0,5	-4,497250
20,842000	0,5	-4,552800
20,850333	0,5	-4,616300
20,858667	0,5	-4,645750
20,867000	0,5	-4,679050
20,875333	0,5	-4,701250
20,883667	0,5	-4,726550
20,892000	0,5	-4,749850
20,900333	0,5	-4,799600
20,908667	0,5	-4,854600
20,917000	0,5	-4,894050
20,925333	0,5	-4,943750
20,933667	0,5	-4,976700
20,942000	0,5	-4,995100
20,950333	0,5	-5,021250
20,958667	0,5	-5,071200
20,967000	0,5	-5,099000
20,975333	0,5	-5,156600
20,983667	0,5	-5,206300
20,992000	0,5	-5,265150
21,000333	0,5	-5,312000
21,008667	0,5	-5,343350
21,017000	0,5	-5,366500
21,025333	0,5	-5,403350
21,033667	0,5	-5,431300
21,042000	0,5	-5,464200
21,050333	0,5	-5,487650
21,058667	0,5	-5,515250
21,067000	0,5	-5,542100
21,075333	0,5	-5,575600
21,083667	0,5	-5,572800
21,092000	0,5	-5,592850
21,100333	0,5	-5,627700
21,108667	0,5	-5,659900
21,117000	0,5	-5,706300
21,125333	0,5	-5,734400
21,133667	0,5	-5,793050
21,142000	0,5	-5,841750
21,150333	0,5	-5,872550
21,158667	0,5	-5,888300
21,167000	0,5	-5,916000
21,175333	0,5	-5,933650
21,183667	0,5	-5,960400
21,192000	0,5	-5,973950
21,200333	0,5	-5,997250
21,208667	0,5	-6,021600
21,217000	0,5	-6,037400
21,225333	0,5	-6,053950
21,233667	0,5	-6,037400
21,242000	0,5	-6,047400
21,250333	0,5	-6,058050
21,258667	0,5	-6,078100
21,267000	0,5	-6,085600
21,275333	0,5	-6,110150
21,283667	0,5	-6,150650
21,292000	0,5	-6,172400
21,300333	0,5	-6,179150
21,308667	0,5	-6,219500
21,317000	0,5	-6,252400
21,325333	0,5	-6,277300
21,333667	0,5	-6,290000
21,342000	0,5	-6,317850
21,350333	0,5	-6,335400
21,358667	0,5	-6,363350
21,367000	0,5	-6,392550
21,375333	0,5	-6,386650
21,383667	0,5	-6,386950
21,392000	0,5	-6,404700
21,400333	0,5	-6,422450
21,408667	0,5	-6,434650
21,417000	0,5	-6,486750
21,425333	0,5	-6,514100
21,433667	0,5	-6,546200
21,442000	0,5	-6,552350
21,450333	0,5	-6,588050
21,458667	0,5	-6,594550
21,467000	0,5	-6,626600
21,475333	0,5	-6,637750
21,483667	0,5	-6,662950
21,492000	0,5	-6,676450
21,500333	0,5	-6,686700
21,508667	0,5	-6,712300
21,517000	0,5	-6,733700
21,525333	0,5	-6,711100
21,533667	0,5	-6,715500
21,542000	0,5	-6,739850
21,550333	0,5	-6,752200
21,558667	0,5	-6,774850
21,567000	0,5	-6,808000
21,575333	0,5	-6,854850
21,583667	0,5	-6,863400
21,592000	0,5	-6,876000
21,600333	0,5	-6,880650
21,608667	0,5	-6,896000
21,617000	0,5	-6,893700
21,625333	0,5	-6,907150
21,633667	0,5	-6,910700
21,642000	0,5	-6,906050
21,650333	0,5	-6,896800
21,658667	0,5	-6,890850
21,667000	0,5	-6,877050
21,675333	0,5	-6,873900
21,683667	0,5	-6,898750
21,692000	0,5	-6,926400
21,700333	0,5	-6,963750
21,708667	0,5	-6,982600
21,717000	0,5	-7,018650
21,725333	0,5	-7,051150
21,733667	0,5	-7,050500
21,742000	0,5	-7,055450
21,750333	0,5	-7,073000
21,758667	0,5	-7,080200
21,767000	0,5	-7,093700
21,775333	0,5	-7,103300
21,783667	0,5	-7,104850
21,792000	0,5	-7,108100
21,800333	0,5	-7,107950
21,808667	0,5	-7,128000
21,817000	0,5	-7,090050
21,825333	0,5	-7,083700
21,833667	0,5	-7,086900
21,842000	0,5	-7,093050
21,850333	0,5	-7,091700
21,858667	0,5	-7,112500
21,867000	0,5	-7,127750
21,875333	0,5	-7,138600
21,883667	0,5	-7,136000
21,892000	0,5	-7,141100
21,900333	0,5	-7,129200
21,908667	0,5	-7,097950
21,917000	0,5	-7,043450
21,925333	0,5	-7,004500
21,933667	0,5	-6,964550
21,942000	0,5	-6,944500
21,950333	0,5	-6,978500
21,958667	0,5	-7,012700
21,967000	0,5	-7,055250
21,975333	0,5	-7,116650
21,983667	0,5	-7,153800
21,992000	0,5	-7,197600
22,000333	0,5	-7,236900
22,008667	0,5	-7,303950
22,017000	0,5	-7,354900
22,025333	0,5	-7,394150
22,033667	0,5	-7,425400
22,042000	0,5	-7,444450
22,050333	0,5	-7,469100
22,058667	0,5	-7,491400
22,067000	0,5	-7,520850
22,075333	0,5	-7,541250
22,083667	0,5	-7,559050
22,092000	0,5	-7,592900
22,100333	0,5	-7,601450
22,108667	0,5	-7,623700
22,117000	0,5	-7,646650
22,125333	0,5	-7,660700
22,133667	0,5	-7,677150
22,142000	0,5	-7,703850
22,150333	0,5	-7,720600
22,158667	0,5	-7,741900
22,167000	0,5	-7,774800
22,175333	0,5	-7,782600
22,183667	0,5	-7,782300
22,192000	0,5	-7,785250
22,200333	0,5	-7,798300
22,208667	0,5	-7,807550
22,217000	0,5	-7,812150
22,225333	0,5	-7,820950
22,233667	0,5	-7,837200
22,242000	0,5	-7,828300
22,250333	0,5	-7,831500
22,258667	0,5	-7,831950
22,267000	0,5	-7,854000
22,275333	0,5	-7,828200
22,283667	0,5	-7,819100
22,292000	0,5	-7,814800
22,300333	0,5	-7,824600
22,308667	0,5	-7,834250
22,317000	0,5	-7,822400
22,325333	0,5	-7,794500
22,333667	0,5	-7,794400
22,342000	0,5	-7,743550
22,350333	0,5	-7,665850
22,358667	0,5	-7,555150
22,367000	0,5	-7,464600
22,375333	0,5	-7,425400
22,383667	0,5	-7,433000
22,392000	0,5	-7,499700
22,400333	0,5	-7,565500
22,408667	0,5	-7,654950
22,417000	0,5	-7,667300
22,425333	0,5	-7,684800
22,433667	0,5	-7,706350
22,442000	0,5	-7,736200
22,450333	0,5	-7,773650
22,458667	0,5	-7,772250
22,467000	0,5	-7,774450
22,475333	0,5	-7,775950
22,483667	0,5	-7,770800
22,492000	0,5	-7,769350
22,500333	0,5	-7,765650
22,508667	0,5	-7,757850
22,517000	0,5	-7,738100
22,525333	0,5	-7,712600
22,533667	0,5	-7,709400
22,542000	0,5	-7,705600
22,550333	0,5	-7,696650
22,558667	0,5	-7,667750
22,567000	0,5	-7,622050
22,575333	0,5	-7,590800
22,583667	0,5	-7,588500
22,592000	0,5	-7,585400
22,600333	0,5	-7,607400
22,608667	0,5	-7,585150
22,617000	0,5	-7,578700
22,625333	0,5	-7,562800
22,633667	0,5	-7,564100
22,642000	0,5	-7,553150
22,650333	0,5	-7,549800
22,658667	0,5	-7,543750
22,667000	0,5	-7,533200
22,675333	0,5	-7,530150
22,683667	0,5	-7,536750
22,692000	0,5	-7,609950
22,700333	0,5	-7,594000
22,708667	0,5	-7,570200
22,717000	0,5	-7,557050
22,725333	0,5	-7,565550
22,733667	0,5	-7,585250
22,742000	0,5	-7,608250
22,750333	0,5	-7,615200
22,758667	0,5	-7,613100
22,767000	0,5	-7,626300
22,775333	0,5	-7,638450
22,783667	0,5	-7,645750
22,792000	0,5	-7,661300
22,800333	0,5	-7,665100
22,808667	0,5	-7,685800
22,817000	0,5	-7,706450
22,825333	0,5	-7,727150
22,833667	0,5	-7,809900
22,842000	0,5	-7,854500
22,850333	0,5	-7,888100
22,858667	0,5	-7,878800
22,867000	0,5	-7,907750
22,875333	0,5	-7,952800
22,883667	0,5	-7,981350
22,892000	0,5	-8,025300
22,900333	0,5	-8,061550
22,908667	0,5	-8,097600
22,917000	0,5	-8,130150
22,925333	0,5	-8,149400
22,933667	0,5	-8,158900
22,942000	0,5	-8,172400
22,950333	0,5	-8,183150
22,958667	0,5	-8,182550
22,967000	0,5	-8,172250
22,975333	0,5	-8,171150
22,983667	0,5	-8,158050
22,992000	0,5	-8,152650
23,000333	0,5	-8,136900
23,008667	0,5	-8,160200
23,017000	0,5	-8,145300
23,025333	0,5	-8,124450
23,033667	0,5	-8,091600
23,042000	0,5	-8,057600
23,050333	0,5	-8,051300
23,058667	0,5	-8,016600
23,067000	0,5	-7,983050
23,075333	0,5	-7,928050
23,083667	0,5	-7,876900
23,092000	0,5	-7,803250
23,100333	0,5	-7,751600
23,108667	0,5	-7,678700
23,117000	0,5	-7,599500
23,125333	0,5	-7,502350
23,133667	0,5	-7,429950
23,142000	0,5	-7,334700
23,150333	0,5	-7,295900
23,158667	0,5	-7,251300
23,167000	0,5	-7,160800
23,175333	0,5	-7,093800
23,183667	0,5	-6,996900
23,192000	0,5	-6,925600
23,200333	0,5	-6,853250
23,208667	0,5	-6,789300
23,217000	0,5	-6,697700
23,225333	0,5	-6,632300
23,233667	0,5	-6,521500
23,242000	0,5	-6,446400
23,250333	0,5	-6,349050
23,258667	0,5	-6,254250
23,267000	0,5	-6,154500
23,275333	0,5	-6,024750
23,283667	0,5	-5,949600
23,292000	0,5	-5,824350
23,300333	0,5	-5,774550
23,308667	0,5	-5,710000
23,317000	0,5	-5,627400
23,325333	0,5	-5,539350
23,333667	0,5	-5,449700
23,342000	0,5	-5,383000
23,350333	0,5	-5,322100
23,358667	0,5	-5,243050
23,367000	0,5	-5,174700
23,375333	0,5	-5,107900
23,383667	0,5	-5,031050
23,392000	0,5	-4,949750
23,400333	0,5	-4,878950
23,408667	0,5	-4,796400
23,417000	0,5	-4,698900
23,425333	0,5	-4,678900
23,433667	0,5	-4,599850
23,442000	0,5	-4,473000
23,450333	0,5	-4,409050
23,458667	0,5	-4,368950
23,467000	0,5	-4,300800
23,475333	0,5	-4,238800
23,483667	0,5	-4,182550
23,492000	0,5	-4,142100
23,500333	0,5	-4,088650
23,508667	0,5	-4,046400
23,517000	0,5	-3,995100
23,525333	0,5	-3,951250
23,533667	0,5	-3,893600
23,542000	0,5	-3,849250
23,550333	0,5	-3,805100
23,558667	0,5	-3,749600
23,567000	0,5	-3,732950
23,575333	0,5	-3,770750
23,583667	0,5	-3,710850
23,592000	0,5	-3,600950
23,600333	0,5	-3,549250
23,608667	0,5	-3,514400
23,617000	0,5	-3,475350
23,625333	0,5	-3,437800
23,633667	0,5	-3,409650
23,642000	0,5	-3,379850
23,650333	0,5	-3,349100
23,658667	0,5	-3,316550
23,667000	0,5	-3,288750
23,675333	0,5	-3,254350
23,683667	0,5	-3,224300
23,692000	0,5	-3,191950
23,700333	0,5	-3,157200
23,708667	0,5	-3,124650
23,717000	0,5	-3,247400
23,725333	0,5	-3,208700
23,733667	0,5	-3,168700
23,742000	0,5	-3,080000
23,750333	0,5	-3,038000
23,758667	0,5	-3,011300
23,767000	0,5	-2,985850
23,775333	0,5	-2,969950
23,783667	0,5	-2,941100
23,792000	0,5	-2,914850
23,800333	0,5	-2,885750
23,808667	0,5	-2,865600
23,817000	0,5	-2,839350
23,825333	0,5	-2,806400
23,833667	0,5	-2,786950
23,842000	0,5	-2,752450
23,850333	0,5	-2,724100
23,858667	0,5	-2,716150
23,867000	0,5	-2,864650
23,875333	0,5	-2,799800
23,883667	0,5	-2,735400
23,892000	0,5	-2,653450
23,900333	0,5	-2,612600
23,908667	0,5	-2,577750
23,917000	0,5	-2,559750
23,925333	0,5	-2,552000
23,933667	0,5	-2,523100
23,942000	0,5	-2,503700
23,950333	0,5	-2,477100
23,958667	0,5	-2,453650
23,967000	0,5	-2,428250
23,975333	0,5	-2,399800
23,983667	0,5	-2,373750
23,992000	0,5	-2,354550
24,000333	0,5	-2,327100
24,008667	0,5	-2,439950
24,017000	0,5	-2,455900
24,025333	0,5	-2,423200
24,033667	0,5	-2,346550
24,042000	0,5	-2,289800
24,050333	0,5	-2,248300
24,058667	0,5	-2,227750
24,067000	0,5	-2,207350
24,075333	0,5	-2,186350
24,083667	0,5	-2,143800
24,092000	0,5	-2,113000
24,100333	0,5	-2,079550
24,108667	0,5	-2,052700
24,117000	0,5	-2,022650
24,125333	0,5	-2,000850
24,133667	0,5	-1,966600
24,142000	0,5	-1,941300
24,150333	0,5	-1,926050
24,158667	0,5	-2,050150
24,167000	0,5	-2,027900
24,175333	0,5	-1,977150
24,183667	0,5	-1,916350
24,192000	0,5	-1,873150
24,200333	0,5	-1,850300
24,208667	0,5	-1,824650
24,217000	0,5	-1,824250
24,225333	0,5	-1,799800
24,233667	0,5	-1,777950
24,242000	0,5	-1,757050
24,250333	0,5	-1,734850
24,258667	0,5	-1,698500
24,267000	0,5	-1,678250
24,275333	0,5	-1,651800
24,283667	0,5	-1,618800
24,292000	0,5	-1,593250
24,300333	0,5	-1,591250
24,308667	0,5	-1,685700
24,317000	0,5	-1,647850
24,325333	0,5	-1,590650
24,333667	0,5	-1,540900
24,342000	0,5	-1,517800
24,350333	0,5	-1,488000
24,358667	0,5	-1,486000
24,367000	0,5	-1,470950
24,375333	0,5	-1,457250
24,383667	0,5	-1,425450
24,392000	0,5	-1,415200
24,400333	0,5	-1,392350
24,408667	0,5	-1,370700
24,417000	0,5	-1,361450
24,425333	0,5	-1,343200
24,433667	0,5	-1,323750
24,442000	0,5	-1,309400
24,450333	0,5	-1,375300
24,458667	0,5	-1,372650
24,467000	0,5	-1,357750
24,475333	0,5	-1,307950
24,483667	0,5	-1,274050
24,492000	0,5	-1,250900
24,500333	0,5	-1,234500
24,508667	0,5	-1,234100
24,517000	0,5	-1,217350
24,525333	0,5	-1,191400
24,533667	0,5	-1,176900
24,542000	0,5	-1,164550
24,550333	0,5	-1,144450
24,558667	0,5	-1,125750
24,567000	0,5	-1,119100
24,575333	0,5	-1,097950
24,583667	0,5	-1,080200
24,592000	0,5	-1,069900
24,600333	0,5	-1,132000
24,608667	0,5	-1,116450
24,617000	0,5	-1,101550
24,625333	0,5	-1,071400
24,633667	0,5	-1,045000
24,642000	0,5	-1,037850
24,650333	0,5	-1,040900
24,658667	0,5	-1,048500
24,667000	0,5	-1,024800
24,675333	0,5	-1,014150
24,683667	0,5	-0,998950
24,692000	0,5	-0,992700
24,700333	0,5	-0,977350
24,708667	0,5	-0,969900
24,717000	0,5	-0,958150
24,725333	0,5	-0,942050
24,733667	0,5	-0,927900
24,742000	0,5	-0,945750
24,750333	0,5	-0,968550
24,758667	0,5	-0,956300
24,767000	0,5	-0,924950
24,775333	0,5	-0,907050
24,783667	0,5	-0,891150
24,792000	0,5	-0,883000
24,800333	0,5	-0,877300
24,808667	0,5	-0,878850
24,817000	0,5	-0,869000
24,825333	0,5	-0,859600
24,833667	0,5	-0,855300
24,842000	0,5	-0,852800
24,850333	0,5	-0,849500
24,858667	0,5	-0,844450
24,867000	0,5	-0,838450
24,875333	0,5	-0,828850
24,883667	0,5	-0,826150
24,892000	0,5	-0,853150
24,900333	0,5	-0,839850
24,908667	0,5	-0,836350
24,917000	0,5	-0,815600
24,925333	0,5	-0,801950
24,933667	0,5	-0,789150
24,942000	0,5	-0,785800
24,950333	0,5	-0,786700
24,958667	0,5	-0,780700
24,967000	0,5	-0,767250
24,975333	0,5	-0,762550
24,983667	0,5	-0,756350
24,992000	0,5	-0,753100
25,000333	0,5	-0,740900
25,008667	0,5	-0,742100
25,017000	0,5	-0,738100
25,025333	0,5	-0,733150
25,033667	0,5	-0,728950
25,042000	0,5	-0,752350
25,050333	0,5	-0,739700
25,058667	0,5	-0,739550
25,067000	0,5	-0,730100
25,075333	0,5	-0,726550
25,083667	0,5	-0,722150
25,092000	0,5	-0,724850
25,100333	0,5	-0,725950
25,108667	0,5	-0,715900
25,117000	0,5	-0,712650
25,125333	0,5	-0,710500
25,133667	0,5	-0,701500
25,142000	0,5	-0,696050
25,150333	0,5	-0,695350
25,158667	0,5	-0,688450
25,167000	0,5	-0,682850
25,175333	0,5	-0,676450
25,183667	0,5	-0,681950
25,192000	0,5	-0,677850
25,200333	0,5	-0,671100
25,208667	0,5	-0,665950
25,217000	0,5	-0,669400
25,225333	0,5	-0,666450
25,233667	0,5	-0,670400
25,242000	0,5	-0,666000
25,250333	0,5	-0,674850
25,258667	0,5	-0,675750
25,267000	0,5	-0,673150
25,275333	0,5	-0,670100
25,283667	0,5	-0,671000
25,292000	0,5	-0,667650
25,300333	0,5	-0,664050
25,308667	0,5	-0,662050
25,317000	0,5	-0,657950
25,325333	0,5	-0,655750
25,333667	0,5	-0,648200
25,342000	0,5	-0,643200
25,350333	0,5	-0,635650
25,358667	0,5	-0,635700
25,367000	0,5	-0,633200
25,375333	0,5	-0,633950
25,383667	0,5	-0,630000
25,392000	0,5	-0,626100
25,400333	0,5	-0,625950
25,408667	0,5	-0,627200
25,417000	0,5	-0,627350
25,425333	0,5	-0,628850
25,433667	0,5	-0,630750
25,442000	0,5	-0,630450
25,450333	0,5	-0,637800
25,458667	0,5	-0,634300
25,467000	0,5	-0,634700
25,475333	0,5	-0,631900
25,483667	0,5	-0,620750
25,492000	0,5	-0,623850
25,500333	0,5	-0,619950
25,508667	0,5	-0,623550
25,517000	0,5	-0,625300
25,525333	0,5	-0,621200
25,533667	0,5	-0,618300
25,542000	0,5	-0,613750
25,550333	0,5	-0,611350
25,558667	0,5	-0,611000
25,567000	0,5	-0,605300
25,575333	0,5	-0,604550
25,583667	0,5	-0,608400
25,592000	0,5	-0,609000
25,600333	0,5	-0,609250
25,608667	0,5	-0,605650
25,617000	0,5	-0,608750
25,625333	0,5	-0,607500
25,633667	0,5	-0,601550
25,642000	0,5	-0,599500
25,650333	0,5	-0,596800
25,658667	0,5	-0,608900
25,667000	0,5	-0,606500
25,675333	0,5	-0,607400
25,683667	0,5	-0,604900
25,692000	0,5	-0,598300
25,700333	0,5	-0,601450
25,708667	0,5	-0,598000
25,717000	0,5	-0,597800
25,725333	0,5	-0,598450
25,733667	0,5	-0,600150
25,742000	0,5	-0,591350
25,750333	0,5	-0,593600
25,758667	0,5	-0,589600
25,767000	0,5	-0,584550
25,775333	0,5	-0,577500
25,783667	0,5	-0,577800
25,792000	0,5	-0,565750
25,800333	0,5	-0,578950
25,808667	0,5	-0,577400
25,817000	0,5	-0,579800
25,825333	0,5	-0,576550
25,833667	0,5	-0,566900
25,842000	0,5	-0,569150
25,850333	0,5	-0,569300
25,858667	0,5	-0,569750
25,867000	0,5	-0,567800
25,875333	0,5	-0,567950
25,883667	0,5	-0,561950
25,892000	0,5	-0,564300
25,900333	0,5	-0,558050
25,908667	0,5	-0,557050
25,917000	0,5	-0,553600
25,925333	0,5	-0,538150
25,933667	0,5	-0,536700
25,942000	0,5	-0,524700
25,950333	0,5	-0,533850
25,958667	0,5	-0,533850
25,967000	0,5	-0,531400
25,975333	0,5	-0,527600
25,983667	0,5	-0,509200
25,992000	0,5	-0,510100
26,000333	0,5	-0,520050
