File Path	chrom://chromeleon01/ikbm_chromeleon/2022/ICS-5000/ED1/Esteban/20220427_Cell_Amandas_mutants.seq/257.smp/ED_1.channel/ED_1.chm
Channel	ED_1

Injection Information:
Data Vault	ikbm_chromeleon
Injection	EG_PASC_CelS2
Injection Number	13
Position	RA7
Comment	
Processing Method	Stop sequence after Cell Death
Instrument Method	ICS5000_PA200_FullNative_Ox_26min_ED1
Type	Unknown
Status	Finished
Injection Date	27.04.2022
Injection Time	18:36:21
Injection Volume (µl)	5,0
Dilution Factor	1,0000
Weight	1,0000

Chromatogram Data Information:
Time Min. (min)	0,000333
Time Max. (min)	26,000333
Data Points	3121
Detector	EDet1
Generating Data System	Chromeleon 7.2.9.11323
Exporting Data System	Chromeleon 7.2.9.0
Operator	Instrument Controller
Signal Quantity	
Signal Unit	nC
Signal Min.	-6,821150
Signal Max.	1 659,120475
Channel	ED_1
Driver Name	DC-5000
Channel Type	Evaluation
Min. Step (s)	0,5
Max. Step (s)	0,5
Average Step (s)	0,5

Signal Parameter Information:
Signal Info	

Chromatogram Data:
Time (min)	Step (s)	Value (nC)
0,000333	n.a.	-0,093700
0,008667	0,5	-0,107050
0,017000	0,5	-0,106100
0,025333	0,5	-0,091550
0,033667	0,5	-0,026750
0,042000	0,5	0,014850
0,050333	0,5	0,003400
0,058667	0,5	-0,020750
0,067000	0,5	-0,000850
0,075333	0,5	-0,008900
0,083667	0,5	-0,010000
0,092000	0,5	-0,017900
0,100333	0,5	-0,019750
0,108667	0,5	-0,025650
0,117000	0,5	-0,016800
0,125333	0,5	0,013500
0,133667	0,5	0,006900
0,142000	0,5	0,012850
0,150333	0,5	0,008800
0,158667	0,5	-0,019500
0,167000	0,5	-0,025050
0,175333	0,5	-0,009800
0,183667	0,5	0,016100
0,192000	0,5	0,048800
0,200333	0,5	0,013200
0,208667	0,5	0,020400
0,217000	0,5	0,006550
0,225333	0,5	0,016650
0,233667	0,5	0,020000
0,242000	0,5	0,029150
0,250333	0,5	0,004750
0,258667	0,5	0,001350
0,267000	0,5	-0,000200
0,275333	0,5	-0,010800
0,283667	0,5	-0,025350
0,292000	0,5	0,009100
0,300333	0,5	0,017450
0,308667	0,5	0,000500
0,317000	0,5	-0,027400
0,325333	0,5	-0,024800
0,333667	0,5	0,016200
0,342000	0,5	0,010800
0,350333	0,5	0,009050
0,358667	0,5	-0,000900
0,367000	0,5	0,009800
0,375333	0,5	-0,008550
0,383667	0,5	-0,005400
0,392000	0,5	-0,020450
0,400333	0,5	-0,017350
0,408667	0,5	-0,028150
0,417000	0,5	-0,021500
0,425333	0,5	-0,028900
0,433667	0,5	-0,002250
0,442000	0,5	-0,001900
0,450333	0,5	-0,039150
0,458667	0,5	-0,050750
0,467000	0,5	-0,047300
0,475333	0,5	-0,013200
0,483667	0,5	0,012550
0,492000	0,5	0,013150
0,500333	0,5	-0,002350
0,508667	0,5	-0,005950
0,517000	0,5	-0,016050
0,525333	0,5	-0,008350
0,533667	0,5	-0,004800
0,542000	0,5	-0,009800
0,550333	0,5	-0,030000
0,558667	0,5	-0,019600
0,567000	0,5	-0,022050
0,575333	0,5	-0,029350
0,583667	0,5	-0,008550
0,592000	0,5	-0,021600
0,600333	0,5	-0,047150
0,608667	0,5	-0,048950
0,617000	0,5	-0,050000
0,625333	0,5	0,003400
0,633667	0,5	0,006000
0,642000	0,5	-0,011950
0,650333	0,5	-0,026950
0,658667	0,5	-0,018100
0,667000	0,5	-0,030300
0,675333	0,5	-0,029800
0,683667	0,5	-0,033700
0,692000	0,5	-0,044400
0,700333	0,5	-0,044600
0,708667	0,5	-0,051350
0,717000	0,5	-0,042300
0,725333	0,5	-0,062500
0,733667	0,5	-0,004600
0,742000	0,5	-0,054650
0,750333	0,5	-0,066000
0,758667	0,5	-0,076100
0,767000	0,5	-0,058700
0,775333	0,5	-0,011150
0,783667	0,5	-0,029300
0,792000	0,5	-0,053150
0,800333	0,5	-0,036600
0,808667	0,5	-0,049500
0,817000	0,5	-0,053750
0,825333	0,5	-0,046950
0,833667	0,5	-0,055050
0,842000	0,5	-0,062900
0,850333	0,5	-0,062450
0,858667	0,5	-0,050250
0,867000	0,5	-0,080200
0,875333	0,5	-0,081450
0,883667	0,5	-0,055350
0,892000	0,5	-0,087800
0,900333	0,5	-0,093200
0,908667	0,5	-0,086050
0,917000	0,5	-0,074150
0,925333	0,5	-0,002900
0,933667	0,5	-0,043500
0,942000	0,5	-0,052500
0,950333	0,5	-0,069600
0,958667	0,5	-0,058800
0,967000	0,5	-0,077300
0,975333	0,5	-0,061800
0,983667	0,5	-0,071100
0,992000	0,5	-0,082200
1,000333	0,5	-0,079650
1,008667	0,5	-0,081300
1,017000	0,5	-0,083500
1,025333	0,5	-0,062650
1,033667	0,5	-0,063850
1,042000	0,5	-0,100450
1,050333	0,5	-0,099000
1,058667	0,5	-0,093350
1,067000	0,5	-0,069500
1,075333	0,5	-0,046400
1,083667	0,5	-0,047500
1,092000	0,5	-0,073800
1,100333	0,5	-0,057900
1,108667	0,5	-0,076250
1,117000	0,5	-0,074100
1,125333	0,5	-0,071000
1,133667	0,5	-0,078500
1,142000	0,5	-0,083000
1,150333	0,5	-0,086550
1,158667	0,5	-0,083950
1,167000	0,5	-0,104750
1,175333	0,5	-0,090350
1,183667	0,5	-0,089300
1,192000	0,5	-0,116050
1,200333	0,5	-0,118200
1,208667	0,5	-0,096650
1,217000	0,5	-0,065300
1,225333	0,5	-0,028850
1,233667	0,5	-0,062450
1,242000	0,5	-0,063450
1,250333	0,5	-0,077550
1,258667	0,5	-0,072500
1,267000	0,5	-0,080300
1,275333	0,5	-0,068500
1,283667	0,5	-0,086450
1,292000	0,5	-0,084800
1,300333	0,5	-0,087100
1,308667	0,5	-0,113050
1,317000	0,5	-0,122700
1,325333	0,5	-0,083200
1,333667	0,5	-0,120150
1,342000	0,5	-0,126200
1,350333	0,5	-0,125800
1,358667	0,5	-0,099750
1,367000	0,5	-0,065450
1,375333	0,5	-0,064600
1,383667	0,5	-0,067100
1,392000	0,5	-0,074500
1,400333	0,5	-0,074600
1,408667	0,5	-0,091400
1,417000	0,5	-0,078650
1,425333	0,5	-0,090200
1,433667	0,5	-0,092350
1,442000	0,5	-0,105850
1,450333	0,5	-0,093250
1,458667	0,5	-0,125200
1,467000	0,5	-0,089600
1,475333	0,5	-0,091550
1,483667	0,5	-0,112500
1,492000	0,5	-0,121600
1,500333	0,5	-0,115050
1,508667	0,5	-0,083250
1,517000	0,5	-0,053900
1,525333	0,5	-0,050750
1,533667	0,5	-0,065950
1,542000	0,5	-0,073500
1,550333	0,5	-0,084900
1,558667	0,5	-0,109650
1,567000	0,5	-0,203100
1,575333	0,5	-0,581450
1,583667	0,5	-1,484450
1,592000	0,5	-2,443900
1,600333	0,5	-2,374950
1,608667	0,5	-0,578100
1,617000	0,5	2,397300
1,625333	0,5	6,847200
1,633667	0,5	14,405100
1,642000	0,5	23,612300
1,650333	0,5	29,268700
1,658667	0,5	28,730750
1,667000	0,5	24,593100
1,675333	0,5	20,292050
1,683667	0,5	16,911700
1,692000	0,5	14,305200
1,700333	0,5	12,205700
1,708667	0,5	10,499450
1,717000	0,5	9,172750
1,725333	0,5	8,239950
1,733667	0,5	7,691450
1,742000	0,5	7,198100
1,750333	0,5	6,531950
1,758667	0,5	5,659400
1,767000	0,5	4,987900
1,775333	0,5	4,529950
1,783667	0,5	4,522650
1,792000	0,5	4,968550
1,800333	0,5	5,689400
1,808667	0,5	6,253600
1,817000	0,5	6,306800
1,825333	0,5	5,983650
1,833667	0,5	5,581250
1,842000	0,5	5,148800
1,850333	0,5	4,754050
1,858667	0,5	4,368550
1,867000	0,5	4,041750
1,875333	0,5	3,780350
1,883667	0,5	3,592350
1,892000	0,5	3,430650
1,900333	0,5	3,210750
1,908667	0,5	2,986700
1,917000	0,5	2,831300
1,925333	0,5	2,653400
1,933667	0,5	2,611050
1,942000	0,5	2,757600
1,950333	0,5	3,254850
1,958667	0,5	4,284900
1,967000	0,5	5,399650
1,975333	0,5	5,888950
1,983667	0,5	5,431100
1,992000	0,5	4,766200
2,000333	0,5	4,904450
2,008667	0,5	7,211450
2,017000	0,5	13,633150
2,025333	0,5	27,615750
2,033667	0,5	58,102601
2,042000	0,5	124,352302
2,050333	0,5	236,019354
2,058667	0,5	346,393705
2,067000	0,5	379,508956
2,075333	0,5	327,837955
2,083667	0,5	247,378854
2,092000	0,5	181,469253
2,100333	0,5	137,522252
2,108667	0,5	108,458552
2,117000	0,5	88,064751
2,125333	0,5	73,025801
2,133667	0,5	61,698701
2,142000	0,5	53,009651
2,150333	0,5	46,337501
2,158667	0,5	41,161451
2,167000	0,5	37,363551
2,175333	0,5	34,921151
2,183667	0,5	33,417650
2,192000	0,5	31,788500
2,200333	0,5	29,480900
2,208667	0,5	26,959650
2,217000	0,5	24,776000
2,225333	0,5	23,038000
2,233667	0,5	21,585750
2,242000	0,5	20,274900
2,250333	0,5	19,145250
2,258667	0,5	18,183150
2,267000	0,5	17,348450
2,275333	0,5	16,681050
2,283667	0,5	16,145750
2,292000	0,5	15,736850
2,300333	0,5	15,424450
2,308667	0,5	15,220200
2,317000	0,5	15,090100
2,325333	0,5	15,042550
2,333667	0,5	14,995200
2,342000	0,5	14,875500
2,350333	0,5	14,710500
2,358667	0,5	14,576600
2,367000	0,5	14,443250
2,375333	0,5	14,416900
2,383667	0,5	14,421550
2,392000	0,5	14,457000
2,400333	0,5	14,448750
2,408667	0,5	14,390050
2,417000	0,5	14,327750
2,425333	0,5	14,281500
2,433667	0,5	14,241400
2,442000	0,5	14,224750
2,450333	0,5	14,237200
2,458667	0,5	14,260900
2,467000	0,5	14,352800
2,475333	0,5	14,539350
2,483667	0,5	14,833000
2,492000	0,5	15,141150
2,500333	0,5	15,477600
2,508667	0,5	15,701750
2,517000	0,5	15,817050
2,525333	0,5	15,834100
2,533667	0,5	15,776000
2,542000	0,5	15,679350
2,550333	0,5	15,537900
2,558667	0,5	15,396950
2,567000	0,5	15,303100
2,575333	0,5	15,230650
2,583667	0,5	15,141350
2,592000	0,5	15,026500
2,600333	0,5	14,893650
2,608667	0,5	14,741200
2,617000	0,5	14,566050
2,625333	0,5	14,418100
2,633667	0,5	14,283150
2,642000	0,5	14,192350
2,650333	0,5	14,239600
2,658667	0,5	14,407600
2,667000	0,5	14,869350
2,675333	0,5	15,680350
2,683667	0,5	16,646000
2,692000	0,5	17,424600
2,700333	0,5	17,572350
2,708667	0,5	17,185350
2,717000	0,5	16,457500
2,725333	0,5	15,722650
2,733667	0,5	15,133550
2,742000	0,5	14,994100
2,750333	0,5	16,251000
2,758667	0,5	21,912300
2,767000	0,5	35,915651
2,775333	0,5	58,386301
2,783667	0,5	87,482501
2,792000	0,5	124,456502
2,800333	0,5	178,876903
2,808667	0,5	286,933254
2,817000	0,5	531,645308
2,825333	0,5	927,212764
2,833667	0,5	1 301,583819
2,842000	0,5	1 552,216123
2,850333	0,5	1 659,120475
2,858667	0,5	1 647,817175
2,867000	0,5	1 571,343623
2,875333	0,5	1 460,310022
2,883667	0,5	1 331,983070
2,892000	0,5	1 198,166868
2,900333	0,5	1 065,899166
2,908667	0,5	935,068264
2,917000	0,5	809,311912
2,925333	0,5	694,052360
2,933667	0,5	592,496109
2,942000	0,5	506,946308
2,950333	0,5	434,207706
2,958667	0,5	374,172106
2,967000	0,5	324,552655
2,975333	0,5	282,598204
2,983667	0,5	246,145654
2,992000	0,5	214,058203
3,000333	0,5	185,821353
3,008667	0,5	161,563902
3,017000	0,5	141,091052
3,025333	0,5	124,046502
3,033667	0,5	109,855552
3,042000	0,5	98,012201
3,050333	0,5	87,974601
3,058667	0,5	79,398001
3,067000	0,5	71,975001
3,075333	0,5	65,500901
3,083667	0,5	59,776901
3,092000	0,5	54,756601
3,100333	0,5	50,253501
3,108667	0,5	46,225651
3,117000	0,5	42,636251
3,125333	0,5	39,432401
3,133667	0,5	36,587451
3,142000	0,5	34,024651
3,150333	0,5	31,693700
3,158667	0,5	29,572200
3,167000	0,5	27,637450
3,175333	0,5	25,834800
3,183667	0,5	24,142250
3,192000	0,5	22,545050
3,200333	0,5	21,045450
3,208667	0,5	19,662650
3,217000	0,5	18,411200
3,225333	0,5	17,250050
3,233667	0,5	16,211450
3,242000	0,5	15,276600
3,250333	0,5	14,391750
3,258667	0,5	13,575700
3,267000	0,5	12,856300
3,275333	0,5	12,214150
3,283667	0,5	11,665950
3,292000	0,5	11,165500
3,300333	0,5	10,761250
3,308667	0,5	10,527700
3,317000	0,5	10,527350
3,325333	0,5	10,858350
3,333667	0,5	11,556950
3,342000	0,5	12,516550
3,350333	0,5	13,450600
3,358667	0,5	14,070100
3,367000	0,5	14,096400
3,375333	0,5	13,490350
3,383667	0,5	12,402850
3,392000	0,5	11,075550
3,400333	0,5	9,726000
3,408667	0,5	8,560650
3,417000	0,5	7,610800
3,425333	0,5	6,901800
3,433667	0,5	6,321200
3,442000	0,5	5,833450
3,450333	0,5	5,404200
3,458667	0,5	5,049650
3,467000	0,5	4,718150
3,475333	0,5	4,422800
3,483667	0,5	4,155550
3,492000	0,5	3,904900
3,500333	0,5	3,694600
3,508667	0,5	3,516900
3,517000	0,5	3,368700
3,525333	0,5	3,215400
3,533667	0,5	3,147500
3,542000	0,5	3,055250
3,550333	0,5	2,971500
3,558667	0,5	2,914000
3,567000	0,5	2,878500
3,575333	0,5	2,847300
3,583667	0,5	2,804700
3,592000	0,5	2,713250
3,600333	0,5	2,640800
3,608667	0,5	2,558800
3,617000	0,5	2,482750
3,625333	0,5	2,388350
3,633667	0,5	2,313850
3,642000	0,5	2,222550
3,650333	0,5	2,138650
3,658667	0,5	2,066850
3,667000	0,5	1,962300
3,675333	0,5	1,859850
3,683667	0,5	1,803550
3,692000	0,5	1,686950
3,700333	0,5	1,595900
3,708667	0,5	1,521050
3,717000	0,5	1,468550
3,725333	0,5	1,442750
3,733667	0,5	1,344850
3,742000	0,5	1,286200
3,750333	0,5	1,214550
3,758667	0,5	1,163200
3,767000	0,5	1,088600
3,775333	0,5	1,038000
3,783667	0,5	0,973200
3,792000	0,5	0,918450
3,800333	0,5	0,867500
3,808667	0,5	0,831300
3,817000	0,5	0,796950
3,825333	0,5	0,765650
3,833667	0,5	0,760700
3,842000	0,5	0,722800
3,850333	0,5	0,713100
3,858667	0,5	0,718100
3,867000	0,5	0,743450
3,875333	0,5	0,791500
3,883667	0,5	0,796100
3,892000	0,5	0,823250
3,900333	0,5	0,895250
3,908667	0,5	1,014550
3,917000	0,5	1,214850
3,925333	0,5	1,501300
3,933667	0,5	1,931300
3,942000	0,5	2,487700
3,950333	0,5	3,180250
3,958667	0,5	3,916600
3,967000	0,5	4,586100
3,975333	0,5	5,088250
3,983667	0,5	5,345600
3,992000	0,5	5,265600
4,000333	0,5	4,928650
4,008667	0,5	4,386350
4,017000	0,5	3,764000
4,025333	0,5	3,119300
4,033667	0,5	2,477250
4,042000	0,5	1,955050
4,050333	0,5	1,538950
4,058667	0,5	1,215500
4,067000	0,5	0,963850
4,075333	0,5	0,783650
4,083667	0,5	0,629450
4,092000	0,5	0,518150
4,100333	0,5	0,422900
4,108667	0,5	0,355650
4,117000	0,5	0,285100
4,125333	0,5	0,263350
4,133667	0,5	0,200650
4,142000	0,5	0,164650
4,150333	0,5	0,149050
4,158667	0,5	0,160350
4,167000	0,5	0,186050
4,175333	0,5	0,198250
4,183667	0,5	0,199950
4,192000	0,5	0,207100
4,200333	0,5	0,195250
4,208667	0,5	0,166400
4,217000	0,5	0,141500
4,225333	0,5	0,093250
4,233667	0,5	0,039400
4,242000	0,5	-0,011600
4,250333	0,5	-0,052600
4,258667	0,5	-0,110150
4,267000	0,5	-0,137400
4,275333	0,5	-0,151300
4,283667	0,5	-0,190400
4,292000	0,5	-0,229100
4,300333	0,5	-0,251550
4,308667	0,5	-0,251400
4,317000	0,5	-0,231350
4,325333	0,5	-0,241000
4,333667	0,5	-0,251950
4,342000	0,5	-0,274300
4,350333	0,5	-0,272900
4,358667	0,5	-0,297300
4,367000	0,5	-0,301850
4,375333	0,5	-0,308600
4,383667	0,5	-0,320600
4,392000	0,5	-0,320800
4,400333	0,5	-0,329850
4,408667	0,5	-0,333300
4,417000	0,5	-0,310200
4,425333	0,5	-0,279800
4,433667	0,5	-0,271650
4,442000	0,5	-0,239350
4,450333	0,5	-0,189550
4,458667	0,5	-0,085250
4,467000	0,5	0,018700
4,475333	0,5	0,142050
4,483667	0,5	0,309150
4,492000	0,5	0,560700
4,500333	0,5	0,864900
4,508667	0,5	1,256900
4,517000	0,5	1,710500
4,525333	0,5	2,217950
4,533667	0,5	2,727750
4,542000	0,5	3,229150
4,550333	0,5	3,702600
4,558667	0,5	4,088450
4,567000	0,5	4,471350
4,575333	0,5	4,757500
4,583667	0,5	5,040750
4,592000	0,5	5,368050
4,600333	0,5	5,785800
4,608667	0,5	6,367400
4,617000	0,5	7,106200
4,625333	0,5	8,117050
4,633667	0,5	9,560050
4,642000	0,5	11,589150
4,650333	0,5	14,472800
4,658667	0,5	18,454300
4,667000	0,5	23,843900
4,675333	0,5	30,773850
4,683667	0,5	39,220451
4,692000	0,5	48,799551
4,700333	0,5	58,766801
4,708667	0,5	68,163851
4,717000	0,5	76,114701
4,725333	0,5	81,639051
4,733667	0,5	84,462151
4,742000	0,5	84,534301
4,750333	0,5	82,129801
4,758667	0,5	77,782851
4,767000	0,5	71,903701
4,775333	0,5	65,160401
4,783667	0,5	58,025551
4,792000	0,5	50,938601
4,800333	0,5	44,152601
4,808667	0,5	37,929251
4,817000	0,5	32,350650
4,825333	0,5	27,492750
4,833667	0,5	23,332600
4,842000	0,5	19,818350
4,850333	0,5	16,866500
4,858667	0,5	14,440400
4,867000	0,5	12,455850
4,875333	0,5	10,782000
4,883667	0,5	9,418850
4,892000	0,5	8,296650
4,900333	0,5	7,378500
4,908667	0,5	6,637600
4,917000	0,5	5,980550
4,925333	0,5	5,429850
4,933667	0,5	4,974900
4,942000	0,5	4,582400
4,950333	0,5	4,265350
4,958667	0,5	4,020150
4,967000	0,5	3,847550
4,975333	0,5	3,738800
4,983667	0,5	3,733550
4,992000	0,5	3,802300
5,000333	0,5	3,941950
5,008667	0,5	4,156500
5,017000	0,5	4,415800
5,025333	0,5	4,663050
5,033667	0,5	4,935850
5,042000	0,5	5,151750
5,050333	0,5	5,302550
5,058667	0,5	5,348450
5,067000	0,5	5,236450
5,075333	0,5	5,017200
5,083667	0,5	4,696000
5,092000	0,5	4,290450
5,100333	0,5	3,838550
5,108667	0,5	3,374400
5,117000	0,5	2,894100
5,125333	0,5	2,455300
5,133667	0,5	2,057350
5,142000	0,5	1,691800
5,150333	0,5	1,377550
5,158667	0,5	1,143300
5,167000	0,5	0,912900
5,175333	0,5	0,733450
5,183667	0,5	0,591450
5,192000	0,5	0,495900
5,200333	0,5	0,422350
5,208667	0,5	0,350700
5,217000	0,5	0,269000
5,225333	0,5	0,210350
5,233667	0,5	0,172500
5,242000	0,5	0,134650
5,250333	0,5	0,092900
5,258667	0,5	0,059950
5,267000	0,5	0,026250
5,275333	0,5	0,007350
5,283667	0,5	0,004250
5,292000	0,5	-0,019900
5,300333	0,5	-0,022950
5,308667	0,5	-0,020700
5,317000	0,5	-0,038650
5,325333	0,5	-0,047050
5,333667	0,5	-0,026550
5,342000	0,5	0,004900
5,350333	0,5	0,045850
5,358667	0,5	0,055800
5,367000	0,5	0,086950
5,375333	0,5	0,108450
5,383667	0,5	0,146200
5,392000	0,5	0,172900
5,400333	0,5	0,214800
5,408667	0,5	0,238250
5,417000	0,5	0,254800
5,425333	0,5	0,265300
5,433667	0,5	0,268100
5,442000	0,5	0,258000
5,450333	0,5	0,257950
5,458667	0,5	0,217300
5,467000	0,5	0,175150
5,475333	0,5	0,142450
5,483667	0,5	0,121150
5,492000	0,5	0,125950
5,500333	0,5	0,102500
5,508667	0,5	0,077800
5,517000	0,5	0,050200
5,525333	0,5	0,050750
5,533667	0,5	0,038250
5,542000	0,5	0,043900
5,550333	0,5	0,042150
5,558667	0,5	0,052800
5,567000	0,5	0,060500
5,575333	0,5	0,082450
5,583667	0,5	0,112000
5,592000	0,5	0,129600
5,600333	0,5	0,190500
5,608667	0,5	0,195450
5,617000	0,5	0,210250
5,625333	0,5	0,226700
5,633667	0,5	0,263150
5,642000	0,5	0,329200
5,650333	0,5	0,336750
5,658667	0,5	0,329650
5,667000	0,5	0,345850
5,675333	0,5	0,347800
5,683667	0,5	0,350950
5,692000	0,5	0,343150
5,700333	0,5	0,335100
5,708667	0,5	0,314950
5,717000	0,5	0,306350
5,725333	0,5	0,297900
5,733667	0,5	0,283200
5,742000	0,5	0,260000
5,750333	0,5	0,276450
5,758667	0,5	0,221600
5,767000	0,5	0,202950
5,775333	0,5	0,193100
5,783667	0,5	0,200400
5,792000	0,5	0,226950
5,800333	0,5	0,199850
5,808667	0,5	0,190400
5,817000	0,5	0,193150
5,825333	0,5	0,196450
5,833667	0,5	0,194600
5,842000	0,5	0,217700
5,850333	0,5	0,212950
5,858667	0,5	0,209750
5,867000	0,5	0,206050
5,875333	0,5	0,216250
5,883667	0,5	0,200650
5,892000	0,5	0,204850
5,900333	0,5	0,216150
5,908667	0,5	0,205200
5,917000	0,5	0,208400
5,925333	0,5	0,235550
5,933667	0,5	0,278500
5,942000	0,5	0,335250
5,950333	0,5	0,363600
5,958667	0,5	0,408700
5,967000	0,5	0,447950
5,975333	0,5	0,499200
5,983667	0,5	0,547450
5,992000	0,5	0,585700
6,000333	0,5	0,625450
6,008667	0,5	0,656250
6,017000	0,5	0,695250
6,025333	0,5	0,702700
6,033667	0,5	0,704900
6,042000	0,5	0,702850
6,050333	0,5	0,695150
6,058667	0,5	0,652250
6,067000	0,5	0,628900
6,075333	0,5	0,613000
6,083667	0,5	0,621100
6,092000	0,5	0,616000
6,100333	0,5	0,590300
6,108667	0,5	0,563150
6,117000	0,5	0,553250
6,125333	0,5	0,525500
6,133667	0,5	0,518050
6,142000	0,5	0,505650
6,150333	0,5	0,497400
6,158667	0,5	0,495800
6,167000	0,5	0,492550
6,175333	0,5	0,503600
6,183667	0,5	0,501600
6,192000	0,5	0,522650
6,200333	0,5	0,509550
6,208667	0,5	0,521100
6,217000	0,5	0,537400
6,225333	0,5	0,576000
6,233667	0,5	0,603550
6,242000	0,5	0,636150
6,250333	0,5	0,645300
6,258667	0,5	0,659850
6,267000	0,5	0,657150
6,275333	0,5	0,657500
6,283667	0,5	0,651500
6,292000	0,5	0,646550
6,300333	0,5	0,634950
6,308667	0,5	0,623750
6,317000	0,5	0,616750
6,325333	0,5	0,597200
6,333667	0,5	0,597800
6,342000	0,5	0,596150
6,350333	0,5	0,576700
6,358667	0,5	0,562350
6,367000	0,5	0,554800
6,375333	0,5	0,565550
6,383667	0,5	0,579550
6,392000	0,5	0,562650
6,400333	0,5	0,566750
6,408667	0,5	0,559200
6,417000	0,5	0,563900
6,425333	0,5	0,553450
6,433667	0,5	0,563450
6,442000	0,5	0,567000
6,450333	0,5	0,581450
6,458667	0,5	0,602750
6,467000	0,5	0,603550
6,475333	0,5	0,605700
6,483667	0,5	0,656800
6,492000	0,5	0,660050
6,500333	0,5	0,682950
6,508667	0,5	0,718000
6,517000	0,5	0,763350
6,525333	0,5	0,854950
6,533667	0,5	0,917050
6,542000	0,5	0,996000
6,550333	0,5	1,077000
6,558667	0,5	1,208850
6,567000	0,5	1,330750
6,575333	0,5	1,488600
6,583667	0,5	1,641950
6,592000	0,5	1,804800
6,600333	0,5	1,947300
6,608667	0,5	2,084550
6,617000	0,5	2,179650
6,625333	0,5	2,232650
6,633667	0,5	2,266550
6,642000	0,5	2,203450
6,650333	0,5	2,111050
6,658667	0,5	2,005500
6,667000	0,5	1,884250
6,675333	0,5	1,777450
6,683667	0,5	1,631650
6,692000	0,5	1,492350
6,700333	0,5	1,382900
6,708667	0,5	1,292700
6,717000	0,5	1,213500
6,725333	0,5	1,155250
6,733667	0,5	1,106550
6,742000	0,5	1,065350
6,750333	0,5	1,042800
6,758667	0,5	1,025800
6,767000	0,5	1,009850
6,775333	0,5	0,982050
6,783667	0,5	1,001600
6,792000	0,5	0,964750
6,800333	0,5	0,962850
6,808667	0,5	0,962050
6,817000	0,5	0,981350
6,825333	0,5	1,013150
6,833667	0,5	0,998000
6,842000	0,5	0,993850
6,850333	0,5	1,000500
6,858667	0,5	1,013450
6,867000	0,5	1,027950
6,875333	0,5	1,038750
6,883667	0,5	1,035400
6,892000	0,5	1,047500
6,900333	0,5	1,058350
6,908667	0,5	1,072150
6,917000	0,5	1,062650
6,925333	0,5	1,088150
6,933667	0,5	1,114450
6,942000	0,5	1,123400
6,950333	0,5	1,148350
6,958667	0,5	1,185700
6,967000	0,5	1,243400
6,975333	0,5	1,290250
6,983667	0,5	1,303400
6,992000	0,5	1,332100
7,000333	0,5	1,364800
7,008667	0,5	1,411050
7,017000	0,5	1,457400
7,025333	0,5	1,513850
7,033667	0,5	1,572200
7,042000	0,5	1,641400
7,050333	0,5	1,725250
7,058667	0,5	1,790350
7,067000	0,5	1,866250
7,075333	0,5	1,937400
7,083667	0,5	1,971100
7,092000	0,5	1,985650
7,100333	0,5	2,000900
7,108667	0,5	2,011000
7,117000	0,5	2,019800
7,125333	0,5	1,999750
7,133667	0,5	1,966450
7,142000	0,5	1,912650
7,150333	0,5	1,867600
7,158667	0,5	1,806900
7,167000	0,5	1,770600
7,175333	0,5	1,723650
7,183667	0,5	1,677150
7,192000	0,5	1,643450
7,200333	0,5	1,617900
7,208667	0,5	1,594200
7,217000	0,5	1,588500
7,225333	0,5	1,584050
7,233667	0,5	1,567300
7,242000	0,5	1,557400
7,250333	0,5	1,563800
7,258667	0,5	1,593100
7,267000	0,5	1,618650
7,275333	0,5	1,641750
7,283667	0,5	1,645950
7,292000	0,5	1,674200
7,300333	0,5	1,689800
7,308667	0,5	1,714350
7,317000	0,5	1,729650
7,325333	0,5	1,748800
7,333667	0,5	1,752350
7,342000	0,5	1,765000
7,350333	0,5	1,774200
7,358667	0,5	1,770300
7,367000	0,5	1,799700
7,375333	0,5	1,813000
7,383667	0,5	1,812800
7,392000	0,5	1,833450
7,400333	0,5	1,865300
7,408667	0,5	1,918500
7,417000	0,5	1,959650
7,425333	0,5	1,969350
7,433667	0,5	1,992550
7,442000	0,5	1,992700
7,450333	0,5	1,993250
7,458667	0,5	1,978150
7,467000	0,5	1,971650
7,475333	0,5	1,954700
7,483667	0,5	1,946850
7,492000	0,5	1,934700
7,500333	0,5	1,932850
7,508667	0,5	1,913900
7,517000	0,5	1,934650
7,525333	0,5	1,920000
7,533667	0,5	1,925750
7,542000	0,5	1,937050
7,550333	0,5	1,964950
7,558667	0,5	2,031400
7,567000	0,5	2,081550
7,575333	0,5	2,173450
7,583667	0,5	2,280900
7,592000	0,5	2,418750
7,600333	0,5	2,554300
7,608667	0,5	2,700600
7,617000	0,5	2,814500
7,625333	0,5	2,898250
7,633667	0,5	2,950900
7,642000	0,5	3,003600
7,650333	0,5	3,064450
7,658667	0,5	3,157050
7,667000	0,5	3,278100
7,675333	0,5	3,389850
7,683667	0,5	3,485050
7,692000	0,5	3,564300
7,700333	0,5	3,619100
7,708667	0,5	3,681200
7,717000	0,5	3,696650
7,725333	0,5	3,698000
7,733667	0,5	3,678950
7,742000	0,5	3,607350
7,750333	0,5	3,486250
7,758667	0,5	3,323850
7,767000	0,5	3,164500
7,775333	0,5	3,021950
7,783667	0,5	2,930800
7,792000	0,5	2,882800
7,800333	0,5	2,902400
7,808667	0,5	3,004200
7,817000	0,5	3,215550
7,825333	0,5	3,497200
7,833667	0,5	3,852800
7,842000	0,5	4,219350
7,850333	0,5	4,547350
7,858667	0,5	4,754350
7,867000	0,5	4,783950
7,875333	0,5	4,671500
7,883667	0,5	4,484500
7,892000	0,5	4,278600
7,900333	0,5	4,119350
7,908667	0,5	4,017850
7,917000	0,5	3,958100
7,925333	0,5	3,907750
7,933667	0,5	3,822550
7,942000	0,5	3,682300
7,950333	0,5	3,484450
7,958667	0,5	3,286450
7,967000	0,5	3,093600
7,975333	0,5	2,919150
7,983667	0,5	2,798350
7,992000	0,5	2,717850
8,000333	0,5	2,663950
8,008667	0,5	2,625800
8,017000	0,5	2,572650
8,025333	0,5	2,536600
8,033667	0,5	2,503550
8,042000	0,5	2,476100
8,050333	0,5	2,464500
8,058667	0,5	2,465700
8,067000	0,5	2,478900
8,075333	0,5	2,519450
8,083667	0,5	2,583200
8,092000	0,5	2,643200
8,100333	0,5	2,708200
8,108667	0,5	2,784600
8,117000	0,5	2,844800
8,125333	0,5	2,930000
8,133667	0,5	3,079200
8,142000	0,5	3,285150
8,150333	0,5	3,543750
8,158667	0,5	3,828900
8,167000	0,5	4,228650
8,175333	0,5	4,863200
8,183667	0,5	5,892050
8,192000	0,5	7,285650
8,200333	0,5	8,907650
8,208667	0,5	10,423600
8,217000	0,5	11,521400
8,225333	0,5	12,088550
8,233667	0,5	12,245350
8,242000	0,5	12,243200
8,250333	0,5	12,330700
8,258667	0,5	12,560650
8,267000	0,5	12,873200
8,275333	0,5	13,188450
8,283667	0,5	13,466500
8,292000	0,5	13,673900
8,300333	0,5	13,776700
8,308667	0,5	13,841350
8,317000	0,5	13,974950
8,325333	0,5	14,425800
8,333667	0,5	15,531950
8,342000	0,5	17,929950
8,350333	0,5	22,599750
8,358667	0,5	30,838300
8,367000	0,5	43,675301
8,375333	0,5	60,670301
8,383667	0,5	78,865201
8,392000	0,5	93,659151
8,400333	0,5	101,259452
8,408667	0,5	100,331801
8,417000	0,5	92,354601
8,425333	0,5	80,365451
8,433667	0,5	67,072551
8,442000	0,5	54,111701
8,450333	0,5	42,359801
8,458667	0,5	32,567250
8,467000	0,5	24,985050
8,475333	0,5	19,482900
8,483667	0,5	15,597250
8,492000	0,5	12,813900
8,500333	0,5	10,796000
8,508667	0,5	9,340700
8,517000	0,5	8,361200
8,525333	0,5	7,736350
8,533667	0,5	7,344850
8,542000	0,5	7,045950
8,550333	0,5	6,756250
8,558667	0,5	6,369350
8,567000	0,5	5,954400
8,575333	0,5	5,542700
8,583667	0,5	5,215550
8,592000	0,5	4,999300
8,600333	0,5	4,845300
8,608667	0,5	4,753500
8,617000	0,5	4,702050
8,625333	0,5	4,642500
8,633667	0,5	4,591750
8,642000	0,5	4,554200
8,650333	0,5	4,521100
8,658667	0,5	4,478400
8,667000	0,5	4,417400
8,675333	0,5	4,353600
8,683667	0,5	4,300700
8,692000	0,5	4,322250
8,700333	0,5	4,409450
8,708667	0,5	4,489950
8,717000	0,5	4,518050
8,725333	0,5	4,459000
8,733667	0,5	4,307450
8,742000	0,5	4,112450
8,750333	0,5	3,894950
8,758667	0,5	3,717000
8,767000	0,5	3,586800
8,775333	0,5	3,509200
8,783667	0,5	3,485200
8,792000	0,5	3,513650
8,800333	0,5	3,609800
8,808667	0,5	3,774650
8,817000	0,5	4,033200
8,825333	0,5	4,346400
8,833667	0,5	4,672900
8,842000	0,5	4,931850
8,850333	0,5	5,012100
8,858667	0,5	4,857100
8,867000	0,5	4,544000
8,875333	0,5	4,147150
8,883667	0,5	3,769200
8,892000	0,5	3,467700
8,900333	0,5	3,255550
8,908667	0,5	3,131550
8,917000	0,5	3,087750
8,925333	0,5	3,108500
8,933667	0,5	3,195750
8,942000	0,5	3,327450
8,950333	0,5	3,487000
8,958667	0,5	3,691550
8,967000	0,5	3,994250
8,975333	0,5	4,453500
8,983667	0,5	5,011450
8,992000	0,5	5,536000
9,000333	0,5	5,841100
9,008667	0,5	5,846400
9,017000	0,5	5,651400
9,025333	0,5	5,367300
9,033667	0,5	5,079250
9,042000	0,5	4,796600
9,050333	0,5	4,487650
9,058667	0,5	4,181400
9,067000	0,5	3,880000
9,075333	0,5	3,608750
9,083667	0,5	3,379950
9,092000	0,5	3,204500
9,100333	0,5	3,076250
9,108667	0,5	2,991250
9,117000	0,5	2,941800
9,125333	0,5	2,874100
9,133667	0,5	2,809400
9,142000	0,5	2,738850
9,150333	0,5	2,653250
9,158667	0,5	2,583400
9,167000	0,5	2,517000
9,175333	0,5	2,474850
9,183667	0,5	2,452500
9,192000	0,5	2,421450
9,200333	0,5	2,399400
9,208667	0,5	2,372450
9,217000	0,5	2,342850
9,225333	0,5	2,312950
9,233667	0,5	2,286150
9,242000	0,5	2,271750
9,250333	0,5	2,253350
9,258667	0,5	2,238650
9,267000	0,5	2,227900
9,275333	0,5	2,224450
9,283667	0,5	2,238900
9,292000	0,5	2,253750
9,300333	0,5	2,268950
9,308667	0,5	2,298350
9,317000	0,5	2,335650
9,325333	0,5	2,391950
9,333667	0,5	2,480950
9,342000	0,5	2,611250
9,350333	0,5	2,787250
9,358667	0,5	2,999950
9,367000	0,5	3,199700
9,375333	0,5	3,348950
9,383667	0,5	3,413100
9,392000	0,5	3,390750
9,400333	0,5	3,298250
9,408667	0,5	3,165600
9,417000	0,5	3,026900
9,425333	0,5	2,909500
9,433667	0,5	2,841150
9,442000	0,5	2,820500
9,450333	0,5	2,872450
9,458667	0,5	3,018700
9,467000	0,5	3,285650
9,475333	0,5	3,712900
9,483667	0,5	4,286400
9,492000	0,5	5,022500
9,500333	0,5	5,901050
9,508667	0,5	6,904600
9,517000	0,5	8,022150
9,525333	0,5	9,284250
9,533667	0,5	10,822150
9,542000	0,5	12,947000
9,550333	0,5	16,293200
9,558667	0,5	21,824600
9,567000	0,5	30,641300
9,575333	0,5	43,163851
9,583667	0,5	58,460401
9,592000	0,5	73,752051
9,600333	0,5	85,851551
9,608667	0,5	92,508751
9,617000	0,5	92,936801
9,625333	0,5	87,364101
9,633667	0,5	76,797701
9,642000	0,5	63,443951
9,650333	0,5	49,840451
9,658667	0,5	37,893151
9,667000	0,5	28,491300
9,675333	0,5	21,626900
9,683667	0,5	16,843900
9,692000	0,5	13,556750
9,700333	0,5	11,278150
9,708667	0,5	9,659250
9,717000	0,5	8,440200
9,725333	0,5	7,511500
9,733667	0,5	6,791700
9,742000	0,5	6,207900
9,750333	0,5	5,741950
9,758667	0,5	5,382900
9,767000	0,5	5,119750
9,775333	0,5	4,948400
9,783667	0,5	4,862400
9,792000	0,5	4,855300
9,800333	0,5	4,887050
9,808667	0,5	4,925650
9,817000	0,5	4,920450
9,825333	0,5	4,831450
9,833667	0,5	4,660000
9,842000	0,5	4,410100
9,850333	0,5	4,133850
9,858667	0,5	3,850250
9,867000	0,5	3,595550
9,875333	0,5	3,382600
9,883667	0,5	3,206050
9,892000	0,5	3,062450
9,900333	0,5	2,955950
9,908667	0,5	2,870250
9,917000	0,5	2,822150
9,925333	0,5	2,770500
9,933667	0,5	2,726750
9,942000	0,5	2,688000
9,950333	0,5	2,658250
9,958667	0,5	2,617800
9,967000	0,5	2,592850
9,975333	0,5	2,566150
9,983667	0,5	2,550400
9,992000	0,5	2,532650
10,000333	0,5	2,523600
10,008667	0,5	2,507800
10,017000	0,5	2,481450
10,025333	0,5	2,449050
10,033667	0,5	2,401950
10,042000	0,5	2,355750
10,050333	0,5	2,308550
10,058667	0,5	2,264700
10,067000	0,5	2,225950
10,075333	0,5	2,190150
10,083667	0,5	2,142950
10,092000	0,5	2,109600
10,100333	0,5	2,073050
10,108667	0,5	2,037300
10,117000	0,5	2,006200
10,125333	0,5	1,977850
10,133667	0,5	1,953950
10,142000	0,5	1,936950
10,150333	0,5	1,929800
10,158667	0,5	1,924950
10,167000	0,5	1,923700
10,175333	0,5	1,925150
10,183667	0,5	1,921050
10,192000	0,5	1,905350
10,200333	0,5	1,891500
10,208667	0,5	1,880700
10,217000	0,5	1,873950
10,225333	0,5	1,862750
10,233667	0,5	1,859400
10,242000	0,5	1,857700
10,250333	0,5	1,863150
10,258667	0,5	1,877700
10,267000	0,5	1,898000
10,275333	0,5	1,915900
10,283667	0,5	1,942500
10,292000	0,5	1,960900
10,300333	0,5	1,972500
10,308667	0,5	1,964200
10,317000	0,5	1,960900
10,325333	0,5	1,940700
10,333667	0,5	1,909400
10,342000	0,5	1,885900
10,350333	0,5	1,864500
10,358667	0,5	1,853250
10,367000	0,5	1,843100
10,375333	0,5	1,835650
10,383667	0,5	1,831100
10,392000	0,5	1,829800
10,400333	0,5	1,828000
10,408667	0,5	1,817550
10,417000	0,5	1,806950
10,425333	0,5	1,808900
10,433667	0,5	1,798200
10,442000	0,5	1,786050
10,450333	0,5	1,787250
10,458667	0,5	1,778700
10,467000	0,5	1,784450
10,475333	0,5	1,787300
10,483667	0,5	1,784800
10,492000	0,5	1,798900
10,500333	0,5	1,807700
10,508667	0,5	1,824850
10,517000	0,5	1,835700
10,525333	0,5	1,846750
10,533667	0,5	1,863750
10,542000	0,5	1,874450
10,550333	0,5	1,881800
10,558667	0,5	1,885100
10,567000	0,5	1,884400
10,575333	0,5	1,884050
10,583667	0,5	1,883950
10,592000	0,5	1,892750
10,600333	0,5	1,893050
10,608667	0,5	1,902900
10,617000	0,5	1,912950
10,625333	0,5	1,916350
10,633667	0,5	1,913650
10,642000	0,5	1,907850
10,650333	0,5	1,907200
10,658667	0,5	1,900450
10,667000	0,5	1,887200
10,675333	0,5	1,867950
10,683667	0,5	1,859550
10,692000	0,5	1,848050
10,700333	0,5	1,833600
10,708667	0,5	1,827350
10,717000	0,5	1,822550
10,725333	0,5	1,821350
10,733667	0,5	1,820300
10,742000	0,5	1,823100
10,750333	0,5	1,824200
10,758667	0,5	1,836650
10,767000	0,5	1,850650
10,775333	0,5	1,879950
10,783667	0,5	1,911850
10,792000	0,5	1,954350
10,800333	0,5	2,016550
10,808667	0,5	2,076600
10,817000	0,5	2,125400
10,825333	0,5	2,161850
10,833667	0,5	2,176100
10,842000	0,5	2,176500
10,850333	0,5	2,167350
10,858667	0,5	2,140250
10,867000	0,5	2,110650
10,875333	0,5	2,082800
10,883667	0,5	2,075400
10,892000	0,5	2,067150
10,900333	0,5	2,072550
10,908667	0,5	2,093100
10,917000	0,5	2,127650
10,925333	0,5	2,172200
10,933667	0,5	2,222950
10,942000	0,5	2,281700
10,950333	0,5	2,335100
10,958667	0,5	2,386700
10,967000	0,5	2,418450
10,975333	0,5	2,437250
10,983667	0,5	2,448000
10,992000	0,5	2,459600
11,000333	0,5	2,491100
11,008667	0,5	2,554550
11,017000	0,5	2,645900
11,025333	0,5	2,761700
11,033667	0,5	2,876250
11,042000	0,5	2,946450
11,050333	0,5	2,959850
11,058667	0,5	2,915850
11,067000	0,5	2,812100
11,075333	0,5	2,665950
11,083667	0,5	2,503700
11,092000	0,5	2,360500
11,100333	0,5	2,234900
11,108667	0,5	2,146550
11,117000	0,5	2,083050
11,125333	0,5	2,045350
11,133667	0,5	2,017450
11,142000	0,5	2,000750
11,150333	0,5	1,984650
11,158667	0,5	1,963250
11,167000	0,5	1,939000
11,175333	0,5	1,914650
11,183667	0,5	1,888600
11,192000	0,5	1,867400
11,200333	0,5	1,849750
11,208667	0,5	1,835200
11,217000	0,5	1,826050
11,225333	0,5	1,809050
11,233667	0,5	1,796250
11,242000	0,5	1,793850
11,250333	0,5	1,789350
11,258667	0,5	1,783650
11,267000	0,5	1,779800
11,275333	0,5	1,773550
11,283667	0,5	1,769500
11,292000	0,5	1,762300
11,300333	0,5	1,764650
11,308667	0,5	1,767450
11,317000	0,5	1,772400
11,325333	0,5	1,779400
11,333667	0,5	1,782650
11,342000	0,5	1,774200
11,350333	0,5	1,763600
11,358667	0,5	1,747700
11,367000	0,5	1,728700
11,375333	0,5	1,715350
11,383667	0,5	1,703600
11,392000	0,5	1,699950
11,400333	0,5	1,699750
11,408667	0,5	1,699350
11,417000	0,5	1,697350
11,425333	0,5	1,697650
11,433667	0,5	1,702900
11,442000	0,5	1,704100
11,450333	0,5	1,711150
11,458667	0,5	1,719800
11,467000	0,5	1,720000
11,475333	0,5	1,727800
11,483667	0,5	1,734000
11,492000	0,5	1,740950
11,500333	0,5	1,757200
11,508667	0,5	1,780100
11,517000	0,5	1,802400
11,525333	0,5	1,836950
11,533667	0,5	1,886650
11,542000	0,5	1,947700
11,550333	0,5	2,009900
11,558667	0,5	2,077200
11,567000	0,5	2,141400
11,575333	0,5	2,196200
11,583667	0,5	2,247850
11,592000	0,5	2,285400
11,600333	0,5	2,327800
11,608667	0,5	2,355000
11,617000	0,5	2,387800
11,625333	0,5	2,407500
11,633667	0,5	2,410500
11,642000	0,5	2,390800
11,650333	0,5	2,351800
11,658667	0,5	2,282400
11,667000	0,5	2,200600
11,675333	0,5	2,122750
11,683667	0,5	2,053400
11,692000	0,5	1,989050
11,700333	0,5	1,953800
11,708667	0,5	1,921850
11,717000	0,5	1,909050
11,725333	0,5	1,911050
11,733667	0,5	1,928400
11,742000	0,5	1,969950
11,750333	0,5	2,028600
11,758667	0,5	2,105300
11,767000	0,5	2,190950
11,775333	0,5	2,278100
11,783667	0,5	2,348900
11,792000	0,5	2,379350
11,800333	0,5	2,376450
11,808667	0,5	2,333950
11,817000	0,5	2,262200
11,825333	0,5	2,177550
11,833667	0,5	2,095550
11,842000	0,5	2,024200
11,850333	0,5	1,960400
11,858667	0,5	1,919200
11,867000	0,5	1,894250
11,875333	0,5	1,890050
11,883667	0,5	1,895400
11,892000	0,5	1,913650
11,900333	0,5	1,913950
11,908667	0,5	1,961550
11,917000	0,5	1,970450
11,925333	0,5	1,972750
11,933667	0,5	1,961800
11,942000	0,5	1,947850
11,950333	0,5	1,927400
11,958667	0,5	1,916750
11,967000	0,5	1,925150
11,975333	0,5	1,967800
11,983667	0,5	2,037200
11,992000	0,5	2,131500
12,000333	0,5	2,229600
12,008667	0,5	2,315100
12,017000	0,5	2,365950
12,025333	0,5	2,377150
12,033667	0,5	2,344700
12,042000	0,5	2,278150
12,050333	0,5	2,192300
12,058667	0,5	2,112650
12,067000	0,5	2,030150
12,075333	0,5	1,958500
12,083667	0,5	1,892200
12,092000	0,5	1,834700
12,100333	0,5	1,786050
12,108667	0,5	1,749400
12,117000	0,5	1,714850
12,125333	0,5	1,697250
12,133667	0,5	1,683050
12,142000	0,5	1,673200
12,150333	0,5	1,670650
12,158667	0,5	1,664600
12,167000	0,5	1,654250
12,175333	0,5	1,652150
12,183667	0,5	1,643950
12,192000	0,5	1,642400
12,200333	0,5	1,638700
12,208667	0,5	1,640250
12,217000	0,5	1,644750
12,225333	0,5	1,641800
12,233667	0,5	1,642900
12,242000	0,5	1,637100
12,250333	0,5	1,635550
12,258667	0,5	1,630000
12,267000	0,5	1,634850
12,275333	0,5	1,637150
12,283667	0,5	1,650300
12,292000	0,5	1,675900
12,300333	0,5	1,701950
12,308667	0,5	1,751750
12,317000	0,5	1,813150
12,325333	0,5	1,884750
12,333667	0,5	1,959100
12,342000	0,5	2,029500
12,350333	0,5	2,091050
12,358667	0,5	2,132700
12,367000	0,5	2,152050
12,375333	0,5	2,154650
12,383667	0,5	2,132900
12,392000	0,5	2,111450
12,400333	0,5	2,077450
12,408667	0,5	2,051650
12,417000	0,5	2,044500
12,425333	0,5	2,045250
12,433667	0,5	2,060800
12,442000	0,5	2,076500
12,450333	0,5	2,095400
12,458667	0,5	2,113950
12,467000	0,5	2,127450
12,475333	0,5	2,137750
12,483667	0,5	2,140250
12,492000	0,5	2,150550
12,500333	0,5	2,153800
12,508667	0,5	2,171250
12,517000	0,5	2,194050
12,525333	0,5	2,217050
12,533667	0,5	2,242900
12,542000	0,5	2,267150
12,550333	0,5	2,281350
12,558667	0,5	2,268150
12,567000	0,5	2,244450
12,575333	0,5	2,204300
12,583667	0,5	2,141000
12,592000	0,5	2,087250
12,600333	0,5	2,029700
12,608667	0,5	1,987450
12,617000	0,5	1,950550
12,625333	0,5	1,929750
12,633667	0,5	1,915900
12,642000	0,5	1,903750
12,650333	0,5	1,903100
12,658667	0,5	1,912800
12,667000	0,5	1,932250
12,675333	0,5	1,965450
12,683667	0,5	2,019750
12,692000	0,5	2,084400
12,700333	0,5	2,161350
12,708667	0,5	2,257600
12,717000	0,5	2,354100
12,725333	0,5	2,457650
12,733667	0,5	2,522900
12,742000	0,5	2,567450
12,750333	0,5	2,572950
12,758667	0,5	2,554000
12,767000	0,5	2,516150
12,775333	0,5	2,472450
12,783667	0,5	2,448250
12,792000	0,5	2,414800
12,800333	0,5	2,389850
12,808667	0,5	2,351850
12,817000	0,5	2,313000
12,825333	0,5	2,276200
12,833667	0,5	2,241450
12,842000	0,5	2,217800
12,850333	0,5	2,201900
12,858667	0,5	2,191650
12,867000	0,5	2,189900
12,875333	0,5	2,187550
12,883667	0,5	2,169450
12,892000	0,5	2,140450
12,900333	0,5	2,103950
12,908667	0,5	2,071950
12,917000	0,5	2,046650
12,925333	0,5	2,036600
12,933667	0,5	2,046250
12,942000	0,5	2,053850
12,950333	0,5	2,063850
12,958667	0,5	2,061800
12,967000	0,5	2,040350
12,975333	0,5	2,001650
12,983667	0,5	1,941250
12,992000	0,5	1,867800
13,000333	0,5	1,791600
13,008667	0,5	1,719800
13,017000	0,5	1,661150
13,025333	0,5	1,619200
13,033667	0,5	1,580050
13,042000	0,5	1,547450
13,050333	0,5	1,521950
13,058667	0,5	1,506500
13,067000	0,5	1,495100
13,075333	0,5	1,487200
13,083667	0,5	1,486400
13,092000	0,5	1,485750
13,100333	0,5	1,493950
13,108667	0,5	1,502650
13,117000	0,5	1,507300
13,125333	0,5	1,512300
13,133667	0,5	1,507950
13,142000	0,5	1,493900
13,150333	0,5	1,484100
13,158667	0,5	1,455100
13,167000	0,5	1,429000
13,175333	0,5	1,412300
13,183667	0,5	1,392400
13,192000	0,5	1,369400
13,200333	0,5	1,357100
13,208667	0,5	1,348500
13,217000	0,5	1,330450
13,225333	0,5	1,320550
13,233667	0,5	1,314800
13,242000	0,5	1,307150
13,250333	0,5	1,300000
13,258667	0,5	1,295800
13,267000	0,5	1,287750
13,275333	0,5	1,284700
13,283667	0,5	1,278200
13,292000	0,5	1,271050
13,300333	0,5	1,252600
13,308667	0,5	1,236150
13,317000	0,5	1,236600
13,325333	0,5	1,234150
13,333667	0,5	1,235350
13,342000	0,5	1,234900
13,350333	0,5	1,231000
13,358667	0,5	1,232900
13,367000	0,5	1,234250
13,375333	0,5	1,233850
13,383667	0,5	1,229900
13,392000	0,5	1,233700
13,400333	0,5	1,230100
13,408667	0,5	1,229950
13,417000	0,5	1,220150
13,425333	0,5	1,198700
13,433667	0,5	1,171100
13,442000	0,5	1,134000
13,450333	0,5	1,102250
13,458667	0,5	1,087000
13,467000	0,5	1,066950
13,475333	0,5	1,053000
13,483667	0,5	1,041450
13,492000	0,5	1,031500
13,500333	0,5	1,000750
13,508667	0,5	0,963650
13,517000	0,5	0,836650
13,525333	0,5	0,563300
13,533667	0,5	0,074850
13,542000	0,5	-0,342100
13,550333	0,5	-0,595900
13,558667	0,5	-0,762500
13,567000	0,5	-0,874150
13,575333	0,5	-0,962850
13,583667	0,5	-1,024750
13,592000	0,5	-1,076950
13,600333	0,5	-1,106600
13,608667	0,5	-1,126750
13,617000	0,5	-1,132250
13,625333	0,5	-1,136750
13,633667	0,5	-1,148100
13,642000	0,5	-1,170700
13,650333	0,5	-1,200750
13,658667	0,5	-1,236050
13,667000	0,5	-1,276150
13,675333	0,5	-1,312650
13,683667	0,5	-1,350150
13,692000	0,5	-1,375300
13,700333	0,5	-1,397650
13,708667	0,5	-1,415650
13,717000	0,5	-1,418350
13,725333	0,5	-1,426250
13,733667	0,5	-1,432550
13,742000	0,5	-1,430300
13,750333	0,5	-1,428650
13,758667	0,5	-1,401950
13,767000	0,5	-1,376100
13,775333	0,5	-1,354650
13,783667	0,5	-1,331750
13,792000	0,5	-1,318200
13,800333	0,5	-1,297750
13,808667	0,5	-1,287900
13,817000	0,5	-1,289850
13,825333	0,5	-1,297400
13,833667	0,5	-1,306400
13,842000	0,5	-1,321100
13,850333	0,5	-1,336050
13,858667	0,5	-1,345700
13,867000	0,5	-1,346850
13,875333	0,5	-1,354950
13,883667	0,5	-1,355550
13,892000	0,5	-1,354950
13,900333	0,5	-1,344000
13,908667	0,5	-1,323850
13,917000	0,5	-1,299100
13,925333	0,5	-1,287200
13,933667	0,5	-1,264650
13,942000	0,5	-1,245350
13,950333	0,5	-1,226700
13,958667	0,5	-1,208200
13,967000	0,5	-1,194000
13,975333	0,5	-1,178400
13,983667	0,5	-1,161900
13,992000	0,5	-1,136950
14,000333	0,5	-1,123000
14,008667	0,5	-1,094700
14,017000	0,5	-1,066400
14,025333	0,5	-1,039250
14,033667	0,5	-1,018300
14,042000	0,5	-0,991150
14,050333	0,5	-0,966950
14,058667	0,5	-0,927750
14,067000	0,5	-0,900550
14,075333	0,5	-0,874450
14,083667	0,5	-0,853050
14,092000	0,5	-0,832900
14,100333	0,5	-0,821600
14,108667	0,5	-0,808650
14,117000	0,5	-0,799250
14,125333	0,5	-0,795350
14,133667	0,5	-0,783450
14,142000	0,5	-0,771550
14,150333	0,5	-0,759500
14,158667	0,5	-0,742250
14,167000	0,5	-0,712400
14,175333	0,5	-0,691350
14,183667	0,5	-0,669750
14,192000	0,5	-0,640950
14,200333	0,5	-0,592600
14,208667	0,5	-0,548950
14,217000	0,5	-0,504750
14,225333	0,5	-0,461500
14,233667	0,5	-0,424900
14,242000	0,5	-0,393700
14,250333	0,5	-0,368150
14,258667	0,5	-0,345750
14,267000	0,5	-0,319800
14,275333	0,5	-0,297250
14,283667	0,5	-0,264850
14,292000	0,5	-0,238450
14,300333	0,5	-0,190450
14,308667	0,5	-0,158400
14,317000	0,5	-0,107200
14,325333	0,5	-0,063700
14,333667	0,5	-0,021000
14,342000	0,5	0,017700
14,350333	0,5	0,073600
14,358667	0,5	0,126750
14,367000	0,5	0,187750
14,375333	0,5	0,263950
14,383667	0,5	0,353250
14,392000	0,5	0,466250
14,400333	0,5	0,598800
14,408667	0,5	0,726700
14,417000	0,5	0,838950
14,425333	0,5	0,922300
14,433667	0,5	0,953350
14,442000	0,5	0,929450
14,450333	0,5	0,901950
14,458667	0,5	0,854100
14,467000	0,5	0,814850
14,475333	0,5	0,781450
14,483667	0,5	0,762000
14,492000	0,5	0,783750
14,500333	0,5	0,830600
14,508667	0,5	0,887050
14,517000	0,5	0,944200
14,525333	0,5	0,996350
14,533667	0,5	1,018500
14,542000	0,5	1,019300
14,550333	0,5	0,995500
14,558667	0,5	0,959800
14,567000	0,5	0,912850
14,575333	0,5	0,875400
14,583667	0,5	0,851750
14,592000	0,5	0,814900
14,600333	0,5	0,813100
14,608667	0,5	0,807450
14,617000	0,5	0,806700
14,625333	0,5	0,793900
14,633667	0,5	0,782350
14,642000	0,5	0,785600
14,650333	0,5	0,786050
14,658667	0,5	0,780150
14,667000	0,5	0,779750
14,675333	0,5	0,780600
14,683667	0,5	0,780600
14,692000	0,5	0,779100
14,700333	0,5	0,790000
14,708667	0,5	0,788700
14,717000	0,5	0,792550
14,725333	0,5	0,803100
14,733667	0,5	0,809750
14,742000	0,5	0,816500
14,750333	0,5	0,834100
14,758667	0,5	0,847200
14,767000	0,5	0,858050
14,775333	0,5	0,867650
14,783667	0,5	0,850400
14,792000	0,5	0,844000
14,800333	0,5	0,830050
14,808667	0,5	0,814800
14,817000	0,5	0,797650
14,825333	0,5	0,788600
14,833667	0,5	0,775400
14,842000	0,5	0,762550
14,850333	0,5	0,758850
14,858667	0,5	0,751400
14,867000	0,5	0,746900
14,875333	0,5	0,745700
14,883667	0,5	0,739100
14,892000	0,5	0,738800
14,900333	0,5	0,738200
14,908667	0,5	0,735500
14,917000	0,5	0,741150
14,925333	0,5	0,724150
14,933667	0,5	0,741450
14,942000	0,5	0,759550
14,950333	0,5	0,810350
14,958667	0,5	0,878900
14,967000	0,5	0,977200
14,975333	0,5	1,095250
14,983667	0,5	1,202050
14,992000	0,5	1,268000
15,000333	0,5	1,285050
15,008667	0,5	1,244350
15,017000	0,5	1,173550
15,025333	0,5	1,098000
15,033667	0,5	1,027900
15,042000	0,5	0,997000
15,050333	0,5	0,994100
15,058667	0,5	1,020300
15,067000	0,5	1,055100
15,075333	0,5	1,091850
15,083667	0,5	1,112600
15,092000	0,5	1,111350
15,100333	0,5	1,069700
15,108667	0,5	1,018750
15,117000	0,5	0,961050
15,125333	0,5	0,903000
15,133667	0,5	0,865100
15,142000	0,5	0,836500
15,150333	0,5	0,813500
15,158667	0,5	0,794200
15,167000	0,5	0,779950
15,175333	0,5	0,766850
15,183667	0,5	0,764850
15,192000	0,5	0,755450
15,200333	0,5	0,758000
15,208667	0,5	0,758950
15,217000	0,5	0,754550
15,225333	0,5	0,766000
15,233667	0,5	0,778800
15,242000	0,5	0,777250
15,250333	0,5	0,782100
15,258667	0,5	0,772150
15,267000	0,5	0,764250
15,275333	0,5	0,749200
15,283667	0,5	0,736800
15,292000	0,5	0,723450
15,300333	0,5	0,704000
15,308667	0,5	0,694800
15,317000	0,5	0,677200
15,325333	0,5	0,647850
15,333667	0,5	0,646250
15,342000	0,5	0,628900
15,350333	0,5	0,618900
15,358667	0,5	0,611750
15,367000	0,5	0,589900
15,375333	0,5	0,595350
15,383667	0,5	0,594350
15,392000	0,5	0,603200
15,400333	0,5	0,594350
15,408667	0,5	0,602300
15,417000	0,5	0,601400
15,425333	0,5	0,613700
15,433667	0,5	0,633900
15,442000	0,5	0,653600
15,450333	0,5	0,698500
15,458667	0,5	0,782000
15,467000	0,5	0,882700
15,475333	0,5	0,997550
15,483667	0,5	1,113700
15,492000	0,5	1,182350
15,500333	0,5	1,193100
15,508667	0,5	1,141750
15,517000	0,5	1,056300
15,525333	0,5	0,998100
15,533667	0,5	0,950400
15,542000	0,5	0,942700
15,550333	0,5	0,961100
15,558667	0,5	0,988800
15,567000	0,5	1,002750
15,575333	0,5	0,984850
15,583667	0,5	0,943200
15,592000	0,5	0,874850
15,600333	0,5	0,812300
15,608667	0,5	0,764500
15,617000	0,5	0,728300
15,625333	0,5	0,702350
15,633667	0,5	0,703800
15,642000	0,5	0,707050
15,650333	0,5	0,709050
15,658667	0,5	0,702750
15,667000	0,5	0,694500
15,675333	0,5	0,697900
15,683667	0,5	0,686900
15,692000	0,5	0,681000
15,700333	0,5	0,674250
15,708667	0,5	0,671200
15,717000	0,5	0,670000
15,725333	0,5	0,672550
15,733667	0,5	0,666850
15,742000	0,5	0,649050
15,750333	0,5	0,630250
15,758667	0,5	0,612450
15,767000	0,5	0,578250
15,775333	0,5	0,560900
15,783667	0,5	0,537000
15,792000	0,5	0,514350
15,800333	0,5	0,487250
15,808667	0,5	0,453100
15,817000	0,5	0,441050
15,825333	0,5	0,429900
15,833667	0,5	0,419850
15,842000	0,5	0,416650
15,850333	0,5	0,410700
15,858667	0,5	0,408050
15,867000	0,5	0,416000
15,875333	0,5	0,430250
15,883667	0,5	0,464600
15,892000	0,5	0,514400
15,900333	0,5	0,617850
15,908667	0,5	0,729100
15,917000	0,5	0,860700
15,925333	0,5	0,974550
15,933667	0,5	1,039750
15,942000	0,5	1,042850
15,950333	0,5	0,992400
15,958667	0,5	0,927950
15,967000	0,5	0,886200
15,975333	0,5	0,876300
15,983667	0,5	0,878450
15,992000	0,5	0,878950
16,000333	0,5	0,860850
16,008667	0,5	0,823900
16,017000	0,5	0,769300
16,025333	0,5	0,711450
16,033667	0,5	0,655800
16,042000	0,5	0,608400
16,050333	0,5	0,570700
16,058667	0,5	0,534600
16,067000	0,5	0,509100
16,075333	0,5	0,497000
16,083667	0,5	0,490400
16,092000	0,5	0,490600
16,100333	0,5	0,481700
16,108667	0,5	0,485350
16,117000	0,5	0,478100
16,125333	0,5	0,481950
16,133667	0,5	0,479700
16,142000	0,5	0,465150
16,150333	0,5	0,438900
16,158667	0,5	0,423300
16,167000	0,5	0,401400
16,175333	0,5	0,382100
16,183667	0,5	0,360300
16,192000	0,5	0,335500
16,200333	0,5	0,320600
16,208667	0,5	0,292000
16,217000	0,5	0,299100
16,225333	0,5	0,298800
16,233667	0,5	0,288150
16,242000	0,5	0,279000
16,250333	0,5	0,271300
16,258667	0,5	0,276950
16,267000	0,5	0,296750
16,275333	0,5	0,315550
16,283667	0,5	0,358100
16,292000	0,5	0,431350
16,300333	0,5	0,532150
16,308667	0,5	0,652400
16,317000	0,5	0,782050
16,325333	0,5	0,876900
16,333667	0,5	0,924700
16,342000	0,5	0,938800
16,350333	0,5	0,910700
16,358667	0,5	0,871500
16,367000	0,5	0,867950
16,375333	0,5	0,856100
16,383667	0,5	0,842850
16,392000	0,5	0,801100
16,400333	0,5	0,735400
16,408667	0,5	0,686250
16,417000	0,5	0,626600
16,425333	0,5	0,590600
16,433667	0,5	0,572350
16,442000	0,5	0,590250
16,450333	0,5	0,604750
16,458667	0,5	0,653000
16,467000	0,5	0,700500
16,475333	0,5	0,731300
16,483667	0,5	0,747600
16,492000	0,5	0,748750
16,500333	0,5	0,724850
16,508667	0,5	0,694850
16,517000	0,5	0,650900
16,525333	0,5	0,601250
16,533667	0,5	0,545100
16,542000	0,5	0,483550
16,550333	0,5	0,429850
16,558667	0,5	0,394400
16,567000	0,5	0,367450
16,575333	0,5	0,334350
16,583667	0,5	0,313900
16,592000	0,5	0,292600
16,600333	0,5	0,275900
16,608667	0,5	0,266850
16,617000	0,5	0,264250
16,625333	0,5	0,257050
16,633667	0,5	0,271300
16,642000	0,5	0,314550
16,650333	0,5	0,367050
16,658667	0,5	0,463100
16,667000	0,5	0,577800
16,675333	0,5	0,701400
16,683667	0,5	0,810450
16,692000	0,5	0,877300
16,700333	0,5	0,903600
16,708667	0,5	0,900900
16,717000	0,5	0,870850
16,725333	0,5	0,840300
16,733667	0,5	0,809100
16,742000	0,5	0,769500
16,750333	0,5	0,719750
16,758667	0,5	0,678650
16,767000	0,5	0,628800
16,775333	0,5	0,603300
16,783667	0,5	0,590100
16,792000	0,5	0,605400
16,800333	0,5	0,618800
16,808667	0,5	0,652250
16,817000	0,5	0,671050
16,825333	0,5	0,696250
16,833667	0,5	0,691200
16,842000	0,5	0,702100
16,850333	0,5	0,720200
16,858667	0,5	0,725400
16,867000	0,5	0,725100
16,875333	0,5	0,717450
16,883667	0,5	0,695300
16,892000	0,5	0,659450
16,900333	0,5	0,628500
16,908667	0,5	0,584200
16,917000	0,5	0,534550
16,925333	0,5	0,486800
16,933667	0,5	0,453200
16,942000	0,5	0,413600
16,950333	0,5	0,400650
16,958667	0,5	0,406700
16,967000	0,5	0,421200
16,975333	0,5	0,465350
16,983667	0,5	0,521000
16,992000	0,5	0,617100
17,000333	0,5	0,724700
17,008667	0,5	0,816750
17,017000	0,5	0,868700
17,025333	0,5	0,866100
17,033667	0,5	0,848900
17,042000	0,5	0,817300
17,050333	0,5	0,787650
17,058667	0,5	0,754450
17,067000	0,5	0,710300
17,075333	0,5	0,665300
17,083667	0,5	0,618250
17,092000	0,5	0,579050
17,100333	0,5	0,557900
17,108667	0,5	0,551750
17,117000	0,5	0,543550
17,125333	0,5	0,544550
17,133667	0,5	0,530950
17,142000	0,5	0,542200
17,150333	0,5	0,543650
17,158667	0,5	0,527750
17,167000	0,5	0,510800
17,175333	0,5	0,481550
17,183667	0,5	0,443150
17,192000	0,5	0,417350
17,200333	0,5	0,392150
17,208667	0,5	0,368900
17,217000	0,5	0,365850
17,225333	0,5	0,365950
17,233667	0,5	0,362150
17,242000	0,5	0,392300
17,250333	0,5	0,451250
17,258667	0,5	0,530350
17,267000	0,5	0,641650
17,275333	0,5	0,776050
17,283667	0,5	0,956300
17,292000	0,5	1,171250
17,300333	0,5	1,395700
17,308667	0,5	1,605250
17,317000	0,5	1,824600
17,325333	0,5	2,047450
17,333667	0,5	2,268000
17,342000	0,5	2,498300
17,350333	0,5	2,721800
17,358667	0,5	2,918400
17,367000	0,5	3,088600
17,375333	0,5	3,236000
17,383667	0,5	3,313150
17,392000	0,5	3,354900
17,400333	0,5	3,331650
17,408667	0,5	3,245650
17,417000	0,5	3,092150
17,425333	0,5	2,887050
17,433667	0,5	2,666900
17,442000	0,5	2,459350
17,450333	0,5	2,257250
17,458667	0,5	2,103550
17,467000	0,5	2,012800
17,475333	0,5	2,011950
17,483667	0,5	2,108700
17,492000	0,5	2,312550
17,500333	0,5	2,600050
17,508667	0,5	2,917900
17,517000	0,5	3,228900
17,525333	0,5	3,448800
17,533667	0,5	3,514200
17,542000	0,5	3,468700
17,550333	0,5	3,280000
17,558667	0,5	2,985450
17,567000	0,5	2,645100
17,575333	0,5	2,291450
17,583667	0,5	2,020550
17,592000	0,5	1,785750
17,600333	0,5	1,609200
17,608667	0,5	1,474700
17,617000	0,5	1,389200
17,625333	0,5	1,314050
17,633667	0,5	1,270250
17,642000	0,5	1,234800
17,650333	0,5	1,203200
17,658667	0,5	1,163450
17,667000	0,5	1,122000
17,675333	0,5	1,064300
17,683667	0,5	0,990250
17,692000	0,5	0,928200
17,700333	0,5	0,855550
17,708667	0,5	0,783400
17,717000	0,5	0,702650
17,725333	0,5	0,653350
17,733667	0,5	0,615550
17,742000	0,5	0,595000
17,750333	0,5	0,581100
17,758667	0,5	0,588300
17,767000	0,5	0,612650
17,775333	0,5	0,652700
17,783667	0,5	0,687350
17,792000	0,5	0,717950
17,800333	0,5	0,717300
17,808667	0,5	0,704700
17,817000	0,5	0,668100
17,825333	0,5	0,614750
17,833667	0,5	0,558400
17,842000	0,5	0,501150
17,850333	0,5	0,455050
17,858667	0,5	0,405500
17,867000	0,5	0,360200
17,875333	0,5	0,313350
17,883667	0,5	0,295050
17,892000	0,5	0,263500
17,900333	0,5	0,234700
17,908667	0,5	0,211100
17,917000	0,5	0,200900
17,925333	0,5	0,179200
17,933667	0,5	0,168950
17,942000	0,5	0,150700
17,950333	0,5	0,141200
17,958667	0,5	0,154300
17,967000	0,5	0,162900
17,975333	0,5	0,171000
17,983667	0,5	0,216150
17,992000	0,5	0,266600
18,000333	0,5	0,316850
18,008667	0,5	0,351650
18,017000	0,5	0,361350
18,025333	0,5	0,376050
18,033667	0,5	0,362000
18,042000	0,5	0,327050
18,050333	0,5	0,285650
18,058667	0,5	0,249450
18,067000	0,5	0,210500
18,075333	0,5	0,184150
18,083667	0,5	0,158050
18,092000	0,5	0,137450
18,100333	0,5	0,118600
18,108667	0,5	0,118200
18,117000	0,5	0,092850
18,125333	0,5	0,090000
18,133667	0,5	0,086950
18,142000	0,5	0,085050
18,150333	0,5	0,081850
18,158667	0,5	0,068850
18,167000	0,5	0,078200
18,175333	0,5	0,099100
18,183667	0,5	0,135050
18,192000	0,5	0,181900
18,200333	0,5	0,228100
18,208667	0,5	0,261550
18,217000	0,5	0,271550
18,225333	0,5	0,265650
18,233667	0,5	0,240000
18,242000	0,5	0,206300
18,250333	0,5	0,170500
18,258667	0,5	0,146650
18,267000	0,5	0,109100
18,275333	0,5	0,099200
18,283667	0,5	0,090350
18,292000	0,5	0,083950
18,300333	0,5	0,063800
18,308667	0,5	0,032850
18,317000	0,5	0,041250
18,325333	0,5	0,049100
18,333667	0,5	0,059850
18,342000	0,5	0,069950
18,350333	0,5	0,092700
18,358667	0,5	0,126900
18,367000	0,5	0,168100
18,375333	0,5	0,226200
18,383667	0,5	0,259550
18,392000	0,5	0,275900
18,400333	0,5	0,265300
18,408667	0,5	0,248550
18,417000	0,5	0,203950
18,425333	0,5	0,195950
18,433667	0,5	0,168350
18,442000	0,5	0,145900
18,450333	0,5	0,108650
18,458667	0,5	0,077500
18,467000	0,5	0,079950
18,475333	0,5	0,077650
18,483667	0,5	0,069050
18,492000	0,5	0,071850
18,500333	0,5	0,067000
18,508667	0,5	0,076750
18,517000	0,5	0,094200
18,525333	0,5	0,117300
18,533667	0,5	0,154050
18,542000	0,5	0,188200
18,550333	0,5	0,223300
18,558667	0,5	0,223300
18,567000	0,5	0,232550
18,575333	0,5	0,236050
18,583667	0,5	0,216250
18,592000	0,5	0,191150
18,600333	0,5	0,151550
18,608667	0,5	0,125700
18,617000	0,5	0,115950
18,625333	0,5	0,097400
18,633667	0,5	0,087700
18,642000	0,5	0,077700
18,650333	0,5	0,074400
18,658667	0,5	0,070400
18,667000	0,5	0,078600
18,675333	0,5	0,086150
18,683667	0,5	0,090500
18,692000	0,5	0,114050
18,700333	0,5	0,132300
18,708667	0,5	0,131400
18,717000	0,5	0,138850
18,725333	0,5	0,138550
18,733667	0,5	0,109750
18,742000	0,5	0,087050
18,750333	0,5	0,053650
18,758667	0,5	0,034400
18,767000	0,5	0,030350
18,775333	0,5	0,031200
18,783667	0,5	0,032500
18,792000	0,5	0,031800
18,800333	0,5	0,017500
18,808667	0,5	0,030550
18,817000	0,5	0,036200
18,825333	0,5	0,048450
18,833667	0,5	0,061800
18,842000	0,5	0,092200
18,850333	0,5	0,111400
18,858667	0,5	0,117000
18,867000	0,5	0,128000
18,875333	0,5	0,128000
18,883667	0,5	0,123150
18,892000	0,5	0,098700
18,900333	0,5	0,093350
18,908667	0,5	0,108750
18,917000	0,5	0,130350
18,925333	0,5	0,134850
18,933667	0,5	0,158850
18,942000	0,5	0,173000
18,950333	0,5	0,192550
18,958667	0,5	0,208200
18,967000	0,5	0,224900
18,975333	0,5	0,234650
18,983667	0,5	0,232600
18,992000	0,5	0,221000
19,000333	0,5	0,175850
19,008667	0,5	0,142400
19,017000	0,5	0,122450
19,025333	0,5	0,088100
19,033667	0,5	0,055450
19,042000	0,5	0,020800
19,050333	0,5	0,010250
19,058667	0,5	0,026850
19,067000	0,5	0,028800
19,075333	0,5	0,047450
19,083667	0,5	0,055200
19,092000	0,5	0,065750
19,100333	0,5	0,056400
19,108667	0,5	0,055650
19,117000	0,5	0,026850
19,125333	0,5	-0,003100
19,133667	0,5	-0,008900
19,142000	0,5	-0,024250
19,150333	0,5	-0,055600
19,158667	0,5	-0,052450
19,167000	0,5	-0,058450
19,175333	0,5	-0,068350
19,183667	0,5	-0,075000
19,192000	0,5	-0,082950
19,200333	0,5	-0,072500
19,208667	0,5	-0,075750
19,217000	0,5	-0,081550
19,225333	0,5	-0,092050
19,233667	0,5	-0,094300
19,242000	0,5	-0,104850
19,250333	0,5	-0,107050
19,258667	0,5	-0,118100
19,267000	0,5	-0,124650
19,275333	0,5	-0,136000
19,283667	0,5	-0,124750
19,292000	0,5	-0,139900
19,300333	0,5	-0,149050
19,308667	0,5	-0,146650
19,317000	0,5	-0,154850
19,325333	0,5	-0,172550
19,333667	0,5	-0,211900
19,342000	0,5	-0,225700
19,350333	0,5	-0,231950
19,358667	0,5	-0,228950
19,367000	0,5	-0,250100
19,375333	0,5	-0,253700
19,383667	0,5	-0,247250
19,392000	0,5	-0,256550
19,400333	0,5	-0,274350
19,408667	0,5	-0,285450
19,417000	0,5	-0,310400
19,425333	0,5	-0,319350
19,433667	0,5	-0,324650
19,442000	0,5	-0,348050
19,450333	0,5	-0,349950
19,458667	0,5	-0,343900
19,467000	0,5	-0,353350
19,475333	0,5	-0,373750
19,483667	0,5	-0,405850
19,492000	0,5	-0,410850
19,500333	0,5	-0,410000
19,508667	0,5	-0,415800
19,517000	0,5	-0,428550
19,525333	0,5	-0,432650
19,533667	0,5	-0,437400
19,542000	0,5	-0,445200
19,550333	0,5	-0,446550
19,558667	0,5	-0,449800
19,567000	0,5	-0,459700
19,575333	0,5	-0,461100
19,583667	0,5	-0,454150
19,592000	0,5	-0,470250
19,600333	0,5	-0,462950
19,608667	0,5	-0,476050
19,617000	0,5	-0,480850
19,625333	0,5	-0,499050
19,633667	0,5	-0,520450
19,642000	0,5	-0,511800
19,650333	0,5	-0,522850
19,658667	0,5	-0,528500
19,667000	0,5	-0,543900
19,675333	0,5	-0,552450
19,683667	0,5	-0,561250
19,692000	0,5	-0,570800
19,700333	0,5	-0,577800
19,708667	0,5	-0,596050
19,717000	0,5	-0,603350
19,725333	0,5	-0,603200
19,733667	0,5	-0,612250
19,742000	0,5	-0,617650
19,750333	0,5	-0,623650
19,758667	0,5	-0,625750
19,767000	0,5	-0,651250
19,775333	0,5	-0,689350
19,783667	0,5	-0,704200
19,792000	0,5	-0,707300
19,800333	0,5	-0,705800
19,808667	0,5	-0,714950
19,817000	0,5	-0,721600
19,825333	0,5	-0,736950
19,833667	0,5	-0,740800
19,842000	0,5	-0,755550
19,850333	0,5	-0,756400
19,858667	0,5	-0,776150
19,867000	0,5	-0,768300
19,875333	0,5	-0,773800
19,883667	0,5	-0,790650
19,892000	0,5	-0,803700
19,900333	0,5	-0,816000
19,908667	0,5	-0,830450
19,917000	0,5	-0,860350
19,925333	0,5	-0,899200
19,933667	0,5	-0,915650
19,942000	0,5	-0,925550
19,950333	0,5	-0,940850
19,958667	0,5	-0,947100
19,967000	0,5	-0,954400
19,975333	0,5	-0,972500
19,983667	0,5	-0,974950
19,992000	0,5	-0,964700
20,000333	0,5	-0,959600
20,008667	0,5	-0,931100
20,017000	0,5	-0,888900
20,025333	0,5	-0,845600
20,033667	0,5	-0,822650
20,042000	0,5	-0,803700
20,050333	0,5	-0,832450
20,058667	0,5	-0,868900
20,067000	0,5	-0,953750
20,075333	0,5	-1,008550
20,083667	0,5	-1,040050
20,092000	0,5	-1,080500
20,100333	0,5	-1,105500
20,108667	0,5	-1,123900
20,117000	0,5	-1,150000
20,125333	0,5	-1,167400
20,133667	0,5	-1,180600
20,142000	0,5	-1,198200
20,150333	0,5	-1,212600
20,158667	0,5	-1,230750
20,167000	0,5	-1,229050
20,175333	0,5	-1,258950
20,183667	0,5	-1,274950
20,192000	0,5	-1,291300
20,200333	0,5	-1,303900
20,208667	0,5	-1,324150
20,217000	0,5	-1,360650
20,225333	0,5	-1,375200
20,233667	0,5	-1,375250
20,242000	0,5	-1,392250
20,250333	0,5	-1,399800
20,258667	0,5	-1,409200
20,267000	0,5	-1,416700
20,275333	0,5	-1,430550
20,283667	0,5	-1,442800
20,292000	0,5	-1,453650
20,300333	0,5	-1,470800
20,308667	0,5	-1,466750
20,317000	0,5	-1,480250
20,325333	0,5	-1,515450
20,333667	0,5	-1,523050
20,342000	0,5	-1,540950
20,350333	0,5	-1,566100
20,358667	0,5	-1,592900
20,367000	0,5	-1,629850
20,375333	0,5	-1,619600
20,383667	0,5	-1,630600
20,392000	0,5	-1,642200
20,400333	0,5	-1,656800
20,408667	0,5	-1,658850
20,417000	0,5	-1,674050
20,425333	0,5	-1,692300
20,433667	0,5	-1,703800
20,442000	0,5	-1,737200
20,450333	0,5	-1,745250
20,458667	0,5	-1,750400
20,467000	0,5	-1,774400
20,475333	0,5	-1,804900
20,483667	0,5	-1,821950
20,492000	0,5	-1,858050
20,500333	0,5	-1,881450
20,508667	0,5	-1,931900
20,517000	0,5	-1,952700
20,525333	0,5	-1,966350
20,533667	0,5	-1,979700
20,542000	0,5	-2,006150
20,550333	0,5	-2,013350
20,558667	0,5	-2,033700
20,567000	0,5	-2,052900
20,575333	0,5	-2,080000
20,583667	0,5	-2,102550
20,592000	0,5	-2,129250
20,600333	0,5	-2,130250
20,608667	0,5	-2,134400
20,617000	0,5	-2,156800
20,625333	0,5	-2,166400
20,633667	0,5	-2,190950
20,642000	0,5	-2,221100
20,650333	0,5	-2,275250
20,658667	0,5	-2,331800
20,667000	0,5	-2,379350
20,675333	0,5	-2,404850
20,683667	0,5	-2,453200
20,692000	0,5	-2,489750
20,700333	0,5	-2,515150
20,708667	0,5	-2,539900
20,717000	0,5	-2,575100
20,725333	0,5	-2,602950
20,733667	0,5	-2,640100
20,742000	0,5	-2,671200
20,750333	0,5	-2,668100
20,758667	0,5	-2,688200
20,767000	0,5	-2,706300
20,775333	0,5	-2,727000
20,783667	0,5	-2,736700
20,792000	0,5	-2,761550
20,800333	0,5	-2,777450
20,808667	0,5	-2,806850
20,817000	0,5	-2,818400
20,825333	0,5	-2,861400
20,833667	0,5	-2,892700
20,842000	0,5	-2,953600
20,850333	0,5	-2,991400
20,858667	0,5	-3,044000
20,867000	0,5	-3,078000
20,875333	0,5	-3,119850
20,883667	0,5	-3,165550
20,892000	0,5	-3,175650
20,900333	0,5	-3,184750
20,908667	0,5	-3,221200
20,917000	0,5	-3,250500
20,925333	0,5	-3,278200
20,933667	0,5	-3,320450
20,942000	0,5	-3,356550
20,950333	0,5	-3,404350
20,958667	0,5	-3,418100
20,967000	0,5	-3,441950
20,975333	0,5	-3,460800
20,983667	0,5	-3,492950
20,992000	0,5	-3,512000
21,000333	0,5	-3,565900
21,008667	0,5	-3,599500
21,017000	0,5	-3,631550
21,025333	0,5	-3,664350
21,033667	0,5	-3,690950
21,042000	0,5	-3,691800
21,050333	0,5	-3,708050
21,058667	0,5	-3,737750
21,067000	0,5	-3,758300
21,075333	0,5	-3,778700
21,083667	0,5	-3,824000
21,092000	0,5	-3,885500
21,100333	0,5	-3,918950
21,108667	0,5	-3,951000
21,117000	0,5	-3,961450
21,125333	0,5	-3,986550
21,133667	0,5	-4,006600
21,142000	0,5	-4,045700
21,150333	0,5	-4,066950
21,158667	0,5	-4,094150
21,167000	0,5	-4,119300
21,175333	0,5	-4,140300
21,183667	0,5	-4,154600
21,192000	0,5	-4,154800
21,200333	0,5	-4,166650
21,208667	0,5	-4,197650
21,217000	0,5	-4,232050
21,225333	0,5	-4,261900
21,233667	0,5	-4,301100
21,242000	0,5	-4,344250
21,250333	0,5	-4,364050
21,258667	0,5	-4,371100
21,267000	0,5	-4,399300
21,275333	0,5	-4,408350
21,283667	0,5	-4,426000
21,292000	0,5	-4,436850
21,300333	0,5	-4,458000
21,308667	0,5	-4,468600
21,317000	0,5	-4,475500
21,325333	0,5	-4,491000
21,333667	0,5	-4,460450
21,342000	0,5	-4,441950
21,350333	0,5	-4,449150
21,358667	0,5	-4,452500
21,367000	0,5	-4,470750
21,375333	0,5	-4,511350
21,383667	0,5	-4,554450
21,392000	0,5	-4,606150
21,400333	0,5	-4,614050
21,408667	0,5	-4,653100
21,417000	0,5	-4,658050
21,425333	0,5	-4,671250
21,433667	0,5	-4,694300
21,442000	0,5	-4,720050
21,450333	0,5	-4,742250
21,458667	0,5	-4,760150
21,467000	0,5	-4,784400
21,475333	0,5	-4,778900
21,483667	0,5	-4,766300
21,492000	0,5	-4,768650
21,500333	0,5	-4,798500
21,508667	0,5	-4,819500
21,517000	0,5	-4,841650
21,525333	0,5	-4,876550
21,533667	0,5	-4,915300
21,542000	0,5	-4,935800
21,550333	0,5	-4,947000
21,558667	0,5	-4,959700
21,567000	0,5	-4,976750
21,575333	0,5	-4,983350
21,583667	0,5	-5,007850
21,592000	0,5	-5,025800
21,600333	0,5	-5,043000
21,608667	0,5	-5,056150
21,617000	0,5	-5,073400
21,625333	0,5	-5,057150
21,633667	0,5	-5,058850
21,642000	0,5	-5,071150
21,650333	0,5	-5,082200
21,658667	0,5	-5,102800
21,667000	0,5	-5,115000
21,675333	0,5	-5,145000
21,683667	0,5	-5,176400
21,692000	0,5	-5,176350
21,700333	0,5	-5,160850
21,708667	0,5	-5,153600
21,717000	0,5	-5,147900
21,725333	0,5	-5,145150
21,733667	0,5	-5,159000
21,742000	0,5	-5,185750
21,750333	0,5	-5,207950
21,758667	0,5	-5,240950
21,767000	0,5	-5,260050
21,775333	0,5	-5,256250
21,783667	0,5	-5,265250
21,792000	0,5	-5,278800
21,800333	0,5	-5,305750
21,808667	0,5	-5,333950
21,817000	0,5	-5,371600
21,825333	0,5	-5,396850
21,833667	0,5	-5,414050
21,842000	0,5	-5,408500
21,850333	0,5	-5,418700
21,858667	0,5	-5,409800
21,867000	0,5	-5,413150
21,875333	0,5	-5,394950
21,883667	0,5	-5,404400
21,892000	0,5	-5,388200
21,900333	0,5	-5,385150
21,908667	0,5	-5,392050
21,917000	0,5	-5,375650
21,925333	0,5	-5,379600
21,933667	0,5	-5,390000
21,942000	0,5	-5,386150
21,950333	0,5	-5,379950
21,958667	0,5	-5,390100
21,967000	0,5	-5,395300
21,975333	0,5	-5,384400
21,983667	0,5	-5,348900
21,992000	0,5	-5,343100
22,000333	0,5	-5,350800
22,008667	0,5	-5,372050
22,017000	0,5	-5,409000
22,025333	0,5	-5,439100
22,033667	0,5	-5,462250
22,042000	0,5	-5,494150
22,050333	0,5	-5,515500
22,058667	0,5	-5,542800
22,067000	0,5	-5,568950
22,075333	0,5	-5,610550
22,083667	0,5	-5,631850
22,092000	0,5	-5,643600
22,100333	0,5	-5,670600
22,108667	0,5	-5,714450
22,117000	0,5	-5,760400
22,125333	0,5	-5,778850
22,133667	0,5	-5,790900
22,142000	0,5	-5,802700
22,150333	0,5	-5,839350
22,158667	0,5	-5,851800
22,167000	0,5	-5,883400
22,175333	0,5	-5,896650
22,183667	0,5	-5,914150
22,192000	0,5	-5,936050
22,200333	0,5	-5,960250
22,208667	0,5	-5,999700
22,217000	0,5	-6,014750
22,225333	0,5	-6,048650
22,233667	0,5	-6,035650
22,242000	0,5	-6,062350
22,250333	0,5	-6,088500
22,258667	0,5	-6,116700
22,267000	0,5	-6,133400
22,275333	0,5	-6,146200
22,283667	0,5	-6,153350
22,292000	0,5	-6,172550
22,300333	0,5	-6,175250
22,308667	0,5	-6,196300
22,317000	0,5	-6,192850
22,325333	0,5	-6,208300
22,333667	0,5	-6,200200
22,342000	0,5	-6,197550
22,350333	0,5	-6,203250
22,358667	0,5	-6,202850
22,367000	0,5	-6,210550
22,375333	0,5	-6,183000
22,383667	0,5	-6,156100
22,392000	0,5	-6,138750
22,400333	0,5	-6,104750
22,408667	0,5	-6,080400
22,417000	0,5	-6,080600
22,425333	0,5	-6,087950
22,433667	0,5	-6,129950
22,442000	0,5	-6,172900
22,450333	0,5	-6,221250
22,458667	0,5	-6,245550
22,467000	0,5	-6,280100
22,475333	0,5	-6,310150
22,483667	0,5	-6,330800
22,492000	0,5	-6,369000
22,500333	0,5	-6,401850
22,508667	0,5	-6,417850
22,517000	0,5	-6,438450
22,525333	0,5	-6,442400
22,533667	0,5	-6,452150
22,542000	0,5	-6,466350
22,550333	0,5	-6,489850
22,558667	0,5	-6,530650
22,567000	0,5	-6,528200
22,575333	0,5	-6,543300
22,583667	0,5	-6,546900
22,592000	0,5	-6,557800
22,600333	0,5	-6,564250
22,608667	0,5	-6,557750
22,617000	0,5	-6,556050
22,625333	0,5	-6,556850
22,633667	0,5	-6,541250
22,642000	0,5	-6,537850
22,650333	0,5	-6,585250
22,658667	0,5	-6,565150
22,667000	0,5	-6,532450
22,675333	0,5	-6,499150
22,683667	0,5	-6,508950
22,692000	0,5	-6,506450
22,700333	0,5	-6,539350
22,708667	0,5	-6,561200
22,717000	0,5	-6,589200
22,725333	0,5	-6,606550
22,733667	0,5	-6,618850
22,742000	0,5	-6,635800
22,750333	0,5	-6,668400
22,758667	0,5	-6,673200
22,767000	0,5	-6,699150
22,775333	0,5	-6,708800
22,783667	0,5	-6,717400
22,792000	0,5	-6,765600
22,800333	0,5	-6,806850
22,808667	0,5	-6,796550
22,817000	0,5	-6,784350
22,825333	0,5	-6,783850
22,833667	0,5	-6,792250
22,842000	0,5	-6,792300
22,850333	0,5	-6,810750
22,858667	0,5	-6,812100
22,867000	0,5	-6,821150
22,875333	0,5	-6,813500
22,883667	0,5	-6,816400
22,892000	0,5	-6,810050
22,900333	0,5	-6,797400
22,908667	0,5	-6,797950
22,917000	0,5	-6,776350
22,925333	0,5	-6,754200
22,933667	0,5	-6,735400
22,942000	0,5	-6,703250
22,950333	0,5	-6,696100
22,958667	0,5	-6,652750
22,967000	0,5	-6,645550
22,975333	0,5	-6,635850
22,983667	0,5	-6,589300
22,992000	0,5	-6,551350
23,000333	0,5	-6,525700
23,008667	0,5	-6,502700
23,017000	0,5	-6,454350
23,025333	0,5	-6,420350
23,033667	0,5	-6,379550
23,042000	0,5	-6,339800
23,050333	0,5	-6,262400
23,058667	0,5	-6,215500
23,067000	0,5	-6,151600
23,075333	0,5	-6,074500
23,083667	0,5	-5,965350
23,092000	0,5	-5,892150
23,100333	0,5	-5,819500
23,108667	0,5	-5,792100
23,117000	0,5	-5,728450
23,125333	0,5	-5,658850
23,133667	0,5	-5,581250
23,142000	0,5	-5,489050
23,150333	0,5	-5,438500
23,158667	0,5	-5,367900
23,167000	0,5	-5,314800
23,175333	0,5	-5,234600
23,183667	0,5	-5,171750
23,192000	0,5	-5,089250
23,200333	0,5	-5,015100
23,208667	0,5	-4,930850
23,217000	0,5	-4,860850
23,225333	0,5	-4,766500
23,233667	0,5	-4,658200
23,242000	0,5	-4,573000
23,250333	0,5	-4,485650
23,258667	0,5	-4,446100
23,267000	0,5	-4,386650
23,275333	0,5	-4,317950
23,283667	0,5	-4,239150
23,292000	0,5	-4,156600
23,300333	0,5	-4,101600
23,308667	0,5	-4,056600
23,317000	0,5	-3,983400
23,325333	0,5	-3,930550
23,333667	0,5	-3,869200
23,342000	0,5	-3,817200
23,350333	0,5	-3,740500
23,358667	0,5	-3,695600
23,367000	0,5	-3,624200
23,375333	0,5	-3,541700
23,383667	0,5	-3,534400
23,392000	0,5	-3,429650
23,400333	0,5	-3,348850
23,408667	0,5	-3,310350
23,417000	0,5	-3,267900
23,425333	0,5	-3,209900
23,433667	0,5	-3,153550
23,442000	0,5	-3,108000
23,450333	0,5	-3,074900
23,458667	0,5	-3,041450
23,467000	0,5	-2,998600
23,475333	0,5	-2,955350
23,483667	0,5	-2,920400
23,492000	0,5	-2,880000
23,500333	0,5	-2,850950
23,508667	0,5	-2,815800
23,517000	0,5	-2,776500
23,525333	0,5	-2,792650
23,533667	0,5	-2,787850
23,542000	0,5	-2,726050
23,550333	0,5	-2,652050
23,558667	0,5	-2,617500
23,567000	0,5	-2,589500
23,575333	0,5	-2,554350
23,583667	0,5	-2,525700
23,592000	0,5	-2,500300
23,600333	0,5	-2,479450
23,608667	0,5	-2,449200
23,617000	0,5	-2,427800
23,625333	0,5	-2,395550
23,633667	0,5	-2,376700
23,642000	0,5	-2,355200
23,650333	0,5	-2,324700
23,658667	0,5	-2,304250
23,667000	0,5	-2,274050
23,675333	0,5	-2,371200
23,683667	0,5	-2,357800
23,692000	0,5	-2,276200
23,700333	0,5	-2,216850
23,708667	0,5	-2,182450
23,717000	0,5	-2,155800
23,725333	0,5	-2,135300
23,733667	0,5	-2,121750
23,742000	0,5	-2,102800
23,750333	0,5	-2,085700
23,758667	0,5	-2,065700
23,767000	0,5	-2,043350
23,775333	0,5	-2,022400
23,783667	0,5	-2,002500
23,792000	0,5	-1,977800
23,800333	0,5	-1,954550
23,808667	0,5	-1,922100
23,817000	0,5	-1,928450
23,825333	0,5	-2,056750
23,833667	0,5	-2,006850
23,842000	0,5	-1,931950
23,850333	0,5	-1,866300
23,858667	0,5	-1,828950
23,867000	0,5	-1,796800
23,875333	0,5	-1,785500
23,883667	0,5	-1,768700
23,892000	0,5	-1,738650
23,900333	0,5	-1,715050
23,908667	0,5	-1,696100
23,917000	0,5	-1,673550
23,925333	0,5	-1,658600
23,933667	0,5	-1,637450
23,942000	0,5	-1,611000
23,950333	0,5	-1,595900
23,958667	0,5	-1,574350
23,967000	0,5	-1,683500
23,975333	0,5	-1,674500
23,983667	0,5	-1,664850
23,992000	0,5	-1,579950
24,000333	0,5	-1,534450
24,008667	0,5	-1,495950
24,017000	0,5	-1,476150
24,025333	0,5	-1,473900
24,033667	0,5	-1,446900
24,042000	0,5	-1,407150
24,050333	0,5	-1,389700
24,058667	0,5	-1,362100
24,067000	0,5	-1,337950
24,075333	0,5	-1,317400
24,083667	0,5	-1,289500
24,092000	0,5	-1,261950
24,100333	0,5	-1,239450
24,108667	0,5	-1,230300
24,117000	0,5	-1,335650
24,125333	0,5	-1,321800
24,133667	0,5	-1,296150
24,142000	0,5	-1,224500
24,150333	0,5	-1,189950
24,158667	0,5	-1,165800
24,167000	0,5	-1,143400
24,175333	0,5	-1,154650
24,183667	0,5	-1,117550
24,192000	0,5	-1,098200
24,200333	0,5	-1,074850
24,208667	0,5	-1,060250
24,217000	0,5	-1,033350
24,225333	0,5	-1,021350
24,233667	0,5	-1,003850
24,242000	0,5	-0,980500
24,250333	0,5	-0,956100
24,258667	0,5	-0,994400
24,267000	0,5	-1,039600
24,275333	0,5	-1,015400
24,283667	0,5	-0,961700
24,292000	0,5	-0,917100
24,300333	0,5	-0,886450
24,308667	0,5	-0,866800
24,317000	0,5	-0,858350
24,325333	0,5	-0,864050
24,333667	0,5	-0,845550
24,342000	0,5	-0,821500
24,350333	0,5	-0,809500
24,358667	0,5	-0,791050
24,367000	0,5	-0,778650
24,375333	0,5	-0,759600
24,383667	0,5	-0,747500
24,392000	0,5	-0,726950
24,400333	0,5	-0,714150
24,408667	0,5	-0,783150
24,417000	0,5	-0,774650
24,425333	0,5	-0,758050
24,433667	0,5	-0,728250
24,442000	0,5	-0,696250
24,450333	0,5	-0,678800
24,458667	0,5	-0,664350
24,467000	0,5	-0,660550
24,475333	0,5	-0,658450
24,483667	0,5	-0,635850
24,492000	0,5	-0,620300
24,500333	0,5	-0,605800
24,508667	0,5	-0,596300
24,517000	0,5	-0,578700
24,525333	0,5	-0,571800
24,533667	0,5	-0,559600
24,542000	0,5	-0,544200
24,550333	0,5	-0,537900
24,558667	0,5	-0,588600
24,567000	0,5	-0,568800
24,575333	0,5	-0,554750
24,583667	0,5	-0,528550
24,592000	0,5	-0,510550
24,600333	0,5	-0,496950
24,608667	0,5	-0,500800
24,617000	0,5	-0,500850
24,625333	0,5	-0,497650
24,633667	0,5	-0,493750
24,642000	0,5	-0,481950
24,650333	0,5	-0,472600
24,658667	0,5	-0,466350
24,667000	0,5	-0,458950
24,675333	0,5	-0,445700
24,683667	0,5	-0,433950
24,692000	0,5	-0,427100
24,700333	0,5	-0,438050
24,708667	0,5	-0,447850
24,717000	0,5	-0,444950
24,725333	0,5	-0,421950
24,733667	0,5	-0,404850
24,742000	0,5	-0,395850
24,750333	0,5	-0,388150
24,758667	0,5	-0,385750
24,767000	0,5	-0,383050
24,775333	0,5	-0,377350
24,783667	0,5	-0,371950
24,792000	0,5	-0,368650
24,800333	0,5	-0,366800
24,808667	0,5	-0,365650
24,817000	0,5	-0,359200
24,825333	0,5	-0,354500
24,833667	0,5	-0,350450
24,842000	0,5	-0,350600
24,850333	0,5	-0,364800
24,858667	0,5	-0,361300
24,867000	0,5	-0,358100
24,875333	0,5	-0,346350
24,883667	0,5	-0,337100
24,892000	0,5	-0,322950
24,900333	0,5	-0,318450
24,908667	0,5	-0,322900
24,917000	0,5	-0,312350
24,925333	0,5	-0,307900
24,933667	0,5	-0,307600
24,942000	0,5	-0,299200
24,950333	0,5	-0,299150
24,958667	0,5	-0,296500
24,967000	0,5	-0,292500
24,975333	0,5	-0,288550
24,983667	0,5	-0,286150
24,992000	0,5	-0,286750
25,000333	0,5	-0,297550
25,008667	0,5	-0,293550
25,017000	0,5	-0,288700
25,025333	0,5	-0,288750
25,033667	0,5	-0,292350
25,042000	0,5	-0,288050
25,050333	0,5	-0,287600
25,058667	0,5	-0,283350
25,067000	0,5	-0,287600
25,075333	0,5	-0,277600
25,083667	0,5	-0,285400
25,092000	0,5	-0,273200
25,100333	0,5	-0,274600
25,108667	0,5	-0,273250
25,117000	0,5	-0,265650
25,125333	0,5	-0,266600
25,133667	0,5	-0,267500
25,142000	0,5	-0,269100
25,150333	0,5	-0,265600
25,158667	0,5	-0,264700
25,167000	0,5	-0,262050
25,175333	0,5	-0,261650
25,183667	0,5	-0,265150
25,192000	0,5	-0,261900
25,200333	0,5	-0,266000
25,208667	0,5	-0,267850
25,217000	0,5	-0,273900
25,225333	0,5	-0,271750
25,233667	0,5	-0,271850
25,242000	0,5	-0,274050
25,250333	0,5	-0,273750
25,258667	0,5	-0,273550
25,267000	0,5	-0,273200
25,275333	0,5	-0,269900
25,283667	0,5	-0,268750
25,292000	0,5	-0,261750
25,300333	0,5	-0,255800
25,308667	0,5	-0,252150
25,317000	0,5	-0,259100
25,325333	0,5	-0,262850
25,333667	0,5	-0,260050
25,342000	0,5	-0,259250
25,350333	0,5	-0,254300
25,358667	0,5	-0,258000
25,367000	0,5	-0,259400
25,375333	0,5	-0,266400
25,383667	0,5	-0,261300
25,392000	0,5	-0,269600
25,400333	0,5	-0,269250
25,408667	0,5	-0,273450
25,417000	0,5	-0,277850
25,425333	0,5	-0,278000
25,433667	0,5	-0,275950
25,442000	0,5	-0,266100
25,450333	0,5	-0,270600
25,458667	0,5	-0,270650
25,467000	0,5	-0,272000
25,475333	0,5	-0,273850
25,483667	0,5	-0,272750
25,492000	0,5	-0,273400
25,500333	0,5	-0,264000
25,508667	0,5	-0,266000
25,517000	0,5	-0,265300
25,525333	0,5	-0,270100
25,533667	0,5	-0,267600
25,542000	0,5	-0,272450
25,550333	0,5	-0,274300
25,558667	0,5	-0,283700
25,567000	0,5	-0,283600
25,575333	0,5	-0,285800
25,583667	0,5	-0,280300
25,592000	0,5	-0,273450
25,600333	0,5	-0,276650
25,608667	0,5	-0,277900
25,617000	0,5	-0,292450
25,625333	0,5	-0,290950
25,633667	0,5	-0,291700
25,642000	0,5	-0,285900
25,650333	0,5	-0,283750
25,658667	0,5	-0,285550
25,667000	0,5	-0,290150
25,675333	0,5	-0,290250
25,683667	0,5	-0,296150
25,692000	0,5	-0,292800
25,700333	0,5	-0,289750
25,708667	0,5	-0,296050
25,717000	0,5	-0,296150
25,725333	0,5	-0,299000
25,733667	0,5	-0,288700
25,742000	0,5	-0,292900
25,750333	0,5	-0,274500
25,758667	0,5	-0,293550
25,767000	0,5	-0,295200
25,775333	0,5	-0,296050
25,783667	0,5	-0,295700
25,792000	0,5	-0,280250
25,800333	0,5	-0,285150
25,808667	0,5	-0,291100
25,817000	0,5	-0,288650
25,825333	0,5	-0,293100
25,833667	0,5	-0,291700
25,842000	0,5	-0,292050
25,850333	0,5	-0,293200
25,858667	0,5	-0,291900
25,867000	0,5	-0,290650
25,875333	0,5	-0,284950
25,883667	0,5	-0,284750
25,892000	0,5	-0,287600
25,900333	0,5	-0,277350
25,908667	0,5	-0,286900
25,917000	0,5	-0,291050
25,925333	0,5	-0,283000
25,933667	0,5	-0,282100
25,942000	0,5	-0,257800
25,950333	0,5	-0,272550
25,958667	0,5	-0,269550
25,967000	0,5	-0,271000
25,975333	0,5	-0,267800
25,983667	0,5	-0,267100
25,992000	0,5	-0,267100
26,000333	0,5	-0,266650
