File Path	chrom://chromeleon01/ikbm_chromeleon/2022/ICS-5000/ED1/Esteban/20220427_Cell_Amandas_mutants.seq/773.smp/ED_1.channel/ED_1.chm
Channel	ED_1

Injection Information:
Data Vault	ikbm_chromeleon
Injection	EG_PASC_2b
Injection Number	45
Position	RE5
Comment	
Processing Method	Stop sequence after Cell Death
Instrument Method	ICS5000_PA200_FullNative_Ox_26min_ED1
Type	Unknown
Status	Finished
Injection Date	28.04.2022
Injection Time	09:57:03
Injection Volume (µl)	5,0
Dilution Factor	1,0000
Weight	1,0000

Chromatogram Data Information:
Time Min. (min)	0,000333
Time Max. (min)	26,000333
Data Points	3121
Detector	EDet1
Generating Data System	Chromeleon 7.2.9.11323
Exporting Data System	Chromeleon 7.2.9.0
Operator	Instrument Controller
Signal Quantity	
Signal Unit	nC
Signal Min.	-7,944700
Signal Max.	2 778,398991
Channel	ED_1
Driver Name	DC-5000
Channel Type	Evaluation
Min. Step (s)	0,5
Max. Step (s)	0,5
Average Step (s)	0,5

Signal Parameter Information:
Signal Info	

Chromatogram Data:
Time (min)	Step (s)	Value (nC)
0,000333	n.a.	-0,083650
0,008667	0,5	-0,080700
0,017000	0,5	-0,068850
0,025333	0,5	-0,057550
0,033667	0,5	-0,061050
0,042000	0,5	-0,034000
0,050333	0,5	-0,008550
0,058667	0,5	0,016900
0,067000	0,5	-0,001750
0,075333	0,5	0,008250
0,083667	0,5	-0,002050
0,092000	0,5	0,002200
0,100333	0,5	-0,004700
0,108667	0,5	0,001000
0,117000	0,5	-0,006400
0,125333	0,5	-0,003350
0,133667	0,5	0,012400
0,142000	0,5	0,009500
0,150333	0,5	-0,001350
0,158667	0,5	0,035100
0,167000	0,5	0,011250
0,175333	0,5	-0,012100
0,183667	0,5	-0,015400
0,192000	0,5	-0,007950
0,200333	0,5	0,040100
0,208667	0,5	0,030900
0,217000	0,5	0,023450
0,225333	0,5	0,013350
0,233667	0,5	0,030000
0,242000	0,5	0,004450
0,250333	0,5	0,016150
0,258667	0,5	0,008350
0,267000	0,5	0,009200
0,275333	0,5	0,005850
0,283667	0,5	0,000850
0,292000	0,5	0,034550
0,300333	0,5	0,070600
0,308667	0,5	0,126400
0,317000	0,5	0,047450
0,325333	0,5	-0,009000
0,333667	0,5	-0,017950
0,342000	0,5	-0,007400
0,350333	0,5	0,029900
0,358667	0,5	0,024950
0,367000	0,5	0,001700
0,375333	0,5	0,011750
0,383667	0,5	0,001050
0,392000	0,5	0,001300
0,400333	0,5	-0,004100
0,408667	0,5	-0,002600
0,417000	0,5	-0,011650
0,425333	0,5	-0,010050
0,433667	0,5	0,003850
0,442000	0,5	0,002050
0,450333	0,5	-0,015000
0,458667	0,5	0,010300
0,467000	0,5	-0,027700
0,475333	0,5	-0,030900
0,483667	0,5	-0,029050
0,492000	0,5	-0,007200
0,500333	0,5	0,034400
0,508667	0,5	0,011300
0,517000	0,5	0,011800
0,525333	0,5	0,000550
0,533667	0,5	0,015850
0,542000	0,5	0,005950
0,550333	0,5	0,012950
0,558667	0,5	0,003650
0,567000	0,5	0,002150
0,575333	0,5	0,000300
0,583667	0,5	0,003800
0,592000	0,5	-0,014600
0,600333	0,5	-0,002900
0,608667	0,5	-0,010250
0,617000	0,5	-0,024950
0,625333	0,5	-0,023900
0,633667	0,5	0,000600
0,642000	0,5	0,029450
0,650333	0,5	0,047950
0,658667	0,5	0,044150
0,667000	0,5	0,033800
0,675333	0,5	0,042150
0,683667	0,5	0,024150
0,692000	0,5	0,017950
0,700333	0,5	0,018250
0,708667	0,5	0,021500
0,717000	0,5	0,013500
0,725333	0,5	0,025150
0,733667	0,5	0,017800
0,742000	0,5	0,028900
0,750333	0,5	0,047850
0,758667	0,5	0,030550
0,767000	0,5	0,015200
0,775333	0,5	0,016300
0,783667	0,5	0,028750
0,792000	0,5	0,060500
0,800333	0,5	0,077800
0,808667	0,5	0,069800
0,817000	0,5	0,063250
0,825333	0,5	0,070300
0,833667	0,5	0,069100
0,842000	0,5	0,071350
0,850333	0,5	0,063650
0,858667	0,5	0,054150
0,867000	0,5	0,065650
0,875333	0,5	0,065850
0,883667	0,5	0,075800
0,892000	0,5	0,072650
0,900333	0,5	0,092400
0,908667	0,5	0,067600
0,917000	0,5	0,065950
0,925333	0,5	0,066900
0,933667	0,5	0,107350
0,942000	0,5	0,132050
0,950333	0,5	0,126150
0,958667	0,5	0,112100
0,967000	0,5	0,120100
0,975333	0,5	0,110450
0,983667	0,5	0,113300
0,992000	0,5	0,114050
1,000333	0,5	0,115600
1,008667	0,5	0,114300
1,017000	0,5	0,116550
1,025333	0,5	0,122100
1,033667	0,5	0,106850
1,042000	0,5	0,146100
1,050333	0,5	0,132200
1,058667	0,5	0,124100
1,067000	0,5	0,120800
1,075333	0,5	0,134500
1,083667	0,5	0,163550
1,092000	0,5	0,178500
1,100333	0,5	0,156500
1,108667	0,5	0,174100
1,117000	0,5	0,171850
1,125333	0,5	0,175100
1,133667	0,5	0,174650
1,142000	0,5	0,188050
1,150333	0,5	0,182200
1,158667	0,5	0,184100
1,167000	0,5	0,196150
1,175333	0,5	0,183700
1,183667	0,5	0,171800
1,192000	0,5	0,212200
1,200333	0,5	0,193600
1,208667	0,5	0,190750
1,217000	0,5	0,194050
1,225333	0,5	0,204550
1,233667	0,5	0,263800
1,242000	0,5	0,264250
1,250333	0,5	0,266450
1,258667	0,5	0,252350
1,267000	0,5	0,265300
1,275333	0,5	0,255200
1,283667	0,5	0,267150
1,292000	0,5	0,267300
1,300333	0,5	0,277800
1,308667	0,5	0,281250
1,317000	0,5	0,291800
1,325333	0,5	0,291250
1,333667	0,5	0,287550
1,342000	0,5	0,330050
1,350333	0,5	0,310700
1,358667	0,5	0,310200
1,367000	0,5	0,312950
1,375333	0,5	0,340900
1,383667	0,5	0,382350
1,392000	0,5	0,385200
1,400333	0,5	0,379700
1,408667	0,5	0,392100
1,417000	0,5	0,391550
1,425333	0,5	0,404000
1,433667	0,5	0,406700
1,442000	0,5	0,428750
1,450333	0,5	0,419950
1,458667	0,5	0,430200
1,467000	0,5	0,441500
1,475333	0,5	0,445000
1,483667	0,5	0,445850
1,492000	0,5	0,478550
1,500333	0,5	0,458300
1,508667	0,5	0,466500
1,517000	0,5	0,473600
1,525333	0,5	0,510800
1,533667	0,5	0,550550
1,542000	0,5	0,544250
1,550333	0,5	0,554150
1,558667	0,5	0,563350
1,567000	0,5	0,569300
1,575333	0,5	0,465450
1,583667	0,5	-0,074250
1,592000	0,5	-1,138800
1,600333	0,5	-1,293950
1,608667	0,5	0,770750
1,617000	0,5	4,239250
1,625333	0,5	8,511950
1,633667	0,5	13,969200
1,642000	0,5	19,140550
1,650333	0,5	21,578700
1,658667	0,5	21,053550
1,667000	0,5	19,232650
1,675333	0,5	17,269000
1,683667	0,5	15,393100
1,692000	0,5	13,604100
1,700333	0,5	12,037350
1,708667	0,5	10,765800
1,717000	0,5	9,886050
1,725333	0,5	9,379700
1,733667	0,5	8,933600
1,742000	0,5	8,225150
1,750333	0,5	7,375450
1,758667	0,5	6,759300
1,767000	0,5	6,616900
1,775333	0,5	7,210550
1,783667	0,5	8,506100
1,792000	0,5	10,123600
1,800333	0,5	11,474150
1,808667	0,5	11,945050
1,817000	0,5	11,516700
1,825333	0,5	10,747750
1,833667	0,5	9,915100
1,842000	0,5	9,122000
1,850333	0,5	8,367500
1,858667	0,5	7,694150
1,867000	0,5	7,098000
1,875333	0,5	6,625450
1,883667	0,5	6,221750
1,892000	0,5	5,860200
1,900333	0,5	5,543700
1,908667	0,5	5,259550
1,917000	0,5	5,022450
1,925333	0,5	4,889900
1,933667	0,5	4,937950
1,942000	0,5	5,291400
1,950333	0,5	5,870250
1,958667	0,5	6,192250
1,967000	0,5	6,282450
1,975333	0,5	7,302300
1,983667	0,5	12,116850
1,992000	0,5	25,804400
2,000333	0,5	56,182201
2,008667	0,5	121,901852
2,017000	0,5	277,759104
2,025333	0,5	582,956109
2,033667	0,5	914,411814
2,042000	0,5	1 031,253665
2,050333	0,5	907,320564
2,058667	0,5	684,226910
2,067000	0,5	491,260557
2,075333	0,5	364,469005
2,083667	0,5	283,206754
2,092000	0,5	227,561903
2,100333	0,5	187,129953
2,108667	0,5	156,727802
2,117000	0,5	133,450202
2,125333	0,5	115,335502
2,133667	0,5	100,906402
2,142000	0,5	89,411101
2,150333	0,5	80,617351
2,158667	0,5	73,947501
2,167000	0,5	67,789551
2,175333	0,5	61,331401
2,183667	0,5	55,160601
2,192000	0,5	50,064501
2,200333	0,5	46,031001
2,208667	0,5	42,739201
2,217000	0,5	39,998101
2,225333	0,5	37,761351
2,233667	0,5	35,845601
2,242000	0,5	34,233051
2,250333	0,5	32,835650
2,258667	0,5	31,652150
2,267000	0,5	30,687500
2,275333	0,5	29,791600
2,283667	0,5	28,914400
2,292000	0,5	28,044350
2,300333	0,5	27,247500
2,308667	0,5	26,535450
2,317000	0,5	25,952100
2,325333	0,5	25,425050
2,333667	0,5	24,953950
2,342000	0,5	24,503500
2,350333	0,5	24,124850
2,358667	0,5	23,788450
2,367000	0,5	23,547450
2,375333	0,5	23,395750
2,383667	0,5	23,274750
2,392000	0,5	23,200900
2,400333	0,5	23,227700
2,408667	0,5	23,455400
2,417000	0,5	24,034350
2,425333	0,5	24,619800
2,433667	0,5	24,475100
2,442000	0,5	23,584450
2,450333	0,5	22,844350
2,458667	0,5	22,430300
2,467000	0,5	22,130350
2,475333	0,5	21,881050
2,483667	0,5	21,666600
2,492000	0,5	21,508250
2,500333	0,5	21,399300
2,508667	0,5	21,323200
2,517000	0,5	21,262400
2,525333	0,5	21,221350
2,533667	0,5	21,132200
2,542000	0,5	21,092750
2,550333	0,5	21,118150
2,558667	0,5	21,285250
2,567000	0,5	21,638350
2,575333	0,5	22,362750
2,583667	0,5	23,916800
2,592000	0,5	26,946850
2,600333	0,5	32,609200
2,608667	0,5	48,268901
2,617000	0,5	88,460901
2,625333	0,5	149,729102
2,633667	0,5	226,284303
2,642000	0,5	330,922505
2,650333	0,5	537,129558
2,658667	0,5	1 024,637415
2,667000	0,5	1 563,147873
2,675333	0,5	2 336,280985
2,683667	0,5	2 641,339739
2,692000	0,5	2 758,460941
2,700333	0,5	2 778,398991
2,708667	0,5	2 746,488641
2,717000	0,5	2 677,384990
2,725333	0,5	2 574,819138
2,733667	0,5	2 440,901486
2,742000	0,5	2 276,979934
2,750333	0,5	2 088,014931
2,758667	0,5	1 885,197078
2,767000	0,5	1 685,860775
2,775333	0,5	1 508,137322
2,783667	0,5	1 363,335170
2,792000	0,5	1 249,482469
2,800333	0,5	1 152,982617
2,808667	0,5	1 060,080466
2,817000	0,5	963,539364
2,825333	0,5	862,734013
2,833667	0,5	763,574511
2,842000	0,5	671,181060
2,850333	0,5	588,879559
2,858667	0,5	518,690058
2,867000	0,5	456,485807
2,875333	0,5	402,170006
2,883667	0,5	354,420805
2,892000	0,5	312,751855
2,900333	0,5	276,695054
2,908667	0,5	245,906404
2,917000	0,5	219,723053
2,925333	0,5	197,503753
2,933667	0,5	178,535753
2,942000	0,5	162,201052
2,950333	0,5	147,914702
2,958667	0,5	135,350052
2,967000	0,5	124,140852
2,975333	0,5	114,054352
2,983667	0,5	105,025302
2,992000	0,5	96,943501
3,000333	0,5	89,758401
3,008667	0,5	83,261001
3,017000	0,5	77,391201
3,025333	0,5	72,052101
3,033667	0,5	67,234551
3,042000	0,5	62,847351
3,050333	0,5	58,862501
3,058667	0,5	55,193201
3,067000	0,5	51,812451
3,075333	0,5	48,657801
3,083667	0,5	45,735601
3,092000	0,5	43,023201
3,100333	0,5	40,511801
3,108667	0,5	38,231551
3,117000	0,5	36,126501
3,125333	0,5	34,208501
3,133667	0,5	32,495950
3,142000	0,5	30,980800
3,150333	0,5	29,658950
3,158667	0,5	28,468850
3,167000	0,5	27,410450
3,175333	0,5	26,541350
3,183667	0,5	25,915550
3,192000	0,5	25,681250
3,200333	0,5	25,978750
3,208667	0,5	26,900950
3,217000	0,5	28,256500
3,225333	0,5	29,602000
3,233667	0,5	30,353600
3,242000	0,5	30,079600
3,250333	0,5	28,738700
3,258667	0,5	26,664500
3,267000	0,5	24,174750
3,275333	0,5	21,777500
3,283667	0,5	19,704000
3,292000	0,5	18,034800
3,300333	0,5	16,735600
3,308667	0,5	15,658550
3,317000	0,5	14,780650
3,325333	0,5	14,041950
3,333667	0,5	13,397900
3,342000	0,5	12,812850
3,350333	0,5	12,300350
3,358667	0,5	11,836400
3,367000	0,5	11,418000
3,375333	0,5	11,048350
3,383667	0,5	10,733700
3,392000	0,5	10,438800
3,400333	0,5	10,213400
3,408667	0,5	10,039150
3,417000	0,5	9,868050
3,425333	0,5	9,721100
3,433667	0,5	9,587150
3,442000	0,5	9,469450
3,450333	0,5	9,358400
3,458667	0,5	9,210550
3,467000	0,5	9,070450
3,475333	0,5	8,922700
3,483667	0,5	8,790800
3,492000	0,5	8,637200
3,500333	0,5	8,496100
3,508667	0,5	8,336350
3,517000	0,5	8,161400
3,525333	0,5	7,998450
3,533667	0,5	7,810050
3,542000	0,5	7,622850
3,550333	0,5	7,441700
3,558667	0,5	7,253700
3,567000	0,5	7,068350
3,575333	0,5	6,891900
3,583667	0,5	6,727650
3,592000	0,5	6,594250
3,600333	0,5	6,442350
3,608667	0,5	6,260500
3,617000	0,5	6,076600
3,625333	0,5	5,896000
3,633667	0,5	5,696500
3,642000	0,5	5,520250
3,650333	0,5	5,339300
3,658667	0,5	5,172250
3,667000	0,5	5,017350
3,675333	0,5	4,864550
3,683667	0,5	4,724350
3,692000	0,5	4,581950
3,700333	0,5	4,483800
3,708667	0,5	4,370050
3,717000	0,5	4,281900
3,725333	0,5	4,212450
3,733667	0,5	4,201500
3,742000	0,5	4,236750
3,750333	0,5	4,301100
3,758667	0,5	4,381850
3,767000	0,5	4,520250
3,775333	0,5	4,632500
3,783667	0,5	4,711850
3,792000	0,5	4,715950
3,800333	0,5	4,635050
3,808667	0,5	4,467400
3,817000	0,5	4,254000
3,825333	0,5	4,016200
3,833667	0,5	3,762900
3,842000	0,5	3,554450
3,850333	0,5	3,393350
3,858667	0,5	3,231650
3,867000	0,5	3,103700
3,875333	0,5	3,001000
3,883667	0,5	2,928100
3,892000	0,5	2,862550
3,900333	0,5	2,787600
3,908667	0,5	2,724100
3,917000	0,5	2,654700
3,925333	0,5	2,601800
3,933667	0,5	2,548050
3,942000	0,5	2,501250
3,950333	0,5	2,450100
3,958667	0,5	2,410500
3,967000	0,5	2,392750
3,975333	0,5	2,382650
3,983667	0,5	2,369950
3,992000	0,5	2,401150
4,000333	0,5	2,408450
4,008667	0,5	2,406500
4,017000	0,5	2,398600
4,025333	0,5	2,367250
4,033667	0,5	2,332600
4,042000	0,5	2,258400
4,050333	0,5	2,166400
4,058667	0,5	2,055050
4,067000	0,5	1,957850
4,075333	0,5	1,865800
4,083667	0,5	1,787250
4,092000	0,5	1,721950
4,100333	0,5	1,667400
4,108667	0,5	1,624150
4,117000	0,5	1,601350
4,125333	0,5	1,579000
4,133667	0,5	1,580500
4,142000	0,5	1,615950
4,150333	0,5	1,684150
4,158667	0,5	1,805700
4,167000	0,5	2,046850
4,175333	0,5	2,431650
4,183667	0,5	2,995350
4,192000	0,5	3,721850
4,200333	0,5	4,643950
4,208667	0,5	5,782750
4,217000	0,5	7,128100
4,225333	0,5	8,680450
4,233667	0,5	10,463300
4,242000	0,5	12,551550
4,250333	0,5	15,082950
4,258667	0,5	18,365150
4,267000	0,5	22,855900
4,275333	0,5	29,309850
4,283667	0,5	38,740951
4,292000	0,5	52,373801
4,300333	0,5	70,923151
4,308667	0,5	94,302001
4,317000	0,5	120,636902
4,325333	0,5	146,656052
4,333667	0,5	168,660153
4,342000	0,5	183,708003
4,350333	0,5	190,730003
4,358667	0,5	190,226953
4,367000	0,5	183,517903
4,375333	0,5	172,328953
4,383667	0,5	158,275952
4,392000	0,5	142,684152
4,400333	0,5	126,618802
4,408667	0,5	110,866852
4,417000	0,5	95,988101
4,425333	0,5	82,305251
4,433667	0,5	70,136001
4,442000	0,5	59,510051
4,450333	0,5	50,394751
4,458667	0,5	42,730851
4,467000	0,5	36,408201
4,475333	0,5	31,239650
4,483667	0,5	27,060750
4,492000	0,5	23,659050
4,500333	0,5	20,919500
4,508667	0,5	18,697150
4,517000	0,5	16,860000
4,525333	0,5	15,299650
4,533667	0,5	13,947950
4,542000	0,5	12,729050
4,550333	0,5	11,622450
4,558667	0,5	10,613650
4,567000	0,5	9,690600
4,575333	0,5	8,844750
4,583667	0,5	8,114200
4,592000	0,5	7,462700
4,600333	0,5	6,892600
4,608667	0,5	6,415300
4,617000	0,5	6,009100
4,625333	0,5	5,678950
4,633667	0,5	5,362150
4,642000	0,5	5,062750
4,650333	0,5	4,766300
4,658667	0,5	4,491850
4,667000	0,5	4,201650
4,675333	0,5	3,927150
4,683667	0,5	3,658750
4,692000	0,5	3,411900
4,700333	0,5	3,183850
4,708667	0,5	2,963800
4,717000	0,5	2,772800
4,725333	0,5	2,592300
4,733667	0,5	2,453250
4,742000	0,5	2,313300
4,750333	0,5	2,203000
4,758667	0,5	2,106050
4,767000	0,5	2,044500
4,775333	0,5	2,000350
4,783667	0,5	1,952050
4,792000	0,5	1,894200
4,800333	0,5	1,854950
4,808667	0,5	1,798600
4,817000	0,5	1,757800
4,825333	0,5	1,701250
4,833667	0,5	1,651000
4,842000	0,5	1,594950
4,850333	0,5	1,543050
4,858667	0,5	1,490450
4,867000	0,5	1,436900
4,875333	0,5	1,399750
4,883667	0,5	1,391850
4,892000	0,5	1,367300
4,900333	0,5	1,373150
4,908667	0,5	1,381200
4,917000	0,5	1,420650
4,925333	0,5	1,467750
4,933667	0,5	1,490950
4,942000	0,5	1,519800
4,950333	0,5	1,535450
4,958667	0,5	1,552500
4,967000	0,5	1,548500
4,975333	0,5	1,544250
4,983667	0,5	1,516650
4,992000	0,5	1,490050
5,000333	0,5	1,462800
5,008667	0,5	1,414550
5,017000	0,5	1,366600
5,025333	0,5	1,349800
5,033667	0,5	1,318200
5,042000	0,5	1,287100
5,050333	0,5	1,270850
5,058667	0,5	1,264650
5,067000	0,5	1,287550
5,075333	0,5	1,303750
5,083667	0,5	1,309350
5,092000	0,5	1,326800
5,100333	0,5	1,358950
5,108667	0,5	1,370900
5,117000	0,5	1,394850
5,125333	0,5	1,417000
5,133667	0,5	1,433750
5,142000	0,5	1,442600
5,150333	0,5	1,455000
5,158667	0,5	1,441800
5,167000	0,5	1,440900
5,175333	0,5	1,453300
5,183667	0,5	1,449450
5,192000	0,5	1,431550
5,200333	0,5	1,440150
5,208667	0,5	1,443700
5,217000	0,5	1,460250
5,225333	0,5	1,456550
5,233667	0,5	1,453150
5,242000	0,5	1,459050
5,250333	0,5	1,460750
5,258667	0,5	1,465550
5,267000	0,5	1,479450
5,275333	0,5	1,494450
5,283667	0,5	1,502550
5,292000	0,5	1,536450
5,300333	0,5	1,578300
5,308667	0,5	1,630600
5,317000	0,5	1,696700
5,325333	0,5	1,782400
5,333667	0,5	1,846850
5,342000	0,5	1,924200
5,350333	0,5	1,996550
5,358667	0,5	2,076200
5,367000	0,5	2,146400
5,375333	0,5	2,204150
5,383667	0,5	2,263000
5,392000	0,5	2,334950
5,400333	0,5	2,401050
5,408667	0,5	2,462950
5,417000	0,5	2,500600
5,425333	0,5	2,497000
5,433667	0,5	2,443900
5,442000	0,5	2,349200
5,450333	0,5	2,226550
5,458667	0,5	2,067450
5,467000	0,5	1,934000
5,475333	0,5	1,799200
5,483667	0,5	1,675650
5,492000	0,5	1,572200
5,500333	0,5	1,498900
5,508667	0,5	1,450000
5,517000	0,5	1,401400
5,525333	0,5	1,324950
5,533667	0,5	1,279050
5,542000	0,5	1,236650
5,550333	0,5	1,208050
5,558667	0,5	1,173600
5,567000	0,5	1,158150
5,575333	0,5	1,138800
5,583667	0,5	1,135750
5,592000	0,5	1,133800
5,600333	0,5	1,121900
5,608667	0,5	1,108650
5,617000	0,5	1,119500
5,625333	0,5	1,108050
5,633667	0,5	1,097050
5,642000	0,5	1,091100
5,650333	0,5	1,085450
5,658667	0,5	1,102750
5,667000	0,5	1,099650
5,675333	0,5	1,097700
5,683667	0,5	1,100950
5,692000	0,5	1,106750
5,700333	0,5	1,110250
5,708667	0,5	1,121800
5,717000	0,5	1,132600
5,725333	0,5	1,140850
5,733667	0,5	1,144600
5,742000	0,5	1,148900
5,750333	0,5	1,136900
5,758667	0,5	1,126950
5,767000	0,5	1,121650
5,775333	0,5	1,100750
5,783667	0,5	1,081950
5,792000	0,5	1,071550
5,800333	0,5	1,069000
5,808667	0,5	1,080050
5,817000	0,5	1,085350
5,825333	0,5	1,086900
5,833667	0,5	1,107300
5,842000	0,5	1,128050
5,850333	0,5	1,163500
5,858667	0,5	1,208750
5,867000	0,5	1,275600
5,875333	0,5	1,355350
5,883667	0,5	1,470000
5,892000	0,5	1,610550
5,900333	0,5	1,789750
5,908667	0,5	2,007300
5,917000	0,5	2,248150
5,925333	0,5	2,456900
5,933667	0,5	2,632200
5,942000	0,5	2,740700
5,950333	0,5	2,779750
5,958667	0,5	2,740100
5,967000	0,5	2,619650
5,975333	0,5	2,467750
5,983667	0,5	2,327300
5,992000	0,5	2,213200
6,000333	0,5	2,136800
6,008667	0,5	2,105950
6,017000	0,5	2,096950
6,025333	0,5	2,110050
6,033667	0,5	2,105900
6,042000	0,5	2,078650
6,050333	0,5	2,002450
6,058667	0,5	1,912150
6,067000	0,5	1,786250
6,075333	0,5	1,640300
6,083667	0,5	1,500900
6,092000	0,5	1,384450
6,100333	0,5	1,299800
6,108667	0,5	1,222250
6,117000	0,5	1,158750
6,125333	0,5	1,115400
6,133667	0,5	1,080800
6,142000	0,5	1,052150
6,150333	0,5	1,027700
6,158667	0,5	1,008850
6,167000	0,5	0,985200
6,175333	0,5	0,970600
6,183667	0,5	0,958450
6,192000	0,5	0,933400
6,200333	0,5	0,926050
6,208667	0,5	0,927250
6,217000	0,5	0,927500
6,225333	0,5	0,937950
6,233667	0,5	0,967350
6,242000	0,5	0,997700
6,250333	0,5	1,042550
6,258667	0,5	1,073350
6,267000	0,5	1,097350
6,275333	0,5	1,103650
6,283667	0,5	1,099400
6,292000	0,5	1,073350
6,300333	0,5	1,041950
6,308667	0,5	1,005050
6,317000	0,5	0,960600
6,325333	0,5	0,930750
6,333667	0,5	0,898100
6,342000	0,5	0,868200
6,350333	0,5	0,857750
6,358667	0,5	0,845900
6,367000	0,5	0,837750
6,375333	0,5	0,842300
6,383667	0,5	0,862950
6,392000	0,5	0,903350
6,400333	0,5	0,953050
6,408667	0,5	1,006100
6,417000	0,5	1,065750
6,425333	0,5	1,150450
6,433667	0,5	1,243050
6,442000	0,5	1,353450
6,450333	0,5	1,457600
6,458667	0,5	1,571400
6,467000	0,5	1,677150
6,475333	0,5	1,774750
6,483667	0,5	1,864850
6,492000	0,5	1,929000
6,500333	0,5	1,998600
6,508667	0,5	2,043200
6,517000	0,5	2,090600
6,525333	0,5	2,150650
6,533667	0,5	2,256100
6,542000	0,5	2,413850
6,550333	0,5	2,611150
6,558667	0,5	2,822150
6,567000	0,5	3,042700
6,575333	0,5	3,208550
6,583667	0,5	3,311450
6,592000	0,5	3,323700
6,600333	0,5	3,253250
6,608667	0,5	3,115500
6,617000	0,5	2,935750
6,625333	0,5	2,744400
6,633667	0,5	2,555700
6,642000	0,5	2,362250
6,650333	0,5	2,214850
6,658667	0,5	2,055300
6,667000	0,5	1,920950
6,675333	0,5	1,809950
6,683667	0,5	1,735450
6,692000	0,5	1,690200
6,700333	0,5	1,660950
6,708667	0,5	1,666050
6,717000	0,5	1,703300
6,725333	0,5	1,783150
6,733667	0,5	1,888800
6,742000	0,5	2,036900
6,750333	0,5	2,205550
6,758667	0,5	2,377300
6,767000	0,5	2,541300
6,775333	0,5	2,692800
6,783667	0,5	2,781650
6,792000	0,5	2,842450
6,800333	0,5	2,863350
6,808667	0,5	2,833550
6,817000	0,5	2,788950
6,825333	0,5	2,732000
6,833667	0,5	2,682650
6,842000	0,5	2,651050
6,850333	0,5	2,617450
6,858667	0,5	2,601600
6,867000	0,5	2,614650
6,875333	0,5	2,662150
6,883667	0,5	2,738850
6,892000	0,5	2,836550
6,900333	0,5	2,948700
6,908667	0,5	3,033000
6,917000	0,5	3,097250
6,925333	0,5	3,101650
6,933667	0,5	3,057500
6,942000	0,5	3,055850
6,950333	0,5	2,849000
6,958667	0,5	2,698400
6,967000	0,5	2,558050
6,975333	0,5	2,424450
6,983667	0,5	2,324550
6,992000	0,5	2,248750
7,000333	0,5	2,178850
7,008667	0,5	2,140600
7,017000	0,5	2,133300
7,025333	0,5	2,142600
7,033667	0,5	2,188950
7,042000	0,5	2,256650
7,050333	0,5	2,351200
7,058667	0,5	2,467250
7,067000	0,5	2,597050
7,075333	0,5	2,731800
7,083667	0,5	2,852800
7,092000	0,5	2,973200
7,100333	0,5	3,048200
7,108667	0,5	3,097250
7,117000	0,5	3,133400
7,125333	0,5	3,172450
7,133667	0,5	3,228800
7,142000	0,5	3,307750
7,150333	0,5	3,413400
7,158667	0,5	3,590200
7,167000	0,5	3,859800
7,175333	0,5	4,287050
7,183667	0,5	4,954550
7,192000	0,5	5,988700
7,200333	0,5	7,504150
7,208667	0,5	9,577400
7,217000	0,5	12,151000
7,225333	0,5	14,945450
7,233667	0,5	17,544200
7,242000	0,5	19,456150
7,250333	0,5	20,326150
7,258667	0,5	20,119900
7,267000	0,5	19,091350
7,275333	0,5	17,662100
7,283667	0,5	16,266900
7,292000	0,5	15,136050
7,300333	0,5	14,374700
7,308667	0,5	13,902750
7,317000	0,5	13,613250
7,325333	0,5	13,370550
7,333667	0,5	13,071900
7,342000	0,5	12,602200
7,350333	0,5	11,920100
7,358667	0,5	11,027650
7,367000	0,5	9,986950
7,375333	0,5	8,881700
7,383667	0,5	7,841550
7,392000	0,5	6,967300
7,400333	0,5	6,356700
7,408667	0,5	6,066550
7,417000	0,5	6,108100
7,425333	0,5	6,456600
7,433667	0,5	6,989450
7,442000	0,5	7,565150
7,450333	0,5	8,026100
7,458667	0,5	8,266200
7,467000	0,5	8,224000
7,475333	0,5	7,953600
7,483667	0,5	7,559000
7,492000	0,5	7,203800
7,500333	0,5	7,044100
7,508667	0,5	7,211550
7,517000	0,5	7,777850
7,525333	0,5	8,708700
7,533667	0,5	9,870100
7,542000	0,5	10,972800
7,550333	0,5	11,723200
7,558667	0,5	11,878650
7,567000	0,5	11,351050
7,575333	0,5	10,258700
7,583667	0,5	8,844750
7,592000	0,5	7,398800
7,600333	0,5	6,152400
7,608667	0,5	5,196250
7,617000	0,5	4,536550
7,625333	0,5	4,096650
7,633667	0,5	3,813300
7,642000	0,5	3,625000
7,650333	0,5	3,511100
7,658667	0,5	3,441150
7,667000	0,5	3,422850
7,675333	0,5	3,425700
7,683667	0,5	3,461800
7,692000	0,5	3,474150
7,700333	0,5	3,454900
7,708667	0,5	3,389000
7,717000	0,5	3,298350
7,725333	0,5	3,190250
7,733667	0,5	3,066250
7,742000	0,5	2,955400
7,750333	0,5	2,853550
7,758667	0,5	2,769250
7,767000	0,5	2,697300
7,775333	0,5	2,649550
7,783667	0,5	2,619450
7,792000	0,5	2,624800
7,800333	0,5	2,654950
7,808667	0,5	2,698750
7,817000	0,5	2,729650
7,825333	0,5	2,736350
7,833667	0,5	2,701200
7,842000	0,5	2,630550
7,850333	0,5	2,543900
7,858667	0,5	2,464400
7,867000	0,5	2,406300
7,875333	0,5	2,386800
7,883667	0,5	2,377300
7,892000	0,5	2,398250
7,900333	0,5	2,436900
7,908667	0,5	2,490650
7,917000	0,5	2,564900
7,925333	0,5	2,669400
7,933667	0,5	2,819600
7,942000	0,5	3,038850
7,950333	0,5	3,335450
7,958667	0,5	3,674600
7,967000	0,5	4,005700
7,975333	0,5	4,280950
7,983667	0,5	4,431850
7,992000	0,5	4,440650
8,000333	0,5	4,360300
8,008667	0,5	4,279550
8,017000	0,5	4,316600
8,025333	0,5	4,584950
8,033667	0,5	5,168700
8,042000	0,5	6,086800
8,050333	0,5	7,228050
8,058667	0,5	8,354500
8,067000	0,5	9,154200
8,075333	0,5	9,421750
8,083667	0,5	9,159250
8,092000	0,5	8,530150
8,100333	0,5	7,775400
8,108667	0,5	7,044900
8,117000	0,5	6,402750
8,125333	0,5	5,821200
8,133667	0,5	5,257600
8,142000	0,5	4,724950
8,150333	0,5	4,279000
8,158667	0,5	3,945950
8,167000	0,5	3,724000
8,175333	0,5	3,595000
8,183667	0,5	3,514800
8,192000	0,5	3,472250
8,200333	0,5	3,431000
8,208667	0,5	3,366800
8,217000	0,5	3,262700
8,225333	0,5	3,139950
8,233667	0,5	2,999150
8,242000	0,5	2,872250
8,250333	0,5	2,777500
8,258667	0,5	2,707950
8,267000	0,5	2,673850
8,275333	0,5	2,652650
8,283667	0,5	2,638600
8,292000	0,5	2,611550
8,300333	0,5	2,579200
8,308667	0,5	2,533450
8,317000	0,5	2,480550
8,325333	0,5	2,417400
8,333667	0,5	2,357950
8,342000	0,5	2,300500
8,350333	0,5	2,254350
8,358667	0,5	2,213450
8,367000	0,5	2,183300
8,375333	0,5	2,158050
8,383667	0,5	2,133300
8,392000	0,5	2,110500
8,400333	0,5	2,087100
8,408667	0,5	2,055700
8,417000	0,5	2,035050
8,425333	0,5	2,013450
8,433667	0,5	1,991500
8,442000	0,5	1,976850
8,450333	0,5	1,970600
8,458667	0,5	1,985100
8,467000	0,5	2,013300
8,475333	0,5	2,053400
8,483667	0,5	2,118500
8,492000	0,5	2,197600
8,500333	0,5	2,302750
8,508667	0,5	2,415900
8,517000	0,5	2,545500
8,525333	0,5	2,666150
8,533667	0,5	2,775250
8,542000	0,5	2,858100
8,550333	0,5	2,919650
8,558667	0,5	2,940950
8,567000	0,5	2,933600
8,575333	0,5	2,890250
8,583667	0,5	2,819450
8,592000	0,5	2,733550
8,600333	0,5	2,637450
8,608667	0,5	2,550950
8,617000	0,5	2,463300
8,625333	0,5	2,392750
8,633667	0,5	2,345200
8,642000	0,5	2,315950
8,650333	0,5	2,310600
8,658667	0,5	2,341100
8,667000	0,5	2,409650
8,675333	0,5	2,518450
8,683667	0,5	2,658200
8,692000	0,5	2,795850
8,700333	0,5	2,909650
8,708667	0,5	2,956250
8,717000	0,5	2,941300
8,725333	0,5	2,877950
8,733667	0,5	2,805250
8,742000	0,5	2,747400
8,750333	0,5	2,734000
8,758667	0,5	2,776700
8,767000	0,5	2,890850
8,775333	0,5	3,080450
8,783667	0,5	3,349700
8,792000	0,5	3,676750
8,800333	0,5	4,057300
8,808667	0,5	4,463500
8,817000	0,5	4,865650
8,825333	0,5	5,210450
8,833667	0,5	5,436450
8,842000	0,5	5,494350
8,850333	0,5	5,336750
8,858667	0,5	4,986800
8,867000	0,5	4,517450
8,875333	0,5	4,012650
8,883667	0,5	3,540400
8,892000	0,5	3,157000
8,900333	0,5	2,870050
8,908667	0,5	2,681650
8,917000	0,5	2,548300
8,925333	0,5	2,472750
8,933667	0,5	2,427150
8,942000	0,5	2,409650
8,950333	0,5	2,407700
8,958667	0,5	2,431900
8,967000	0,5	2,484150
8,975333	0,5	2,577700
8,983667	0,5	2,717000
8,992000	0,5	2,873000
9,000333	0,5	3,009300
9,008667	0,5	3,094600
9,017000	0,5	3,104750
9,025333	0,5	3,058850
9,033667	0,5	2,982900
9,042000	0,5	2,914100
9,050333	0,5	2,869700
9,058667	0,5	2,848800
9,067000	0,5	2,849500
9,075333	0,5	2,853550
9,083667	0,5	2,866650
9,092000	0,5	2,858850
9,100333	0,5	2,819100
9,108667	0,5	2,753600
9,117000	0,5	2,670950
9,125333	0,5	2,578850
9,133667	0,5	2,498500
9,142000	0,5	2,418750
9,150333	0,5	2,347450
9,158667	0,5	2,273850
9,167000	0,5	2,193650
9,175333	0,5	2,118550
9,183667	0,5	2,046650
9,192000	0,5	1,985400
9,200333	0,5	1,934100
9,208667	0,5	1,898750
9,217000	0,5	1,866300
9,225333	0,5	1,840250
9,233667	0,5	1,823200
9,242000	0,5	1,814700
9,250333	0,5	1,817350
9,258667	0,5	1,822450
9,267000	0,5	1,838700
9,275333	0,5	1,845750
9,283667	0,5	1,850100
9,292000	0,5	1,838300
9,300333	0,5	1,817650
9,308667	0,5	1,786400
9,317000	0,5	1,761200
9,325333	0,5	1,734350
9,333667	0,5	1,718000
9,342000	0,5	1,706700
9,350333	0,5	1,702500
9,358667	0,5	1,696300
9,367000	0,5	1,688600
9,375333	0,5	1,681700
9,383667	0,5	1,677550
9,392000	0,5	1,673000
9,400333	0,5	1,664400
9,408667	0,5	1,652700
9,417000	0,5	1,637600
9,425333	0,5	1,614450
9,433667	0,5	1,583500
9,442000	0,5	1,544450
9,450333	0,5	1,507400
9,458667	0,5	1,481100
9,467000	0,5	1,457950
9,475333	0,5	1,453300
9,483667	0,5	1,453350
9,492000	0,5	1,455550
9,500333	0,5	1,462900
9,508667	0,5	1,454000
9,517000	0,5	1,445750
9,525333	0,5	1,427200
9,533667	0,5	1,414400
9,542000	0,5	1,401900
9,550333	0,5	1,390200
9,558667	0,5	1,381900
9,567000	0,5	1,386200
9,575333	0,5	1,393700
9,583667	0,5	1,408400
9,592000	0,5	1,432150
9,600333	0,5	1,471250
9,608667	0,5	1,524850
9,617000	0,5	1,591050
9,625333	0,5	1,673350
9,633667	0,5	1,773400
9,642000	0,5	1,888700
9,650333	0,5	1,997600
9,658667	0,5	2,089550
9,667000	0,5	2,155050
9,675333	0,5	2,188850
9,683667	0,5	2,183500
9,692000	0,5	2,142200
9,700333	0,5	2,069950
9,708667	0,5	1,968850
9,717000	0,5	1,860650
9,725333	0,5	1,749750
9,733667	0,5	1,638600
9,742000	0,5	1,545050
9,750333	0,5	1,474950
9,758667	0,5	1,426750
9,767000	0,5	1,383750
9,775333	0,5	1,361800
9,783667	0,5	1,341750
9,792000	0,5	1,338200
9,800333	0,5	1,342950
9,808667	0,5	1,348000
9,817000	0,5	1,353400
9,825333	0,5	1,363400
9,833667	0,5	1,372700
9,842000	0,5	1,377250
9,850333	0,5	1,389100
9,858667	0,5	1,396200
9,867000	0,5	1,401950
9,875333	0,5	1,403650
9,883667	0,5	1,413250
9,892000	0,5	1,413950
9,900333	0,5	1,423400
9,908667	0,5	1,429050
9,917000	0,5	1,447650
9,925333	0,5	1,464050
9,933667	0,5	1,494100
9,942000	0,5	1,536300
9,950333	0,5	1,573600
9,958667	0,5	1,617500
9,967000	0,5	1,644150
9,975333	0,5	1,655350
9,983667	0,5	1,647950
9,992000	0,5	1,626250
10,000333	0,5	1,593350
10,008667	0,5	1,548650
10,017000	0,5	1,510600
10,025333	0,5	1,469400
10,033667	0,5	1,439450
10,042000	0,5	1,414750
10,050333	0,5	1,398000
10,058667	0,5	1,382950
10,067000	0,5	1,369150
10,075333	0,5	1,363450
10,083667	0,5	1,355200
10,092000	0,5	1,357000
10,100333	0,5	1,361250
10,108667	0,5	1,362650
10,117000	0,5	1,372150
10,125333	0,5	1,377050
10,133667	0,5	1,393900
10,142000	0,5	1,408150
10,150333	0,5	1,426200
10,158667	0,5	1,450750
10,167000	0,5	1,473250
10,175333	0,5	1,492950
10,183667	0,5	1,507950
10,192000	0,5	1,525850
10,200333	0,5	1,539900
10,208667	0,5	1,552750
10,217000	0,5	1,574200
10,225333	0,5	1,602400
10,233667	0,5	1,653550
10,242000	0,5	1,708600
10,250333	0,5	1,771100
10,258667	0,5	1,824150
10,267000	0,5	1,860350
10,275333	0,5	1,870800
10,283667	0,5	1,853850
10,292000	0,5	1,823250
10,300333	0,5	1,788500
10,308667	0,5	1,751550
10,317000	0,5	1,719950
10,325333	0,5	1,701250
10,333667	0,5	1,670600
10,342000	0,5	1,651850
10,350333	0,5	1,635000
10,358667	0,5	1,622150
10,367000	0,5	1,615750
10,375333	0,5	1,631550
10,383667	0,5	1,664050
10,392000	0,5	1,741850
10,400333	0,5	1,856600
10,408667	0,5	2,045900
10,417000	0,5	2,296600
10,425333	0,5	2,627600
10,433667	0,5	3,015550
10,442000	0,5	3,409950
10,450333	0,5	3,746750
10,458667	0,5	3,955450
10,467000	0,5	4,000600
10,475333	0,5	3,881350
10,483667	0,5	3,631300
10,492000	0,5	3,319350
10,500333	0,5	2,979950
10,508667	0,5	2,663150
10,517000	0,5	2,383550
10,525333	0,5	2,145300
10,533667	0,5	1,937800
10,542000	0,5	1,759800
10,550333	0,5	1,611100
10,558667	0,5	1,489800
10,567000	0,5	1,392700
10,575333	0,5	1,318400
10,583667	0,5	1,272150
10,592000	0,5	1,244650
10,600333	0,5	1,239050
10,608667	0,5	1,242500
10,617000	0,5	1,259500
10,625333	0,5	1,275400
10,633667	0,5	1,308250
10,642000	0,5	1,334300
10,650333	0,5	1,361300
10,658667	0,5	1,374900
10,667000	0,5	1,379600
10,675333	0,5	1,387050
10,683667	0,5	1,387850
10,692000	0,5	1,375250
10,700333	0,5	1,358850
10,708667	0,5	1,338700
10,717000	0,5	1,318600
10,725333	0,5	1,301300
10,733667	0,5	1,288550
10,742000	0,5	1,270950
10,750333	0,5	1,266500
10,758667	0,5	1,265050
10,767000	0,5	1,266900
10,775333	0,5	1,265000
10,783667	0,5	1,269850
10,792000	0,5	1,269500
10,800333	0,5	1,264550
10,808667	0,5	1,260700
10,817000	0,5	1,251650
10,825333	0,5	1,255700
10,833667	0,5	1,264300
10,842000	0,5	1,255900
10,850333	0,5	1,257100
10,858667	0,5	1,259250
10,867000	0,5	1,264700
10,875333	0,5	1,278100
10,883667	0,5	1,288150
10,892000	0,5	1,305200
10,900333	0,5	1,330850
10,908667	0,5	1,361500
10,917000	0,5	1,407350
10,925333	0,5	1,459400
10,933667	0,5	1,525500
10,942000	0,5	1,580800
10,950333	0,5	1,627200
10,958667	0,5	1,665250
10,967000	0,5	1,683250
10,975333	0,5	1,687950
10,983667	0,5	1,665550
10,992000	0,5	1,631050
11,000333	0,5	1,590200
11,008667	0,5	1,544250
11,017000	0,5	1,507250
11,025333	0,5	1,480750
11,033667	0,5	1,466150
11,042000	0,5	1,460100
11,050333	0,5	1,456650
11,058667	0,5	1,468800
11,067000	0,5	1,478300
11,075333	0,5	1,498150
11,083667	0,5	1,526500
11,092000	0,5	1,558100
11,100333	0,5	1,602700
11,108667	0,5	1,658900
11,117000	0,5	1,716050
11,125333	0,5	1,762900
11,133667	0,5	1,790450
11,142000	0,5	1,777950
11,150333	0,5	1,736650
11,158667	0,5	1,682900
11,167000	0,5	1,623950
11,175333	0,5	1,566200
11,183667	0,5	1,520750
11,192000	0,5	1,480550
11,200333	0,5	1,450150
11,208667	0,5	1,422350
11,217000	0,5	1,393600
11,225333	0,5	1,372250
11,233667	0,5	1,347450
11,242000	0,5	1,329000
11,250333	0,5	1,315150
11,258667	0,5	1,306800
11,267000	0,5	1,311250
11,275333	0,5	1,326500
11,283667	0,5	1,351850
11,292000	0,5	1,388650
11,300333	0,5	1,445500
11,308667	0,5	1,520550
11,317000	0,5	1,626400
11,325333	0,5	1,767150
11,333667	0,5	1,940000
11,342000	0,5	2,141650
11,350333	0,5	2,359500
11,358667	0,5	2,592200
11,367000	0,5	2,808900
11,375333	0,5	2,997050
11,383667	0,5	3,117350
11,392000	0,5	3,145600
11,400333	0,5	3,073200
11,408667	0,5	2,922100
11,417000	0,5	2,709500
11,425333	0,5	2,478050
11,433667	0,5	2,256400
11,442000	0,5	2,072350
11,450333	0,5	1,932550
11,458667	0,5	1,829500
11,467000	0,5	1,762250
11,475333	0,5	1,721500
11,483667	0,5	1,694800
11,492000	0,5	1,672100
11,500333	0,5	1,646050
11,508667	0,5	1,613550
11,517000	0,5	1,579850
11,525333	0,5	1,543550
11,533667	0,5	1,503350
11,542000	0,5	1,465450
11,550333	0,5	1,426900
11,558667	0,5	1,393800
11,567000	0,5	1,372650
11,575333	0,5	1,348650
11,583667	0,5	1,327300
11,592000	0,5	1,298450
11,600333	0,5	1,281950
11,608667	0,5	1,254550
11,617000	0,5	1,243300
11,625333	0,5	1,226550
11,633667	0,5	1,211550
11,642000	0,5	1,205350
11,650333	0,5	1,199300
11,658667	0,5	1,189550
11,667000	0,5	1,195600
11,675333	0,5	1,202800
11,683667	0,5	1,211550
11,692000	0,5	1,218800
11,700333	0,5	1,222900
11,708667	0,5	1,248900
11,717000	0,5	1,263500
11,725333	0,5	1,289800
11,733667	0,5	1,325500
11,742000	0,5	1,359400
11,750333	0,5	1,402750
11,758667	0,5	1,454050
11,767000	0,5	1,518000
11,775333	0,5	1,588700
11,783667	0,5	1,671850
11,792000	0,5	1,765050
11,800333	0,5	1,848150
11,808667	0,5	1,926350
11,817000	0,5	1,996200
11,825333	0,5	2,037650
11,833667	0,5	2,044050
11,842000	0,5	2,019200
11,850333	0,5	1,968750
11,858667	0,5	1,901000
11,867000	0,5	1,824100
11,875333	0,5	1,744350
11,883667	0,5	1,674950
11,892000	0,5	1,622850
11,900333	0,5	1,574650
11,908667	0,5	1,543000
11,917000	0,5	1,525350
11,925333	0,5	1,502650
11,933667	0,5	1,486350
11,942000	0,5	1,480700
11,950333	0,5	1,472900
11,958667	0,5	1,466000
11,967000	0,5	1,471200
11,975333	0,5	1,475300
11,983667	0,5	1,493500
11,992000	0,5	1,517050
12,000333	0,5	1,565700
12,008667	0,5	1,628100
12,017000	0,5	1,692700
12,025333	0,5	1,756000
12,033667	0,5	1,812250
12,042000	0,5	1,859800
12,050333	0,5	1,899050
12,058667	0,5	1,949450
12,067000	0,5	2,000450
12,075333	0,5	2,064350
12,083667	0,5	2,143100
12,092000	0,5	2,242350
12,100333	0,5	2,326350
12,108667	0,5	2,412550
12,117000	0,5	2,478100
12,125333	0,5	2,513650
12,133667	0,5	2,514500
12,142000	0,5	2,477450
12,150333	0,5	2,402650
12,158667	0,5	2,320450
12,167000	0,5	2,207100
12,175333	0,5	2,100600
12,183667	0,5	2,000650
12,192000	0,5	1,926000
12,200333	0,5	1,863500
12,208667	0,5	1,820300
12,217000	0,5	1,787500
12,225333	0,5	1,762650
12,233667	0,5	1,756250
12,242000	0,5	1,740800
12,250333	0,5	1,731400
12,258667	0,5	1,732850
12,267000	0,5	1,724250
12,275333	0,5	1,703350
12,283667	0,5	1,692550
12,292000	0,5	1,677200
12,300333	0,5	1,676800
12,308667	0,5	1,661300
12,317000	0,5	1,641500
12,325333	0,5	1,612150
12,333667	0,5	1,591800
12,342000	0,5	1,558150
12,350333	0,5	1,528700
12,358667	0,5	1,491150
12,367000	0,5	1,460500
12,375333	0,5	1,428800
12,383667	0,5	1,398400
12,392000	0,5	1,372000
12,400333	0,5	1,356800
12,408667	0,5	1,349800
12,417000	0,5	1,338150
12,425333	0,5	1,340450
12,433667	0,5	1,328450
12,442000	0,5	1,334000
12,450333	0,5	1,349250
12,458667	0,5	1,377950
12,467000	0,5	1,407100
12,475333	0,5	1,416400
12,483667	0,5	1,414800
12,492000	0,5	1,422450
12,500333	0,5	1,432750
12,508667	0,5	1,451550
12,517000	0,5	1,449050
12,525333	0,5	1,460000
12,533667	0,5	1,529000
12,542000	0,5	1,575950
12,550333	0,5	1,518550
12,558667	0,5	1,300900
12,567000	0,5	0,830050
12,575333	0,5	0,282650
12,583667	0,5	-0,135200
12,592000	0,5	-0,416200
12,600333	0,5	-0,636450
12,608667	0,5	-0,858350
12,617000	0,5	-1,066650
12,625333	0,5	-1,335400
12,633667	0,5	-1,605950
12,642000	0,5	-1,815700
12,650333	0,5	-1,958500
12,658667	0,5	-2,073700
12,667000	0,5	-2,166900
12,675333	0,5	-2,243050
12,683667	0,5	-2,315700
12,692000	0,5	-2,383800
12,700333	0,5	-2,430600
12,708667	0,5	-2,471450
12,717000	0,5	-2,518850
12,725333	0,5	-2,560800
12,733667	0,5	-2,599100
12,742000	0,5	-2,620050
12,750333	0,5	-2,643500
12,758667	0,5	-2,664950
12,767000	0,5	-2,687050
12,775333	0,5	-2,701250
12,783667	0,5	-2,719600
12,792000	0,5	-2,730550
12,800333	0,5	-2,750250
12,808667	0,5	-2,752950
12,817000	0,5	-2,763150
12,825333	0,5	-2,772100
12,833667	0,5	-2,786950
12,842000	0,5	-2,788500
12,850333	0,5	-2,793050
12,858667	0,5	-2,797400
12,867000	0,5	-2,806200
12,875333	0,5	-2,817550
12,883667	0,5	-2,818900
12,892000	0,5	-2,822400
12,900333	0,5	-2,818700
12,908667	0,5	-2,824150
12,917000	0,5	-2,818700
12,925333	0,5	-2,820900
12,933667	0,5	-2,813900
12,942000	0,5	-2,804050
12,950333	0,5	-2,791600
12,958667	0,5	-2,778700
12,967000	0,5	-2,759200
12,975333	0,5	-2,740250
12,983667	0,5	-2,722900
12,992000	0,5	-2,694450
13,000333	0,5	-2,669500
13,008667	0,5	-2,654250
13,017000	0,5	-2,640500
13,025333	0,5	-2,645000
13,033667	0,5	-2,633200
13,042000	0,5	-2,623050
13,050333	0,5	-2,620700
13,058667	0,5	-2,625750
13,067000	0,5	-2,625850
13,075333	0,5	-2,624550
13,083667	0,5	-2,620050
13,092000	0,5	-2,627450
13,100333	0,5	-2,632300
13,108667	0,5	-2,624100
13,117000	0,5	-2,617450
13,125333	0,5	-2,596300
13,133667	0,5	-2,589750
13,142000	0,5	-2,572100
13,150333	0,5	-2,561750
13,158667	0,5	-2,561400
13,167000	0,5	-2,569100
13,175333	0,5	-2,583950
13,183667	0,5	-2,584750
13,192000	0,5	-2,593800
13,200333	0,5	-2,611200
13,208667	0,5	-2,620000
13,217000	0,5	-2,626500
13,225333	0,5	-2,628650
13,233667	0,5	-2,636950
13,242000	0,5	-2,631950
13,250333	0,5	-2,631350
13,258667	0,5	-2,627300
13,267000	0,5	-2,612200
13,275333	0,5	-2,605100
13,283667	0,5	-2,597500
13,292000	0,5	-2,577150
13,300333	0,5	-2,564400
13,308667	0,5	-2,547900
13,317000	0,5	-2,524350
13,325333	0,5	-2,508800
13,333667	0,5	-2,459400
13,342000	0,5	-2,420850
13,350333	0,5	-2,386400
13,358667	0,5	-2,352200
13,367000	0,5	-2,324100
13,375333	0,5	-2,303450
13,383667	0,5	-2,289450
13,392000	0,5	-2,278850
13,400333	0,5	-2,277550
13,408667	0,5	-2,271250
13,417000	0,5	-2,264050
13,425333	0,5	-2,260700
13,433667	0,5	-2,242550
13,442000	0,5	-2,223100
13,450333	0,5	-2,211350
13,458667	0,5	-2,195000
13,467000	0,5	-2,187100
13,475333	0,5	-2,165150
13,483667	0,5	-2,145750
13,492000	0,5	-2,123300
13,500333	0,5	-2,109200
13,508667	0,5	-2,088450
13,517000	0,5	-2,079800
13,525333	0,5	-2,063850
13,533667	0,5	-2,052300
13,542000	0,5	-2,034050
13,550333	0,5	-2,023150
13,558667	0,5	-2,003550
13,567000	0,5	-1,987000
13,575333	0,5	-1,973800
13,583667	0,5	-1,949900
13,592000	0,5	-1,932450
13,600333	0,5	-1,915850
13,608667	0,5	-1,902600
13,617000	0,5	-1,889000
13,625333	0,5	-1,866500
13,633667	0,5	-1,839750
13,642000	0,5	-1,823750
13,650333	0,5	-1,799150
13,658667	0,5	-1,776550
13,667000	0,5	-1,760300
13,675333	0,5	-1,738400
13,683667	0,5	-1,717100
13,692000	0,5	-1,702950
13,700333	0,5	-1,684850
13,708667	0,5	-1,659900
13,717000	0,5	-1,652100
13,725333	0,5	-1,630700
13,733667	0,5	-1,603700
13,742000	0,5	-1,590300
13,750333	0,5	-1,566650
13,758667	0,5	-1,561550
13,767000	0,5	-1,547150
13,775333	0,5	-1,524550
13,783667	0,5	-1,504500
13,792000	0,5	-1,490150
13,800333	0,5	-1,471750
13,808667	0,5	-1,448700
13,817000	0,5	-1,436300
13,825333	0,5	-1,414200
13,833667	0,5	-1,397050
13,842000	0,5	-1,376950
13,850333	0,5	-1,363700
13,858667	0,5	-1,342950
13,867000	0,5	-1,343150
13,875333	0,5	-1,319300
13,883667	0,5	-1,299250
13,892000	0,5	-1,281100
13,900333	0,5	-1,263350
13,908667	0,5	-1,250150
13,917000	0,5	-1,213500
13,925333	0,5	-1,169450
13,933667	0,5	-1,118100
13,942000	0,5	-1,060550
13,950333	0,5	-0,991650
13,958667	0,5	-0,928350
13,967000	0,5	-0,861750
13,975333	0,5	-0,813700
13,983667	0,5	-0,771700
13,992000	0,5	-0,755500
14,000333	0,5	-0,741400
14,008667	0,5	-0,727150
14,017000	0,5	-0,714100
14,025333	0,5	-0,663700
14,033667	0,5	-0,602050
14,042000	0,5	-0,537700
14,050333	0,5	-0,479150
14,058667	0,5	-0,435850
14,067000	0,5	-0,379950
14,075333	0,5	-0,345200
14,083667	0,5	-0,307700
14,092000	0,5	-0,262650
14,100333	0,5	-0,206500
14,108667	0,5	-0,153700
14,117000	0,5	-0,094900
14,125333	0,5	-0,051250
14,133667	0,5	-0,011000
14,142000	0,5	0,025800
14,150333	0,5	0,069650
14,158667	0,5	0,116150
14,167000	0,5	0,151300
14,175333	0,5	0,197250
14,183667	0,5	0,212800
14,192000	0,5	0,214000
14,200333	0,5	0,199350
14,208667	0,5	0,187250
14,217000	0,5	0,188450
14,225333	0,5	0,185500
14,233667	0,5	0,187250
14,242000	0,5	0,203800
14,250333	0,5	0,209600
14,258667	0,5	0,221000
14,267000	0,5	0,235750
14,275333	0,5	0,249450
14,283667	0,5	0,264300
14,292000	0,5	0,272650
14,300333	0,5	0,290550
14,308667	0,5	0,289700
14,317000	0,5	0,298150
14,325333	0,5	0,302700
14,333667	0,5	0,299400
14,342000	0,5	0,290700
14,350333	0,5	0,291350
14,358667	0,5	0,291950
14,367000	0,5	0,309350
14,375333	0,5	0,328300
14,383667	0,5	0,348950
14,392000	0,5	0,368750
14,400333	0,5	0,383600
14,408667	0,5	0,388100
14,417000	0,5	0,391500
14,425333	0,5	0,383250
14,433667	0,5	0,362100
14,442000	0,5	0,358250
14,450333	0,5	0,348000
14,458667	0,5	0,322550
14,467000	0,5	0,312350
14,475333	0,5	0,303000
14,483667	0,5	0,284900
14,492000	0,5	0,268350
14,500333	0,5	0,245100
14,508667	0,5	0,256100
14,517000	0,5	0,258150
14,525333	0,5	0,261100
14,533667	0,5	0,254350
14,542000	0,5	0,260250
14,550333	0,5	0,265300
14,558667	0,5	0,272500
14,567000	0,5	0,276400
14,575333	0,5	0,289850
14,583667	0,5	0,318300
14,592000	0,5	0,367550
14,600333	0,5	0,428450
14,608667	0,5	0,508800
14,617000	0,5	0,598500
14,625333	0,5	0,679250
14,633667	0,5	0,740400
14,642000	0,5	0,752600
14,650333	0,5	0,758950
14,658667	0,5	0,735900
14,667000	0,5	0,699400
14,675333	0,5	0,654400
14,683667	0,5	0,628600
14,692000	0,5	0,614100
14,700333	0,5	0,636300
14,708667	0,5	0,683550
14,717000	0,5	0,744850
14,725333	0,5	0,804150
14,733667	0,5	0,854600
14,742000	0,5	0,862500
14,750333	0,5	0,827300
14,758667	0,5	0,781400
14,767000	0,5	0,724950
14,775333	0,5	0,650350
14,783667	0,5	0,582800
14,792000	0,5	0,515250
14,800333	0,5	0,469800
14,808667	0,5	0,444750
14,817000	0,5	0,412850
14,825333	0,5	0,399300
14,833667	0,5	0,387250
14,842000	0,5	0,373750
14,850333	0,5	0,364800
14,858667	0,5	0,373800
14,867000	0,5	0,370900
14,875333	0,5	0,374950
14,883667	0,5	0,379050
14,892000	0,5	0,378350
14,900333	0,5	0,355800
14,908667	0,5	0,344500
14,917000	0,5	0,330950
14,925333	0,5	0,320000
14,933667	0,5	0,296700
14,942000	0,5	0,275050
14,950333	0,5	0,277450
14,958667	0,5	0,269200
14,967000	0,5	0,251250
14,975333	0,5	0,227750
14,983667	0,5	0,215900
14,992000	0,5	0,185700
15,000333	0,5	0,174350
15,008667	0,5	0,153100
15,017000	0,5	0,149050
15,025333	0,5	0,138450
15,033667	0,5	0,144650
15,042000	0,5	0,132350
15,050333	0,5	0,127950
15,058667	0,5	0,127700
15,067000	0,5	0,131350
15,075333	0,5	0,123750
15,083667	0,5	0,113300
15,092000	0,5	0,121350
15,100333	0,5	0,145950
15,108667	0,5	0,184650
15,117000	0,5	0,233300
15,125333	0,5	0,321550
15,133667	0,5	0,429600
15,142000	0,5	0,541100
15,150333	0,5	0,637700
15,158667	0,5	0,696100
15,167000	0,5	0,703100
15,175333	0,5	0,677750
15,183667	0,5	0,623750
15,192000	0,5	0,567300
15,200333	0,5	0,548300
15,208667	0,5	0,572750
15,217000	0,5	0,629150
15,225333	0,5	0,681450
15,233667	0,5	0,707600
15,242000	0,5	0,728700
15,250333	0,5	0,702800
15,258667	0,5	0,640600
15,267000	0,5	0,557750
15,275333	0,5	0,482600
15,283667	0,5	0,412450
15,292000	0,5	0,365200
15,300333	0,5	0,340700
15,308667	0,5	0,328800
15,317000	0,5	0,314100
15,325333	0,5	0,301950
15,333667	0,5	0,299000
15,342000	0,5	0,267400
15,350333	0,5	0,260900
15,358667	0,5	0,242150
15,367000	0,5	0,234300
15,375333	0,5	0,208400
15,383667	0,5	0,201100
15,392000	0,5	0,211850
15,400333	0,5	0,216150
15,408667	0,5	0,212400
15,417000	0,5	0,205550
15,425333	0,5	0,188000
15,433667	0,5	0,163800
15,442000	0,5	0,138650
15,450333	0,5	0,118050
15,458667	0,5	0,094650
15,467000	0,5	0,068850
15,475333	0,5	0,062700
15,483667	0,5	0,039600
15,492000	0,5	0,026900
15,500333	0,5	0,019400
15,508667	0,5	0,006500
15,517000	0,5	-0,016950
15,525333	0,5	-0,034450
15,533667	0,5	-0,058600
15,542000	0,5	-0,046350
15,550333	0,5	-0,038600
15,558667	0,5	-0,022600
15,567000	0,5	0,010800
15,575333	0,5	0,076700
15,583667	0,5	0,165300
15,592000	0,5	0,292650
15,600333	0,5	0,415900
15,608667	0,5	0,515950
15,617000	0,5	0,576650
15,625333	0,5	0,585100
15,633667	0,5	0,547100
15,642000	0,5	0,519450
15,650333	0,5	0,521150
15,658667	0,5	0,536900
15,667000	0,5	0,578750
15,675333	0,5	0,599400
15,683667	0,5	0,610300
15,692000	0,5	0,578650
15,700333	0,5	0,513950
15,708667	0,5	0,424100
15,717000	0,5	0,340400
15,725333	0,5	0,253050
15,733667	0,5	0,193600
15,742000	0,5	0,143300
15,750333	0,5	0,108250
15,758667	0,5	0,083000
15,767000	0,5	0,070350
15,775333	0,5	0,066050
15,783667	0,5	0,068150
15,792000	0,5	0,081400
15,800333	0,5	0,096350
15,808667	0,5	0,087950
15,817000	0,5	0,067550
15,825333	0,5	0,046800
15,833667	0,5	0,030400
15,842000	0,5	0,022800
15,850333	0,5	-0,010400
15,858667	0,5	-0,028100
15,867000	0,5	-0,065100
15,875333	0,5	-0,080000
15,883667	0,5	-0,105900
15,892000	0,5	-0,112900
15,900333	0,5	-0,133450
15,908667	0,5	-0,140450
15,917000	0,5	-0,147400
15,925333	0,5	-0,158100
15,933667	0,5	-0,161650
15,942000	0,5	-0,149600
15,950333	0,5	-0,145550
15,958667	0,5	-0,137800
15,967000	0,5	-0,133550
15,975333	0,5	-0,073900
15,983667	0,5	0,036400
15,992000	0,5	0,165000
16,000333	0,5	0,302400
16,008667	0,5	0,423300
16,017000	0,5	0,505150
16,025333	0,5	0,532550
16,033667	0,5	0,545600
16,042000	0,5	0,546800
16,050333	0,5	0,566300
16,058667	0,5	0,601000
16,067000	0,5	0,621700
16,075333	0,5	0,570150
16,083667	0,5	0,533850
16,092000	0,5	0,437350
16,100333	0,5	0,336750
16,108667	0,5	0,237100
16,117000	0,5	0,146350
16,125333	0,5	0,110650
16,133667	0,5	0,077900
16,142000	0,5	0,064400
16,150333	0,5	0,057100
16,158667	0,5	0,071450
16,167000	0,5	0,079150
16,175333	0,5	0,105950
16,183667	0,5	0,130400
16,192000	0,5	0,162450
16,200333	0,5	0,190700
16,208667	0,5	0,217800
16,217000	0,5	0,229200
16,225333	0,5	0,222500
16,233667	0,5	0,213850
16,242000	0,5	0,176850
16,250333	0,5	0,127550
16,258667	0,5	0,057350
16,267000	0,5	-0,020400
16,275333	0,5	-0,072200
16,283667	0,5	-0,120700
16,292000	0,5	-0,159200
16,300333	0,5	-0,187900
16,308667	0,5	-0,210650
16,317000	0,5	-0,221450
16,325333	0,5	-0,219000
16,333667	0,5	-0,183500
16,342000	0,5	-0,134650
16,350333	0,5	-0,029150
16,358667	0,5	0,096750
16,367000	0,5	0,229400
16,375333	0,5	0,333300
16,383667	0,5	0,413800
16,392000	0,5	0,435850
16,400333	0,5	0,436350
16,408667	0,5	0,417800
16,417000	0,5	0,411000
16,425333	0,5	0,415300
16,433667	0,5	0,382300
16,442000	0,5	0,326200
16,450333	0,5	0,258700
16,458667	0,5	0,192850
16,467000	0,5	0,140700
16,475333	0,5	0,117600
16,483667	0,5	0,099400
16,492000	0,5	0,114300
16,500333	0,5	0,116150
16,508667	0,5	0,138550
16,517000	0,5	0,123650
16,525333	0,5	0,132200
16,533667	0,5	0,123050
16,542000	0,5	0,109200
16,550333	0,5	0,072900
16,558667	0,5	0,036400
16,567000	0,5	0,010800
16,575333	0,5	0,002000
16,583667	0,5	-0,014350
16,592000	0,5	-0,015550
16,600333	0,5	-0,017250
16,608667	0,5	-0,003950
16,617000	0,5	-0,007450
16,625333	0,5	-0,001200
16,633667	0,5	0,000450
16,642000	0,5	-0,006050
16,650333	0,5	-0,004900
16,658667	0,5	-0,005750
16,667000	0,5	0,003450
16,675333	0,5	0,058350
16,683667	0,5	0,133650
16,692000	0,5	0,234150
16,700333	0,5	0,335850
16,708667	0,5	0,437750
16,717000	0,5	0,530400
16,725333	0,5	0,587600
16,733667	0,5	0,622300
16,742000	0,5	0,635750
16,750333	0,5	0,641200
16,758667	0,5	0,603950
16,767000	0,5	0,540450
16,775333	0,5	0,455300
16,783667	0,5	0,350800
16,792000	0,5	0,250550
16,800333	0,5	0,175350
16,808667	0,5	0,096500
16,817000	0,5	0,056000
16,825333	0,5	0,031900
16,833667	0,5	0,007250
16,842000	0,5	-0,011050
16,850333	0,5	-0,049100
16,858667	0,5	-0,059600
16,867000	0,5	-0,060100
16,875333	0,5	-0,058800
16,883667	0,5	-0,065600
16,892000	0,5	-0,069500
16,900333	0,5	-0,076800
16,908667	0,5	-0,085100
16,917000	0,5	-0,092450
16,925333	0,5	-0,111350
16,933667	0,5	-0,122350
16,942000	0,5	-0,130600
16,950333	0,5	-0,129300
16,958667	0,5	-0,125350
16,967000	0,5	-0,072250
16,975333	0,5	-0,007500
16,983667	0,5	0,083700
16,992000	0,5	0,190750
17,000333	0,5	0,322400
17,008667	0,5	0,488100
17,017000	0,5	0,652500
17,025333	0,5	0,795050
17,033667	0,5	0,940300
17,042000	0,5	1,077800
17,050333	0,5	1,201500
17,058667	0,5	1,309500
17,067000	0,5	1,394250
17,075333	0,5	1,444950
17,083667	0,5	1,485250
17,092000	0,5	1,514950
17,100333	0,5	1,522850
17,108667	0,5	1,533150
17,117000	0,5	1,561850
17,125333	0,5	1,604150
17,133667	0,5	1,638450
17,142000	0,5	1,666050
17,150333	0,5	1,700250
17,158667	0,5	1,728900
17,167000	0,5	1,717500
17,175333	0,5	1,674800
17,183667	0,5	1,593050
17,192000	0,5	1,499400
17,200333	0,5	1,380100
17,208667	0,5	1,283400
17,217000	0,5	1,199950
17,225333	0,5	1,165250
17,233667	0,5	1,178600
17,242000	0,5	1,292500
17,250333	0,5	1,455150
17,258667	0,5	1,741700
17,267000	0,5	2,065550
17,275333	0,5	2,399900
17,283667	0,5	2,672000
17,292000	0,5	2,831150
17,300333	0,5	2,891850
17,308667	0,5	2,821500
17,317000	0,5	2,625150
17,325333	0,5	2,327300
17,333667	0,5	1,998500
17,342000	0,5	1,662250
17,350333	0,5	1,379100
17,358667	0,5	1,152500
17,367000	0,5	0,993250
17,375333	0,5	0,881450
17,383667	0,5	0,803050
17,392000	0,5	0,752200
17,400333	0,5	0,711650
17,408667	0,5	0,690000
17,417000	0,5	0,660700
17,425333	0,5	0,634800
17,433667	0,5	0,598050
17,442000	0,5	0,554650
17,450333	0,5	0,529250
17,458667	0,5	0,499500
17,467000	0,5	0,435000
17,475333	0,5	0,390150
17,483667	0,5	0,338700
17,492000	0,5	0,313200
17,500333	0,5	0,302450
17,508667	0,5	0,321600
17,517000	0,5	0,339150
17,525333	0,5	0,371200
17,533667	0,5	0,379500
17,542000	0,5	0,385850
17,550333	0,5	0,364850
17,558667	0,5	0,339350
17,567000	0,5	0,275050
17,575333	0,5	0,208650
17,583667	0,5	0,122400
17,592000	0,5	0,043300
17,600333	0,5	0,012500
17,608667	0,5	-0,026100
17,617000	0,5	-0,057150
17,625333	0,5	-0,076000
17,633667	0,5	-0,091650
17,642000	0,5	-0,113400
17,650333	0,5	-0,135500
17,658667	0,5	-0,157200
17,667000	0,5	-0,170550
17,675333	0,5	-0,179600
17,683667	0,5	-0,173000
17,692000	0,5	-0,195100
17,700333	0,5	-0,191050
17,708667	0,5	-0,181200
17,717000	0,5	-0,166200
17,725333	0,5	-0,149350
17,733667	0,5	-0,111950
17,742000	0,5	-0,052300
17,750333	0,5	0,018850
17,758667	0,5	0,071150
17,767000	0,5	0,108500
17,775333	0,5	0,125150
17,783667	0,5	0,117550
17,792000	0,5	0,093050
17,800333	0,5	0,058650
17,808667	0,5	0,013200
17,817000	0,5	-0,033600
17,825333	0,5	-0,048600
17,833667	0,5	-0,082200
17,842000	0,5	-0,109550
17,850333	0,5	-0,126300
17,858667	0,5	-0,140200
17,867000	0,5	-0,172850
17,875333	0,5	-0,199450
17,883667	0,5	-0,227800
17,892000	0,5	-0,228850
17,900333	0,5	-0,238500
17,908667	0,5	-0,230050
17,917000	0,5	-0,226350
17,925333	0,5	-0,213250
17,933667	0,5	-0,186250
17,942000	0,5	-0,149750
17,950333	0,5	-0,098200
17,958667	0,5	-0,065400
17,967000	0,5	-0,023300
17,975333	0,5	-0,012400
17,983667	0,5	-0,030550
17,992000	0,5	-0,057800
18,000333	0,5	-0,087750
18,008667	0,5	-0,128950
18,017000	0,5	-0,180850
18,025333	0,5	-0,246050
18,033667	0,5	-0,268050
18,042000	0,5	-0,291400
18,050333	0,5	-0,315150
18,058667	0,5	-0,342900
18,067000	0,5	-0,354500
18,075333	0,5	-0,374250
18,083667	0,5	-0,384300
18,092000	0,5	-0,403400
18,100333	0,5	-0,410750
18,108667	0,5	-0,408950
18,117000	0,5	-0,399700
18,125333	0,5	-0,370000
18,133667	0,5	-0,359750
18,142000	0,5	-0,293750
18,150333	0,5	-0,267700
18,158667	0,5	-0,237500
18,167000	0,5	-0,237500
18,175333	0,5	-0,252050
18,183667	0,5	-0,271700
18,192000	0,5	-0,288250
18,200333	0,5	-0,328250
18,208667	0,5	-0,347200
18,217000	0,5	-0,377550
18,225333	0,5	-0,399300
18,233667	0,5	-0,428650
18,242000	0,5	-0,447250
18,250333	0,5	-0,472800
18,258667	0,5	-0,510550
18,267000	0,5	-0,525750
18,275333	0,5	-0,547600
18,283667	0,5	-0,565800
18,292000	0,5	-0,554400
18,300333	0,5	-0,551400
18,308667	0,5	-0,546700
18,317000	0,5	-0,538350
18,325333	0,5	-0,544650
18,333667	0,5	-0,510250
18,342000	0,5	-0,506000
18,350333	0,5	-0,513750
18,358667	0,5	-0,539650
18,367000	0,5	-0,565850
18,375333	0,5	-0,604200
18,383667	0,5	-0,622950
18,392000	0,5	-0,642850
18,400333	0,5	-0,653200
18,408667	0,5	-0,662700
18,417000	0,5	-0,663050
18,425333	0,5	-0,688750
18,433667	0,5	-0,693600
18,442000	0,5	-0,691550
18,450333	0,5	-0,700650
18,458667	0,5	-0,715200
18,467000	0,5	-0,737750
18,475333	0,5	-0,738550
18,483667	0,5	-0,727950
18,492000	0,5	-0,710950
18,500333	0,5	-0,711050
18,508667	0,5	-0,704750
18,517000	0,5	-0,717900
18,525333	0,5	-0,731100
18,533667	0,5	-0,754250
18,542000	0,5	-0,776100
18,550333	0,5	-0,801650
18,558667	0,5	-0,819150
18,567000	0,5	-0,830100
18,575333	0,5	-0,849800
18,583667	0,5	-0,841250
18,592000	0,5	-0,844650
18,600333	0,5	-0,846950
18,608667	0,5	-0,861950
18,617000	0,5	-0,886200
18,625333	0,5	-0,881150
18,633667	0,5	-0,864200
18,642000	0,5	-0,847450
18,650333	0,5	-0,805800
18,658667	0,5	-0,788450
18,667000	0,5	-0,777200
18,675333	0,5	-0,787400
18,683667	0,5	-0,787450
18,692000	0,5	-0,804850
18,700333	0,5	-0,804000
18,708667	0,5	-0,795450
18,717000	0,5	-0,792600
18,725333	0,5	-0,786550
18,733667	0,5	-0,775950
18,742000	0,5	-0,771550
18,750333	0,5	-0,765600
18,758667	0,5	-0,767350
18,767000	0,5	-0,752250
18,775333	0,5	-0,721250
18,783667	0,5	-0,691800
18,792000	0,5	-0,668800
18,800333	0,5	-0,660450
18,808667	0,5	-0,661450
18,817000	0,5	-0,675000
18,825333	0,5	-0,687300
18,833667	0,5	-0,710050
18,842000	0,5	-0,731450
18,850333	0,5	-0,734400
18,858667	0,5	-0,741500
18,867000	0,5	-0,756650
18,875333	0,5	-0,742500
18,883667	0,5	-0,731900
18,892000	0,5	-0,729450
18,900333	0,5	-0,742300
18,908667	0,5	-0,760700
18,917000	0,5	-0,753600
18,925333	0,5	-0,764400
18,933667	0,5	-0,781550
18,942000	0,5	-0,810200
18,950333	0,5	-0,839550
18,958667	0,5	-0,863350
18,967000	0,5	-0,885550
18,975333	0,5	-0,905050
18,983667	0,5	-0,914550
18,992000	0,5	-0,932300
19,000333	0,5	-0,917500
19,008667	0,5	-0,927550
19,017000	0,5	-0,921600
19,025333	0,5	-0,917150
19,033667	0,5	-0,907500
19,042000	0,5	-0,930800
19,050333	0,5	-0,960350
19,058667	0,5	-0,979650
19,067000	0,5	-0,992850
19,075333	0,5	-0,997700
19,083667	0,5	-1,009850
19,092000	0,5	-1,016500
19,100333	0,5	-1,031100
19,108667	0,5	-1,046550
19,117000	0,5	-1,056900
19,125333	0,5	-1,062450
19,133667	0,5	-1,078100
19,142000	0,5	-1,083350
19,150333	0,5	-1,089650
19,158667	0,5	-1,119550
19,167000	0,5	-1,132850
19,175333	0,5	-1,144100
19,183667	0,5	-1,160850
19,192000	0,5	-1,180850
19,200333	0,5	-1,225600
19,208667	0,5	-1,226450
19,217000	0,5	-1,215850
19,225333	0,5	-1,220100
19,233667	0,5	-1,236450
19,242000	0,5	-1,238600
19,250333	0,5	-1,257200
19,258667	0,5	-1,276750
19,267000	0,5	-1,272950
19,275333	0,5	-1,281950
19,283667	0,5	-1,292800
19,292000	0,5	-1,294700
19,300333	0,5	-1,287350
19,308667	0,5	-1,322100
19,317000	0,5	-1,300900
19,325333	0,5	-1,314000
19,333667	0,5	-1,322650
19,342000	0,5	-1,352400
19,350333	0,5	-1,392550
19,358667	0,5	-1,388200
19,367000	0,5	-1,384800
19,375333	0,5	-1,394300
19,383667	0,5	-1,408800
19,392000	0,5	-1,410850
19,400333	0,5	-1,414850
19,408667	0,5	-1,412850
19,417000	0,5	-1,417500
19,425333	0,5	-1,426850
19,433667	0,5	-1,439550
19,442000	0,5	-1,421700
19,450333	0,5	-1,431000
19,458667	0,5	-1,449950
19,467000	0,5	-1,444600
19,475333	0,5	-1,441050
19,483667	0,5	-1,456600
19,492000	0,5	-1,474050
19,500333	0,5	-1,501900
19,508667	0,5	-1,498650
19,517000	0,5	-1,512700
19,525333	0,5	-1,524000
19,533667	0,5	-1,524850
19,542000	0,5	-1,524850
19,550333	0,5	-1,535150
19,558667	0,5	-1,549900
19,567000	0,5	-1,559650
19,575333	0,5	-1,582300
19,583667	0,5	-1,577100
19,592000	0,5	-1,576850
19,600333	0,5	-1,591200
19,608667	0,5	-1,596300
19,617000	0,5	-1,593650
19,625333	0,5	-1,602700
19,633667	0,5	-1,614650
19,642000	0,5	-1,647000
19,650333	0,5	-1,653050
19,658667	0,5	-1,657950
19,667000	0,5	-1,652950
19,675333	0,5	-1,665100
19,683667	0,5	-1,664750
19,692000	0,5	-1,674550
19,700333	0,5	-1,683150
19,708667	0,5	-1,693200
19,717000	0,5	-1,713850
19,725333	0,5	-1,724700
19,733667	0,5	-1,728900
19,742000	0,5	-1,734500
19,750333	0,5	-1,755900
19,758667	0,5	-1,757050
19,767000	0,5	-1,781650
19,775333	0,5	-1,791450
19,783667	0,5	-1,827600
19,792000	0,5	-1,852900
19,800333	0,5	-1,869700
19,808667	0,5	-1,870300
19,817000	0,5	-1,880900
19,825333	0,5	-1,889550
19,833667	0,5	-1,895350
19,842000	0,5	-1,902750
19,850333	0,5	-1,911300
19,858667	0,5	-1,918800
19,867000	0,5	-1,934800
19,875333	0,5	-1,944450
19,883667	0,5	-1,932450
19,892000	0,5	-1,947950
19,900333	0,5	-1,959100
19,908667	0,5	-1,960950
19,917000	0,5	-1,969650
19,925333	0,5	-1,982500
19,933667	0,5	-2,008350
19,942000	0,5	-2,027700
19,950333	0,5	-2,025650
19,958667	0,5	-2,037850
19,967000	0,5	-2,050500
19,975333	0,5	-2,062150
19,983667	0,5	-2,070600
19,992000	0,5	-2,095400
20,000333	0,5	-2,109700
20,008667	0,5	-2,122500
20,017000	0,5	-2,149100
20,025333	0,5	-2,153700
20,033667	0,5	-2,162450
20,042000	0,5	-2,198750
20,050333	0,5	-2,203200
20,058667	0,5	-2,210050
20,067000	0,5	-2,239000
20,075333	0,5	-2,258700
20,083667	0,5	-2,302350
20,092000	0,5	-2,297300
20,100333	0,5	-2,316250
20,108667	0,5	-2,322750
20,117000	0,5	-2,343400
20,125333	0,5	-2,348650
20,133667	0,5	-2,360300
20,142000	0,5	-2,372550
20,150333	0,5	-2,368550
20,158667	0,5	-2,382750
20,167000	0,5	-2,379200
20,175333	0,5	-2,371450
20,183667	0,5	-2,385150
20,192000	0,5	-2,389250
20,200333	0,5	-2,387850
20,208667	0,5	-2,392100
20,217000	0,5	-2,402150
20,225333	0,5	-2,449600
20,233667	0,5	-2,464050
20,242000	0,5	-2,477250
20,250333	0,5	-2,480650
20,258667	0,5	-2,508900
20,267000	0,5	-2,508150
20,275333	0,5	-2,537500
20,283667	0,5	-2,547200
20,292000	0,5	-2,557150
20,300333	0,5	-2,565700
20,308667	0,5	-2,592950
20,317000	0,5	-2,604700
20,325333	0,5	-2,611800
20,333667	0,5	-2,656850
20,342000	0,5	-2,666300
20,350333	0,5	-2,690500
20,358667	0,5	-2,704500
20,367000	0,5	-2,749600
20,375333	0,5	-2,797850
20,383667	0,5	-2,822150
20,392000	0,5	-2,824700
20,400333	0,5	-2,857650
20,408667	0,5	-2,876650
20,417000	0,5	-2,897900
20,425333	0,5	-2,915000
20,433667	0,5	-2,948850
20,442000	0,5	-2,960300
20,450333	0,5	-2,979800
20,458667	0,5	-3,001250
20,467000	0,5	-2,998200
20,475333	0,5	-3,007200
20,483667	0,5	-3,043550
20,492000	0,5	-3,053850
20,500333	0,5	-3,066600
20,508667	0,5	-3,078650
20,517000	0,5	-3,093200
20,525333	0,5	-3,111600
20,533667	0,5	-3,091550
20,542000	0,5	-3,106700
20,550333	0,5	-3,116400
20,558667	0,5	-3,163000
20,567000	0,5	-3,201100
20,575333	0,5	-3,257250
20,583667	0,5	-3,303400
20,592000	0,5	-3,349150
20,600333	0,5	-3,383800
20,608667	0,5	-3,405650
20,617000	0,5	-3,418400
20,625333	0,5	-3,451050
20,633667	0,5	-3,484050
20,642000	0,5	-3,510000
20,650333	0,5	-3,555450
20,658667	0,5	-3,595700
20,667000	0,5	-3,644300
20,675333	0,5	-3,663450
20,683667	0,5	-3,671450
20,692000	0,5	-3,665300
20,700333	0,5	-3,652650
20,708667	0,5	-3,624750
20,717000	0,5	-3,623450
20,725333	0,5	-3,624950
20,733667	0,5	-3,667700
20,742000	0,5	-3,728800
20,750333	0,5	-3,808300
20,758667	0,5	-3,851900
20,767000	0,5	-3,907250
20,775333	0,5	-3,964400
20,783667	0,5	-4,026300
20,792000	0,5	-4,087150
20,800333	0,5	-4,145300
20,808667	0,5	-4,213400
20,817000	0,5	-4,273400
20,825333	0,5	-4,331150
20,833667	0,5	-4,354750
20,842000	0,5	-4,400550
20,850333	0,5	-4,433150
20,858667	0,5	-4,468700
20,867000	0,5	-4,493700
20,875333	0,5	-4,528150
20,883667	0,5	-4,546700
20,892000	0,5	-4,579200
20,900333	0,5	-4,605350
20,908667	0,5	-4,623300
20,917000	0,5	-4,662750
20,925333	0,5	-4,708250
20,933667	0,5	-4,751400
20,942000	0,5	-4,813600
20,950333	0,5	-4,861250
20,958667	0,5	-4,931650
20,967000	0,5	-4,983200
20,975333	0,5	-5,006600
20,983667	0,5	-5,053200
20,992000	0,5	-5,086250
21,000333	0,5	-5,126750
21,008667	0,5	-5,146400
21,017000	0,5	-5,180150
21,025333	0,5	-5,206500
21,033667	0,5	-5,244700
21,042000	0,5	-5,275050
21,050333	0,5	-5,280350
21,058667	0,5	-5,285800
21,067000	0,5	-5,308500
21,075333	0,5	-5,336650
21,083667	0,5	-5,371050
21,092000	0,5	-5,418550
21,100333	0,5	-5,483950
21,108667	0,5	-5,538200
21,117000	0,5	-5,556350
21,125333	0,5	-5,588700
21,133667	0,5	-5,619850
21,142000	0,5	-5,654950
21,150333	0,5	-5,672350
21,158667	0,5	-5,710350
21,167000	0,5	-5,727550
21,175333	0,5	-5,742900
21,183667	0,5	-5,763950
21,192000	0,5	-5,787750
21,200333	0,5	-5,767850
21,208667	0,5	-5,770350
21,217000	0,5	-5,790000
21,225333	0,5	-5,810950
21,233667	0,5	-5,843900
21,242000	0,5	-5,874700
21,250333	0,5	-5,928550
21,258667	0,5	-5,934500
21,267000	0,5	-5,939800
21,275333	0,5	-5,942950
21,283667	0,5	-5,956900
21,292000	0,5	-5,962650
21,300333	0,5	-5,987550
21,308667	0,5	-6,016050
21,317000	0,5	-6,045000
21,325333	0,5	-6,067050
21,333667	0,5	-6,095550
21,342000	0,5	-6,096350
21,350333	0,5	-6,095950
21,358667	0,5	-6,101350
21,367000	0,5	-6,141600
21,375333	0,5	-6,162300
21,383667	0,5	-6,185950
21,392000	0,5	-6,220350
21,400333	0,5	-6,265900
21,408667	0,5	-6,282900
21,417000	0,5	-6,285650
21,425333	0,5	-6,312100
21,433667	0,5	-6,320050
21,442000	0,5	-6,324750
21,450333	0,5	-6,339950
21,458667	0,5	-6,359050
21,467000	0,5	-6,370150
21,475333	0,5	-6,395300
21,483667	0,5	-6,409650
21,492000	0,5	-6,393300
21,500333	0,5	-6,384300
21,508667	0,5	-6,401500
21,517000	0,5	-6,415650
21,525333	0,5	-6,437800
21,533667	0,5	-6,462250
21,542000	0,5	-6,500750
21,550333	0,5	-6,528800
21,558667	0,5	-6,521600
21,567000	0,5	-6,538350
21,575333	0,5	-6,543350
21,583667	0,5	-6,551050
21,592000	0,5	-6,553200
21,600333	0,5	-6,570300
21,608667	0,5	-6,561000
21,617000	0,5	-6,578900
21,625333	0,5	-6,572650
21,633667	0,5	-6,551300
21,642000	0,5	-6,509650
21,650333	0,5	-6,494950
21,658667	0,5	-6,490100
21,667000	0,5	-6,498400
21,675333	0,5	-6,521550
21,683667	0,5	-6,563100
21,692000	0,5	-6,610550
21,700333	0,5	-6,637650
21,708667	0,5	-6,659550
21,717000	0,5	-6,667500
21,725333	0,5	-6,695750
21,733667	0,5	-6,706800
21,742000	0,5	-6,723550
21,750333	0,5	-6,743900
21,758667	0,5	-6,767350
21,767000	0,5	-6,791600
21,775333	0,5	-6,819300
21,783667	0,5	-6,804350
21,792000	0,5	-6,810400
21,800333	0,5	-6,839600
21,808667	0,5	-6,845900
21,817000	0,5	-6,871150
21,825333	0,5	-6,904250
21,833667	0,5	-6,937600
21,842000	0,5	-6,960300
21,850333	0,5	-6,963550
21,858667	0,5	-6,974000
21,867000	0,5	-6,990900
21,875333	0,5	-6,997050
21,883667	0,5	-7,017350
21,892000	0,5	-7,025600
21,900333	0,5	-7,026700
21,908667	0,5	-7,011250
21,917000	0,5	-6,985150
21,925333	0,5	-6,940250
21,933667	0,5	-6,866850
21,942000	0,5	-6,854200
21,950333	0,5	-6,874600
21,958667	0,5	-6,903450
21,967000	0,5	-6,971200
21,975333	0,5	-7,041300
21,983667	0,5	-7,098900
21,992000	0,5	-7,143350
22,000333	0,5	-7,169450
22,008667	0,5	-7,210450
22,017000	0,5	-7,237100
22,025333	0,5	-7,269400
22,033667	0,5	-7,294850
22,042000	0,5	-7,326550
22,050333	0,5	-7,328350
22,058667	0,5	-7,362950
22,067000	0,5	-7,384800
22,075333	0,5	-7,393400
22,083667	0,5	-7,416500
22,092000	0,5	-7,440300
22,100333	0,5	-7,445900
22,108667	0,5	-7,469350
22,117000	0,5	-7,489800
22,125333	0,5	-7,532050
22,133667	0,5	-7,571300
22,142000	0,5	-7,561600
22,150333	0,5	-7,579050
22,158667	0,5	-7,584250
22,167000	0,5	-7,595700
22,175333	0,5	-7,599750
22,183667	0,5	-7,621850
22,192000	0,5	-7,622200
22,200333	0,5	-7,628800
22,208667	0,5	-7,641850
22,217000	0,5	-7,652550
22,225333	0,5	-7,649850
22,233667	0,5	-7,687150
22,242000	0,5	-7,670150
22,250333	0,5	-7,654050
22,258667	0,5	-7,652600
22,267000	0,5	-7,664650
22,275333	0,5	-7,674800
22,283667	0,5	-7,660350
22,292000	0,5	-7,642400
22,300333	0,5	-7,635800
22,308667	0,5	-7,632800
22,317000	0,5	-7,613350
22,325333	0,5	-7,614250
22,333667	0,5	-7,603050
22,342000	0,5	-7,573350
22,350333	0,5	-7,501100
22,358667	0,5	-7,419850
22,367000	0,5	-7,360000
22,375333	0,5	-7,325250
22,383667	0,5	-7,307150
22,392000	0,5	-7,333400
22,400333	0,5	-7,391550
22,408667	0,5	-7,445450
22,417000	0,5	-7,502350
22,425333	0,5	-7,541750
22,433667	0,5	-7,561600
22,442000	0,5	-7,567150
22,450333	0,5	-7,588650
22,458667	0,5	-7,596350
22,467000	0,5	-7,608800
22,475333	0,5	-7,601000
22,483667	0,5	-7,611000
22,492000	0,5	-7,601500
22,500333	0,5	-7,609050
22,508667	0,5	-7,607550
22,517000	0,5	-7,625550
22,525333	0,5	-7,608750
22,533667	0,5	-7,558450
22,542000	0,5	-7,528300
22,550333	0,5	-7,495250
22,558667	0,5	-7,480750
22,567000	0,5	-7,472500
22,575333	0,5	-7,449650
22,583667	0,5	-7,421050
22,592000	0,5	-7,416700
22,600333	0,5	-7,400450
22,608667	0,5	-7,406250
22,617000	0,5	-7,398250
22,625333	0,5	-7,398150
22,633667	0,5	-7,398350
22,642000	0,5	-7,405150
22,650333	0,5	-7,390500
22,658667	0,5	-7,456850
22,667000	0,5	-7,450800
22,675333	0,5	-7,448700
22,683667	0,5	-7,424650
22,692000	0,5	-7,432700
22,700333	0,5	-7,448750
22,708667	0,5	-7,457400
22,717000	0,5	-7,507550
22,725333	0,5	-7,501700
22,733667	0,5	-7,516450
22,742000	0,5	-7,534100
22,750333	0,5	-7,550400
22,758667	0,5	-7,559300
22,767000	0,5	-7,577200
22,775333	0,5	-7,584500
22,783667	0,5	-7,598600
22,792000	0,5	-7,613550
22,800333	0,5	-7,641400
22,808667	0,5	-7,738850
22,817000	0,5	-7,734850
22,825333	0,5	-7,719650
22,833667	0,5	-7,730550
22,842000	0,5	-7,762150
22,850333	0,5	-7,787700
22,858667	0,5	-7,819300
22,867000	0,5	-7,845400
22,875333	0,5	-7,877300
22,883667	0,5	-7,904650
22,892000	0,5	-7,917900
22,900333	0,5	-7,939600
22,908667	0,5	-7,927800
22,917000	0,5	-7,944700
22,925333	0,5	-7,939550
22,933667	0,5	-7,944150
22,942000	0,5	-7,923400
22,950333	0,5	-7,896750
22,958667	0,5	-7,916800
22,967000	0,5	-7,883100
22,975333	0,5	-7,898150
22,983667	0,5	-7,881900
22,992000	0,5	-7,860750
23,000333	0,5	-7,832300
23,008667	0,5	-7,805500
23,017000	0,5	-7,775750
23,025333	0,5	-7,752150
23,033667	0,5	-7,707050
23,042000	0,5	-7,654650
23,050333	0,5	-7,609550
23,058667	0,5	-7,549750
23,067000	0,5	-7,480450
23,075333	0,5	-7,413750
23,083667	0,5	-7,342750
23,092000	0,5	-7,257100
23,100333	0,5	-7,157050
23,108667	0,5	-7,066450
23,117000	0,5	-7,013650
23,125333	0,5	-6,972500
23,133667	0,5	-6,906050
23,142000	0,5	-6,815350
23,150333	0,5	-6,723150
23,158667	0,5	-6,658950
23,167000	0,5	-6,603200
23,175333	0,5	-6,515000
23,183667	0,5	-6,443750
23,192000	0,5	-6,359200
23,200333	0,5	-6,274850
23,208667	0,5	-6,185050
23,217000	0,5	-6,091850
23,225333	0,5	-6,001700
23,233667	0,5	-5,904400
23,242000	0,5	-5,767500
23,250333	0,5	-5,701550
23,258667	0,5	-5,589450
23,267000	0,5	-5,517950
23,275333	0,5	-5,461500
23,283667	0,5	-5,384250
23,292000	0,5	-5,308800
23,300333	0,5	-5,209300
23,308667	0,5	-5,149450
23,317000	0,5	-5,086000
23,325333	0,5	-5,015550
23,333667	0,5	-4,939350
23,342000	0,5	-4,874300
23,350333	0,5	-4,796100
23,358667	0,5	-4,729150
23,367000	0,5	-4,651850
23,375333	0,5	-4,578550
23,383667	0,5	-4,486500
23,392000	0,5	-4,447950
23,400333	0,5	-4,389650
23,408667	0,5	-4,267100
23,417000	0,5	-4,193200
23,425333	0,5	-4,148500
23,433667	0,5	-4,085250
23,442000	0,5	-4,025950
23,450333	0,5	-3,962650
23,458667	0,5	-3,927100
23,467000	0,5	-3,888000
23,475333	0,5	-3,830200
23,483667	0,5	-3,785200
23,492000	0,5	-3,741850
23,500333	0,5	-3,690800
23,508667	0,5	-3,648400
23,517000	0,5	-3,604800
23,525333	0,5	-3,550900
23,533667	0,5	-3,511050
23,542000	0,5	-3,594400
23,550333	0,5	-3,515150
23,558667	0,5	-3,420350
23,567000	0,5	-3,361250
23,575333	0,5	-3,322850
23,583667	0,5	-3,290400
23,592000	0,5	-3,290050
23,600333	0,5	-3,223850
23,608667	0,5	-3,192650
23,617000	0,5	-3,166500
23,625333	0,5	-3,133600
23,633667	0,5	-3,107150
23,642000	0,5	-3,073600
23,650333	0,5	-3,044850
23,658667	0,5	-3,016250
23,667000	0,5	-2,984500
23,675333	0,5	-2,954550
23,683667	0,5	-3,049650
23,692000	0,5	-3,044200
23,700333	0,5	-3,008000
23,708667	0,5	-2,913400
23,717000	0,5	-2,870550
23,725333	0,5	-2,842000
23,733667	0,5	-2,818350
23,742000	0,5	-2,799650
23,750333	0,5	-2,785350
23,758667	0,5	-2,759400
23,767000	0,5	-2,733650
23,775333	0,5	-2,712350
23,783667	0,5	-2,692100
23,792000	0,5	-2,665800
23,800333	0,5	-2,640400
23,808667	0,5	-2,607800
23,817000	0,5	-2,577050
23,825333	0,5	-2,562700
23,833667	0,5	-2,723350
23,842000	0,5	-2,679650
23,850333	0,5	-2,622400
23,858667	0,5	-2,534800
23,867000	0,5	-2,486450
23,875333	0,5	-2,451750
23,883667	0,5	-2,435800
23,892000	0,5	-2,431150
23,900333	0,5	-2,402800
23,908667	0,5	-2,380550
23,917000	0,5	-2,355750
23,925333	0,5	-2,338150
23,933667	0,5	-2,309900
23,942000	0,5	-2,287550
23,950333	0,5	-2,266200
23,958667	0,5	-2,247400
23,967000	0,5	-2,218450
23,975333	0,5	-2,249000
23,983667	0,5	-2,365400
23,992000	0,5	-2,314000
24,000333	0,5	-2,240250
24,008667	0,5	-2,176500
24,017000	0,5	-2,137150
24,025333	0,5	-2,108400
24,033667	0,5	-2,102550
24,042000	0,5	-2,077800
24,050333	0,5	-2,053200
24,058667	0,5	-2,021400
24,067000	0,5	-2,002700
24,075333	0,5	-1,965750
24,083667	0,5	-1,943800
24,092000	0,5	-1,914000
24,100333	0,5	-1,886000
24,108667	0,5	-1,856100
24,117000	0,5	-1,834300
24,125333	0,5	-1,949550
24,133667	0,5	-1,953850
24,142000	0,5	-1,906650
24,150333	0,5	-1,845700
24,158667	0,5	-1,806800
24,167000	0,5	-1,778950
24,175333	0,5	-1,748100
24,183667	0,5	-1,751150
24,192000	0,5	-1,738450
24,200333	0,5	-1,706750
24,208667	0,5	-1,690500
24,217000	0,5	-1,664400
24,225333	0,5	-1,638350
24,233667	0,5	-1,608850
24,242000	0,5	-1,588350
24,250333	0,5	-1,556100
24,258667	0,5	-1,544100
24,267000	0,5	-1,530350
24,275333	0,5	-1,631200
24,283667	0,5	-1,596950
24,292000	0,5	-1,555850
24,300333	0,5	-1,495950
24,308667	0,5	-1,465050
24,317000	0,5	-1,441050
24,325333	0,5	-1,431150
24,333667	0,5	-1,423550
24,342000	0,5	-1,391650
24,350333	0,5	-1,374400
24,358667	0,5	-1,364150
24,367000	0,5	-1,348000
24,375333	0,5	-1,323850
24,383667	0,5	-1,309100
24,392000	0,5	-1,292650
24,400333	0,5	-1,275850
24,408667	0,5	-1,258200
24,417000	0,5	-1,292000
24,425333	0,5	-1,320250
24,433667	0,5	-1,312400
24,442000	0,5	-1,264950
24,450333	0,5	-1,236500
24,458667	0,5	-1,206950
24,467000	0,5	-1,198050
24,475333	0,5	-1,195700
24,483667	0,5	-1,174950
24,492000	0,5	-1,148750
24,500333	0,5	-1,129450
24,508667	0,5	-1,118500
24,517000	0,5	-1,100450
24,525333	0,5	-1,086700
24,533667	0,5	-1,072650
24,542000	0,5	-1,051350
24,550333	0,5	-1,037450
24,558667	0,5	-1,033400
24,567000	0,5	-1,096950
24,575333	0,5	-1,080650
24,583667	0,5	-1,060700
24,592000	0,5	-1,028850
24,600333	0,5	-1,010650
24,608667	0,5	-0,997100
24,617000	0,5	-0,985750
24,625333	0,5	-0,992250
24,633667	0,5	-0,979300
24,642000	0,5	-0,966850
24,650333	0,5	-0,956900
24,658667	0,5	-0,949700
24,667000	0,5	-0,937450
24,675333	0,5	-0,928200
24,683667	0,5	-0,917250
24,692000	0,5	-0,902000
24,700333	0,5	-0,890550
24,708667	0,5	-0,885550
24,717000	0,5	-0,932750
24,725333	0,5	-0,897500
24,733667	0,5	-0,886300
24,742000	0,5	-0,861250
24,750333	0,5	-0,847200
24,758667	0,5	-0,830200
24,767000	0,5	-0,837150
24,775333	0,5	-0,835400
24,783667	0,5	-0,823450
24,792000	0,5	-0,816500
24,800333	0,5	-0,806250
24,808667	0,5	-0,802650
24,817000	0,5	-0,799600
24,825333	0,5	-0,792850
24,833667	0,5	-0,785650
24,842000	0,5	-0,779350
24,850333	0,5	-0,773850
24,858667	0,5	-0,793950
24,867000	0,5	-0,799500
24,875333	0,5	-0,786550
24,883667	0,5	-0,772150
24,892000	0,5	-0,752850
24,900333	0,5	-0,744150
24,908667	0,5	-0,731650
24,917000	0,5	-0,734600
24,925333	0,5	-0,733100
24,933667	0,5	-0,721400
24,942000	0,5	-0,712500
24,950333	0,5	-0,704550
24,958667	0,5	-0,701500
24,967000	0,5	-0,694600
24,975333	0,5	-0,692950
24,983667	0,5	-0,683350
24,992000	0,5	-0,684100
25,000333	0,5	-0,676150
25,008667	0,5	-0,696350
25,017000	0,5	-0,689750
25,025333	0,5	-0,686550
25,033667	0,5	-0,682050
25,042000	0,5	-0,672700
25,050333	0,5	-0,670400
25,058667	0,5	-0,670700
25,067000	0,5	-0,671250
25,075333	0,5	-0,669850
25,083667	0,5	-0,663000
25,092000	0,5	-0,660750
25,100333	0,5	-0,654000
25,108667	0,5	-0,651050
25,117000	0,5	-0,647700
25,125333	0,5	-0,639050
25,133667	0,5	-0,631900
25,142000	0,5	-0,625200
25,150333	0,5	-0,621650
25,158667	0,5	-0,623500
25,167000	0,5	-0,618800
25,175333	0,5	-0,617600
25,183667	0,5	-0,615650
25,192000	0,5	-0,613700
25,200333	0,5	-0,613900
25,208667	0,5	-0,614800
25,217000	0,5	-0,618800
25,225333	0,5	-0,616450
25,233667	0,5	-0,615300
25,242000	0,5	-0,616950
25,250333	0,5	-0,611200
25,258667	0,5	-0,612550
25,267000	0,5	-0,611350
25,275333	0,5	-0,608500
25,283667	0,5	-0,600150
25,292000	0,5	-0,600850
25,300333	0,5	-0,598550
25,308667	0,5	-0,589350
25,317000	0,5	-0,581350
25,325333	0,5	-0,581250
25,333667	0,5	-0,582500
25,342000	0,5	-0,578550
25,350333	0,5	-0,574700
25,358667	0,5	-0,573300
25,367000	0,5	-0,575050
25,375333	0,5	-0,570950
25,383667	0,5	-0,570350
25,392000	0,5	-0,573700
25,400333	0,5	-0,570700
25,408667	0,5	-0,575950
25,417000	0,5	-0,570850
25,425333	0,5	-0,578200
25,433667	0,5	-0,578050
25,442000	0,5	-0,574850
25,450333	0,5	-0,570750
25,458667	0,5	-0,567250
25,467000	0,5	-0,559000
25,475333	0,5	-0,562000
25,483667	0,5	-0,563600
25,492000	0,5	-0,560900
25,500333	0,5	-0,556950
25,508667	0,5	-0,553750
25,517000	0,5	-0,553200
25,525333	0,5	-0,556850
25,533667	0,5	-0,554250
25,542000	0,5	-0,554050
25,550333	0,5	-0,553950
25,558667	0,5	-0,548800
25,567000	0,5	-0,552400
25,575333	0,5	-0,549450
25,583667	0,5	-0,554950
25,592000	0,5	-0,549750
25,600333	0,5	-0,541550
25,608667	0,5	-0,536900
25,617000	0,5	-0,537100
25,625333	0,5	-0,548200
25,633667	0,5	-0,550850
25,642000	0,5	-0,547550
25,650333	0,5	-0,552000
25,658667	0,5	-0,541650
25,667000	0,5	-0,548000
25,675333	0,5	-0,547000
25,683667	0,5	-0,545800
25,692000	0,5	-0,544950
25,700333	0,5	-0,546400
25,708667	0,5	-0,539150
25,717000	0,5	-0,538300
25,725333	0,5	-0,539000
25,733667	0,5	-0,539400
25,742000	0,5	-0,531900
25,750333	0,5	-0,520800
25,758667	0,5	-0,517200
25,767000	0,5	-0,517500
25,775333	0,5	-0,528750
25,783667	0,5	-0,526750
25,792000	0,5	-0,528250
25,800333	0,5	-0,518050
25,808667	0,5	-0,508400
25,817000	0,5	-0,516600
25,825333	0,5	-0,518750
25,833667	0,5	-0,516550
25,842000	0,5	-0,523600
25,850333	0,5	-0,518500
25,858667	0,5	-0,516350
25,867000	0,5	-0,516200
25,875333	0,5	-0,512400
25,883667	0,5	-0,507450
25,892000	0,5	-0,484850
25,900333	0,5	-0,492600
25,908667	0,5	-0,482050
25,917000	0,5	-0,493000
25,925333	0,5	-0,489850
25,933667	0,5	-0,489200
25,942000	0,5	-0,483500
25,950333	0,5	-0,477350
25,958667	0,5	-0,464000
25,967000	0,5	-0,468400
25,975333	0,5	-0,468850
25,983667	0,5	-0,468850
25,992000	0,5	-0,464050
26,000333	0,5	-0,464350
