File Path	chrom://chromeleon01/ikbm_chromeleon/2022/ICS-5000/ED1/Esteban/20220427_Cell_Amandas_mutants.seq/819.smp/ED_1.channel/ED_1.chm
Channel	ED_1

Injection Information:
Data Vault	ikbm_chromeleon
Injection	EG_PASC_2a
Injection Number	39
Position	RD7
Comment	
Processing Method	Stop sequence after Cell Death
Instrument Method	ICS5000_PA200_FullNative_Ox_26min_ED1
Type	Unknown
Status	Finished
Injection Date	28.04.2022
Injection Time	07:04:26
Injection Volume (µl)	5,0
Dilution Factor	1,0000
Weight	1,0000

Chromatogram Data Information:
Time Min. (min)	0,000333
Time Max. (min)	26,000333
Data Points	3121
Detector	EDet1
Generating Data System	Chromeleon 7.2.9.11323
Exporting Data System	Chromeleon 7.2.9.0
Operator	Instrument Controller
Signal Quantity	
Signal Unit	nC
Signal Min.	-7,616700
Signal Max.	2 837,472892
Channel	ED_1
Driver Name	DC-5000
Channel Type	Evaluation
Min. Step (s)	0,5
Max. Step (s)	0,5
Average Step (s)	0,5

Signal Parameter Information:
Signal Info	

Chromatogram Data:
Time (min)	Step (s)	Value (nC)
0,000333	n.a.	-0,081700
0,008667	0,5	-0,093100
0,017000	0,5	-0,085800
0,025333	0,5	-0,090150
0,033667	0,5	-0,065300
0,042000	0,5	-0,026100
0,050333	0,5	0,009600
0,058667	0,5	0,018550
0,067000	0,5	0,014750
0,075333	0,5	0,005550
0,083667	0,5	0,011850
0,092000	0,5	0,006900
0,100333	0,5	0,005600
0,108667	0,5	0,007950
0,117000	0,5	-0,002700
0,125333	0,5	0,003350
0,133667	0,5	-0,000600
0,142000	0,5	-0,008650
0,150333	0,5	0,002350
0,158667	0,5	0,015800
0,167000	0,5	-0,018550
0,175333	0,5	-0,021250
0,183667	0,5	-0,021200
0,192000	0,5	0,025800
0,200333	0,5	0,035300
0,208667	0,5	0,034700
0,217000	0,5	0,015000
0,225333	0,5	0,025050
0,233667	0,5	0,020150
0,242000	0,5	0,028900
0,250333	0,5	0,017150
0,258667	0,5	0,007950
0,267000	0,5	0,002950
0,275333	0,5	0,005550
0,283667	0,5	0,012500
0,292000	0,5	-0,001550
0,300333	0,5	0,090500
0,308667	0,5	0,101700
0,317000	0,5	0,037700
0,325333	0,5	-0,018400
0,333667	0,5	-0,023900
0,342000	0,5	0,011400
0,350333	0,5	0,018500
0,358667	0,5	-0,000700
0,367000	0,5	0,006550
0,375333	0,5	-0,001050
0,383667	0,5	-0,003950
0,392000	0,5	-0,014150
0,400333	0,5	-0,006500
0,408667	0,5	-0,016050
0,417000	0,5	-0,018450
0,425333	0,5	-0,012450
0,433667	0,5	-0,024400
0,442000	0,5	-0,031750
0,450333	0,5	0,006950
0,458667	0,5	-0,025600
0,467000	0,5	-0,033850
0,475333	0,5	-0,028150
0,483667	0,5	-0,026700
0,492000	0,5	0,018650
0,500333	0,5	-0,009600
0,508667	0,5	-0,005450
0,517000	0,5	-0,012550
0,525333	0,5	-0,002350
0,533667	0,5	-0,014600
0,542000	0,5	0,002500
0,550333	0,5	-0,011250
0,558667	0,5	-0,016500
0,567000	0,5	-0,021100
0,575333	0,5	-0,016350
0,583667	0,5	-0,026800
0,592000	0,5	-0,020050
0,600333	0,5	0,000100
0,608667	0,5	-0,023500
0,617000	0,5	-0,035800
0,625333	0,5	-0,033250
0,633667	0,5	-0,002000
0,642000	0,5	0,039750
0,650333	0,5	0,022500
0,658667	0,5	0,008200
0,667000	0,5	0,003150
0,675333	0,5	-0,007750
0,683667	0,5	-0,003300
0,692000	0,5	-0,015550
0,700333	0,5	-0,004600
0,708667	0,5	-0,023050
0,717000	0,5	-0,005950
0,725333	0,5	0,003950
0,733667	0,5	0,003750
0,742000	0,5	0,014200
0,750333	0,5	0,008550
0,758667	0,5	-0,013550
0,767000	0,5	-0,019900
0,775333	0,5	-0,013800
0,783667	0,5	0,012750
0,792000	0,5	0,032600
0,800333	0,5	0,011700
0,808667	0,5	0,008050
0,817000	0,5	0,014500
0,825333	0,5	0,006050
0,833667	0,5	0,012450
0,842000	0,5	0,027700
0,850333	0,5	0,010700
0,858667	0,5	0,007150
0,867000	0,5	0,002450
0,875333	0,5	0,021550
0,883667	0,5	0,001600
0,892000	0,5	0,031200
0,900333	0,5	0,010200
0,908667	0,5	0,004150
0,917000	0,5	0,000350
0,925333	0,5	0,023700
0,933667	0,5	0,058200
0,942000	0,5	0,078250
0,950333	0,5	0,054200
0,958667	0,5	0,061050
0,967000	0,5	0,062200
0,975333	0,5	0,051300
0,983667	0,5	0,045650
0,992000	0,5	0,043650
1,000333	0,5	0,043600
1,008667	0,5	0,043200
1,017000	0,5	0,054500
1,025333	0,5	0,037200
1,033667	0,5	0,047250
1,042000	0,5	0,070800
1,050333	0,5	0,050750
1,058667	0,5	0,043750
1,067000	0,5	0,042800
1,075333	0,5	0,067200
1,083667	0,5	0,105700
1,092000	0,5	0,104650
1,100333	0,5	0,105050
1,108667	0,5	0,090100
1,117000	0,5	0,095500
1,125333	0,5	0,089100
1,133667	0,5	0,103100
1,142000	0,5	0,101250
1,150333	0,5	0,095250
1,158667	0,5	0,100450
1,167000	0,5	0,096500
1,175333	0,5	0,094050
1,183667	0,5	0,116750
1,192000	0,5	0,109750
1,200333	0,5	0,093100
1,208667	0,5	0,095250
1,217000	0,5	0,096450
1,225333	0,5	0,141800
1,233667	0,5	0,160200
1,242000	0,5	0,177500
1,250333	0,5	0,156000
1,258667	0,5	0,165700
1,267000	0,5	0,153950
1,275333	0,5	0,157300
1,283667	0,5	0,154400
1,292000	0,5	0,158650
1,300333	0,5	0,156850
1,308667	0,5	0,159350
1,317000	0,5	0,171350
1,325333	0,5	0,172650
1,333667	0,5	0,205250
1,342000	0,5	0,196850
1,350333	0,5	0,180800
1,358667	0,5	0,185800
1,367000	0,5	0,201250
1,375333	0,5	0,243800
1,383667	0,5	0,253450
1,392000	0,5	0,239600
1,400333	0,5	0,245650
1,408667	0,5	0,245800
1,417000	0,5	0,252800
1,425333	0,5	0,253600
1,433667	0,5	0,268200
1,442000	0,5	0,270600
1,450333	0,5	0,277600
1,458667	0,5	0,292600
1,467000	0,5	0,290750
1,475333	0,5	0,286000
1,483667	0,5	0,325850
1,492000	0,5	0,303650
1,500333	0,5	0,303600
1,508667	0,5	0,316450
1,517000	0,5	0,335400
1,525333	0,5	0,382100
1,533667	0,5	0,376900
1,542000	0,5	0,381850
1,550333	0,5	0,385400
1,558667	0,5	0,401300
1,567000	0,5	0,402350
1,575333	0,5	0,333650
1,583667	0,5	-0,145850
1,592000	0,5	-1,191550
1,600333	0,5	-1,540000
1,608667	0,5	0,226950
1,617000	0,5	3,415950
1,625333	0,5	7,350750
1,633667	0,5	12,470800
1,642000	0,5	17,659400
1,650333	0,5	20,370500
1,658667	0,5	20,010400
1,667000	0,5	18,178400
1,675333	0,5	16,196650
1,683667	0,5	14,354800
1,692000	0,5	12,741450
1,700333	0,5	11,491150
1,708667	0,5	10,953150
1,717000	0,5	11,915700
1,725333	0,5	14,951050
1,733667	0,5	18,261500
1,742000	0,5	18,644800
1,750333	0,5	15,990250
1,758667	0,5	12,736850
1,767000	0,5	10,505050
1,775333	0,5	9,654500
1,783667	0,5	10,045850
1,792000	0,5	11,181000
1,800333	0,5	12,320850
1,808667	0,5	12,729200
1,817000	0,5	12,258350
1,825333	0,5	11,333750
1,833667	0,5	10,384050
1,842000	0,5	9,519050
1,850333	0,5	8,734200
1,858667	0,5	7,995100
1,867000	0,5	7,340550
1,875333	0,5	6,797350
1,883667	0,5	6,344100
1,892000	0,5	5,955100
1,900333	0,5	5,607250
1,908667	0,5	5,303150
1,917000	0,5	5,030200
1,925333	0,5	4,867650
1,933667	0,5	4,791950
1,942000	0,5	5,002450
1,950333	0,5	5,556900
1,958667	0,5	6,155200
1,967000	0,5	6,299150
1,975333	0,5	6,345000
1,983667	0,5	7,957650
1,992000	0,5	14,743100
2,000333	0,5	32,542300
2,008667	0,5	70,644101
2,017000	0,5	154,824702
2,025333	0,5	353,177855
2,033667	0,5	700,251560
2,042000	0,5	1 007,794865
2,050333	0,5	1 060,572766
2,058667	0,5	893,865363
2,067000	0,5	662,593060
2,075333	0,5	478,103707
2,083667	0,5	358,599155
2,092000	0,5	280,847704
2,100333	0,5	226,773803
2,108667	0,5	187,146453
2,117000	0,5	157,203802
2,125333	0,5	134,174602
2,133667	0,5	116,257602
2,142000	0,5	101,886302
2,150333	0,5	90,277801
2,158667	0,5	81,341001
2,167000	0,5	74,501301
2,175333	0,5	68,205501
2,183667	0,5	61,805901
2,192000	0,5	55,815451
2,200333	0,5	50,756851
2,208667	0,5	46,644801
2,217000	0,5	43,307001
2,225333	0,5	40,508351
2,233667	0,5	38,188651
2,242000	0,5	36,276651
2,250333	0,5	34,655851
2,258667	0,5	33,260350
2,267000	0,5	32,021400
2,275333	0,5	30,978650
2,283667	0,5	30,093450
2,292000	0,5	29,287450
2,300333	0,5	28,447250
2,308667	0,5	27,639350
2,317000	0,5	26,893950
2,325333	0,5	26,263600
2,333667	0,5	25,729700
2,342000	0,5	25,266900
2,350333	0,5	24,839150
2,358667	0,5	24,451800
2,367000	0,5	24,151550
2,375333	0,5	23,897650
2,383667	0,5	23,707800
2,392000	0,5	23,630800
2,400333	0,5	23,693200
2,408667	0,5	23,969250
2,417000	0,5	24,504050
2,425333	0,5	25,380000
2,433667	0,5	26,609500
2,442000	0,5	27,582100
2,450333	0,5	27,448950
2,458667	0,5	26,401450
2,467000	0,5	25,571800
2,475333	0,5	25,063250
2,483667	0,5	24,660050
2,492000	0,5	24,257250
2,500333	0,5	23,888000
2,508667	0,5	23,549750
2,517000	0,5	23,276750
2,525333	0,5	22,992450
2,533667	0,5	22,752900
2,542000	0,5	22,529000
2,550333	0,5	22,351350
2,558667	0,5	22,256550
2,567000	0,5	22,241750
2,575333	0,5	22,389150
2,583667	0,5	22,788050
2,592000	0,5	23,666350
2,600333	0,5	25,513650
2,608667	0,5	28,833900
2,617000	0,5	34,063751
2,625333	0,5	47,127201
2,633667	0,5	84,658801
2,642000	0,5	145,466002
2,650333	0,5	221,764603
2,658667	0,5	323,658605
2,667000	0,5	510,347658
2,675333	0,5	959,965664
2,683667	0,5	1 563,408073
2,692000	0,5	2 312,709684
2,700333	0,5	2 657,487890
2,708667	0,5	2 800,430392
2,717000	0,5	2 837,472892
2,725333	0,5	2 821,844842
2,733667	0,5	2 771,533641
2,742000	0,5	2 692,403790
2,750333	0,5	2 586,053939
2,758667	0,5	2 453,084237
2,767000	0,5	2 294,397434
2,775333	0,5	2 114,641682
2,783667	0,5	1 924,601929
2,792000	0,5	1 739,751926
2,800333	0,5	1 575,101323
2,808667	0,5	1 438,275221
2,817000	0,5	1 323,614570
2,825333	0,5	1 219,728768
2,833667	0,5	1 117,630167
2,842000	0,5	1 013,626265
2,850333	0,5	907,898864
2,858667	0,5	804,358762
2,867000	0,5	708,117061
2,875333	0,5	621,970959
2,883667	0,5	546,734908
2,892000	0,5	482,401707
2,900333	0,5	424,794806
2,908667	0,5	374,297756
2,917000	0,5	330,373805
2,925333	0,5	292,594804
2,933667	0,5	260,400404
2,942000	0,5	233,054753
2,950333	0,5	209,731303
2,958667	0,5	189,838403
2,967000	0,5	172,558353
2,975333	0,5	157,471802
2,983667	0,5	144,132202
2,992000	0,5	132,284002
3,000333	0,5	121,645452
3,008667	0,5	112,050552
3,017000	0,5	103,371052
3,025333	0,5	95,600751
3,033667	0,5	88,584851
3,042000	0,5	82,283051
3,050333	0,5	76,577001
3,058667	0,5	71,433801
3,067000	0,5	66,755401
3,075333	0,5	62,502101
3,083667	0,5	58,601751
3,092000	0,5	54,992051
3,100333	0,5	51,635601
3,108667	0,5	48,538601
3,117000	0,5	45,629651
3,125333	0,5	42,971101
3,133667	0,5	40,537851
3,142000	0,5	38,331051
3,150333	0,5	36,332251
3,158667	0,5	34,472201
3,167000	0,5	32,792800
3,175333	0,5	31,289850
3,183667	0,5	29,962200
3,192000	0,5	28,792850
3,200333	0,5	27,806600
3,208667	0,5	27,034050
3,217000	0,5	26,601150
3,225333	0,5	26,645350
3,233667	0,5	27,275150
3,242000	0,5	28,395850
3,250333	0,5	29,712300
3,258667	0,5	30,601050
3,267000	0,5	30,608950
3,275333	0,5	29,591850
3,283667	0,5	27,713050
3,292000	0,5	25,371600
3,300333	0,5	22,967150
3,308667	0,5	20,793600
3,317000	0,5	18,985400
3,325333	0,5	17,540800
3,333667	0,5	16,375750
3,342000	0,5	15,422250
3,350333	0,5	14,621400
3,358667	0,5	13,933900
3,367000	0,5	13,336300
3,375333	0,5	12,823900
3,383667	0,5	12,342950
3,392000	0,5	11,932550
3,400333	0,5	11,581250
3,408667	0,5	11,248800
3,417000	0,5	10,947900
3,425333	0,5	10,709300
3,433667	0,5	10,516800
3,442000	0,5	10,368300
3,450333	0,5	10,213400
3,458667	0,5	10,076000
3,467000	0,5	9,945850
3,475333	0,5	9,820400
3,483667	0,5	9,690250
3,492000	0,5	9,561650
3,500333	0,5	9,421950
3,508667	0,5	9,273400
3,517000	0,5	9,134550
3,525333	0,5	8,977700
3,533667	0,5	8,821900
3,542000	0,5	8,664300
3,550333	0,5	8,491900
3,558667	0,5	8,284400
3,567000	0,5	8,087650
3,575333	0,5	7,886550
3,583667	0,5	7,705050
3,592000	0,5	7,509850
3,600333	0,5	7,302550
3,608667	0,5	7,097950
3,617000	0,5	6,922300
3,625333	0,5	6,743000
3,633667	0,5	6,577850
3,642000	0,5	6,424250
3,650333	0,5	6,250300
3,658667	0,5	6,081000
3,667000	0,5	5,903750
3,675333	0,5	5,729450
3,683667	0,5	5,529950
3,692000	0,5	5,376050
3,700333	0,5	5,202300
3,708667	0,5	5,037850
3,717000	0,5	4,880400
3,725333	0,5	4,747750
3,733667	0,5	4,643050
3,742000	0,5	4,546750
3,750333	0,5	4,423150
3,758667	0,5	4,336900
3,767000	0,5	4,264250
3,775333	0,5	4,226450
3,783667	0,5	4,234200
3,792000	0,5	4,292150
3,800333	0,5	4,391050
3,808667	0,5	4,519100
3,817000	0,5	4,654950
3,825333	0,5	4,739500
3,833667	0,5	4,741650
3,842000	0,5	4,697900
3,850333	0,5	4,522200
3,858667	0,5	4,300850
3,867000	0,5	4,067000
3,875333	0,5	3,837100
3,883667	0,5	3,655300
3,892000	0,5	3,464050
3,900333	0,5	3,301950
3,908667	0,5	3,158600
3,917000	0,5	3,044050
3,925333	0,5	2,935200
3,933667	0,5	2,845400
3,942000	0,5	2,756100
3,950333	0,5	2,671550
3,958667	0,5	2,588300
3,967000	0,5	2,511850
3,975333	0,5	2,443700
3,983667	0,5	2,383950
3,992000	0,5	2,347150
4,000333	0,5	2,289050
4,008667	0,5	2,260550
4,017000	0,5	2,249400
4,025333	0,5	2,264950
4,033667	0,5	2,297800
4,042000	0,5	2,326350
4,050333	0,5	2,327150
4,058667	0,5	2,330300
4,067000	0,5	2,293450
4,075333	0,5	2,244500
4,083667	0,5	2,170750
4,092000	0,5	2,079100
4,100333	0,5	1,970700
4,108667	0,5	1,872300
4,117000	0,5	1,766150
4,125333	0,5	1,673550
4,133667	0,5	1,581400
4,142000	0,5	1,519050
4,150333	0,5	1,435200
4,158667	0,5	1,387350
4,167000	0,5	1,352450
4,175333	0,5	1,345150
4,183667	0,5	1,366900
4,192000	0,5	1,368900
4,200333	0,5	1,396150
4,208667	0,5	1,452050
4,217000	0,5	1,560100
4,225333	0,5	1,747600
4,233667	0,5	2,058100
4,242000	0,5	2,509350
4,250333	0,5	3,165050
4,258667	0,5	4,034900
4,267000	0,5	5,144800
4,275333	0,5	6,475200
4,283667	0,5	8,062250
4,292000	0,5	9,851250
4,300333	0,5	11,890600
4,308667	0,5	14,254450
4,317000	0,5	17,123050
4,325333	0,5	20,762300
4,333667	0,5	25,670300
4,342000	0,5	32,688350
4,350333	0,5	43,072501
4,358667	0,5	58,223351
4,367000	0,5	79,285801
4,375333	0,5	106,179502
4,383667	0,5	136,835702
4,392000	0,5	167,260952
4,400333	0,5	192,999403
4,408667	0,5	210,804853
4,417000	0,5	219,418403
4,425333	0,5	219,592653
4,433667	0,5	212,903853
4,442000	0,5	201,139853
4,450333	0,5	186,107253
4,458667	0,5	169,285953
4,467000	0,5	151,732652
4,475333	0,5	134,250652
4,483667	0,5	117,377302
4,492000	0,5	101,604452
4,500333	0,5	87,239851
4,508667	0,5	74,467751
4,517000	0,5	63,322951
4,525333	0,5	53,802101
4,533667	0,5	45,786251
4,542000	0,5	39,141901
4,550333	0,5	33,711451
4,558667	0,5	29,276100
4,567000	0,5	25,675500
4,575333	0,5	22,744250
4,583667	0,5	20,304350
4,592000	0,5	18,245000
4,600333	0,5	16,474450
4,608667	0,5	14,937500
4,617000	0,5	13,598250
4,625333	0,5	12,377250
4,633667	0,5	11,271300
4,642000	0,5	10,261700
4,650333	0,5	9,391500
4,658667	0,5	8,601250
4,667000	0,5	7,925600
4,675333	0,5	7,334350
4,683667	0,5	6,834100
4,692000	0,5	6,398700
4,700333	0,5	6,023250
4,708667	0,5	5,690050
4,717000	0,5	5,362700
4,725333	0,5	5,078900
4,733667	0,5	4,756500
4,742000	0,5	4,439150
4,750333	0,5	4,123150
4,758667	0,5	3,827950
4,767000	0,5	3,557300
4,775333	0,5	3,285350
4,783667	0,5	3,015250
4,792000	0,5	2,793200
4,800333	0,5	2,590850
4,808667	0,5	2,421750
4,817000	0,5	2,267050
4,825333	0,5	2,147800
4,833667	0,5	2,038600
4,842000	0,5	1,959000
4,850333	0,5	1,900100
4,858667	0,5	1,849700
4,867000	0,5	1,800850
4,875333	0,5	1,792200
4,883667	0,5	1,752150
4,892000	0,5	1,733450
4,900333	0,5	1,711400
4,908667	0,5	1,704750
4,917000	0,5	1,706600
4,925333	0,5	1,663450
4,933667	0,5	1,625450
4,942000	0,5	1,584450
4,950333	0,5	1,548200
4,958667	0,5	1,511700
4,967000	0,5	1,487700
4,975333	0,5	1,459650
4,983667	0,5	1,447450
4,992000	0,5	1,438950
5,000333	0,5	1,434550
5,008667	0,5	1,427750
5,017000	0,5	1,439050
5,025333	0,5	1,448100
5,033667	0,5	1,446900
5,042000	0,5	1,435000
5,050333	0,5	1,427000
5,058667	0,5	1,417150
5,067000	0,5	1,402300
5,075333	0,5	1,360500
5,083667	0,5	1,315550
5,092000	0,5	1,281700
5,100333	0,5	1,240800
5,108667	0,5	1,216550
5,117000	0,5	1,201550
5,125333	0,5	1,189150
5,133667	0,5	1,182250
5,142000	0,5	1,188450
5,150333	0,5	1,196900
5,158667	0,5	1,206250
5,167000	0,5	1,218400
5,175333	0,5	1,225900
5,183667	0,5	1,215650
5,192000	0,5	1,220100
5,200333	0,5	1,222450
5,208667	0,5	1,245600
5,217000	0,5	1,261900
5,225333	0,5	1,257300
5,233667	0,5	1,252150
5,242000	0,5	1,248700
5,250333	0,5	1,243050
5,258667	0,5	1,238100
5,267000	0,5	1,234100
5,275333	0,5	1,222000
5,283667	0,5	1,215050
5,292000	0,5	1,205250
5,300333	0,5	1,194350
5,308667	0,5	1,184200
5,317000	0,5	1,203000
5,325333	0,5	1,206950
5,333667	0,5	1,216850
5,342000	0,5	1,240500
5,350333	0,5	1,283100
5,358667	0,5	1,330650
5,367000	0,5	1,367150
5,375333	0,5	1,377600
5,383667	0,5	1,414750
5,392000	0,5	1,442350
5,400333	0,5	1,486100
5,408667	0,5	1,543900
5,417000	0,5	1,617650
5,425333	0,5	1,703500
5,433667	0,5	1,809100
5,442000	0,5	1,920800
5,450333	0,5	2,023800
5,458667	0,5	2,150000
5,467000	0,5	2,279150
5,475333	0,5	2,389750
5,483667	0,5	2,477200
5,492000	0,5	2,555750
5,500333	0,5	2,601350
5,508667	0,5	2,604150
5,517000	0,5	2,533000
5,525333	0,5	2,420800
5,533667	0,5	2,261500
5,542000	0,5	2,085150
5,550333	0,5	1,905450
5,558667	0,5	1,749700
5,567000	0,5	1,610100
5,575333	0,5	1,487650
5,583667	0,5	1,394300
5,592000	0,5	1,309750
5,600333	0,5	1,233850
5,608667	0,5	1,188500
5,617000	0,5	1,135950
5,625333	0,5	1,077750
5,633667	0,5	1,038800
5,642000	0,5	1,001400
5,650333	0,5	0,992850
5,658667	0,5	0,968600
5,667000	0,5	0,946500
5,675333	0,5	0,930750
5,683667	0,5	0,922600
5,692000	0,5	0,906650
5,700333	0,5	0,906850
5,708667	0,5	0,910850
5,717000	0,5	0,912800
5,725333	0,5	0,913200
5,733667	0,5	0,916750
5,742000	0,5	0,911000
5,750333	0,5	0,898500
5,758667	0,5	0,907000
5,767000	0,5	0,894550
5,775333	0,5	0,879600
5,783667	0,5	0,870850
5,792000	0,5	0,869650
5,800333	0,5	0,888950
5,808667	0,5	0,889350
5,817000	0,5	0,890800
5,825333	0,5	0,902600
5,833667	0,5	0,916250
5,842000	0,5	0,935550
5,850333	0,5	0,939500
5,858667	0,5	0,949800
5,867000	0,5	0,943700
5,875333	0,5	0,938000
5,883667	0,5	0,915050
5,892000	0,5	0,888050
5,900333	0,5	0,852650
5,908667	0,5	0,851950
5,917000	0,5	0,830400
5,925333	0,5	0,831100
5,933667	0,5	0,848650
5,942000	0,5	0,887450
5,950333	0,5	0,955950
5,958667	0,5	1,021450
5,967000	0,5	1,125550
5,975333	0,5	1,262600
5,983667	0,5	1,439100
5,992000	0,5	1,653050
6,000333	0,5	1,892950
6,008667	0,5	2,131100
6,017000	0,5	2,353450
6,025333	0,5	2,518550
6,033667	0,5	2,605250
6,042000	0,5	2,580350
6,050333	0,5	2,487600
6,058667	0,5	2,332450
6,067000	0,5	2,131050
6,075333	0,5	1,936550
6,083667	0,5	1,771400
6,092000	0,5	1,645700
6,100333	0,5	1,577050
6,108667	0,5	1,530900
6,117000	0,5	1,552900
6,125333	0,5	1,611350
6,133667	0,5	1,690750
6,142000	0,5	1,772550
6,150333	0,5	1,840800
6,158667	0,5	1,873550
6,167000	0,5	1,852400
6,175333	0,5	1,796450
6,183667	0,5	1,674100
6,192000	0,5	1,531500
6,200333	0,5	1,386350
6,208667	0,5	1,244150
6,217000	0,5	1,106650
6,225333	0,5	1,002900
6,233667	0,5	0,928900
6,242000	0,5	0,895650
6,250333	0,5	0,875250
6,258667	0,5	0,856850
6,267000	0,5	0,852700
6,275333	0,5	0,864100
6,283667	0,5	0,864550
6,292000	0,5	0,866250
6,300333	0,5	0,863000
6,308667	0,5	0,848100
6,317000	0,5	0,838100
6,325333	0,5	0,828500
6,333667	0,5	0,814050
6,342000	0,5	0,810100
6,350333	0,5	0,825250
6,358667	0,5	0,846250
6,367000	0,5	0,873300
6,375333	0,5	0,912800
6,383667	0,5	0,963350
6,392000	0,5	0,996600
6,400333	0,5	1,016650
6,408667	0,5	1,005650
6,417000	0,5	0,989200
6,425333	0,5	0,949100
6,433667	0,5	0,910050
6,442000	0,5	0,863600
6,450333	0,5	0,823400
6,458667	0,5	0,787000
6,467000	0,5	0,759500
6,475333	0,5	0,746450
6,483667	0,5	0,738050
6,492000	0,5	0,744600
6,500333	0,5	0,758700
6,508667	0,5	0,765200
6,517000	0,5	0,786100
6,525333	0,5	0,815750
6,533667	0,5	0,867050
6,542000	0,5	0,924500
6,550333	0,5	0,981650
6,558667	0,5	1,058950
6,567000	0,5	1,141150
6,575333	0,5	1,244500
6,583667	0,5	1,346150
6,592000	0,5	1,461050
6,600333	0,5	1,559350
6,608667	0,5	1,668600
6,617000	0,5	1,769050
6,625333	0,5	1,852950
6,633667	0,5	1,921200
6,642000	0,5	2,011000
6,650333	0,5	2,073900
6,658667	0,5	2,141250
6,667000	0,5	2,220650
6,675333	0,5	2,321200
6,683667	0,5	2,468650
6,692000	0,5	2,627950
6,700333	0,5	2,822950
6,708667	0,5	3,033650
6,717000	0,5	3,245450
6,725333	0,5	3,419950
6,733667	0,5	3,527050
6,742000	0,5	3,538850
6,750333	0,5	3,472300
6,758667	0,5	3,326600
6,767000	0,5	3,138000
6,775333	0,5	2,920350
6,783667	0,5	2,712800
6,792000	0,5	2,528650
6,800333	0,5	2,354850
6,808667	0,5	2,201400
6,817000	0,5	2,085300
6,825333	0,5	2,011700
6,833667	0,5	1,979850
6,842000	0,5	1,975800
6,850333	0,5	2,001950
6,858667	0,5	2,074100
6,867000	0,5	2,183150
6,875333	0,5	2,315900
6,883667	0,5	2,467050
6,892000	0,5	2,605250
6,900333	0,5	2,711250
6,908667	0,5	2,783550
6,917000	0,5	2,808550
6,925333	0,5	2,794100
6,933667	0,5	2,739250
6,942000	0,5	2,690850
6,950333	0,5	2,621250
6,958667	0,5	2,577650
6,967000	0,5	2,561750
6,975333	0,5	2,578400
6,983667	0,5	2,618450
6,992000	0,5	2,649500
7,000333	0,5	2,705100
7,008667	0,5	2,773550
7,017000	0,5	2,859000
7,025333	0,5	2,967850
7,033667	0,5	3,091000
7,042000	0,5	3,205350
7,050333	0,5	3,301300
7,058667	0,5	3,345150
7,067000	0,5	3,339150
7,075333	0,5	3,258300
7,083667	0,5	3,138800
7,092000	0,5	2,993550
7,100333	0,5	2,838050
7,108667	0,5	2,694950
7,117000	0,5	2,585150
7,125333	0,5	2,507200
7,133667	0,5	2,452850
7,142000	0,5	2,401800
7,150333	0,5	2,384150
7,158667	0,5	2,381250
7,167000	0,5	2,397350
7,175333	0,5	2,419250
7,183667	0,5	2,459500
7,192000	0,5	2,503100
7,200333	0,5	2,560700
7,208667	0,5	2,636150
7,217000	0,5	2,732400
7,225333	0,5	2,852300
7,233667	0,5	2,996200
7,242000	0,5	3,138700
7,250333	0,5	3,269950
7,258667	0,5	3,395650
7,267000	0,5	3,514450
7,275333	0,5	3,636850
7,283667	0,5	3,760800
7,292000	0,5	3,898950
7,300333	0,5	4,077350
7,308667	0,5	4,347650
7,317000	0,5	4,776050
7,325333	0,5	5,492800
7,333667	0,5	6,683450
7,342000	0,5	8,570800
7,350333	0,5	11,313850
7,358667	0,5	14,839450
7,367000	0,5	18,647800
7,375333	0,5	21,961100
7,383667	0,5	23,954050
7,392000	0,5	24,239000
7,400333	0,5	23,058650
7,408667	0,5	21,098700
7,417000	0,5	19,080050
7,425333	0,5	17,472700
7,433667	0,5	16,403550
7,442000	0,5	15,792200
7,450333	0,5	15,470100
7,458667	0,5	15,180850
7,467000	0,5	14,715700
7,475333	0,5	13,925450
7,483667	0,5	12,816000
7,492000	0,5	11,459950
7,500333	0,5	10,033300
7,508667	0,5	8,736500
7,517000	0,5	7,748900
7,525333	0,5	7,188500
7,533667	0,5	7,105000
7,542000	0,5	7,424650
7,550333	0,5	8,017900
7,558667	0,5	8,658550
7,567000	0,5	9,121850
7,575333	0,5	9,217250
7,583667	0,5	8,925050
7,592000	0,5	8,365550
7,600333	0,5	7,741450
7,608667	0,5	7,261100
7,617000	0,5	7,097100
7,625333	0,5	7,395900
7,633667	0,5	8,214800
7,642000	0,5	9,516850
7,650333	0,5	11,087050
7,658667	0,5	12,515850
7,667000	0,5	13,343100
7,675333	0,5	13,279550
7,683667	0,5	12,291150
7,692000	0,5	10,694900
7,700333	0,5	8,904150
7,708667	0,5	7,285600
7,717000	0,5	6,030300
7,725333	0,5	5,135150
7,733667	0,5	4,537800
7,742000	0,5	4,149050
7,750333	0,5	3,866950
7,758667	0,5	3,670750
7,767000	0,5	3,528400
7,775333	0,5	3,451900
7,783667	0,5	3,438500
7,792000	0,5	3,464800
7,800333	0,5	3,514750
7,808667	0,5	3,533300
7,817000	0,5	3,519850
7,825333	0,5	3,472600
7,833667	0,5	3,389900
7,842000	0,5	3,291950
7,850333	0,5	3,195850
7,858667	0,5	3,112350
7,867000	0,5	3,041550
7,875333	0,5	2,965900
7,883667	0,5	2,905600
7,892000	0,5	2,859700
7,900333	0,5	2,840900
7,908667	0,5	2,837800
7,917000	0,5	2,843350
7,925333	0,5	2,848800
7,933667	0,5	2,831000
7,942000	0,5	2,801650
7,950333	0,5	2,749500
7,958667	0,5	2,680750
7,967000	0,5	2,610950
7,975333	0,5	2,549650
7,983667	0,5	2,498800
7,992000	0,5	2,471700
8,000333	0,5	2,468300
8,008667	0,5	2,498000
8,017000	0,5	2,547300
8,025333	0,5	2,611500
8,033667	0,5	2,710450
8,042000	0,5	2,843650
8,050333	0,5	3,035450
8,058667	0,5	3,284300
8,067000	0,5	3,568650
8,075333	0,5	3,865250
8,083667	0,5	4,125700
8,092000	0,5	4,307350
8,100333	0,5	4,367000
8,108667	0,5	4,302900
8,117000	0,5	4,174100
8,125333	0,5	4,035250
8,133667	0,5	3,982300
8,142000	0,5	4,103450
8,150333	0,5	4,490250
8,158667	0,5	5,186600
8,167000	0,5	6,187800
8,175333	0,5	7,362100
8,183667	0,5	8,499600
8,192000	0,5	9,319500
8,200333	0,5	9,628050
8,208667	0,5	9,377750
8,217000	0,5	8,718250
8,225333	0,5	7,880050
8,233667	0,5	7,076950
8,242000	0,5	6,381350
8,250333	0,5	5,797050
8,258667	0,5	5,308200
8,267000	0,5	4,901350
8,275333	0,5	4,564300
8,283667	0,5	4,305500
8,292000	0,5	4,112350
8,300333	0,5	3,979250
8,308667	0,5	3,880950
8,317000	0,5	3,781600
8,325333	0,5	3,670000
8,333667	0,5	3,533150
8,342000	0,5	3,381000
8,350333	0,5	3,225500
8,358667	0,5	3,081500
8,367000	0,5	2,961000
8,375333	0,5	2,875000
8,383667	0,5	2,825200
8,392000	0,5	2,797000
8,400333	0,5	2,783000
8,408667	0,5	2,759900
8,417000	0,5	2,720550
8,425333	0,5	2,651300
8,433667	0,5	2,564050
8,442000	0,5	2,478000
8,450333	0,5	2,404800
8,458667	0,5	2,341300
8,467000	0,5	2,289700
8,475333	0,5	2,246100
8,483667	0,5	2,209300
8,492000	0,5	2,180700
8,500333	0,5	2,156600
8,508667	0,5	2,128600
8,517000	0,5	2,103650
8,525333	0,5	2,075750
8,533667	0,5	2,046150
8,542000	0,5	2,018750
8,550333	0,5	1,993950
8,558667	0,5	1,983100
8,567000	0,5	1,975500
8,575333	0,5	1,963800
8,583667	0,5	1,982050
8,592000	0,5	2,015750
8,600333	0,5	2,067950
8,608667	0,5	2,142850
8,617000	0,5	2,229900
8,625333	0,5	2,335200
8,633667	0,5	2,462350
8,642000	0,5	2,594500
8,650333	0,5	2,721450
8,658667	0,5	2,847550
8,667000	0,5	2,950550
8,675333	0,5	3,020100
8,683667	0,5	3,054450
8,692000	0,5	3,040950
8,700333	0,5	2,986550
8,708667	0,5	2,903350
8,717000	0,5	2,797350
8,725333	0,5	2,687300
8,733667	0,5	2,590000
8,742000	0,5	2,519750
8,750333	0,5	2,480300
8,758667	0,5	2,475650
8,767000	0,5	2,505100
8,775333	0,5	2,573800
8,783667	0,5	2,677650
8,792000	0,5	2,801500
8,800333	0,5	2,914200
8,808667	0,5	2,994100
8,817000	0,5	3,013150
8,825333	0,5	2,985250
8,833667	0,5	2,919850
8,842000	0,5	2,836000
8,850333	0,5	2,767650
8,858667	0,5	2,741650
8,867000	0,5	2,758700
8,875333	0,5	2,842050
8,883667	0,5	3,000800
8,892000	0,5	3,257350
8,900333	0,5	3,585700
8,908667	0,5	3,992750
8,917000	0,5	4,450950
8,925333	0,5	4,936700
8,933667	0,5	5,400300
8,942000	0,5	5,773050
8,950333	0,5	5,981950
8,958667	0,5	5,953700
8,967000	0,5	5,693100
8,975333	0,5	5,241950
8,983667	0,5	4,687400
8,992000	0,5	4,127400
9,000333	0,5	3,640350
9,008667	0,5	3,252600
9,017000	0,5	2,977750
9,025333	0,5	2,780750
9,033667	0,5	2,657850
9,042000	0,5	2,582050
9,050333	0,5	2,542900
9,058667	0,5	2,523800
9,067000	0,5	2,518700
9,075333	0,5	2,560550
9,083667	0,5	2,638250
9,092000	0,5	2,767350
9,100333	0,5	2,926450
9,108667	0,5	3,097100
9,117000	0,5	3,225500
9,125333	0,5	3,281700
9,133667	0,5	3,262050
9,142000	0,5	3,199850
9,150333	0,5	3,134700
9,158667	0,5	3,073500
9,167000	0,5	3,033650
9,175333	0,5	3,016750
9,183667	0,5	3,019850
9,192000	0,5	3,022250
9,200333	0,5	3,011000
9,208667	0,5	2,965850
9,217000	0,5	2,887800
9,225333	0,5	2,786000
9,233667	0,5	2,686700
9,242000	0,5	2,585200
9,250333	0,5	2,489300
9,258667	0,5	2,396200
9,267000	0,5	2,306450
9,275333	0,5	2,225800
9,283667	0,5	2,148750
9,292000	0,5	2,073800
9,300333	0,5	2,016150
9,308667	0,5	1,959750
9,317000	0,5	1,920800
9,325333	0,5	1,882400
9,333667	0,5	1,863150
9,342000	0,5	1,843950
9,350333	0,5	1,842200
9,358667	0,5	1,839150
9,367000	0,5	1,848850
9,375333	0,5	1,862700
9,383667	0,5	1,879700
9,392000	0,5	1,876050
9,400333	0,5	1,871350
9,408667	0,5	1,852150
9,417000	0,5	1,823650
9,425333	0,5	1,796550
9,433667	0,5	1,772600
9,442000	0,5	1,750800
9,450333	0,5	1,744150
9,458667	0,5	1,730600
9,467000	0,5	1,720900
9,475333	0,5	1,710100
9,483667	0,5	1,702650
9,492000	0,5	1,698400
9,500333	0,5	1,692650
9,508667	0,5	1,688400
9,517000	0,5	1,678550
9,525333	0,5	1,667000
9,533667	0,5	1,651500
9,542000	0,5	1,626400
9,550333	0,5	1,592900
9,558667	0,5	1,566200
9,567000	0,5	1,537050
9,575333	0,5	1,520450
9,583667	0,5	1,507650
9,592000	0,5	1,516450
9,600333	0,5	1,523100
9,608667	0,5	1,528800
9,617000	0,5	1,523850
9,625333	0,5	1,514950
9,633667	0,5	1,501350
9,642000	0,5	1,493300
9,650333	0,5	1,479900
9,658667	0,5	1,470800
9,667000	0,5	1,466750
9,675333	0,5	1,471300
9,683667	0,5	1,489850
9,692000	0,5	1,512200
9,700333	0,5	1,548500
9,708667	0,5	1,597400
9,717000	0,5	1,662700
9,725333	0,5	1,747700
9,733667	0,5	1,844650
9,742000	0,5	1,946700
9,750333	0,5	2,056150
9,758667	0,5	2,140500
9,767000	0,5	2,187150
9,775333	0,5	2,200700
9,783667	0,5	2,182350
9,792000	0,5	2,124250
9,800333	0,5	2,040200
9,808667	0,5	1,944100
9,817000	0,5	1,844300
9,825333	0,5	1,751200
9,833667	0,5	1,665100
9,842000	0,5	1,589750
9,850333	0,5	1,527750
9,858667	0,5	1,479700
9,867000	0,5	1,445550
9,875333	0,5	1,419950
9,883667	0,5	1,397300
9,892000	0,5	1,391800
9,900333	0,5	1,385850
9,908667	0,5	1,388950
9,917000	0,5	1,388200
9,925333	0,5	1,395400
9,933667	0,5	1,407200
9,942000	0,5	1,419650
9,950333	0,5	1,430450
9,958667	0,5	1,437350
9,967000	0,5	1,442600
9,975333	0,5	1,449800
9,983667	0,5	1,453700
9,992000	0,5	1,447100
10,000333	0,5	1,451300
10,008667	0,5	1,457950
10,017000	0,5	1,470100
10,025333	0,5	1,483150
10,033667	0,5	1,513600
10,042000	0,5	1,551600
10,050333	0,5	1,594950
10,058667	0,5	1,633400
10,067000	0,5	1,667900
10,075333	0,5	1,686350
10,083667	0,5	1,692050
10,092000	0,5	1,670400
10,100333	0,5	1,634100
10,108667	0,5	1,591450
10,117000	0,5	1,554250
10,125333	0,5	1,507350
10,133667	0,5	1,476300
10,142000	0,5	1,451550
10,150333	0,5	1,435100
10,158667	0,5	1,417500
10,167000	0,5	1,404250
10,175333	0,5	1,402250
10,183667	0,5	1,396700
10,192000	0,5	1,397250
10,200333	0,5	1,402650
10,208667	0,5	1,404000
10,217000	0,5	1,412100
10,225333	0,5	1,421300
10,233667	0,5	1,441550
10,242000	0,5	1,457400
10,250333	0,5	1,476900
10,258667	0,5	1,500550
10,267000	0,5	1,523400
10,275333	0,5	1,545750
10,283667	0,5	1,559100
10,292000	0,5	1,576300
10,300333	0,5	1,589600
10,308667	0,5	1,605600
10,317000	0,5	1,630350
10,325333	0,5	1,657650
10,333667	0,5	1,707850
10,342000	0,5	1,761500
10,350333	0,5	1,821650
10,358667	0,5	1,873450
10,367000	0,5	1,908900
10,375333	0,5	1,919900
10,383667	0,5	1,912400
10,392000	0,5	1,884600
10,400333	0,5	1,854100
10,408667	0,5	1,821700
10,417000	0,5	1,797250
10,425333	0,5	1,771900
10,433667	0,5	1,755850
10,442000	0,5	1,736050
10,450333	0,5	1,725150
10,458667	0,5	1,716600
10,467000	0,5	1,719650
10,475333	0,5	1,737900
10,483667	0,5	1,792650
10,492000	0,5	1,883700
10,500333	0,5	2,031150
10,508667	0,5	2,253650
10,517000	0,5	2,567800
10,525333	0,5	2,967800
10,533667	0,5	3,415750
10,542000	0,5	3,851900
10,550333	0,5	4,193700
10,558667	0,5	4,374500
10,567000	0,5	4,366350
10,575333	0,5	4,181050
10,583667	0,5	3,858200
10,592000	0,5	3,481150
10,600333	0,5	3,098750
10,608667	0,5	2,745150
10,617000	0,5	2,435300
10,625333	0,5	2,171150
10,633667	0,5	1,959050
10,642000	0,5	1,779950
10,650333	0,5	1,641400
10,658667	0,5	1,530600
10,667000	0,5	1,444800
10,675333	0,5	1,394100
10,683667	0,5	1,363500
10,692000	0,5	1,346000
10,700333	0,5	1,345050
10,708667	0,5	1,349350
10,717000	0,5	1,367750
10,725333	0,5	1,386850
10,733667	0,5	1,403700
10,742000	0,5	1,418900
10,750333	0,5	1,432200
10,758667	0,5	1,436000
10,767000	0,5	1,437900
10,775333	0,5	1,434300
10,783667	0,5	1,426100
10,792000	0,5	1,410750
10,800333	0,5	1,395450
10,808667	0,5	1,373000
10,817000	0,5	1,362700
10,825333	0,5	1,347850
10,833667	0,5	1,341350
10,842000	0,5	1,328950
10,850333	0,5	1,326950
10,858667	0,5	1,331800
10,867000	0,5	1,337350
10,875333	0,5	1,339550
10,883667	0,5	1,338650
10,892000	0,5	1,342750
10,900333	0,5	1,339200
10,908667	0,5	1,337350
10,917000	0,5	1,331750
10,925333	0,5	1,331550
10,933667	0,5	1,329550
10,942000	0,5	1,328550
10,950333	0,5	1,327200
10,958667	0,5	1,325350
10,967000	0,5	1,332750
10,975333	0,5	1,342300
10,983667	0,5	1,354550
10,992000	0,5	1,373650
11,000333	0,5	1,398700
11,008667	0,5	1,435650
11,017000	0,5	1,479450
11,025333	0,5	1,536650
11,033667	0,5	1,599300
11,042000	0,5	1,664850
11,050333	0,5	1,724250
11,058667	0,5	1,764150
11,067000	0,5	1,779750
11,075333	0,5	1,778700
11,083667	0,5	1,751100
11,092000	0,5	1,707150
11,100333	0,5	1,656250
11,108667	0,5	1,596950
11,117000	0,5	1,559600
11,125333	0,5	1,528250
11,133667	0,5	1,510850
11,142000	0,5	1,501400
11,150333	0,5	1,512600
11,158667	0,5	1,511350
11,167000	0,5	1,531850
11,175333	0,5	1,549550
11,183667	0,5	1,568150
11,192000	0,5	1,600900
11,200333	0,5	1,650150
11,208667	0,5	1,703150
11,217000	0,5	1,761450
11,225333	0,5	1,818050
11,233667	0,5	1,846500
11,242000	0,5	1,847300
11,250333	0,5	1,818750
11,258667	0,5	1,772900
11,267000	0,5	1,722750
11,275333	0,5	1,670850
11,283667	0,5	1,623150
11,292000	0,5	1,584700
11,300333	0,5	1,554550
11,308667	0,5	1,528400
11,317000	0,5	1,503800
11,325333	0,5	1,483550
11,333667	0,5	1,463900
11,342000	0,5	1,441000
11,350333	0,5	1,438700
11,358667	0,5	1,429300
11,367000	0,5	1,435500
11,375333	0,5	1,445000
11,383667	0,5	1,467750
11,392000	0,5	1,492600
11,400333	0,5	1,534200
11,408667	0,5	1,601450
11,417000	0,5	1,709550
11,425333	0,5	1,842550
11,433667	0,5	2,016200
11,442000	0,5	2,219750
11,450333	0,5	2,454800
11,458667	0,5	2,702550
11,467000	0,5	2,949800
11,475333	0,5	3,157800
11,483667	0,5	3,308350
11,492000	0,5	3,367600
11,500333	0,5	3,326000
11,508667	0,5	3,182550
11,517000	0,5	2,977050
11,525333	0,5	2,734750
11,533667	0,5	2,491450
11,542000	0,5	2,277900
11,550333	0,5	2,109950
11,558667	0,5	1,997250
11,567000	0,5	1,927200
11,575333	0,5	1,865300
11,583667	0,5	1,819750
11,592000	0,5	1,784100
11,600333	0,5	1,739250
11,608667	0,5	1,699850
11,617000	0,5	1,651400
11,625333	0,5	1,608250
11,633667	0,5	1,564150
11,642000	0,5	1,527900
11,650333	0,5	1,486650
11,658667	0,5	1,459450
11,667000	0,5	1,436450
11,675333	0,5	1,406350
11,683667	0,5	1,380050
11,692000	0,5	1,352450
11,700333	0,5	1,329750
11,708667	0,5	1,306550
11,717000	0,5	1,288500
11,725333	0,5	1,266250
11,733667	0,5	1,257000
11,742000	0,5	1,242050
11,750333	0,5	1,235150
11,758667	0,5	1,229750
11,767000	0,5	1,229550
11,775333	0,5	1,231800
11,783667	0,5	1,239700
11,792000	0,5	1,248150
11,800333	0,5	1,255400
11,808667	0,5	1,277100
11,817000	0,5	1,297000
11,825333	0,5	1,322100
11,833667	0,5	1,347950
11,842000	0,5	1,376600
11,850333	0,5	1,421050
11,858667	0,5	1,476800
11,867000	0,5	1,554450
11,875333	0,5	1,624400
11,883667	0,5	1,711500
11,892000	0,5	1,806950
11,900333	0,5	1,898800
11,908667	0,5	1,992100
11,917000	0,5	2,065800
11,925333	0,5	2,117250
11,933667	0,5	2,132800
11,942000	0,5	2,123300
11,950333	0,5	2,065150
11,958667	0,5	1,998800
11,967000	0,5	1,919250
11,975333	0,5	1,837450
11,983667	0,5	1,760800
11,992000	0,5	1,692000
12,000333	0,5	1,647650
12,008667	0,5	1,617800
12,017000	0,5	1,586750
12,025333	0,5	1,566200
12,033667	0,5	1,552850
12,042000	0,5	1,547550
12,050333	0,5	1,534300
12,058667	0,5	1,535100
12,067000	0,5	1,537350
12,075333	0,5	1,543750
12,083667	0,5	1,561850
12,092000	0,5	1,578900
12,100333	0,5	1,627750
12,108667	0,5	1,684400
12,117000	0,5	1,750050
12,125333	0,5	1,812800
12,133667	0,5	1,871050
12,142000	0,5	1,923200
12,150333	0,5	1,977350
12,158667	0,5	2,023750
12,167000	0,5	2,092350
12,175333	0,5	2,160650
12,183667	0,5	2,248450
12,192000	0,5	2,335450
12,200333	0,5	2,429150
12,208667	0,5	2,515350
12,217000	0,5	2,581300
12,225333	0,5	2,619500
12,233667	0,5	2,629150
12,242000	0,5	2,588300
12,250333	0,5	2,528600
12,258667	0,5	2,439450
12,267000	0,5	2,338350
12,275333	0,5	2,232100
12,283667	0,5	2,125550
12,292000	0,5	2,050700
12,300333	0,5	1,990700
12,308667	0,5	1,946900
12,317000	0,5	1,906850
12,325333	0,5	1,890950
12,333667	0,5	1,877350
12,342000	0,5	1,865700
12,350333	0,5	1,854700
12,358667	0,5	1,847900
12,367000	0,5	1,840000
12,375333	0,5	1,839150
12,383667	0,5	1,835000
12,392000	0,5	1,814050
12,400333	0,5	1,803850
12,408667	0,5	1,781800
12,417000	0,5	1,754650
12,425333	0,5	1,727600
12,433667	0,5	1,685650
12,442000	0,5	1,644200
12,450333	0,5	1,617750
12,458667	0,5	1,577700
12,467000	0,5	1,551500
12,475333	0,5	1,517000
12,483667	0,5	1,485250
12,492000	0,5	1,470800
12,500333	0,5	1,449750
12,508667	0,5	1,431800
12,517000	0,5	1,419950
12,525333	0,5	1,414900
12,533667	0,5	1,417850
12,542000	0,5	1,410500
12,550333	0,5	1,431800
12,558667	0,5	1,438700
12,567000	0,5	1,460550
12,575333	0,5	1,469050
12,583667	0,5	1,459900
12,592000	0,5	1,472000
12,600333	0,5	1,494850
12,608667	0,5	1,521050
12,617000	0,5	1,537600
12,625333	0,5	1,562100
12,633667	0,5	1,620150
12,642000	0,5	1,702600
12,650333	0,5	1,677550
12,658667	0,5	1,501850
12,667000	0,5	1,091800
12,675333	0,5	0,549400
12,683667	0,5	0,110600
12,692000	0,5	-0,193000
12,700333	0,5	-0,427200
12,708667	0,5	-0,652450
12,717000	0,5	-0,869050
12,725333	0,5	-1,122200
12,733667	0,5	-1,410750
12,742000	0,5	-1,633550
12,750333	0,5	-1,793900
12,758667	0,5	-1,910700
12,767000	0,5	-2,013850
12,775333	0,5	-2,094400
12,783667	0,5	-2,163550
12,792000	0,5	-2,226200
12,800333	0,5	-2,279650
12,808667	0,5	-2,332400
12,817000	0,5	-2,364550
12,825333	0,5	-2,402200
12,833667	0,5	-2,432500
12,842000	0,5	-2,448300
12,850333	0,5	-2,471100
12,858667	0,5	-2,498800
12,867000	0,5	-2,516100
12,875333	0,5	-2,535750
12,883667	0,5	-2,547550
12,892000	0,5	-2,553200
12,900333	0,5	-2,561300
12,908667	0,5	-2,569300
12,917000	0,5	-2,570600
12,925333	0,5	-2,579600
12,933667	0,5	-2,582950
12,942000	0,5	-2,588050
12,950333	0,5	-2,596100
12,958667	0,5	-2,602200
12,967000	0,5	-2,614200
12,975333	0,5	-2,625700
12,983667	0,5	-2,632900
12,992000	0,5	-2,634700
13,000333	0,5	-2,646100
13,008667	0,5	-2,652200
13,017000	0,5	-2,668200
13,025333	0,5	-2,666900
13,033667	0,5	-2,662550
13,042000	0,5	-2,656550
13,050333	0,5	-2,651000
13,058667	0,5	-2,640700
13,067000	0,5	-2,640400
13,075333	0,5	-2,603200
13,083667	0,5	-2,584250
13,092000	0,5	-2,564450
13,100333	0,5	-2,536900
13,108667	0,5	-2,516450
13,117000	0,5	-2,497300
13,125333	0,5	-2,494100
13,133667	0,5	-2,479750
13,142000	0,5	-2,472550
13,150333	0,5	-2,473800
13,158667	0,5	-2,481550
13,167000	0,5	-2,494600
13,175333	0,5	-2,493400
13,183667	0,5	-2,489450
13,192000	0,5	-2,493950
13,200333	0,5	-2,492850
13,208667	0,5	-2,486150
13,217000	0,5	-2,474350
13,225333	0,5	-2,467500
13,233667	0,5	-2,453800
13,242000	0,5	-2,437950
13,250333	0,5	-2,424800
13,258667	0,5	-2,416950
13,267000	0,5	-2,409500
13,275333	0,5	-2,421600
13,283667	0,5	-2,420000
13,292000	0,5	-2,431550
13,300333	0,5	-2,444650
13,308667	0,5	-2,456150
13,317000	0,5	-2,480600
13,325333	0,5	-2,482050
13,333667	0,5	-2,491750
13,342000	0,5	-2,487500
13,350333	0,5	-2,487950
13,358667	0,5	-2,482000
13,367000	0,5	-2,482050
13,375333	0,5	-2,468200
13,383667	0,5	-2,461800
13,392000	0,5	-2,446600
13,400333	0,5	-2,431350
13,408667	0,5	-2,406350
13,417000	0,5	-2,390000
13,425333	0,5	-2,363150
13,433667	0,5	-2,327700
13,442000	0,5	-2,288550
13,450333	0,5	-2,251600
13,458667	0,5	-2,221400
13,467000	0,5	-2,202600
13,475333	0,5	-2,174300
13,483667	0,5	-2,155050
13,492000	0,5	-2,146350
13,500333	0,5	-2,137550
13,508667	0,5	-2,131900
13,517000	0,5	-2,127400
13,525333	0,5	-2,122100
13,533667	0,5	-2,104800
13,542000	0,5	-2,097400
13,550333	0,5	-2,082750
13,558667	0,5	-2,063650
13,567000	0,5	-2,056500
13,575333	0,5	-2,040450
13,583667	0,5	-2,019300
13,592000	0,5	-2,004200
13,600333	0,5	-1,993950
13,608667	0,5	-1,989750
13,617000	0,5	-1,982750
13,625333	0,5	-1,961250
13,633667	0,5	-1,947500
13,642000	0,5	-1,930750
13,650333	0,5	-1,917150
13,658667	0,5	-1,898450
13,667000	0,5	-1,893300
13,675333	0,5	-1,868150
13,683667	0,5	-1,852000
13,692000	0,5	-1,830900
13,700333	0,5	-1,806150
13,708667	0,5	-1,787550
13,717000	0,5	-1,773350
13,725333	0,5	-1,745600
13,733667	0,5	-1,730750
13,742000	0,5	-1,706450
13,750333	0,5	-1,695450
13,758667	0,5	-1,678300
13,767000	0,5	-1,662200
13,775333	0,5	-1,632400
13,783667	0,5	-1,612250
13,792000	0,5	-1,586650
13,800333	0,5	-1,568550
13,808667	0,5	-1,546050
13,817000	0,5	-1,527250
13,825333	0,5	-1,508500
13,833667	0,5	-1,486600
13,842000	0,5	-1,470800
13,850333	0,5	-1,440650
13,858667	0,5	-1,430500
13,867000	0,5	-1,413250
13,875333	0,5	-1,395650
13,883667	0,5	-1,379500
13,892000	0,5	-1,358650
13,900333	0,5	-1,357350
13,908667	0,5	-1,340600
13,917000	0,5	-1,317700
13,925333	0,5	-1,298400
13,933667	0,5	-1,284900
13,942000	0,5	-1,269500
13,950333	0,5	-1,251850
13,958667	0,5	-1,237600
13,967000	0,5	-1,223950
13,975333	0,5	-1,209800
13,983667	0,5	-1,191600
13,992000	0,5	-1,166400
14,000333	0,5	-1,129750
14,008667	0,5	-1,106300
14,017000	0,5	-1,061700
14,025333	0,5	-1,004450
14,033667	0,5	-0,938450
14,042000	0,5	-0,875900
14,050333	0,5	-0,822500
14,058667	0,5	-0,754800
14,067000	0,5	-0,700550
14,075333	0,5	-0,666100
14,083667	0,5	-0,645500
14,092000	0,5	-0,623450
14,100333	0,5	-0,601300
14,108667	0,5	-0,568900
14,117000	0,5	-0,515600
14,125333	0,5	-0,447050
14,133667	0,5	-0,379950
14,142000	0,5	-0,322900
14,150333	0,5	-0,276500
14,158667	0,5	-0,252850
14,167000	0,5	-0,214800
14,175333	0,5	-0,178900
14,183667	0,5	-0,134850
14,192000	0,5	-0,088850
14,200333	0,5	-0,034050
14,208667	0,5	0,025200
14,217000	0,5	0,080600
14,225333	0,5	0,117850
14,233667	0,5	0,167550
14,242000	0,5	0,213800
14,250333	0,5	0,252750
14,258667	0,5	0,291450
14,267000	0,5	0,315000
14,275333	0,5	0,313750
14,283667	0,5	0,311000
14,292000	0,5	0,308450
14,300333	0,5	0,298150
14,308667	0,5	0,292600
14,317000	0,5	0,297500
14,325333	0,5	0,307050
14,333667	0,5	0,303100
14,342000	0,5	0,302300
14,350333	0,5	0,305200
14,358667	0,5	0,332600
14,367000	0,5	0,347000
14,375333	0,5	0,359200
14,383667	0,5	0,368700
14,392000	0,5	0,378150
14,400333	0,5	0,373200
14,408667	0,5	0,381550
14,417000	0,5	0,377900
14,425333	0,5	0,372750
14,433667	0,5	0,375200
14,442000	0,5	0,386700
14,450333	0,5	0,387550
14,458667	0,5	0,400950
14,467000	0,5	0,422600
14,475333	0,5	0,434750
14,483667	0,5	0,439800
14,492000	0,5	0,430050
14,500333	0,5	0,433250
14,508667	0,5	0,422400
14,517000	0,5	0,406550
14,525333	0,5	0,390000
14,533667	0,5	0,377600
14,542000	0,5	0,356600
14,550333	0,5	0,341450
14,558667	0,5	0,331050
14,567000	0,5	0,319300
14,575333	0,5	0,304300
14,583667	0,5	0,302150
14,592000	0,5	0,304300
14,600333	0,5	0,293300
14,608667	0,5	0,298300
14,617000	0,5	0,300350
14,625333	0,5	0,302400
14,633667	0,5	0,295300
14,642000	0,5	0,290050
14,650333	0,5	0,299650
14,658667	0,5	0,329800
14,667000	0,5	0,377300
14,675333	0,5	0,436800
14,683667	0,5	0,512900
14,692000	0,5	0,609500
14,700333	0,5	0,692700
14,708667	0,5	0,769750
14,717000	0,5	0,805550
14,725333	0,5	0,820200
14,733667	0,5	0,791650
14,742000	0,5	0,749100
14,750333	0,5	0,694500
14,758667	0,5	0,664100
14,767000	0,5	0,646050
14,775333	0,5	0,662050
14,783667	0,5	0,682100
14,792000	0,5	0,736100
14,800333	0,5	0,802450
14,808667	0,5	0,853950
14,817000	0,5	0,858150
14,825333	0,5	0,840550
14,833667	0,5	0,796850
14,842000	0,5	0,724000
14,850333	0,5	0,663700
14,858667	0,5	0,593250
14,867000	0,5	0,547850
14,875333	0,5	0,509250
14,883667	0,5	0,482200
14,892000	0,5	0,451050
14,900333	0,5	0,439600
14,908667	0,5	0,427650
14,917000	0,5	0,426250
14,925333	0,5	0,414300
14,933667	0,5	0,403950
14,942000	0,5	0,403050
14,950333	0,5	0,414300
14,958667	0,5	0,419900
14,967000	0,5	0,421350
14,975333	0,5	0,411750
14,983667	0,5	0,398150
14,992000	0,5	0,382900
15,000333	0,5	0,373050
15,008667	0,5	0,371650
15,017000	0,5	0,354450
15,025333	0,5	0,355800
15,033667	0,5	0,344500
15,042000	0,5	0,321350
15,050333	0,5	0,306400
15,058667	0,5	0,293500
15,067000	0,5	0,268550
15,075333	0,5	0,238350
15,083667	0,5	0,203350
15,092000	0,5	0,200150
15,100333	0,5	0,201550
15,108667	0,5	0,200300
15,117000	0,5	0,192750
15,125333	0,5	0,195150
15,133667	0,5	0,198000
15,142000	0,5	0,189650
15,150333	0,5	0,188500
15,158667	0,5	0,194650
15,167000	0,5	0,195500
15,175333	0,5	0,216300
15,183667	0,5	0,245850
15,192000	0,5	0,290300
15,200333	0,5	0,385600
15,208667	0,5	0,491200
15,217000	0,5	0,605100
15,225333	0,5	0,686100
15,233667	0,5	0,744600
15,242000	0,5	0,763200
15,250333	0,5	0,736100
15,258667	0,5	0,666700
15,267000	0,5	0,626000
15,275333	0,5	0,599450
15,283667	0,5	0,620500
15,292000	0,5	0,663550
15,300333	0,5	0,725800
15,308667	0,5	0,771800
15,317000	0,5	0,775450
15,325333	0,5	0,748200
15,333667	0,5	0,661000
15,342000	0,5	0,586200
15,350333	0,5	0,511500
15,358667	0,5	0,454350
15,367000	0,5	0,400100
15,375333	0,5	0,361950
15,383667	0,5	0,340150
15,392000	0,5	0,339200
15,400333	0,5	0,326200
15,408667	0,5	0,311100
15,417000	0,5	0,297200
15,425333	0,5	0,285100
15,433667	0,5	0,266100
15,442000	0,5	0,262400
15,450333	0,5	0,260050
15,458667	0,5	0,256550
15,467000	0,5	0,264100
15,475333	0,5	0,271050
15,483667	0,5	0,244700
15,492000	0,5	0,247450
15,500333	0,5	0,228600
15,508667	0,5	0,203050
15,517000	0,5	0,175950
15,525333	0,5	0,128900
15,533667	0,5	0,120250
15,542000	0,5	0,104050
15,550333	0,5	0,095350
15,558667	0,5	0,070000
15,567000	0,5	0,062950
15,575333	0,5	0,047700
15,583667	0,5	0,042950
15,592000	0,5	0,026500
15,600333	0,5	0,013850
15,608667	0,5	0,005650
15,617000	0,5	0,010900
15,625333	0,5	0,009300
15,633667	0,5	0,030250
15,642000	0,5	0,077750
15,650333	0,5	0,140650
15,658667	0,5	0,233350
15,667000	0,5	0,338300
15,675333	0,5	0,450300
15,683667	0,5	0,558050
15,692000	0,5	0,619750
15,700333	0,5	0,620000
15,708667	0,5	0,595050
15,717000	0,5	0,562550
15,725333	0,5	0,553450
15,733667	0,5	0,571600
15,742000	0,5	0,614600
15,750333	0,5	0,648400
15,758667	0,5	0,656950
15,767000	0,5	0,620950
15,775333	0,5	0,557550
15,783667	0,5	0,476400
15,792000	0,5	0,395600
15,800333	0,5	0,308450
15,808667	0,5	0,244100
15,817000	0,5	0,179000
15,825333	0,5	0,138250
15,833667	0,5	0,119850
15,842000	0,5	0,113950
15,850333	0,5	0,116700
15,858667	0,5	0,119650
15,867000	0,5	0,124450
15,875333	0,5	0,130900
15,883667	0,5	0,137050
15,892000	0,5	0,134550
15,900333	0,5	0,122800
15,908667	0,5	0,104550
15,917000	0,5	0,092650
15,925333	0,5	0,054850
15,933667	0,5	0,044900
15,942000	0,5	0,018700
15,950333	0,5	-0,008850
15,958667	0,5	-0,035450
15,967000	0,5	-0,067950
15,975333	0,5	-0,083000
15,983667	0,5	-0,094450
15,992000	0,5	-0,099850
16,000333	0,5	-0,108350
16,008667	0,5	-0,106750
16,017000	0,5	-0,103000
16,025333	0,5	-0,100950
16,033667	0,5	-0,096250
16,042000	0,5	-0,072850
16,050333	0,5	-0,030000
16,058667	0,5	0,059550
16,067000	0,5	0,162150
16,075333	0,5	0,307350
16,083667	0,5	0,440600
16,092000	0,5	0,547500
16,100333	0,5	0,584400
16,108667	0,5	0,588750
16,117000	0,5	0,581250
16,125333	0,5	0,594800
16,133667	0,5	0,622000
16,142000	0,5	0,645050
16,150333	0,5	0,641300
16,158667	0,5	0,604050
16,167000	0,5	0,528000
16,175333	0,5	0,430800
16,183667	0,5	0,336400
16,192000	0,5	0,251600
16,200333	0,5	0,197700
16,208667	0,5	0,156100
16,217000	0,5	0,123900
16,225333	0,5	0,122450
16,233667	0,5	0,130450
16,242000	0,5	0,148300
16,250333	0,5	0,171650
16,258667	0,5	0,171700
16,267000	0,5	0,213050
16,275333	0,5	0,256100
16,283667	0,5	0,291700
16,292000	0,5	0,312150
16,300333	0,5	0,313150
16,308667	0,5	0,303400
16,317000	0,5	0,274600
16,325333	0,5	0,230900
16,333667	0,5	0,173100
16,342000	0,5	0,109500
16,350333	0,5	0,049950
16,358667	0,5	0,005750
16,367000	0,5	-0,055550
16,375333	0,5	-0,082700
16,383667	0,5	-0,109650
16,392000	0,5	-0,132200
16,400333	0,5	-0,151100
16,408667	0,5	-0,157000
16,417000	0,5	-0,103050
16,425333	0,5	-0,016950
16,433667	0,5	0,090000
16,442000	0,5	0,233100
16,450333	0,5	0,356000
16,458667	0,5	0,463950
16,467000	0,5	0,513600
16,475333	0,5	0,536350
16,483667	0,5	0,534650
16,492000	0,5	0,524200
16,500333	0,5	0,529600
16,508667	0,5	0,496750
16,517000	0,5	0,451250
16,525333	0,5	0,394950
16,533667	0,5	0,328400
16,542000	0,5	0,259950
16,550333	0,5	0,204600
16,558667	0,5	0,188750
16,567000	0,5	0,201650
16,575333	0,5	0,209250
16,583667	0,5	0,218950
16,592000	0,5	0,223100
16,600333	0,5	0,222450
16,608667	0,5	0,196050
16,617000	0,5	0,193800
16,625333	0,5	0,167850
16,633667	0,5	0,144250
16,642000	0,5	0,126400
16,650333	0,5	0,104650
16,658667	0,5	0,083000
16,667000	0,5	0,082200
16,675333	0,5	0,082950
16,683667	0,5	0,082000
16,692000	0,5	0,074200
16,700333	0,5	0,060150
16,708667	0,5	0,051100
16,717000	0,5	0,052050
16,725333	0,5	0,052050
16,733667	0,5	0,044850
16,742000	0,5	0,071700
16,750333	0,5	0,107400
16,758667	0,5	0,190600
16,767000	0,5	0,288500
16,775333	0,5	0,409700
16,783667	0,5	0,515200
16,792000	0,5	0,605900
16,800333	0,5	0,660550
16,808667	0,5	0,675950
16,817000	0,5	0,703600
16,825333	0,5	0,696750
16,833667	0,5	0,666950
16,842000	0,5	0,586750
16,850333	0,5	0,485500
16,858667	0,5	0,388100
16,867000	0,5	0,307100
16,875333	0,5	0,218650
16,883667	0,5	0,156500
16,892000	0,5	0,109350
16,900333	0,5	0,072750
16,908667	0,5	0,040700
16,917000	0,5	0,030650
16,925333	0,5	0,013800
16,933667	0,5	0,012750
16,942000	0,5	0,009550
16,950333	0,5	-0,000200
16,958667	0,5	0,005050
16,967000	0,5	0,010400
16,975333	0,5	-0,001200
16,983667	0,5	-0,005250
16,992000	0,5	-0,036350
17,000333	0,5	-0,060600
17,008667	0,5	-0,070500
17,017000	0,5	-0,074000
17,025333	0,5	-0,064750
17,033667	0,5	-0,052600
17,042000	0,5	-0,018950
17,050333	0,5	0,037950
17,058667	0,5	0,129050
17,067000	0,5	0,249150
17,075333	0,5	0,393950
17,083667	0,5	0,562000
17,092000	0,5	0,732300
17,100333	0,5	0,863350
17,108667	0,5	1,013950
17,117000	0,5	1,158350
17,125333	0,5	1,297600
17,133667	0,5	1,413800
17,142000	0,5	1,496600
17,150333	0,5	1,569100
17,158667	0,5	1,633350
17,167000	0,5	1,669600
17,175333	0,5	1,693300
17,183667	0,5	1,726550
17,192000	0,5	1,747850
17,200333	0,5	1,790800
17,208667	0,5	1,829700
17,217000	0,5	1,881900
17,225333	0,5	1,926550
17,233667	0,5	1,973500
17,242000	0,5	1,963900
17,250333	0,5	1,917950
17,258667	0,5	1,848350
17,267000	0,5	1,751650
17,275333	0,5	1,622750
17,283667	0,5	1,491750
17,292000	0,5	1,377850
17,300333	0,5	1,330050
17,308667	0,5	1,324250
17,317000	0,5	1,381750
17,325333	0,5	1,540400
17,333667	0,5	1,786350
17,342000	0,5	2,102100
17,350333	0,5	2,454350
17,358667	0,5	2,779350
17,367000	0,5	3,018100
17,375333	0,5	3,134750
17,383667	0,5	3,110150
17,392000	0,5	2,928400
17,400333	0,5	2,659050
17,408667	0,5	2,333550
17,417000	0,5	1,977750
17,425333	0,5	1,655450
17,433667	0,5	1,369850
17,442000	0,5	1,183000
17,450333	0,5	1,059200
17,458667	0,5	0,971500
17,467000	0,5	0,911700
17,475333	0,5	0,872800
17,483667	0,5	0,839100
17,492000	0,5	0,813250
17,500333	0,5	0,785200
17,508667	0,5	0,748450
17,517000	0,5	0,713000
17,525333	0,5	0,671050
17,533667	0,5	0,645400
17,542000	0,5	0,568400
17,550333	0,5	0,527800
17,558667	0,5	0,466250
17,567000	0,5	0,425700
17,575333	0,5	0,390500
17,583667	0,5	0,386100
17,592000	0,5	0,412150
17,600333	0,5	0,469150
17,608667	0,5	0,485450
17,617000	0,5	0,500050
17,625333	0,5	0,489350
17,633667	0,5	0,457650
17,642000	0,5	0,408000
17,650333	0,5	0,349250
17,658667	0,5	0,278250
17,667000	0,5	0,200900
17,675333	0,5	0,161950
17,683667	0,5	0,117950
17,692000	0,5	0,078700
17,700333	0,5	0,064150
17,708667	0,5	0,041450
17,717000	0,5	0,001350
17,725333	0,5	-0,038750
17,733667	0,5	-0,076700
17,742000	0,5	-0,078250
17,750333	0,5	-0,100650
17,758667	0,5	-0,103400
17,767000	0,5	-0,107400
17,775333	0,5	-0,102250
17,783667	0,5	-0,096750
17,792000	0,5	-0,075200
17,800333	0,5	-0,035400
17,808667	0,5	0,014150
17,817000	0,5	0,070550
17,825333	0,5	0,139050
17,833667	0,5	0,179100
17,842000	0,5	0,218500
17,850333	0,5	0,238150
17,858667	0,5	0,217600
17,867000	0,5	0,189300
17,875333	0,5	0,122600
17,883667	0,5	0,088400
17,892000	0,5	0,060950
17,900333	0,5	0,042950
17,908667	0,5	0,006300
17,917000	0,5	-0,003700
17,925333	0,5	-0,032750
17,933667	0,5	-0,044050
17,942000	0,5	-0,064300
17,950333	0,5	-0,068200
17,958667	0,5	-0,084050
17,967000	0,5	-0,089950
17,975333	0,5	-0,089750
17,983667	0,5	-0,080600
17,992000	0,5	-0,062850
18,000333	0,5	-0,036000
18,008667	0,5	0,009300
18,017000	0,5	0,035550
18,025333	0,5	0,068450
18,033667	0,5	0,103100
18,042000	0,5	0,127250
18,050333	0,5	0,115350
18,058667	0,5	0,093350
18,067000	0,5	0,058900
18,075333	0,5	0,012150
18,083667	0,5	-0,031750
18,092000	0,5	-0,059500
18,100333	0,5	-0,095450
18,108667	0,5	-0,128350
18,117000	0,5	-0,147700
18,125333	0,5	-0,183350
18,133667	0,5	-0,206650
18,142000	0,5	-0,206500
18,150333	0,5	-0,221600
18,158667	0,5	-0,235900
18,167000	0,5	-0,259300
18,175333	0,5	-0,260150
18,183667	0,5	-0,234550
18,192000	0,5	-0,203450
18,200333	0,5	-0,160700
18,208667	0,5	-0,118800
18,217000	0,5	-0,084150
18,225333	0,5	-0,081400
18,233667	0,5	-0,075250
18,242000	0,5	-0,099200
18,250333	0,5	-0,134250
18,258667	0,5	-0,153300
18,267000	0,5	-0,166400
18,275333	0,5	-0,203850
18,283667	0,5	-0,214750
18,292000	0,5	-0,232800
18,300333	0,5	-0,272700
18,308667	0,5	-0,301400
18,317000	0,5	-0,356850
18,325333	0,5	-0,375200
18,333667	0,5	-0,403300
18,342000	0,5	-0,407800
18,350333	0,5	-0,417600
18,358667	0,5	-0,401500
18,367000	0,5	-0,389650
18,375333	0,5	-0,361450
18,383667	0,5	-0,349500
18,392000	0,5	-0,338400
18,400333	0,5	-0,351700
18,408667	0,5	-0,360250
18,417000	0,5	-0,399050
18,425333	0,5	-0,441750
18,433667	0,5	-0,464050
18,442000	0,5	-0,475050
18,450333	0,5	-0,503800
18,458667	0,5	-0,517050
18,467000	0,5	-0,544750
18,475333	0,5	-0,540900
18,483667	0,5	-0,540850
18,492000	0,5	-0,549150
18,500333	0,5	-0,542800
18,508667	0,5	-0,549550
18,517000	0,5	-0,555900
18,525333	0,5	-0,556000
18,533667	0,5	-0,552200
18,542000	0,5	-0,557100
18,550333	0,5	-0,541850
18,558667	0,5	-0,538300
18,567000	0,5	-0,552200
18,575333	0,5	-0,569800
18,583667	0,5	-0,580150
18,592000	0,5	-0,600500
18,600333	0,5	-0,635350
18,608667	0,5	-0,671500
18,617000	0,5	-0,691450
18,625333	0,5	-0,686000
18,633667	0,5	-0,692850
18,642000	0,5	-0,701550
18,650333	0,5	-0,707750
18,658667	0,5	-0,711700
18,667000	0,5	-0,714350
18,675333	0,5	-0,704250
18,683667	0,5	-0,693150
18,692000	0,5	-0,669950
18,700333	0,5	-0,645550
18,708667	0,5	-0,610100
18,717000	0,5	-0,632500
18,725333	0,5	-0,628200
18,733667	0,5	-0,647850
18,742000	0,5	-0,656150
18,750333	0,5	-0,674750
18,758667	0,5	-0,700700
18,767000	0,5	-0,683500
18,775333	0,5	-0,670100
18,783667	0,5	-0,660450
18,792000	0,5	-0,653100
18,800333	0,5	-0,631450
18,808667	0,5	-0,597600
18,817000	0,5	-0,567600
18,825333	0,5	-0,537500
18,833667	0,5	-0,517250
18,842000	0,5	-0,516300
18,850333	0,5	-0,495450
18,858667	0,5	-0,513400
18,867000	0,5	-0,530500
18,875333	0,5	-0,534100
18,883667	0,5	-0,561350
18,892000	0,5	-0,584500
18,900333	0,5	-0,606550
18,908667	0,5	-0,638550
18,917000	0,5	-0,620600
18,925333	0,5	-0,610550
18,933667	0,5	-0,593500
18,942000	0,5	-0,593750
18,950333	0,5	-0,579550
18,958667	0,5	-0,575600
18,967000	0,5	-0,577050
18,975333	0,5	-0,595200
18,983667	0,5	-0,620200
18,992000	0,5	-0,643300
19,000333	0,5	-0,670500
19,008667	0,5	-0,698800
19,017000	0,5	-0,723350
19,025333	0,5	-0,722350
19,033667	0,5	-0,743300
19,042000	0,5	-0,766200
19,050333	0,5	-0,786050
19,058667	0,5	-0,792900
19,067000	0,5	-0,788200
19,075333	0,5	-0,777700
19,083667	0,5	-0,792000
19,092000	0,5	-0,792850
19,100333	0,5	-0,804750
19,108667	0,5	-0,810550
19,117000	0,5	-0,820050
19,125333	0,5	-0,831750
19,133667	0,5	-0,845200
19,142000	0,5	-0,858650
19,150333	0,5	-0,864100
19,158667	0,5	-0,881650
19,167000	0,5	-0,874050
19,175333	0,5	-0,879200
19,183667	0,5	-0,892200
19,192000	0,5	-0,923500
19,200333	0,5	-0,951350
19,208667	0,5	-0,969700
19,217000	0,5	-0,981100
19,225333	0,5	-1,002250
19,233667	0,5	-1,008750
19,242000	0,5	-1,033100
19,250333	0,5	-1,033750
19,258667	0,5	-1,041200
19,267000	0,5	-1,032100
19,275333	0,5	-1,047900
19,283667	0,5	-1,052500
19,292000	0,5	-1,052700
19,300333	0,5	-1,076800
19,308667	0,5	-1,090500
19,317000	0,5	-1,096300
19,325333	0,5	-1,091650
19,333667	0,5	-1,113400
19,342000	0,5	-1,146250
19,350333	0,5	-1,151550
19,358667	0,5	-1,139500
19,367000	0,5	-1,148400
19,375333	0,5	-1,158300
19,383667	0,5	-1,178900
19,392000	0,5	-1,178000
19,400333	0,5	-1,198750
19,408667	0,5	-1,198650
19,417000	0,5	-1,206200
19,425333	0,5	-1,221750
19,433667	0,5	-1,220100
19,442000	0,5	-1,221600
19,450333	0,5	-1,257650
19,458667	0,5	-1,238300
19,467000	0,5	-1,232150
19,475333	0,5	-1,241450
19,483667	0,5	-1,264450
19,492000	0,5	-1,302100
19,500333	0,5	-1,291150
19,508667	0,5	-1,291050
19,517000	0,5	-1,285300
19,525333	0,5	-1,298600
19,533667	0,5	-1,295250
19,542000	0,5	-1,312500
19,550333	0,5	-1,326000
19,558667	0,5	-1,343300
19,567000	0,5	-1,345050
19,575333	0,5	-1,357850
19,583667	0,5	-1,352700
19,592000	0,5	-1,364100
19,600333	0,5	-1,385750
19,608667	0,5	-1,383950
19,617000	0,5	-1,396900
19,625333	0,5	-1,410250
19,633667	0,5	-1,435500
19,642000	0,5	-1,454650
19,650333	0,5	-1,453300
19,658667	0,5	-1,455300
19,667000	0,5	-1,471850
19,675333	0,5	-1,465000
19,683667	0,5	-1,473200
19,692000	0,5	-1,471600
19,700333	0,5	-1,477850
19,708667	0,5	-1,470850
19,717000	0,5	-1,491200
19,725333	0,5	-1,496150
19,733667	0,5	-1,489150
19,742000	0,5	-1,511200
19,750333	0,5	-1,526200
19,758667	0,5	-1,536700
19,767000	0,5	-1,544250
19,775333	0,5	-1,569250
19,783667	0,5	-1,599200
19,792000	0,5	-1,618750
19,800333	0,5	-1,622750
19,808667	0,5	-1,631650
19,817000	0,5	-1,646600
19,825333	0,5	-1,659700
19,833667	0,5	-1,668300
19,842000	0,5	-1,686650
19,850333	0,5	-1,700750
19,858667	0,5	-1,719400
19,867000	0,5	-1,725250
19,875333	0,5	-1,719950
19,883667	0,5	-1,712600
19,892000	0,5	-1,739950
19,900333	0,5	-1,739150
19,908667	0,5	-1,752250
19,917000	0,5	-1,766400
19,925333	0,5	-1,791700
19,933667	0,5	-1,825200
19,942000	0,5	-1,812300
19,950333	0,5	-1,824050
19,958667	0,5	-1,833250
19,967000	0,5	-1,836450
19,975333	0,5	-1,837200
19,983667	0,5	-1,852800
19,992000	0,5	-1,849550
20,000333	0,5	-1,862100
20,008667	0,5	-1,871750
20,017000	0,5	-1,887800
20,025333	0,5	-1,879850
20,033667	0,5	-1,897300
20,042000	0,5	-1,914400
20,050333	0,5	-1,933600
20,058667	0,5	-1,965400
20,067000	0,5	-1,981750
20,075333	0,5	-2,017400
20,083667	0,5	-2,050800
20,092000	0,5	-2,062500
20,100333	0,5	-2,058800
20,108667	0,5	-2,082600
20,117000	0,5	-2,091050
20,125333	0,5	-2,106350
20,133667	0,5	-2,118400
20,142000	0,5	-2,131450
20,150333	0,5	-2,137350
20,158667	0,5	-2,166950
20,167000	0,5	-2,159000
20,175333	0,5	-2,164600
20,183667	0,5	-2,180350
20,192000	0,5	-2,187400
20,200333	0,5	-2,188300
20,208667	0,5	-2,195650
20,217000	0,5	-2,208550
20,225333	0,5	-2,235200
20,233667	0,5	-2,252050
20,242000	0,5	-2,245950
20,250333	0,5	-2,256850
20,258667	0,5	-2,273050
20,267000	0,5	-2,283600
20,275333	0,5	-2,291400
20,283667	0,5	-2,307000
20,292000	0,5	-2,313850
20,300333	0,5	-2,338450
20,308667	0,5	-2,348100
20,317000	0,5	-2,346850
20,325333	0,5	-2,352950
20,333667	0,5	-2,369600
20,342000	0,5	-2,388100
20,350333	0,5	-2,402000
20,358667	0,5	-2,435200
20,367000	0,5	-2,482050
20,375333	0,5	-2,504550
20,383667	0,5	-2,522150
20,392000	0,5	-2,539300
20,400333	0,5	-2,562650
20,408667	0,5	-2,578050
20,417000	0,5	-2,605850
20,425333	0,5	-2,633900
20,433667	0,5	-2,649900
20,442000	0,5	-2,676300
20,450333	0,5	-2,698900
20,458667	0,5	-2,722700
20,467000	0,5	-2,715450
20,475333	0,5	-2,751250
20,483667	0,5	-2,760750
20,492000	0,5	-2,783600
20,500333	0,5	-2,800950
20,508667	0,5	-2,836850
20,517000	0,5	-2,886900
20,525333	0,5	-2,909150
20,533667	0,5	-2,920000
20,542000	0,5	-2,922200
20,550333	0,5	-2,923450
20,558667	0,5	-2,923450
20,567000	0,5	-2,921550
20,575333	0,5	-2,927650
20,583667	0,5	-2,957250
20,592000	0,5	-2,990800
20,600333	0,5	-3,047750
20,608667	0,5	-3,065350
20,617000	0,5	-3,113950
20,625333	0,5	-3,166050
20,633667	0,5	-3,205300
20,642000	0,5	-3,242800
20,650333	0,5	-3,297600
20,658667	0,5	-3,346950
20,667000	0,5	-3,406750
20,675333	0,5	-3,427200
20,683667	0,5	-3,453950
20,692000	0,5	-3,485600
20,700333	0,5	-3,514950
20,708667	0,5	-3,524250
20,717000	0,5	-3,535450
20,725333	0,5	-3,537600
20,733667	0,5	-3,522550
20,742000	0,5	-3,513650
20,750333	0,5	-3,502050
20,758667	0,5	-3,502050
20,767000	0,5	-3,538750
20,775333	0,5	-3,615350
20,783667	0,5	-3,674000
20,792000	0,5	-3,745700
20,800333	0,5	-3,826250
20,808667	0,5	-3,905250
20,817000	0,5	-3,970100
20,825333	0,5	-4,002900
20,833667	0,5	-4,052250
20,842000	0,5	-4,100850
20,850333	0,5	-4,147450
20,858667	0,5	-4,173000
20,867000	0,5	-4,219000
20,875333	0,5	-4,258850
20,883667	0,5	-4,286500
20,892000	0,5	-4,322550
20,900333	0,5	-4,322400
20,908667	0,5	-4,324400
20,917000	0,5	-4,350650
20,925333	0,5	-4,377600
20,933667	0,5	-4,425100
20,942000	0,5	-4,478800
20,950333	0,5	-4,551800
20,958667	0,5	-4,612200
20,967000	0,5	-4,657500
20,975333	0,5	-4,695250
20,983667	0,5	-4,732400
20,992000	0,5	-4,764800
21,000333	0,5	-4,793350
21,008667	0,5	-4,836000
21,017000	0,5	-4,857900
21,025333	0,5	-4,895150
21,033667	0,5	-4,928500
21,042000	0,5	-4,956000
21,050333	0,5	-4,963450
21,058667	0,5	-4,975400
21,067000	0,5	-4,998400
21,075333	0,5	-5,046400
21,083667	0,5	-5,074750
21,092000	0,5	-5,115300
21,100333	0,5	-5,167800
21,108667	0,5	-5,220450
21,117000	0,5	-5,245850
21,125333	0,5	-5,263900
21,133667	0,5	-5,299550
21,142000	0,5	-5,325500
21,150333	0,5	-5,347250
21,158667	0,5	-5,378700
21,167000	0,5	-5,408800
21,175333	0,5	-5,438200
21,183667	0,5	-5,470600
21,192000	0,5	-5,467650
21,200333	0,5	-5,458000
21,208667	0,5	-5,472550
21,217000	0,5	-5,508900
21,225333	0,5	-5,517500
21,233667	0,5	-5,546800
21,242000	0,5	-5,591400
21,250333	0,5	-5,629900
21,258667	0,5	-5,653250
21,267000	0,5	-5,661800
21,275333	0,5	-5,674800
21,283667	0,5	-5,698800
21,292000	0,5	-5,696050
21,300333	0,5	-5,694350
21,308667	0,5	-5,702200
21,317000	0,5	-5,716150
21,325333	0,5	-5,740950
21,333667	0,5	-5,753750
21,342000	0,5	-5,763000
21,350333	0,5	-5,772350
21,358667	0,5	-5,796800
21,367000	0,5	-5,818800
21,375333	0,5	-5,851700
21,383667	0,5	-5,903100
21,392000	0,5	-5,953650
21,400333	0,5	-5,973850
21,408667	0,5	-5,981350
21,417000	0,5	-5,994950
21,425333	0,5	-6,020550
21,433667	0,5	-6,032400
21,442000	0,5	-6,048750
21,450333	0,5	-6,063800
21,458667	0,5	-6,069850
21,467000	0,5	-6,081450
21,475333	0,5	-6,086250
21,483667	0,5	-6,103350
21,492000	0,5	-6,094100
21,500333	0,5	-6,099650
21,508667	0,5	-6,113600
21,517000	0,5	-6,138900
21,525333	0,5	-6,169600
21,533667	0,5	-6,192750
21,542000	0,5	-6,235450
21,550333	0,5	-6,233450
21,558667	0,5	-6,254500
21,567000	0,5	-6,260700
21,575333	0,5	-6,272950
21,583667	0,5	-6,289500
21,592000	0,5	-6,299300
21,600333	0,5	-6,305750
21,608667	0,5	-6,314200
21,617000	0,5	-6,311800
21,625333	0,5	-6,318850
21,633667	0,5	-6,277950
21,642000	0,5	-6,269850
21,650333	0,5	-6,265300
21,658667	0,5	-6,272650
21,667000	0,5	-6,263250
21,675333	0,5	-6,269300
21,683667	0,5	-6,283150
21,692000	0,5	-6,315900
21,700333	0,5	-6,317600
21,708667	0,5	-6,339900
21,717000	0,5	-6,369800
21,725333	0,5	-6,389150
21,733667	0,5	-6,404450
21,742000	0,5	-6,418850
21,750333	0,5	-6,439600
21,758667	0,5	-6,454100
21,767000	0,5	-6,479350
21,775333	0,5	-6,487500
21,783667	0,5	-6,487350
21,792000	0,5	-6,513450
21,800333	0,5	-6,536100
21,808667	0,5	-6,553150
21,817000	0,5	-6,580100
21,825333	0,5	-6,604000
21,833667	0,5	-6,642300
21,842000	0,5	-6,647550
21,850333	0,5	-6,650000
21,858667	0,5	-6,670850
21,867000	0,5	-6,674450
21,875333	0,5	-6,688950
21,883667	0,5	-6,703750
21,892000	0,5	-6,725900
21,900333	0,5	-6,737650
21,908667	0,5	-6,748650
21,917000	0,5	-6,744950
21,925333	0,5	-6,725250
21,933667	0,5	-6,686050
21,942000	0,5	-6,665600
21,950333	0,5	-6,609700
21,958667	0,5	-6,616050
21,967000	0,5	-6,642500
21,975333	0,5	-6,701500
21,983667	0,5	-6,763450
21,992000	0,5	-6,795700
22,000333	0,5	-6,826150
22,008667	0,5	-6,871200
22,017000	0,5	-6,902400
22,025333	0,5	-6,927250
22,033667	0,5	-6,960350
22,042000	0,5	-6,982600
22,050333	0,5	-7,015100
22,058667	0,5	-7,038600
22,067000	0,5	-7,054450
22,075333	0,5	-7,060950
22,083667	0,5	-7,109450
22,092000	0,5	-7,113000
22,100333	0,5	-7,127450
22,108667	0,5	-7,141550
22,117000	0,5	-7,176100
22,125333	0,5	-7,205500
22,133667	0,5	-7,232300
22,142000	0,5	-7,235350
22,150333	0,5	-7,244700
22,158667	0,5	-7,260850
22,167000	0,5	-7,269300
22,175333	0,5	-7,274600
22,183667	0,5	-7,281600
22,192000	0,5	-7,298100
22,200333	0,5	-7,304000
22,208667	0,5	-7,316350
22,217000	0,5	-7,335200
22,225333	0,5	-7,350050
22,233667	0,5	-7,346950
22,242000	0,5	-7,345900
22,250333	0,5	-7,335300
22,258667	0,5	-7,339100
22,267000	0,5	-7,362400
22,275333	0,5	-7,372450
22,283667	0,5	-7,359750
22,292000	0,5	-7,357450
22,300333	0,5	-7,348550
22,308667	0,5	-7,328700
22,317000	0,5	-7,313500
22,325333	0,5	-7,307600
22,333667	0,5	-7,299600
22,342000	0,5	-7,276100
22,350333	0,5	-7,265650
22,358667	0,5	-7,232750
22,367000	0,5	-7,183750
22,375333	0,5	-7,104900
22,383667	0,5	-7,023900
22,392000	0,5	-6,993350
22,400333	0,5	-7,037700
22,408667	0,5	-7,089800
22,417000	0,5	-7,157050
22,425333	0,5	-7,194800
22,433667	0,5	-7,218600
22,442000	0,5	-7,235250
22,450333	0,5	-7,263350
22,458667	0,5	-7,279000
22,467000	0,5	-7,291450
22,475333	0,5	-7,310450
22,483667	0,5	-7,296500
22,492000	0,5	-7,305950
22,500333	0,5	-7,300100
22,508667	0,5	-7,333850
22,517000	0,5	-7,348800
22,525333	0,5	-7,319700
22,533667	0,5	-7,293050
22,542000	0,5	-7,270000
22,550333	0,5	-7,260900
22,558667	0,5	-7,255950
22,567000	0,5	-7,247600
22,575333	0,5	-7,200050
22,583667	0,5	-7,164200
22,592000	0,5	-7,144050
22,600333	0,5	-7,126600
22,608667	0,5	-7,107500
22,617000	0,5	-7,108850
22,625333	0,5	-7,096200
22,633667	0,5	-7,106200
22,642000	0,5	-7,091000
22,650333	0,5	-7,121250
22,658667	0,5	-7,149400
22,667000	0,5	-7,161700
22,675333	0,5	-7,128350
22,683667	0,5	-7,137800
22,692000	0,5	-7,131800
22,700333	0,5	-7,168300
22,708667	0,5	-7,201200
22,717000	0,5	-7,208300
22,725333	0,5	-7,209750
22,733667	0,5	-7,233750
22,742000	0,5	-7,244550
22,750333	0,5	-7,273800
22,758667	0,5	-7,284150
22,767000	0,5	-7,289300
22,775333	0,5	-7,298250
22,783667	0,5	-7,308100
22,792000	0,5	-7,316000
22,800333	0,5	-7,418950
22,808667	0,5	-7,438600
22,817000	0,5	-7,435000
22,825333	0,5	-7,424250
22,833667	0,5	-7,452350
22,842000	0,5	-7,466800
22,850333	0,5	-7,498950
22,858667	0,5	-7,519900
22,867000	0,5	-7,543400
22,875333	0,5	-7,574800
22,883667	0,5	-7,587100
22,892000	0,5	-7,599250
22,900333	0,5	-7,607050
22,908667	0,5	-7,615400
22,917000	0,5	-7,608950
22,925333	0,5	-7,616700
22,933667	0,5	-7,599550
22,942000	0,5	-7,581450
22,950333	0,5	-7,588300
22,958667	0,5	-7,563600
22,967000	0,5	-7,548850
22,975333	0,5	-7,552850
22,983667	0,5	-7,542250
22,992000	0,5	-7,514100
23,000333	0,5	-7,482450
23,008667	0,5	-7,457950
23,017000	0,5	-7,448100
23,025333	0,5	-7,418900
23,033667	0,5	-7,366300
23,042000	0,5	-7,325500
23,050333	0,5	-7,271700
23,058667	0,5	-7,201050
23,067000	0,5	-7,151450
23,075333	0,5	-7,070000
23,083667	0,5	-7,000700
23,092000	0,5	-6,879950
23,100333	0,5	-6,829250
23,108667	0,5	-6,749650
23,117000	0,5	-6,712850
23,125333	0,5	-6,653450
23,133667	0,5	-6,596900
23,142000	0,5	-6,500150
23,150333	0,5	-6,419650
23,158667	0,5	-6,352650
23,167000	0,5	-6,292450
23,175333	0,5	-6,214450
23,183667	0,5	-6,146150
23,192000	0,5	-6,062350
23,200333	0,5	-5,972000
23,208667	0,5	-5,883550
23,217000	0,5	-5,802350
23,225333	0,5	-5,713500
23,233667	0,5	-5,603250
23,242000	0,5	-5,502750
23,250333	0,5	-5,414100
23,258667	0,5	-5,301350
23,267000	0,5	-5,258550
23,275333	0,5	-5,194450
23,283667	0,5	-5,110700
23,292000	0,5	-5,030550
23,300333	0,5	-4,933300
23,308667	0,5	-4,883150
23,317000	0,5	-4,816550
23,325333	0,5	-4,755300
23,333667	0,5	-4,689600
23,342000	0,5	-4,613900
23,350333	0,5	-4,550800
23,358667	0,5	-4,473800
23,367000	0,5	-4,396950
23,375333	0,5	-4,315850
23,383667	0,5	-4,230100
23,392000	0,5	-4,230700
23,400333	0,5	-4,118050
23,408667	0,5	-4,020050
23,417000	0,5	-3,983400
23,425333	0,5	-3,915650
23,433667	0,5	-3,869900
23,442000	0,5	-3,799600
23,450333	0,5	-3,751950
23,458667	0,5	-3,705200
23,467000	0,5	-3,667700
23,475333	0,5	-3,613200
23,483667	0,5	-3,580550
23,492000	0,5	-3,530200
23,500333	0,5	-3,488550
23,508667	0,5	-3,443850
23,517000	0,5	-3,405000
23,525333	0,5	-3,358950
23,533667	0,5	-3,389050
23,542000	0,5	-3,364400
23,550333	0,5	-3,299000
23,558667	0,5	-3,213100
23,567000	0,5	-3,170350
23,575333	0,5	-3,138900
23,583667	0,5	-3,105450
23,592000	0,5	-3,074050
23,600333	0,5	-3,045500
23,608667	0,5	-3,019150
23,617000	0,5	-2,985950
23,625333	0,5	-2,967100
23,633667	0,5	-2,936700
23,642000	0,5	-2,910550
23,650333	0,5	-2,883000
23,658667	0,5	-2,853350
23,667000	0,5	-2,817950
23,675333	0,5	-2,799250
23,683667	0,5	-2,923600
23,692000	0,5	-2,882450
23,700333	0,5	-2,822000
23,708667	0,5	-2,754050
23,717000	0,5	-2,712850
23,725333	0,5	-2,696800
23,733667	0,5	-2,672050
23,742000	0,5	-2,660200
23,750333	0,5	-2,633350
23,758667	0,5	-2,611000
23,767000	0,5	-2,593300
23,775333	0,5	-2,569350
23,783667	0,5	-2,546050
23,792000	0,5	-2,521550
23,800333	0,5	-2,500100
23,808667	0,5	-2,474650
23,817000	0,5	-2,446750
23,825333	0,5	-2,511350
23,833667	0,5	-2,561150
23,842000	0,5	-2,530550
23,850333	0,5	-2,435850
23,858667	0,5	-2,386700
23,867000	0,5	-2,346200
23,875333	0,5	-2,320650
23,883667	0,5	-2,312150
23,892000	0,5	-2,291800
23,900333	0,5	-2,262750
23,908667	0,5	-2,245700
23,917000	0,5	-2,230800
23,925333	0,5	-2,205450
23,933667	0,5	-2,180300
23,942000	0,5	-2,160350
23,950333	0,5	-2,137800
23,958667	0,5	-2,112550
23,967000	0,5	-2,099450
23,975333	0,5	-2,246900
23,983667	0,5	-2,221550
23,992000	0,5	-2,183350
24,000333	0,5	-2,113850
24,008667	0,5	-2,069900
24,017000	0,5	-2,034100
24,025333	0,5	-2,008400
24,033667	0,5	-2,003100
24,042000	0,5	-1,984250
24,050333	0,5	-1,948300
24,058667	0,5	-1,922150
24,067000	0,5	-1,895850
24,075333	0,5	-1,868400
24,083667	0,5	-1,844750
24,092000	0,5	-1,817500
24,100333	0,5	-1,793800
24,108667	0,5	-1,777250
24,117000	0,5	-1,772450
24,125333	0,5	-1,900350
24,133667	0,5	-1,843200
24,142000	0,5	-1,811550
24,150333	0,5	-1,745550
24,158667	0,5	-1,719350
24,167000	0,5	-1,689900
24,175333	0,5	-1,686700
24,183667	0,5	-1,686900
24,192000	0,5	-1,654150
24,200333	0,5	-1,632350
24,208667	0,5	-1,620850
24,217000	0,5	-1,595000
24,225333	0,5	-1,571950
24,233667	0,5	-1,551200
24,242000	0,5	-1,522500
24,250333	0,5	-1,501000
24,258667	0,5	-1,469050
24,267000	0,5	-1,529250
24,275333	0,5	-1,555150
24,283667	0,5	-1,531500
24,292000	0,5	-1,477200
24,300333	0,5	-1,429800
24,308667	0,5	-1,404000
24,317000	0,5	-1,383750
24,325333	0,5	-1,377500
24,333667	0,5	-1,374400
24,342000	0,5	-1,343650
24,350333	0,5	-1,329650
24,358667	0,5	-1,312600
24,367000	0,5	-1,294650
24,375333	0,5	-1,277700
24,383667	0,5	-1,262750
24,392000	0,5	-1,240200
24,400333	0,5	-1,224400
24,408667	0,5	-1,222700
24,417000	0,5	-1,290000
24,425333	0,5	-1,280100
24,433667	0,5	-1,251100
24,442000	0,5	-1,211350
24,450333	0,5	-1,173300
24,458667	0,5	-1,162250
24,467000	0,5	-1,146300
24,475333	0,5	-1,147650
24,483667	0,5	-1,128150
24,492000	0,5	-1,112700
24,500333	0,5	-1,090500
24,508667	0,5	-1,082150
24,517000	0,5	-1,063750
24,525333	0,5	-1,049950
24,533667	0,5	-1,029000
24,542000	0,5	-1,015600
24,550333	0,5	-0,996300
24,558667	0,5	-0,997000
24,567000	0,5	-1,044550
24,575333	0,5	-1,030350
24,583667	0,5	-0,999900
24,592000	0,5	-0,975700
24,600333	0,5	-0,954650
24,608667	0,5	-0,950900
24,617000	0,5	-0,953450
24,625333	0,5	-0,943150
24,633667	0,5	-0,931450
24,642000	0,5	-0,920900
24,650333	0,5	-0,912650
24,658667	0,5	-0,897850
24,667000	0,5	-0,892450
24,675333	0,5	-0,876250
24,683667	0,5	-0,867800
24,692000	0,5	-0,850850
24,700333	0,5	-0,841200
24,708667	0,5	-0,876600
24,717000	0,5	-0,869500
24,725333	0,5	-0,856150
24,733667	0,5	-0,829950
24,742000	0,5	-0,806250
24,750333	0,5	-0,793350
24,758667	0,5	-0,787650
24,767000	0,5	-0,789250
24,775333	0,5	-0,784000
24,783667	0,5	-0,764450
24,792000	0,5	-0,762200
24,800333	0,5	-0,760600
24,808667	0,5	-0,758900
24,817000	0,5	-0,753200
24,825333	0,5	-0,746800
24,833667	0,5	-0,738000
24,842000	0,5	-0,736600
24,850333	0,5	-0,732200
24,858667	0,5	-0,765250
24,867000	0,5	-0,746500
24,875333	0,5	-0,743950
24,883667	0,5	-0,727050
24,892000	0,5	-0,717150
24,900333	0,5	-0,703400
24,908667	0,5	-0,703950
24,917000	0,5	-0,705450
24,925333	0,5	-0,694650
24,933667	0,5	-0,685200
24,942000	0,5	-0,677800
24,950333	0,5	-0,674550
24,958667	0,5	-0,666500
24,967000	0,5	-0,662750
24,975333	0,5	-0,657150
24,983667	0,5	-0,653850
24,992000	0,5	-0,650700
25,000333	0,5	-0,655950
25,008667	0,5	-0,671100
25,017000	0,5	-0,665700
25,025333	0,5	-0,663450
25,033667	0,5	-0,658700
25,042000	0,5	-0,651050
25,050333	0,5	-0,653200
25,058667	0,5	-0,651750
25,067000	0,5	-0,652300
25,075333	0,5	-0,645350
25,083667	0,5	-0,642750
25,092000	0,5	-0,642050
25,100333	0,5	-0,640450
25,108667	0,5	-0,633700
25,117000	0,5	-0,628300
25,125333	0,5	-0,625450
25,133667	0,5	-0,618850
25,142000	0,5	-0,614300
25,150333	0,5	-0,618700
25,158667	0,5	-0,616400
25,167000	0,5	-0,609050
25,175333	0,5	-0,609550
25,183667	0,5	-0,610200
25,192000	0,5	-0,609000
25,200333	0,5	-0,609800
25,208667	0,5	-0,612200
25,217000	0,5	-0,614700
25,225333	0,5	-0,615250
25,233667	0,5	-0,617350
25,242000	0,5	-0,618500
25,250333	0,5	-0,622900
25,258667	0,5	-0,618300
25,267000	0,5	-0,614250
25,275333	0,5	-0,612800
25,283667	0,5	-0,609350
25,292000	0,5	-0,608600
25,300333	0,5	-0,607250
25,308667	0,5	-0,603200
25,317000	0,5	-0,596150
25,325333	0,5	-0,596400
25,333667	0,5	-0,597400
25,342000	0,5	-0,596850
25,350333	0,5	-0,595200
25,358667	0,5	-0,596350
25,367000	0,5	-0,595500
25,375333	0,5	-0,598100
25,383667	0,5	-0,595650
25,392000	0,5	-0,600450
25,400333	0,5	-0,602800
25,408667	0,5	-0,604500
25,417000	0,5	-0,609900
25,425333	0,5	-0,610150
25,433667	0,5	-0,609450
25,442000	0,5	-0,604350
25,450333	0,5	-0,600150
25,458667	0,5	-0,599600
25,467000	0,5	-0,602250
25,475333	0,5	-0,607150
25,483667	0,5	-0,604900
25,492000	0,5	-0,605300
25,500333	0,5	-0,602100
25,508667	0,5	-0,597200
25,517000	0,5	-0,600900
25,525333	0,5	-0,602050
25,533667	0,5	-0,599850
25,542000	0,5	-0,602200
25,550333	0,5	-0,601750
25,558667	0,5	-0,600800
25,567000	0,5	-0,601550
25,575333	0,5	-0,603750
25,583667	0,5	-0,602800
25,592000	0,5	-0,603850
25,600333	0,5	-0,600900
25,608667	0,5	-0,591500
25,617000	0,5	-0,596850
25,625333	0,5	-0,603800
25,633667	0,5	-0,604850
25,642000	0,5	-0,611550
25,650333	0,5	-0,599950
25,658667	0,5	-0,599000
25,667000	0,5	-0,600000
25,675333	0,5	-0,601850
25,683667	0,5	-0,601950
25,692000	0,5	-0,598150
25,700333	0,5	-0,596250
25,708667	0,5	-0,601850
25,717000	0,5	-0,600200
25,725333	0,5	-0,598450
25,733667	0,5	-0,590800
25,742000	0,5	-0,583100
25,750333	0,5	-0,587400
25,758667	0,5	-0,575350
25,767000	0,5	-0,586000
25,775333	0,5	-0,588600
25,783667	0,5	-0,586950
25,792000	0,5	-0,584050
25,800333	0,5	-0,573250
25,808667	0,5	-0,575200
25,817000	0,5	-0,581800
25,825333	0,5	-0,574550
25,833667	0,5	-0,574950
25,842000	0,5	-0,574450
25,850333	0,5	-0,573150
25,858667	0,5	-0,568750
25,867000	0,5	-0,573750
25,875333	0,5	-0,563900
25,883667	0,5	-0,558000
25,892000	0,5	-0,549200
25,900333	0,5	-0,550900
25,908667	0,5	-0,539600
25,917000	0,5	-0,548050
25,925333	0,5	-0,546300
25,933667	0,5	-0,541500
25,942000	0,5	-0,536300
25,950333	0,5	-0,517200
25,958667	0,5	-0,528800
25,967000	0,5	-0,525600
25,975333	0,5	-0,524100
25,983667	0,5	-0,515800
25,992000	0,5	-0,516800
26,000333	0,5	-0,511550
