File Path	chrom://chromeleon01/ikbm_chromeleon/2022/ICS-5000/ED1/Esteban/20220427_Cell_Amandas_mutants.seq/596.smp/ED_1.channel/ED_1.chm
Channel	ED_1

Injection Information:
Data Vault	ikbm_chromeleon
Injection	Std_C1ox_0,01
Injection Number	67
Position	RA1
Comment	
Processing Method	Stop sequence after Cell Death
Instrument Method	ICS5000_PA200_FullNative_Ox_26min_ED1
Type	Unknown
Status	Finished
Injection Date	28.04.2022
Injection Time	20:30:29
Injection Volume (µl)	5,0
Dilution Factor	1,0000
Weight	1,0000

Chromatogram Data Information:
Time Min. (min)	0,000167
Time Max. (min)	26,000167
Data Points	3121
Detector	EDet1
Generating Data System	Chromeleon 7.2.9.11323
Exporting Data System	Chromeleon 7.2.9.0
Operator	Instrument Controller
Signal Quantity	
Signal Unit	nC
Signal Min.	-9,029800
Signal Max.	74,040051
Channel	ED_1
Driver Name	DC-5000
Channel Type	Evaluation
Min. Step (s)	0,5
Max. Step (s)	0,5
Average Step (s)	0,5

Signal Parameter Information:
Signal Info	

Chromatogram Data:
Time (min)	Step (s)	Value (nC)
0,000167	n.a.	-0,091650
0,008500	0,5	-0,102750
0,016833	0,5	-0,098550
0,025167	0,5	-0,072650
0,033500	0,5	-0,012500
0,041833	0,5	-0,027000
0,050167	0,5	-0,028450
0,058500	0,5	-0,022700
0,066833	0,5	-0,017950
0,075167	0,5	-0,023350
0,083500	0,5	-0,007700
0,091833	0,5	-0,008200
0,100167	0,5	-0,022600
0,108500	0,5	-0,014000
0,116833	0,5	-0,000950
0,125167	0,5	0,033350
0,133500	0,5	0,015450
0,141833	0,5	0,036800
0,150167	0,5	-0,009850
0,158500	0,5	-0,008650
0,166833	0,5	-0,011750
0,175167	0,5	0,013950
0,183500	0,5	0,062900
0,191833	0,5	0,045200
0,200167	0,5	0,022850
0,208500	0,5	0,021850
0,216833	0,5	0,009300
0,225167	0,5	0,019450
0,233500	0,5	0,005500
0,241833	0,5	0,001700
0,250167	0,5	-0,002000
0,258500	0,5	-0,002400
0,266833	0,5	0,019750
0,275167	0,5	0,007200
0,283500	0,5	0,031750
0,291833	0,5	0,023700
0,300167	0,5	0,007150
0,308500	0,5	0,007850
0,316833	0,5	0,012150
0,325167	0,5	0,016250
0,333500	0,5	0,041300
0,341833	0,5	0,021250
0,350167	0,5	0,031650
0,358500	0,5	0,016700
0,366833	0,5	0,016600
0,375167	0,5	0,007400
0,383500	0,5	0,017500
0,391833	0,5	0,014550
0,400167	0,5	0,009850
0,408500	0,5	0,013250
0,416833	0,5	0,008750
0,425167	0,5	0,003150
0,433500	0,5	0,031900
0,441833	0,5	0,001800
0,450167	0,5	-0,006350
0,458500	0,5	-0,006650
0,466833	0,5	0,026050
0,475167	0,5	0,062700
0,483500	0,5	0,064650
0,491833	0,5	0,068550
0,500167	0,5	0,056500
0,508500	0,5	0,055900
0,516833	0,5	0,037800
0,525167	0,5	0,038400
0,533500	0,5	0,030150
0,541833	0,5	0,034050
0,550167	0,5	0,032750
0,558500	0,5	0,042750
0,566833	0,5	0,042550
0,575167	0,5	0,061150
0,583500	0,5	0,058200
0,591833	0,5	0,043500
0,600167	0,5	0,044250
0,608500	0,5	0,044400
0,616833	0,5	0,067900
0,625167	0,5	0,090400
0,633500	0,5	0,100650
0,641833	0,5	0,080000
0,650167	0,5	0,089900
0,658500	0,5	0,081550
0,666833	0,5	0,090700
0,675167	0,5	0,086650
0,683500	0,5	0,085650
0,691833	0,5	0,077050
0,700167	0,5	0,089200
0,708500	0,5	0,102750
0,716833	0,5	0,110900
0,725167	0,5	0,133300
0,733500	0,5	0,124550
0,741833	0,5	0,098350
0,750167	0,5	0,107200
0,758500	0,5	0,113250
0,766833	0,5	0,152550
0,775167	0,5	0,169900
0,783500	0,5	0,154600
0,791833	0,5	0,156550
0,800167	0,5	0,164000
0,808500	0,5	0,159300
0,816833	0,5	0,150900
0,825167	0,5	0,158500
0,833500	0,5	0,153300
0,841833	0,5	0,159750
0,850167	0,5	0,165650
0,858500	0,5	0,182750
0,866833	0,5	0,166150
0,875167	0,5	0,218600
0,883500	0,5	0,181300
0,891833	0,5	0,183850
0,900167	0,5	0,182250
0,908500	0,5	0,209350
0,916833	0,5	0,252850
0,925167	0,5	0,241900
0,933500	0,5	0,228300
0,941833	0,5	0,240300
0,950167	0,5	0,240250
0,958500	0,5	0,245600
0,966833	0,5	0,252600
0,975167	0,5	0,257450
0,983500	0,5	0,257600
0,991833	0,5	0,257500
1,000167	0,5	0,278650
1,008500	0,5	0,275850
1,016833	0,5	0,284300
1,025167	0,5	0,310850
1,033500	0,5	0,291400
1,041833	0,5	0,290450
1,050167	0,5	0,298800
1,058500	0,5	0,322150
1,066833	0,5	0,370100
1,075167	0,5	0,353450
1,083500	0,5	0,357450
1,091833	0,5	0,363400
1,100167	0,5	0,368400
1,108500	0,5	0,375700
1,116833	0,5	0,389050
1,125167	0,5	0,384750
1,133500	0,5	0,387450
1,141833	0,5	0,398250
1,150167	0,5	0,424050
1,158500	0,5	0,424800
1,166833	0,5	0,451250
1,175167	0,5	0,461100
1,183500	0,5	0,440200
1,191833	0,5	0,449700
1,200167	0,5	0,461250
1,208500	0,5	0,514300
1,216833	0,5	0,541700
1,225167	0,5	0,532950
1,233500	0,5	0,533800
1,241833	0,5	0,551550
1,250167	0,5	0,550500
1,258500	0,5	0,561500
1,266833	0,5	0,570000
1,275167	0,5	0,583450
1,283500	0,5	0,589650
1,291833	0,5	0,598500
1,300167	0,5	0,616200
1,308500	0,5	0,614900
1,316833	0,5	0,651500
1,325167	0,5	0,646450
1,333500	0,5	0,648300
1,341833	0,5	0,648750
1,350167	0,5	0,673500
1,358500	0,5	0,708850
1,366833	0,5	0,737650
1,375167	0,5	0,721400
1,383500	0,5	0,741000
1,391833	0,5	0,744450
1,400167	0,5	0,756150
1,408500	0,5	0,756650
1,416833	0,5	0,780100
1,425167	0,5	0,770450
1,433500	0,5	0,782100
1,441833	0,5	0,791350
1,450167	0,5	0,793050
1,458500	0,5	0,792300
1,466833	0,5	0,819700
1,475167	0,5	0,803400
1,483500	0,5	0,802600
1,491833	0,5	0,804650
1,500167	0,5	0,830050
1,508500	0,5	0,866250
1,516833	0,5	0,880500
1,525167	0,5	0,876750
1,533500	0,5	0,869450
1,541833	0,5	0,866250
1,550167	0,5	0,852350
1,558500	0,5	0,829200
1,566833	0,5	0,644050
1,575167	0,5	0,016250
1,583500	0,5	-1,357700
1,591833	0,5	-2,685200
1,600167	0,5	-2,674500
1,608500	0,5	-0,972350
1,616833	0,5	0,919450
1,625167	0,5	2,434000
1,633500	0,5	3,961900
1,641833	0,5	5,231650
1,650167	0,5	5,621550
1,658500	0,5	5,133000
1,666833	0,5	4,371400
1,675167	0,5	3,735850
1,683500	0,5	3,264400
1,691833	0,5	2,895850
1,700167	0,5	2,640150
1,708500	0,5	2,520050
1,716833	0,5	2,623750
1,725167	0,5	2,910200
1,733500	0,5	3,105150
1,741833	0,5	2,933250
1,750167	0,5	2,548150
1,758500	0,5	2,186300
1,766833	0,5	1,891600
1,775167	0,5	1,688650
1,783500	0,5	1,607050
1,791833	0,5	1,616600
1,800167	0,5	1,737100
1,808500	0,5	1,805600
1,816833	0,5	1,835500
1,825167	0,5	1,831850
1,833500	0,5	1,813600
1,841833	0,5	1,777500
1,850167	0,5	1,760600
1,858500	0,5	1,723050
1,866833	0,5	1,653100
1,875167	0,5	1,593400
1,883500	0,5	1,538850
1,891833	0,5	1,515750
1,900167	0,5	1,499700
1,908500	0,5	1,493450
1,916833	0,5	1,408950
1,925167	0,5	1,339400
1,933500	0,5	1,303800
1,941833	0,5	1,348400
1,950167	0,5	1,442750
1,958500	0,5	1,490950
1,966833	0,5	1,474150
1,975167	0,5	1,463150
1,983500	0,5	1,439350
1,991833	0,5	1,435550
2,000167	0,5	1,440000
2,008500	0,5	1,507700
2,016833	0,5	1,700900
2,025167	0,5	2,222900
2,033500	0,5	3,224100
2,041833	0,5	4,581000
2,050167	0,5	6,408050
2,058500	0,5	9,974150
2,066833	0,5	17,762000
2,075167	0,5	29,225700
2,083500	0,5	37,339401
2,091833	0,5	36,582751
2,100167	0,5	29,715700
2,108500	0,5	22,141650
2,116833	0,5	16,502750
2,125167	0,5	12,795000
2,133500	0,5	10,474750
2,141833	0,5	8,973750
2,150167	0,5	7,971650
2,158500	0,5	7,224350
2,166833	0,5	6,660300
2,175167	0,5	6,244300
2,183500	0,5	5,946100
2,191833	0,5	5,723250
2,200167	0,5	5,621300
2,208500	0,5	5,557900
2,216833	0,5	5,538800
2,225167	0,5	5,552850
2,233500	0,5	5,603750
2,241833	0,5	5,704400
2,250167	0,5	5,791900
2,258500	0,5	5,863900
2,266833	0,5	5,923450
2,275167	0,5	6,008050
2,283500	0,5	6,094850
2,291833	0,5	6,199250
2,300167	0,5	6,301800
2,308500	0,5	6,416650
2,316833	0,5	6,533350
2,325167	0,5	6,666350
2,333500	0,5	6,798300
2,341833	0,5	6,929450
2,350167	0,5	7,084150
2,358500	0,5	7,222800
2,366833	0,5	7,359250
2,375167	0,5	7,502050
2,383500	0,5	7,655500
2,391833	0,5	7,826450
2,400167	0,5	7,972150
2,408500	0,5	8,097200
2,416833	0,5	8,251400
2,425167	0,5	8,400100
2,433500	0,5	8,556550
2,441833	0,5	8,706500
2,450167	0,5	8,856350
2,458500	0,5	8,962050
2,466833	0,5	9,053750
2,475167	0,5	9,095800
2,483500	0,5	9,101100
2,491833	0,5	9,102950
2,500167	0,5	9,159100
2,508500	0,5	9,193750
2,516833	0,5	9,252250
2,525167	0,5	9,303350
2,533500	0,5	9,373100
2,541833	0,5	9,444750
2,550167	0,5	9,470650
2,558500	0,5	9,479600
2,566833	0,5	9,496500
2,575167	0,5	9,490750
2,583500	0,5	9,481750
2,591833	0,5	9,465700
2,600167	0,5	9,443450
2,608500	0,5	9,417200
2,616833	0,5	9,391750
2,625167	0,5	9,355700
2,633500	0,5	9,297800
2,641833	0,5	9,273650
2,650167	0,5	9,223800
2,658500	0,5	9,159050
2,666833	0,5	9,093950
2,675167	0,5	9,034950
2,683500	0,5	8,998150
2,691833	0,5	8,957300
2,700167	0,5	8,892850
2,708500	0,5	8,845750
2,716833	0,5	8,801300
2,725167	0,5	8,785900
2,733500	0,5	8,789200
2,741833	0,5	8,857350
2,750167	0,5	9,029450
2,758500	0,5	9,385650
2,766833	0,5	9,982000
2,775167	0,5	10,723300
2,783500	0,5	11,418100
2,791833	0,5	11,811200
2,800167	0,5	11,709350
2,808500	0,5	11,227900
2,816833	0,5	10,638050
2,825167	0,5	10,139650
2,833500	0,5	9,935500
2,841833	0,5	10,070150
2,850167	0,5	10,616100
2,858500	0,5	11,447050
2,866833	0,5	12,304200
2,875167	0,5	12,777450
2,883500	0,5	12,653600
2,891833	0,5	11,935400
2,900167	0,5	10,884450
2,908500	0,5	9,798450
2,916833	0,5	8,854600
2,925167	0,5	8,108400
2,933500	0,5	7,525200
2,941833	0,5	7,070350
2,950167	0,5	6,663200
2,958500	0,5	6,327250
2,966833	0,5	6,036850
2,975167	0,5	5,796750
2,983500	0,5	5,583800
2,991833	0,5	5,374400
3,000167	0,5	5,169300
3,008500	0,5	4,994600
3,016833	0,5	4,818750
3,025167	0,5	4,663700
3,033500	0,5	4,508650
3,041833	0,5	4,371000
3,050167	0,5	4,230700
3,058500	0,5	4,111250
3,066833	0,5	4,008650
3,075167	0,5	3,883850
3,083500	0,5	3,793800
3,091833	0,5	3,685700
3,100167	0,5	3,555300
3,108500	0,5	3,425500
3,116833	0,5	3,306450
3,125167	0,5	3,208000
3,133500	0,5	3,107500
3,141833	0,5	2,983700
3,150167	0,5	2,885850
3,158500	0,5	2,786600
3,166833	0,5	2,699000
3,175167	0,5	2,598150
3,183500	0,5	2,515800
3,191833	0,5	2,418850
3,200167	0,5	2,346950
3,208500	0,5	2,276000
3,216833	0,5	2,205600
3,225167	0,5	2,113900
3,233500	0,5	2,068200
3,241833	0,5	1,971450
3,250167	0,5	1,891200
3,258500	0,5	1,811950
3,266833	0,5	1,759300
3,275167	0,5	1,720650
3,283500	0,5	1,652200
3,291833	0,5	1,583700
3,300167	0,5	1,518450
3,308500	0,5	1,468400
3,316833	0,5	1,404950
3,325167	0,5	1,356750
3,333500	0,5	1,306650
3,341833	0,5	1,257400
3,350167	0,5	1,204500
3,358500	0,5	1,164400
3,366833	0,5	1,125200
3,375167	0,5	1,076500
3,383500	0,5	1,053900
3,391833	0,5	0,997300
3,400167	0,5	0,947000
3,408500	0,5	0,909750
3,416833	0,5	0,885750
3,425167	0,5	0,884250
3,433500	0,5	0,850150
3,441833	0,5	0,809850
3,450167	0,5	0,778150
3,458500	0,5	0,746950
3,466833	0,5	0,721000
3,475167	0,5	0,703200
3,483500	0,5	0,678450
3,491833	0,5	0,651050
3,500167	0,5	0,638800
3,508500	0,5	0,624450
3,516833	0,5	0,629250
3,525167	0,5	0,622000
3,533500	0,5	0,625950
3,541833	0,5	0,596300
3,550167	0,5	0,593550
3,558500	0,5	0,584800
3,566833	0,5	0,607450
3,575167	0,5	0,633750
3,583500	0,5	0,637500
3,591833	0,5	0,619550
3,600167	0,5	0,621600
3,608500	0,5	0,606500
3,616833	0,5	0,588200
3,625167	0,5	0,565200
3,633500	0,5	0,531750
3,641833	0,5	0,499300
3,650167	0,5	0,466500
3,658500	0,5	0,448200
3,666833	0,5	0,402650
3,675167	0,5	0,399450
3,683500	0,5	0,377100
3,691833	0,5	0,345950
3,700167	0,5	0,327450
3,708500	0,5	0,325350
3,716833	0,5	0,331650
3,725167	0,5	0,345000
3,733500	0,5	0,329800
3,741833	0,5	0,336100
3,750167	0,5	0,337600
3,758500	0,5	0,347200
3,766833	0,5	0,370100
3,775167	0,5	0,411250
3,783500	0,5	0,468800
3,791833	0,5	0,544350
3,800167	0,5	0,624600
3,808500	0,5	0,689800
3,816833	0,5	0,745800
3,825167	0,5	0,787000
3,833500	0,5	0,767300
3,841833	0,5	0,722750
3,850167	0,5	0,669100
3,858500	0,5	0,614450
3,866833	0,5	0,572900
3,875167	0,5	0,514850
3,883500	0,5	0,477200
3,891833	0,5	0,432300
3,900167	0,5	0,413100
3,908500	0,5	0,372500
3,916833	0,5	0,358450
3,925167	0,5	0,334550
3,933500	0,5	0,329400
3,941833	0,5	0,320300
3,950167	0,5	0,322600
3,958500	0,5	0,308700
3,966833	0,5	0,320150
3,975167	0,5	0,322150
3,983500	0,5	0,315200
3,991833	0,5	0,316950
4,000167	0,5	0,330650
4,008500	0,5	0,363750
4,016833	0,5	0,396850
4,025167	0,5	0,418450
4,033500	0,5	0,433500
4,041833	0,5	0,459050
4,050167	0,5	0,470200
4,058500	0,5	0,487450
4,066833	0,5	0,480000
4,075167	0,5	0,475350
4,083500	0,5	0,448150
4,091833	0,5	0,435550
4,100167	0,5	0,421400
4,108500	0,5	0,400500
4,116833	0,5	0,398050
4,125167	0,5	0,381650
4,133500	0,5	0,362300
4,141833	0,5	0,352850
4,150167	0,5	0,353500
4,158500	0,5	0,377850
4,166833	0,5	0,384600
4,175167	0,5	0,366150
4,183500	0,5	0,368850
4,191833	0,5	0,373600
4,200167	0,5	0,381350
4,208500	0,5	0,375900
4,216833	0,5	0,383600
4,225167	0,5	0,386250
4,233500	0,5	0,392900
4,241833	0,5	0,401950
4,250167	0,5	0,429800
4,258500	0,5	0,437650
4,266833	0,5	0,496250
4,275167	0,5	0,502850
4,283500	0,5	0,539900
4,291833	0,5	0,586150
4,300167	0,5	0,660950
4,308500	0,5	0,765450
4,316833	0,5	0,841900
4,325167	0,5	0,916450
4,333500	0,5	1,027300
4,341833	0,5	1,150700
4,350167	0,5	1,294200
4,358500	0,5	1,468250
4,366833	0,5	1,678850
4,375167	0,5	1,931350
4,383500	0,5	2,227800
4,391833	0,5	2,558750
4,400167	0,5	2,904300
4,408500	0,5	3,275600
4,416833	0,5	3,657400
4,425167	0,5	3,963650
4,433500	0,5	4,223450
4,441833	0,5	4,392050
4,450167	0,5	4,449750
4,458500	0,5	4,399500
4,466833	0,5	4,189050
4,475167	0,5	3,903900
4,483500	0,5	3,552250
4,491833	0,5	3,181400
4,500167	0,5	2,815850
4,508500	0,5	2,493800
4,516833	0,5	2,226250
4,525167	0,5	1,998350
4,533500	0,5	1,850550
4,541833	0,5	1,743550
4,550167	0,5	1,676150
4,558500	0,5	1,652850
4,566833	0,5	1,661550
4,575167	0,5	1,693950
4,583500	0,5	1,798700
4,591833	0,5	1,963400
4,600167	0,5	2,227800
4,608500	0,5	2,568700
4,616833	0,5	2,988250
4,625167	0,5	3,480400
4,633500	0,5	4,040150
4,641833	0,5	4,593400
4,650167	0,5	5,110300
4,658500	0,5	5,517500
4,666833	0,5	5,766600
4,675167	0,5	5,832500
4,683500	0,5	5,708300
4,691833	0,5	5,423750
4,700167	0,5	5,006050
4,708500	0,5	4,528550
4,716833	0,5	4,021050
4,725167	0,5	3,522450
4,733500	0,5	3,090050
4,741833	0,5	2,726800
4,750167	0,5	2,433700
4,758500	0,5	2,208500
4,766833	0,5	1,997600
4,775167	0,5	1,849950
4,783500	0,5	1,719200
4,791833	0,5	1,623550
4,800167	0,5	1,542150
4,808500	0,5	1,486400
4,816833	0,5	1,427550
4,825167	0,5	1,381250
4,833500	0,5	1,355400
4,841833	0,5	1,314150
4,850167	0,5	1,290850
4,858500	0,5	1,289850
4,866833	0,5	1,259500
4,875167	0,5	1,246000
4,883500	0,5	1,233450
4,891833	0,5	1,240000
4,900167	0,5	1,258050
4,908500	0,5	1,254100
4,916833	0,5	1,255950
4,925167	0,5	1,257300
4,933500	0,5	1,264100
4,941833	0,5	1,254450
4,950167	0,5	1,261800
4,958500	0,5	1,264100
4,966833	0,5	1,272500
4,975167	0,5	1,278200
4,983500	0,5	1,283800
4,991833	0,5	1,276300
5,000167	0,5	1,302600
5,008500	0,5	1,305150
5,016833	0,5	1,300200
5,025167	0,5	1,295800
5,033500	0,5	1,314000
5,041833	0,5	1,341700
5,050167	0,5	1,364450
5,058500	0,5	1,364200
5,066833	0,5	1,364350
5,075167	0,5	1,369350
5,083500	0,5	1,373100
5,091833	0,5	1,377850
5,100167	0,5	1,387400
5,108500	0,5	1,392650
5,116833	0,5	1,395850
5,125167	0,5	1,407350
5,133500	0,5	1,408350
5,141833	0,5	1,422700
5,150167	0,5	1,447200
5,158500	0,5	1,439350
5,166833	0,5	1,435600
5,175167	0,5	1,444850
5,183500	0,5	1,450150
5,191833	0,5	1,482350
5,200167	0,5	1,484750
5,208500	0,5	1,487500
5,216833	0,5	1,492800
5,225167	0,5	1,497900
5,233500	0,5	1,493050
5,241833	0,5	1,502900
5,250167	0,5	1,500650
5,258500	0,5	1,501250
5,266833	0,5	1,501650
5,275167	0,5	1,499750
5,283500	0,5	1,512150
5,291833	0,5	1,502700
5,300167	0,5	1,527500
5,308500	0,5	1,508300
5,316833	0,5	1,510300
5,325167	0,5	1,507650
5,333500	0,5	1,521550
5,341833	0,5	1,541300
5,350167	0,5	1,543200
5,358500	0,5	1,535150
5,366833	0,5	1,542400
5,375167	0,5	1,535650
5,383500	0,5	1,542950
5,391833	0,5	1,540450
5,400167	0,5	1,542300
5,408500	0,5	1,542600
5,416833	0,5	1,555150
5,425167	0,5	1,563250
5,433500	0,5	1,559100
5,441833	0,5	1,560450
5,450167	0,5	1,580600
5,458500	0,5	1,562950
5,466833	0,5	1,560200
5,475167	0,5	1,563950
5,483500	0,5	1,566800
5,491833	0,5	1,582150
5,500167	0,5	1,563200
5,508500	0,5	1,559900
5,516833	0,5	1,553850
5,525167	0,5	1,554950
5,533500	0,5	1,540750
5,541833	0,5	1,548000
5,550167	0,5	1,535450
5,558500	0,5	1,535550
5,566833	0,5	1,530150
5,575167	0,5	1,528850
5,583500	0,5	1,519300
5,591833	0,5	1,521500
5,600167	0,5	1,517950
5,608500	0,5	1,508300
5,616833	0,5	1,502050
5,625167	0,5	1,501650
5,633500	0,5	1,517250
5,641833	0,5	1,531500
5,650167	0,5	1,524400
5,658500	0,5	1,517500
5,666833	0,5	1,518350
5,675167	0,5	1,510500
5,683500	0,5	1,504600
5,691833	0,5	1,494700
5,700167	0,5	1,487300
5,708500	0,5	1,479500
5,716833	0,5	1,471750
5,725167	0,5	1,460950
5,733500	0,5	1,451100
5,741833	0,5	1,442750
5,750167	0,5	1,429750
5,758500	0,5	1,411300
5,766833	0,5	1,405450
5,775167	0,5	1,400700
5,783500	0,5	1,409750
5,791833	0,5	1,403200
5,800167	0,5	1,387700
5,808500	0,5	1,375650
5,816833	0,5	1,368600
5,825167	0,5	1,353200
5,833500	0,5	1,339450
5,841833	0,5	1,330650
5,850167	0,5	1,315100
5,858500	0,5	1,302100
5,866833	0,5	1,290000
5,875167	0,5	1,286600
5,883500	0,5	1,278300
5,891833	0,5	1,270750
5,900167	0,5	1,253000
5,908500	0,5	1,237950
5,916833	0,5	1,223150
5,925167	0,5	1,230600
5,933500	0,5	1,229700
5,941833	0,5	1,223350
5,950167	0,5	1,215650
5,958500	0,5	1,216200
5,966833	0,5	1,207450
5,975167	0,5	1,200850
5,983500	0,5	1,191600
5,991833	0,5	1,181300
6,000167	0,5	1,170250
6,008500	0,5	1,164950
6,016833	0,5	1,157600
6,025167	0,5	1,139400
6,033500	0,5	1,147400
6,041833	0,5	1,130500
6,050167	0,5	1,116150
6,058500	0,5	1,103850
6,066833	0,5	1,101200
6,075167	0,5	1,107750
6,083500	0,5	1,112250
6,091833	0,5	1,098400
6,100167	0,5	1,092900
6,108500	0,5	1,086250
6,116833	0,5	1,076700
6,125167	0,5	1,074200
6,133500	0,5	1,064900
6,141833	0,5	1,067900
6,150167	0,5	1,056950
6,158500	0,5	1,055750
6,166833	0,5	1,044650
6,175167	0,5	1,038700
6,183500	0,5	1,047350
6,191833	0,5	1,041900
6,200167	0,5	1,035000
6,208500	0,5	1,035100
6,216833	0,5	1,039950
6,225167	0,5	1,059000
6,233500	0,5	1,057850
6,241833	0,5	1,058050
6,250167	0,5	1,053200
6,258500	0,5	1,055500
6,266833	0,5	1,050350
6,275167	0,5	1,049900
6,283500	0,5	1,051650
6,291833	0,5	1,050800
6,300167	0,5	1,048650
6,308500	0,5	1,056700
6,316833	0,5	1,061250
6,325167	0,5	1,060250
6,333500	0,5	1,076950
6,341833	0,5	1,072400
6,350167	0,5	1,071250
6,358500	0,5	1,075950
6,366833	0,5	1,088050
6,375167	0,5	1,111700
6,383500	0,5	1,118250
6,391833	0,5	1,118750
6,400167	0,5	1,124150
6,408500	0,5	1,120050
6,416833	0,5	1,120850
6,425167	0,5	1,121550
6,433500	0,5	1,130100
6,441833	0,5	1,126200
6,450167	0,5	1,135600
6,458500	0,5	1,144200
6,466833	0,5	1,147950
6,475167	0,5	1,162900
6,483500	0,5	1,179300
6,491833	0,5	1,189250
6,500167	0,5	1,209250
6,508500	0,5	1,234700
6,516833	0,5	1,272800
6,525167	0,5	1,318700
6,533500	0,5	1,343550
6,541833	0,5	1,391800
6,550167	0,5	1,448800
6,558500	0,5	1,529200
6,566833	0,5	1,625900
6,575167	0,5	1,750200
6,583500	0,5	1,885600
6,591833	0,5	2,059200
6,600167	0,5	2,242100
6,608500	0,5	2,450250
6,616833	0,5	2,665900
6,625167	0,5	2,922150
6,633500	0,5	3,171950
6,641833	0,5	3,401450
6,650167	0,5	3,589750
6,658500	0,5	3,724000
6,666833	0,5	3,763250
6,675167	0,5	3,697700
6,683500	0,5	3,536400
6,691833	0,5	3,327150
6,700167	0,5	3,108900
6,708500	0,5	2,899750
6,716833	0,5	2,735800
6,725167	0,5	2,623150
6,733500	0,5	2,576500
6,741833	0,5	2,601950
6,750167	0,5	2,721550
6,758500	0,5	2,933450
6,766833	0,5	3,290650
6,775167	0,5	3,811600
6,783500	0,5	4,458150
6,791833	0,5	5,225700
6,800167	0,5	6,030000
6,808500	0,5	6,773900
6,816833	0,5	7,322900
6,825167	0,5	7,574750
6,833500	0,5	7,494000
6,841833	0,5	7,112250
6,850167	0,5	6,526150
6,858500	0,5	5,828800
6,866833	0,5	5,119200
6,875167	0,5	4,476250
6,883500	0,5	3,929700
6,891833	0,5	3,493050
6,900167	0,5	3,151000
6,908500	0,5	2,889050
6,916833	0,5	2,691300
6,925167	0,5	2,539250
6,933500	0,5	2,406000
6,941833	0,5	2,310150
6,950167	0,5	2,232000
6,958500	0,5	2,185950
6,966833	0,5	2,149900
6,975167	0,5	2,114050
6,983500	0,5	2,079000
6,991833	0,5	2,059700
7,000167	0,5	2,038750
7,008500	0,5	2,024200
7,016833	0,5	2,011950
7,025167	0,5	1,999500
7,033500	0,5	1,989200
7,041833	0,5	1,987500
7,050167	0,5	1,977900
7,058500	0,5	1,974450
7,066833	0,5	1,987750
7,075167	0,5	1,988400
7,083500	0,5	1,979600
7,091833	0,5	1,981800
7,100167	0,5	1,986650
7,108500	0,5	2,000750
7,116833	0,5	2,008500
7,125167	0,5	2,002350
7,133500	0,5	2,002300
7,141833	0,5	1,989800
7,150167	0,5	1,986800
7,158500	0,5	1,979200
7,166833	0,5	1,976000
7,175167	0,5	1,971450
7,183500	0,5	1,965250
7,191833	0,5	1,965700
7,200167	0,5	1,960500
7,208500	0,5	1,948050
7,216833	0,5	1,960300
7,225167	0,5	1,956650
7,233500	0,5	1,946650
7,241833	0,5	1,951850
7,250167	0,5	1,955500
7,258500	0,5	1,972250
7,266833	0,5	1,968550
7,275167	0,5	1,976650
7,283500	0,5	1,978000
7,291833	0,5	1,984950
7,300167	0,5	1,976750
7,308500	0,5	1,972450
7,316833	0,5	1,960600
7,325167	0,5	1,955600
7,333500	0,5	1,947550
7,341833	0,5	1,953550
7,350167	0,5	1,969250
7,358500	0,5	2,016000
7,366833	0,5	2,093000
7,375167	0,5	2,195500
7,383500	0,5	2,342550
7,391833	0,5	2,536300
7,400167	0,5	2,775600
7,408500	0,5	3,053950
7,416833	0,5	3,343100
7,425167	0,5	3,653200
7,433500	0,5	4,008400
7,441833	0,5	4,430200
7,450167	0,5	4,982300
7,458500	0,5	5,792050
7,466833	0,5	7,050100
7,475167	0,5	9,017450
7,483500	0,5	11,978650
7,491833	0,5	16,058250
7,500167	0,5	21,090500
7,508500	0,5	26,435500
7,516833	0,5	31,162900
7,525167	0,5	34,269051
7,533500	0,5	35,127901
7,541833	0,5	33,601751
7,550167	0,5	30,093550
7,558500	0,5	25,420450
7,566833	0,5	20,507100
7,575167	0,5	16,069850
7,583500	0,5	12,472400
7,591833	0,5	9,747450
7,600167	0,5	7,777000
7,608500	0,5	6,396400
7,616833	0,5	5,418150
7,625167	0,5	4,721900
7,633500	0,5	4,219500
7,641833	0,5	3,853450
7,650167	0,5	3,562850
7,658500	0,5	3,351200
7,666833	0,5	3,172700
7,675167	0,5	3,025900
7,683500	0,5	2,910150
7,691833	0,5	2,816450
7,700167	0,5	2,741550
7,708500	0,5	2,669450
7,716833	0,5	2,605900
7,725167	0,5	2,551050
7,733500	0,5	2,497950
7,741833	0,5	2,453300
7,750167	0,5	2,412550
7,758500	0,5	2,374000
7,766833	0,5	2,342600
7,775167	0,5	2,307900
7,783500	0,5	2,282600
7,791833	0,5	2,256900
7,800167	0,5	2,234000
7,808500	0,5	2,215100
7,816833	0,5	2,194200
7,825167	0,5	2,178250
7,833500	0,5	2,167650
7,841833	0,5	2,161400
7,850167	0,5	2,157700
7,858500	0,5	2,156100
7,866833	0,5	2,151900
7,875167	0,5	2,143350
7,883500	0,5	2,137450
7,891833	0,5	2,137150
7,900167	0,5	2,135600
7,908500	0,5	2,140200
7,916833	0,5	2,160550
7,925167	0,5	2,193400
7,933500	0,5	2,243650
7,941833	0,5	2,304100
7,950167	0,5	2,389800
7,958500	0,5	2,481500
7,966833	0,5	2,565900
7,975167	0,5	2,655650
7,983500	0,5	2,771950
7,991833	0,5	2,943100
8,000167	0,5	3,169000
8,008500	0,5	3,426750
8,016833	0,5	3,651850
8,025167	0,5	3,787900
8,033500	0,5	3,797100
8,041833	0,5	3,700650
8,050167	0,5	3,576450
8,058500	0,5	3,515900
8,066833	0,5	3,608650
8,075167	0,5	3,952500
8,083500	0,5	4,596800
8,091833	0,5	5,520300
8,100167	0,5	6,561150
8,108500	0,5	7,435550
8,116833	0,5	7,854400
8,125167	0,5	7,700400
8,133500	0,5	7,045400
8,141833	0,5	6,132150
8,150167	0,5	5,186800
8,158500	0,5	4,382250
8,166833	0,5	3,774300
8,175167	0,5	3,350900
8,183500	0,5	3,057100
8,191833	0,5	2,850300
8,200167	0,5	2,702450
8,208500	0,5	2,580550
8,216833	0,5	2,492650
8,225167	0,5	2,419950
8,233500	0,5	2,364100
8,241833	0,5	2,314200
8,250167	0,5	2,284900
8,258500	0,5	2,266300
8,266833	0,5	2,258050
8,275167	0,5	2,272100
8,283500	0,5	2,303550
8,291833	0,5	2,348650
8,300167	0,5	2,387700
8,308500	0,5	2,413650
8,316833	0,5	2,411850
8,325167	0,5	2,375950
8,333500	0,5	2,320400
8,341833	0,5	2,257900
8,350167	0,5	2,186700
8,358500	0,5	2,131400
8,366833	0,5	2,088700
8,375167	0,5	2,057500
8,383500	0,5	2,030250
8,391833	0,5	2,009700
8,400167	0,5	1,994250
8,408500	0,5	1,974650
8,416833	0,5	1,951400
8,425167	0,5	1,938250
8,433500	0,5	1,930650
8,441833	0,5	1,930850
8,450167	0,5	1,924850
8,458500	0,5	1,916600
8,466833	0,5	1,919000
8,475167	0,5	1,914600
8,483500	0,5	1,908350
8,491833	0,5	1,901500
8,500167	0,5	1,895900
8,508500	0,5	1,882000
8,516833	0,5	1,874550
8,525167	0,5	1,863850
8,533500	0,5	1,855050
8,541833	0,5	1,854950
8,550167	0,5	1,850650
8,558500	0,5	1,849550
8,566833	0,5	1,851800
8,575167	0,5	1,860800
8,583500	0,5	1,876100
8,591833	0,5	1,890600
8,600167	0,5	1,894550
8,608500	0,5	1,897550
8,616833	0,5	1,900400
8,625167	0,5	1,911800
8,633500	0,5	1,927200
8,641833	0,5	1,947750
8,650167	0,5	1,960900
8,658500	0,5	1,960300
8,666833	0,5	1,943950
8,675167	0,5	1,922700
8,683500	0,5	1,897600
8,691833	0,5	1,879900
8,700167	0,5	1,876100
8,708500	0,5	1,898400
8,716833	0,5	1,961350
8,725167	0,5	2,092050
8,733500	0,5	2,312350
8,741833	0,5	2,643100
8,750167	0,5	3,089450
8,758500	0,5	3,660950
8,766833	0,5	4,350150
8,775167	0,5	5,159600
8,783500	0,5	6,123750
8,791833	0,5	7,353500
8,800167	0,5	9,097650
8,808500	0,5	11,822450
8,816833	0,5	16,217600
8,825167	0,5	23,022150
8,833500	0,5	32,605050
8,841833	0,5	44,414951
8,850167	0,5	56,678651
8,858500	0,5	67,004451
8,866833	0,5	73,191301
8,875167	0,5	74,040051
8,883500	0,5	69,665401
8,891833	0,5	61,315201
8,900167	0,5	50,967651
8,908500	0,5	40,511501
8,916833	0,5	31,282000
8,925167	0,5	23,926550
8,933500	0,5	18,509750
8,941833	0,5	14,743100
8,950167	0,5	12,196200
8,958500	0,5	10,447150
8,966833	0,5	9,182300
8,975167	0,5	8,221950
8,983500	0,5	7,566100
8,991833	0,5	7,259400
9,000167	0,5	7,394150
9,008500	0,5	7,986800
9,016833	0,5	8,904600
9,025167	0,5	9,838400
9,033500	0,5	10,422300
9,041833	0,5	10,374300
9,050167	0,5	9,677800
9,058500	0,5	8,529700
9,066833	0,5	7,258250
9,075167	0,5	6,089850
9,083500	0,5	5,160750
9,091833	0,5	4,477300
9,100167	0,5	3,990650
9,108500	0,5	3,646950
9,116833	0,5	3,389200
9,125167	0,5	3,187250
9,133500	0,5	3,028200
9,141833	0,5	2,896400
9,150167	0,5	2,766250
9,158500	0,5	2,659650
9,166833	0,5	2,562250
9,175167	0,5	2,477650
9,183500	0,5	2,401400
9,191833	0,5	2,331500
9,200167	0,5	2,268150
9,208500	0,5	2,213700
9,216833	0,5	2,162150
9,225167	0,5	2,111750
9,233500	0,5	2,071150
9,241833	0,5	2,030450
9,250167	0,5	1,991900
9,258500	0,5	1,967900
9,266833	0,5	1,938400
9,275167	0,5	1,908350
9,283500	0,5	1,894550
9,291833	0,5	1,876800
9,300167	0,5	1,857250
9,308500	0,5	1,845550
9,316833	0,5	1,848750
9,325167	0,5	1,865100
9,333500	0,5	1,889300
9,341833	0,5	1,916650
9,350167	0,5	1,935100
9,358500	0,5	1,938100
9,366833	0,5	1,921600
9,375167	0,5	1,883200
9,383500	0,5	1,830250
9,391833	0,5	1,777550
9,400167	0,5	1,738300
9,408500	0,5	1,677050
9,416833	0,5	1,639150
9,425167	0,5	1,604350
9,433500	0,5	1,580200
9,441833	0,5	1,560450
9,450167	0,5	1,534900
9,458500	0,5	1,516550
9,466833	0,5	1,502450
9,475167	0,5	1,491100
9,483500	0,5	1,478450
9,491833	0,5	1,467600
9,500167	0,5	1,453800
9,508500	0,5	1,442300
9,516833	0,5	1,423200
9,525167	0,5	1,396950
9,533500	0,5	1,390000
9,541833	0,5	1,385400
9,550167	0,5	1,374000
9,558500	0,5	1,365400
9,566833	0,5	1,361300
9,575167	0,5	1,357150
9,583500	0,5	1,357050
9,591833	0,5	1,351450
9,600167	0,5	1,348700
9,608500	0,5	1,345350
9,616833	0,5	1,347050
9,625167	0,5	1,349150
9,633500	0,5	1,343950
9,641833	0,5	1,340700
9,650167	0,5	1,329250
9,658500	0,5	1,323600
9,666833	0,5	1,312000
9,675167	0,5	1,308750
9,683500	0,5	1,300900
9,691833	0,5	1,293700
9,700167	0,5	1,291200
9,708500	0,5	1,287600
9,716833	0,5	1,285950
9,725167	0,5	1,284750
9,733500	0,5	1,283900
9,741833	0,5	1,279700
9,750167	0,5	1,282800
9,758500	0,5	1,288600
9,766833	0,5	1,291050
9,775167	0,5	1,297150
9,783500	0,5	1,302800
9,791833	0,5	1,312350
9,800167	0,5	1,330700
9,808500	0,5	1,346500
9,816833	0,5	1,382800
9,825167	0,5	1,426900
9,833500	0,5	1,502150
9,841833	0,5	1,613750
9,850167	0,5	1,767800
9,858500	0,5	1,985850
9,866833	0,5	2,249250
9,875167	0,5	2,571600
9,883500	0,5	2,961900
9,891833	0,5	3,425700
9,900167	0,5	4,013150
9,908500	0,5	4,816800
9,916833	0,5	6,022350
9,925167	0,5	7,879550
9,933500	0,5	10,718500
9,941833	0,5	14,780400
9,950167	0,5	20,004600
9,958500	0,5	25,892150
9,966833	0,5	31,499300
9,975167	0,5	35,734201
9,983500	0,5	37,746401
9,991833	0,5	37,203601
10,000167	0,5	34,347701
10,008500	0,5	29,887550
10,016833	0,5	24,706400
10,025167	0,5	19,601800
10,033500	0,5	15,122800
10,041833	0,5	11,536350
10,050167	0,5	8,854500
10,058500	0,5	6,927500
10,066833	0,5	5,583900
10,075167	0,5	4,641450
10,083500	0,5	3,965800
10,091833	0,5	3,480550
10,100167	0,5	3,120250
10,108500	0,5	2,840400
10,116833	0,5	2,626050
10,125167	0,5	2,459800
10,133500	0,5	2,319350
10,141833	0,5	2,208800
10,150167	0,5	2,118400
10,158500	0,5	2,044800
10,166833	0,5	1,987900
10,175167	0,5	1,936800
10,183500	0,5	1,894500
10,191833	0,5	1,859450
10,200167	0,5	1,831100
10,208500	0,5	1,807150
10,216833	0,5	1,790700
10,225167	0,5	1,779700
10,233500	0,5	1,772900
10,241833	0,5	1,777600
10,250167	0,5	1,792350
10,258500	0,5	1,811350
10,266833	0,5	1,833250
10,275167	0,5	1,864450
10,283500	0,5	1,879550
10,291833	0,5	1,889100
10,300167	0,5	1,871150
10,308500	0,5	1,840550
10,316833	0,5	1,804550
10,325167	0,5	1,755100
10,333500	0,5	1,702250
10,341833	0,5	1,652050
10,350167	0,5	1,598750
10,358500	0,5	1,564600
10,366833	0,5	1,521400
10,375167	0,5	1,483400
10,383500	0,5	1,444050
10,391833	0,5	1,417150
10,400167	0,5	1,381650
10,408500	0,5	1,350200
10,416833	0,5	1,330350
10,425167	0,5	1,303500
10,433500	0,5	1,286350
10,441833	0,5	1,265050
10,450167	0,5	1,254300
10,458500	0,5	1,235050
10,466833	0,5	1,232800
10,475167	0,5	1,223400
10,483500	0,5	1,217900
10,491833	0,5	1,210650
10,500167	0,5	1,211450
10,508500	0,5	1,226600
10,516833	0,5	1,234150
10,525167	0,5	1,244200
10,533500	0,5	1,253450
10,541833	0,5	1,262400
10,550167	0,5	1,269650
10,558500	0,5	1,277650
10,566833	0,5	1,281200
10,575167	0,5	1,280950
10,583500	0,5	1,279950
10,591833	0,5	1,275650
10,600167	0,5	1,259900
10,608500	0,5	1,241700
10,616833	0,5	1,227050
10,625167	0,5	1,211650
10,633500	0,5	1,190850
10,641833	0,5	1,175250
10,650167	0,5	1,170550
10,658500	0,5	1,167400
10,666833	0,5	1,160450
10,675167	0,5	1,158900
10,683500	0,5	1,156850
10,691833	0,5	1,157650
10,700167	0,5	1,152300
10,708500	0,5	1,152550
10,716833	0,5	1,150150
10,725167	0,5	1,151350
10,733500	0,5	1,148400
10,741833	0,5	1,149850
10,750167	0,5	1,148550
10,758500	0,5	1,165500
10,766833	0,5	1,180800
10,775167	0,5	1,211850
10,783500	0,5	1,268700
10,791833	0,5	1,352750
10,800167	0,5	1,491450
10,808500	0,5	1,681700
10,816833	0,5	1,936100
10,825167	0,5	2,238800
10,833500	0,5	2,621650
10,841833	0,5	3,076100
10,850167	0,5	3,638300
10,858500	0,5	4,399450
10,866833	0,5	5,512200
10,875167	0,5	7,228350
10,883500	0,5	9,853900
10,891833	0,5	13,675100
10,900167	0,5	18,713550
10,908500	0,5	24,610750
10,916833	0,5	30,516950
10,925167	0,5	35,339551
10,933500	0,5	38,089051
10,941833	0,5	38,256251
10,950167	0,5	35,924001
10,958500	0,5	31,700650
10,966833	0,5	26,504300
10,975167	0,5	21,210200
10,983500	0,5	16,460900
10,991833	0,5	12,584200
11,000167	0,5	9,635400
11,008500	0,5	7,492250
11,016833	0,5	5,973600
11,025167	0,5	4,904400
11,033500	0,5	4,141000
11,041833	0,5	3,579500
11,050167	0,5	3,166100
11,058500	0,5	2,854050
11,066833	0,5	2,600700
11,075167	0,5	2,409100
11,083500	0,5	2,250000
11,091833	0,5	2,120600
11,100167	0,5	2,023700
11,108500	0,5	1,940300
11,116833	0,5	1,877300
11,125167	0,5	1,816400
11,133500	0,5	1,766350
11,141833	0,5	1,716400
11,150167	0,5	1,682900
11,158500	0,5	1,645350
11,166833	0,5	1,620450
11,175167	0,5	1,602150
11,183500	0,5	1,591850
11,191833	0,5	1,584100
11,200167	0,5	1,589450
11,208500	0,5	1,597650
11,216833	0,5	1,599350
11,225167	0,5	1,600450
11,233500	0,5	1,593750
11,241833	0,5	1,592000
11,250167	0,5	1,592450
11,258500	0,5	1,580650
11,266833	0,5	1,574500
11,275167	0,5	1,557800
11,283500	0,5	1,544150
11,291833	0,5	1,527250
11,300167	0,5	1,512150
11,308500	0,5	1,497750
11,316833	0,5	1,483700
11,325167	0,5	1,471900
11,333500	0,5	1,446600
11,341833	0,5	1,426900
11,350167	0,5	1,412350
11,358500	0,5	1,386200
11,366833	0,5	1,355100
11,375167	0,5	1,329700
11,383500	0,5	1,294650
11,391833	0,5	1,274900
11,400167	0,5	1,253150
11,408500	0,5	1,230500
11,416833	0,5	1,211800
11,425167	0,5	1,193250
11,433500	0,5	1,178850
11,441833	0,5	1,167500
11,450167	0,5	1,161600
11,458500	0,5	1,157350
11,466833	0,5	1,162650
11,475167	0,5	1,172250
11,483500	0,5	1,185150
11,491833	0,5	1,212000
11,500167	0,5	1,246850
11,508500	0,5	1,279600
11,516833	0,5	1,318100
11,525167	0,5	1,346900
11,533500	0,5	1,380900
11,541833	0,5	1,415350
11,550167	0,5	1,447400
11,558500	0,5	1,467000
11,566833	0,5	1,503200
11,575167	0,5	1,539500
11,583500	0,5	1,583250
11,591833	0,5	1,651650
11,600167	0,5	1,749000
11,608500	0,5	1,882800
11,616833	0,5	2,047400
11,625167	0,5	2,265850
11,633500	0,5	2,532700
11,641833	0,5	2,899600
11,650167	0,5	3,412800
11,658500	0,5	4,180400
11,666833	0,5	5,364700
11,675167	0,5	7,163150
11,683500	0,5	9,705300
11,691833	0,5	12,969050
11,700167	0,5	16,655650
11,708500	0,5	20,221950
11,716833	0,5	22,989500
11,725167	0,5	24,394050
11,733500	0,5	24,168600
11,741833	0,5	22,433900
11,750167	0,5	19,622900
11,758500	0,5	16,296200
11,766833	0,5	13,008450
11,775167	0,5	10,113950
11,783500	0,5	7,776600
11,791833	0,5	6,037100
11,800167	0,5	4,778550
11,808500	0,5	3,900300
11,816833	0,5	3,295250
11,825167	0,5	2,864350
11,833500	0,5	2,576700
11,841833	0,5	2,368450
11,850167	0,5	2,208900
11,858500	0,5	2,086500
11,866833	0,5	1,989300
11,875167	0,5	1,903400
11,883500	0,5	1,828050
11,891833	0,5	1,765100
11,900167	0,5	1,705650
11,908500	0,5	1,652850
11,916833	0,5	1,606150
11,925167	0,5	1,565450
11,933500	0,5	1,520650
11,941833	0,5	1,491400
11,950167	0,5	1,465850
11,958500	0,5	1,446350
11,966833	0,5	1,420850
11,975167	0,5	1,408400
11,983500	0,5	1,408250
11,991833	0,5	1,416350
12,000167	0,5	1,419400
12,008500	0,5	1,417750
12,016833	0,5	1,414000
12,025167	0,5	1,414800
12,033500	0,5	1,407350
12,041833	0,5	1,400000
12,050167	0,5	1,388050
12,058500	0,5	1,379150
12,066833	0,5	1,370550
12,075167	0,5	1,371000
12,083500	0,5	1,366750
12,091833	0,5	1,372850
12,100167	0,5	1,375600
12,108500	0,5	1,371700
12,116833	0,5	1,368650
12,125167	0,5	1,370150
12,133500	0,5	1,379400
12,141833	0,5	1,391550
12,150167	0,5	1,398750
12,158500	0,5	1,399550
12,166833	0,5	1,412300
12,175167	0,5	1,417900
12,183500	0,5	1,423400
12,191833	0,5	1,420900
12,200167	0,5	1,413950
12,208500	0,5	1,397300
12,216833	0,5	1,386150
12,225167	0,5	1,356950
12,233500	0,5	1,344050
12,241833	0,5	1,329350
12,250167	0,5	1,314700
12,258500	0,5	1,299350
12,266833	0,5	1,282450
12,275167	0,5	1,280950
12,283500	0,5	1,281700
12,291833	0,5	1,272400
12,300167	0,5	1,283350
12,308500	0,5	1,295600
12,316833	0,5	1,312100
12,325167	0,5	1,331550
12,333500	0,5	1,364550
12,341833	0,5	1,396850
12,350167	0,5	1,433950
12,358500	0,5	1,483050
12,366833	0,5	1,514950
12,375167	0,5	1,561300
12,383500	0,5	1,605400
12,391833	0,5	1,647850
12,400167	0,5	1,694850
12,408500	0,5	1,731200
12,416833	0,5	1,764550
12,425167	0,5	1,790250
12,433500	0,5	1,796450
12,441833	0,5	1,787750
12,450167	0,5	1,759750
12,458500	0,5	1,715600
12,466833	0,5	1,661250
12,475167	0,5	1,605500
12,483500	0,5	1,540600
12,491833	0,5	1,478850
12,500167	0,5	1,415750
12,508500	0,5	1,364700
12,516833	0,5	1,315900
12,525167	0,5	1,288000
12,533500	0,5	1,269350
12,541833	0,5	1,265050
12,550167	0,5	1,268350
12,558500	0,5	1,280200
12,566833	0,5	1,311150
12,575167	0,5	1,357500
12,583500	0,5	1,404100
12,591833	0,5	1,455900
12,600167	0,5	1,502350
12,608500	0,5	1,538950
12,616833	0,5	1,565200
12,625167	0,5	1,572100
12,633500	0,5	1,550950
12,641833	0,5	1,514950
12,650167	0,5	1,458050
12,658500	0,5	1,395100
12,666833	0,5	1,317000
12,675167	0,5	1,252200
12,683500	0,5	1,190300
12,691833	0,5	1,131900
12,700167	0,5	1,076150
12,708500	0,5	1,032000
12,716833	0,5	0,994250
12,725167	0,5	0,970700
12,733500	0,5	0,937700
12,741833	0,5	0,917250
12,750167	0,5	0,901250
12,758500	0,5	0,891100
12,766833	0,5	0,877300
12,775167	0,5	0,870650
12,783500	0,5	0,874600
12,791833	0,5	0,872950
12,800167	0,5	0,882850
12,808500	0,5	0,889150
12,816833	0,5	0,890950
12,825167	0,5	0,915700
12,833500	0,5	0,924000
12,841833	0,5	0,932900
12,850167	0,5	0,942600
12,858500	0,5	0,942150
12,866833	0,5	0,946750
12,875167	0,5	0,931100
12,883500	0,5	0,906850
12,891833	0,5	0,881850
12,900167	0,5	0,859350
12,908500	0,5	0,836700
12,916833	0,5	0,825750
12,925167	0,5	0,821900
12,933500	0,5	0,833850
12,941833	0,5	0,862050
12,950167	0,5	0,897250
12,958500	0,5	0,923100
12,966833	0,5	0,945950
12,975167	0,5	0,948300
12,983500	0,5	0,928700
12,991833	0,5	0,883100
13,000167	0,5	0,834100
13,008500	0,5	0,783550
13,016833	0,5	0,750050
13,025167	0,5	0,726250
13,033500	0,5	0,694950
13,041833	0,5	0,679900
13,050167	0,5	0,672450
13,058500	0,5	0,661500
13,066833	0,5	0,659700
13,075167	0,5	0,671650
13,083500	0,5	0,682150
13,091833	0,5	0,703950
13,100167	0,5	0,732000
13,108500	0,5	0,763450
13,116833	0,5	0,802950
13,125167	0,5	0,834650
13,133500	0,5	0,847050
13,141833	0,5	0,852900
13,150167	0,5	0,840000
13,158500	0,5	0,833550
13,166833	0,5	0,826900
13,175167	0,5	0,805150
13,183500	0,5	0,787650
13,191833	0,5	0,770550
13,200167	0,5	0,740750
13,208500	0,5	0,720100
13,216833	0,5	0,714200
13,225167	0,5	0,715400
13,233500	0,5	0,725200
13,241833	0,5	0,745350
13,250167	0,5	0,763350
13,258500	0,5	0,769300
13,266833	0,5	0,791600
13,275167	0,5	0,791100
13,283500	0,5	0,803650
13,291833	0,5	0,819700
13,300167	0,5	0,858900
13,308500	0,5	0,926600
13,316833	0,5	1,002600
13,325167	0,5	1,057850
13,333500	0,5	1,094000
13,341833	0,5	1,090350
13,350167	0,5	1,054100
13,358500	0,5	0,990450
13,366833	0,5	0,923700
13,375167	0,5	0,865450
13,383500	0,5	0,814850
13,391833	0,5	0,790200
13,400167	0,5	0,773100
13,408500	0,5	0,785200
13,416833	0,5	0,810300
13,425167	0,5	0,848450
13,433500	0,5	0,905050
13,441833	0,5	0,974100
13,450167	0,5	1,052550
13,458500	0,5	1,133250
13,466833	0,5	1,177900
13,475167	0,5	1,192400
13,483500	0,5	1,156600
13,491833	0,5	1,090050
13,500167	0,5	0,998850
13,508500	0,5	0,915050
13,516833	0,5	0,831350
13,525167	0,5	0,764400
13,533500	0,5	0,713650
13,541833	0,5	0,672800
13,550167	0,5	0,620000
13,558500	0,5	0,591000
13,566833	0,5	0,567700
13,575167	0,5	0,546950
13,583500	0,5	0,527050
13,591833	0,5	0,504900
13,600167	0,5	0,504800
13,608500	0,5	0,504050
13,616833	0,5	0,507250
13,625167	0,5	0,494800
13,633500	0,5	0,496900
13,641833	0,5	0,494400
13,650167	0,5	0,500100
13,658500	0,5	0,501100
13,666833	0,5	0,505600
13,675167	0,5	0,504750
13,683500	0,5	0,515250
13,691833	0,5	0,512300
13,700167	0,5	0,501100
13,708500	0,5	0,509850
13,716833	0,5	0,504750
13,725167	0,5	0,496950
13,733500	0,5	0,487600
13,741833	0,5	0,493300
13,750167	0,5	0,510750
13,758500	0,5	0,543900
13,766833	0,5	0,561250
13,775167	0,5	0,589650
13,783500	0,5	0,608550
13,791833	0,5	0,637000
13,800167	0,5	0,649600
13,808500	0,5	0,666450
13,816833	0,5	0,670250
13,825167	0,5	0,657300
13,833500	0,5	0,654500
13,841833	0,5	0,635850
13,850167	0,5	0,621000
13,858500	0,5	0,627700
13,866833	0,5	0,640900
13,875167	0,5	0,642900
13,883500	0,5	0,645700
13,891833	0,5	0,654400
13,900167	0,5	0,665200
13,908500	0,5	0,667050
13,916833	0,5	0,661600
13,925167	0,5	0,655650
13,933500	0,5	0,658150
13,941833	0,5	0,637000
13,950167	0,5	0,617750
13,958500	0,5	0,589600
13,966833	0,5	0,575500
13,975167	0,5	0,576200
13,983500	0,5	0,620700
13,991833	0,5	0,666650
14,000167	0,5	0,765800
14,008500	0,5	0,879700
14,016833	0,5	0,985100
14,025167	0,5	1,046300
14,033500	0,5	1,049900
14,041833	0,5	1,031650
14,050167	0,5	0,971250
14,058500	0,5	0,901750
14,066833	0,5	0,834950
14,075167	0,5	0,790500
14,083500	0,5	0,768750
14,091833	0,5	0,782500
14,100167	0,5	0,826450
14,108500	0,5	0,905900
14,116833	0,5	0,998350
14,125167	0,5	1,101600
14,133500	0,5	1,165450
14,141833	0,5	1,180850
14,150167	0,5	1,157700
14,158500	0,5	1,072200
14,166833	0,5	0,968950
14,175167	0,5	0,868350
14,183500	0,5	0,771650
14,191833	0,5	0,725550
14,200167	0,5	0,686500
14,208500	0,5	0,647750
14,216833	0,5	0,621550
14,225167	0,5	0,590100
14,233500	0,5	0,560600
14,241833	0,5	0,525650
14,250167	0,5	0,499250
14,258500	0,5	0,477950
14,266833	0,5	0,459950
14,275167	0,5	0,454800
14,283500	0,5	0,442400
14,291833	0,5	0,432950
14,300167	0,5	0,452350
14,308500	0,5	0,448150
14,316833	0,5	0,452250
14,325167	0,5	0,435750
14,333500	0,5	0,437200
14,341833	0,5	0,452600
14,350167	0,5	0,463500
14,358500	0,5	0,473350
14,366833	0,5	0,480250
14,375167	0,5	0,482150
14,383500	0,5	0,469150
14,391833	0,5	0,455400
14,400167	0,5	0,435800
14,408500	0,5	0,419200
14,416833	0,5	0,397350
14,425167	0,5	0,378800
14,433500	0,5	0,351750
14,441833	0,5	0,340300
14,450167	0,5	0,330900
14,458500	0,5	0,318100
14,466833	0,5	0,296450
14,475167	0,5	0,284700
14,483500	0,5	0,274450
14,491833	0,5	0,281350
14,500167	0,5	0,285200
14,508500	0,5	0,297750
14,516833	0,5	0,296250
14,525167	0,5	0,297650
14,533500	0,5	0,296850
14,541833	0,5	0,292400
14,550167	0,5	0,301500
14,558500	0,5	0,315000
14,566833	0,5	0,367250
14,575167	0,5	0,436750
14,583500	0,5	0,528700
14,591833	0,5	0,664900
14,600167	0,5	0,784750
14,608500	0,5	0,867500
14,616833	0,5	0,893250
14,625167	0,5	0,859050
14,633500	0,5	0,797250
14,641833	0,5	0,714600
14,650167	0,5	0,644650
14,658500	0,5	0,590500
14,666833	0,5	0,593000
14,675167	0,5	0,639800
14,683500	0,5	0,722850
14,691833	0,5	0,822750
14,700167	0,5	0,904800
14,708500	0,5	0,944450
14,716833	0,5	0,932250
14,725167	0,5	0,845950
14,733500	0,5	0,749700
14,741833	0,5	0,647600
14,750167	0,5	0,556750
14,758500	0,5	0,475900
14,766833	0,5	0,395250
14,775167	0,5	0,356600
14,783500	0,5	0,331000
14,791833	0,5	0,316350
14,800167	0,5	0,291750
14,808500	0,5	0,283750
14,816833	0,5	0,283000
14,825167	0,5	0,292550
14,833500	0,5	0,301450
14,841833	0,5	0,309850
14,850167	0,5	0,311050
14,858500	0,5	0,300300
14,866833	0,5	0,291100
14,875167	0,5	0,260600
14,883500	0,5	0,261700
14,891833	0,5	0,251750
14,900167	0,5	0,246200
14,908500	0,5	0,229800
14,916833	0,5	0,204700
14,925167	0,5	0,194900
14,933500	0,5	0,181400
14,941833	0,5	0,145100
14,950167	0,5	0,122500
14,958500	0,5	0,100750
14,966833	0,5	0,083500
14,975167	0,5	0,066600
14,983500	0,5	0,063800
14,991833	0,5	0,056250
15,000167	0,5	0,048500
15,008500	0,5	0,045750
15,016833	0,5	0,047800
15,025167	0,5	0,032850
15,033500	0,5	0,049900
15,041833	0,5	0,050100
15,050167	0,5	0,048750
15,058500	0,5	0,046300
15,066833	0,5	0,048350
15,075167	0,5	0,091200
15,083500	0,5	0,152600
15,091833	0,5	0,251600
15,100167	0,5	0,383300
15,108500	0,5	0,519800
15,116833	0,5	0,618600
15,125167	0,5	0,683500
15,133500	0,5	0,674750
15,141833	0,5	0,618650
15,150167	0,5	0,557300
15,158500	0,5	0,508500
15,166833	0,5	0,505900
15,175167	0,5	0,547850
15,183500	0,5	0,636950
15,191833	0,5	0,728050
15,200167	0,5	0,780100
15,208500	0,5	0,758250
15,216833	0,5	0,690200
15,225167	0,5	0,592950
15,233500	0,5	0,499600
15,241833	0,5	0,411450
15,250167	0,5	0,356750
15,258500	0,5	0,320000
15,266833	0,5	0,303550
15,275167	0,5	0,286350
15,283500	0,5	0,280000
15,291833	0,5	0,272700
15,300167	0,5	0,279200
15,308500	0,5	0,287050
15,316833	0,5	0,285900
15,325167	0,5	0,294700
15,333500	0,5	0,314750
15,341833	0,5	0,317500
15,350167	0,5	0,306350
15,358500	0,5	0,276350
15,366833	0,5	0,254650
15,375167	0,5	0,229800
15,383500	0,5	0,201200
15,391833	0,5	0,165850
15,400167	0,5	0,141000
15,408500	0,5	0,117900
15,416833	0,5	0,107650
15,425167	0,5	0,105000
15,433500	0,5	0,092650
15,441833	0,5	0,095350
15,450167	0,5	0,086150
15,458500	0,5	0,071700
15,466833	0,5	0,038350
15,475167	0,5	0,014300
15,483500	0,5	-0,023150
15,491833	0,5	-0,059200
15,500167	0,5	-0,099450
15,508500	0,5	-0,118300
15,516833	0,5	-0,113850
15,525167	0,5	-0,079200
15,533500	0,5	-0,029150
15,541833	0,5	0,083050
15,550167	0,5	0,232900
15,558500	0,5	0,395750
15,566833	0,5	0,539250
15,575167	0,5	0,631800
15,583500	0,5	0,651750
15,591833	0,5	0,626850
15,600167	0,5	0,583600
15,608500	0,5	0,541150
15,616833	0,5	0,561800
15,625167	0,5	0,610550
15,633500	0,5	0,653400
15,641833	0,5	0,666200
15,650167	0,5	0,616150
15,658500	0,5	0,533650
15,666833	0,5	0,431100
15,675167	0,5	0,308050
15,683500	0,5	0,207000
15,691833	0,5	0,119550
15,700167	0,5	0,058400
15,708500	0,5	0,005850
15,716833	0,5	-0,013200
15,725167	0,5	-0,025500
15,733500	0,5	-0,030900
15,741833	0,5	-0,029650
15,750167	0,5	-0,012700
15,758500	0,5	-0,005400
15,766833	0,5	0,023700
15,775167	0,5	0,038600
15,783500	0,5	0,023050
15,791833	0,5	0,005200
15,800167	0,5	-0,051200
15,808500	0,5	-0,073000
15,816833	0,5	-0,120900
15,825167	0,5	-0,158700
15,833500	0,5	-0,203950
15,841833	0,5	-0,227100
15,850167	0,5	-0,268350
15,858500	0,5	-0,285800
15,866833	0,5	-0,303800
15,875167	0,5	-0,318500
15,883500	0,5	-0,328600
15,891833	0,5	-0,342600
15,900167	0,5	-0,358450
15,908500	0,5	-0,369950
15,916833	0,5	-0,349700
15,925167	0,5	-0,329250
15,933500	0,5	-0,296650
15,941833	0,5	-0,234650
15,950167	0,5	-0,134750
15,958500	0,5	0,014200
15,966833	0,5	0,173500
15,975167	0,5	0,287200
15,983500	0,5	0,371250
15,991833	0,5	0,398150
16,000167	0,5	0,402800
16,008500	0,5	0,417950
16,016833	0,5	0,452000
16,025167	0,5	0,491850
16,033500	0,5	0,507250
16,041833	0,5	0,495000
16,050167	0,5	0,410050
16,058500	0,5	0,300500
16,066833	0,5	0,197400
16,075167	0,5	0,089200
16,083500	0,5	-0,004600
16,091833	0,5	-0,086200
16,100167	0,5	-0,134800
16,108500	0,5	-0,149800
16,116833	0,5	-0,173400
16,125167	0,5	-0,182950
16,133500	0,5	-0,185200
16,141833	0,5	-0,182300
16,150167	0,5	-0,197200
16,158500	0,5	-0,202000
16,166833	0,5	-0,213350
16,175167	0,5	-0,232300
16,183500	0,5	-0,245600
16,191833	0,5	-0,257500
16,200167	0,5	-0,289650
16,208500	0,5	-0,302850
16,216833	0,5	-0,321800
16,225167	0,5	-0,340000
16,233500	0,5	-0,375300
16,241833	0,5	-0,410100
16,250167	0,5	-0,420750
16,258500	0,5	-0,444700
16,266833	0,5	-0,446200
16,275167	0,5	-0,458100
16,283500	0,5	-0,455750
16,291833	0,5	-0,440950
16,300167	0,5	-0,398500
16,308500	0,5	-0,342150
16,316833	0,5	-0,229300
16,325167	0,5	-0,091550
16,333500	0,5	0,071200
16,341833	0,5	0,203450
16,350167	0,5	0,293550
16,358500	0,5	0,353800
16,366833	0,5	0,360100
16,375167	0,5	0,368500
16,383500	0,5	0,365050
16,391833	0,5	0,350400
16,400167	0,5	0,331900
16,408500	0,5	0,273150
16,416833	0,5	0,177650
16,425167	0,5	0,082100
16,433500	0,5	-0,012800
16,441833	0,5	-0,082450
16,450167	0,5	-0,122700
16,458500	0,5	-0,139800
16,466833	0,5	-0,155700
16,475167	0,5	-0,154050
16,483500	0,5	-0,144300
16,491833	0,5	-0,151000
16,500167	0,5	-0,147950
16,508500	0,5	-0,136300
16,516833	0,5	-0,143950
16,525167	0,5	-0,146750
16,533500	0,5	-0,162550
16,541833	0,5	-0,164000
16,550167	0,5	-0,149300
16,558500	0,5	-0,121050
16,566833	0,5	-0,104200
16,575167	0,5	-0,075050
16,583500	0,5	-0,041000
16,591833	0,5	-0,027550
16,600167	0,5	-0,010800
16,608500	0,5	-0,005000
16,616833	0,5	-0,007250
16,625167	0,5	-0,013950
16,633500	0,5	0,005600
16,641833	0,5	0,029300
16,650167	0,5	0,107650
16,658500	0,5	0,190200
16,666833	0,5	0,272100
16,675167	0,5	0,315000
16,683500	0,5	0,336500
16,691833	0,5	0,348850
16,700167	0,5	0,350400
16,708500	0,5	0,341850
16,716833	0,5	0,310250
16,725167	0,5	0,263850
16,733500	0,5	0,189050
16,741833	0,5	0,092200
16,750167	0,5	-0,004200
16,758500	0,5	-0,091050
16,766833	0,5	-0,159500
16,775167	0,5	-0,199300
16,783500	0,5	-0,254700
16,791833	0,5	-0,276150
16,800167	0,5	-0,290900
16,808500	0,5	-0,291750
16,816833	0,5	-0,312000
16,825167	0,5	-0,343800
16,833500	0,5	-0,367750
16,841833	0,5	-0,371650
16,850167	0,5	-0,393650
16,858500	0,5	-0,414450
16,866833	0,5	-0,434600
16,875167	0,5	-0,450850
16,883500	0,5	-0,477800
16,891833	0,5	-0,490900
16,900167	0,5	-0,491800
16,908500	0,5	-0,497650
16,916833	0,5	-0,478500
16,925167	0,5	-0,452000
16,933500	0,5	-0,420150
16,941833	0,5	-0,334200
16,950167	0,5	-0,230700
16,958500	0,5	-0,120050
16,966833	0,5	-0,009350
16,975167	0,5	0,051200
16,983500	0,5	0,128650
16,991833	0,5	0,173600
17,000167	0,5	0,213150
17,008500	0,5	0,226200
17,016833	0,5	0,227050
17,025167	0,5	0,200600
17,033500	0,5	0,171900
17,041833	0,5	0,151950
17,050167	0,5	0,165750
17,058500	0,5	0,210100
17,066833	0,5	0,293100
17,075167	0,5	0,432000
17,083500	0,5	0,596650
17,091833	0,5	0,834650
17,100167	0,5	1,083250
17,108500	0,5	1,350500
17,116833	0,5	1,594050
17,125167	0,5	1,796500
17,133500	0,5	1,960300
17,141833	0,5	2,059750
17,150167	0,5	2,061650
17,158500	0,5	2,008650
17,166833	0,5	1,873500
17,175167	0,5	1,709300
17,183500	0,5	1,516450
17,191833	0,5	1,331700
17,200167	0,5	1,147400
17,208500	0,5	1,009750
17,216833	0,5	0,920550
17,225167	0,5	0,863550
17,233500	0,5	0,816950
17,241833	0,5	0,803700
17,250167	0,5	0,763400
17,258500	0,5	0,712700
17,266833	0,5	0,646400
17,275167	0,5	0,566500
17,283500	0,5	0,506200
17,291833	0,5	0,413800
17,300167	0,5	0,321200
17,308500	0,5	0,240600
17,316833	0,5	0,178050
17,325167	0,5	0,126750
17,333500	0,5	0,097550
17,341833	0,5	0,074300
17,350167	0,5	0,060650
17,358500	0,5	0,070800
17,366833	0,5	0,083550
17,375167	0,5	0,097300
17,383500	0,5	0,149700
17,391833	0,5	0,220800
17,400167	0,5	0,289350
17,408500	0,5	0,358350
17,416833	0,5	0,422900
17,425167	0,5	0,492750
17,433500	0,5	0,543650
17,441833	0,5	0,570400
17,450167	0,5	0,570500
17,458500	0,5	0,570450
17,466833	0,5	0,566400
17,475167	0,5	0,561500
17,483500	0,5	0,539750
17,491833	0,5	0,519250
17,500167	0,5	0,476050
17,508500	0,5	0,427750
17,516833	0,5	0,355700
17,525167	0,5	0,270800
17,533500	0,5	0,191750
17,541833	0,5	0,092250
17,550167	0,5	-0,008500
17,558500	0,5	-0,105900
17,566833	0,5	-0,183100
17,575167	0,5	-0,237500
17,583500	0,5	-0,273350
17,591833	0,5	-0,302050
17,600167	0,5	-0,335900
17,608500	0,5	-0,365200
17,616833	0,5	-0,395150
17,625167	0,5	-0,427000
17,633500	0,5	-0,435150
17,641833	0,5	-0,454300
17,650167	0,5	-0,468450
17,658500	0,5	-0,487200
17,666833	0,5	-0,502100
17,675167	0,5	-0,492900
17,683500	0,5	-0,472500
17,691833	0,5	-0,442900
17,700167	0,5	-0,389700
17,708500	0,5	-0,358050
17,716833	0,5	-0,307550
17,725167	0,5	-0,251550
17,733500	0,5	-0,212400
17,741833	0,5	-0,197900
17,750167	0,5	-0,204350
17,758500	0,5	-0,237750
17,766833	0,5	-0,280900
17,775167	0,5	-0,318800
17,783500	0,5	-0,362850
17,791833	0,5	-0,396300
17,800167	0,5	-0,412000
17,808500	0,5	-0,433400
17,816833	0,5	-0,480950
17,825167	0,5	-0,481000
17,833500	0,5	-0,493050
17,841833	0,5	-0,509900
17,850167	0,5	-0,532650
17,858500	0,5	-0,565950
17,866833	0,5	-0,561700
17,875167	0,5	-0,558200
17,883500	0,5	-0,560300
17,891833	0,5	-0,544450
17,900167	0,5	-0,512650
17,908500	0,5	-0,471150
17,916833	0,5	-0,416000
17,925167	0,5	-0,368850
17,933500	0,5	-0,332300
17,941833	0,5	-0,318700
17,950167	0,5	-0,317700
17,958500	0,5	-0,358500
17,966833	0,5	-0,400650
17,975167	0,5	-0,434450
17,983500	0,5	-0,471250
17,991833	0,5	-0,511600
18,000167	0,5	-0,555400
18,008500	0,5	-0,588150
18,016833	0,5	-0,594150
18,025167	0,5	-0,623150
18,033500	0,5	-0,639800
18,041833	0,5	-0,654850
18,050167	0,5	-0,652950
18,058500	0,5	-0,664200
18,066833	0,5	-0,667650
18,075167	0,5	-0,655250
18,083500	0,5	-0,644550
18,091833	0,5	-0,610900
18,100167	0,5	-0,567500
18,108500	0,5	-0,526850
18,116833	0,5	-0,475950
18,125167	0,5	-0,437950
18,133500	0,5	-0,431450
18,141833	0,5	-0,445700
18,150167	0,5	-0,486850
18,158500	0,5	-0,528600
18,166833	0,5	-0,555900
18,175167	0,5	-0,583650
18,183500	0,5	-0,618200
18,191833	0,5	-0,630400
18,200167	0,5	-0,648500
18,208500	0,5	-0,654900
18,216833	0,5	-0,674000
18,225167	0,5	-0,686850
18,233500	0,5	-0,711200
18,241833	0,5	-0,712750
18,250167	0,5	-0,697900
18,258500	0,5	-0,712000
18,266833	0,5	-0,672400
18,275167	0,5	-0,651450
18,283500	0,5	-0,621700
18,291833	0,5	-0,610950
18,300167	0,5	-0,616700
18,308500	0,5	-0,605800
18,316833	0,5	-0,601700
18,325167	0,5	-0,635950
18,333500	0,5	-0,658950
18,341833	0,5	-0,695450
18,350167	0,5	-0,718850
18,358500	0,5	-0,743550
18,366833	0,5	-0,747200
18,375167	0,5	-0,757950
18,383500	0,5	-0,775350
18,391833	0,5	-0,771300
18,400167	0,5	-0,777300
18,408500	0,5	-0,788550
18,416833	0,5	-0,772750
18,425167	0,5	-0,776600
18,433500	0,5	-0,770250
18,441833	0,5	-0,781500
18,450167	0,5	-0,783550
18,458500	0,5	-0,742500
18,466833	0,5	-0,729250
18,475167	0,5	-0,722700
18,483500	0,5	-0,726800
18,491833	0,5	-0,737650
18,500167	0,5	-0,767550
18,508500	0,5	-0,798300
18,516833	0,5	-0,821700
18,525167	0,5	-0,846450
18,533500	0,5	-0,857050
18,541833	0,5	-0,861600
18,550167	0,5	-0,883850
18,558500	0,5	-0,881900
18,566833	0,5	-0,877950
18,575167	0,5	-0,888400
18,583500	0,5	-0,901950
18,591833	0,5	-0,912900
18,600167	0,5	-0,895600
18,608500	0,5	-0,875300
18,616833	0,5	-0,837250
18,625167	0,5	-0,825950
18,633500	0,5	-0,810750
18,641833	0,5	-0,833850
18,650167	0,5	-0,851900
18,658500	0,5	-0,872450
18,666833	0,5	-0,882850
18,675167	0,5	-0,893850
18,683500	0,5	-0,891350
18,691833	0,5	-0,894750
18,700167	0,5	-0,899050
18,708500	0,5	-0,882600
18,716833	0,5	-0,866850
18,725167	0,5	-0,851200
18,733500	0,5	-0,843650
18,741833	0,5	-0,836850
18,750167	0,5	-0,814950
18,758500	0,5	-0,792600
18,766833	0,5	-0,802550
18,775167	0,5	-0,811400
18,783500	0,5	-0,844650
18,791833	0,5	-0,880550
18,800167	0,5	-0,927550
18,808500	0,5	-0,959050
18,816833	0,5	-0,996200
18,825167	0,5	-1,018650
18,833500	0,5	-1,031300
18,841833	0,5	-1,048450
18,850167	0,5	-1,043400
18,858500	0,5	-1,033400
18,866833	0,5	-1,024350
18,875167	0,5	-1,019150
18,883500	0,5	-1,035050
18,891833	0,5	-1,034850
18,900167	0,5	-1,031300
18,908500	0,5	-1,050050
18,916833	0,5	-1,084900
18,925167	0,5	-1,096250
18,933500	0,5	-1,108950
18,941833	0,5	-1,141300
18,950167	0,5	-1,145300
18,958500	0,5	-1,161600
18,966833	0,5	-1,164750
18,975167	0,5	-1,158150
18,983500	0,5	-1,142450
18,991833	0,5	-1,162150
19,000167	0,5	-1,132700
19,008500	0,5	-1,133350
19,016833	0,5	-1,130050
19,025167	0,5	-1,154900
19,033500	0,5	-1,190300
19,041833	0,5	-1,178050
19,050167	0,5	-1,169450
19,058500	0,5	-1,176900
19,066833	0,5	-1,194500
19,075167	0,5	-1,189400
19,083500	0,5	-1,197450
19,091833	0,5	-1,199800
19,100167	0,5	-1,202400
19,108500	0,5	-1,208250
19,116833	0,5	-1,210400
19,125167	0,5	-1,212050
19,133500	0,5	-1,233000
19,141833	0,5	-1,257000
19,150167	0,5	-1,262800
19,158500	0,5	-1,273550
19,166833	0,5	-1,300300
19,175167	0,5	-1,321900
19,183500	0,5	-1,344650
19,191833	0,5	-1,333350
19,200167	0,5	-1,333400
19,208500	0,5	-1,341500
19,216833	0,5	-1,347950
19,225167	0,5	-1,360500
19,233500	0,5	-1,377900
19,241833	0,5	-1,389450
19,250167	0,5	-1,389000
19,258500	0,5	-1,406550
19,266833	0,5	-1,413650
19,275167	0,5	-1,416600
19,283500	0,5	-1,432600
19,291833	0,5	-1,432350
19,300167	0,5	-1,422750
19,308500	0,5	-1,428650
19,316833	0,5	-1,444500
19,325167	0,5	-1,478350
19,333500	0,5	-1,492500
19,341833	0,5	-1,492850
19,350167	0,5	-1,510950
19,358500	0,5	-1,527750
19,366833	0,5	-1,530550
19,375167	0,5	-1,560150
19,383500	0,5	-1,562550
19,391833	0,5	-1,562600
19,400167	0,5	-1,566000
19,408500	0,5	-1,573200
19,416833	0,5	-1,570300
19,425167	0,5	-1,573550
19,433500	0,5	-1,606400
19,441833	0,5	-1,594400
19,450167	0,5	-1,608000
19,458500	0,5	-1,598800
19,466833	0,5	-1,627250
19,475167	0,5	-1,648200
19,483500	0,5	-1,653950
19,491833	0,5	-1,647450
19,500167	0,5	-1,660400
19,508500	0,5	-1,667000
19,516833	0,5	-1,667800
19,525167	0,5	-1,669000
19,533500	0,5	-1,668700
19,541833	0,5	-1,676950
19,550167	0,5	-1,695400
19,558500	0,5	-1,707650
19,566833	0,5	-1,704050
19,575167	0,5	-1,715250
19,583500	0,5	-1,734600
19,591833	0,5	-1,730350
19,600167	0,5	-1,740350
19,608500	0,5	-1,764000
19,616833	0,5	-1,788400
19,625167	0,5	-1,814250
19,633500	0,5	-1,806750
19,641833	0,5	-1,818550
19,650167	0,5	-1,811350
19,658500	0,5	-1,821850
19,666833	0,5	-1,822850
19,675167	0,5	-1,829650
19,683500	0,5	-1,835650
19,691833	0,5	-1,848600
19,700167	0,5	-1,855100
19,708500	0,5	-1,860500
19,716833	0,5	-1,865500
19,725167	0,5	-1,886150
19,733500	0,5	-1,898300
19,741833	0,5	-1,906600
19,750167	0,5	-1,934950
19,758500	0,5	-1,963950
19,766833	0,5	-2,002350
19,775167	0,5	-2,021050
19,783500	0,5	-2,039900
19,791833	0,5	-2,055450
19,800167	0,5	-2,075050
19,808500	0,5	-2,083100
19,816833	0,5	-2,100800
19,825167	0,5	-2,114750
19,833500	0,5	-2,122450
19,841833	0,5	-2,134300
19,850167	0,5	-2,146750
19,858500	0,5	-2,149250
19,866833	0,5	-2,157350
19,875167	0,5	-2,168000
19,883500	0,5	-2,173750
19,891833	0,5	-2,178200
19,900167	0,5	-2,198900
19,908500	0,5	-2,233300
19,916833	0,5	-2,233400
19,925167	0,5	-2,241550
19,933500	0,5	-2,233450
19,941833	0,5	-2,239950
19,950167	0,5	-2,242750
19,958500	0,5	-2,252500
19,966833	0,5	-2,255700
19,975167	0,5	-2,266850
19,983500	0,5	-2,280500
19,991833	0,5	-2,303700
20,000167	0,5	-2,325800
20,008500	0,5	-2,333450
20,016833	0,5	-2,369750
20,025167	0,5	-2,383850
20,033500	0,5	-2,396000
20,041833	0,5	-2,420200
20,050167	0,5	-2,446050
20,058500	0,5	-2,483750
20,066833	0,5	-2,500650
20,075167	0,5	-2,497200
20,083500	0,5	-2,526300
20,091833	0,5	-2,540250
20,100167	0,5	-2,560900
20,108500	0,5	-2,568550
20,116833	0,5	-2,589050
20,125167	0,5	-2,595000
20,133500	0,5	-2,609550
20,141833	0,5	-2,613150
20,150167	0,5	-2,614250
20,158500	0,5	-2,609750
20,166833	0,5	-2,637350
20,175167	0,5	-2,621300
20,183500	0,5	-2,624200
20,191833	0,5	-2,633150
20,200167	0,5	-2,639200
20,208500	0,5	-2,674350
20,216833	0,5	-2,659600
20,225167	0,5	-2,679000
20,233500	0,5	-2,689100
20,241833	0,5	-2,713950
20,250167	0,5	-2,722000
20,258500	0,5	-2,746850
20,266833	0,5	-2,757950
20,275167	0,5	-2,774850
20,283500	0,5	-2,785950
20,291833	0,5	-2,795000
20,300167	0,5	-2,798550
20,308500	0,5	-2,818900
20,316833	0,5	-2,847950
20,325167	0,5	-2,859100
20,333500	0,5	-2,883150
20,341833	0,5	-2,910050
20,350167	0,5	-2,961250
20,358500	0,5	-2,993600
20,366833	0,5	-3,012750
20,375167	0,5	-3,025750
20,383500	0,5	-3,048750
20,391833	0,5	-3,060800
20,400167	0,5	-3,087100
20,408500	0,5	-3,100600
20,416833	0,5	-3,142200
20,425167	0,5	-3,159250
20,433500	0,5	-3,181200
20,441833	0,5	-3,188100
20,450167	0,5	-3,191300
20,458500	0,5	-3,220450
20,466833	0,5	-3,232100
20,475167	0,5	-3,260350
20,483500	0,5	-3,285350
20,491833	0,5	-3,315250
20,500167	0,5	-3,351250
20,508500	0,5	-3,360950
20,516833	0,5	-3,338150
20,525167	0,5	-3,326300
20,533500	0,5	-3,306800
20,541833	0,5	-3,314350
20,550167	0,5	-3,330150
20,558500	0,5	-3,368600
20,566833	0,5	-3,417450
20,575167	0,5	-3,479050
20,583500	0,5	-3,538250
20,591833	0,5	-3,571800
20,600167	0,5	-3,611450
20,608500	0,5	-3,663900
20,616833	0,5	-3,694000
20,625167	0,5	-3,744650
20,633500	0,5	-3,789300
20,641833	0,5	-3,844000
20,650167	0,5	-3,901600
20,658500	0,5	-3,919450
20,666833	0,5	-3,955650
20,675167	0,5	-3,966150
20,683500	0,5	-3,973300
20,691833	0,5	-3,948500
20,700167	0,5	-3,927500
20,708500	0,5	-3,889700
20,716833	0,5	-3,866900
20,725167	0,5	-3,879550
20,733500	0,5	-3,907200
20,741833	0,5	-3,950450
20,750167	0,5	-4,048950
20,758500	0,5	-4,136750
20,766833	0,5	-4,213200
20,775167	0,5	-4,299150
20,783500	0,5	-4,377850
20,791833	0,5	-4,476800
20,800167	0,5	-4,538850
20,808500	0,5	-4,596200
20,816833	0,5	-4,636050
20,825167	0,5	-4,689800
20,833500	0,5	-4,740400
20,841833	0,5	-4,795500
20,850167	0,5	-4,829050
20,858500	0,5	-4,867900
20,866833	0,5	-4,899050
20,875167	0,5	-4,930350
20,883500	0,5	-4,934900
20,891833	0,5	-4,961900
20,900167	0,5	-5,010450
20,908500	0,5	-5,067950
20,916833	0,5	-5,129300
20,925167	0,5	-5,199450
20,933500	0,5	-5,275100
20,941833	0,5	-5,343150
20,950167	0,5	-5,382250
20,958500	0,5	-5,426600
20,966833	0,5	-5,478850
20,975167	0,5	-5,512800
20,983500	0,5	-5,555200
20,991833	0,5	-5,598050
21,000167	0,5	-5,645100
21,008500	0,5	-5,675950
21,016833	0,5	-5,722850
21,025167	0,5	-5,744500
21,033500	0,5	-5,756200
21,041833	0,5	-5,796850
21,050167	0,5	-5,828400
21,058500	0,5	-5,866350
21,066833	0,5	-5,908050
21,075167	0,5	-5,960600
21,083500	0,5	-6,029750
21,091833	0,5	-6,078250
21,100167	0,5	-6,104250
21,108500	0,5	-6,153850
21,116833	0,5	-6,184700
21,125167	0,5	-6,227250
21,133500	0,5	-6,257650
21,141833	0,5	-6,291250
21,150167	0,5	-6,328300
21,158500	0,5	-6,360850
21,166833	0,5	-6,393600
21,175167	0,5	-6,395350
21,183500	0,5	-6,396300
21,191833	0,5	-6,429000
21,200167	0,5	-6,456650
21,208500	0,5	-6,488900
21,216833	0,5	-6,522750
21,225167	0,5	-6,564600
21,233500	0,5	-6,614700
21,241833	0,5	-6,610850
21,250167	0,5	-6,641500
21,258500	0,5	-6,662250
21,266833	0,5	-6,674200
21,275167	0,5	-6,677700
21,283500	0,5	-6,701800
21,291833	0,5	-6,708450
21,300167	0,5	-6,726900
21,308500	0,5	-6,758800
21,316833	0,5	-6,781300
21,325167	0,5	-6,781700
21,333500	0,5	-6,789200
21,341833	0,5	-6,821800
21,350167	0,5	-6,845250
21,358500	0,5	-6,895300
21,366833	0,5	-6,927100
21,375167	0,5	-6,973100
21,383500	0,5	-6,989200
21,391833	0,5	-7,004150
21,400167	0,5	-7,030200
21,408500	0,5	-7,046050
21,416833	0,5	-7,056250
21,425167	0,5	-7,076900
21,433500	0,5	-7,083850
21,441833	0,5	-7,115050
21,450167	0,5	-7,121700
21,458500	0,5	-7,154200
21,466833	0,5	-7,153500
21,475167	0,5	-7,159200
21,483500	0,5	-7,181950
21,491833	0,5	-7,193200
21,500167	0,5	-7,226850
21,508500	0,5	-7,253400
21,516833	0,5	-7,303700
21,525167	0,5	-7,339600
21,533500	0,5	-7,352100
21,541833	0,5	-7,353450
21,550167	0,5	-7,385200
21,558500	0,5	-7,401050
21,566833	0,5	-7,427550
21,575167	0,5	-7,432850
21,583500	0,5	-7,442000
21,591833	0,5	-7,440200
21,600167	0,5	-7,463150
21,608500	0,5	-7,459800
21,616833	0,5	-7,442400
21,625167	0,5	-7,433550
21,633500	0,5	-7,449250
21,641833	0,5	-7,436600
21,650167	0,5	-7,450450
21,658500	0,5	-7,464750
21,666833	0,5	-7,483250
21,675167	0,5	-7,518950
21,683500	0,5	-7,520150
21,691833	0,5	-7,553000
21,700167	0,5	-7,568700
21,708500	0,5	-7,583500
21,716833	0,5	-7,595300
21,725167	0,5	-7,612500
21,733500	0,5	-7,618500
21,741833	0,5	-7,643950
21,750167	0,5	-7,653950
21,758500	0,5	-7,654100
21,766833	0,5	-7,653200
21,775167	0,5	-7,683950
21,783500	0,5	-7,687650
21,791833	0,5	-7,702650
21,800167	0,5	-7,711900
21,808500	0,5	-7,746200
21,816833	0,5	-7,772550
21,825167	0,5	-7,774100
21,833500	0,5	-7,781300
21,841833	0,5	-7,775500
21,850167	0,5	-7,793650
21,858500	0,5	-7,781400
21,866833	0,5	-7,801300
21,875167	0,5	-7,800350
21,883500	0,5	-7,809250
21,891833	0,5	-7,806750
21,900167	0,5	-7,804800
21,908500	0,5	-7,751400
21,916833	0,5	-7,717200
21,925167	0,5	-7,636150
21,933500	0,5	-7,588500
21,941833	0,5	-7,569650
21,950167	0,5	-7,606950
21,958500	0,5	-7,684750
21,966833	0,5	-7,747600
21,975167	0,5	-7,816150
21,983500	0,5	-7,866400
21,991833	0,5	-7,925750
22,000167	0,5	-7,971300
22,008500	0,5	-8,008750
22,016833	0,5	-8,044350
22,025167	0,5	-8,093150
22,033500	0,5	-8,120600
22,041833	0,5	-8,171700
22,050167	0,5	-8,199500
22,058500	0,5	-8,229000
22,066833	0,5	-8,269900
22,075167	0,5	-8,280400
22,083500	0,5	-8,291050
22,091833	0,5	-8,324300
22,100167	0,5	-8,364850
22,108500	0,5	-8,401650
22,116833	0,5	-8,419900
22,125167	0,5	-8,428750
22,133500	0,5	-8,460300
22,141833	0,5	-8,474050
22,150167	0,5	-8,487350
22,158500	0,5	-8,502350
22,166833	0,5	-8,527350
22,175167	0,5	-8,536700
22,183500	0,5	-8,555100
22,191833	0,5	-8,577800
22,200167	0,5	-8,605200
22,208500	0,5	-8,625950
22,216833	0,5	-8,620300
22,225167	0,5	-8,625850
22,233500	0,5	-8,628600
22,241833	0,5	-8,636850
22,250167	0,5	-8,661100
22,258500	0,5	-8,658700
22,266833	0,5	-8,639900
22,275167	0,5	-8,658650
22,283500	0,5	-8,648150
22,291833	0,5	-8,646750
22,300167	0,5	-8,637700
22,308500	0,5	-8,638050
22,316833	0,5	-8,620000
22,325167	0,5	-8,612450
22,333500	0,5	-8,576650
22,341833	0,5	-8,554450
22,350167	0,5	-8,467100
22,358500	0,5	-8,351100
22,366833	0,5	-8,205600
22,375167	0,5	-8,153550
22,383500	0,5	-8,171100
22,391833	0,5	-8,245950
22,400167	0,5	-8,362600
22,408500	0,5	-8,414600
22,416833	0,5	-8,462250
22,425167	0,5	-8,508050
22,433500	0,5	-8,536100
22,441833	0,5	-8,556000
22,450167	0,5	-8,582900
22,458500	0,5	-8,595850
22,466833	0,5	-8,616550
22,475167	0,5	-8,623250
22,483500	0,5	-8,636750
22,491833	0,5	-8,679400
22,500167	0,5	-8,679950
22,508500	0,5	-8,646100
22,516833	0,5	-8,614000
22,525167	0,5	-8,603900
22,533500	0,5	-8,590800
22,541833	0,5	-8,592900
22,550167	0,5	-8,579450
22,558500	0,5	-8,549950
22,566833	0,5	-8,536100
22,575167	0,5	-8,536950
22,583500	0,5	-8,525300
22,591833	0,5	-8,530650
22,600167	0,5	-8,538300
22,608500	0,5	-8,535700
22,616833	0,5	-8,529400
22,625167	0,5	-8,547650
22,633500	0,5	-8,585000
22,641833	0,5	-8,615100
22,650167	0,5	-8,601050
22,658500	0,5	-8,583700
22,666833	0,5	-8,583200
22,675167	0,5	-8,604850
22,683500	0,5	-8,624300
22,691833	0,5	-8,658950
22,700167	0,5	-8,678750
22,708500	0,5	-8,689800
22,716833	0,5	-8,710550
22,725167	0,5	-8,709400
22,733500	0,5	-8,717850
22,741833	0,5	-8,739800
22,750167	0,5	-8,742150
22,758500	0,5	-8,752350
22,766833	0,5	-8,767350
22,775167	0,5	-8,784750
22,783500	0,5	-8,895350
22,791833	0,5	-8,884200
22,800167	0,5	-8,878900
22,808500	0,5	-8,876650
22,816833	0,5	-8,902200
22,825167	0,5	-8,922000
22,833500	0,5	-8,943200
22,841833	0,5	-8,962350
22,850167	0,5	-8,989000
22,858500	0,5	-8,989100
22,866833	0,5	-9,022600
22,875167	0,5	-9,021800
22,883500	0,5	-9,029800
22,891833	0,5	-9,018800
22,900167	0,5	-9,011600
22,908500	0,5	-8,989300
22,916833	0,5	-8,976250
22,925167	0,5	-8,936700
22,933500	0,5	-8,943250
22,941833	0,5	-8,903350
22,950167	0,5	-8,893800
22,958500	0,5	-8,892400
22,966833	0,5	-8,856200
22,975167	0,5	-8,826650
22,983500	0,5	-8,773700
22,991833	0,5	-8,743600
23,000167	0,5	-8,704100
23,008500	0,5	-8,654450
23,016833	0,5	-8,599150
23,025167	0,5	-8,543900
23,033500	0,5	-8,465150
23,041833	0,5	-8,394500
23,050167	0,5	-8,318200
23,058500	0,5	-8,235550
23,066833	0,5	-8,138650
23,075167	0,5	-8,021500
23,083500	0,5	-7,946650
23,091833	0,5	-7,851300
23,100167	0,5	-7,816050
23,108500	0,5	-7,738900
23,116833	0,5	-7,650800
23,125167	0,5	-7,556850
23,133500	0,5	-7,474550
23,141833	0,5	-7,394400
23,150167	0,5	-7,316650
23,158500	0,5	-7,224700
23,166833	0,5	-7,144250
23,175167	0,5	-7,051950
23,183500	0,5	-6,944600
23,191833	0,5	-6,844050
23,200167	0,5	-6,757000
23,208500	0,5	-6,640200
23,216833	0,5	-6,520900
23,225167	0,5	-6,454550
23,233500	0,5	-6,323500
23,241833	0,5	-6,213800
23,250167	0,5	-6,152100
23,258500	0,5	-6,079550
23,266833	0,5	-5,990050
23,275167	0,5	-5,891200
23,283500	0,5	-5,822600
23,291833	0,5	-5,753800
23,300167	0,5	-5,685850
23,308500	0,5	-5,599800
23,316833	0,5	-5,523150
23,325167	0,5	-5,442900
23,333500	0,5	-5,365900
23,341833	0,5	-5,289900
23,350167	0,5	-5,207500
23,358500	0,5	-5,127550
23,366833	0,5	-5,064650
23,375167	0,5	-4,990500
23,383500	0,5	-4,902250
23,391833	0,5	-4,800500
23,400167	0,5	-4,746350
23,408500	0,5	-4,697150
23,416833	0,5	-4,627550
23,425167	0,5	-4,565700
23,433500	0,5	-4,518350
23,441833	0,5	-4,480400
23,450167	0,5	-4,420650
23,458500	0,5	-4,370550
23,466833	0,5	-4,325350
23,475167	0,5	-4,286200
23,483500	0,5	-4,234900
23,491833	0,5	-4,185800
23,500167	0,5	-4,137350
23,508500	0,5	-4,080150
23,516833	0,5	-4,154400
23,525167	0,5	-4,092250
23,533500	0,5	-4,003300
23,541833	0,5	-3,924450
23,550167	0,5	-3,881700
23,558500	0,5	-3,841250
23,566833	0,5	-3,805500
23,575167	0,5	-3,770050
23,583500	0,5	-3,742250
23,591833	0,5	-3,711850
23,600167	0,5	-3,682200
23,608500	0,5	-3,650150
23,616833	0,5	-3,619600
23,625167	0,5	-3,586900
23,633500	0,5	-3,557300
23,641833	0,5	-3,526650
23,650167	0,5	-3,493550
23,658500	0,5	-3,503200
23,666833	0,5	-3,606950
23,675167	0,5	-3,542550
23,683500	0,5	-3,459450
23,691833	0,5	-3,405450
23,700167	0,5	-3,373050
23,708500	0,5	-3,347300
23,716833	0,5	-3,330150
23,725167	0,5	-3,317800
23,733500	0,5	-3,300650
23,741833	0,5	-3,267600
23,750167	0,5	-3,250950
23,758500	0,5	-3,226250
23,766833	0,5	-3,198550
23,775167	0,5	-3,166850
23,783500	0,5	-3,141750
23,791833	0,5	-3,107800
23,800167	0,5	-3,079800
23,808500	0,5	-3,210350
23,816833	0,5	-3,195600
23,825167	0,5	-3,130850
23,833500	0,5	-3,063800
23,841833	0,5	-3,006450
23,850167	0,5	-2,969500
23,858500	0,5	-2,944250
23,866833	0,5	-2,929450
23,875167	0,5	-2,919950
23,883500	0,5	-2,883650
23,891833	0,5	-2,860900
23,900167	0,5	-2,834650
23,908500	0,5	-2,808700
23,916833	0,5	-2,785550
23,925167	0,5	-2,762150
23,933500	0,5	-2,736050
23,941833	0,5	-2,714400
23,950167	0,5	-2,702500
23,958500	0,5	-2,845900
23,966833	0,5	-2,812750
23,975167	0,5	-2,752950
23,983500	0,5	-2,675450
23,991833	0,5	-2,631600
24,000167	0,5	-2,594850
24,008500	0,5	-2,573550
24,016833	0,5	-2,562150
24,025167	0,5	-2,532950
24,033500	0,5	-2,501700
24,041833	0,5	-2,475400
24,050167	0,5	-2,449350
24,058500	0,5	-2,414700
24,066833	0,5	-2,384550
24,075167	0,5	-2,347400
24,083500	0,5	-2,315800
24,091833	0,5	-2,290150
24,100167	0,5	-2,344900
24,108500	0,5	-2,399000
24,116833	0,5	-2,377650
24,125167	0,5	-2,304450
24,133500	0,5	-2,252250
24,141833	0,5	-2,217550
24,150167	0,5	-2,199200
24,158500	0,5	-2,200200
24,166833	0,5	-2,177850
24,175167	0,5	-2,145900
24,183500	0,5	-2,120000
24,191833	0,5	-2,101000
24,200167	0,5	-2,069800
24,208500	0,5	-2,047100
24,216833	0,5	-2,017350
24,225167	0,5	-1,987550
24,233500	0,5	-1,959800
24,241833	0,5	-1,941450
24,250167	0,5	-2,038850
24,258500	0,5	-2,014300
24,266833	0,5	-1,977750
24,275167	0,5	-1,917400
24,283500	0,5	-1,872450
24,291833	0,5	-1,841000
24,300167	0,5	-1,822300
24,308500	0,5	-1,822000
24,316833	0,5	-1,794050
24,325167	0,5	-1,767450
24,333500	0,5	-1,748250
24,341833	0,5	-1,732100
24,350167	0,5	-1,715700
24,358500	0,5	-1,699250
24,366833	0,5	-1,681950
24,375167	0,5	-1,649400
24,383500	0,5	-1,631200
24,391833	0,5	-1,634500
24,400167	0,5	-1,708900
24,408500	0,5	-1,674250
24,416833	0,5	-1,645650
24,425167	0,5	-1,603750
24,433500	0,5	-1,573250
24,441833	0,5	-1,548750
24,450167	0,5	-1,545100
24,458500	0,5	-1,541500
24,466833	0,5	-1,508500
24,475167	0,5	-1,484850
24,483500	0,5	-1,472350
24,491833	0,5	-1,449200
24,500167	0,5	-1,430850
24,508500	0,5	-1,410200
24,516833	0,5	-1,391050
24,525167	0,5	-1,369650
24,533500	0,5	-1,351700
24,541833	0,5	-1,393050
24,550167	0,5	-1,391800
24,558500	0,5	-1,380900
24,566833	0,5	-1,341300
24,575167	0,5	-1,320100
24,583500	0,5	-1,301100
24,591833	0,5	-1,287050
24,600167	0,5	-1,292350
24,608500	0,5	-1,284550
24,616833	0,5	-1,264600
24,625167	0,5	-1,254050
24,633500	0,5	-1,243300
24,641833	0,5	-1,232650
24,650167	0,5	-1,218100
24,658500	0,5	-1,210000
24,666833	0,5	-1,192050
24,675167	0,5	-1,172350
24,683500	0,5	-1,163050
24,691833	0,5	-1,202950
24,700167	0,5	-1,179350
24,708500	0,5	-1,163300
24,716833	0,5	-1,125150
24,725167	0,5	-1,109750
24,733500	0,5	-1,092650
24,741833	0,5	-1,086550
24,750167	0,5	-1,084200
24,758500	0,5	-1,075400
24,766833	0,5	-1,067100
24,775167	0,5	-1,056000
24,783500	0,5	-1,054400
24,791833	0,5	-1,042900
24,800167	0,5	-1,040600
24,808500	0,5	-1,034300
24,816833	0,5	-1,025600
24,825167	0,5	-1,014250
24,833500	0,5	-1,009150
24,841833	0,5	-1,032750
24,850167	0,5	-1,016100
24,858500	0,5	-1,002950
24,866833	0,5	-0,990450
24,875167	0,5	-0,981200
24,883500	0,5	-0,963850
24,891833	0,5	-0,961700
24,900167	0,5	-0,955400
24,908500	0,5	-0,941550
24,916833	0,5	-0,933500
24,925167	0,5	-0,929450
24,933500	0,5	-0,912550
24,941833	0,5	-0,904550
24,950167	0,5	-0,894200
24,958500	0,5	-0,890500
24,966833	0,5	-0,882400
24,975167	0,5	-0,881800
24,983500	0,5	-0,890650
24,991833	0,5	-0,883800
25,000167	0,5	-0,876400
25,008500	0,5	-0,873950
25,016833	0,5	-0,866950
25,025167	0,5	-0,863800
25,033500	0,5	-0,859450
25,041833	0,5	-0,858650
25,050167	0,5	-0,857350
25,058500	0,5	-0,849150
25,066833	0,5	-0,844300
25,075167	0,5	-0,844150
25,083500	0,5	-0,838100
25,091833	0,5	-0,828000
25,100167	0,5	-0,817700
25,108500	0,5	-0,809050
25,116833	0,5	-0,804400
25,125167	0,5	-0,797350
25,133500	0,5	-0,805050
25,141833	0,5	-0,792000
25,150167	0,5	-0,781400
25,158500	0,5	-0,775650
25,166833	0,5	-0,778400
25,175167	0,5	-0,775800
25,183500	0,5	-0,776850
25,191833	0,5	-0,775800
25,200167	0,5	-0,778850
25,208500	0,5	-0,772400
25,216833	0,5	-0,775150
25,225167	0,5	-0,774550
25,233500	0,5	-0,775750
25,241833	0,5	-0,771000
25,250167	0,5	-0,769150
25,258500	0,5	-0,765100
25,266833	0,5	-0,760600
25,275167	0,5	-0,762250
25,283500	0,5	-0,751450
25,291833	0,5	-0,738050
25,300167	0,5	-0,741250
25,308500	0,5	-0,736400
25,316833	0,5	-0,732050
25,325167	0,5	-0,727950
25,333500	0,5	-0,728700
25,341833	0,5	-0,723450
25,350167	0,5	-0,721200
25,358500	0,5	-0,721350
25,366833	0,5	-0,716000
25,375167	0,5	-0,717300
25,383500	0,5	-0,718350
25,391833	0,5	-0,722700
25,400167	0,5	-0,722450
25,408500	0,5	-0,721800
25,416833	0,5	-0,720900
25,425167	0,5	-0,715650
25,433500	0,5	-0,708250
25,441833	0,5	-0,703750
25,450167	0,5	-0,708850
25,458500	0,5	-0,710450
25,466833	0,5	-0,712500
25,475167	0,5	-0,706650
25,483500	0,5	-0,700300
25,491833	0,5	-0,694450
25,500167	0,5	-0,696900
25,508500	0,5	-0,691050
25,516833	0,5	-0,692200
25,525167	0,5	-0,689650
25,533500	0,5	-0,686800
25,541833	0,5	-0,686100
25,550167	0,5	-0,687850
25,558500	0,5	-0,684800
25,566833	0,5	-0,683550
25,575167	0,5	-0,670250
25,583500	0,5	-0,676900
25,591833	0,5	-0,662450
25,600167	0,5	-0,679350
25,608500	0,5	-0,680700
25,616833	0,5	-0,680200
25,625167	0,5	-0,680750
25,633500	0,5	-0,672100
25,641833	0,5	-0,668450
25,650167	0,5	-0,675550
25,658500	0,5	-0,674000
25,666833	0,5	-0,674250
25,675167	0,5	-0,672600
25,683500	0,5	-0,669150
25,691833	0,5	-0,670700
25,700167	0,5	-0,669950
25,708500	0,5	-0,663500
25,716833	0,5	-0,657800
25,725167	0,5	-0,640900
25,733500	0,5	-0,641550
25,741833	0,5	-0,632800
25,750167	0,5	-0,649200
25,758500	0,5	-0,649700
25,766833	0,5	-0,646700
25,775167	0,5	-0,640700
25,783500	0,5	-0,631350
25,791833	0,5	-0,632850
25,800167	0,5	-0,626950
25,808500	0,5	-0,631700
25,816833	0,5	-0,627650
25,825167	0,5	-0,629050
25,833500	0,5	-0,628850
25,841833	0,5	-0,625750
25,850167	0,5	-0,628150
25,858500	0,5	-0,622550
25,866833	0,5	-0,613000
25,875167	0,5	-0,603550
25,883500	0,5	-0,589800
25,891833	0,5	-0,594100
25,900167	0,5	-0,596900
25,908500	0,5	-0,594300
25,916833	0,5	-0,590950
25,925167	0,5	-0,572300
25,933500	0,5	-0,555600
25,941833	0,5	-0,552150
25,950167	0,5	-0,556050
25,958500	0,5	-0,552400
25,966833	0,5	-0,560350
25,975167	0,5	-0,550300
25,983500	0,5	-0,550050
25,991833	0,5	-0,548900
26,000167	0,5	-0,542350
