File Path	chrom://chromeleon01/ikbm_chromeleon/2022/ICS-5000/ED1/Esteban/20220427_Cell_Amandas_mutants.seq/430.smp/ED_1.channel/ED_1.chm
Channel	ED_1

Injection Information:
Data Vault	ikbm_chromeleon
Injection	Std_C1ox_0,0025
Injection Number	37
Position	RA2
Comment	
Processing Method	Stop sequence after Cell Death
Instrument Method	ICS5000_PA200_FullNative_Ox_26min_ED1
Type	Unknown
Status	Finished
Injection Date	28.04.2022
Injection Time	06:06:55
Injection Volume (µl)	5,0
Dilution Factor	1,0000
Weight	1,0000

Chromatogram Data Information:
Time Min. (min)	0,000333
Time Max. (min)	26,000333
Data Points	3121
Detector	EDet1
Generating Data System	Chromeleon 7.2.9.11323
Exporting Data System	Chromeleon 7.2.9.0
Operator	Instrument Controller
Signal Quantity	
Signal Unit	nC
Signal Min.	-7,992750
Signal Max.	20,476850
Channel	ED_1
Driver Name	DC-5000
Channel Type	Evaluation
Min. Step (s)	0,5
Max. Step (s)	0,5
Average Step (s)	0,5

Signal Parameter Information:
Signal Info	

Chromatogram Data:
Time (min)	Step (s)	Value (nC)
0,000333	n.a.	-0,077750
0,008667	0,5	-0,079650
0,017000	0,5	-0,062300
0,025333	0,5	-0,030800
0,033667	0,5	0,012500
0,042000	0,5	-0,010350
0,050333	0,5	-0,001150
0,058667	0,5	-0,003100
0,067000	0,5	0,002850
0,075333	0,5	0,000900
0,083667	0,5	0,005050
0,092000	0,5	-0,002400
0,100333	0,5	-0,001800
0,108667	0,5	0,011700
0,117000	0,5	0,010600
0,125333	0,5	0,001300
0,133667	0,5	0,022700
0,142000	0,5	0,012300
0,150333	0,5	-0,012950
0,158667	0,5	-0,008900
0,167000	0,5	0,002500
0,175333	0,5	0,044050
0,183667	0,5	0,042050
0,192000	0,5	0,035600
0,200333	0,5	0,032350
0,208667	0,5	0,035900
0,217000	0,5	0,015200
0,225333	0,5	0,014800
0,233667	0,5	0,010350
0,242000	0,5	0,008950
0,250333	0,5	0,009550
0,258667	0,5	0,014300
0,267000	0,5	0,032750
0,275333	0,5	0,014200
0,283667	0,5	0,038200
0,292000	0,5	0,002450
0,300333	0,5	0,014500
0,308667	0,5	0,007400
0,317000	0,5	0,019100
0,325333	0,5	0,035550
0,333667	0,5	0,045750
0,342000	0,5	0,016200
0,350333	0,5	0,026000
0,358667	0,5	0,017050
0,367000	0,5	0,015850
0,375333	0,5	0,004050
0,383667	0,5	0,008800
0,392000	0,5	0,003350
0,400333	0,5	0,005750
0,408667	0,5	0,006900
0,417000	0,5	-0,004600
0,425333	0,5	-0,001750
0,433667	0,5	0,013650
0,442000	0,5	-0,014850
0,450333	0,5	-0,013150
0,458667	0,5	-0,015500
0,467000	0,5	0,010800
0,475333	0,5	0,041950
0,483667	0,5	0,028150
0,492000	0,5	0,028950
0,500333	0,5	0,028500
0,508667	0,5	0,024650
0,517000	0,5	0,007900
0,525333	0,5	0,013950
0,533667	0,5	-0,000400
0,542000	0,5	0,003750
0,550333	0,5	0,006800
0,558667	0,5	0,002250
0,567000	0,5	-0,017150
0,575333	0,5	0,013700
0,583667	0,5	-0,005500
0,592000	0,5	-0,015600
0,600333	0,5	-0,010300
0,608667	0,5	-0,007600
0,617000	0,5	0,027600
0,625333	0,5	0,038000
0,633667	0,5	0,039450
0,642000	0,5	0,031400
0,650333	0,5	0,031900
0,658667	0,5	0,017300
0,667000	0,5	0,018650
0,675333	0,5	0,016400
0,683667	0,5	0,014100
0,692000	0,5	0,007400
0,700333	0,5	0,020650
0,708667	0,5	-0,000650
0,717000	0,5	0,008000
0,725333	0,5	0,027650
0,733667	0,5	0,016550
0,742000	0,5	-0,005900
0,750333	0,5	0,009450
0,758667	0,5	0,019250
0,767000	0,5	0,059250
0,775333	0,5	0,053400
0,783667	0,5	0,042150
0,792000	0,5	0,041050
0,800333	0,5	0,045000
0,808667	0,5	0,041400
0,817000	0,5	0,035800
0,825333	0,5	0,032900
0,833667	0,5	0,033250
0,842000	0,5	0,040000
0,850333	0,5	0,045400
0,858667	0,5	0,049200
0,867000	0,5	0,045750
0,875333	0,5	0,071800
0,883667	0,5	0,043750
0,892000	0,5	0,043000
0,900333	0,5	0,044400
0,908667	0,5	0,069400
0,917000	0,5	0,091200
0,925333	0,5	0,085100
0,933667	0,5	0,069450
0,942000	0,5	0,079850
0,950333	0,5	0,070200
0,958667	0,5	0,074050
0,967000	0,5	0,076300
0,975333	0,5	0,077600
0,983667	0,5	0,075350
0,992000	0,5	0,083150
1,000333	0,5	0,103150
1,008667	0,5	0,075700
1,017000	0,5	0,103350
1,025333	0,5	0,097550
1,033667	0,5	0,086300
1,042000	0,5	0,078200
1,050333	0,5	0,095250
1,058667	0,5	0,125550
1,067000	0,5	0,140800
1,075333	0,5	0,111850
1,083667	0,5	0,124200
1,092000	0,5	0,125100
1,100333	0,5	0,134200
1,108667	0,5	0,122150
1,117000	0,5	0,135700
1,125333	0,5	0,127650
1,133667	0,5	0,129200
1,142000	0,5	0,132900
1,150333	0,5	0,129900
1,158667	0,5	0,117300
1,167000	0,5	0,154000
1,175333	0,5	0,137850
1,183667	0,5	0,124050
1,192000	0,5	0,132150
1,200333	0,5	0,149450
1,208667	0,5	0,193500
1,217000	0,5	0,194850
1,225333	0,5	0,189700
1,233667	0,5	0,184550
1,242000	0,5	0,196900
1,250333	0,5	0,184500
1,258667	0,5	0,190750
1,267000	0,5	0,188550
1,275333	0,5	0,192150
1,283667	0,5	0,201350
1,292000	0,5	0,216700
1,300333	0,5	0,223800
1,308667	0,5	0,221350
1,317000	0,5	0,239400
1,325333	0,5	0,214650
1,333667	0,5	0,217700
1,342000	0,5	0,222050
1,350333	0,5	0,242950
1,358667	0,5	0,284800
1,367000	0,5	0,297000
1,375333	0,5	0,273900
1,383667	0,5	0,284850
1,392000	0,5	0,288450
1,400333	0,5	0,293450
1,408667	0,5	0,298900
1,417000	0,5	0,306350
1,425333	0,5	0,303500
1,433667	0,5	0,314150
1,442000	0,5	0,315300
1,450333	0,5	0,330600
1,458667	0,5	0,337650
1,467000	0,5	0,354950
1,475333	0,5	0,332400
1,483667	0,5	0,343900
1,492000	0,5	0,355650
1,500333	0,5	0,397450
1,508667	0,5	0,425950
1,517000	0,5	0,422150
1,525333	0,5	0,423000
1,533667	0,5	0,423000
1,542000	0,5	0,428650
1,550333	0,5	0,418300
1,558667	0,5	0,378650
1,567000	0,5	0,135200
1,575333	0,5	-0,611250
1,583667	0,5	-2,010300
1,592000	0,5	-3,054650
1,600333	0,5	-2,691950
1,608667	0,5	-1,021400
1,617000	0,5	0,316500
1,625333	0,5	1,093400
1,633667	0,5	1,707550
1,642000	0,5	2,160650
1,650333	0,5	2,263600
1,658667	0,5	2,038400
1,667000	0,5	1,712100
1,675333	0,5	1,455300
1,683667	0,5	1,263150
1,692000	0,5	1,136450
1,700333	0,5	1,050100
1,708667	0,5	1,036050
1,717000	0,5	1,154350
1,725333	0,5	1,419250
1,733667	0,5	1,682550
1,742000	0,5	1,682100
1,750333	0,5	1,489700
1,758667	0,5	1,261800
1,767000	0,5	1,060350
1,775333	0,5	0,931800
1,783667	0,5	0,888250
1,792000	0,5	0,915800
1,800333	0,5	0,974400
1,808667	0,5	1,002750
1,817000	0,5	1,019550
1,825333	0,5	1,010400
1,833667	0,5	0,999400
1,842000	0,5	0,982850
1,850333	0,5	0,969050
1,858667	0,5	0,940950
1,867000	0,5	0,906250
1,875333	0,5	0,875500
1,883667	0,5	0,852750
1,892000	0,5	0,826050
1,900333	0,5	0,824650
1,908667	0,5	0,812150
1,917000	0,5	0,782450
1,925333	0,5	0,766450
1,933667	0,5	0,751550
1,942000	0,5	0,780550
1,950333	0,5	0,791500
1,958667	0,5	0,802400
1,967000	0,5	0,802350
1,975333	0,5	0,805150
1,983667	0,5	0,798200
1,992000	0,5	0,817750
2,000333	0,5	0,831050
2,008667	0,5	0,851100
2,017000	0,5	0,863650
2,025333	0,5	0,894000
2,033667	0,5	0,996500
2,042000	0,5	1,237500
2,050333	0,5	1,728600
2,058667	0,5	2,406850
2,067000	0,5	3,639950
2,075333	0,5	5,673100
2,083667	0,5	7,700800
2,092000	0,5	8,438900
2,100333	0,5	7,745800
2,108667	0,5	6,515300
2,117000	0,5	5,441300
2,125333	0,5	4,667200
2,133667	0,5	4,158650
2,142000	0,5	3,864400
2,150333	0,5	3,717400
2,158667	0,5	3,613550
2,167000	0,5	3,564800
2,175333	0,5	3,538750
2,183667	0,5	3,564550
2,192000	0,5	3,596100
2,200333	0,5	3,696750
2,208667	0,5	3,759350
2,217000	0,5	3,858000
2,225333	0,5	3,974050
2,233667	0,5	4,110850
2,242000	0,5	4,282500
2,250333	0,5	4,413050
2,258667	0,5	4,566350
2,267000	0,5	4,707050
2,275333	0,5	4,863700
2,283667	0,5	5,014800
2,292000	0,5	5,182950
2,300333	0,5	5,335550
2,308667	0,5	5,495950
2,317000	0,5	5,661100
2,325333	0,5	5,833000
2,333667	0,5	5,980750
2,342000	0,5	6,142200
2,350333	0,5	6,310000
2,358667	0,5	6,454450
2,367000	0,5	6,609450
2,375333	0,5	6,771700
2,383667	0,5	6,946400
2,392000	0,5	7,128600
2,400333	0,5	7,264550
2,408667	0,5	7,395900
2,417000	0,5	7,532800
2,425333	0,5	7,655600
2,433667	0,5	7,789800
2,442000	0,5	7,914150
2,450333	0,5	8,045300
2,458667	0,5	8,159300
2,467000	0,5	8,284150
2,475333	0,5	8,382700
2,483667	0,5	8,482450
2,492000	0,5	8,576450
2,500333	0,5	8,650350
2,508667	0,5	8,676450
2,517000	0,5	8,715700
2,525333	0,5	8,753250
2,533667	0,5	8,813750
2,542000	0,5	8,867150
2,550333	0,5	8,892800
2,558667	0,5	8,905700
2,567000	0,5	8,921550
2,575333	0,5	8,924150
2,583667	0,5	8,926550
2,592000	0,5	8,921550
2,600333	0,5	8,899300
2,608667	0,5	8,880200
2,617000	0,5	8,851550
2,625333	0,5	8,820400
2,633667	0,5	8,774600
2,642000	0,5	8,750700
2,650333	0,5	8,690250
2,658667	0,5	8,629050
2,667000	0,5	8,575700
2,675333	0,5	8,526600
2,683667	0,5	8,485050
2,692000	0,5	8,435800
2,700333	0,5	8,350400
2,708667	0,5	8,267900
2,717000	0,5	8,177800
2,725333	0,5	8,093750
2,733667	0,5	8,007300
2,742000	0,5	7,929250
2,750333	0,5	7,840250
2,758667	0,5	7,755950
2,767000	0,5	7,682300
2,775333	0,5	7,593450
2,783667	0,5	7,549900
2,792000	0,5	7,559650
2,800333	0,5	7,595350
2,808667	0,5	7,687050
2,817000	0,5	7,816250
2,825333	0,5	7,904000
2,833667	0,5	7,884350
2,842000	0,5	7,700500
2,850333	0,5	7,460350
2,858667	0,5	7,197850
2,867000	0,5	7,000500
2,875333	0,5	6,859200
2,883667	0,5	6,837050
2,892000	0,5	6,896950
2,900333	0,5	7,008750
2,908667	0,5	7,088400
2,917000	0,5	7,058850
2,925333	0,5	6,867050
2,933667	0,5	6,590850
2,942000	0,5	6,227300
2,950333	0,5	5,863150
2,958667	0,5	5,544700
2,967000	0,5	5,279800
2,975333	0,5	5,084250
2,983667	0,5	4,895150
2,992000	0,5	4,715950
3,000333	0,5	4,536950
3,008667	0,5	4,389350
3,017000	0,5	4,235350
3,025333	0,5	4,108800
3,033667	0,5	3,973500
3,042000	0,5	3,850200
3,050333	0,5	3,725800
3,058667	0,5	3,612050
3,067000	0,5	3,496100
3,075333	0,5	3,375950
3,083667	0,5	3,296500
3,092000	0,5	3,184600
3,100333	0,5	3,077950
3,108667	0,5	2,976100
3,117000	0,5	2,887600
3,125333	0,5	2,830550
3,133667	0,5	2,732000
3,142000	0,5	2,623950
3,150333	0,5	2,538400
3,158667	0,5	2,443000
3,167000	0,5	2,361200
3,175333	0,5	2,272800
3,183667	0,5	2,202050
3,192000	0,5	2,114600
3,200333	0,5	2,041550
3,208667	0,5	1,962600
3,217000	0,5	1,894200
3,225333	0,5	1,812700
3,233667	0,5	1,774700
3,242000	0,5	1,682350
3,250333	0,5	1,617800
3,258667	0,5	1,553100
3,267000	0,5	1,514450
3,275333	0,5	1,487200
3,283667	0,5	1,417450
3,292000	0,5	1,366250
3,300333	0,5	1,318650
3,308667	0,5	1,257200
3,317000	0,5	1,205900
3,325333	0,5	1,146400
3,333667	0,5	1,087600
3,342000	0,5	1,036850
3,350333	0,5	0,984050
3,358667	0,5	0,941350
3,367000	0,5	0,877650
3,375333	0,5	0,836400
3,383667	0,5	0,802650
3,392000	0,5	0,749900
3,400333	0,5	0,707500
3,408667	0,5	0,678150
3,417000	0,5	0,658650
3,425333	0,5	0,651650
3,433667	0,5	0,606750
3,442000	0,5	0,569400
3,450333	0,5	0,533000
3,458667	0,5	0,502750
3,467000	0,5	0,471250
3,475333	0,5	0,442000
3,483667	0,5	0,417300
3,492000	0,5	0,394250
3,500333	0,5	0,373150
3,508667	0,5	0,343450
3,517000	0,5	0,311800
3,525333	0,5	0,298650
3,533667	0,5	0,287000
3,542000	0,5	0,254200
3,550333	0,5	0,242300
3,558667	0,5	0,232850
3,567000	0,5	0,243950
3,575333	0,5	0,242500
3,583667	0,5	0,234400
3,592000	0,5	0,219800
3,600333	0,5	0,221450
3,608667	0,5	0,198750
3,617000	0,5	0,192250
3,625333	0,5	0,173300
3,633667	0,5	0,159800
3,642000	0,5	0,140500
3,650333	0,5	0,125000
3,658667	0,5	0,109750
3,667000	0,5	0,092600
3,675333	0,5	0,082800
3,683667	0,5	0,051800
3,692000	0,5	0,035050
3,700333	0,5	0,019750
3,708667	0,5	0,023450
3,717000	0,5	0,031050
3,725333	0,5	0,032350
3,733667	0,5	0,009000
3,742000	0,5	0,005450
3,750333	0,5	-0,013200
3,758667	0,5	-0,020800
3,767000	0,5	-0,036450
3,775333	0,5	-0,042200
3,783667	0,5	-0,058300
3,792000	0,5	-0,049850
3,800333	0,5	-0,055200
3,808667	0,5	-0,078600
3,817000	0,5	-0,075850
3,825333	0,5	-0,060100
3,833667	0,5	-0,066600
3,842000	0,5	-0,060800
3,850333	0,5	-0,042250
3,858667	0,5	-0,004200
3,867000	0,5	0,030050
3,875333	0,5	0,029850
3,883667	0,5	0,037800
3,892000	0,5	0,034200
3,900333	0,5	0,024250
3,908667	0,5	-0,000150
3,917000	0,5	-0,013400
3,925333	0,5	-0,034550
3,933667	0,5	-0,052550
3,942000	0,5	-0,070650
3,950333	0,5	-0,088550
3,958667	0,5	-0,107850
3,967000	0,5	-0,097950
3,975333	0,5	-0,116550
3,983667	0,5	-0,123700
3,992000	0,5	-0,123700
4,000333	0,5	-0,127750
4,008667	0,5	-0,102800
4,017000	0,5	-0,108250
4,025333	0,5	-0,114050
4,033667	0,5	-0,117150
4,042000	0,5	-0,117700
4,050333	0,5	-0,127950
4,058667	0,5	-0,121800
4,067000	0,5	-0,124450
4,075333	0,5	-0,120700
4,083667	0,5	-0,121300
4,092000	0,5	-0,110350
4,100333	0,5	-0,109950
4,108667	0,5	-0,119200
4,117000	0,5	-0,102300
4,125333	0,5	-0,116800
4,133667	0,5	-0,132500
4,142000	0,5	-0,142150
4,150333	0,5	-0,139500
4,158667	0,5	-0,113650
4,167000	0,5	-0,130000
4,175333	0,5	-0,137050
4,183667	0,5	-0,142800
4,192000	0,5	-0,142900
4,200333	0,5	-0,148550
4,208667	0,5	-0,151100
4,217000	0,5	-0,150600
4,225333	0,5	-0,161150
4,233667	0,5	-0,156600
4,242000	0,5	-0,158350
4,250333	0,5	-0,160400
4,258667	0,5	-0,169350
4,267000	0,5	-0,138600
4,275333	0,5	-0,162200
4,283667	0,5	-0,165000
4,292000	0,5	-0,166650
4,300333	0,5	-0,141600
4,308667	0,5	-0,121750
4,317000	0,5	-0,132650
4,325333	0,5	-0,144300
4,333667	0,5	-0,136450
4,342000	0,5	-0,136450
4,350333	0,5	-0,133050
4,358667	0,5	-0,132500
4,367000	0,5	-0,124600
4,375333	0,5	-0,123050
4,383667	0,5	-0,114650
4,392000	0,5	-0,096750
4,400333	0,5	-0,096850
4,408667	0,5	-0,080650
4,417000	0,5	-0,068350
4,425333	0,5	-0,072350
4,433667	0,5	-0,066700
4,442000	0,5	-0,041600
4,450333	0,5	-0,013000
4,458667	0,5	0,026450
4,467000	0,5	0,035100
4,475333	0,5	0,066350
4,483667	0,5	0,097550
4,492000	0,5	0,143850
4,500333	0,5	0,200150
4,508667	0,5	0,277250
4,517000	0,5	0,345350
4,525333	0,5	0,428350
4,533667	0,5	0,511950
4,542000	0,5	0,593000
4,550333	0,5	0,661250
4,558667	0,5	0,742900
4,567000	0,5	0,782650
4,575333	0,5	0,798450
4,583667	0,5	0,801800
4,592000	0,5	0,784300
4,600333	0,5	0,763100
4,608667	0,5	0,702350
4,617000	0,5	0,621050
4,625333	0,5	0,533750
4,633667	0,5	0,458000
4,642000	0,5	0,380250
4,650333	0,5	0,318600
4,658667	0,5	0,264550
4,667000	0,5	0,220900
4,675333	0,5	0,192350
4,683667	0,5	0,170700
4,692000	0,5	0,150350
4,700333	0,5	0,146900
4,708667	0,5	0,158900
4,717000	0,5	0,151850
4,725333	0,5	0,156700
4,733667	0,5	0,175850
4,742000	0,5	0,225200
4,750333	0,5	0,291600
4,758667	0,5	0,364500
4,767000	0,5	0,432600
4,775333	0,5	0,525150
4,783667	0,5	0,622850
4,792000	0,5	0,733450
4,800333	0,5	0,843450
4,808667	0,5	0,958550
4,817000	0,5	1,036200
4,825333	0,5	1,098850
4,833667	0,5	1,125650
4,842000	0,5	1,117050
4,850333	0,5	1,083050
4,858667	0,5	1,020200
4,867000	0,5	0,919500
4,875333	0,5	0,825650
4,883667	0,5	0,722700
4,892000	0,5	0,655400
4,900333	0,5	0,577900
4,908667	0,5	0,500200
4,917000	0,5	0,431250
4,925333	0,5	0,380300
4,933667	0,5	0,329750
4,942000	0,5	0,294750
4,950333	0,5	0,265700
4,958667	0,5	0,242750
4,967000	0,5	0,223850
4,975333	0,5	0,205100
4,983667	0,5	0,198550
4,992000	0,5	0,183950
5,000333	0,5	0,193950
5,008667	0,5	0,184250
5,017000	0,5	0,173600
5,025333	0,5	0,167300
5,033667	0,5	0,172100
5,042000	0,5	0,198650
5,050333	0,5	0,198250
5,058667	0,5	0,192700
5,067000	0,5	0,197800
5,075333	0,5	0,200300
5,083667	0,5	0,203150
5,092000	0,5	0,204350
5,100333	0,5	0,205050
5,108667	0,5	0,214150
5,117000	0,5	0,211150
5,125333	0,5	0,222850
5,133667	0,5	0,206600
5,142000	0,5	0,207300
5,150333	0,5	0,231400
5,158667	0,5	0,221950
5,167000	0,5	0,223300
5,175333	0,5	0,230750
5,183667	0,5	0,236200
5,192000	0,5	0,272350
5,200333	0,5	0,261500
5,208667	0,5	0,274500
5,217000	0,5	0,269400
5,225333	0,5	0,276600
5,233667	0,5	0,274400
5,242000	0,5	0,284100
5,250333	0,5	0,281750
5,258667	0,5	0,284750
5,267000	0,5	0,292750
5,275333	0,5	0,293700
5,283667	0,5	0,291150
5,292000	0,5	0,296650
5,300333	0,5	0,318450
5,308667	0,5	0,307950
5,317000	0,5	0,315600
5,325333	0,5	0,328750
5,333667	0,5	0,350000
5,342000	0,5	0,371000
5,350333	0,5	0,371650
5,358667	0,5	0,367250
5,367000	0,5	0,383100
5,375333	0,5	0,377800
5,383667	0,5	0,380800
5,392000	0,5	0,384400
5,400333	0,5	0,385200
5,408667	0,5	0,384700
5,417000	0,5	0,401950
5,425333	0,5	0,412100
5,433667	0,5	0,406600
5,442000	0,5	0,418250
5,450333	0,5	0,417200
5,458667	0,5	0,408650
5,467000	0,5	0,406350
5,475333	0,5	0,417900
5,483667	0,5	0,439950
5,492000	0,5	0,457950
5,500333	0,5	0,448000
5,508667	0,5	0,454750
5,517000	0,5	0,466050
5,525333	0,5	0,471500
5,533667	0,5	0,468400
5,542000	0,5	0,475650
5,550333	0,5	0,477250
5,558667	0,5	0,482750
5,567000	0,5	0,491600
5,575333	0,5	0,493350
5,583667	0,5	0,486750
5,592000	0,5	0,510900
5,600333	0,5	0,506050
5,608667	0,5	0,507250
5,617000	0,5	0,517300
5,625333	0,5	0,537600
5,633667	0,5	0,561600
5,642000	0,5	0,567250
5,650333	0,5	0,573050
5,658667	0,5	0,569350
5,667000	0,5	0,578100
5,675333	0,5	0,577950
5,683667	0,5	0,587500
5,692000	0,5	0,590150
5,700333	0,5	0,597450
5,708667	0,5	0,602550
5,717000	0,5	0,617000
5,725333	0,5	0,610350
5,733667	0,5	0,621150
5,742000	0,5	0,631200
5,750333	0,5	0,628250
5,758667	0,5	0,631250
5,767000	0,5	0,641800
5,775333	0,5	0,664800
5,783667	0,5	0,688350
5,792000	0,5	0,700500
5,800333	0,5	0,707600
5,808667	0,5	0,708350
5,817000	0,5	0,711950
5,825333	0,5	0,719600
5,833667	0,5	0,720000
5,842000	0,5	0,726000
5,850333	0,5	0,726800
5,858667	0,5	0,735950
5,867000	0,5	0,737750
5,875333	0,5	0,736400
5,883667	0,5	0,751300
5,892000	0,5	0,760850
5,900333	0,5	0,750200
5,908667	0,5	0,761300
5,917000	0,5	0,770350
5,925333	0,5	0,807450
5,933667	0,5	0,823800
5,942000	0,5	0,827000
5,950333	0,5	0,826550
5,958667	0,5	0,836400
5,967000	0,5	0,838100
5,975333	0,5	0,848050
5,983667	0,5	0,850700
5,992000	0,5	0,861200
6,000333	0,5	0,867350
6,008667	0,5	0,876350
6,017000	0,5	0,878550
6,025333	0,5	0,886950
6,033667	0,5	0,909400
6,042000	0,5	0,910900
6,050333	0,5	0,912650
6,058667	0,5	0,917200
6,067000	0,5	0,926000
6,075333	0,5	0,954400
6,083667	0,5	0,969500
6,092000	0,5	0,971950
6,100333	0,5	0,986500
6,108667	0,5	0,986700
6,117000	0,5	0,996250
6,125333	0,5	1,010550
6,133667	0,5	1,017550
6,142000	0,5	1,021450
6,150333	0,5	1,028750
6,158667	0,5	1,040250
6,167000	0,5	1,035050
6,175333	0,5	1,041550
6,183667	0,5	1,063500
6,192000	0,5	1,059350
6,200333	0,5	1,061400
6,208667	0,5	1,072900
6,217000	0,5	1,086400
6,225333	0,5	1,126050
6,233667	0,5	1,121700
6,242000	0,5	1,131450
6,250333	0,5	1,134050
6,258667	0,5	1,145350
6,267000	0,5	1,147800
6,275333	0,5	1,159900
6,283667	0,5	1,167500
6,292000	0,5	1,175350
6,300333	0,5	1,180700
6,308667	0,5	1,191500
6,317000	0,5	1,191200
6,325333	0,5	1,214250
6,333667	0,5	1,227900
6,342000	0,5	1,222750
6,350333	0,5	1,225150
6,358667	0,5	1,234900
6,367000	0,5	1,262650
6,375333	0,5	1,280300
6,383667	0,5	1,285250
6,392000	0,5	1,290000
6,400333	0,5	1,300650
6,408667	0,5	1,307300
6,417000	0,5	1,318300
6,425333	0,5	1,323850
6,433667	0,5	1,333650
6,442000	0,5	1,336750
6,450333	0,5	1,352350
6,458667	0,5	1,366550
6,467000	0,5	1,371950
6,475333	0,5	1,390200
6,483667	0,5	1,392800
6,492000	0,5	1,394550
6,500333	0,5	1,403500
6,508667	0,5	1,416350
6,517000	0,5	1,440950
6,525333	0,5	1,463150
6,533667	0,5	1,468600
6,542000	0,5	1,479750
6,550333	0,5	1,484300
6,558667	0,5	1,493550
6,567000	0,5	1,502450
6,575333	0,5	1,517950
6,583667	0,5	1,521300
6,592000	0,5	1,532500
6,600333	0,5	1,544000
6,608667	0,5	1,551400
6,617000	0,5	1,553950
6,625333	0,5	1,577250
6,633667	0,5	1,578000
6,642000	0,5	1,587800
6,650333	0,5	1,589500
6,658667	0,5	1,611600
6,667000	0,5	1,636000
6,675333	0,5	1,647350
6,683667	0,5	1,649950
6,692000	0,5	1,660050
6,700333	0,5	1,666850
6,708667	0,5	1,670350
6,717000	0,5	1,682500
6,725333	0,5	1,689800
6,733667	0,5	1,700050
6,742000	0,5	1,704800
6,750333	0,5	1,714900
6,758667	0,5	1,712350
6,767000	0,5	1,721050
6,775333	0,5	1,734450
6,783667	0,5	1,733250
6,792000	0,5	1,732200
6,800333	0,5	1,744850
6,808667	0,5	1,760350
6,817000	0,5	1,781200
6,825333	0,5	1,789200
6,833667	0,5	1,801350
6,842000	0,5	1,800700
6,850333	0,5	1,806850
6,858667	0,5	1,805450
6,867000	0,5	1,812000
6,875333	0,5	1,812050
6,883667	0,5	1,812000
6,892000	0,5	1,815850
6,900333	0,5	1,817600
6,908667	0,5	1,818750
6,917000	0,5	1,824700
6,925333	0,5	1,830250
6,933667	0,5	1,823000
6,942000	0,5	1,826200
6,950333	0,5	1,835050
6,958667	0,5	1,853800
6,967000	0,5	1,859400
6,975333	0,5	1,863100
6,983667	0,5	1,859200
6,992000	0,5	1,857000
7,000333	0,5	1,850500
7,008667	0,5	1,856400
7,017000	0,5	1,849000
7,025333	0,5	1,847700
7,033667	0,5	1,845900
7,042000	0,5	1,853300
7,050333	0,5	1,845500
7,058667	0,5	1,847950
7,067000	0,5	1,857150
7,075333	0,5	1,848700
7,083667	0,5	1,844800
7,092000	0,5	1,840400
7,100333	0,5	1,847100
7,108667	0,5	1,855850
7,117000	0,5	1,861550
7,125333	0,5	1,853750
7,133667	0,5	1,860950
7,142000	0,5	1,865150
7,150333	0,5	1,864600
7,158667	0,5	1,858700
7,167000	0,5	1,863850
7,175333	0,5	1,862800
7,183667	0,5	1,864900
7,192000	0,5	1,870150
7,200333	0,5	1,866100
7,208667	0,5	1,871250
7,217000	0,5	1,885750
7,225333	0,5	1,889200
7,233667	0,5	1,889500
7,242000	0,5	1,912600
7,250333	0,5	1,941000
7,258667	0,5	1,982150
7,267000	0,5	2,020350
7,275333	0,5	2,072350
7,283667	0,5	2,141600
7,292000	0,5	2,221800
7,300333	0,5	2,307150
7,308667	0,5	2,403350
7,317000	0,5	2,482000
7,325333	0,5	2,544850
7,333667	0,5	2,568150
7,342000	0,5	2,550700
7,350333	0,5	2,483600
7,358667	0,5	2,418400
7,367000	0,5	2,343300
7,375333	0,5	2,270850
7,383667	0,5	2,227150
7,392000	0,5	2,219450
7,400333	0,5	2,257350
7,408667	0,5	2,335750
7,417000	0,5	2,465450
7,425333	0,5	2,671550
7,433667	0,5	2,942750
7,442000	0,5	3,242950
7,450333	0,5	3,499050
7,458667	0,5	3,643700
7,467000	0,5	3,638450
7,475333	0,5	3,484050
7,483667	0,5	3,243850
7,492000	0,5	2,965400
7,500333	0,5	2,710250
7,508667	0,5	2,512150
7,517000	0,5	2,357800
7,525333	0,5	2,245950
7,533667	0,5	2,168700
7,542000	0,5	2,119600
7,550333	0,5	2,093100
7,558667	0,5	2,064500
7,567000	0,5	2,034500
7,575333	0,5	2,009800
7,583667	0,5	1,990350
7,592000	0,5	1,974400
7,600333	0,5	1,960150
7,608667	0,5	1,946150
7,617000	0,5	1,939500
7,625333	0,5	1,930150
7,633667	0,5	1,920600
7,642000	0,5	1,919150
7,650333	0,5	1,908650
7,658667	0,5	1,912000
7,667000	0,5	1,899800
7,675333	0,5	1,896300
7,683667	0,5	1,887700
7,692000	0,5	1,890750
7,700333	0,5	1,900500
7,708667	0,5	1,898800
7,717000	0,5	1,889500
7,725333	0,5	1,885600
7,733667	0,5	1,886250
7,742000	0,5	1,879100
7,750333	0,5	1,882700
7,758667	0,5	1,878650
7,767000	0,5	1,871400
7,775333	0,5	1,870350
7,783667	0,5	1,868600
7,792000	0,5	1,865850
7,800333	0,5	1,863500
7,808667	0,5	1,864400
7,817000	0,5	1,853050
7,825333	0,5	1,848100
7,833667	0,5	1,846600
7,842000	0,5	1,854500
7,850333	0,5	1,872950
7,858667	0,5	1,895950
7,867000	0,5	1,931050
7,875333	0,5	1,976200
7,883667	0,5	2,041500
7,892000	0,5	2,111750
7,900333	0,5	2,199150
7,908667	0,5	2,294700
7,917000	0,5	2,395250
7,925333	0,5	2,530200
7,933667	0,5	2,719600
7,942000	0,5	3,034850
7,950333	0,5	3,567700
7,958667	0,5	4,409500
7,967000	0,5	5,634100
7,975333	0,5	7,187850
7,983667	0,5	8,814550
7,992000	0,5	10,118250
8,000333	0,5	10,725200
8,008667	0,5	10,463800
8,017000	0,5	9,467200
8,025333	0,5	8,052600
8,033667	0,5	6,578400
8,042000	0,5	5,295250
8,050333	0,5	4,299150
8,058667	0,5	3,591150
8,067000	0,5	3,103550
8,075333	0,5	2,775550
8,083667	0,5	2,538150
8,092000	0,5	2,374200
8,100333	0,5	2,263000
8,108667	0,5	2,171850
8,117000	0,5	2,105450
8,125333	0,5	2,048600
8,133667	0,5	2,014800
8,142000	0,5	1,990500
8,150333	0,5	1,965850
8,158667	0,5	1,940850
8,167000	0,5	1,918700
8,175333	0,5	1,908300
8,183667	0,5	1,889100
8,192000	0,5	1,874350
8,200333	0,5	1,863200
8,208667	0,5	1,848700
8,217000	0,5	1,842550
8,225333	0,5	1,835100
8,233667	0,5	1,825500
8,242000	0,5	1,823150
8,250333	0,5	1,821050
8,258667	0,5	1,817000
8,267000	0,5	1,808950
8,275333	0,5	1,806300
8,283667	0,5	1,814350
8,292000	0,5	1,815750
8,300333	0,5	1,813850
8,308667	0,5	1,818600
8,317000	0,5	1,819250
8,325333	0,5	1,819600
8,333667	0,5	1,825800
8,342000	0,5	1,835550
8,350333	0,5	1,846350
8,358667	0,5	1,863800
8,367000	0,5	1,890800
8,375333	0,5	1,921600
8,383667	0,5	1,942800
8,392000	0,5	1,975900
8,400333	0,5	2,015150
8,408667	0,5	2,072200
8,417000	0,5	2,141150
8,425333	0,5	2,214300
8,433667	0,5	2,267300
8,442000	0,5	2,283850
8,450333	0,5	2,265300
8,458667	0,5	2,238200
8,467000	0,5	2,246850
8,475333	0,5	2,306850
8,483667	0,5	2,461900
8,492000	0,5	2,705300
8,500333	0,5	2,982800
8,508667	0,5	3,220850
8,517000	0,5	3,322950
8,525333	0,5	3,246200
8,533667	0,5	3,036100
8,542000	0,5	2,777200
8,550333	0,5	2,533400
8,558667	0,5	2,334500
8,567000	0,5	2,202550
8,575333	0,5	2,112900
8,583667	0,5	2,058150
8,592000	0,5	2,016500
8,600333	0,5	1,981700
8,608667	0,5	1,955350
8,617000	0,5	1,931600
8,625333	0,5	1,910700
8,633667	0,5	1,900750
8,642000	0,5	1,888950
8,650333	0,5	1,884000
8,658667	0,5	1,877850
8,667000	0,5	1,882100
8,675333	0,5	1,894000
8,683667	0,5	1,897800
8,692000	0,5	1,904600
8,700333	0,5	1,897250
8,708667	0,5	1,884350
8,717000	0,5	1,866500
8,725333	0,5	1,849500
8,733667	0,5	1,834300
8,742000	0,5	1,822800
8,750333	0,5	1,807000
8,758667	0,5	1,799300
8,767000	0,5	1,794100
8,775333	0,5	1,784800
8,783667	0,5	1,776800
8,792000	0,5	1,772650
8,800333	0,5	1,767700
8,808667	0,5	1,765400
8,817000	0,5	1,760250
8,825333	0,5	1,755700
8,833667	0,5	1,753300
8,842000	0,5	1,751450
8,850333	0,5	1,745400
8,858667	0,5	1,740550
8,867000	0,5	1,737800
8,875333	0,5	1,741400
8,883667	0,5	1,748100
8,892000	0,5	1,749000
8,900333	0,5	1,747600
8,908667	0,5	1,749350
8,917000	0,5	1,751700
8,925333	0,5	1,753550
8,933667	0,5	1,755350
8,942000	0,5	1,758050
8,950333	0,5	1,766650
8,958667	0,5	1,771800
8,967000	0,5	1,775850
8,975333	0,5	1,769850
8,983667	0,5	1,769000
8,992000	0,5	1,766200
9,000333	0,5	1,761500
9,008667	0,5	1,754300
9,017000	0,5	1,754850
9,025333	0,5	1,754550
9,033667	0,5	1,755800
9,042000	0,5	1,755150
9,050333	0,5	1,758100
9,058667	0,5	1,762850
9,067000	0,5	1,779350
9,075333	0,5	1,816500
9,083667	0,5	1,868850
9,092000	0,5	1,957450
9,100333	0,5	2,086100
9,108667	0,5	2,238650
9,117000	0,5	2,425150
9,125333	0,5	2,644850
9,133667	0,5	2,923450
9,142000	0,5	3,287950
9,150333	0,5	3,838450
9,158667	0,5	4,736150
9,167000	0,5	6,202750
9,175333	0,5	8,418200
9,183667	0,5	11,392150
9,192000	0,5	14,783900
9,200333	0,5	17,919600
9,208667	0,5	19,997000
9,217000	0,5	20,476850
9,225333	0,5	19,322800
9,233667	0,5	16,955850
9,242000	0,5	14,039750
9,250333	0,5	11,186150
9,258667	0,5	8,784350
9,267000	0,5	6,948100
9,275333	0,5	5,636050
9,283667	0,5	4,737500
9,292000	0,5	4,132750
9,300333	0,5	3,769000
9,308667	0,5	3,620850
9,317000	0,5	3,648500
9,325333	0,5	3,789400
9,333667	0,5	3,929050
9,342000	0,5	3,968950
9,350333	0,5	3,860800
9,358667	0,5	3,599200
9,367000	0,5	3,273450
9,375333	0,5	2,940950
9,383667	0,5	2,659200
9,392000	0,5	2,443950
9,400333	0,5	2,291350
9,408667	0,5	2,177900
9,417000	0,5	2,093500
9,425333	0,5	2,025350
9,433667	0,5	1,981650
9,442000	0,5	1,933850
9,450333	0,5	1,898850
9,458667	0,5	1,865150
9,467000	0,5	1,842500
9,475333	0,5	1,815050
9,483667	0,5	1,789400
9,492000	0,5	1,765150
9,500333	0,5	1,737650
9,508667	0,5	1,717850
9,517000	0,5	1,698100
9,525333	0,5	1,681800
9,533667	0,5	1,661400
9,542000	0,5	1,644050
9,550333	0,5	1,628100
9,558667	0,5	1,617000
9,567000	0,5	1,603000
9,575333	0,5	1,589000
9,583667	0,5	1,578200
9,592000	0,5	1,566950
9,600333	0,5	1,556250
9,608667	0,5	1,550100
9,617000	0,5	1,549750
9,625333	0,5	1,547850
9,633667	0,5	1,553300
9,642000	0,5	1,553550
9,650333	0,5	1,553000
9,658667	0,5	1,542750
9,667000	0,5	1,532100
9,675333	0,5	1,511900
9,683667	0,5	1,493500
9,692000	0,5	1,478800
9,700333	0,5	1,464950
9,708667	0,5	1,449350
9,717000	0,5	1,433600
9,725333	0,5	1,427600
9,733667	0,5	1,415200
9,742000	0,5	1,410150
9,750333	0,5	1,396700
9,758667	0,5	1,394600
9,767000	0,5	1,387300
9,775333	0,5	1,385350
9,783667	0,5	1,378500
9,792000	0,5	1,372600
9,800333	0,5	1,367250
9,808667	0,5	1,361400
9,817000	0,5	1,355600
9,825333	0,5	1,350500
9,833667	0,5	1,341800
9,842000	0,5	1,344600
9,850333	0,5	1,340650
9,858667	0,5	1,336450
9,867000	0,5	1,330900
9,875333	0,5	1,331300
9,883667	0,5	1,327500
9,892000	0,5	1,324950
9,900333	0,5	1,319800
9,908667	0,5	1,316050
9,917000	0,5	1,316800
9,925333	0,5	1,320550
9,933667	0,5	1,319400
9,942000	0,5	1,318000
9,950333	0,5	1,316400
9,958667	0,5	1,314400
9,967000	0,5	1,314850
9,975333	0,5	1,311800
9,983667	0,5	1,310200
9,992000	0,5	1,313500
10,000333	0,5	1,316650
10,008667	0,5	1,316300
10,017000	0,5	1,317800
10,025333	0,5	1,321450
10,033667	0,5	1,329800
10,042000	0,5	1,330500
10,050333	0,5	1,338450
10,058667	0,5	1,346400
10,067000	0,5	1,357550
10,075333	0,5	1,368100
10,083667	0,5	1,382050
10,092000	0,5	1,410850
10,100333	0,5	1,425800
10,108667	0,5	1,452700
10,117000	0,5	1,494600
10,125333	0,5	1,548500
10,133667	0,5	1,614100
10,142000	0,5	1,694900
10,150333	0,5	1,795750
10,158667	0,5	1,917600
10,167000	0,5	2,081000
10,175333	0,5	2,306950
10,183667	0,5	2,647400
10,192000	0,5	3,189050
10,200333	0,5	3,986300
10,208667	0,5	5,101200
10,217000	0,5	6,469150
10,225333	0,5	7,936300
10,233667	0,5	9,238000
10,242000	0,5	10,095750
10,250333	0,5	10,327750
10,258667	0,5	9,890250
10,267000	0,5	8,926200
10,275333	0,5	7,653350
10,283667	0,5	6,317000
10,292000	0,5	5,114700
10,300333	0,5	4,122600
10,308667	0,5	3,369700
10,317000	0,5	2,836550
10,325333	0,5	2,460700
10,333667	0,5	2,195750
10,342000	0,5	2,007100
10,350333	0,5	1,873650
10,358667	0,5	1,782950
10,367000	0,5	1,714100
10,375333	0,5	1,657550
10,383667	0,5	1,617350
10,392000	0,5	1,579250
10,400333	0,5	1,555850
10,408667	0,5	1,534200
10,417000	0,5	1,524550
10,425333	0,5	1,502200
10,433667	0,5	1,499000
10,442000	0,5	1,488250
10,450333	0,5	1,484250
10,458667	0,5	1,476000
10,467000	0,5	1,479950
10,475333	0,5	1,478750
10,483667	0,5	1,476300
10,492000	0,5	1,476250
10,500333	0,5	1,481300
10,508667	0,5	1,491550
10,517000	0,5	1,503850
10,525333	0,5	1,506400
10,533667	0,5	1,508850
10,542000	0,5	1,505900
10,550333	0,5	1,500900
10,558667	0,5	1,485500
10,567000	0,5	1,474650
10,575333	0,5	1,460000
10,583667	0,5	1,444500
10,592000	0,5	1,429950
10,600333	0,5	1,410750
10,608667	0,5	1,397800
10,617000	0,5	1,382600
10,625333	0,5	1,364050
10,633667	0,5	1,345150
10,642000	0,5	1,327750
10,650333	0,5	1,312750
10,658667	0,5	1,299750
10,667000	0,5	1,281200
10,675333	0,5	1,274650
10,683667	0,5	1,259700
10,692000	0,5	1,250300
10,700333	0,5	1,242900
10,708667	0,5	1,230800
10,717000	0,5	1,227950
10,725333	0,5	1,214000
10,733667	0,5	1,218700
10,742000	0,5	1,217000
10,750333	0,5	1,207850
10,758667	0,5	1,210450
10,767000	0,5	1,206700
10,775333	0,5	1,204550
10,783667	0,5	1,204800
10,792000	0,5	1,196900
10,800333	0,5	1,199300
10,808667	0,5	1,200650
10,817000	0,5	1,198300
10,825333	0,5	1,198600
10,833667	0,5	1,197600
10,842000	0,5	1,194800
10,850333	0,5	1,189050
10,858667	0,5	1,184350
10,867000	0,5	1,181450
10,875333	0,5	1,175600
10,883667	0,5	1,177850
10,892000	0,5	1,174350
10,900333	0,5	1,169750
10,908667	0,5	1,171900
10,917000	0,5	1,174100
10,925333	0,5	1,171850
10,933667	0,5	1,166850
10,942000	0,5	1,168200
10,950333	0,5	1,164350
10,958667	0,5	1,172700
10,967000	0,5	1,175200
10,975333	0,5	1,174100
10,983667	0,5	1,176100
10,992000	0,5	1,178950
11,000333	0,5	1,180600
11,008667	0,5	1,195000
11,017000	0,5	1,204800
11,025333	0,5	1,224850
11,033667	0,5	1,253200
11,042000	0,5	1,290950
11,050333	0,5	1,339750
11,058667	0,5	1,417500
11,067000	0,5	1,497750
11,075333	0,5	1,594200
11,083667	0,5	1,716600
11,092000	0,5	1,876750
11,100333	0,5	2,113800
11,108667	0,5	2,461400
11,117000	0,5	2,993300
11,125333	0,5	3,779150
11,133667	0,5	4,864100
11,142000	0,5	6,193950
11,150333	0,5	7,640400
11,158667	0,5	8,940700
11,167000	0,5	9,846950
11,175333	0,5	10,150950
11,183667	0,5	9,803250
11,192000	0,5	8,911050
11,200333	0,5	7,690950
11,208667	0,5	6,378500
11,217000	0,5	5,154550
11,225333	0,5	4,133450
11,233667	0,5	3,353450
11,242000	0,5	2,784150
11,250333	0,5	2,388200
11,258667	0,5	2,108150
11,267000	0,5	1,911550
11,275333	0,5	1,769500
11,283667	0,5	1,662350
11,292000	0,5	1,583500
11,300333	0,5	1,519700
11,308667	0,5	1,471650
11,317000	0,5	1,432650
11,325333	0,5	1,403100
11,333667	0,5	1,372700
11,342000	0,5	1,348100
11,350333	0,5	1,332850
11,358667	0,5	1,321150
11,367000	0,5	1,300300
11,375333	0,5	1,292550
11,383667	0,5	1,283300
11,392000	0,5	1,285550
11,400333	0,5	1,291050
11,408667	0,5	1,299650
11,417000	0,5	1,313650
11,425333	0,5	1,332200
11,433667	0,5	1,349700
11,442000	0,5	1,371450
11,450333	0,5	1,381850
11,458667	0,5	1,396000
11,467000	0,5	1,409950
11,475333	0,5	1,410800
11,483667	0,5	1,407550
11,492000	0,5	1,405000
11,500333	0,5	1,404100
11,508667	0,5	1,393200
11,517000	0,5	1,385000
11,525333	0,5	1,362850
11,533667	0,5	1,353100
11,542000	0,5	1,341850
11,550333	0,5	1,328100
11,558667	0,5	1,312400
11,567000	0,5	1,302000
11,575333	0,5	1,278500
11,583667	0,5	1,266550
11,592000	0,5	1,253600
11,600333	0,5	1,233500
11,608667	0,5	1,222250
11,617000	0,5	1,200900
11,625333	0,5	1,201300
11,633667	0,5	1,181050
11,642000	0,5	1,175700
11,650333	0,5	1,162750
11,658667	0,5	1,158200
11,667000	0,5	1,154950
11,675333	0,5	1,154150
11,683667	0,5	1,162150
11,692000	0,5	1,181800
11,700333	0,5	1,196650
11,708667	0,5	1,220500
11,717000	0,5	1,246400
11,725333	0,5	1,272850
11,733667	0,5	1,295600
11,742000	0,5	1,323900
11,750333	0,5	1,336300
11,758667	0,5	1,353250
11,767000	0,5	1,361150
11,775333	0,5	1,363050
11,783667	0,5	1,355500
11,792000	0,5	1,353400
11,800333	0,5	1,342800
11,808667	0,5	1,331950
11,817000	0,5	1,330500
11,825333	0,5	1,329800
11,833667	0,5	1,349800
11,842000	0,5	1,378650
11,850333	0,5	1,421350
11,858667	0,5	1,479650
11,867000	0,5	1,558900
11,875333	0,5	1,679800
11,883667	0,5	1,864100
11,892000	0,5	2,154200
11,900333	0,5	2,598100
11,908667	0,5	3,221950
11,917000	0,5	4,026050
11,925333	0,5	4,930950
11,933667	0,5	5,795600
11,942000	0,5	6,454450
11,950333	0,5	6,758800
11,958667	0,5	6,650000
11,967000	0,5	6,160200
11,975333	0,5	5,417150
11,983667	0,5	4,572800
11,992000	0,5	3,769300
12,000333	0,5	3,084000
12,008667	0,5	2,547650
12,017000	0,5	2,157550
12,025333	0,5	1,889200
12,033667	0,5	1,705800
12,042000	0,5	1,580100
12,050333	0,5	1,487150
12,058667	0,5	1,430700
12,067000	0,5	1,383000
12,075333	0,5	1,346200
12,083667	0,5	1,314850
12,092000	0,5	1,296800
12,100333	0,5	1,272800
12,108667	0,5	1,249750
12,117000	0,5	1,231100
12,125333	0,5	1,223100
12,133667	0,5	1,220500
12,142000	0,5	1,213350
12,150333	0,5	1,214600
12,158667	0,5	1,208900
12,167000	0,5	1,209250
12,175333	0,5	1,208250
12,183667	0,5	1,211950
12,192000	0,5	1,217600
12,200333	0,5	1,222300
12,208667	0,5	1,229200
12,217000	0,5	1,231500
12,225333	0,5	1,236400
12,233667	0,5	1,242900
12,242000	0,5	1,250750
12,250333	0,5	1,260950
12,258667	0,5	1,259150
12,267000	0,5	1,266550
12,275333	0,5	1,275500
12,283667	0,5	1,288050
12,292000	0,5	1,293200
12,300333	0,5	1,302050
12,308667	0,5	1,309200
12,317000	0,5	1,306050
12,325333	0,5	1,317300
12,333667	0,5	1,323900
12,342000	0,5	1,332950
12,350333	0,5	1,337800
12,358667	0,5	1,344250
12,367000	0,5	1,339500
12,375333	0,5	1,342950
12,383667	0,5	1,346300
12,392000	0,5	1,343100
12,400333	0,5	1,338900
12,408667	0,5	1,315900
12,417000	0,5	1,306800
12,425333	0,5	1,304800
12,433667	0,5	1,296700
12,442000	0,5	1,288300
12,450333	0,5	1,285250
12,458667	0,5	1,276600
12,467000	0,5	1,267800
12,475333	0,5	1,263050
12,483667	0,5	1,265100
12,492000	0,5	1,269700
12,500333	0,5	1,283500
12,508667	0,5	1,298850
12,517000	0,5	1,302700
12,525333	0,5	1,339250
12,533667	0,5	1,380600
12,542000	0,5	1,419050
12,550333	0,5	1,470250
12,558667	0,5	1,506000
12,567000	0,5	1,569450
12,575333	0,5	1,629600
12,583667	0,5	1,681650
12,592000	0,5	1,720700
12,600333	0,5	1,741550
12,608667	0,5	1,737850
12,617000	0,5	1,714550
12,625333	0,5	1,675850
12,633667	0,5	1,619050
12,642000	0,5	1,554250
12,650333	0,5	1,483450
12,658667	0,5	1,423300
12,667000	0,5	1,354650
12,675333	0,5	1,312600
12,683667	0,5	1,273400
12,692000	0,5	1,241750
12,700333	0,5	1,211500
12,708667	0,5	1,191700
12,717000	0,5	1,183550
12,725333	0,5	1,192750
12,733667	0,5	1,207000
12,742000	0,5	1,238150
12,750333	0,5	1,274750
12,758667	0,5	1,317450
12,767000	0,5	1,354200
12,775333	0,5	1,384200
12,783667	0,5	1,391250
12,792000	0,5	1,382300
12,800333	0,5	1,350000
12,808667	0,5	1,302400
12,817000	0,5	1,232200
12,825333	0,5	1,176450
12,833667	0,5	1,113600
12,842000	0,5	1,061050
12,850333	0,5	1,009600
12,858667	0,5	0,962350
12,867000	0,5	0,940250
12,875333	0,5	0,916850
12,883667	0,5	0,893550
12,892000	0,5	0,875450
12,900333	0,5	0,857300
12,908667	0,5	0,846700
12,917000	0,5	0,832450
12,925333	0,5	0,822100
12,933667	0,5	0,818200
12,942000	0,5	0,817250
12,950333	0,5	0,816450
12,958667	0,5	0,807650
12,967000	0,5	0,804700
12,975333	0,5	0,800050
12,983667	0,5	0,795350
12,992000	0,5	0,787100
13,000333	0,5	0,774150
13,008667	0,5	0,764450
13,017000	0,5	0,763050
13,025333	0,5	0,752550
13,033667	0,5	0,741150
13,042000	0,5	0,736100
13,050333	0,5	0,727850
13,058667	0,5	0,721800
13,067000	0,5	0,716450
13,075333	0,5	0,714800
13,083667	0,5	0,710950
13,092000	0,5	0,718700
13,100333	0,5	0,721100
13,108667	0,5	0,719550
13,117000	0,5	0,724400
13,125333	0,5	0,715300
13,133667	0,5	0,707200
13,142000	0,5	0,684800
13,150333	0,5	0,662400
13,158667	0,5	0,650650
13,167000	0,5	0,637800
13,175333	0,5	0,632650
13,183667	0,5	0,621700
13,192000	0,5	0,620850
13,200333	0,5	0,617300
13,208667	0,5	0,615100
13,217000	0,5	0,618450
13,225333	0,5	0,616700
13,233667	0,5	0,625900
13,242000	0,5	0,635400
13,250333	0,5	0,637850
13,258667	0,5	0,639150
13,267000	0,5	0,650350
13,275333	0,5	0,653850
13,283667	0,5	0,652150
13,292000	0,5	0,648750
13,300333	0,5	0,648750
13,308667	0,5	0,645900
13,317000	0,5	0,643700
13,325333	0,5	0,621450
13,333667	0,5	0,611600
13,342000	0,5	0,591300
13,350333	0,5	0,575650
13,358667	0,5	0,563200
13,367000	0,5	0,566150
13,375333	0,5	0,568700
13,383667	0,5	0,574900
13,392000	0,5	0,596350
13,400333	0,5	0,604100
13,408667	0,5	0,641900
13,417000	0,5	0,698650
13,425333	0,5	0,760100
13,433667	0,5	0,832550
13,442000	0,5	0,910700
13,450333	0,5	0,971500
13,458667	0,5	1,024150
13,467000	0,5	1,009600
13,475333	0,5	0,973650
13,483667	0,5	0,905150
13,492000	0,5	0,832800
13,500333	0,5	0,768600
13,508667	0,5	0,714700
13,517000	0,5	0,679050
13,525333	0,5	0,651700
13,533667	0,5	0,648600
13,542000	0,5	0,670100
13,550333	0,5	0,696250
13,558667	0,5	0,755300
13,567000	0,5	0,831400
13,575333	0,5	0,893000
13,583667	0,5	0,933900
13,592000	0,5	0,936450
13,600333	0,5	0,930950
13,608667	0,5	0,875450
13,617000	0,5	0,811000
13,625333	0,5	0,734800
13,633667	0,5	0,673650
13,642000	0,5	0,622900
13,650333	0,5	0,587150
13,658667	0,5	0,556550
13,667000	0,5	0,532600
13,675333	0,5	0,507600
13,683667	0,5	0,491300
13,692000	0,5	0,470750
13,700333	0,5	0,455950
13,708667	0,5	0,452250
13,717000	0,5	0,448050
13,725333	0,5	0,439900
13,733667	0,5	0,421250
13,742000	0,5	0,418300
13,750333	0,5	0,420050
13,758667	0,5	0,422000
13,767000	0,5	0,413450
13,775333	0,5	0,412150
13,783667	0,5	0,410400
13,792000	0,5	0,411950
13,800333	0,5	0,406650
13,808667	0,5	0,407000
13,817000	0,5	0,399650
13,825333	0,5	0,389200
13,833667	0,5	0,389800
13,842000	0,5	0,381900
13,850333	0,5	0,385900
13,858667	0,5	0,389700
13,867000	0,5	0,397200
13,875333	0,5	0,398500
13,883667	0,5	0,391550
13,892000	0,5	0,403100
13,900333	0,5	0,431000
13,908667	0,5	0,455100
13,917000	0,5	0,471600
13,925333	0,5	0,490850
13,933667	0,5	0,488200
13,942000	0,5	0,481850
13,950333	0,5	0,471900
13,958667	0,5	0,451850
13,967000	0,5	0,427350
13,975333	0,5	0,413750
13,983667	0,5	0,418000
13,992000	0,5	0,394300
14,000333	0,5	0,404150
14,008667	0,5	0,399650
14,017000	0,5	0,398400
14,025333	0,5	0,380050
14,033667	0,5	0,373600
14,042000	0,5	0,380600
14,050333	0,5	0,384700
14,058667	0,5	0,389250
14,067000	0,5	0,388900
14,075333	0,5	0,407500
14,083667	0,5	0,424200
14,092000	0,5	0,478350
14,100333	0,5	0,553100
14,108667	0,5	0,659150
14,117000	0,5	0,773400
14,125333	0,5	0,871500
14,133667	0,5	0,916300
14,142000	0,5	0,917000
14,150333	0,5	0,882100
14,158667	0,5	0,806400
14,167000	0,5	0,724050
14,175333	0,5	0,643750
14,183667	0,5	0,584500
14,192000	0,5	0,563300
14,200333	0,5	0,579550
14,208667	0,5	0,620200
14,217000	0,5	0,683100
14,225333	0,5	0,772300
14,233667	0,5	0,839300
14,242000	0,5	0,873600
14,250333	0,5	0,873800
14,258667	0,5	0,829500
14,267000	0,5	0,766400
14,275333	0,5	0,693950
14,283667	0,5	0,624250
14,292000	0,5	0,564250
14,300333	0,5	0,533300
14,308667	0,5	0,501600
14,317000	0,5	0,476850
14,325333	0,5	0,447650
14,333667	0,5	0,421500
14,342000	0,5	0,399100
14,350333	0,5	0,392900
14,358667	0,5	0,378750
14,367000	0,5	0,367000
14,375333	0,5	0,357850
14,383667	0,5	0,351250
14,392000	0,5	0,353650
14,400333	0,5	0,347850
14,408667	0,5	0,349400
14,417000	0,5	0,348150
14,425333	0,5	0,352300
14,433667	0,5	0,344400
14,442000	0,5	0,347800
14,450333	0,5	0,366850
14,458667	0,5	0,379600
14,467000	0,5	0,385100
14,475333	0,5	0,385400
14,483667	0,5	0,385450
14,492000	0,5	0,384450
14,500333	0,5	0,369250
14,508667	0,5	0,355900
14,517000	0,5	0,337900
14,525333	0,5	0,319650
14,533667	0,5	0,293350
14,542000	0,5	0,269200
14,550333	0,5	0,257500
14,558667	0,5	0,240100
14,567000	0,5	0,235750
14,575333	0,5	0,220700
14,583667	0,5	0,212800
14,592000	0,5	0,216650
14,600333	0,5	0,220400
14,608667	0,5	0,214600
14,617000	0,5	0,201050
14,625333	0,5	0,191500
14,633667	0,5	0,199950
14,642000	0,5	0,192850
14,650333	0,5	0,208300
14,658667	0,5	0,218650
14,667000	0,5	0,265500
14,675333	0,5	0,327400
14,683667	0,5	0,433350
14,692000	0,5	0,549300
14,700333	0,5	0,659600
14,708667	0,5	0,747050
14,717000	0,5	0,777850
14,725333	0,5	0,730550
14,733667	0,5	0,676600
14,742000	0,5	0,592200
14,750333	0,5	0,515100
14,758667	0,5	0,466050
14,767000	0,5	0,447750
14,775333	0,5	0,489300
14,783667	0,5	0,562350
14,792000	0,5	0,640600
14,800333	0,5	0,695950
14,808667	0,5	0,724300
14,817000	0,5	0,690950
14,825333	0,5	0,624900
14,833667	0,5	0,536100
14,842000	0,5	0,455850
14,850333	0,5	0,372050
14,858667	0,5	0,313200
14,867000	0,5	0,272150
14,875333	0,5	0,227650
14,883667	0,5	0,219200
14,892000	0,5	0,207000
14,900333	0,5	0,189650
14,908667	0,5	0,177500
14,917000	0,5	0,161100
14,925333	0,5	0,176050
14,933667	0,5	0,189600
14,942000	0,5	0,194400
14,950333	0,5	0,196100
14,958667	0,5	0,193650
14,967000	0,5	0,188550
14,975333	0,5	0,171000
14,983667	0,5	0,168000
14,992000	0,5	0,154400
15,000333	0,5	0,141850
15,008667	0,5	0,139500
15,017000	0,5	0,132400
15,025333	0,5	0,108550
15,033667	0,5	0,101000
15,042000	0,5	0,073600
15,050333	0,5	0,042400
15,058667	0,5	0,012350
15,067000	0,5	-0,011900
15,075333	0,5	-0,008950
15,083667	0,5	-0,009400
15,092000	0,5	-0,020150
15,100333	0,5	-0,023900
15,108667	0,5	-0,025400
15,117000	0,5	-0,036300
15,125333	0,5	-0,025450
15,133667	0,5	-0,031250
15,142000	0,5	-0,027550
15,150333	0,5	-0,032450
15,158667	0,5	-0,008500
15,167000	0,5	-0,004200
15,175333	0,5	0,043950
15,183667	0,5	0,106800
15,192000	0,5	0,196250
15,200333	0,5	0,307450
15,208667	0,5	0,426800
15,217000	0,5	0,529400
15,225333	0,5	0,599100
15,233667	0,5	0,602200
15,242000	0,5	0,561850
15,250333	0,5	0,493350
15,258667	0,5	0,437000
15,267000	0,5	0,414650
15,275333	0,5	0,438450
15,283667	0,5	0,494950
15,292000	0,5	0,554050
15,300333	0,5	0,613650
15,308667	0,5	0,612950
15,317000	0,5	0,568500
15,325333	0,5	0,495650
15,333667	0,5	0,410050
15,342000	0,5	0,330050
15,350333	0,5	0,256950
15,358667	0,5	0,206600
15,367000	0,5	0,194150
15,375333	0,5	0,191750
15,383667	0,5	0,190450
15,392000	0,5	0,185700
15,400333	0,5	0,177600
15,408667	0,5	0,170650
15,417000	0,5	0,154950
15,425333	0,5	0,159300
15,433667	0,5	0,143350
15,442000	0,5	0,140000
15,450333	0,5	0,137650
15,458667	0,5	0,117350
15,467000	0,5	0,112300
15,475333	0,5	0,109550
15,483667	0,5	0,085500
15,492000	0,5	0,065150
15,500333	0,5	0,020100
15,508667	0,5	-0,004850
15,517000	0,5	-0,031350
15,525333	0,5	-0,042750
15,533667	0,5	-0,070100
15,542000	0,5	-0,076850
15,550333	0,5	-0,095550
15,558667	0,5	-0,114050
15,567000	0,5	-0,127800
15,575333	0,5	-0,156150
15,583667	0,5	-0,168900
15,592000	0,5	-0,185000
15,600333	0,5	-0,182200
15,608667	0,5	-0,204600
15,617000	0,5	-0,182600
15,625333	0,5	-0,153800
15,633667	0,5	-0,096250
15,642000	0,5	-0,024550
15,650333	0,5	0,080250
15,658667	0,5	0,216150
15,667000	0,5	0,361900
15,675333	0,5	0,447850
15,683667	0,5	0,480500
15,692000	0,5	0,453650
15,700333	0,5	0,415050
15,708667	0,5	0,377950
15,717000	0,5	0,381600
15,725333	0,5	0,409500
15,733667	0,5	0,443450
15,742000	0,5	0,464650
15,750333	0,5	0,440700
15,758667	0,5	0,358900
15,767000	0,5	0,289800
15,775333	0,5	0,205400
15,783667	0,5	0,116300
15,792000	0,5	0,037750
15,800333	0,5	-0,034200
15,808667	0,5	-0,053500
15,817000	0,5	-0,085300
15,825333	0,5	-0,100600
15,833667	0,5	-0,109350
15,842000	0,5	-0,097050
15,850333	0,5	-0,088950
15,858667	0,5	-0,084350
15,867000	0,5	-0,078050
15,875333	0,5	-0,081000
15,883667	0,5	-0,087750
15,892000	0,5	-0,106450
15,900333	0,5	-0,144750
15,908667	0,5	-0,168900
15,917000	0,5	-0,187950
15,925333	0,5	-0,227300
15,933667	0,5	-0,258950
15,942000	0,5	-0,306200
15,950333	0,5	-0,328950
15,958667	0,5	-0,345750
15,967000	0,5	-0,351750
15,975333	0,5	-0,367350
15,983667	0,5	-0,374150
15,992000	0,5	-0,382200
16,000333	0,5	-0,388850
16,008667	0,5	-0,387750
16,017000	0,5	-0,377900
16,025333	0,5	-0,362050
16,033667	0,5	-0,315800
16,042000	0,5	-0,219850
16,050333	0,5	-0,108950
16,058667	0,5	0,040400
16,067000	0,5	0,173900
16,075333	0,5	0,262750
16,083667	0,5	0,298100
16,092000	0,5	0,285550
16,100333	0,5	0,275500
16,108667	0,5	0,288600
16,117000	0,5	0,300800
16,125333	0,5	0,319200
16,133667	0,5	0,306750
16,142000	0,5	0,253800
16,150333	0,5	0,163350
16,158667	0,5	0,071900
16,167000	0,5	-0,032000
16,175333	0,5	-0,110750
16,183667	0,5	-0,173600
16,192000	0,5	-0,208550
16,200333	0,5	-0,246900
16,208667	0,5	-0,240400
16,217000	0,5	-0,249700
16,225333	0,5	-0,251400
16,233667	0,5	-0,261050
16,242000	0,5	-0,284200
16,250333	0,5	-0,272450
16,258667	0,5	-0,280800
16,267000	0,5	-0,299450
16,275333	0,5	-0,313200
16,283667	0,5	-0,322350
16,292000	0,5	-0,341500
16,300333	0,5	-0,361150
16,308667	0,5	-0,383750
16,317000	0,5	-0,397350
16,325333	0,5	-0,416650
16,333667	0,5	-0,425200
16,342000	0,5	-0,452400
16,350333	0,5	-0,462700
16,358667	0,5	-0,468000
16,367000	0,5	-0,479550
16,375333	0,5	-0,491700
16,383667	0,5	-0,501400
16,392000	0,5	-0,484450
16,400333	0,5	-0,434600
16,408667	0,5	-0,338400
16,417000	0,5	-0,218850
16,425333	0,5	-0,081900
16,433667	0,5	0,049600
16,442000	0,5	0,146550
16,450333	0,5	0,195150
16,458667	0,5	0,218100
16,467000	0,5	0,202100
16,475333	0,5	0,204800
16,483667	0,5	0,191350
16,492000	0,5	0,165000
16,500333	0,5	0,124850
16,508667	0,5	0,061700
16,517000	0,5	-0,024900
16,525333	0,5	-0,107150
16,533667	0,5	-0,185400
16,542000	0,5	-0,224400
16,550333	0,5	-0,235300
16,558667	0,5	-0,238850
16,567000	0,5	-0,247050
16,575333	0,5	-0,232450
16,583667	0,5	-0,230150
16,592000	0,5	-0,213200
16,600333	0,5	-0,192750
16,608667	0,5	-0,172500
16,617000	0,5	-0,145600
16,625333	0,5	-0,126850
16,633667	0,5	-0,093500
16,642000	0,5	-0,063450
16,650333	0,5	-0,016500
16,658667	0,5	0,017050
16,667000	0,5	0,030750
16,675333	0,5	0,016200
16,683667	0,5	0,012350
16,692000	0,5	-0,003500
16,700333	0,5	-0,017800
16,708667	0,5	-0,059550
16,717000	0,5	-0,099150
16,725333	0,5	-0,127750
16,733667	0,5	-0,133050
16,742000	0,5	-0,111850
16,750333	0,5	-0,054000
16,758667	0,5	0,033500
16,767000	0,5	0,112300
16,775333	0,5	0,183800
16,783667	0,5	0,207750
16,792000	0,5	0,219300
16,800333	0,5	0,218150
16,808667	0,5	0,198350
16,817000	0,5	0,159900
16,825333	0,5	0,102650
16,833667	0,5	0,036700
16,842000	0,5	-0,025550
16,850333	0,5	-0,112400
16,858667	0,5	-0,175050
16,867000	0,5	-0,239000
16,875333	0,5	-0,279150
16,883667	0,5	-0,307300
16,892000	0,5	-0,316250
16,900333	0,5	-0,333850
16,908667	0,5	-0,345500
16,917000	0,5	-0,349950
16,925333	0,5	-0,356300
16,933667	0,5	-0,393250
16,942000	0,5	-0,392800
16,950333	0,5	-0,409650
16,958667	0,5	-0,430900
16,967000	0,5	-0,458750
16,975333	0,5	-0,516800
16,983667	0,5	-0,519250
16,992000	0,5	-0,523150
17,000333	0,5	-0,520950
17,008667	0,5	-0,530400
17,017000	0,5	-0,512150
17,025333	0,5	-0,490700
17,033667	0,5	-0,441700
17,042000	0,5	-0,378600
17,050333	0,5	-0,294850
17,058667	0,5	-0,183850
17,067000	0,5	-0,062700
17,075333	0,5	0,039100
17,083667	0,5	0,113600
17,092000	0,5	0,191850
17,100333	0,5	0,249600
17,108667	0,5	0,282350
17,117000	0,5	0,310300
17,125333	0,5	0,348700
17,133667	0,5	0,417100
17,142000	0,5	0,522800
17,150333	0,5	0,659000
17,158667	0,5	0,862050
17,167000	0,5	1,122650
17,175333	0,5	1,416000
17,183667	0,5	1,737800
17,192000	0,5	2,043200
17,200333	0,5	2,300150
17,208667	0,5	2,482850
17,217000	0,5	2,583150
17,225333	0,5	2,567850
17,233667	0,5	2,466400
17,242000	0,5	2,299350
17,250333	0,5	2,058800
17,258667	0,5	1,791400
17,267000	0,5	1,501150
17,275333	0,5	1,224600
17,283667	0,5	1,013700
17,292000	0,5	0,814700
17,300333	0,5	0,664100
17,308667	0,5	0,551650
17,317000	0,5	0,492550
17,325333	0,5	0,465250
17,333667	0,5	0,480300
17,342000	0,5	0,498300
17,350333	0,5	0,502200
17,358667	0,5	0,499700
17,367000	0,5	0,481350
17,375333	0,5	0,434750
17,383667	0,5	0,397100
17,392000	0,5	0,342400
17,400333	0,5	0,277200
17,408667	0,5	0,198550
17,417000	0,5	0,147750
17,425333	0,5	0,131900
17,433667	0,5	0,135700
17,442000	0,5	0,166200
17,450333	0,5	0,206900
17,458667	0,5	0,265400
17,467000	0,5	0,320200
17,475333	0,5	0,384900
17,483667	0,5	0,432750
17,492000	0,5	0,472750
17,500333	0,5	0,490300
17,508667	0,5	0,495100
17,517000	0,5	0,445600
17,525333	0,5	0,389550
17,533667	0,5	0,315000
17,542000	0,5	0,236700
17,550333	0,5	0,163600
17,558667	0,5	0,092050
17,567000	0,5	0,063100
17,575333	0,5	0,075450
17,583667	0,5	0,081000
17,592000	0,5	0,088750
17,600333	0,5	0,099350
17,608667	0,5	0,092450
17,617000	0,5	0,052600
17,625333	0,5	0,002000
17,633667	0,5	-0,056400
17,642000	0,5	-0,136900
17,650333	0,5	-0,193100
17,658667	0,5	-0,247950
17,667000	0,5	-0,306400
17,675333	0,5	-0,341300
17,683667	0,5	-0,364950
17,692000	0,5	-0,402650
17,700333	0,5	-0,426250
17,708667	0,5	-0,474450
17,717000	0,5	-0,495000
17,725333	0,5	-0,515150
17,733667	0,5	-0,524300
17,742000	0,5	-0,541150
17,750333	0,5	-0,550850
17,758667	0,5	-0,563350
17,767000	0,5	-0,562900
17,775333	0,5	-0,550850
17,783667	0,5	-0,533850
17,792000	0,5	-0,495250
17,800333	0,5	-0,435050
17,808667	0,5	-0,370450
17,817000	0,5	-0,336300
17,825333	0,5	-0,287150
17,833667	0,5	-0,275950
17,842000	0,5	-0,287750
17,850333	0,5	-0,334100
17,858667	0,5	-0,384450
17,867000	0,5	-0,419950
17,875333	0,5	-0,449250
17,883667	0,5	-0,496800
17,892000	0,5	-0,529500
17,900333	0,5	-0,550800
17,908667	0,5	-0,571900
17,917000	0,5	-0,597650
17,925333	0,5	-0,613750
17,933667	0,5	-0,627550
17,942000	0,5	-0,647850
17,950333	0,5	-0,638150
17,958667	0,5	-0,655350
17,967000	0,5	-0,655300
17,975333	0,5	-0,646800
17,983667	0,5	-0,626350
17,992000	0,5	-0,617050
18,000333	0,5	-0,586500
18,008667	0,5	-0,543050
18,017000	0,5	-0,471500
18,025333	0,5	-0,437050
18,033667	0,5	-0,421400
18,042000	0,5	-0,430450
18,050333	0,5	-0,451100
18,058667	0,5	-0,490000
18,067000	0,5	-0,530850
18,075333	0,5	-0,559900
18,083667	0,5	-0,598200
18,092000	0,5	-0,618100
18,100333	0,5	-0,628150
18,108667	0,5	-0,668050
18,117000	0,5	-0,664950
18,125333	0,5	-0,674550
18,133667	0,5	-0,689200
18,142000	0,5	-0,700300
18,150333	0,5	-0,729250
18,158667	0,5	-0,721250
18,167000	0,5	-0,704550
18,175333	0,5	-0,673700
18,183667	0,5	-0,635700
18,192000	0,5	-0,590150
18,200333	0,5	-0,550500
18,208667	0,5	-0,505450
18,217000	0,5	-0,487950
18,225333	0,5	-0,479450
18,233667	0,5	-0,508500
18,242000	0,5	-0,534750
18,250333	0,5	-0,570050
18,258667	0,5	-0,611700
18,267000	0,5	-0,618000
18,275333	0,5	-0,636900
18,283667	0,5	-0,654600
18,292000	0,5	-0,695450
18,300333	0,5	-0,719400
18,308667	0,5	-0,717900
18,317000	0,5	-0,714700
18,325333	0,5	-0,719750
18,333667	0,5	-0,701750
18,342000	0,5	-0,689750
18,350333	0,5	-0,668550
18,358667	0,5	-0,645000
18,367000	0,5	-0,608700
18,375333	0,5	-0,581900
18,383667	0,5	-0,561450
18,392000	0,5	-0,550250
18,400333	0,5	-0,560100
18,408667	0,5	-0,585550
18,417000	0,5	-0,601900
18,425333	0,5	-0,629450
18,433667	0,5	-0,660450
18,442000	0,5	-0,688750
18,450333	0,5	-0,717600
18,458667	0,5	-0,712100
18,467000	0,5	-0,722500
18,475333	0,5	-0,715450
18,483667	0,5	-0,726850
18,492000	0,5	-0,725750
18,500333	0,5	-0,726250
18,508667	0,5	-0,707700
18,517000	0,5	-0,698150
18,525333	0,5	-0,688050
18,533667	0,5	-0,661650
18,542000	0,5	-0,641500
18,550333	0,5	-0,637550
18,558667	0,5	-0,626700
18,567000	0,5	-0,633950
18,575333	0,5	-0,650650
18,583667	0,5	-0,694500
18,592000	0,5	-0,735900
18,600333	0,5	-0,755450
18,608667	0,5	-0,767750
18,617000	0,5	-0,770050
18,625333	0,5	-0,778700
18,633667	0,5	-0,782750
18,642000	0,5	-0,785050
18,650333	0,5	-0,781550
18,658667	0,5	-0,782150
18,667000	0,5	-0,785250
18,675333	0,5	-0,776150
18,683667	0,5	-0,732800
18,692000	0,5	-0,722000
18,700333	0,5	-0,705400
18,708667	0,5	-0,684900
18,717000	0,5	-0,690700
18,725333	0,5	-0,712250
18,733667	0,5	-0,748100
18,742000	0,5	-0,762750
18,750333	0,5	-0,764350
18,758667	0,5	-0,758000
18,767000	0,5	-0,756900
18,775333	0,5	-0,748950
18,783667	0,5	-0,731650
18,792000	0,5	-0,718200
18,800333	0,5	-0,706800
18,808667	0,5	-0,669350
18,817000	0,5	-0,658250
18,825333	0,5	-0,635950
18,833667	0,5	-0,632200
18,842000	0,5	-0,660650
18,850333	0,5	-0,690000
18,858667	0,5	-0,721250
18,867000	0,5	-0,768950
18,875333	0,5	-0,813100
18,883667	0,5	-0,877900
18,892000	0,5	-0,896850
18,900333	0,5	-0,913950
18,908667	0,5	-0,920000
18,917000	0,5	-0,921000
18,925333	0,5	-0,912350
18,933667	0,5	-0,906050
18,942000	0,5	-0,905050
18,950333	0,5	-0,889050
18,958667	0,5	-0,903050
18,967000	0,5	-0,914550
18,975333	0,5	-0,928300
18,983667	0,5	-0,949400
18,992000	0,5	-0,992100
19,000333	0,5	-1,002900
19,008667	0,5	-1,013300
19,017000	0,5	-1,024350
19,025333	0,5	-1,038350
19,033667	0,5	-1,056750
19,042000	0,5	-1,041050
19,050333	0,5	-1,030450
19,058667	0,5	-1,034150
19,067000	0,5	-1,025900
19,075333	0,5	-1,032750
19,083667	0,5	-1,034150
19,092000	0,5	-1,035600
19,100333	0,5	-1,046000
19,108667	0,5	-1,048400
19,117000	0,5	-1,063250
19,125333	0,5	-1,047850
19,133667	0,5	-1,063200
19,142000	0,5	-1,068100
19,150333	0,5	-1,072000
19,158667	0,5	-1,080900
19,167000	0,5	-1,092550
19,175333	0,5	-1,119850
19,183667	0,5	-1,144950
19,192000	0,5	-1,144550
19,200333	0,5	-1,161150
19,208667	0,5	-1,179750
19,217000	0,5	-1,193400
19,225333	0,5	-1,200500
19,233667	0,5	-1,219500
19,242000	0,5	-1,221800
19,250333	0,5	-1,229950
19,258667	0,5	-1,227950
19,267000	0,5	-1,222200
19,275333	0,5	-1,224250
19,283667	0,5	-1,242000
19,292000	0,5	-1,248500
19,300333	0,5	-1,257950
19,308667	0,5	-1,269650
19,317000	0,5	-1,290850
19,325333	0,5	-1,318900
19,333667	0,5	-1,317600
19,342000	0,5	-1,313450
19,350333	0,5	-1,308100
19,358667	0,5	-1,323050
19,367000	0,5	-1,324400
19,375333	0,5	-1,337150
19,383667	0,5	-1,338800
19,392000	0,5	-1,354350
19,400333	0,5	-1,358550
19,408667	0,5	-1,377700
19,417000	0,5	-1,379350
19,425333	0,5	-1,380500
19,433667	0,5	-1,395600
19,442000	0,5	-1,387000
19,450333	0,5	-1,395800
19,458667	0,5	-1,393100
19,467000	0,5	-1,420400
19,475333	0,5	-1,446500
19,483667	0,5	-1,453450
19,492000	0,5	-1,447700
19,500333	0,5	-1,458000
19,508667	0,5	-1,458650
19,517000	0,5	-1,464100
19,525333	0,5	-1,458000
19,533667	0,5	-1,466500
19,542000	0,5	-1,469200
19,550333	0,5	-1,481300
19,558667	0,5	-1,492150
19,567000	0,5	-1,483100
19,575333	0,5	-1,497500
19,583667	0,5	-1,500750
19,592000	0,5	-1,509200
19,600333	0,5	-1,514200
19,608667	0,5	-1,555450
19,617000	0,5	-1,580750
19,625333	0,5	-1,598450
19,633667	0,5	-1,594800
19,642000	0,5	-1,606250
19,650333	0,5	-1,609100
19,658667	0,5	-1,615400
19,667000	0,5	-1,612300
19,675333	0,5	-1,627800
19,683667	0,5	-1,625500
19,692000	0,5	-1,628700
19,700333	0,5	-1,641050
19,708667	0,5	-1,632800
19,717000	0,5	-1,637450
19,725333	0,5	-1,667500
19,733667	0,5	-1,665900
19,742000	0,5	-1,671050
19,750333	0,5	-1,690700
19,758667	0,5	-1,714700
19,767000	0,5	-1,749750
19,775333	0,5	-1,747000
19,783667	0,5	-1,765850
19,792000	0,5	-1,767500
19,800333	0,5	-1,792900
19,808667	0,5	-1,802450
19,817000	0,5	-1,831600
19,825333	0,5	-1,840000
19,833667	0,5	-1,854650
19,842000	0,5	-1,864550
19,850333	0,5	-1,875900
19,858667	0,5	-1,867600
19,867000	0,5	-1,897850
19,875333	0,5	-1,902200
19,883667	0,5	-1,913550
19,892000	0,5	-1,927400
19,900333	0,5	-1,941400
19,908667	0,5	-1,979200
19,917000	0,5	-1,995700
19,925333	0,5	-1,991250
19,933667	0,5	-1,998250
19,942000	0,5	-2,010900
19,950333	0,5	-2,012650
19,958667	0,5	-2,020200
19,967000	0,5	-2,023400
19,975333	0,5	-2,029750
19,983667	0,5	-2,029500
19,992000	0,5	-2,037000
20,000333	0,5	-2,041600
20,008667	0,5	-2,043900
20,017000	0,5	-2,085900
20,025333	0,5	-2,086650
20,033667	0,5	-2,094600
20,042000	0,5	-2,114200
20,050333	0,5	-2,151550
20,058667	0,5	-2,189800
20,067000	0,5	-2,201450
20,075333	0,5	-2,202400
20,083667	0,5	-2,226600
20,092000	0,5	-2,240350
20,100333	0,5	-2,257150
20,108667	0,5	-2,269750
20,117000	0,5	-2,290600
20,125333	0,5	-2,305200
20,133667	0,5	-2,321800
20,142000	0,5	-2,333850
20,150333	0,5	-2,333350
20,158667	0,5	-2,343200
20,167000	0,5	-2,366150
20,175333	0,5	-2,364950
20,183667	0,5	-2,375200
20,192000	0,5	-2,389300
20,200333	0,5	-2,409650
20,208667	0,5	-2,440600
20,217000	0,5	-2,424950
20,225333	0,5	-2,432000
20,233667	0,5	-2,429050
20,242000	0,5	-2,440100
20,250333	0,5	-2,437650
20,258667	0,5	-2,462250
20,267000	0,5	-2,465750
20,275333	0,5	-2,483400
20,283667	0,5	-2,493250
20,292000	0,5	-2,510350
20,300333	0,5	-2,514050
20,308667	0,5	-2,537450
20,317000	0,5	-2,543700
20,325333	0,5	-2,559750
20,333667	0,5	-2,569650
20,342000	0,5	-2,609550
20,350333	0,5	-2,639800
20,358667	0,5	-2,662150
20,367000	0,5	-2,678700
20,375333	0,5	-2,689350
20,383667	0,5	-2,720600
20,392000	0,5	-2,732600
20,400333	0,5	-2,761450
20,408667	0,5	-2,776700
20,417000	0,5	-2,798700
20,425333	0,5	-2,823600
20,433667	0,5	-2,858650
20,442000	0,5	-2,848050
20,450333	0,5	-2,869900
20,458667	0,5	-2,893800
20,467000	0,5	-2,908050
20,475333	0,5	-2,926000
20,483667	0,5	-2,951350
20,492000	0,5	-2,988100
20,500333	0,5	-3,028800
20,508667	0,5	-3,058000
20,517000	0,5	-3,064900
20,525333	0,5	-3,104750
20,533667	0,5	-3,109800
20,542000	0,5	-3,120800
20,550333	0,5	-3,121200
20,558667	0,5	-3,124550
20,567000	0,5	-3,115350
20,575333	0,5	-3,151250
20,583667	0,5	-3,166850
20,592000	0,5	-3,189450
20,600333	0,5	-3,234800
20,608667	0,5	-3,290350
20,617000	0,5	-3,336100
20,625333	0,5	-3,399000
20,633667	0,5	-3,445100
20,642000	0,5	-3,445850
20,650333	0,5	-3,562000
20,658667	0,5	-3,586050
20,667000	0,5	-3,621750
20,675333	0,5	-3,661850
20,683667	0,5	-3,692050
20,692000	0,5	-3,725950
20,700333	0,5	-3,755450
20,708667	0,5	-3,769250
20,717000	0,5	-3,774400
20,725333	0,5	-3,780550
20,733667	0,5	-3,744500
20,742000	0,5	-3,714550
20,750333	0,5	-3,724800
20,758667	0,5	-3,753500
20,767000	0,5	-3,810150
20,775333	0,5	-3,875500
20,783667	0,5	-3,961900
20,792000	0,5	-4,053200
20,800333	0,5	-4,124800
20,808667	0,5	-4,172800
20,817000	0,5	-4,224200
20,825333	0,5	-4,271100
20,833667	0,5	-4,318900
20,842000	0,5	-4,371350
20,850333	0,5	-4,400600
20,858667	0,5	-4,444400
20,867000	0,5	-4,482550
20,875333	0,5	-4,527700
20,883667	0,5	-4,524050
20,892000	0,5	-4,547650
20,900333	0,5	-4,568300
20,908667	0,5	-4,599150
20,917000	0,5	-4,631350
20,925333	0,5	-4,681150
20,933667	0,5	-4,765150
20,942000	0,5	-4,808150
20,950333	0,5	-4,849050
20,958667	0,5	-4,898950
20,967000	0,5	-4,944150
20,975333	0,5	-4,976850
20,983667	0,5	-5,013850
20,992000	0,5	-5,053550
21,000333	0,5	-5,088300
21,008667	0,5	-5,118700
21,017000	0,5	-5,161400
21,025333	0,5	-5,169700
21,033667	0,5	-5,181450
21,042000	0,5	-5,221200
21,050333	0,5	-5,252150
21,058667	0,5	-5,280950
21,067000	0,5	-5,318400
21,075333	0,5	-5,357800
21,083667	0,5	-5,422550
21,092000	0,5	-5,446050
21,100333	0,5	-5,463700
21,108667	0,5	-5,495500
21,117000	0,5	-5,535500
21,125333	0,5	-5,567500
21,133667	0,5	-5,607650
21,142000	0,5	-5,641200
21,150333	0,5	-5,668200
21,158667	0,5	-5,703850
21,167000	0,5	-5,723600
21,175333	0,5	-5,725500
21,183667	0,5	-5,726500
21,192000	0,5	-5,763950
21,200333	0,5	-5,781700
21,208667	0,5	-5,813300
21,217000	0,5	-5,846800
21,225333	0,5	-5,894250
21,233667	0,5	-5,937500
21,242000	0,5	-5,946300
21,250333	0,5	-5,962300
21,258667	0,5	-5,974100
21,267000	0,5	-5,994700
21,275333	0,5	-6,003200
21,283667	0,5	-6,022200
21,292000	0,5	-6,025150
21,300333	0,5	-6,027050
21,308667	0,5	-6,030350
21,317000	0,5	-6,042850
21,325333	0,5	-6,031700
21,333667	0,5	-6,049300
21,342000	0,5	-6,084800
21,350333	0,5	-6,121500
21,358667	0,5	-6,153750
21,367000	0,5	-6,198100
21,375333	0,5	-6,246300
21,383667	0,5	-6,264300
21,392000	0,5	-6,282200
21,400333	0,5	-6,296900
21,408667	0,5	-6,316600
21,417000	0,5	-6,331100
21,425333	0,5	-6,348450
21,433667	0,5	-6,361150
21,442000	0,5	-6,387100
21,450333	0,5	-6,390400
21,458667	0,5	-6,409050
21,467000	0,5	-6,389050
21,475333	0,5	-6,382700
21,483667	0,5	-6,404250
21,492000	0,5	-6,420800
21,500333	0,5	-6,438800
21,508667	0,5	-6,458100
21,517000	0,5	-6,494250
21,525333	0,5	-6,534800
21,533667	0,5	-6,541600
21,542000	0,5	-6,559350
21,550333	0,5	-6,566750
21,558667	0,5	-6,566950
21,567000	0,5	-6,585700
21,575333	0,5	-6,593150
21,583667	0,5	-6,612100
21,592000	0,5	-6,612750
21,600333	0,5	-6,630400
21,608667	0,5	-6,620800
21,617000	0,5	-6,598450
21,625333	0,5	-6,596950
21,633667	0,5	-6,597600
21,642000	0,5	-6,594400
21,650333	0,5	-6,613550
21,658667	0,5	-6,630950
21,667000	0,5	-6,631250
21,675333	0,5	-6,634500
21,683667	0,5	-6,627450
21,692000	0,5	-6,638900
21,700333	0,5	-6,658500
21,708667	0,5	-6,678100
21,717000	0,5	-6,705450
21,725333	0,5	-6,713800
21,733667	0,5	-6,728900
21,742000	0,5	-6,751200
21,750333	0,5	-6,771150
21,758667	0,5	-6,769750
21,767000	0,5	-6,769350
21,775333	0,5	-6,807700
21,783667	0,5	-6,819950
21,792000	0,5	-6,837200
21,800333	0,5	-6,869300
21,808667	0,5	-6,909850
21,817000	0,5	-6,936500
21,825333	0,5	-6,946050
21,833667	0,5	-6,953500
21,842000	0,5	-6,966800
21,850333	0,5	-6,988050
21,858667	0,5	-6,989450
21,867000	0,5	-7,006950
21,875333	0,5	-7,019250
21,883667	0,5	-7,037200
21,892000	0,5	-7,051700
21,900333	0,5	-7,061050
21,908667	0,5	-7,039450
21,917000	0,5	-7,065800
21,925333	0,5	-7,032650
21,933667	0,5	-6,995100
21,942000	0,5	-6,955850
21,950333	0,5	-6,953750
21,958667	0,5	-6,976800
21,967000	0,5	-6,997250
21,975333	0,5	-7,032350
21,983667	0,5	-7,084850
21,992000	0,5	-7,126300
22,000333	0,5	-7,165300
22,008667	0,5	-7,198050
22,017000	0,5	-7,236600
22,025333	0,5	-7,264950
22,033667	0,5	-7,284850
22,042000	0,5	-7,322750
22,050333	0,5	-7,339650
22,058667	0,5	-7,376250
22,067000	0,5	-7,398750
22,075333	0,5	-7,412550
22,083667	0,5	-7,418700
22,092000	0,5	-7,445850
22,100333	0,5	-7,474300
22,108667	0,5	-7,503050
22,117000	0,5	-7,511250
22,125333	0,5	-7,517650
22,133667	0,5	-7,538050
22,142000	0,5	-7,544750
22,150333	0,5	-7,570700
22,158667	0,5	-7,588300
22,167000	0,5	-7,598900
22,175333	0,5	-7,601800
22,183667	0,5	-7,625950
22,192000	0,5	-7,640900
22,200333	0,5	-7,662700
22,208667	0,5	-7,676600
22,217000	0,5	-7,673400
22,225333	0,5	-7,670250
22,233667	0,5	-7,668000
22,242000	0,5	-7,686750
22,250333	0,5	-7,714050
22,258667	0,5	-7,716650
22,267000	0,5	-7,695500
22,275333	0,5	-7,691800
22,283667	0,5	-7,691650
22,292000	0,5	-7,689650
22,300333	0,5	-7,682600
22,308667	0,5	-7,671300
22,317000	0,5	-7,657000
22,325333	0,5	-7,650000
22,333667	0,5	-7,634400
22,342000	0,5	-7,654550
22,350333	0,5	-7,623800
22,358667	0,5	-7,584900
22,367000	0,5	-7,472200
22,375333	0,5	-7,390250
22,383667	0,5	-7,339600
22,392000	0,5	-7,357200
22,400333	0,5	-7,414000
22,408667	0,5	-7,455500
22,417000	0,5	-7,504650
22,425333	0,5	-7,551150
22,433667	0,5	-7,580400
22,442000	0,5	-7,599450
22,450333	0,5	-7,624300
22,458667	0,5	-7,639800
22,467000	0,5	-7,651350
22,475333	0,5	-7,655500
22,483667	0,5	-7,684250
22,492000	0,5	-7,709650
22,500333	0,5	-7,715000
22,508667	0,5	-7,682750
22,517000	0,5	-7,672050
22,525333	0,5	-7,667150
22,533667	0,5	-7,668000
22,542000	0,5	-7,672700
22,550333	0,5	-7,659000
22,558667	0,5	-7,638750
22,567000	0,5	-7,607200
22,575333	0,5	-7,583500
22,583667	0,5	-7,545600
22,592000	0,5	-7,533750
22,600333	0,5	-7,519000
22,608667	0,5	-7,499400
22,617000	0,5	-7,487150
22,625333	0,5	-7,497200
22,633667	0,5	-7,544750
22,642000	0,5	-7,556000
22,650333	0,5	-7,543500
22,658667	0,5	-7,534950
22,667000	0,5	-7,539550
22,675333	0,5	-7,553550
22,683667	0,5	-7,588250
22,692000	0,5	-7,614150
22,700333	0,5	-7,624550
22,708667	0,5	-7,630300
22,717000	0,5	-7,651200
22,725333	0,5	-7,663500
22,733667	0,5	-7,678350
22,742000	0,5	-7,692250
22,750333	0,5	-7,709400
22,758667	0,5	-7,721450
22,767000	0,5	-7,737100
22,775333	0,5	-7,759500
22,783667	0,5	-7,863100
22,792000	0,5	-7,854650
22,800333	0,5	-7,841800
22,808667	0,5	-7,848250
22,817000	0,5	-7,866200
22,825333	0,5	-7,886150
22,833667	0,5	-7,902550
22,842000	0,5	-7,928350
22,850333	0,5	-7,942450
22,858667	0,5	-7,955550
22,867000	0,5	-7,971300
22,875333	0,5	-7,985600
22,883667	0,5	-7,992750
22,892000	0,5	-7,982050
22,900333	0,5	-7,980500
22,908667	0,5	-7,967600
22,917000	0,5	-7,959300
22,925333	0,5	-7,920000
22,933667	0,5	-7,930250
22,942000	0,5	-7,904500
22,950333	0,5	-7,898800
22,958667	0,5	-7,888050
22,967000	0,5	-7,866650
22,975333	0,5	-7,844400
22,983667	0,5	-7,805600
22,992000	0,5	-7,791800
23,000333	0,5	-7,760550
23,008667	0,5	-7,725100
23,017000	0,5	-7,678200
23,025333	0,5	-7,625100
23,033667	0,5	-7,554650
23,042000	0,5	-7,497350
23,050333	0,5	-7,422300
23,058667	0,5	-7,352900
23,067000	0,5	-7,264250
23,075333	0,5	-7,154600
23,083667	0,5	-7,097500
23,092000	0,5	-7,021550
23,100333	0,5	-6,981750
23,108667	0,5	-6,920900
23,117000	0,5	-6,833050
23,125333	0,5	-6,747550
23,133667	0,5	-6,670400
23,142000	0,5	-6,621950
23,150333	0,5	-6,536900
23,158667	0,5	-6,464400
23,167000	0,5	-6,380700
23,175333	0,5	-6,300950
23,183667	0,5	-6,213100
23,192000	0,5	-6,120050
23,200333	0,5	-6,037200
23,208667	0,5	-5,933050
23,217000	0,5	-5,802900
23,225333	0,5	-5,744700
23,233667	0,5	-5,624350
23,242000	0,5	-5,543800
23,250333	0,5	-5,487800
23,258667	0,5	-5,418300
23,267000	0,5	-5,336700
23,275333	0,5	-5,247300
23,283667	0,5	-5,178550
23,292000	0,5	-5,119150
23,300333	0,5	-5,054250
23,308667	0,5	-4,976500
23,317000	0,5	-4,915250
23,325333	0,5	-4,836550
23,333667	0,5	-4,766750
23,342000	0,5	-4,694650
23,350333	0,5	-4,612200
23,358667	0,5	-4,533650
23,367000	0,5	-4,513500
23,375333	0,5	-4,418650
23,383667	0,5	-4,316650
23,392000	0,5	-4,243450
23,400333	0,5	-4,183650
23,408667	0,5	-4,133950
23,417000	0,5	-4,061000
23,425333	0,5	-4,001100
23,433667	0,5	-3,959500
23,442000	0,5	-3,922800
23,450333	0,5	-3,864900
23,458667	0,5	-3,825050
23,467000	0,5	-3,777900
23,475333	0,5	-3,744250
23,483667	0,5	-3,691000
23,492000	0,5	-3,651150
23,500333	0,5	-3,601850
23,508667	0,5	-3,559700
23,517000	0,5	-3,646300
23,525333	0,5	-3,564850
23,533667	0,5	-3,480450
23,542000	0,5	-3,420800
23,550333	0,5	-3,380950
23,558667	0,5	-3,340850
23,567000	0,5	-3,307950
23,575333	0,5	-3,278400
23,583667	0,5	-3,250200
23,592000	0,5	-3,218900
23,600333	0,5	-3,191250
23,608667	0,5	-3,157150
23,617000	0,5	-3,128000
23,625333	0,5	-3,096800
23,633667	0,5	-3,067700
23,642000	0,5	-3,036350
23,650333	0,5	-2,998750
23,658667	0,5	-3,076750
23,667000	0,5	-3,120900
23,675333	0,5	-3,062000
23,683667	0,5	-2,977450
23,692000	0,5	-2,922400
23,700333	0,5	-2,891400
23,708667	0,5	-2,867400
23,717000	0,5	-2,854400
23,725333	0,5	-2,836150
23,733667	0,5	-2,812350
23,742000	0,5	-2,787500
23,750333	0,5	-2,759550
23,758667	0,5	-2,742300
23,767000	0,5	-2,716600
23,775333	0,5	-2,686250
23,783667	0,5	-2,661350
23,792000	0,5	-2,632700
23,800333	0,5	-2,606050
23,808667	0,5	-2,757700
23,817000	0,5	-2,739250
23,825333	0,5	-2,661850
23,833667	0,5	-2,588850
23,842000	0,5	-2,531250
23,850333	0,5	-2,500550
23,858667	0,5	-2,486450
23,867000	0,5	-2,468150
23,875333	0,5	-2,444450
23,883667	0,5	-2,418850
23,892000	0,5	-2,396750
23,900333	0,5	-2,371800
23,908667	0,5	-2,350000
23,917000	0,5	-2,326000
23,925333	0,5	-2,305950
23,933667	0,5	-2,277800
23,942000	0,5	-2,259050
23,950333	0,5	-2,264700
23,958667	0,5	-2,411100
23,967000	0,5	-2,367800
23,975333	0,5	-2,299550
23,983667	0,5	-2,227550
23,992000	0,5	-2,186550
24,000333	0,5	-2,154100
24,008667	0,5	-2,145850
24,017000	0,5	-2,124750
24,025333	0,5	-2,091100
24,033667	0,5	-2,058300
24,042000	0,5	-2,034500
24,050333	0,5	-2,003400
24,058667	0,5	-1,981950
24,067000	0,5	-1,960100
24,075333	0,5	-1,930650
24,083667	0,5	-1,901500
24,092000	0,5	-1,876400
24,100333	0,5	-1,974350
24,108667	0,5	-1,979300
24,117000	0,5	-1,971650
24,125333	0,5	-1,890950
24,133667	0,5	-1,848600
24,142000	0,5	-1,812800
24,150333	0,5	-1,792350
24,158667	0,5	-1,798100
24,167000	0,5	-1,770850
24,175333	0,5	-1,736150
24,183667	0,5	-1,715250
24,192000	0,5	-1,693900
24,200333	0,5	-1,669700
24,208667	0,5	-1,643750
24,217000	0,5	-1,623100
24,225333	0,5	-1,592150
24,233667	0,5	-1,568250
24,242000	0,5	-1,555200
24,250333	0,5	-1,653150
24,258667	0,5	-1,641600
24,267000	0,5	-1,600700
24,275333	0,5	-1,537750
24,283667	0,5	-1,502400
24,292000	0,5	-1,474500
24,300333	0,5	-1,454550
24,308667	0,5	-1,461250
24,317000	0,5	-1,425100
24,325333	0,5	-1,408150
24,333667	0,5	-1,381850
24,342000	0,5	-1,366100
24,350333	0,5	-1,342000
24,358667	0,5	-1,338350
24,367000	0,5	-1,320100
24,375333	0,5	-1,298250
24,383667	0,5	-1,281950
24,392000	0,5	-1,296050
24,400333	0,5	-1,359650
24,408667	0,5	-1,327450
24,417000	0,5	-1,294600
24,425333	0,5	-1,253900
24,433667	0,5	-1,229350
24,442000	0,5	-1,204850
24,450333	0,5	-1,202800
24,458667	0,5	-1,201250
24,467000	0,5	-1,178950
24,475333	0,5	-1,148350
24,483667	0,5	-1,140800
24,492000	0,5	-1,115800
24,500333	0,5	-1,102500
24,508667	0,5	-1,081650
24,517000	0,5	-1,064200
24,525333	0,5	-1,047900
24,533667	0,5	-1,032300
24,542000	0,5	-1,090200
24,550333	0,5	-1,074400
24,558667	0,5	-1,061150
24,567000	0,5	-1,040650
24,575333	0,5	-1,007400
24,583667	0,5	-0,990050
24,592000	0,5	-0,976450
24,600333	0,5	-0,979450
24,608667	0,5	-0,980350
24,617000	0,5	-0,958600
24,625333	0,5	-0,952250
24,633667	0,5	-0,941100
24,642000	0,5	-0,930450
24,650333	0,5	-0,917100
24,658667	0,5	-0,912050
24,667000	0,5	-0,895900
24,675333	0,5	-0,883300
24,683667	0,5	-0,877550
24,692000	0,5	-0,911450
24,700333	0,5	-0,891550
24,708667	0,5	-0,875750
24,717000	0,5	-0,846450
24,725333	0,5	-0,826550
24,733667	0,5	-0,812200
24,742000	0,5	-0,811000
24,750333	0,5	-0,811750
24,758667	0,5	-0,803550
24,767000	0,5	-0,799300
24,775333	0,5	-0,788450
24,783667	0,5	-0,779350
24,792000	0,5	-0,771800
24,800333	0,5	-0,768350
24,808667	0,5	-0,759050
24,817000	0,5	-0,751700
24,825333	0,5	-0,740850
24,833667	0,5	-0,746300
24,842000	0,5	-0,767600
24,850333	0,5	-0,764400
24,858667	0,5	-0,743350
24,867000	0,5	-0,729200
24,875333	0,5	-0,717450
24,883667	0,5	-0,705550
24,892000	0,5	-0,705550
24,900333	0,5	-0,699650
24,908667	0,5	-0,692600
24,917000	0,5	-0,682400
24,925333	0,5	-0,676150
24,933667	0,5	-0,665550
24,942000	0,5	-0,661300
24,950333	0,5	-0,651500
24,958667	0,5	-0,649800
24,967000	0,5	-0,648650
24,975333	0,5	-0,648200
24,983667	0,5	-0,660100
24,992000	0,5	-0,658350
25,000333	0,5	-0,651300
25,008667	0,5	-0,646600
25,017000	0,5	-0,641850
25,025333	0,5	-0,635000
25,033667	0,5	-0,636700
25,042000	0,5	-0,636550
25,050333	0,5	-0,629800
25,058667	0,5	-0,630250
25,067000	0,5	-0,628500
25,075333	0,5	-0,622950
25,083667	0,5	-0,614450
25,092000	0,5	-0,614650
25,100333	0,5	-0,608800
25,108667	0,5	-0,601400
25,117000	0,5	-0,592950
25,125333	0,5	-0,592850
25,133667	0,5	-0,594350
25,142000	0,5	-0,590800
25,150333	0,5	-0,585900
25,158667	0,5	-0,581200
25,167000	0,5	-0,579450
25,175333	0,5	-0,582000
25,183667	0,5	-0,579050
25,192000	0,5	-0,582000
25,200333	0,5	-0,582300
25,208667	0,5	-0,578850
25,217000	0,5	-0,584050
25,225333	0,5	-0,580350
25,233667	0,5	-0,580500
25,242000	0,5	-0,576350
25,250333	0,5	-0,578000
25,258667	0,5	-0,569850
25,267000	0,5	-0,570850
25,275333	0,5	-0,566900
25,283667	0,5	-0,562750
25,292000	0,5	-0,556650
25,300333	0,5	-0,554900
25,308667	0,5	-0,553600
25,317000	0,5	-0,551400
25,325333	0,5	-0,553050
25,333667	0,5	-0,546500
25,342000	0,5	-0,544350
25,350333	0,5	-0,548350
25,358667	0,5	-0,548700
25,367000	0,5	-0,552900
25,375333	0,5	-0,553500
25,383667	0,5	-0,555750
25,392000	0,5	-0,555200
25,400333	0,5	-0,557450
25,408667	0,5	-0,555800
25,417000	0,5	-0,555050
25,425333	0,5	-0,550250
25,433667	0,5	-0,548300
25,442000	0,5	-0,540500
25,450333	0,5	-0,548300
25,458667	0,5	-0,550150
25,467000	0,5	-0,549850
25,475333	0,5	-0,548950
25,483667	0,5	-0,538550
25,492000	0,5	-0,539650
25,500333	0,5	-0,543850
25,508667	0,5	-0,546900
25,517000	0,5	-0,547100
25,525333	0,5	-0,540600
25,533667	0,5	-0,543450
25,542000	0,5	-0,541300
25,550333	0,5	-0,544250
25,558667	0,5	-0,545200
25,567000	0,5	-0,541350
25,575333	0,5	-0,528650
25,583667	0,5	-0,533700
25,592000	0,5	-0,532450
25,600333	0,5	-0,548450
25,608667	0,5	-0,546600
25,617000	0,5	-0,545950
25,625333	0,5	-0,545300
25,633667	0,5	-0,539050
25,642000	0,5	-0,536250
25,650333	0,5	-0,542200
25,658667	0,5	-0,538050
25,667000	0,5	-0,542300
25,675333	0,5	-0,540800
25,683667	0,5	-0,539750
25,692000	0,5	-0,539450
25,700333	0,5	-0,543550
25,708667	0,5	-0,538050
25,717000	0,5	-0,530950
25,725333	0,5	-0,518750
25,733667	0,5	-0,523450
25,742000	0,5	-0,520250
25,750333	0,5	-0,532800
25,758667	0,5	-0,530750
25,767000	0,5	-0,527750
25,775333	0,5	-0,522400
25,783667	0,5	-0,511600
25,792000	0,5	-0,519550
25,800333	0,5	-0,516450
25,808667	0,5	-0,520450
25,817000	0,5	-0,517800
25,825333	0,5	-0,520150
25,833667	0,5	-0,515750
25,842000	0,5	-0,513350
25,850333	0,5	-0,507400
25,858667	0,5	-0,510250
25,867000	0,5	-0,494150
25,875333	0,5	-0,494650
25,883667	0,5	-0,476350
25,892000	0,5	-0,486100
25,900333	0,5	-0,490250
25,908667	0,5	-0,485150
25,917000	0,5	-0,479400
25,925333	0,5	-0,468900
25,933667	0,5	-0,461550
25,942000	0,5	-0,459900
25,950333	0,5	-0,461300
25,958667	0,5	-0,457900
25,967000	0,5	-0,453700
25,975333	0,5	-0,450950
25,983667	0,5	-0,447800
25,992000	0,5	-0,444050
26,000333	0,5	-0,443350
