File Path	chrom://chromeleon01/ikbm_chromeleon/2022/ICS-5000/ED1/Esteban/20220427_Cell_Amandas_mutants.seq/746.smp/ED_1.channel/ED_1.chm
Channel	ED_1

Injection Information:
Data Vault	ikbm_chromeleon
Injection	Std_C1ox_0,0025
Injection Number	6
Position	RA2
Comment	
Processing Method	Stop sequence after Cell Death
Instrument Method	ICS5000_PA200_FullNative_Ox_26min_ED1
Type	Unknown
Status	Finished
Injection Date	27.04.2022
Injection Time	14:25:42
Injection Volume (µl)	5,0
Dilution Factor	1,0000
Weight	1,0000

Chromatogram Data Information:
Time Min. (min)	0,000333
Time Max. (min)	26,000333
Data Points	3121
Detector	EDet1
Generating Data System	Chromeleon 7.2.9.11323
Exporting Data System	Chromeleon 7.2.9.0
Operator	Instrument Controller
Signal Quantity	
Signal Unit	nC
Signal Min.	-4,123000
Signal Max.	20,608400
Channel	ED_1
Driver Name	DC-5000
Channel Type	Evaluation
Min. Step (s)	0,5
Max. Step (s)	0,5
Average Step (s)	0,5

Signal Parameter Information:
Signal Info	

Chromatogram Data:
Time (min)	Step (s)	Value (nC)
0,000333	n.a.	-0,075000
0,008667	0,5	-0,078150
0,017000	0,5	-0,076800
0,025333	0,5	-0,073350
0,033667	0,5	-0,048900
0,042000	0,5	-0,012650
0,050333	0,5	0,013100
0,058667	0,5	-0,005250
0,067000	0,5	-0,016250
0,075333	0,5	0,004750
0,083667	0,5	-0,009600
0,092000	0,5	0,001500
0,100333	0,5	-0,009050
0,108667	0,5	0,000350
0,117000	0,5	-0,011500
0,125333	0,5	-0,002800
0,133667	0,5	0,030850
0,142000	0,5	0,017650
0,150333	0,5	0,027400
0,158667	0,5	0,020550
0,167000	0,5	-0,003950
0,175333	0,5	-0,011900
0,183667	0,5	-0,005050
0,192000	0,5	0,022250
0,200333	0,5	0,042750
0,208667	0,5	0,024250
0,217000	0,5	0,019450
0,225333	0,5	0,017100
0,233667	0,5	0,024350
0,242000	0,5	0,010400
0,250333	0,5	0,020550
0,258667	0,5	0,005550
0,267000	0,5	0,009300
0,275333	0,5	0,000700
0,283667	0,5	0,010200
0,292000	0,5	-0,019600
0,300333	0,5	0,026500
0,308667	0,5	-0,003950
0,317000	0,5	-0,017750
0,325333	0,5	-0,029300
0,333667	0,5	-0,006600
0,342000	0,5	0,026150
0,350333	0,5	0,023650
0,358667	0,5	0,008900
0,367000	0,5	0,006650
0,375333	0,5	0,005850
0,383667	0,5	-0,002150
0,392000	0,5	-0,005700
0,400333	0,5	-0,001600
0,408667	0,5	-0,010750
0,417000	0,5	-0,015250
0,425333	0,5	-0,007750
0,433667	0,5	-0,021150
0,442000	0,5	-0,015100
0,450333	0,5	-0,005950
0,458667	0,5	-0,027000
0,467000	0,5	-0,036750
0,475333	0,5	-0,034400
0,483667	0,5	-0,019200
0,492000	0,5	0,020400
0,500333	0,5	0,016800
0,508667	0,5	0,009100
0,517000	0,5	0,000200
0,525333	0,5	-0,003450
0,533667	0,5	-0,004050
0,542000	0,5	-0,005000
0,550333	0,5	-0,011950
0,558667	0,5	-0,020800
0,567000	0,5	-0,020100
0,575333	0,5	-0,024700
0,583667	0,5	-0,029600
0,592000	0,5	-0,017050
0,600333	0,5	-0,023900
0,608667	0,5	-0,047500
0,617000	0,5	-0,049000
0,625333	0,5	-0,052550
0,633667	0,5	0,002600
0,642000	0,5	0,012350
0,650333	0,5	-0,001900
0,658667	0,5	-0,021700
0,667000	0,5	-0,012900
0,675333	0,5	-0,028300
0,683667	0,5	-0,024850
0,692000	0,5	-0,031500
0,700333	0,5	-0,035850
0,708667	0,5	-0,038300
0,717000	0,5	-0,044300
0,725333	0,5	-0,042750
0,733667	0,5	-0,047850
0,742000	0,5	-0,004150
0,750333	0,5	-0,034450
0,758667	0,5	-0,056850
0,767000	0,5	-0,060250
0,775333	0,5	-0,047900
0,783667	0,5	-0,018000
0,792000	0,5	-0,016950
0,800333	0,5	-0,039100
0,808667	0,5	-0,041850
0,817000	0,5	-0,043350
0,825333	0,5	-0,044400
0,833667	0,5	-0,044900
0,842000	0,5	-0,040100
0,850333	0,5	-0,061950
0,858667	0,5	-0,054350
0,867000	0,5	-0,051750
0,875333	0,5	-0,058750
0,883667	0,5	-0,065750
0,892000	0,5	-0,033300
0,900333	0,5	-0,067650
0,908667	0,5	-0,080600
0,917000	0,5	-0,072850
0,925333	0,5	-0,060950
0,933667	0,5	-0,015450
0,942000	0,5	-0,041700
0,950333	0,5	-0,040000
0,958667	0,5	-0,051000
0,967000	0,5	-0,045250
0,975333	0,5	-0,050550
0,983667	0,5	-0,040450
0,992000	0,5	-0,051750
1,000333	0,5	-0,057750
1,008667	0,5	-0,063050
1,017000	0,5	-0,053300
1,025333	0,5	-0,077900
1,033667	0,5	-0,065000
1,042000	0,5	-0,054200
1,050333	0,5	-0,073800
1,058667	0,5	-0,083200
1,067000	0,5	-0,074500
1,075333	0,5	-0,047650
1,083667	0,5	-0,027000
1,092000	0,5	-0,053600
1,100333	0,5	-0,062600
1,108667	0,5	-0,056600
1,117000	0,5	-0,063000
1,125333	0,5	-0,063300
1,133667	0,5	-0,065700
1,142000	0,5	-0,055500
1,150333	0,5	-0,069550
1,158667	0,5	-0,058050
1,167000	0,5	-0,052550
1,175333	0,5	-0,062850
1,183667	0,5	-0,048050
1,192000	0,5	-0,061850
1,200333	0,5	-0,082800
1,208667	0,5	-0,091750
1,217000	0,5	-0,084550
1,225333	0,5	-0,054550
1,233667	0,5	-0,035650
1,242000	0,5	-0,048250
1,250333	0,5	-0,055900
1,258667	0,5	-0,050650
1,267000	0,5	-0,061800
1,275333	0,5	-0,061500
1,283667	0,5	-0,059050
1,292000	0,5	-0,072900
1,300333	0,5	-0,068100
1,308667	0,5	-0,070100
1,317000	0,5	-0,071650
1,325333	0,5	-0,094000
1,333667	0,5	-0,065800
1,342000	0,5	-0,086900
1,350333	0,5	-0,085450
1,358667	0,5	-0,090550
1,367000	0,5	-0,062900
1,375333	0,5	-0,038500
1,383667	0,5	-0,039500
1,392000	0,5	-0,055650
1,400333	0,5	-0,050200
1,408667	0,5	-0,058450
1,417000	0,5	-0,059150
1,425333	0,5	-0,063650
1,433667	0,5	-0,061750
1,442000	0,5	-0,057700
1,450333	0,5	-0,062450
1,458667	0,5	-0,064750
1,467000	0,5	-0,082300
1,475333	0,5	-0,075200
1,483667	0,5	-0,066550
1,492000	0,5	-0,084150
1,500333	0,5	-0,090300
1,508667	0,5	-0,084200
1,517000	0,5	-0,063150
1,525333	0,5	-0,029750
1,533667	0,5	-0,036650
1,542000	0,5	-0,019900
1,550333	0,5	-0,033000
1,558667	0,5	-0,039800
1,567000	0,5	-0,109800
1,575333	0,5	-0,356900
1,583667	0,5	-1,094900
1,592000	0,5	-2,309900
1,600333	0,5	-3,140650
1,608667	0,5	-2,706200
1,617000	0,5	-1,222800
1,625333	0,5	-0,010000
1,633667	0,5	0,633200
1,642000	0,5	1,117050
1,650333	0,5	1,491550
1,658667	0,5	1,559050
1,667000	0,5	1,387150
1,675333	0,5	1,098250
1,683667	0,5	0,854350
1,692000	0,5	0,654250
1,700333	0,5	0,534300
1,708667	0,5	0,435550
1,717000	0,5	0,428900
1,725333	0,5	0,513100
1,733667	0,5	0,752800
1,742000	0,5	1,015950
1,750333	0,5	1,096350
1,758667	0,5	0,952900
1,767000	0,5	0,723550
1,775333	0,5	0,564300
1,783667	0,5	0,432050
1,792000	0,5	0,368950
1,800333	0,5	0,375250
1,808667	0,5	0,400150
1,817000	0,5	0,454200
1,825333	0,5	0,463700
1,833667	0,5	0,452800
1,842000	0,5	0,454650
1,850333	0,5	0,443800
1,858667	0,5	0,430900
1,867000	0,5	0,404700
1,875333	0,5	0,380900
1,883667	0,5	0,342750
1,892000	0,5	0,326550
1,900333	0,5	0,308350
1,908667	0,5	0,288350
1,917000	0,5	0,268050
1,925333	0,5	0,297500
1,933667	0,5	0,282900
1,942000	0,5	0,290700
1,950333	0,5	0,304750
1,958667	0,5	0,333300
1,967000	0,5	0,385850
1,975333	0,5	0,371150
1,983667	0,5	0,371750
1,992000	0,5	0,376850
2,000333	0,5	0,388800
2,008667	0,5	0,404700
2,017000	0,5	0,438800
2,025333	0,5	0,489150
2,033667	0,5	0,578800
2,042000	0,5	0,756600
2,050333	0,5	1,143500
2,058667	0,5	1,836650
2,067000	0,5	3,104300
2,075333	0,5	4,911000
2,083667	0,5	6,498350
2,092000	0,5	6,975000
2,100333	0,5	6,432550
2,108667	0,5	5,536500
2,117000	0,5	4,739950
2,125333	0,5	4,126800
2,133667	0,5	3,735200
2,142000	0,5	3,491150
2,150333	0,5	3,345150
2,158667	0,5	3,258350
2,167000	0,5	3,209100
2,175333	0,5	3,190650
2,183667	0,5	3,198350
2,192000	0,5	3,252300
2,200333	0,5	3,312200
2,208667	0,5	3,391200
2,217000	0,5	3,510150
2,225333	0,5	3,612900
2,233667	0,5	3,717700
2,242000	0,5	3,854100
2,250333	0,5	4,000850
2,258667	0,5	4,175050
2,267000	0,5	4,326600
2,275333	0,5	4,458950
2,283667	0,5	4,589200
2,292000	0,5	4,741550
2,300333	0,5	4,879700
2,308667	0,5	5,041700
2,317000	0,5	5,197450
2,325333	0,5	5,345000
2,333667	0,5	5,508650
2,342000	0,5	5,664250
2,350333	0,5	5,829600
2,358667	0,5	5,974150
2,367000	0,5	6,143450
2,375333	0,5	6,268200
2,383667	0,5	6,411950
2,392000	0,5	6,552450
2,400333	0,5	6,722500
2,408667	0,5	6,883200
2,417000	0,5	7,024850
2,425333	0,5	7,135250
2,433667	0,5	7,272500
2,442000	0,5	7,391000
2,450333	0,5	7,503250
2,458667	0,5	7,609350
2,467000	0,5	7,720550
2,475333	0,5	7,820850
2,483667	0,5	7,928600
2,492000	0,5	8,029350
2,500333	0,5	8,111000
2,508667	0,5	8,213500
2,517000	0,5	8,290950
2,525333	0,5	8,329250
2,533667	0,5	8,372800
2,542000	0,5	8,418950
2,550333	0,5	8,487550
2,558667	0,5	8,541400
2,567000	0,5	8,556250
2,575333	0,5	8,576050
2,583667	0,5	8,577250
2,592000	0,5	8,583100
2,600333	0,5	8,565050
2,608667	0,5	8,560350
2,617000	0,5	8,530950
2,625333	0,5	8,503150
2,633667	0,5	8,480250
2,642000	0,5	8,438500
2,650333	0,5	8,385850
2,658667	0,5	8,366750
2,667000	0,5	8,302750
2,675333	0,5	8,239100
2,683667	0,5	8,180400
2,692000	0,5	8,126850
2,700333	0,5	8,092800
2,708667	0,5	8,017650
2,717000	0,5	7,938000
2,725333	0,5	7,848100
2,733667	0,5	7,774750
2,742000	0,5	7,680050
2,750333	0,5	7,602800
2,758667	0,5	7,504150
2,767000	0,5	7,420800
2,775333	0,5	7,328600
2,783667	0,5	7,250250
2,792000	0,5	7,162100
2,800333	0,5	7,088450
2,808667	0,5	7,060050
2,817000	0,5	7,016750
2,825333	0,5	7,018650
2,833667	0,5	7,080250
2,842000	0,5	7,160250
2,850333	0,5	7,212200
2,858667	0,5	7,139000
2,867000	0,5	6,983500
2,875333	0,5	6,787100
2,883667	0,5	6,584850
2,892000	0,5	6,426800
2,900333	0,5	6,335100
2,908667	0,5	6,345000
2,917000	0,5	6,423750
2,925333	0,5	6,547000
2,933667	0,5	6,629150
2,942000	0,5	6,572850
2,950333	0,5	6,362050
2,958667	0,5	6,074950
2,967000	0,5	5,687200
2,975333	0,5	5,351100
2,983667	0,5	5,057950
2,992000	0,5	4,833250
3,000333	0,5	4,645200
3,008667	0,5	4,440700
3,017000	0,5	4,266300
3,025333	0,5	4,111200
3,033667	0,5	3,969400
3,042000	0,5	3,839450
3,050333	0,5	3,713950
3,058667	0,5	3,576950
3,067000	0,5	3,457350
3,075333	0,5	3,345900
3,083667	0,5	3,242550
3,092000	0,5	3,115250
3,100333	0,5	3,027700
3,108667	0,5	2,921550
3,117000	0,5	2,817400
3,125333	0,5	2,716400
3,133667	0,5	2,635000
3,142000	0,5	2,571200
3,150333	0,5	2,490500
3,158667	0,5	2,378350
3,167000	0,5	2,292150
3,175333	0,5	2,207500
3,183667	0,5	2,122500
3,192000	0,5	2,042000
3,200333	0,5	1,966400
3,208667	0,5	1,884850
3,217000	0,5	1,810700
3,225333	0,5	1,741650
3,233667	0,5	1,661050
3,242000	0,5	1,589900
3,250333	0,5	1,532950
3,258667	0,5	1,454250
3,267000	0,5	1,374050
3,275333	0,5	1,313300
3,283667	0,5	1,261650
3,292000	0,5	1,235100
3,300333	0,5	1,182300
3,308667	0,5	1,131450
3,317000	0,5	1,079000
3,325333	0,5	1,027250
3,333667	0,5	0,963200
3,342000	0,5	0,931000
3,350333	0,5	0,873800
3,358667	0,5	0,828250
3,367000	0,5	0,780250
3,375333	0,5	0,735750
3,383667	0,5	0,688050
3,392000	0,5	0,648200
3,400333	0,5	0,614400
3,408667	0,5	0,565650
3,417000	0,5	0,524650
3,425333	0,5	0,489400
3,433667	0,5	0,482600
3,442000	0,5	0,473900
3,450333	0,5	0,450550
3,458667	0,5	0,402450
3,467000	0,5	0,376300
3,475333	0,5	0,340400
3,483667	0,5	0,316450
3,492000	0,5	0,281000
3,500333	0,5	0,258850
3,508667	0,5	0,224650
3,517000	0,5	0,203150
3,525333	0,5	0,182100
3,533667	0,5	0,152800
3,542000	0,5	0,151500
3,550333	0,5	0,132950
3,558667	0,5	0,095600
3,567000	0,5	0,082800
3,575333	0,5	0,068200
3,583667	0,5	0,079400
3,592000	0,5	0,077800
3,600333	0,5	0,057150
3,608667	0,5	0,052400
3,617000	0,5	0,032000
3,625333	0,5	0,018700
3,633667	0,5	-0,002100
3,642000	0,5	-0,007000
3,650333	0,5	-0,027550
3,658667	0,5	-0,039450
3,667000	0,5	-0,054200
3,675333	0,5	-0,071350
3,683667	0,5	-0,092550
3,692000	0,5	-0,078300
3,700333	0,5	-0,109200
3,708667	0,5	-0,127000
3,717000	0,5	-0,138800
3,725333	0,5	-0,141750
3,733667	0,5	-0,123900
3,742000	0,5	-0,136550
3,750333	0,5	-0,144050
3,758667	0,5	-0,155000
3,767000	0,5	-0,164700
3,775333	0,5	-0,178450
3,783667	0,5	-0,184600
3,792000	0,5	-0,197400
3,800333	0,5	-0,201450
3,808667	0,5	-0,214150
3,817000	0,5	-0,212400
3,825333	0,5	-0,234150
3,833667	0,5	-0,234800
3,842000	0,5	-0,205500
3,850333	0,5	-0,204100
3,858667	0,5	-0,198350
3,867000	0,5	-0,183300
3,875333	0,5	-0,170450
3,883667	0,5	-0,133600
3,892000	0,5	-0,154150
3,900333	0,5	-0,171650
3,908667	0,5	-0,188850
3,917000	0,5	-0,206900
3,925333	0,5	-0,228000
3,933667	0,5	-0,239100
3,942000	0,5	-0,252450
3,950333	0,5	-0,272550
3,958667	0,5	-0,273900
3,967000	0,5	-0,282900
3,975333	0,5	-0,292400
3,983667	0,5	-0,297300
3,992000	0,5	-0,293000
4,000333	0,5	-0,311500
4,008667	0,5	-0,316350
4,017000	0,5	-0,318000
4,025333	0,5	-0,291050
4,033667	0,5	-0,271750
4,042000	0,5	-0,274350
4,050333	0,5	-0,282150
4,058667	0,5	-0,268500
4,067000	0,5	-0,274350
4,075333	0,5	-0,275200
4,083667	0,5	-0,270600
4,092000	0,5	-0,273550
4,100333	0,5	-0,274400
4,108667	0,5	-0,277550
4,117000	0,5	-0,282500
4,125333	0,5	-0,303950
4,133667	0,5	-0,299400
4,142000	0,5	-0,314100
4,150333	0,5	-0,326300
4,158667	0,5	-0,334750
4,167000	0,5	-0,325000
4,175333	0,5	-0,313800
4,183667	0,5	-0,301850
4,192000	0,5	-0,326900
4,200333	0,5	-0,325550
4,208667	0,5	-0,329200
4,217000	0,5	-0,331350
4,225333	0,5	-0,334550
4,233667	0,5	-0,334300
4,242000	0,5	-0,343850
4,250333	0,5	-0,349850
4,258667	0,5	-0,340650
4,267000	0,5	-0,361500
4,275333	0,5	-0,372100
4,283667	0,5	-0,355850
4,292000	0,5	-0,369000
4,300333	0,5	-0,373750
4,308667	0,5	-0,375300
4,317000	0,5	-0,358600
4,325333	0,5	-0,325600
4,333667	0,5	-0,325850
4,342000	0,5	-0,325650
4,350333	0,5	-0,334550
4,358667	0,5	-0,322800
4,367000	0,5	-0,331300
4,375333	0,5	-0,327150
4,383667	0,5	-0,330300
4,392000	0,5	-0,331350
4,400333	0,5	-0,326800
4,408667	0,5	-0,324600
4,417000	0,5	-0,332200
4,425333	0,5	-0,317400
4,433667	0,5	-0,314800
4,442000	0,5	-0,321950
4,450333	0,5	-0,324200
4,458667	0,5	-0,314250
4,467000	0,5	-0,277900
4,475333	0,5	-0,271150
4,483667	0,5	-0,261850
4,492000	0,5	-0,271900
4,500333	0,5	-0,262950
4,508667	0,5	-0,259000
4,517000	0,5	-0,250050
4,525333	0,5	-0,237000
4,533667	0,5	-0,223250
4,542000	0,5	-0,205850
4,550333	0,5	-0,173850
4,558667	0,5	-0,142900
4,567000	0,5	-0,093050
4,575333	0,5	-0,016500
4,583667	0,5	0,051300
4,592000	0,5	0,119450
4,600333	0,5	0,209850
4,608667	0,5	0,307850
4,617000	0,5	0,423250
4,625333	0,5	0,506800
4,633667	0,5	0,560700
4,642000	0,5	0,596750
4,650333	0,5	0,613000
4,658667	0,5	0,598550
4,667000	0,5	0,561150
4,675333	0,5	0,500950
4,683667	0,5	0,414000
4,692000	0,5	0,337750
4,700333	0,5	0,257800
4,708667	0,5	0,172300
4,717000	0,5	0,084800
4,725333	0,5	0,050850
4,733667	0,5	-0,019550
4,742000	0,5	-0,059900
4,750333	0,5	-0,090850
4,758667	0,5	-0,100150
4,767000	0,5	-0,073100
4,775333	0,5	-0,088000
4,783667	0,5	-0,102900
4,792000	0,5	-0,091850
4,800333	0,5	-0,081800
4,808667	0,5	-0,064250
4,817000	0,5	-0,035050
4,825333	0,5	0,000650
4,833667	0,5	0,045300
4,842000	0,5	0,112850
4,850333	0,5	0,198850
4,858667	0,5	0,271700
4,867000	0,5	0,378900
4,875333	0,5	0,512550
4,883667	0,5	0,603900
4,892000	0,5	0,696450
4,900333	0,5	0,778800
4,908667	0,5	0,834750
4,917000	0,5	0,871200
4,925333	0,5	0,831300
4,933667	0,5	0,784000
4,942000	0,5	0,707600
4,950333	0,5	0,624350
4,958667	0,5	0,514550
4,967000	0,5	0,423900
4,975333	0,5	0,325550
4,983667	0,5	0,240100
4,992000	0,5	0,171100
5,000333	0,5	0,104550
5,008667	0,5	0,039350
5,017000	0,5	0,006050
5,025333	0,5	-0,025650
5,033667	0,5	-0,070900
5,042000	0,5	-0,090750
5,050333	0,5	-0,103500
5,058667	0,5	-0,094350
5,067000	0,5	-0,094300
5,075333	0,5	-0,096200
5,083667	0,5	-0,110800
5,092000	0,5	-0,108850
5,100333	0,5	-0,122950
5,108667	0,5	-0,125600
5,117000	0,5	-0,138000
5,125333	0,5	-0,138250
5,133667	0,5	-0,139950
5,142000	0,5	-0,137750
5,150333	0,5	-0,135750
5,158667	0,5	-0,147750
5,167000	0,5	-0,138400
5,175333	0,5	-0,137250
5,183667	0,5	-0,142700
5,192000	0,5	-0,141100
5,200333	0,5	-0,130900
5,208667	0,5	-0,105500
5,217000	0,5	-0,089750
5,225333	0,5	-0,105150
5,233667	0,5	-0,098650
5,242000	0,5	-0,102750
5,250333	0,5	-0,093400
5,258667	0,5	-0,100850
5,267000	0,5	-0,089600
5,275333	0,5	-0,091650
5,283667	0,5	-0,078400
5,292000	0,5	-0,078100
5,300333	0,5	-0,089650
5,308667	0,5	-0,086750
5,317000	0,5	-0,069450
5,325333	0,5	-0,079250
5,333667	0,5	-0,078900
5,342000	0,5	-0,079750
5,350333	0,5	-0,061100
5,358667	0,5	-0,039150
5,367000	0,5	-0,037450
5,375333	0,5	-0,036850
5,383667	0,5	-0,033100
5,392000	0,5	-0,030950
5,400333	0,5	-0,042550
5,408667	0,5	-0,041350
5,417000	0,5	-0,046250
5,425333	0,5	-0,042300
5,433667	0,5	-0,046650
5,442000	0,5	-0,047000
5,450333	0,5	-0,058100
5,458667	0,5	-0,033750
5,467000	0,5	-0,036250
5,475333	0,5	-0,045100
5,483667	0,5	-0,040250
5,492000	0,5	-0,036150
5,500333	0,5	-0,009400
5,508667	0,5	0,002800
5,517000	0,5	0,004500
5,525333	0,5	-0,001100
5,533667	0,5	0,005150
5,542000	0,5	0,002500
5,550333	0,5	0,006750
5,558667	0,5	0,009000
5,567000	0,5	0,010100
5,575333	0,5	0,010600
5,583667	0,5	0,023550
5,592000	0,5	0,023350
5,600333	0,5	0,019550
5,608667	0,5	0,046100
5,617000	0,5	0,039300
5,625333	0,5	0,027100
5,633667	0,5	0,029600
5,642000	0,5	0,033350
5,650333	0,5	0,072400
5,658667	0,5	0,070300
5,667000	0,5	0,066200
5,675333	0,5	0,064000
5,683667	0,5	0,069300
5,692000	0,5	0,076700
5,700333	0,5	0,086150
5,708667	0,5	0,089750
5,717000	0,5	0,078950
5,725333	0,5	0,083050
5,733667	0,5	0,088900
5,742000	0,5	0,111650
5,750333	0,5	0,099300
5,758667	0,5	0,131250
5,767000	0,5	0,110800
5,775333	0,5	0,108250
5,783667	0,5	0,106700
5,792000	0,5	0,130000
5,800333	0,5	0,159350
5,808667	0,5	0,150500
5,817000	0,5	0,145800
5,825333	0,5	0,158800
5,833667	0,5	0,156650
5,842000	0,5	0,160600
5,850333	0,5	0,157600
5,858667	0,5	0,164100
5,867000	0,5	0,161650
5,875333	0,5	0,164500
5,883667	0,5	0,174200
5,892000	0,5	0,174200
5,900333	0,5	0,180650
5,908667	0,5	0,189500
5,917000	0,5	0,178450
5,925333	0,5	0,175600
5,933667	0,5	0,184400
5,942000	0,5	0,201000
5,950333	0,5	0,226400
5,958667	0,5	0,210650
5,967000	0,5	0,213700
5,975333	0,5	0,209750
5,983667	0,5	0,221800
5,992000	0,5	0,220050
6,000333	0,5	0,237650
6,008667	0,5	0,227700
6,017000	0,5	0,231200
6,025333	0,5	0,237200
6,033667	0,5	0,243150
6,042000	0,5	0,235350
6,050333	0,5	0,250650
6,058667	0,5	0,246150
6,067000	0,5	0,239850
6,075333	0,5	0,244550
6,083667	0,5	0,249450
6,092000	0,5	0,272050
6,100333	0,5	0,295600
6,108667	0,5	0,304950
6,117000	0,5	0,297950
6,125333	0,5	0,309450
6,133667	0,5	0,299850
6,142000	0,5	0,305750
6,150333	0,5	0,307450
6,158667	0,5	0,311500
6,167000	0,5	0,305400
6,175333	0,5	0,318150
6,183667	0,5	0,318350
6,192000	0,5	0,320350
6,200333	0,5	0,334200
6,208667	0,5	0,332800
6,217000	0,5	0,323550
6,225333	0,5	0,332250
6,233667	0,5	0,346700
6,242000	0,5	0,367450
6,250333	0,5	0,378050
6,258667	0,5	0,373600
6,267000	0,5	0,379350
6,275333	0,5	0,378750
6,283667	0,5	0,385550
6,292000	0,5	0,376050
6,300333	0,5	0,391850
6,308667	0,5	0,391000
6,317000	0,5	0,402550
6,325333	0,5	0,400450
6,333667	0,5	0,410600
6,342000	0,5	0,421450
6,350333	0,5	0,428950
6,358667	0,5	0,416850
6,367000	0,5	0,414650
6,375333	0,5	0,418450
6,383667	0,5	0,441150
6,392000	0,5	0,458100
6,400333	0,5	0,463200
6,408667	0,5	0,470050
6,417000	0,5	0,480000
6,425333	0,5	0,483350
6,433667	0,5	0,481200
6,442000	0,5	0,488700
6,450333	0,5	0,486350
6,458667	0,5	0,489600
6,467000	0,5	0,500550
6,475333	0,5	0,505300
6,483667	0,5	0,497100
6,492000	0,5	0,522800
6,500333	0,5	0,521300
6,508667	0,5	0,517650
6,517000	0,5	0,518700
6,525333	0,5	0,530150
6,533667	0,5	0,553400
6,542000	0,5	0,566250
6,550333	0,5	0,565100
6,558667	0,5	0,574750
6,567000	0,5	0,573150
6,575333	0,5	0,583000
6,583667	0,5	0,590950
6,592000	0,5	0,592300
6,600333	0,5	0,594650
6,608667	0,5	0,606000
6,617000	0,5	0,618550
6,625333	0,5	0,625100
6,633667	0,5	0,626300
6,642000	0,5	0,650150
6,650333	0,5	0,644450
6,658667	0,5	0,645000
6,667000	0,5	0,655200
6,675333	0,5	0,664500
6,683667	0,5	0,697350
6,692000	0,5	0,698600
6,700333	0,5	0,701200
6,708667	0,5	0,710800
6,717000	0,5	0,727100
6,725333	0,5	0,731950
6,733667	0,5	0,739400
6,742000	0,5	0,745050
6,750333	0,5	0,750650
6,758667	0,5	0,759650
6,767000	0,5	0,772000
6,775333	0,5	0,797200
6,783667	0,5	0,798250
6,792000	0,5	0,820850
6,800333	0,5	0,812450
6,808667	0,5	0,815050
6,817000	0,5	0,824650
6,825333	0,5	0,847250
6,833667	0,5	0,877150
6,842000	0,5	0,881200
6,850333	0,5	0,878800
6,858667	0,5	0,894900
6,867000	0,5	0,903350
6,875333	0,5	0,913700
6,883667	0,5	0,916800
6,892000	0,5	0,930000
6,900333	0,5	0,937200
6,908667	0,5	0,948650
6,917000	0,5	0,975250
6,925333	0,5	0,979600
6,933667	0,5	0,985050
6,942000	0,5	1,002900
6,950333	0,5	0,997700
6,958667	0,5	1,003250
6,967000	0,5	1,019000
6,975333	0,5	1,036600
6,983667	0,5	1,065950
6,992000	0,5	1,060250
7,000333	0,5	1,070450
7,008667	0,5	1,076650
7,017000	0,5	1,089100
7,025333	0,5	1,101200
7,033667	0,5	1,112300
7,042000	0,5	1,115000
7,050333	0,5	1,124550
7,058667	0,5	1,127450
7,067000	0,5	1,140100
7,075333	0,5	1,135200
7,083667	0,5	1,155400
7,092000	0,5	1,154800
7,100333	0,5	1,154700
7,108667	0,5	1,161800
7,117000	0,5	1,172150
7,125333	0,5	1,202700
7,133667	0,5	1,218500
7,142000	0,5	1,222750
7,150333	0,5	1,228050
7,158667	0,5	1,235350
7,167000	0,5	1,229000
7,175333	0,5	1,234500
7,183667	0,5	1,238350
7,192000	0,5	1,246050
7,200333	0,5	1,248500
7,208667	0,5	1,254800
7,217000	0,5	1,257650
7,225333	0,5	1,267700
7,233667	0,5	1,280350
7,242000	0,5	1,273700
7,250333	0,5	1,270450
7,258667	0,5	1,268350
7,267000	0,5	1,286050
7,275333	0,5	1,309900
7,283667	0,5	1,311950
7,292000	0,5	1,310350
7,300333	0,5	1,313100
7,308667	0,5	1,312700
7,317000	0,5	1,311250
7,325333	0,5	1,313800
7,333667	0,5	1,321800
7,342000	0,5	1,315600
7,350333	0,5	1,323350
7,358667	0,5	1,322800
7,367000	0,5	1,326000
7,375333	0,5	1,339300
7,383667	0,5	1,338850
7,392000	0,5	1,330750
7,400333	0,5	1,329650
7,408667	0,5	1,327400
7,417000	0,5	1,344500
7,425333	0,5	1,353350
7,433667	0,5	1,354900
7,442000	0,5	1,353500
7,450333	0,5	1,357600
7,458667	0,5	1,357500
7,467000	0,5	1,359100
7,475333	0,5	1,364350
7,483667	0,5	1,363450
7,492000	0,5	1,366000
7,500333	0,5	1,364450
7,508667	0,5	1,376100
7,517000	0,5	1,376100
7,525333	0,5	1,401250
7,533667	0,5	1,401650
7,542000	0,5	1,407450
7,550333	0,5	1,415100
7,558667	0,5	1,443200
7,567000	0,5	1,491400
7,575333	0,5	1,530250
7,583667	0,5	1,578300
7,592000	0,5	1,651500
7,600333	0,5	1,731950
7,608667	0,5	1,828150
7,617000	0,5	1,920800
7,625333	0,5	2,003250
7,633667	0,5	2,065450
7,642000	0,5	2,084750
7,650333	0,5	2,062450
7,658667	0,5	2,003950
7,667000	0,5	1,928600
7,675333	0,5	1,869700
7,683667	0,5	1,795050
7,692000	0,5	1,750550
7,700333	0,5	1,735300
7,708667	0,5	1,748600
7,717000	0,5	1,812250
7,725333	0,5	1,888400
7,733667	0,5	2,024850
7,742000	0,5	2,228200
7,750333	0,5	2,498900
7,758667	0,5	2,777300
7,767000	0,5	3,011200
7,775333	0,5	3,130050
7,783667	0,5	3,098900
7,792000	0,5	2,928700
7,800333	0,5	2,680650
7,808667	0,5	2,407550
7,817000	0,5	2,159900
7,825333	0,5	1,971200
7,833667	0,5	1,817750
7,842000	0,5	1,715000
7,850333	0,5	1,644500
7,858667	0,5	1,601650
7,867000	0,5	1,572100
7,875333	0,5	1,542100
7,883667	0,5	1,511750
7,892000	0,5	1,499250
7,900333	0,5	1,478600
7,908667	0,5	1,468100
7,917000	0,5	1,457300
7,925333	0,5	1,452700
7,933667	0,5	1,443200
7,942000	0,5	1,444050
7,950333	0,5	1,440750
7,958667	0,5	1,430900
7,967000	0,5	1,434600
7,975333	0,5	1,427650
7,983667	0,5	1,418950
7,992000	0,5	1,417200
8,000333	0,5	1,419800
8,008667	0,5	1,426400
8,017000	0,5	1,439500
8,025333	0,5	1,436700
8,033667	0,5	1,435600
8,042000	0,5	1,437250
8,050333	0,5	1,440100
8,058667	0,5	1,440350
8,067000	0,5	1,443100
8,075333	0,5	1,440450
8,083667	0,5	1,444950
8,092000	0,5	1,454450
8,100333	0,5	1,450550
8,108667	0,5	1,454800
8,117000	0,5	1,480900
8,125333	0,5	1,500050
8,133667	0,5	1,529000
8,142000	0,5	1,576150
8,150333	0,5	1,643050
8,158667	0,5	1,730050
8,167000	0,5	1,815000
8,175333	0,5	1,901950
8,183667	0,5	1,997550
8,192000	0,5	2,112800
8,200333	0,5	2,252550
8,208667	0,5	2,459450
8,217000	0,5	2,782950
8,225333	0,5	3,312500
8,233667	0,5	4,148400
8,242000	0,5	5,353950
8,250333	0,5	6,861400
8,258667	0,5	8,462700
8,267000	0,5	9,780900
8,275333	0,5	10,458750
8,283667	0,5	10,314450
8,292000	0,5	9,439300
8,300333	0,5	8,107500
8,308667	0,5	6,664850
8,317000	0,5	5,333500
8,325333	0,5	4,273000
8,333667	0,5	3,493000
8,342000	0,5	2,951200
8,350333	0,5	2,580000
8,358667	0,5	2,329550
8,367000	0,5	2,151000
8,375333	0,5	2,018600
8,383667	0,5	1,928200
8,392000	0,5	1,859250
8,400333	0,5	1,805150
8,408667	0,5	1,770750
8,417000	0,5	1,736600
8,425333	0,5	1,700800
8,433667	0,5	1,675750
8,442000	0,5	1,655950
8,450333	0,5	1,644800
8,458667	0,5	1,634600
8,467000	0,5	1,624100
8,475333	0,5	1,604900
8,483667	0,5	1,594200
8,492000	0,5	1,583350
8,500333	0,5	1,573850
8,508667	0,5	1,560950
8,517000	0,5	1,554950
8,525333	0,5	1,542050
8,533667	0,5	1,534500
8,542000	0,5	1,530250
8,550333	0,5	1,518100
8,558667	0,5	1,525750
8,567000	0,5	1,514550
8,575333	0,5	1,499200
8,583667	0,5	1,495950
8,592000	0,5	1,491000
8,600333	0,5	1,496400
8,608667	0,5	1,496550
8,617000	0,5	1,489050
8,625333	0,5	1,490250
8,633667	0,5	1,486650
8,642000	0,5	1,484900
8,650333	0,5	1,486150
8,658667	0,5	1,490500
8,667000	0,5	1,483300
8,675333	0,5	1,491300
8,683667	0,5	1,493800
8,692000	0,5	1,493950
8,700333	0,5	1,495900
8,708667	0,5	1,518050
8,717000	0,5	1,530800
8,725333	0,5	1,546950
8,733667	0,5	1,575250
8,742000	0,5	1,611950
8,750333	0,5	1,653100
8,758667	0,5	1,695000
8,767000	0,5	1,759150
8,775333	0,5	1,833250
8,783667	0,5	1,911650
8,792000	0,5	1,960750
8,800333	0,5	1,973950
8,808667	0,5	1,953150
8,817000	0,5	1,923350
8,825333	0,5	1,926200
8,833667	0,5	1,992350
8,842000	0,5	2,146500
8,850333	0,5	2,401450
8,858667	0,5	2,712750
8,867000	0,5	2,964600
8,875333	0,5	3,066700
8,883667	0,5	2,987300
8,892000	0,5	2,771300
8,900333	0,5	2,495050
8,908667	0,5	2,233550
8,917000	0,5	2,036150
8,925333	0,5	1,896750
8,933667	0,5	1,810550
8,942000	0,5	1,743350
8,950333	0,5	1,702550
8,958667	0,5	1,666850
8,967000	0,5	1,643700
8,975333	0,5	1,626850
8,983667	0,5	1,614050
8,992000	0,5	1,610000
9,000333	0,5	1,611350
9,008667	0,5	1,616000
9,017000	0,5	1,620100
9,025333	0,5	1,623050
9,033667	0,5	1,622550
9,042000	0,5	1,615250
9,050333	0,5	1,602500
9,058667	0,5	1,577350
9,067000	0,5	1,561350
9,075333	0,5	1,545300
9,083667	0,5	1,534550
9,092000	0,5	1,526600
9,100333	0,5	1,524650
9,108667	0,5	1,519350
9,117000	0,5	1,516150
9,125333	0,5	1,516150
9,133667	0,5	1,510550
9,142000	0,5	1,502750
9,150333	0,5	1,500450
9,158667	0,5	1,494100
9,167000	0,5	1,482450
9,175333	0,5	1,478800
9,183667	0,5	1,482000
9,192000	0,5	1,482400
9,200333	0,5	1,488050
9,208667	0,5	1,489750
9,217000	0,5	1,485400
9,225333	0,5	1,481100
9,233667	0,5	1,481550
9,242000	0,5	1,481200
9,250333	0,5	1,482850
9,258667	0,5	1,481800
9,267000	0,5	1,483200
9,275333	0,5	1,486550
9,283667	0,5	1,488750
9,292000	0,5	1,491600
9,300333	0,5	1,495700
9,308667	0,5	1,491750
9,317000	0,5	1,490750
9,325333	0,5	1,491650
9,333667	0,5	1,494400
9,342000	0,5	1,504700
9,350333	0,5	1,509350
9,358667	0,5	1,519750
9,367000	0,5	1,534350
9,375333	0,5	1,563350
9,383667	0,5	1,619500
9,392000	0,5	1,709350
9,400333	0,5	1,833850
9,408667	0,5	2,000800
9,417000	0,5	2,191000
9,425333	0,5	2,415800
9,433667	0,5	2,666500
9,442000	0,5	2,994750
9,450333	0,5	3,451950
9,458667	0,5	4,182400
9,467000	0,5	5,393400
9,475333	0,5	7,313500
9,483667	0,5	10,079650
9,492000	0,5	13,473450
9,500333	0,5	16,914700
9,508667	0,5	19,534900
9,517000	0,5	20,608400
9,525333	0,5	19,887600
9,533667	0,5	17,702300
9,542000	0,5	14,704500
9,550333	0,5	11,599950
9,558667	0,5	8,895950
9,567000	0,5	6,791850
9,575333	0,5	5,294000
9,583667	0,5	4,285400
9,592000	0,5	3,638900
9,600333	0,5	3,228700
9,608667	0,5	2,959600
9,617000	0,5	2,770700
9,625333	0,5	2,628700
9,633667	0,5	2,525600
9,642000	0,5	2,474900
9,650333	0,5	2,506300
9,658667	0,5	2,652250
9,667000	0,5	2,896800
9,675333	0,5	3,171750
9,683667	0,5	3,379250
9,692000	0,5	3,428850
9,700333	0,5	3,293350
9,708667	0,5	3,024350
9,717000	0,5	2,701900
9,725333	0,5	2,390850
9,733667	0,5	2,138900
9,742000	0,5	1,962450
9,750333	0,5	1,827850
9,758667	0,5	1,735800
9,767000	0,5	1,663950
9,775333	0,5	1,609650
9,783667	0,5	1,571150
9,792000	0,5	1,536300
9,800333	0,5	1,503350
9,808667	0,5	1,476400
9,817000	0,5	1,452850
9,825333	0,5	1,436050
9,833667	0,5	1,415300
9,842000	0,5	1,395200
9,850333	0,5	1,379950
9,858667	0,5	1,365650
9,867000	0,5	1,349650
9,875333	0,5	1,335100
9,883667	0,5	1,324350
9,892000	0,5	1,319450
9,900333	0,5	1,305050
9,908667	0,5	1,294800
9,917000	0,5	1,292550
9,925333	0,5	1,284050
9,933667	0,5	1,283800
9,942000	0,5	1,284600
9,950333	0,5	1,282800
9,958667	0,5	1,287250
9,967000	0,5	1,286000
9,975333	0,5	1,288000
9,983667	0,5	1,286850
9,992000	0,5	1,279650
10,000333	0,5	1,269050
10,008667	0,5	1,256250
10,017000	0,5	1,239100
10,025333	0,5	1,221300
10,033667	0,5	1,207250
10,042000	0,5	1,190850
10,050333	0,5	1,181150
10,058667	0,5	1,174350
10,067000	0,5	1,166200
10,075333	0,5	1,161350
10,083667	0,5	1,156550
10,092000	0,5	1,149000
10,100333	0,5	1,146200
10,108667	0,5	1,142300
10,117000	0,5	1,136600
10,125333	0,5	1,129950
10,133667	0,5	1,125650
10,142000	0,5	1,121350
10,150333	0,5	1,113900
10,158667	0,5	1,111300
10,167000	0,5	1,106200
10,175333	0,5	1,097550
10,183667	0,5	1,097750
10,192000	0,5	1,093000
10,200333	0,5	1,086800
10,208667	0,5	1,077800
10,217000	0,5	1,080550
10,225333	0,5	1,084550
10,233667	0,5	1,084100
10,242000	0,5	1,082750
10,250333	0,5	1,083800
10,258667	0,5	1,077350
10,267000	0,5	1,080500
10,275333	0,5	1,073700
10,283667	0,5	1,069750
10,292000	0,5	1,069750
10,300333	0,5	1,070350
10,308667	0,5	1,072250
10,317000	0,5	1,068450
10,325333	0,5	1,067500
10,333667	0,5	1,073450
10,342000	0,5	1,074600
10,350333	0,5	1,082650
10,358667	0,5	1,086650
10,367000	0,5	1,090950
10,375333	0,5	1,096800
10,383667	0,5	1,106500
10,392000	0,5	1,114350
10,400333	0,5	1,124100
10,408667	0,5	1,139050
10,417000	0,5	1,167650
10,425333	0,5	1,199200
10,433667	0,5	1,243650
10,442000	0,5	1,304250
10,450333	0,5	1,377700
10,458667	0,5	1,470800
10,467000	0,5	1,576350
10,475333	0,5	1,703200
10,483667	0,5	1,873250
10,492000	0,5	2,113650
10,500333	0,5	2,486750
10,508667	0,5	3,067500
10,517000	0,5	3,941300
10,525333	0,5	5,140800
10,533667	0,5	6,584650
10,542000	0,5	8,087900
10,550333	0,5	9,348650
10,558667	0,5	10,085300
10,567000	0,5	10,118650
10,575333	0,5	9,473850
10,583667	0,5	8,326700
10,592000	0,5	6,950250
10,600333	0,5	5,592850
10,608667	0,5	4,414400
10,617000	0,5	3,495450
10,625333	0,5	2,815050
10,633667	0,5	2,342350
10,642000	0,5	2,012250
10,650333	0,5	1,782450
10,658667	0,5	1,623950
10,667000	0,5	1,504450
10,675333	0,5	1,421100
10,683667	0,5	1,353100
10,692000	0,5	1,304950
10,700333	0,5	1,262050
10,708667	0,5	1,229900
10,717000	0,5	1,204050
10,725333	0,5	1,179400
10,733667	0,5	1,159250
10,742000	0,5	1,147350
10,750333	0,5	1,134300
10,758667	0,5	1,122750
10,767000	0,5	1,111750
10,775333	0,5	1,107350
10,783667	0,5	1,101500
10,792000	0,5	1,096200
10,800333	0,5	1,091400
10,808667	0,5	1,095350
10,817000	0,5	1,100600
10,825333	0,5	1,117350
10,833667	0,5	1,121400
10,842000	0,5	1,133750
10,850333	0,5	1,143350
10,858667	0,5	1,147200
10,867000	0,5	1,145950
10,875333	0,5	1,142200
10,883667	0,5	1,123800
10,892000	0,5	1,108550
10,900333	0,5	1,091300
10,908667	0,5	1,074950
10,917000	0,5	1,052700
10,925333	0,5	1,044000
10,933667	0,5	1,028450
10,942000	0,5	1,018800
10,950333	0,5	1,004450
10,958667	0,5	0,996950
10,967000	0,5	0,993900
10,975333	0,5	0,990700
10,983667	0,5	0,986900
10,992000	0,5	0,980050
11,000333	0,5	0,980950
11,008667	0,5	0,977150
11,017000	0,5	0,973600
11,025333	0,5	0,974600
11,033667	0,5	0,971950
11,042000	0,5	0,970100
11,050333	0,5	0,966150
11,058667	0,5	0,959000
11,067000	0,5	0,957300
11,075333	0,5	0,958900
11,083667	0,5	0,955200
11,092000	0,5	0,956750
11,100333	0,5	0,953600
11,108667	0,5	0,955500
11,117000	0,5	0,953800
11,125333	0,5	0,955600
11,133667	0,5	0,952150
11,142000	0,5	0,951650
11,150333	0,5	0,949300
11,158667	0,5	0,947350
11,167000	0,5	0,948750
11,175333	0,5	0,946250
11,183667	0,5	0,942950
11,192000	0,5	0,938150
11,200333	0,5	0,934050
11,208667	0,5	0,930000
11,217000	0,5	0,926500
11,225333	0,5	0,924800
11,233667	0,5	0,915100
11,242000	0,5	0,916300
11,250333	0,5	0,909050
11,258667	0,5	0,907650
11,267000	0,5	0,905000
11,275333	0,5	0,910150
11,283667	0,5	0,909300
11,292000	0,5	0,912300
11,300333	0,5	0,912100
11,308667	0,5	0,912950
11,317000	0,5	0,923950
11,325333	0,5	0,935550
11,333667	0,5	0,957750
11,342000	0,5	0,987300
11,350333	0,5	1,033200
11,358667	0,5	1,095900
11,367000	0,5	1,175450
11,375333	0,5	1,261850
11,383667	0,5	1,373450
11,392000	0,5	1,506700
11,400333	0,5	1,677400
11,408667	0,5	1,933600
11,417000	0,5	2,310250
11,425333	0,5	2,883350
11,433667	0,5	3,742750
11,442000	0,5	4,916800
11,450333	0,5	6,361650
11,458667	0,5	7,895700
11,467000	0,5	9,254000
11,475333	0,5	10,141650
11,483667	0,5	10,370000
11,492000	0,5	9,891550
11,500333	0,5	8,844450
11,508667	0,5	7,481000
11,517000	0,5	6,061100
11,525333	0,5	4,776600
11,533667	0,5	3,728950
11,542000	0,5	2,941900
11,550333	0,5	2,375900
11,558667	0,5	1,988800
11,567000	0,5	1,718550
11,575333	0,5	1,530850
11,583667	0,5	1,394850
11,592000	0,5	1,292750
11,600333	0,5	1,224700
11,608667	0,5	1,167850
11,617000	0,5	1,122550
11,625333	0,5	1,086000
11,633667	0,5	1,059650
11,642000	0,5	1,047300
11,650333	0,5	1,024150
11,658667	0,5	1,019050
11,667000	0,5	1,018050
11,675333	0,5	1,018600
11,683667	0,5	1,026100
11,692000	0,5	1,034050
11,700333	0,5	1,054900
11,708667	0,5	1,079000
11,717000	0,5	1,099950
11,725333	0,5	1,121450
11,733667	0,5	1,142700
11,742000	0,5	1,156100
11,750333	0,5	1,174700
11,758667	0,5	1,182600
11,767000	0,5	1,191450
11,775333	0,5	1,193200
11,783667	0,5	1,189800
11,792000	0,5	1,190650
11,800333	0,5	1,183350
11,808667	0,5	1,178450
11,817000	0,5	1,160700
11,825333	0,5	1,146500
11,833667	0,5	1,122550
11,842000	0,5	1,098100
11,850333	0,5	1,075300
11,858667	0,5	1,051900
11,867000	0,5	1,030500
11,875333	0,5	1,013000
11,883667	0,5	0,996750
11,892000	0,5	0,984100
11,900333	0,5	0,973350
11,908667	0,5	0,972250
11,917000	0,5	0,966450
11,925333	0,5	0,966700
11,933667	0,5	0,960850
11,942000	0,5	0,963800
11,950333	0,5	0,959000
11,958667	0,5	0,966800
11,967000	0,5	0,969200
11,975333	0,5	0,973050
11,983667	0,5	0,980300
11,992000	0,5	0,990800
12,000333	0,5	1,007350
12,008667	0,5	1,017100
12,017000	0,5	1,027800
12,025333	0,5	1,040050
12,033667	0,5	1,042800
12,042000	0,5	1,041650
12,050333	0,5	1,043500
12,058667	0,5	1,038600
12,067000	0,5	1,035850
12,075333	0,5	1,026950
12,083667	0,5	1,025950
12,092000	0,5	1,017750
12,100333	0,5	1,023000
12,108667	0,5	1,026150
12,117000	0,5	1,039500
12,125333	0,5	1,055900
12,133667	0,5	1,083200
12,142000	0,5	1,121950
12,150333	0,5	1,181650
12,158667	0,5	1,248350
12,167000	0,5	1,331650
12,175333	0,5	1,439250
12,183667	0,5	1,596350
12,192000	0,5	1,830650
12,200333	0,5	2,190650
12,208667	0,5	2,726050
12,217000	0,5	3,470300
12,225333	0,5	4,383550
12,233667	0,5	5,378550
12,242000	0,5	6,265450
12,250333	0,5	6,876100
12,258667	0,5	7,052950
12,267000	0,5	6,775750
12,275333	0,5	6,118250
12,283667	0,5	5,250200
12,292000	0,5	4,337100
12,300333	0,5	3,514900
12,308667	0,5	2,845850
12,317000	0,5	2,346550
12,325333	0,5	2,000950
12,333667	0,5	1,756700
12,342000	0,5	1,587500
12,350333	0,5	1,481150
12,358667	0,5	1,402300
12,367000	0,5	1,353350
12,375333	0,5	1,314850
12,383667	0,5	1,287950
12,392000	0,5	1,256800
12,400333	0,5	1,243050
12,408667	0,5	1,226850
12,417000	0,5	1,214550
12,425333	0,5	1,192600
12,433667	0,5	1,178700
12,442000	0,5	1,173500
12,450333	0,5	1,168150
12,458667	0,5	1,154750
12,467000	0,5	1,153150
12,475333	0,5	1,146000
12,483667	0,5	1,141350
12,492000	0,5	1,139250
12,500333	0,5	1,133100
12,508667	0,5	1,128350
12,517000	0,5	1,122800
12,525333	0,5	1,123400
12,533667	0,5	1,113950
12,542000	0,5	1,108400
12,550333	0,5	1,102700
12,558667	0,5	1,098200
12,567000	0,5	1,094850
12,575333	0,5	1,089500
12,583667	0,5	1,084600
12,592000	0,5	1,091600
12,600333	0,5	1,090350
12,608667	0,5	1,094450
12,617000	0,5	1,099000
12,625333	0,5	1,105450
12,633667	0,5	1,103000
12,642000	0,5	1,114150
12,650333	0,5	1,116650
12,658667	0,5	1,118500
12,667000	0,5	1,123150
12,675333	0,5	1,127300
12,683667	0,5	1,120600
12,692000	0,5	1,130100
12,700333	0,5	1,132300
12,708667	0,5	1,137000
12,717000	0,5	1,139950
12,725333	0,5	1,143700
12,733667	0,5	1,155550
12,742000	0,5	1,165300
12,750333	0,5	1,171250
12,758667	0,5	1,174600
12,767000	0,5	1,183100
12,775333	0,5	1,187650
12,783667	0,5	1,200900
12,792000	0,5	1,211350
12,800333	0,5	1,238450
12,808667	0,5	1,273750
12,817000	0,5	1,274550
12,825333	0,5	1,387350
12,833667	0,5	1,449100
12,842000	0,5	1,518950
12,850333	0,5	1,572350
12,858667	0,5	1,602100
12,867000	0,5	1,603950
12,875333	0,5	1,583850
12,883667	0,5	1,548800
12,892000	0,5	1,500050
12,900333	0,5	1,434100
12,908667	0,5	1,366700
12,917000	0,5	1,301300
12,925333	0,5	1,245200
12,933667	0,5	1,194400
12,942000	0,5	1,157350
12,950333	0,5	1,120550
12,958667	0,5	1,090950
12,967000	0,5	1,063550
12,975333	0,5	1,032450
12,983667	0,5	1,012800
12,992000	0,5	1,002800
13,000333	0,5	0,987300
13,008667	0,5	0,988050
13,017000	0,5	0,987750
13,025333	0,5	0,990700
13,033667	0,5	1,001550
13,042000	0,5	0,996350
13,050333	0,5	0,988100
13,058667	0,5	0,961450
13,067000	0,5	0,930350
13,075333	0,5	0,901450
13,083667	0,5	0,870800
13,092000	0,5	0,834300
13,100333	0,5	0,809300
13,108667	0,5	0,787800
13,117000	0,5	0,774950
13,125333	0,5	0,748450
13,133667	0,5	0,740200
13,142000	0,5	0,727750
13,150333	0,5	0,714650
13,158667	0,5	0,707600
13,167000	0,5	0,691350
13,175333	0,5	0,690200
13,183667	0,5	0,686200
13,192000	0,5	0,683800
13,200333	0,5	0,680000
13,208667	0,5	0,677400
13,217000	0,5	0,673500
13,225333	0,5	0,660300
13,233667	0,5	0,650550
13,242000	0,5	0,643400
13,250333	0,5	0,634500
13,258667	0,5	0,630000
13,267000	0,5	0,619000
13,275333	0,5	0,605900
13,283667	0,5	0,599800
13,292000	0,5	0,600100
13,300333	0,5	0,583850
13,308667	0,5	0,580700
13,317000	0,5	0,568700
13,325333	0,5	0,571750
13,333667	0,5	0,568750
13,342000	0,5	0,561250
13,350333	0,5	0,554750
13,358667	0,5	0,553150
13,367000	0,5	0,555200
13,375333	0,5	0,551700
13,383667	0,5	0,558600
13,392000	0,5	0,560850
13,400333	0,5	0,562800
13,408667	0,5	0,567700
13,417000	0,5	0,557550
13,425333	0,5	0,548550
13,433667	0,5	0,536400
13,442000	0,5	0,525750
13,450333	0,5	0,514800
13,458667	0,5	0,503600
13,467000	0,5	0,508400
13,475333	0,5	0,513250
13,483667	0,5	0,524750
13,492000	0,5	0,528350
13,500333	0,5	0,534600
13,508667	0,5	0,528650
13,517000	0,5	0,525250
13,525333	0,5	0,510500
13,533667	0,5	0,498250
13,542000	0,5	0,493000
13,550333	0,5	0,481250
13,558667	0,5	0,488000
13,567000	0,5	0,496300
13,575333	0,5	0,506600
13,583667	0,5	0,515250
13,592000	0,5	0,522650
13,600333	0,5	0,516750
13,608667	0,5	0,506850
13,617000	0,5	0,499400
13,625333	0,5	0,499600
13,633667	0,5	0,495450
13,642000	0,5	0,502600
13,650333	0,5	0,523350
13,658667	0,5	0,568700
13,667000	0,5	0,624400
13,675333	0,5	0,704800
13,683667	0,5	0,798850
13,692000	0,5	0,883450
13,700333	0,5	0,944450
13,708667	0,5	0,962100
13,717000	0,5	0,922900
13,725333	0,5	0,875650
13,733667	0,5	0,799800
13,742000	0,5	0,727800
13,750333	0,5	0,655300
13,758667	0,5	0,601200
13,767000	0,5	0,577550
13,775333	0,5	0,558450
13,783667	0,5	0,554200
13,792000	0,5	0,556350
13,800333	0,5	0,573650
13,808667	0,5	0,595950
13,817000	0,5	0,617650
13,825333	0,5	0,634500
13,833667	0,5	0,636150
13,842000	0,5	0,619450
13,850333	0,5	0,597350
13,858667	0,5	0,551250
13,867000	0,5	0,520100
13,875333	0,5	0,491550
13,883667	0,5	0,464200
13,892000	0,5	0,448200
13,900333	0,5	0,428700
13,908667	0,5	0,412000
13,917000	0,5	0,410800
13,925333	0,5	0,411550
13,933667	0,5	0,401000
13,942000	0,5	0,401500
13,950333	0,5	0,394900
13,958667	0,5	0,390800
13,967000	0,5	0,384600
13,975333	0,5	0,383800
13,983667	0,5	0,381300
13,992000	0,5	0,378200
14,000333	0,5	0,377250
14,008667	0,5	0,371100
14,017000	0,5	0,379900
14,025333	0,5	0,383400
14,033667	0,5	0,377400
14,042000	0,5	0,377450
14,050333	0,5	0,360050
14,058667	0,5	0,355500
14,067000	0,5	0,360250
14,075333	0,5	0,352850
14,083667	0,5	0,353650
14,092000	0,5	0,357750
14,100333	0,5	0,358700
14,108667	0,5	0,358350
14,117000	0,5	0,369450
14,125333	0,5	0,365700
14,133667	0,5	0,365050
14,142000	0,5	0,367350
14,150333	0,5	0,372200
14,158667	0,5	0,369600
14,167000	0,5	0,385800
14,175333	0,5	0,395950
14,183667	0,5	0,408350
14,192000	0,5	0,406850
14,200333	0,5	0,407750
14,208667	0,5	0,406300
14,217000	0,5	0,394550
14,225333	0,5	0,372750
14,233667	0,5	0,354550
14,242000	0,5	0,335900
14,250333	0,5	0,325750
14,258667	0,5	0,315250
14,267000	0,5	0,309800
14,275333	0,5	0,306300
14,283667	0,5	0,296900
14,292000	0,5	0,298950
14,300333	0,5	0,295950
14,308667	0,5	0,309950
14,317000	0,5	0,339550
14,325333	0,5	0,386350
14,333667	0,5	0,449850
14,342000	0,5	0,536750
14,350333	0,5	0,653100
14,358667	0,5	0,769050
14,367000	0,5	0,838950
14,375333	0,5	0,866150
14,383667	0,5	0,837050
14,392000	0,5	0,769750
14,400333	0,5	0,676250
14,408667	0,5	0,602500
14,417000	0,5	0,537800
14,425333	0,5	0,491750
14,433667	0,5	0,468000
14,442000	0,5	0,474600
14,450333	0,5	0,487050
14,458667	0,5	0,522150
14,467000	0,5	0,561550
14,475333	0,5	0,584850
14,483667	0,5	0,578900
14,492000	0,5	0,547450
14,500333	0,5	0,517350
14,508667	0,5	0,486350
14,517000	0,5	0,456500
14,525333	0,5	0,423800
14,533667	0,5	0,405100
14,542000	0,5	0,392300
14,550333	0,5	0,374800
14,558667	0,5	0,359850
14,567000	0,5	0,347100
14,575333	0,5	0,326550
14,583667	0,5	0,314000
14,592000	0,5	0,304000
14,600333	0,5	0,280550
14,608667	0,5	0,282800
14,617000	0,5	0,277550
14,625333	0,5	0,276050
14,633667	0,5	0,262800
14,642000	0,5	0,247750
14,650333	0,5	0,249200
14,658667	0,5	0,250800
14,667000	0,5	0,239850
14,675333	0,5	0,238050
14,683667	0,5	0,225150
14,692000	0,5	0,232000
14,700333	0,5	0,234600
14,708667	0,5	0,245950
14,717000	0,5	0,262850
14,725333	0,5	0,273500
14,733667	0,5	0,276500
14,742000	0,5	0,269550
14,750333	0,5	0,255450
14,758667	0,5	0,241350
14,767000	0,5	0,215800
14,775333	0,5	0,190200
14,783667	0,5	0,167950
14,792000	0,5	0,143650
14,800333	0,5	0,139900
14,808667	0,5	0,125100
14,817000	0,5	0,117850
14,825333	0,5	0,114300
14,833667	0,5	0,116300
14,842000	0,5	0,111000
14,850333	0,5	0,113900
14,858667	0,5	0,109450
14,867000	0,5	0,110150
14,875333	0,5	0,123250
14,883667	0,5	0,139250
14,892000	0,5	0,158700
14,900333	0,5	0,209500
14,908667	0,5	0,287200
14,917000	0,5	0,388950
14,925333	0,5	0,509250
14,933667	0,5	0,607250
14,942000	0,5	0,680000
14,950333	0,5	0,697650
14,958667	0,5	0,653950
14,967000	0,5	0,567200
14,975333	0,5	0,477200
14,983667	0,5	0,394600
14,992000	0,5	0,352400
15,000333	0,5	0,327800
15,008667	0,5	0,334200
15,017000	0,5	0,360450
15,025333	0,5	0,395000
15,033667	0,5	0,403800
15,042000	0,5	0,393400
15,050333	0,5	0,364300
15,058667	0,5	0,327250
15,067000	0,5	0,275850
15,075333	0,5	0,231400
15,083667	0,5	0,187050
15,092000	0,5	0,164750
15,100333	0,5	0,152800
15,108667	0,5	0,136050
15,117000	0,5	0,124650
15,125333	0,5	0,116150
15,133667	0,5	0,112750
15,142000	0,5	0,108200
15,150333	0,5	0,114650
15,158667	0,5	0,107750
15,167000	0,5	0,116550
15,175333	0,5	0,127700
15,183667	0,5	0,126550
15,192000	0,5	0,133300
15,200333	0,5	0,139950
15,208667	0,5	0,135800
15,217000	0,5	0,128200
15,225333	0,5	0,103100
15,233667	0,5	0,098100
15,242000	0,5	0,096800
15,250333	0,5	0,086400
15,258667	0,5	0,070700
15,267000	0,5	0,057850
15,275333	0,5	0,044650
15,283667	0,5	0,026850
15,292000	0,5	0,017950
15,300333	0,5	0,003100
15,308667	0,5	0,000350
15,317000	0,5	-0,008650
15,325333	0,5	-0,004050
15,333667	0,5	-0,017850
15,342000	0,5	-0,005900
15,350333	0,5	-0,009500
15,358667	0,5	-0,012050
15,367000	0,5	-0,015700
15,375333	0,5	-0,021950
15,383667	0,5	-0,006200
15,392000	0,5	0,021150
15,400333	0,5	0,061900
15,408667	0,5	0,131250
15,417000	0,5	0,228950
15,425333	0,5	0,357100
15,433667	0,5	0,484700
15,442000	0,5	0,589550
15,450333	0,5	0,631050
15,458667	0,5	0,604900
15,467000	0,5	0,550850
15,475333	0,5	0,474850
15,483667	0,5	0,388650
15,492000	0,5	0,363550
15,500333	0,5	0,350350
15,508667	0,5	0,367950
15,517000	0,5	0,382400
15,525333	0,5	0,359650
15,533667	0,5	0,359300
15,542000	0,5	0,325400
15,550333	0,5	0,286550
15,558667	0,5	0,239500
15,567000	0,5	0,208350
15,575333	0,5	0,177800
15,583667	0,5	0,162950
15,592000	0,5	0,153600
15,600333	0,5	0,146550
15,608667	0,5	0,140950
15,617000	0,5	0,146650
15,625333	0,5	0,130600
15,633667	0,5	0,114550
15,642000	0,5	0,109300
15,650333	0,5	0,089900
15,658667	0,5	0,071300
15,667000	0,5	0,042900
15,675333	0,5	0,030650
15,683667	0,5	0,017750
15,692000	0,5	0,007450
15,700333	0,5	-0,008250
15,708667	0,5	-0,019600
15,717000	0,5	-0,041400
15,725333	0,5	-0,063150
15,733667	0,5	-0,081300
15,742000	0,5	-0,096950
15,750333	0,5	-0,113150
15,758667	0,5	-0,128300
15,767000	0,5	-0,140200
15,775333	0,5	-0,156450
15,783667	0,5	-0,165050
15,792000	0,5	-0,166250
15,800333	0,5	-0,168300
15,808667	0,5	-0,172750
15,817000	0,5	-0,180650
15,825333	0,5	-0,166850
15,833667	0,5	-0,144350
15,842000	0,5	-0,118950
15,850333	0,5	-0,060600
15,858667	0,5	0,018700
15,867000	0,5	0,139400
15,875333	0,5	0,267100
15,883667	0,5	0,382800
15,892000	0,5	0,445850
15,900333	0,5	0,451400
15,908667	0,5	0,412750
15,917000	0,5	0,346500
15,925333	0,5	0,277450
15,933667	0,5	0,242850
15,942000	0,5	0,230850
15,950333	0,5	0,223950
15,958667	0,5	0,195700
15,967000	0,5	0,157050
15,975333	0,5	0,122100
15,983667	0,5	0,083600
15,992000	0,5	0,051650
16,000333	0,5	0,015650
16,008667	0,5	-0,013050
16,017000	0,5	-0,039950
16,025333	0,5	-0,050950
16,033667	0,5	-0,068300
16,042000	0,5	-0,076900
16,050333	0,5	-0,081100
16,058667	0,5	-0,067350
16,067000	0,5	-0,081150
16,075333	0,5	-0,069150
16,083667	0,5	-0,076700
16,092000	0,5	-0,083900
16,100333	0,5	-0,098650
16,108667	0,5	-0,135550
16,117000	0,5	-0,150600
16,125333	0,5	-0,168300
16,133667	0,5	-0,185600
16,142000	0,5	-0,216500
16,150333	0,5	-0,221550
16,158667	0,5	-0,241350
16,167000	0,5	-0,255850
16,175333	0,5	-0,265300
16,183667	0,5	-0,268050
16,192000	0,5	-0,278200
16,200333	0,5	-0,278800
16,208667	0,5	-0,275100
16,217000	0,5	-0,280200
16,225333	0,5	-0,266300
16,233667	0,5	-0,242400
16,242000	0,5	-0,217700
16,250333	0,5	-0,163600
16,258667	0,5	-0,095800
16,267000	0,5	0,040050
16,275333	0,5	0,173750
16,283667	0,5	0,276100
16,292000	0,5	0,335200
16,300333	0,5	0,332050
16,308667	0,5	0,296150
16,317000	0,5	0,240650
16,325333	0,5	0,198100
16,333667	0,5	0,167550
16,342000	0,5	0,139150
16,350333	0,5	0,109350
16,358667	0,5	0,078950
16,367000	0,5	0,008700
16,375333	0,5	-0,029450
16,383667	0,5	-0,079550
16,392000	0,5	-0,116250
16,400333	0,5	-0,152150
16,408667	0,5	-0,177700
16,417000	0,5	-0,170750
16,425333	0,5	-0,165650
16,433667	0,5	-0,167750
16,442000	0,5	-0,169400
16,450333	0,5	-0,166850
16,458667	0,5	-0,172900
16,467000	0,5	-0,172750
16,475333	0,5	-0,186200
16,483667	0,5	-0,197700
16,492000	0,5	-0,220450
16,500333	0,5	-0,236650
16,508667	0,5	-0,266100
16,517000	0,5	-0,281900
16,525333	0,5	-0,292650
16,533667	0,5	-0,305300
16,542000	0,5	-0,328650
16,550333	0,5	-0,354200
16,558667	0,5	-0,362150
16,567000	0,5	-0,355450
16,575333	0,5	-0,348350
16,583667	0,5	-0,335800
16,592000	0,5	-0,314900
16,600333	0,5	-0,282950
16,608667	0,5	-0,226400
16,617000	0,5	-0,142950
16,625333	0,5	-0,024900
16,633667	0,5	0,106150
16,642000	0,5	0,248500
16,650333	0,5	0,350750
16,658667	0,5	0,392700
16,667000	0,5	0,412550
16,675333	0,5	0,408300
16,683667	0,5	0,392800
16,692000	0,5	0,382400
16,700333	0,5	0,371500
16,708667	0,5	0,377100
16,717000	0,5	0,383900
16,725333	0,5	0,384700
16,733667	0,5	0,383550
16,742000	0,5	0,384450
16,750333	0,5	0,373350
16,758667	0,5	0,363450
16,767000	0,5	0,345400
16,775333	0,5	0,316600
16,783667	0,5	0,277200
16,792000	0,5	0,234550
16,800333	0,5	0,183700
16,808667	0,5	0,131150
16,817000	0,5	0,085050
16,825333	0,5	0,035150
16,833667	0,5	-0,017350
16,842000	0,5	-0,079400
16,850333	0,5	-0,125500
16,858667	0,5	-0,169200
16,867000	0,5	-0,191400
16,875333	0,5	-0,219600
16,883667	0,5	-0,235800
16,892000	0,5	-0,258250
16,900333	0,5	-0,267850
16,908667	0,5	-0,273900
16,917000	0,5	-0,273900
16,925333	0,5	-0,266000
16,933667	0,5	-0,245250
16,942000	0,5	-0,186850
16,950333	0,5	-0,112000
16,958667	0,5	-0,003200
16,967000	0,5	0,120350
16,975333	0,5	0,209650
16,983667	0,5	0,246700
16,992000	0,5	0,229050
17,000333	0,5	0,188850
17,008667	0,5	0,152950
17,017000	0,5	0,100400
17,025333	0,5	0,054800
17,033667	0,5	-0,000800
17,042000	0,5	-0,033250
17,050333	0,5	-0,079000
17,058667	0,5	-0,100300
17,067000	0,5	-0,117800
17,075333	0,5	-0,116950
17,083667	0,5	-0,105400
17,092000	0,5	-0,090800
17,100333	0,5	-0,091100
17,108667	0,5	-0,064000
17,117000	0,5	-0,046850
17,125333	0,5	-0,038150
17,133667	0,5	-0,030450
17,142000	0,5	-0,035450
17,150333	0,5	0,008950
17,158667	0,5	0,035800
17,167000	0,5	0,092500
17,175333	0,5	0,156250
17,183667	0,5	0,272550
17,192000	0,5	0,415600
17,200333	0,5	0,623050
17,208667	0,5	0,891900
17,217000	0,5	1,223450
17,225333	0,5	1,622050
17,233667	0,5	2,082150
17,242000	0,5	2,556100
17,250333	0,5	3,006900
17,258667	0,5	3,402350
17,267000	0,5	3,659250
17,275333	0,5	3,757900
17,283667	0,5	3,694400
17,292000	0,5	3,502500
17,300333	0,5	3,239050
17,308667	0,5	2,907400
17,317000	0,5	2,546200
17,325333	0,5	2,195800
17,333667	0,5	1,857800
17,342000	0,5	1,576800
17,350333	0,5	1,326350
17,358667	0,5	1,133150
17,367000	0,5	0,960400
17,375333	0,5	0,824300
17,383667	0,5	0,721750
17,392000	0,5	0,626750
17,400333	0,5	0,553500
17,408667	0,5	0,496250
17,417000	0,5	0,432250
17,425333	0,5	0,378300
17,433667	0,5	0,314950
17,442000	0,5	0,282550
17,450333	0,5	0,266750
17,458667	0,5	0,247800
17,467000	0,5	0,241200
17,475333	0,5	0,253000
17,483667	0,5	0,287400
17,492000	0,5	0,337450
17,500333	0,5	0,419150
17,508667	0,5	0,515350
17,517000	0,5	0,614950
17,525333	0,5	0,696650
17,533667	0,5	0,751300
17,542000	0,5	0,740650
17,550333	0,5	0,722050
17,558667	0,5	0,656950
17,567000	0,5	0,588150
17,575333	0,5	0,484000
17,583667	0,5	0,386450
17,592000	0,5	0,309450
17,600333	0,5	0,253950
17,608667	0,5	0,199650
17,617000	0,5	0,153350
17,625333	0,5	0,112500
17,633667	0,5	0,081600
17,642000	0,5	0,047450
17,650333	0,5	0,014150
17,658667	0,5	-0,019000
17,667000	0,5	-0,049850
17,675333	0,5	-0,070000
17,683667	0,5	-0,106250
17,692000	0,5	-0,121550
17,700333	0,5	-0,138250
17,708667	0,5	-0,149650
17,717000	0,5	-0,162100
17,725333	0,5	-0,170300
17,733667	0,5	-0,163050
17,742000	0,5	-0,128650
17,750333	0,5	-0,077700
17,758667	0,5	-0,011550
17,767000	0,5	0,042550
17,775333	0,5	0,064900
17,783667	0,5	0,067400
17,792000	0,5	0,037850
17,800333	0,5	0,013950
17,808667	0,5	-0,035950
17,817000	0,5	-0,063200
17,825333	0,5	-0,100200
17,833667	0,5	-0,141750
17,842000	0,5	-0,162500
17,850333	0,5	-0,172150
17,858667	0,5	-0,198950
17,867000	0,5	-0,219550
17,875333	0,5	-0,256400
17,883667	0,5	-0,270900
17,892000	0,5	-0,281550
17,900333	0,5	-0,287700
17,908667	0,5	-0,299400
17,917000	0,5	-0,297050
17,925333	0,5	-0,298300
17,933667	0,5	-0,290500
17,942000	0,5	-0,279850
17,950333	0,5	-0,266850
17,958667	0,5	-0,242900
17,967000	0,5	-0,194300
17,975333	0,5	-0,134100
17,983667	0,5	-0,110600
17,992000	0,5	-0,062900
18,000333	0,5	-0,053250
18,008667	0,5	-0,071150
18,017000	0,5	-0,114350
18,025333	0,5	-0,158500
18,033667	0,5	-0,193050
18,042000	0,5	-0,219450
18,050333	0,5	-0,245450
18,058667	0,5	-0,263800
18,067000	0,5	-0,286500
18,075333	0,5	-0,301250
18,083667	0,5	-0,316650
18,092000	0,5	-0,323600
18,100333	0,5	-0,333000
18,108667	0,5	-0,339600
18,117000	0,5	-0,318700
18,125333	0,5	-0,333950
18,133667	0,5	-0,332450
18,142000	0,5	-0,314650
18,150333	0,5	-0,303550
18,158667	0,5	-0,282900
18,167000	0,5	-0,259250
18,175333	0,5	-0,207250
18,183667	0,5	-0,154250
18,192000	0,5	-0,138000
18,200333	0,5	-0,143500
18,208667	0,5	-0,163350
18,217000	0,5	-0,190600
18,225333	0,5	-0,224600
18,233667	0,5	-0,251200
18,242000	0,5	-0,280350
18,250333	0,5	-0,296200
18,258667	0,5	-0,311050
18,267000	0,5	-0,319750
18,275333	0,5	-0,348150
18,283667	0,5	-0,338600
18,292000	0,5	-0,346000
18,300333	0,5	-0,346700
18,308667	0,5	-0,350900
18,317000	0,5	-0,373100
18,325333	0,5	-0,351200
18,333667	0,5	-0,327900
18,342000	0,5	-0,293800
18,350333	0,5	-0,260050
18,358667	0,5	-0,207200
18,367000	0,5	-0,182900
18,375333	0,5	-0,180800
18,383667	0,5	-0,192300
18,392000	0,5	-0,223600
18,400333	0,5	-0,257400
18,408667	0,5	-0,283950
18,417000	0,5	-0,297550
18,425333	0,5	-0,317950
18,433667	0,5	-0,320900
18,442000	0,5	-0,330650
18,450333	0,5	-0,332850
18,458667	0,5	-0,354300
18,467000	0,5	-0,374800
18,475333	0,5	-0,368700
18,483667	0,5	-0,361200
18,492000	0,5	-0,366500
18,500333	0,5	-0,342000
18,508667	0,5	-0,331550
18,517000	0,5	-0,292550
18,525333	0,5	-0,266900
18,533667	0,5	-0,243850
18,542000	0,5	-0,241850
18,550333	0,5	-0,257200
18,558667	0,5	-0,277200
18,567000	0,5	-0,306500
18,575333	0,5	-0,326300
18,583667	0,5	-0,336850
18,592000	0,5	-0,352850
18,600333	0,5	-0,370550
18,608667	0,5	-0,395700
18,617000	0,5	-0,416750
18,625333	0,5	-0,410500
18,633667	0,5	-0,416150
18,642000	0,5	-0,404200
18,650333	0,5	-0,404600
18,658667	0,5	-0,402350
18,667000	0,5	-0,396500
18,675333	0,5	-0,381300
18,683667	0,5	-0,364000
18,692000	0,5	-0,349800
18,700333	0,5	-0,346200
18,708667	0,5	-0,333850
18,717000	0,5	-0,355650
18,725333	0,5	-0,352750
18,733667	0,5	-0,357550
18,742000	0,5	-0,370600
18,750333	0,5	-0,389450
18,758667	0,5	-0,415000
18,767000	0,5	-0,410400
18,775333	0,5	-0,401350
18,783667	0,5	-0,394200
18,792000	0,5	-0,381100
18,800333	0,5	-0,368850
18,808667	0,5	-0,351800
18,817000	0,5	-0,321200
18,825333	0,5	-0,275100
18,833667	0,5	-0,224900
18,842000	0,5	-0,176950
18,850333	0,5	-0,129200
18,858667	0,5	-0,128550
18,867000	0,5	-0,123500
18,875333	0,5	-0,144000
18,883667	0,5	-0,164950
18,892000	0,5	-0,201600
18,900333	0,5	-0,260300
18,908667	0,5	-0,292700
18,917000	0,5	-0,316850
18,925333	0,5	-0,335200
18,933667	0,5	-0,356600
18,942000	0,5	-0,362850
18,950333	0,5	-0,367100
18,958667	0,5	-0,353550
18,967000	0,5	-0,349400
18,975333	0,5	-0,326850
18,983667	0,5	-0,335100
18,992000	0,5	-0,346400
19,000333	0,5	-0,365400
19,008667	0,5	-0,414150
19,017000	0,5	-0,420600
19,025333	0,5	-0,430300
19,033667	0,5	-0,449800
19,042000	0,5	-0,461450
19,050333	0,5	-0,487250
19,058667	0,5	-0,480350
19,067000	0,5	-0,463750
19,075333	0,5	-0,450750
19,083667	0,5	-0,440400
19,092000	0,5	-0,430400
19,100333	0,5	-0,434500
19,108667	0,5	-0,452650
19,117000	0,5	-0,464950
19,125333	0,5	-0,483600
19,133667	0,5	-0,496950
19,142000	0,5	-0,497950
19,150333	0,5	-0,487800
19,158667	0,5	-0,494300
19,167000	0,5	-0,471850
19,175333	0,5	-0,472400
19,183667	0,5	-0,468650
19,192000	0,5	-0,484400
19,200333	0,5	-0,505350
19,208667	0,5	-0,505400
19,217000	0,5	-0,515850
19,225333	0,5	-0,538350
19,233667	0,5	-0,546050
19,242000	0,5	-0,559500
19,250333	0,5	-0,566750
19,258667	0,5	-0,579150
19,267000	0,5	-0,583300
19,275333	0,5	-0,583450
19,283667	0,5	-0,587150
19,292000	0,5	-0,575050
19,300333	0,5	-0,576700
19,308667	0,5	-0,583350
19,317000	0,5	-0,590000
19,325333	0,5	-0,597150
19,333667	0,5	-0,615100
19,342000	0,5	-0,639800
19,350333	0,5	-0,656250
19,358667	0,5	-0,655000
19,367000	0,5	-0,658950
19,375333	0,5	-0,661000
19,383667	0,5	-0,653050
19,392000	0,5	-0,655850
19,400333	0,5	-0,656150
19,408667	0,5	-0,659350
19,417000	0,5	-0,673200
19,425333	0,5	-0,692400
19,433667	0,5	-0,688150
19,442000	0,5	-0,684150
19,450333	0,5	-0,692000
19,458667	0,5	-0,674900
19,467000	0,5	-0,674350
19,475333	0,5	-0,681500
19,483667	0,5	-0,697100
19,492000	0,5	-0,728550
19,500333	0,5	-0,732000
19,508667	0,5	-0,736550
19,517000	0,5	-0,738150
19,525333	0,5	-0,743100
19,533667	0,5	-0,742850
19,542000	0,5	-0,746850
19,550333	0,5	-0,744750
19,558667	0,5	-0,743500
19,567000	0,5	-0,747950
19,575333	0,5	-0,748800
19,583667	0,5	-0,749150
19,592000	0,5	-0,756450
19,600333	0,5	-0,774050
19,608667	0,5	-0,772350
19,617000	0,5	-0,777350
19,625333	0,5	-0,781700
19,633667	0,5	-0,810550
19,642000	0,5	-0,816850
19,650333	0,5	-0,828750
19,658667	0,5	-0,827450
19,667000	0,5	-0,841100
19,675333	0,5	-0,840550
19,683667	0,5	-0,835300
19,692000	0,5	-0,838100
19,700333	0,5	-0,840200
19,708667	0,5	-0,840700
19,717000	0,5	-0,857150
19,725333	0,5	-0,868700
19,733667	0,5	-0,859300
19,742000	0,5	-0,880450
19,750333	0,5	-0,879150
19,758667	0,5	-0,882050
19,767000	0,5	-0,893500
19,775333	0,5	-0,912350
19,783667	0,5	-0,936400
19,792000	0,5	-0,952550
19,800333	0,5	-0,943850
19,808667	0,5	-0,963650
19,817000	0,5	-0,968400
19,825333	0,5	-0,984550
19,833667	0,5	-0,988900
19,842000	0,5	-1,004100
19,850333	0,5	-1,009650
19,858667	0,5	-1,022050
19,867000	0,5	-1,028150
19,875333	0,5	-1,030700
19,883667	0,5	-1,038150
19,892000	0,5	-1,054800
19,900333	0,5	-1,053800
19,908667	0,5	-1,059000
19,917000	0,5	-1,070350
19,925333	0,5	-1,086000
19,933667	0,5	-1,119050
19,942000	0,5	-1,104350
19,950333	0,5	-1,115950
19,958667	0,5	-1,114950
19,967000	0,5	-1,121750
19,975333	0,5	-1,118050
19,983667	0,5	-1,126650
19,992000	0,5	-1,123350
20,000333	0,5	-1,131550
20,008667	0,5	-1,146950
20,017000	0,5	-1,156250
20,025333	0,5	-1,157600
20,033667	0,5	-1,188350
20,042000	0,5	-1,190250
20,050333	0,5	-1,190400
20,058667	0,5	-1,195100
20,067000	0,5	-1,206900
20,075333	0,5	-1,237600
20,083667	0,5	-1,248550
20,092000	0,5	-1,251600
20,100333	0,5	-1,251500
20,108667	0,5	-1,273450
20,117000	0,5	-1,270850
20,125333	0,5	-1,283850
20,133667	0,5	-1,299750
20,142000	0,5	-1,318600
20,150333	0,5	-1,311300
20,158667	0,5	-1,328000
20,167000	0,5	-1,325200
20,175333	0,5	-1,324600
20,183667	0,5	-1,353700
20,192000	0,5	-1,339950
20,200333	0,5	-1,336600
20,208667	0,5	-1,338750
20,217000	0,5	-1,353100
20,225333	0,5	-1,386950
20,233667	0,5	-1,392600
20,242000	0,5	-1,397450
20,250333	0,5	-1,410350
20,258667	0,5	-1,419100
20,267000	0,5	-1,432250
20,275333	0,5	-1,435350
20,283667	0,5	-1,446650
20,292000	0,5	-1,448650
20,300333	0,5	-1,460750
20,308667	0,5	-1,470650
20,317000	0,5	-1,473800
20,325333	0,5	-1,477400
20,333667	0,5	-1,491050
20,342000	0,5	-1,494500
20,350333	0,5	-1,510850
20,358667	0,5	-1,518850
20,367000	0,5	-1,548900
20,375333	0,5	-1,580650
20,383667	0,5	-1,589100
20,392000	0,5	-1,597000
20,400333	0,5	-1,609150
20,408667	0,5	-1,622200
20,417000	0,5	-1,627050
20,425333	0,5	-1,650500
20,433667	0,5	-1,654650
20,442000	0,5	-1,675600
20,450333	0,5	-1,688950
20,458667	0,5	-1,692850
20,467000	0,5	-1,685400
20,475333	0,5	-1,699800
20,483667	0,5	-1,708550
20,492000	0,5	-1,710850
20,500333	0,5	-1,719500
20,508667	0,5	-1,732000
20,517000	0,5	-1,766850
20,525333	0,5	-1,783900
20,533667	0,5	-1,793900
20,542000	0,5	-1,799650
20,550333	0,5	-1,826700
20,558667	0,5	-1,823600
20,567000	0,5	-1,841500
20,575333	0,5	-1,848600
20,583667	0,5	-1,871850
20,592000	0,5	-1,889600
20,600333	0,5	-1,909100
20,608667	0,5	-1,914950
20,617000	0,5	-1,926400
20,625333	0,5	-1,951000
20,633667	0,5	-1,966550
20,642000	0,5	-1,988350
20,650333	0,5	-2,018600
20,658667	0,5	-2,058300
20,667000	0,5	-2,080050
20,675333	0,5	-2,105700
20,683667	0,5	-2,115100
20,692000	0,5	-2,143000
20,700333	0,5	-2,155600
20,708667	0,5	-2,172250
20,717000	0,5	-2,178400
20,725333	0,5	-2,183250
20,733667	0,5	-2,180000
20,742000	0,5	-2,193100
20,750333	0,5	-2,197250
20,758667	0,5	-2,185300
20,767000	0,5	-2,203700
20,775333	0,5	-2,237550
20,783667	0,5	-2,262350
20,792000	0,5	-2,298600
20,800333	0,5	-2,333400
20,808667	0,5	-2,393350
20,817000	0,5	-2,422800
20,825333	0,5	-2,430700
20,833667	0,5	-2,456200
20,842000	0,5	-2,475300
20,850333	0,5	-2,491650
20,858667	0,5	-2,515900
20,867000	0,5	-2,539300
20,875333	0,5	-2,550550
20,883667	0,5	-2,574850
20,892000	0,5	-2,585900
20,900333	0,5	-2,586000
20,908667	0,5	-2,571850
20,917000	0,5	-2,589450
20,925333	0,5	-2,597950
20,933667	0,5	-2,611600
20,942000	0,5	-2,643950
20,950333	0,5	-2,682900
20,958667	0,5	-2,742400
20,967000	0,5	-2,745100
20,975333	0,5	-2,766800
20,983667	0,5	-2,789450
20,992000	0,5	-2,808600
21,000333	0,5	-2,829650
21,008667	0,5	-2,849700
21,017000	0,5	-2,864150
21,025333	0,5	-2,886650
21,033667	0,5	-2,899550
21,042000	0,5	-2,911500
21,050333	0,5	-2,902600
21,058667	0,5	-2,900150
21,067000	0,5	-2,923150
21,075333	0,5	-2,942950
21,083667	0,5	-2,961300
21,092000	0,5	-2,986200
21,100333	0,5	-3,026300
21,108667	0,5	-3,057650
21,117000	0,5	-3,064350
21,125333	0,5	-3,075400
21,133667	0,5	-3,090750
21,142000	0,5	-3,112450
21,150333	0,5	-3,132050
21,158667	0,5	-3,140450
21,167000	0,5	-3,165450
21,175333	0,5	-3,172500
21,183667	0,5	-3,193850
21,192000	0,5	-3,182800
21,200333	0,5	-3,171400
21,208667	0,5	-3,181600
21,217000	0,5	-3,189650
21,225333	0,5	-3,198550
21,233667	0,5	-3,212000
21,242000	0,5	-3,236150
21,250333	0,5	-3,268750
21,258667	0,5	-3,277200
21,267000	0,5	-3,264750
21,275333	0,5	-3,278500
21,283667	0,5	-3,278750
21,292000	0,5	-3,270550
21,300333	0,5	-3,259800
21,308667	0,5	-3,258800
21,317000	0,5	-3,245700
21,325333	0,5	-3,232200
21,333667	0,5	-3,240250
21,342000	0,5	-3,214150
21,350333	0,5	-3,216550
21,358667	0,5	-3,230650
21,367000	0,5	-3,240700
21,375333	0,5	-3,271350
21,383667	0,5	-3,297750
21,392000	0,5	-3,338050
21,400333	0,5	-3,356050
21,408667	0,5	-3,352850
21,417000	0,5	-3,354550
21,425333	0,5	-3,360700
21,433667	0,5	-3,364150
21,442000	0,5	-3,355450
21,450333	0,5	-3,362300
21,458667	0,5	-3,364250
21,467000	0,5	-3,370000
21,475333	0,5	-3,377600
21,483667	0,5	-3,369250
21,492000	0,5	-3,342300
21,500333	0,5	-3,344450
21,508667	0,5	-3,335100
21,517000	0,5	-3,342650
21,525333	0,5	-3,352800
21,533667	0,5	-3,366650
21,542000	0,5	-3,383350
21,550333	0,5	-3,391450
21,558667	0,5	-3,381100
21,567000	0,5	-3,382000
21,575333	0,5	-3,375100
21,583667	0,5	-3,374250
21,592000	0,5	-3,368000
21,600333	0,5	-3,355550
21,608667	0,5	-3,339650
21,617000	0,5	-3,324900
21,625333	0,5	-3,312150
21,633667	0,5	-3,263550
21,642000	0,5	-3,226450
21,650333	0,5	-3,205900
21,658667	0,5	-3,182800
21,667000	0,5	-3,162450
21,675333	0,5	-3,138350
21,683667	0,5	-3,150150
21,692000	0,5	-3,146450
21,700333	0,5	-3,146600
21,708667	0,5	-3,142600
21,717000	0,5	-3,155900
21,725333	0,5	-3,147300
21,733667	0,5	-3,146200
21,742000	0,5	-3,137200
21,750333	0,5	-3,119100
21,758667	0,5	-3,113350
21,767000	0,5	-3,112550
21,775333	0,5	-3,101550
21,783667	0,5	-3,085250
21,792000	0,5	-3,095050
21,800333	0,5	-3,096750
21,808667	0,5	-3,088450
21,817000	0,5	-3,103650
21,825333	0,5	-3,108900
21,833667	0,5	-3,130050
21,842000	0,5	-3,121950
21,850333	0,5	-3,113300
21,858667	0,5	-3,122850
21,867000	0,5	-3,122100
21,875333	0,5	-3,118050
21,883667	0,5	-3,129700
21,892000	0,5	-3,150350
21,900333	0,5	-3,146900
21,908667	0,5	-3,168450
21,917000	0,5	-3,164350
21,925333	0,5	-3,159900
21,933667	0,5	-3,149900
21,942000	0,5	-3,156550
21,950333	0,5	-3,133500
21,958667	0,5	-3,118650
21,967000	0,5	-3,122300
21,975333	0,5	-3,143650
21,983667	0,5	-3,179600
21,992000	0,5	-3,172000
22,000333	0,5	-3,191250
22,008667	0,5	-3,196600
22,017000	0,5	-3,214850
22,025333	0,5	-3,219600
22,033667	0,5	-3,235000
22,042000	0,5	-3,237200
22,050333	0,5	-3,247900
22,058667	0,5	-3,253750
22,067000	0,5	-3,267500
22,075333	0,5	-3,266750
22,083667	0,5	-3,282000
22,092000	0,5	-3,266500
22,100333	0,5	-3,265900
22,108667	0,5	-3,269350
22,117000	0,5	-3,267350
22,125333	0,5	-3,289500
22,133667	0,5	-3,279000
22,142000	0,5	-3,266600
22,150333	0,5	-3,260600
22,158667	0,5	-3,259850
22,167000	0,5	-3,252050
22,175333	0,5	-3,251600
22,183667	0,5	-3,241400
22,192000	0,5	-3,233100
22,200333	0,5	-3,222700
22,208667	0,5	-3,231000
22,217000	0,5	-3,228150
22,225333	0,5	-3,219050
22,233667	0,5	-3,199400
22,242000	0,5	-3,171750
22,250333	0,5	-3,140500
22,258667	0,5	-3,120150
22,267000	0,5	-3,117350
22,275333	0,5	-3,115150
22,283667	0,5	-3,075400
22,292000	0,5	-3,044700
22,300333	0,5	-3,008150
22,308667	0,5	-2,983750
22,317000	0,5	-2,953300
22,325333	0,5	-2,911700
22,333667	0,5	-2,885550
22,342000	0,5	-2,848650
22,350333	0,5	-2,829000
22,358667	0,5	-2,802050
22,367000	0,5	-2,783000
22,375333	0,5	-2,721450
22,383667	0,5	-2,654850
22,392000	0,5	-2,590850
22,400333	0,5	-2,561100
22,408667	0,5	-2,552700
22,417000	0,5	-2,567000
22,425333	0,5	-2,565300
22,433667	0,5	-2,556500
22,442000	0,5	-2,539650
22,450333	0,5	-2,512450
22,458667	0,5	-2,488800
22,467000	0,5	-2,472150
22,475333	0,5	-2,445950
22,483667	0,5	-2,410900
22,492000	0,5	-2,393500
22,500333	0,5	-2,370900
22,508667	0,5	-2,375550
22,517000	0,5	-2,344450
22,525333	0,5	-2,286700
22,533667	0,5	-2,226900
22,542000	0,5	-2,191450
22,550333	0,5	-2,149400
22,558667	0,5	-2,130450
22,567000	0,5	-2,098050
22,575333	0,5	-2,033200
22,583667	0,5	-1,983300
22,592000	0,5	-1,920500
22,600333	0,5	-1,856950
22,608667	0,5	-1,797200
22,617000	0,5	-1,749200
22,625333	0,5	-1,685950
22,633667	0,5	-1,648100
22,642000	0,5	-1,598750
22,650333	0,5	-1,583100
22,658667	0,5	-1,601350
22,667000	0,5	-1,588950
22,675333	0,5	-1,527750
22,683667	0,5	-1,515900
22,692000	0,5	-1,507450
22,700333	0,5	-1,523300
22,708667	0,5	-1,545650
22,717000	0,5	-1,545650
22,725333	0,5	-1,556250
22,733667	0,5	-1,572450
22,742000	0,5	-1,610450
22,750333	0,5	-1,639450
22,758667	0,5	-1,674400
22,767000	0,5	-1,710900
22,775333	0,5	-1,757400
22,783667	0,5	-1,805100
22,792000	0,5	-1,853150
22,800333	0,5	-1,966400
22,808667	0,5	-2,020200
22,817000	0,5	-2,065600
22,825333	0,5	-2,100100
22,833667	0,5	-2,159100
22,842000	0,5	-2,230300
22,850333	0,5	-2,305950
22,858667	0,5	-2,385850
22,867000	0,5	-2,466100
22,875333	0,5	-2,558400
22,883667	0,5	-2,652900
22,892000	0,5	-2,745150
22,900333	0,5	-2,843350
22,908667	0,5	-2,928350
22,917000	0,5	-3,007400
22,925333	0,5	-3,108650
22,933667	0,5	-3,184350
22,942000	0,5	-3,251950
22,950333	0,5	-3,358550
22,958667	0,5	-3,416600
22,967000	0,5	-3,490650
22,975333	0,5	-3,579450
22,983667	0,5	-3,643650
22,992000	0,5	-3,701950
23,000333	0,5	-3,754150
23,008667	0,5	-3,812900
23,017000	0,5	-3,882600
23,025333	0,5	-3,939300
23,033667	0,5	-3,972900
23,042000	0,5	-4,019950
23,050333	0,5	-4,056300
23,058667	0,5	-4,077600
23,067000	0,5	-4,104600
23,075333	0,5	-4,112550
23,083667	0,5	-4,123000
23,092000	0,5	-4,073950
23,100333	0,5	-4,075450
23,108667	0,5	-4,062400
23,117000	0,5	-4,102450
23,125333	0,5	-4,103550
23,133667	0,5	-4,092200
23,142000	0,5	-4,054900
23,150333	0,5	-4,028300
23,158667	0,5	-4,013500
23,167000	0,5	-4,000500
23,175333	0,5	-3,971850
23,183667	0,5	-3,962900
23,192000	0,5	-3,926900
23,200333	0,5	-3,892000
23,208667	0,5	-3,869350
23,217000	0,5	-3,817500
23,225333	0,5	-3,787550
23,233667	0,5	-3,734150
23,242000	0,5	-3,678450
23,250333	0,5	-3,616500
23,258667	0,5	-3,551000
23,267000	0,5	-3,543400
23,275333	0,5	-3,504200
23,283667	0,5	-3,449050
23,292000	0,5	-3,391950
23,300333	0,5	-3,336200
23,308667	0,5	-3,316000
23,317000	0,5	-3,263700
23,325333	0,5	-3,228550
23,333667	0,5	-3,190100
23,342000	0,5	-3,152950
23,350333	0,5	-3,102600
23,358667	0,5	-3,064400
23,367000	0,5	-3,028050
23,375333	0,5	-2,971400
23,383667	0,5	-2,910750
23,392000	0,5	-2,924250
23,400333	0,5	-2,830250
23,408667	0,5	-2,766850
23,417000	0,5	-2,734700
23,425333	0,5	-2,694700
23,433667	0,5	-2,662950
23,442000	0,5	-2,600150
23,450333	0,5	-2,575050
23,458667	0,5	-2,543000
23,467000	0,5	-2,512800
23,475333	0,5	-2,478800
23,483667	0,5	-2,454700
23,492000	0,5	-2,424300
23,500333	0,5	-2,396950
23,508667	0,5	-2,372650
23,517000	0,5	-2,338450
23,525333	0,5	-2,307950
23,533667	0,5	-2,350500
23,542000	0,5	-2,337900
23,550333	0,5	-2,276100
23,558667	0,5	-2,216850
23,567000	0,5	-2,187700
23,575333	0,5	-2,161050
23,583667	0,5	-2,133400
23,592000	0,5	-2,106400
23,600333	0,5	-2,086100
23,608667	0,5	-2,066500
23,617000	0,5	-2,043650
23,625333	0,5	-2,024250
23,633667	0,5	-2,000050
23,642000	0,5	-1,982950
23,650333	0,5	-1,957400
23,658667	0,5	-1,943250
23,667000	0,5	-1,919350
23,675333	0,5	-1,896500
23,683667	0,5	-2,019400
23,692000	0,5	-1,972950
23,700333	0,5	-1,919300
23,708667	0,5	-1,855400
23,717000	0,5	-1,823950
23,725333	0,5	-1,802050
23,733667	0,5	-1,782500
23,742000	0,5	-1,771300
23,750333	0,5	-1,745800
23,758667	0,5	-1,728900
23,767000	0,5	-1,712150
23,775333	0,5	-1,691750
23,783667	0,5	-1,677450
23,792000	0,5	-1,657600
23,800333	0,5	-1,642300
23,808667	0,5	-1,618700
23,817000	0,5	-1,600450
23,825333	0,5	-1,675300
23,833667	0,5	-1,728200
23,842000	0,5	-1,702300
23,850333	0,5	-1,614500
23,858667	0,5	-1,562200
23,867000	0,5	-1,521050
23,875333	0,5	-1,497450
23,883667	0,5	-1,482650
23,892000	0,5	-1,459750
23,900333	0,5	-1,436350
23,908667	0,5	-1,417500
23,917000	0,5	-1,397150
23,925333	0,5	-1,379550
23,933667	0,5	-1,365050
23,942000	0,5	-1,344850
23,950333	0,5	-1,327800
23,958667	0,5	-1,303250
23,967000	0,5	-1,293500
23,975333	0,5	-1,436700
23,983667	0,5	-1,418100
23,992000	0,5	-1,374450
24,000333	0,5	-1,306500
24,008667	0,5	-1,261350
24,017000	0,5	-1,231200
24,025333	0,5	-1,216050
24,033667	0,5	-1,221700
24,042000	0,5	-1,191600
24,050333	0,5	-1,158150
24,058667	0,5	-1,134350
24,067000	0,5	-1,110750
24,075333	0,5	-1,089800
24,083667	0,5	-1,069350
24,092000	0,5	-1,048450
24,100333	0,5	-1,023050
24,108667	0,5	-1,007800
24,117000	0,5	-0,985000
24,125333	0,5	-1,144850
24,133667	0,5	-1,099450
24,142000	0,5	-1,058250
24,150333	0,5	-0,996600
24,158667	0,5	-0,965000
24,167000	0,5	-0,932050
24,175333	0,5	-0,921600
24,183667	0,5	-0,916750
24,192000	0,5	-0,892850
24,200333	0,5	-0,868250
24,208667	0,5	-0,854450
24,217000	0,5	-0,834200
24,225333	0,5	-0,821550
24,233667	0,5	-0,803900
24,242000	0,5	-0,787400
24,250333	0,5	-0,764300
24,258667	0,5	-0,748950
24,267000	0,5	-0,809050
24,275333	0,5	-0,833750
24,283667	0,5	-0,810500
24,292000	0,5	-0,756550
24,300333	0,5	-0,709450
24,308667	0,5	-0,688350
24,317000	0,5	-0,665250
24,325333	0,5	-0,666100
24,333667	0,5	-0,669600
24,342000	0,5	-0,642000
24,350333	0,5	-0,625700
24,358667	0,5	-0,609100
24,367000	0,5	-0,589850
24,375333	0,5	-0,575600
24,383667	0,5	-0,566050
24,392000	0,5	-0,548350
24,400333	0,5	-0,533100
24,408667	0,5	-0,526650
24,417000	0,5	-0,601050
24,425333	0,5	-0,595450
24,433667	0,5	-0,578000
24,442000	0,5	-0,540050
24,450333	0,5	-0,504850
24,458667	0,5	-0,491100
24,467000	0,5	-0,477750
24,475333	0,5	-0,483250
24,483667	0,5	-0,464500
24,492000	0,5	-0,445650
24,500333	0,5	-0,430100
24,508667	0,5	-0,421900
24,517000	0,5	-0,407350
24,525333	0,5	-0,399050
24,533667	0,5	-0,390050
24,542000	0,5	-0,373700
24,550333	0,5	-0,358150
24,558667	0,5	-0,365100
24,567000	0,5	-0,420650
24,575333	0,5	-0,406150
24,583667	0,5	-0,380450
24,592000	0,5	-0,355950
24,600333	0,5	-0,338600
24,608667	0,5	-0,327900
24,617000	0,5	-0,326700
24,625333	0,5	-0,328300
24,633667	0,5	-0,320050
24,642000	0,5	-0,310050
24,650333	0,5	-0,308050
24,658667	0,5	-0,294500
24,667000	0,5	-0,285550
24,675333	0,5	-0,279250
24,683667	0,5	-0,274800
24,692000	0,5	-0,260000
24,700333	0,5	-0,257450
24,708667	0,5	-0,288550
24,717000	0,5	-0,289300
24,725333	0,5	-0,278600
24,733667	0,5	-0,258800
24,742000	0,5	-0,243750
24,750333	0,5	-0,233800
24,758667	0,5	-0,230700
24,767000	0,5	-0,230600
24,775333	0,5	-0,228350
24,783667	0,5	-0,214650
24,792000	0,5	-0,215500
24,800333	0,5	-0,210550
24,808667	0,5	-0,206950
24,817000	0,5	-0,203700
24,825333	0,5	-0,204750
24,833667	0,5	-0,199000
24,842000	0,5	-0,198800
24,850333	0,5	-0,198200
24,858667	0,5	-0,230900
24,867000	0,5	-0,217050
24,875333	0,5	-0,215750
24,883667	0,5	-0,203250
24,892000	0,5	-0,194350
24,900333	0,5	-0,186950
24,908667	0,5	-0,187100
24,917000	0,5	-0,191200
24,925333	0,5	-0,181050
24,933667	0,5	-0,176050
24,942000	0,5	-0,177000
24,950333	0,5	-0,173800
24,958667	0,5	-0,171100
24,967000	0,5	-0,167800
24,975333	0,5	-0,166800
24,983667	0,5	-0,163100
24,992000	0,5	-0,160500
25,000333	0,5	-0,167900
25,008667	0,5	-0,180050
25,017000	0,5	-0,176750
25,025333	0,5	-0,172600
25,033667	0,5	-0,170900
25,042000	0,5	-0,161600
25,050333	0,5	-0,169250
25,058667	0,5	-0,172250
25,067000	0,5	-0,169600
25,075333	0,5	-0,167100
25,083667	0,5	-0,165850
25,092000	0,5	-0,162750
25,100333	0,5	-0,165100
25,108667	0,5	-0,157500
25,117000	0,5	-0,158450
25,125333	0,5	-0,156100
25,133667	0,5	-0,153350
25,142000	0,5	-0,154500
25,150333	0,5	-0,156650
25,158667	0,5	-0,153750
25,167000	0,5	-0,151200
25,175333	0,5	-0,150450
25,183667	0,5	-0,150750
25,192000	0,5	-0,151650
25,200333	0,5	-0,153750
25,208667	0,5	-0,152700
25,217000	0,5	-0,153150
25,225333	0,5	-0,155300
25,233667	0,5	-0,155950
25,242000	0,5	-0,153200
25,250333	0,5	-0,157250
25,258667	0,5	-0,155650
25,267000	0,5	-0,158800
25,275333	0,5	-0,156150
25,283667	0,5	-0,156550
25,292000	0,5	-0,153700
25,300333	0,5	-0,150950
25,308667	0,5	-0,150800
25,317000	0,5	-0,140800
25,325333	0,5	-0,145800
25,333667	0,5	-0,144500
25,342000	0,5	-0,145800
25,350333	0,5	-0,141700
25,358667	0,5	-0,145150
25,367000	0,5	-0,145700
25,375333	0,5	-0,147900
25,383667	0,5	-0,151300
25,392000	0,5	-0,153650
25,400333	0,5	-0,155200
25,408667	0,5	-0,158950
25,417000	0,5	-0,151100
25,425333	0,5	-0,154450
25,433667	0,5	-0,152650
25,442000	0,5	-0,152000
25,450333	0,5	-0,147800
25,458667	0,5	-0,146950
25,467000	0,5	-0,146150
25,475333	0,5	-0,153000
25,483667	0,5	-0,150350
25,492000	0,5	-0,152600
25,500333	0,5	-0,152300
25,508667	0,5	-0,145550
25,517000	0,5	-0,145300
25,525333	0,5	-0,148800
25,533667	0,5	-0,147500
25,542000	0,5	-0,148450
25,550333	0,5	-0,150150
25,558667	0,5	-0,145950
25,567000	0,5	-0,147050
25,575333	0,5	-0,151300
25,583667	0,5	-0,152100
25,592000	0,5	-0,144200
25,600333	0,5	-0,137850
25,608667	0,5	-0,130850
25,617000	0,5	-0,137400
25,625333	0,5	-0,146100
25,633667	0,5	-0,143600
25,642000	0,5	-0,148450
25,650333	0,5	-0,132900
25,658667	0,5	-0,132550
25,667000	0,5	-0,132950
25,675333	0,5	-0,127900
25,683667	0,5	-0,130800
25,692000	0,5	-0,134950
25,700333	0,5	-0,129750
25,708667	0,5	-0,129650
25,717000	0,5	-0,128550
25,725333	0,5	-0,125750
25,733667	0,5	-0,124450
25,742000	0,5	-0,112800
25,750333	0,5	-0,109950
25,758667	0,5	-0,102650
25,767000	0,5	-0,113250
25,775333	0,5	-0,117500
25,783667	0,5	-0,115650
25,792000	0,5	-0,110250
25,800333	0,5	-0,097950
25,808667	0,5	-0,101750
25,817000	0,5	-0,105400
25,825333	0,5	-0,106100
25,833667	0,5	-0,105900
25,842000	0,5	-0,097450
25,850333	0,5	-0,098700
25,858667	0,5	-0,089850
25,867000	0,5	-0,097800
25,875333	0,5	-0,090450
25,883667	0,5	-0,086650
25,892000	0,5	-0,075850
25,900333	0,5	-0,079200
25,908667	0,5	-0,067100
25,917000	0,5	-0,084750
25,925333	0,5	-0,083000
25,933667	0,5	-0,082200
25,942000	0,5	-0,076700
25,950333	0,5	-0,054050
25,958667	0,5	-0,058800
25,967000	0,5	-0,062000
25,975333	0,5	-0,064450
25,983667	0,5	-0,063000
25,992000	0,5	-0,064200
26,000333	0,5	-0,064200
