File Path	chrom://chromeleon01/ikbm_chromeleon/2022/ICS-5000/ED1/Esteban/20220427_Cell_Amandas_mutants.seq/142.smp/ED_1.channel/ED_1.chm
Channel	ED_1

Injection Information:
Data Vault	ikbm_chromeleon
Injection	Std_C1ox_0,0025
Injection Number	68
Position	RA2
Comment	
Processing Method	Stop sequence after Cell Death
Instrument Method	ICS5000_PA200_FullNative_Ox_26min_ED1
Type	Unknown
Status	Finished
Injection Date	28.04.2022
Injection Time	20:59:15
Injection Volume (µl)	5,0
Dilution Factor	1,0000
Weight	1,0000

Chromatogram Data Information:
Time Min. (min)	0,000167
Time Max. (min)	26,000167
Data Points	3121
Detector	EDet1
Generating Data System	Chromeleon 7.2.9.11323
Exporting Data System	Chromeleon 7.2.9.0
Operator	Instrument Controller
Signal Quantity	
Signal Unit	nC
Signal Min.	-9,103000
Signal Max.	20,064050
Channel	ED_1
Driver Name	DC-5000
Channel Type	Evaluation
Min. Step (s)	0,5
Max. Step (s)	0,5
Average Step (s)	0,5

Signal Parameter Information:
Signal Info	

Chromatogram Data:
Time (min)	Step (s)	Value (nC)
0,000167	n.a.	-0,093200
0,008500	0,5	-0,094900
0,016833	0,5	-0,077100
0,025167	0,5	-0,062300
0,033500	0,5	-0,043550
0,041833	0,5	-0,034950
0,050167	0,5	-0,045150
0,058500	0,5	-0,016050
0,066833	0,5	-0,021950
0,075167	0,5	-0,042550
0,083500	0,5	-0,042500
0,091833	0,5	-0,026700
0,100167	0,5	0,018050
0,108500	0,5	0,036250
0,116833	0,5	0,014500
0,125167	0,5	0,029100
0,133500	0,5	0,034550
0,141833	0,5	0,023400
0,150167	0,5	0,015950
0,158500	0,5	0,014850
0,166833	0,5	-0,000100
0,175167	0,5	0,009000
0,183500	0,5	-0,000600
0,191833	0,5	-0,004450
0,200167	0,5	-0,030900
0,208500	0,5	0,004200
0,216833	0,5	-0,023000
0,225167	0,5	-0,018250
0,233500	0,5	-0,024250
0,241833	0,5	0,002300
0,250167	0,5	0,041300
0,258500	0,5	0,047000
0,266833	0,5	0,023600
0,275167	0,5	0,028350
0,283500	0,5	0,013200
0,291833	0,5	0,017250
0,300167	0,5	0,026000
0,308500	0,5	0,023500
0,316833	0,5	0,001350
0,325167	0,5	-0,000250
0,333500	0,5	0,003150
0,341833	0,5	-0,028750
0,350167	0,5	-0,028950
0,358500	0,5	-0,017100
0,366833	0,5	-0,040650
0,375167	0,5	-0,040050
0,383500	0,5	-0,035000
0,391833	0,5	-0,007100
0,400167	0,5	0,029200
0,408500	0,5	0,020050
0,416833	0,5	0,023000
0,425167	0,5	0,009700
0,433500	0,5	0,027150
0,441833	0,5	0,010150
0,450167	0,5	0,014400
0,458500	0,5	0,007350
0,466833	0,5	-0,005050
0,475167	0,5	-0,001000
0,483500	0,5	-0,019150
0,491833	0,5	-0,031200
0,500167	0,5	-0,003550
0,508500	0,5	-0,013300
0,516833	0,5	-0,023200
0,525167	0,5	-0,023350
0,533500	0,5	-0,009500
0,541833	0,5	0,039200
0,550167	0,5	0,042200
0,558500	0,5	0,045650
0,566833	0,5	0,028800
0,575167	0,5	0,046700
0,583500	0,5	0,028000
0,591833	0,5	0,031550
0,600167	0,5	0,029100
0,608500	0,5	0,029450
0,616833	0,5	0,026950
0,625167	0,5	0,031500
0,633500	0,5	0,021950
0,641833	0,5	0,026500
0,650167	0,5	0,052950
0,658500	0,5	0,037600
0,666833	0,5	0,022850
0,675167	0,5	0,031250
0,683500	0,5	0,041700
0,691833	0,5	0,092700
0,700167	0,5	0,093950
0,708500	0,5	0,082050
0,716833	0,5	0,093350
0,725167	0,5	0,085300
0,733500	0,5	0,087100
0,741833	0,5	0,094200
0,750167	0,5	0,105250
0,758500	0,5	0,087500
0,766833	0,5	0,092050
0,775167	0,5	0,099750
0,783500	0,5	0,100350
0,791833	0,5	0,102750
0,800167	0,5	0,136450
0,808500	0,5	0,107100
0,816833	0,5	0,102950
0,825167	0,5	0,114750
0,833500	0,5	0,136200
0,841833	0,5	0,174750
0,850167	0,5	0,158600
0,858500	0,5	0,161600
0,866833	0,5	0,167150
0,875167	0,5	0,167950
0,883500	0,5	0,168050
0,891833	0,5	0,175400
0,900167	0,5	0,173000
0,908500	0,5	0,176350
0,916833	0,5	0,173000
0,925167	0,5	0,186050
0,933500	0,5	0,174700
0,941833	0,5	0,203250
0,950167	0,5	0,206750
0,958500	0,5	0,192900
0,966833	0,5	0,182550
0,975167	0,5	0,207500
0,983500	0,5	0,241800
0,991833	0,5	0,265300
1,000167	0,5	0,244550
1,008500	0,5	0,244500
1,016833	0,5	0,256550
1,025167	0,5	0,253050
1,033500	0,5	0,257200
1,041833	0,5	0,261450
1,050167	0,5	0,268400
1,058500	0,5	0,268600
1,066833	0,5	0,281550
1,075167	0,5	0,291350
1,083500	0,5	0,285150
1,091833	0,5	0,315050
1,100167	0,5	0,303600
1,108500	0,5	0,296850
1,116833	0,5	0,298450
1,125167	0,5	0,310300
1,133500	0,5	0,364300
1,141833	0,5	0,372550
1,150167	0,5	0,375150
1,158500	0,5	0,374350
1,166833	0,5	0,392350
1,175167	0,5	0,387750
1,183500	0,5	0,400950
1,191833	0,5	0,403050
1,200167	0,5	0,406300
1,208500	0,5	0,414150
1,216833	0,5	0,411150
1,225167	0,5	0,442150
1,233500	0,5	0,435100
1,241833	0,5	0,473000
1,250167	0,5	0,451450
1,258500	0,5	0,465950
1,266833	0,5	0,467300
1,275167	0,5	0,500250
1,283500	0,5	0,541750
1,291833	0,5	0,554000
1,300167	0,5	0,544900
1,308500	0,5	0,561000
1,316833	0,5	0,562700
1,325167	0,5	0,575050
1,333500	0,5	0,577500
1,341833	0,5	0,592150
1,350167	0,5	0,599450
1,358500	0,5	0,621250
1,366833	0,5	0,636000
1,375167	0,5	0,637300
1,383500	0,5	0,652900
1,391833	0,5	0,673050
1,400167	0,5	0,655550
1,408500	0,5	0,667000
1,416833	0,5	0,680050
1,425167	0,5	0,721350
1,433500	0,5	0,762300
1,441833	0,5	0,751800
1,450167	0,5	0,768050
1,458500	0,5	0,776150
1,466833	0,5	0,789750
1,475167	0,5	0,792250
1,483500	0,5	0,809000
1,491833	0,5	0,802500
1,500167	0,5	0,811150
1,508500	0,5	0,814450
1,516833	0,5	0,809700
1,525167	0,5	0,806800
1,533500	0,5	0,834900
1,541833	0,5	0,829650
1,550167	0,5	0,812250
1,558500	0,5	0,733550
1,566833	0,5	0,370950
1,575167	0,5	-0,662700
1,583500	0,5	-2,212200
1,591833	0,5	-2,984150
1,600167	0,5	-2,059400
1,608500	0,5	-0,280950
1,616833	0,5	0,970700
1,625167	0,5	1,822050
1,633500	0,5	2,482450
1,641833	0,5	2,818550
1,650167	0,5	2,704700
1,658500	0,5	2,380800
1,666833	0,5	2,050400
1,675167	0,5	1,807150
1,683500	0,5	1,648900
1,691833	0,5	1,508600
1,700167	0,5	1,440050
1,708500	0,5	1,509750
1,716833	0,5	1,754300
1,725167	0,5	2,067800
1,733500	0,5	2,150950
1,741833	0,5	1,968750
1,750167	0,5	1,698150
1,758500	0,5	1,465900
1,766833	0,5	1,313300
1,775167	0,5	1,229150
1,783500	0,5	1,207950
1,791833	0,5	1,220600
1,800167	0,5	1,264100
1,808500	0,5	1,288700
1,816833	0,5	1,297050
1,825167	0,5	1,291300
1,833500	0,5	1,284100
1,841833	0,5	1,241000
1,850167	0,5	1,202550
1,858500	0,5	1,175350
1,866833	0,5	1,171450
1,875167	0,5	1,151650
1,883500	0,5	1,106300
1,891833	0,5	1,080400
1,900167	0,5	1,064050
1,908500	0,5	1,033300
1,916833	0,5	1,003850
1,925167	0,5	0,975350
1,933500	0,5	0,957500
1,941833	0,5	0,964800
1,950167	0,5	0,974150
1,958500	0,5	0,990200
1,966833	0,5	0,968550
1,975167	0,5	1,002850
1,983500	0,5	0,988350
1,991833	0,5	0,978350
2,000167	0,5	0,976800
2,008500	0,5	0,994500
2,016833	0,5	1,054150
2,025167	0,5	1,158800
2,033500	0,5	1,400850
2,041833	0,5	1,823000
2,050167	0,5	2,351000
2,058500	0,5	3,298950
2,066833	0,5	5,152000
2,075167	0,5	7,569250
2,083500	0,5	9,021050
2,091833	0,5	8,767150
2,100167	0,5	7,535500
2,108500	0,5	6,210350
2,116833	0,5	5,188850
2,125167	0,5	4,557750
2,133500	0,5	4,159300
2,141833	0,5	3,948550
2,150167	0,5	3,817550
2,158500	0,5	3,738400
2,166833	0,5	3,733850
2,175167	0,5	3,718850
2,183500	0,5	3,750750
2,191833	0,5	3,798100
2,200167	0,5	3,885650
2,208500	0,5	3,977200
2,216833	0,5	4,102600
2,225167	0,5	4,218050
2,233500	0,5	4,348350
2,241833	0,5	4,491100
2,250167	0,5	4,636300
2,258500	0,5	4,795100
2,266833	0,5	4,945550
2,275167	0,5	5,124500
2,283500	0,5	5,255150
2,291833	0,5	5,414500
2,300167	0,5	5,567000
2,308500	0,5	5,762850
2,316833	0,5	5,958350
2,325167	0,5	6,124450
2,333500	0,5	6,280800
2,341833	0,5	6,451150
2,350167	0,5	6,607450
2,358500	0,5	6,779250
2,366833	0,5	6,933450
2,375167	0,5	7,096050
2,383500	0,5	7,249000
2,391833	0,5	7,406300
2,400167	0,5	7,561450
2,408500	0,5	7,721550
2,416833	0,5	7,870900
2,425167	0,5	8,025800
2,433500	0,5	8,146250
2,441833	0,5	8,288950
2,450167	0,5	8,421800
2,458500	0,5	8,564050
2,466833	0,5	8,695050
2,475167	0,5	8,767700
2,483500	0,5	8,841000
2,491833	0,5	8,892350
2,500167	0,5	8,944150
2,508500	0,5	8,991300
2,516833	0,5	9,053050
2,525167	0,5	9,094400
2,533500	0,5	9,131950
2,541833	0,5	9,163950
2,550167	0,5	9,186700
2,558500	0,5	9,198400
2,566833	0,5	9,238650
2,575167	0,5	9,223450
2,583500	0,5	9,216700
2,591833	0,5	9,213000
2,600167	0,5	9,215850
2,608500	0,5	9,212850
2,616833	0,5	9,191250
2,625167	0,5	9,156600
2,633500	0,5	9,116250
2,641833	0,5	9,075750
2,650167	0,5	9,016450
2,658500	0,5	8,962300
2,666833	0,5	8,898750
2,675167	0,5	8,828900
2,683500	0,5	8,763500
2,691833	0,5	8,703200
2,700167	0,5	8,617150
2,708500	0,5	8,557000
2,716833	0,5	8,494400
2,725167	0,5	8,413050
2,733500	0,5	8,345650
2,741833	0,5	8,301100
2,750167	0,5	8,299500
2,758500	0,5	8,356050
2,766833	0,5	8,465850
2,775167	0,5	8,650350
2,783500	0,5	8,838800
2,791833	0,5	8,959700
2,800167	0,5	8,894800
2,808500	0,5	8,687100
2,816833	0,5	8,383150
2,825167	0,5	8,074400
2,833500	0,5	7,845350
2,841833	0,5	7,706100
2,850167	0,5	7,672950
2,858500	0,5	7,755950
2,866833	0,5	7,855750
2,875167	0,5	7,886350
2,883500	0,5	7,784800
2,891833	0,5	7,539550
2,900167	0,5	7,228300
2,908500	0,5	6,852950
2,916833	0,5	6,491000
2,925167	0,5	6,183500
2,933500	0,5	5,938200
2,941833	0,5	5,699700
2,950167	0,5	5,501850
2,958500	0,5	5,318850
2,966833	0,5	5,147500
2,975167	0,5	4,988800
2,983500	0,5	4,834100
2,991833	0,5	4,705400
3,000167	0,5	4,556700
3,008500	0,5	4,462100
3,016833	0,5	4,307000
3,025167	0,5	4,177250
3,033500	0,5	4,047050
3,041833	0,5	3,936000
3,050167	0,5	3,846800
3,058500	0,5	3,731050
3,066833	0,5	3,608350
3,075167	0,5	3,517200
3,083500	0,5	3,410950
3,091833	0,5	3,302800
3,100167	0,5	3,192450
3,108500	0,5	3,098750
3,116833	0,5	2,984750
3,125167	0,5	2,887350
3,133500	0,5	2,796950
3,141833	0,5	2,700450
3,150167	0,5	2,599050
3,158500	0,5	2,538700
3,166833	0,5	2,428900
3,175167	0,5	2,345500
3,183500	0,5	2,259700
3,191833	0,5	2,194550
3,200167	0,5	2,160250
3,208500	0,5	2,073350
3,216833	0,5	2,000250
3,225167	0,5	1,921300
3,233500	0,5	1,853950
3,241833	0,5	1,770050
3,250167	0,5	1,710500
3,258500	0,5	1,626350
3,266833	0,5	1,567350
3,275167	0,5	1,494850
3,283500	0,5	1,442950
3,291833	0,5	1,377300
3,300167	0,5	1,334350
3,308500	0,5	1,297000
3,316833	0,5	1,237000
3,325167	0,5	1,183550
3,333500	0,5	1,143850
3,341833	0,5	1,111700
3,350167	0,5	1,092500
3,358500	0,5	1,047600
3,366833	0,5	0,999250
3,375167	0,5	0,960100
3,383500	0,5	0,912300
3,391833	0,5	0,874100
3,400167	0,5	0,834150
3,408500	0,5	0,797750
3,416833	0,5	0,762100
3,425167	0,5	0,730750
3,433500	0,5	0,700250
3,441833	0,5	0,671900
3,450167	0,5	0,643250
3,458500	0,5	0,618900
3,466833	0,5	0,572600
3,475167	0,5	0,551200
3,483500	0,5	0,533150
3,491833	0,5	0,542150
3,500167	0,5	0,541700
3,508500	0,5	0,510650
3,516833	0,5	0,498250
3,525167	0,5	0,482900
3,533500	0,5	0,457400
3,541833	0,5	0,446100
3,550167	0,5	0,436500
3,558500	0,5	0,417900
3,566833	0,5	0,408100
3,575167	0,5	0,386850
3,583500	0,5	0,371200
3,591833	0,5	0,348250
3,600167	0,5	0,358750
3,608500	0,5	0,331750
3,616833	0,5	0,311600
3,625167	0,5	0,293900
3,633500	0,5	0,299200
3,641833	0,5	0,295850
3,650167	0,5	0,289950
3,658500	0,5	0,263700
3,666833	0,5	0,255050
3,675167	0,5	0,236150
3,683500	0,5	0,224650
3,691833	0,5	0,205950
3,700167	0,5	0,197750
3,708500	0,5	0,177000
3,716833	0,5	0,167600
3,725167	0,5	0,170300
3,733500	0,5	0,141300
3,741833	0,5	0,151150
3,750167	0,5	0,154350
3,758500	0,5	0,147250
3,766833	0,5	0,138500
3,775167	0,5	0,155300
3,783500	0,5	0,191550
3,791833	0,5	0,228900
3,800167	0,5	0,244250
3,808500	0,5	0,263850
3,816833	0,5	0,266150
3,825167	0,5	0,272250
3,833500	0,5	0,262700
3,841833	0,5	0,256550
3,850167	0,5	0,234200
3,858500	0,5	0,214150
3,866833	0,5	0,200100
3,875167	0,5	0,181050
3,883500	0,5	0,156050
3,891833	0,5	0,164950
3,900167	0,5	0,152600
3,908500	0,5	0,135550
3,916833	0,5	0,137150
3,925167	0,5	0,132500
3,933500	0,5	0,173450
3,941833	0,5	0,172550
3,950167	0,5	0,164900
3,958500	0,5	0,157150
3,966833	0,5	0,172400
3,975167	0,5	0,162450
3,983500	0,5	0,165150
3,991833	0,5	0,160800
4,000167	0,5	0,166250
4,008500	0,5	0,162650
4,016833	0,5	0,171500
4,025167	0,5	0,179000
4,033500	0,5	0,181300
4,041833	0,5	0,220650
4,050167	0,5	0,205850
4,058500	0,5	0,199750
4,066833	0,5	0,200250
4,075167	0,5	0,204100
4,083500	0,5	0,234900
4,091833	0,5	0,225600
4,100167	0,5	0,209450
4,108500	0,5	0,213950
4,116833	0,5	0,211950
4,125167	0,5	0,217450
4,133500	0,5	0,216200
4,141833	0,5	0,224300
4,150167	0,5	0,219550
4,158500	0,5	0,225500
4,166833	0,5	0,236450
4,175167	0,5	0,230950
4,183500	0,5	0,225400
4,191833	0,5	0,248250
4,200167	0,5	0,230650
4,208500	0,5	0,234650
4,216833	0,5	0,242000
4,225167	0,5	0,264850
4,233500	0,5	0,297200
4,241833	0,5	0,295200
4,250167	0,5	0,307950
4,258500	0,5	0,320850
4,266833	0,5	0,329150
4,275167	0,5	0,338800
4,283500	0,5	0,360900
4,291833	0,5	0,372700
4,300167	0,5	0,391850
4,308500	0,5	0,417400
4,316833	0,5	0,452650
4,325167	0,5	0,463850
4,333500	0,5	0,515750
4,341833	0,5	0,561100
4,350167	0,5	0,617750
4,358500	0,5	0,679000
4,366833	0,5	0,759250
4,375167	0,5	0,862950
4,383500	0,5	0,970700
4,391833	0,5	1,060450
4,400167	0,5	1,159700
4,408500	0,5	1,257400
4,416833	0,5	1,345500
4,425167	0,5	1,411700
4,433500	0,5	1,453850
4,441833	0,5	1,471350
4,450167	0,5	1,452950
4,458500	0,5	1,415850
4,466833	0,5	1,344150
4,475167	0,5	1,255650
4,483500	0,5	1,177500
4,491833	0,5	1,087900
4,500167	0,5	0,988050
4,508500	0,5	0,928400
4,516833	0,5	0,884350
4,525167	0,5	0,878200
4,533500	0,5	0,862850
4,541833	0,5	0,844750
4,550167	0,5	0,835150
4,558500	0,5	0,849050
4,566833	0,5	0,861650
4,575167	0,5	0,889050
4,583500	0,5	0,933100
4,591833	0,5	0,995800
4,600167	0,5	1,075500
4,608500	0,5	1,180950
4,616833	0,5	1,314000
4,625167	0,5	1,455000
4,633500	0,5	1,609500
4,641833	0,5	1,742750
4,650167	0,5	1,858150
4,658500	0,5	1,937350
4,666833	0,5	1,995900
4,675167	0,5	1,995700
4,683500	0,5	1,940550
4,691833	0,5	1,834100
4,700167	0,5	1,728600
4,708500	0,5	1,600550
4,716833	0,5	1,482100
4,725167	0,5	1,375350
4,733500	0,5	1,285850
4,741833	0,5	1,202850
4,750167	0,5	1,144000
4,758500	0,5	1,103800
4,766833	0,5	1,059600
4,775167	0,5	1,046400
4,783500	0,5	1,032950
4,791833	0,5	1,002800
4,800167	0,5	0,991050
4,808500	0,5	0,986600
4,816833	0,5	1,007750
4,825167	0,5	1,026850
4,833500	0,5	1,019200
4,841833	0,5	1,026450
4,850167	0,5	1,023700
4,858500	0,5	1,024100
4,866833	0,5	1,021300
4,875167	0,5	1,039550
4,883500	0,5	1,042900
4,891833	0,5	1,050950
4,900167	0,5	1,059550
4,908500	0,5	1,053700
4,916833	0,5	1,049950
4,925167	0,5	1,079550
4,933500	0,5	1,081000
4,941833	0,5	1,084000
4,950167	0,5	1,092300
4,958500	0,5	1,107200
4,966833	0,5	1,145650
4,975167	0,5	1,162600
4,983500	0,5	1,166900
4,991833	0,5	1,176300
5,000167	0,5	1,194500
5,008500	0,5	1,192200
5,016833	0,5	1,203350
5,025167	0,5	1,209100
5,033500	0,5	1,214400
5,041833	0,5	1,218650
5,050167	0,5	1,228950
5,058500	0,5	1,219950
5,066833	0,5	1,224200
5,075167	0,5	1,253500
5,083500	0,5	1,256800
5,091833	0,5	1,257650
5,100167	0,5	1,267950
5,108500	0,5	1,281650
5,116833	0,5	1,309700
5,125167	0,5	1,313600
5,133500	0,5	1,311650
5,141833	0,5	1,327450
5,150167	0,5	1,329750
5,158500	0,5	1,336800
5,166833	0,5	1,342200
5,175167	0,5	1,348600
5,183500	0,5	1,354800
5,191833	0,5	1,370600
5,200167	0,5	1,376750
5,208500	0,5	1,382550
5,216833	0,5	1,385700
5,225167	0,5	1,403100
5,233500	0,5	1,386950
5,241833	0,5	1,390200
5,250167	0,5	1,399000
5,258500	0,5	1,414500
5,266833	0,5	1,431650
5,275167	0,5	1,431300
5,283500	0,5	1,431600
5,291833	0,5	1,440100
5,300167	0,5	1,442750
5,308500	0,5	1,441950
5,316833	0,5	1,444400
5,325167	0,5	1,446200
5,333500	0,5	1,444450
5,341833	0,5	1,443000
5,350167	0,5	1,447750
5,358500	0,5	1,436800
5,366833	0,5	1,450400
5,375167	0,5	1,458250
5,383500	0,5	1,453550
5,391833	0,5	1,452800
5,400167	0,5	1,468400
5,408500	0,5	1,483250
5,416833	0,5	1,499200
5,425167	0,5	1,488300
5,433500	0,5	1,495100
5,441833	0,5	1,492900
5,450167	0,5	1,496250
5,458500	0,5	1,488250
5,466833	0,5	1,492300
5,475167	0,5	1,484150
5,483500	0,5	1,484650
5,491833	0,5	1,486050
5,500167	0,5	1,472950
5,508500	0,5	1,470100
5,516833	0,5	1,482550
5,525167	0,5	1,466400
5,533500	0,5	1,458850
5,541833	0,5	1,458550
5,550167	0,5	1,459050
5,558500	0,5	1,480800
5,566833	0,5	1,486950
5,575167	0,5	1,482550
5,583500	0,5	1,473600
5,591833	0,5	1,469950
5,600167	0,5	1,461400
5,608500	0,5	1,458700
5,616833	0,5	1,453100
5,625167	0,5	1,439800
5,633500	0,5	1,435800
5,641833	0,5	1,430400
5,650167	0,5	1,418250
5,658500	0,5	1,412600
5,666833	0,5	1,410150
5,675167	0,5	1,394800
5,683500	0,5	1,386200
5,691833	0,5	1,381300
5,700167	0,5	1,388700
5,708500	0,5	1,397450
5,716833	0,5	1,394900
5,725167	0,5	1,381950
5,733500	0,5	1,375400
5,741833	0,5	1,360950
5,750167	0,5	1,356900
5,758500	0,5	1,346850
5,766833	0,5	1,331500
5,775167	0,5	1,318550
5,783500	0,5	1,311700
5,791833	0,5	1,298100
5,800167	0,5	1,288300
5,808500	0,5	1,287050
5,816833	0,5	1,278600
5,825167	0,5	1,254050
5,833500	0,5	1,245000
5,841833	0,5	1,233350
5,850167	0,5	1,239650
5,858500	0,5	1,243600
5,866833	0,5	1,232900
5,875167	0,5	1,226050
5,883500	0,5	1,205600
5,891833	0,5	1,202500
5,900167	0,5	1,190900
5,908500	0,5	1,182650
5,916833	0,5	1,173000
5,925167	0,5	1,165300
5,933500	0,5	1,155300
5,941833	0,5	1,143500
5,950167	0,5	1,125350
5,958500	0,5	1,138450
5,966833	0,5	1,116700
5,975167	0,5	1,105000
5,983500	0,5	1,100300
5,991833	0,5	1,098250
6,000167	0,5	1,112750
6,008500	0,5	1,107650
6,016833	0,5	1,100700
6,025167	0,5	1,095450
6,033500	0,5	1,088250
6,041833	0,5	1,078150
6,050167	0,5	1,070150
6,058500	0,5	1,062850
6,066833	0,5	1,054700
6,075167	0,5	1,046650
6,083500	0,5	1,042800
6,091833	0,5	1,030150
6,100167	0,5	1,030000
6,108500	0,5	1,031750
6,116833	0,5	1,020750
6,125167	0,5	1,009800
6,133500	0,5	1,010450
6,141833	0,5	1,013650
6,150167	0,5	1,022750
6,158500	0,5	1,017450
6,166833	0,5	1,008300
6,175167	0,5	1,008000
6,183500	0,5	1,008350
6,191833	0,5	1,002600
6,200167	0,5	0,997550
6,208500	0,5	0,995150
6,216833	0,5	0,986350
6,225167	0,5	0,990250
6,233500	0,5	0,996550
6,241833	0,5	0,989800
6,250167	0,5	0,996350
6,258500	0,5	0,994100
6,266833	0,5	0,985050
6,275167	0,5	0,979050
6,283500	0,5	0,980600
6,291833	0,5	0,995100
6,300167	0,5	0,998000
6,308500	0,5	1,003750
6,316833	0,5	0,998450
6,325167	0,5	1,003750
6,333500	0,5	1,007600
6,341833	0,5	1,006800
6,350167	0,5	1,009400
6,358500	0,5	1,012400
6,366833	0,5	1,008050
6,375167	0,5	1,013500
6,383500	0,5	1,016600
6,391833	0,5	1,015100
6,400167	0,5	1,021050
6,408500	0,5	1,019750
6,416833	0,5	1,019850
6,425167	0,5	1,021100
6,433500	0,5	1,036850
6,441833	0,5	1,058450
6,450167	0,5	1,065450
6,458500	0,5	1,063000
6,466833	0,5	1,077250
6,475167	0,5	1,082600
6,483500	0,5	1,091650
6,491833	0,5	1,098750
6,500167	0,5	1,106400
6,508500	0,5	1,109100
6,516833	0,5	1,127150
6,525167	0,5	1,145950
6,533500	0,5	1,162650
6,541833	0,5	1,175300
6,550167	0,5	1,214750
6,558500	0,5	1,232500
6,566833	0,5	1,268700
6,575167	0,5	1,306500
6,583500	0,5	1,365200
6,591833	0,5	1,438900
6,600167	0,5	1,494850
6,608500	0,5	1,561950
6,616833	0,5	1,626900
6,625167	0,5	1,699750
6,633500	0,5	1,754250
6,641833	0,5	1,815550
6,650167	0,5	1,841600
6,658500	0,5	1,847850
6,666833	0,5	1,829300
6,675167	0,5	1,789300
6,683500	0,5	1,732350
6,691833	0,5	1,681250
6,700167	0,5	1,646500
6,708500	0,5	1,609800
6,716833	0,5	1,596750
6,725167	0,5	1,601000
6,733500	0,5	1,631750
6,741833	0,5	1,685400
6,750167	0,5	1,758950
6,758500	0,5	1,863350
6,766833	0,5	2,003000
6,775167	0,5	2,179400
6,783500	0,5	2,382050
6,791833	0,5	2,579700
6,800167	0,5	2,764800
6,808500	0,5	2,888650
6,816833	0,5	2,942400
6,825167	0,5	2,914150
6,833500	0,5	2,811050
6,841833	0,5	2,671650
6,850167	0,5	2,508050
6,858500	0,5	2,330950
6,866833	0,5	2,191300
6,875167	0,5	2,071400
6,883500	0,5	1,996800
6,891833	0,5	1,930550
6,900167	0,5	1,875850
6,908500	0,5	1,841700
6,916833	0,5	1,812500
6,925167	0,5	1,791650
6,933500	0,5	1,773950
6,941833	0,5	1,768150
6,950167	0,5	1,752300
6,958500	0,5	1,756800
6,966833	0,5	1,754900
6,975167	0,5	1,748450
6,983500	0,5	1,746900
6,991833	0,5	1,762550
7,000167	0,5	1,757900
7,008500	0,5	1,751500
7,016833	0,5	1,754700
7,025167	0,5	1,768900
7,033500	0,5	1,782900
7,041833	0,5	1,794000
7,050167	0,5	1,794450
7,058500	0,5	1,802550
7,066833	0,5	1,807900
7,075167	0,5	1,809150
7,083500	0,5	1,808100
7,091833	0,5	1,814150
7,100167	0,5	1,810650
7,108500	0,5	1,817950
7,116833	0,5	1,818350
7,125167	0,5	1,804650
7,133500	0,5	1,809000
7,141833	0,5	1,816950
7,150167	0,5	1,816550
7,158500	0,5	1,806800
7,166833	0,5	1,817800
7,175167	0,5	1,826950
7,183500	0,5	1,843400
7,191833	0,5	1,840750
7,200167	0,5	1,846000
7,208500	0,5	1,842950
7,216833	0,5	1,846050
7,225167	0,5	1,843000
7,233500	0,5	1,844150
7,241833	0,5	1,839850
7,250167	0,5	1,843750
7,258500	0,5	1,842050
7,266833	0,5	1,843400
7,275167	0,5	1,842650
7,283500	0,5	1,855250
7,291833	0,5	1,848800
7,300167	0,5	1,841150
7,308500	0,5	1,837550
7,316833	0,5	1,840500
7,325167	0,5	1,850100
7,333500	0,5	1,850600
7,341833	0,5	1,856350
7,350167	0,5	1,857600
7,358500	0,5	1,867650
7,366833	0,5	1,885750
7,375167	0,5	1,917300
7,383500	0,5	1,956400
7,391833	0,5	2,004550
7,400167	0,5	2,061650
7,408500	0,5	2,123650
7,416833	0,5	2,196450
7,425167	0,5	2,272050
7,433500	0,5	2,368050
7,441833	0,5	2,471250
7,450167	0,5	2,619100
7,458500	0,5	2,835000
7,466833	0,5	3,179200
7,475167	0,5	3,720500
7,483500	0,5	4,506400
7,491833	0,5	5,559950
7,500167	0,5	6,844700
7,508500	0,5	8,179450
7,516833	0,5	9,313050
7,525167	0,5	9,985700
7,533500	0,5	10,043950
7,541833	0,5	9,487500
7,550167	0,5	8,483200
7,558500	0,5	7,259600
7,566833	0,5	6,043950
7,575167	0,5	4,984400
7,583500	0,5	4,161850
7,591833	0,5	3,543300
7,600167	0,5	3,104950
7,608500	0,5	2,798000
7,616833	0,5	2,589300
7,625167	0,5	2,451300
7,633500	0,5	2,340250
7,641833	0,5	2,257950
7,650167	0,5	2,191000
7,658500	0,5	2,142700
7,666833	0,5	2,098950
7,675167	0,5	2,069700
7,683500	0,5	2,041400
7,691833	0,5	2,016750
7,700167	0,5	1,993000
7,708500	0,5	1,972300
7,716833	0,5	1,952300
7,725167	0,5	1,941100
7,733500	0,5	1,931400
7,741833	0,5	1,908750
7,750167	0,5	1,900500
7,758500	0,5	1,898800
7,766833	0,5	1,900700
7,775167	0,5	1,902300
7,783500	0,5	1,897500
7,791833	0,5	1,894950
7,800167	0,5	1,894850
7,808500	0,5	1,891400
7,816833	0,5	1,886550
7,825167	0,5	1,881950
7,833500	0,5	1,878450
7,841833	0,5	1,880650
7,850167	0,5	1,875150
7,858500	0,5	1,878750
7,866833	0,5	1,876500
7,875167	0,5	1,882800
7,883500	0,5	1,882300
7,891833	0,5	1,881400
7,900167	0,5	1,886900
7,908500	0,5	1,895650
7,916833	0,5	1,912750
7,925167	0,5	1,933500
7,933500	0,5	1,956450
7,941833	0,5	1,979800
7,950167	0,5	2,003950
7,958500	0,5	2,026350
7,966833	0,5	2,047250
7,975167	0,5	2,078900
7,983500	0,5	2,123950
7,991833	0,5	2,178350
8,000167	0,5	2,241650
8,008500	0,5	2,290000
8,016833	0,5	2,312800
8,025167	0,5	2,314050
8,033500	0,5	2,283200
8,041833	0,5	2,249150
8,050167	0,5	2,242100
8,058500	0,5	2,294050
8,066833	0,5	2,404950
8,075167	0,5	2,593050
8,083500	0,5	2,832050
8,091833	0,5	3,079800
8,100167	0,5	3,251000
8,108500	0,5	3,295950
8,116833	0,5	3,200700
8,125167	0,5	2,999600
8,133500	0,5	2,760750
8,141833	0,5	2,537750
8,150167	0,5	2,360700
8,158500	0,5	2,227950
8,166833	0,5	2,140400
8,175167	0,5	2,077050
8,183500	0,5	2,026000
8,191833	0,5	1,982250
8,200167	0,5	1,956200
8,208500	0,5	1,939900
8,216833	0,5	1,922300
8,225167	0,5	1,900400
8,233500	0,5	1,892950
8,241833	0,5	1,880350
8,250167	0,5	1,876350
8,258500	0,5	1,871800
8,266833	0,5	1,873600
8,275167	0,5	1,878550
8,283500	0,5	1,875200
8,291833	0,5	1,879650
8,300167	0,5	1,875250
8,308500	0,5	1,857350
8,316833	0,5	1,842850
8,325167	0,5	1,821650
8,333500	0,5	1,802250
8,341833	0,5	1,780900
8,350167	0,5	1,766550
8,358500	0,5	1,756000
8,366833	0,5	1,753250
8,375167	0,5	1,742500
8,383500	0,5	1,732200
8,391833	0,5	1,726400
8,400167	0,5	1,716950
8,408500	0,5	1,711100
8,416833	0,5	1,705100
8,425167	0,5	1,701350
8,433500	0,5	1,696400
8,441833	0,5	1,694400
8,450167	0,5	1,694800
8,458500	0,5	1,686050
8,466833	0,5	1,687800
8,475167	0,5	1,684550
8,483500	0,5	1,678800
8,491833	0,5	1,675800
8,500167	0,5	1,678100
8,508500	0,5	1,681850
8,516833	0,5	1,683600
8,525167	0,5	1,681700
8,533500	0,5	1,683450
8,541833	0,5	1,681700
8,550167	0,5	1,686650
8,558500	0,5	1,691150
8,566833	0,5	1,695550
8,575167	0,5	1,689350
8,583500	0,5	1,696650
8,591833	0,5	1,694350
8,600167	0,5	1,699750
8,608500	0,5	1,700550
8,616833	0,5	1,702250
8,625167	0,5	1,701450
8,633500	0,5	1,707350
8,641833	0,5	1,707150
8,650167	0,5	1,713300
8,658500	0,5	1,710850
8,666833	0,5	1,709500
8,675167	0,5	1,697650
8,683500	0,5	1,699600
8,691833	0,5	1,695250
8,700167	0,5	1,702300
8,708500	0,5	1,712200
8,716833	0,5	1,741800
8,725167	0,5	1,781650
8,733500	0,5	1,855900
8,741833	0,5	1,952350
8,750167	0,5	2,076150
8,758500	0,5	2,230900
8,766833	0,5	2,424000
8,775167	0,5	2,645650
8,783500	0,5	2,907650
8,791833	0,5	3,281500
8,800167	0,5	3,836900
8,808500	0,5	4,713650
8,816833	0,5	6,088100
8,825167	0,5	8,104350
8,833500	0,5	10,782750
8,841833	0,5	13,876500
8,850167	0,5	16,868600
8,858500	0,5	19,109400
8,866833	0,5	20,064050
8,875167	0,5	19,540400
8,883500	0,5	17,754500
8,891833	0,5	15,186450
8,900167	0,5	12,394800
8,908500	0,5	9,831000
8,916833	0,5	7,738350
8,925167	0,5	6,176400
8,933500	0,5	5,086300
8,941833	0,5	4,351250
8,950167	0,5	3,859100
8,958500	0,5	3,509650
8,966833	0,5	3,249100
8,975167	0,5	3,063650
8,983500	0,5	2,956050
8,991833	0,5	2,952850
9,000167	0,5	3,060500
9,008500	0,5	3,256600
9,016833	0,5	3,474750
9,025167	0,5	3,633650
9,033500	0,5	3,658250
9,041833	0,5	3,526200
9,050167	0,5	3,275250
9,058500	0,5	2,980350
9,066833	0,5	2,689800
9,075167	0,5	2,452350
9,083500	0,5	2,267950
9,091833	0,5	2,140600
9,100167	0,5	2,050750
9,108500	0,5	1,983650
9,116833	0,5	1,930550
9,125167	0,5	1,888100
9,133500	0,5	1,848550
9,141833	0,5	1,817400
9,150167	0,5	1,783950
9,158500	0,5	1,755900
9,166833	0,5	1,730450
9,175167	0,5	1,704600
9,183500	0,5	1,680450
9,191833	0,5	1,661050
9,200167	0,5	1,642800
9,208500	0,5	1,631100
9,216833	0,5	1,612350
9,225167	0,5	1,597550
9,233500	0,5	1,584600
9,241833	0,5	1,573250
9,250167	0,5	1,564900
9,258500	0,5	1,552500
9,266833	0,5	1,543050
9,275167	0,5	1,534000
9,283500	0,5	1,525800
9,291833	0,5	1,515300
9,300167	0,5	1,509950
9,308500	0,5	1,507950
9,316833	0,5	1,503650
9,325167	0,5	1,499600
9,333500	0,5	1,495500
9,341833	0,5	1,492600
9,350167	0,5	1,494650
9,358500	0,5	1,490050
9,366833	0,5	1,479850
9,375167	0,5	1,458050
9,383500	0,5	1,444800
9,391833	0,5	1,428000
9,400167	0,5	1,416850
9,408500	0,5	1,402250
9,416833	0,5	1,387200
9,425167	0,5	1,377450
9,433500	0,5	1,366100
9,441833	0,5	1,361150
9,450167	0,5	1,348050
9,458500	0,5	1,337400
9,466833	0,5	1,326900
9,475167	0,5	1,323650
9,483500	0,5	1,316300
9,491833	0,5	1,300850
9,500167	0,5	1,294300
9,508500	0,5	1,293100
9,516833	0,5	1,288550
9,525167	0,5	1,278850
9,533500	0,5	1,278200
9,541833	0,5	1,276250
9,550167	0,5	1,271650
9,558500	0,5	1,266800
9,566833	0,5	1,261050
9,575167	0,5	1,263000
9,583500	0,5	1,257000
9,591833	0,5	1,255400
9,600167	0,5	1,257250
9,608500	0,5	1,248650
9,616833	0,5	1,247050
9,625167	0,5	1,240100
9,633500	0,5	1,243150
9,641833	0,5	1,237000
9,650167	0,5	1,235550
9,658500	0,5	1,232550
9,666833	0,5	1,227650
9,675167	0,5	1,223300
9,683500	0,5	1,215900
9,691833	0,5	1,223300
9,700167	0,5	1,222250
9,708500	0,5	1,223050
9,716833	0,5	1,223550
9,725167	0,5	1,219600
9,733500	0,5	1,222150
9,741833	0,5	1,222700
9,750167	0,5	1,228150
9,758500	0,5	1,227250
9,766833	0,5	1,230050
9,775167	0,5	1,233900
9,783500	0,5	1,242250
9,791833	0,5	1,243650
9,800167	0,5	1,253050
9,808500	0,5	1,252200
9,816833	0,5	1,269250
9,825167	0,5	1,280500
9,833500	0,5	1,302250
9,841833	0,5	1,333400
9,850167	0,5	1,374700
9,858500	0,5	1,432350
9,866833	0,5	1,502150
9,875167	0,5	1,580350
9,883500	0,5	1,684300
9,891833	0,5	1,800550
9,900167	0,5	1,949750
9,908500	0,5	2,163650
9,916833	0,5	2,477050
9,925167	0,5	2,968000
9,933500	0,5	3,709400
9,941833	0,5	4,773550
9,950167	0,5	6,120550
9,958500	0,5	7,634500
9,966833	0,5	9,057750
9,975167	0,5	10,102750
9,983500	0,5	10,535600
9,991833	0,5	10,267200
10,000167	0,5	9,384400
10,008500	0,5	8,112700
10,016833	0,5	6,710700
10,025167	0,5	5,395750
10,033500	0,5	4,298950
10,041833	0,5	3,462150
10,050167	0,5	2,848750
10,058500	0,5	2,422050
10,066833	0,5	2,120850
10,075167	0,5	1,901900
10,083500	0,5	1,752400
10,091833	0,5	1,643400
10,100167	0,5	1,561700
10,108500	0,5	1,492050
10,116833	0,5	1,445150
10,125167	0,5	1,403350
10,133500	0,5	1,374150
10,141833	0,5	1,356950
10,150167	0,5	1,352200
10,158500	0,5	1,336100
10,166833	0,5	1,331100
10,175167	0,5	1,326200
10,183500	0,5	1,321600
10,191833	0,5	1,325150
10,200167	0,5	1,325000
10,208500	0,5	1,331500
10,216833	0,5	1,327000
10,225167	0,5	1,332350
10,233500	0,5	1,335250
10,241833	0,5	1,341300
10,250167	0,5	1,351250
10,258500	0,5	1,359850
10,266833	0,5	1,366550
10,275167	0,5	1,366650
10,283500	0,5	1,371200
10,291833	0,5	1,370350
10,300167	0,5	1,366700
10,308500	0,5	1,358450
10,316833	0,5	1,342800
10,325167	0,5	1,330550
10,333500	0,5	1,312500
10,341833	0,5	1,303750
10,350167	0,5	1,284300
10,358500	0,5	1,271100
10,366833	0,5	1,258450
10,375167	0,5	1,240350
10,383500	0,5	1,225550
10,391833	0,5	1,216100
10,400167	0,5	1,202000
10,408500	0,5	1,188850
10,416833	0,5	1,176100
10,425167	0,5	1,163650
10,433500	0,5	1,160000
10,441833	0,5	1,146450
10,450167	0,5	1,145350
10,458500	0,5	1,136500
10,466833	0,5	1,130050
10,475167	0,5	1,127950
10,483500	0,5	1,121100
10,491833	0,5	1,116500
10,500167	0,5	1,114900
10,508500	0,5	1,113700
10,516833	0,5	1,114000
10,525167	0,5	1,108750
10,533500	0,5	1,112350
10,541833	0,5	1,115450
10,550167	0,5	1,113150
10,558500	0,5	1,106300
10,566833	0,5	1,106550
10,575167	0,5	1,110000
10,583500	0,5	1,111000
10,591833	0,5	1,113000
10,600167	0,5	1,103750
10,608500	0,5	1,101500
10,616833	0,5	1,096950
10,625167	0,5	1,093700
10,633500	0,5	1,090600
10,641833	0,5	1,089650
10,650167	0,5	1,085200
10,658500	0,5	1,086500
10,666833	0,5	1,081500
10,675167	0,5	1,077900
10,683500	0,5	1,079650
10,691833	0,5	1,077800
10,700167	0,5	1,075800
10,708500	0,5	1,068350
10,716833	0,5	1,062900
10,725167	0,5	1,068250
10,733500	0,5	1,068200
10,741833	0,5	1,067100
10,750167	0,5	1,071300
10,758500	0,5	1,075150
10,766833	0,5	1,076050
10,775167	0,5	1,082550
10,783500	0,5	1,092850
10,791833	0,5	1,108550
10,800167	0,5	1,133650
10,808500	0,5	1,168600
10,816833	0,5	1,222700
10,825167	0,5	1,283250
10,833500	0,5	1,369400
10,841833	0,5	1,465600
10,850167	0,5	1,584250
10,858500	0,5	1,740400
10,866833	0,5	1,960150
10,875167	0,5	2,295100
10,883500	0,5	2,810050
10,891833	0,5	3,573400
10,900167	0,5	4,652550
10,908500	0,5	6,000800
10,916833	0,5	7,501250
10,925167	0,5	8,895300
10,933500	0,5	9,902350
10,941833	0,5	10,298800
10,950167	0,5	10,004550
10,958500	0,5	9,123100
10,966833	0,5	7,857150
10,975167	0,5	6,480400
10,983500	0,5	5,198150
10,991833	0,5	4,124800
11,000167	0,5	3,301050
11,008500	0,5	2,699200
11,016833	0,5	2,272400
11,025167	0,5	1,980950
11,033500	0,5	1,771450
11,041833	0,5	1,620200
11,050167	0,5	1,510550
11,058500	0,5	1,423800
11,066833	0,5	1,354300
11,075167	0,5	1,301800
11,083500	0,5	1,259050
11,091833	0,5	1,216750
11,100167	0,5	1,196850
11,108500	0,5	1,169600
11,116833	0,5	1,148150
11,125167	0,5	1,132300
11,133500	0,5	1,117300
11,141833	0,5	1,104150
11,150167	0,5	1,096950
11,158500	0,5	1,090400
11,166833	0,5	1,095750
11,175167	0,5	1,102950
11,183500	0,5	1,114500
11,191833	0,5	1,126550
11,200167	0,5	1,149800
11,208500	0,5	1,169550
11,216833	0,5	1,194500
11,225167	0,5	1,214050
11,233500	0,5	1,230550
11,241833	0,5	1,244700
11,250167	0,5	1,258400
11,258500	0,5	1,264950
11,266833	0,5	1,261400
11,275167	0,5	1,259400
11,283500	0,5	1,252800
11,291833	0,5	1,239300
11,300167	0,5	1,222950
11,308500	0,5	1,210050
11,316833	0,5	1,196350
11,325167	0,5	1,182300
11,333500	0,5	1,167100
11,341833	0,5	1,158250
11,350167	0,5	1,140900
11,358500	0,5	1,134200
11,366833	0,5	1,120200
11,375167	0,5	1,111450
11,383500	0,5	1,096450
11,391833	0,5	1,080200
11,400167	0,5	1,070350
11,408500	0,5	1,053900
11,416833	0,5	1,042200
11,425167	0,5	1,034500
11,433500	0,5	1,027250
11,441833	0,5	1,019300
11,450167	0,5	1,011550
11,458500	0,5	1,015050
11,466833	0,5	1,028550
11,475167	0,5	1,043200
11,483500	0,5	1,066550
11,491833	0,5	1,097950
11,500167	0,5	1,133850
11,508500	0,5	1,164100
11,516833	0,5	1,197750
11,525167	0,5	1,227400
11,533500	0,5	1,248550
11,541833	0,5	1,267650
11,550167	0,5	1,281550
11,558500	0,5	1,276200
11,566833	0,5	1,283050
11,575167	0,5	1,284800
11,583500	0,5	1,282600
11,591833	0,5	1,278250
11,600167	0,5	1,288750
11,608500	0,5	1,305750
11,616833	0,5	1,341050
11,625167	0,5	1,379050
11,633500	0,5	1,429850
11,641833	0,5	1,508000
11,650167	0,5	1,626000
11,658500	0,5	1,814600
11,666833	0,5	2,105750
11,675167	0,5	2,540950
11,683500	0,5	3,156450
11,691833	0,5	3,936850
11,700167	0,5	4,819150
11,708500	0,5	5,659550
11,716833	0,5	6,314650
11,725167	0,5	6,633500
11,733500	0,5	6,550200
11,741833	0,5	6,092250
11,750167	0,5	5,388050
11,758500	0,5	4,570700
11,766833	0,5	3,765250
11,775167	0,5	3,079850
11,783500	0,5	2,532700
11,791833	0,5	2,137050
11,800167	0,5	1,848550
11,808500	0,5	1,649250
11,816833	0,5	1,517150
11,825167	0,5	1,419450
11,833500	0,5	1,360950
11,841833	0,5	1,310550
11,850167	0,5	1,276300
11,858500	0,5	1,247500
11,866833	0,5	1,228650
11,875167	0,5	1,213350
11,883500	0,5	1,196850
11,891833	0,5	1,174850
11,900167	0,5	1,163450
11,908500	0,5	1,159100
11,916833	0,5	1,152700
11,925167	0,5	1,145150
11,933500	0,5	1,141050
11,941833	0,5	1,132000
11,950167	0,5	1,131700
11,958500	0,5	1,130850
11,966833	0,5	1,128300
11,975167	0,5	1,135050
11,983500	0,5	1,139400
11,991833	0,5	1,149750
12,000167	0,5	1,149450
12,008500	0,5	1,156750
12,016833	0,5	1,160000
12,025167	0,5	1,163350
12,033500	0,5	1,165550
12,041833	0,5	1,164650
12,050167	0,5	1,166600
12,058500	0,5	1,182850
12,066833	0,5	1,186900
12,075167	0,5	1,196650
12,083500	0,5	1,201200
12,091833	0,5	1,207100
12,100167	0,5	1,212300
12,108500	0,5	1,218700
12,116833	0,5	1,220700
12,125167	0,5	1,224500
12,133500	0,5	1,231700
12,141833	0,5	1,229050
12,150167	0,5	1,225700
12,158500	0,5	1,232200
12,166833	0,5	1,231700
12,175167	0,5	1,233900
12,183500	0,5	1,225450
12,191833	0,5	1,212000
12,200167	0,5	1,208800
12,208500	0,5	1,200850
12,216833	0,5	1,193850
12,225167	0,5	1,180900
12,233500	0,5	1,168900
12,241833	0,5	1,154000
12,250167	0,5	1,146950
12,258500	0,5	1,135950
12,266833	0,5	1,125250
12,275167	0,5	1,125050
12,283500	0,5	1,119000
12,291833	0,5	1,113400
12,300167	0,5	1,116750
12,308500	0,5	1,132000
12,316833	0,5	1,144500
12,325167	0,5	1,159800
12,333500	0,5	1,179450
12,341833	0,5	1,212450
12,350167	0,5	1,244550
12,358500	0,5	1,286700
12,366833	0,5	1,320600
12,375167	0,5	1,375100
12,383500	0,5	1,419500
12,391833	0,5	1,462350
12,400167	0,5	1,504000
12,408500	0,5	1,533100
12,416833	0,5	1,539550
12,425167	0,5	1,539000
12,433500	0,5	1,511600
12,441833	0,5	1,466800
12,450167	0,5	1,423300
12,458500	0,5	1,375100
12,466833	0,5	1,315200
12,475167	0,5	1,256050
12,483500	0,5	1,200400
12,491833	0,5	1,164350
12,500167	0,5	1,133000
12,508500	0,5	1,098950
12,516833	0,5	1,079850
12,525167	0,5	1,061550
12,533500	0,5	1,056750
12,541833	0,5	1,063800
12,550167	0,5	1,072550
12,558500	0,5	1,095500
12,566833	0,5	1,132500
12,575167	0,5	1,171850
12,583500	0,5	1,228700
12,591833	0,5	1,270800
12,600167	0,5	1,325100
12,608500	0,5	1,345950
12,616833	0,5	1,343300
12,625167	0,5	1,314850
12,633500	0,5	1,268900
12,641833	0,5	1,217700
12,650167	0,5	1,159150
12,658500	0,5	1,096150
12,666833	0,5	1,037950
12,675167	0,5	0,984000
12,683500	0,5	0,938600
12,691833	0,5	0,904850
12,700167	0,5	0,869000
12,708500	0,5	0,844150
12,716833	0,5	0,812750
12,725167	0,5	0,801000
12,733500	0,5	0,777750
12,741833	0,5	0,756050
12,750167	0,5	0,756550
12,758500	0,5	0,743700
12,766833	0,5	0,730950
12,775167	0,5	0,718950
12,783500	0,5	0,712750
12,791833	0,5	0,715200
12,800167	0,5	0,714150
12,808500	0,5	0,711100
12,816833	0,5	0,703300
12,825167	0,5	0,706900
12,833500	0,5	0,701650
12,841833	0,5	0,694750
12,850167	0,5	0,691850
12,858500	0,5	0,682400
12,866833	0,5	0,672800
12,875167	0,5	0,668050
12,883500	0,5	0,645850
12,891833	0,5	0,643100
12,900167	0,5	0,642750
12,908500	0,5	0,635200
12,916833	0,5	0,628350
12,925167	0,5	0,628300
12,933500	0,5	0,632000
12,941833	0,5	0,634950
12,950167	0,5	0,640750
12,958500	0,5	0,635050
12,966833	0,5	0,626900
12,975167	0,5	0,615700
12,983500	0,5	0,598150
12,991833	0,5	0,581750
13,000167	0,5	0,571800
13,008500	0,5	0,558450
13,016833	0,5	0,550650
13,025167	0,5	0,543050
13,033500	0,5	0,532950
13,041833	0,5	0,535950
13,050167	0,5	0,532750
13,058500	0,5	0,534550
13,066833	0,5	0,531750
13,075167	0,5	0,540300
13,083500	0,5	0,546450
13,091833	0,5	0,562850
13,100167	0,5	0,566300
13,108500	0,5	0,574200
13,116833	0,5	0,577350
13,125167	0,5	0,582950
13,133500	0,5	0,583600
13,141833	0,5	0,592550
13,150167	0,5	0,593400
13,158500	0,5	0,590100
13,166833	0,5	0,588600
13,175167	0,5	0,574600
13,183500	0,5	0,544950
13,191833	0,5	0,529800
13,200167	0,5	0,506450
13,208500	0,5	0,489500
13,216833	0,5	0,475600
13,225167	0,5	0,473350
13,233500	0,5	0,483600
13,241833	0,5	0,489050
13,250167	0,5	0,506450
13,258500	0,5	0,519500
13,266833	0,5	0,552400
13,275167	0,5	0,583300
13,283500	0,5	0,651100
13,291833	0,5	0,724100
13,300167	0,5	0,801200
13,308500	0,5	0,886050
13,316833	0,5	0,942350
13,325167	0,5	0,950200
13,333500	0,5	0,931400
13,341833	0,5	0,883650
13,350167	0,5	0,820300
13,358500	0,5	0,744500
13,366833	0,5	0,680800
13,375167	0,5	0,641500
13,383500	0,5	0,603150
13,391833	0,5	0,590250
13,400167	0,5	0,581750
13,408500	0,5	0,608950
13,416833	0,5	0,655750
13,425167	0,5	0,724150
13,433500	0,5	0,808650
13,441833	0,5	0,893550
13,450167	0,5	0,958000
13,458500	0,5	0,998450
13,466833	0,5	0,988150
13,475167	0,5	0,929850
13,483500	0,5	0,862150
13,491833	0,5	0,784400
13,500167	0,5	0,696500
13,508500	0,5	0,628900
13,516833	0,5	0,569950
13,525167	0,5	0,533300
13,533500	0,5	0,506400
13,541833	0,5	0,479800
13,550167	0,5	0,459300
13,558500	0,5	0,441800
13,566833	0,5	0,425850
13,575167	0,5	0,418500
13,583500	0,5	0,409000
13,591833	0,5	0,398000
13,600167	0,5	0,391400
13,608500	0,5	0,388300
13,616833	0,5	0,378050
13,625167	0,5	0,372600
13,633500	0,5	0,378350
13,641833	0,5	0,379600
13,650167	0,5	0,373100
13,658500	0,5	0,360250
13,666833	0,5	0,353450
13,675167	0,5	0,352150
13,683500	0,5	0,355300
13,691833	0,5	0,349200
13,700167	0,5	0,346400
13,708500	0,5	0,335450
13,716833	0,5	0,329550
13,725167	0,5	0,334350
13,733500	0,5	0,338550
13,741833	0,5	0,341600
13,750167	0,5	0,339100
13,758500	0,5	0,361000
13,766833	0,5	0,364600
13,775167	0,5	0,396750
13,783500	0,5	0,416400
13,791833	0,5	0,442950
13,800167	0,5	0,445250
13,808500	0,5	0,436850
13,816833	0,5	0,424000
13,825167	0,5	0,405550
13,833500	0,5	0,381050
13,841833	0,5	0,362800
13,850167	0,5	0,349000
13,858500	0,5	0,341900
13,866833	0,5	0,333250
13,875167	0,5	0,332300
13,883500	0,5	0,323700
13,891833	0,5	0,313450
13,900167	0,5	0,316900
13,908500	0,5	0,314600
13,916833	0,5	0,296900
13,925167	0,5	0,308250
13,933500	0,5	0,309350
13,941833	0,5	0,304500
13,950167	0,5	0,308450
13,958500	0,5	0,319850
13,966833	0,5	0,381750
13,975167	0,5	0,468600
13,983500	0,5	0,582100
13,991833	0,5	0,698650
14,000167	0,5	0,804300
14,008500	0,5	0,861300
14,016833	0,5	0,864200
14,025167	0,5	0,817450
14,033500	0,5	0,740200
14,041833	0,5	0,665400
14,050167	0,5	0,601150
14,058500	0,5	0,543100
14,066833	0,5	0,515400
14,075167	0,5	0,532100
14,083500	0,5	0,570000
14,091833	0,5	0,647850
14,100167	0,5	0,728650
14,108500	0,5	0,824600
14,116833	0,5	0,900700
14,125167	0,5	0,926800
14,133500	0,5	0,889600
14,141833	0,5	0,819300
14,150167	0,5	0,724450
14,158500	0,5	0,639800
14,166833	0,5	0,547650
14,175167	0,5	0,489150
14,183500	0,5	0,434500
14,191833	0,5	0,391000
14,200167	0,5	0,367850
14,208500	0,5	0,335450
14,216833	0,5	0,325550
14,225167	0,5	0,312000
14,233500	0,5	0,289100
14,241833	0,5	0,275600
14,250167	0,5	0,257900
14,258500	0,5	0,255350
14,266833	0,5	0,263850
14,275167	0,5	0,263400
14,283500	0,5	0,265750
14,291833	0,5	0,272000
14,300167	0,5	0,276100
14,308500	0,5	0,277650
14,316833	0,5	0,285900
14,325167	0,5	0,286400
14,333500	0,5	0,303450
14,341833	0,5	0,318550
14,350167	0,5	0,333500
14,358500	0,5	0,339450
14,366833	0,5	0,350800
14,375167	0,5	0,342900
14,383500	0,5	0,334150
14,391833	0,5	0,305150
14,400167	0,5	0,279350
14,408500	0,5	0,268500
14,416833	0,5	0,258800
14,425167	0,5	0,241150
14,433500	0,5	0,225150
14,441833	0,5	0,210600
14,450167	0,5	0,202950
14,458500	0,5	0,199150
14,466833	0,5	0,192500
14,475167	0,5	0,184600
14,483500	0,5	0,187300
14,491833	0,5	0,198900
14,500167	0,5	0,183950
14,508500	0,5	0,186550
14,516833	0,5	0,193150
14,525167	0,5	0,191150
14,533500	0,5	0,190000
14,541833	0,5	0,176300
14,550167	0,5	0,179850
14,558500	0,5	0,216800
14,566833	0,5	0,277700
14,575167	0,5	0,363600
14,583500	0,5	0,490100
14,591833	0,5	0,616300
14,600167	0,5	0,726750
14,608500	0,5	0,782800
14,616833	0,5	0,780950
14,625167	0,5	0,723650
14,633500	0,5	0,642450
14,641833	0,5	0,559850
14,650167	0,5	0,476700
14,658500	0,5	0,462650
14,666833	0,5	0,496350
14,675167	0,5	0,555150
14,683500	0,5	0,654050
14,691833	0,5	0,733600
14,700167	0,5	0,810050
14,708500	0,5	0,831800
14,716833	0,5	0,791650
14,725167	0,5	0,696300
14,733500	0,5	0,590900
14,741833	0,5	0,488100
14,750167	0,5	0,391850
14,758500	0,5	0,330500
14,766833	0,5	0,280800
14,775167	0,5	0,248250
14,783500	0,5	0,209100
14,791833	0,5	0,199900
14,800167	0,5	0,170250
14,808500	0,5	0,171850
14,816833	0,5	0,179200
14,825167	0,5	0,187350
14,833500	0,5	0,187550
14,841833	0,5	0,180400
14,850167	0,5	0,183300
14,858500	0,5	0,176700
14,866833	0,5	0,155900
14,875167	0,5	0,140100
14,883500	0,5	0,127150
14,891833	0,5	0,118500
14,900167	0,5	0,112750
14,908500	0,5	0,111900
14,916833	0,5	0,099200
14,925167	0,5	0,078550
14,933500	0,5	0,063100
14,941833	0,5	0,031650
14,950167	0,5	0,001550
14,958500	0,5	-0,019350
14,966833	0,5	-0,034350
14,975167	0,5	-0,058450
14,983500	0,5	-0,075100
14,991833	0,5	-0,095350
15,000167	0,5	-0,088550
15,008500	0,5	-0,097200
15,016833	0,5	-0,098600
15,025167	0,5	-0,105100
15,033500	0,5	-0,104700
15,041833	0,5	-0,107500
15,050167	0,5	-0,101050
15,058500	0,5	-0,089550
15,066833	0,5	-0,067700
15,075167	0,5	-0,012450
15,083500	0,5	0,073200
15,091833	0,5	0,177150
15,100167	0,5	0,320200
15,108500	0,5	0,459000
15,116833	0,5	0,552700
15,125167	0,5	0,573000
15,133500	0,5	0,533500
15,141833	0,5	0,472850
15,150167	0,5	0,407650
15,158500	0,5	0,377050
15,166833	0,5	0,384550
15,175167	0,5	0,460500
15,183500	0,5	0,550200
15,191833	0,5	0,633700
15,200167	0,5	0,663250
15,208500	0,5	0,639750
15,216833	0,5	0,557600
15,225167	0,5	0,457600
15,233500	0,5	0,355850
15,241833	0,5	0,263900
15,250167	0,5	0,214650
15,258500	0,5	0,181850
15,266833	0,5	0,160450
15,275167	0,5	0,127600
15,283500	0,5	0,101450
15,291833	0,5	0,081400
15,300167	0,5	0,077800
15,308500	0,5	0,062800
15,316833	0,5	0,055300
15,325167	0,5	0,054300
15,333500	0,5	0,049950
15,341833	0,5	0,050700
15,350167	0,5	0,050800
15,358500	0,5	0,039600
15,366833	0,5	0,028700
15,375167	0,5	0,009450
15,383500	0,5	-0,016450
15,391833	0,5	-0,051950
15,400167	0,5	-0,067050
15,408500	0,5	-0,096200
15,416833	0,5	-0,123550
15,425167	0,5	-0,149000
15,433500	0,5	-0,178350
15,441833	0,5	-0,178800
15,450167	0,5	-0,195350
15,458500	0,5	-0,211500
15,466833	0,5	-0,226150
15,475167	0,5	-0,244600
15,483500	0,5	-0,275000
15,491833	0,5	-0,280200
15,500167	0,5	-0,284600
15,508500	0,5	-0,281800
15,516833	0,5	-0,262450
15,525167	0,5	-0,221200
15,533500	0,5	-0,163150
15,541833	0,5	-0,047750
15,550167	0,5	0,098050
15,558500	0,5	0,238250
15,566833	0,5	0,359350
15,575167	0,5	0,410100
15,583500	0,5	0,420000
15,591833	0,5	0,387850
15,600167	0,5	0,359350
15,608500	0,5	0,352750
15,616833	0,5	0,397800
15,625167	0,5	0,453700
15,633500	0,5	0,518400
15,641833	0,5	0,539200
15,650167	0,5	0,511050
15,658500	0,5	0,424950
15,666833	0,5	0,318550
15,675167	0,5	0,194550
15,683500	0,5	0,083200
15,691833	0,5	0,007750
15,700167	0,5	-0,047850
15,708500	0,5	-0,100600
15,716833	0,5	-0,140250
15,725167	0,5	-0,166850
15,733500	0,5	-0,162450
15,741833	0,5	-0,142450
15,750167	0,5	-0,129150
15,758500	0,5	-0,120800
15,766833	0,5	-0,110150
15,775167	0,5	-0,119100
15,783500	0,5	-0,126100
15,791833	0,5	-0,150100
15,800167	0,5	-0,188500
15,808500	0,5	-0,219100
15,816833	0,5	-0,249750
15,825167	0,5	-0,288550
15,833500	0,5	-0,321050
15,841833	0,5	-0,342400
15,850167	0,5	-0,366700
15,858500	0,5	-0,393750
15,866833	0,5	-0,422150
15,875167	0,5	-0,441600
15,883500	0,5	-0,444700
15,891833	0,5	-0,460200
15,900167	0,5	-0,474300
15,908500	0,5	-0,474450
15,916833	0,5	-0,467200
15,925167	0,5	-0,442550
15,933500	0,5	-0,398150
15,941833	0,5	-0,320150
15,950167	0,5	-0,204000
15,958500	0,5	-0,055950
15,966833	0,5	0,100850
15,975167	0,5	0,198400
15,983500	0,5	0,280550
15,991833	0,5	0,304450
16,000167	0,5	0,301800
16,008500	0,5	0,297550
16,016833	0,5	0,317900
16,025167	0,5	0,363050
16,033500	0,5	0,383200
16,041833	0,5	0,345850
16,050167	0,5	0,267900
16,058500	0,5	0,152000
16,066833	0,5	0,039350
16,075167	0,5	-0,076500
16,083500	0,5	-0,155450
16,091833	0,5	-0,219200
16,100167	0,5	-0,264500
16,108500	0,5	-0,280900
16,116833	0,5	-0,286850
16,125167	0,5	-0,306000
16,133500	0,5	-0,297050
16,141833	0,5	-0,303050
16,150167	0,5	-0,305050
16,158500	0,5	-0,328100
16,166833	0,5	-0,358700
16,175167	0,5	-0,366450
16,183500	0,5	-0,387500
16,191833	0,5	-0,400200
16,200167	0,5	-0,422350
16,208500	0,5	-0,451250
16,216833	0,5	-0,471450
16,225167	0,5	-0,485450
16,233500	0,5	-0,503950
16,241833	0,5	-0,520200
16,250167	0,5	-0,542900
16,258500	0,5	-0,547100
16,266833	0,5	-0,564850
16,275167	0,5	-0,565950
16,283500	0,5	-0,556600
16,291833	0,5	-0,543700
16,300167	0,5	-0,507400
16,308500	0,5	-0,456700
16,316833	0,5	-0,344600
16,325167	0,5	-0,191000
16,333500	0,5	-0,033600
16,341833	0,5	0,081250
16,350167	0,5	0,169400
16,358500	0,5	0,202200
16,366833	0,5	0,206950
16,375167	0,5	0,211400
16,383500	0,5	0,231900
16,391833	0,5	0,226150
16,400167	0,5	0,200150
16,408500	0,5	0,125050
16,416833	0,5	0,018750
16,425167	0,5	-0,077000
16,433500	0,5	-0,153150
16,441833	0,5	-0,218200
16,450167	0,5	-0,263450
16,458500	0,5	-0,295450
16,466833	0,5	-0,304350
16,475167	0,5	-0,287700
16,483500	0,5	-0,293550
16,491833	0,5	-0,285450
16,500167	0,5	-0,293850
16,508500	0,5	-0,276700
16,516833	0,5	-0,286900
16,525167	0,5	-0,279450
16,533500	0,5	-0,266800
16,541833	0,5	-0,256600
16,550167	0,5	-0,233350
16,558500	0,5	-0,217400
16,566833	0,5	-0,198350
16,575167	0,5	-0,170150
16,583500	0,5	-0,144650
16,591833	0,5	-0,131150
16,600167	0,5	-0,143350
16,608500	0,5	-0,155150
16,616833	0,5	-0,157350
16,625167	0,5	-0,172250
16,633500	0,5	-0,154900
16,641833	0,5	-0,124500
16,650167	0,5	-0,054000
16,658500	0,5	0,027600
16,666833	0,5	0,108850
16,675167	0,5	0,177050
16,683500	0,5	0,213900
16,691833	0,5	0,219800
16,700167	0,5	0,230850
16,708500	0,5	0,210750
16,716833	0,5	0,200300
16,725167	0,5	0,148100
16,733500	0,5	0,082750
16,741833	0,5	-0,021550
16,750167	0,5	-0,140400
16,758500	0,5	-0,220300
16,766833	0,5	-0,283600
16,775167	0,5	-0,327550
16,783500	0,5	-0,365900
16,791833	0,5	-0,394050
16,800167	0,5	-0,409550
16,808500	0,5	-0,422800
16,816833	0,5	-0,433650
16,825167	0,5	-0,440650
16,833500	0,5	-0,466900
16,841833	0,5	-0,473600
16,850167	0,5	-0,486250
16,858500	0,5	-0,523050
16,866833	0,5	-0,532450
16,875167	0,5	-0,550000
16,883500	0,5	-0,573350
16,891833	0,5	-0,594750
16,900167	0,5	-0,628650
16,908500	0,5	-0,621150
16,916833	0,5	-0,617000
16,925167	0,5	-0,599450
16,933500	0,5	-0,575150
16,941833	0,5	-0,518900
16,950167	0,5	-0,440000
16,958500	0,5	-0,339250
16,966833	0,5	-0,220350
16,975167	0,5	-0,113350
16,983500	0,5	-0,019650
16,991833	0,5	0,045000
17,000167	0,5	0,096650
17,008500	0,5	0,115800
17,016833	0,5	0,157200
17,025167	0,5	0,153050
17,033500	0,5	0,139700
17,041833	0,5	0,098750
17,050167	0,5	0,080700
17,058500	0,5	0,118800
17,066833	0,5	0,186950
17,075167	0,5	0,296650
17,083500	0,5	0,463850
17,091833	0,5	0,671900
17,100167	0,5	0,907250
17,108500	0,5	1,166900
17,116833	0,5	1,425950
17,125167	0,5	1,656450
17,133500	0,5	1,833800
17,141833	0,5	1,959200
17,150167	0,5	1,971800
17,158500	0,5	1,939700
17,166833	0,5	1,836900
17,175167	0,5	1,686300
17,183500	0,5	1,487450
17,191833	0,5	1,277350
17,200167	0,5	1,072900
17,208500	0,5	0,914250
17,216833	0,5	0,777500
17,225167	0,5	0,693300
17,233500	0,5	0,642950
17,241833	0,5	0,617900
17,250167	0,5	0,598650
17,258500	0,5	0,580500
17,266833	0,5	0,557900
17,275167	0,5	0,522550
17,283500	0,5	0,486800
17,291833	0,5	0,422450
17,300167	0,5	0,327200
17,308500	0,5	0,254400
17,316833	0,5	0,173650
17,325167	0,5	0,099100
17,333500	0,5	0,035200
17,341833	0,5	-0,012950
17,350167	0,5	-0,035400
17,358500	0,5	-0,030700
17,366833	0,5	-0,016150
17,375167	0,5	-0,001400
17,383500	0,5	0,051600
17,391833	0,5	0,097200
17,400167	0,5	0,182000
17,408500	0,5	0,265900
17,416833	0,5	0,346900
17,425167	0,5	0,420000
17,433500	0,5	0,474350
17,441833	0,5	0,497550
17,450167	0,5	0,486250
17,458500	0,5	0,482600
17,466833	0,5	0,458550
17,475167	0,5	0,441250
17,483500	0,5	0,400650
17,491833	0,5	0,382000
17,500167	0,5	0,358300
17,508500	0,5	0,341350
17,516833	0,5	0,287450
17,525167	0,5	0,234350
17,533500	0,5	0,147800
17,541833	0,5	0,052050
17,550167	0,5	-0,041550
17,558500	0,5	-0,135350
17,566833	0,5	-0,208650
17,575167	0,5	-0,266850
17,583500	0,5	-0,311200
17,591833	0,5	-0,366350
17,600167	0,5	-0,396400
17,608500	0,5	-0,421600
17,616833	0,5	-0,456800
17,625167	0,5	-0,491350
17,633500	0,5	-0,543700
17,641833	0,5	-0,554750
17,650167	0,5	-0,563950
17,658500	0,5	-0,588150
17,666833	0,5	-0,600700
17,675167	0,5	-0,600550
17,683500	0,5	-0,581600
17,691833	0,5	-0,558150
17,700167	0,5	-0,506450
17,708500	0,5	-0,455050
17,716833	0,5	-0,397400
17,725167	0,5	-0,328250
17,733500	0,5	-0,293000
17,741833	0,5	-0,295900
17,750167	0,5	-0,282600
17,758500	0,5	-0,315000
17,766833	0,5	-0,375350
17,775167	0,5	-0,444300
17,783500	0,5	-0,510650
17,791833	0,5	-0,533500
17,800167	0,5	-0,560900
17,808500	0,5	-0,587600
17,816833	0,5	-0,612500
17,825167	0,5	-0,628800
17,833500	0,5	-0,649250
17,841833	0,5	-0,659250
17,850167	0,5	-0,678550
17,858500	0,5	-0,686700
17,866833	0,5	-0,703450
17,875167	0,5	-0,690900
17,883500	0,5	-0,702550
17,891833	0,5	-0,679700
17,900167	0,5	-0,644250
17,908500	0,5	-0,588200
17,916833	0,5	-0,534900
17,925167	0,5	-0,498650
17,933500	0,5	-0,461650
17,941833	0,5	-0,434250
17,950167	0,5	-0,444400
17,958500	0,5	-0,475400
17,966833	0,5	-0,515100
17,975167	0,5	-0,570250
17,983500	0,5	-0,603150
17,991833	0,5	-0,632800
18,000167	0,5	-0,646300
18,008500	0,5	-0,673450
18,016833	0,5	-0,697550
18,025167	0,5	-0,714300
18,033500	0,5	-0,734050
18,041833	0,5	-0,736300
18,050167	0,5	-0,750400
18,058500	0,5	-0,756250
18,066833	0,5	-0,768400
18,075167	0,5	-0,786200
18,083500	0,5	-0,764400
18,091833	0,5	-0,718100
18,100167	0,5	-0,668050
18,108500	0,5	-0,626600
18,116833	0,5	-0,575900
18,125167	0,5	-0,549050
18,133500	0,5	-0,545150
18,141833	0,5	-0,553000
18,150167	0,5	-0,593750
18,158500	0,5	-0,622200
18,166833	0,5	-0,664450
18,175167	0,5	-0,690250
18,183500	0,5	-0,738550
18,191833	0,5	-0,734650
18,200167	0,5	-0,753850
18,208500	0,5	-0,763100
18,216833	0,5	-0,791750
18,225167	0,5	-0,832300
18,233500	0,5	-0,823800
18,241833	0,5	-0,817100
18,250167	0,5	-0,818850
18,258500	0,5	-0,806100
18,266833	0,5	-0,784150
18,275167	0,5	-0,759000
18,283500	0,5	-0,727900
18,291833	0,5	-0,708600
18,300167	0,5	-0,690050
18,308500	0,5	-0,685100
18,316833	0,5	-0,690350
18,325167	0,5	-0,722050
18,333500	0,5	-0,758250
18,341833	0,5	-0,779400
18,350167	0,5	-0,806550
18,358500	0,5	-0,830600
18,366833	0,5	-0,860050
18,375167	0,5	-0,887200
18,383500	0,5	-0,883900
18,391833	0,5	-0,893700
18,400167	0,5	-0,896050
18,408500	0,5	-0,892250
18,416833	0,5	-0,884800
18,425167	0,5	-0,880550
18,433500	0,5	-0,862250
18,441833	0,5	-0,846700
18,450167	0,5	-0,834450
18,458500	0,5	-0,802000
18,466833	0,5	-0,784100
18,475167	0,5	-0,789350
18,483500	0,5	-0,791650
18,491833	0,5	-0,810450
18,500167	0,5	-0,845100
18,508500	0,5	-0,885500
18,516833	0,5	-0,928950
18,525167	0,5	-0,947600
18,533500	0,5	-0,966550
18,541833	0,5	-0,960650
18,550167	0,5	-0,966650
18,558500	0,5	-0,961100
18,566833	0,5	-0,974450
18,575167	0,5	-0,977450
18,583500	0,5	-0,971500
18,591833	0,5	-0,961750
18,600167	0,5	-0,935000
18,608500	0,5	-0,899450
18,616833	0,5	-0,879600
18,625167	0,5	-0,877450
18,633500	0,5	-0,871150
18,641833	0,5	-0,896550
18,650167	0,5	-0,918500
18,658500	0,5	-0,966250
18,666833	0,5	-0,984300
18,675167	0,5	-0,993900
18,683500	0,5	-0,994000
18,691833	0,5	-0,999450
18,700167	0,5	-0,992900
18,708500	0,5	-0,988900
18,716833	0,5	-0,967800
18,725167	0,5	-0,935400
18,733500	0,5	-0,902500
18,741833	0,5	-0,874550
18,750167	0,5	-0,865700
18,758500	0,5	-0,857200
18,766833	0,5	-0,887350
18,775167	0,5	-0,908800
18,783500	0,5	-0,936250
18,791833	0,5	-0,980850
18,800167	0,5	-1,025900
18,808500	0,5	-1,100550
18,816833	0,5	-1,131650
18,825167	0,5	-1,133300
18,833500	0,5	-1,146700
18,841833	0,5	-1,138800
18,850167	0,5	-1,144550
18,858500	0,5	-1,136750
18,866833	0,5	-1,133550
18,875167	0,5	-1,124350
18,883500	0,5	-1,118950
18,891833	0,5	-1,130900
18,900167	0,5	-1,134500
18,908500	0,5	-1,158200
18,916833	0,5	-1,201550
18,925167	0,5	-1,203000
18,933500	0,5	-1,221250
18,941833	0,5	-1,238400
18,950167	0,5	-1,256100
18,958500	0,5	-1,289500
18,966833	0,5	-1,267600
18,975167	0,5	-1,277250
18,983500	0,5	-1,262600
18,991833	0,5	-1,261700
19,000167	0,5	-1,247550
19,008500	0,5	-1,260050
19,016833	0,5	-1,267800
19,025167	0,5	-1,264200
19,033500	0,5	-1,267400
19,041833	0,5	-1,276050
19,050167	0,5	-1,261750
19,058500	0,5	-1,274600
19,066833	0,5	-1,278100
19,075167	0,5	-1,277400
19,083500	0,5	-1,273850
19,091833	0,5	-1,281900
19,100167	0,5	-1,311000
19,108500	0,5	-1,313200
19,116833	0,5	-1,324400
19,125167	0,5	-1,338300
19,133500	0,5	-1,361400
19,141833	0,5	-1,368750
19,150167	0,5	-1,391850
19,158500	0,5	-1,397900
19,166833	0,5	-1,413950
19,175167	0,5	-1,422500
19,183500	0,5	-1,434150
19,191833	0,5	-1,423250
19,200167	0,5	-1,419900
19,208500	0,5	-1,438650
19,216833	0,5	-1,443200
19,225167	0,5	-1,468400
19,233500	0,5	-1,475000
19,241833	0,5	-1,493850
19,250167	0,5	-1,524400
19,258500	0,5	-1,537300
19,266833	0,5	-1,519900
19,275167	0,5	-1,520750
19,283500	0,5	-1,517950
19,291833	0,5	-1,522350
19,300167	0,5	-1,531000
19,308500	0,5	-1,544350
19,316833	0,5	-1,543500
19,325167	0,5	-1,561900
19,333500	0,5	-1,581800
19,341833	0,5	-1,577900
19,350167	0,5	-1,586800
19,358500	0,5	-1,613900
19,366833	0,5	-1,605400
19,375167	0,5	-1,618050
19,383500	0,5	-1,623250
19,391833	0,5	-1,652850
19,400167	0,5	-1,677100
19,408500	0,5	-1,672100
19,416833	0,5	-1,681800
19,425167	0,5	-1,694900
19,433500	0,5	-1,713450
19,441833	0,5	-1,709200
19,450167	0,5	-1,707900
19,458500	0,5	-1,704000
19,466833	0,5	-1,702700
19,475167	0,5	-1,710200
19,483500	0,5	-1,725850
19,491833	0,5	-1,726500
19,500167	0,5	-1,752650
19,508500	0,5	-1,749050
19,516833	0,5	-1,750300
19,525167	0,5	-1,764600
19,533500	0,5	-1,796750
19,541833	0,5	-1,833000
19,550167	0,5	-1,842450
19,558500	0,5	-1,857300
19,566833	0,5	-1,856550
19,575167	0,5	-1,861850
19,583500	0,5	-1,864550
19,591833	0,5	-1,883600
19,600167	0,5	-1,893350
19,608500	0,5	-1,899900
19,616833	0,5	-1,898650
19,625167	0,5	-1,912800
19,633500	0,5	-1,905700
19,641833	0,5	-1,917800
19,650167	0,5	-1,923300
19,658500	0,5	-1,930450
19,666833	0,5	-1,930200
19,675167	0,5	-1,950900
19,683500	0,5	-1,974650
19,691833	0,5	-2,009300
19,700167	0,5	-2,018500
19,708500	0,5	-2,029700
19,716833	0,5	-2,048300
19,725167	0,5	-2,060950
19,733500	0,5	-2,074350
19,741833	0,5	-2,098650
19,750167	0,5	-2,118050
19,758500	0,5	-2,123500
19,766833	0,5	-2,149350
19,775167	0,5	-2,157900
19,783500	0,5	-2,166900
19,791833	0,5	-2,196800
19,800167	0,5	-2,215500
19,808500	0,5	-2,214050
19,816833	0,5	-2,238500
19,825167	0,5	-2,249100
19,833500	0,5	-2,289550
19,841833	0,5	-2,301550
19,850167	0,5	-2,310800
19,858500	0,5	-2,319750
19,866833	0,5	-2,325650
19,875167	0,5	-2,330450
19,883500	0,5	-2,340450
19,891833	0,5	-2,353450
19,900167	0,5	-2,351950
19,908500	0,5	-2,360100
19,916833	0,5	-2,365400
19,925167	0,5	-2,366600
19,933500	0,5	-2,360750
19,941833	0,5	-2,390600
19,950167	0,5	-2,381650
19,958500	0,5	-2,383550
19,966833	0,5	-2,391200
19,975167	0,5	-2,416850
19,983500	0,5	-2,458450
19,991833	0,5	-2,461200
20,000167	0,5	-2,468150
20,008500	0,5	-2,491750
20,016833	0,5	-2,518050
20,025167	0,5	-2,535300
20,033500	0,5	-2,554650
20,041833	0,5	-2,569050
20,050167	0,5	-2,584600
20,058500	0,5	-2,599300
20,066833	0,5	-2,625000
20,075167	0,5	-2,624500
20,083500	0,5	-2,639350
20,091833	0,5	-2,664250
20,100167	0,5	-2,673050
20,108500	0,5	-2,672100
20,116833	0,5	-2,697150
20,125167	0,5	-2,707000
20,133500	0,5	-2,749650
20,141833	0,5	-2,739250
20,150167	0,5	-2,747900
20,158500	0,5	-2,752800
20,166833	0,5	-2,754400
20,175167	0,5	-2,748550
20,183500	0,5	-2,750400
20,191833	0,5	-2,733850
20,200167	0,5	-2,731550
20,208500	0,5	-2,749450
20,216833	0,5	-2,756150
20,225167	0,5	-2,764150
20,233500	0,5	-2,786550
20,241833	0,5	-2,803550
20,250167	0,5	-2,808250
20,258500	0,5	-2,836150
20,266833	0,5	-2,862000
20,275167	0,5	-2,896950
20,283500	0,5	-2,901450
20,291833	0,5	-2,914950
20,300167	0,5	-2,920550
20,308500	0,5	-2,944000
20,316833	0,5	-2,960350
20,325167	0,5	-2,985400
20,333500	0,5	-3,007450
20,341833	0,5	-3,033100
20,350167	0,5	-3,062400
20,358500	0,5	-3,086100
20,366833	0,5	-3,105600
20,375167	0,5	-3,117600
20,383500	0,5	-3,154300
20,391833	0,5	-3,164050
20,400167	0,5	-3,196600
20,408500	0,5	-3,219050
20,416833	0,5	-3,259650
20,425167	0,5	-3,290900
20,433500	0,5	-3,303900
20,441833	0,5	-3,321000
20,450167	0,5	-3,345850
20,458500	0,5	-3,354000
20,466833	0,5	-3,379200
20,475167	0,5	-3,398050
20,483500	0,5	-3,424350
20,491833	0,5	-3,433750
20,500167	0,5	-3,437800
20,508500	0,5	-3,430500
20,516833	0,5	-3,386100
20,525167	0,5	-3,365000
20,533500	0,5	-3,363600
20,541833	0,5	-3,369250
20,550167	0,5	-3,403750
20,558500	0,5	-3,468050
20,566833	0,5	-3,539350
20,575167	0,5	-3,629550
20,583500	0,5	-3,669650
20,591833	0,5	-3,711800
20,600167	0,5	-3,747800
20,608500	0,5	-3,786300
20,616833	0,5	-3,829100
20,625167	0,5	-3,868900
20,633500	0,5	-3,897550
20,641833	0,5	-3,932400
20,650167	0,5	-3,976750
20,658500	0,5	-3,984350
20,666833	0,5	-3,992200
20,675167	0,5	-4,002800
20,683500	0,5	-4,005700
20,691833	0,5	-3,980450
20,700167	0,5	-3,964950
20,708500	0,5	-3,943650
20,716833	0,5	-3,970200
20,725167	0,5	-3,985000
20,733500	0,5	-4,052000
20,741833	0,5	-4,124950
20,750167	0,5	-4,214500
20,758500	0,5	-4,294900
20,766833	0,5	-4,377050
20,775167	0,5	-4,453450
20,783500	0,5	-4,514750
20,791833	0,5	-4,584400
20,800167	0,5	-4,630250
20,808500	0,5	-4,661750
20,816833	0,5	-4,700500
20,825167	0,5	-4,757900
20,833500	0,5	-4,808200
20,841833	0,5	-4,852900
20,850167	0,5	-4,914800
20,858500	0,5	-4,990400
20,866833	0,5	-5,024800
20,875167	0,5	-5,051250
20,883500	0,5	-5,069450
20,891833	0,5	-5,133500
20,900167	0,5	-5,174700
20,908500	0,5	-5,243950
20,916833	0,5	-5,287850
20,925167	0,5	-5,339800
20,933500	0,5	-5,389850
20,941833	0,5	-5,444950
20,950167	0,5	-5,471600
20,958500	0,5	-5,487800
20,966833	0,5	-5,529950
20,975167	0,5	-5,572000
20,983500	0,5	-5,620250
20,991833	0,5	-5,670000
21,000167	0,5	-5,739950
21,008500	0,5	-5,799450
21,016833	0,5	-5,834000
21,025167	0,5	-5,861100
21,033500	0,5	-5,906750
21,041833	0,5	-5,941400
21,050167	0,5	-5,970850
21,058500	0,5	-6,013600
21,066833	0,5	-6,045400
21,075167	0,5	-6,074800
21,083500	0,5	-6,112750
21,091833	0,5	-6,159350
21,100167	0,5	-6,174900
21,108500	0,5	-6,188100
21,116833	0,5	-6,235650
21,125167	0,5	-6,273200
21,133500	0,5	-6,317850
21,141833	0,5	-6,366800
21,150167	0,5	-6,410500
21,158500	0,5	-6,468200
21,166833	0,5	-6,488150
21,175167	0,5	-6,524150
21,183500	0,5	-6,548000
21,191833	0,5	-6,582950
21,200167	0,5	-6,598400
21,208500	0,5	-6,640250
21,216833	0,5	-6,659450
21,225167	0,5	-6,680550
21,233500	0,5	-6,707350
21,241833	0,5	-6,708500
21,250167	0,5	-6,697350
21,258500	0,5	-6,686900
21,266833	0,5	-6,710950
21,275167	0,5	-6,727450
21,283500	0,5	-6,745850
21,291833	0,5	-6,788800
21,300167	0,5	-6,851450
21,308500	0,5	-6,882350
21,316833	0,5	-6,909250
21,325167	0,5	-6,933300
21,333500	0,5	-6,965000
21,341833	0,5	-6,981700
21,350167	0,5	-7,010650
21,358500	0,5	-7,029250
21,366833	0,5	-7,058100
21,375167	0,5	-7,074400
21,383500	0,5	-7,099650
21,391833	0,5	-7,088950
21,400167	0,5	-7,078950
21,408500	0,5	-7,092800
21,416833	0,5	-7,114000
21,425167	0,5	-7,151400
21,433500	0,5	-7,179200
21,441833	0,5	-7,225300
21,450167	0,5	-7,267350
21,458500	0,5	-7,289950
21,466833	0,5	-7,296000
21,475167	0,5	-7,338950
21,483500	0,5	-7,351450
21,491833	0,5	-7,381900
21,500167	0,5	-7,394200
21,508500	0,5	-7,414850
21,516833	0,5	-7,427200
21,525167	0,5	-7,463300
21,533500	0,5	-7,475200
21,541833	0,5	-7,456350
21,550167	0,5	-7,458200
21,558500	0,5	-7,481100
21,566833	0,5	-7,514350
21,575167	0,5	-7,543400
21,583500	0,5	-7,574600
21,591833	0,5	-7,602950
21,600167	0,5	-7,626250
21,608500	0,5	-7,621500
21,616833	0,5	-7,634900
21,625167	0,5	-7,640450
21,633500	0,5	-7,656500
21,641833	0,5	-7,647450
21,650167	0,5	-7,648750
21,658500	0,5	-7,636750
21,666833	0,5	-7,661350
21,675167	0,5	-7,676300
21,683500	0,5	-7,672400
21,691833	0,5	-7,680550
21,700167	0,5	-7,700200
21,708500	0,5	-7,719100
21,716833	0,5	-7,743050
21,725167	0,5	-7,768950
21,733500	0,5	-7,820650
21,741833	0,5	-7,849600
21,750167	0,5	-7,851600
21,758500	0,5	-7,876950
21,766833	0,5	-7,880900
21,775167	0,5	-7,897300
21,783500	0,5	-7,902900
21,791833	0,5	-7,916650
21,800167	0,5	-7,911750
21,808500	0,5	-7,909750
21,816833	0,5	-7,913350
21,825167	0,5	-7,912250
21,833500	0,5	-7,880200
21,841833	0,5	-7,887600
21,850167	0,5	-7,891150
21,858500	0,5	-7,894650
21,866833	0,5	-7,905400
21,875167	0,5	-7,910400
21,883500	0,5	-7,946300
21,891833	0,5	-7,926000
21,900167	0,5	-7,905950
21,908500	0,5	-7,856000
21,916833	0,5	-7,790000
21,925167	0,5	-7,703350
21,933500	0,5	-7,655450
21,941833	0,5	-7,644350
21,950167	0,5	-7,682900
21,958500	0,5	-7,743800
21,966833	0,5	-7,815050
21,975167	0,5	-7,858600
21,983500	0,5	-7,892400
21,991833	0,5	-7,946750
22,000167	0,5	-7,992800
22,008500	0,5	-8,042000
22,016833	0,5	-8,086050
22,025167	0,5	-8,149400
22,033500	0,5	-8,207700
22,041833	0,5	-8,240400
22,050167	0,5	-8,266100
22,058500	0,5	-8,297400
22,066833	0,5	-8,322100
22,075167	0,5	-8,353400
22,083500	0,5	-8,377550
22,091833	0,5	-8,412550
22,100167	0,5	-8,433900
22,108500	0,5	-8,460600
22,116833	0,5	-8,478900
22,125167	0,5	-8,488350
22,133500	0,5	-8,528700
22,141833	0,5	-8,541100
22,150167	0,5	-8,574650
22,158500	0,5	-8,586900
22,166833	0,5	-8,621550
22,175167	0,5	-8,652100
22,183500	0,5	-8,652100
22,191833	0,5	-8,653900
22,200167	0,5	-8,678950
22,208500	0,5	-8,683900
22,216833	0,5	-8,696700
22,225167	0,5	-8,693600
22,233500	0,5	-8,718100
22,241833	0,5	-8,710850
22,250167	0,5	-8,725100
22,258500	0,5	-8,732600
22,266833	0,5	-8,727700
22,275167	0,5	-8,727650
22,283500	0,5	-8,744650
22,291833	0,5	-8,719050
22,300167	0,5	-8,712400
22,308500	0,5	-8,706500
22,316833	0,5	-8,702250
22,325167	0,5	-8,718650
22,333500	0,5	-8,661300
22,341833	0,5	-8,600650
22,350167	0,5	-8,482050
22,358500	0,5	-8,363100
22,366833	0,5	-8,261300
22,375167	0,5	-8,232450
22,383500	0,5	-8,271400
22,391833	0,5	-8,343400
22,400167	0,5	-8,418550
22,408500	0,5	-8,488000
22,416833	0,5	-8,565900
22,425167	0,5	-8,597950
22,433500	0,5	-8,614700
22,441833	0,5	-8,627200
22,450167	0,5	-8,650050
22,458500	0,5	-8,684900
22,466833	0,5	-8,709350
22,475167	0,5	-8,702600
22,483500	0,5	-8,707200
22,491833	0,5	-8,692950
22,500167	0,5	-8,692750
22,508500	0,5	-8,673350
22,516833	0,5	-8,670300
22,525167	0,5	-8,656550
22,533500	0,5	-8,633550
22,541833	0,5	-8,610700
22,550167	0,5	-8,593100
22,558500	0,5	-8,612700
22,566833	0,5	-8,602800
22,575167	0,5	-8,587200
22,583500	0,5	-8,553550
22,591833	0,5	-8,543050
22,600167	0,5	-8,540500
22,608500	0,5	-8,559300
22,616833	0,5	-8,554700
22,625167	0,5	-8,553100
22,633500	0,5	-8,524750
22,641833	0,5	-8,521300
22,650167	0,5	-8,499850
22,658500	0,5	-8,498400
22,666833	0,5	-8,477650
22,675167	0,5	-8,479050
22,683500	0,5	-8,461050
22,691833	0,5	-8,458100
22,700167	0,5	-8,464550
22,708500	0,5	-8,507750
22,716833	0,5	-8,495550
22,725167	0,5	-8,464000
22,733500	0,5	-8,446550
22,741833	0,5	-8,443650
22,750167	0,5	-8,446350
22,758500	0,5	-8,465550
22,766833	0,5	-8,482400
22,775167	0,5	-8,466700
22,783500	0,5	-8,475150
22,791833	0,5	-8,480150
22,800167	0,5	-8,505900
22,808500	0,5	-8,514450
22,816833	0,5	-8,544800
22,825167	0,5	-8,556850
22,833500	0,5	-8,586250
22,841833	0,5	-8,612350
22,850167	0,5	-8,697050
22,858500	0,5	-8,756850
22,866833	0,5	-8,765450
22,875167	0,5	-8,775950
22,883500	0,5	-8,818900
22,891833	0,5	-8,850000
22,900167	0,5	-8,891950
22,908500	0,5	-8,930900
22,916833	0,5	-8,975550
22,925167	0,5	-9,007600
22,933500	0,5	-9,036050
22,941833	0,5	-9,051750
22,950167	0,5	-9,076050
22,958500	0,5	-9,089550
22,966833	0,5	-9,103000
22,975167	0,5	-9,097400
22,983500	0,5	-9,092600
22,991833	0,5	-9,082950
23,000167	0,5	-9,083050
23,008500	0,5	-9,077850
23,016833	0,5	-9,049850
23,025167	0,5	-9,071800
23,033500	0,5	-9,062200
23,041833	0,5	-9,034050
23,050167	0,5	-8,991050
23,058500	0,5	-8,976150
23,066833	0,5	-8,935850
23,075167	0,5	-8,915400
23,083500	0,5	-8,862800
23,091833	0,5	-8,817400
23,100167	0,5	-8,747900
23,108500	0,5	-8,685850
23,116833	0,5	-8,604750
23,125167	0,5	-8,547200
23,133500	0,5	-8,457150
23,141833	0,5	-8,338950
23,150167	0,5	-8,251500
23,158500	0,5	-8,172950
23,166833	0,5	-8,133450
23,175167	0,5	-8,049300
23,183500	0,5	-7,979050
23,191833	0,5	-7,891350
23,200167	0,5	-7,790150
23,208500	0,5	-7,723050
23,216833	0,5	-7,652700
23,225167	0,5	-7,549750
23,233500	0,5	-7,460350
23,241833	0,5	-7,362550
23,250167	0,5	-7,273050
23,258500	0,5	-7,158700
23,266833	0,5	-7,074700
23,275167	0,5	-6,947250
23,283500	0,5	-6,845250
23,291833	0,5	-6,740300
23,300167	0,5	-6,616000
23,308500	0,5	-6,506150
23,316833	0,5	-6,454950
23,325167	0,5	-6,376250
23,333500	0,5	-6,278750
23,341833	0,5	-6,187200
23,350167	0,5	-6,090350
23,358500	0,5	-6,029300
23,366833	0,5	-5,954950
23,375167	0,5	-5,862200
23,383500	0,5	-5,779150
23,391833	0,5	-5,702150
23,400167	0,5	-5,612650
23,408500	0,5	-5,536750
23,416833	0,5	-5,444000
23,425167	0,5	-5,363650
23,433500	0,5	-5,259800
23,441833	0,5	-5,237550
23,450167	0,5	-5,123400
23,458500	0,5	-5,004100
23,466833	0,5	-4,950200
23,475167	0,5	-4,896350
23,483500	0,5	-4,824000
23,491833	0,5	-4,763350
23,500167	0,5	-4,697150
23,508500	0,5	-4,651400
23,516833	0,5	-4,604400
23,525167	0,5	-4,545400
23,533500	0,5	-4,501800
23,541833	0,5	-4,448050
23,550167	0,5	-4,395600
23,558500	0,5	-4,344150
23,566833	0,5	-4,289800
23,575167	0,5	-4,235350
23,583500	0,5	-4,243400
23,591833	0,5	-4,248700
23,600167	0,5	-4,153350
23,608500	0,5	-4,064500
23,616833	0,5	-4,017100
23,625167	0,5	-3,973000
23,633500	0,5	-3,930600
23,641833	0,5	-3,886700
23,650167	0,5	-3,853200
23,658500	0,5	-3,819300
23,666833	0,5	-3,787350
23,675167	0,5	-3,756900
23,683500	0,5	-3,725500
23,691833	0,5	-3,689350
23,700167	0,5	-3,653150
23,708500	0,5	-3,623300
23,716833	0,5	-3,588000
23,725167	0,5	-3,559600
23,733500	0,5	-3,703950
23,741833	0,5	-3,634700
23,750167	0,5	-3,562850
23,758500	0,5	-3,488350
23,766833	0,5	-3,451150
23,775167	0,5	-3,417700
23,783500	0,5	-3,398350
23,791833	0,5	-3,380600
23,800167	0,5	-3,357450
23,808500	0,5	-3,331150
23,816833	0,5	-3,308650
23,825167	0,5	-3,279550
23,833500	0,5	-3,254900
23,841833	0,5	-3,221300
23,850167	0,5	-3,190300
23,858500	0,5	-3,157100
23,866833	0,5	-3,124000
23,875167	0,5	-3,134250
23,883500	0,5	-3,241800
23,891833	0,5	-3,209600
23,900167	0,5	-3,120700
23,908500	0,5	-3,053750
23,916833	0,5	-3,002250
23,925167	0,5	-2,973650
23,933500	0,5	-2,954200
23,941833	0,5	-2,941350
23,950167	0,5	-2,910500
23,958500	0,5	-2,884900
23,966833	0,5	-2,860500
23,975167	0,5	-2,836750
23,983500	0,5	-2,804850
23,991833	0,5	-2,780750
24,000167	0,5	-2,758650
24,008500	0,5	-2,729000
24,016833	0,5	-2,704800
24,025167	0,5	-2,825100
24,033500	0,5	-2,836500
24,041833	0,5	-2,791650
24,050167	0,5	-2,701700
24,058500	0,5	-2,646000
24,066833	0,5	-2,609700
24,075167	0,5	-2,575100
24,083500	0,5	-2,569650
24,091833	0,5	-2,528750
24,100167	0,5	-2,505400
24,108500	0,5	-2,470650
24,116833	0,5	-2,440150
24,125167	0,5	-2,404200
24,133500	0,5	-2,379050
24,141833	0,5	-2,345650
24,150167	0,5	-2,317850
24,158500	0,5	-2,285550
24,166833	0,5	-2,268200
24,175167	0,5	-2,405000
24,183500	0,5	-2,370450
24,191833	0,5	-2,324850
24,200167	0,5	-2,261200
24,208500	0,5	-2,224700
24,216833	0,5	-2,197100
24,225167	0,5	-2,178850
24,233500	0,5	-2,175800
24,241833	0,5	-2,145100
24,250167	0,5	-2,109750
24,258500	0,5	-2,093050
24,266833	0,5	-2,063550
24,275167	0,5	-2,036050
24,283500	0,5	-2,005100
24,291833	0,5	-1,983150
24,300167	0,5	-1,947850
24,308500	0,5	-1,928700
24,316833	0,5	-1,984100
24,325167	0,5	-2,017900
24,333500	0,5	-1,981550
24,341833	0,5	-1,926550
24,350167	0,5	-1,871750
24,358500	0,5	-1,836150
24,366833	0,5	-1,813400
24,375167	0,5	-1,806950
24,383500	0,5	-1,795850
24,391833	0,5	-1,759600
24,400167	0,5	-1,744400
24,408500	0,5	-1,724350
24,416833	0,5	-1,710400
24,425167	0,5	-1,692800
24,433500	0,5	-1,675350
24,441833	0,5	-1,642950
24,450167	0,5	-1,626900
24,458500	0,5	-1,612650
24,466833	0,5	-1,696200
24,475167	0,5	-1,667550
24,483500	0,5	-1,649750
24,491833	0,5	-1,592450
24,500167	0,5	-1,566500
24,508500	0,5	-1,537300
24,516833	0,5	-1,532500
24,525167	0,5	-1,531450
24,533500	0,5	-1,505200
24,541833	0,5	-1,483800
24,550167	0,5	-1,461300
24,558500	0,5	-1,443550
24,566833	0,5	-1,418650
24,575167	0,5	-1,403400
24,583500	0,5	-1,382200
24,591833	0,5	-1,364550
24,600167	0,5	-1,341150
24,608500	0,5	-1,338900
24,616833	0,5	-1,409350
24,625167	0,5	-1,388000
24,633500	0,5	-1,354500
24,641833	0,5	-1,321600
24,650167	0,5	-1,302000
24,658500	0,5	-1,290250
24,666833	0,5	-1,283800
24,675167	0,5	-1,283100
24,683500	0,5	-1,276550
24,691833	0,5	-1,254200
24,700167	0,5	-1,243650
24,708500	0,5	-1,231250
24,716833	0,5	-1,215300
24,725167	0,5	-1,206150
24,733500	0,5	-1,190500
24,741833	0,5	-1,172350
24,750167	0,5	-1,158500
24,758500	0,5	-1,173400
24,766833	0,5	-1,185400
24,775167	0,5	-1,164300
24,783500	0,5	-1,137700
24,791833	0,5	-1,110950
24,800167	0,5	-1,098800
24,808500	0,5	-1,080700
24,816833	0,5	-1,083550
24,825167	0,5	-1,087300
24,833500	0,5	-1,081250
24,841833	0,5	-1,067750
24,850167	0,5	-1,063950
24,858500	0,5	-1,052100
24,866833	0,5	-1,045800
24,875167	0,5	-1,041300
24,883500	0,5	-1,030500
24,891833	0,5	-1,022050
24,900167	0,5	-1,008100
24,908500	0,5	-1,037200
24,916833	0,5	-1,027050
24,925167	0,5	-1,016550
24,933500	0,5	-1,000700
24,941833	0,5	-0,983000
24,950167	0,5	-0,968700
24,958500	0,5	-0,962400
24,966833	0,5	-0,955600
24,975167	0,5	-0,944000
24,983500	0,5	-0,930600
24,991833	0,5	-0,927700
25,000167	0,5	-0,918900
25,008500	0,5	-0,914450
25,016833	0,5	-0,904800
25,025167	0,5	-0,899800
25,033500	0,5	-0,896250
25,041833	0,5	-0,891700
25,050167	0,5	-0,891850
25,058500	0,5	-0,906300
25,066833	0,5	-0,904550
25,075167	0,5	-0,892250
25,083500	0,5	-0,887750
25,091833	0,5	-0,874350
25,100167	0,5	-0,873350
25,108500	0,5	-0,872500
25,116833	0,5	-0,874250
25,125167	0,5	-0,863550
25,133500	0,5	-0,855500
25,141833	0,5	-0,848000
25,150167	0,5	-0,846050
25,158500	0,5	-0,837300
25,166833	0,5	-0,826450
25,175167	0,5	-0,815150
25,183500	0,5	-0,819050
25,191833	0,5	-0,806250
25,200167	0,5	-0,806000
25,208500	0,5	-0,804650
25,216833	0,5	-0,798300
25,225167	0,5	-0,791650
25,233500	0,5	-0,793250
25,241833	0,5	-0,791850
25,250167	0,5	-0,794800
25,258500	0,5	-0,799850
25,266833	0,5	-0,797450
25,275167	0,5	-0,801200
25,283500	0,5	-0,791850
25,291833	0,5	-0,796550
25,300167	0,5	-0,789400
25,308500	0,5	-0,791850
25,316833	0,5	-0,789100
25,325167	0,5	-0,779750
25,333500	0,5	-0,771600
25,341833	0,5	-0,774150
25,350167	0,5	-0,773750
25,358500	0,5	-0,759850
25,366833	0,5	-0,751450
25,375167	0,5	-0,747900
25,383500	0,5	-0,747500
25,391833	0,5	-0,740150
25,400167	0,5	-0,737850
25,408500	0,5	-0,737550
25,416833	0,5	-0,736300
25,425167	0,5	-0,733700
25,433500	0,5	-0,735300
25,441833	0,5	-0,744600
25,450167	0,5	-0,741350
25,458500	0,5	-0,742850
25,466833	0,5	-0,738800
25,475167	0,5	-0,739750
25,483500	0,5	-0,737600
25,491833	0,5	-0,736800
25,500167	0,5	-0,727750
25,508500	0,5	-0,725750
25,516833	0,5	-0,720100
25,525167	0,5	-0,723950
25,533500	0,5	-0,724250
25,541833	0,5	-0,717050
25,550167	0,5	-0,721800
25,558500	0,5	-0,709300
25,566833	0,5	-0,708400
25,575167	0,5	-0,708550
25,583500	0,5	-0,709500
25,591833	0,5	-0,704650
25,600167	0,5	-0,707200
25,608500	0,5	-0,706800
25,616833	0,5	-0,710950
25,625167	0,5	-0,707200
25,633500	0,5	-0,712950
25,641833	0,5	-0,706850
25,650167	0,5	-0,699100
25,658500	0,5	-0,695800
25,666833	0,5	-0,698650
25,675167	0,5	-0,707100
25,683500	0,5	-0,710100
25,691833	0,5	-0,708150
25,700167	0,5	-0,706100
25,708500	0,5	-0,701100
25,716833	0,5	-0,701100
25,725167	0,5	-0,703100
25,733500	0,5	-0,703250
25,741833	0,5	-0,704000
25,750167	0,5	-0,699200
25,758500	0,5	-0,697450
25,766833	0,5	-0,692600
25,775167	0,5	-0,697050
25,783500	0,5	-0,691200
25,791833	0,5	-0,681900
25,800167	0,5	-0,674400
25,808500	0,5	-0,674750
25,816833	0,5	-0,681100
25,825167	0,5	-0,689300
25,833500	0,5	-0,682800
25,841833	0,5	-0,684400
25,850167	0,5	-0,675750
25,858500	0,5	-0,666600
25,866833	0,5	-0,664850
25,875167	0,5	-0,668950
25,883500	0,5	-0,664950
25,891833	0,5	-0,671500
25,900167	0,5	-0,664650
25,908500	0,5	-0,664350
25,916833	0,5	-0,665200
25,925167	0,5	-0,661300
25,933500	0,5	-0,658550
25,941833	0,5	-0,644500
25,950167	0,5	-0,636350
25,958500	0,5	-0,629200
25,966833	0,5	-0,637550
25,975167	0,5	-0,638450
25,983500	0,5	-0,633100
25,991833	0,5	-0,624350
26,000167	0,5	-0,611900
