File Path	chrom://chromeleon01/ikbm_chromeleon/2022/ICS-5000/ED1/Esteban/20220427_Cell_Amandas_mutants.seq/634.smp/ED_1.channel/ED_1.chm
Channel	ED_1

Injection Information:
Data Vault	ikbm_chromeleon
Injection	Std_C1ox_0,01
Injection Number	5
Position	RA1
Comment	
Processing Method	Stop sequence after Cell Death
Instrument Method	ICS5000_PA200_FullNative_Ox_26min_ED1
Type	Unknown
Status	Finished
Injection Date	27.04.2022
Injection Time	13:56:54
Injection Volume (µl)	5,0
Dilution Factor	1,0000
Weight	1,0000

Chromatogram Data Information:
Time Min. (min)	0,000167
Time Max. (min)	26,000167
Data Points	3121
Detector	EDet1
Generating Data System	Chromeleon 7.2.9.11323
Exporting Data System	Chromeleon 7.2.9.0
Operator	Instrument Controller
Signal Quantity	
Signal Unit	nC
Signal Min.	-3,299050
Signal Max.	71,043301
Channel	ED_1
Driver Name	DC-5000
Channel Type	Evaluation
Min. Step (s)	0,5
Max. Step (s)	0,5
Average Step (s)	0,5

Signal Parameter Information:
Signal Info	

Chromatogram Data:
Time (min)	Step (s)	Value (nC)
0,000167	n.a.	-0,070750
0,008500	0,5	-0,091100
0,016833	0,5	-0,080050
0,025167	0,5	-0,068550
0,033500	0,5	-0,048150
0,041833	0,5	-0,041700
0,050167	0,5	-0,030950
0,058500	0,5	-0,035700
0,066833	0,5	-0,031750
0,075167	0,5	-0,013900
0,083500	0,5	-0,049000
0,091833	0,5	-0,024100
0,100167	0,5	-0,022550
0,108500	0,5	-0,043150
0,116833	0,5	-0,053050
0,125167	0,5	-0,037150
0,133500	0,5	0,003450
0,141833	0,5	0,014750
0,150167	0,5	-0,021550
0,158500	0,5	-0,015350
0,166833	0,5	-0,016700
0,175167	0,5	-0,007750
0,183500	0,5	-0,027400
0,191833	0,5	-0,015700
0,200167	0,5	-0,027800
0,208500	0,5	-0,033250
0,216833	0,5	-0,029250
0,225167	0,5	-0,045200
0,233500	0,5	-0,065950
0,241833	0,5	-0,026250
0,250167	0,5	-0,047300
0,258500	0,5	-0,057500
0,266833	0,5	-0,067450
0,275167	0,5	-0,061350
0,283500	0,5	-0,011450
0,291833	0,5	-0,025150
0,300167	0,5	-0,021300
0,308500	0,5	-0,023050
0,316833	0,5	-0,022500
0,325167	0,5	-0,049450
0,333500	0,5	-0,048950
0,341833	0,5	-0,056100
0,350167	0,5	-0,062900
0,358500	0,5	-0,065550
0,366833	0,5	-0,061350
0,375167	0,5	-0,067500
0,383500	0,5	-0,086900
0,391833	0,5	-0,064350
0,400167	0,5	-0,085350
0,408500	0,5	-0,089200
0,416833	0,5	-0,096550
0,425167	0,5	-0,088200
0,433500	0,5	-0,041500
0,441833	0,5	-0,045500
0,450167	0,5	-0,072050
0,458500	0,5	-0,072350
0,466833	0,5	-0,080300
0,475167	0,5	-0,079100
0,483500	0,5	-0,086000
0,491833	0,5	-0,077500
0,500167	0,5	-0,094400
0,508500	0,5	-0,084600
0,516833	0,5	-0,094950
0,525167	0,5	-0,112100
0,533500	0,5	-0,118450
0,541833	0,5	-0,088450
0,550167	0,5	-0,127300
0,558500	0,5	-0,125600
0,566833	0,5	-0,126850
0,575167	0,5	-0,099600
0,583500	0,5	-0,071350
0,591833	0,5	-0,083800
0,600167	0,5	-0,090250
0,608500	0,5	-0,088750
0,616833	0,5	-0,095100
0,625167	0,5	-0,108000
0,633500	0,5	-0,100500
0,641833	0,5	-0,111300
0,650167	0,5	-0,115500
0,658500	0,5	-0,121150
0,666833	0,5	-0,131400
0,675167	0,5	-0,162000
0,683500	0,5	-0,146650
0,691833	0,5	-0,143550
0,700167	0,5	-0,165450
0,708500	0,5	-0,165450
0,716833	0,5	-0,155350
0,725167	0,5	-0,128100
0,733500	0,5	-0,091600
0,741833	0,5	-0,104800
0,750167	0,5	-0,121250
0,758500	0,5	-0,130250
0,766833	0,5	-0,134250
0,775167	0,5	-0,136900
0,783500	0,5	-0,136400
0,791833	0,5	-0,147950
0,800167	0,5	-0,154650
0,808500	0,5	-0,143400
0,816833	0,5	-0,172100
0,825167	0,5	-0,177100
0,833500	0,5	-0,152350
0,841833	0,5	-0,170800
0,850167	0,5	-0,193850
0,858500	0,5	-0,181050
0,866833	0,5	-0,179100
0,875167	0,5	-0,143050
0,883500	0,5	-0,144050
0,891833	0,5	-0,146950
0,900167	0,5	-0,155950
0,908500	0,5	-0,154700
0,916833	0,5	-0,170400
0,925167	0,5	-0,166250
0,933500	0,5	-0,171150
0,941833	0,5	-0,179100
0,950167	0,5	-0,181550
0,958500	0,5	-0,188450
0,966833	0,5	-0,202350
0,975167	0,5	-0,200400
0,983500	0,5	-0,177800
0,991833	0,5	-0,200350
1,000167	0,5	-0,215300
1,008500	0,5	-0,213200
1,016833	0,5	-0,193950
1,025167	0,5	-0,176700
1,033500	0,5	-0,172050
1,041833	0,5	-0,193350
1,050167	0,5	-0,179050
1,058500	0,5	-0,199350
1,066833	0,5	-0,192500
1,075167	0,5	-0,207100
1,083500	0,5	-0,208150
1,091833	0,5	-0,215200
1,100167	0,5	-0,212800
1,108500	0,5	-0,206200
1,116833	0,5	-0,225250
1,125167	0,5	-0,209000
1,133500	0,5	-0,210350
1,141833	0,5	-0,226100
1,150167	0,5	-0,238000
1,158500	0,5	-0,233700
1,166833	0,5	-0,202550
1,175167	0,5	-0,186300
1,183500	0,5	-0,217000
1,191833	0,5	-0,213500
1,200167	0,5	-0,219500
1,208500	0,5	-0,216800
1,216833	0,5	-0,227000
1,225167	0,5	-0,216450
1,233500	0,5	-0,230450
1,241833	0,5	-0,227950
1,250167	0,5	-0,229550
1,258500	0,5	-0,229650
1,266833	0,5	-0,254000
1,275167	0,5	-0,218800
1,283500	0,5	-0,243800
1,291833	0,5	-0,250750
1,300167	0,5	-0,260950
1,308500	0,5	-0,246500
1,316833	0,5	-0,210900
1,325167	0,5	-0,221550
1,333500	0,5	-0,221600
1,341833	0,5	-0,223000
1,350167	0,5	-0,219900
1,358500	0,5	-0,233550
1,366833	0,5	-0,231250
1,375167	0,5	-0,239550
1,383500	0,5	-0,238250
1,391833	0,5	-0,246000
1,400167	0,5	-0,237100
1,408500	0,5	-0,257000
1,416833	0,5	-0,266300
1,425167	0,5	-0,255150
1,433500	0,5	-0,258400
1,441833	0,5	-0,267850
1,450167	0,5	-0,264750
1,458500	0,5	-0,244950
1,466833	0,5	-0,204700
1,475167	0,5	-0,214600
1,483500	0,5	-0,231200
1,491833	0,5	-0,230400
1,500167	0,5	-0,233400
1,508500	0,5	-0,235100
1,516833	0,5	-0,237150
1,525167	0,5	-0,238350
1,533500	0,5	-0,241300
1,541833	0,5	-0,232050
1,550167	0,5	-0,239500
1,558500	0,5	-0,252500
1,566833	0,5	-0,307650
1,575167	0,5	-0,494050
1,583500	0,5	-1,138450
1,591833	0,5	-2,253050
1,600167	0,5	-3,129100
1,608500	0,5	-2,777650
1,616833	0,5	-1,180900
1,625167	0,5	0,374800
1,633500	0,5	1,541750
1,641833	0,5	2,727950
1,650167	0,5	3,782700
1,658500	0,5	4,176050
1,666833	0,5	3,792800
1,675167	0,5	3,096750
1,683500	0,5	2,482850
1,691833	0,5	2,019900
1,700167	0,5	1,665150
1,708500	0,5	1,382550
1,716833	0,5	1,238650
1,725167	0,5	1,186000
1,733500	0,5	1,330050
1,741833	0,5	1,597250
1,750167	0,5	1,753300
1,758500	0,5	1,636150
1,766833	0,5	1,339650
1,775167	0,5	1,023250
1,783500	0,5	0,821550
1,791833	0,5	0,720400
1,800167	0,5	0,724100
1,808500	0,5	0,769500
1,816833	0,5	0,829050
1,825167	0,5	0,845150
1,833500	0,5	0,855700
1,841833	0,5	0,858700
1,850167	0,5	0,822750
1,858500	0,5	0,807600
1,866833	0,5	0,790700
1,875167	0,5	0,721400
1,883500	0,5	0,645750
1,891833	0,5	0,595950
1,900167	0,5	0,550800
1,908500	0,5	0,546450
1,916833	0,5	0,493800
1,925167	0,5	0,482550
1,933500	0,5	0,498500
1,941833	0,5	0,547200
1,950167	0,5	0,575400
1,958500	0,5	0,630450
1,966833	0,5	0,668500
1,975167	0,5	0,705250
1,983500	0,5	0,696650
1,991833	0,5	0,655700
2,000167	0,5	0,604150
2,008500	0,5	0,608350
2,016833	0,5	0,666700
2,025167	0,5	0,758250
2,033500	0,5	1,017650
2,041833	0,5	1,623050
2,050167	0,5	2,869650
2,058500	0,5	5,190150
2,066833	0,5	9,543000
2,075167	0,5	17,370950
2,083500	0,5	27,176150
2,091833	0,5	32,935650
2,100167	0,5	31,245150
2,108500	0,5	25,109150
2,116833	0,5	18,872300
2,125167	0,5	14,282800
2,133500	0,5	11,287900
2,141833	0,5	9,341650
2,150167	0,5	8,060400
2,158500	0,5	7,213400
2,166833	0,5	6,581650
2,175167	0,5	6,097900
2,183500	0,5	5,734900
2,191833	0,5	5,485150
2,200167	0,5	5,347750
2,208500	0,5	5,251850
2,216833	0,5	5,196950
2,225167	0,5	5,195500
2,233500	0,5	5,225300
2,241833	0,5	5,260900
2,250167	0,5	5,309100
2,258500	0,5	5,409100
2,266833	0,5	5,502850
2,275167	0,5	5,596650
2,283500	0,5	5,669950
2,291833	0,5	5,743150
2,300167	0,5	5,809550
2,308500	0,5	5,948900
2,316833	0,5	6,040450
2,325167	0,5	6,157650
2,333500	0,5	6,275950
2,341833	0,5	6,426600
2,350167	0,5	6,586900
2,358500	0,5	6,714300
2,366833	0,5	6,831550
2,375167	0,5	6,962950
2,383500	0,5	7,099650
2,391833	0,5	7,225850
2,400167	0,5	7,352350
2,408500	0,5	7,479600
2,416833	0,5	7,601500
2,425167	0,5	7,714750
2,433500	0,5	7,845250
2,441833	0,5	7,929250
2,450167	0,5	8,027250
2,458500	0,5	8,147000
2,466833	0,5	8,232250
2,475167	0,5	8,329950
2,483500	0,5	8,431700
2,491833	0,5	8,545950
2,500167	0,5	8,694900
2,508500	0,5	8,785000
2,516833	0,5	8,869550
2,525167	0,5	8,933700
2,533500	0,5	8,991100
2,541833	0,5	9,012150
2,550167	0,5	9,011850
2,558500	0,5	9,014300
2,566833	0,5	9,017650
2,575167	0,5	9,040900
2,583500	0,5	9,051050
2,591833	0,5	9,064700
2,600167	0,5	9,080550
2,608500	0,5	9,078300
2,616833	0,5	9,032950
2,625167	0,5	9,001750
2,633500	0,5	8,958300
2,641833	0,5	8,949650
2,650167	0,5	8,910500
2,658500	0,5	8,856250
2,666833	0,5	8,785450
2,675167	0,5	8,736750
2,683500	0,5	8,660000
2,691833	0,5	8,597850
2,700167	0,5	8,521900
2,708500	0,5	8,438600
2,716833	0,5	8,348600
2,725167	0,5	8,262550
2,733500	0,5	8,169850
2,741833	0,5	8,075150
2,750167	0,5	8,003100
2,758500	0,5	7,893350
2,766833	0,5	7,780950
2,775167	0,5	7,677200
2,783500	0,5	7,592150
2,791833	0,5	7,525700
2,800167	0,5	7,450200
2,808500	0,5	7,355000
2,816833	0,5	7,285350
2,825167	0,5	7,210300
2,833500	0,5	7,163000
2,841833	0,5	7,133850
2,850167	0,5	7,153000
2,858500	0,5	7,239300
2,866833	0,5	7,471350
2,875167	0,5	7,830700
2,883500	0,5	8,238350
2,891833	0,5	8,585550
2,900167	0,5	8,743300
2,908500	0,5	8,586500
2,916833	0,5	8,247650
2,925167	0,5	7,878200
2,933500	0,5	7,624250
2,941833	0,5	7,611100
2,950167	0,5	7,836700
2,958500	0,5	8,392150
2,966833	0,5	9,160250
2,975167	0,5	9,922600
2,983500	0,5	10,350300
2,991833	0,5	10,265350
3,000167	0,5	9,659150
3,008500	0,5	8,754700
3,016833	0,5	7,794900
3,025167	0,5	6,937900
3,033500	0,5	6,230950
3,041833	0,5	5,708250
3,050167	0,5	5,285250
3,058500	0,5	4,923950
3,066833	0,5	4,620600
3,075167	0,5	4,375800
3,083500	0,5	4,184100
3,091833	0,5	3,999850
3,100167	0,5	3,813600
3,108500	0,5	3,642750
3,116833	0,5	3,503800
3,125167	0,5	3,360100
3,133500	0,5	3,231450
3,141833	0,5	3,122700
3,150167	0,5	3,019850
3,158500	0,5	2,909650
3,166833	0,5	2,820900
3,175167	0,5	2,709900
3,183500	0,5	2,588150
3,191833	0,5	2,498850
3,200167	0,5	2,386700
3,208500	0,5	2,276700
3,216833	0,5	2,179750
3,225167	0,5	2,103550
3,233500	0,5	2,051550
3,241833	0,5	1,988450
3,250167	0,5	1,904300
3,258500	0,5	1,827100
3,266833	0,5	1,769150
3,275167	0,5	1,701400
3,283500	0,5	1,628650
3,291833	0,5	1,565950
3,300167	0,5	1,486750
3,308500	0,5	1,425550
3,316833	0,5	1,349850
3,325167	0,5	1,302150
3,333500	0,5	1,223700
3,341833	0,5	1,210150
3,350167	0,5	1,141700
3,358500	0,5	1,097600
3,366833	0,5	1,048050
3,375167	0,5	1,011550
3,383500	0,5	1,004350
3,391833	0,5	0,948900
3,400167	0,5	0,904550
3,408500	0,5	0,863750
3,416833	0,5	0,821600
3,425167	0,5	0,787750
3,433500	0,5	0,736200
3,441833	0,5	0,710500
3,450167	0,5	0,664400
3,458500	0,5	0,643750
3,466833	0,5	0,611650
3,475167	0,5	0,564100
3,483500	0,5	0,529100
3,491833	0,5	0,511150
3,500167	0,5	0,470500
3,508500	0,5	0,440850
3,516833	0,5	0,422600
3,525167	0,5	0,411250
3,533500	0,5	0,422450
3,541833	0,5	0,381700
3,550167	0,5	0,385000
3,558500	0,5	0,345250
3,566833	0,5	0,331850
3,575167	0,5	0,304100
3,583500	0,5	0,293500
3,591833	0,5	0,280800
3,600167	0,5	0,265700
3,608500	0,5	0,273100
3,616833	0,5	0,261350
3,625167	0,5	0,276100
3,633500	0,5	0,293150
3,641833	0,5	0,302150
3,650167	0,5	0,297150
3,658500	0,5	0,293400
3,666833	0,5	0,285950
3,675167	0,5	0,292150
3,683500	0,5	0,282500
3,691833	0,5	0,255550
3,700167	0,5	0,224550
3,708500	0,5	0,207050
3,716833	0,5	0,175900
3,725167	0,5	0,161950
3,733500	0,5	0,144350
3,741833	0,5	0,134850
3,750167	0,5	0,117450
3,758500	0,5	0,117300
3,766833	0,5	0,090800
3,775167	0,5	0,085950
3,783500	0,5	0,084550
3,791833	0,5	0,068750
3,800167	0,5	0,041850
3,808500	0,5	0,034950
3,816833	0,5	0,035250
3,825167	0,5	0,048700
3,833500	0,5	0,058750
3,841833	0,5	0,033500
3,850167	0,5	0,045450
3,858500	0,5	0,033450
3,866833	0,5	0,033950
3,875167	0,5	0,025250
3,883500	0,5	0,037750
3,891833	0,5	0,034450
3,900167	0,5	0,052050
3,908500	0,5	0,082350
3,916833	0,5	0,104650
3,925167	0,5	0,154000
3,933500	0,5	0,224400
3,941833	0,5	0,272100
3,950167	0,5	0,326850
3,958500	0,5	0,379650
3,966833	0,5	0,411700
3,975167	0,5	0,426750
3,983500	0,5	0,377250
3,991833	0,5	0,330950
4,000167	0,5	0,276550
4,008500	0,5	0,222800
4,016833	0,5	0,167450
4,025167	0,5	0,132850
4,033500	0,5	0,102150
4,041833	0,5	0,074000
4,050167	0,5	0,054350
4,058500	0,5	0,047250
4,066833	0,5	0,015200
4,075167	0,5	0,031850
4,083500	0,5	0,023550
4,091833	0,5	0,010000
4,100167	0,5	-0,001000
4,108500	0,5	0,010750
4,116833	0,5	0,034000
4,125167	0,5	0,062050
4,133500	0,5	0,058350
4,141833	0,5	0,072750
4,150167	0,5	0,096300
4,158500	0,5	0,128550
4,166833	0,5	0,149000
4,175167	0,5	0,160500
4,183500	0,5	0,161200
4,191833	0,5	0,151400
4,200167	0,5	0,154950
4,208500	0,5	0,127100
4,216833	0,5	0,094900
4,225167	0,5	0,089000
4,233500	0,5	0,057850
4,241833	0,5	0,024800
4,250167	0,5	0,007650
4,258500	0,5	0,002700
4,266833	0,5	0,034550
4,275167	0,5	0,017100
4,283500	0,5	0,000850
4,291833	0,5	-0,012500
4,300167	0,5	-0,011800
4,308500	0,5	-0,029250
4,316833	0,5	-0,021700
4,325167	0,5	-0,029550
4,333500	0,5	-0,030650
4,341833	0,5	-0,036100
4,350167	0,5	-0,034100
4,358500	0,5	-0,020700
4,366833	0,5	-0,037950
4,375167	0,5	-0,010800
4,383500	0,5	-0,047150
4,391833	0,5	-0,041850
4,400167	0,5	-0,049800
4,408500	0,5	-0,023700
4,416833	0,5	-0,004700
4,425167	0,5	0,001400
4,433500	0,5	-0,009700
4,441833	0,5	-0,000600
4,450167	0,5	0,002500
4,458500	0,5	0,006150
4,466833	0,5	0,022800
4,475167	0,5	0,024950
4,483500	0,5	0,033500
4,491833	0,5	0,045850
4,500167	0,5	0,071750
4,508500	0,5	0,085450
4,516833	0,5	0,113250
4,525167	0,5	0,139850
4,533500	0,5	0,134200
4,541833	0,5	0,144650
4,550167	0,5	0,149600
4,558500	0,5	0,173200
4,566833	0,5	0,195200
4,575167	0,5	0,188050
4,583500	0,5	0,178200
4,591833	0,5	0,179300
4,600167	0,5	0,180550
4,608500	0,5	0,187350
4,616833	0,5	0,209350
4,625167	0,5	0,219600
4,633500	0,5	0,252250
4,641833	0,5	0,285150
4,650167	0,5	0,323300
4,658500	0,5	0,363100
4,666833	0,5	0,466350
4,675167	0,5	0,553700
4,683500	0,5	0,674600
4,691833	0,5	0,843750
4,700167	0,5	1,061250
4,708500	0,5	1,340000
4,716833	0,5	1,647600
4,725167	0,5	1,983950
4,733500	0,5	2,330800
4,741833	0,5	2,696700
4,750167	0,5	3,007300
4,758500	0,5	3,282100
4,766833	0,5	3,457200
4,775167	0,5	3,542050
4,783500	0,5	3,497550
4,791833	0,5	3,371100
4,800167	0,5	3,136650
4,808500	0,5	2,852700
4,816833	0,5	2,559950
4,825167	0,5	2,221200
4,833500	0,5	1,909650
4,841833	0,5	1,640350
4,850167	0,5	1,430800
4,858500	0,5	1,271850
4,866833	0,5	1,131450
4,875167	0,5	1,025750
4,883500	0,5	0,953150
4,891833	0,5	0,907150
4,900167	0,5	0,882150
4,908500	0,5	0,877350
4,916833	0,5	0,894000
4,925167	0,5	0,934550
4,933500	0,5	1,007300
4,941833	0,5	1,120000
4,950167	0,5	1,266700
4,958500	0,5	1,473850
4,966833	0,5	1,752350
4,975167	0,5	2,075300
4,983500	0,5	2,460650
4,991833	0,5	2,883200
5,000167	0,5	3,348650
5,008500	0,5	3,777450
5,016833	0,5	4,123550
5,025167	0,5	4,370350
5,033500	0,5	4,509200
5,041833	0,5	4,502200
5,050167	0,5	4,360500
5,058500	0,5	4,108350
5,066833	0,5	3,768150
5,075167	0,5	3,381800
5,083500	0,5	2,980550
5,091833	0,5	2,598200
5,100167	0,5	2,216750
5,108500	0,5	1,929150
5,116833	0,5	1,651250
5,125167	0,5	1,432950
5,133500	0,5	1,237700
5,141833	0,5	1,108100
5,150167	0,5	1,008900
5,158500	0,5	0,929350
5,166833	0,5	0,837500
5,175167	0,5	0,787450
5,183500	0,5	0,746650
5,191833	0,5	0,706700
5,200167	0,5	0,674250
5,208500	0,5	0,644700
5,216833	0,5	0,622000
5,225167	0,5	0,597200
5,233500	0,5	0,597800
5,241833	0,5	0,568300
5,250167	0,5	0,552350
5,258500	0,5	0,556950
5,266833	0,5	0,540500
5,275167	0,5	0,526200
5,283500	0,5	0,531350
5,291833	0,5	0,536450
5,300167	0,5	0,564750
5,308500	0,5	0,556500
5,316833	0,5	0,547800
5,325167	0,5	0,543900
5,333500	0,5	0,541550
5,341833	0,5	0,536650
5,350167	0,5	0,537700
5,358500	0,5	0,537400
5,366833	0,5	0,536900
5,375167	0,5	0,531800
5,383500	0,5	0,537450
5,391833	0,5	0,527750
5,400167	0,5	0,523450
5,408500	0,5	0,531400
5,416833	0,5	0,512600
5,425167	0,5	0,504050
5,433500	0,5	0,500500
5,441833	0,5	0,512750
5,450167	0,5	0,532750
5,458500	0,5	0,528550
5,466833	0,5	0,520650
5,475167	0,5	0,521900
5,483500	0,5	0,518100
5,491833	0,5	0,519100
5,500167	0,5	0,510150
5,508500	0,5	0,512900
5,516833	0,5	0,504250
5,525167	0,5	0,507050
5,533500	0,5	0,503950
5,541833	0,5	0,509150
5,550167	0,5	0,506950
5,558500	0,5	0,518550
5,566833	0,5	0,497950
5,575167	0,5	0,501700
5,583500	0,5	0,498500
5,591833	0,5	0,523650
5,600167	0,5	0,547850
5,608500	0,5	0,535950
5,616833	0,5	0,540500
5,625167	0,5	0,527500
5,633500	0,5	0,532400
5,641833	0,5	0,521450
5,650167	0,5	0,525950
5,658500	0,5	0,512500
5,666833	0,5	0,513150
5,675167	0,5	0,506750
5,683500	0,5	0,504450
5,691833	0,5	0,492800
5,700167	0,5	0,512300
5,708500	0,5	0,496900
5,716833	0,5	0,483750
5,725167	0,5	0,483250
5,733500	0,5	0,489350
5,741833	0,5	0,513150
5,750167	0,5	0,508500
5,758500	0,5	0,503600
5,766833	0,5	0,497550
5,775167	0,5	0,508450
5,783500	0,5	0,491200
5,791833	0,5	0,500900
5,800167	0,5	0,499600
5,808500	0,5	0,498050
5,816833	0,5	0,492250
5,825167	0,5	0,500550
5,833500	0,5	0,491500
5,841833	0,5	0,499700
5,850167	0,5	0,513050
5,858500	0,5	0,499700
5,866833	0,5	0,489300
5,875167	0,5	0,483550
5,883500	0,5	0,483550
5,891833	0,5	0,499400
5,900167	0,5	0,499100
5,908500	0,5	0,483900
5,916833	0,5	0,478950
5,925167	0,5	0,474700
5,933500	0,5	0,467300
5,941833	0,5	0,463200
5,950167	0,5	0,460250
5,958500	0,5	0,450850
5,966833	0,5	0,452700
5,975167	0,5	0,453150
5,983500	0,5	0,446550
5,991833	0,5	0,453900
6,000167	0,5	0,448650
6,008500	0,5	0,433000
6,016833	0,5	0,422500
6,025167	0,5	0,423900
6,033500	0,5	0,439350
6,041833	0,5	0,453000
6,050167	0,5	0,442300
6,058500	0,5	0,437500
6,066833	0,5	0,439300
6,075167	0,5	0,428600
6,083500	0,5	0,429700
6,091833	0,5	0,424200
6,100167	0,5	0,425750
6,108500	0,5	0,418250
6,116833	0,5	0,421750
6,125167	0,5	0,425850
6,133500	0,5	0,413200
6,141833	0,5	0,427850
6,150167	0,5	0,412300
6,158500	0,5	0,408700
6,166833	0,5	0,400700
6,175167	0,5	0,413750
6,183500	0,5	0,431100
6,191833	0,5	0,440050
6,200167	0,5	0,424950
6,208500	0,5	0,440000
6,216833	0,5	0,428800
6,225167	0,5	0,435900
6,233500	0,5	0,425700
6,241833	0,5	0,437050
6,250167	0,5	0,422050
6,258500	0,5	0,428900
6,266833	0,5	0,430200
6,275167	0,5	0,430000
6,283500	0,5	0,425000
6,291833	0,5	0,439450
6,300167	0,5	0,429500
6,308500	0,5	0,425200
6,316833	0,5	0,425900
6,325167	0,5	0,435000
6,333500	0,5	0,464500
6,341833	0,5	0,451950
6,350167	0,5	0,459150
6,358500	0,5	0,443450
6,366833	0,5	0,456200
6,375167	0,5	0,446200
6,383500	0,5	0,455200
6,391833	0,5	0,446550
6,400167	0,5	0,449000
6,408500	0,5	0,457200
6,416833	0,5	0,459400
6,425167	0,5	0,459850
6,433500	0,5	0,461400
6,441833	0,5	0,467500
6,450167	0,5	0,453650
6,458500	0,5	0,459500
6,466833	0,5	0,458200
6,475167	0,5	0,483250
6,483500	0,5	0,497500
6,491833	0,5	0,507450
6,500167	0,5	0,494550
6,508500	0,5	0,518000
6,516833	0,5	0,516100
6,525167	0,5	0,523100
6,533500	0,5	0,525750
6,541833	0,5	0,527700
6,550167	0,5	0,527750
6,558500	0,5	0,534100
6,566833	0,5	0,547050
6,575167	0,5	0,551550
6,583500	0,5	0,571800
6,591833	0,5	0,570150
6,600167	0,5	0,564550
6,608500	0,5	0,574650
6,616833	0,5	0,584250
6,625167	0,5	0,616450
6,633500	0,5	0,637950
6,641833	0,5	0,638300
6,650167	0,5	0,645350
6,658500	0,5	0,654750
6,666833	0,5	0,663950
6,675167	0,5	0,667200
6,683500	0,5	0,677350
6,691833	0,5	0,685050
6,700167	0,5	0,696450
6,708500	0,5	0,707350
6,716833	0,5	0,713300
6,725167	0,5	0,722250
6,733500	0,5	0,748150
6,741833	0,5	0,739450
6,750167	0,5	0,746500
6,758500	0,5	0,754350
6,766833	0,5	0,779150
6,775167	0,5	0,802800
6,783500	0,5	0,817450
6,791833	0,5	0,817500
6,800167	0,5	0,839000
6,808500	0,5	0,843550
6,816833	0,5	0,863850
6,825167	0,5	0,868800
6,833500	0,5	0,875100
6,841833	0,5	0,880450
6,850167	0,5	0,898700
6,858500	0,5	0,911750
6,866833	0,5	0,908400
6,875167	0,5	0,931650
6,883500	0,5	0,948600
6,891833	0,5	0,963500
6,900167	0,5	0,964150
6,908500	0,5	0,988450
6,916833	0,5	1,013550
6,925167	0,5	1,050500
6,933500	0,5	1,046200
6,941833	0,5	1,064700
6,950167	0,5	1,071300
6,958500	0,5	1,086200
6,966833	0,5	1,090600
6,975167	0,5	1,106650
6,983500	0,5	1,112700
6,991833	0,5	1,122100
7,000167	0,5	1,136100
7,008500	0,5	1,141550
7,016833	0,5	1,147700
7,025167	0,5	1,165850
7,033500	0,5	1,173550
7,041833	0,5	1,161750
7,050167	0,5	1,178450
7,058500	0,5	1,181400
7,066833	0,5	1,222350
7,075167	0,5	1,226400
7,083500	0,5	1,236000
7,091833	0,5	1,241200
7,100167	0,5	1,254650
7,108500	0,5	1,256150
7,116833	0,5	1,264600
7,125167	0,5	1,275000
7,133500	0,5	1,276950
7,141833	0,5	1,285700
7,150167	0,5	1,285500
7,158500	0,5	1,293000
7,166833	0,5	1,281900
7,175167	0,5	1,305550
7,183500	0,5	1,301400
7,191833	0,5	1,309350
7,200167	0,5	1,312400
7,208500	0,5	1,328650
7,216833	0,5	1,354800
7,225167	0,5	1,370150
7,233500	0,5	1,370100
7,241833	0,5	1,375350
7,250167	0,5	1,381950
7,258500	0,5	1,386000
7,266833	0,5	1,393100
7,275167	0,5	1,394950
7,283500	0,5	1,395200
7,291833	0,5	1,401500
7,300167	0,5	1,413350
7,308500	0,5	1,401950
7,316833	0,5	1,407000
7,325167	0,5	1,425900
7,333500	0,5	1,424750
7,341833	0,5	1,431500
7,350167	0,5	1,434850
7,358500	0,5	1,450950
7,366833	0,5	1,476400
7,375167	0,5	1,492750
7,383500	0,5	1,490850
7,391833	0,5	1,500150
7,400167	0,5	1,503400
7,408500	0,5	1,514450
7,416833	0,5	1,523950
7,425167	0,5	1,543550
7,433500	0,5	1,564500
7,441833	0,5	1,584250
7,450167	0,5	1,602550
7,458500	0,5	1,616600
7,466833	0,5	1,653600
7,475167	0,5	1,695950
7,483500	0,5	1,740700
7,491833	0,5	1,808350
7,500167	0,5	1,911100
7,508500	0,5	2,048650
7,516833	0,5	2,233800
7,525167	0,5	2,441600
7,533500	0,5	2,709450
7,541833	0,5	3,006250
7,550167	0,5	3,320350
7,558500	0,5	3,621450
7,566833	0,5	3,871500
7,575167	0,5	4,030800
7,583500	0,5	4,067700
7,591833	0,5	3,991900
7,600167	0,5	3,789000
7,608500	0,5	3,547600
7,616833	0,5	3,307250
7,625167	0,5	3,099050
7,633500	0,5	2,936100
7,641833	0,5	2,860900
7,650167	0,5	2,846650
7,658500	0,5	2,943550
7,666833	0,5	3,113400
7,675167	0,5	3,406050
7,683500	0,5	3,876800
7,691833	0,5	4,555450
7,700167	0,5	5,421700
7,708500	0,5	6,364600
7,716833	0,5	7,222650
7,725167	0,5	7,762200
7,733500	0,5	7,878800
7,741833	0,5	7,527350
7,750167	0,5	6,807150
7,758500	0,5	5,899050
7,766833	0,5	5,011400
7,775167	0,5	4,211200
7,783500	0,5	3,590100
7,791833	0,5	3,130950
7,800167	0,5	2,811750
7,808500	0,5	2,591650
7,816833	0,5	2,411550
7,825167	0,5	2,274600
7,833500	0,5	2,172800
7,841833	0,5	2,098300
7,850167	0,5	2,031250
7,858500	0,5	1,986600
7,866833	0,5	1,937150
7,875167	0,5	1,905000
7,883500	0,5	1,869500
7,891833	0,5	1,847450
7,900167	0,5	1,809250
7,908500	0,5	1,793400
7,916833	0,5	1,781150
7,925167	0,5	1,761850
7,933500	0,5	1,742850
7,941833	0,5	1,738100
7,950167	0,5	1,743950
7,958500	0,5	1,739500
7,966833	0,5	1,730950
7,975167	0,5	1,717600
7,983500	0,5	1,713400
7,991833	0,5	1,702100
8,000167	0,5	1,702800
8,008500	0,5	1,688050
8,016833	0,5	1,686550
8,025167	0,5	1,681950
8,033500	0,5	1,685750
8,041833	0,5	1,691050
8,050167	0,5	1,686900
8,058500	0,5	1,706450
8,066833	0,5	1,721750
8,075167	0,5	1,755150
8,083500	0,5	1,795650
8,091833	0,5	1,883250
8,100167	0,5	2,006750
8,108500	0,5	2,163400
8,116833	0,5	2,363200
8,125167	0,5	2,598650
8,133500	0,5	2,883150
8,141833	0,5	3,186400
8,150167	0,5	3,524050
8,158500	0,5	3,900000
8,166833	0,5	4,359000
8,175167	0,5	4,995600
8,183500	0,5	5,977850
8,191833	0,5	7,575250
8,200167	0,5	10,129150
8,208500	0,5	13,960200
8,216833	0,5	19,040000
8,225167	0,5	24,816050
8,233500	0,5	30,178650
8,241833	0,5	33,857251
8,250167	0,5	34,963651
8,258500	0,5	33,261400
8,266833	0,5	29,321900
8,275167	0,5	24,250050
8,283500	0,5	19,103900
8,291833	0,5	14,627250
8,300167	0,5	11,144300
8,308500	0,5	11,134200
8,316833	0,5	6,740500
8,325167	0,5	5,527800
8,333500	0,5	4,666750
8,341833	0,5	4,067400
8,350167	0,5	3,630250
8,358500	0,5	3,319400
8,366833	0,5	3,067300
8,375167	0,5	2,878350
8,383500	0,5	2,730900
8,391833	0,5	2,623700
8,400167	0,5	2,538100
8,408500	0,5	2,457200
8,416833	0,5	2,383450
8,425167	0,5	2,318250
8,433500	0,5	2,259150
8,441833	0,5	2,207150
8,450167	0,5	2,164500
8,458500	0,5	2,125500
8,466833	0,5	2,088700
8,475167	0,5	2,056400
8,483500	0,5	2,025500
8,491833	0,5	1,990250
8,500167	0,5	1,968500
8,508500	0,5	1,939450
8,516833	0,5	1,909150
8,525167	0,5	1,884900
8,533500	0,5	1,864400
8,541833	0,5	1,854850
8,550167	0,5	1,846900
8,558500	0,5	1,829700
8,566833	0,5	1,818950
8,575167	0,5	1,797650
8,583500	0,5	1,786150
8,591833	0,5	1,771850
8,600167	0,5	1,761100
8,608500	0,5	1,750900
8,616833	0,5	1,744850
8,625167	0,5	1,739800
8,633500	0,5	1,735850
8,641833	0,5	1,738150
8,650167	0,5	1,739900
8,658500	0,5	1,745200
8,666833	0,5	1,746150
8,675167	0,5	1,756950
8,683500	0,5	1,771100
8,691833	0,5	1,803550
8,700167	0,5	1,829700
8,708500	0,5	1,879650
8,716833	0,5	1,950450
8,725167	0,5	2,048150
8,733500	0,5	2,153950
8,741833	0,5	2,281200
8,750167	0,5	2,432650
8,758500	0,5	2,631800
8,766833	0,5	2,903450
8,775167	0,5	3,185500
8,783500	0,5	3,422700
8,791833	0,5	3,526150
8,800167	0,5	3,490900
8,808500	0,5	3,366400
8,816833	0,5	3,278700
8,825167	0,5	3,361150
8,833500	0,5	3,746700
8,841833	0,5	4,502000
8,850167	0,5	5,572300
8,858500	0,5	6,709350
8,866833	0,5	7,522700
8,875167	0,5	7,686100
8,883500	0,5	7,170100
8,891833	0,5	6,206550
8,900167	0,5	5,139850
8,908500	0,5	4,214300
8,916833	0,5	3,532400
8,925167	0,5	3,072700
8,933500	0,5	2,759200
8,941833	0,5	2,554600
8,950167	0,5	2,406050
8,958500	0,5	2,296750
8,966833	0,5	2,209300
8,975167	0,5	2,152350
8,983500	0,5	2,127550
8,991833	0,5	2,119950
9,000167	0,5	2,125850
9,008500	0,5	2,160750
9,016833	0,5	2,183850
9,025167	0,5	2,200500
9,033500	0,5	2,169900
9,041833	0,5	2,122500
9,050167	0,5	2,049150
9,058500	0,5	1,978000
9,066833	0,5	1,919500
9,075167	0,5	1,872600
9,083500	0,5	1,834750
9,091833	0,5	1,821350
9,100167	0,5	1,806000
9,108500	0,5	1,790600
9,116833	0,5	1,785050
9,125167	0,5	1,776650
9,133500	0,5	1,769650
9,141833	0,5	1,753000
9,150167	0,5	1,731500
9,158500	0,5	1,717500
9,166833	0,5	1,704550
9,175167	0,5	1,693650
9,183500	0,5	1,684250
9,191833	0,5	1,677650
9,200167	0,5	1,670700
9,208500	0,5	1,662950
9,216833	0,5	1,664150
9,225167	0,5	1,658800
9,233500	0,5	1,653700
9,241833	0,5	1,658400
9,250167	0,5	1,660700
9,258500	0,5	1,665050
9,266833	0,5	1,676550
9,275167	0,5	1,692950
9,283500	0,5	1,713450
9,291833	0,5	1,724000
9,300167	0,5	1,730450
9,308500	0,5	1,734650
9,316833	0,5	1,740050
9,325167	0,5	1,739650
9,333500	0,5	1,740400
9,341833	0,5	1,742650
9,350167	0,5	1,764350
9,358500	0,5	1,820300
9,366833	0,5	1,929550
9,375167	0,5	2,119600
9,383500	0,5	2,408050
9,391833	0,5	2,823700
9,400167	0,5	3,358450
9,408500	0,5	4,011850
9,416833	0,5	4,768650
9,425167	0,5	5,639400
9,433500	0,5	6,666950
9,441833	0,5	8,027200
9,450167	0,5	10,080400
9,458500	0,5	13,507000
9,466833	0,5	19,186500
9,475167	0,5	27,855500
9,483500	0,5	39,360251
9,491833	0,5	52,074701
9,500167	0,5	63,216151
9,508500	0,5	70,025801
9,516833	0,5	71,043301
9,525167	0,5	66,458801
9,533500	0,5	57,581251
9,541833	0,5	46,825851
9,550167	0,5	36,331451
9,558500	0,5	27,404950
9,566833	0,5	20,522550
9,575167	0,5	15,563700
9,583500	0,5	12,148500
9,591833	0,5	9,857650
9,600167	0,5	8,371150
9,608500	0,5	7,444650
9,616833	0,5	6,892100
9,625167	0,5	6,550550
9,633500	0,5	6,296700
9,641833	0,5	6,059650
9,650167	0,5	5,860950
9,658500	0,5	5,802500
9,666833	0,5	6,015100
9,675167	0,5	6,609500
9,683500	0,5	7,581200
9,691833	0,5	8,717650
9,700167	0,5	9,643850
9,708500	0,5	10,015900
9,716833	0,5	9,690550
9,725167	0,5	8,791850
9,733500	0,5	7,597000
9,741833	0,5	6,410700
9,750167	0,5	5,422050
9,758500	0,5	4,680350
9,766833	0,5	4,160650
9,775167	0,5	3,791800
9,783500	0,5	3,526300
9,791833	0,5	3,321550
9,800167	0,5	3,165250
9,808500	0,5	3,039150
9,816833	0,5	2,935700
9,825167	0,5	2,847950
9,833500	0,5	2,770400
9,841833	0,5	2,705000
9,850167	0,5	2,641150
9,858500	0,5	2,588800
9,866833	0,5	2,543650
9,875167	0,5	2,510950
9,883500	0,5	2,472750
9,891833	0,5	2,436850
9,900167	0,5	2,407500
9,908500	0,5	2,383050
9,916833	0,5	2,364350
9,925167	0,5	2,339700
9,933500	0,5	2,323800
9,941833	0,5	2,310600
9,950167	0,5	2,303550
9,958500	0,5	2,298900
9,966833	0,5	2,299050
9,975167	0,5	2,313050
9,983500	0,5	2,330400
9,991833	0,5	2,350350
10,000167	0,5	2,365600
10,008500	0,5	2,368700
10,016833	0,5	2,354700
10,025167	0,5	2,322250
10,033500	0,5	2,275100
10,041833	0,5	2,226900
10,050167	0,5	2,179150
10,058500	0,5	2,143850
10,066833	0,5	2,114900
10,075167	0,5	2,090700
10,083500	0,5	2,072750
10,091833	0,5	2,053750
10,100167	0,5	2,039500
10,108500	0,5	2,028150
10,116833	0,5	2,008600
10,125167	0,5	2,005950
10,133500	0,5	1,989900
10,141833	0,5	1,978200
10,150167	0,5	1,970100
10,158500	0,5	1,968300
10,166833	0,5	1,960600
10,175167	0,5	1,958750
10,183500	0,5	1,945400
10,191833	0,5	1,943100
10,200167	0,5	1,935450
10,208500	0,5	1,933150
10,216833	0,5	1,930250
10,225167	0,5	1,933050
10,233500	0,5	1,934900
10,241833	0,5	1,937850
10,250167	0,5	1,945350
10,258500	0,5	1,935800
10,266833	0,5	1,932200
10,275167	0,5	1,917450
10,283500	0,5	1,910300
10,291833	0,5	1,892550
10,300167	0,5	1,889050
10,308500	0,5	1,885500
10,316833	0,5	1,884950
10,325167	0,5	1,883400
10,333500	0,5	1,883600
10,341833	0,5	1,886400
10,350167	0,5	1,889500
10,358500	0,5	1,891450
10,366833	0,5	1,891150
10,375167	0,5	1,898850
10,383500	0,5	1,902900
10,391833	0,5	1,912850
10,400167	0,5	1,931750
10,408500	0,5	1,956900
10,416833	0,5	2,000050
10,425167	0,5	2,075950
10,433500	0,5	2,192550
10,441833	0,5	2,354000
10,450167	0,5	2,572650
10,458500	0,5	2,852350
10,466833	0,5	3,194300
10,475167	0,5	3,595350
10,483500	0,5	4,064300
10,491833	0,5	4,662950
10,500167	0,5	5,510550
10,508500	0,5	6,818300
10,516833	0,5	8,878500
10,525167	0,5	12,011800
10,533500	0,5	16,387750
10,541833	0,5	21,765850
10,550167	0,5	27,414400
10,558500	0,5	32,259500
10,566833	0,5	35,215901
10,575167	0,5	35,628901
10,583500	0,5	33,518200
10,591833	0,5	29,520700
10,600167	0,5	24,567950
10,608500	0,5	19,549450
10,616833	0,5	15,109300
10,625167	0,5	11,548000
10,633500	0,5	8,900550
10,641833	0,5	7,018100
10,650167	0,5	5,715800
10,658500	0,5	4,815950
10,666833	0,5	4,186150
10,675167	0,5	3,736600
10,683500	0,5	3,415450
10,691833	0,5	3,167050
10,700167	0,5	2,980250
10,708500	0,5	2,824150
10,716833	0,5	2,711900
10,725167	0,5	2,613850
10,733500	0,5	2,536450
10,741833	0,5	2,464250
10,750167	0,5	2,407200
10,758500	0,5	2,362400
10,766833	0,5	2,318250
10,775167	0,5	2,288100
10,783500	0,5	2,263250
10,791833	0,5	2,237950
10,800167	0,5	2,219300
10,808500	0,5	2,215000
10,816833	0,5	2,217450
10,825167	0,5	2,225500
10,833500	0,5	2,246000
10,841833	0,5	2,274550
10,850167	0,5	2,303800
10,858500	0,5	2,330700
10,866833	0,5	2,351000
10,875167	0,5	2,356100
10,883500	0,5	2,335750
10,891833	0,5	2,298250
10,900167	0,5	2,243950
10,908500	0,5	2,186800
10,916833	0,5	2,122400
10,925167	0,5	2,068700
10,933500	0,5	2,024300
10,941833	0,5	1,988150
10,950167	0,5	1,958250
10,958500	0,5	1,934000
10,966833	0,5	1,920000
10,975167	0,5	1,901900
10,983500	0,5	1,895150
10,991833	0,5	1,891250
11,000167	0,5	1,890250
11,008500	0,5	1,890200
11,016833	0,5	1,891950
11,025167	0,5	1,890350
11,033500	0,5	1,884850
11,041833	0,5	1,872800
11,050167	0,5	1,862800
11,058500	0,5	1,853800
11,066833	0,5	1,841450
11,075167	0,5	1,838500
11,083500	0,5	1,830800
11,091833	0,5	1,836000
11,100167	0,5	1,840750
11,108500	0,5	1,843600
11,116833	0,5	1,836850
11,125167	0,5	1,841100
11,133500	0,5	1,832100
11,141833	0,5	1,832700
11,150167	0,5	1,824500
11,158500	0,5	1,826200
11,166833	0,5	1,822050
11,175167	0,5	1,818350
11,183500	0,5	1,811800
11,191833	0,5	1,800850
11,200167	0,5	1,786050
11,208500	0,5	1,772600
11,216833	0,5	1,759200
11,225167	0,5	1,743550
11,233500	0,5	1,731500
11,241833	0,5	1,726400
11,250167	0,5	1,721200
11,258500	0,5	1,713800
11,266833	0,5	1,703350
11,275167	0,5	1,703950
11,283500	0,5	1,707200
11,291833	0,5	1,711050
11,300167	0,5	1,716600
11,308500	0,5	1,738200
11,316833	0,5	1,768700
11,325167	0,5	1,828200
11,333500	0,5	1,918800
11,341833	0,5	2,051400
11,350167	0,5	2,241900
11,358500	0,5	2,492950
11,366833	0,5	2,795950
11,375167	0,5	3,162750
11,383500	0,5	3,595250
11,391833	0,5	4,130250
11,400167	0,5	4,829750
11,408500	0,5	5,839450
11,416833	0,5	7,391750
11,425167	0,5	9,794600
11,433500	0,5	13,352200
11,441833	0,5	18,140550
11,450167	0,5	23,862750
11,458500	0,5	29,673750
11,466833	0,5	34,468701
11,475167	0,5	37,221701
11,483500	0,5	37,369101
11,491833	0,5	35,028551
11,500167	0,5	30,832100
11,508500	0,5	25,686700
11,516833	0,5	20,490200
11,525167	0,5	15,870500
11,533500	0,5	12,139550
11,541833	0,5	9,334200
11,550167	0,5	7,314650
11,558500	0,5	5,903600
11,566833	0,5	4,925500
11,575167	0,5	4,244850
11,583500	0,5	3,752400
11,591833	0,5	3,397000
11,600167	0,5	3,135950
11,608500	0,5	2,932700
11,616833	0,5	2,773300
11,625167	0,5	2,648000
11,633500	0,5	2,542750
11,641833	0,5	2,466050
11,650167	0,5	2,407250
11,658500	0,5	2,354850
11,666833	0,5	2,319900
11,675167	0,5	2,298750
11,683500	0,5	2,281150
11,691833	0,5	2,269150
11,700167	0,5	2,269650
11,708500	0,5	2,267150
11,716833	0,5	2,268700
11,725167	0,5	2,267200
11,733500	0,5	2,268500
11,741833	0,5	2,270400
11,750167	0,5	2,272800
11,758500	0,5	2,272950
11,766833	0,5	2,268550
11,775167	0,5	2,261500
11,783500	0,5	2,250350
11,791833	0,5	2,248150
11,800167	0,5	2,242900
11,808500	0,5	2,227300
11,816833	0,5	2,212450
11,825167	0,5	2,195050
11,833500	0,5	2,170150
11,841833	0,5	2,143750
11,850167	0,5	2,115350
11,858500	0,5	2,081750
11,866833	0,5	2,046150
11,875167	0,5	2,014600
11,883500	0,5	1,985900
11,891833	0,5	1,953200
11,900167	0,5	1,943250
11,908500	0,5	1,927950
11,916833	0,5	1,917100
11,925167	0,5	1,909900
11,933500	0,5	1,900800
11,941833	0,5	1,904400
11,950167	0,5	1,908850
11,958500	0,5	1,908600
11,966833	0,5	1,908800
11,975167	0,5	1,922500
11,983500	0,5	1,931250
11,991833	0,5	1,949050
12,000167	0,5	1,965950
12,008500	0,5	1,984700
12,016833	0,5	1,995550
12,025167	0,5	2,001750
12,033500	0,5	1,997050
12,041833	0,5	1,986850
12,050167	0,5	1,980300
12,058500	0,5	1,965350
12,066833	0,5	1,950800
12,075167	0,5	1,946150
12,083500	0,5	1,941900
12,091833	0,5	1,956500
12,100167	0,5	1,975400
12,108500	0,5	2,011250
12,116833	0,5	2,075100
12,125167	0,5	2,170400
12,133500	0,5	2,299850
12,141833	0,5	2,468850
12,150167	0,5	2,687900
12,158500	0,5	2,945000
12,166833	0,5	3,265050
12,175167	0,5	3,673950
12,183500	0,5	4,245950
12,191833	0,5	5,101300
12,200167	0,5	6,435550
12,208500	0,5	8,424400
12,216833	0,5	11,205050
12,225167	0,5	14,685950
12,233500	0,5	18,474900
12,241833	0,5	21,899000
12,250167	0,5	24,224250
12,258500	0,5	24,936850
12,266833	0,5	23,922050
12,275167	0,5	21,499950
12,283500	0,5	18,254200
12,291833	0,5	14,813600
12,300167	0,5	11,681700
12,308500	0,5	9,108700
12,316833	0,5	7,162000
12,325167	0,5	5,771450
12,333500	0,5	4,799000
12,341833	0,5	4,142100
12,350167	0,5	3,688100
12,358500	0,5	3,371100
12,366833	0,5	3,138950
12,375167	0,5	2,967200
12,383500	0,5	2,847600
12,391833	0,5	2,742350
12,400167	0,5	2,660800
12,408500	0,5	2,589000
12,416833	0,5	2,529750
12,425167	0,5	2,472950
12,433500	0,5	2,429050
12,441833	0,5	2,388700
12,450167	0,5	2,358350
12,458500	0,5	2,331600
12,466833	0,5	2,313350
12,475167	0,5	2,293550
12,483500	0,5	2,279650
12,491833	0,5	2,263850
12,500167	0,5	2,249350
12,508500	0,5	2,219250
12,516833	0,5	2,204250
12,525167	0,5	2,184700
12,533500	0,5	2,169250
12,541833	0,5	2,156300
12,550167	0,5	2,145400
12,558500	0,5	2,131250
12,566833	0,5	2,120300
12,575167	0,5	2,118200
12,583500	0,5	2,109400
12,591833	0,5	2,112300
12,600167	0,5	2,109950
12,608500	0,5	2,117650
12,616833	0,5	2,121550
12,625167	0,5	2,131100
12,633500	0,5	2,141800
12,641833	0,5	2,154650
12,650167	0,5	2,156000
12,658500	0,5	2,154300
12,666833	0,5	2,140050
12,675167	0,5	2,147650
12,683500	0,5	2,146300
12,691833	0,5	2,145650
12,700167	0,5	2,148300
12,708500	0,5	2,159350
12,716833	0,5	2,171050
12,725167	0,5	2,186150
12,733500	0,5	2,207350
12,741833	0,5	2,220650
12,750167	0,5	2,232200
12,758500	0,5	2,235950
12,766833	0,5	2,235550
12,775167	0,5	2,226500
12,783500	0,5	2,228450
12,791833	0,5	2,230000
12,800167	0,5	2,239850
12,808500	0,5	2,255650
12,816833	0,5	2,294950
12,825167	0,5	2,357600
12,833500	0,5	2,433350
12,841833	0,5	2,502600
12,850167	0,5	2,576600
12,858500	0,5	2,627950
12,866833	0,5	2,658700
12,875167	0,5	2,670050
12,883500	0,5	2,645200
12,891833	0,5	2,600850
12,900167	0,5	2,538950
12,908500	0,5	2,476050
12,916833	0,5	2,412900
12,925167	0,5	2,348900
12,933500	0,5	2,306000
12,941833	0,5	2,272200
12,950167	0,5	2,233450
12,958500	0,5	2,195000
12,966833	0,5	2,150950
12,975167	0,5	2,124900
12,983500	0,5	2,080450
12,991833	0,5	2,047350
13,000167	0,5	2,008250
13,008500	0,5	1,990050
13,016833	0,5	1,976650
13,025167	0,5	1,962100
13,033500	0,5	1,955700
13,041833	0,5	1,945450
13,050167	0,5	1,921100
13,058500	0,5	1,903200
13,066833	0,5	1,862750
13,075167	0,5	1,830950
13,083500	0,5	1,805500
13,091833	0,5	1,771450
13,100167	0,5	1,741100
13,108500	0,5	1,714350
13,116833	0,5	1,699100
13,125167	0,5	1,690650
13,133500	0,5	1,679100
13,141833	0,5	1,672850
13,150167	0,5	1,675800
13,158500	0,5	1,674200
13,166833	0,5	1,680700
13,175167	0,5	1,683250
13,183500	0,5	1,690100
13,191833	0,5	1,689400
13,200167	0,5	1,689050
13,208500	0,5	1,687050
13,216833	0,5	1,672750
13,225167	0,5	1,659600
13,233500	0,5	1,649050
13,241833	0,5	1,634300
13,250167	0,5	1,617200
13,258500	0,5	1,607150
13,266833	0,5	1,602200
13,275167	0,5	1,601100
13,283500	0,5	1,599000
13,291833	0,5	1,591300
13,300167	0,5	1,578250
13,308500	0,5	1,566300
13,316833	0,5	1,551500
13,325167	0,5	1,544200
13,333500	0,5	1,536100
13,341833	0,5	1,527550
13,350167	0,5	1,525700
13,358500	0,5	1,527250
13,366833	0,5	1,543300
13,375167	0,5	1,569150
13,383500	0,5	1,600200
13,391833	0,5	1,636200
13,400167	0,5	1,653150
13,408500	0,5	1,658850
13,416833	0,5	1,648550
13,425167	0,5	1,622400
13,433500	0,5	1,588850
13,441833	0,5	1,563400
13,450167	0,5	1,546300
13,458500	0,5	1,540850
13,466833	0,5	1,560200
13,475167	0,5	1,581750
13,483500	0,5	1,605200
13,491833	0,5	1,621150
13,500167	0,5	1,630900
13,508500	0,5	1,611950
13,516833	0,5	1,589050
13,525167	0,5	1,565400
13,533500	0,5	1,546200
13,541833	0,5	1,515150
13,550167	0,5	1,504700
13,558500	0,5	1,516700
13,566833	0,5	1,536150
13,575167	0,5	1,557200
13,583500	0,5	1,570900
13,591833	0,5	1,579750
13,600167	0,5	1,582050
13,608500	0,5	1,571300
13,616833	0,5	1,554100
13,625167	0,5	1,541650
13,633500	0,5	1,527600
13,641833	0,5	1,540700
13,650167	0,5	1,575850
13,658500	0,5	1,623300
13,666833	0,5	1,703550
13,675167	0,5	1,788000
13,683500	0,5	1,859950
13,691833	0,5	1,903700
13,700167	0,5	1,899800
13,708500	0,5	1,870800
13,716833	0,5	1,815500
13,725167	0,5	1,751250
13,733500	0,5	1,696300
13,741833	0,5	1,661450
13,750167	0,5	1,637800
13,758500	0,5	1,624050
13,766833	0,5	1,616450
13,775167	0,5	1,619050
13,783500	0,5	1,625300
13,791833	0,5	1,633300
13,800167	0,5	1,647850
13,808500	0,5	1,646050
13,816833	0,5	1,640900
13,825167	0,5	1,613700
13,833500	0,5	1,574800
13,841833	0,5	1,515400
13,850167	0,5	1,468150
13,858500	0,5	1,431400
13,866833	0,5	1,405250
13,875167	0,5	1,379850
13,883500	0,5	1,368400
13,891833	0,5	1,356200
13,900167	0,5	1,347750
13,908500	0,5	1,347150
13,916833	0,5	1,351550
13,925167	0,5	1,342300
13,933500	0,5	1,335650
13,941833	0,5	1,334650
13,950167	0,5	1,325100
13,958500	0,5	1,324750
13,966833	0,5	1,331400
13,975167	0,5	1,337350
13,983500	0,5	1,337550
13,991833	0,5	1,343050
14,000167	0,5	1,344550
14,008500	0,5	1,372400
14,016833	0,5	1,379350
14,025167	0,5	1,387850
14,033500	0,5	1,390250
14,041833	0,5	1,386700
14,050167	0,5	1,379000
14,058500	0,5	1,372650
14,066833	0,5	1,372750
14,075167	0,5	1,379150
14,083500	0,5	1,397250
14,091833	0,5	1,409550
14,100167	0,5	1,413950
14,108500	0,5	1,426800
14,116833	0,5	1,435900
14,125167	0,5	1,435200
14,133500	0,5	1,415000
14,141833	0,5	1,404300
14,150167	0,5	1,409450
14,158500	0,5	1,426250
14,166833	0,5	1,455450
14,175167	0,5	1,480350
14,183500	0,5	1,513500
14,191833	0,5	1,525700
14,200167	0,5	1,528450
14,208500	0,5	1,520550
14,216833	0,5	1,496150
14,225167	0,5	1,474500
14,233500	0,5	1,454200
14,241833	0,5	1,432800
14,250167	0,5	1,410450
14,258500	0,5	1,399100
14,266833	0,5	1,387250
14,275167	0,5	1,365100
14,283500	0,5	1,343800
14,291833	0,5	1,335650
14,300167	0,5	1,345100
14,308500	0,5	1,390450
14,316833	0,5	1,450900
14,325167	0,5	1,556550
14,333500	0,5	1,672000
14,341833	0,5	1,782400
14,350167	0,5	1,859450
14,358500	0,5	1,890200
14,366833	0,5	1,859750
14,375167	0,5	1,797350
14,383500	0,5	1,713450
14,391833	0,5	1,624100
14,400167	0,5	1,563050
14,408500	0,5	1,524150
14,416833	0,5	1,501500
14,425167	0,5	1,498750
14,433500	0,5	1,507100
14,441833	0,5	1,544950
14,450167	0,5	1,579450
14,458500	0,5	1,602500
14,466833	0,5	1,599900
14,475167	0,5	1,575950
14,483500	0,5	1,545300
14,491833	0,5	1,509200
14,500167	0,5	1,483950
14,508500	0,5	1,459200
14,516833	0,5	1,450400
14,525167	0,5	1,429650
14,533500	0,5	1,418350
14,541833	0,5	1,378950
14,550167	0,5	1,361600
14,558500	0,5	1,332900
14,566833	0,5	1,307700
14,575167	0,5	1,280350
14,583500	0,5	1,261850
14,591833	0,5	1,258100
14,600167	0,5	1,257350
14,608500	0,5	1,246000
14,616833	0,5	1,247650
14,625167	0,5	1,243000
14,633500	0,5	1,229250
14,641833	0,5	1,219500
14,650167	0,5	1,214300
14,658500	0,5	1,203850
14,666833	0,5	1,195000
14,675167	0,5	1,203800
14,683500	0,5	1,207650
14,691833	0,5	1,214950
14,700167	0,5	1,226100
14,708500	0,5	1,228700
14,716833	0,5	1,212900
14,725167	0,5	1,186450
14,733500	0,5	1,159800
14,741833	0,5	1,150200
14,750167	0,5	1,131200
14,758500	0,5	1,116650
14,766833	0,5	1,104800
14,775167	0,5	1,098450
14,783500	0,5	1,090950
14,791833	0,5	1,089900
14,800167	0,5	1,089050
14,808500	0,5	1,080100
14,816833	0,5	1,074750
14,825167	0,5	1,078800
14,833500	0,5	1,075400
14,841833	0,5	1,078400
14,850167	0,5	1,089000
14,858500	0,5	1,096750
14,866833	0,5	1,115650
14,875167	0,5	1,142550
14,883500	0,5	1,218300
14,891833	0,5	1,318450
14,900167	0,5	1,443300
14,908500	0,5	1,553400
14,916833	0,5	1,634450
14,925167	0,5	1,661500
14,933500	0,5	1,635550
14,941833	0,5	1,559700
14,950167	0,5	1,467950
14,958500	0,5	1,381300
14,966833	0,5	1,313950
14,975167	0,5	1,290850
14,983500	0,5	1,283950
14,991833	0,5	1,310050
15,000167	0,5	1,334050
15,008500	0,5	1,354450
15,016833	0,5	1,341250
15,025167	0,5	1,310200
15,033500	0,5	1,279250
15,041833	0,5	1,250850
15,050167	0,5	1,209750
15,058500	0,5	1,179850
15,066833	0,5	1,151650
15,075167	0,5	1,133400
15,083500	0,5	1,120200
15,091833	0,5	1,111800
15,100167	0,5	1,095250
15,108500	0,5	1,087550
15,116833	0,5	1,092250
15,125167	0,5	1,087700
15,133500	0,5	1,091650
15,141833	0,5	1,100950
15,150167	0,5	1,108650
15,158500	0,5	1,114150
15,166833	0,5	1,111700
15,175167	0,5	1,106700
15,183500	0,5	1,114950
15,191833	0,5	1,106900
15,200167	0,5	1,102200
15,208500	0,5	1,093700
15,216833	0,5	1,087050
15,225167	0,5	1,072750
15,233500	0,5	1,061450
15,241833	0,5	1,045900
15,250167	0,5	1,031600
15,258500	0,5	1,026650
15,266833	0,5	1,015200
15,275167	0,5	1,000700
15,283500	0,5	0,995450
15,291833	0,5	0,993250
15,300167	0,5	0,991400
15,308500	0,5	0,981100
15,316833	0,5	0,967250
15,325167	0,5	0,961200
15,333500	0,5	0,956100
15,341833	0,5	0,966100
15,350167	0,5	0,968350
15,358500	0,5	0,981350
15,366833	0,5	0,992950
15,375167	0,5	1,024000
15,383500	0,5	1,074850
15,391833	0,5	1,155250
15,400167	0,5	1,265850
15,408500	0,5	1,408900
15,416833	0,5	1,530850
15,425167	0,5	1,617500
15,433500	0,5	1,639750
15,441833	0,5	1,604400
15,450167	0,5	1,529050
15,458500	0,5	1,439250
15,466833	0,5	1,356100
15,475167	0,5	1,328750
15,483500	0,5	1,330250
15,491833	0,5	1,346000
15,500167	0,5	1,368150
15,508500	0,5	1,369600
15,516833	0,5	1,356250
15,525167	0,5	1,337450
15,533500	0,5	1,306950
15,541833	0,5	1,286300
15,550167	0,5	1,273350
15,558500	0,5	1,268150
15,566833	0,5	1,265450
15,575167	0,5	1,257700
15,583500	0,5	1,259450
15,591833	0,5	1,258600
15,600167	0,5	1,256650
15,608500	0,5	1,245900
15,616833	0,5	1,225350
15,625167	0,5	1,216450
15,633500	0,5	1,189000
15,641833	0,5	1,159450
15,650167	0,5	1,132350
15,658500	0,5	1,104900
15,666833	0,5	1,072600
15,675167	0,5	1,043750
15,683500	0,5	1,017150
15,691833	0,5	0,990050
15,700167	0,5	0,961100
15,708500	0,5	0,943850
15,716833	0,5	0,906450
15,725167	0,5	0,900050
15,733500	0,5	0,884200
15,741833	0,5	0,870650
15,750167	0,5	0,850050
15,758500	0,5	0,829000
15,766833	0,5	0,825800
15,775167	0,5	0,838150
15,783500	0,5	0,843350
15,791833	0,5	0,860250
15,800167	0,5	0,883500
15,808500	0,5	0,908900
15,816833	0,5	0,941050
15,825167	0,5	0,983150
15,833500	0,5	1,045200
15,841833	0,5	1,113800
15,850167	0,5	1,227400
15,858500	0,5	1,347950
15,866833	0,5	1,427450
15,875167	0,5	1,478300
15,883500	0,5	1,457750
15,891833	0,5	1,397000
15,900167	0,5	1,321850
15,908500	0,5	1,237300
15,916833	0,5	1,210200
15,925167	0,5	1,201350
15,933500	0,5	1,194450
15,941833	0,5	1,167250
15,950167	0,5	1,133750
15,958500	0,5	1,093200
15,966833	0,5	1,051700
15,975167	0,5	1,020450
15,983500	0,5	0,993200
15,991833	0,5	0,964600
16,000167	0,5	0,939500
16,008500	0,5	0,934200
16,016833	0,5	0,925550
16,025167	0,5	0,942650
16,033500	0,5	0,953400
16,041833	0,5	0,960200
16,050167	0,5	0,942900
16,058500	0,5	0,936300
16,066833	0,5	0,927100
16,075167	0,5	0,912950
16,083500	0,5	0,888500
16,091833	0,5	0,863100
16,100167	0,5	0,840800
16,108500	0,5	0,814050
16,116833	0,5	0,791450
16,125167	0,5	0,769250
16,133500	0,5	0,750050
16,141833	0,5	0,730250
16,150167	0,5	0,719150
16,158500	0,5	0,702200
16,166833	0,5	0,702800
16,175167	0,5	0,706650
16,183500	0,5	0,704450
16,191833	0,5	0,701050
16,200167	0,5	0,702350
16,208500	0,5	0,712750
16,216833	0,5	0,747450
16,225167	0,5	0,791700
16,233500	0,5	0,871000
16,241833	0,5	0,970450
16,250167	0,5	1,093900
16,258500	0,5	1,215300
16,266833	0,5	1,307550
16,275167	0,5	1,330800
16,283500	0,5	1,312900
16,291833	0,5	1,265900
16,300167	0,5	1,203450
16,308500	0,5	1,161450
16,316833	0,5	1,141050
16,325167	0,5	1,117450
16,333500	0,5	1,077500
16,341833	0,5	1,020450
16,350167	0,5	0,954500
16,358500	0,5	0,906200
16,366833	0,5	0,863150
16,375167	0,5	0,837550
16,383500	0,5	0,820200
16,391833	0,5	0,817900
16,400167	0,5	0,812200
16,408500	0,5	0,818800
16,416833	0,5	0,815400
16,425167	0,5	0,822200
16,433500	0,5	0,817250
16,441833	0,5	0,822250
16,450167	0,5	0,799900
16,458500	0,5	0,792450
16,466833	0,5	0,785300
16,475167	0,5	0,768250
16,483500	0,5	0,745450
16,491833	0,5	0,715150
16,500167	0,5	0,699750
16,508500	0,5	0,687200
16,516833	0,5	0,680500
16,525167	0,5	0,670750
16,533500	0,5	0,669100
16,541833	0,5	0,666850
16,550167	0,5	0,666100
16,558500	0,5	0,670100
16,566833	0,5	0,685150
16,575167	0,5	0,706600
16,583500	0,5	0,754500
16,591833	0,5	0,825350
16,600167	0,5	0,920400
16,608500	0,5	1,059150
16,616833	0,5	1,201350
16,625167	0,5	1,314150
16,633500	0,5	1,375100
16,641833	0,5	1,380250
16,650167	0,5	1,375550
16,658500	0,5	1,371650
16,666833	0,5	1,352950
16,675167	0,5	1,354600
16,683500	0,5	1,360500
16,691833	0,5	1,369250
16,700167	0,5	1,359000
16,708500	0,5	1,369350
16,716833	0,5	1,362600
16,725167	0,5	1,357750
16,733500	0,5	1,353950
16,741833	0,5	1,344850
16,750167	0,5	1,299550
16,758500	0,5	1,281900
16,766833	0,5	1,223900
16,775167	0,5	1,177950
16,783500	0,5	1,111600
16,791833	0,5	1,040300
16,800167	0,5	0,997000
16,808500	0,5	0,945250
16,816833	0,5	0,893900
16,825167	0,5	0,854000
16,833500	0,5	0,819450
16,841833	0,5	0,786250
16,850167	0,5	0,760450
16,858500	0,5	0,740900
16,866833	0,5	0,718900
16,875167	0,5	0,705350
16,883500	0,5	0,704500
16,891833	0,5	0,697800
16,900167	0,5	0,702600
16,908500	0,5	0,731150
16,916833	0,5	0,781450
16,925167	0,5	0,856750
16,933500	0,5	0,951350
16,941833	0,5	1,060400
16,950167	0,5	1,154700
16,958500	0,5	1,192350
16,966833	0,5	1,185200
16,975167	0,5	1,145750
16,983500	0,5	1,094550
16,991833	0,5	1,047700
17,000167	0,5	1,000700
17,008500	0,5	0,961100
17,016833	0,5	0,912300
17,025167	0,5	0,880850
17,033500	0,5	0,861950
17,041833	0,5	0,846050
17,050167	0,5	0,844900
17,058500	0,5	0,855850
17,066833	0,5	0,861550
17,075167	0,5	0,863150
17,083500	0,5	0,858600
17,091833	0,5	0,879150
17,100167	0,5	0,894850
17,108500	0,5	0,915000
17,116833	0,5	0,928400
17,125167	0,5	0,962850
17,133500	0,5	0,993950
17,141833	0,5	1,048900
17,150167	0,5	1,109350
17,158500	0,5	1,204250
17,166833	0,5	1,338500
17,175167	0,5	1,520150
17,183500	0,5	1,765050
17,191833	0,5	2,068150
17,200167	0,5	2,454350
17,208500	0,5	2,887450
17,216833	0,5	3,356600
17,225167	0,5	3,808600
17,233500	0,5	4,217400
17,241833	0,5	4,530050
17,250167	0,5	4,712750
17,258500	0,5	4,715100
17,266833	0,5	4,590700
17,275167	0,5	4,347900
17,283500	0,5	4,035300
17,291833	0,5	3,687700
17,300167	0,5	3,341650
17,308500	0,5	3,006200
17,316833	0,5	2,702050
17,325167	0,5	2,450850
17,333500	0,5	2,222600
17,341833	0,5	2,050300
17,350167	0,5	1,909650
17,358500	0,5	1,793100
17,366833	0,5	1,687050
17,375167	0,5	1,584850
17,383500	0,5	1,505550
17,391833	0,5	1,452650
17,400167	0,5	1,393150
17,408500	0,5	1,351450
17,416833	0,5	1,312250
17,425167	0,5	1,289400
17,433500	0,5	1,260300
17,441833	0,5	1,247250
17,450167	0,5	1,253600
17,458500	0,5	1,267250
17,466833	0,5	1,303750
17,475167	0,5	1,362000
17,483500	0,5	1,414550
17,491833	0,5	1,523250
17,500167	0,5	1,624200
17,508500	0,5	1,683550
17,516833	0,5	1,703450
17,525167	0,5	1,656050
17,533500	0,5	1,613350
17,541833	0,5	1,542750
17,550167	0,5	1,468700
17,558500	0,5	1,380900
17,566833	0,5	1,311950
17,575167	0,5	1,232100
17,583500	0,5	1,174150
17,591833	0,5	1,124150
17,600167	0,5	1,085200
17,608500	0,5	1,043050
17,616833	0,5	1,023850
17,625167	0,5	0,976400
17,633500	0,5	0,946300
17,641833	0,5	0,918250
17,650167	0,5	0,894750
17,658500	0,5	0,861650
17,666833	0,5	0,829250
17,675167	0,5	0,795950
17,683500	0,5	0,788050
17,691833	0,5	0,781150
17,700167	0,5	0,777050
17,708500	0,5	0,794050
17,716833	0,5	0,818700
17,725167	0,5	0,864600
17,733500	0,5	0,919400
17,741833	0,5	0,986850
17,750167	0,5	1,016800
17,758500	0,5	1,021500
17,766833	0,5	1,012750
17,775167	0,5	0,965400
17,783500	0,5	0,923700
17,791833	0,5	0,888900
17,800167	0,5	0,846000
17,808500	0,5	0,808400
17,816833	0,5	0,767250
17,825167	0,5	0,738400
17,833500	0,5	0,736600
17,841833	0,5	0,717100
17,850167	0,5	0,701900
17,858500	0,5	0,688400
17,866833	0,5	0,675500
17,875167	0,5	0,659700
17,883500	0,5	0,650750
17,891833	0,5	0,642800
17,900167	0,5	0,637900
17,908500	0,5	0,658800
17,916833	0,5	0,669850
17,925167	0,5	0,667100
17,933500	0,5	0,704400
17,941833	0,5	0,736700
17,950167	0,5	0,786350
17,958500	0,5	0,820400
17,966833	0,5	0,847300
17,975167	0,5	0,874000
17,983500	0,5	0,880850
17,991833	0,5	0,864350
18,000167	0,5	0,828450
18,008500	0,5	0,809450
18,016833	0,5	0,779950
18,025167	0,5	0,756900
18,033500	0,5	0,735400
18,041833	0,5	0,719350
18,050167	0,5	0,692200
18,058500	0,5	0,686350
18,066833	0,5	0,665200
18,075167	0,5	0,652350
18,083500	0,5	0,647650
18,091833	0,5	0,637150
18,100167	0,5	0,623450
18,108500	0,5	0,603200
18,116833	0,5	0,594750
18,125167	0,5	0,605200
18,133500	0,5	0,618900
18,141833	0,5	0,644350
18,150167	0,5	0,682850
18,158500	0,5	0,730150
18,166833	0,5	0,774200
18,175167	0,5	0,800400
18,183500	0,5	0,810300
18,191833	0,5	0,790100
18,200167	0,5	0,765400
18,208500	0,5	0,732550
18,216833	0,5	0,692300
18,225167	0,5	0,668900
18,233500	0,5	0,659950
18,241833	0,5	0,637850
18,250167	0,5	0,619450
18,258500	0,5	0,587400
18,266833	0,5	0,584000
18,275167	0,5	0,582500
18,283500	0,5	0,591300
18,291833	0,5	0,592950
18,300167	0,5	0,592800
18,308500	0,5	0,593900
18,316833	0,5	0,604600
18,325167	0,5	0,623200
18,333500	0,5	0,654150
18,341833	0,5	0,699350
18,350167	0,5	0,741550
18,358500	0,5	0,773400
18,366833	0,5	0,768250
18,375167	0,5	0,772900
18,383500	0,5	0,748050
18,391833	0,5	0,709100
18,400167	0,5	0,677300
18,408500	0,5	0,639200
18,416833	0,5	0,626600
18,425167	0,5	0,627000
18,433500	0,5	0,612100
18,441833	0,5	0,611300
18,450167	0,5	0,608950
18,458500	0,5	0,600300
18,466833	0,5	0,602250
18,475167	0,5	0,602650
18,483500	0,5	0,611150
18,491833	0,5	0,617500
18,500167	0,5	0,650900
18,508500	0,5	0,667150
18,516833	0,5	0,691850
18,525167	0,5	0,715150
18,533500	0,5	0,728700
18,541833	0,5	0,713950
18,550167	0,5	0,675200
18,558500	0,5	0,646200
18,566833	0,5	0,633700
18,575167	0,5	0,618950
18,583500	0,5	0,603850
18,591833	0,5	0,590000
18,600167	0,5	0,589950
18,608500	0,5	0,572850
18,616833	0,5	0,568000
18,625167	0,5	0,561500
18,633500	0,5	0,560200
18,641833	0,5	0,566550
18,650167	0,5	0,581400
18,658500	0,5	0,569550
18,666833	0,5	0,595750
18,675167	0,5	0,615400
18,683500	0,5	0,624900
18,691833	0,5	0,627900
18,700167	0,5	0,599300
18,708500	0,5	0,603750
18,716833	0,5	0,587950
18,725167	0,5	0,572250
18,733500	0,5	0,555300
18,741833	0,5	0,548650
18,750167	0,5	0,545050
18,758500	0,5	0,548450
18,766833	0,5	0,552800
18,775167	0,5	0,567400
18,783500	0,5	0,575650
18,791833	0,5	0,601000
18,800167	0,5	0,636200
18,808500	0,5	0,669300
18,816833	0,5	0,727500
18,825167	0,5	0,774800
18,833500	0,5	0,808750
18,841833	0,5	0,801200
18,850167	0,5	0,776900
18,858500	0,5	0,750550
18,866833	0,5	0,728400
18,875167	0,5	0,690800
18,883500	0,5	0,659650
18,891833	0,5	0,625500
18,900167	0,5	0,601600
18,908500	0,5	0,572450
18,916833	0,5	0,555250
18,925167	0,5	0,535700
18,933500	0,5	0,545800
18,941833	0,5	0,568100
18,950167	0,5	0,574550
18,958500	0,5	0,568400
18,966833	0,5	0,567000
18,975167	0,5	0,545250
18,983500	0,5	0,522000
18,991833	0,5	0,488950
19,000167	0,5	0,461100
19,008500	0,5	0,455100
19,016833	0,5	0,442050
19,025167	0,5	0,432800
19,033500	0,5	0,437400
19,041833	0,5	0,445900
19,050167	0,5	0,447050
19,058500	0,5	0,453450
19,066833	0,5	0,467150
19,075167	0,5	0,469550
19,083500	0,5	0,467900
19,091833	0,5	0,465450
19,100167	0,5	0,438550
19,108500	0,5	0,431100
19,116833	0,5	0,422050
19,125167	0,5	0,414450
19,133500	0,5	0,406150
19,141833	0,5	0,395500
19,150167	0,5	0,408300
19,158500	0,5	0,411500
19,166833	0,5	0,421450
19,175167	0,5	0,416800
19,183500	0,5	0,423900
19,191833	0,5	0,410650
19,200167	0,5	0,403600
19,208500	0,5	0,385500
19,216833	0,5	0,374950
19,225167	0,5	0,358200
19,233500	0,5	0,356850
19,241833	0,5	0,343600
19,250167	0,5	0,337800
19,258500	0,5	0,349550
19,266833	0,5	0,351350
19,275167	0,5	0,356700
19,283500	0,5	0,326000
19,291833	0,5	0,313700
19,300167	0,5	0,311150
19,308500	0,5	0,308150
19,316833	0,5	0,291700
19,325167	0,5	0,281750
19,333500	0,5	0,254950
19,341833	0,5	0,254550
19,350167	0,5	0,250550
19,358500	0,5	0,259250
19,366833	0,5	0,256700
19,375167	0,5	0,268500
19,383500	0,5	0,269850
19,391833	0,5	0,253400
19,400167	0,5	0,253950
19,408500	0,5	0,243500
19,416833	0,5	0,234950
19,425167	0,5	0,231100
19,433500	0,5	0,200800
19,441833	0,5	0,216800
19,450167	0,5	0,227800
19,458500	0,5	0,224000
19,466833	0,5	0,213600
19,475167	0,5	0,208300
19,483500	0,5	0,190350
19,491833	0,5	0,188900
19,500167	0,5	0,191600
19,508500	0,5	0,183400
19,516833	0,5	0,189000
19,525167	0,5	0,188400
19,533500	0,5	0,195600
19,541833	0,5	0,166050
19,550167	0,5	0,173700
19,558500	0,5	0,164900
19,566833	0,5	0,164150
19,575167	0,5	0,150800
19,583500	0,5	0,112350
19,591833	0,5	0,118250
19,600167	0,5	0,125950
19,608500	0,5	0,120500
19,616833	0,5	0,115800
19,625167	0,5	0,118200
19,633500	0,5	0,105750
19,641833	0,5	0,091600
19,650167	0,5	0,079300
19,658500	0,5	0,077750
19,666833	0,5	0,071050
19,675167	0,5	0,095850
19,683500	0,5	0,085850
19,691833	0,5	0,074350
19,700167	0,5	0,064150
19,708500	0,5	0,053600
19,716833	0,5	0,033650
19,725167	0,5	0,009550
19,733500	0,5	-0,011750
19,741833	0,5	-0,014800
19,750167	0,5	-0,033150
19,758500	0,5	-0,037600
19,766833	0,5	-0,048700
19,775167	0,5	-0,061400
19,783500	0,5	-0,070350
19,791833	0,5	-0,081000
19,800167	0,5	-0,084900
19,808500	0,5	-0,105050
19,816833	0,5	-0,102150
19,825167	0,5	-0,113950
19,833500	0,5	-0,131600
19,841833	0,5	-0,138750
19,850167	0,5	-0,148250
19,858500	0,5	-0,165600
19,866833	0,5	-0,189350
19,875167	0,5	-0,220950
19,883500	0,5	-0,225350
19,891833	0,5	-0,230000
19,900167	0,5	-0,233400
19,908500	0,5	-0,241700
19,916833	0,5	-0,243450
19,925167	0,5	-0,252150
19,933500	0,5	-0,255550
19,941833	0,5	-0,254800
19,950167	0,5	-0,265300
19,958500	0,5	-0,271600
19,966833	0,5	-0,270600
19,975167	0,5	-0,266550
19,983500	0,5	-0,274700
19,991833	0,5	-0,272500
20,000167	0,5	-0,289350
20,008500	0,5	-0,303300
20,016833	0,5	-0,337650
20,025167	0,5	-0,362250
20,033500	0,5	-0,374000
20,041833	0,5	-0,370800
20,050167	0,5	-0,396950
20,058500	0,5	-0,415600
20,066833	0,5	-0,428250
20,075167	0,5	-0,432350
20,083500	0,5	-0,440900
20,091833	0,5	-0,447800
20,100167	0,5	-0,457850
20,108500	0,5	-0,465000
20,116833	0,5	-0,466100
20,125167	0,5	-0,485000
20,133500	0,5	-0,485800
20,141833	0,5	-0,490050
20,150167	0,5	-0,495250
20,158500	0,5	-0,519000
20,166833	0,5	-0,543050
20,175167	0,5	-0,547650
20,183500	0,5	-0,539100
20,191833	0,5	-0,551550
20,200167	0,5	-0,551450
20,208500	0,5	-0,565850
20,216833	0,5	-0,564400
20,225167	0,5	-0,579500
20,233500	0,5	-0,583900
20,241833	0,5	-0,601850
20,250167	0,5	-0,620350
20,258500	0,5	-0,612150
20,266833	0,5	-0,620550
20,275167	0,5	-0,647600
20,283500	0,5	-0,644200
20,291833	0,5	-0,647250
20,300167	0,5	-0,669350
20,308500	0,5	-0,681050
20,316833	0,5	-0,712250
20,325167	0,5	-0,696950
20,333500	0,5	-0,715650
20,341833	0,5	-0,715150
20,350167	0,5	-0,734600
20,358500	0,5	-0,741750
20,366833	0,5	-0,771250
20,375167	0,5	-0,778400
20,383500	0,5	-0,788850
20,391833	0,5	-0,805450
20,400167	0,5	-0,810250
20,408500	0,5	-0,811550
20,416833	0,5	-0,829000
20,425167	0,5	-0,845550
20,433500	0,5	-0,846250
20,441833	0,5	-0,861300
20,450167	0,5	-0,878800
20,458500	0,5	-0,914450
20,466833	0,5	-0,921700
20,475167	0,5	-0,925950
20,483500	0,5	-0,926350
20,491833	0,5	-0,945050
20,500167	0,5	-0,937300
20,508500	0,5	-0,957950
20,516833	0,5	-0,967000
20,525167	0,5	-0,983500
20,533500	0,5	-0,998400
20,541833	0,5	-1,010200
20,550167	0,5	-1,016500
20,558500	0,5	-1,015650
20,566833	0,5	-1,050750
20,575167	0,5	-1,063850
20,583500	0,5	-1,091800
20,591833	0,5	-1,102850
20,600167	0,5	-1,144200
20,608500	0,5	-1,192400
20,616833	0,5	-1,209750
20,625167	0,5	-1,216150
20,633500	0,5	-1,242350
20,641833	0,5	-1,252500
20,650167	0,5	-1,274900
20,658500	0,5	-1,292550
20,666833	0,5	-1,319650
20,675167	0,5	-1,334900
20,683500	0,5	-1,364500
20,691833	0,5	-1,379350
20,700167	0,5	-1,370250
20,708500	0,5	-1,381750
20,716833	0,5	-1,393050
20,725167	0,5	-1,387600
20,733500	0,5	-1,397100
20,741833	0,5	-1,422950
20,750167	0,5	-1,458200
20,758500	0,5	-1,502700
20,766833	0,5	-1,530400
20,775167	0,5	-1,571400
20,783500	0,5	-1,596600
20,791833	0,5	-1,631700
20,800167	0,5	-1,656650
20,808500	0,5	-1,693800
20,816833	0,5	-1,706300
20,825167	0,5	-1,737350
20,833500	0,5	-1,752500
20,841833	0,5	-1,756150
20,850167	0,5	-1,765400
20,858500	0,5	-1,779150
20,866833	0,5	-1,801350
20,875167	0,5	-1,818300
20,883500	0,5	-1,846750
20,891833	0,5	-1,872350
20,900167	0,5	-1,913400
20,908500	0,5	-1,923700
20,916833	0,5	-1,931400
20,925167	0,5	-1,939500
20,933500	0,5	-1,966650
20,941833	0,5	-1,975800
20,950167	0,5	-2,000850
20,958500	0,5	-2,017000
20,966833	0,5	-2,033000
20,975167	0,5	-2,054300
20,983500	0,5	-2,084400
20,991833	0,5	-2,076000
21,000167	0,5	-2,077650
21,008500	0,5	-2,100650
21,016833	0,5	-2,114600
21,025167	0,5	-2,128500
21,033500	0,5	-2,149500
21,041833	0,5	-2,194700
21,050167	0,5	-2,218500
21,058500	0,5	-2,239450
21,066833	0,5	-2,232800
21,075167	0,5	-2,258500
21,083500	0,5	-2,270000
21,091833	0,5	-2,291950
21,100167	0,5	-2,305650
21,108500	0,5	-2,318650
21,116833	0,5	-2,321950
21,125167	0,5	-2,334050
21,133500	0,5	-2,343900
21,141833	0,5	-2,333900
21,150167	0,5	-2,338200
21,158500	0,5	-2,354600
21,166833	0,5	-2,368200
21,175167	0,5	-2,381750
21,183500	0,5	-2,410800
21,191833	0,5	-2,464550
21,200167	0,5	-2,465050
21,208500	0,5	-2,469300
21,216833	0,5	-2,481650
21,225167	0,5	-2,487050
21,233500	0,5	-2,491350
21,241833	0,5	-2,499950
21,250167	0,5	-2,502950
21,258500	0,5	-2,494000
21,266833	0,5	-2,499400
21,275167	0,5	-2,504000
21,283500	0,5	-2,479100
21,291833	0,5	-2,448350
21,300167	0,5	-2,450800
21,308500	0,5	-2,437600
21,316833	0,5	-2,429850
21,325167	0,5	-2,449600
21,333500	0,5	-2,474550
21,341833	0,5	-2,512200
21,350167	0,5	-2,501850
21,358500	0,5	-2,526350
21,366833	0,5	-2,535400
21,375167	0,5	-2,545600
21,383500	0,5	-2,551250
21,391833	0,5	-2,572600
21,400167	0,5	-2,567600
21,408500	0,5	-2,575950
21,416833	0,5	-2,578600
21,425167	0,5	-2,575700
21,433500	0,5	-2,543600
21,441833	0,5	-2,538650
21,450167	0,5	-2,546750
21,458500	0,5	-2,553750
21,466833	0,5	-2,565950
21,475167	0,5	-2,582100
21,483500	0,5	-2,611000
21,491833	0,5	-2,615900
21,500167	0,5	-2,618500
21,508500	0,5	-2,616150
21,516833	0,5	-2,635400
21,525167	0,5	-2,622300
21,533500	0,5	-2,630300
21,541833	0,5	-2,619200
21,550167	0,5	-2,621250
21,558500	0,5	-2,613050
21,566833	0,5	-2,624900
21,575167	0,5	-2,589250
21,583500	0,5	-2,566850
21,591833	0,5	-2,565200
21,600167	0,5	-2,554500
21,608500	0,5	-2,558900
21,616833	0,5	-2,553900
21,625167	0,5	-2,552500
21,633500	0,5	-2,556700
21,641833	0,5	-2,537550
21,650167	0,5	-2,499850
21,658500	0,5	-2,479000
21,666833	0,5	-2,450200
21,675167	0,5	-2,426000
21,683500	0,5	-2,410750
21,691833	0,5	-2,414800
21,700167	0,5	-2,416500
21,708500	0,5	-2,420550
21,716833	0,5	-2,426300
21,725167	0,5	-2,384350
21,733500	0,5	-2,356300
21,741833	0,5	-2,351700
21,750167	0,5	-2,326250
21,758500	0,5	-2,322300
21,766833	0,5	-2,315150
21,775167	0,5	-2,320600
21,783500	0,5	-2,316200
21,791833	0,5	-2,291200
21,800167	0,5	-2,273750
21,808500	0,5	-2,246050
21,816833	0,5	-2,241050
21,825167	0,5	-2,213300
21,833500	0,5	-2,193600
21,841833	0,5	-2,166350
21,850167	0,5	-2,143450
21,858500	0,5	-2,129450
21,866833	0,5	-2,103550
21,875167	0,5	-2,075600
21,883500	0,5	-2,082350
21,891833	0,5	-2,082700
21,900167	0,5	-2,079450
21,908500	0,5	-2,084300
21,916833	0,5	-2,101650
21,925167	0,5	-2,104050
21,933500	0,5	-2,087400
21,941833	0,5	-2,075050
21,950167	0,5	-2,055500
21,958500	0,5	-2,049050
21,966833	0,5	-2,046750
21,975167	0,5	-2,060950
21,983500	0,5	-2,071900
21,991833	0,5	-2,089700
22,000167	0,5	-2,103500
22,008500	0,5	-2,119800
22,016833	0,5	-2,110600
22,025167	0,5	-2,148150
22,033500	0,5	-2,156250
22,041833	0,5	-2,161550
22,050167	0,5	-2,177400
22,058500	0,5	-2,191800
22,066833	0,5	-2,220850
22,075167	0,5	-2,223400
22,083500	0,5	-2,231650
22,091833	0,5	-2,221300
22,100167	0,5	-2,225950
22,108500	0,5	-2,218650
22,116833	0,5	-2,230450
22,125167	0,5	-2,226850
22,133500	0,5	-2,229350
22,141833	0,5	-2,223250
22,150167	0,5	-2,230100
22,158500	0,5	-2,231950
22,166833	0,5	-2,227150
22,175167	0,5	-2,239050
22,183500	0,5	-2,220400
22,191833	0,5	-2,217800
22,200167	0,5	-2,210100
22,208500	0,5	-2,215550
22,216833	0,5	-2,216800
22,225167	0,5	-2,208050
22,233500	0,5	-2,191250
22,241833	0,5	-2,182950
22,250167	0,5	-2,164650
22,258500	0,5	-2,151500
22,266833	0,5	-2,118250
22,275167	0,5	-2,099200
22,283500	0,5	-2,059650
22,291833	0,5	-2,033900
22,300167	0,5	-2,022450
22,308500	0,5	-1,992300
22,316833	0,5	-1,976700
22,325167	0,5	-1,939850
22,333500	0,5	-1,913750
22,341833	0,5	-1,874650
22,350167	0,5	-1,852750
22,358500	0,5	-1,841050
22,366833	0,5	-1,800300
22,375167	0,5	-1,731250
22,383500	0,5	-1,683450
22,391833	0,5	-1,642450
22,400167	0,5	-1,614300
22,408500	0,5	-1,608850
22,416833	0,5	-1,620250
22,425167	0,5	-1,613100
22,433500	0,5	-1,622550
22,441833	0,5	-1,603400
22,450167	0,5	-1,608350
22,458500	0,5	-1,591450
22,466833	0,5	-1,585650
22,475167	0,5	-1,530700
22,483500	0,5	-1,510750
22,491833	0,5	-1,486600
22,500167	0,5	-1,460250
22,508500	0,5	-1,455100
22,516833	0,5	-1,404550
22,525167	0,5	-1,369800
22,533500	0,5	-1,337950
22,541833	0,5	-1,308100
22,550167	0,5	-1,259200
22,558500	0,5	-1,233650
22,566833	0,5	-1,184950
22,575167	0,5	-1,134150
22,583500	0,5	-1,077600
22,591833	0,5	-1,025800
22,600167	0,5	-1,011100
22,608500	0,5	-0,941000
22,616833	0,5	-0,866950
22,625167	0,5	-0,804050
22,633500	0,5	-0,755000
22,641833	0,5	-0,732550
22,650167	0,5	-0,722850
22,658500	0,5	-0,709600
22,666833	0,5	-0,687550
22,675167	0,5	-0,650550
22,683500	0,5	-0,649200
22,691833	0,5	-0,636900
22,700167	0,5	-0,628400
22,708500	0,5	-0,627450
22,716833	0,5	-0,635100
22,725167	0,5	-0,632300
22,733500	0,5	-0,646000
22,741833	0,5	-0,698950
22,750167	0,5	-0,714800
22,758500	0,5	-0,710200
22,766833	0,5	-0,709050
22,775167	0,5	-0,708700
22,783500	0,5	-0,739250
22,791833	0,5	-0,782150
22,800167	0,5	-0,816350
22,808500	0,5	-0,847250
22,816833	0,5	-0,875550
22,825167	0,5	-0,909300
22,833500	0,5	-0,955350
22,841833	0,5	-1,018350
22,850167	0,5	-1,074400
22,858500	0,5	-1,142950
22,866833	0,5	-1,193550
22,875167	0,5	-1,266100
22,883500	0,5	-1,334100
22,891833	0,5	-1,469350
22,900167	0,5	-1,548800
22,908500	0,5	-1,595700
22,916833	0,5	-1,666150
22,925167	0,5	-1,758950
22,933500	0,5	-1,837500
22,941833	0,5	-1,932750
22,950167	0,5	-2,020050
22,958500	0,5	-2,120450
22,966833	0,5	-2,202050
22,975167	0,5	-2,301850
22,983500	0,5	-2,386450
22,991833	0,5	-2,476900
23,000167	0,5	-2,542400
23,008500	0,5	-2,628850
23,016833	0,5	-2,696450
23,025167	0,5	-2,755800
23,033500	0,5	-2,790850
23,041833	0,5	-2,860850
23,050167	0,5	-2,912200
23,058500	0,5	-2,968700
23,066833	0,5	-3,032450
23,075167	0,5	-3,073200
23,083500	0,5	-3,106800
23,091833	0,5	-3,119800
23,100167	0,5	-3,179350
23,108500	0,5	-3,204050
23,116833	0,5	-3,245800
23,125167	0,5	-3,252000
23,133500	0,5	-3,282100
23,141833	0,5	-3,271400
23,150167	0,5	-3,299050
23,158500	0,5	-3,287650
23,166833	0,5	-3,292350
23,175167	0,5	-3,268700
23,183500	0,5	-3,205350
23,191833	0,5	-3,193350
23,200167	0,5	-3,166900
23,208500	0,5	-3,184600
23,216833	0,5	-3,165900
23,225167	0,5	-3,128100
23,233500	0,5	-3,088550
23,241833	0,5	-3,048000
23,250167	0,5	-3,035650
23,258500	0,5	-3,014800
23,266833	0,5	-2,974600
23,275167	0,5	-2,946550
23,283500	0,5	-2,912550
23,291833	0,5	-2,875750
23,300167	0,5	-2,837100
23,308500	0,5	-2,797500
23,316833	0,5	-2,743300
23,325167	0,5	-2,678200
23,333500	0,5	-2,644850
23,341833	0,5	-2,565300
23,350167	0,5	-2,503200
23,358500	0,5	-2,492400
23,366833	0,5	-2,445500
23,375167	0,5	-2,388850
23,383500	0,5	-2,328650
23,391833	0,5	-2,284700
23,400167	0,5	-2,259450
23,408500	0,5	-2,216250
23,416833	0,5	-2,177750
23,425167	0,5	-2,135800
23,433500	0,5	-2,105500
23,441833	0,5	-2,056650
23,450167	0,5	-2,023150
23,458500	0,5	-1,981950
23,466833	0,5	-1,943100
23,475167	0,5	-1,910200
23,483500	0,5	-1,879250
23,491833	0,5	-1,809700
23,500167	0,5	-1,758200
23,508500	0,5	-1,727500
23,516833	0,5	-1,696500
23,525167	0,5	-1,648900
23,533500	0,5	-1,611350
23,541833	0,5	-1,575550
23,550167	0,5	-1,546350
23,558500	0,5	-1,520350
23,566833	0,5	-1,492300
23,575167	0,5	-1,469350
23,583500	0,5	-1,442200
23,591833	0,5	-1,421000
23,600167	0,5	-1,395250
23,608500	0,5	-1,371050
23,616833	0,5	-1,341500
23,625167	0,5	-1,418500
23,633500	0,5	-1,371550
23,641833	0,5	-1,292650
23,650167	0,5	-1,256550
23,658500	0,5	-1,231950
23,666833	0,5	-1,209600
23,675167	0,5	-1,181150
23,683500	0,5	-1,162000
23,691833	0,5	-1,147650
23,700167	0,5	-1,131000
23,708500	0,5	-1,111050
23,716833	0,5	-1,088900
23,725167	0,5	-1,070000
23,733500	0,5	-1,046950
23,741833	0,5	-1,035600
23,750167	0,5	-1,017200
23,758500	0,5	-0,991400
23,766833	0,5	-1,002650
23,775167	0,5	-1,102700
23,783500	0,5	-1,057900
23,791833	0,5	-0,983850
23,800167	0,5	-0,934850
23,808500	0,5	-0,908250
23,816833	0,5	-0,887000
23,825167	0,5	-0,872100
23,833500	0,5	-0,855900
23,841833	0,5	-0,839600
23,850167	0,5	-0,821350
23,858500	0,5	-0,808600
23,866833	0,5	-0,788950
23,875167	0,5	-0,774350
23,883500	0,5	-0,759950
23,891833	0,5	-0,740000
23,900167	0,5	-0,725550
23,908500	0,5	-0,706800
23,916833	0,5	-0,806850
23,925167	0,5	-0,811050
23,933500	0,5	-0,778750
23,941833	0,5	-0,704500
23,950167	0,5	-0,652550
23,958500	0,5	-0,630300
23,966833	0,5	-0,611700
23,975167	0,5	-0,597150
23,983500	0,5	-0,572050
23,991833	0,5	-0,548750
24,000167	0,5	-0,530000
24,008500	0,5	-0,507100
24,016833	0,5	-0,494000
24,025167	0,5	-0,473250
24,033500	0,5	-0,458700
24,041833	0,5	-0,431350
24,050167	0,5	-0,416200
24,058500	0,5	-0,428400
24,066833	0,5	-0,546650
24,075167	0,5	-0,516400
24,083500	0,5	-0,469700
24,091833	0,5	-0,407950
24,100167	0,5	-0,367700
24,108500	0,5	-0,342450
24,116833	0,5	-0,325500
24,125167	0,5	-0,322650
24,133500	0,5	-0,286900
24,141833	0,5	-0,262000
24,150167	0,5	-0,243550
24,158500	0,5	-0,227650
24,166833	0,5	-0,204800
24,175167	0,5	-0,191600
24,183500	0,5	-0,167850
24,191833	0,5	-0,147400
24,200167	0,5	-0,123600
24,208500	0,5	-0,177700
24,216833	0,5	-0,222700
24,225167	0,5	-0,204250
24,233500	0,5	-0,147000
24,241833	0,5	-0,103800
24,250167	0,5	-0,069850
24,258500	0,5	-0,056350
24,266833	0,5	-0,055350
24,275167	0,5	-0,034750
24,283500	0,5	-0,008550
24,291833	0,5	0,008150
24,300167	0,5	0,024550
24,308500	0,5	0,041300
24,316833	0,5	0,056350
24,325167	0,5	0,075900
24,333500	0,5	0,090200
24,341833	0,5	0,113900
24,350167	0,5	0,129250
24,358500	0,5	0,027900
24,366833	0,5	0,045400
24,375167	0,5	0,069150
24,383500	0,5	0,114050
24,391833	0,5	0,158600
24,400167	0,5	0,180950
24,408500	0,5	0,201600
24,416833	0,5	0,195600
24,425167	0,5	0,207850
24,433500	0,5	0,229650
24,441833	0,5	0,247450
24,450167	0,5	0,265300
24,458500	0,5	0,279800
24,466833	0,5	0,289400
24,475167	0,5	0,301150
24,483500	0,5	0,319750
24,491833	0,5	0,334050
24,500167	0,5	0,330900
24,508500	0,5	0,259300
24,516833	0,5	0,292350
24,525167	0,5	0,312650
24,533500	0,5	0,350100
24,541833	0,5	0,369650
24,550167	0,5	0,388150
24,558500	0,5	0,390950
24,566833	0,5	0,384450
24,575167	0,5	0,398000
24,583500	0,5	0,414900
24,591833	0,5	0,425300
24,600167	0,5	0,439750
24,608500	0,5	0,453700
24,616833	0,5	0,462350
24,625167	0,5	0,474900
24,633500	0,5	0,485350
24,641833	0,5	0,504750
24,650167	0,5	0,479750
24,658500	0,5	0,463200
24,666833	0,5	0,470100
24,675167	0,5	0,495150
24,683500	0,5	0,521400
24,691833	0,5	0,540850
24,700167	0,5	0,545700
24,708500	0,5	0,549200
24,716833	0,5	0,545750
24,725167	0,5	0,556500
24,733500	0,5	0,565550
24,741833	0,5	0,571500
24,750167	0,5	0,583450
24,758500	0,5	0,592200
24,766833	0,5	0,594950
24,775167	0,5	0,601050
24,783500	0,5	0,611650
24,791833	0,5	0,618350
24,800167	0,5	0,590750
24,808500	0,5	0,592200
24,816833	0,5	0,610700
24,825167	0,5	0,625050
24,833500	0,5	0,645350
24,841833	0,5	0,656200
24,850167	0,5	0,660800
24,858500	0,5	0,652200
24,866833	0,5	0,658850
24,875167	0,5	0,667250
24,883500	0,5	0,671450
24,891833	0,5	0,678500
24,900167	0,5	0,683100
24,908500	0,5	0,682050
24,916833	0,5	0,688250
24,925167	0,5	0,694300
24,933500	0,5	0,699350
24,941833	0,5	0,698900
24,950167	0,5	0,675850
24,958500	0,5	0,676250
24,966833	0,5	0,692600
24,975167	0,5	0,701550
24,983500	0,5	0,703650
24,991833	0,5	0,712600
25,000167	0,5	0,713650
25,008500	0,5	0,712700
25,016833	0,5	0,721950
25,025167	0,5	0,729500
25,033500	0,5	0,726200
25,041833	0,5	0,736600
25,050167	0,5	0,736350
25,058500	0,5	0,746100
25,066833	0,5	0,745600
25,075167	0,5	0,745850
25,083500	0,5	0,747750
25,091833	0,5	0,741700
25,100167	0,5	0,740450
25,108500	0,5	0,744000
25,116833	0,5	0,744950
25,125167	0,5	0,750600
25,133500	0,5	0,749450
25,141833	0,5	0,751400
25,150167	0,5	0,749850
25,158500	0,5	0,754000
25,166833	0,5	0,758450
25,175167	0,5	0,752650
25,183500	0,5	0,755900
25,191833	0,5	0,754200
25,200167	0,5	0,761200
25,208500	0,5	0,766300
25,216833	0,5	0,766450
25,225167	0,5	0,766850
25,233500	0,5	0,768700
25,241833	0,5	0,773300
25,250167	0,5	0,774800
25,258500	0,5	0,778050
25,266833	0,5	0,777800
25,275167	0,5	0,777550
25,283500	0,5	0,779200
25,291833	0,5	0,778200
25,300167	0,5	0,778650
25,308500	0,5	0,777400
25,316833	0,5	0,775200
25,325167	0,5	0,777500
25,333500	0,5	0,775850
25,341833	0,5	0,777100
25,350167	0,5	0,780450
25,358500	0,5	0,776550
25,366833	0,5	0,779800
25,375167	0,5	0,779300
25,383500	0,5	0,780600
25,391833	0,5	0,784300
25,400167	0,5	0,788400
25,408500	0,5	0,786100
25,416833	0,5	0,787550
25,425167	0,5	0,783450
25,433500	0,5	0,788650
25,441833	0,5	0,790850
25,450167	0,5	0,792650
25,458500	0,5	0,795150
25,466833	0,5	0,794300
25,475167	0,5	0,795550
25,483500	0,5	0,793350
25,491833	0,5	0,792000
25,500167	0,5	0,790400
25,508500	0,5	0,790850
25,516833	0,5	0,788200
25,525167	0,5	0,791650
25,533500	0,5	0,794900
25,541833	0,5	0,803550
25,550167	0,5	0,801450
25,558500	0,5	0,802900
25,566833	0,5	0,796200
25,575167	0,5	0,798250
25,583500	0,5	0,802150
25,591833	0,5	0,806500
25,600167	0,5	0,811950
25,608500	0,5	0,812250
25,616833	0,5	0,810550
25,625167	0,5	0,812100
25,633500	0,5	0,809700
25,641833	0,5	0,808350
25,650167	0,5	0,813900
25,658500	0,5	0,816100
25,666833	0,5	0,818300
25,675167	0,5	0,815050
25,683500	0,5	0,823400
25,691833	0,5	0,823400
25,700167	0,5	0,830500
25,708500	0,5	0,826000
25,716833	0,5	0,821450
25,725167	0,5	0,820550
25,733500	0,5	0,826700
25,741833	0,5	0,834350
25,750167	0,5	0,835700
25,758500	0,5	0,831850
25,766833	0,5	0,834850
25,775167	0,5	0,838450
25,783500	0,5	0,841000
25,791833	0,5	0,840900
25,800167	0,5	0,837750
25,808500	0,5	0,840550
25,816833	0,5	0,846800
25,825167	0,5	0,856350
25,833500	0,5	0,856800
25,841833	0,5	0,863250
25,850167	0,5	0,869100
25,858500	0,5	0,859350
25,866833	0,5	0,856150
25,875167	0,5	0,858900
25,883500	0,5	0,870600
25,891833	0,5	0,879750
25,900167	0,5	0,874500
25,908500	0,5	0,877000
25,916833	0,5	0,873750
25,925167	0,5	0,882600
25,933500	0,5	0,876050
25,941833	0,5	0,886850
25,950167	0,5	0,880850
25,958500	0,5	0,882300
25,966833	0,5	0,886300
25,975167	0,5	0,891500
25,983500	0,5	0,893700
25,991833	0,5	0,905250
26,000167	0,5	0,907000
