File Path	chrom://chromeleon01/ikbm_chromeleon/2022/ICS-5000/ED1/Esteban/20220427_Cell_Amandas_mutants.seq/313.smp/ED_1.channel/ED_1.chm
Channel	ED_1

Injection Information:
Data Vault	ikbm_chromeleon
Injection	Std_C1ox_0,01
Injection Number	36
Position	RA1
Comment	
Processing Method	Stop sequence after Cell Death
Instrument Method	ICS5000_PA200_FullNative_Ox_26min_ED1
Type	Unknown
Status	Finished
Injection Date	28.04.2022
Injection Time	05:38:08
Injection Volume (µl)	5,0
Dilution Factor	1,0000
Weight	1,0000

Chromatogram Data Information:
Time Min. (min)	0,000167
Time Max. (min)	26,000167
Data Points	3121
Detector	EDet1
Generating Data System	Chromeleon 7.2.9.11323
Exporting Data System	Chromeleon 7.2.9.0
Operator	Instrument Controller
Signal Quantity	
Signal Unit	nC
Signal Min.	-8,004950
Signal Max.	71,484101
Channel	ED_1
Driver Name	DC-5000
Channel Type	Evaluation
Min. Step (s)	0,5
Max. Step (s)	0,5
Average Step (s)	0,5

Signal Parameter Information:
Signal Info	

Chromatogram Data:
Time (min)	Step (s)	Value (nC)
0,000167	n.a.	-0,075200
0,008500	0,5	-0,095400
0,016833	0,5	-0,094000
0,025167	0,5	-0,076850
0,033500	0,5	-0,063650
0,041833	0,5	-0,058700
0,050167	0,5	-0,029550
0,058500	0,5	-0,043100
0,066833	0,5	-0,022700
0,075167	0,5	0,002700
0,083500	0,5	-0,022000
0,091833	0,5	-0,040150
0,100167	0,5	-0,023500
0,108500	0,5	-0,003800
0,116833	0,5	0,027750
0,125167	0,5	0,002250
0,133500	0,5	0,011450
0,141833	0,5	0,002650
0,150167	0,5	0,007150
0,158500	0,5	-0,004250
0,166833	0,5	0,007650
0,175167	0,5	-0,000800
0,183500	0,5	-0,007300
0,191833	0,5	-0,005450
0,200167	0,5	-0,003200
0,208500	0,5	-0,025050
0,216833	0,5	-0,007050
0,225167	0,5	-0,007900
0,233500	0,5	-0,020100
0,241833	0,5	-0,030700
0,250167	0,5	-0,017400
0,258500	0,5	0,019550
0,266833	0,5	0,026000
0,275167	0,5	0,016700
0,283500	0,5	0,003300
0,291833	0,5	0,013550
0,300167	0,5	0,005900
0,308500	0,5	0,020350
0,316833	0,5	-0,001650
0,325167	0,5	-0,011750
0,333500	0,5	-0,019200
0,341833	0,5	-0,008650
0,350167	0,5	0,001050
0,358500	0,5	-0,012300
0,366833	0,5	0,010550
0,375167	0,5	-0,009950
0,383500	0,5	-0,021600
0,391833	0,5	-0,029350
0,400167	0,5	-0,017750
0,408500	0,5	0,020550
0,416833	0,5	0,018300
0,425167	0,5	0,000850
0,433500	0,5	0,008450
0,441833	0,5	0,002900
0,450167	0,5	-0,007350
0,458500	0,5	-0,010450
0,466833	0,5	-0,000800
0,475167	0,5	-0,019650
0,483500	0,5	-0,009600
0,491833	0,5	-0,014200
0,500167	0,5	-0,016050
0,508500	0,5	-0,037800
0,516833	0,5	-0,004100
0,525167	0,5	-0,029200
0,533500	0,5	-0,022250
0,541833	0,5	-0,027650
0,550167	0,5	-0,006700
0,558500	0,5	0,030200
0,566833	0,5	0,017250
0,575167	0,5	0,003700
0,583500	0,5	0,003950
0,591833	0,5	0,006250
0,600167	0,5	0,001550
0,608500	0,5	0,006050
0,616833	0,5	-0,002550
0,625167	0,5	0,006200
0,633500	0,5	0,003000
0,641833	0,5	-0,008050
0,650167	0,5	-0,026550
0,658500	0,5	-0,016450
0,666833	0,5	-0,007700
0,675167	0,5	-0,027750
0,683500	0,5	-0,029450
0,691833	0,5	-0,025800
0,700167	0,5	0,010050
0,708500	0,5	0,049850
0,716833	0,5	0,036300
0,725167	0,5	0,048050
0,733500	0,5	0,041900
0,741833	0,5	0,038550
0,750167	0,5	0,028100
0,758500	0,5	0,027800
0,766833	0,5	0,023050
0,775167	0,5	0,027800
0,783500	0,5	0,036450
0,791833	0,5	0,014300
0,800167	0,5	0,014300
0,808500	0,5	0,035750
0,816833	0,5	0,029200
0,825167	0,5	0,020450
0,833500	0,5	0,030800
0,841833	0,5	0,039100
0,850167	0,5	0,076950
0,858500	0,5	0,086500
0,866833	0,5	0,084850
0,875167	0,5	0,066150
0,883500	0,5	0,073700
0,891833	0,5	0,062200
0,900167	0,5	0,074500
0,908500	0,5	0,073450
0,916833	0,5	0,071850
0,925167	0,5	0,072650
0,933500	0,5	0,078200
0,941833	0,5	0,069150
0,950167	0,5	0,071350
0,958500	0,5	0,085250
0,966833	0,5	0,076850
0,975167	0,5	0,062650
0,983500	0,5	0,069700
0,991833	0,5	0,093250
1,000167	0,5	0,117650
1,008500	0,5	0,128800
1,016833	0,5	0,113500
1,025167	0,5	0,136800
1,033500	0,5	0,127700
1,041833	0,5	0,127600
1,050167	0,5	0,120850
1,058500	0,5	0,126450
1,066833	0,5	0,119250
1,075167	0,5	0,124800
1,083500	0,5	0,130500
1,091833	0,5	0,121450
1,100167	0,5	0,132350
1,108500	0,5	0,150750
1,116833	0,5	0,131900
1,125167	0,5	0,134950
1,133500	0,5	0,146500
1,141833	0,5	0,179800
1,150167	0,5	0,203200
1,158500	0,5	0,185350
1,166833	0,5	0,187250
1,175167	0,5	0,183450
1,183500	0,5	0,192950
1,191833	0,5	0,189500
1,200167	0,5	0,207000
1,208500	0,5	0,202100
1,216833	0,5	0,209950
1,225167	0,5	0,225100
1,233500	0,5	0,222200
1,241833	0,5	0,196200
1,250167	0,5	0,232750
1,258500	0,5	0,223450
1,266833	0,5	0,222850
1,275167	0,5	0,225950
1,283500	0,5	0,242150
1,291833	0,5	0,283900
1,300167	0,5	0,297250
1,308500	0,5	0,292850
1,316833	0,5	0,298250
1,325167	0,5	0,319500
1,333500	0,5	0,314300
1,341833	0,5	0,321200
1,350167	0,5	0,324300
1,358500	0,5	0,329900
1,366833	0,5	0,325000
1,375167	0,5	0,346600
1,383500	0,5	0,341900
1,391833	0,5	0,341250
1,400167	0,5	0,381950
1,408500	0,5	0,364200
1,416833	0,5	0,361400
1,425167	0,5	0,377900
1,433500	0,5	0,398750
1,441833	0,5	0,448150
1,450167	0,5	0,441450
1,458500	0,5	0,430700
1,466833	0,5	0,439500
1,475167	0,5	0,444950
1,483500	0,5	0,447300
1,491833	0,5	0,454850
1,500167	0,5	0,463900
1,508500	0,5	0,466300
1,516833	0,5	0,483100
1,525167	0,5	0,493000
1,533500	0,5	0,502950
1,541833	0,5	0,490750
1,550167	0,5	0,519600
1,558500	0,5	0,473450
1,566833	0,5	0,366600
1,575167	0,5	-0,056700
1,583500	0,5	-1,131450
1,591833	0,5	-2,472700
1,600167	0,5	-2,887750
1,608500	0,5	-1,632600
1,616833	0,5	0,251300
1,625167	0,5	1,688000
1,633500	0,5	3,020650
1,641833	0,5	4,333850
1,650167	0,5	5,030050
1,658500	0,5	4,807400
1,666833	0,5	4,120200
1,675167	0,5	3,478150
1,683500	0,5	2,977550
1,691833	0,5	2,613800
1,700167	0,5	2,331550
1,708500	0,5	2,132300
1,716833	0,5	2,100850
1,725167	0,5	2,311700
1,733500	0,5	2,630950
1,741833	0,5	2,750250
1,750167	0,5	2,499850
1,758500	0,5	2,133400
1,766833	0,5	1,797200
1,775167	0,5	1,572450
1,783500	0,5	1,442200
1,791833	0,5	1,425150
1,800167	0,5	1,463750
1,808500	0,5	1,525300
1,816833	0,5	1,582200
1,825167	0,5	1,574950
1,833500	0,5	1,552250
1,841833	0,5	1,553650
1,850167	0,5	1,537750
1,858500	0,5	1,505150
1,866833	0,5	1,459950
1,875167	0,5	1,404700
1,883500	0,5	1,379250
1,891833	0,5	1,330850
1,900167	0,5	1,297900
1,908500	0,5	1,274750
1,916833	0,5	1,279900
1,925167	0,5	1,249200
1,933500	0,5	1,217350
1,941833	0,5	1,192600
1,950167	0,5	1,223550
1,958500	0,5	1,278150
1,966833	0,5	1,315150
1,975167	0,5	1,281450
1,983500	0,5	1,262250
1,991833	0,5	1,279450
2,000167	0,5	1,297250
2,008500	0,5	1,329300
2,016833	0,5	1,428150
2,025167	0,5	1,727600
2,033500	0,5	2,426900
2,041833	0,5	3,694200
2,050167	0,5	5,531600
2,058500	0,5	8,594700
2,066833	0,5	14,978050
2,075167	0,5	25,417000
2,083500	0,5	34,452051
2,091833	0,5	35,607001
2,100167	0,5	29,865400
2,108500	0,5	22,552450
2,116833	0,5	16,771950
2,125167	0,5	12,904150
2,133500	0,5	10,454550
2,141833	0,5	8,894550
2,150167	0,5	7,851100
2,158500	0,5	7,106550
2,166833	0,5	6,549050
2,175167	0,5	6,161350
2,183500	0,5	5,875400
2,191833	0,5	5,655600
2,200167	0,5	5,518950
2,208500	0,5	5,459150
2,216833	0,5	5,451050
2,225167	0,5	5,468800
2,233500	0,5	5,506650
2,241833	0,5	5,559750
2,250167	0,5	5,650900
2,258500	0,5	5,743900
2,266833	0,5	5,828500
2,275167	0,5	5,893650
2,283500	0,5	6,022400
2,291833	0,5	6,106600
2,300167	0,5	6,223900
2,308500	0,5	6,345800
2,316833	0,5	6,490800
2,325167	0,5	6,658100
2,333500	0,5	6,783100
2,341833	0,5	6,910500
2,350167	0,5	7,058450
2,358500	0,5	7,202000
2,366833	0,5	7,343750
2,375167	0,5	7,485850
2,383500	0,5	7,630400
2,391833	0,5	7,769450
2,400167	0,5	7,903850
2,408500	0,5	8,051050
2,416833	0,5	8,170300
2,425167	0,5	8,303100
2,433500	0,5	8,467700
2,441833	0,5	8,593100
2,450167	0,5	8,722850
2,458500	0,5	8,863200
2,466833	0,5	8,994500
2,475167	0,5	9,149600
2,483500	0,5	9,212450
2,491833	0,5	9,250550
2,500167	0,5	9,269050
2,508500	0,5	9,307500
2,516833	0,5	9,350550
2,525167	0,5	9,406800
2,533500	0,5	9,446150
2,541833	0,5	9,481400
2,550167	0,5	9,516300
2,558500	0,5	9,540050
2,566833	0,5	9,556800
2,575167	0,5	9,555150
2,583500	0,5	9,565350
2,591833	0,5	9,537650
2,600167	0,5	9,524550
2,608500	0,5	9,501200
2,616833	0,5	9,499300
2,625167	0,5	9,487150
2,633500	0,5	9,442150
2,641833	0,5	9,387850
2,650167	0,5	9,348900
2,658500	0,5	9,287200
2,666833	0,5	9,234100
2,675167	0,5	9,166350
2,683500	0,5	9,099100
2,691833	0,5	9,020200
2,700167	0,5	8,941900
2,708500	0,5	8,864400
2,716833	0,5	8,783600
2,725167	0,5	8,722050
2,733500	0,5	8,671100
2,741833	0,5	8,609000
2,750167	0,5	8,579450
2,758500	0,5	8,592250
2,766833	0,5	8,680900
2,775167	0,5	8,888550
2,783500	0,5	9,226450
2,791833	0,5	9,759600
2,800167	0,5	10,354900
2,808500	0,5	10,820450
2,816833	0,5	10,960650
2,825167	0,5	10,741050
2,833500	0,5	10,268350
2,841833	0,5	9,783600
2,850167	0,5	9,457400
2,858500	0,5	9,382050
2,866833	0,5	9,672200
2,875167	0,5	10,348100
2,883500	0,5	11,188950
2,891833	0,5	11,911500
2,900167	0,5	12,186000
2,908500	0,5	11,868650
2,916833	0,5	11,085600
2,925167	0,5	10,056950
2,933500	0,5	9,042650
2,941833	0,5	8,195500
2,950167	0,5	7,537850
2,958500	0,5	7,011100
2,966833	0,5	6,588850
2,975167	0,5	6,226950
2,983500	0,5	5,920750
2,991833	0,5	5,645450
3,000167	0,5	5,413550
3,008500	0,5	5,176050
3,016833	0,5	4,992500
3,025167	0,5	4,816700
3,033500	0,5	4,640350
3,041833	0,5	4,473100
3,050167	0,5	4,329100
3,058500	0,5	4,207000
3,066833	0,5	4,086350
3,075167	0,5	3,968350
3,083500	0,5	3,846650
3,091833	0,5	3,742250
3,100167	0,5	3,624450
3,108500	0,5	3,510650
3,116833	0,5	3,401600
3,125167	0,5	3,280200
3,133500	0,5	3,154350
3,141833	0,5	3,045700
3,150167	0,5	2,926350
3,158500	0,5	2,814850
3,166833	0,5	2,728000
3,175167	0,5	2,635100
3,183500	0,5	2,529050
3,191833	0,5	2,436650
3,200167	0,5	2,357350
3,208500	0,5	2,318450
3,216833	0,5	2,252000
3,225167	0,5	2,172450
3,233500	0,5	2,089250
3,241833	0,5	2,012200
3,250167	0,5	1,925100
3,258500	0,5	1,846850
3,266833	0,5	1,773400
3,275167	0,5	1,699300
3,283500	0,5	1,634800
3,291833	0,5	1,566850
3,300167	0,5	1,498150
3,308500	0,5	1,423000
3,316833	0,5	1,394600
3,325167	0,5	1,331600
3,333500	0,5	1,272450
3,341833	0,5	1,218950
3,350167	0,5	1,176950
3,358500	0,5	1,159050
3,366833	0,5	1,102150
3,375167	0,5	1,046100
3,383500	0,5	1,005700
3,391833	0,5	0,960450
3,400167	0,5	0,929950
3,408500	0,5	0,888550
3,416833	0,5	0,850950
3,425167	0,5	0,810500
3,433500	0,5	0,775850
3,441833	0,5	0,752200
3,450167	0,5	0,694100
3,458500	0,5	0,656050
3,466833	0,5	0,654700
3,475167	0,5	0,607850
3,483500	0,5	0,572850
3,491833	0,5	0,560400
3,500167	0,5	0,551650
3,508500	0,5	0,563750
3,516833	0,5	0,527500
3,525167	0,5	0,523550
3,533500	0,5	0,505650
3,541833	0,5	0,501900
3,550167	0,5	0,487650
3,558500	0,5	0,495900
3,566833	0,5	0,490350
3,575167	0,5	0,498650
3,583500	0,5	0,508400
3,591833	0,5	0,511350
3,600167	0,5	0,494850
3,608500	0,5	0,493650
3,616833	0,5	0,483700
3,625167	0,5	0,455500
3,633500	0,5	0,423900
3,641833	0,5	0,403550
3,650167	0,5	0,396200
3,658500	0,5	0,383850
3,666833	0,5	0,361650
3,675167	0,5	0,324650
3,683500	0,5	0,316950
3,691833	0,5	0,288950
3,700167	0,5	0,274950
3,708500	0,5	0,257100
3,716833	0,5	0,242850
3,725167	0,5	0,229300
3,733500	0,5	0,219950
3,741833	0,5	0,207500
3,750167	0,5	0,191150
3,758500	0,5	0,197650
3,766833	0,5	0,198750
3,775167	0,5	0,191000
3,783500	0,5	0,204100
3,791833	0,5	0,245350
3,800167	0,5	0,312200
3,808500	0,5	0,388700
3,816833	0,5	0,446050
3,825167	0,5	0,530550
3,833500	0,5	0,591450
3,841833	0,5	0,628700
3,850167	0,5	0,635350
3,858500	0,5	0,618650
3,866833	0,5	0,564850
3,875167	0,5	0,512350
3,883500	0,5	0,452150
3,891833	0,5	0,382250
3,900167	0,5	0,322450
3,908500	0,5	0,293100
3,916833	0,5	0,247800
3,925167	0,5	0,225600
3,933500	0,5	0,203400
3,941833	0,5	0,208000
3,950167	0,5	0,214800
3,958500	0,5	0,209350
3,966833	0,5	0,198850
3,975167	0,5	0,199850
3,983500	0,5	0,192650
3,991833	0,5	0,192250
4,000167	0,5	0,199600
4,008500	0,5	0,198050
4,016833	0,5	0,214200
4,025167	0,5	0,227600
4,033500	0,5	0,242750
4,041833	0,5	0,239400
4,050167	0,5	0,269400
4,058500	0,5	0,295100
4,066833	0,5	0,305450
4,075167	0,5	0,307950
4,083500	0,5	0,314700
4,091833	0,5	0,325850
4,100167	0,5	0,323000
4,108500	0,5	0,299550
4,116833	0,5	0,279850
4,125167	0,5	0,262850
4,133500	0,5	0,248600
4,141833	0,5	0,228950
4,150167	0,5	0,216950
4,158500	0,5	0,208550
4,166833	0,5	0,202200
4,175167	0,5	0,201100
4,183500	0,5	0,186200
4,191833	0,5	0,177000
4,200167	0,5	0,195550
4,208500	0,5	0,200450
4,216833	0,5	0,181400
4,225167	0,5	0,184900
4,233500	0,5	0,193600
4,241833	0,5	0,227550
4,250167	0,5	0,231500
4,258500	0,5	0,238450
4,266833	0,5	0,230250
4,275167	0,5	0,245900
4,283500	0,5	0,249100
4,291833	0,5	0,264750
4,300167	0,5	0,282700
4,308500	0,5	0,308100
4,316833	0,5	0,340750
4,325167	0,5	0,379050
4,333500	0,5	0,422250
4,341833	0,5	0,457950
4,350167	0,5	0,530400
4,358500	0,5	0,572500
4,366833	0,5	0,623350
4,375167	0,5	0,692400
4,383500	0,5	0,778150
4,391833	0,5	0,890350
4,400167	0,5	1,003100
4,408500	0,5	1,135750
4,416833	0,5	1,326300
4,425167	0,5	1,555400
4,433500	0,5	1,842650
4,441833	0,5	2,157250
4,450167	0,5	2,514200
4,458500	0,5	2,873050
4,466833	0,5	3,237200
4,475167	0,5	3,568750
4,483500	0,5	3,817000
4,491833	0,5	3,978600
4,500167	0,5	4,048900
4,508500	0,5	3,957150
4,516833	0,5	3,766200
4,525167	0,5	3,497300
4,533500	0,5	3,187700
4,541833	0,5	2,865550
4,550167	0,5	2,505800
4,558500	0,5	2,195350
4,566833	0,5	1,932700
4,575167	0,5	1,728450
4,583500	0,5	1,562100
4,591833	0,5	1,453100
4,600167	0,5	1,374650
4,608500	0,5	1,339250
4,616833	0,5	1,334350
4,625167	0,5	1,357100
4,633500	0,5	1,407500
4,641833	0,5	1,534950
4,650167	0,5	1,714650
4,658500	0,5	1,965400
4,666833	0,5	2,296950
4,675167	0,5	2,721750
4,683500	0,5	3,227600
4,691833	0,5	3,762850
4,700167	0,5	4,277250
4,708500	0,5	4,733150
4,716833	0,5	5,087400
4,725167	0,5	5,276800
4,733500	0,5	5,306100
4,741833	0,5	5,155950
4,750167	0,5	4,851900
4,758500	0,5	4,435150
4,766833	0,5	3,981750
4,775167	0,5	3,502100
4,783500	0,5	3,047150
4,791833	0,5	2,657800
4,800167	0,5	2,308100
4,808500	0,5	2,022800
4,816833	0,5	1,799000
4,825167	0,5	1,627300
4,833500	0,5	1,510600
4,841833	0,5	1,412850
4,850167	0,5	1,314950
4,858500	0,5	1,235150
4,866833	0,5	1,177400
4,875167	0,5	1,122150
4,883500	0,5	1,079600
4,891833	0,5	1,044250
4,900167	0,5	1,012350
4,908500	0,5	0,993400
4,916833	0,5	0,972650
4,925167	0,5	0,958600
4,933500	0,5	0,941450
4,941833	0,5	0,953550
4,950167	0,5	0,926950
4,958500	0,5	0,919200
4,966833	0,5	0,913550
4,975167	0,5	0,929250
4,983500	0,5	0,951250
4,991833	0,5	0,955450
5,000167	0,5	0,948050
5,008500	0,5	0,953450
5,016833	0,5	0,949150
5,025167	0,5	0,957700
5,033500	0,5	0,960000
5,041833	0,5	0,965600
5,050167	0,5	0,972000
5,058500	0,5	0,973250
5,066833	0,5	0,972150
5,075167	0,5	0,964600
5,083500	0,5	0,969200
5,091833	0,5	0,974950
5,100167	0,5	0,971400
5,108500	0,5	0,974000
5,116833	0,5	0,984050
5,125167	0,5	1,002000
5,133500	0,5	1,027300
5,141833	0,5	1,028600
5,150167	0,5	1,037300
5,158500	0,5	1,040400
5,166833	0,5	1,041650
5,175167	0,5	1,047200
5,183500	0,5	1,056300
5,191833	0,5	1,059350
5,200167	0,5	1,063700
5,208500	0,5	1,079350
5,216833	0,5	1,081350
5,225167	0,5	1,086350
5,233500	0,5	1,114500
5,241833	0,5	1,117300
5,250167	0,5	1,107150
5,258500	0,5	1,113950
5,266833	0,5	1,113000
5,275167	0,5	1,144000
5,283500	0,5	1,142450
5,291833	0,5	1,143850
5,300167	0,5	1,133550
5,308500	0,5	1,141000
5,316833	0,5	1,137650
5,325167	0,5	1,139100
5,333500	0,5	1,138650
5,341833	0,5	1,142450
5,350167	0,5	1,145100
5,358500	0,5	1,147300
5,366833	0,5	1,147450
5,375167	0,5	1,150000
5,383500	0,5	1,164400
5,391833	0,5	1,156700
5,400167	0,5	1,147250
5,408500	0,5	1,156100
5,416833	0,5	1,166700
5,425167	0,5	1,189150
5,433500	0,5	1,192900
5,441833	0,5	1,183050
5,450167	0,5	1,194950
5,458500	0,5	1,193050
5,466833	0,5	1,199200
5,475167	0,5	1,198450
5,483500	0,5	1,205400
5,491833	0,5	1,202950
5,500167	0,5	1,208900
5,508500	0,5	1,212000
5,516833	0,5	1,201550
5,525167	0,5	1,202300
5,533500	0,5	1,216000
5,541833	0,5	1,201000
5,550167	0,5	1,198200
5,558500	0,5	1,196950
5,566833	0,5	1,206400
5,575167	0,5	1,214600
5,583500	0,5	1,199550
5,591833	0,5	1,193550
5,600167	0,5	1,192250
5,608500	0,5	1,186900
5,616833	0,5	1,179550
5,625167	0,5	1,180250
5,633500	0,5	1,172950
5,641833	0,5	1,168650
5,650167	0,5	1,172550
5,658500	0,5	1,165000
5,666833	0,5	1,148900
5,675167	0,5	1,149850
5,683500	0,5	1,145050
5,691833	0,5	1,137250
5,700167	0,5	1,136300
5,708500	0,5	1,141700
5,716833	0,5	1,153450
5,725167	0,5	1,159000
5,733500	0,5	1,148800
5,741833	0,5	1,140350
5,750167	0,5	1,144250
5,758500	0,5	1,136250
5,766833	0,5	1,129850
5,775167	0,5	1,126900
5,783500	0,5	1,120300
5,791833	0,5	1,111550
5,800167	0,5	1,110150
5,808500	0,5	1,097850
5,816833	0,5	1,088650
5,825167	0,5	1,091550
5,833500	0,5	1,074600
5,841833	0,5	1,063100
5,850167	0,5	1,055400
5,858500	0,5	1,058300
5,866833	0,5	1,072750
5,875167	0,5	1,059600
5,883500	0,5	1,050300
5,891833	0,5	1,037250
5,900167	0,5	1,031900
5,908500	0,5	1,018550
5,916833	0,5	1,010900
5,925167	0,5	1,000750
5,933500	0,5	0,989800
5,941833	0,5	0,984900
5,950167	0,5	0,979100
5,958500	0,5	0,975350
5,966833	0,5	0,966900
5,975167	0,5	0,964000
5,983500	0,5	0,947000
5,991833	0,5	0,935550
6,000167	0,5	0,926200
6,008500	0,5	0,935850
6,016833	0,5	0,940800
6,025167	0,5	0,941000
6,033500	0,5	0,927400
6,041833	0,5	0,923450
6,050167	0,5	0,909100
6,058500	0,5	0,910800
6,066833	0,5	0,907150
6,075167	0,5	0,901100
6,083500	0,5	0,893400
6,091833	0,5	0,891200
6,100167	0,5	0,885350
6,108500	0,5	0,874400
6,116833	0,5	0,873100
6,125167	0,5	0,873550
6,133500	0,5	0,864550
6,141833	0,5	0,858250
6,150167	0,5	0,859450
6,158500	0,5	0,876300
6,166833	0,5	0,885450
6,175167	0,5	0,878200
6,183500	0,5	0,887700
6,191833	0,5	0,875400
6,200167	0,5	0,876850
6,208500	0,5	0,865400
6,216833	0,5	0,861300
6,225167	0,5	0,854500
6,233500	0,5	0,853000
6,241833	0,5	0,848900
6,250167	0,5	0,838400
6,258500	0,5	0,833950
6,266833	0,5	0,850050
6,275167	0,5	0,843300
6,283500	0,5	0,835900
6,291833	0,5	0,838700
6,300167	0,5	0,843650
6,308500	0,5	0,864950
6,316833	0,5	0,873400
6,325167	0,5	0,878000
6,333500	0,5	0,874450
6,341833	0,5	0,877350
6,350167	0,5	0,875000
6,358500	0,5	0,882750
6,366833	0,5	0,887300
6,375167	0,5	0,890450
6,383500	0,5	0,891850
6,391833	0,5	0,894300
6,400167	0,5	0,893300
6,408500	0,5	0,894700
6,416833	0,5	0,904900
6,425167	0,5	0,909200
6,433500	0,5	0,908900
6,441833	0,5	0,919750
6,450167	0,5	0,935100
6,458500	0,5	0,962500
6,466833	0,5	0,974650
6,475167	0,5	0,976600
6,483500	0,5	0,986500
6,491833	0,5	0,985500
6,500167	0,5	0,992050
6,508500	0,5	0,993150
6,516833	0,5	1,001150
6,525167	0,5	0,998900
6,533500	0,5	1,004500
6,541833	0,5	1,007150
6,550167	0,5	1,011750
6,558500	0,5	1,023200
6,566833	0,5	1,028800
6,575167	0,5	1,025900
6,583500	0,5	1,026900
6,591833	0,5	1,035500
6,600167	0,5	1,059950
6,608500	0,5	1,079400
6,616833	0,5	1,079150
6,625167	0,5	1,088400
6,633500	0,5	1,105350
6,641833	0,5	1,114150
6,650167	0,5	1,133850
6,658500	0,5	1,150650
6,666833	0,5	1,166650
6,675167	0,5	1,190000
6,683500	0,5	1,212150
6,691833	0,5	1,243150
6,700167	0,5	1,259300
6,708500	0,5	1,305250
6,716833	0,5	1,340150
6,725167	0,5	1,393300
6,733500	0,5	1,455550
6,741833	0,5	1,548550
6,750167	0,5	1,662400
6,758500	0,5	1,794000
6,766833	0,5	1,938000
6,775167	0,5	2,107100
6,783500	0,5	2,295800
6,791833	0,5	2,508350
6,800167	0,5	2,739600
6,808500	0,5	2,977150
6,816833	0,5	3,205450
6,825167	0,5	3,403850
6,833500	0,5	3,548950
6,841833	0,5	3,596800
6,850167	0,5	3,561900
6,858500	0,5	3,460650
6,866833	0,5	3,280150
6,875167	0,5	3,068900
6,883500	0,5	2,869900
6,891833	0,5	2,694250
6,900167	0,5	2,572450
6,908500	0,5	2,472850
6,916833	0,5	2,446700
6,925167	0,5	2,467300
6,933500	0,5	2,574300
6,941833	0,5	2,769100
6,950167	0,5	3,095000
6,958500	0,5	3,553450
6,966833	0,5	4,169750
6,975167	0,5	4,906550
6,983500	0,5	5,694400
6,991833	0,5	6,433100
7,000167	0,5	7,004700
7,008500	0,5	7,313900
7,016833	0,5	7,284150
7,025167	0,5	6,950950
7,033500	0,5	6,392250
7,041833	0,5	5,715850
7,050167	0,5	5,008200
7,058500	0,5	4,345750
7,066833	0,5	3,774950
7,075167	0,5	3,324550
7,083500	0,5	2,967300
7,091833	0,5	2,705850
7,100167	0,5	2,505500
7,108500	0,5	2,350050
7,116833	0,5	2,229600
7,125167	0,5	2,139600
7,133500	0,5	2,065250
7,141833	0,5	2,003500
7,150167	0,5	1,960800
7,158500	0,5	1,917250
7,166833	0,5	1,884100
7,175167	0,5	1,861150
7,183500	0,5	1,846250
7,191833	0,5	1,838550
7,200167	0,5	1,835350
7,208500	0,5	1,821300
7,216833	0,5	1,811800
7,225167	0,5	1,803650
7,233500	0,5	1,794700
7,241833	0,5	1,781400
7,250167	0,5	1,771850
7,258500	0,5	1,759800
7,266833	0,5	1,752550
7,275167	0,5	1,748150
7,283500	0,5	1,736000
7,291833	0,5	1,727200
7,300167	0,5	1,726800
7,308500	0,5	1,719750
7,316833	0,5	1,712300
7,325167	0,5	1,710500
7,333500	0,5	1,718250
7,341833	0,5	1,721300
7,350167	0,5	1,727450
7,358500	0,5	1,726550
7,366833	0,5	1,727050
7,375167	0,5	1,725100
7,383500	0,5	1,719200
7,391833	0,5	1,718050
7,400167	0,5	1,718350
7,408500	0,5	1,719300
7,416833	0,5	1,725250
7,425167	0,5	1,726300
7,433500	0,5	1,726250
7,441833	0,5	1,737600
7,450167	0,5	1,753400
7,458500	0,5	1,752250
7,466833	0,5	1,748750
7,475167	0,5	1,753200
7,483500	0,5	1,765300
7,491833	0,5	1,770200
7,500167	0,5	1,780550
7,508500	0,5	1,807800
7,516833	0,5	1,856200
7,525167	0,5	1,936700
7,533500	0,5	2,054700
7,541833	0,5	2,215500
7,550167	0,5	2,409000
7,558500	0,5	2,645100
7,566833	0,5	2,909500
7,575167	0,5	3,198500
7,583500	0,5	3,516650
7,591833	0,5	3,886550
7,600167	0,5	4,337850
7,608500	0,5	4,953350
7,616833	0,5	5,881350
7,625167	0,5	7,347650
7,633500	0,5	9,641800
7,641833	0,5	12,975000
7,650167	0,5	17,379950
7,658500	0,5	22,511500
7,666833	0,5	27,593250
7,675167	0,5	31,609900
7,683500	0,5	33,707151
7,691833	0,5	33,444650
7,700167	0,5	30,955000
7,708500	0,5	26,904250
7,716833	0,5	22,190950
7,725167	0,5	17,622900
7,733500	0,5	13,689200
7,741833	0,5	10,612850
7,750167	0,5	8,323250
7,758500	0,5	6,695900
7,766833	0,5	5,548150
7,775167	0,5	4,749050
7,783500	0,5	4,182650
7,791833	0,5	3,762550
7,800167	0,5	3,436500
7,808500	0,5	3,196750
7,816833	0,5	3,003300
7,825167	0,5	2,855200
7,833500	0,5	2,736650
7,841833	0,5	2,636300
7,850167	0,5	2,554050
7,858500	0,5	2,479700
7,866833	0,5	2,412400
7,875167	0,5	2,350350
7,883500	0,5	2,296300
7,891833	0,5	2,256600
7,900167	0,5	2,204900
7,908500	0,5	2,167500
7,916833	0,5	2,128300
7,925167	0,5	2,102700
7,933500	0,5	2,084900
7,941833	0,5	2,052300
7,950167	0,5	2,031600
7,958500	0,5	2,009550
7,966833	0,5	1,990850
7,975167	0,5	1,968400
7,983500	0,5	1,954250
7,991833	0,5	1,939750
8,000167	0,5	1,926400
8,008500	0,5	1,913650
8,016833	0,5	1,904350
8,025167	0,5	1,892950
8,033500	0,5	1,893150
8,041833	0,5	1,883350
8,050167	0,5	1,877850
8,058500	0,5	1,873000
8,066833	0,5	1,869150
8,075167	0,5	1,880500
8,083500	0,5	1,895200
8,091833	0,5	1,910350
8,100167	0,5	1,928250
8,108500	0,5	1,960850
8,116833	0,5	2,005650
8,125167	0,5	2,071100
8,133500	0,5	2,147450
8,141833	0,5	2,235100
8,150167	0,5	2,317900
8,158500	0,5	2,413950
8,166833	0,5	2,531450
8,175167	0,5	2,700450
8,183500	0,5	2,924250
8,191833	0,5	3,170900
8,200167	0,5	3,379050
8,208500	0,5	3,490700
8,216833	0,5	3,480850
8,225167	0,5	3,394650
8,233500	0,5	3,282100
8,241833	0,5	3,229650
8,250167	0,5	3,337550
8,258500	0,5	3,697950
8,266833	0,5	4,359000
8,275167	0,5	5,286800
8,283500	0,5	6,315450
8,291833	0,5	7,142100
8,300167	0,5	7,519300
8,308500	0,5	7,321700
8,316833	0,5	6,650150
8,325167	0,5	5,734100
8,333500	0,5	4,819700
8,341833	0,5	4,051050
8,350167	0,5	3,476250
8,358500	0,5	3,071650
8,366833	0,5	2,801550
8,375167	0,5	2,612900
8,383500	0,5	2,478600
8,391833	0,5	2,370800
8,400167	0,5	2,289950
8,408500	0,5	2,225850
8,416833	0,5	2,174600
8,425167	0,5	2,141050
8,433500	0,5	2,119200
8,441833	0,5	2,109850
8,450167	0,5	2,117550
8,458500	0,5	2,141850
8,466833	0,5	2,174350
8,475167	0,5	2,211750
8,483500	0,5	2,237750
8,491833	0,5	2,236650
8,500167	0,5	2,201100
8,508500	0,5	2,150150
8,516833	0,5	2,094200
8,525167	0,5	2,036200
8,533500	0,5	1,982800
8,541833	0,5	1,942150
8,550167	0,5	1,911350
8,558500	0,5	1,893300
8,566833	0,5	1,877400
8,575167	0,5	1,865900
8,583500	0,5	1,851800
8,591833	0,5	1,838800
8,600167	0,5	1,830650
8,608500	0,5	1,823100
8,616833	0,5	1,811500
8,625167	0,5	1,804950
8,633500	0,5	1,798500
8,641833	0,5	1,788200
8,650167	0,5	1,776350
8,658500	0,5	1,765650
8,666833	0,5	1,759750
8,675167	0,5	1,753100
8,683500	0,5	1,748350
8,691833	0,5	1,739400
8,700167	0,5	1,731000
8,708500	0,5	1,728000
8,716833	0,5	1,719800
8,725167	0,5	1,720850
8,733500	0,5	1,720650
8,741833	0,5	1,728700
8,750167	0,5	1,732000
8,758500	0,5	1,746700
8,766833	0,5	1,752700
8,775167	0,5	1,765950
8,783500	0,5	1,758800
8,791833	0,5	1,757700
8,800167	0,5	1,754550
8,808500	0,5	1,763100
8,816833	0,5	1,780800
8,825167	0,5	1,804700
8,833500	0,5	1,822800
8,841833	0,5	1,831550
8,850167	0,5	1,826950
8,858500	0,5	1,811450
8,866833	0,5	1,799500
8,875167	0,5	1,811200
8,883500	0,5	1,853650
8,891833	0,5	1,961100
8,900167	0,5	2,158550
8,908500	0,5	2,461900
8,916833	0,5	2,879850
8,925167	0,5	3,419750
8,933500	0,5	4,066150
8,941833	0,5	4,825450
8,950167	0,5	5,715750
8,958500	0,5	6,839850
8,966833	0,5	8,417350
8,975167	0,5	10,858500
8,983500	0,5	14,826350
8,991833	0,5	21,084100
9,000167	0,5	30,098050
9,008500	0,5	41,447551
9,016833	0,5	53,540251
9,025167	0,5	63,941851
9,033500	0,5	70,357451
9,041833	0,5	71,484101
9,050167	0,5	67,366701
9,058500	0,5	59,308101
9,066833	0,5	49,269451
9,075167	0,5	39,067501
9,083500	0,5	30,019400
9,091833	0,5	22,751800
9,100167	0,5	17,349900
9,108500	0,5	13,561450
9,116833	0,5	11,035850
9,125167	0,5	9,376150
9,133500	0,5	8,275950
9,141833	0,5	7,495100
9,150167	0,5	6,881150
9,158500	0,5	6,392000
9,166833	0,5	6,061500
9,175167	0,5	5,998900
9,183500	0,5	6,304700
9,191833	0,5	7,014850
9,200167	0,5	8,001200
9,208500	0,5	8,980350
9,216833	0,5	9,604950
9,225167	0,5	9,623000
9,233500	0,5	9,023050
9,241833	0,5	7,992400
9,250167	0,5	6,814900
9,258500	0,5	5,724950
9,266833	0,5	4,844900
9,275167	0,5	4,191150
9,283500	0,5	3,726500
9,291833	0,5	3,387200
9,300167	0,5	3,128900
9,308500	0,5	2,932850
9,316833	0,5	2,757750
9,325167	0,5	2,617700
9,333500	0,5	2,499350
9,341833	0,5	2,398200
9,350167	0,5	2,311850
9,358500	0,5	2,238600
9,366833	0,5	2,171450
9,375167	0,5	2,115300
9,383500	0,5	2,054450
9,391833	0,5	2,004050
9,400167	0,5	1,961800
9,408500	0,5	1,928200
9,416833	0,5	1,892700
9,425167	0,5	1,858900
9,433500	0,5	1,827200
9,441833	0,5	1,801850
9,450167	0,5	1,781150
9,458500	0,5	1,754600
9,466833	0,5	1,739150
9,475167	0,5	1,714650
9,483500	0,5	1,709000
9,491833	0,5	1,706750
9,500167	0,5	1,714850
9,508500	0,5	1,724000
9,516833	0,5	1,743900
9,525167	0,5	1,768750
9,533500	0,5	1,781900
9,541833	0,5	1,785250
9,550167	0,5	1,768000
9,558500	0,5	1,736750
9,566833	0,5	1,691300
9,575167	0,5	1,639900
9,583500	0,5	1,588650
9,591833	0,5	1,550000
9,600167	0,5	1,511000
9,608500	0,5	1,483400
9,616833	0,5	1,462950
9,625167	0,5	1,440450
9,633500	0,5	1,424050
9,641833	0,5	1,412800
9,650167	0,5	1,396250
9,658500	0,5	1,386800
9,666833	0,5	1,375500
9,675167	0,5	1,362250
9,683500	0,5	1,350250
9,691833	0,5	1,338100
9,700167	0,5	1,336750
9,708500	0,5	1,332550
9,716833	0,5	1,329050
9,725167	0,5	1,324150
9,733500	0,5	1,315400
9,741833	0,5	1,312150
9,750167	0,5	1,306400
9,758500	0,5	1,304200
9,766833	0,5	1,303750
9,775167	0,5	1,301650
9,783500	0,5	1,304750
9,791833	0,5	1,310450
9,800167	0,5	1,310900
9,808500	0,5	1,315600
9,816833	0,5	1,317150
9,825167	0,5	1,316200
9,833500	0,5	1,308500
9,841833	0,5	1,304350
9,850167	0,5	1,302250
9,858500	0,5	1,300450
9,866833	0,5	1,296000
9,875167	0,5	1,292250
9,883500	0,5	1,287450
9,891833	0,5	1,280200
9,900167	0,5	1,280050
9,908500	0,5	1,275900
9,916833	0,5	1,281450
9,925167	0,5	1,282250
9,933500	0,5	1,290200
9,941833	0,5	1,295650
9,950167	0,5	1,299750
9,958500	0,5	1,315600
9,966833	0,5	1,320050
9,975167	0,5	1,335800
9,983500	0,5	1,352950
9,991833	0,5	1,382050
10,000167	0,5	1,426850
10,008500	0,5	1,505000
10,016833	0,5	1,601100
10,025167	0,5	1,751350
10,033500	0,5	1,946850
10,041833	0,5	2,190450
10,050167	0,5	2,496050
10,058500	0,5	2,852900
10,066833	0,5	3,275850
10,075167	0,5	3,796100
10,083500	0,5	4,510950
10,091833	0,5	5,555350
10,100167	0,5	7,185550
10,108500	0,5	9,704600
10,116833	0,5	13,362400
10,125167	0,5	18,159300
10,133500	0,5	23,693450
10,141833	0,5	29,142050
10,150167	0,5	33,457450
10,158500	0,5	35,730751
10,166833	0,5	35,560201
10,175167	0,5	33,088100
10,183500	0,5	28,954300
10,191833	0,5	24,027300
10,200167	0,5	19,099800
10,208500	0,5	14,755450
10,216833	0,5	11,253450
10,225167	0,5	8,625250
10,233500	0,5	6,735200
10,241833	0,5	5,408450
10,250167	0,5	4,486900
10,258500	0,5	3,833300
10,266833	0,5	3,364250
10,275167	0,5	3,015750
10,283500	0,5	2,752500
10,291833	0,5	2,551800
10,300167	0,5	2,401900
10,308500	0,5	2,281500
10,316833	0,5	2,179050
10,325167	0,5	2,098900
10,333500	0,5	2,035800
10,341833	0,5	1,981950
10,350167	0,5	1,932350
10,358500	0,5	1,898600
10,366833	0,5	1,865100
10,375167	0,5	1,841450
10,383500	0,5	1,821800
10,391833	0,5	1,799650
10,400167	0,5	1,791800
10,408500	0,5	1,781100
10,416833	0,5	1,774050
10,425167	0,5	1,777900
10,433500	0,5	1,792750
10,441833	0,5	1,819650
10,450167	0,5	1,856800
10,458500	0,5	1,896350
10,466833	0,5	1,925050
10,475167	0,5	1,942550
10,483500	0,5	1,935400
10,491833	0,5	1,910350
10,500167	0,5	1,866050
10,508500	0,5	1,804050
10,516833	0,5	1,750600
10,525167	0,5	1,688000
10,533500	0,5	1,636650
10,541833	0,5	1,588250
10,550167	0,5	1,553100
10,558500	0,5	1,518800
10,566833	0,5	1,483150
10,575167	0,5	1,454950
10,583500	0,5	1,427150
10,591833	0,5	1,404750
10,600167	0,5	1,394200
10,608500	0,5	1,373750
10,616833	0,5	1,362050
10,625167	0,5	1,349050
10,633500	0,5	1,340250
10,641833	0,5	1,332000
10,650167	0,5	1,324150
10,658500	0,5	1,324250
10,666833	0,5	1,321050
10,675167	0,5	1,332000
10,683500	0,5	1,333050
10,691833	0,5	1,350350
10,700167	0,5	1,368600
10,708500	0,5	1,377850
10,716833	0,5	1,382650
10,725167	0,5	1,380550
10,733500	0,5	1,367150
10,741833	0,5	1,359800
10,750167	0,5	1,343100
10,758500	0,5	1,325000
10,766833	0,5	1,313750
10,775167	0,5	1,305650
10,783500	0,5	1,295100
10,791833	0,5	1,278950
10,800167	0,5	1,269750
10,808500	0,5	1,257000
10,816833	0,5	1,239700
10,825167	0,5	1,241750
10,833500	0,5	1,227650
10,841833	0,5	1,228150
10,850167	0,5	1,226950
10,858500	0,5	1,222300
10,866833	0,5	1,219750
10,875167	0,5	1,204400
10,883500	0,5	1,206150
10,891833	0,5	1,200250
10,900167	0,5	1,201350
10,908500	0,5	1,190450
10,916833	0,5	1,186750
10,925167	0,5	1,179950
10,933500	0,5	1,184600
10,941833	0,5	1,203050
10,950167	0,5	1,236150
10,958500	0,5	1,292100
10,966833	0,5	1,380750
10,975167	0,5	1,520200
10,983500	0,5	1,704200
10,991833	0,5	1,962200
11,000167	0,5	2,267000
11,008500	0,5	2,635200
11,016833	0,5	3,079750
11,025167	0,5	3,634350
11,033500	0,5	4,404400
11,041833	0,5	5,542500
11,050167	0,5	7,310800
11,058500	0,5	10,029050
11,066833	0,5	13,962250
11,075167	0,5	19,096200
11,083500	0,5	24,979100
11,091833	0,5	30,689950
11,100167	0,5	35,132751
11,108500	0,5	37,373051
11,116833	0,5	37,016001
11,125167	0,5	34,281901
11,133500	0,5	29,882400
11,141833	0,5	24,714450
11,150167	0,5	19,609750
11,158500	0,5	15,120300
11,166833	0,5	11,514600
11,175167	0,5	8,789700
11,183500	0,5	6,835700
11,191833	0,5	5,448650
11,200167	0,5	4,478900
11,208500	0,5	3,789550
11,216833	0,5	3,301000
11,225167	0,5	2,934300
11,233500	0,5	2,662850
11,241833	0,5	2,457400
11,250167	0,5	2,291500
11,258500	0,5	2,159700
11,266833	0,5	2,048650
11,275167	0,5	1,952900
11,283500	0,5	1,876200
11,291833	0,5	1,813950
11,300167	0,5	1,757900
11,308500	0,5	1,707400
11,316833	0,5	1,663900
11,325167	0,5	1,638500
11,333500	0,5	1,625150
11,341833	0,5	1,619750
11,350167	0,5	1,617250
11,358500	0,5	1,622200
11,366833	0,5	1,626650
11,375167	0,5	1,633500
11,383500	0,5	1,635600
11,391833	0,5	1,638150
11,400167	0,5	1,638250
11,408500	0,5	1,635500
11,416833	0,5	1,623350
11,425167	0,5	1,608850
11,433500	0,5	1,595400
11,441833	0,5	1,584250
11,450167	0,5	1,565400
11,458500	0,5	1,548650
11,466833	0,5	1,526300
11,475167	0,5	1,518500
11,483500	0,5	1,505500
11,491833	0,5	1,493500
11,500167	0,5	1,473650
11,508500	0,5	1,452600
11,516833	0,5	1,423300
11,525167	0,5	1,402250
11,533500	0,5	1,372550
11,541833	0,5	1,343550
11,550167	0,5	1,324450
11,558500	0,5	1,302750
11,566833	0,5	1,282900
11,575167	0,5	1,263850
11,583500	0,5	1,250150
11,591833	0,5	1,239050
11,600167	0,5	1,222650
11,608500	0,5	1,214050
11,616833	0,5	1,204300
11,625167	0,5	1,209450
11,633500	0,5	1,224100
11,641833	0,5	1,231350
11,650167	0,5	1,256800
11,658500	0,5	1,281900
11,666833	0,5	1,309750
11,675167	0,5	1,343150
11,683500	0,5	1,371500
11,691833	0,5	1,403600
11,700167	0,5	1,431050
11,708500	0,5	1,447800
11,716833	0,5	1,449800
11,725167	0,5	1,451300
11,733500	0,5	1,446750
11,741833	0,5	1,451700
11,750167	0,5	1,461300
11,758500	0,5	1,492850
11,766833	0,5	1,560850
11,775167	0,5	1,671800
11,783500	0,5	1,816350
11,791833	0,5	2,007300
11,800167	0,5	2,246500
11,808500	0,5	2,558650
11,816833	0,5	2,958450
11,825167	0,5	3,545950
11,833500	0,5	4,437200
11,841833	0,5	5,832650
11,850167	0,5	7,919000
11,858500	0,5	10,796100
11,866833	0,5	14,329200
11,875167	0,5	18,114800
11,883500	0,5	21,460050
11,891833	0,5	23,676750
11,900167	0,5	24,295150
11,908500	0,5	23,241550
11,916833	0,5	20,834600
11,925167	0,5	17,622200
11,933500	0,5	14,229600
11,941833	0,5	11,115600
11,950167	0,5	8,554800
11,958500	0,5	6,598900
11,966833	0,5	5,190350
11,975167	0,5	4,202250
11,983500	0,5	3,517850
11,991833	0,5	3,027350
12,000167	0,5	2,682600
12,008500	0,5	2,420750
12,016833	0,5	2,221900
12,025167	0,5	2,062050
12,033500	0,5	1,933800
12,041833	0,5	1,823800
12,050167	0,5	1,737100
12,058500	0,5	1,664050
12,066833	0,5	1,612400
12,075167	0,5	1,569350
12,083500	0,5	1,535700
12,091833	0,5	1,507700
12,100167	0,5	1,490450
12,108500	0,5	1,479550
12,116833	0,5	1,468250
12,125167	0,5	1,463050
12,133500	0,5	1,450350
12,141833	0,5	1,443050
12,150167	0,5	1,431650
12,158500	0,5	1,424350
12,166833	0,5	1,409650
12,175167	0,5	1,409900
12,183500	0,5	1,397500
12,191833	0,5	1,389700
12,200167	0,5	1,378750
12,208500	0,5	1,373800
12,216833	0,5	1,379250
12,225167	0,5	1,374950
12,233500	0,5	1,368350
12,241833	0,5	1,371950
12,250167	0,5	1,367300
12,258500	0,5	1,361950
12,266833	0,5	1,359150
12,275167	0,5	1,351900
12,283500	0,5	1,350600
12,291833	0,5	1,349300
12,300167	0,5	1,359450
12,308500	0,5	1,355500
12,316833	0,5	1,366950
12,325167	0,5	1,362900
12,333500	0,5	1,360600
12,341833	0,5	1,349000
12,350167	0,5	1,330850
12,358500	0,5	1,314800
12,366833	0,5	1,307450
12,375167	0,5	1,287150
12,383500	0,5	1,275600
12,391833	0,5	1,262700
12,400167	0,5	1,248350
12,408500	0,5	1,243500
12,416833	0,5	1,240300
12,425167	0,5	1,244350
12,433500	0,5	1,245750
12,441833	0,5	1,264450
12,450167	0,5	1,275100
12,458500	0,5	1,298200
12,466833	0,5	1,326550
12,475167	0,5	1,348700
12,483500	0,5	1,372100
12,491833	0,5	1,394800
12,500167	0,5	1,425400
12,508500	0,5	1,459200
12,516833	0,5	1,497050
12,525167	0,5	1,544900
12,533500	0,5	1,592150
12,541833	0,5	1,647900
12,550167	0,5	1,694600
12,558500	0,5	1,737950
12,566833	0,5	1,762050
12,575167	0,5	1,762300
12,583500	0,5	1,735250
12,591833	0,5	1,695700
12,600167	0,5	1,626650
12,608500	0,5	1,562750
12,616833	0,5	1,497550
12,625167	0,5	1,431300
12,633500	0,5	1,367050
12,641833	0,5	1,309700
12,650167	0,5	1,277950
12,658500	0,5	1,263150
12,666833	0,5	1,253900
12,675167	0,5	1,261100
12,683500	0,5	1,277600
12,691833	0,5	1,296950
12,700167	0,5	1,320200
12,708500	0,5	1,343150
12,716833	0,5	1,367250
12,725167	0,5	1,390250
12,733500	0,5	1,409300
12,741833	0,5	1,423700
12,750167	0,5	1,421100
12,758500	0,5	1,422700
12,766833	0,5	1,399050
12,775167	0,5	1,361200
12,783500	0,5	1,314750
12,791833	0,5	1,244950
12,800167	0,5	1,196900
12,808500	0,5	1,146400
12,816833	0,5	1,096950
12,825167	0,5	1,055450
12,833500	0,5	1,015550
12,841833	0,5	0,986250
12,850167	0,5	0,957450
12,858500	0,5	0,933700
12,866833	0,5	0,914250
12,875167	0,5	0,896950
12,883500	0,5	0,884000
12,891833	0,5	0,880450
12,900167	0,5	0,866850
12,908500	0,5	0,874600
12,916833	0,5	0,880650
12,925167	0,5	0,886100
12,933500	0,5	0,887500
12,941833	0,5	0,887550
12,950167	0,5	0,907000
12,958500	0,5	0,909650
12,966833	0,5	0,914900
12,975167	0,5	0,917050
12,983500	0,5	0,916750
12,991833	0,5	0,905450
13,000167	0,5	0,893450
13,008500	0,5	0,872050
13,016833	0,5	0,848100
13,025167	0,5	0,822750
13,033500	0,5	0,804300
13,041833	0,5	0,774200
13,050167	0,5	0,764750
13,058500	0,5	0,764350
13,066833	0,5	0,772000
13,075167	0,5	0,781150
13,083500	0,5	0,803100
13,091833	0,5	0,830300
13,100167	0,5	0,871950
13,108500	0,5	0,900950
13,116833	0,5	0,899450
13,125167	0,5	0,886100
13,133500	0,5	0,852450
13,141833	0,5	0,805500
13,150167	0,5	0,764350
13,158500	0,5	0,727750
13,166833	0,5	0,688950
13,175167	0,5	0,670650
13,183500	0,5	0,658300
13,191833	0,5	0,645100
13,200167	0,5	0,658550
13,208500	0,5	0,670350
13,216833	0,5	0,689600
13,225167	0,5	0,716100
13,233500	0,5	0,725150
13,241833	0,5	0,756450
13,250167	0,5	0,784800
13,258500	0,5	0,800950
13,266833	0,5	0,794800
13,275167	0,5	0,788200
13,283500	0,5	0,774450
13,291833	0,5	0,756700
13,300167	0,5	0,747150
13,308500	0,5	0,725200
13,316833	0,5	0,720900
13,325167	0,5	0,704750
13,333500	0,5	0,704050
13,341833	0,5	0,691750
13,350167	0,5	0,718450
13,358500	0,5	0,729900
13,366833	0,5	0,744800
13,375167	0,5	0,748950
13,383500	0,5	0,742450
13,391833	0,5	0,754200
13,400167	0,5	0,765150
13,408500	0,5	0,778850
13,416833	0,5	0,822950
13,425167	0,5	0,872000
13,433500	0,5	0,937700
13,441833	0,5	0,996000
13,450167	0,5	1,038400
13,458500	0,5	1,049400
13,466833	0,5	1,019050
13,475167	0,5	0,972600
13,483500	0,5	0,899400
13,491833	0,5	0,845700
13,500167	0,5	0,800900
13,508500	0,5	0,767400
13,516833	0,5	0,749400
13,525167	0,5	0,738200
13,533500	0,5	0,746700
13,541833	0,5	0,783600
13,550167	0,5	0,827500
13,558500	0,5	0,890150
13,566833	0,5	0,955200
13,575167	0,5	1,015300
13,583500	0,5	1,051650
13,591833	0,5	1,056200
13,600167	0,5	1,022900
13,608500	0,5	0,957800
13,616833	0,5	0,882700
13,625167	0,5	0,808150
13,633500	0,5	0,725750
13,641833	0,5	0,670550
13,650167	0,5	0,625800
13,658500	0,5	0,582850
13,666833	0,5	0,552100
13,675167	0,5	0,519700
13,683500	0,5	0,505150
13,691833	0,5	0,495600
13,700167	0,5	0,496900
13,708500	0,5	0,487550
13,716833	0,5	0,488700
13,725167	0,5	0,488500
13,733500	0,5	0,481650
13,741833	0,5	0,480300
13,750167	0,5	0,473450
13,758500	0,5	0,475950
13,766833	0,5	0,476850
13,775167	0,5	0,482800
13,783500	0,5	0,491150
13,791833	0,5	0,501300
13,800167	0,5	0,513300
13,808500	0,5	0,512750
13,816833	0,5	0,499450
13,825167	0,5	0,496650
13,833500	0,5	0,493800
13,841833	0,5	0,495100
13,850167	0,5	0,489500
13,858500	0,5	0,497100
13,866833	0,5	0,507150
13,875167	0,5	0,526350
13,883500	0,5	0,543700
13,891833	0,5	0,570950
13,900167	0,5	0,590200
13,908500	0,5	0,601900
13,916833	0,5	0,622450
13,925167	0,5	0,623150
13,933500	0,5	0,626850
13,941833	0,5	0,622000
13,950167	0,5	0,616200
13,958500	0,5	0,605300
13,966833	0,5	0,593400
13,975167	0,5	0,600700
13,983500	0,5	0,623550
13,991833	0,5	0,629850
14,000167	0,5	0,639350
14,008500	0,5	0,642600
14,016833	0,5	0,641300
14,025167	0,5	0,629100
14,033500	0,5	0,624950
14,041833	0,5	0,615200
14,050167	0,5	0,589650
14,058500	0,5	0,579450
14,066833	0,5	0,561700
14,075167	0,5	0,527350
14,083500	0,5	0,526200
14,091833	0,5	0,541300
14,100167	0,5	0,589400
14,108500	0,5	0,653850
14,116833	0,5	0,743950
14,125167	0,5	0,856450
14,133500	0,5	0,944600
14,141833	0,5	0,987450
14,150167	0,5	0,971500
14,158500	0,5	0,928850
14,166833	0,5	0,853100
14,175167	0,5	0,784000
14,183500	0,5	0,722400
14,191833	0,5	0,679400
14,200167	0,5	0,657950
14,208500	0,5	0,676150
14,216833	0,5	0,713900
14,225167	0,5	0,776100
14,233500	0,5	0,864700
14,241833	0,5	0,942750
14,250167	0,5	0,976150
14,258500	0,5	0,973450
14,266833	0,5	0,927750
14,275167	0,5	0,877700
14,283500	0,5	0,814400
14,291833	0,5	0,759900
14,300167	0,5	0,717900
14,308500	0,5	0,686050
14,316833	0,5	0,657950
14,325167	0,5	0,629750
14,333500	0,5	0,603400
14,341833	0,5	0,564000
14,350167	0,5	0,522250
14,358500	0,5	0,490450
14,366833	0,5	0,461850
14,375167	0,5	0,434550
14,383500	0,5	0,434800
14,391833	0,5	0,419950
14,400167	0,5	0,413500
14,408500	0,5	0,406000
14,416833	0,5	0,396000
14,425167	0,5	0,406950
14,433500	0,5	0,411950
14,441833	0,5	0,410750
14,450167	0,5	0,412650
14,458500	0,5	0,414600
14,466833	0,5	0,424900
14,475167	0,5	0,432250
14,483500	0,5	0,442500
14,491833	0,5	0,443850
14,500167	0,5	0,444700
14,508500	0,5	0,436550
14,516833	0,5	0,401250
14,525167	0,5	0,388200
14,533500	0,5	0,366900
14,541833	0,5	0,345150
14,550167	0,5	0,316950
14,558500	0,5	0,284950
14,566833	0,5	0,269850
14,575167	0,5	0,266050
14,583500	0,5	0,259550
14,591833	0,5	0,257200
14,600167	0,5	0,253250
14,608500	0,5	0,259600
14,616833	0,5	0,258150
14,625167	0,5	0,261350
14,633500	0,5	0,259050
14,641833	0,5	0,253500
14,650167	0,5	0,257600
14,658500	0,5	0,255950
14,666833	0,5	0,267100
14,675167	0,5	0,312150
14,683500	0,5	0,379800
14,691833	0,5	0,472850
14,700167	0,5	0,582350
14,708500	0,5	0,686600
14,716833	0,5	0,775750
14,725167	0,5	0,810900
14,733500	0,5	0,783100
14,741833	0,5	0,711650
14,750167	0,5	0,632600
14,758500	0,5	0,544850
14,766833	0,5	0,503050
14,775167	0,5	0,499950
14,783500	0,5	0,541300
14,791833	0,5	0,609450
14,800167	0,5	0,691700
14,808500	0,5	0,734250
14,816833	0,5	0,752350
14,825167	0,5	0,720150
14,833500	0,5	0,650400
14,841833	0,5	0,554400
14,850167	0,5	0,448700
14,858500	0,5	0,374050
14,866833	0,5	0,324850
14,875167	0,5	0,294550
14,883500	0,5	0,253050
14,891833	0,5	0,238150
14,900167	0,5	0,217800
14,908500	0,5	0,207500
14,916833	0,5	0,204500
14,925167	0,5	0,211050
14,933500	0,5	0,217550
14,941833	0,5	0,225600
14,950167	0,5	0,242450
14,958500	0,5	0,225600
14,966833	0,5	0,234950
14,975167	0,5	0,227800
14,983500	0,5	0,216150
14,991833	0,5	0,198150
15,000167	0,5	0,169600
15,008500	0,5	0,167600
15,016833	0,5	0,165500
15,025167	0,5	0,148000
15,033500	0,5	0,124450
15,041833	0,5	0,102450
15,050167	0,5	0,078050
15,058500	0,5	0,049000
15,066833	0,5	0,038150
15,075167	0,5	0,023650
15,083500	0,5	0,012050
15,091833	0,5	0,013100
15,100167	0,5	0,014350
15,108500	0,5	-0,002150
15,116833	0,5	0,006200
15,125167	0,5	0,004800
15,133500	0,5	0,002150
15,141833	0,5	-0,009050
15,150167	0,5	-0,013900
15,158500	0,5	0,008250
15,166833	0,5	0,032200
15,175167	0,5	0,072400
15,183500	0,5	0,133750
15,191833	0,5	0,228750
15,200167	0,5	0,339200
15,208500	0,5	0,473050
15,216833	0,5	0,577950
15,225167	0,5	0,628200
15,233500	0,5	0,619550
15,241833	0,5	0,574150
15,250167	0,5	0,497050
15,258500	0,5	0,439500
15,266833	0,5	0,420750
15,275167	0,5	0,456100
15,283500	0,5	0,501400
15,291833	0,5	0,558800
15,300167	0,5	0,592500
15,308500	0,5	0,592000
15,316833	0,5	0,546900
15,325167	0,5	0,468850
15,333500	0,5	0,386000
15,341833	0,5	0,318600
15,350167	0,5	0,275500
15,358500	0,5	0,245450
15,366833	0,5	0,238600
15,375167	0,5	0,242500
15,383500	0,5	0,260600
15,391833	0,5	0,275200
15,400167	0,5	0,278600
15,408500	0,5	0,288800
15,416833	0,5	0,293300
15,425167	0,5	0,285850
15,433500	0,5	0,272150
15,441833	0,5	0,243050
15,450167	0,5	0,222750
15,458500	0,5	0,205400
15,466833	0,5	0,184400
15,475167	0,5	0,165500
15,483500	0,5	0,153900
15,491833	0,5	0,137000
15,500167	0,5	0,123500
15,508500	0,5	0,112100
15,516833	0,5	0,096550
15,525167	0,5	0,071650
15,533500	0,5	0,058150
15,541833	0,5	0,030500
15,550167	0,5	-0,011450
15,558500	0,5	-0,037200
15,566833	0,5	-0,077850
15,575167	0,5	-0,111200
15,583500	0,5	-0,151850
15,591833	0,5	-0,175450
15,600167	0,5	-0,186550
15,608500	0,5	-0,175450
15,616833	0,5	-0,167250
15,625167	0,5	-0,127150
15,633500	0,5	-0,057550
15,641833	0,5	0,053400
15,650167	0,5	0,206450
15,658500	0,5	0,354850
15,666833	0,5	0,480750
15,675167	0,5	0,564350
15,683500	0,5	0,583300
15,691833	0,5	0,531350
15,700167	0,5	0,473300
15,708500	0,5	0,446850
15,716833	0,5	0,434400
15,725167	0,5	0,451200
15,733500	0,5	0,454350
15,741833	0,5	0,453550
15,750167	0,5	0,428950
15,758500	0,5	0,356950
15,766833	0,5	0,274200
15,775167	0,5	0,183500
15,783500	0,5	0,106550
15,791833	0,5	0,040950
15,800167	0,5	-0,002150
15,808500	0,5	-0,039700
15,816833	0,5	-0,064200
15,825167	0,5	-0,064850
15,833500	0,5	-0,063150
15,841833	0,5	-0,067950
15,850167	0,5	-0,042750
15,858500	0,5	-0,028100
15,866833	0,5	-0,016650
15,875167	0,5	-0,020550
15,883500	0,5	-0,045250
15,891833	0,5	-0,052700
15,900167	0,5	-0,078600
15,908500	0,5	-0,109350
15,916833	0,5	-0,157550
15,925167	0,5	-0,196500
15,933500	0,5	-0,236300
15,941833	0,5	-0,268000
15,950167	0,5	-0,292200
15,958500	0,5	-0,315800
15,966833	0,5	-0,331950
15,975167	0,5	-0,339050
15,983500	0,5	-0,356500
15,991833	0,5	-0,364950
16,000167	0,5	-0,358450
16,008500	0,5	-0,360350
16,016833	0,5	-0,352450
16,025167	0,5	-0,341400
16,033500	0,5	-0,290100
16,041833	0,5	-0,186050
16,050167	0,5	-0,050250
16,058500	0,5	0,088450
16,066833	0,5	0,228800
16,075167	0,5	0,307650
16,083500	0,5	0,344200
16,091833	0,5	0,344150
16,100167	0,5	0,345200
16,108500	0,5	0,353450
16,116833	0,5	0,366850
16,125167	0,5	0,366450
16,133500	0,5	0,341100
16,141833	0,5	0,279550
16,150167	0,5	0,188900
16,158500	0,5	0,085550
16,166833	0,5	-0,018950
16,175167	0,5	-0,119450
16,183500	0,5	-0,178650
16,191833	0,5	-0,200000
16,200167	0,5	-0,225100
16,208500	0,5	-0,242400
16,216833	0,5	-0,247150
16,225167	0,5	-0,244450
16,233500	0,5	-0,246100
16,241833	0,5	-0,243750
16,250167	0,5	-0,259950
16,258500	0,5	-0,265900
16,266833	0,5	-0,280700
16,275167	0,5	-0,284450
16,283500	0,5	-0,330500
16,291833	0,5	-0,331950
16,300167	0,5	-0,355950
16,308500	0,5	-0,371800
16,316833	0,5	-0,401950
16,325167	0,5	-0,442650
16,333500	0,5	-0,454050
16,341833	0,5	-0,464600
16,350167	0,5	-0,478800
16,358500	0,5	-0,491450
16,366833	0,5	-0,500300
16,375167	0,5	-0,495450
16,383500	0,5	-0,474900
16,391833	0,5	-0,420450
16,400167	0,5	-0,338250
16,408500	0,5	-0,218350
16,416833	0,5	-0,061950
16,425167	0,5	0,082250
16,433500	0,5	0,180350
16,441833	0,5	0,247350
16,450167	0,5	0,269800
16,458500	0,5	0,262550
16,466833	0,5	0,244000
16,475167	0,5	0,203000
16,483500	0,5	0,193800
16,491833	0,5	0,150600
16,500167	0,5	0,083250
16,508500	0,5	0,004700
16,516833	0,5	-0,070950
16,525167	0,5	-0,131900
16,533500	0,5	-0,172550
16,541833	0,5	-0,185050
16,550167	0,5	-0,192800
16,558500	0,5	-0,182150
16,566833	0,5	-0,167700
16,575167	0,5	-0,163900
16,583500	0,5	-0,149750
16,591833	0,5	-0,114350
16,600167	0,5	-0,093100
16,608500	0,5	-0,068750
16,616833	0,5	-0,054750
16,625167	0,5	-0,032250
16,633500	0,5	0,009100
16,641833	0,5	0,039350
16,650167	0,5	0,055000
16,658500	0,5	0,063750
16,666833	0,5	0,049700
16,675167	0,5	0,023100
16,683500	0,5	-0,006350
16,691833	0,5	-0,049200
16,700167	0,5	-0,088650
16,708500	0,5	-0,120100
16,716833	0,5	-0,131350
16,725167	0,5	-0,139200
16,733500	0,5	-0,077950
16,741833	0,5	-0,003650
16,750167	0,5	0,089250
16,758500	0,5	0,150350
16,766833	0,5	0,189950
16,775167	0,5	0,207200
16,783500	0,5	0,206400
16,791833	0,5	0,194250
16,800167	0,5	0,173850
16,808500	0,5	0,136850
16,816833	0,5	0,076700
16,825167	0,5	0,000400
16,833500	0,5	-0,082900
16,841833	0,5	-0,154550
16,850167	0,5	-0,221950
16,858500	0,5	-0,252650
16,866833	0,5	-0,291150
16,875167	0,5	-0,314100
16,883500	0,5	-0,327400
16,891833	0,5	-0,334700
16,900167	0,5	-0,348200
16,908500	0,5	-0,379100
16,916833	0,5	-0,390500
16,925167	0,5	-0,394050
16,933500	0,5	-0,409450
16,941833	0,5	-0,421400
16,950167	0,5	-0,440550
16,958500	0,5	-0,456850
16,966833	0,5	-0,475600
16,975167	0,5	-0,484300
16,983500	0,5	-0,501200
16,991833	0,5	-0,498900
17,000167	0,5	-0,478500
17,008500	0,5	-0,450200
17,016833	0,5	-0,424900
17,025167	0,5	-0,346750
17,033500	0,5	-0,246100
17,041833	0,5	-0,135800
17,050167	0,5	-0,021850
17,058500	0,5	0,057950
17,066833	0,5	0,152000
17,075167	0,5	0,220800
17,083500	0,5	0,268650
17,091833	0,5	0,298500
17,100167	0,5	0,360250
17,108500	0,5	0,407000
17,116833	0,5	0,479100
17,125167	0,5	0,587600
17,133500	0,5	0,753050
17,141833	0,5	0,966600
17,150167	0,5	1,246900
17,158500	0,5	1,560700
17,166833	0,5	1,856450
17,175167	0,5	2,153650
17,183500	0,5	2,374850
17,191833	0,5	2,513950
17,200167	0,5	2,552700
17,208500	0,5	2,490950
17,216833	0,5	2,370500
17,225167	0,5	2,186400
17,233500	0,5	1,943700
17,241833	0,5	1,693600
17,250167	0,5	1,439300
17,258500	0,5	1,205650
17,266833	0,5	0,993000
17,275167	0,5	0,814650
17,283500	0,5	0,674400
17,291833	0,5	0,577300
17,300167	0,5	0,543800
17,308500	0,5	0,531750
17,316833	0,5	0,535100
17,325167	0,5	0,558500
17,333500	0,5	0,556900
17,341833	0,5	0,534150
17,350167	0,5	0,486800
17,358500	0,5	0,438000
17,366833	0,5	0,402300
17,375167	0,5	0,335350
17,383500	0,5	0,269500
17,391833	0,5	0,207300
17,400167	0,5	0,180300
17,408500	0,5	0,154450
17,416833	0,5	0,171050
17,425167	0,5	0,188550
17,433500	0,5	0,235000
17,441833	0,5	0,292100
17,450167	0,5	0,360450
17,458500	0,5	0,399200
17,466833	0,5	0,452450
17,475167	0,5	0,485350
17,483500	0,5	0,485150
17,491833	0,5	0,447200
17,500167	0,5	0,392600
17,508500	0,5	0,338300
17,516833	0,5	0,277100
17,525167	0,5	0,202300
17,533500	0,5	0,140250
17,541833	0,5	0,106850
17,550167	0,5	0,086350
17,558500	0,5	0,091400
17,566833	0,5	0,106200
17,575167	0,5	0,120650
17,583500	0,5	0,127000
17,591833	0,5	0,120200
17,600167	0,5	0,090850
17,608500	0,5	0,044450
17,616833	0,5	-0,007450
17,625167	0,5	-0,071850
17,633500	0,5	-0,142650
17,641833	0,5	-0,216350
17,650167	0,5	-0,280800
17,658500	0,5	-0,318050
17,666833	0,5	-0,342850
17,675167	0,5	-0,373050
17,683500	0,5	-0,386800
17,691833	0,5	-0,415600
17,700167	0,5	-0,439000
17,708500	0,5	-0,460200
17,716833	0,5	-0,468400
17,725167	0,5	-0,489050
17,733500	0,5	-0,503150
17,741833	0,5	-0,505450
17,750167	0,5	-0,522400
17,758500	0,5	-0,518850
17,766833	0,5	-0,495300
17,775167	0,5	-0,465550
17,783500	0,5	-0,419450
17,791833	0,5	-0,389600
17,800167	0,5	-0,342050
17,808500	0,5	-0,294500
17,816833	0,5	-0,244900
17,825167	0,5	-0,236300
17,833500	0,5	-0,236300
17,841833	0,5	-0,262500
17,850167	0,5	-0,304350
17,858500	0,5	-0,341200
17,866833	0,5	-0,374800
17,875167	0,5	-0,402850
17,883500	0,5	-0,431900
17,891833	0,5	-0,454000
17,900167	0,5	-0,496300
17,908500	0,5	-0,501900
17,916833	0,5	-0,512700
17,925167	0,5	-0,524100
17,933500	0,5	-0,551050
17,941833	0,5	-0,574800
17,950167	0,5	-0,575200
17,958500	0,5	-0,563250
17,966833	0,5	-0,563350
17,975167	0,5	-0,551450
17,983500	0,5	-0,527600
17,991833	0,5	-0,482450
18,000167	0,5	-0,441750
18,008500	0,5	-0,389700
18,016833	0,5	-0,355000
18,025167	0,5	-0,350950
18,033500	0,5	-0,347950
18,041833	0,5	-0,385100
18,050167	0,5	-0,425250
18,058500	0,5	-0,461600
18,066833	0,5	-0,489450
18,075167	0,5	-0,522600
18,083500	0,5	-0,558550
18,091833	0,5	-0,602900
18,100167	0,5	-0,614750
18,108500	0,5	-0,630900
18,116833	0,5	-0,638250
18,125167	0,5	-0,651250
18,133500	0,5	-0,651950
18,141833	0,5	-0,657800
18,150167	0,5	-0,652750
18,158500	0,5	-0,636700
18,166833	0,5	-0,620550
18,175167	0,5	-0,582250
18,183500	0,5	-0,527150
18,191833	0,5	-0,501550
18,200167	0,5	-0,460550
18,208500	0,5	-0,433950
18,216833	0,5	-0,437800
18,225167	0,5	-0,471950
18,233500	0,5	-0,535350
18,241833	0,5	-0,557800
18,250167	0,5	-0,591700
18,258500	0,5	-0,608250
18,266833	0,5	-0,633400
18,275167	0,5	-0,640200
18,283500	0,5	-0,657800
18,291833	0,5	-0,666700
18,300167	0,5	-0,688100
18,308500	0,5	-0,694750
18,316833	0,5	-0,694600
18,325167	0,5	-0,698350
18,333500	0,5	-0,681000
18,341833	0,5	-0,681850
18,350167	0,5	-0,639050
18,358500	0,5	-0,610600
18,366833	0,5	-0,579750
18,375167	0,5	-0,572850
18,383500	0,5	-0,580400
18,391833	0,5	-0,581950
18,400167	0,5	-0,601700
18,408500	0,5	-0,630700
18,416833	0,5	-0,650100
18,425167	0,5	-0,671600
18,433500	0,5	-0,692850
18,441833	0,5	-0,698050
18,450167	0,5	-0,707050
18,458500	0,5	-0,724000
18,466833	0,5	-0,733200
18,475167	0,5	-0,726100
18,483500	0,5	-0,728350
18,491833	0,5	-0,738150
18,500167	0,5	-0,723300
18,508500	0,5	-0,713050
18,516833	0,5	-0,707650
18,525167	0,5	-0,708200
18,533500	0,5	-0,721600
18,541833	0,5	-0,687200
18,550167	0,5	-0,689350
18,558500	0,5	-0,688900
18,566833	0,5	-0,705700
18,575167	0,5	-0,720850
18,583500	0,5	-0,751550
18,591833	0,5	-0,766350
18,600167	0,5	-0,788950
18,608500	0,5	-0,799700
18,616833	0,5	-0,804500
18,625167	0,5	-0,791300
18,633500	0,5	-0,807000
18,641833	0,5	-0,812200
18,650167	0,5	-0,811350
18,658500	0,5	-0,812650
18,666833	0,5	-0,819550
18,675167	0,5	-0,817050
18,683500	0,5	-0,791250
18,691833	0,5	-0,761850
18,700167	0,5	-0,741750
18,708500	0,5	-0,751400
18,716833	0,5	-0,747800
18,725167	0,5	-0,762050
18,733500	0,5	-0,760950
18,741833	0,5	-0,764650
18,750167	0,5	-0,753700
18,758500	0,5	-0,750800
18,766833	0,5	-0,730900
18,775167	0,5	-0,725550
18,783500	0,5	-0,718800
18,791833	0,5	-0,701500
18,800167	0,5	-0,682150
18,808500	0,5	-0,676650
18,816833	0,5	-0,676200
18,825167	0,5	-0,683250
18,833500	0,5	-0,697050
18,841833	0,5	-0,704000
18,850167	0,5	-0,740750
18,858500	0,5	-0,781250
18,866833	0,5	-0,816650
18,875167	0,5	-0,852950
18,883500	0,5	-0,888200
18,891833	0,5	-0,901500
18,900167	0,5	-0,924450
18,908500	0,5	-0,924900
18,916833	0,5	-0,922400
18,925167	0,5	-0,913300
18,933500	0,5	-0,910050
18,941833	0,5	-0,888200
18,950167	0,5	-0,884350
18,958500	0,5	-0,891250
18,966833	0,5	-0,929700
18,975167	0,5	-0,958300
18,983500	0,5	-0,984450
18,991833	0,5	-1,003700
19,000167	0,5	-1,017300
19,008500	0,5	-1,035700
19,016833	0,5	-1,041400
19,025167	0,5	-1,044800
19,033500	0,5	-1,043250
19,041833	0,5	-1,039600
19,050167	0,5	-1,030450
19,058500	0,5	-1,023150
19,066833	0,5	-1,003500
19,075167	0,5	-1,029200
19,083500	0,5	-1,013100
19,091833	0,5	-1,021350
19,100167	0,5	-1,023850
19,108500	0,5	-1,046100
19,116833	0,5	-1,071750
19,125167	0,5	-1,075700
19,133500	0,5	-1,079350
19,141833	0,5	-1,092250
19,150167	0,5	-1,094500
19,158500	0,5	-1,093600
19,166833	0,5	-1,100300
19,175167	0,5	-1,105200
19,183500	0,5	-1,111050
19,191833	0,5	-1,127850
19,200167	0,5	-1,147700
19,208500	0,5	-1,157100
19,216833	0,5	-1,184300
19,225167	0,5	-1,189600
19,233500	0,5	-1,190700
19,241833	0,5	-1,182100
19,250167	0,5	-1,197550
19,258500	0,5	-1,215150
19,266833	0,5	-1,238000
19,275167	0,5	-1,236650
19,283500	0,5	-1,248700
19,291833	0,5	-1,259050
19,300167	0,5	-1,267500
19,308500	0,5	-1,276000
19,316833	0,5	-1,288250
19,325167	0,5	-1,281400
19,333500	0,5	-1,281600
19,341833	0,5	-1,290700
19,350167	0,5	-1,293850
19,358500	0,5	-1,293650
19,366833	0,5	-1,312650
19,375167	0,5	-1,312050
19,383500	0,5	-1,314550
19,391833	0,5	-1,322950
19,400167	0,5	-1,340750
19,408500	0,5	-1,380050
19,416833	0,5	-1,386350
19,425167	0,5	-1,395800
19,433500	0,5	-1,389600
19,441833	0,5	-1,400950
19,450167	0,5	-1,397850
19,458500	0,5	-1,412900
19,466833	0,5	-1,416850
19,475167	0,5	-1,418600
19,483500	0,5	-1,433900
19,491833	0,5	-1,443350
19,500167	0,5	-1,450650
19,508500	0,5	-1,435200
19,516833	0,5	-1,465700
19,525167	0,5	-1,452800
19,533500	0,5	-1,463450
19,541833	0,5	-1,476150
19,550167	0,5	-1,505950
19,558500	0,5	-1,528150
19,566833	0,5	-1,519900
19,575167	0,5	-1,515350
19,583500	0,5	-1,528750
19,591833	0,5	-1,532300
19,600167	0,5	-1,545950
19,608500	0,5	-1,558650
19,616833	0,5	-1,582650
19,625167	0,5	-1,582150
19,633500	0,5	-1,593800
19,641833	0,5	-1,602750
19,650167	0,5	-1,594200
19,658500	0,5	-1,606150
19,666833	0,5	-1,624550
19,675167	0,5	-1,623250
19,683500	0,5	-1,633250
19,691833	0,5	-1,649200
19,700167	0,5	-1,675400
19,708500	0,5	-1,707050
19,716833	0,5	-1,707050
19,725167	0,5	-1,717400
19,733500	0,5	-1,720250
19,741833	0,5	-1,738700
19,750167	0,5	-1,734150
19,758500	0,5	-1,752000
19,766833	0,5	-1,756350
19,775167	0,5	-1,769900
19,783500	0,5	-1,794650
19,791833	0,5	-1,800700
19,800167	0,5	-1,809900
19,808500	0,5	-1,832050
19,816833	0,5	-1,844450
19,825167	0,5	-1,860550
19,833500	0,5	-1,882100
19,841833	0,5	-1,906450
19,850167	0,5	-1,939250
19,858500	0,5	-1,947400
19,866833	0,5	-1,956700
19,875167	0,5	-1,955000
19,883500	0,5	-1,974500
19,891833	0,5	-1,971400
19,900167	0,5	-1,986500
19,908500	0,5	-1,983800
19,916833	0,5	-2,001100
19,925167	0,5	-2,000950
19,933500	0,5	-2,008400
19,941833	0,5	-1,994800
19,950167	0,5	-2,003750
19,958500	0,5	-2,006350
19,966833	0,5	-1,999050
19,975167	0,5	-2,001150
19,983500	0,5	-2,010950
19,991833	0,5	-2,045150
20,000167	0,5	-2,062350
20,008500	0,5	-2,074500
20,016833	0,5	-2,093850
20,025167	0,5	-2,112800
20,033500	0,5	-2,127400
20,041833	0,5	-2,143050
20,050167	0,5	-2,154600
20,058500	0,5	-2,186950
20,066833	0,5	-2,196500
20,075167	0,5	-2,214450
20,083500	0,5	-2,228050
20,091833	0,5	-2,230500
20,100167	0,5	-2,262200
20,108500	0,5	-2,268050
20,116833	0,5	-2,277150
20,125167	0,5	-2,297900
20,133500	0,5	-2,318700
20,141833	0,5	-2,360600
20,150167	0,5	-2,366000
20,158500	0,5	-2,360650
20,166833	0,5	-2,377700
20,175167	0,5	-2,382500
20,183500	0,5	-2,402900
20,191833	0,5	-2,398150
20,200167	0,5	-2,404700
20,208500	0,5	-2,400200
20,216833	0,5	-2,409100
20,225167	0,5	-2,422050
20,233500	0,5	-2,416250
20,241833	0,5	-2,417200
20,250167	0,5	-2,456850
20,258500	0,5	-2,455000
20,266833	0,5	-2,465400
20,275167	0,5	-2,490500
20,283500	0,5	-2,517200
20,291833	0,5	-2,559400
20,300167	0,5	-2,555650
20,308500	0,5	-2,574300
20,316833	0,5	-2,578800
20,325167	0,5	-2,602350
20,333500	0,5	-2,617000
20,341833	0,5	-2,646950
20,350167	0,5	-2,656800
20,358500	0,5	-2,683100
20,366833	0,5	-2,698850
20,375167	0,5	-2,733300
20,383500	0,5	-2,734150
20,391833	0,5	-2,770750
20,400167	0,5	-2,790400
20,408500	0,5	-2,804550
20,416833	0,5	-2,834750
20,425167	0,5	-2,865750
20,433500	0,5	-2,917650
20,441833	0,5	-2,932350
20,450167	0,5	-2,941750
20,458500	0,5	-2,957600
20,466833	0,5	-2,981150
20,475167	0,5	-2,993700
20,483500	0,5	-3,015200
20,491833	0,5	-3,042300
20,500167	0,5	-3,060950
20,508500	0,5	-3,076050
20,516833	0,5	-3,107500
20,525167	0,5	-3,115650
20,533500	0,5	-3,113150
20,541833	0,5	-3,126600
20,550167	0,5	-3,118550
20,558500	0,5	-3,121300
20,566833	0,5	-3,138900
20,575167	0,5	-3,184900
20,583500	0,5	-3,253450
20,591833	0,5	-3,296550
20,600167	0,5	-3,330650
20,608500	0,5	-3,375600
20,616833	0,5	-3,413950
20,625167	0,5	-3,455650
20,633500	0,5	-3,497400
20,641833	0,5	-3,532400
20,650167	0,5	-3,562150
20,658500	0,5	-3,607750
20,666833	0,5	-3,638200
20,675167	0,5	-3,651350
20,683500	0,5	-3,671050
20,691833	0,5	-3,709500
20,700167	0,5	-3,715650
20,708500	0,5	-3,730250
20,716833	0,5	-3,735300
20,725167	0,5	-3,742350
20,733500	0,5	-3,764100
20,741833	0,5	-3,747300
20,750167	0,5	-3,761550
20,758500	0,5	-3,810200
20,766833	0,5	-3,871300
20,775167	0,5	-3,937500
20,783500	0,5	-4,016050
20,791833	0,5	-4,068950
20,800167	0,5	-4,137250
20,808500	0,5	-4,191600
20,816833	0,5	-4,233050
20,825167	0,5	-4,255700
20,833500	0,5	-4,304000
20,841833	0,5	-4,345300
20,850167	0,5	-4,387000
20,858500	0,5	-4,431600
20,866833	0,5	-4,492300
20,875167	0,5	-4,548650
20,883500	0,5	-4,581850
20,891833	0,5	-4,613550
20,900167	0,5	-4,630550
20,908500	0,5	-4,660550
20,916833	0,5	-4,682650
20,925167	0,5	-4,732100
20,933500	0,5	-4,768850
20,941833	0,5	-4,826900
20,950167	0,5	-4,862600
20,958500	0,5	-4,913850
20,966833	0,5	-4,919400
20,975167	0,5	-4,949400
20,983500	0,5	-4,991600
20,991833	0,5	-5,030050
21,000167	0,5	-5,060850
21,008500	0,5	-5,110800
21,016833	0,5	-5,173350
21,025167	0,5	-5,215150
21,033500	0,5	-5,250550
21,041833	0,5	-5,279000
21,050167	0,5	-5,308650
21,058500	0,5	-5,330650
21,066833	0,5	-5,363850
21,075167	0,5	-5,386500
21,083500	0,5	-5,420700
21,091833	0,5	-5,439350
21,100167	0,5	-5,480450
21,108500	0,5	-5,496750
21,116833	0,5	-5,504650
21,125167	0,5	-5,527550
21,133500	0,5	-5,563500
21,141833	0,5	-5,597400
21,150167	0,5	-5,642200
21,158500	0,5	-5,677000
21,166833	0,5	-5,727750
21,175167	0,5	-5,760400
21,183500	0,5	-5,777000
21,191833	0,5	-5,807000
21,200167	0,5	-5,830800
21,208500	0,5	-5,848950
21,216833	0,5	-5,860800
21,225167	0,5	-5,888300
21,233500	0,5	-5,908900
21,241833	0,5	-5,935900
21,250167	0,5	-5,948550
21,258500	0,5	-5,935550
21,266833	0,5	-5,933750
21,275167	0,5	-5,953300
21,283500	0,5	-5,961850
21,291833	0,5	-5,963400
21,300167	0,5	-5,984300
21,308500	0,5	-6,014200
21,316833	0,5	-6,063450
21,325167	0,5	-6,066450
21,333500	0,5	-6,104900
21,341833	0,5	-6,141000
21,350167	0,5	-6,168400
21,358500	0,5	-6,184600
21,366833	0,5	-6,206600
21,375167	0,5	-6,228750
21,383500	0,5	-6,250800
21,391833	0,5	-6,274550
21,400167	0,5	-6,286300
21,408500	0,5	-6,265900
21,416833	0,5	-6,271850
21,425167	0,5	-6,289250
21,433500	0,5	-6,317800
21,441833	0,5	-6,338300
21,450167	0,5	-6,380850
21,458500	0,5	-6,420050
21,466833	0,5	-6,432050
21,475167	0,5	-6,446700
21,483500	0,5	-6,461400
21,491833	0,5	-6,475700
21,500167	0,5	-6,504750
21,508500	0,5	-6,531250
21,516833	0,5	-6,548650
21,525167	0,5	-6,559750
21,533500	0,5	-6,569600
21,541833	0,5	-6,596500
21,550167	0,5	-6,585250
21,558500	0,5	-6,578150
21,566833	0,5	-6,599450
21,575167	0,5	-6,619550
21,583500	0,5	-6,640450
21,591833	0,5	-6,669150
21,600167	0,5	-6,692250
21,608500	0,5	-6,732950
21,616833	0,5	-6,735400
21,625167	0,5	-6,725300
21,633500	0,5	-6,739400
21,641833	0,5	-6,730100
21,650167	0,5	-6,738600
21,658500	0,5	-6,747500
21,666833	0,5	-6,745950
21,675167	0,5	-6,737450
21,683500	0,5	-6,748600
21,691833	0,5	-6,747500
21,700167	0,5	-6,750250
21,708500	0,5	-6,771200
21,716833	0,5	-6,799900
21,725167	0,5	-6,814700
21,733500	0,5	-6,839400
21,741833	0,5	-6,867250
21,750167	0,5	-6,911150
21,758500	0,5	-6,937600
21,766833	0,5	-6,933750
21,775167	0,5	-6,939500
21,783500	0,5	-6,954950
21,791833	0,5	-6,958600
21,800167	0,5	-6,968850
21,808500	0,5	-6,983150
21,816833	0,5	-6,982350
21,825167	0,5	-6,981700
21,833500	0,5	-6,971000
21,841833	0,5	-6,963350
21,850167	0,5	-6,941300
21,858500	0,5	-6,959350
21,866833	0,5	-6,945000
21,875167	0,5	-6,964400
21,883500	0,5	-6,954550
21,891833	0,5	-6,978450
21,900167	0,5	-6,992900
21,908500	0,5	-6,984150
21,916833	0,5	-6,963950
21,925167	0,5	-6,937700
21,933500	0,5	-6,903300
21,941833	0,5	-6,852750
21,950167	0,5	-6,814950
21,958500	0,5	-6,804600
21,966833	0,5	-6,823350
21,975167	0,5	-6,854050
21,983500	0,5	-6,909000
21,991833	0,5	-6,927050
22,000167	0,5	-6,988000
22,008500	0,5	-7,020050
22,016833	0,5	-7,047100
22,025167	0,5	-7,093350
22,033500	0,5	-7,124750
22,041833	0,5	-7,187500
22,050167	0,5	-7,213500
22,058500	0,5	-7,252750
22,066833	0,5	-7,260900
22,075167	0,5	-7,283400
22,083500	0,5	-7,299300
22,091833	0,5	-7,329050
22,100167	0,5	-7,353600
22,108500	0,5	-7,364500
22,116833	0,5	-7,387100
22,125167	0,5	-7,415300
22,133500	0,5	-7,432450
22,141833	0,5	-7,463050
22,150167	0,5	-7,475600
22,158500	0,5	-7,495900
22,166833	0,5	-7,501900
22,175167	0,5	-7,529550
22,183500	0,5	-7,556700
22,191833	0,5	-7,576750
22,200167	0,5	-7,578750
22,208500	0,5	-7,587800
22,216833	0,5	-7,604650
22,225167	0,5	-7,614950
22,233500	0,5	-7,617250
22,241833	0,5	-7,619400
22,250167	0,5	-7,629050
22,258500	0,5	-7,630500
22,266833	0,5	-7,639650
22,275167	0,5	-7,636300
22,283500	0,5	-7,641450
22,291833	0,5	-7,656950
22,300167	0,5	-7,630350
22,308500	0,5	-7,613300
22,316833	0,5	-7,608800
22,325167	0,5	-7,600150
22,333500	0,5	-7,614950
22,341833	0,5	-7,601900
22,350167	0,5	-7,562850
22,358500	0,5	-7,521450
22,366833	0,5	-7,458150
22,375167	0,5	-7,377150
22,383500	0,5	-7,312050
22,391833	0,5	-7,292500
22,400167	0,5	-7,309400
22,408500	0,5	-7,375000
22,416833	0,5	-7,430300
22,425167	0,5	-7,492350
22,433500	0,5	-7,523850
22,441833	0,5	-7,558500
22,450167	0,5	-7,560250
22,458500	0,5	-7,586300
22,466833	0,5	-7,599950
22,475167	0,5	-7,619800
22,483500	0,5	-7,646550
22,491833	0,5	-7,621750
22,500167	0,5	-7,622700
22,508500	0,5	-7,619700
22,516833	0,5	-7,619550
22,525167	0,5	-7,604850
22,533500	0,5	-7,607650
22,541833	0,5	-7,591500
22,550167	0,5	-7,573550
22,558500	0,5	-7,548400
22,566833	0,5	-7,536250
22,575167	0,5	-7,540900
22,583500	0,5	-7,509750
22,591833	0,5	-7,456800
22,600167	0,5	-7,426850
22,608500	0,5	-7,403750
22,616833	0,5	-7,418600
22,625167	0,5	-7,417150
22,633500	0,5	-7,409100
22,641833	0,5	-7,403800
22,650167	0,5	-7,394000
22,658500	0,5	-7,400200
22,666833	0,5	-7,388350
22,675167	0,5	-7,394100
22,683500	0,5	-7,384050
22,691833	0,5	-7,384000
22,700167	0,5	-7,377700
22,708500	0,5	-7,384300
22,716833	0,5	-7,433750
22,725167	0,5	-7,428000
22,733500	0,5	-7,427450
22,741833	0,5	-7,409700
22,750167	0,5	-7,405400
22,758500	0,5	-7,412700
22,766833	0,5	-7,438900
22,775167	0,5	-7,464750
22,783500	0,5	-7,463800
22,791833	0,5	-7,456800
22,800167	0,5	-7,473600
22,808500	0,5	-7,469500
22,816833	0,5	-7,490600
22,825167	0,5	-7,505650
22,833500	0,5	-7,515700
22,841833	0,5	-7,545550
22,850167	0,5	-7,563750
22,858500	0,5	-7,602000
22,866833	0,5	-7,708500
22,875167	0,5	-7,703400
22,883500	0,5	-7,721100
22,891833	0,5	-7,736950
22,900167	0,5	-7,767800
22,908500	0,5	-7,802050
22,916833	0,5	-7,834600
22,925167	0,5	-7,870050
22,933500	0,5	-7,902700
22,941833	0,5	-7,933500
22,950167	0,5	-7,961250
22,958500	0,5	-7,972400
22,966833	0,5	-7,986400
22,975167	0,5	-7,993800
22,983500	0,5	-8,004950
22,991833	0,5	-7,999150
23,000167	0,5	-7,997800
23,008500	0,5	-7,953800
23,016833	0,5	-7,967150
23,025167	0,5	-7,939400
23,033500	0,5	-7,954050
23,041833	0,5	-7,965550
23,050167	0,5	-7,938850
23,058500	0,5	-7,895200
23,066833	0,5	-7,868100
23,075167	0,5	-7,855850
23,083500	0,5	-7,828750
23,091833	0,5	-7,795900
23,100167	0,5	-7,749750
23,108500	0,5	-7,697200
23,116833	0,5	-7,638000
23,125167	0,5	-7,586250
23,133500	0,5	-7,507150
23,141833	0,5	-7,442150
23,150167	0,5	-7,355850
23,158500	0,5	-7,244050
23,166833	0,5	-7,172850
23,175167	0,5	-7,111150
23,183500	0,5	-7,075300
23,191833	0,5	-7,013400
23,200167	0,5	-6,923800
23,208500	0,5	-6,837100
23,216833	0,5	-6,761350
23,225167	0,5	-6,701150
23,233500	0,5	-6,626600
23,241833	0,5	-6,558900
23,250167	0,5	-6,478650
23,258500	0,5	-6,380250
23,266833	0,5	-6,302800
23,275167	0,5	-6,211750
23,283500	0,5	-6,130350
23,291833	0,5	-6,022650
23,300167	0,5	-5,901400
23,308500	0,5	-5,835600
23,316833	0,5	-5,712850
23,325167	0,5	-5,625100
23,333500	0,5	-5,577600
23,341833	0,5	-5,504650
23,350167	0,5	-5,417950
23,358500	0,5	-5,323050
23,366833	0,5	-5,257900
23,375167	0,5	-5,198650
23,383500	0,5	-5,132400
23,391833	0,5	-5,054650
23,400167	0,5	-4,992500
23,408500	0,5	-4,914700
23,416833	0,5	-4,834850
23,425167	0,5	-4,763150
23,433500	0,5	-4,688100
23,441833	0,5	-4,610250
23,450167	0,5	-4,553150
23,458500	0,5	-4,486850
23,466833	0,5	-4,391000
23,475167	0,5	-4,302200
23,483500	0,5	-4,249850
23,491833	0,5	-4,198900
23,500167	0,5	-4,128100
23,508500	0,5	-4,066150
23,516833	0,5	-4,024450
23,525167	0,5	-3,983550
23,533500	0,5	-3,931400
23,541833	0,5	-3,890600
23,550167	0,5	-3,833150
23,558500	0,5	-3,789550
23,566833	0,5	-3,743850
23,575167	0,5	-3,704150
23,583500	0,5	-3,659800
23,591833	0,5	-3,607400
23,600167	0,5	-3,678750
23,608500	0,5	-3,598700
23,616833	0,5	-3,517650
23,625167	0,5	-3,454450
23,633500	0,5	-3,422700
23,641833	0,5	-3,379550
23,650167	0,5	-3,349900
23,658500	0,5	-3,311850
23,666833	0,5	-3,282600
23,675167	0,5	-3,252450
23,683500	0,5	-3,226300
23,691833	0,5	-3,194400
23,700167	0,5	-3,162150
23,708500	0,5	-3,130650
23,716833	0,5	-3,101850
23,725167	0,5	-3,070600
23,733500	0,5	-3,041450
23,741833	0,5	-3,063950
23,750167	0,5	-3,139000
23,758500	0,5	-3,087150
23,766833	0,5	-2,999300
23,775167	0,5	-2,946800
23,783500	0,5	-2,908150
23,791833	0,5	-2,884650
23,800167	0,5	-2,868800
23,808500	0,5	-2,849250
23,816833	0,5	-2,824500
23,825167	0,5	-2,801000
23,833500	0,5	-2,776150
23,841833	0,5	-2,746350
23,850167	0,5	-2,721700
23,858500	0,5	-2,698550
23,866833	0,5	-2,671850
23,875167	0,5	-2,638400
23,883500	0,5	-2,610950
23,891833	0,5	-2,752350
23,900167	0,5	-2,727750
23,908500	0,5	-2,658900
23,916833	0,5	-2,580850
23,925167	0,5	-2,525900
23,933500	0,5	-2,489250
23,941833	0,5	-2,466450
23,950167	0,5	-2,450750
23,958500	0,5	-2,438050
23,966833	0,5	-2,402200
23,975167	0,5	-2,384200
23,983500	0,5	-2,363550
23,991833	0,5	-2,333900
24,000167	0,5	-2,308100
24,008500	0,5	-2,282050
24,016833	0,5	-2,255150
24,025167	0,5	-2,235150
24,033500	0,5	-2,226250
24,041833	0,5	-2,368350
24,050167	0,5	-2,326450
24,058500	0,5	-2,278750
24,066833	0,5	-2,200700
24,075167	0,5	-2,154800
24,083500	0,5	-2,116200
24,091833	0,5	-2,101600
24,100167	0,5	-2,093950
24,108500	0,5	-2,055150
24,116833	0,5	-2,024150
24,125167	0,5	-1,993400
24,133500	0,5	-1,963300
24,141833	0,5	-1,933550
24,150167	0,5	-1,908550
24,158500	0,5	-1,882350
24,166833	0,5	-1,859800
24,175167	0,5	-1,833600
24,183500	0,5	-1,912950
24,191833	0,5	-1,936300
24,200167	0,5	-1,915550
24,208500	0,5	-1,838150
24,216833	0,5	-1,792900
24,225167	0,5	-1,758450
24,233500	0,5	-1,735400
24,241833	0,5	-1,733600
24,250167	0,5	-1,709500
24,258500	0,5	-1,681850
24,266833	0,5	-1,666450
24,275167	0,5	-1,639300
24,283500	0,5	-1,615300
24,291833	0,5	-1,589250
24,300167	0,5	-1,565600
24,308500	0,5	-1,538200
24,316833	0,5	-1,505400
24,325167	0,5	-1,486950
24,333500	0,5	-1,577850
24,341833	0,5	-1,569800
24,350167	0,5	-1,529950
24,358500	0,5	-1,469950
24,366833	0,5	-1,431450
24,375167	0,5	-1,411250
24,383500	0,5	-1,387350
24,391833	0,5	-1,392650
24,400167	0,5	-1,363700
24,408500	0,5	-1,340800
24,416833	0,5	-1,319850
24,425167	0,5	-1,305550
24,433500	0,5	-1,278900
24,441833	0,5	-1,269800
24,450167	0,5	-1,246400
24,458500	0,5	-1,228000
24,466833	0,5	-1,222900
24,475167	0,5	-1,227350
24,483500	0,5	-1,290900
24,491833	0,5	-1,260950
24,500167	0,5	-1,228250
24,508500	0,5	-1,187250
24,516833	0,5	-1,161350
24,525167	0,5	-1,143100
24,533500	0,5	-1,139950
24,541833	0,5	-1,129600
24,550167	0,5	-1,103400
24,558500	0,5	-1,082100
24,566833	0,5	-1,076850
24,575167	0,5	-1,058550
24,583500	0,5	-1,041200
24,591833	0,5	-1,025100
24,600167	0,5	-1,010200
24,608500	0,5	-0,988850
24,616833	0,5	-0,973350
24,625167	0,5	-1,025200
24,633500	0,5	-1,020350
24,641833	0,5	-1,012950
24,650167	0,5	-0,978800
24,658500	0,5	-0,959450
24,666833	0,5	-0,945600
24,675167	0,5	-0,946000
24,683500	0,5	-0,943200
24,691833	0,5	-0,937200
24,700167	0,5	-0,919700
24,708500	0,5	-0,915600
24,716833	0,5	-0,898200
24,725167	0,5	-0,892550
24,733500	0,5	-0,877350
24,741833	0,5	-0,874050
24,750167	0,5	-0,850950
24,758500	0,5	-0,842450
24,766833	0,5	-0,838300
24,775167	0,5	-0,878750
24,783500	0,5	-0,860150
24,791833	0,5	-0,849400
24,800167	0,5	-0,818150
24,808500	0,5	-0,799750
24,816833	0,5	-0,783500
24,825167	0,5	-0,780200
24,833500	0,5	-0,786650
24,841833	0,5	-0,778700
24,850167	0,5	-0,767200
24,858500	0,5	-0,761950
24,866833	0,5	-0,763100
24,875167	0,5	-0,750150
24,883500	0,5	-0,752850
24,891833	0,5	-0,743800
24,900167	0,5	-0,737750
24,908500	0,5	-0,732150
24,916833	0,5	-0,736100
24,925167	0,5	-0,757150
24,933500	0,5	-0,748400
24,941833	0,5	-0,730550
24,950167	0,5	-0,712150
24,958500	0,5	-0,702850
24,966833	0,5	-0,696900
24,975167	0,5	-0,695150
24,983500	0,5	-0,691800
24,991833	0,5	-0,681100
25,000167	0,5	-0,673850
25,008500	0,5	-0,669050
25,016833	0,5	-0,658600
25,025167	0,5	-0,655600
25,033500	0,5	-0,650500
25,041833	0,5	-0,644600
25,050167	0,5	-0,638750
25,058500	0,5	-0,635050
25,066833	0,5	-0,657150
25,075167	0,5	-0,652150
25,083500	0,5	-0,650200
25,091833	0,5	-0,642300
25,100167	0,5	-0,631500
25,108500	0,5	-0,632850
25,116833	0,5	-0,629250
25,125167	0,5	-0,631350
25,133500	0,5	-0,631000
25,141833	0,5	-0,622150
25,150167	0,5	-0,615350
25,158500	0,5	-0,610600
25,166833	0,5	-0,609900
25,175167	0,5	-0,600550
25,183500	0,5	-0,597200
25,191833	0,5	-0,593550
25,200167	0,5	-0,585750
25,208500	0,5	-0,582900
25,216833	0,5	-0,588600
25,225167	0,5	-0,582900
25,233500	0,5	-0,580200
25,241833	0,5	-0,574300
25,250167	0,5	-0,574600
25,258500	0,5	-0,570200
25,266833	0,5	-0,576050
25,275167	0,5	-0,578750
25,283500	0,5	-0,574100
25,291833	0,5	-0,574000
25,300167	0,5	-0,575950
25,308500	0,5	-0,572550
25,316833	0,5	-0,571950
25,325167	0,5	-0,567950
25,333500	0,5	-0,567750
25,341833	0,5	-0,568350
25,350167	0,5	-0,557150
25,358500	0,5	-0,555650
25,366833	0,5	-0,552300
25,375167	0,5	-0,545650
25,383500	0,5	-0,541650
25,391833	0,5	-0,540700
25,400167	0,5	-0,536750
25,408500	0,5	-0,536700
25,416833	0,5	-0,533950
25,425167	0,5	-0,531700
25,433500	0,5	-0,532050
25,441833	0,5	-0,531550
25,450167	0,5	-0,531150
25,458500	0,5	-0,531700
25,466833	0,5	-0,535050
25,475167	0,5	-0,532100
25,483500	0,5	-0,537300
25,491833	0,5	-0,538350
25,500167	0,5	-0,536000
25,508500	0,5	-0,533800
25,516833	0,5	-0,526800
25,525167	0,5	-0,520700
25,533500	0,5	-0,525300
25,541833	0,5	-0,524950
25,550167	0,5	-0,523650
25,558500	0,5	-0,523600
25,566833	0,5	-0,514050
25,575167	0,5	-0,515550
25,583500	0,5	-0,516150
25,591833	0,5	-0,516850
25,600167	0,5	-0,518700
25,608500	0,5	-0,515750
25,616833	0,5	-0,516350
25,625167	0,5	-0,511750
25,633500	0,5	-0,518000
25,641833	0,5	-0,514950
25,650167	0,5	-0,516050
25,658500	0,5	-0,509550
25,666833	0,5	-0,511400
25,675167	0,5	-0,504600
25,683500	0,5	-0,516500
25,691833	0,5	-0,517050
25,700167	0,5	-0,512800
25,708500	0,5	-0,513550
25,716833	0,5	-0,505750
25,725167	0,5	-0,509300
25,733500	0,5	-0,512400
25,741833	0,5	-0,507850
25,750167	0,5	-0,511700
25,758500	0,5	-0,512350
25,766833	0,5	-0,509300
25,775167	0,5	-0,507050
25,783500	0,5	-0,502500
25,791833	0,5	-0,500450
25,800167	0,5	-0,499900
25,808500	0,5	-0,490200
25,816833	0,5	-0,492950
25,825167	0,5	-0,485950
25,833500	0,5	-0,497600
25,841833	0,5	-0,496950
25,850167	0,5	-0,498050
25,858500	0,5	-0,489450
25,866833	0,5	-0,479750
25,875167	0,5	-0,480450
25,883500	0,5	-0,485450
25,891833	0,5	-0,485150
25,900167	0,5	-0,483850
25,908500	0,5	-0,487850
25,916833	0,5	-0,480250
25,925167	0,5	-0,479350
25,933500	0,5	-0,477500
25,941833	0,5	-0,469050
25,950167	0,5	-0,463550
25,958500	0,5	-0,464200
25,966833	0,5	-0,450200
25,975167	0,5	-0,451950
25,983500	0,5	-0,451800
25,991833	0,5	-0,457250
26,000167	0,5	-0,451100
