File Path	chrom://chromeleon01/ikbm_chromeleon/2022/ICS-5000/ED1/Esteban/20220427_Cell_Amandas_mutants.seq/618.smp/ED_1.channel/ED_1.chm
Channel	ED_1

Injection Information:
Data Vault	ikbm_chromeleon
Injection	T24h_BMCC_2a
Injection Number	35
Position	RD5
Comment	
Processing Method	Stop sequence after Cell Death
Instrument Method	ICS5000_PA200_FullNative_Ox_26min_ED1
Type	Unknown
Status	Finished
Injection Date	28.04.2022
Injection Time	05:09:21
Injection Volume (µl)	5,0
Dilution Factor	1,0000
Weight	1,0000

Chromatogram Data Information:
Time Min. (min)	0,000333
Time Max. (min)	26,000333
Data Points	3121
Detector	EDet1
Generating Data System	Chromeleon 7.2.9.11323
Exporting Data System	Chromeleon 7.2.9.0
Operator	Instrument Controller
Signal Quantity	
Signal Unit	nC
Signal Min.	-7,984350
Signal Max.	37,832251
Channel	ED_1
Driver Name	DC-5000
Channel Type	Evaluation
Min. Step (s)	0,5
Max. Step (s)	0,5
Average Step (s)	0,5

Signal Parameter Information:
Signal Info	

Chromatogram Data:
Time (min)	Step (s)	Value (nC)
0,000333	n.a.	-0,080500
0,008667	0,5	-0,092850
0,017000	0,5	-0,095900
0,025333	0,5	-0,086150
0,033667	0,5	-0,065500
0,042000	0,5	-0,025050
0,050333	0,5	0,014100
0,058667	0,5	-0,007350
0,067000	0,5	0,000550
0,075333	0,5	-0,001550
0,083667	0,5	-0,004700
0,092000	0,5	-0,018600
0,100333	0,5	-0,007750
0,108667	0,5	-0,020850
0,117000	0,5	-0,014950
0,125333	0,5	-0,011350
0,133667	0,5	-0,008800
0,142000	0,5	-0,010950
0,150333	0,5	0,029050
0,158667	0,5	-0,009700
0,167000	0,5	-0,028350
0,175333	0,5	-0,030200
0,183667	0,5	-0,007250
0,192000	0,5	0,023400
0,200333	0,5	0,022250
0,208667	0,5	0,021200
0,217000	0,5	0,004400
0,225333	0,5	0,007350
0,233667	0,5	-0,006450
0,242000	0,5	0,001250
0,250333	0,5	0,002700
0,258667	0,5	-0,003700
0,267000	0,5	-0,007900
0,275333	0,5	-0,009500
0,283667	0,5	-0,031500
0,292000	0,5	0,004650
0,300333	0,5	0,045750
0,308667	0,5	0,054500
0,317000	0,5	-0,005900
0,325333	0,5	-0,031100
0,333667	0,5	-0,021600
0,342000	0,5	0,001850
0,350333	0,5	0,005250
0,358667	0,5	-0,007900
0,367000	0,5	-0,008400
0,375333	0,5	-0,016900
0,383667	0,5	-0,018000
0,392000	0,5	-0,021450
0,400333	0,5	-0,026150
0,408667	0,5	-0,035100
0,417000	0,5	-0,023750
0,425333	0,5	-0,024550
0,433667	0,5	-0,032850
0,442000	0,5	0,007000
0,450333	0,5	-0,007750
0,458667	0,5	-0,035300
0,467000	0,5	-0,038400
0,475333	0,5	-0,037400
0,483667	0,5	0,008700
0,492000	0,5	0,003000
0,500333	0,5	-0,015750
0,508667	0,5	-0,023100
0,517000	0,5	-0,014550
0,525333	0,5	-0,031200
0,533667	0,5	-0,020250
0,542000	0,5	-0,018250
0,550333	0,5	-0,017700
0,558667	0,5	-0,019400
0,567000	0,5	-0,025100
0,575333	0,5	-0,019250
0,583667	0,5	-0,041900
0,592000	0,5	0,001800
0,600333	0,5	-0,038150
0,608667	0,5	-0,037300
0,617000	0,5	-0,042100
0,625333	0,5	-0,019500
0,633667	0,5	0,023100
0,642000	0,5	0,014550
0,650333	0,5	-0,004350
0,658667	0,5	0,008100
0,667000	0,5	-0,005150
0,675333	0,5	-0,003200
0,683667	0,5	-0,007200
0,692000	0,5	-0,006200
0,700333	0,5	-0,017150
0,708667	0,5	-0,012100
0,717000	0,5	-0,004350
0,725333	0,5	-0,018050
0,733667	0,5	-0,023950
0,742000	0,5	0,008950
0,750333	0,5	-0,011050
0,758667	0,5	-0,024600
0,767000	0,5	-0,013450
0,775333	0,5	-0,003900
0,783667	0,5	0,041000
0,792000	0,5	0,021350
0,800333	0,5	0,023700
0,808667	0,5	0,018750
0,817000	0,5	0,026950
0,825333	0,5	0,016600
0,833667	0,5	0,025950
0,842000	0,5	0,022500
0,850333	0,5	0,022550
0,858667	0,5	0,020350
0,867000	0,5	0,021050
0,875333	0,5	0,001900
0,883667	0,5	0,018900
0,892000	0,5	0,017700
0,900333	0,5	-0,002350
0,908667	0,5	0,000650
0,917000	0,5	0,018850
0,925333	0,5	0,058150
0,933667	0,5	0,079500
0,942000	0,5	0,076100
0,950333	0,5	0,062500
0,958667	0,5	0,068650
0,967000	0,5	0,052000
0,975333	0,5	0,059400
0,983667	0,5	0,046750
0,992000	0,5	0,056850
1,000333	0,5	0,054450
1,008667	0,5	0,054600
1,017000	0,5	0,046800
1,025333	0,5	0,038350
1,033667	0,5	0,061400
1,042000	0,5	0,059150
1,050333	0,5	0,043850
1,058667	0,5	0,047750
1,067000	0,5	0,063650
1,075333	0,5	0,090050
1,083667	0,5	0,113400
1,092000	0,5	0,101550
1,100333	0,5	0,094900
1,108667	0,5	0,099050
1,117000	0,5	0,098450
1,125333	0,5	0,092750
1,133667	0,5	0,099050
1,142000	0,5	0,086550
1,150333	0,5	0,102000
1,158667	0,5	0,099200
1,167000	0,5	0,096600
1,175333	0,5	0,098150
1,183667	0,5	0,124550
1,192000	0,5	0,096400
1,200333	0,5	0,096150
1,208667	0,5	0,095300
1,217000	0,5	0,132950
1,225333	0,5	0,155000
1,233667	0,5	0,161100
1,242000	0,5	0,170200
1,250333	0,5	0,166500
1,258667	0,5	0,161800
1,267000	0,5	0,154350
1,275333	0,5	0,163150
1,283667	0,5	0,159800
1,292000	0,5	0,166000
1,300333	0,5	0,165300
1,308667	0,5	0,169800
1,317000	0,5	0,155050
1,325333	0,5	0,181400
1,333667	0,5	0,183300
1,342000	0,5	0,185100
1,350333	0,5	0,177850
1,358667	0,5	0,201450
1,367000	0,5	0,239200
1,375333	0,5	0,262750
1,383667	0,5	0,243150
1,392000	0,5	0,254150
1,400333	0,5	0,256050
1,408667	0,5	0,264350
1,417000	0,5	0,265650
1,425333	0,5	0,272700
1,433667	0,5	0,275650
1,442000	0,5	0,285350
1,450333	0,5	0,296800
1,458667	0,5	0,287800
1,467000	0,5	0,288750
1,475333	0,5	0,332950
1,483667	0,5	0,318000
1,492000	0,5	0,307250
1,500333	0,5	0,318200
1,508667	0,5	0,325000
1,517000	0,5	0,379350
1,525333	0,5	0,374250
1,533667	0,5	0,379950
1,542000	0,5	0,380750
1,550333	0,5	0,390700
1,558667	0,5	0,385700
1,567000	0,5	0,362700
1,575333	0,5	0,192250
1,583667	0,5	-0,374400
1,592000	0,5	-1,324500
1,600333	0,5	-1,624150
1,608667	0,5	-0,395300
1,617000	0,5	1,508300
1,625333	0,5	3,306650
1,633667	0,5	5,101750
1,642000	0,5	6,954100
1,650333	0,5	8,277300
1,658667	0,5	8,735850
1,667000	0,5	8,539950
1,675333	0,5	7,983300
1,683667	0,5	7,316900
1,692000	0,5	6,698000
1,700333	0,5	6,208100
1,708667	0,5	6,094150
1,717000	0,5	6,767200
1,725333	0,5	8,562600
1,733667	0,5	10,521400
1,742000	0,5	10,924450
1,750333	0,5	9,549550
1,758667	0,5	7,669650
1,767000	0,5	6,226550
1,775333	0,5	5,432400
1,783667	0,5	5,334850
1,792000	0,5	6,237050
1,800333	0,5	8,016650
1,808667	0,5	9,767700
1,817000	0,5	10,668450
1,825333	0,5	10,593850
1,833667	0,5	9,835750
1,842000	0,5	8,739250
1,850333	0,5	7,699900
1,858667	0,5	6,832900
1,867000	0,5	6,170950
1,875333	0,5	5,634300
1,883667	0,5	5,215300
1,892000	0,5	4,869550
1,900333	0,5	4,571850
1,908667	0,5	4,289450
1,917000	0,5	4,090600
1,925333	0,5	3,887200
1,933667	0,5	3,721850
1,942000	0,5	3,587750
1,950333	0,5	3,505300
1,958667	0,5	3,465900
1,967000	0,5	3,432300
1,975333	0,5	3,387300
1,983667	0,5	3,376350
1,992000	0,5	3,374750
2,000333	0,5	3,370350
2,008667	0,5	3,384950
2,017000	0,5	3,432900
2,025333	0,5	3,548450
2,033667	0,5	3,815900
2,042000	0,5	4,341300
2,050333	0,5	5,002550
2,058667	0,5	5,634100
2,067000	0,5	6,281500
2,075333	0,5	7,067300
2,083667	0,5	7,947950
2,092000	0,5	8,691550
2,100333	0,5	9,183250
2,108667	0,5	9,467600
2,117000	0,5	9,604050
2,125333	0,5	9,688650
2,133667	0,5	9,846650
2,142000	0,5	10,099350
2,150333	0,5	10,413000
2,158667	0,5	10,840700
2,167000	0,5	11,256550
2,175333	0,5	11,334350
2,183667	0,5	10,956550
2,192000	0,5	10,360700
2,200333	0,5	9,874350
2,208667	0,5	9,533600
2,217000	0,5	9,316150
2,225333	0,5	9,151950
2,233667	0,5	9,093600
2,242000	0,5	9,105800
2,250333	0,5	9,189350
2,258667	0,5	9,215050
2,267000	0,5	9,193100
2,275333	0,5	9,136050
2,283667	0,5	9,118400
2,292000	0,5	9,107600
2,300333	0,5	9,119600
2,308667	0,5	9,134200
2,317000	0,5	9,171500
2,325333	0,5	9,206800
2,333667	0,5	9,268600
2,342000	0,5	9,334500
2,350333	0,5	9,394900
2,358667	0,5	9,493000
2,367000	0,5	9,575150
2,375333	0,5	9,654150
2,383667	0,5	9,754250
2,392000	0,5	9,883250
2,400333	0,5	10,078400
2,408667	0,5	10,330550
2,417000	0,5	10,594000
2,425333	0,5	10,725450
2,433667	0,5	10,640600
2,442000	0,5	10,518500
2,450333	0,5	10,499450
2,458667	0,5	10,574350
2,467000	0,5	10,640300
2,475333	0,5	10,712400
2,483667	0,5	10,781100
2,492000	0,5	10,818900
2,500333	0,5	10,849800
2,508667	0,5	10,904500
2,517000	0,5	10,909150
2,525333	0,5	10,929950
2,533667	0,5	10,969500
2,542000	0,5	11,038900
2,550333	0,5	11,166350
2,558667	0,5	11,316600
2,567000	0,5	11,596250
2,575333	0,5	12,034700
2,583667	0,5	12,666650
2,592000	0,5	13,395750
2,600333	0,5	14,144250
2,608667	0,5	14,750500
2,617000	0,5	15,162200
2,625333	0,5	15,392650
2,633667	0,5	15,544250
2,642000	0,5	15,649000
2,650333	0,5	15,770950
2,658667	0,5	15,871150
2,667000	0,5	15,883850
2,675333	0,5	15,838000
2,683667	0,5	15,820400
2,692000	0,5	15,972600
2,700333	0,5	16,529850
2,708667	0,5	17,691650
2,717000	0,5	19,618050
2,725333	0,5	22,214700
2,733667	0,5	25,124900
2,742000	0,5	27,956150
2,750333	0,5	30,381900
2,758667	0,5	32,175600
2,767000	0,5	33,114450
2,775333	0,5	33,161650
2,783667	0,5	32,440350
2,792000	0,5	31,201450
2,800333	0,5	29,701400
2,808667	0,5	28,121650
2,817000	0,5	26,586300
2,825333	0,5	25,472150
2,833667	0,5	25,276100
2,842000	0,5	26,555300
2,850333	0,5	29,448700
2,858667	0,5	33,253550
2,867000	0,5	36,529151
2,875333	0,5	37,832251
2,883667	0,5	36,673151
2,892000	0,5	33,656151
2,900333	0,5	29,908250
2,908667	0,5	26,320250
2,917000	0,5	23,333900
2,925333	0,5	20,914350
2,933667	0,5	18,891600
2,942000	0,5	17,050700
2,950333	0,5	15,424300
2,958667	0,5	13,909550
2,967000	0,5	12,595900
2,975333	0,5	11,473500
2,983667	0,5	10,546500
2,992000	0,5	9,781400
3,000333	0,5	9,118400
3,008667	0,5	8,531750
3,017000	0,5	8,045100
3,025333	0,5	7,619200
3,033667	0,5	7,245800
3,042000	0,5	6,912550
3,050333	0,5	6,609700
3,058667	0,5	6,338650
3,067000	0,5	6,085250
3,075333	0,5	5,857150
3,083667	0,5	5,625600
3,092000	0,5	5,416100
3,100333	0,5	5,228850
3,108667	0,5	5,032550
3,117000	0,5	4,848400
3,125333	0,5	4,694400
3,133667	0,5	4,577000
3,142000	0,5	4,484350
3,150333	0,5	4,387550
3,158667	0,5	4,325350
3,167000	0,5	4,301400
3,175333	0,5	4,329200
3,183667	0,5	4,394100
3,192000	0,5	4,551800
3,200333	0,5	4,839800
3,208667	0,5	5,361250
3,217000	0,5	6,261700
3,225333	0,5	7,645350
3,233667	0,5	9,540350
3,242000	0,5	11,723900
3,250333	0,5	13,811700
3,258667	0,5	15,333200
3,267000	0,5	16,023200
3,275333	0,5	15,783950
3,283667	0,5	14,808750
3,292000	0,5	13,315150
3,300333	0,5	11,597850
3,308667	0,5	9,889750
3,317000	0,5	8,365550
3,325333	0,5	7,064000
3,333667	0,5	6,029250
3,342000	0,5	5,201700
3,350333	0,5	4,554350
3,358667	0,5	4,045300
3,367000	0,5	3,645300
3,375333	0,5	3,332300
3,383667	0,5	3,068400
3,392000	0,5	2,864850
3,400333	0,5	2,675200
3,408667	0,5	2,504550
3,417000	0,5	2,377750
3,425333	0,5	2,280700
3,433667	0,5	2,230250
3,442000	0,5	2,162400
3,450333	0,5	2,079650
3,458667	0,5	2,016850
3,467000	0,5	1,942050
3,475333	0,5	1,869350
3,483667	0,5	1,787900
3,492000	0,5	1,718900
3,500333	0,5	1,637250
3,508667	0,5	1,570800
3,517000	0,5	1,505200
3,525333	0,5	1,442300
3,533667	0,5	1,395950
3,542000	0,5	1,369200
3,550333	0,5	1,303600
3,558667	0,5	1,257000
3,567000	0,5	1,227000
3,575333	0,5	1,206300
3,583667	0,5	1,203450
3,592000	0,5	1,162450
3,600333	0,5	1,136300
3,608667	0,5	1,102800
3,617000	0,5	1,073400
3,625333	0,5	1,039950
3,633667	0,5	1,022250
3,642000	0,5	0,984550
3,650333	0,5	0,958000
3,658667	0,5	0,926900
3,667000	0,5	0,901750
3,675333	0,5	0,861150
3,683667	0,5	0,845400
3,692000	0,5	0,825000
3,700333	0,5	0,790700
3,708667	0,5	0,760250
3,717000	0,5	0,743850
3,725333	0,5	0,737550
3,733667	0,5	0,746500
3,742000	0,5	0,715400
3,750333	0,5	0,693250
3,758667	0,5	0,678900
3,767000	0,5	0,662650
3,775333	0,5	0,649550
3,783667	0,5	0,641750
3,792000	0,5	0,636300
3,800333	0,5	0,625400
3,808667	0,5	0,624150
3,817000	0,5	0,614100
3,825333	0,5	0,597950
3,833667	0,5	0,608000
3,842000	0,5	0,592550
3,850333	0,5	0,564250
3,858667	0,5	0,550250
3,867000	0,5	0,542550
3,875333	0,5	0,560750
3,883667	0,5	0,553100
3,892000	0,5	0,535650
3,900333	0,5	0,522400
3,908667	0,5	0,512100
3,917000	0,5	0,500050
3,925333	0,5	0,486750
3,933667	0,5	0,489000
3,942000	0,5	0,469200
3,950333	0,5	0,460700
3,958667	0,5	0,451650
3,967000	0,5	0,445200
3,975333	0,5	0,424150
3,983667	0,5	0,443200
3,992000	0,5	0,417550
4,000333	0,5	0,406150
4,008667	0,5	0,392400
4,017000	0,5	0,405800
4,025333	0,5	0,427650
4,033667	0,5	0,423000
4,042000	0,5	0,406800
4,050333	0,5	0,402500
4,058667	0,5	0,385200
4,067000	0,5	0,379050
4,075333	0,5	0,371100
4,083667	0,5	0,366100
4,092000	0,5	0,355750
4,100333	0,5	0,348900
4,108667	0,5	0,343900
4,117000	0,5	0,324050
4,125333	0,5	0,313150
4,133667	0,5	0,320150
4,142000	0,5	0,310000
4,150333	0,5	0,295650
4,158667	0,5	0,302850
4,167000	0,5	0,314600
4,175333	0,5	0,341450
4,183667	0,5	0,323050
4,192000	0,5	0,318800
4,200333	0,5	0,307200
4,208667	0,5	0,310400
4,217000	0,5	0,295900
4,225333	0,5	0,301150
4,233667	0,5	0,292600
4,242000	0,5	0,291200
4,250333	0,5	0,285000
4,258667	0,5	0,286250
4,267000	0,5	0,278000
4,275333	0,5	0,283400
4,283667	0,5	0,278600
4,292000	0,5	0,260300
4,300333	0,5	0,259250
4,308667	0,5	0,260550
4,317000	0,5	0,285650
4,325333	0,5	0,297550
4,333667	0,5	0,304050
4,342000	0,5	0,302700
4,350333	0,5	0,299600
4,358667	0,5	0,289750
4,367000	0,5	0,292400
4,375333	0,5	0,286650
4,383667	0,5	0,289450
4,392000	0,5	0,285400
4,400333	0,5	0,293500
4,408667	0,5	0,291400
4,417000	0,5	0,300700
4,425333	0,5	0,317700
4,433667	0,5	0,323300
4,442000	0,5	0,330350
4,450333	0,5	0,343950
4,458667	0,5	0,365050
4,467000	0,5	0,400900
4,475333	0,5	0,417400
4,483667	0,5	0,409850
4,492000	0,5	0,408450
4,500333	0,5	0,406050
4,508667	0,5	0,406450
4,517000	0,5	0,398950
4,525333	0,5	0,402450
4,533667	0,5	0,392000
4,542000	0,5	0,404300
4,550333	0,5	0,402450
4,558667	0,5	0,406550
4,567000	0,5	0,407050
4,575333	0,5	0,412750
4,583667	0,5	0,391950
4,592000	0,5	0,375100
4,600333	0,5	0,364150
4,608667	0,5	0,371200
4,617000	0,5	0,379550
4,625333	0,5	0,365250
4,633667	0,5	0,351050
4,642000	0,5	0,358900
4,650333	0,5	0,352850
4,658667	0,5	0,345450
4,667000	0,5	0,341150
4,675333	0,5	0,335850
4,683667	0,5	0,329700
4,692000	0,5	0,329700
4,700333	0,5	0,334450
4,708667	0,5	0,323000
4,717000	0,5	0,347450
4,725333	0,5	0,343900
4,733667	0,5	0,338350
4,742000	0,5	0,334300
4,750333	0,5	0,350650
4,758667	0,5	0,373250
4,767000	0,5	0,393200
4,775333	0,5	0,379100
4,783667	0,5	0,387200
4,792000	0,5	0,388700
4,800333	0,5	0,393950
4,808667	0,5	0,392300
4,817000	0,5	0,393700
4,825333	0,5	0,394250
4,833667	0,5	0,391600
4,842000	0,5	0,403300
4,850333	0,5	0,400400
4,858667	0,5	0,386500
4,867000	0,5	0,403600
4,875333	0,5	0,396950
4,883667	0,5	0,390500
4,892000	0,5	0,388550
4,900333	0,5	0,396200
4,908667	0,5	0,432950
4,917000	0,5	0,425150
4,925333	0,5	0,428150
4,933667	0,5	0,429350
4,942000	0,5	0,435750
4,950333	0,5	0,440600
4,958667	0,5	0,445900
4,967000	0,5	0,444250
4,975333	0,5	0,443050
4,983667	0,5	0,450550
4,992000	0,5	0,451900
5,000333	0,5	0,464250
5,008667	0,5	0,461600
5,017000	0,5	0,484750
5,025333	0,5	0,474750
5,033667	0,5	0,477250
5,042000	0,5	0,479550
5,050333	0,5	0,507900
5,058667	0,5	0,532200
5,067000	0,5	0,538650
5,075333	0,5	0,533250
5,083667	0,5	0,544450
5,092000	0,5	0,537050
5,100333	0,5	0,543350
5,108667	0,5	0,543300
5,117000	0,5	0,552650
5,125333	0,5	0,551100
5,133667	0,5	0,554950
5,142000	0,5	0,562200
5,150333	0,5	0,560600
5,158667	0,5	0,562450
5,167000	0,5	0,578350
5,175333	0,5	0,561400
5,183667	0,5	0,573850
5,192000	0,5	0,583650
5,200333	0,5	0,609000
5,208667	0,5	0,648250
5,217000	0,5	0,653450
5,225333	0,5	0,669750
5,233667	0,5	0,686500
5,242000	0,5	0,706700
5,250333	0,5	0,731500
5,258667	0,5	0,750850
5,267000	0,5	0,759900
5,275333	0,5	0,768550
5,283667	0,5	0,774050
5,292000	0,5	0,771550
5,300333	0,5	0,752900
5,308667	0,5	0,761400
5,317000	0,5	0,749950
5,325333	0,5	0,731050
5,333667	0,5	0,717500
5,342000	0,5	0,714850
5,350333	0,5	0,732700
5,358667	0,5	0,736600
5,367000	0,5	0,730600
5,375333	0,5	0,722050
5,383667	0,5	0,719900
5,392000	0,5	0,713800
5,400333	0,5	0,707450
5,408667	0,5	0,711050
5,417000	0,5	0,709100
5,425333	0,5	0,710650
5,433667	0,5	0,717300
5,442000	0,5	0,705900
5,450333	0,5	0,714750
5,458667	0,5	0,729050
5,467000	0,5	0,725700
5,475333	0,5	0,718000
5,483667	0,5	0,727750
5,492000	0,5	0,744000
5,500333	0,5	0,777100
5,508667	0,5	0,781900
5,517000	0,5	0,785450
5,525333	0,5	0,787250
5,533667	0,5	0,788650
5,542000	0,5	0,787250
5,550333	0,5	0,793900
5,558667	0,5	0,803050
5,567000	0,5	0,803550
5,575333	0,5	0,811550
5,583667	0,5	0,812600
5,592000	0,5	0,815950
5,600333	0,5	0,831050
5,608667	0,5	0,844100
5,617000	0,5	0,831800
5,625333	0,5	0,832200
5,633667	0,5	0,836400
5,642000	0,5	0,862900
5,650333	0,5	0,876100
5,658667	0,5	0,882700
5,667000	0,5	0,880100
5,675333	0,5	0,890500
5,683667	0,5	0,892400
5,692000	0,5	0,902100
5,700333	0,5	0,899550
5,708667	0,5	0,907550
5,717000	0,5	0,906300
5,725333	0,5	0,913850
5,733667	0,5	0,918950
5,742000	0,5	0,912600
5,750333	0,5	0,932150
5,758667	0,5	0,939250
5,767000	0,5	0,936450
5,775333	0,5	0,934550
5,783667	0,5	0,944700
5,792000	0,5	0,972100
5,800333	0,5	0,992200
5,808667	0,5	0,981750
5,817000	0,5	0,993850
5,825333	0,5	0,994250
5,833667	0,5	1,001300
5,842000	0,5	1,002150
5,850333	0,5	1,010050
5,858667	0,5	1,016200
5,867000	0,5	1,019450
5,875333	0,5	1,029600
5,883667	0,5	1,028000
5,892000	0,5	1,023350
5,900333	0,5	1,047400
5,908667	0,5	1,045950
5,917000	0,5	1,050950
5,925333	0,5	1,057200
5,933667	0,5	1,072800
5,942000	0,5	1,105200
5,950333	0,5	1,105500
5,958667	0,5	1,117150
5,967000	0,5	1,120650
5,975333	0,5	1,129100
5,983667	0,5	1,133850
5,992000	0,5	1,141200
6,000333	0,5	1,144500
6,008667	0,5	1,145800
6,017000	0,5	1,148300
6,025333	0,5	1,156150
6,033667	0,5	1,159200
6,042000	0,5	1,162450
6,050333	0,5	1,177900
6,058667	0,5	1,173950
6,067000	0,5	1,174250
6,075333	0,5	1,183200
6,083667	0,5	1,201500
6,092000	0,5	1,229250
6,100333	0,5	1,233600
6,108667	0,5	1,234600
6,117000	0,5	1,240500
6,125333	0,5	1,245950
6,133667	0,5	1,250050
6,142000	0,5	1,253100
6,150333	0,5	1,261350
6,158667	0,5	1,264350
6,167000	0,5	1,281300
6,175333	0,5	1,282700
6,183667	0,5	1,289850
6,192000	0,5	1,296950
6,200333	0,5	1,310350
6,208667	0,5	1,299050
6,217000	0,5	1,313850
6,225333	0,5	1,322200
6,233667	0,5	1,341250
6,242000	0,5	1,369500
6,250333	0,5	1,365350
6,258667	0,5	1,363700
6,267000	0,5	1,383000
6,275333	0,5	1,383050
6,283667	0,5	1,387950
6,292000	0,5	1,401950
6,300333	0,5	1,402150
6,308667	0,5	1,411000
6,317000	0,5	1,414700
6,325333	0,5	1,419050
6,333667	0,5	1,416900
6,342000	0,5	1,436400
6,350333	0,5	1,433450
6,358667	0,5	1,437850
6,367000	0,5	1,446950
6,375333	0,5	1,464150
6,383667	0,5	1,482850
6,392000	0,5	1,508350
6,400333	0,5	1,513850
6,408667	0,5	1,526600
6,417000	0,5	1,529100
6,425333	0,5	1,535450
6,433667	0,5	1,544550
6,442000	0,5	1,550450
6,450333	0,5	1,557000
6,458667	0,5	1,562450
6,467000	0,5	1,580050
6,475333	0,5	1,571200
6,483667	0,5	1,578250
6,492000	0,5	1,591100
6,500333	0,5	1,590750
6,508667	0,5	1,589500
6,517000	0,5	1,598600
6,525333	0,5	1,614750
6,533667	0,5	1,640800
6,542000	0,5	1,643000
6,550333	0,5	1,653300
6,558667	0,5	1,651650
6,567000	0,5	1,666050
6,575333	0,5	1,663450
6,583667	0,5	1,673950
6,592000	0,5	1,676350
6,600333	0,5	1,680500
6,608667	0,5	1,690200
6,617000	0,5	1,690750
6,625333	0,5	1,686850
6,633667	0,5	1,699550
6,642000	0,5	1,709850
6,650333	0,5	1,713750
6,658667	0,5	1,715300
6,667000	0,5	1,726600
6,675333	0,5	1,751400
6,683667	0,5	1,758450
6,692000	0,5	1,767150
6,700333	0,5	1,772900
6,708667	0,5	1,782000
6,717000	0,5	1,783600
6,725333	0,5	1,792550
6,733667	0,5	1,798000
6,742000	0,5	1,801300
6,750333	0,5	1,803000
6,758667	0,5	1,812650
6,767000	0,5	1,822500
6,775333	0,5	1,821550
6,783667	0,5	1,840000
6,792000	0,5	1,836650
6,800333	0,5	1,831250
6,808667	0,5	1,834400
6,817000	0,5	1,845300
6,825333	0,5	1,865250
6,833667	0,5	1,878500
6,842000	0,5	1,874450
6,850333	0,5	1,883600
6,858667	0,5	1,883950
6,867000	0,5	1,882700
6,875333	0,5	1,887300
6,883667	0,5	1,896250
6,892000	0,5	1,891250
6,900333	0,5	1,895650
6,908667	0,5	1,897100
6,917000	0,5	1,900350
6,925333	0,5	1,887250
6,933667	0,5	1,905300
6,942000	0,5	1,895750
6,950333	0,5	1,895550
6,958667	0,5	1,900600
6,967000	0,5	1,913100
6,975333	0,5	1,934300
6,983667	0,5	1,929250
6,992000	0,5	1,923400
7,000333	0,5	1,927750
7,008667	0,5	1,928850
7,017000	0,5	1,927800
7,025333	0,5	1,930150
7,033667	0,5	1,927450
7,042000	0,5	1,929200
7,050333	0,5	1,932300
7,058667	0,5	1,931050
7,067000	0,5	1,921150
7,075333	0,5	1,920700
7,083667	0,5	1,932350
7,092000	0,5	1,924400
7,100333	0,5	1,920850
7,108667	0,5	1,921450
7,117000	0,5	1,934300
7,125333	0,5	1,951950
7,133667	0,5	1,955200
7,142000	0,5	1,953250
7,150333	0,5	1,951700
7,158667	0,5	1,957450
7,167000	0,5	1,953750
7,175333	0,5	1,955900
7,183667	0,5	1,956350
7,192000	0,5	1,961300
7,200333	0,5	1,972700
7,208667	0,5	1,982100
7,217000	0,5	1,993750
7,225333	0,5	2,012550
7,233667	0,5	2,039650
7,242000	0,5	2,046450
7,250333	0,5	2,066100
7,258667	0,5	2,072350
7,267000	0,5	2,082650
7,275333	0,5	2,088500
7,283667	0,5	2,068250
7,292000	0,5	2,045550
7,300333	0,5	2,028800
7,308667	0,5	2,009300
7,317000	0,5	1,998900
7,325333	0,5	1,998600
7,333667	0,5	1,983350
7,342000	0,5	1,976100
7,350333	0,5	1,972200
7,358667	0,5	1,967050
7,367000	0,5	1,963150
7,375333	0,5	1,965700
7,383667	0,5	1,956500
7,392000	0,5	1,948050
7,400333	0,5	1,938650
7,408667	0,5	1,943200
7,417000	0,5	1,952500
7,425333	0,5	1,962900
7,433667	0,5	1,958900
7,442000	0,5	1,955750
7,450333	0,5	1,955050
7,458667	0,5	1,952500
7,467000	0,5	1,949400
7,475333	0,5	1,946500
7,483667	0,5	1,944850
7,492000	0,5	1,951650
7,500333	0,5	1,952450
7,508667	0,5	1,951400
7,517000	0,5	1,954950
7,525333	0,5	1,965650
7,533667	0,5	1,970550
7,542000	0,5	1,972600
7,550333	0,5	1,986300
7,558667	0,5	2,011100
7,567000	0,5	2,044750
7,575333	0,5	2,077600
7,583667	0,5	2,138850
7,592000	0,5	2,195700
7,600333	0,5	2,282200
7,608667	0,5	2,380250
7,617000	0,5	2,481000
7,625333	0,5	2,568050
7,633667	0,5	2,640750
7,642000	0,5	2,687950
7,650333	0,5	2,697650
7,658667	0,5	2,672400
7,667000	0,5	2,637150
7,675333	0,5	2,580600
7,683667	0,5	2,524450
7,692000	0,5	2,458200
7,700333	0,5	2,404750
7,708667	0,5	2,371750
7,717000	0,5	2,335750
7,725333	0,5	2,309200
7,733667	0,5	2,278800
7,742000	0,5	2,265500
7,750333	0,5	2,247650
7,758667	0,5	2,222950
7,767000	0,5	2,193750
7,775333	0,5	2,163100
7,783667	0,5	2,142200
7,792000	0,5	2,115450
7,800333	0,5	2,092150
7,808667	0,5	2,068500
7,817000	0,5	2,062200
7,825333	0,5	2,047600
7,833667	0,5	2,031500
7,842000	0,5	2,017800
7,850333	0,5	2,002700
7,858667	0,5	2,013350
7,867000	0,5	2,013150
7,875333	0,5	2,003700
7,883667	0,5	1,997350
7,892000	0,5	1,995050
7,900333	0,5	1,986300
7,908667	0,5	1,977250
7,917000	0,5	1,974850
7,925333	0,5	1,971400
7,933667	0,5	1,972550
7,942000	0,5	1,973800
7,950333	0,5	1,971750
7,958667	0,5	1,972850
7,967000	0,5	1,983850
7,975333	0,5	1,987000
7,983667	0,5	1,985650
7,992000	0,5	1,989450
8,000333	0,5	2,001450
8,008667	0,5	2,018650
8,017000	0,5	2,020350
8,025333	0,5	2,020850
8,033667	0,5	2,014900
8,042000	0,5	2,008250
8,050333	0,5	2,003100
8,058667	0,5	1,998900
8,067000	0,5	1,986900
8,075333	0,5	1,983100
8,083667	0,5	1,976400
8,092000	0,5	1,975800
8,100333	0,5	1,966700
8,108667	0,5	1,965000
8,117000	0,5	1,975700
8,125333	0,5	1,974800
8,133667	0,5	1,987150
8,142000	0,5	2,009800
8,150333	0,5	2,043400
8,158667	0,5	2,090500
8,167000	0,5	2,125550
8,175333	0,5	2,151450
8,183667	0,5	2,150350
8,192000	0,5	2,132300
8,200333	0,5	2,097300
8,208667	0,5	2,066350
8,217000	0,5	2,030750
8,225333	0,5	2,008850
8,233667	0,5	1,995100
8,242000	0,5	1,996500
8,250333	0,5	1,996100
8,258667	0,5	2,018550
8,267000	0,5	2,048100
8,275333	0,5	2,079500
8,283667	0,5	2,118250
8,292000	0,5	2,151050
8,300333	0,5	2,177800
8,308667	0,5	2,178650
8,317000	0,5	2,164700
8,325333	0,5	2,145750
8,333667	0,5	2,126750
8,342000	0,5	2,104750
8,350333	0,5	2,095250
8,358667	0,5	2,087050
8,367000	0,5	2,081150
8,375333	0,5	2,079300
8,383667	0,5	2,079800
8,392000	0,5	2,080500
8,400333	0,5	2,075550
8,408667	0,5	2,083350
8,417000	0,5	2,083150
8,425333	0,5	2,085100
8,433667	0,5	2,095950
8,442000	0,5	2,116400
8,450333	0,5	2,156250
8,458667	0,5	2,181150
8,467000	0,5	2,185450
8,475333	0,5	2,153250
8,483667	0,5	2,077150
8,492000	0,5	1,988950
8,500333	0,5	1,913700
8,508667	0,5	1,852900
8,517000	0,5	1,806000
8,525333	0,5	1,769750
8,533667	0,5	1,740150
8,542000	0,5	1,716750
8,550333	0,5	1,701050
8,558667	0,5	1,691250
8,567000	0,5	1,678700
8,575333	0,5	1,674250
8,583667	0,5	1,667650
8,592000	0,5	1,671950
8,600333	0,5	1,677900
8,608667	0,5	1,686450
8,617000	0,5	1,690750
8,625333	0,5	1,698050
8,633667	0,5	1,704350
8,642000	0,5	1,709850
8,650333	0,5	1,707050
8,658667	0,5	1,706500
8,667000	0,5	1,701150
8,675333	0,5	1,697950
8,683667	0,5	1,691650
8,692000	0,5	1,688900
8,700333	0,5	1,690450
8,708667	0,5	1,694700
8,717000	0,5	1,691600
8,725333	0,5	1,699000
8,733667	0,5	1,707700
8,742000	0,5	1,716600
8,750333	0,5	1,728700
8,758667	0,5	1,731500
8,767000	0,5	1,728450
8,775333	0,5	1,726100
8,783667	0,5	1,722350
8,792000	0,5	1,721300
8,800333	0,5	1,724300
8,808667	0,5	1,726200
8,817000	0,5	1,735300
8,825333	0,5	1,744000
8,833667	0,5	1,752900
8,842000	0,5	1,760900
8,850333	0,5	1,771900
8,858667	0,5	1,777400
8,867000	0,5	1,776350
8,875333	0,5	1,779500
8,883667	0,5	1,783850
8,892000	0,5	1,794550
8,900333	0,5	1,804400
8,908667	0,5	1,809800
8,917000	0,5	1,817500
8,925333	0,5	1,824700
8,933667	0,5	1,829500
8,942000	0,5	1,832200
8,950333	0,5	1,831650
8,958667	0,5	1,833800
8,967000	0,5	1,828650
8,975333	0,5	1,826950
8,983667	0,5	1,818600
8,992000	0,5	1,808500
9,000333	0,5	1,809350
9,008667	0,5	1,804000
9,017000	0,5	1,794350
9,025333	0,5	1,788550
9,033667	0,5	1,785800
9,042000	0,5	1,790550
9,050333	0,5	1,792950
9,058667	0,5	1,796150
9,067000	0,5	1,803700
9,075333	0,5	1,810750
9,083667	0,5	1,817000
9,092000	0,5	1,824150
9,100333	0,5	1,827000
9,108667	0,5	1,829800
9,117000	0,5	1,825500
9,125333	0,5	1,814100
9,133667	0,5	1,792500
9,142000	0,5	1,771850
9,150333	0,5	1,761300
9,158667	0,5	1,742500
9,167000	0,5	1,731550
9,175333	0,5	1,717400
9,183667	0,5	1,707950
9,192000	0,5	1,698450
9,200333	0,5	1,688800
9,208667	0,5	1,678750
9,217000	0,5	1,674900
9,225333	0,5	1,672100
9,233667	0,5	1,671300
9,242000	0,5	1,669100
9,250333	0,5	1,664700
9,258667	0,5	1,662100
9,267000	0,5	1,661050
9,275333	0,5	1,662350
9,283667	0,5	1,656350
9,292000	0,5	1,656350
9,300333	0,5	1,655300
9,308667	0,5	1,658050
9,317000	0,5	1,661900
9,325333	0,5	1,664300
9,333667	0,5	1,669100
9,342000	0,5	1,675550
9,350333	0,5	1,683850
9,358667	0,5	1,687200
9,367000	0,5	1,689500
9,375333	0,5	1,698200
9,383667	0,5	1,705950
9,392000	0,5	1,709850
9,400333	0,5	1,713950
9,408667	0,5	1,715100
9,417000	0,5	1,719400
9,425333	0,5	1,717000
9,433667	0,5	1,715900
9,442000	0,5	1,709950
9,450333	0,5	1,696700
9,458667	0,5	1,681100
9,467000	0,5	1,662550
9,475333	0,5	1,647950
9,483667	0,5	1,636750
9,492000	0,5	1,626950
9,500333	0,5	1,615100
9,508667	0,5	1,603250
9,517000	0,5	1,591900
9,525333	0,5	1,580700
9,533667	0,5	1,570700
9,542000	0,5	1,564900
9,550333	0,5	1,557150
9,558667	0,5	1,544100
9,567000	0,5	1,537950
9,575333	0,5	1,529950
9,583667	0,5	1,524100
9,592000	0,5	1,515950
9,600333	0,5	1,506850
9,608667	0,5	1,493300
9,617000	0,5	1,484650
9,625333	0,5	1,481700
9,633667	0,5	1,478500
9,642000	0,5	1,470000
9,650333	0,5	1,460000
9,658667	0,5	1,454800
9,667000	0,5	1,446000
9,675333	0,5	1,439050
9,683667	0,5	1,429500
9,692000	0,5	1,423600
9,700333	0,5	1,415600
9,708667	0,5	1,408300
9,717000	0,5	1,404000
9,725333	0,5	1,397500
9,733667	0,5	1,392950
9,742000	0,5	1,383100
9,750333	0,5	1,378000
9,758667	0,5	1,372250
9,767000	0,5	1,370500
9,775333	0,5	1,368950
9,783667	0,5	1,374100
9,792000	0,5	1,373850
9,800333	0,5	1,377350
9,808667	0,5	1,382600
9,817000	0,5	1,389650
9,825333	0,5	1,393950
9,833667	0,5	1,407450
9,842000	0,5	1,417250
9,850333	0,5	1,432850
9,858667	0,5	1,445100
9,867000	0,5	1,476550
9,875333	0,5	1,512100
9,883667	0,5	1,567100
9,892000	0,5	1,641600
9,900333	0,5	1,732500
9,908667	0,5	1,832250
9,917000	0,5	1,956250
9,925333	0,5	2,074300
9,933667	0,5	2,185100
9,942000	0,5	2,260550
9,950333	0,5	2,299350
9,958667	0,5	2,284300
9,967000	0,5	2,224200
9,975333	0,5	2,128250
9,983667	0,5	2,009100
9,992000	0,5	1,889600
10,000333	0,5	1,779550
10,008667	0,5	1,687250
10,017000	0,5	1,619900
10,025333	0,5	1,565400
10,033667	0,5	1,537250
10,042000	0,5	1,516550
10,050333	0,5	1,501450
10,058667	0,5	1,496700
10,067000	0,5	1,493900
10,075333	0,5	1,498850
10,083667	0,5	1,503400
10,092000	0,5	1,511400
10,100333	0,5	1,520000
10,108667	0,5	1,529550
10,117000	0,5	1,535600
10,125333	0,5	1,547050
10,133667	0,5	1,551600
10,142000	0,5	1,566200
10,150333	0,5	1,574700
10,158667	0,5	1,584050
10,167000	0,5	1,593650
10,175333	0,5	1,600250
10,183667	0,5	1,606550
10,192000	0,5	1,603550
10,200333	0,5	1,591400
10,208667	0,5	1,573700
10,217000	0,5	1,554550
10,225333	0,5	1,530750
10,233667	0,5	1,513050
10,242000	0,5	1,487850
10,250333	0,5	1,467900
10,258667	0,5	1,449150
10,267000	0,5	1,428600
10,275333	0,5	1,412150
10,283667	0,5	1,400750
10,292000	0,5	1,387900
10,300333	0,5	1,374400
10,308667	0,5	1,367250
10,317000	0,5	1,357600
10,325333	0,5	1,350150
10,333667	0,5	1,344450
10,342000	0,5	1,345650
10,350333	0,5	1,344900
10,358667	0,5	1,344200
10,367000	0,5	1,345000
10,375333	0,5	1,359400
10,383667	0,5	1,370650
10,392000	0,5	1,388100
10,400333	0,5	1,398250
10,408667	0,5	1,418950
10,417000	0,5	1,432500
10,425333	0,5	1,454350
10,433667	0,5	1,469650
10,442000	0,5	1,495600
10,450333	0,5	1,531750
10,458667	0,5	1,564550
10,467000	0,5	1,594550
10,475333	0,5	1,627100
10,483667	0,5	1,652850
10,492000	0,5	1,651800
10,500333	0,5	1,638950
10,508667	0,5	1,607050
10,517000	0,5	1,562000
10,525333	0,5	1,523600
10,533667	0,5	1,486100
10,542000	0,5	1,453900
10,550333	0,5	1,433650
10,558667	0,5	1,410300
10,567000	0,5	1,398750
10,575333	0,5	1,387700
10,583667	0,5	1,378350
10,592000	0,5	1,365750
10,600333	0,5	1,360500
10,608667	0,5	1,348600
10,617000	0,5	1,334700
10,625333	0,5	1,329750
10,633667	0,5	1,321950
10,642000	0,5	1,310250
10,650333	0,5	1,302150
10,658667	0,5	1,294550
10,667000	0,5	1,290050
10,675333	0,5	1,294300
10,683667	0,5	1,298300
10,692000	0,5	1,301500
10,700333	0,5	1,305900
10,708667	0,5	1,321950
10,717000	0,5	1,336100
10,725333	0,5	1,356900
10,733667	0,5	1,381300
10,742000	0,5	1,404900
10,750333	0,5	1,428500
10,758667	0,5	1,435200
10,767000	0,5	1,418300
10,775333	0,5	1,397600
10,783667	0,5	1,356650
10,792000	0,5	1,306450
10,800333	0,5	1,255250
10,808667	0,5	1,216350
10,817000	0,5	1,192000
10,825333	0,5	1,178000
10,833667	0,5	1,175050
10,842000	0,5	1,176150
10,850333	0,5	1,194150
10,858667	0,5	1,209100
10,867000	0,5	1,232650
10,875333	0,5	1,253600
10,883667	0,5	1,274300
10,892000	0,5	1,293800
10,900333	0,5	1,309750
10,908667	0,5	1,314500
10,917000	0,5	1,325250
10,925333	0,5	1,324300
10,933667	0,5	1,318450
10,942000	0,5	1,315350
10,950333	0,5	1,302500
10,958667	0,5	1,296950
10,967000	0,5	1,296400
10,975333	0,5	1,289100
10,983667	0,5	1,286500
10,992000	0,5	1,284950
11,000333	0,5	1,283400
11,008667	0,5	1,282400
11,017000	0,5	1,285600
11,025333	0,5	1,276850
11,033667	0,5	1,273500
11,042000	0,5	1,283600
11,050333	0,5	1,278100
11,058667	0,5	1,275500
11,067000	0,5	1,282050
11,075333	0,5	1,287450
11,083667	0,5	1,282850
11,092000	0,5	1,283750
11,100333	0,5	1,275850
11,108667	0,5	1,280050
11,117000	0,5	1,279500
11,125333	0,5	1,279300
11,133667	0,5	1,281550
11,142000	0,5	1,282600
11,150333	0,5	1,284050
11,158667	0,5	1,286950
11,167000	0,5	1,292500
11,175333	0,5	1,285050
11,183667	0,5	1,289850
11,192000	0,5	1,289250
11,200333	0,5	1,286650
11,208667	0,5	1,280300
11,217000	0,5	1,286250
11,225333	0,5	1,288450
11,233667	0,5	1,284550
11,242000	0,5	1,281000
11,250333	0,5	1,281900
11,258667	0,5	1,288700
11,267000	0,5	1,290550
11,275333	0,5	1,291100
11,283667	0,5	1,297200
11,292000	0,5	1,304300
11,300333	0,5	1,323900
11,308667	0,5	1,353850
11,317000	0,5	1,396300
11,325333	0,5	1,455000
11,333667	0,5	1,526450
11,342000	0,5	1,608350
11,350333	0,5	1,683000
11,358667	0,5	1,733700
11,367000	0,5	1,760800
11,375333	0,5	1,746750
11,383667	0,5	1,710450
11,392000	0,5	1,663300
11,400333	0,5	1,608050
11,408667	0,5	1,569350
11,417000	0,5	1,536350
11,425333	0,5	1,509900
11,433667	0,5	1,494450
11,442000	0,5	1,487300
11,450333	0,5	1,472400
11,458667	0,5	1,470300
11,467000	0,5	1,467550
11,475333	0,5	1,465450
11,483667	0,5	1,474350
11,492000	0,5	1,490300
11,500333	0,5	1,506200
11,508667	0,5	1,547900
11,517000	0,5	1,602250
11,525333	0,5	1,682900
11,533667	0,5	1,799450
11,542000	0,5	1,968650
11,550333	0,5	2,202800
11,558667	0,5	2,485300
11,567000	0,5	2,808650
11,575333	0,5	3,127200
11,583667	0,5	3,406800
11,592000	0,5	3,595100
11,600333	0,5	3,593950
11,608667	0,5	3,661300
11,617000	0,5	3,550200
11,625333	0,5	3,382300
11,633667	0,5	3,191400
11,642000	0,5	3,019650
11,650333	0,5	2,891250
11,658667	0,5	2,844600
11,667000	0,5	2,845150
11,675333	0,5	2,897600
11,683667	0,5	2,976400
11,692000	0,5	3,063550
11,700333	0,5	3,124100
11,708667	0,5	3,143100
11,717000	0,5	3,101250
11,725333	0,5	3,010650
11,733667	0,5	2,880700
11,742000	0,5	2,716950
11,750333	0,5	2,540800
11,758667	0,5	2,369750
11,767000	0,5	2,201200
11,775333	0,5	2,048750
11,783667	0,5	1,910900
11,792000	0,5	1,796550
11,800333	0,5	1,698950
11,808667	0,5	1,625850
11,817000	0,5	1,558600
11,825333	0,5	1,509300
11,833667	0,5	1,460750
11,842000	0,5	1,427050
11,850333	0,5	1,400250
11,858667	0,5	1,383050
11,867000	0,5	1,369400
11,875333	0,5	1,357450
11,883667	0,5	1,348750
11,892000	0,5	1,331150
11,900333	0,5	1,327750
11,908667	0,5	1,321200
11,917000	0,5	1,315900
11,925333	0,5	1,306300
11,933667	0,5	1,310600
11,942000	0,5	1,273200
11,950333	0,5	1,289600
11,958667	0,5	1,290050
11,967000	0,5	1,289450
11,975333	0,5	1,283550
11,983667	0,5	1,280200
11,992000	0,5	1,276250
12,000333	0,5	1,284100
12,008667	0,5	1,286100
12,017000	0,5	1,290000
12,025333	0,5	1,295100
12,033667	0,5	1,296700
12,042000	0,5	1,304050
12,050333	0,5	1,310750
12,058667	0,5	1,320050
12,067000	0,5	1,325350
12,075333	0,5	1,339550
12,083667	0,5	1,353200
12,092000	0,5	1,358350
12,100333	0,5	1,383850
12,108667	0,5	1,397050
12,117000	0,5	1,404400
12,125333	0,5	1,412250
12,133667	0,5	1,407650
12,142000	0,5	1,422400
12,150333	0,5	1,422500
12,158667	0,5	1,425700
12,167000	0,5	1,427100
12,175333	0,5	1,430650
12,183667	0,5	1,431900
12,192000	0,5	1,437200
12,200333	0,5	1,439750
12,208667	0,5	1,450600
12,217000	0,5	1,459800
12,225333	0,5	1,474250
12,233667	0,5	1,487800
12,242000	0,5	1,506900
12,250333	0,5	1,528900
12,258667	0,5	1,549450
12,267000	0,5	1,571500
12,275333	0,5	1,590200
12,283667	0,5	1,637500
12,292000	0,5	1,702250
12,300333	0,5	1,780300
12,308667	0,5	1,859950
12,317000	0,5	1,948000
12,325333	0,5	2,020900
12,333667	0,5	2,082250
12,342000	0,5	2,127950
12,350333	0,5	2,160700
12,358667	0,5	2,188650
12,367000	0,5	2,207450
12,375333	0,5	2,225050
12,383667	0,5	2,216650
12,392000	0,5	2,205900
12,400333	0,5	2,182900
12,408667	0,5	2,150400
12,417000	0,5	2,114850
12,425333	0,5	2,081950
12,433667	0,5	2,070850
12,442000	0,5	2,071450
12,450333	0,5	2,067450
12,458667	0,5	2,069150
12,467000	0,5	2,055050
12,475333	0,5	2,049600
12,483667	0,5	2,036200
12,492000	0,5	2,046050
12,500333	0,5	2,073350
12,508667	0,5	2,120750
12,517000	0,5	2,175350
12,525333	0,5	2,237700
12,533667	0,5	2,268700
12,542000	0,5	2,286150
12,550333	0,5	2,269850
12,558667	0,5	2,217100
12,567000	0,5	2,142550
12,575333	0,5	2,050900
12,583667	0,5	1,959200
12,592000	0,5	1,865900
12,600333	0,5	1,778150
12,608667	0,5	1,692450
12,617000	0,5	1,626500
12,625333	0,5	1,553800
12,633667	0,5	1,495050
12,642000	0,5	1,438950
12,650333	0,5	1,398350
12,658667	0,5	1,359900
12,667000	0,5	1,335200
12,675333	0,5	1,307600
12,683667	0,5	1,278900
12,692000	0,5	1,266800
12,700333	0,5	1,247150
12,708667	0,5	1,230200
12,717000	0,5	1,205500
12,725333	0,5	1,189800
12,733667	0,5	1,179350
12,742000	0,5	1,171750
12,750333	0,5	1,158800
12,758667	0,5	1,156950
12,767000	0,5	1,153450
12,775333	0,5	1,147000
12,783667	0,5	1,144250
12,792000	0,5	1,142550
12,800333	0,5	1,135200
12,808667	0,5	1,138100
12,817000	0,5	1,133150
12,825333	0,5	1,120650
12,833667	0,5	1,112750
12,842000	0,5	1,112300
12,850333	0,5	1,086500
12,858667	0,5	1,067900
12,867000	0,5	1,040050
12,875333	0,5	1,026350
12,883667	0,5	1,014600
12,892000	0,5	1,002600
12,900333	0,5	0,998400
12,908667	0,5	1,005650
12,917000	0,5	1,010850
12,925333	0,5	1,040100
12,933667	0,5	1,075000
12,942000	0,5	1,120300
12,950333	0,5	1,159100
12,958667	0,5	1,201500
12,967000	0,5	1,228350
12,975333	0,5	1,229850
12,983667	0,5	1,223050
12,992000	0,5	1,162550
13,000333	0,5	1,078850
13,008667	0,5	0,983950
13,017000	0,5	0,884650
13,025333	0,5	0,803300
13,033667	0,5	0,727700
13,042000	0,5	0,648150
13,050333	0,5	0,582350
13,058667	0,5	0,517950
13,067000	0,5	0,418150
13,075333	0,5	0,293100
13,083667	0,5	0,099000
13,092000	0,5	-0,209200
13,100333	0,5	-0,637800
13,108667	0,5	-0,993800
13,117000	0,5	-1,311200
13,125333	0,5	-1,575250
13,133667	0,5	-1,747150
13,142000	0,5	-1,861350
13,150333	0,5	-1,947850
13,158667	0,5	-2,016250
13,167000	0,5	-2,068750
13,175333	0,5	-2,095750
13,183667	0,5	-2,131950
13,192000	0,5	-2,156100
13,200333	0,5	-2,181400
13,208667	0,5	-2,188750
13,217000	0,5	-2,191750
13,225333	0,5	-2,185500
13,233667	0,5	-2,181800
13,242000	0,5	-2,172650
13,250333	0,5	-2,168350
13,258667	0,5	-2,158700
13,267000	0,5	-2,177900
13,275333	0,5	-2,177000
13,283667	0,5	-2,192000
13,292000	0,5	-2,210250
13,300333	0,5	-2,234450
13,308667	0,5	-2,270750
13,317000	0,5	-2,288100
13,325333	0,5	-2,312700
13,333667	0,5	-2,330550
13,342000	0,5	-2,355250
13,350333	0,5	-2,375850
13,358667	0,5	-2,392450
13,367000	0,5	-2,402050
13,375333	0,5	-2,403250
13,383667	0,5	-2,403150
13,392000	0,5	-2,401000
13,400333	0,5	-2,384150
13,408667	0,5	-2,363850
13,417000	0,5	-2,345750
13,425333	0,5	-2,310750
13,433667	0,5	-2,279800
13,442000	0,5	-2,261750
13,450333	0,5	-2,257300
13,458667	0,5	-2,258650
13,467000	0,5	-2,252200
13,475333	0,5	-2,249950
13,483667	0,5	-2,259200
13,492000	0,5	-2,256600
13,500333	0,5	-2,261000
13,508667	0,5	-2,258900
13,517000	0,5	-2,255950
13,525333	0,5	-2,242000
13,533667	0,5	-2,228550
13,542000	0,5	-2,206900
13,550333	0,5	-2,183850
13,558667	0,5	-2,159500
13,567000	0,5	-2,139500
13,575333	0,5	-2,104150
13,583667	0,5	-2,091050
13,592000	0,5	-2,077700
13,600333	0,5	-2,080700
13,608667	0,5	-2,084450
13,617000	0,5	-2,075850
13,625333	0,5	-2,079800
13,633667	0,5	-2,086900
13,642000	0,5	-2,095600
13,650333	0,5	-2,104100
13,658667	0,5	-2,116250
13,667000	0,5	-2,112500
13,675333	0,5	-2,119150
13,683667	0,5	-2,119150
13,692000	0,5	-2,118050
13,700333	0,5	-2,110750
13,708667	0,5	-2,110850
13,717000	0,5	-2,102200
13,725333	0,5	-2,087450
13,733667	0,5	-2,079500
13,742000	0,5	-2,081400
13,750333	0,5	-2,072400
13,758667	0,5	-2,067100
13,767000	0,5	-2,040700
13,775333	0,5	-2,024200
13,783667	0,5	-2,003700
13,792000	0,5	-1,982150
13,800333	0,5	-1,960550
13,808667	0,5	-1,935550
13,817000	0,5	-1,911350
13,825333	0,5	-1,883300
13,833667	0,5	-1,856350
13,842000	0,5	-1,816800
13,850333	0,5	-1,788200
13,858667	0,5	-1,754000
13,867000	0,5	-1,716100
13,875333	0,5	-1,671350
13,883667	0,5	-1,645450
13,892000	0,5	-1,618150
13,900333	0,5	-1,610550
13,908667	0,5	-1,586650
13,917000	0,5	-1,571850
13,925333	0,5	-1,555200
13,933667	0,5	-1,549700
13,942000	0,5	-1,538650
13,950333	0,5	-1,529150
13,958667	0,5	-1,525650
13,967000	0,5	-1,503150
13,975333	0,5	-1,487150
13,983667	0,5	-1,463100
13,992000	0,5	-1,438700
14,000333	0,5	-1,426650
14,008667	0,5	-1,400300
14,017000	0,5	-1,364400
14,025333	0,5	-1,331050
14,033667	0,5	-1,289150
14,042000	0,5	-1,262650
14,050333	0,5	-1,209300
14,058667	0,5	-1,138800
14,067000	0,5	-1,055800
14,075333	0,5	-0,959700
14,083667	0,5	-0,852800
14,092000	0,5	-0,750100
14,100333	0,5	-0,651850
14,108667	0,5	-0,567000
14,117000	0,5	-0,505900
14,125333	0,5	-0,471600
14,133667	0,5	-0,452350
14,142000	0,5	-0,440500
14,150333	0,5	-0,460250
14,158667	0,5	-0,461850
14,167000	0,5	-0,453800
14,175333	0,5	-0,436900
14,183667	0,5	-0,406300
14,192000	0,5	-0,349550
14,200333	0,5	-0,262150
14,208667	0,5	-0,148550
14,217000	0,5	-0,041250
14,225333	0,5	0,063400
14,233667	0,5	0,141050
14,242000	0,5	0,186000
14,250333	0,5	0,200950
14,258667	0,5	0,193800
14,267000	0,5	0,170500
14,275333	0,5	0,145000
14,283667	0,5	0,131800
14,292000	0,5	0,127700
14,300333	0,5	0,107050
14,308667	0,5	0,115600
14,317000	0,5	0,120250
14,325333	0,5	0,112900
14,333667	0,5	0,107950
14,342000	0,5	0,090150
14,350333	0,5	0,106750
14,358667	0,5	0,106100
14,367000	0,5	0,104700
14,375333	0,5	0,105600
14,383667	0,5	0,117200
14,392000	0,5	0,116400
14,400333	0,5	0,126450
14,408667	0,5	0,126400
14,417000	0,5	0,129750
14,425333	0,5	0,130700
14,433667	0,5	0,140850
14,442000	0,5	0,142650
14,450333	0,5	0,151700
14,458667	0,5	0,176450
14,467000	0,5	0,193100
14,475333	0,5	0,205550
14,483667	0,5	0,204650
14,492000	0,5	0,200500
14,500333	0,5	0,196550
14,508667	0,5	0,189300
14,517000	0,5	0,177200
14,525333	0,5	0,163300
14,533667	0,5	0,146050
14,542000	0,5	0,133750
14,550333	0,5	0,114650
14,558667	0,5	0,111050
14,567000	0,5	0,084900
14,575333	0,5	0,086000
14,583667	0,5	0,084050
14,592000	0,5	0,086550
14,600333	0,5	0,091300
14,608667	0,5	0,096900
14,617000	0,5	0,092750
14,625333	0,5	0,091650
14,633667	0,5	0,084400
14,642000	0,5	0,087750
14,650333	0,5	0,100350
14,658667	0,5	0,121550
14,667000	0,5	0,145550
14,675333	0,5	0,206850
14,683667	0,5	0,293850
14,692000	0,5	0,405600
14,700333	0,5	0,526300
14,708667	0,5	0,623500
14,717000	0,5	0,693350
14,725333	0,5	0,696100
14,733667	0,5	0,660000
14,742000	0,5	0,573900
14,750333	0,5	0,509850
14,758667	0,5	0,449550
14,767000	0,5	0,417900
14,775333	0,5	0,412000
14,783667	0,5	0,449500
14,792000	0,5	0,525650
14,800333	0,5	0,610500
14,808667	0,5	0,656950
14,817000	0,5	0,671350
14,825333	0,5	0,641550
14,833667	0,5	0,575950
14,842000	0,5	0,493050
14,850333	0,5	0,414450
14,858667	0,5	0,343500
14,867000	0,5	0,288400
14,875333	0,5	0,264600
14,883667	0,5	0,224550
14,892000	0,5	0,204950
14,900333	0,5	0,196150
14,908667	0,5	0,186150
14,917000	0,5	0,171050
14,925333	0,5	0,160150
14,933667	0,5	0,152050
14,942000	0,5	0,169050
14,950333	0,5	0,181950
14,958667	0,5	0,189850
14,967000	0,5	0,187450
14,975333	0,5	0,170150
14,983667	0,5	0,155350
14,992000	0,5	0,158000
15,000333	0,5	0,144400
15,008667	0,5	0,137250
15,017000	0,5	0,146100
15,025333	0,5	0,136900
15,033667	0,5	0,105900
15,042000	0,5	0,098250
15,050333	0,5	0,083400
15,058667	0,5	0,059250
15,067000	0,5	0,041800
15,075333	0,5	0,003350
15,083667	0,5	-0,000200
15,092000	0,5	-0,003000
15,100333	0,5	-0,006900
15,108667	0,5	-0,012000
15,117000	0,5	-0,013900
15,125333	0,5	-0,019250
15,133667	0,5	-0,024700
15,142000	0,5	-0,028250
15,150333	0,5	-0,035650
15,158667	0,5	-0,032100
15,167000	0,5	-0,014000
15,175333	0,5	0,011900
15,183667	0,5	0,053950
15,192000	0,5	0,148350
15,200333	0,5	0,265550
15,208667	0,5	0,390150
15,217000	0,5	0,494950
15,225333	0,5	0,545800
15,233667	0,5	0,550500
15,242000	0,5	0,516000
15,250333	0,5	0,442400
15,258667	0,5	0,390300
15,267000	0,5	0,366000
15,275333	0,5	0,383050
15,283667	0,5	0,434300
15,292000	0,5	0,511850
15,300333	0,5	0,552200
15,308667	0,5	0,542650
15,317000	0,5	0,505400
15,325333	0,5	0,416300
15,333667	0,5	0,324050
15,342000	0,5	0,250300
15,350333	0,5	0,195450
15,358667	0,5	0,154150
15,367000	0,5	0,121650
15,375333	0,5	0,098900
15,383667	0,5	0,106700
15,392000	0,5	0,090350
15,400333	0,5	0,073000
15,408667	0,5	0,055400
15,417000	0,5	0,041850
15,425333	0,5	0,034250
15,433667	0,5	0,034650
15,442000	0,5	0,035800
15,450333	0,5	0,034000
15,458667	0,5	0,048350
15,467000	0,5	0,054200
15,475333	0,5	0,026400
15,483667	0,5	0,026300
15,492000	0,5	0,005550
15,500333	0,5	-0,018600
15,508667	0,5	-0,054650
15,517000	0,5	-0,095150
15,525333	0,5	-0,112150
15,533667	0,5	-0,127200
15,542000	0,5	-0,141500
15,550333	0,5	-0,157400
15,558667	0,5	-0,165350
15,567000	0,5	-0,176250
15,575333	0,5	-0,187100
15,583667	0,5	-0,203500
15,592000	0,5	-0,206300
15,600333	0,5	-0,213500
15,608667	0,5	-0,193450
15,617000	0,5	-0,175250
15,625333	0,5	-0,154300
15,633667	0,5	-0,080700
15,642000	0,5	0,017500
15,650333	0,5	0,135800
15,658667	0,5	0,261600
15,667000	0,5	0,359650
15,675333	0,5	0,424400
15,683667	0,5	0,433950
15,692000	0,5	0,403950
15,700333	0,5	0,365050
15,708667	0,5	0,351700
15,717000	0,5	0,371750
15,725333	0,5	0,408250
15,733667	0,5	0,447350
15,742000	0,5	0,444200
15,750333	0,5	0,415800
15,758667	0,5	0,345800
15,767000	0,5	0,254600
15,775333	0,5	0,154950
15,783667	0,5	0,080950
15,792000	0,5	0,008200
15,800333	0,5	-0,041850
15,808667	0,5	-0,093100
15,817000	0,5	-0,133600
15,825333	0,5	-0,134400
15,833667	0,5	-0,135600
15,842000	0,5	-0,129350
15,850333	0,5	-0,116550
15,858667	0,5	-0,109500
15,867000	0,5	-0,106250
15,875333	0,5	-0,108750
15,883667	0,5	-0,131600
15,892000	0,5	-0,149550
15,900333	0,5	-0,162200
15,908667	0,5	-0,181900
15,917000	0,5	-0,219050
15,925333	0,5	-0,239550
15,933667	0,5	-0,260300
15,942000	0,5	-0,280400
15,950333	0,5	-0,313050
15,958667	0,5	-0,335900
15,967000	0,5	-0,351350
15,975333	0,5	-0,355300
15,983667	0,5	-0,372900
15,992000	0,5	-0,372450
16,000333	0,5	-0,377400
16,008667	0,5	-0,372100
16,017000	0,5	-0,367800
16,025333	0,5	-0,341250
16,033667	0,5	-0,280600
16,042000	0,5	-0,190500
16,050333	0,5	-0,052450
16,058667	0,5	0,079800
16,067000	0,5	0,190400
16,075333	0,5	0,283400
16,083667	0,5	0,325400
16,092000	0,5	0,312650
16,100333	0,5	0,287450
16,108667	0,5	0,280700
16,117000	0,5	0,306000
16,125333	0,5	0,319400
16,133667	0,5	0,309400
16,142000	0,5	0,250100
16,150333	0,5	0,174300
16,158667	0,5	0,076800
16,167000	0,5	-0,008750
16,175333	0,5	-0,078600
16,183667	0,5	-0,137000
16,192000	0,5	-0,174850
16,200333	0,5	-0,179100
16,208667	0,5	-0,196850
16,217000	0,5	-0,188700
16,225333	0,5	-0,177150
16,233667	0,5	-0,167950
16,242000	0,5	-0,166450
16,250333	0,5	-0,192650
16,258667	0,5	-0,190200
16,267000	0,5	-0,194800
16,275333	0,5	-0,202650
16,283667	0,5	-0,225950
16,292000	0,5	-0,250200
16,300333	0,5	-0,271100
16,308667	0,5	-0,297100
16,317000	0,5	-0,322600
16,325333	0,5	-0,339150
16,333667	0,5	-0,356750
16,342000	0,5	-0,379750
16,350333	0,5	-0,388400
16,358667	0,5	-0,424100
16,367000	0,5	-0,420900
16,375333	0,5	-0,423200
16,383667	0,5	-0,417500
16,392000	0,5	-0,416200
16,400333	0,5	-0,382050
16,408667	0,5	-0,295850
16,417000	0,5	-0,166850
16,425333	0,5	-0,040050
16,433667	0,5	0,098300
16,442000	0,5	0,197800
16,450333	0,5	0,255750
16,458667	0,5	0,259150
16,467000	0,5	0,260550
16,475333	0,5	0,247650
16,483667	0,5	0,239550
16,492000	0,5	0,213500
16,500333	0,5	0,172900
16,508667	0,5	0,085300
16,517000	0,5	0,020850
16,525333	0,5	-0,050400
16,533667	0,5	-0,106450
16,542000	0,5	-0,153200
16,550333	0,5	-0,188150
16,558667	0,5	-0,164950
16,567000	0,5	-0,144400
16,575333	0,5	-0,119950
16,583667	0,5	-0,100900
16,592000	0,5	-0,083350
16,600333	0,5	-0,071300
16,608667	0,5	-0,055000
16,617000	0,5	-0,056300
16,625333	0,5	-0,064450
16,633667	0,5	-0,076900
16,642000	0,5	-0,080900
16,650333	0,5	-0,109950
16,658667	0,5	-0,118900
16,667000	0,5	-0,127150
16,675333	0,5	-0,136000
16,683667	0,5	-0,149450
16,692000	0,5	-0,189300
16,700333	0,5	-0,211050
16,708667	0,5	-0,220550
16,717000	0,5	-0,219650
16,725333	0,5	-0,223850
16,733667	0,5	-0,186200
16,742000	0,5	-0,135600
16,750333	0,5	-0,049900
16,758667	0,5	0,055700
16,767000	0,5	0,139350
16,775333	0,5	0,190900
16,783667	0,5	0,211850
16,792000	0,5	0,208450
16,800333	0,5	0,184100
16,808667	0,5	0,174600
16,817000	0,5	0,144500
16,825333	0,5	0,083000
16,833667	0,5	0,003000
16,842000	0,5	-0,097650
16,850333	0,5	-0,163450
16,858667	0,5	-0,208000
16,867000	0,5	-0,240750
16,875333	0,5	-0,264900
16,883667	0,5	-0,279600
16,892000	0,5	-0,287850
16,900333	0,5	-0,306700
16,908667	0,5	-0,303250
16,917000	0,5	-0,315100
16,925333	0,5	-0,323650
16,933667	0,5	-0,343350
16,942000	0,5	-0,358700
16,950333	0,5	-0,374450
16,958667	0,5	-0,382600
16,967000	0,5	-0,405300
16,975333	0,5	-0,424200
16,983667	0,5	-0,460300
16,992000	0,5	-0,477400
17,000333	0,5	-0,480350
17,008667	0,5	-0,459450
17,017000	0,5	-0,438000
17,025333	0,5	-0,385550
17,033667	0,5	-0,322100
17,042000	0,5	-0,233550
17,050333	0,5	-0,111900
17,058667	0,5	0,018950
17,067000	0,5	0,137450
17,075333	0,5	0,246650
17,083667	0,5	0,349400
17,092000	0,5	0,427700
17,100333	0,5	0,528550
17,108667	0,5	0,640850
17,117000	0,5	0,760100
17,125333	0,5	0,887300
17,133667	0,5	1,013750
17,142000	0,5	1,167550
17,150333	0,5	1,349400
17,158667	0,5	1,517550
17,167000	0,5	1,670550
17,175333	0,5	1,816900
17,183667	0,5	1,936550
17,192000	0,5	2,032150
17,200333	0,5	2,092500
17,208667	0,5	2,143800
17,217000	0,5	2,129950
17,225333	0,5	2,101700
17,233667	0,5	2,007300
17,242000	0,5	1,856000
17,250333	0,5	1,694400
17,258667	0,5	1,502000
17,267000	0,5	1,290050
17,275333	0,5	1,087150
17,283667	0,5	0,885050
17,292000	0,5	0,742400
17,300333	0,5	0,617450
17,308667	0,5	0,545750
17,317000	0,5	0,512950
17,325333	0,5	0,521950
17,333667	0,5	0,538750
17,342000	0,5	0,551800
17,350333	0,5	0,560350
17,358667	0,5	0,539000
17,367000	0,5	0,516500
17,375333	0,5	0,482950
17,383667	0,5	0,429000
17,392000	0,5	0,371150
17,400333	0,5	0,331350
17,408667	0,5	0,295100
17,417000	0,5	0,276700
17,425333	0,5	0,269150
17,433667	0,5	0,290050
17,442000	0,5	0,328650
17,450333	0,5	0,376250
17,458667	0,5	0,400050
17,467000	0,5	0,436150
17,475333	0,5	0,452800
17,483667	0,5	0,462050
17,492000	0,5	0,454550
17,500333	0,5	0,435500
17,508667	0,5	0,400200
17,517000	0,5	0,353900
17,525333	0,5	0,315500
17,533667	0,5	0,237050
17,542000	0,5	0,180000
17,550333	0,5	0,133000
17,558667	0,5	0,121450
17,567000	0,5	0,112900
17,575333	0,5	0,112800
17,583667	0,5	0,131450
17,592000	0,5	0,153450
17,600333	0,5	0,137850
17,608667	0,5	0,109500
17,617000	0,5	0,068700
17,625333	0,5	0,016150
17,633667	0,5	-0,060150
17,642000	0,5	-0,128000
17,650333	0,5	-0,189450
17,658667	0,5	-0,246200
17,667000	0,5	-0,266400
17,675333	0,5	-0,286700
17,683667	0,5	-0,342800
17,692000	0,5	-0,354450
17,700333	0,5	-0,381150
17,708667	0,5	-0,417350
17,717000	0,5	-0,453500
17,725333	0,5	-0,495000
17,733667	0,5	-0,495400
17,742000	0,5	-0,514650
17,750333	0,5	-0,519400
17,758667	0,5	-0,526250
17,767000	0,5	-0,509500
17,775333	0,5	-0,496350
17,783667	0,5	-0,452750
17,792000	0,5	-0,399400
17,800333	0,5	-0,334200
17,808667	0,5	-0,288450
17,817000	0,5	-0,240450
17,825333	0,5	-0,233250
17,833667	0,5	-0,252600
17,842000	0,5	-0,273150
17,850333	0,5	-0,315600
17,858667	0,5	-0,365350
17,867000	0,5	-0,435000
17,875333	0,5	-0,477850
17,883667	0,5	-0,506850
17,892000	0,5	-0,514800
17,900333	0,5	-0,542850
17,908667	0,5	-0,564050
17,917000	0,5	-0,583150
17,925333	0,5	-0,591500
17,933667	0,5	-0,608450
17,942000	0,5	-0,608600
17,950333	0,5	-0,617300
17,958667	0,5	-0,605500
17,967000	0,5	-0,594900
17,975333	0,5	-0,584000
17,983667	0,5	-0,544150
17,992000	0,5	-0,489750
18,000333	0,5	-0,433700
18,008667	0,5	-0,391000
18,017000	0,5	-0,367950
18,025333	0,5	-0,356350
18,033667	0,5	-0,341650
18,042000	0,5	-0,359150
18,050333	0,5	-0,386850
18,058667	0,5	-0,427650
18,067000	0,5	-0,454550
18,075333	0,5	-0,487950
18,083667	0,5	-0,508600
18,092000	0,5	-0,534700
18,100333	0,5	-0,550050
18,108667	0,5	-0,556600
18,117000	0,5	-0,568900
18,125333	0,5	-0,589400
18,133667	0,5	-0,590550
18,142000	0,5	-0,593450
18,150333	0,5	-0,596050
18,158667	0,5	-0,600900
18,167000	0,5	-0,594750
18,175333	0,5	-0,550500
18,183667	0,5	-0,497050
18,192000	0,5	-0,458550
18,200333	0,5	-0,411050
18,208667	0,5	-0,386000
18,217000	0,5	-0,394400
18,225333	0,5	-0,403350
18,233667	0,5	-0,433950
18,242000	0,5	-0,465250
18,250333	0,5	-0,501800
18,258667	0,5	-0,513050
18,267000	0,5	-0,550350
18,275333	0,5	-0,554800
18,283667	0,5	-0,563250
18,292000	0,5	-0,569500
18,300333	0,5	-0,586450
18,308667	0,5	-0,618050
18,317000	0,5	-0,625250
18,325333	0,5	-0,616000
18,333667	0,5	-0,603850
18,342000	0,5	-0,580500
18,350333	0,5	-0,551100
18,358667	0,5	-0,525250
18,367000	0,5	-0,497050
18,375333	0,5	-0,473250
18,383667	0,5	-0,458500
18,392000	0,5	-0,475000
18,400333	0,5	-0,491750
18,408667	0,5	-0,511050
18,417000	0,5	-0,558050
18,425333	0,5	-0,567850
18,433667	0,5	-0,581150
18,442000	0,5	-0,591550
18,450333	0,5	-0,606000
18,458667	0,5	-0,651800
18,467000	0,5	-0,641100
18,475333	0,5	-0,640800
18,483667	0,5	-0,641750
18,492000	0,5	-0,643050
18,500333	0,5	-0,626300
18,508667	0,5	-0,619050
18,517000	0,5	-0,621600
18,525333	0,5	-0,590800
18,533667	0,5	-0,578950
18,542000	0,5	-0,558950
18,550333	0,5	-0,569800
18,558667	0,5	-0,577850
18,567000	0,5	-0,604400
18,575333	0,5	-0,613250
18,583667	0,5	-0,639500
18,592000	0,5	-0,660100
18,600333	0,5	-0,697400
18,608667	0,5	-0,721900
18,617000	0,5	-0,730550
18,625333	0,5	-0,729500
18,633667	0,5	-0,747000
18,642000	0,5	-0,745250
18,650333	0,5	-0,759450
18,658667	0,5	-0,754650
18,667000	0,5	-0,742150
18,675333	0,5	-0,714200
18,683667	0,5	-0,693100
18,692000	0,5	-0,674650
18,700333	0,5	-0,657300
18,708667	0,5	-0,676950
18,717000	0,5	-0,694300
18,725333	0,5	-0,700550
18,733667	0,5	-0,704050
18,742000	0,5	-0,726750
18,750333	0,5	-0,735250
18,758667	0,5	-0,735050
18,767000	0,5	-0,712700
18,775333	0,5	-0,699300
18,783667	0,5	-0,684150
18,792000	0,5	-0,662200
18,800333	0,5	-0,626550
18,808667	0,5	-0,608600
18,817000	0,5	-0,586800
18,825333	0,5	-0,577700
18,833667	0,5	-0,582050
18,842000	0,5	-0,579250
18,850333	0,5	-0,596850
18,858667	0,5	-0,627750
18,867000	0,5	-0,647700
18,875333	0,5	-0,672750
18,883667	0,5	-0,691300
18,892000	0,5	-0,716000
18,900333	0,5	-0,740800
18,908667	0,5	-0,725000
18,917000	0,5	-0,722250
18,925333	0,5	-0,707750
18,933667	0,5	-0,706850
18,942000	0,5	-0,685650
18,950333	0,5	-0,692600
18,958667	0,5	-0,689700
18,967000	0,5	-0,705000
18,975333	0,5	-0,732850
18,983667	0,5	-0,762600
18,992000	0,5	-0,776250
19,000333	0,5	-0,796350
19,008667	0,5	-0,813950
19,017000	0,5	-0,821050
19,025333	0,5	-0,835800
19,033667	0,5	-0,849400
19,042000	0,5	-0,878350
19,050333	0,5	-0,882550
19,058667	0,5	-0,881550
19,067000	0,5	-0,873050
19,075333	0,5	-0,879200
19,083667	0,5	-0,885200
19,092000	0,5	-0,899400
19,100333	0,5	-0,904100
19,108667	0,5	-0,918450
19,117000	0,5	-0,930450
19,125333	0,5	-0,953950
19,133667	0,5	-0,956350
19,142000	0,5	-0,954800
19,150333	0,5	-0,976900
19,158667	0,5	-0,981600
19,167000	0,5	-0,994500
19,175333	0,5	-1,005700
19,183667	0,5	-1,031600
19,192000	0,5	-1,067050
19,200333	0,5	-1,096900
19,208667	0,5	-1,098500
19,217000	0,5	-1,123200
19,225333	0,5	-1,143700
19,233667	0,5	-1,158300
19,242000	0,5	-1,161650
19,250333	0,5	-1,167700
19,258667	0,5	-1,166400
19,267000	0,5	-1,176650
19,275333	0,5	-1,181950
19,283667	0,5	-1,185650
19,292000	0,5	-1,198950
19,300333	0,5	-1,223950
19,308667	0,5	-1,217650
19,317000	0,5	-1,218600
19,325333	0,5	-1,235000
19,333667	0,5	-1,260000
19,342000	0,5	-1,274950
19,350333	0,5	-1,269200
19,358667	0,5	-1,279550
19,367000	0,5	-1,286150
19,375333	0,5	-1,297600
19,383667	0,5	-1,300900
19,392000	0,5	-1,317700
19,400333	0,5	-1,321200
19,408667	0,5	-1,335950
19,417000	0,5	-1,341350
19,425333	0,5	-1,350550
19,433667	0,5	-1,336100
19,442000	0,5	-1,354850
19,450333	0,5	-1,342400
19,458667	0,5	-1,339550
19,467000	0,5	-1,349200
19,475333	0,5	-1,364050
19,483667	0,5	-1,409850
19,492000	0,5	-1,400450
19,500333	0,5	-1,401700
19,508667	0,5	-1,403550
19,517000	0,5	-1,418150
19,525333	0,5	-1,418550
19,533667	0,5	-1,444050
19,542000	0,5	-1,447250
19,550333	0,5	-1,470750
19,558667	0,5	-1,474300
19,567000	0,5	-1,485000
19,575333	0,5	-1,482850
19,583667	0,5	-1,497150
19,592000	0,5	-1,527400
19,600333	0,5	-1,521750
19,608667	0,5	-1,536500
19,617000	0,5	-1,548350
19,625333	0,5	-1,558600
19,633667	0,5	-1,606450
19,642000	0,5	-1,601400
19,650333	0,5	-1,596200
19,658667	0,5	-1,609000
19,667000	0,5	-1,611850
19,675333	0,5	-1,618050
19,683667	0,5	-1,615200
19,692000	0,5	-1,627400
19,700333	0,5	-1,625350
19,708667	0,5	-1,645450
19,717000	0,5	-1,652600
19,725333	0,5	-1,654900
19,733667	0,5	-1,665650
19,742000	0,5	-1,695050
19,750333	0,5	-1,684800
19,758667	0,5	-1,696300
19,767000	0,5	-1,717800
19,775333	0,5	-1,744250
19,783667	0,5	-1,780150
19,792000	0,5	-1,784900
19,800333	0,5	-1,796100
19,808667	0,5	-1,815100
19,817000	0,5	-1,823500
19,825333	0,5	-1,833550
19,833667	0,5	-1,857600
19,842000	0,5	-1,865250
19,850333	0,5	-1,871850
19,858667	0,5	-1,873150
19,867000	0,5	-1,882400
19,875333	0,5	-1,873100
19,883667	0,5	-1,887400
19,892000	0,5	-1,893850
19,900333	0,5	-1,897150
19,908667	0,5	-1,904850
19,917000	0,5	-1,937400
19,925333	0,5	-1,966750
19,933667	0,5	-1,977000
19,942000	0,5	-1,975550
19,950333	0,5	-1,986450
19,958667	0,5	-1,987850
19,967000	0,5	-1,990550
19,975333	0,5	-1,993500
19,983667	0,5	-1,995700
19,992000	0,5	-2,014050
20,000333	0,5	-2,020500
20,008667	0,5	-2,044250
20,017000	0,5	-2,033850
20,025333	0,5	-2,055250
20,033667	0,5	-2,082950
20,042000	0,5	-2,094850
20,050333	0,5	-2,107750
20,058667	0,5	-2,125500
20,067000	0,5	-2,158050
20,075333	0,5	-2,203350
20,083667	0,5	-2,210450
20,092000	0,5	-2,222350
20,100333	0,5	-2,232800
20,108667	0,5	-2,244800
20,117000	0,5	-2,254350
20,125333	0,5	-2,267450
20,133667	0,5	-2,277450
20,142000	0,5	-2,286900
20,150333	0,5	-2,307850
20,158667	0,5	-2,304100
20,167000	0,5	-2,303150
20,175333	0,5	-2,315800
20,183667	0,5	-2,319150
20,192000	0,5	-2,321750
20,200333	0,5	-2,330000
20,208667	0,5	-2,336850
20,217000	0,5	-2,365900
20,225333	0,5	-2,380350
20,233667	0,5	-2,380150
20,242000	0,5	-2,388250
20,250333	0,5	-2,401700
20,258667	0,5	-2,403550
20,267000	0,5	-2,424250
20,275333	0,5	-2,448300
20,283667	0,5	-2,455150
20,292000	0,5	-2,477350
20,300333	0,5	-2,489600
20,308667	0,5	-2,498150
20,317000	0,5	-2,496550
20,325333	0,5	-2,528600
20,333667	0,5	-2,541950
20,342000	0,5	-2,559700
20,350333	0,5	-2,583900
20,358667	0,5	-2,626200
20,367000	0,5	-2,670900
20,375333	0,5	-2,688750
20,383667	0,5	-2,705400
20,392000	0,5	-2,723050
20,400333	0,5	-2,738750
20,408667	0,5	-2,769700
20,417000	0,5	-2,790150
20,425333	0,5	-2,813500
20,433667	0,5	-2,840650
20,442000	0,5	-2,863250
20,450333	0,5	-2,894900
20,458667	0,5	-2,880750
20,467000	0,5	-2,899050
20,475333	0,5	-2,919300
20,483667	0,5	-2,944500
20,492000	0,5	-2,965900
20,500333	0,5	-3,005550
20,508667	0,5	-3,049100
20,517000	0,5	-3,080250
20,525333	0,5	-3,083800
20,533667	0,5	-3,100450
20,542000	0,5	-3,108300
20,550333	0,5	-3,117600
20,558667	0,5	-3,119600
20,567000	0,5	-3,132800
20,575333	0,5	-3,155050
20,583667	0,5	-3,191800
20,592000	0,5	-3,247650
20,600333	0,5	-3,275650
20,608667	0,5	-3,303600
20,617000	0,5	-3,352500
20,625333	0,5	-3,390900
20,633667	0,5	-3,430650
20,642000	0,5	-3,486300
20,650333	0,5	-3,535500
20,658667	0,5	-3,604400
20,667000	0,5	-3,620750
20,675333	0,5	-3,653500
20,683667	0,5	-3,673950
20,692000	0,5	-3,713500
20,700333	0,5	-3,723800
20,708667	0,5	-3,736150
20,717000	0,5	-3,733450
20,725333	0,5	-3,714700
20,733667	0,5	-3,711100
20,742000	0,5	-3,713350
20,750333	0,5	-3,711300
20,758667	0,5	-3,742550
20,767000	0,5	-3,810500
20,775333	0,5	-3,878900
20,783667	0,5	-3,948950
20,792000	0,5	-4,020650
20,800333	0,5	-4,107400
20,808667	0,5	-4,181350
20,817000	0,5	-4,230050
20,825333	0,5	-4,260850
20,833667	0,5	-4,321650
20,842000	0,5	-4,350800
20,850333	0,5	-4,403350
20,858667	0,5	-4,443450
20,867000	0,5	-4,488000
20,875333	0,5	-4,516450
20,883667	0,5	-4,548050
20,892000	0,5	-4,566100
20,900333	0,5	-4,564200
20,908667	0,5	-4,573450
20,917000	0,5	-4,612750
20,925333	0,5	-4,653200
20,933667	0,5	-4,711800
20,942000	0,5	-4,783800
20,950333	0,5	-4,847050
20,958667	0,5	-4,901900
20,967000	0,5	-4,923200
20,975333	0,5	-4,975400
20,983667	0,5	-4,998200
20,992000	0,5	-5,036900
21,000333	0,5	-5,075850
21,008667	0,5	-5,110100
21,017000	0,5	-5,142450
21,025333	0,5	-5,177950
21,033667	0,5	-5,209700
21,042000	0,5	-5,208400
21,050333	0,5	-5,223450
21,058667	0,5	-5,260200
21,067000	0,5	-5,286850
21,075333	0,5	-5,321050
21,083667	0,5	-5,349100
21,092000	0,5	-5,408600
21,100333	0,5	-5,462350
21,108667	0,5	-5,490850
21,117000	0,5	-5,532400
21,125333	0,5	-5,549900
21,133667	0,5	-5,585250
21,142000	0,5	-5,609500
21,150333	0,5	-5,639750
21,158667	0,5	-5,676550
21,167000	0,5	-5,700300
21,175333	0,5	-5,725000
21,183667	0,5	-5,743050
21,192000	0,5	-5,740150
21,200333	0,5	-5,743700
21,208667	0,5	-5,766300
21,217000	0,5	-5,796150
21,225333	0,5	-5,832900
21,233667	0,5	-5,855350
21,242000	0,5	-5,910350
21,250333	0,5	-5,931500
21,258667	0,5	-5,956100
21,267000	0,5	-5,957600
21,275333	0,5	-5,972950
21,283667	0,5	-5,975650
21,292000	0,5	-5,975200
21,300333	0,5	-5,975550
21,308667	0,5	-5,988600
21,317000	0,5	-6,006750
21,325333	0,5	-6,036900
21,333667	0,5	-6,040900
21,342000	0,5	-6,047400
21,350333	0,5	-6,068950
21,358667	0,5	-6,099100
21,367000	0,5	-6,124950
21,375333	0,5	-6,158000
21,383667	0,5	-6,206550
21,392000	0,5	-6,240000
21,400333	0,5	-6,264850
21,408667	0,5	-6,269250
21,417000	0,5	-6,293500
21,425333	0,5	-6,304650
21,433667	0,5	-6,323900
21,442000	0,5	-6,340800
21,450333	0,5	-6,358500
21,458667	0,5	-6,365750
21,467000	0,5	-6,390500
21,475333	0,5	-6,409700
21,483667	0,5	-6,383700
21,492000	0,5	-6,382500
21,500333	0,5	-6,407550
21,508667	0,5	-6,426850
21,517000	0,5	-6,437250
21,525333	0,5	-6,475200
21,533667	0,5	-6,522550
21,542000	0,5	-6,529150
21,550333	0,5	-6,537850
21,558667	0,5	-6,560800
21,567000	0,5	-6,572250
21,575333	0,5	-6,589750
21,583667	0,5	-6,587800
21,592000	0,5	-6,611050
21,600333	0,5	-6,613900
21,608667	0,5	-6,623450
21,617000	0,5	-6,629850
21,625333	0,5	-6,594350
21,633667	0,5	-6,581350
21,642000	0,5	-6,588450
21,650333	0,5	-6,582400
21,658667	0,5	-6,574900
21,667000	0,5	-6,587050
21,675333	0,5	-6,588450
21,683667	0,5	-6,614150
21,692000	0,5	-6,607350
21,700333	0,5	-6,635600
21,708667	0,5	-6,645950
21,717000	0,5	-6,670850
21,725333	0,5	-6,682550
21,733667	0,5	-6,698350
21,742000	0,5	-6,701350
21,750333	0,5	-6,713750
21,758667	0,5	-6,732050
21,767000	0,5	-6,749700
21,775333	0,5	-6,735050
21,783667	0,5	-6,750600
21,792000	0,5	-6,773200
21,800333	0,5	-6,784650
21,808667	0,5	-6,798600
21,817000	0,5	-6,823900
21,825333	0,5	-6,865200
21,833667	0,5	-6,882450
21,842000	0,5	-6,875650
21,850333	0,5	-6,877750
21,858667	0,5	-6,890900
21,867000	0,5	-6,902050
21,875333	0,5	-6,934300
21,883667	0,5	-6,943550
21,892000	0,5	-6,965700
21,900333	0,5	-6,972650
21,908667	0,5	-6,989650
21,917000	0,5	-6,988300
21,925333	0,5	-6,947200
21,933667	0,5	-6,932050
21,942000	0,5	-6,892050
21,950333	0,5	-6,871750
21,958667	0,5	-6,874700
21,967000	0,5	-6,926850
21,975333	0,5	-7,000550
21,983667	0,5	-7,035450
21,992000	0,5	-7,063100
22,000333	0,5	-7,107250
22,008667	0,5	-7,134000
22,017000	0,5	-7,175200
22,025333	0,5	-7,201900
22,033667	0,5	-7,237100
22,042000	0,5	-7,262850
22,050333	0,5	-7,293350
22,058667	0,5	-7,320100
22,067000	0,5	-7,335150
22,075333	0,5	-7,373000
22,083667	0,5	-7,385250
22,092000	0,5	-7,393950
22,100333	0,5	-7,417400
22,108667	0,5	-7,447950
22,117000	0,5	-7,475550
22,125333	0,5	-7,517900
22,133667	0,5	-7,516400
22,142000	0,5	-7,538650
22,150333	0,5	-7,545450
22,158667	0,5	-7,563600
22,167000	0,5	-7,570200
22,175333	0,5	-7,589700
22,183667	0,5	-7,602800
22,192000	0,5	-7,608450
22,200333	0,5	-7,628750
22,208667	0,5	-7,636550
22,217000	0,5	-7,652250
22,225333	0,5	-7,661400
22,233667	0,5	-7,666850
22,242000	0,5	-7,655200
22,250333	0,5	-7,661350
22,258667	0,5	-7,675300
22,267000	0,5	-7,689400
22,275333	0,5	-7,686450
22,283667	0,5	-7,675200
22,292000	0,5	-7,665500
22,300333	0,5	-7,657800
22,308667	0,5	-7,637800
22,317000	0,5	-7,642950
22,325333	0,5	-7,619650
22,333667	0,5	-7,616500
22,342000	0,5	-7,593250
22,350333	0,5	-7,576250
22,358667	0,5	-7,578350
22,367000	0,5	-7,518650
22,375333	0,5	-7,409750
22,383667	0,5	-7,334300
22,392000	0,5	-7,319600
22,400333	0,5	-7,358850
22,408667	0,5	-7,433200
22,417000	0,5	-7,479900
22,425333	0,5	-7,524900
22,433667	0,5	-7,553950
22,442000	0,5	-7,578350
22,450333	0,5	-7,589750
22,458667	0,5	-7,618650
22,467000	0,5	-7,618650
22,475333	0,5	-7,634250
22,483667	0,5	-7,640750
22,492000	0,5	-7,647600
22,500333	0,5	-7,671550
22,508667	0,5	-7,691000
22,517000	0,5	-7,687050
22,525333	0,5	-7,645700
22,533667	0,5	-7,627350
22,542000	0,5	-7,619750
22,550333	0,5	-7,614850
22,558667	0,5	-7,601850
22,567000	0,5	-7,562850
22,575333	0,5	-7,533250
22,583667	0,5	-7,506950
22,592000	0,5	-7,473450
22,600333	0,5	-7,477600
22,608667	0,5	-7,463850
22,617000	0,5	-7,459350
22,625333	0,5	-7,452000
22,633667	0,5	-7,452250
22,642000	0,5	-7,459650
22,650333	0,5	-7,520950
22,658667	0,5	-7,543200
22,667000	0,5	-7,513600
22,675333	0,5	-7,514400
22,683667	0,5	-7,518900
22,692000	0,5	-7,529900
22,700333	0,5	-7,556350
22,708667	0,5	-7,587150
22,717000	0,5	-7,587400
22,725333	0,5	-7,608900
22,733667	0,5	-7,624900
22,742000	0,5	-7,644000
22,750333	0,5	-7,654300
22,758667	0,5	-7,668750
22,767000	0,5	-7,687600
22,775333	0,5	-7,694500
22,783667	0,5	-7,722250
22,792000	0,5	-7,770650
22,800333	0,5	-7,832250
22,808667	0,5	-7,830650
22,817000	0,5	-7,804550
22,825333	0,5	-7,818950
22,833667	0,5	-7,832700
22,842000	0,5	-7,856650
22,850333	0,5	-7,890950
22,858667	0,5	-7,916850
22,867000	0,5	-7,926250
22,875333	0,5	-7,949150
22,883667	0,5	-7,963450
22,892000	0,5	-7,983900
22,900333	0,5	-7,984350
22,908667	0,5	-7,981350
22,917000	0,5	-7,971650
22,925333	0,5	-7,965450
22,933667	0,5	-7,966500
22,942000	0,5	-7,948850
22,950333	0,5	-7,933500
22,958667	0,5	-7,899500
22,967000	0,5	-7,921550
22,975333	0,5	-7,902650
22,983667	0,5	-7,884200
22,992000	0,5	-7,852600
23,000333	0,5	-7,819000
23,008667	0,5	-7,804050
23,017000	0,5	-7,778150
23,025333	0,5	-7,726050
23,033667	0,5	-7,687550
23,042000	0,5	-7,630150
23,050333	0,5	-7,578150
23,058667	0,5	-7,511250
23,067000	0,5	-7,436250
23,075333	0,5	-7,362000
23,083667	0,5	-7,255800
23,092000	0,5	-7,196800
23,100333	0,5	-7,099650
23,108667	0,5	-7,049800
23,117000	0,5	-7,003650
23,125333	0,5	-6,936800
23,133667	0,5	-6,854450
23,142000	0,5	-6,777100
23,150333	0,5	-6,688600
23,158667	0,5	-6,635800
23,167000	0,5	-6,553750
23,175333	0,5	-6,484750
23,183667	0,5	-6,401400
23,192000	0,5	-6,320400
23,200333	0,5	-6,225450
23,208667	0,5	-6,139300
23,217000	0,5	-6,049750
23,225333	0,5	-5,954300
23,233667	0,5	-5,840250
23,242000	0,5	-5,766150
23,250333	0,5	-5,636000
23,258667	0,5	-5,576200
23,267000	0,5	-5,518500
23,275333	0,5	-5,430050
23,283667	0,5	-5,349000
23,292000	0,5	-5,262200
23,300333	0,5	-5,199050
23,308667	0,5	-5,131000
23,317000	0,5	-5,074200
23,325333	0,5	-4,995200
23,333667	0,5	-4,930500
23,342000	0,5	-4,852750
23,350333	0,5	-4,784600
23,358667	0,5	-4,709250
23,367000	0,5	-4,633650
23,375333	0,5	-4,545300
23,383667	0,5	-4,543350
23,392000	0,5	-4,457400
23,400333	0,5	-4,321400
23,408667	0,5	-4,262550
23,417000	0,5	-4,214150
23,425333	0,5	-4,158200
23,433667	0,5	-4,086350
23,442000	0,5	-4,037650
23,450333	0,5	-3,983800
23,458667	0,5	-3,944150
23,467000	0,5	-3,894850
23,475333	0,5	-3,846600
23,483667	0,5	-3,803050
23,492000	0,5	-3,763450
23,500333	0,5	-3,717300
23,508667	0,5	-3,675950
23,517000	0,5	-3,626500
23,525333	0,5	-3,608500
23,533667	0,5	-3,655050
23,542000	0,5	-3,583550
23,550333	0,5	-3,484550
23,558667	0,5	-3,439800
23,567000	0,5	-3,398000
23,575333	0,5	-3,367800
23,583667	0,5	-3,331150
23,592000	0,5	-3,298950
23,600333	0,5	-3,272850
23,608667	0,5	-3,238100
23,617000	0,5	-3,211150
23,625333	0,5	-3,181600
23,633667	0,5	-3,151550
23,642000	0,5	-3,120300
23,650333	0,5	-3,088400
23,658667	0,5	-3,053700
23,667000	0,5	-3,024450
23,675333	0,5	-3,174450
23,683667	0,5	-3,128700
23,692000	0,5	-3,078500
23,700333	0,5	-2,986250
23,708667	0,5	-2,945500
23,717000	0,5	-2,912450
23,725333	0,5	-2,883800
23,733667	0,5	-2,871500
23,742000	0,5	-2,846100
23,750333	0,5	-2,815700
23,758667	0,5	-2,796000
23,767000	0,5	-2,773000
23,775333	0,5	-2,744800
23,783667	0,5	-2,717150
23,792000	0,5	-2,693700
23,800333	0,5	-2,663450
23,808667	0,5	-2,634150
23,817000	0,5	-2,641750
23,825333	0,5	-2,778350
23,833667	0,5	-2,736350
23,842000	0,5	-2,651000
23,850333	0,5	-2,579900
23,858667	0,5	-2,529800
23,867000	0,5	-2,495950
23,875333	0,5	-2,483900
23,883667	0,5	-2,473850
23,892000	0,5	-2,435300
23,900333	0,5	-2,408650
23,908667	0,5	-2,378400
23,917000	0,5	-2,362350
23,925333	0,5	-2,334950
23,933667	0,5	-2,313700
23,942000	0,5	-2,287250
23,950333	0,5	-2,255550
23,958667	0,5	-2,238700
23,967000	0,5	-2,346600
23,975333	0,5	-2,388800
23,983667	0,5	-2,346050
23,992000	0,5	-2,267350
24,000333	0,5	-2,212550
24,008667	0,5	-2,166000
24,017000	0,5	-2,141250
24,025333	0,5	-2,128750
24,033667	0,5	-2,101500
24,042000	0,5	-2,072850
24,050333	0,5	-2,030850
24,058667	0,5	-2,009000
24,067000	0,5	-1,975200
24,075333	0,5	-1,957750
24,083667	0,5	-1,928700
24,092000	0,5	-1,898800
24,100333	0,5	-1,867500
24,108667	0,5	-1,848300
24,117000	0,5	-2,006300
24,125333	0,5	-1,960350
24,133667	0,5	-1,924000
24,142000	0,5	-1,847750
24,150333	0,5	-1,808650
24,158667	0,5	-1,774550
24,167000	0,5	-1,764400
24,175333	0,5	-1,756500
24,183667	0,5	-1,745450
24,192000	0,5	-1,704000
24,200333	0,5	-1,690750
24,208667	0,5	-1,654100
24,217000	0,5	-1,634850
24,225333	0,5	-1,605750
24,233667	0,5	-1,583750
24,242000	0,5	-1,547550
24,250333	0,5	-1,527900
24,258667	0,5	-1,539800
24,267000	0,5	-1,623850
24,275333	0,5	-1,594650
24,283667	0,5	-1,548550
24,292000	0,5	-1,492900
24,300333	0,5	-1,457000
24,308667	0,5	-1,423300
24,317000	0,5	-1,415950
24,325333	0,5	-1,412100
24,333667	0,5	-1,379100
24,342000	0,5	-1,365300
24,350333	0,5	-1,344050
24,358667	0,5	-1,327450
24,367000	0,5	-1,302600
24,375333	0,5	-1,289950
24,383667	0,5	-1,271150
24,392000	0,5	-1,254050
24,400333	0,5	-1,237500
24,408667	0,5	-1,302300
24,417000	0,5	-1,306750
24,425333	0,5	-1,283850
24,433667	0,5	-1,242850
24,442000	0,5	-1,203950
24,450333	0,5	-1,185400
24,458667	0,5	-1,168600
24,467000	0,5	-1,159200
24,475333	0,5	-1,143800
24,483667	0,5	-1,128800
24,492000	0,5	-1,103600
24,500333	0,5	-1,088050
24,508667	0,5	-1,059100
24,517000	0,5	-1,048600
24,525333	0,5	-1,030800
24,533667	0,5	-1,014300
24,542000	0,5	-0,994100
24,550333	0,5	-0,984350
24,558667	0,5	-1,051900
24,567000	0,5	-1,039550
24,575333	0,5	-1,007650
24,583667	0,5	-0,987100
24,592000	0,5	-0,958900
24,600333	0,5	-0,948050
24,608667	0,5	-0,941400
24,617000	0,5	-0,942100
24,625333	0,5	-0,929850
24,633667	0,5	-0,915550
24,642000	0,5	-0,909500
24,650333	0,5	-0,894800
24,658667	0,5	-0,884550
24,667000	0,5	-0,870700
24,675333	0,5	-0,860850
24,683667	0,5	-0,849900
24,692000	0,5	-0,843750
24,700333	0,5	-0,852250
24,708667	0,5	-0,872450
24,717000	0,5	-0,859300
24,725333	0,5	-0,839550
24,733667	0,5	-0,808900
24,742000	0,5	-0,797650
24,750333	0,5	-0,788700
24,758667	0,5	-0,786350
24,767000	0,5	-0,782300
24,775333	0,5	-0,766500
24,783667	0,5	-0,760600
24,792000	0,5	-0,761550
24,800333	0,5	-0,756500
24,808667	0,5	-0,753550
24,817000	0,5	-0,747750
24,825333	0,5	-0,738700
24,833667	0,5	-0,733900
24,842000	0,5	-0,726200
24,850333	0,5	-0,764400
24,858667	0,5	-0,754100
24,867000	0,5	-0,748350
24,875333	0,5	-0,726000
24,883667	0,5	-0,723250
24,892000	0,5	-0,704300
24,900333	0,5	-0,705900
24,908667	0,5	-0,697050
24,917000	0,5	-0,695300
24,925333	0,5	-0,684150
24,933667	0,5	-0,676700
24,942000	0,5	-0,674100
24,950333	0,5	-0,667200
24,958667	0,5	-0,660700
24,967000	0,5	-0,654200
24,975333	0,5	-0,653300
24,983667	0,5	-0,648850
24,992000	0,5	-0,649200
25,000333	0,5	-0,669350
25,008667	0,5	-0,659250
25,017000	0,5	-0,655800
25,025333	0,5	-0,651200
25,033667	0,5	-0,646900
25,042000	0,5	-0,648150
25,050333	0,5	-0,645700
25,058667	0,5	-0,645150
25,067000	0,5	-0,639900
25,075333	0,5	-0,636550
25,083667	0,5	-0,633200
25,092000	0,5	-0,634500
25,100333	0,5	-0,628800
25,108667	0,5	-0,619850
25,117000	0,5	-0,615600
25,125333	0,5	-0,609750
25,133667	0,5	-0,601800
25,142000	0,5	-0,604350
25,150333	0,5	-0,600700
25,158667	0,5	-0,593100
25,167000	0,5	-0,593650
25,175333	0,5	-0,590950
25,183667	0,5	-0,591350
25,192000	0,5	-0,592550
25,200333	0,5	-0,594750
25,208667	0,5	-0,598250
25,217000	0,5	-0,597350
25,225333	0,5	-0,594400
25,233667	0,5	-0,595800
25,242000	0,5	-0,591650
25,250333	0,5	-0,591950
25,258667	0,5	-0,588600
25,267000	0,5	-0,584600
25,275333	0,5	-0,587050
25,283667	0,5	-0,579650
25,292000	0,5	-0,583550
25,300333	0,5	-0,569350
25,308667	0,5	-0,565150
25,317000	0,5	-0,563300
25,325333	0,5	-0,559500
25,333667	0,5	-0,561600
25,342000	0,5	-0,557450
25,350333	0,5	-0,555600
25,358667	0,5	-0,553300
25,367000	0,5	-0,550650
25,375333	0,5	-0,553400
25,383667	0,5	-0,553450
25,392000	0,5	-0,556500
25,400333	0,5	-0,560200
25,408667	0,5	-0,556250
25,417000	0,5	-0,554500
25,425333	0,5	-0,557950
25,433667	0,5	-0,556450
25,442000	0,5	-0,548600
25,450333	0,5	-0,540550
25,458667	0,5	-0,532050
25,467000	0,5	-0,544900
25,475333	0,5	-0,541500
25,483667	0,5	-0,541150
25,492000	0,5	-0,543550
25,500333	0,5	-0,536900
25,508667	0,5	-0,537900
25,517000	0,5	-0,536550
25,525333	0,5	-0,534400
25,533667	0,5	-0,531050
25,542000	0,5	-0,530200
25,550333	0,5	-0,528900
25,558667	0,5	-0,528650
25,567000	0,5	-0,529750
25,575333	0,5	-0,526650
25,583667	0,5	-0,524700
25,592000	0,5	-0,516400
25,600333	0,5	-0,510950
25,608667	0,5	-0,516250
25,617000	0,5	-0,524400
25,625333	0,5	-0,526500
25,633667	0,5	-0,527100
25,642000	0,5	-0,518100
25,650333	0,5	-0,514450
25,658667	0,5	-0,519000
25,667000	0,5	-0,517650
25,675333	0,5	-0,514700
25,683667	0,5	-0,515450
25,692000	0,5	-0,513400
25,700333	0,5	-0,515450
25,708667	0,5	-0,511800
25,717000	0,5	-0,512750
25,725333	0,5	-0,507850
25,733667	0,5	-0,497700
25,742000	0,5	-0,492300
25,750333	0,5	-0,479450
25,758667	0,5	-0,494400
25,767000	0,5	-0,498150
25,775333	0,5	-0,496050
25,783667	0,5	-0,496250
25,792000	0,5	-0,483850
25,800333	0,5	-0,483550
25,808667	0,5	-0,498250
25,817000	0,5	-0,492950
25,825333	0,5	-0,489350
25,833667	0,5	-0,490750
25,842000	0,5	-0,491400
25,850333	0,5	-0,485400
25,858667	0,5	-0,483850
25,867000	0,5	-0,477500
25,875333	0,5	-0,477750
25,883667	0,5	-0,451400
25,892000	0,5	-0,454500
25,900333	0,5	-0,436450
25,908667	0,5	-0,451800
25,917000	0,5	-0,452500
25,925333	0,5	-0,455450
25,933667	0,5	-0,444750
25,942000	0,5	-0,430800
25,950333	0,5	-0,436850
25,958667	0,5	-0,445100
25,967000	0,5	-0,430900
25,975333	0,5	-0,433800
25,983667	0,5	-0,429600
25,992000	0,5	-0,423350
26,000333	0,5	-0,420650
