File Path	chrom://chromeleon01/ikbm_chromeleon/2022/ICS-5000/ED1/Esteban/20220427_Cell_Amandas_mutants.seq/466.smp/ED_1.channel/ED_1.chm
Channel	ED_1

Injection Information:
Data Vault	ikbm_chromeleon
Injection	T24h_BMCC_C-NE
Injection Number	61
Position	GB5
Comment	
Processing Method	Stop sequence after Cell Death
Instrument Method	ICS5000_PA200_FullNative_Ox_26min_ED1
Type	Unknown
Status	Finished
Injection Date	28.04.2022
Injection Time	17:37:48
Injection Volume (µl)	5,0
Dilution Factor	1,0000
Weight	1,0000

Chromatogram Data Information:
Time Min. (min)	0,000333
Time Max. (min)	26,000333
Data Points	3121
Detector	EDet1
Generating Data System	Chromeleon 7.2.9.11323
Exporting Data System	Chromeleon 7.2.9.0
Operator	Instrument Controller
Signal Quantity	
Signal Unit	nC
Signal Min.	-8,452450
Signal Max.	39,684051
Channel	ED_1
Driver Name	DC-5000
Channel Type	Evaluation
Min. Step (s)	0,5
Max. Step (s)	0,5
Average Step (s)	0,5

Signal Parameter Information:
Signal Info	

Chromatogram Data:
Time (min)	Step (s)	Value (nC)
0,000333	n.a.	-0,079600
0,008667	0,5	-0,101950
0,017000	0,5	-0,099600
0,025333	0,5	-0,082150
0,033667	0,5	-0,072950
0,042000	0,5	-0,058900
0,050333	0,5	-0,048500
0,058667	0,5	-0,021900
0,067000	0,5	-0,051900
0,075333	0,5	-0,061750
0,083667	0,5	-0,046600
0,092000	0,5	-0,007900
0,100333	0,5	0,010650
0,108667	0,5	0,007500
0,117000	0,5	-0,003600
0,125333	0,5	-0,001500
0,133667	0,5	-0,001350
0,142000	0,5	-0,012250
0,150333	0,5	-0,003850
0,158667	0,5	-0,015800
0,167000	0,5	-0,014900
0,175333	0,5	-0,022250
0,183667	0,5	-0,013100
0,192000	0,5	-0,028800
0,200333	0,5	0,009250
0,208667	0,5	-0,003650
0,217000	0,5	-0,021300
0,225333	0,5	-0,033000
0,233667	0,5	-0,025050
0,242000	0,5	0,003550
0,250333	0,5	0,019250
0,258667	0,5	-0,002700
0,267000	0,5	-0,010050
0,275333	0,5	-0,009100
0,283667	0,5	-0,014150
0,292000	0,5	-0,007700
0,300333	0,5	0,031600
0,308667	0,5	0,062450
0,317000	0,5	0,016650
0,325333	0,5	-0,012050
0,333667	0,5	-0,024150
0,342000	0,5	-0,026150
0,350333	0,5	0,000350
0,358667	0,5	-0,017250
0,367000	0,5	-0,038200
0,375333	0,5	-0,039900
0,383667	0,5	-0,037000
0,392000	0,5	0,022550
0,400333	0,5	0,018550
0,408667	0,5	0,003100
0,417000	0,5	-0,004450
0,425333	0,5	-0,004650
0,433667	0,5	-0,010800
0,442000	0,5	-0,009500
0,450333	0,5	-0,015400
0,458667	0,5	-0,024450
0,467000	0,5	-0,020150
0,475333	0,5	-0,023650
0,483667	0,5	-0,015650
0,492000	0,5	-0,031800
0,500333	0,5	0,018800
0,508667	0,5	-0,023300
0,517000	0,5	-0,019900
0,525333	0,5	-0,028100
0,533667	0,5	-0,007350
0,542000	0,5	0,030150
0,550333	0,5	0,022500
0,558667	0,5	-0,000400
0,567000	0,5	0,015300
0,575333	0,5	0,008950
0,583667	0,5	0,014400
0,592000	0,5	0,005700
0,600333	0,5	0,020400
0,608667	0,5	0,012000
0,617000	0,5	0,013500
0,625333	0,5	0,021950
0,633667	0,5	0,007550
0,642000	0,5	0,004750
0,650333	0,5	0,018000
0,658667	0,5	0,002050
0,667000	0,5	-0,003950
0,675333	0,5	0,004750
0,683667	0,5	0,037750
0,692000	0,5	0,084400
0,700333	0,5	0,069950
0,708667	0,5	0,073400
0,717000	0,5	0,067450
0,725333	0,5	0,070500
0,733667	0,5	0,058850
0,742000	0,5	0,064100
0,750333	0,5	0,056250
0,758667	0,5	0,061500
0,767000	0,5	0,060300
0,775333	0,5	0,052500
0,783667	0,5	0,038000
0,792000	0,5	0,060300
0,800333	0,5	0,064550
0,808667	0,5	0,055750
0,817000	0,5	0,061550
0,825333	0,5	0,070150
0,833667	0,5	0,109550
0,842000	0,5	0,123950
0,850333	0,5	0,132400
0,858667	0,5	0,121950
0,867000	0,5	0,126250
0,875333	0,5	0,123750
0,883667	0,5	0,125500
0,892000	0,5	0,125950
0,900333	0,5	0,125150
0,908667	0,5	0,122500
0,917000	0,5	0,137500
0,925333	0,5	0,123850
0,933667	0,5	0,130450
0,942000	0,5	0,140700
0,950333	0,5	0,131650
0,958667	0,5	0,120750
0,967000	0,5	0,126250
0,975333	0,5	0,145350
0,983667	0,5	0,190500
0,992000	0,5	0,200300
1,000333	0,5	0,191700
1,008667	0,5	0,203950
1,017000	0,5	0,206200
1,025333	0,5	0,191400
1,033667	0,5	0,196200
1,042000	0,5	0,204650
1,050333	0,5	0,197850
1,058667	0,5	0,205300
1,067000	0,5	0,206300
1,075333	0,5	0,213850
1,083667	0,5	0,223350
1,092000	0,5	0,235850
1,100333	0,5	0,216400
1,108667	0,5	0,222800
1,117000	0,5	0,228000
1,125333	0,5	0,269150
1,133667	0,5	0,286750
1,142000	0,5	0,287650
1,150333	0,5	0,280650
1,158667	0,5	0,296950
1,167000	0,5	0,294450
1,175333	0,5	0,298750
1,183667	0,5	0,302450
1,192000	0,5	0,303050
1,200333	0,5	0,314350
1,208667	0,5	0,316650
1,217000	0,5	0,333600
1,225333	0,5	0,317750
1,233667	0,5	0,351700
1,242000	0,5	0,355650
1,250333	0,5	0,348800
1,258667	0,5	0,352200
1,267000	0,5	0,370850
1,275333	0,5	0,414000
1,283667	0,5	0,433350
1,292000	0,5	0,424150
1,300333	0,5	0,435500
1,308667	0,5	0,441400
1,317000	0,5	0,457900
1,325333	0,5	0,458700
1,333667	0,5	0,474200
1,342000	0,5	0,469150
1,350333	0,5	0,482700
1,358667	0,5	0,504600
1,367000	0,5	0,513650
1,375333	0,5	0,506400
1,383667	0,5	0,545450
1,392000	0,5	0,528000
1,400333	0,5	0,532700
1,408667	0,5	0,539850
1,417000	0,5	0,559700
1,425333	0,5	0,624900
1,433667	0,5	0,612150
1,442000	0,5	0,617450
1,450333	0,5	0,621250
1,458667	0,5	0,634400
1,467000	0,5	0,623750
1,475333	0,5	0,643600
1,483667	0,5	0,646850
1,492000	0,5	0,649500
1,500333	0,5	0,656000
1,508667	0,5	0,657500
1,517000	0,5	0,681900
1,525333	0,5	0,684100
1,533667	0,5	0,707300
1,542000	0,5	0,689750
1,550333	0,5	0,686950
1,558667	0,5	0,688400
1,567000	0,5	0,685550
1,575333	0,5	0,564650
1,583667	0,5	0,019100
1,592000	0,5	-0,992000
1,600333	0,5	-1,430850
1,608667	0,5	-0,293150
1,617000	0,5	1,769950
1,625333	0,5	3,828150
1,633667	0,5	6,105300
1,642000	0,5	8,567150
1,650333	0,5	10,499550
1,658667	0,5	11,293950
1,667000	0,5	11,111950
1,675333	0,5	10,460450
1,683667	0,5	9,677300
1,692000	0,5	8,891450
1,700333	0,5	8,352500
1,708667	0,5	8,361650
1,717000	0,5	9,612500
1,725333	0,5	12,309500
1,733667	0,5	14,619250
1,742000	0,5	14,454400
1,750333	0,5	12,212300
1,758667	0,5	9,724200
1,767000	0,5	7,879800
1,775333	0,5	6,776500
1,783667	0,5	6,439300
1,792000	0,5	7,079950
1,800333	0,5	8,492400
1,808667	0,5	9,772600
1,817000	0,5	10,253700
1,825333	0,5	10,018000
1,833667	0,5	9,226100
1,842000	0,5	8,247200
1,850333	0,5	7,365250
1,858667	0,5	6,666500
1,867000	0,5	6,129550
1,875333	0,5	5,690550
1,883667	0,5	5,311600
1,892000	0,5	4,994600
1,900333	0,5	4,729950
1,908667	0,5	4,535050
1,917000	0,5	4,423700
1,925333	0,5	4,327300
1,933667	0,5	4,194650
1,942000	0,5	4,040200
1,950333	0,5	3,933000
1,958667	0,5	3,865900
1,967000	0,5	3,852350
1,975333	0,5	3,902600
1,983667	0,5	4,000950
1,992000	0,5	4,164150
2,000333	0,5	4,455550
2,008667	0,5	4,994200
2,017000	0,5	5,928400
2,025333	0,5	7,252150
2,033667	0,5	9,024250
2,042000	0,5	11,192300
2,050333	0,5	13,698500
2,058667	0,5	16,571400
2,067000	0,5	19,780850
2,075333	0,5	22,591850
2,083667	0,5	24,073950
2,092000	0,5	24,107000
2,100333	0,5	23,282200
2,108667	0,5	22,254900
2,117000	0,5	21,339350
2,125333	0,5	20,680200
2,133667	0,5	20,345900
2,142000	0,5	20,459200
2,150333	0,5	21,133250
2,158667	0,5	22,289900
2,167000	0,5	23,016550
2,175333	0,5	22,628800
2,183667	0,5	21,549350
2,192000	0,5	20,586450
2,200333	0,5	19,824450
2,208667	0,5	19,053200
2,217000	0,5	18,229950
2,225333	0,5	17,521500
2,233667	0,5	17,019100
2,242000	0,5	16,682550
2,250333	0,5	16,445200
2,258667	0,5	16,240200
2,267000	0,5	16,101500
2,275333	0,5	15,950500
2,283667	0,5	15,842300
2,292000	0,5	15,752250
2,300333	0,5	15,686650
2,308667	0,5	15,657900
2,317000	0,5	15,620250
2,325333	0,5	15,585850
2,333667	0,5	15,585250
2,342000	0,5	15,588500
2,350333	0,5	15,599900
2,358667	0,5	15,614300
2,367000	0,5	15,652250
2,375333	0,5	15,683550
2,383667	0,5	15,758150
2,392000	0,5	15,868150
2,400333	0,5	16,037050
2,408667	0,5	16,289550
2,417000	0,5	16,659100
2,425333	0,5	16,939000
2,433667	0,5	17,032650
2,442000	0,5	16,900350
2,450333	0,5	16,708750
2,458667	0,5	16,636900
2,467000	0,5	16,584600
2,475333	0,5	16,562900
2,483667	0,5	16,518750
2,492000	0,5	16,476750
2,500333	0,5	16,419450
2,508667	0,5	16,377200
2,517000	0,5	16,318700
2,525333	0,5	16,272900
2,533667	0,5	16,222750
2,542000	0,5	16,194850
2,550333	0,5	16,161100
2,558667	0,5	16,169800
2,567000	0,5	16,241900
2,575333	0,5	16,367800
2,583667	0,5	16,637750
2,592000	0,5	17,119600
2,600333	0,5	17,847750
2,608667	0,5	18,745600
2,617000	0,5	19,594700
2,625333	0,5	20,234900
2,633667	0,5	20,587600
2,642000	0,5	20,665800
2,650333	0,5	20,575400
2,658667	0,5	20,357050
2,667000	0,5	20,057950
2,675333	0,5	19,674750
2,683667	0,5	19,286050
2,692000	0,5	18,926200
2,700333	0,5	18,683600
2,708667	0,5	18,674800
2,717000	0,5	18,990600
2,725333	0,5	19,671950
2,733667	0,5	20,745800
2,742000	0,5	22,092400
2,750333	0,5	23,557000
2,758667	0,5	24,933800
2,767000	0,5	25,991400
2,775333	0,5	26,554050
2,783667	0,5	26,530050
2,792000	0,5	25,968250
2,800333	0,5	25,082550
2,808667	0,5	24,091000
2,817000	0,5	23,168600
2,825333	0,5	22,575100
2,833667	0,5	22,644200
2,842000	0,5	23,909750
2,850333	0,5	26,818800
2,858667	0,5	31,249700
2,867000	0,5	35,943551
2,875333	0,5	39,152851
2,883667	0,5	39,684051
2,892000	0,5	37,663851
2,900333	0,5	34,129601
2,908667	0,5	30,221850
2,917000	0,5	26,644350
2,925333	0,5	23,636350
2,933667	0,5	21,122400
2,942000	0,5	19,015950
2,950333	0,5	17,258100
2,958667	0,5	15,772500
2,967000	0,5	14,537050
2,975333	0,5	13,517450
2,983667	0,5	12,670700
2,992000	0,5	11,937050
3,000333	0,5	11,326500
3,008667	0,5	10,822050
3,017000	0,5	10,361900
3,025333	0,5	9,960450
3,033667	0,5	9,613150
3,042000	0,5	9,314250
3,050333	0,5	9,067800
3,058667	0,5	8,806300
3,067000	0,5	8,568850
3,075333	0,5	8,329350
3,083667	0,5	8,101650
3,092000	0,5	7,868150
3,100333	0,5	7,650200
3,108667	0,5	7,441750
3,117000	0,5	7,243150
3,125333	0,5	7,064950
3,133667	0,5	6,910250
3,142000	0,5	6,774350
3,150333	0,5	6,698650
3,158667	0,5	6,652200
3,167000	0,5	6,630300
3,175333	0,5	6,674450
3,183667	0,5	6,787850
3,192000	0,5	7,035800
3,200333	0,5	7,465900
3,208667	0,5	8,240650
3,217000	0,5	9,489650
3,225333	0,5	11,322150
3,233667	0,5	13,534700
3,242000	0,5	15,741350
3,250333	0,5	17,403400
3,258667	0,5	18,140000
3,267000	0,5	17,830150
3,275333	0,5	16,663100
3,283667	0,5	14,956250
3,292000	0,5	13,101200
3,300333	0,5	11,383450
3,308667	0,5	9,891850
3,317000	0,5	8,692700
3,325333	0,5	7,754250
3,333667	0,5	7,020800
3,342000	0,5	6,452950
3,350333	0,5	5,980800
3,358667	0,5	5,578650
3,367000	0,5	5,261600
3,375333	0,5	4,992500
3,383667	0,5	4,758900
3,392000	0,5	4,563550
3,400333	0,5	4,410450
3,408667	0,5	4,271300
3,417000	0,5	4,175450
3,425333	0,5	4,107150
3,433667	0,5	4,067150
3,442000	0,5	4,027900
3,450333	0,5	4,022350
3,458667	0,5	3,949250
3,467000	0,5	3,868050
3,475333	0,5	3,775900
3,483667	0,5	3,680150
3,492000	0,5	3,605850
3,500333	0,5	3,484750
3,508667	0,5	3,387650
3,517000	0,5	3,299900
3,525333	0,5	3,216850
3,533667	0,5	3,143050
3,542000	0,5	3,077700
3,550333	0,5	3,013600
3,558667	0,5	2,959250
3,567000	0,5	2,901900
3,575333	0,5	2,853650
3,583667	0,5	2,780300
3,592000	0,5	2,744400
3,600333	0,5	2,692550
3,608667	0,5	2,632750
3,617000	0,5	2,575950
3,625333	0,5	2,536300
3,633667	0,5	2,501550
3,642000	0,5	2,480100
3,650333	0,5	2,417350
3,658667	0,5	2,378500
3,667000	0,5	2,331950
3,675333	0,5	2,301050
3,683667	0,5	2,266100
3,692000	0,5	2,225900
3,700333	0,5	2,193200
3,708667	0,5	2,151950
3,717000	0,5	2,133650
3,725333	0,5	2,106950
3,733667	0,5	2,082100
3,742000	0,5	2,086550
3,750333	0,5	2,058050
3,758667	0,5	2,029200
3,767000	0,5	2,015250
3,775333	0,5	2,014350
3,783667	0,5	2,040300
3,792000	0,5	2,035850
3,800333	0,5	2,017100
3,808667	0,5	1,986400
3,817000	0,5	1,971800
3,825333	0,5	1,931700
3,833667	0,5	1,913850
3,842000	0,5	1,882500
3,850333	0,5	1,853350
3,858667	0,5	1,830350
3,867000	0,5	1,801400
3,875333	0,5	1,778400
3,883667	0,5	1,749200
3,892000	0,5	1,747200
3,900333	0,5	1,710800
3,908667	0,5	1,687050
3,917000	0,5	1,659450
3,925333	0,5	1,656050
3,933667	0,5	1,667350
3,942000	0,5	1,653700
3,950333	0,5	1,619150
3,958667	0,5	1,603550
3,967000	0,5	1,578800
3,975333	0,5	1,560700
3,983667	0,5	1,542850
3,992000	0,5	1,534400
4,000333	0,5	1,506650
4,008667	0,5	1,493600
4,017000	0,5	1,478350
4,025333	0,5	1,452900
4,033667	0,5	1,437400
4,042000	0,5	1,432450
4,050333	0,5	1,400650
4,058667	0,5	1,386350
4,067000	0,5	1,378600
4,075333	0,5	1,380750
4,083667	0,5	1,391700
4,092000	0,5	1,379200
4,100333	0,5	1,373300
4,108667	0,5	1,352150
4,117000	0,5	1,345750
4,125333	0,5	1,323350
4,133667	0,5	1,317200
4,142000	0,5	1,298900
4,150333	0,5	1,288850
4,158667	0,5	1,278500
4,167000	0,5	1,256500
4,175333	0,5	1,232450
4,183667	0,5	1,235250
4,192000	0,5	1,224450
4,200333	0,5	1,211850
4,208667	0,5	1,200100
4,217000	0,5	1,203950
4,225333	0,5	1,223200
4,233667	0,5	1,221450
4,242000	0,5	1,217550
4,250333	0,5	1,199750
4,258667	0,5	1,195800
4,267000	0,5	1,182550
4,275333	0,5	1,179700
4,283667	0,5	1,169700
4,292000	0,5	1,162500
4,300333	0,5	1,156900
4,308667	0,5	1,159250
4,317000	0,5	1,136550
4,325333	0,5	1,126300
4,333667	0,5	1,137100
4,342000	0,5	1,129150
4,350333	0,5	1,115700
4,358667	0,5	1,121250
4,367000	0,5	1,124000
4,375333	0,5	1,152000
4,383667	0,5	1,157200
4,392000	0,5	1,154700
4,400333	0,5	1,169150
4,408667	0,5	1,189100
4,417000	0,5	1,200200
4,425333	0,5	1,210350
4,433667	0,5	1,229350
4,442000	0,5	1,235100
4,450333	0,5	1,253150
4,458667	0,5	1,267050
4,467000	0,5	1,282900
4,475333	0,5	1,304200
4,483667	0,5	1,359750
4,492000	0,5	1,392750
4,500333	0,5	1,458500
4,508667	0,5	1,557000
4,517000	0,5	1,685800
4,525333	0,5	1,817450
4,533667	0,5	1,913950
4,542000	0,5	2,011800
4,550333	0,5	2,092700
4,558667	0,5	2,130900
4,567000	0,5	2,139450
4,575333	0,5	2,122200
4,583667	0,5	2,076150
4,592000	0,5	2,007050
4,600333	0,5	1,930900
4,608667	0,5	1,850350
4,617000	0,5	1,741800
4,625333	0,5	1,676150
4,633667	0,5	1,595200
4,642000	0,5	1,517150
4,650333	0,5	1,450500
4,658667	0,5	1,406000
4,667000	0,5	1,374550
4,675333	0,5	1,347750
4,683667	0,5	1,294550
4,692000	0,5	1,265750
4,700333	0,5	1,241350
4,708667	0,5	1,221500
4,717000	0,5	1,204850
4,725333	0,5	1,193400
4,733667	0,5	1,171850
4,742000	0,5	1,161450
4,750333	0,5	1,162150
4,758667	0,5	1,136000
4,767000	0,5	1,117950
4,775333	0,5	1,131000
4,783667	0,5	1,116900
4,792000	0,5	1,103500
4,800333	0,5	1,100300
4,808667	0,5	1,099750
4,817000	0,5	1,120600
4,825333	0,5	1,122050
4,833667	0,5	1,110950
4,842000	0,5	1,098550
4,850333	0,5	1,094200
4,858667	0,5	1,083800
4,867000	0,5	1,080900
4,875333	0,5	1,073150
4,883667	0,5	1,072750
4,892000	0,5	1,070650
4,900333	0,5	1,069750
4,908667	0,5	1,058800
4,917000	0,5	1,052750
4,925333	0,5	1,072950
4,933667	0,5	1,060750
4,942000	0,5	1,056150
4,950333	0,5	1,060850
4,958667	0,5	1,076400
4,967000	0,5	1,105550
4,975333	0,5	1,105950
4,983667	0,5	1,099550
4,992000	0,5	1,105700
5,000333	0,5	1,101600
5,008667	0,5	1,105750
5,017000	0,5	1,105950
5,025333	0,5	1,117300
5,033667	0,5	1,113750
5,042000	0,5	1,119400
5,050333	0,5	1,123700
5,058667	0,5	1,120200
5,067000	0,5	1,117800
5,075333	0,5	1,132650
5,083667	0,5	1,122300
5,092000	0,5	1,125700
5,100333	0,5	1,125050
5,108667	0,5	1,147450
5,117000	0,5	1,166400
5,125333	0,5	1,161300
5,133667	0,5	1,166300
5,142000	0,5	1,163200
5,150333	0,5	1,164450
5,158667	0,5	1,154300
5,167000	0,5	1,157200
5,175333	0,5	1,151350
5,183667	0,5	1,155450
5,192000	0,5	1,161150
5,200333	0,5	1,157500
5,208667	0,5	1,154150
5,217000	0,5	1,174300
5,225333	0,5	1,175200
5,233667	0,5	1,177900
5,242000	0,5	1,198400
5,250333	0,5	1,220700
5,258667	0,5	1,244550
5,267000	0,5	1,269750
5,275333	0,5	1,272600
5,283667	0,5	1,271700
5,292000	0,5	1,267400
5,300333	0,5	1,252550
5,308667	0,5	1,246600
5,317000	0,5	1,241950
5,325333	0,5	1,232350
5,333667	0,5	1,221300
5,342000	0,5	1,228250
5,350333	0,5	1,207950
5,358667	0,5	1,200300
5,367000	0,5	1,218400
5,375333	0,5	1,207850
5,383667	0,5	1,200100
5,392000	0,5	1,210300
5,400333	0,5	1,212000
5,408667	0,5	1,233750
5,417000	0,5	1,233400
5,425333	0,5	1,237550
5,433667	0,5	1,234350
5,442000	0,5	1,246100
5,450333	0,5	1,242350
5,458667	0,5	1,249150
5,467000	0,5	1,247700
5,475333	0,5	1,248850
5,483667	0,5	1,255700
5,492000	0,5	1,259800
5,500333	0,5	1,259950
5,508667	0,5	1,270050
5,517000	0,5	1,280400
5,525333	0,5	1,276400
5,533667	0,5	1,267050
5,542000	0,5	1,273100
5,550333	0,5	1,305950
5,558667	0,5	1,321950
5,567000	0,5	1,323050
5,575333	0,5	1,320600
5,583667	0,5	1,332250
5,592000	0,5	1,324550
5,600333	0,5	1,331450
5,608667	0,5	1,331300
5,617000	0,5	1,334800
5,625333	0,5	1,333900
5,633667	0,5	1,340450
5,642000	0,5	1,347800
5,650333	0,5	1,340800
5,658667	0,5	1,362050
5,667000	0,5	1,362700
5,675333	0,5	1,361900
5,683667	0,5	1,360400
5,692000	0,5	1,370350
5,700333	0,5	1,392000
5,708667	0,5	1,401300
5,717000	0,5	1,390350
5,725333	0,5	1,403050
5,733667	0,5	1,401650
5,742000	0,5	1,406250
5,750333	0,5	1,412100
5,758667	0,5	1,428800
5,767000	0,5	1,423900
5,775333	0,5	1,430250
5,783667	0,5	1,433300
5,792000	0,5	1,431800
5,800333	0,5	1,422100
5,808667	0,5	1,452350
5,817000	0,5	1,434900
5,825333	0,5	1,438450
5,833667	0,5	1,446400
5,842000	0,5	1,459850
5,850333	0,5	1,495800
5,858667	0,5	1,499750
5,867000	0,5	1,507200
5,875333	0,5	1,512850
5,883667	0,5	1,516150
5,892000	0,5	1,516600
5,900333	0,5	1,526400
5,908667	0,5	1,528700
5,917000	0,5	1,536700
5,925333	0,5	1,545100
5,933667	0,5	1,556300
5,942000	0,5	1,560850
5,950333	0,5	1,566350
5,958667	0,5	1,589550
5,967000	0,5	1,590600
5,975333	0,5	1,601950
5,983667	0,5	1,609400
5,992000	0,5	1,631950
6,000333	0,5	1,666200
6,008667	0,5	1,669650
6,017000	0,5	1,666700
6,025333	0,5	1,669100
6,033667	0,5	1,672250
6,042000	0,5	1,675050
6,050333	0,5	1,675300
6,058667	0,5	1,674350
6,067000	0,5	1,668100
6,075333	0,5	1,677900
6,083667	0,5	1,675550
6,092000	0,5	1,679200
6,100333	0,5	1,678400
6,108667	0,5	1,687250
6,117000	0,5	1,672950
6,125333	0,5	1,674750
6,133667	0,5	1,680350
6,142000	0,5	1,703550
6,150333	0,5	1,723300
6,158667	0,5	1,725850
6,167000	0,5	1,730150
6,175333	0,5	1,739100
6,183667	0,5	1,737800
6,192000	0,5	1,744100
6,200333	0,5	1,744050
6,208667	0,5	1,747400
6,217000	0,5	1,747950
6,225333	0,5	1,752200
6,233667	0,5	1,755100
6,242000	0,5	1,753250
6,250333	0,5	1,763000
6,258667	0,5	1,762400
6,267000	0,5	1,761500
6,275333	0,5	1,769600
6,283667	0,5	1,790100
6,292000	0,5	1,808950
6,300333	0,5	1,825550
6,308667	0,5	1,821650
6,317000	0,5	1,837900
6,325333	0,5	1,833550
6,333667	0,5	1,839950
6,342000	0,5	1,843200
6,350333	0,5	1,848000
6,358667	0,5	1,853600
6,367000	0,5	1,865250
6,375333	0,5	1,873850
6,383667	0,5	1,863500
6,392000	0,5	1,874100
6,400333	0,5	1,890000
6,408667	0,5	1,893100
6,417000	0,5	1,893950
6,425333	0,5	1,904000
6,433667	0,5	1,921550
6,442000	0,5	1,948450
6,450333	0,5	1,948400
6,458667	0,5	1,959200
6,467000	0,5	1,958900
6,475333	0,5	1,968300
6,483667	0,5	1,971750
6,492000	0,5	1,982850
6,500333	0,5	1,980950
6,508667	0,5	1,983600
6,517000	0,5	1,990200
6,525333	0,5	1,998550
6,533667	0,5	1,994450
6,542000	0,5	2,011450
6,550333	0,5	2,021600
6,558667	0,5	2,018200
6,567000	0,5	2,017050
6,575333	0,5	2,024650
6,583667	0,5	2,051850
6,592000	0,5	2,071000
6,600333	0,5	2,086100
6,608667	0,5	2,084900
6,617000	0,5	2,099050
6,625333	0,5	2,100550
6,633667	0,5	2,107500
6,642000	0,5	2,113600
6,650333	0,5	2,125000
6,658667	0,5	2,131550
6,667000	0,5	2,137900
6,675333	0,5	2,141550
6,683667	0,5	2,141450
6,692000	0,5	2,162400
6,700333	0,5	2,171400
6,708667	0,5	2,167650
6,717000	0,5	2,181150
6,725333	0,5	2,194800
6,733667	0,5	2,226050
6,742000	0,5	2,230150
6,750333	0,5	2,234100
6,758667	0,5	2,243850
6,767000	0,5	2,251750
6,775333	0,5	2,259700
6,783667	0,5	2,262550
6,792000	0,5	2,271750
6,800333	0,5	2,270500
6,808667	0,5	2,275200
6,817000	0,5	2,275650
6,825333	0,5	2,274600
6,833667	0,5	2,261700
6,842000	0,5	2,279050
6,850333	0,5	2,271950
6,858667	0,5	2,271550
6,867000	0,5	2,270850
6,875333	0,5	2,281450
6,883667	0,5	2,301650
6,892000	0,5	2,304700
6,900333	0,5	2,308350
6,908667	0,5	2,315950
6,917000	0,5	2,314300
6,925333	0,5	2,312300
6,933667	0,5	2,315350
6,942000	0,5	2,313350
6,950333	0,5	2,312600
6,958667	0,5	2,305100
6,967000	0,5	2,310650
6,975333	0,5	2,297600
6,983667	0,5	2,289900
6,992000	0,5	2,297250
7,000333	0,5	2,288750
7,008667	0,5	2,288850
7,017000	0,5	2,290800
7,025333	0,5	2,295200
7,033667	0,5	2,309000
7,042000	0,5	2,302600
7,050333	0,5	2,302000
7,058667	0,5	2,299850
7,067000	0,5	2,296650
7,075333	0,5	2,288750
7,083667	0,5	2,290650
7,092000	0,5	2,295850
7,100333	0,5	2,292450
7,108667	0,5	2,304650
7,117000	0,5	2,309100
7,125333	0,5	2,318300
7,133667	0,5	2,333400
7,142000	0,5	2,349050
7,150333	0,5	2,351550
7,158667	0,5	2,351000
7,167000	0,5	2,345300
7,175333	0,5	2,344200
7,183667	0,5	2,327650
7,192000	0,5	2,311650
7,200333	0,5	2,293700
7,208667	0,5	2,272900
7,217000	0,5	2,263000
7,225333	0,5	2,251600
7,233667	0,5	2,242050
7,242000	0,5	2,229100
7,250333	0,5	2,220750
7,258667	0,5	2,217800
7,267000	0,5	2,206250
7,275333	0,5	2,201150
7,283667	0,5	2,199400
7,292000	0,5	2,193100
7,300333	0,5	2,176300
7,308667	0,5	2,169850
7,317000	0,5	2,171200
7,325333	0,5	2,177700
7,333667	0,5	2,182250
7,342000	0,5	2,170450
7,350333	0,5	2,170300
7,358667	0,5	2,160600
7,367000	0,5	2,153050
7,375333	0,5	2,148750
7,383667	0,5	2,147900
7,392000	0,5	2,142750
7,400333	0,5	2,143850
7,408667	0,5	2,146450
7,417000	0,5	2,141200
7,425333	0,5	2,148500
7,433667	0,5	2,160700
7,442000	0,5	2,169600
7,450333	0,5	2,180500
7,458667	0,5	2,196950
7,467000	0,5	2,221850
7,475333	0,5	2,258000
7,483667	0,5	2,299500
7,492000	0,5	2,347150
7,500333	0,5	2,421950
7,508667	0,5	2,528250
7,517000	0,5	2,672250
7,525333	0,5	2,867700
7,533667	0,5	3,088050
7,542000	0,5	3,323350
7,550333	0,5	3,542300
7,558667	0,5	3,721750
7,567000	0,5	3,831100
7,575333	0,5	3,867600
7,583667	0,5	3,832150
7,592000	0,5	3,733750
7,600333	0,5	3,608250
7,608667	0,5	3,468900
7,617000	0,5	3,343200
7,625333	0,5	3,225000
7,633667	0,5	3,116750
7,642000	0,5	3,021950
7,650333	0,5	2,940900
7,658667	0,5	2,859950
7,667000	0,5	2,778500
7,675333	0,5	2,711900
7,683667	0,5	2,648950
7,692000	0,5	2,592600
7,700333	0,5	2,540700
7,708667	0,5	2,495900
7,717000	0,5	2,460500
7,725333	0,5	2,429900
7,733667	0,5	2,397200
7,742000	0,5	2,363450
7,750333	0,5	2,339900
7,758667	0,5	2,322550
7,767000	0,5	2,308500
7,775333	0,5	2,289700
7,783667	0,5	2,276750
7,792000	0,5	2,256650
7,800333	0,5	2,244850
7,808667	0,5	2,226300
7,817000	0,5	2,214100
7,825333	0,5	2,207300
7,833667	0,5	2,198250
7,842000	0,5	2,191200
7,850333	0,5	2,191600
7,858667	0,5	2,187000
7,867000	0,5	2,179300
7,875333	0,5	2,185100
7,883667	0,5	2,181650
7,892000	0,5	2,175050
7,900333	0,5	2,173650
7,908667	0,5	2,182750
7,917000	0,5	2,199150
7,925333	0,5	2,201100
7,933667	0,5	2,201300
7,942000	0,5	2,204950
7,950333	0,5	2,202200
7,958667	0,5	2,189100
7,967000	0,5	2,180750
7,975333	0,5	2,170900
7,983667	0,5	2,161050
7,992000	0,5	2,151400
8,000333	0,5	2,151750
8,008667	0,5	2,145500
8,017000	0,5	2,146900
8,025333	0,5	2,146750
8,033667	0,5	2,145850
8,042000	0,5	2,148400
8,050333	0,5	2,156850
8,058667	0,5	2,178600
8,067000	0,5	2,209900
8,075333	0,5	2,238700
8,083667	0,5	2,266800
8,092000	0,5	2,290300
8,100333	0,5	2,301050
8,108667	0,5	2,283200
8,117000	0,5	2,261450
8,125333	0,5	2,238000
8,133667	0,5	2,217500
8,142000	0,5	2,209750
8,150333	0,5	2,222000
8,158667	0,5	2,228750
8,167000	0,5	2,241250
8,175333	0,5	2,248100
8,183667	0,5	2,248450
8,192000	0,5	2,259300
8,200333	0,5	2,265200
8,208667	0,5	2,285600
8,217000	0,5	2,306500
8,225333	0,5	2,316400
8,233667	0,5	2,310000
8,242000	0,5	2,301200
8,250333	0,5	2,286250
8,258667	0,5	2,269050
8,267000	0,5	2,256950
8,275333	0,5	2,245750
8,283667	0,5	2,238800
8,292000	0,5	2,232600
8,300333	0,5	2,227650
8,308667	0,5	2,225050
8,317000	0,5	2,224000
8,325333	0,5	2,220550
8,333667	0,5	2,219150
8,342000	0,5	2,215050
8,350333	0,5	2,219700
8,358667	0,5	2,242850
8,367000	0,5	2,272850
8,375333	0,5	2,311250
8,383667	0,5	2,329500
8,392000	0,5	2,316150
8,400333	0,5	2,262250
8,408667	0,5	2,169800
8,417000	0,5	2,079100
8,425333	0,5	2,001100
8,433667	0,5	1,949200
8,442000	0,5	1,900600
8,450333	0,5	1,861100
8,458667	0,5	1,829350
8,467000	0,5	1,806600
8,475333	0,5	1,785400
8,483667	0,5	1,766750
8,492000	0,5	1,757450
8,500333	0,5	1,753450
8,508667	0,5	1,757050
8,517000	0,5	1,757150
8,525333	0,5	1,756500
8,533667	0,5	1,753500
8,542000	0,5	1,749650
8,550333	0,5	1,738300
8,558667	0,5	1,722800
8,567000	0,5	1,719350
8,575333	0,5	1,712100
8,583667	0,5	1,711150
8,592000	0,5	1,712150
8,600333	0,5	1,707650
8,608667	0,5	1,716000
8,617000	0,5	1,716900
8,625333	0,5	1,725300
8,633667	0,5	1,724200
8,642000	0,5	1,728750
8,650333	0,5	1,730200
8,658667	0,5	1,737500
8,667000	0,5	1,735600
8,675333	0,5	1,740500
8,683667	0,5	1,740050
8,692000	0,5	1,741300
8,700333	0,5	1,741500
8,708667	0,5	1,745450
8,717000	0,5	1,755900
8,725333	0,5	1,760900
8,733667	0,5	1,768050
8,742000	0,5	1,773800
8,750333	0,5	1,778050
8,758667	0,5	1,777500
8,767000	0,5	1,780400
8,775333	0,5	1,778350
8,783667	0,5	1,779700
8,792000	0,5	1,783400
8,800333	0,5	1,790050
8,808667	0,5	1,803350
8,817000	0,5	1,810900
8,825333	0,5	1,816850
8,833667	0,5	1,821050
8,842000	0,5	1,825400
8,850333	0,5	1,833900
8,858667	0,5	1,834300
8,867000	0,5	1,837450
8,875333	0,5	1,833450
8,883667	0,5	1,833350
8,892000	0,5	1,833800
8,900333	0,5	1,833150
8,908667	0,5	1,836150
8,917000	0,5	1,830100
8,925333	0,5	1,828500
8,933667	0,5	1,826400
8,942000	0,5	1,826300
8,950333	0,5	1,827300
8,958667	0,5	1,833000
8,967000	0,5	1,833600
8,975333	0,5	1,842650
8,983667	0,5	1,854950
8,992000	0,5	1,861650
9,000333	0,5	1,872450
9,008667	0,5	1,885950
9,017000	0,5	1,897450
9,025333	0,5	1,897400
9,033667	0,5	1,885750
9,042000	0,5	1,867100
9,050333	0,5	1,841200
9,058667	0,5	1,814050
9,067000	0,5	1,790850
9,075333	0,5	1,773100
9,083667	0,5	1,760350
9,092000	0,5	1,756100
9,100333	0,5	1,755250
9,108667	0,5	1,758300
9,117000	0,5	1,754350
9,125333	0,5	1,749900
9,133667	0,5	1,751900
9,142000	0,5	1,753550
9,150333	0,5	1,751850
9,158667	0,5	1,746050
9,167000	0,5	1,742800
9,175333	0,5	1,746650
9,183667	0,5	1,740850
9,192000	0,5	1,739750
9,200333	0,5	1,738850
9,208667	0,5	1,735800
9,217000	0,5	1,733950
9,225333	0,5	1,725800
9,233667	0,5	1,729450
9,242000	0,5	1,732200
9,250333	0,5	1,734950
9,258667	0,5	1,736800
9,267000	0,5	1,735950
9,275333	0,5	1,736150
9,283667	0,5	1,731650
9,292000	0,5	1,734700
9,300333	0,5	1,734850
9,308667	0,5	1,735800
9,317000	0,5	1,735350
9,325333	0,5	1,726700
9,333667	0,5	1,722300
9,342000	0,5	1,713600
9,350333	0,5	1,708600
9,358667	0,5	1,699800
9,367000	0,5	1,688050
9,375333	0,5	1,674500
9,383667	0,5	1,658500
9,392000	0,5	1,644050
9,400333	0,5	1,627550
9,408667	0,5	1,614700
9,417000	0,5	1,598150
9,425333	0,5	1,583600
9,433667	0,5	1,568200
9,442000	0,5	1,553000
9,450333	0,5	1,544200
9,458667	0,5	1,530100
9,467000	0,5	1,520350
9,475333	0,5	1,514050
9,483667	0,5	1,501350
9,492000	0,5	1,492000
9,500333	0,5	1,478100
9,508667	0,5	1,469250
9,517000	0,5	1,461300
9,525333	0,5	1,452200
9,533667	0,5	1,442750
9,542000	0,5	1,438500
9,550333	0,5	1,436450
9,558667	0,5	1,425050
9,567000	0,5	1,420750
9,575333	0,5	1,411250
9,583667	0,5	1,404750
9,592000	0,5	1,404050
9,600333	0,5	1,400450
9,608667	0,5	1,392150
9,617000	0,5	1,388150
9,625333	0,5	1,381900
9,633667	0,5	1,382550
9,642000	0,5	1,379600
9,650333	0,5	1,381750
9,658667	0,5	1,380700
9,667000	0,5	1,378150
9,675333	0,5	1,372750
9,683667	0,5	1,365500
9,692000	0,5	1,366500
9,700333	0,5	1,366350
9,708667	0,5	1,365500
9,717000	0,5	1,366800
9,725333	0,5	1,367650
9,733667	0,5	1,368850
9,742000	0,5	1,369700
9,750333	0,5	1,370450
9,758667	0,5	1,374200
9,767000	0,5	1,380450
9,775333	0,5	1,384650
9,783667	0,5	1,396550
9,792000	0,5	1,412900
9,800333	0,5	1,434600
9,808667	0,5	1,460950
9,817000	0,5	1,497900
9,825333	0,5	1,538400
9,833667	0,5	1,591300
9,842000	0,5	1,629950
9,850333	0,5	1,664900
9,858667	0,5	1,684250
9,867000	0,5	1,684300
9,875333	0,5	1,666800
9,883667	0,5	1,640700
9,892000	0,5	1,602450
9,900333	0,5	1,570800
9,908667	0,5	1,528850
9,917000	0,5	1,503100
9,925333	0,5	1,482900
9,933667	0,5	1,468400
9,942000	0,5	1,467350
9,950333	0,5	1,461550
9,958667	0,5	1,461550
9,967000	0,5	1,463000
9,975333	0,5	1,458050
9,983667	0,5	1,471400
9,992000	0,5	1,479150
10,000333	0,5	1,487350
10,008667	0,5	1,492550
10,017000	0,5	1,502450
10,025333	0,5	1,515300
10,033667	0,5	1,531650
10,042000	0,5	1,554100
10,050333	0,5	1,574000
10,058667	0,5	1,587550
10,067000	0,5	1,602850
10,075333	0,5	1,608150
10,083667	0,5	1,594650
10,092000	0,5	1,583850
10,100333	0,5	1,565400
10,108667	0,5	1,541150
10,117000	0,5	1,515400
10,125333	0,5	1,488450
10,133667	0,5	1,466750
10,142000	0,5	1,453150
10,150333	0,5	1,437850
10,158667	0,5	1,421800
10,167000	0,5	1,406750
10,175333	0,5	1,399150
10,183667	0,5	1,391700
10,192000	0,5	1,383650
10,200333	0,5	1,372900
10,208667	0,5	1,368050
10,217000	0,5	1,366700
10,225333	0,5	1,357550
10,233667	0,5	1,353050
10,242000	0,5	1,357600
10,250333	0,5	1,358300
10,258667	0,5	1,361200
10,267000	0,5	1,364650
10,275333	0,5	1,373900
10,283667	0,5	1,383950
10,292000	0,5	1,403050
10,300333	0,5	1,416050
10,308667	0,5	1,432150
10,317000	0,5	1,454950
10,325333	0,5	1,476100
10,333667	0,5	1,506750
10,342000	0,5	1,539600
10,350333	0,5	1,582000
10,358667	0,5	1,617850
10,367000	0,5	1,652250
10,375333	0,5	1,664650
10,383667	0,5	1,659600
10,392000	0,5	1,638100
10,400333	0,5	1,597900
10,408667	0,5	1,546350
10,417000	0,5	1,504400
10,425333	0,5	1,464000
10,433667	0,5	1,436450
10,442000	0,5	1,406100
10,450333	0,5	1,386050
10,458667	0,5	1,374600
10,467000	0,5	1,352950
10,475333	0,5	1,342500
10,483667	0,5	1,329300
10,492000	0,5	1,317050
10,500333	0,5	1,298600
10,508667	0,5	1,293000
10,517000	0,5	1,283150
10,525333	0,5	1,274850
10,533667	0,5	1,269050
10,542000	0,5	1,263500
10,550333	0,5	1,257000
10,558667	0,5	1,250550
10,567000	0,5	1,247450
10,575333	0,5	1,252600
10,583667	0,5	1,255650
10,592000	0,5	1,260850
10,600333	0,5	1,266750
10,608667	0,5	1,268750
10,617000	0,5	1,276400
10,625333	0,5	1,278500
10,633667	0,5	1,292700
10,642000	0,5	1,302500
10,650333	0,5	1,314450
10,658667	0,5	1,334350
10,667000	0,5	1,356050
10,675333	0,5	1,372450
10,683667	0,5	1,386850
10,692000	0,5	1,389350
10,700333	0,5	1,372400
10,708667	0,5	1,339900
10,717000	0,5	1,307450
10,725333	0,5	1,274650
10,733667	0,5	1,239550
10,742000	0,5	1,206950
10,750333	0,5	1,187550
10,758667	0,5	1,183350
10,767000	0,5	1,184500
10,775333	0,5	1,201050
10,783667	0,5	1,223350
10,792000	0,5	1,243150
10,800333	0,5	1,268350
10,808667	0,5	1,296200
10,817000	0,5	1,313350
10,825333	0,5	1,343100
10,833667	0,5	1,365350
10,842000	0,5	1,381750
10,850333	0,5	1,391350
10,858667	0,5	1,396350
10,867000	0,5	1,401900
10,875333	0,5	1,408850
10,883667	0,5	1,409100
10,892000	0,5	1,405100
10,900333	0,5	1,399050
10,908667	0,5	1,398350
10,917000	0,5	1,396200
10,925333	0,5	1,396850
10,933667	0,5	1,399100
10,942000	0,5	1,400250
10,950333	0,5	1,407700
10,958667	0,5	1,405250
10,967000	0,5	1,401500
10,975333	0,5	1,411850
10,983667	0,5	1,420800
10,992000	0,5	1,417950
11,000333	0,5	1,420350
11,008667	0,5	1,416900
11,017000	0,5	1,431500
11,025333	0,5	1,432450
11,033667	0,5	1,439100
11,042000	0,5	1,442600
11,050333	0,5	1,446050
11,058667	0,5	1,451550
11,067000	0,5	1,451100
11,075333	0,5	1,451850
11,083667	0,5	1,461150
11,092000	0,5	1,455700
11,100333	0,5	1,455900
11,108667	0,5	1,452550
11,117000	0,5	1,449550
11,125333	0,5	1,456550
11,133667	0,5	1,460850
11,142000	0,5	1,465700
11,150333	0,5	1,463200
11,158667	0,5	1,473600
11,167000	0,5	1,485550
11,175333	0,5	1,505950
11,183667	0,5	1,533700
11,192000	0,5	1,571950
11,200333	0,5	1,615550
11,208667	0,5	1,677450
11,217000	0,5	1,755700
11,225333	0,5	1,829150
11,233667	0,5	1,897300
11,242000	0,5	1,941800
11,250333	0,5	1,969100
11,258667	0,5	1,958550
11,267000	0,5	1,924400
11,275333	0,5	1,885000
11,283667	0,5	1,840750
11,292000	0,5	1,804050
11,300333	0,5	1,766700
11,308667	0,5	1,741900
11,317000	0,5	1,731300
11,325333	0,5	1,714250
11,333667	0,5	1,705900
11,342000	0,5	1,694750
11,350333	0,5	1,688600
11,358667	0,5	1,685050
11,367000	0,5	1,696000
11,375333	0,5	1,694650
11,383667	0,5	1,710600
11,392000	0,5	1,735750
11,400333	0,5	1,764200
11,408667	0,5	1,797400
11,417000	0,5	1,865800
11,425333	0,5	1,947700
11,433667	0,5	2,059400
11,442000	0,5	2,202550
11,450333	0,5	2,388150
11,458667	0,5	2,622250
11,467000	0,5	2,894700
11,475333	0,5	3,199950
11,483667	0,5	3,518700
11,492000	0,5	3,827100
11,500333	0,5	4,090650
11,508667	0,5	4,281150
11,517000	0,5	4,369550
11,525333	0,5	4,348400
11,533667	0,5	4,226200
11,542000	0,5	4,032150
11,550333	0,5	3,776750
11,558667	0,5	3,506400
11,567000	0,5	3,259750
11,575333	0,5	3,044300
11,583667	0,5	2,874150
11,592000	0,5	2,755850
11,600333	0,5	2,696450
11,608667	0,5	2,679750
11,617000	0,5	2,689050
11,625333	0,5	2,695000
11,633667	0,5	2,700100
11,642000	0,5	2,680550
11,650333	0,5	2,627600
11,658667	0,5	2,554550
11,667000	0,5	2,463000
11,675333	0,5	2,355100
11,683667	0,5	2,252850
11,692000	0,5	2,149950
11,700333	0,5	2,056200
11,708667	0,5	1,980900
11,717000	0,5	1,908600
11,725333	0,5	1,852150
11,733667	0,5	1,811200
11,742000	0,5	1,762500
11,750333	0,5	1,736750
11,758667	0,5	1,715000
11,767000	0,5	1,703800
11,775333	0,5	1,683250
11,783667	0,5	1,677750
11,792000	0,5	1,659800
11,800333	0,5	1,655300
11,808667	0,5	1,646050
11,817000	0,5	1,648750
11,825333	0,5	1,641350
11,833667	0,5	1,638850
11,842000	0,5	1,633900
11,850333	0,5	1,627050
11,858667	0,5	1,634550
11,867000	0,5	1,633750
11,875333	0,5	1,632350
11,883667	0,5	1,626600
11,892000	0,5	1,620700
11,900333	0,5	1,622300
11,908667	0,5	1,634850
11,917000	0,5	1,629750
11,925333	0,5	1,640400
11,933667	0,5	1,642550
11,942000	0,5	1,657150
11,950333	0,5	1,669950
11,958667	0,5	1,673200
11,967000	0,5	1,693950
11,975333	0,5	1,701450
11,983667	0,5	1,724550
11,992000	0,5	1,736800
12,000333	0,5	1,737750
12,008667	0,5	1,752650
12,017000	0,5	1,756600
12,025333	0,5	1,759500
12,033667	0,5	1,759250
12,042000	0,5	1,750050
12,050333	0,5	1,757900
12,058667	0,5	1,754100
12,067000	0,5	1,750650
12,075333	0,5	1,753550
12,083667	0,5	1,762450
12,092000	0,5	1,761400
12,100333	0,5	1,769450
12,108667	0,5	1,777800
12,117000	0,5	1,791350
12,125333	0,5	1,798750
12,133667	0,5	1,814900
12,142000	0,5	1,820650
12,150333	0,5	1,842700
12,158667	0,5	1,877200
12,167000	0,5	1,923000
12,175333	0,5	1,977800
12,183667	0,5	2,039450
12,192000	0,5	2,107900
12,200333	0,5	2,177800
12,208667	0,5	2,229500
12,217000	0,5	2,260850
12,225333	0,5	2,284350
12,233667	0,5	2,291300
12,242000	0,5	2,294300
12,250333	0,5	2,298900
12,258667	0,5	2,302800
12,267000	0,5	2,307100
12,275333	0,5	2,312150
12,283667	0,5	2,316200
12,292000	0,5	2,311500
12,300333	0,5	2,312300
12,308667	0,5	2,312050
12,317000	0,5	2,309850
12,325333	0,5	2,304900
12,333667	0,5	2,292500
12,342000	0,5	2,279250
12,350333	0,5	2,248350
12,358667	0,5	2,196250
12,367000	0,5	2,134200
12,375333	0,5	2,085150
12,383667	0,5	2,040800
12,392000	0,5	2,017000
12,400333	0,5	2,017200
12,408667	0,5	2,013200
12,417000	0,5	2,020700
12,425333	0,5	2,025800
12,433667	0,5	2,018350
12,442000	0,5	1,999750
12,450333	0,5	1,990450
12,458667	0,5	1,963550
12,467000	0,5	1,927850
12,475333	0,5	1,878250
12,483667	0,5	1,830350
12,492000	0,5	1,785100
12,500333	0,5	1,739000
12,508667	0,5	1,685800
12,517000	0,5	1,633150
12,525333	0,5	1,586500
12,533667	0,5	1,549600
12,542000	0,5	1,514900
12,550333	0,5	1,478250
12,558667	0,5	1,454350
12,567000	0,5	1,429300
12,575333	0,5	1,419200
12,583667	0,5	1,388300
12,592000	0,5	1,375250
12,600333	0,5	1,360750
12,608667	0,5	1,350250
12,617000	0,5	1,328250
12,625333	0,5	1,309300
12,633667	0,5	1,302650
12,642000	0,5	1,291550
12,650333	0,5	1,282600
12,658667	0,5	1,277000
12,667000	0,5	1,277500
12,675333	0,5	1,266300
12,683667	0,5	1,257450
12,692000	0,5	1,256100
12,700333	0,5	1,258700
12,708667	0,5	1,245900
12,717000	0,5	1,237000
12,725333	0,5	1,229250
12,733667	0,5	1,213450
12,742000	0,5	1,212450
12,750333	0,5	1,212550
12,758667	0,5	1,200450
12,767000	0,5	1,191600
12,775333	0,5	1,169350
12,783667	0,5	1,173700
12,792000	0,5	1,167400
12,800333	0,5	1,179350
12,808667	0,5	1,192350
12,817000	0,5	1,226700
12,825333	0,5	1,267850
12,833667	0,5	1,316900
12,842000	0,5	1,370850
12,850333	0,5	1,410750
12,858667	0,5	1,426000
12,867000	0,5	1,412600
12,875333	0,5	1,372450
12,883667	0,5	1,314650
12,892000	0,5	1,270400
12,900333	0,5	1,217650
12,908667	0,5	1,180000
12,917000	0,5	1,144850
12,925333	0,5	1,120250
12,933667	0,5	1,082350
12,942000	0,5	1,045750
12,950333	0,5	0,994650
12,958667	0,5	0,943650
12,967000	0,5	0,885600
12,975333	0,5	0,824700
12,983667	0,5	0,760800
12,992000	0,5	0,718550
13,000333	0,5	0,653850
13,008667	0,5	0,554600
13,017000	0,5	0,451500
13,025333	0,5	0,282600
13,033667	0,5	0,027350
13,042000	0,5	-0,338850
13,050333	0,5	-0,651050
13,058667	0,5	-0,927800
13,067000	0,5	-1,163100
13,075333	0,5	-1,328500
13,083667	0,5	-1,431500
13,092000	0,5	-1,520400
13,100333	0,5	-1,597900
13,108667	0,5	-1,671200
13,117000	0,5	-1,744500
13,125333	0,5	-1,815250
13,133667	0,5	-1,887950
13,142000	0,5	-1,959350
13,150333	0,5	-2,023700
13,158667	0,5	-2,079900
13,167000	0,5	-2,126350
13,175333	0,5	-2,193700
13,183667	0,5	-2,227450
13,192000	0,5	-2,270900
13,200333	0,5	-2,303350
13,208667	0,5	-2,337850
13,217000	0,5	-2,374500
13,225333	0,5	-2,382050
13,233667	0,5	-2,395400
13,242000	0,5	-2,400300
13,250333	0,5	-2,409800
13,258667	0,5	-2,405300
13,267000	0,5	-2,393950
13,275333	0,5	-2,371500
13,283667	0,5	-2,359750
13,292000	0,5	-2,329100
13,300333	0,5	-2,314050
13,308667	0,5	-2,290750
13,317000	0,5	-2,274600
13,325333	0,5	-2,276000
13,333667	0,5	-2,266850
13,342000	0,5	-2,277950
13,350333	0,5	-2,289100
13,358667	0,5	-2,306800
13,367000	0,5	-2,326350
13,375333	0,5	-2,327500
13,383667	0,5	-2,329150
13,392000	0,5	-2,328850
13,400333	0,5	-2,329600
13,408667	0,5	-2,325000
13,417000	0,5	-2,324450
13,425333	0,5	-2,317500
13,433667	0,5	-2,304400
13,442000	0,5	-2,290500
13,450333	0,5	-2,277150
13,458667	0,5	-2,256150
13,467000	0,5	-2,231000
13,475333	0,5	-2,211200
13,483667	0,5	-2,171150
13,492000	0,5	-2,146850
13,500333	0,5	-2,122650
13,508667	0,5	-2,107550
13,517000	0,5	-2,094300
13,525333	0,5	-2,071500
13,533667	0,5	-2,055300
13,542000	0,5	-2,058100
13,550333	0,5	-2,060550
13,558667	0,5	-2,070950
13,567000	0,5	-2,080600
13,575333	0,5	-2,093200
13,583667	0,5	-2,104150
13,592000	0,5	-2,109200
13,600333	0,5	-2,121850
13,608667	0,5	-2,120750
13,617000	0,5	-2,131500
13,625333	0,5	-2,127050
13,633667	0,5	-2,117800
13,642000	0,5	-2,114200
13,650333	0,5	-2,120950
13,658667	0,5	-2,126100
13,667000	0,5	-2,119800
13,675333	0,5	-2,093300
13,683667	0,5	-2,080400
13,692000	0,5	-2,060200
13,700333	0,5	-2,041100
13,708667	0,5	-2,019550
13,717000	0,5	-1,998700
13,725333	0,5	-1,974900
13,733667	0,5	-1,941450
13,742000	0,5	-1,913350
13,750333	0,5	-1,868750
13,758667	0,5	-1,833900
13,767000	0,5	-1,816400
13,775333	0,5	-1,778250
13,783667	0,5	-1,750600
13,792000	0,5	-1,735950
13,800333	0,5	-1,730200
13,808667	0,5	-1,732850
13,817000	0,5	-1,719100
13,825333	0,5	-1,709300
13,833667	0,5	-1,695350
13,842000	0,5	-1,694250
13,850333	0,5	-1,679500
13,858667	0,5	-1,670300
13,867000	0,5	-1,655350
13,875333	0,5	-1,642150
13,883667	0,5	-1,623100
13,892000	0,5	-1,604250
13,900333	0,5	-1,573800
13,908667	0,5	-1,560900
13,917000	0,5	-1,525750
13,925333	0,5	-1,493350
13,933667	0,5	-1,452050
13,942000	0,5	-1,404700
13,950333	0,5	-1,357950
13,958667	0,5	-1,282350
13,967000	0,5	-1,198750
13,975333	0,5	-1,103350
13,983667	0,5	-1,012950
13,992000	0,5	-0,922950
14,000333	0,5	-0,850050
14,008667	0,5	-0,795650
14,017000	0,5	-0,755950
14,025333	0,5	-0,724650
14,033667	0,5	-0,724650
14,042000	0,5	-0,722150
14,050333	0,5	-0,720900
14,058667	0,5	-0,729650
14,067000	0,5	-0,712250
14,075333	0,5	-0,679500
14,083667	0,5	-0,626550
14,092000	0,5	-0,547100
14,100333	0,5	-0,463200
14,108667	0,5	-0,346450
14,117000	0,5	-0,224700
14,125333	0,5	-0,133300
14,133667	0,5	-0,058250
14,142000	0,5	-0,021850
14,150333	0,5	-0,005000
14,158667	0,5	-0,021250
14,167000	0,5	-0,035400
14,175333	0,5	-0,059250
14,183667	0,5	-0,070350
14,192000	0,5	-0,071100
14,200333	0,5	-0,065600
14,208667	0,5	-0,073700
14,217000	0,5	-0,047300
14,225333	0,5	-0,029950
14,233667	0,5	-0,020150
14,242000	0,5	-0,019750
14,250333	0,5	-0,023350
14,258667	0,5	0,008150
14,267000	0,5	0,022300
14,275333	0,5	0,036300
14,283667	0,5	0,045350
14,292000	0,5	0,059700
14,300333	0,5	0,064350
14,308667	0,5	0,083800
14,317000	0,5	0,088800
14,325333	0,5	0,094600
14,333667	0,5	0,097750
14,342000	0,5	0,127250
14,350333	0,5	0,137550
14,358667	0,5	0,158600
14,367000	0,5	0,183100
14,375333	0,5	0,197400
14,383667	0,5	0,189550
14,392000	0,5	0,175750
14,400333	0,5	0,166400
14,408667	0,5	0,164900
14,417000	0,5	0,157900
14,425333	0,5	0,140500
14,433667	0,5	0,125550
14,442000	0,5	0,114050
14,450333	0,5	0,099700
14,458667	0,5	0,093050
14,467000	0,5	0,084700
14,475333	0,5	0,083950
14,483667	0,5	0,081750
14,492000	0,5	0,085550
14,500333	0,5	0,077700
14,508667	0,5	0,082000
14,517000	0,5	0,088200
14,525333	0,5	0,076750
14,533667	0,5	0,074000
14,542000	0,5	0,059850
14,550333	0,5	0,063600
14,558667	0,5	0,088250
14,567000	0,5	0,127400
14,575333	0,5	0,185500
14,583667	0,5	0,277300
14,592000	0,5	0,387650
14,600333	0,5	0,494800
14,608667	0,5	0,579550
14,617000	0,5	0,617650
14,625333	0,5	0,607650
14,633667	0,5	0,558150
14,642000	0,5	0,497650
14,650333	0,5	0,418400
14,658667	0,5	0,380400
14,667000	0,5	0,372750
14,675333	0,5	0,409600
14,683667	0,5	0,458500
14,692000	0,5	0,541500
14,700333	0,5	0,613000
14,708667	0,5	0,680800
14,717000	0,5	0,680400
14,725333	0,5	0,637300
14,733667	0,5	0,562850
14,742000	0,5	0,473250
14,750333	0,5	0,392750
14,758667	0,5	0,328550
14,767000	0,5	0,271450
14,775333	0,5	0,237700
14,783667	0,5	0,226450
14,792000	0,5	0,194600
14,800333	0,5	0,175400
14,808667	0,5	0,167300
14,817000	0,5	0,166950
14,825333	0,5	0,163200
14,833667	0,5	0,162050
14,842000	0,5	0,165350
14,850333	0,5	0,179050
14,858667	0,5	0,177600
14,867000	0,5	0,169900
14,875333	0,5	0,157200
14,883667	0,5	0,148550
14,892000	0,5	0,133450
14,900333	0,5	0,131500
14,908667	0,5	0,114200
14,917000	0,5	0,103700
14,925333	0,5	0,106700
14,933667	0,5	0,094500
14,942000	0,5	0,066300
14,950333	0,5	0,058200
14,958667	0,5	0,040400
14,967000	0,5	0,013450
14,975333	0,5	0,003400
14,983667	0,5	-0,029900
14,992000	0,5	-0,029900
15,000333	0,5	-0,030200
15,008667	0,5	-0,036000
15,017000	0,5	-0,045800
15,025333	0,5	-0,046700
15,033667	0,5	-0,051750
15,042000	0,5	-0,049500
15,050333	0,5	-0,060800
15,058667	0,5	-0,056200
15,067000	0,5	-0,049700
15,075333	0,5	-0,025300
15,083667	0,5	0,015250
15,092000	0,5	0,069500
15,100333	0,5	0,166950
15,108667	0,5	0,287650
15,117000	0,5	0,390350
15,125333	0,5	0,473750
15,133667	0,5	0,503400
15,142000	0,5	0,494850
15,150333	0,5	0,450500
15,158667	0,5	0,380050
15,167000	0,5	0,342000
15,175333	0,5	0,340650
15,183667	0,5	0,387300
15,192000	0,5	0,457000
15,200333	0,5	0,537950
15,208667	0,5	0,576400
15,217000	0,5	0,570950
15,225333	0,5	0,517600
15,233667	0,5	0,422400
15,242000	0,5	0,320000
15,250333	0,5	0,249950
15,258667	0,5	0,190450
15,267000	0,5	0,144800
15,275333	0,5	0,105950
15,283667	0,5	0,087000
15,292000	0,5	0,075350
15,300333	0,5	0,057250
15,308667	0,5	0,033900
15,317000	0,5	0,008700
15,325333	0,5	-0,009400
15,333667	0,5	-0,025550
15,342000	0,5	-0,024050
15,350333	0,5	-0,030900
15,358667	0,5	-0,018300
15,367000	0,5	-0,021150
15,375333	0,5	-0,009400
15,383667	0,5	-0,034900
15,392000	0,5	-0,024750
15,400333	0,5	-0,043800
15,408667	0,5	-0,059900
15,417000	0,5	-0,088750
15,425333	0,5	-0,134850
15,433667	0,5	-0,152800
15,442000	0,5	-0,162450
15,450333	0,5	-0,167650
15,458667	0,5	-0,187800
15,467000	0,5	-0,195300
15,475333	0,5	-0,209900
15,483667	0,5	-0,222600
15,492000	0,5	-0,230600
15,500333	0,5	-0,235750
15,508667	0,5	-0,240600
15,517000	0,5	-0,237800
15,525333	0,5	-0,226750
15,533667	0,5	-0,221850
15,542000	0,5	-0,168900
15,550333	0,5	-0,091350
15,558667	0,5	0,007150
15,567000	0,5	0,128800
15,575333	0,5	0,226650
15,583667	0,5	0,322900
15,592000	0,5	0,376850
15,600333	0,5	0,372850
15,608667	0,5	0,346100
15,617000	0,5	0,328050
15,625333	0,5	0,334850
15,633667	0,5	0,378950
15,642000	0,5	0,437850
15,650333	0,5	0,483100
15,658667	0,5	0,484650
15,667000	0,5	0,440750
15,675333	0,5	0,362650
15,683667	0,5	0,261800
15,692000	0,5	0,176900
15,700333	0,5	0,088250
15,708667	0,5	0,020950
15,717000	0,5	-0,052100
15,725333	0,5	-0,095900
15,733667	0,5	-0,116150
15,742000	0,5	-0,129550
15,750333	0,5	-0,140650
15,758667	0,5	-0,123250
15,767000	0,5	-0,126650
15,775333	0,5	-0,118900
15,783667	0,5	-0,116450
15,792000	0,5	-0,119400
15,800333	0,5	-0,130800
15,808667	0,5	-0,151900
15,817000	0,5	-0,164650
15,825333	0,5	-0,198800
15,833667	0,5	-0,211550
15,842000	0,5	-0,233300
15,850333	0,5	-0,262150
15,858667	0,5	-0,293900
15,867000	0,5	-0,314850
15,875333	0,5	-0,323650
15,883667	0,5	-0,323500
15,892000	0,5	-0,335400
15,900333	0,5	-0,344500
15,908667	0,5	-0,349350
15,917000	0,5	-0,356250
15,925333	0,5	-0,357500
15,933667	0,5	-0,350500
15,942000	0,5	-0,332200
15,950333	0,5	-0,293250
15,958667	0,5	-0,198600
15,967000	0,5	-0,089900
15,975333	0,5	0,038950
15,983667	0,5	0,169400
15,992000	0,5	0,259350
16,000333	0,5	0,293750
16,008667	0,5	0,282300
16,017000	0,5	0,269300
16,025333	0,5	0,302400
16,033667	0,5	0,330100
16,042000	0,5	0,364700
16,050333	0,5	0,348250
16,058667	0,5	0,301850
16,067000	0,5	0,207000
16,075333	0,5	0,105050
16,083667	0,5	0,005600
16,092000	0,5	-0,072100
16,100333	0,5	-0,130200
16,108667	0,5	-0,163200
16,117000	0,5	-0,207000
16,125333	0,5	-0,200300
16,133667	0,5	-0,205200
16,142000	0,5	-0,207900
16,150333	0,5	-0,200250
16,158667	0,5	-0,222350
16,167000	0,5	-0,214550
16,175333	0,5	-0,216750
16,183667	0,5	-0,220300
16,192000	0,5	-0,235500
16,200333	0,5	-0,251500
16,208667	0,5	-0,276250
16,217000	0,5	-0,297350
16,225333	0,5	-0,324400
16,233667	0,5	-0,347950
16,242000	0,5	-0,376150
16,250333	0,5	-0,397550
16,258667	0,5	-0,416400
16,267000	0,5	-0,452050
16,275333	0,5	-0,448250
16,283667	0,5	-0,448850
16,292000	0,5	-0,442250
16,300333	0,5	-0,431650
16,308667	0,5	-0,417750
16,317000	0,5	-0,345650
16,325333	0,5	-0,231450
16,333667	0,5	-0,103750
16,342000	0,5	0,040050
16,350333	0,5	0,163850
16,358667	0,5	0,250300
16,367000	0,5	0,286750
16,375333	0,5	0,305750
16,383667	0,5	0,307000
16,392000	0,5	0,304950
16,400333	0,5	0,309900
16,408667	0,5	0,292700
16,417000	0,5	0,213850
16,425333	0,5	0,141450
16,433667	0,5	0,047950
16,442000	0,5	-0,044500
16,450333	0,5	-0,112150
16,458667	0,5	-0,171600
16,467000	0,5	-0,179300
16,475333	0,5	-0,195800
16,483667	0,5	-0,184850
16,492000	0,5	-0,187450
16,500333	0,5	-0,169800
16,508667	0,5	-0,166850
16,517000	0,5	-0,154700
16,525333	0,5	-0,147700
16,533667	0,5	-0,149400
16,542000	0,5	-0,159550
16,550333	0,5	-0,155500
16,558667	0,5	-0,189000
16,567000	0,5	-0,211200
16,575333	0,5	-0,225350
16,583667	0,5	-0,249900
16,592000	0,5	-0,269550
16,600333	0,5	-0,293100
16,608667	0,5	-0,310500
16,617000	0,5	-0,302000
16,625333	0,5	-0,311450
16,633667	0,5	-0,308000
16,642000	0,5	-0,288300
16,650333	0,5	-0,250100
16,658667	0,5	-0,190250
16,667000	0,5	-0,101800
16,675333	0,5	-0,014150
16,683667	0,5	0,054050
16,692000	0,5	0,105150
16,700333	0,5	0,133400
16,708667	0,5	0,130350
16,717000	0,5	0,138450
16,725333	0,5	0,122650
16,733667	0,5	0,092850
16,742000	0,5	0,025800
16,750333	0,5	-0,073900
16,758667	0,5	-0,156450
16,767000	0,5	-0,219800
16,775333	0,5	-0,271450
16,783667	0,5	-0,327200
16,792000	0,5	-0,346950
16,800333	0,5	-0,369400
16,808667	0,5	-0,379700
16,817000	0,5	-0,384300
16,825333	0,5	-0,390500
16,833667	0,5	-0,397800
16,842000	0,5	-0,402800
16,850333	0,5	-0,412750
16,858667	0,5	-0,434150
16,867000	0,5	-0,440300
16,875333	0,5	-0,461900
16,883667	0,5	-0,479300
16,892000	0,5	-0,520400
16,900333	0,5	-0,545700
16,908667	0,5	-0,559150
16,917000	0,5	-0,551750
16,925333	0,5	-0,551800
16,933667	0,5	-0,526900
16,942000	0,5	-0,499900
16,950333	0,5	-0,449900
16,958667	0,5	-0,371700
16,967000	0,5	-0,266550
16,975333	0,5	-0,156150
16,983667	0,5	-0,059050
16,992000	0,5	0,038300
17,000333	0,5	0,102550
17,008667	0,5	0,168400
17,017000	0,5	0,236900
17,025333	0,5	0,292400
17,033667	0,5	0,344850
17,042000	0,5	0,379600
17,050333	0,5	0,439250
17,058667	0,5	0,537150
17,067000	0,5	0,647050
17,075333	0,5	0,777800
17,083667	0,5	0,917650
17,092000	0,5	1,060700
17,100333	0,5	1,171050
17,108667	0,5	1,285750
17,117000	0,5	1,378000
17,125333	0,5	1,443800
17,133667	0,5	1,518950
17,142000	0,5	1,550350
17,150333	0,5	1,552900
17,158667	0,5	1,542200
17,167000	0,5	1,492100
17,175333	0,5	1,398550
17,183667	0,5	1,277650
17,192000	0,5	1,125700
17,200333	0,5	0,974050
17,208667	0,5	0,825400
17,217000	0,5	0,702100
17,225333	0,5	0,588650
17,233667	0,5	0,523800
17,242000	0,5	0,478450
17,250333	0,5	0,465250
17,258667	0,5	0,447200
17,267000	0,5	0,430950
17,275333	0,5	0,410450
17,283667	0,5	0,384500
17,292000	0,5	0,332000
17,300333	0,5	0,277700
17,308667	0,5	0,222100
17,317000	0,5	0,158100
17,325333	0,5	0,103050
17,333667	0,5	0,045200
17,342000	0,5	0,022200
17,350333	0,5	0,023850
17,358667	0,5	0,054200
17,367000	0,5	0,074450
17,375333	0,5	0,119650
17,383667	0,5	0,150150
17,392000	0,5	0,191600
17,400333	0,5	0,227150
17,408667	0,5	0,254900
17,417000	0,5	0,275100
17,425333	0,5	0,290050
17,433667	0,5	0,302100
17,442000	0,5	0,281150
17,450333	0,5	0,263750
17,458667	0,5	0,235150
17,467000	0,5	0,192800
17,475333	0,5	0,147250
17,483667	0,5	0,105650
17,492000	0,5	0,097750
17,500333	0,5	0,118700
17,508667	0,5	0,099350
17,517000	0,5	0,087750
17,525333	0,5	0,062750
17,533667	0,5	0,026550
17,542000	0,5	-0,040300
17,550333	0,5	-0,099250
17,558667	0,5	-0,173100
17,567000	0,5	-0,245650
17,575333	0,5	-0,306350
17,583667	0,5	-0,353950
17,592000	0,5	-0,414200
17,600333	0,5	-0,427700
17,608667	0,5	-0,461700
17,617000	0,5	-0,498900
17,625333	0,5	-0,531650
17,633667	0,5	-0,582000
17,642000	0,5	-0,584400
17,650333	0,5	-0,593900
17,658667	0,5	-0,610300
17,667000	0,5	-0,631700
17,675333	0,5	-0,633900
17,683667	0,5	-0,647100
17,692000	0,5	-0,634500
17,700333	0,5	-0,615700
17,708667	0,5	-0,583600
17,717000	0,5	-0,535950
17,725333	0,5	-0,469300
17,733667	0,5	-0,425600
17,742000	0,5	-0,387150
17,750333	0,5	-0,359400
17,758667	0,5	-0,344400
17,767000	0,5	-0,374400
17,775333	0,5	-0,424800
17,783667	0,5	-0,481400
17,792000	0,5	-0,521000
17,800333	0,5	-0,542850
17,808667	0,5	-0,580150
17,817000	0,5	-0,597500
17,825333	0,5	-0,623700
17,833667	0,5	-0,639600
17,842000	0,5	-0,657800
17,850333	0,5	-0,667600
17,858667	0,5	-0,693800
17,867000	0,5	-0,695000
17,875333	0,5	-0,694300
17,883667	0,5	-0,708800
17,892000	0,5	-0,696250
17,900333	0,5	-0,681950
17,908667	0,5	-0,669900
17,917000	0,5	-0,647750
17,925333	0,5	-0,632350
17,933667	0,5	-0,580650
17,942000	0,5	-0,517650
17,950333	0,5	-0,474300
17,958667	0,5	-0,458750
17,967000	0,5	-0,453400
17,975333	0,5	-0,474550
17,983667	0,5	-0,502750
17,992000	0,5	-0,534150
18,000333	0,5	-0,568550
18,008667	0,5	-0,594300
18,017000	0,5	-0,615500
18,025333	0,5	-0,638450
18,033667	0,5	-0,675850
18,042000	0,5	-0,672650
18,050333	0,5	-0,694200
18,058667	0,5	-0,706100
18,067000	0,5	-0,726850
18,075333	0,5	-0,750850
18,083667	0,5	-0,754350
18,092000	0,5	-0,739000
18,100333	0,5	-0,722650
18,108667	0,5	-0,689850
18,117000	0,5	-0,641900
18,125333	0,5	-0,601200
18,133667	0,5	-0,560300
18,142000	0,5	-0,539100
18,150333	0,5	-0,533850
18,158667	0,5	-0,544750
18,167000	0,5	-0,556250
18,175333	0,5	-0,603650
18,183667	0,5	-0,631750
18,192000	0,5	-0,658300
18,200333	0,5	-0,685800
18,208667	0,5	-0,708650
18,217000	0,5	-0,738100
18,225333	0,5	-0,753600
18,233667	0,5	-0,763650
18,242000	0,5	-0,785250
18,250333	0,5	-0,776800
18,258667	0,5	-0,784000
18,267000	0,5	-0,765950
18,275333	0,5	-0,750600
18,283667	0,5	-0,736000
18,292000	0,5	-0,710900
18,300333	0,5	-0,687350
18,308667	0,5	-0,642450
18,317000	0,5	-0,627350
18,325333	0,5	-0,647400
18,333667	0,5	-0,647150
18,342000	0,5	-0,666050
18,350333	0,5	-0,699950
18,358667	0,5	-0,720700
18,367000	0,5	-0,769800
18,375333	0,5	-0,766800
18,383667	0,5	-0,774800
18,392000	0,5	-0,784250
18,400333	0,5	-0,795650
18,408667	0,5	-0,787600
18,417000	0,5	-0,789900
18,425333	0,5	-0,782600
18,433667	0,5	-0,775050
18,442000	0,5	-0,776000
18,450333	0,5	-0,762350
18,458667	0,5	-0,738350
18,467000	0,5	-0,724200
18,475333	0,5	-0,709150
18,483667	0,5	-0,682250
18,492000	0,5	-0,674000
18,500333	0,5	-0,689900
18,508667	0,5	-0,724350
18,517000	0,5	-0,748450
18,525333	0,5	-0,775850
18,533667	0,5	-0,793000
18,542000	0,5	-0,818200
18,550333	0,5	-0,839750
18,558667	0,5	-0,859800
18,567000	0,5	-0,865550
18,575333	0,5	-0,876500
18,583667	0,5	-0,882750
18,592000	0,5	-0,892450
18,600333	0,5	-0,902000
18,608667	0,5	-0,884800
18,617000	0,5	-0,879600
18,625333	0,5	-0,852300
18,633667	0,5	-0,831450
18,642000	0,5	-0,815400
18,650333	0,5	-0,827950
18,658667	0,5	-0,864700
18,667000	0,5	-0,883400
18,675333	0,5	-0,878150
18,683667	0,5	-0,894400
18,692000	0,5	-0,891150
18,700333	0,5	-0,890050
18,708667	0,5	-0,882700
18,717000	0,5	-0,883100
18,725333	0,5	-0,867500
18,733667	0,5	-0,855850
18,742000	0,5	-0,827900
18,750333	0,5	-0,795950
18,758667	0,5	-0,762200
18,767000	0,5	-0,761100
18,775333	0,5	-0,728000
18,783667	0,5	-0,725900
18,792000	0,5	-0,731400
18,800333	0,5	-0,758100
18,808667	0,5	-0,800500
18,817000	0,5	-0,810650
18,825333	0,5	-0,823850
18,833667	0,5	-0,830050
18,842000	0,5	-0,834700
18,850333	0,5	-0,826950
18,858667	0,5	-0,829850
18,867000	0,5	-0,817000
18,875333	0,5	-0,810550
18,883667	0,5	-0,807700
18,892000	0,5	-0,799450
18,900333	0,5	-0,795000
18,908667	0,5	-0,821050
18,917000	0,5	-0,840350
18,925333	0,5	-0,862550
18,933667	0,5	-0,896700
18,942000	0,5	-0,928650
18,950333	0,5	-0,969650
18,958667	0,5	-0,999100
18,967000	0,5	-1,022900
18,975333	0,5	-1,020150
18,983667	0,5	-1,034500
18,992000	0,5	-1,030000
19,000333	0,5	-1,038900
19,008667	0,5	-1,039800
19,017000	0,5	-1,040100
19,025333	0,5	-1,051800
19,033667	0,5	-1,077800
19,042000	0,5	-1,082400
19,050333	0,5	-1,097350
19,058667	0,5	-1,112300
19,067000	0,5	-1,132550
19,075333	0,5	-1,135700
19,083667	0,5	-1,151300
19,092000	0,5	-1,171300
19,100333	0,5	-1,204950
19,108667	0,5	-1,220150
19,117000	0,5	-1,226050
19,125333	0,5	-1,240400
19,133667	0,5	-1,251850
19,142000	0,5	-1,269350
19,150333	0,5	-1,286750
19,158667	0,5	-1,312200
19,167000	0,5	-1,323000
19,175333	0,5	-1,352050
19,183667	0,5	-1,369300
19,192000	0,5	-1,367850
19,200333	0,5	-1,365850
19,208667	0,5	-1,380100
19,217000	0,5	-1,373800
19,225333	0,5	-1,387400
19,233667	0,5	-1,404450
19,242000	0,5	-1,439350
19,250333	0,5	-1,465550
19,258667	0,5	-1,468750
19,267000	0,5	-1,483050
19,275333	0,5	-1,482900
19,283667	0,5	-1,495450
19,292000	0,5	-1,497000
19,300333	0,5	-1,502700
19,308667	0,5	-1,515000
19,317000	0,5	-1,522700
19,325333	0,5	-1,529100
19,333667	0,5	-1,547350
19,342000	0,5	-1,541000
19,350333	0,5	-1,573250
19,358667	0,5	-1,571200
19,367000	0,5	-1,580800
19,375333	0,5	-1,582100
19,383667	0,5	-1,610100
19,392000	0,5	-1,636750
19,400333	0,5	-1,630500
19,408667	0,5	-1,625900
19,417000	0,5	-1,622800
19,425333	0,5	-1,633150
19,433667	0,5	-1,638350
19,442000	0,5	-1,637300
19,450333	0,5	-1,643400
19,458667	0,5	-1,645050
19,467000	0,5	-1,641850
19,475333	0,5	-1,654800
19,483667	0,5	-1,645350
19,492000	0,5	-1,662200
19,500333	0,5	-1,695750
19,508667	0,5	-1,703000
19,517000	0,5	-1,706000
19,525333	0,5	-1,718350
19,533667	0,5	-1,735500
19,542000	0,5	-1,775500
19,550333	0,5	-1,776750
19,558667	0,5	-1,788150
19,567000	0,5	-1,804750
19,575333	0,5	-1,818750
19,583667	0,5	-1,824750
19,592000	0,5	-1,843550
19,600333	0,5	-1,847850
19,608667	0,5	-1,846850
19,617000	0,5	-1,849400
19,625333	0,5	-1,847750
19,633667	0,5	-1,843000
19,642000	0,5	-1,842900
19,650333	0,5	-1,852800
19,658667	0,5	-1,845900
19,667000	0,5	-1,852450
19,675333	0,5	-1,863200
19,683667	0,5	-1,894200
19,692000	0,5	-1,918650
19,700333	0,5	-1,919250
19,708667	0,5	-1,921000
19,717000	0,5	-1,945600
19,725333	0,5	-1,948700
19,733667	0,5	-1,961700
19,742000	0,5	-1,974800
19,750333	0,5	-1,996350
19,758667	0,5	-2,008800
19,767000	0,5	-2,023100
19,775333	0,5	-2,031150
19,783667	0,5	-2,017100
19,792000	0,5	-2,033800
19,800333	0,5	-2,029500
19,808667	0,5	-2,027200
19,817000	0,5	-2,010450
19,825333	0,5	-2,001600
19,833667	0,5	-2,010250
19,842000	0,5	-1,990300
19,850333	0,5	-1,955350
19,858667	0,5	-1,954150
19,867000	0,5	-1,932850
19,875333	0,5	-1,941150
19,883667	0,5	-1,944400
19,892000	0,5	-1,964850
19,900333	0,5	-1,987000
19,908667	0,5	-2,011250
19,917000	0,5	-2,044600
19,925333	0,5	-2,044400
19,933667	0,5	-2,071600
19,942000	0,5	-2,098100
19,950333	0,5	-2,107400
19,958667	0,5	-2,130750
19,967000	0,5	-2,160650
19,975333	0,5	-2,200650
19,983667	0,5	-2,248200
19,992000	0,5	-2,256050
20,000333	0,5	-2,279150
20,008667	0,5	-2,300100
20,017000	0,5	-2,323300
20,025333	0,5	-2,330700
20,033667	0,5	-2,348650
20,042000	0,5	-2,346500
20,050333	0,5	-2,362300
20,058667	0,5	-2,382200
20,067000	0,5	-2,396650
20,075333	0,5	-2,415900
20,083667	0,5	-2,452350
20,092000	0,5	-2,480650
20,100333	0,5	-2,491500
20,108667	0,5	-2,514900
20,117000	0,5	-2,538750
20,125333	0,5	-2,580500
20,133667	0,5	-2,592900
20,142000	0,5	-2,605150
20,150333	0,5	-2,599850
20,158667	0,5	-2,616100
20,167000	0,5	-2,611700
20,175333	0,5	-2,606300
20,183667	0,5	-2,609350
20,192000	0,5	-2,612800
20,200333	0,5	-2,614600
20,208667	0,5	-2,626550
20,217000	0,5	-2,634750
20,225333	0,5	-2,642550
20,233667	0,5	-2,663050
20,242000	0,5	-2,678950
20,250333	0,5	-2,688750
20,258667	0,5	-2,707700
20,267000	0,5	-2,741200
20,275333	0,5	-2,771800
20,283667	0,5	-2,786350
20,292000	0,5	-2,787050
20,300333	0,5	-2,806700
20,308667	0,5	-2,810250
20,317000	0,5	-2,835350
20,325333	0,5	-2,847600
20,333667	0,5	-2,872150
20,342000	0,5	-2,884850
20,350333	0,5	-2,900850
20,358667	0,5	-2,930000
20,367000	0,5	-2,925950
20,375333	0,5	-2,950950
20,383667	0,5	-2,980650
20,392000	0,5	-2,993250
20,400333	0,5	-3,024550
20,408667	0,5	-3,062000
20,417000	0,5	-3,116350
20,425333	0,5	-3,152850
20,433667	0,5	-3,160350
20,442000	0,5	-3,188250
20,450333	0,5	-3,207250
20,458667	0,5	-3,236300
20,467000	0,5	-3,252600
20,475333	0,5	-3,284800
20,483667	0,5	-3,299400
20,492000	0,5	-3,318100
20,500333	0,5	-3,328500
20,508667	0,5	-3,313700
20,517000	0,5	-3,295650
20,525333	0,5	-3,312650
20,533667	0,5	-3,292250
20,542000	0,5	-3,302800
20,550333	0,5	-3,341050
20,558667	0,5	-3,392800
20,567000	0,5	-3,479200
20,575333	0,5	-3,517750
20,583667	0,5	-3,560750
20,592000	0,5	-3,599900
20,600333	0,5	-3,653650
20,608667	0,5	-3,679500
20,617000	0,5	-3,725900
20,625333	0,5	-3,754800
20,633667	0,5	-3,806250
20,642000	0,5	-3,828150
20,650333	0,5	-3,864300
20,658667	0,5	-3,867900
20,667000	0,5	-3,880050
20,675333	0,5	-3,907700
20,683667	0,5	-3,898900
20,692000	0,5	-3,889300
20,700333	0,5	-3,867700
20,708667	0,5	-3,862250
20,717000	0,5	-3,875000
20,725333	0,5	-3,880850
20,733667	0,5	-3,916450
20,742000	0,5	-3,997950
20,750333	0,5	-4,067400
20,758667	0,5	-4,156050
20,767000	0,5	-4,228900
20,775333	0,5	-4,300150
20,783667	0,5	-4,354600
20,792000	0,5	-4,418800
20,800333	0,5	-4,458700
20,808667	0,5	-4,490500
20,817000	0,5	-4,534700
20,825333	0,5	-4,586400
20,833667	0,5	-4,630750
20,842000	0,5	-4,676750
20,850333	0,5	-4,742800
20,858667	0,5	-4,797250
20,867000	0,5	-4,831100
20,875333	0,5	-4,844500
20,883667	0,5	-4,872650
20,892000	0,5	-4,906500
20,900333	0,5	-4,949650
20,908667	0,5	-4,997150
20,917000	0,5	-5,051900
20,925333	0,5	-5,098550
20,933667	0,5	-5,148950
20,942000	0,5	-5,194300
20,950333	0,5	-5,200900
20,958667	0,5	-5,225800
20,967000	0,5	-5,265550
20,975333	0,5	-5,291100
20,983667	0,5	-5,335300
20,992000	0,5	-5,376200
21,000333	0,5	-5,434900
21,008667	0,5	-5,495600
21,017000	0,5	-5,509300
21,025333	0,5	-5,540500
21,033667	0,5	-5,568250
21,042000	0,5	-5,598250
21,050333	0,5	-5,633950
21,058667	0,5	-5,669500
21,067000	0,5	-5,693350
21,075333	0,5	-5,727750
21,083667	0,5	-5,744650
21,092000	0,5	-5,780400
21,100333	0,5	-5,778800
21,108667	0,5	-5,805100
21,117000	0,5	-5,834850
21,125333	0,5	-5,870300
21,133667	0,5	-5,909950
21,142000	0,5	-5,960550
21,150333	0,5	-6,009250
21,158667	0,5	-6,056900
21,167000	0,5	-6,086000
21,175333	0,5	-6,093150
21,183667	0,5	-6,125000
21,192000	0,5	-6,143550
21,200333	0,5	-6,163650
21,208667	0,5	-6,187350
21,217000	0,5	-6,202900
21,225333	0,5	-6,223300
21,233667	0,5	-6,247150
21,242000	0,5	-6,238100
21,250333	0,5	-6,244050
21,258667	0,5	-6,252750
21,267000	0,5	-6,275150
21,275333	0,5	-6,284900
21,283667	0,5	-6,308400
21,292000	0,5	-6,356250
21,300333	0,5	-6,389100
21,308667	0,5	-6,424800
21,317000	0,5	-6,446600
21,325333	0,5	-6,468200
21,333667	0,5	-6,492600
21,342000	0,5	-6,516550
21,350333	0,5	-6,538400
21,358667	0,5	-6,564650
21,367000	0,5	-6,588850
21,375333	0,5	-6,616950
21,383667	0,5	-6,624000
21,392000	0,5	-6,611250
21,400333	0,5	-6,603300
21,408667	0,5	-6,629600
21,417000	0,5	-6,635800
21,425333	0,5	-6,667200
21,433667	0,5	-6,692800
21,442000	0,5	-6,741200
21,450333	0,5	-6,754050
21,458667	0,5	-6,757600
21,467000	0,5	-6,769800
21,475333	0,5	-6,772350
21,483667	0,5	-6,755850
21,492000	0,5	-6,711350
21,500333	0,5	-6,674350
21,508667	0,5	-6,640400
21,517000	0,5	-6,655950
21,525333	0,5	-6,700600
21,533667	0,5	-6,738950
21,542000	0,5	-6,780050
21,550333	0,5	-6,838000
21,558667	0,5	-6,885650
21,567000	0,5	-6,923300
21,575333	0,5	-6,967750
21,583667	0,5	-7,010450
21,592000	0,5	-7,045500
21,600333	0,5	-7,039100
21,608667	0,5	-7,064100
21,617000	0,5	-7,058700
21,625333	0,5	-7,063200
21,633667	0,5	-7,056700
21,642000	0,5	-7,061750
21,650333	0,5	-7,029050
21,658667	0,5	-7,009350
21,667000	0,5	-7,009150
21,675333	0,5	-7,027650
21,683667	0,5	-7,031000
21,692000	0,5	-7,065100
21,700333	0,5	-7,093800
21,708667	0,5	-7,114550
21,717000	0,5	-7,131300
21,725333	0,5	-7,143850
21,733667	0,5	-7,173750
21,742000	0,5	-7,190300
21,750333	0,5	-7,207750
21,758667	0,5	-7,232050
21,767000	0,5	-7,259900
21,775333	0,5	-7,277550
21,783667	0,5	-7,292800
21,792000	0,5	-7,308800
21,800333	0,5	-7,317950
21,808667	0,5	-7,320350
21,817000	0,5	-7,314750
21,825333	0,5	-7,296850
21,833667	0,5	-7,271350
21,842000	0,5	-7,279500
21,850333	0,5	-7,288100
21,858667	0,5	-7,285950
21,867000	0,5	-7,294400
21,875333	0,5	-7,309200
21,883667	0,5	-7,346800
21,892000	0,5	-7,331650
21,900333	0,5	-7,314450
21,908667	0,5	-7,291400
21,917000	0,5	-7,229850
21,925333	0,5	-7,167400
21,933667	0,5	-7,099850
21,942000	0,5	-7,073900
21,950333	0,5	-7,096700
21,958667	0,5	-7,141600
21,967000	0,5	-7,207850
21,975333	0,5	-7,249200
21,983667	0,5	-7,286700
21,992000	0,5	-7,349950
22,000333	0,5	-7,389700
22,008667	0,5	-7,435100
22,017000	0,5	-7,478700
22,025333	0,5	-7,544450
22,033667	0,5	-7,591300
22,042000	0,5	-7,612550
22,050333	0,5	-7,645350
22,058667	0,5	-7,664050
22,067000	0,5	-7,695550
22,075333	0,5	-7,718600
22,083667	0,5	-7,755350
22,092000	0,5	-7,761800
22,100333	0,5	-7,803900
22,108667	0,5	-7,832000
22,117000	0,5	-7,847600
22,125333	0,5	-7,856350
22,133667	0,5	-7,888100
22,142000	0,5	-7,892150
22,150333	0,5	-7,903500
22,158667	0,5	-7,922350
22,167000	0,5	-7,950450
22,175333	0,5	-7,974950
22,183667	0,5	-7,982450
22,192000	0,5	-7,982300
22,200333	0,5	-7,987750
22,208667	0,5	-8,015550
22,217000	0,5	-8,015500
22,225333	0,5	-8,034000
22,233667	0,5	-8,039900
22,242000	0,5	-8,045600
22,250333	0,5	-8,038550
22,258667	0,5	-8,055350
22,267000	0,5	-8,057050
22,275333	0,5	-8,072500
22,283667	0,5	-8,050750
22,292000	0,5	-8,028300
22,300333	0,5	-8,031750
22,308667	0,5	-8,026250
22,317000	0,5	-8,034450
22,325333	0,5	-8,021750
22,333667	0,5	-7,999850
22,342000	0,5	-7,936250
22,350333	0,5	-7,863650
22,358667	0,5	-7,746450
22,367000	0,5	-7,641800
22,375333	0,5	-7,572250
22,383667	0,5	-7,577250
22,392000	0,5	-7,629400
22,400333	0,5	-7,707000
22,408667	0,5	-7,787450
22,417000	0,5	-7,842300
22,425333	0,5	-7,880450
22,433667	0,5	-7,880250
22,442000	0,5	-7,904150
22,450333	0,5	-7,929200
22,458667	0,5	-7,952700
22,467000	0,5	-7,976950
22,475333	0,5	-7,974250
22,483667	0,5	-7,969050
22,492000	0,5	-7,966150
22,500333	0,5	-7,944400
22,508667	0,5	-7,940900
22,517000	0,5	-7,922150
22,525333	0,5	-7,899750
22,533667	0,5	-7,854450
22,542000	0,5	-7,815350
22,550333	0,5	-7,753950
22,558667	0,5	-7,734050
22,567000	0,5	-7,686400
22,575333	0,5	-7,658850
22,583667	0,5	-7,641750
22,592000	0,5	-7,646600
22,600333	0,5	-7,659550
22,608667	0,5	-7,684300
22,617000	0,5	-7,686200
22,625333	0,5	-7,665750
22,633667	0,5	-7,669100
22,642000	0,5	-7,662700
22,650333	0,5	-7,661850
22,658667	0,5	-7,654950
22,667000	0,5	-7,651850
22,675333	0,5	-7,649400
22,683667	0,5	-7,648550
22,692000	0,5	-7,636750
22,700333	0,5	-7,671300
22,708667	0,5	-7,687300
22,717000	0,5	-7,692700
22,725333	0,5	-7,636850
22,733667	0,5	-7,639550
22,742000	0,5	-7,651900
22,750333	0,5	-7,677750
22,758667	0,5	-7,704700
22,767000	0,5	-7,686000
22,775333	0,5	-7,690850
22,783667	0,5	-7,704300
22,792000	0,5	-7,727850
22,800333	0,5	-7,742450
22,808667	0,5	-7,770600
22,817000	0,5	-7,804850
22,825333	0,5	-7,848200
22,833667	0,5	-7,871450
22,842000	0,5	-7,913450
22,850333	0,5	-8,024500
22,858667	0,5	-8,057200
22,867000	0,5	-8,066000
22,875333	0,5	-8,093350
22,883667	0,5	-8,139850
22,892000	0,5	-8,176200
22,900333	0,5	-8,218850
22,908667	0,5	-8,259500
22,917000	0,5	-8,295950
22,925333	0,5	-8,329850
22,933667	0,5	-8,367200
22,942000	0,5	-8,396650
22,950333	0,5	-8,407050
22,958667	0,5	-8,430850
22,967000	0,5	-8,439200
22,975333	0,5	-8,452450
22,983667	0,5	-8,437350
22,992000	0,5	-8,405550
23,000333	0,5	-8,436600
23,008667	0,5	-8,407250
23,017000	0,5	-8,411100
23,025333	0,5	-8,415200
23,033667	0,5	-8,406900
23,042000	0,5	-8,377950
23,050333	0,5	-8,352250
23,058667	0,5	-8,334500
23,067000	0,5	-8,310200
23,075333	0,5	-8,273250
23,083667	0,5	-8,241000
23,092000	0,5	-8,186300
23,100333	0,5	-8,134900
23,108667	0,5	-8,071200
23,117000	0,5	-8,015850
23,125333	0,5	-7,931350
23,133667	0,5	-7,865150
23,142000	0,5	-7,754000
23,150333	0,5	-7,705550
23,158667	0,5	-7,630000
23,167000	0,5	-7,597300
23,175333	0,5	-7,505000
23,183667	0,5	-7,446600
23,192000	0,5	-7,346600
23,200333	0,5	-7,268500
23,208667	0,5	-7,206000
23,217000	0,5	-7,136850
23,225333	0,5	-7,040650
23,233667	0,5	-6,962700
23,242000	0,5	-6,878750
23,250333	0,5	-6,788900
23,258667	0,5	-6,713200
23,267000	0,5	-6,599300
23,275333	0,5	-6,509200
23,283667	0,5	-6,383750
23,292000	0,5	-6,274650
23,300333	0,5	-6,180400
23,308667	0,5	-6,114100
23,317000	0,5	-6,044600
23,325333	0,5	-5,955850
23,333667	0,5	-5,861500
23,342000	0,5	-5,770450
23,350333	0,5	-5,695400
23,358667	0,5	-5,622850
23,367000	0,5	-5,546450
23,375333	0,5	-5,482900
23,383667	0,5	-5,393850
23,392000	0,5	-5,321400
23,400333	0,5	-5,233050
23,408667	0,5	-5,154850
23,417000	0,5	-5,078650
23,425333	0,5	-4,988350
23,433667	0,5	-4,890400
23,442000	0,5	-4,806100
23,450333	0,5	-4,732300
23,458667	0,5	-4,668750
23,467000	0,5	-4,616250
23,475333	0,5	-4,545100
23,483667	0,5	-4,478600
23,492000	0,5	-4,408250
23,500333	0,5	-4,357600
23,508667	0,5	-4,306550
23,517000	0,5	-4,264850
23,525333	0,5	-4,205400
23,533667	0,5	-4,159700
23,542000	0,5	-4,104150
23,550333	0,5	-4,052650
23,558667	0,5	-4,000650
23,567000	0,5	-3,953700
23,575333	0,5	-3,909000
23,583667	0,5	-3,874200
23,592000	0,5	-3,825850
23,600333	0,5	-3,762250
23,608667	0,5	-3,726400
23,617000	0,5	-3,687250
23,625333	0,5	-3,645050
23,633667	0,5	-3,605200
23,642000	0,5	-3,570550
23,650333	0,5	-3,531450
23,658667	0,5	-3,502400
23,667000	0,5	-3,464800
23,675333	0,5	-3,437350
23,683667	0,5	-3,406600
23,692000	0,5	-3,371700
23,700333	0,5	-3,340650
23,708667	0,5	-3,302300
23,717000	0,5	-3,271250
23,725333	0,5	-3,264050
23,733667	0,5	-3,269600
23,742000	0,5	-3,248250
23,750333	0,5	-3,184050
23,758667	0,5	-3,148100
23,767000	0,5	-3,122200
23,775333	0,5	-3,098850
23,783667	0,5	-3,084450
23,792000	0,5	-3,071300
23,800333	0,5	-3,039900
23,808667	0,5	-3,020600
23,817000	0,5	-2,990250
23,825333	0,5	-2,968950
23,833667	0,5	-2,945850
23,842000	0,5	-2,914900
23,850333	0,5	-2,889500
23,858667	0,5	-2,859400
23,867000	0,5	-2,831200
23,875333	0,5	-2,877600
23,883667	0,5	-2,833850
23,892000	0,5	-2,832150
23,900333	0,5	-2,740000
23,908667	0,5	-2,703600
23,917000	0,5	-2,679550
23,925333	0,5	-2,654100
23,933667	0,5	-2,657800
23,942000	0,5	-2,624900
23,950333	0,5	-2,609350
23,958667	0,5	-2,588500
23,967000	0,5	-2,565450
23,975333	0,5	-2,539950
23,983667	0,5	-2,518400
23,992000	0,5	-2,493200
24,000333	0,5	-2,470400
24,008667	0,5	-2,444950
24,017000	0,5	-2,430950
24,025333	0,5	-2,486250
24,033667	0,5	-2,451100
24,042000	0,5	-2,420600
24,050333	0,5	-2,346850
24,058667	0,5	-2,322000
24,067000	0,5	-2,290400
24,075333	0,5	-2,281100
24,083667	0,5	-2,292350
24,092000	0,5	-2,258250
24,100333	0,5	-2,213000
24,108667	0,5	-2,190650
24,117000	0,5	-2,157950
24,125333	0,5	-2,127050
24,133667	0,5	-2,102100
24,142000	0,5	-2,077450
24,150333	0,5	-2,046400
24,158667	0,5	-2,032350
24,167000	0,5	-2,024200
24,175333	0,5	-2,065300
24,183667	0,5	-2,019700
24,192000	0,5	-1,993650
24,200333	0,5	-1,928450
24,208667	0,5	-1,913950
24,217000	0,5	-1,892550
24,225333	0,5	-1,897750
24,233667	0,5	-1,907800
24,242000	0,5	-1,873100
24,250333	0,5	-1,845050
24,258667	0,5	-1,822850
24,267000	0,5	-1,802950
24,275333	0,5	-1,776000
24,283667	0,5	-1,753400
24,292000	0,5	-1,718450
24,300333	0,5	-1,687650
24,308667	0,5	-1,660050
24,317000	0,5	-1,685300
24,325333	0,5	-1,663300
24,333667	0,5	-1,658800
24,342000	0,5	-1,607000
24,350333	0,5	-1,565550
24,358667	0,5	-1,539550
24,367000	0,5	-1,537500
24,375333	0,5	-1,556100
24,383667	0,5	-1,546700
24,392000	0,5	-1,515950
24,400333	0,5	-1,503250
24,408667	0,5	-1,479750
24,417000	0,5	-1,465350
24,425333	0,5	-1,445650
24,433667	0,5	-1,433600
24,442000	0,5	-1,409600
24,450333	0,5	-1,392350
24,458667	0,5	-1,382550
24,467000	0,5	-1,376700
24,475333	0,5	-1,383450
24,483667	0,5	-1,368200
24,492000	0,5	-1,326650
24,500333	0,5	-1,299200
24,508667	0,5	-1,284650
24,517000	0,5	-1,282200
24,525333	0,5	-1,293100
24,533667	0,5	-1,266900
24,542000	0,5	-1,244550
24,550333	0,5	-1,224450
24,558667	0,5	-1,213100
24,567000	0,5	-1,190300
24,575333	0,5	-1,190200
24,583667	0,5	-1,167750
24,592000	0,5	-1,145950
24,600333	0,5	-1,133650
24,608667	0,5	-1,128550
24,617000	0,5	-1,123350
24,625333	0,5	-1,125500
24,633667	0,5	-1,107400
24,642000	0,5	-1,084750
24,650333	0,5	-1,071350
24,658667	0,5	-1,063400
24,667000	0,5	-1,072300
24,675333	0,5	-1,070450
24,683667	0,5	-1,066400
24,692000	0,5	-1,044800
24,700333	0,5	-1,042150
24,708667	0,5	-1,023900
24,717000	0,5	-1,017250
24,725333	0,5	-1,000150
24,733667	0,5	-0,985350
24,742000	0,5	-0,976200
24,750333	0,5	-0,963400
24,758667	0,5	-0,959600
24,767000	0,5	-0,941200
24,775333	0,5	-0,950100
24,783667	0,5	-0,924450
24,792000	0,5	-0,907300
24,800333	0,5	-0,894250
24,808667	0,5	-0,896850
24,817000	0,5	-0,910700
24,825333	0,5	-0,895900
24,833667	0,5	-0,882350
24,842000	0,5	-0,878100
24,850333	0,5	-0,871150
24,858667	0,5	-0,871200
24,867000	0,5	-0,862700
24,875333	0,5	-0,862500
24,883667	0,5	-0,857500
24,892000	0,5	-0,857450
24,900333	0,5	-0,845700
24,908667	0,5	-0,841400
24,917000	0,5	-0,826100
24,925333	0,5	-0,834100
24,933667	0,5	-0,810750
24,942000	0,5	-0,800050
24,950333	0,5	-0,792250
24,958667	0,5	-0,790250
24,967000	0,5	-0,795900
24,975333	0,5	-0,778300
24,983667	0,5	-0,768950
24,992000	0,5	-0,768500
25,000333	0,5	-0,764700
25,008667	0,5	-0,757150
25,017000	0,5	-0,757600
25,025333	0,5	-0,743700
25,033667	0,5	-0,740100
25,042000	0,5	-0,737100
25,050333	0,5	-0,736700
25,058667	0,5	-0,737950
25,067000	0,5	-0,735550
25,075333	0,5	-0,728800
25,083667	0,5	-0,727150
25,092000	0,5	-0,725600
25,100333	0,5	-0,721100
25,108667	0,5	-0,728450
25,117000	0,5	-0,728400
25,125333	0,5	-0,722050
25,133667	0,5	-0,713950
25,142000	0,5	-0,709450
25,150333	0,5	-0,699550
25,158667	0,5	-0,695050
25,167000	0,5	-0,690900
25,175333	0,5	-0,683250
25,183667	0,5	-0,679550
25,192000	0,5	-0,674050
25,200333	0,5	-0,669200
25,208667	0,5	-0,663100
25,217000	0,5	-0,662250
25,225333	0,5	-0,662850
25,233667	0,5	-0,655750
25,242000	0,5	-0,658250
25,250333	0,5	-0,659100
25,258667	0,5	-0,664200
25,267000	0,5	-0,661750
25,275333	0,5	-0,666450
25,283667	0,5	-0,658800
25,292000	0,5	-0,659950
25,300333	0,5	-0,659850
25,308667	0,5	-0,657250
25,317000	0,5	-0,652450
25,325333	0,5	-0,647000
25,333667	0,5	-0,643450
25,342000	0,5	-0,638500
25,350333	0,5	-0,634050
25,358667	0,5	-0,627900
25,367000	0,5	-0,625550
25,375333	0,5	-0,618250
25,383667	0,5	-0,617450
25,392000	0,5	-0,612300
25,400333	0,5	-0,610300
25,408667	0,5	-0,611000
25,417000	0,5	-0,607100
25,425333	0,5	-0,608400
25,433667	0,5	-0,607300
25,442000	0,5	-0,605900
25,450333	0,5	-0,611900
25,458667	0,5	-0,610450
25,467000	0,5	-0,612650
25,475333	0,5	-0,612000
25,483667	0,5	-0,608150
25,492000	0,5	-0,604900
25,500333	0,5	-0,600900
25,508667	0,5	-0,604350
25,517000	0,5	-0,597900
25,525333	0,5	-0,599700
25,533667	0,5	-0,596400
25,542000	0,5	-0,592850
25,550333	0,5	-0,588900
25,558667	0,5	-0,584250
25,567000	0,5	-0,579550
25,575333	0,5	-0,580450
25,583667	0,5	-0,579000
25,592000	0,5	-0,577050
25,600333	0,5	-0,576100
25,608667	0,5	-0,574650
25,617000	0,5	-0,577600
25,625333	0,5	-0,575200
25,633667	0,5	-0,572750
25,642000	0,5	-0,575450
25,650333	0,5	-0,576450
25,658667	0,5	-0,567050
25,667000	0,5	-0,567250
25,675333	0,5	-0,574250
25,683667	0,5	-0,575000
25,692000	0,5	-0,575550
25,700333	0,5	-0,568200
25,708667	0,5	-0,562800
25,717000	0,5	-0,562650
25,725333	0,5	-0,559850
25,733667	0,5	-0,558550
25,742000	0,5	-0,561250
25,750333	0,5	-0,559550
25,758667	0,5	-0,555200
25,767000	0,5	-0,559000
25,775333	0,5	-0,553150
25,783667	0,5	-0,551500
25,792000	0,5	-0,546150
25,800333	0,5	-0,547550
25,808667	0,5	-0,541950
25,817000	0,5	-0,548250
25,825333	0,5	-0,548400
25,833667	0,5	-0,547000
25,842000	0,5	-0,546000
25,850333	0,5	-0,530900
25,858667	0,5	-0,534450
25,867000	0,5	-0,533750
25,875333	0,5	-0,530000
25,883667	0,5	-0,530150
25,892000	0,5	-0,531700
25,900333	0,5	-0,532200
25,908667	0,5	-0,526500
25,917000	0,5	-0,524500
25,925333	0,5	-0,519650
25,933667	0,5	-0,515600
25,942000	0,5	-0,511650
25,950333	0,5	-0,511800
25,958667	0,5	-0,496750
25,967000	0,5	-0,506200
25,975333	0,5	-0,502800
25,983667	0,5	-0,498950
25,992000	0,5	-0,493300
26,000333	0,5	-0,480100
