File Path	chrom://chromeleon01/ikbm_chromeleon/2022/ICS-5000/ED1/Esteban/20220427_Cell_Amandas_mutants.seq/471.smp/ED_1.channel/ED_1.chm
Channel	ED_1

Injection Information:
Data Vault	ikbm_chromeleon
Injection	T24h_BMCC_4a
Injection Number	23
Position	RC1
Comment	
Processing Method	Stop sequence after Cell Death
Instrument Method	ICS5000_PA200_FullNative_Ox_26min_ED1
Type	Unknown
Status	Finished
Injection Date	27.04.2022
Injection Time	23:24:06
Injection Volume (µl)	5,0
Dilution Factor	1,0000
Weight	1,0000

Chromatogram Data Information:
Time Min. (min)	0,000333
Time Max. (min)	26,000333
Data Points	3121
Detector	EDet1
Generating Data System	Chromeleon 7.2.9.11323
Exporting Data System	Chromeleon 7.2.9.0
Operator	Instrument Controller
Signal Quantity	
Signal Unit	nC
Signal Min.	-7,245100
Signal Max.	41,596051
Channel	ED_1
Driver Name	DC-5000
Channel Type	Evaluation
Min. Step (s)	0,5
Max. Step (s)	0,5
Average Step (s)	0,5

Signal Parameter Information:
Signal Info	

Chromatogram Data:
Time (min)	Step (s)	Value (nC)
0,000333	n.a.	-0,105250
0,008667	0,5	-0,100450
0,017000	0,5	-0,094050
0,025333	0,5	-0,043650
0,033667	0,5	-0,023300
0,042000	0,5	-0,023300
0,050333	0,5	-0,027750
0,058667	0,5	-0,009500
0,067000	0,5	-0,020050
0,075333	0,5	-0,009500
0,083667	0,5	-0,011600
0,092000	0,5	-0,020400
0,100333	0,5	-0,017750
0,108667	0,5	-0,021550
0,117000	0,5	-0,011700
0,125333	0,5	-0,029250
0,133667	0,5	0,018650
0,142000	0,5	-0,018600
0,150333	0,5	-0,030050
0,158667	0,5	-0,031600
0,167000	0,5	-0,011100
0,175333	0,5	0,036100
0,183667	0,5	0,030350
0,192000	0,5	-0,001150
0,200333	0,5	0,006700
0,208667	0,5	-0,005550
0,217000	0,5	-0,004700
0,225333	0,5	-0,006950
0,233667	0,5	-0,003850
0,242000	0,5	-0,011500
0,250333	0,5	-0,008100
0,258667	0,5	-0,002300
0,267000	0,5	-0,023550
0,275333	0,5	-0,018900
0,283667	0,5	0,010450
0,292000	0,5	-0,014050
0,300333	0,5	0,011600
0,308667	0,5	0,059050
0,317000	0,5	0,008050
0,325333	0,5	0,004100
0,333667	0,5	-0,026350
0,342000	0,5	-0,022750
0,350333	0,5	-0,023450
0,358667	0,5	-0,018150
0,367000	0,5	-0,026450
0,375333	0,5	-0,015900
0,383667	0,5	-0,020150
0,392000	0,5	-0,024550
0,400333	0,5	-0,026300
0,408667	0,5	-0,030100
0,417000	0,5	-0,048950
0,425333	0,5	-0,033950
0,433667	0,5	-0,028850
0,442000	0,5	-0,047650
0,450333	0,5	-0,054550
0,458667	0,5	-0,042150
0,467000	0,5	-0,008150
0,475333	0,5	0,004550
0,483667	0,5	-0,002600
0,492000	0,5	-0,019600
0,500333	0,5	-0,019150
0,508667	0,5	-0,035650
0,517000	0,5	-0,030100
0,525333	0,5	-0,034750
0,533667	0,5	-0,027150
0,542000	0,5	-0,035100
0,550333	0,5	-0,030150
0,558667	0,5	-0,031950
0,567000	0,5	-0,044300
0,575333	0,5	-0,030850
0,583667	0,5	-0,031950
0,592000	0,5	-0,041800
0,600333	0,5	-0,044000
0,608667	0,5	-0,032800
0,617000	0,5	0,003200
0,625333	0,5	0,013250
0,633667	0,5	-0,010150
0,642000	0,5	-0,006550
0,650333	0,5	-0,007050
0,658667	0,5	-0,008650
0,667000	0,5	-0,013900
0,675333	0,5	-0,011450
0,683667	0,5	-0,017600
0,692000	0,5	-0,013150
0,700333	0,5	-0,018500
0,708667	0,5	-0,024800
0,717000	0,5	-0,039050
0,725333	0,5	-0,008700
0,733667	0,5	-0,034950
0,742000	0,5	-0,033450
0,750333	0,5	-0,035600
0,758667	0,5	-0,006700
0,767000	0,5	0,025750
0,775333	0,5	0,027350
0,783667	0,5	0,025200
0,792000	0,5	0,024800
0,800333	0,5	0,012450
0,808667	0,5	0,006500
0,817000	0,5	0,008550
0,825333	0,5	0,007300
0,833667	0,5	0,004750
0,842000	0,5	0,007100
0,850333	0,5	0,003800
0,858667	0,5	-0,019850
0,867000	0,5	-0,005750
0,875333	0,5	-0,004200
0,883667	0,5	-0,012800
0,892000	0,5	-0,005400
0,900333	0,5	0,004050
0,908667	0,5	0,028700
0,917000	0,5	0,058850
0,925333	0,5	0,047900
0,933667	0,5	0,054450
0,942000	0,5	0,043350
0,950333	0,5	0,046900
0,958667	0,5	0,042850
0,967000	0,5	0,041650
0,975333	0,5	0,043000
0,983667	0,5	0,035400
0,992000	0,5	0,052400
1,000333	0,5	0,035950
1,008667	0,5	0,027850
1,017000	0,5	0,059450
1,025333	0,5	0,045100
1,033667	0,5	0,029150
1,042000	0,5	0,039550
1,050333	0,5	0,041700
1,058667	0,5	0,094350
1,067000	0,5	0,092450
1,075333	0,5	0,088900
1,083667	0,5	0,077550
1,092000	0,5	0,104900
1,100333	0,5	0,082350
1,108667	0,5	0,091900
1,117000	0,5	0,085050
1,125333	0,5	0,082050
1,133667	0,5	0,085700
1,142000	0,5	0,088800
1,150333	0,5	0,093750
1,158667	0,5	0,088550
1,167000	0,5	0,117400
1,175333	0,5	0,095700
1,183667	0,5	0,088600
1,192000	0,5	0,097050
1,200333	0,5	0,124050
1,208667	0,5	0,160650
1,217000	0,5	0,156300
1,225333	0,5	0,134100
1,233667	0,5	0,147100
1,242000	0,5	0,138400
1,250333	0,5	0,150000
1,258667	0,5	0,150050
1,267000	0,5	0,160450
1,275333	0,5	0,152650
1,283667	0,5	0,162750
1,292000	0,5	0,172050
1,300333	0,5	0,160500
1,308667	0,5	0,169450
1,317000	0,5	0,190200
1,325333	0,5	0,169500
1,333667	0,5	0,170050
1,342000	0,5	0,188300
1,350333	0,5	0,214400
1,358667	0,5	0,249300
1,367000	0,5	0,224800
1,375333	0,5	0,238700
1,383667	0,5	0,240500
1,392000	0,5	0,250650
1,400333	0,5	0,261000
1,408667	0,5	0,273300
1,417000	0,5	0,266600
1,425333	0,5	0,269900
1,433667	0,5	0,273250
1,442000	0,5	0,277150
1,450333	0,5	0,256200
1,458667	0,5	0,288350
1,467000	0,5	0,286100
1,475333	0,5	0,285050
1,483667	0,5	0,284750
1,492000	0,5	0,306300
1,500333	0,5	0,356900
1,508667	0,5	0,374550
1,517000	0,5	0,360550
1,525333	0,5	0,353950
1,533667	0,5	0,362900
1,542000	0,5	0,357400
1,550333	0,5	0,364650
1,558667	0,5	0,363050
1,567000	0,5	0,326000
1,575333	0,5	0,134550
1,583667	0,5	-0,458100
1,592000	0,5	-1,332150
1,600333	0,5	-1,437450
1,608667	0,5	-0,108450
1,617000	0,5	1,657200
1,625333	0,5	3,267400
1,633667	0,5	4,952600
1,642000	0,5	6,616150
1,650333	0,5	7,733700
1,658667	0,5	7,994300
1,667000	0,5	7,640050
1,675333	0,5	7,055250
1,683667	0,5	6,433550
1,692000	0,5	5,831650
1,700333	0,5	5,315200
1,708667	0,5	4,916550
1,717000	0,5	4,661400
1,725333	0,5	4,606000
1,733667	0,5	4,554300
1,742000	0,5	4,309750
1,750333	0,5	3,905650
1,758667	0,5	3,569150
1,767000	0,5	3,355600
1,775333	0,5	3,529900
1,783667	0,5	4,383350
1,792000	0,5	6,252850
1,800333	0,5	8,650650
1,808667	0,5	10,447450
1,817000	0,5	11,102350
1,825333	0,5	10,737400
1,833667	0,5	9,642200
1,842000	0,5	8,376450
1,850333	0,5	7,291400
1,858667	0,5	6,454200
1,867000	0,5	5,818400
1,875333	0,5	5,345050
1,883667	0,5	4,950400
1,892000	0,5	4,601900
1,900333	0,5	4,334300
1,908667	0,5	4,110000
1,917000	0,5	3,889900
1,925333	0,5	3,719000
1,933667	0,5	3,591350
1,942000	0,5	3,524950
1,950333	0,5	3,478750
1,958667	0,5	3,420500
1,967000	0,5	3,403300
1,975333	0,5	3,402500
1,983667	0,5	3,420550
1,992000	0,5	3,429150
2,000333	0,5	3,455750
2,008667	0,5	3,509950
2,017000	0,5	3,640700
2,025333	0,5	3,945850
2,033667	0,5	4,480550
2,042000	0,5	5,159850
2,050333	0,5	5,835050
2,058667	0,5	6,505650
2,067000	0,5	7,330700
2,075333	0,5	8,174800
2,083667	0,5	8,824250
2,092000	0,5	9,265600
2,100333	0,5	9,505750
2,108667	0,5	9,674700
2,117000	0,5	9,830300
2,125333	0,5	10,073650
2,133667	0,5	10,406200
2,142000	0,5	10,933700
2,150333	0,5	11,621950
2,158667	0,5	12,175000
2,167000	0,5	12,118150
2,175333	0,5	11,547800
2,183667	0,5	10,885500
2,192000	0,5	10,408700
2,200333	0,5	10,125400
2,208667	0,5	9,927150
2,217000	0,5	9,813800
2,225333	0,5	9,772350
2,233667	0,5	9,784150
2,242000	0,5	9,820800
2,250333	0,5	9,810650
2,258667	0,5	9,792350
2,267000	0,5	9,808200
2,275333	0,5	9,814650
2,283667	0,5	9,843400
2,292000	0,5	9,872500
2,300333	0,5	9,923350
2,308667	0,5	9,959300
2,317000	0,5	10,023000
2,325333	0,5	10,086050
2,333667	0,5	10,140200
2,342000	0,5	10,211050
2,350333	0,5	10,300500
2,358667	0,5	10,368500
2,367000	0,5	10,456500
2,375333	0,5	10,557300
2,383667	0,5	10,685750
2,392000	0,5	10,822050
2,400333	0,5	10,965250
2,408667	0,5	11,147250
2,417000	0,5	11,237500
2,425333	0,5	11,188050
2,433667	0,5	11,133200
2,442000	0,5	11,177200
2,450333	0,5	11,266350
2,458667	0,5	11,378600
2,467000	0,5	11,479500
2,475333	0,5	11,571750
2,483667	0,5	11,624300
2,492000	0,5	11,711800
2,500333	0,5	11,753800
2,508667	0,5	11,796050
2,517000	0,5	11,853750
2,525333	0,5	11,953200
2,533667	0,5	12,108450
2,542000	0,5	12,325400
2,550333	0,5	12,673000
2,558667	0,5	13,253750
2,567000	0,5	14,091800
2,575333	0,5	15,122250
2,583667	0,5	16,203600
2,592000	0,5	17,135350
2,600333	0,5	17,790850
2,608667	0,5	18,177400
2,617000	0,5	18,420850
2,625333	0,5	18,551700
2,633667	0,5	18,637050
2,642000	0,5	18,646450
2,650333	0,5	18,510450
2,658667	0,5	18,301050
2,667000	0,5	18,157900
2,675333	0,5	18,324600
2,683667	0,5	19,105650
2,692000	0,5	20,743700
2,700333	0,5	23,386000
2,708667	0,5	26,829300
2,717000	0,5	30,617200
2,725333	0,5	34,222451
2,733667	0,5	37,246251
2,742000	0,5	39,299101
2,750333	0,5	40,122901
2,758667	0,5	39,707051
2,767000	0,5	38,292451
2,775333	0,5	36,278801
2,783667	0,5	33,971351
2,792000	0,5	31,671750
2,800333	0,5	29,663500
2,808667	0,5	28,538950
2,817000	0,5	28,913450
2,825333	0,5	31,276150
2,833667	0,5	35,189801
2,842000	0,5	39,232901
2,850333	0,5	41,596051
2,858667	0,5	41,290251
2,867000	0,5	38,573801
2,875333	0,5	34,615251
2,883667	0,5	30,540750
2,892000	0,5	26,974300
2,900333	0,5	23,997600
2,908667	0,5	21,480250
2,917000	0,5	19,271600
2,925333	0,5	17,305400
2,933667	0,5	15,594600
2,942000	0,5	14,099350
2,950333	0,5	12,831050
2,958667	0,5	11,786950
2,967000	0,5	10,917750
2,975333	0,5	10,216300
2,983667	0,5	9,606700
2,992000	0,5	9,060200
3,000333	0,5	8,601800
3,008667	0,5	8,181950
3,017000	0,5	7,823450
3,025333	0,5	7,493850
3,033667	0,5	7,208800
3,042000	0,5	6,926750
3,050333	0,5	6,666250
3,058667	0,5	6,423000
3,067000	0,5	6,180000
3,075333	0,5	5,955750
3,083667	0,5	5,767800
3,092000	0,5	5,562050
3,100333	0,5	5,374000
3,108667	0,5	5,228050
3,117000	0,5	5,113700
3,125333	0,5	5,063500
3,133667	0,5	5,013200
3,142000	0,5	5,009450
3,150333	0,5	5,051900
3,158667	0,5	5,178550
3,167000	0,5	5,399000
3,175333	0,5	5,844050
3,183667	0,5	6,619950
3,192000	0,5	7,915550
3,200333	0,5	9,802300
3,208667	0,5	12,194350
3,217000	0,5	14,666950
3,225333	0,5	16,733050
3,233667	0,5	17,893150
3,242000	0,5	17,929000
3,250333	0,5	16,967000
3,258667	0,5	15,334550
3,267000	0,5	13,385550
3,275333	0,5	11,417750
3,283667	0,5	9,616700
3,292000	0,5	8,094700
3,300333	0,5	6,885450
3,308667	0,5	5,936250
3,317000	0,5	5,196350
3,325333	0,5	4,623250
3,333667	0,5	4,171500
3,342000	0,5	3,803400
3,350333	0,5	3,518350
3,358667	0,5	3,274550
3,367000	0,5	3,063800
3,375333	0,5	2,901750
3,383667	0,5	2,755050
3,392000	0,5	2,619450
3,400333	0,5	2,526600
3,408667	0,5	2,444850
3,417000	0,5	2,394250
3,425333	0,5	2,317700
3,433667	0,5	2,224950
3,442000	0,5	2,141750
3,450333	0,5	2,057250
3,458667	0,5	1,958750
3,467000	0,5	1,870400
3,475333	0,5	1,797350
3,483667	0,5	1,711500
3,492000	0,5	1,640150
3,500333	0,5	1,578000
3,508667	0,5	1,530850
3,517000	0,5	1,461950
3,525333	0,5	1,438150
3,533667	0,5	1,372050
3,542000	0,5	1,329450
3,550333	0,5	1,292900
3,558667	0,5	1,269400
3,567000	0,5	1,263050
3,575333	0,5	1,236800
3,583667	0,5	1,187600
3,592000	0,5	1,166000
3,600333	0,5	1,135150
3,608667	0,5	1,103650
3,617000	0,5	1,070950
3,625333	0,5	1,039600
3,633667	0,5	1,009250
3,642000	0,5	0,983200
3,650333	0,5	0,970750
3,658667	0,5	0,927550
3,667000	0,5	0,894700
3,675333	0,5	0,884450
3,683667	0,5	0,840050
3,692000	0,5	0,819200
3,700333	0,5	0,801350
3,708667	0,5	0,789400
3,717000	0,5	0,803000
3,725333	0,5	0,783950
3,733667	0,5	0,771450
3,742000	0,5	0,749400
3,750333	0,5	0,752750
3,758667	0,5	0,736500
3,767000	0,5	0,730550
3,775333	0,5	0,709250
3,783667	0,5	0,689350
3,792000	0,5	0,677950
3,800333	0,5	0,659100
3,808667	0,5	0,638750
3,817000	0,5	0,632200
3,825333	0,5	0,614000
3,833667	0,5	0,579100
3,842000	0,5	0,570050
3,850333	0,5	0,559600
3,858667	0,5	0,581850
3,867000	0,5	0,583200
3,875333	0,5	0,581800
3,883667	0,5	0,558650
3,892000	0,5	0,560550
3,900333	0,5	0,543450
3,908667	0,5	0,529550
3,917000	0,5	0,519400
3,925333	0,5	0,508450
3,933667	0,5	0,496850
3,942000	0,5	0,489500
3,950333	0,5	0,484300
3,958667	0,5	0,484850
3,967000	0,5	0,490200
3,975333	0,5	0,472500
3,983667	0,5	0,442400
3,992000	0,5	0,436100
4,000333	0,5	0,433700
4,008667	0,5	0,448550
4,017000	0,5	0,452200
4,025333	0,5	0,425850
4,033667	0,5	0,426500
4,042000	0,5	0,408650
4,050333	0,5	0,400450
4,058667	0,5	0,391150
4,067000	0,5	0,399550
4,075333	0,5	0,381350
4,083667	0,5	0,375250
4,092000	0,5	0,367700
4,100333	0,5	0,352250
4,108667	0,5	0,347800
4,117000	0,5	0,362600
4,125333	0,5	0,336550
4,133667	0,5	0,326050
4,142000	0,5	0,320250
4,150333	0,5	0,331350
4,158667	0,5	0,347400
4,167000	0,5	0,340650
4,175333	0,5	0,342550
4,183667	0,5	0,331350
4,192000	0,5	0,327800
4,200333	0,5	0,318500
4,208667	0,5	0,316950
4,217000	0,5	0,311300
4,225333	0,5	0,307450
4,233667	0,5	0,302750
4,242000	0,5	0,305450
4,250333	0,5	0,284850
4,258667	0,5	0,307650
4,267000	0,5	0,304500
4,275333	0,5	0,301600
4,283667	0,5	0,292100
4,292000	0,5	0,301150
4,300333	0,5	0,322600
4,308667	0,5	0,333950
4,317000	0,5	0,324700
4,325333	0,5	0,314750
4,333667	0,5	0,322300
4,342000	0,5	0,325700
4,350333	0,5	0,334800
4,358667	0,5	0,349800
4,367000	0,5	0,360350
4,375333	0,5	0,382150
4,383667	0,5	0,410650
4,392000	0,5	0,430500
4,400333	0,5	0,439850
4,408667	0,5	0,474700
4,417000	0,5	0,479150
4,425333	0,5	0,478250
4,433667	0,5	0,477150
4,442000	0,5	0,484350
4,450333	0,5	0,512850
4,458667	0,5	0,501650
4,467000	0,5	0,483050
4,475333	0,5	0,466750
4,483667	0,5	0,471650
4,492000	0,5	0,458500
4,500333	0,5	0,452250
4,508667	0,5	0,443300
4,517000	0,5	0,435900
4,525333	0,5	0,423200
4,533667	0,5	0,413950
4,542000	0,5	0,410350
4,550333	0,5	0,388400
4,558667	0,5	0,401100
4,567000	0,5	0,376350
4,575333	0,5	0,369550
4,583667	0,5	0,357000
4,592000	0,5	0,369350
4,600333	0,5	0,386600
4,608667	0,5	0,384050
4,617000	0,5	0,362700
4,625333	0,5	0,368700
4,633667	0,5	0,357500
4,642000	0,5	0,362150
4,650333	0,5	0,356450
4,658667	0,5	0,359600
4,667000	0,5	0,351850
4,675333	0,5	0,359350
4,683667	0,5	0,361650
4,692000	0,5	0,358800
4,700333	0,5	0,360450
4,708667	0,5	0,375850
4,717000	0,5	0,365100
4,725333	0,5	0,371450
4,733667	0,5	0,382050
4,742000	0,5	0,401500
4,750333	0,5	0,427800
4,758667	0,5	0,415500
4,767000	0,5	0,411150
4,775333	0,5	0,407700
4,783667	0,5	0,414350
4,792000	0,5	0,409700
4,800333	0,5	0,418400
4,808667	0,5	0,410050
4,817000	0,5	0,405650
4,825333	0,5	0,405600
4,833667	0,5	0,403750
4,842000	0,5	0,400550
4,850333	0,5	0,418450
4,858667	0,5	0,416550
4,867000	0,5	0,404350
4,875333	0,5	0,410200
4,883667	0,5	0,415700
4,892000	0,5	0,441550
4,900333	0,5	0,462450
4,908667	0,5	0,464550
4,917000	0,5	0,454350
4,925333	0,5	0,461850
4,933667	0,5	0,462950
4,942000	0,5	0,463100
4,950333	0,5	0,461100
4,958667	0,5	0,461550
4,967000	0,5	0,464950
4,975333	0,5	0,475450
4,983667	0,5	0,475750
4,992000	0,5	0,479650
5,000333	0,5	0,497700
5,008667	0,5	0,499650
5,017000	0,5	0,493650
5,025333	0,5	0,501150
5,033667	0,5	0,515400
5,042000	0,5	0,543200
5,050333	0,5	0,558600
5,058667	0,5	0,548000
5,067000	0,5	0,551300
5,075333	0,5	0,552950
5,083667	0,5	0,560950
5,092000	0,5	0,560250
5,100333	0,5	0,569550
5,108667	0,5	0,567100
5,117000	0,5	0,578950
5,125333	0,5	0,587700
5,133667	0,5	0,595000
5,142000	0,5	0,606550
5,150333	0,5	0,623200
5,158667	0,5	0,628700
5,167000	0,5	0,639750
5,175333	0,5	0,666500
5,183667	0,5	0,707950
5,192000	0,5	0,742300
5,200333	0,5	0,748700
5,208667	0,5	0,766850
5,217000	0,5	0,787900
5,225333	0,5	0,784200
5,233667	0,5	0,784100
5,242000	0,5	0,778250
5,250333	0,5	0,759200
5,258667	0,5	0,739450
5,267000	0,5	0,731600
5,275333	0,5	0,722950
5,283667	0,5	0,698050
5,292000	0,5	0,709600
5,300333	0,5	0,691150
5,308667	0,5	0,674950
5,317000	0,5	0,666350
5,325333	0,5	0,672000
5,333667	0,5	0,689100
5,342000	0,5	0,692700
5,350333	0,5	0,683850
5,358667	0,5	0,685000
5,367000	0,5	0,686150
5,375333	0,5	0,686800
5,383667	0,5	0,683850
5,392000	0,5	0,685550
5,400333	0,5	0,687300
5,408667	0,5	0,690600
5,417000	0,5	0,703800
5,425333	0,5	0,701000
5,433667	0,5	0,691500
5,442000	0,5	0,713050
5,450333	0,5	0,704450
5,458667	0,5	0,703700
5,467000	0,5	0,713150
5,475333	0,5	0,721600
5,483667	0,5	0,755300
5,492000	0,5	0,750450
5,500333	0,5	0,757150
5,508667	0,5	0,755550
5,517000	0,5	0,764000
5,525333	0,5	0,768300
5,533667	0,5	0,772000
5,542000	0,5	0,773850
5,550333	0,5	0,773200
5,558667	0,5	0,773800
5,567000	0,5	0,781200
5,575333	0,5	0,788100
5,583667	0,5	0,789600
5,592000	0,5	0,809450
5,600333	0,5	0,794850
5,608667	0,5	0,801300
5,617000	0,5	0,800200
5,625333	0,5	0,828750
5,633667	0,5	0,856500
5,642000	0,5	0,859300
5,650333	0,5	0,850700
5,658667	0,5	0,862500
5,667000	0,5	0,861600
5,675333	0,5	0,865950
5,683667	0,5	0,863350
5,692000	0,5	0,875150
5,700333	0,5	0,875500
5,708667	0,5	0,883750
5,717000	0,5	0,888150
5,725333	0,5	0,885200
5,733667	0,5	0,899050
5,742000	0,5	0,903000
5,750333	0,5	0,892850
5,758667	0,5	0,896650
5,767000	0,5	0,907700
5,775333	0,5	0,926750
5,783667	0,5	0,952050
5,792000	0,5	0,953350
5,800333	0,5	0,959250
5,808667	0,5	0,964950
5,817000	0,5	0,967750
5,825333	0,5	0,970750
5,833667	0,5	0,991200
5,842000	0,5	0,989300
5,850333	0,5	0,995800
5,858667	0,5	1,004550
5,867000	0,5	1,001700
5,875333	0,5	0,997850
5,883667	0,5	1,022200
5,892000	0,5	1,022550
5,900333	0,5	1,023350
5,908667	0,5	1,034300
5,917000	0,5	1,047600
5,925333	0,5	1,075550
5,933667	0,5	1,093750
5,942000	0,5	1,106550
5,950333	0,5	1,101750
5,958667	0,5	1,104300
5,967000	0,5	1,107450
5,975333	0,5	1,113150
5,983667	0,5	1,113100
5,992000	0,5	1,117000
6,000333	0,5	1,121250
6,008667	0,5	1,127700
6,017000	0,5	1,114800
6,025333	0,5	1,127850
6,033667	0,5	1,138900
6,042000	0,5	1,142750
6,050333	0,5	1,136050
6,058667	0,5	1,142100
6,067000	0,5	1,157850
6,075333	0,5	1,190200
6,083667	0,5	1,194000
6,092000	0,5	1,197800
6,100333	0,5	1,201350
6,108667	0,5	1,202000
6,117000	0,5	1,204600
6,125333	0,5	1,209400
6,133667	0,5	1,217800
6,142000	0,5	1,221700
6,150333	0,5	1,231850
6,158667	0,5	1,232450
6,167000	0,5	1,233000
6,175333	0,5	1,249300
6,183667	0,5	1,258550
6,192000	0,5	1,251500
6,200333	0,5	1,252950
6,208667	0,5	1,259750
6,217000	0,5	1,287150
6,225333	0,5	1,298550
6,233667	0,5	1,296950
6,242000	0,5	1,298000
6,250333	0,5	1,315800
6,258667	0,5	1,315450
6,267000	0,5	1,328350
6,275333	0,5	1,326600
6,283667	0,5	1,331550
6,292000	0,5	1,335450
6,300333	0,5	1,340100
6,308667	0,5	1,352300
6,317000	0,5	1,350500
6,325333	0,5	1,382000
6,333667	0,5	1,379400
6,342000	0,5	1,380000
6,350333	0,5	1,380350
6,358667	0,5	1,408100
6,367000	0,5	1,431850
6,375333	0,5	1,442300
6,383667	0,5	1,437400
6,392000	0,5	1,452400
6,400333	0,5	1,456550
6,408667	0,5	1,462950
6,417000	0,5	1,470550
6,425333	0,5	1,479350
6,433667	0,5	1,480950
6,442000	0,5	1,487150
6,450333	0,5	1,497550
6,458667	0,5	1,503950
6,467000	0,5	1,499300
6,475333	0,5	1,524250
6,483667	0,5	1,515050
6,492000	0,5	1,513250
6,500333	0,5	1,521200
6,508667	0,5	1,534050
6,517000	0,5	1,563750
6,525333	0,5	1,562600
6,533667	0,5	1,569500
6,542000	0,5	1,570950
6,550333	0,5	1,585750
6,558667	0,5	1,588800
6,567000	0,5	1,603000
6,575333	0,5	1,606750
6,583667	0,5	1,608900
6,592000	0,5	1,616200
6,600333	0,5	1,623650
6,608667	0,5	1,627900
6,617000	0,5	1,630850
6,625333	0,5	1,644550
6,633667	0,5	1,646750
6,642000	0,5	1,650850
6,650333	0,5	1,663200
6,658667	0,5	1,683000
6,667000	0,5	1,712650
6,675333	0,5	1,718500
6,683667	0,5	1,718400
6,692000	0,5	1,727300
6,700333	0,5	1,730150
6,708667	0,5	1,738150
6,717000	0,5	1,740900
6,725333	0,5	1,749150
6,733667	0,5	1,751750
6,742000	0,5	1,767550
6,750333	0,5	1,773950
6,758667	0,5	1,775650
6,767000	0,5	1,781750
6,775333	0,5	1,789800
6,783667	0,5	1,782750
6,792000	0,5	1,789100
6,800333	0,5	1,801750
6,808667	0,5	1,818200
6,817000	0,5	1,840800
6,825333	0,5	1,839450
6,833667	0,5	1,842750
6,842000	0,5	1,847200
6,850333	0,5	1,849900
6,858667	0,5	1,855300
6,867000	0,5	1,859300
6,875333	0,5	1,862600
6,883667	0,5	1,865200
6,892000	0,5	1,867500
6,900333	0,5	1,863650
6,908667	0,5	1,854650
6,917000	0,5	1,870200
6,925333	0,5	1,871500
6,933667	0,5	1,867400
6,942000	0,5	1,871700
6,950333	0,5	1,881600
6,958667	0,5	1,900250
6,967000	0,5	1,903250
6,975333	0,5	1,906550
6,983667	0,5	1,910100
6,992000	0,5	1,908600
7,000333	0,5	1,904300
7,008667	0,5	1,903150
7,017000	0,5	1,900600
7,025333	0,5	1,896950
7,033667	0,5	1,897350
7,042000	0,5	1,899850
7,050333	0,5	1,887500
7,058667	0,5	1,887300
7,067000	0,5	1,891650
7,075333	0,5	1,883100
7,083667	0,5	1,882200
7,092000	0,5	1,882950
7,100333	0,5	1,889950
7,108667	0,5	1,905750
7,117000	0,5	1,901100
7,125333	0,5	1,904550
7,133667	0,5	1,903950
7,142000	0,5	1,908500
7,150333	0,5	1,906850
7,158667	0,5	1,922900
7,167000	0,5	1,928100
7,175333	0,5	1,947850
7,183667	0,5	1,979450
7,192000	0,5	2,009600
7,200333	0,5	2,009750
7,208667	0,5	2,054550
7,217000	0,5	2,071000
7,225333	0,5	2,061100
7,233667	0,5	2,044850
7,242000	0,5	2,020450
7,250333	0,5	2,013500
7,258667	0,5	1,983600
7,267000	0,5	1,962600
7,275333	0,5	1,938300
7,283667	0,5	1,930200
7,292000	0,5	1,915450
7,300333	0,5	1,913450
7,308667	0,5	1,902350
7,317000	0,5	1,902800
7,325333	0,5	1,894250
7,333667	0,5	1,885200
7,342000	0,5	1,881700
7,350333	0,5	1,867800
7,358667	0,5	1,881400
7,367000	0,5	1,871450
7,375333	0,5	1,865650
7,383667	0,5	1,860500
7,392000	0,5	1,867500
7,400333	0,5	1,884200
7,408667	0,5	1,885700
7,417000	0,5	1,884150
7,425333	0,5	1,890800
7,433667	0,5	1,890100
7,442000	0,5	1,894850
7,450333	0,5	1,895550
7,458667	0,5	1,905400
7,467000	0,5	1,911650
7,475333	0,5	1,923000
7,483667	0,5	1,936300
7,492000	0,5	1,954600
7,500333	0,5	1,979100
7,508667	0,5	2,033300
7,517000	0,5	2,082150
7,525333	0,5	2,169300
7,533667	0,5	2,261650
7,542000	0,5	2,383100
7,550333	0,5	2,519250
7,558667	0,5	2,624050
7,567000	0,5	2,701800
7,575333	0,5	2,750100
7,583667	0,5	2,762250
7,592000	0,5	2,737200
7,600333	0,5	2,691650
7,608667	0,5	2,623000
7,617000	0,5	2,547100
7,625333	0,5	2,473100
7,633667	0,5	2,409300
7,642000	0,5	2,338200
7,650333	0,5	2,289550
7,658667	0,5	2,248600
7,667000	0,5	2,210200
7,675333	0,5	2,184750
7,683667	0,5	2,168350
7,692000	0,5	2,161000
7,700333	0,5	2,155500
7,708667	0,5	2,143000
7,717000	0,5	2,115050
7,725333	0,5	2,092150
7,733667	0,5	2,068200
7,742000	0,5	2,042550
7,750333	0,5	2,027250
7,758667	0,5	2,010100
7,767000	0,5	1,999800
7,775333	0,5	1,987300
7,783667	0,5	1,970850
7,792000	0,5	1,961250
7,800333	0,5	1,951200
7,808667	0,5	1,947700
7,817000	0,5	1,936300
7,825333	0,5	1,927050
7,833667	0,5	1,924950
7,842000	0,5	1,930500
7,850333	0,5	1,933400
7,858667	0,5	1,934550
7,867000	0,5	1,933350
7,875333	0,5	1,938000
7,883667	0,5	1,941750
7,892000	0,5	1,953300
7,900333	0,5	1,965550
7,908667	0,5	1,981300
7,917000	0,5	1,995350
7,925333	0,5	1,998650
7,933667	0,5	1,994150
7,942000	0,5	1,987250
7,950333	0,5	1,986000
7,958667	0,5	1,976500
7,967000	0,5	1,969500
7,975333	0,5	1,964300
7,983667	0,5	1,965650
7,992000	0,5	1,966150
8,000333	0,5	1,964450
8,008667	0,5	1,961500
8,017000	0,5	1,952450
8,025333	0,5	1,950300
8,033667	0,5	1,951450
8,042000	0,5	1,951250
8,050333	0,5	1,957400
8,058667	0,5	1,962850
8,067000	0,5	1,979100
8,075333	0,5	2,008750
8,083667	0,5	2,044250
8,092000	0,5	2,090950
8,100333	0,5	2,118500
8,108667	0,5	2,128750
8,117000	0,5	2,118600
8,125333	0,5	2,086200
8,133667	0,5	2,054750
8,142000	0,5	2,027200
8,150333	0,5	2,003100
8,158667	0,5	1,987750
8,167000	0,5	1,982600
8,175333	0,5	1,982300
8,183667	0,5	1,988350
8,192000	0,5	1,999600
8,200333	0,5	2,018350
8,208667	0,5	2,038500
8,217000	0,5	2,078300
8,225333	0,5	2,121850
8,233667	0,5	2,170400
8,242000	0,5	2,211800
8,250333	0,5	2,226900
8,258667	0,5	2,220750
8,267000	0,5	2,193150
8,275333	0,5	2,168800
8,283667	0,5	2,147900
8,292000	0,5	2,138350
8,300333	0,5	2,126300
8,308667	0,5	2,117850
8,317000	0,5	2,117100
8,325333	0,5	2,119350
8,333667	0,5	2,117750
8,342000	0,5	2,124700
8,350333	0,5	2,134250
8,358667	0,5	2,148800
8,367000	0,5	2,174350
8,375333	0,5	2,204850
8,383667	0,5	2,219800
8,392000	0,5	2,207350
8,400333	0,5	2,143450
8,408667	0,5	2,062250
8,417000	0,5	1,983400
8,425333	0,5	1,918700
8,433667	0,5	1,880000
8,442000	0,5	1,840700
8,450333	0,5	1,814650
8,458667	0,5	1,784050
8,467000	0,5	1,773200
8,475333	0,5	1,762300
8,483667	0,5	1,753500
8,492000	0,5	1,750800
8,500333	0,5	1,743300
8,508667	0,5	1,744900
8,517000	0,5	1,743850
8,525333	0,5	1,742250
8,533667	0,5	1,741150
8,542000	0,5	1,747750
8,550333	0,5	1,745400
8,558667	0,5	1,749000
8,567000	0,5	1,754350
8,575333	0,5	1,766200
8,583667	0,5	1,780450
8,592000	0,5	1,783100
8,600333	0,5	1,784450
8,608667	0,5	1,785750
8,617000	0,5	1,782650
8,625333	0,5	1,782550
8,633667	0,5	1,774700
8,642000	0,5	1,768350
8,650333	0,5	1,768550
8,658667	0,5	1,767600
8,667000	0,5	1,765750
8,675333	0,5	1,751400
8,683667	0,5	1,750750
8,692000	0,5	1,751100
8,700333	0,5	1,751600
8,708667	0,5	1,750250
8,717000	0,5	1,761550
8,725333	0,5	1,764550
8,733667	0,5	1,773500
8,742000	0,5	1,773150
8,750333	0,5	1,767950
8,758667	0,5	1,769550
8,767000	0,5	1,766450
8,775333	0,5	1,770700
8,783667	0,5	1,777450
8,792000	0,5	1,775900
8,800333	0,5	1,784650
8,808667	0,5	1,786600
8,817000	0,5	1,791100
8,825333	0,5	1,794050
8,833667	0,5	1,794400
8,842000	0,5	1,804100
8,850333	0,5	1,808300
8,858667	0,5	1,813350
8,867000	0,5	1,818400
8,875333	0,5	1,828100
8,883667	0,5	1,833300
8,892000	0,5	1,834650
8,900333	0,5	1,824950
8,908667	0,5	1,814200
8,917000	0,5	1,800150
8,925333	0,5	1,794650
8,933667	0,5	1,785650
8,942000	0,5	1,778300
8,950333	0,5	1,769500
8,958667	0,5	1,768050
8,967000	0,5	1,768350
8,975333	0,5	1,770250
8,983667	0,5	1,777250
8,992000	0,5	1,785050
9,000333	0,5	1,790150
9,008667	0,5	1,794050
9,017000	0,5	1,802900
9,025333	0,5	1,811700
9,033667	0,5	1,809250
9,042000	0,5	1,789250
9,050333	0,5	1,767450
9,058667	0,5	1,747200
9,067000	0,5	1,726150
9,075333	0,5	1,715350
9,083667	0,5	1,708150
9,092000	0,5	1,705100
9,100333	0,5	1,706550
9,108667	0,5	1,707750
9,117000	0,5	1,715350
9,125333	0,5	1,719700
9,133667	0,5	1,726550
9,142000	0,5	1,739200
9,150333	0,5	1,739950
9,158667	0,5	1,737150
9,167000	0,5	1,732850
9,175333	0,5	1,737550
9,183667	0,5	1,728450
9,192000	0,5	1,724150
9,200333	0,5	1,720050
9,208667	0,5	1,718000
9,217000	0,5	1,716950
9,225333	0,5	1,719150
9,233667	0,5	1,721750
9,242000	0,5	1,724800
9,250333	0,5	1,725950
9,258667	0,5	1,731750
9,267000	0,5	1,731200
9,275333	0,5	1,739100
9,283667	0,5	1,747850
9,292000	0,5	1,751000
9,300333	0,5	1,759500
9,308667	0,5	1,760500
9,317000	0,5	1,775200
9,325333	0,5	1,787550
9,333667	0,5	1,794100
9,342000	0,5	1,798300
9,350333	0,5	1,802600
9,358667	0,5	1,804550
9,367000	0,5	1,802100
9,375333	0,5	1,798550
9,383667	0,5	1,795950
9,392000	0,5	1,783100
9,400333	0,5	1,773600
9,408667	0,5	1,761000
9,417000	0,5	1,745350
9,425333	0,5	1,733950
9,433667	0,5	1,728000
9,442000	0,5	1,715400
9,450333	0,5	1,705550
9,458667	0,5	1,697750
9,467000	0,5	1,696150
9,475333	0,5	1,689550
9,483667	0,5	1,680050
9,492000	0,5	1,673800
9,500333	0,5	1,667500
9,508667	0,5	1,664150
9,517000	0,5	1,655650
9,525333	0,5	1,650200
9,533667	0,5	1,643850
9,542000	0,5	1,639500
9,550333	0,5	1,629600
9,558667	0,5	1,626300
9,567000	0,5	1,622050
9,575333	0,5	1,618950
9,583667	0,5	1,612150
9,592000	0,5	1,601950
9,600333	0,5	1,598950
9,608667	0,5	1,592600
9,617000	0,5	1,589950
9,625333	0,5	1,590000
9,633667	0,5	1,581150
9,642000	0,5	1,576650
9,650333	0,5	1,571150
9,658667	0,5	1,567700
9,667000	0,5	1,557950
9,675333	0,5	1,557400
9,683667	0,5	1,556950
9,692000	0,5	1,550850
9,700333	0,5	1,551200
9,708667	0,5	1,550250
9,717000	0,5	1,547450
9,725333	0,5	1,554050
9,733667	0,5	1,552600
9,742000	0,5	1,556550
9,750333	0,5	1,556550
9,758667	0,5	1,566500
9,767000	0,5	1,574400
9,775333	0,5	1,592500
9,783667	0,5	1,603000
9,792000	0,5	1,623200
9,800333	0,5	1,642500
9,808667	0,5	1,681200
9,817000	0,5	1,731350
9,825333	0,5	1,802150
9,833667	0,5	1,888300
9,842000	0,5	2,000350
9,850333	0,5	2,129500
9,858667	0,5	2,266100
9,867000	0,5	2,407600
9,875333	0,5	2,538500
9,883667	0,5	2,624050
9,892000	0,5	2,667950
9,900333	0,5	2,657700
9,908667	0,5	2,582350
9,917000	0,5	2,470150
9,925333	0,5	2,327650
9,933667	0,5	2,163950
9,942000	0,5	2,023400
9,950333	0,5	1,897650
9,958667	0,5	1,804850
9,967000	0,5	1,732150
9,975333	0,5	1,681950
9,983667	0,5	1,649950
9,992000	0,5	1,632300
10,000333	0,5	1,614700
10,008667	0,5	1,611300
10,017000	0,5	1,606500
10,025333	0,5	1,608700
10,033667	0,5	1,612950
10,042000	0,5	1,620500
10,050333	0,5	1,626550
10,058667	0,5	1,635850
10,067000	0,5	1,647700
10,075333	0,5	1,658900
10,083667	0,5	1,659250
10,092000	0,5	1,663200
10,100333	0,5	1,656000
10,108667	0,5	1,655650
10,117000	0,5	1,657150
10,125333	0,5	1,660900
10,133667	0,5	1,676950
10,142000	0,5	1,689600
10,150333	0,5	1,706750
10,158667	0,5	1,724300
10,167000	0,5	1,750000
10,175333	0,5	1,758450
10,183667	0,5	1,764250
10,192000	0,5	1,763400
10,200333	0,5	1,751000
10,208667	0,5	1,737750
10,217000	0,5	1,721050
10,225333	0,5	1,693600
10,233667	0,5	1,669250
10,242000	0,5	1,641250
10,250333	0,5	1,615800
10,258667	0,5	1,596600
10,267000	0,5	1,580550
10,275333	0,5	1,563450
10,283667	0,5	1,556350
10,292000	0,5	1,553350
10,300333	0,5	1,543100
10,308667	0,5	1,537900
10,317000	0,5	1,541700
10,325333	0,5	1,541850
10,333667	0,5	1,546850
10,342000	0,5	1,554650
10,350333	0,5	1,562900
10,358667	0,5	1,579300
10,367000	0,5	1,589950
10,375333	0,5	1,600850
10,383667	0,5	1,607150
10,392000	0,5	1,619050
10,400333	0,5	1,626900
10,408667	0,5	1,644250
10,417000	0,5	1,652200
10,425333	0,5	1,675200
10,433667	0,5	1,705650
10,442000	0,5	1,737750
10,450333	0,5	1,760900
10,458667	0,5	1,793700
10,467000	0,5	1,809450
10,475333	0,5	1,808600
10,483667	0,5	1,786750
10,492000	0,5	1,753400
10,500333	0,5	1,724050
10,508667	0,5	1,691800
10,517000	0,5	1,659600
10,525333	0,5	1,638300
10,533667	0,5	1,613650
10,542000	0,5	1,601550
10,550333	0,5	1,593150
10,558667	0,5	1,582050
10,567000	0,5	1,577100
10,575333	0,5	1,568000
10,583667	0,5	1,558850
10,592000	0,5	1,562100
10,600333	0,5	1,549800
10,608667	0,5	1,549550
10,617000	0,5	1,552400
10,625333	0,5	1,554700
10,633667	0,5	1,569100
10,642000	0,5	1,587450
10,650333	0,5	1,615950
10,658667	0,5	1,643750
10,667000	0,5	1,662300
10,675333	0,5	1,670050
10,683667	0,5	1,661000
10,692000	0,5	1,627550
10,700333	0,5	1,589050
10,708667	0,5	1,545900
10,717000	0,5	1,494750
10,725333	0,5	1,452150
10,733667	0,5	1,425950
10,742000	0,5	1,412550
10,750333	0,5	1,399600
10,758667	0,5	1,412900
10,767000	0,5	1,416400
10,775333	0,5	1,426750
10,783667	0,5	1,437300
10,792000	0,5	1,454150
10,800333	0,5	1,475400
10,808667	0,5	1,489750
10,817000	0,5	1,504600
10,825333	0,5	1,509900
10,833667	0,5	1,517700
10,842000	0,5	1,520600
10,850333	0,5	1,517800
10,858667	0,5	1,517650
10,867000	0,5	1,515250
10,875333	0,5	1,505750
10,883667	0,5	1,503600
10,892000	0,5	1,496600
10,900333	0,5	1,487750
10,908667	0,5	1,488750
10,917000	0,5	1,480800
10,925333	0,5	1,475950
10,933667	0,5	1,468750
10,942000	0,5	1,467250
10,950333	0,5	1,472650
10,958667	0,5	1,478800
10,967000	0,5	1,476050
10,975333	0,5	1,482850
10,983667	0,5	1,485800
10,992000	0,5	1,487650
11,000333	0,5	1,486200
11,008667	0,5	1,491150
11,017000	0,5	1,486000
11,025333	0,5	1,495000
11,033667	0,5	1,498000
11,042000	0,5	1,500350
11,050333	0,5	1,516500
11,058667	0,5	1,525250
11,067000	0,5	1,533300
11,075333	0,5	1,539050
11,083667	0,5	1,533100
11,092000	0,5	1,533050
11,100333	0,5	1,536650
11,108667	0,5	1,533350
11,117000	0,5	1,523550
11,125333	0,5	1,522350
11,133667	0,5	1,516750
11,142000	0,5	1,516400
11,150333	0,5	1,522150
11,158667	0,5	1,523850
11,167000	0,5	1,521700
11,175333	0,5	1,515650
11,183667	0,5	1,507600
11,192000	0,5	1,492500
11,200333	0,5	1,492300
11,208667	0,5	1,484150
11,217000	0,5	1,476750
11,225333	0,5	1,466850
11,233667	0,5	1,462200
11,242000	0,5	1,459950
11,250333	0,5	1,469050
11,258667	0,5	1,475000
11,267000	0,5	1,494050
11,275333	0,5	1,521800
11,283667	0,5	1,560200
11,292000	0,5	1,622400
11,300333	0,5	1,688650
11,308667	0,5	1,769650
11,317000	0,5	1,835900
11,325333	0,5	1,892000
11,333667	0,5	1,908400
11,342000	0,5	1,906700
11,350333	0,5	1,879100
11,358667	0,5	1,834950
11,367000	0,5	1,783150
11,375333	0,5	1,736150
11,383667	0,5	1,704950
11,392000	0,5	1,694050
11,400333	0,5	1,683000
11,408667	0,5	1,680300
11,417000	0,5	1,690900
11,425333	0,5	1,705950
11,433667	0,5	1,732200
11,442000	0,5	1,778500
11,450333	0,5	1,842650
11,458667	0,5	1,946150
11,467000	0,5	2,092650
11,475333	0,5	2,279050
11,483667	0,5	2,502900
11,492000	0,5	2,757100
11,500333	0,5	2,999600
11,508667	0,5	3,208300
11,517000	0,5	3,360250
11,525333	0,5	3,438900
11,533667	0,5	3,457250
11,542000	0,5	3,416450
11,550333	0,5	3,325900
11,558667	0,5	3,221750
11,567000	0,5	3,139100
11,575333	0,5	3,087700
11,583667	0,5	3,091800
11,592000	0,5	3,141800
11,600333	0,5	3,218800
11,608667	0,5	3,299700
11,617000	0,5	3,351450
11,625333	0,5	3,356750
11,633667	0,5	3,302600
11,642000	0,5	3,212850
11,650333	0,5	3,071750
11,658667	0,5	2,894350
11,667000	0,5	2,706100
11,675333	0,5	2,510450
11,683667	0,5	2,340900
11,692000	0,5	2,190700
11,700333	0,5	2,048900
11,708667	0,5	1,932850
11,717000	0,5	1,840650
11,725333	0,5	1,766550
11,733667	0,5	1,704650
11,742000	0,5	1,665100
11,750333	0,5	1,626450
11,758667	0,5	1,598250
11,767000	0,5	1,570650
11,775333	0,5	1,552450
11,783667	0,5	1,520050
11,792000	0,5	1,513100
11,800333	0,5	1,493950
11,808667	0,5	1,474500
11,817000	0,5	1,458550
11,825333	0,5	1,446500
11,833667	0,5	1,445050
11,842000	0,5	1,437200
11,850333	0,5	1,432700
11,858667	0,5	1,428800
11,867000	0,5	1,424950
11,875333	0,5	1,421400
11,883667	0,5	1,420900
11,892000	0,5	1,418950
11,900333	0,5	1,420500
11,908667	0,5	1,419200
11,917000	0,5	1,421450
11,925333	0,5	1,411600
11,933667	0,5	1,421200
11,942000	0,5	1,428100
11,950333	0,5	1,428300
11,958667	0,5	1,426750
11,967000	0,5	1,426100
11,975333	0,5	1,428850
11,983667	0,5	1,442950
11,992000	0,5	1,446650
12,000333	0,5	1,464400
12,008667	0,5	1,476500
12,017000	0,5	1,486500
12,025333	0,5	1,494600
12,033667	0,5	1,510100
12,042000	0,5	1,524400
12,050333	0,5	1,532100
12,058667	0,5	1,551250
12,067000	0,5	1,552700
12,075333	0,5	1,556700
12,083667	0,5	1,566250
12,092000	0,5	1,572250
12,100333	0,5	1,569250
12,108667	0,5	1,568000
12,117000	0,5	1,566050
12,125333	0,5	1,573750
12,133667	0,5	1,576200
12,142000	0,5	1,585500
12,150333	0,5	1,588850
12,158667	0,5	1,597050
12,167000	0,5	1,604900
12,175333	0,5	1,615850
12,183667	0,5	1,634000
12,192000	0,5	1,653550
12,200333	0,5	1,665500
12,208667	0,5	1,689000
12,217000	0,5	1,712350
12,225333	0,5	1,747050
12,233667	0,5	1,784400
12,242000	0,5	1,850100
12,250333	0,5	1,919250
12,258667	0,5	1,994850
12,267000	0,5	2,087600
12,275333	0,5	2,166000
12,283667	0,5	2,246250
12,292000	0,5	2,308200
12,300333	0,5	2,360800
12,308667	0,5	2,396100
12,317000	0,5	2,418600
12,325333	0,5	2,421950
12,333667	0,5	2,414950
12,342000	0,5	2,388100
12,350333	0,5	2,356700
12,358667	0,5	2,321450
12,367000	0,5	2,288350
12,375333	0,5	2,274600
12,383667	0,5	2,282200
12,392000	0,5	2,307200
12,400333	0,5	2,342300
12,408667	0,5	2,374750
12,417000	0,5	2,431550
12,425333	0,5	2,483650
12,433667	0,5	2,522250
12,442000	0,5	2,566350
12,450333	0,5	2,592700
12,458667	0,5	2,603900
12,467000	0,5	2,586900
12,475333	0,5	2,553700
12,483667	0,5	2,497300
12,492000	0,5	2,425050
12,500333	0,5	2,344100
12,508667	0,5	2,265850
12,517000	0,5	2,160800
12,525333	0,5	2,079550
12,533667	0,5	1,984350
12,542000	0,5	1,900100
12,550333	0,5	1,825300
12,558667	0,5	1,745100
12,567000	0,5	1,696100
12,575333	0,5	1,651050
12,583667	0,5	1,605950
12,592000	0,5	1,564800
12,600333	0,5	1,537450
12,608667	0,5	1,506250
12,617000	0,5	1,489500
12,625333	0,5	1,466500
12,633667	0,5	1,452300
12,642000	0,5	1,434000
12,650333	0,5	1,425300
12,658667	0,5	1,414300
12,667000	0,5	1,400050
12,675333	0,5	1,400600
12,683667	0,5	1,390750
12,692000	0,5	1,380450
12,700333	0,5	1,368750
12,708667	0,5	1,362700
12,717000	0,5	1,364100
12,725333	0,5	1,365350
12,733667	0,5	1,367550
12,742000	0,5	1,368900
12,750333	0,5	1,363350
12,758667	0,5	1,353200
12,767000	0,5	1,351200
12,775333	0,5	1,334300
12,783667	0,5	1,312900
12,792000	0,5	1,300000
12,800333	0,5	1,290150
12,808667	0,5	1,266350
12,817000	0,5	1,254300
12,825333	0,5	1,244950
12,833667	0,5	1,249750
12,842000	0,5	1,247700
12,850333	0,5	1,241400
12,858667	0,5	1,231150
12,867000	0,5	1,223700
12,875333	0,5	1,219950
12,883667	0,5	1,208650
12,892000	0,5	1,197350
12,900333	0,5	1,160850
12,908667	0,5	1,117000
12,917000	0,5	1,060500
12,925333	0,5	0,985250
12,933667	0,5	0,873450
12,942000	0,5	0,723050
12,950333	0,5	0,498300
12,958667	0,5	0,147750
12,967000	0,5	-0,277450
12,975333	0,5	-0,618350
12,983667	0,5	-0,919300
12,992000	0,5	-1,191000
13,000333	0,5	-1,390000
13,008667	0,5	-1,521150
13,017000	0,5	-1,611750
13,025333	0,5	-1,685300
13,033667	0,5	-1,745200
13,042000	0,5	-1,804000
13,050333	0,5	-1,852600
13,058667	0,5	-1,902050
13,067000	0,5	-1,946650
13,075333	0,5	-1,981500
13,083667	0,5	-2,009050
13,092000	0,5	-2,029150
13,100333	0,5	-2,052700
13,108667	0,5	-2,065550
13,117000	0,5	-2,064900
13,125333	0,5	-2,077250
13,133667	0,5	-2,086900
13,142000	0,5	-2,102500
13,150333	0,5	-2,121000
13,158667	0,5	-2,123150
13,167000	0,5	-2,134950
13,175333	0,5	-2,139150
13,183667	0,5	-2,144850
13,192000	0,5	-2,147750
13,200333	0,5	-2,149150
13,208667	0,5	-2,138300
13,217000	0,5	-2,128600
13,225333	0,5	-2,104500
13,233667	0,5	-2,079800
13,242000	0,5	-2,045200
13,250333	0,5	-2,025400
13,258667	0,5	-1,990100
13,267000	0,5	-1,958700
13,275333	0,5	-1,934950
13,283667	0,5	-1,914050
13,292000	0,5	-1,920150
13,300333	0,5	-1,899650
13,308667	0,5	-1,891050
13,317000	0,5	-1,897600
13,325333	0,5	-1,908150
13,333667	0,5	-1,913350
13,342000	0,5	-1,934250
13,350333	0,5	-1,942300
13,358667	0,5	-1,960500
13,367000	0,5	-1,970250
13,375333	0,5	-1,984500
13,383667	0,5	-1,988000
13,392000	0,5	-1,972050
13,400333	0,5	-1,972400
13,408667	0,5	-1,944150
13,417000	0,5	-1,914100
13,425333	0,5	-1,886300
13,433667	0,5	-1,851100
13,442000	0,5	-1,823350
13,450333	0,5	-1,785500
13,458667	0,5	-1,745850
13,467000	0,5	-1,731700
13,475333	0,5	-1,725200
13,483667	0,5	-1,732450
13,492000	0,5	-1,739350
13,500333	0,5	-1,760650
13,508667	0,5	-1,777100
13,517000	0,5	-1,807250
13,525333	0,5	-1,823050
13,533667	0,5	-1,834450
13,542000	0,5	-1,844050
13,550333	0,5	-1,860550
13,558667	0,5	-1,851350
13,567000	0,5	-1,843350
13,575333	0,5	-1,857650
13,583667	0,5	-1,860400
13,592000	0,5	-1,868050
13,600333	0,5	-1,849400
13,608667	0,5	-1,845500
13,617000	0,5	-1,837200
13,625333	0,5	-1,834900
13,633667	0,5	-1,818350
13,642000	0,5	-1,807350
13,650333	0,5	-1,794650
13,658667	0,5	-1,779400
13,667000	0,5	-1,766000
13,675333	0,5	-1,754050
13,683667	0,5	-1,730000
13,692000	0,5	-1,719700
13,700333	0,5	-1,692400
13,708667	0,5	-1,668950
13,717000	0,5	-1,653800
13,725333	0,5	-1,639850
13,733667	0,5	-1,623800
13,742000	0,5	-1,605200
13,750333	0,5	-1,573200
13,758667	0,5	-1,549150
13,767000	0,5	-1,523550
13,775333	0,5	-1,496600
13,783667	0,5	-1,470750
13,792000	0,5	-1,449900
13,800333	0,5	-1,426700
13,808667	0,5	-1,397350
13,817000	0,5	-1,377800
13,825333	0,5	-1,345500
13,833667	0,5	-1,322500
13,842000	0,5	-1,296800
13,850333	0,5	-1,261650
13,858667	0,5	-1,230700
13,867000	0,5	-1,201350
13,875333	0,5	-1,174200
13,883667	0,5	-1,151150
13,892000	0,5	-1,108500
13,900333	0,5	-1,073300
13,908667	0,5	-1,046500
13,917000	0,5	-1,022000
13,925333	0,5	-0,998300
13,933667	0,5	-0,981650
13,942000	0,5	-0,966000
13,950333	0,5	-0,945050
13,958667	0,5	-0,923850
13,967000	0,5	-0,902850
13,975333	0,5	-0,873700
13,983667	0,5	-0,854000
13,992000	0,5	-0,826300
14,000333	0,5	-0,786750
14,008667	0,5	-0,753250
14,017000	0,5	-0,720200
14,025333	0,5	-0,692600
14,033667	0,5	-0,656650
14,042000	0,5	-0,607400
14,050333	0,5	-0,545900
14,058667	0,5	-0,471050
14,067000	0,5	-0,382200
14,075333	0,5	-0,283750
14,083667	0,5	-0,185150
14,092000	0,5	-0,077900
14,100333	0,5	0,015900
14,108667	0,5	0,100350
14,117000	0,5	0,167900
14,125333	0,5	0,218300
14,133667	0,5	0,238250
14,142000	0,5	0,248400
14,150333	0,5	0,251450
14,158667	0,5	0,244650
14,167000	0,5	0,238000
14,175333	0,5	0,242000
14,183667	0,5	0,263750
14,192000	0,5	0,314550
14,200333	0,5	0,381200
14,208667	0,5	0,458850
14,217000	0,5	0,531700
14,225333	0,5	0,602850
14,233667	0,5	0,647150
14,242000	0,5	0,672700
14,250333	0,5	0,668500
14,258667	0,5	0,646150
14,267000	0,5	0,622750
14,275333	0,5	0,592800
14,283667	0,5	0,548000
14,292000	0,5	0,526750
14,300333	0,5	0,516700
14,308667	0,5	0,497600
14,317000	0,5	0,490250
14,325333	0,5	0,465150
14,333667	0,5	0,470050
14,342000	0,5	0,466500
14,350333	0,5	0,460900
14,358667	0,5	0,452800
14,367000	0,5	0,455200
14,375333	0,5	0,454400
14,383667	0,5	0,455550
14,392000	0,5	0,459450
14,400333	0,5	0,464150
14,408667	0,5	0,462000
14,417000	0,5	0,462150
14,425333	0,5	0,455450
14,433667	0,5	0,452000
14,442000	0,5	0,465050
14,450333	0,5	0,480350
14,458667	0,5	0,480750
14,467000	0,5	0,485800
14,475333	0,5	0,497000
14,483667	0,5	0,517250
14,492000	0,5	0,521850
14,500333	0,5	0,514250
14,508667	0,5	0,503600
14,517000	0,5	0,484100
14,525333	0,5	0,464900
14,533667	0,5	0,445200
14,542000	0,5	0,431700
14,550333	0,5	0,414800
14,558667	0,5	0,392450
14,567000	0,5	0,389000
14,575333	0,5	0,372100
14,583667	0,5	0,373950
14,592000	0,5	0,376500
14,600333	0,5	0,376500
14,608667	0,5	0,364900
14,617000	0,5	0,356650
14,625333	0,5	0,357500
14,633667	0,5	0,369350
14,642000	0,5	0,375500
14,650333	0,5	0,386750
14,658667	0,5	0,402800
14,667000	0,5	0,450000
14,675333	0,5	0,521400
14,683667	0,5	0,624350
14,692000	0,5	0,735700
14,700333	0,5	0,834600
14,708667	0,5	0,900750
14,717000	0,5	0,940850
14,725333	0,5	0,881250
14,733667	0,5	0,830100
14,742000	0,5	0,750600
14,750333	0,5	0,694850
14,758667	0,5	0,642600
14,767000	0,5	0,625600
14,775333	0,5	0,665800
14,783667	0,5	0,723250
14,792000	0,5	0,785000
14,800333	0,5	0,822850
14,808667	0,5	0,829400
14,817000	0,5	0,798050
14,825333	0,5	0,745650
14,833667	0,5	0,681000
14,842000	0,5	0,613300
14,850333	0,5	0,558700
14,858667	0,5	0,527750
14,867000	0,5	0,488600
14,875333	0,5	0,459950
14,883667	0,5	0,445650
14,892000	0,5	0,440700
14,900333	0,5	0,421900
14,908667	0,5	0,406850
14,917000	0,5	0,399150
14,925333	0,5	0,411750
14,933667	0,5	0,423800
14,942000	0,5	0,439850
14,950333	0,5	0,446750
14,958667	0,5	0,452600
14,967000	0,5	0,450350
14,975333	0,5	0,444550
14,983667	0,5	0,439500
14,992000	0,5	0,429500
15,000333	0,5	0,435650
15,008667	0,5	0,429700
15,017000	0,5	0,414750
15,025333	0,5	0,403300
15,033667	0,5	0,395450
15,042000	0,5	0,370500
15,050333	0,5	0,355750
15,058667	0,5	0,315950
15,067000	0,5	0,302650
15,075333	0,5	0,293950
15,083667	0,5	0,290000
15,092000	0,5	0,277650
15,100333	0,5	0,276300
15,108667	0,5	0,269400
15,117000	0,5	0,259100
15,125333	0,5	0,255850
15,133667	0,5	0,245250
15,142000	0,5	0,241900
15,150333	0,5	0,253500
15,158667	0,5	0,260350
15,167000	0,5	0,273600
15,175333	0,5	0,320750
15,183667	0,5	0,392500
15,192000	0,5	0,485500
15,200333	0,5	0,596500
15,208667	0,5	0,707400
15,217000	0,5	0,795500
15,225333	0,5	0,831250
15,233667	0,5	0,796900
15,242000	0,5	0,742650
15,250333	0,5	0,676550
15,258667	0,5	0,637950
15,267000	0,5	0,630350
15,275333	0,5	0,662400
15,283667	0,5	0,703200
15,292000	0,5	0,746450
15,300333	0,5	0,762550
15,308667	0,5	0,729950
15,317000	0,5	0,661100
15,325333	0,5	0,591500
15,333667	0,5	0,526750
15,342000	0,5	0,464750
15,350333	0,5	0,418250
15,358667	0,5	0,393350
15,367000	0,5	0,400050
15,375333	0,5	0,390950
15,383667	0,5	0,391250
15,392000	0,5	0,378050
15,400333	0,5	0,369450
15,408667	0,5	0,354150
15,417000	0,5	0,350850
15,425333	0,5	0,333050
15,433667	0,5	0,321950
15,442000	0,5	0,323300
15,450333	0,5	0,328750
15,458667	0,5	0,304300
15,467000	0,5	0,306350
15,475333	0,5	0,297100
15,483667	0,5	0,274750
15,492000	0,5	0,239300
15,500333	0,5	0,195200
15,508667	0,5	0,181900
15,517000	0,5	0,165050
15,525333	0,5	0,150150
15,533667	0,5	0,135850
15,542000	0,5	0,123550
15,550333	0,5	0,111450
15,558667	0,5	0,099400
15,567000	0,5	0,092200
15,575333	0,5	0,080650
15,583667	0,5	0,077350
15,592000	0,5	0,070950
15,600333	0,5	0,075400
15,608667	0,5	0,079550
15,617000	0,5	0,116450
15,625333	0,5	0,165350
15,633667	0,5	0,237600
15,642000	0,5	0,330750
15,650333	0,5	0,443700
15,658667	0,5	0,571600
15,667000	0,5	0,664500
15,675333	0,5	0,685900
15,683667	0,5	0,670550
15,692000	0,5	0,625200
15,700333	0,5	0,586400
15,708667	0,5	0,571300
15,717000	0,5	0,592250
15,725333	0,5	0,609150
15,733667	0,5	0,622800
15,742000	0,5	0,610050
15,750333	0,5	0,564650
15,758667	0,5	0,496000
15,767000	0,5	0,431550
15,775333	0,5	0,364400
15,783667	0,5	0,300750
15,792000	0,5	0,244800
15,800333	0,5	0,186550
15,808667	0,5	0,174400
15,817000	0,5	0,162300
15,825333	0,5	0,157000
15,833667	0,5	0,164050
15,842000	0,5	0,168350
15,850333	0,5	0,183850
15,858667	0,5	0,195450
15,867000	0,5	0,195500
15,875333	0,5	0,184350
15,883667	0,5	0,177850
15,892000	0,5	0,171550
15,900333	0,5	0,128900
15,908667	0,5	0,109550
15,917000	0,5	0,089250
15,925333	0,5	0,061750
15,933667	0,5	0,028950
15,942000	0,5	-0,003450
15,950333	0,5	-0,018150
15,958667	0,5	-0,029750
15,967000	0,5	-0,031200
15,975333	0,5	-0,039100
15,983667	0,5	-0,036600
15,992000	0,5	-0,039650
16,000333	0,5	-0,050750
16,008667	0,5	-0,053200
16,017000	0,5	-0,038700
16,025333	0,5	-0,010900
16,033667	0,5	0,049400
16,042000	0,5	0,129100
16,050333	0,5	0,231400
16,058667	0,5	0,369450
16,067000	0,5	0,498300
16,075333	0,5	0,572050
16,083667	0,5	0,591100
16,092000	0,5	0,570650
16,100333	0,5	0,547750
16,108667	0,5	0,541300
16,117000	0,5	0,549200
16,125333	0,5	0,552100
16,133667	0,5	0,542400
16,142000	0,5	0,499850
16,150333	0,5	0,434150
16,158667	0,5	0,351700
16,167000	0,5	0,274150
16,175333	0,5	0,219950
16,183667	0,5	0,180650
16,192000	0,5	0,139200
16,200333	0,5	0,132300
16,208667	0,5	0,135550
16,217000	0,5	0,131650
16,225333	0,5	0,132450
16,233667	0,5	0,111200
16,242000	0,5	0,114600
16,250333	0,5	0,116000
16,258667	0,5	0,113650
16,267000	0,5	0,096450
16,275333	0,5	0,082500
16,283667	0,5	0,049100
16,292000	0,5	0,028300
16,300333	0,5	0,003100
16,308667	0,5	-0,018350
16,317000	0,5	-0,050300
16,325333	0,5	-0,068900
16,333667	0,5	-0,081550
16,342000	0,5	-0,115700
16,350333	0,5	-0,111050
16,358667	0,5	-0,121800
16,367000	0,5	-0,129950
16,375333	0,5	-0,145200
16,383667	0,5	-0,160400
16,392000	0,5	-0,123350
16,400333	0,5	-0,054400
16,408667	0,5	0,035200
16,417000	0,5	0,148350
16,425333	0,5	0,281000
16,433667	0,5	0,401450
16,442000	0,5	0,486750
16,450333	0,5	0,524500
16,458667	0,5	0,527200
16,467000	0,5	0,507200
16,475333	0,5	0,506100
16,483667	0,5	0,480550
16,492000	0,5	0,439050
16,500333	0,5	0,405850
16,508667	0,5	0,356250
16,517000	0,5	0,294400
16,525333	0,5	0,237400
16,533667	0,5	0,199500
16,542000	0,5	0,213350
16,550333	0,5	0,225400
16,558667	0,5	0,246550
16,567000	0,5	0,245800
16,575333	0,5	0,264400
16,583667	0,5	0,264400
16,592000	0,5	0,272000
16,600333	0,5	0,260950
16,608667	0,5	0,249000
16,617000	0,5	0,241200
16,625333	0,5	0,236850
16,633667	0,5	0,215500
16,642000	0,5	0,209350
16,650333	0,5	0,204750
16,658667	0,5	0,187000
16,667000	0,5	0,151700
16,675333	0,5	0,102900
16,683667	0,5	0,069100
16,692000	0,5	0,039150
16,700333	0,5	0,011650
16,708667	0,5	-0,010300
16,717000	0,5	-0,017050
16,725333	0,5	-0,002850
16,733667	0,5	0,047700
16,742000	0,5	0,127950
16,750333	0,5	0,237500
16,758667	0,5	0,334300
16,767000	0,5	0,400550
16,775333	0,5	0,441200
16,783667	0,5	0,430400
16,792000	0,5	0,430450
16,800333	0,5	0,408600
16,808667	0,5	0,371750
16,817000	0,5	0,316250
16,825333	0,5	0,245800
16,833667	0,5	0,167800
16,842000	0,5	0,123450
16,850333	0,5	0,075300
16,858667	0,5	0,039400
16,867000	0,5	0,020700
16,875333	0,5	0,013750
16,883667	0,5	-0,000900
16,892000	0,5	-0,000850
16,900333	0,5	-0,010050
16,908667	0,5	-0,017000
16,917000	0,5	-0,022850
16,925333	0,5	-0,027650
16,933667	0,5	-0,055900
16,942000	0,5	-0,060850
16,950333	0,5	-0,073750
16,958667	0,5	-0,085350
16,967000	0,5	-0,121000
16,975333	0,5	-0,142650
16,983667	0,5	-0,127750
16,992000	0,5	-0,120150
17,000333	0,5	-0,096250
17,008667	0,5	-0,066100
17,017000	0,5	-0,014600
17,025333	0,5	0,057700
17,033667	0,5	0,171250
17,042000	0,5	0,303900
17,050333	0,5	0,483100
17,058667	0,5	0,678500
17,067000	0,5	0,881850
17,075333	0,5	1,060150
17,083667	0,5	1,247650
17,092000	0,5	1,439000
17,100333	0,5	1,618700
17,108667	0,5	1,779700
17,117000	0,5	1,909700
17,125333	0,5	2,032400
17,133667	0,5	2,142200
17,142000	0,5	2,228350
17,150333	0,5	2,309050
17,158667	0,5	2,384700
17,167000	0,5	2,444750
17,175333	0,5	2,477450
17,183667	0,5	2,473650
17,192000	0,5	2,422900
17,200333	0,5	2,313350
17,208667	0,5	2,175400
17,217000	0,5	1,988050
17,225333	0,5	1,771300
17,233667	0,5	1,566050
17,242000	0,5	1,354950
17,250333	0,5	1,150150
17,258667	0,5	0,979750
17,267000	0,5	0,823750
17,275333	0,5	0,725050
17,283667	0,5	0,643300
17,292000	0,5	0,594600
17,300333	0,5	0,567700
17,308667	0,5	0,578350
17,317000	0,5	0,606350
17,325333	0,5	0,659350
17,333667	0,5	0,713700
17,342000	0,5	0,745200
17,350333	0,5	0,759750
17,358667	0,5	0,772050
17,367000	0,5	0,759850
17,375333	0,5	0,737400
17,383667	0,5	0,729800
17,392000	0,5	0,711950
17,400333	0,5	0,699300
17,408667	0,5	0,676650
17,417000	0,5	0,668750
17,425333	0,5	0,683400
17,433667	0,5	0,702000
17,442000	0,5	0,700550
17,450333	0,5	0,693050
17,458667	0,5	0,672150
17,467000	0,5	0,639800
17,475333	0,5	0,598950
17,483667	0,5	0,543550
17,492000	0,5	0,474800
17,500333	0,5	0,405550
17,508667	0,5	0,351300
17,517000	0,5	0,276850
17,525333	0,5	0,224850
17,533667	0,5	0,187350
17,542000	0,5	0,167450
17,550333	0,5	0,156900
17,558667	0,5	0,146600
17,567000	0,5	0,184200
17,575333	0,5	0,244100
17,583667	0,5	0,278700
17,592000	0,5	0,300850
17,600333	0,5	0,292100
17,608667	0,5	0,273200
17,617000	0,5	0,228950
17,625333	0,5	0,176700
17,633667	0,5	0,119100
17,642000	0,5	0,064450
17,650333	0,5	0,038950
17,658667	0,5	-0,000650
17,667000	0,5	-0,043150
17,675333	0,5	-0,053150
17,683667	0,5	-0,076050
17,692000	0,5	-0,104950
17,700333	0,5	-0,130850
17,708667	0,5	-0,173050
17,717000	0,5	-0,183500
17,725333	0,5	-0,197300
17,733667	0,5	-0,200350
17,742000	0,5	-0,212750
17,750333	0,5	-0,211200
17,758667	0,5	-0,211050
17,767000	0,5	-0,204300
17,775333	0,5	-0,175150
17,783667	0,5	-0,134750
17,792000	0,5	-0,080600
17,800333	0,5	-0,013500
17,808667	0,5	0,037200
17,817000	0,5	0,053250
17,825333	0,5	0,079050
17,833667	0,5	0,063700
17,842000	0,5	0,036450
17,850333	0,5	-0,018100
17,858667	0,5	-0,077900
17,867000	0,5	-0,119850
17,875333	0,5	-0,139850
17,883667	0,5	-0,173950
17,892000	0,5	-0,187200
17,900333	0,5	-0,209050
17,908667	0,5	-0,219200
17,917000	0,5	-0,229100
17,925333	0,5	-0,235600
17,933667	0,5	-0,242450
17,942000	0,5	-0,241850
17,950333	0,5	-0,234050
17,958667	0,5	-0,229950
17,967000	0,5	-0,223300
17,975333	0,5	-0,192000
17,983667	0,5	-0,162250
17,992000	0,5	-0,123400
18,000333	0,5	-0,083200
18,008667	0,5	-0,040000
18,017000	0,5	0,009050
18,025333	0,5	0,026500
18,033667	0,5	0,027300
18,042000	0,5	-0,005900
18,050333	0,5	-0,035600
18,058667	0,5	-0,082050
18,067000	0,5	-0,107000
18,075333	0,5	-0,142050
18,083667	0,5	-0,162650
18,092000	0,5	-0,174300
18,100333	0,5	-0,194900
18,108667	0,5	-0,220150
18,117000	0,5	-0,218000
18,125333	0,5	-0,220500
18,133667	0,5	-0,226850
18,142000	0,5	-0,241700
18,150333	0,5	-0,252350
18,158667	0,5	-0,232900
18,167000	0,5	-0,212500
18,175333	0,5	-0,176200
18,183667	0,5	-0,137700
18,192000	0,5	-0,084900
18,200333	0,5	-0,053150
18,208667	0,5	-0,030450
18,217000	0,5	-0,037500
18,225333	0,5	-0,054650
18,233667	0,5	-0,091700
18,242000	0,5	-0,114650
18,250333	0,5	-0,172450
18,258667	0,5	-0,173350
18,267000	0,5	-0,187400
18,275333	0,5	-0,195500
18,283667	0,5	-0,217350
18,292000	0,5	-0,254350
18,300333	0,5	-0,254400
18,308667	0,5	-0,252300
18,317000	0,5	-0,247750
18,325333	0,5	-0,249800
18,333667	0,5	-0,230550
18,342000	0,5	-0,219750
18,350333	0,5	-0,198450
18,358667	0,5	-0,167750
18,367000	0,5	-0,142000
18,375333	0,5	-0,127100
18,383667	0,5	-0,130900
18,392000	0,5	-0,135950
18,400333	0,5	-0,167400
18,408667	0,5	-0,185500
18,417000	0,5	-0,202400
18,425333	0,5	-0,223750
18,433667	0,5	-0,247350
18,442000	0,5	-0,286000
18,450333	0,5	-0,286600
18,458667	0,5	-0,295800
18,467000	0,5	-0,302850
18,475333	0,5	-0,308300
18,483667	0,5	-0,308350
18,492000	0,5	-0,312100
18,500333	0,5	-0,306950
18,508667	0,5	-0,290000
18,517000	0,5	-0,281100
18,525333	0,5	-0,272900
18,533667	0,5	-0,256300
18,542000	0,5	-0,242150
18,550333	0,5	-0,266700
18,558667	0,5	-0,259850
18,567000	0,5	-0,280150
18,575333	0,5	-0,308500
18,583667	0,5	-0,351500
18,592000	0,5	-0,396650
18,600333	0,5	-0,390300
18,608667	0,5	-0,397950
18,617000	0,5	-0,414600
18,625333	0,5	-0,418900
18,633667	0,5	-0,425250
18,642000	0,5	-0,438700
18,650333	0,5	-0,432950
18,658667	0,5	-0,434550
18,667000	0,5	-0,415400
18,675333	0,5	-0,392050
18,683667	0,5	-0,351500
18,692000	0,5	-0,340900
18,700333	0,5	-0,330550
18,708667	0,5	-0,320750
18,717000	0,5	-0,322100
18,725333	0,5	-0,343850
18,733667	0,5	-0,349550
18,742000	0,5	-0,344450
18,750333	0,5	-0,322900
18,758667	0,5	-0,320350
18,767000	0,5	-0,311050
18,775333	0,5	-0,303900
18,783667	0,5	-0,305800
18,792000	0,5	-0,296300
18,800333	0,5	-0,273650
18,808667	0,5	-0,252900
18,817000	0,5	-0,242000
18,825333	0,5	-0,226450
18,833667	0,5	-0,230050
18,842000	0,5	-0,239600
18,850333	0,5	-0,247450
18,858667	0,5	-0,270350
18,867000	0,5	-0,289800
18,875333	0,5	-0,323350
18,883667	0,5	-0,361500
18,892000	0,5	-0,362350
18,900333	0,5	-0,369000
18,908667	0,5	-0,359900
18,917000	0,5	-0,357150
18,925333	0,5	-0,346150
18,933667	0,5	-0,337200
18,942000	0,5	-0,335150
18,950333	0,5	-0,337250
18,958667	0,5	-0,356950
18,967000	0,5	-0,371900
18,975333	0,5	-0,396250
18,983667	0,5	-0,435850
18,992000	0,5	-0,461650
19,000333	0,5	-0,465450
19,008667	0,5	-0,486600
19,017000	0,5	-0,497700
19,025333	0,5	-0,531400
19,033667	0,5	-0,537300
19,042000	0,5	-0,540100
19,050333	0,5	-0,516450
19,058667	0,5	-0,519300
19,067000	0,5	-0,520400
19,075333	0,5	-0,522600
19,083667	0,5	-0,543800
19,092000	0,5	-0,553800
19,100333	0,5	-0,574300
19,108667	0,5	-0,602900
19,117000	0,5	-0,621250
19,125333	0,5	-0,622150
19,133667	0,5	-0,660350
19,142000	0,5	-0,654300
19,150333	0,5	-0,659750
19,158667	0,5	-0,666200
19,167000	0,5	-0,687450
19,175333	0,5	-0,718650
19,183667	0,5	-0,733700
19,192000	0,5	-0,737600
19,200333	0,5	-0,754150
19,208667	0,5	-0,774850
19,217000	0,5	-0,800700
19,225333	0,5	-0,803800
19,233667	0,5	-0,815950
19,242000	0,5	-0,814950
19,250333	0,5	-0,818500
19,258667	0,5	-0,821950
19,267000	0,5	-0,810300
19,275333	0,5	-0,818300
19,283667	0,5	-0,841350
19,292000	0,5	-0,849200
19,300333	0,5	-0,849550
19,308667	0,5	-0,872350
19,317000	0,5	-0,907100
19,325333	0,5	-0,929200
19,333667	0,5	-0,916000
19,342000	0,5	-0,921850
19,350333	0,5	-0,922750
19,358667	0,5	-0,929150
19,367000	0,5	-0,926250
19,375333	0,5	-0,946300
19,383667	0,5	-0,952800
19,392000	0,5	-0,960750
19,400333	0,5	-0,964000
19,408667	0,5	-0,969850
19,417000	0,5	-0,966750
19,425333	0,5	-0,999050
19,433667	0,5	-0,983450
19,442000	0,5	-0,984150
19,450333	0,5	-0,989400
19,458667	0,5	-0,993600
19,467000	0,5	-1,027000
19,475333	0,5	-1,030000
19,483667	0,5	-1,033400
19,492000	0,5	-1,036850
19,500333	0,5	-1,051850
19,508667	0,5	-1,051350
19,517000	0,5	-1,066350
19,525333	0,5	-1,077900
19,533667	0,5	-1,097000
19,542000	0,5	-1,102400
19,550333	0,5	-1,119100
19,558667	0,5	-1,121550
19,567000	0,5	-1,121800
19,575333	0,5	-1,152250
19,583667	0,5	-1,132450
19,592000	0,5	-1,143800
19,600333	0,5	-1,154300
19,608667	0,5	-1,180600
19,617000	0,5	-1,218050
19,625333	0,5	-1,221550
19,633667	0,5	-1,206400
19,642000	0,5	-1,212700
19,650333	0,5	-1,211350
19,658667	0,5	-1,214350
19,667000	0,5	-1,217350
19,675333	0,5	-1,232650
19,683667	0,5	-1,231600
19,692000	0,5	-1,244550
19,700333	0,5	-1,255350
19,708667	0,5	-1,253000
19,717000	0,5	-1,264500
19,725333	0,5	-1,290050
19,733667	0,5	-1,291900
19,742000	0,5	-1,304750
19,750333	0,5	-1,325200
19,758667	0,5	-1,354300
19,767000	0,5	-1,384900
19,775333	0,5	-1,378950
19,783667	0,5	-1,391650
19,792000	0,5	-1,405150
19,800333	0,5	-1,422950
19,808667	0,5	-1,429550
19,817000	0,5	-1,447050
19,825333	0,5	-1,453700
19,833667	0,5	-1,460400
19,842000	0,5	-1,468600
19,850333	0,5	-1,471050
19,858667	0,5	-1,464500
19,867000	0,5	-1,484900
19,875333	0,5	-1,487000
19,883667	0,5	-1,496950
19,892000	0,5	-1,507450
19,900333	0,5	-1,528300
19,908667	0,5	-1,562650
19,917000	0,5	-1,572050
19,925333	0,5	-1,576300
19,933667	0,5	-1,583500
19,942000	0,5	-1,595300
19,950333	0,5	-1,591750
19,958667	0,5	-1,596650
19,967000	0,5	-1,605150
19,975333	0,5	-1,618200
19,983667	0,5	-1,624550
19,992000	0,5	-1,653250
20,000333	0,5	-1,644350
20,008667	0,5	-1,655650
20,017000	0,5	-1,680550
20,025333	0,5	-1,691850
20,033667	0,5	-1,708600
20,042000	0,5	-1,731550
20,050333	0,5	-1,774950
20,058667	0,5	-1,793700
20,067000	0,5	-1,816150
20,075333	0,5	-1,815600
20,083667	0,5	-1,826350
20,092000	0,5	-1,841850
20,100333	0,5	-1,855950
20,108667	0,5	-1,867400
20,117000	0,5	-1,879100
20,125333	0,5	-1,884700
20,133667	0,5	-1,903050
20,142000	0,5	-1,907150
20,150333	0,5	-1,903750
20,158667	0,5	-1,913000
20,167000	0,5	-1,920650
20,175333	0,5	-1,917450
20,183667	0,5	-1,928400
20,192000	0,5	-1,938400
20,200333	0,5	-1,971100
20,208667	0,5	-1,982150
20,217000	0,5	-1,975550
20,225333	0,5	-1,990900
20,233667	0,5	-2,002650
20,242000	0,5	-2,011850
20,250333	0,5	-2,039550
20,258667	0,5	-2,057200
20,267000	0,5	-2,063900
20,275333	0,5	-2,081300
20,283667	0,5	-2,099200
20,292000	0,5	-2,099150
20,300333	0,5	-2,101800
20,308667	0,5	-2,135650
20,317000	0,5	-2,137500
20,325333	0,5	-2,150450
20,333667	0,5	-2,177350
20,342000	0,5	-2,207700
20,350333	0,5	-2,269800
20,358667	0,5	-2,272700
20,367000	0,5	-2,281250
20,375333	0,5	-2,303500
20,383667	0,5	-2,320250
20,392000	0,5	-2,335850
20,400333	0,5	-2,355850
20,408667	0,5	-2,370550
20,417000	0,5	-2,395000
20,425333	0,5	-2,421450
20,433667	0,5	-2,442300
20,442000	0,5	-2,423550
20,450333	0,5	-2,448400
20,458667	0,5	-2,469850
20,467000	0,5	-2,490150
20,475333	0,5	-2,503950
20,483667	0,5	-2,542300
20,492000	0,5	-2,580700
20,500333	0,5	-2,606700
20,508667	0,5	-2,617800
20,517000	0,5	-2,622150
20,525333	0,5	-2,636850
20,533667	0,5	-2,640200
20,542000	0,5	-2,653600
20,550333	0,5	-2,676850
20,558667	0,5	-2,710800
20,567000	0,5	-2,748050
20,575333	0,5	-2,793900
20,583667	0,5	-2,805500
20,592000	0,5	-2,831750
20,600333	0,5	-2,868800
20,608667	0,5	-2,903550
20,617000	0,5	-2,932950
20,625333	0,5	-2,965350
20,633667	0,5	-3,014900
20,642000	0,5	-3,082500
20,650333	0,5	-3,111950
20,658667	0,5	-3,136000
20,667000	0,5	-3,173800
20,675333	0,5	-3,198350
20,683667	0,5	-3,206450
20,692000	0,5	-3,216250
20,700333	0,5	-3,213050
20,708667	0,5	-3,212500
20,717000	0,5	-3,205700
20,725333	0,5	-3,208700
20,733667	0,5	-3,211400
20,742000	0,5	-3,236350
20,750333	0,5	-3,298950
20,758667	0,5	-3,354500
20,767000	0,5	-3,427250
20,775333	0,5	-3,490400
20,783667	0,5	-3,564900
20,792000	0,5	-3,625750
20,800333	0,5	-3,659950
20,808667	0,5	-3,692800
20,817000	0,5	-3,740150
20,825333	0,5	-3,769650
20,833667	0,5	-3,811250
20,842000	0,5	-3,841550
20,850333	0,5	-3,872100
20,858667	0,5	-3,905300
20,867000	0,5	-3,930950
20,875333	0,5	-3,954650
20,883667	0,5	-3,949500
20,892000	0,5	-3,962900
20,900333	0,5	-3,987600
20,908667	0,5	-4,022200
20,917000	0,5	-4,066300
20,925333	0,5	-4,126650
20,933667	0,5	-4,192850
20,942000	0,5	-4,246100
20,950333	0,5	-4,279000
20,958667	0,5	-4,310350
20,967000	0,5	-4,339250
20,975333	0,5	-4,381450
20,983667	0,5	-4,405100
20,992000	0,5	-4,436300
21,000333	0,5	-4,464950
21,008667	0,5	-4,497000
21,017000	0,5	-4,520150
21,025333	0,5	-4,524350
21,033667	0,5	-4,529600
21,042000	0,5	-4,556500
21,050333	0,5	-4,594500
21,058667	0,5	-4,622300
21,067000	0,5	-4,663650
21,075333	0,5	-4,709100
21,083667	0,5	-4,770300
21,092000	0,5	-4,795000
21,100333	0,5	-4,816450
21,108667	0,5	-4,840500
21,117000	0,5	-4,873750
21,125333	0,5	-4,888100
21,133667	0,5	-4,928950
21,142000	0,5	-4,955550
21,150333	0,5	-4,983500
21,158667	0,5	-5,003700
21,167000	0,5	-5,013600
21,175333	0,5	-5,019550
21,183667	0,5	-5,018900
21,192000	0,5	-5,053650
21,200333	0,5	-5,073200
21,208667	0,5	-5,099550
21,217000	0,5	-5,130650
21,225333	0,5	-5,181100
21,233667	0,5	-5,195700
21,242000	0,5	-5,210800
21,250333	0,5	-5,227300
21,258667	0,5	-5,246050
21,267000	0,5	-5,241500
21,275333	0,5	-5,253950
21,283667	0,5	-5,249100
21,292000	0,5	-5,260800
21,300333	0,5	-5,273250
21,308667	0,5	-5,291150
21,317000	0,5	-5,291450
21,325333	0,5	-5,293550
21,333667	0,5	-5,315200
21,342000	0,5	-5,346000
21,350333	0,5	-5,375050
21,358667	0,5	-5,403950
21,367000	0,5	-5,448100
21,375333	0,5	-5,486150
21,383667	0,5	-5,493000
21,392000	0,5	-5,509500
21,400333	0,5	-5,533900
21,408667	0,5	-5,537300
21,417000	0,5	-5,552050
21,425333	0,5	-5,559550
21,433667	0,5	-5,576950
21,442000	0,5	-5,586900
21,450333	0,5	-5,602450
21,458667	0,5	-5,618750
21,467000	0,5	-5,589400
21,475333	0,5	-5,593650
21,483667	0,5	-5,607200
21,492000	0,5	-5,624250
21,500333	0,5	-5,647950
21,508667	0,5	-5,677950
21,517000	0,5	-5,712850
21,525333	0,5	-5,723950
21,533667	0,5	-5,723150
21,542000	0,5	-5,736550
21,550333	0,5	-5,747500
21,558667	0,5	-5,763400
21,567000	0,5	-5,774600
21,575333	0,5	-5,788100
21,583667	0,5	-5,786950
21,592000	0,5	-5,790650
21,600333	0,5	-5,807550
21,608667	0,5	-5,785250
21,617000	0,5	-5,757700
21,625333	0,5	-5,763750
21,633667	0,5	-5,760650
21,642000	0,5	-5,757500
21,650333	0,5	-5,766800
21,658667	0,5	-5,770500
21,667000	0,5	-5,791400
21,675333	0,5	-5,777600
21,683667	0,5	-5,792050
21,692000	0,5	-5,809350
21,700333	0,5	-5,843350
21,708667	0,5	-5,867900
21,717000	0,5	-5,872850
21,725333	0,5	-5,887150
21,733667	0,5	-5,894600
21,742000	0,5	-5,913850
21,750333	0,5	-5,933350
21,758667	0,5	-5,929850
21,767000	0,5	-5,941850
21,775333	0,5	-5,976000
21,783667	0,5	-5,984500
21,792000	0,5	-6,017600
21,800333	0,5	-6,032900
21,808667	0,5	-6,086100
21,817000	0,5	-6,118650
21,825333	0,5	-6,121650
21,833667	0,5	-6,120150
21,842000	0,5	-6,138650
21,850333	0,5	-6,148850
21,858667	0,5	-6,161250
21,867000	0,5	-6,181300
21,875333	0,5	-6,192800
21,883667	0,5	-6,213450
21,892000	0,5	-6,237450
21,900333	0,5	-6,239050
21,908667	0,5	-6,227650
21,917000	0,5	-6,235600
21,925333	0,5	-6,206300
21,933667	0,5	-6,179950
21,942000	0,5	-6,174250
21,950333	0,5	-6,206800
21,958667	0,5	-6,242050
21,967000	0,5	-6,274500
21,975333	0,5	-6,309750
21,983667	0,5	-6,345050
21,992000	0,5	-6,374050
22,000333	0,5	-6,402900
22,008667	0,5	-6,437100
22,017000	0,5	-6,462800
22,025333	0,5	-6,493100
22,033667	0,5	-6,516050
22,042000	0,5	-6,538100
22,050333	0,5	-6,550400
22,058667	0,5	-6,586100
22,067000	0,5	-6,594400
22,075333	0,5	-6,602450
22,083667	0,5	-6,624800
22,092000	0,5	-6,651300
22,100333	0,5	-6,695750
22,108667	0,5	-6,713000
22,117000	0,5	-6,726000
22,125333	0,5	-6,737100
22,133667	0,5	-6,755200
22,142000	0,5	-6,762050
22,150333	0,5	-6,775500
22,158667	0,5	-6,783750
22,167000	0,5	-6,801200
22,175333	0,5	-6,815500
22,183667	0,5	-6,827200
22,192000	0,5	-6,832450
22,200333	0,5	-6,855500
22,208667	0,5	-6,874300
22,217000	0,5	-6,861650
22,225333	0,5	-6,860600
22,233667	0,5	-6,865200
22,242000	0,5	-6,881300
22,250333	0,5	-6,904800
22,258667	0,5	-6,890800
22,267000	0,5	-6,889000
22,275333	0,5	-6,871550
22,283667	0,5	-6,881450
22,292000	0,5	-6,869250
22,300333	0,5	-6,859150
22,308667	0,5	-6,855800
22,317000	0,5	-6,842700
22,325333	0,5	-6,842650
22,333667	0,5	-6,837800
22,342000	0,5	-6,846150
22,350333	0,5	-6,832950
22,358667	0,5	-6,765050
22,367000	0,5	-6,684200
22,375333	0,5	-6,630150
22,383667	0,5	-6,627150
22,392000	0,5	-6,674050
22,400333	0,5	-6,711350
22,408667	0,5	-6,744750
22,417000	0,5	-6,777050
22,425333	0,5	-6,810450
22,433667	0,5	-6,827800
22,442000	0,5	-6,850050
22,450333	0,5	-6,866100
22,458667	0,5	-6,876200
22,467000	0,5	-6,883550
22,475333	0,5	-6,891350
22,483667	0,5	-6,924150
22,492000	0,5	-6,931750
22,500333	0,5	-6,946450
22,508667	0,5	-6,909350
22,517000	0,5	-6,905750
22,525333	0,5	-6,898100
22,533667	0,5	-6,911000
22,542000	0,5	-6,925500
22,550333	0,5	-6,901400
22,558667	0,5	-6,858350
22,567000	0,5	-6,832750
22,575333	0,5	-6,810750
22,583667	0,5	-6,786900
22,592000	0,5	-6,773850
22,600333	0,5	-6,763400
22,608667	0,5	-6,751700
22,617000	0,5	-6,747900
22,625333	0,5	-6,754600
22,633667	0,5	-6,820350
22,642000	0,5	-6,826200
22,650333	0,5	-6,802450
22,658667	0,5	-6,794350
22,667000	0,5	-6,812850
22,675333	0,5	-6,839150
22,683667	0,5	-6,859350
22,692000	0,5	-6,899950
22,700333	0,5	-6,903900
22,708667	0,5	-6,916850
22,717000	0,5	-6,935950
22,725333	0,5	-6,952000
22,733667	0,5	-6,963250
22,742000	0,5	-6,990800
22,750333	0,5	-6,996850
22,758667	0,5	-7,012200
22,767000	0,5	-7,036800
22,775333	0,5	-7,075500
22,783667	0,5	-7,145050
22,792000	0,5	-7,125400
22,800333	0,5	-7,117900
22,808667	0,5	-7,120450
22,817000	0,5	-7,142800
22,825333	0,5	-7,155350
22,833667	0,5	-7,167100
22,842000	0,5	-7,202400
22,850333	0,5	-7,205750
22,858667	0,5	-7,224250
22,867000	0,5	-7,245100
22,875333	0,5	-7,238750
22,883667	0,5	-7,239850
22,892000	0,5	-7,238900
22,900333	0,5	-7,244700
22,908667	0,5	-7,223250
22,917000	0,5	-7,215600
22,925333	0,5	-7,185850
22,933667	0,5	-7,170250
22,942000	0,5	-7,143450
22,950333	0,5	-7,165500
22,958667	0,5	-7,147800
22,967000	0,5	-7,130700
22,975333	0,5	-7,084550
22,983667	0,5	-7,061500
22,992000	0,5	-7,040400
23,000333	0,5	-7,014650
23,008667	0,5	-6,970050
23,017000	0,5	-6,933450
23,025333	0,5	-6,873700
23,033667	0,5	-6,819200
23,042000	0,5	-6,755950
23,050333	0,5	-6,691050
23,058667	0,5	-6,624000
23,067000	0,5	-6,525000
23,075333	0,5	-6,438450
23,083667	0,5	-6,368050
23,092000	0,5	-6,328100
23,100333	0,5	-6,285000
23,108667	0,5	-6,210850
23,117000	0,5	-6,130200
23,125333	0,5	-6,045050
23,133667	0,5	-5,975950
23,142000	0,5	-5,918750
23,150333	0,5	-5,839550
23,158667	0,5	-5,778150
23,167000	0,5	-5,701000
23,175333	0,5	-5,626450
23,183667	0,5	-5,536850
23,192000	0,5	-5,451200
23,200333	0,5	-5,365800
23,208667	0,5	-5,267800
23,217000	0,5	-5,150950
23,225333	0,5	-5,088000
23,233667	0,5	-4,964300
23,242000	0,5	-4,913500
23,250333	0,5	-4,860400
23,258667	0,5	-4,774000
23,267000	0,5	-4,705500
23,275333	0,5	-4,615300
23,283667	0,5	-4,558500
23,292000	0,5	-4,489300
23,300333	0,5	-4,435250
23,308667	0,5	-4,352000
23,317000	0,5	-4,306350
23,325333	0,5	-4,221550
23,333667	0,5	-4,155450
23,342000	0,5	-4,091100
23,350333	0,5	-4,011550
23,358667	0,5	-3,936550
23,367000	0,5	-3,923600
23,375333	0,5	-3,826950
23,383667	0,5	-3,717150
23,392000	0,5	-3,661400
23,400333	0,5	-3,624550
23,408667	0,5	-3,561900
23,417000	0,5	-3,496950
23,425333	0,5	-3,443200
23,433667	0,5	-3,405100
23,442000	0,5	-3,362900
23,450333	0,5	-3,311000
23,458667	0,5	-3,281900
23,467000	0,5	-3,234550
23,475333	0,5	-3,197950
23,483667	0,5	-3,151000
23,492000	0,5	-3,105750
23,500333	0,5	-3,057950
23,508667	0,5	-3,049950
23,517000	0,5	-3,089450
23,525333	0,5	-3,025950
23,533667	0,5	-2,931450
23,542000	0,5	-2,886000
23,550333	0,5	-2,855300
23,558667	0,5	-2,825050
23,567000	0,5	-2,788150
23,575333	0,5	-2,758550
23,583667	0,5	-2,732900
23,592000	0,5	-2,704000
23,600333	0,5	-2,677900
23,608667	0,5	-2,646350
23,617000	0,5	-2,611750
23,625333	0,5	-2,581000
23,633667	0,5	-2,555100
23,642000	0,5	-2,525450
23,650333	0,5	-2,498100
23,658667	0,5	-2,628800
23,667000	0,5	-2,577050
23,675333	0,5	-2,542250
23,683667	0,5	-2,448600
23,692000	0,5	-2,413400
23,700333	0,5	-2,377200
23,708667	0,5	-2,352500
23,717000	0,5	-2,340700
23,725333	0,5	-2,317100
23,733667	0,5	-2,292350
23,742000	0,5	-2,266000
23,750333	0,5	-2,243300
23,758667	0,5	-2,223350
23,767000	0,5	-2,200400
23,775333	0,5	-2,173150
23,783667	0,5	-2,139200
23,792000	0,5	-2,117550
23,800333	0,5	-2,102300
23,808667	0,5	-2,258000
23,817000	0,5	-2,213150
23,825333	0,5	-2,139100
23,833667	0,5	-2,059200
23,842000	0,5	-2,010500
23,850333	0,5	-2,010500
23,858667	0,5	-1,961950
23,867000	0,5	-1,969950
23,875333	0,5	-1,938250
23,883667	0,5	-1,903300
23,892000	0,5	-1,878000
23,900333	0,5	-1,855250
23,908667	0,5	-1,831350
23,917000	0,5	-1,805100
23,925333	0,5	-1,782450
23,933667	0,5	-1,750150
23,942000	0,5	-1,731150
23,950333	0,5	-1,796950
23,958667	0,5	-1,865500
23,967000	0,5	-1,813350
23,975333	0,5	-1,751750
23,983667	0,5	-1,684100
23,992000	0,5	-1,654450
24,000333	0,5	-1,623250
24,008667	0,5	-1,609600
24,017000	0,5	-1,591750
24,025333	0,5	-1,563550
24,033667	0,5	-1,533400
24,042000	0,5	-1,509100
24,050333	0,5	-1,476000
24,058667	0,5	-1,448150
24,067000	0,5	-1,427800
24,075333	0,5	-1,399450
24,083667	0,5	-1,371250
24,092000	0,5	-1,348050
24,100333	0,5	-1,481000
24,108667	0,5	-1,452950
24,117000	0,5	-1,418050
24,125333	0,5	-1,353200
24,133667	0,5	-1,309250
24,142000	0,5	-1,279600
24,150333	0,5	-1,266150
24,158667	0,5	-1,262850
24,167000	0,5	-1,242500
24,175333	0,5	-1,212550
24,183667	0,5	-1,195300
24,192000	0,5	-1,171950
24,200333	0,5	-1,144550
24,208667	0,5	-1,119350
24,217000	0,5	-1,100950
24,225333	0,5	-1,073250
24,233667	0,5	-1,047700
24,242000	0,5	-1,060500
24,250333	0,5	-1,123350
24,258667	0,5	-1,113600
24,267000	0,5	-1,061350
24,275333	0,5	-1,019300
24,283667	0,5	-0,978850
24,292000	0,5	-0,956450
24,300333	0,5	-0,948550
24,308667	0,5	-0,937600
24,317000	0,5	-0,908900
24,325333	0,5	-0,888300
24,333667	0,5	-0,869100
24,342000	0,5	-0,856550
24,350333	0,5	-0,835200
24,358667	0,5	-0,826850
24,367000	0,5	-0,805250
24,375333	0,5	-0,794550
24,383667	0,5	-0,782100
24,392000	0,5	-0,833250
24,400333	0,5	-0,840950
24,408667	0,5	-0,828450
24,417000	0,5	-0,780100
24,425333	0,5	-0,748900
24,433667	0,5	-0,725400
24,442000	0,5	-0,709550
24,450333	0,5	-0,714600
24,458667	0,5	-0,693250
24,467000	0,5	-0,679700
24,475333	0,5	-0,660450
24,483667	0,5	-0,653850
24,492000	0,5	-0,633350
24,500333	0,5	-0,624100
24,508667	0,5	-0,597850
24,517000	0,5	-0,582750
24,525333	0,5	-0,561600
24,533667	0,5	-0,557800
24,542000	0,5	-0,626000
24,550333	0,5	-0,603850
24,558667	0,5	-0,590500
24,567000	0,5	-0,555150
24,575333	0,5	-0,535650
24,583667	0,5	-0,526350
24,592000	0,5	-0,525050
24,600333	0,5	-0,532900
24,608667	0,5	-0,516950
24,617000	0,5	-0,501350
24,625333	0,5	-0,493300
24,633667	0,5	-0,482000
24,642000	0,5	-0,475350
24,650333	0,5	-0,461400
24,658667	0,5	-0,457550
24,667000	0,5	-0,441500
24,675333	0,5	-0,425200
24,683667	0,5	-0,433350
24,692000	0,5	-0,461650
24,700333	0,5	-0,444200
24,708667	0,5	-0,427700
24,717000	0,5	-0,397300
24,725333	0,5	-0,383850
24,733667	0,5	-0,372750
24,742000	0,5	-0,376150
24,750333	0,5	-0,379400
24,758667	0,5	-0,365800
24,767000	0,5	-0,358250
24,775333	0,5	-0,352700
24,783667	0,5	-0,351200
24,792000	0,5	-0,346650
24,800333	0,5	-0,346800
24,808667	0,5	-0,336000
24,817000	0,5	-0,329800
24,825333	0,5	-0,324250
24,833667	0,5	-0,349300
24,842000	0,5	-0,343400
24,850333	0,5	-0,339050
24,858667	0,5	-0,317950
24,867000	0,5	-0,304600
24,875333	0,5	-0,295850
24,883667	0,5	-0,290450
24,892000	0,5	-0,294900
24,900333	0,5	-0,288300
24,908667	0,5	-0,277150
24,917000	0,5	-0,271650
24,925333	0,5	-0,260400
24,933667	0,5	-0,258100
24,942000	0,5	-0,251950
24,950333	0,5	-0,248550
24,958667	0,5	-0,240800
24,967000	0,5	-0,239150
24,975333	0,5	-0,236500
24,983667	0,5	-0,251850
24,992000	0,5	-0,248150
25,000333	0,5	-0,246050
25,008667	0,5	-0,240400
25,017000	0,5	-0,237400
25,025333	0,5	-0,233500
25,033667	0,5	-0,231800
25,042000	0,5	-0,233050
25,050333	0,5	-0,226200
25,058667	0,5	-0,226900
25,067000	0,5	-0,221650
25,075333	0,5	-0,217550
25,083667	0,5	-0,208550
25,092000	0,5	-0,208600
25,100333	0,5	-0,208150
25,108667	0,5	-0,201700
25,117000	0,5	-0,193050
25,125333	0,5	-0,189150
25,133667	0,5	-0,193700
25,142000	0,5	-0,186900
25,150333	0,5	-0,183300
25,158667	0,5	-0,179350
25,167000	0,5	-0,176550
25,175333	0,5	-0,176000
25,183667	0,5	-0,181400
25,192000	0,5	-0,180150
25,200333	0,5	-0,183000
25,208667	0,5	-0,180500
25,217000	0,5	-0,180150
25,225333	0,5	-0,182950
25,233667	0,5	-0,182200
25,242000	0,5	-0,180750
25,250333	0,5	-0,175250
25,258667	0,5	-0,168550
25,267000	0,5	-0,170050
25,275333	0,5	-0,166500
25,283667	0,5	-0,158050
25,292000	0,5	-0,158000
25,300333	0,5	-0,156700
25,308667	0,5	-0,152850
25,317000	0,5	-0,151600
25,325333	0,5	-0,154300
25,333667	0,5	-0,149350
25,342000	0,5	-0,146500
25,350333	0,5	-0,146050
25,358667	0,5	-0,147950
25,367000	0,5	-0,146300
25,375333	0,5	-0,151450
25,383667	0,5	-0,149150
25,392000	0,5	-0,150200
25,400333	0,5	-0,151150
25,408667	0,5	-0,151300
25,417000	0,5	-0,150850
25,425333	0,5	-0,142500
25,433667	0,5	-0,147050
25,442000	0,5	-0,140600
25,450333	0,5	-0,143800
25,458667	0,5	-0,140050
25,467000	0,5	-0,142400
25,475333	0,5	-0,137200
25,483667	0,5	-0,131350
25,492000	0,5	-0,134150
25,500333	0,5	-0,132000
25,508667	0,5	-0,138500
25,517000	0,5	-0,130150
25,525333	0,5	-0,134300
25,533667	0,5	-0,134150
25,542000	0,5	-0,133300
25,550333	0,5	-0,138150
25,558667	0,5	-0,135850
25,567000	0,5	-0,135650
25,575333	0,5	-0,128500
25,583667	0,5	-0,128650
25,592000	0,5	-0,128700
25,600333	0,5	-0,143300
25,608667	0,5	-0,135100
25,617000	0,5	-0,142200
25,625333	0,5	-0,135750
25,633667	0,5	-0,133050
25,642000	0,5	-0,132750
25,650333	0,5	-0,140650
25,658667	0,5	-0,141100
25,667000	0,5	-0,142600
25,675333	0,5	-0,137200
25,683667	0,5	-0,139000
25,692000	0,5	-0,135050
25,700333	0,5	-0,138150
25,708667	0,5	-0,133100
25,717000	0,5	-0,119850
25,725333	0,5	-0,120450
25,733667	0,5	-0,123100
25,742000	0,5	-0,122850
25,750333	0,5	-0,131300
25,758667	0,5	-0,135050
25,767000	0,5	-0,131400
25,775333	0,5	-0,128800
25,783667	0,5	-0,116050
25,792000	0,5	-0,121050
25,800333	0,5	-0,122400
25,808667	0,5	-0,121050
25,817000	0,5	-0,119950
25,825333	0,5	-0,123150
25,833667	0,5	-0,123250
25,842000	0,5	-0,122400
25,850333	0,5	-0,119650
25,858667	0,5	-0,117900
25,867000	0,5	-0,106950
25,875333	0,5	-0,106600
25,883667	0,5	-0,090700
25,892000	0,5	-0,104200
25,900333	0,5	-0,107200
25,908667	0,5	-0,100700
25,917000	0,5	-0,095450
25,925333	0,5	-0,078850
25,933667	0,5	-0,077800
25,942000	0,5	-0,082650
25,950333	0,5	-0,085450
25,958667	0,5	-0,080650
25,967000	0,5	-0,078600
25,975333	0,5	-0,080100
25,983667	0,5	-0,072250
25,992000	0,5	-0,068500
26,000333	0,5	-0,064700
