File Path	chrom://chromeleon01/ikbm_chromeleon/2022/ICS-5000/ED1/Esteban/20220427_Cell_Amandas_mutants.seq/238.smp/ED_1.channel/ED_1.chm
Channel	ED_1

Injection Information:
Data Vault	ikbm_chromeleon
Injection	T24h_Avi_3a
Injection Number	47
Position	RE7
Comment	
Processing Method	Stop sequence after Cell Death
Instrument Method	ICS5000_PA200_FullNative_Ox_26min_ED1
Type	Unknown
Status	Finished
Injection Date	28.04.2022
Injection Time	10:54:37
Injection Volume (µl)	5,0
Dilution Factor	1,0000
Weight	1,0000

Chromatogram Data Information:
Time Min. (min)	0,000333
Time Max. (min)	26,000333
Data Points	3121
Detector	EDet1
Generating Data System	Chromeleon 7.2.9.11323
Exporting Data System	Chromeleon 7.2.9.0
Operator	Instrument Controller
Signal Quantity	
Signal Unit	nC
Signal Min.	-8,027450
Signal Max.	50,218001
Channel	ED_1
Driver Name	DC-5000
Channel Type	Evaluation
Min. Step (s)	0,5
Max. Step (s)	0,5
Average Step (s)	0,5

Signal Parameter Information:
Signal Info	

Chromatogram Data:
Time (min)	Step (s)	Value (nC)
0,000333	n.a.	-0,075900
0,008667	0,5	-0,088250
0,017000	0,5	-0,095700
0,025333	0,5	-0,087400
0,033667	0,5	-0,054150
0,042000	0,5	-0,021250
0,050333	0,5	0,006650
0,058667	0,5	-0,013150
0,067000	0,5	-0,009750
0,075333	0,5	0,005550
0,083667	0,5	0,006450
0,092000	0,5	-0,003000
0,100333	0,5	0,002200
0,108667	0,5	-0,009850
0,117000	0,5	-0,002750
0,125333	0,5	-0,009900
0,133667	0,5	0,006800
0,142000	0,5	-0,028600
0,150333	0,5	0,007850
0,158667	0,5	-0,008200
0,167000	0,5	-0,013500
0,175333	0,5	-0,026500
0,183667	0,5	-0,002650
0,192000	0,5	0,027000
0,200333	0,5	0,047600
0,208667	0,5	0,022850
0,217000	0,5	0,024550
0,225333	0,5	0,016800
0,233667	0,5	0,017300
0,242000	0,5	0,014550
0,250333	0,5	0,010300
0,258667	0,5	0,008500
0,267000	0,5	0,004950
0,275333	0,5	0,016150
0,283667	0,5	-0,014400
0,292000	0,5	-0,016250
0,300333	0,5	0,029150
0,308667	0,5	0,054100
0,317000	0,5	0,005700
0,325333	0,5	-0,025100
0,333667	0,5	-0,022300
0,342000	0,5	0,019950
0,350333	0,5	0,020250
0,358667	0,5	0,024950
0,367000	0,5	0,011350
0,375333	0,5	0,011100
0,383667	0,5	-0,001050
0,392000	0,5	0,008550
0,400333	0,5	-0,001050
0,408667	0,5	-0,010850
0,417000	0,5	-0,009400
0,425333	0,5	-0,019450
0,433667	0,5	-0,025550
0,442000	0,5	-0,014150
0,450333	0,5	-0,015200
0,458667	0,5	-0,036650
0,467000	0,5	-0,038950
0,475333	0,5	-0,035000
0,483667	0,5	0,002550
0,492000	0,5	0,013800
0,500333	0,5	0,022400
0,508667	0,5	-0,002500
0,517000	0,5	0,014450
0,525333	0,5	-0,002350
0,533667	0,5	0,000700
0,542000	0,5	-0,006200
0,550333	0,5	0,001750
0,558667	0,5	-0,007850
0,567000	0,5	-0,000700
0,575333	0,5	-0,008050
0,583667	0,5	-0,022050
0,592000	0,5	0,005150
0,600333	0,5	-0,007850
0,608667	0,5	-0,020500
0,617000	0,5	-0,023350
0,625333	0,5	-0,013700
0,633667	0,5	0,025850
0,642000	0,5	0,051800
0,650333	0,5	0,031800
0,658667	0,5	0,028500
0,667000	0,5	0,017000
0,675333	0,5	0,022150
0,683667	0,5	0,014450
0,692000	0,5	0,021100
0,700333	0,5	0,010100
0,708667	0,5	0,009800
0,717000	0,5	0,011900
0,725333	0,5	-0,001050
0,733667	0,5	-0,014150
0,742000	0,5	0,040600
0,750333	0,5	0,009650
0,758667	0,5	0,004100
0,767000	0,5	0,008200
0,775333	0,5	0,024550
0,783667	0,5	0,070750
0,792000	0,5	0,051900
0,800333	0,5	0,051650
0,808667	0,5	0,045300
0,817000	0,5	0,051800
0,825333	0,5	0,039750
0,833667	0,5	0,049450
0,842000	0,5	0,056850
0,850333	0,5	0,055150
0,858667	0,5	0,052150
0,867000	0,5	0,062450
0,875333	0,5	0,047750
0,883667	0,5	0,059800
0,892000	0,5	0,080000
0,900333	0,5	0,062050
0,908667	0,5	0,048450
0,917000	0,5	0,060850
0,925333	0,5	0,080700
0,933667	0,5	0,122900
0,942000	0,5	0,113950
0,950333	0,5	0,099050
0,958667	0,5	0,104350
0,967000	0,5	0,095350
0,975333	0,5	0,096650
0,983667	0,5	0,097200
0,992000	0,5	0,106750
1,000333	0,5	0,097050
1,008667	0,5	0,107200
1,017000	0,5	0,116750
1,025333	0,5	0,118300
1,033667	0,5	0,128300
1,042000	0,5	0,152300
1,050333	0,5	0,122050
1,058667	0,5	0,124950
1,067000	0,5	0,121950
1,075333	0,5	0,152800
1,083667	0,5	0,174950
1,092000	0,5	0,158250
1,100333	0,5	0,149650
1,108667	0,5	0,159550
1,117000	0,5	0,156900
1,125333	0,5	0,162450
1,133667	0,5	0,170750
1,142000	0,5	0,172750
1,150333	0,5	0,173950
1,158667	0,5	0,167650
1,167000	0,5	0,194050
1,175333	0,5	0,177150
1,183667	0,5	0,206450
1,192000	0,5	0,189300
1,200333	0,5	0,189450
1,208667	0,5	0,182650
1,217000	0,5	0,212400
1,225333	0,5	0,251950
1,233667	0,5	0,267050
1,242000	0,5	0,262750
1,250333	0,5	0,273450
1,258667	0,5	0,262300
1,267000	0,5	0,265350
1,275333	0,5	0,262650
1,283667	0,5	0,273900
1,292000	0,5	0,274300
1,300333	0,5	0,282700
1,308667	0,5	0,292150
1,317000	0,5	0,288850
1,325333	0,5	0,289950
1,333667	0,5	0,314500
1,342000	0,5	0,306450
1,350333	0,5	0,309550
1,358667	0,5	0,317000
1,367000	0,5	0,347700
1,375333	0,5	0,392050
1,383667	0,5	0,389250
1,392000	0,5	0,402700
1,400333	0,5	0,392700
1,408667	0,5	0,412700
1,417000	0,5	0,407800
1,425333	0,5	0,424000
1,433667	0,5	0,425950
1,442000	0,5	0,441750
1,450333	0,5	0,445150
1,458667	0,5	0,451750
1,467000	0,5	0,450300
1,475333	0,5	0,471700
1,483667	0,5	0,480050
1,492000	0,5	0,470500
1,500333	0,5	0,481550
1,508667	0,5	0,493150
1,517000	0,5	0,533350
1,525333	0,5	0,556450
1,533667	0,5	0,567250
1,542000	0,5	0,569300
1,550333	0,5	0,582200
1,558667	0,5	0,571300
1,567000	0,5	0,535700
1,575333	0,5	0,344650
1,583667	0,5	-0,307800
1,592000	0,5	-1,442500
1,600333	0,5	-1,870250
1,608667	0,5	-0,537800
1,617000	0,5	1,693400
1,625333	0,5	3,835500
1,633667	0,5	6,173850
1,642000	0,5	8,630950
1,650333	0,5	10,181600
1,658667	0,5	10,267300
1,667000	0,5	9,494450
1,675333	0,5	8,504450
1,683667	0,5	7,584350
1,692000	0,5	6,825350
1,700333	0,5	6,195500
1,708667	0,5	5,684050
1,717000	0,5	5,315150
1,725333	0,5	5,109750
1,733667	0,5	4,937950
1,742000	0,5	4,658250
1,750333	0,5	4,239000
1,758667	0,5	3,845350
1,767000	0,5	3,631100
1,775333	0,5	3,809350
1,783667	0,5	4,677900
1,792000	0,5	6,998200
1,800333	0,5	10,787800
1,808667	0,5	14,644650
1,817000	0,5	17,161400
1,825333	0,5	17,715950
1,833667	0,5	16,221150
1,842000	0,5	13,668250
1,850333	0,5	11,268850
1,858667	0,5	9,463700
1,867000	0,5	8,210500
1,875333	0,5	7,321400
1,883667	0,5	6,686600
1,892000	0,5	6,193200
1,900333	0,5	5,810200
1,908667	0,5	5,464300
1,917000	0,5	5,197450
1,925333	0,5	4,974100
1,933667	0,5	4,812350
1,942000	0,5	4,772700
1,950333	0,5	4,863200
1,958667	0,5	4,957900
1,967000	0,5	4,962650
1,975333	0,5	4,871900
1,983667	0,5	4,855800
1,992000	0,5	4,889200
2,000333	0,5	4,986100
2,008667	0,5	5,129050
2,017000	0,5	5,345900
2,025333	0,5	5,658350
2,033667	0,5	6,213200
2,042000	0,5	7,131650
2,050333	0,5	8,289500
2,058667	0,5	9,700500
2,067000	0,5	11,371150
2,075333	0,5	12,704550
2,083667	0,5	13,120950
2,092000	0,5	12,786550
2,100333	0,5	12,246800
2,108667	0,5	11,838300
2,117000	0,5	11,600400
2,125333	0,5	11,597500
2,133667	0,5	11,843250
2,142000	0,5	12,530400
2,150333	0,5	14,050050
2,158667	0,5	16,492850
2,167000	0,5	18,475900
2,175333	0,5	18,444100
2,183667	0,5	16,729650
2,192000	0,5	14,718850
2,200333	0,5	13,165500
2,208667	0,5	11,994350
2,217000	0,5	11,168950
2,225333	0,5	10,523300
2,233667	0,5	10,087450
2,242000	0,5	9,791300
2,250333	0,5	9,642450
2,258667	0,5	9,578000
2,267000	0,5	9,561150
2,275333	0,5	9,555000
2,283667	0,5	9,595450
2,292000	0,5	9,618100
2,300333	0,5	9,632900
2,308667	0,5	9,636200
2,317000	0,5	9,657400
2,325333	0,5	9,682350
2,333667	0,5	9,719550
2,342000	0,5	9,769150
2,350333	0,5	9,805800
2,358667	0,5	9,838250
2,367000	0,5	9,909950
2,375333	0,5	9,949400
2,383667	0,5	10,030500
2,392000	0,5	10,129800
2,400333	0,5	10,283550
2,408667	0,5	10,520100
2,417000	0,5	10,785350
2,425333	0,5	11,148600
2,433667	0,5	11,546400
2,442000	0,5	11,927750
2,450333	0,5	12,188700
2,458667	0,5	12,292800
2,467000	0,5	12,195450
2,475333	0,5	12,025950
2,483667	0,5	11,905600
2,492000	0,5	11,841450
2,500333	0,5	11,793650
2,508667	0,5	11,772800
2,517000	0,5	11,721400
2,525333	0,5	11,664600
2,533667	0,5	11,623650
2,542000	0,5	11,598150
2,550333	0,5	11,601650
2,558667	0,5	11,636400
2,567000	0,5	11,725650
2,575333	0,5	11,925500
2,583667	0,5	12,306750
2,592000	0,5	12,951500
2,600333	0,5	14,115900
2,608667	0,5	16,193900
2,617000	0,5	19,612700
2,625333	0,5	24,344300
2,633667	0,5	29,575750
2,642000	0,5	33,926451
2,650333	0,5	36,359501
2,658667	0,5	36,545051
2,667000	0,5	34,825451
2,675333	0,5	31,963050
2,683667	0,5	28,757400
2,692000	0,5	25,798250
2,700333	0,5	23,412950
2,708667	0,5	21,697800
2,717000	0,5	20,731650
2,725333	0,5	20,681000
2,733667	0,5	21,770600
2,742000	0,5	24,184000
2,750333	0,5	27,984950
2,758667	0,5	33,020450
2,767000	0,5	38,925201
2,775333	0,5	44,782551
2,783667	0,5	49,010951
2,792000	0,5	50,218001
2,800333	0,5	48,088701
2,808667	0,5	43,580201
2,817000	0,5	38,085651
2,825333	0,5	32,892550
2,833667	0,5	28,732250
2,842000	0,5	25,983350
2,850333	0,5	24,958850
2,858667	0,5	26,023400
2,867000	0,5	29,342000
2,875333	0,5	34,046351
2,883667	0,5	38,113301
2,892000	0,5	39,593451
2,900333	0,5	37,883101
2,908667	0,5	33,876001
2,917000	0,5	29,021500
2,925333	0,5	24,444400
2,933667	0,5	20,635750
2,942000	0,5	17,621650
2,950333	0,5	15,351100
2,958667	0,5	13,587850
2,967000	0,5	12,213200
2,975333	0,5	11,137050
2,983667	0,5	10,289450
2,992000	0,5	9,613100
3,000333	0,5	9,036650
3,008667	0,5	8,514850
3,017000	0,5	8,077200
3,025333	0,5	7,688450
3,033667	0,5	7,355000
3,042000	0,5	7,043900
3,050333	0,5	6,793750
3,058667	0,5	6,553400
3,067000	0,5	6,339100
3,075333	0,5	6,154950
3,083667	0,5	5,982450
3,092000	0,5	5,808500
3,100333	0,5	5,673150
3,108667	0,5	5,494250
3,117000	0,5	5,315150
3,125333	0,5	5,134800
3,133667	0,5	4,968400
3,142000	0,5	4,851400
3,150333	0,5	4,735650
3,158667	0,5	4,654550
3,167000	0,5	4,616900
3,175333	0,5	4,650300
3,183667	0,5	4,721150
3,192000	0,5	4,884200
3,200333	0,5	5,184050
3,208667	0,5	5,750400
3,217000	0,5	6,758800
3,225333	0,5	8,375650
3,233667	0,5	10,569600
3,242000	0,5	13,003400
3,250333	0,5	15,125300
3,258667	0,5	16,265850
3,267000	0,5	16,216250
3,275333	0,5	15,063650
3,283667	0,5	13,222500
3,292000	0,5	11,152750
3,300333	0,5	9,208950
3,308667	0,5	7,591350
3,317000	0,5	6,371400
3,325333	0,5	5,456400
3,333667	0,5	4,787700
3,342000	0,5	4,272850
3,350333	0,5	3,876800
3,358667	0,5	3,553550
3,367000	0,5	3,292500
3,375333	0,5	3,077750
3,383667	0,5	2,885800
3,392000	0,5	2,728000
3,400333	0,5	2,608200
3,408667	0,5	2,473800
3,417000	0,5	2,390350
3,425333	0,5	2,314800
3,433667	0,5	2,268800
3,442000	0,5	2,227600
3,450333	0,5	2,149400
3,458667	0,5	2,084550
3,467000	0,5	2,009500
3,475333	0,5	1,933250
3,483667	0,5	1,859600
3,492000	0,5	1,801500
3,500333	0,5	1,738000
3,508667	0,5	1,686350
3,517000	0,5	1,635600
3,525333	0,5	1,584800
3,533667	0,5	1,531200
3,542000	0,5	1,507900
3,550333	0,5	1,469050
3,558667	0,5	1,430900
3,567000	0,5	1,400250
3,575333	0,5	1,380650
3,583667	0,5	1,368850
3,592000	0,5	1,347200
3,600333	0,5	1,312100
3,608667	0,5	1,283950
3,617000	0,5	1,256400
3,625333	0,5	1,219050
3,633667	0,5	1,187000
3,642000	0,5	1,157950
3,650333	0,5	1,128700
3,658667	0,5	1,105750
3,667000	0,5	1,089900
3,675333	0,5	1,047650
3,683667	0,5	1,029050
3,692000	0,5	1,016950
3,700333	0,5	0,989350
3,708667	0,5	0,958300
3,717000	0,5	0,937900
3,725333	0,5	0,931750
3,733667	0,5	0,936650
3,742000	0,5	0,926750
3,750333	0,5	0,907950
3,758667	0,5	0,897950
3,767000	0,5	0,884700
3,775333	0,5	0,869600
3,783667	0,5	0,864300
3,792000	0,5	0,859400
3,800333	0,5	0,846300
3,808667	0,5	0,841000
3,817000	0,5	0,834450
3,825333	0,5	0,818250
3,833667	0,5	0,812100
3,842000	0,5	0,806450
3,850333	0,5	0,778000
3,858667	0,5	0,762100
3,867000	0,5	0,754850
3,875333	0,5	0,758250
3,883667	0,5	0,757800
3,892000	0,5	0,739250
3,900333	0,5	0,719650
3,908667	0,5	0,718650
3,917000	0,5	0,699100
3,925333	0,5	0,687500
3,933667	0,5	0,676450
3,942000	0,5	0,665750
3,950333	0,5	0,660750
3,958667	0,5	0,647500
3,967000	0,5	0,647050
3,975333	0,5	0,621500
3,983667	0,5	0,629200
3,992000	0,5	0,614000
4,000333	0,5	0,605050
4,008667	0,5	0,594350
4,017000	0,5	0,592500
4,025333	0,5	0,613400
4,033667	0,5	0,618350
4,042000	0,5	0,598050
4,050333	0,5	0,597900
4,058667	0,5	0,590250
4,067000	0,5	0,592200
4,075333	0,5	0,581500
4,083667	0,5	0,584950
4,092000	0,5	0,568500
4,100333	0,5	0,560450
4,108667	0,5	0,559000
4,117000	0,5	0,539950
4,125333	0,5	0,521450
4,133667	0,5	0,539850
4,142000	0,5	0,520400
4,150333	0,5	0,516150
4,158667	0,5	0,517150
4,167000	0,5	0,527600
4,175333	0,5	0,558050
4,183667	0,5	0,546500
4,192000	0,5	0,540500
4,200333	0,5	0,525000
4,208667	0,5	0,526850
4,217000	0,5	0,513150
4,225333	0,5	0,515100
4,233667	0,5	0,509400
4,242000	0,5	0,505700
4,250333	0,5	0,500550
4,258667	0,5	0,507400
4,267000	0,5	0,509200
4,275333	0,5	0,517750
4,283667	0,5	0,543100
4,292000	0,5	0,536700
4,300333	0,5	0,548650
4,308667	0,5	0,570950
4,317000	0,5	0,606300
4,325333	0,5	0,661550
4,333667	0,5	0,686550
4,342000	0,5	0,712250
4,350333	0,5	0,751850
4,358667	0,5	0,787550
4,367000	0,5	0,836050
4,375333	0,5	0,880850
4,383667	0,5	0,941200
4,392000	0,5	0,992450
4,400333	0,5	1,071750
4,408667	0,5	1,158200
4,417000	0,5	1,252700
4,425333	0,5	1,343500
4,433667	0,5	1,435050
4,442000	0,5	1,477500
4,450333	0,5	1,524050
4,458667	0,5	1,528600
4,467000	0,5	1,526250
4,475333	0,5	1,495000
4,483667	0,5	1,404100
4,492000	0,5	1,301800
4,500333	0,5	1,200900
4,508667	0,5	1,104200
4,517000	0,5	1,019250
4,525333	0,5	0,948400
4,533667	0,5	0,877550
4,542000	0,5	0,825900
4,550333	0,5	0,777950
4,558667	0,5	0,738650
4,567000	0,5	0,693600
4,575333	0,5	0,685900
4,583667	0,5	0,655150
4,592000	0,5	0,626800
4,600333	0,5	0,614550
4,608667	0,5	0,609300
4,617000	0,5	0,615550
4,625333	0,5	0,614250
4,633667	0,5	0,602500
4,642000	0,5	0,599550
4,650333	0,5	0,590550
4,658667	0,5	0,586850
4,667000	0,5	0,582150
4,675333	0,5	0,584550
4,683667	0,5	0,583650
4,692000	0,5	0,581300
4,700333	0,5	0,586250
4,708667	0,5	0,572900
4,717000	0,5	0,584200
4,725333	0,5	0,598400
4,733667	0,5	0,593750
4,742000	0,5	0,594250
4,750333	0,5	0,603700
4,758667	0,5	0,619000
4,767000	0,5	0,650550
4,775333	0,5	0,648400
4,783667	0,5	0,657650
4,792000	0,5	0,639700
4,800333	0,5	0,635700
4,808667	0,5	0,618250
4,817000	0,5	0,619150
4,825333	0,5	0,613750
4,833667	0,5	0,607400
4,842000	0,5	0,608500
4,850333	0,5	0,605400
4,858667	0,5	0,593850
4,867000	0,5	0,603100
4,875333	0,5	0,601050
4,883667	0,5	0,597400
4,892000	0,5	0,597900
4,900333	0,5	0,603050
4,908667	0,5	0,637550
4,917000	0,5	0,645300
4,925333	0,5	0,648650
4,933667	0,5	0,642950
4,942000	0,5	0,656600
4,950333	0,5	0,656400
4,958667	0,5	0,660850
4,967000	0,5	0,663100
4,975333	0,5	0,669650
4,983667	0,5	0,670550
4,992000	0,5	0,677500
5,000333	0,5	0,682600
5,008667	0,5	0,678450
5,017000	0,5	0,701350
5,025333	0,5	0,693500
5,033667	0,5	0,689650
5,042000	0,5	0,689850
5,050333	0,5	0,700500
5,058667	0,5	0,724300
5,067000	0,5	0,734800
5,075333	0,5	0,726850
5,083667	0,5	0,737550
5,092000	0,5	0,744450
5,100333	0,5	0,746200
5,108667	0,5	0,743900
5,117000	0,5	0,759600
5,125333	0,5	0,751700
5,133667	0,5	0,760000
5,142000	0,5	0,766950
5,150333	0,5	0,774350
5,158667	0,5	0,770000
5,167000	0,5	0,799850
5,175333	0,5	0,787850
5,183667	0,5	0,801900
5,192000	0,5	0,826800
5,200333	0,5	0,852600
5,208667	0,5	0,901550
5,217000	0,5	0,904600
5,225333	0,5	0,920850
5,233667	0,5	0,942200
5,242000	0,5	0,954800
5,250333	0,5	0,958650
5,258667	0,5	0,965500
5,267000	0,5	0,960250
5,275333	0,5	0,955150
5,283667	0,5	0,945150
5,292000	0,5	0,940400
5,300333	0,5	0,909950
5,308667	0,5	0,906700
5,317000	0,5	0,908600
5,325333	0,5	0,894300
5,333667	0,5	0,884950
5,342000	0,5	0,887550
5,350333	0,5	0,906150
5,358667	0,5	0,923900
5,367000	0,5	0,918200
5,375333	0,5	0,912950
5,383667	0,5	0,913400
5,392000	0,5	0,917750
5,400333	0,5	0,919250
5,408667	0,5	0,920500
5,417000	0,5	0,921400
5,425333	0,5	0,926700
5,433667	0,5	0,942750
5,442000	0,5	0,939600
5,450333	0,5	0,944050
5,458667	0,5	0,955100
5,467000	0,5	0,960050
5,475333	0,5	0,955400
5,483667	0,5	0,963600
5,492000	0,5	0,977250
5,500333	0,5	1,006400
5,508667	0,5	1,022400
5,517000	0,5	1,027850
5,525333	0,5	1,022400
5,533667	0,5	1,022950
5,542000	0,5	1,016400
5,550333	0,5	1,024300
5,558667	0,5	1,027950
5,567000	0,5	1,025350
5,575333	0,5	1,031700
5,583667	0,5	1,026300
5,592000	0,5	1,035500
5,600333	0,5	1,035250
5,608667	0,5	1,054200
5,617000	0,5	1,046650
5,625333	0,5	1,049600
5,633667	0,5	1,053300
5,642000	0,5	1,073250
5,650333	0,5	1,093650
5,658667	0,5	1,107950
5,667000	0,5	1,103250
5,675333	0,5	1,115450
5,683667	0,5	1,112250
5,692000	0,5	1,119250
5,700333	0,5	1,127400
5,708667	0,5	1,135650
5,717000	0,5	1,131100
5,725333	0,5	1,139700
5,733667	0,5	1,148400
5,742000	0,5	1,146050
5,750333	0,5	1,153200
5,758667	0,5	1,169400
5,767000	0,5	1,167400
5,775333	0,5	1,168900
5,783667	0,5	1,176350
5,792000	0,5	1,201150
5,800333	0,5	1,240550
5,808667	0,5	1,249900
5,817000	0,5	1,259050
5,825333	0,5	1,259950
5,833667	0,5	1,271150
5,842000	0,5	1,271350
5,850333	0,5	1,281700
5,858667	0,5	1,288600
5,867000	0,5	1,290150
5,875333	0,5	1,298300
5,883667	0,5	1,299950
5,892000	0,5	1,295100
5,900333	0,5	1,325300
5,908667	0,5	1,320000
5,917000	0,5	1,323400
5,925333	0,5	1,322550
5,933667	0,5	1,330250
5,942000	0,5	1,355550
5,950333	0,5	1,368050
5,958667	0,5	1,374700
5,967000	0,5	1,371600
5,975333	0,5	1,385400
5,983667	0,5	1,382250
5,992000	0,5	1,393050
6,000333	0,5	1,392500
6,008667	0,5	1,403750
6,017000	0,5	1,397450
6,025333	0,5	1,403500
6,033667	0,5	1,410300
6,042000	0,5	1,410450
6,050333	0,5	1,435850
6,058667	0,5	1,421200
6,067000	0,5	1,421200
6,075333	0,5	1,424450
6,083667	0,5	1,434500
6,092000	0,5	1,462950
6,100333	0,5	1,474600
6,108667	0,5	1,471000
6,117000	0,5	1,484000
6,125333	0,5	1,476550
6,133667	0,5	1,486550
6,142000	0,5	1,488750
6,150333	0,5	1,497050
6,158667	0,5	1,495500
6,167000	0,5	1,508250
6,175333	0,5	1,515050
6,183667	0,5	1,524650
6,192000	0,5	1,524350
6,200333	0,5	1,549650
6,208667	0,5	1,538400
6,217000	0,5	1,545900
6,225333	0,5	1,555550
6,233667	0,5	1,568700
6,242000	0,5	1,600400
6,250333	0,5	1,599700
6,258667	0,5	1,599400
6,267000	0,5	1,604700
6,275333	0,5	1,615200
6,283667	0,5	1,623750
6,292000	0,5	1,632850
6,300333	0,5	1,640300
6,308667	0,5	1,649900
6,317000	0,5	1,663150
6,325333	0,5	1,675650
6,333667	0,5	1,672500
6,342000	0,5	1,694500
6,350333	0,5	1,713250
6,358667	0,5	1,729300
6,367000	0,5	1,745250
6,375333	0,5	1,783500
6,383667	0,5	1,821800
6,392000	0,5	1,867250
6,400333	0,5	1,887100
6,408667	0,5	1,910650
6,417000	0,5	1,933750
6,425333	0,5	1,943400
6,433667	0,5	1,948500
6,442000	0,5	1,941250
6,450333	0,5	1,932150
6,458667	0,5	1,918500
6,467000	0,5	1,911550
6,475333	0,5	1,897700
6,483667	0,5	1,884300
6,492000	0,5	1,877600
6,500333	0,5	1,869950
6,508667	0,5	1,854550
6,517000	0,5	1,856550
6,525333	0,5	1,866750
6,533667	0,5	1,884500
6,542000	0,5	1,898450
6,550333	0,5	1,899350
6,558667	0,5	1,898050
6,567000	0,5	1,912600
6,575333	0,5	1,909750
6,583667	0,5	1,920750
6,592000	0,5	1,926850
6,600333	0,5	1,927200
6,608667	0,5	1,936250
6,617000	0,5	1,944250
6,625333	0,5	1,951550
6,633667	0,5	1,952700
6,642000	0,5	1,965850
6,650333	0,5	1,966350
6,658667	0,5	1,967700
6,667000	0,5	1,970000
6,675333	0,5	1,987200
6,683667	0,5	2,005900
6,692000	0,5	2,022200
6,700333	0,5	2,017950
6,708667	0,5	2,029450
6,717000	0,5	2,037350
6,725333	0,5	2,048400
6,733667	0,5	2,049750
6,742000	0,5	2,059500
6,750333	0,5	2,057650
6,758667	0,5	2,065000
6,767000	0,5	2,072750
6,775333	0,5	2,073500
6,783667	0,5	2,070900
6,792000	0,5	2,083700
6,800333	0,5	2,077350
6,808667	0,5	2,079600
6,817000	0,5	2,080950
6,825333	0,5	2,103500
6,833667	0,5	2,117900
6,842000	0,5	2,119300
6,850333	0,5	2,125250
6,858667	0,5	2,126600
6,867000	0,5	2,130900
6,875333	0,5	2,128900
6,883667	0,5	2,132450
6,892000	0,5	2,131850
6,900333	0,5	2,134250
6,908667	0,5	2,135350
6,917000	0,5	2,129200
6,925333	0,5	2,125850
6,933667	0,5	2,134700
6,942000	0,5	2,129150
6,950333	0,5	2,125150
6,958667	0,5	2,124300
6,967000	0,5	2,131000
6,975333	0,5	2,149150
6,983667	0,5	2,150000
6,992000	0,5	2,156850
7,000333	0,5	2,153650
7,008667	0,5	2,156950
7,017000	0,5	2,156200
7,025333	0,5	2,162600
7,033667	0,5	2,166350
7,042000	0,5	2,178100
7,050333	0,5	2,177950
7,058667	0,5	2,186200
7,067000	0,5	2,187400
7,075333	0,5	2,202150
7,083667	0,5	2,224050
7,092000	0,5	2,235650
7,100333	0,5	2,254500
7,108667	0,5	2,290200
7,117000	0,5	2,353700
7,125333	0,5	2,464500
7,133667	0,5	2,600300
7,142000	0,5	2,770350
7,150333	0,5	2,972250
7,158667	0,5	3,175100
7,167000	0,5	3,330350
7,175333	0,5	3,399650
7,183667	0,5	3,378050
7,192000	0,5	3,263850
7,200333	0,5	3,101150
7,208667	0,5	2,920600
7,217000	0,5	2,752250
7,225333	0,5	2,609950
7,233667	0,5	2,518850
7,242000	0,5	2,430450
7,250333	0,5	2,369250
7,258667	0,5	2,325050
7,267000	0,5	2,302150
7,275333	0,5	2,283200
7,283667	0,5	2,267700
7,292000	0,5	2,249550
7,300333	0,5	2,238850
7,308667	0,5	2,228800
7,317000	0,5	2,226950
7,325333	0,5	2,231850
7,333667	0,5	2,236900
7,342000	0,5	2,236850
7,350333	0,5	2,227350
7,358667	0,5	2,210550
7,367000	0,5	2,192600
7,375333	0,5	2,178200
7,383667	0,5	2,164950
7,392000	0,5	2,149950
7,400333	0,5	2,133300
7,408667	0,5	2,136500
7,417000	0,5	2,146000
7,425333	0,5	2,161100
7,433667	0,5	2,167450
7,442000	0,5	2,185950
7,450333	0,5	2,210800
7,458667	0,5	2,255550
7,467000	0,5	2,317150
7,475333	0,5	2,391500
7,483667	0,5	2,466500
7,492000	0,5	2,522000
7,500333	0,5	2,555550
7,508667	0,5	2,574950
7,517000	0,5	2,595000
7,525333	0,5	2,662300
7,533667	0,5	2,752700
7,542000	0,5	2,878850
7,550333	0,5	3,006450
7,558667	0,5	3,122750
7,567000	0,5	3,214750
7,575333	0,5	3,255550
7,583667	0,5	3,246200
7,592000	0,5	3,190750
7,600333	0,5	3,117050
7,608667	0,5	3,023350
7,617000	0,5	2,936350
7,625333	0,5	2,855900
7,633667	0,5	2,779450
7,642000	0,5	2,724400
7,650333	0,5	2,673350
7,658667	0,5	2,624250
7,667000	0,5	2,572950
7,675333	0,5	2,528950
7,683667	0,5	2,482350
7,692000	0,5	2,438400
7,700333	0,5	2,407100
7,708667	0,5	2,380350
7,717000	0,5	2,358750
7,725333	0,5	2,340950
7,733667	0,5	2,320450
7,742000	0,5	2,308000
7,750333	0,5	2,295800
7,758667	0,5	2,291150
7,767000	0,5	2,288550
7,775333	0,5	2,280550
7,783667	0,5	2,271350
7,792000	0,5	2,262850
7,800333	0,5	2,248550
7,808667	0,5	2,239500
7,817000	0,5	2,225950
7,825333	0,5	2,223000
7,833667	0,5	2,209000
7,842000	0,5	2,207100
7,850333	0,5	2,218650
7,858667	0,5	2,237700
7,867000	0,5	2,258050
7,875333	0,5	2,260150
7,883667	0,5	2,259900
7,892000	0,5	2,254800
7,900333	0,5	2,247850
7,908667	0,5	2,238900
7,917000	0,5	2,242950
7,925333	0,5	2,247900
7,933667	0,5	2,259900
7,942000	0,5	2,284700
7,950333	0,5	2,330850
7,958667	0,5	2,382750
7,967000	0,5	2,441500
7,975333	0,5	2,463400
7,983667	0,5	2,445050
7,992000	0,5	2,393600
8,000333	0,5	2,333050
8,008667	0,5	2,291000
8,017000	0,5	2,257850
8,025333	0,5	2,236650
8,033667	0,5	2,230550
8,042000	0,5	2,230500
8,050333	0,5	2,249100
8,058667	0,5	2,279850
8,067000	0,5	2,313650
8,075333	0,5	2,350700
8,083667	0,5	2,378200
8,092000	0,5	2,385900
8,100333	0,5	2,368800
8,108667	0,5	2,348600
8,117000	0,5	2,333500
8,125333	0,5	2,324600
8,133667	0,5	2,327300
8,142000	0,5	2,360500
8,150333	0,5	2,444400
8,158667	0,5	2,597800
8,167000	0,5	2,812450
8,175333	0,5	3,058350
8,183667	0,5	3,248300
8,192000	0,5	3,311400
8,200333	0,5	3,225350
8,208667	0,5	3,064350
8,217000	0,5	2,887450
8,225333	0,5	2,740200
8,233667	0,5	2,631150
8,242000	0,5	2,550850
8,250333	0,5	2,492600
8,258667	0,5	2,454900
8,267000	0,5	2,433600
8,275333	0,5	2,411950
8,283667	0,5	2,402600
8,292000	0,5	2,392850
8,300333	0,5	2,394500
8,308667	0,5	2,394000
8,317000	0,5	2,395550
8,325333	0,5	2,398400
8,333667	0,5	2,413550
8,342000	0,5	2,443350
8,350333	0,5	2,475800
8,358667	0,5	2,489050
8,367000	0,5	2,461100
8,375333	0,5	2,389100
8,383667	0,5	2,313300
8,392000	0,5	2,268200
8,400333	0,5	2,247150
8,408667	0,5	2,257600
8,417000	0,5	2,265100
8,425333	0,5	2,244850
8,433667	0,5	2,193450
8,442000	0,5	2,128150
8,450333	0,5	2,073300
8,458667	0,5	2,029300
8,467000	0,5	1,995450
8,475333	0,5	1,966350
8,483667	0,5	1,946500
8,492000	0,5	1,930200
8,500333	0,5	1,912450
8,508667	0,5	1,903350
8,517000	0,5	1,889550
8,525333	0,5	1,886700
8,533667	0,5	1,879350
8,542000	0,5	1,867450
8,550333	0,5	1,849750
8,558667	0,5	1,845400
8,567000	0,5	1,831400
8,575333	0,5	1,819250
8,583667	0,5	1,811100
8,592000	0,5	1,812800
8,600333	0,5	1,810100
8,608667	0,5	1,817100
8,617000	0,5	1,820800
8,625333	0,5	1,818000
8,633667	0,5	1,823800
8,642000	0,5	1,821900
8,650333	0,5	1,821850
8,658667	0,5	1,817350
8,667000	0,5	1,824900
8,675333	0,5	1,815500
8,683667	0,5	1,823500
8,692000	0,5	1,828300
8,700333	0,5	1,839600
8,708667	0,5	1,852500
8,717000	0,5	1,861200
8,725333	0,5	1,872700
8,733667	0,5	1,876950
8,742000	0,5	1,888850
8,750333	0,5	1,904050
8,758667	0,5	1,920100
8,767000	0,5	1,945150
8,775333	0,5	1,975400
8,783667	0,5	2,020050
8,792000	0,5	2,081600
8,800333	0,5	2,143550
8,808667	0,5	2,177250
8,817000	0,5	2,176400
8,825333	0,5	2,147300
8,833667	0,5	2,100100
8,842000	0,5	2,058000
8,850333	0,5	2,030200
8,858667	0,5	2,007500
8,867000	0,5	1,993300
8,875333	0,5	1,986000
8,883667	0,5	1,984800
8,892000	0,5	1,985350
8,900333	0,5	1,979950
8,908667	0,5	1,977400
8,917000	0,5	1,967550
8,925333	0,5	1,963750
8,933667	0,5	1,955450
8,942000	0,5	1,952400
8,950333	0,5	1,959950
8,958667	0,5	1,972550
8,967000	0,5	1,989400
8,975333	0,5	2,005400
8,983667	0,5	2,027850
8,992000	0,5	2,042450
9,000333	0,5	2,063500
9,008667	0,5	2,086250
9,017000	0,5	2,115100
9,025333	0,5	2,151750
9,033667	0,5	2,216650
9,042000	0,5	2,290450
9,050333	0,5	2,348750
9,058667	0,5	2,373500
9,067000	0,5	2,356300
9,075333	0,5	2,292100
9,083667	0,5	2,204600
9,092000	0,5	2,123050
9,100333	0,5	2,053100
9,108667	0,5	2,003850
9,117000	0,5	1,978800
9,125333	0,5	1,975350
9,133667	0,5	1,977850
9,142000	0,5	1,995750
9,150333	0,5	2,028450
9,158667	0,5	2,052100
9,167000	0,5	2,051800
9,175333	0,5	2,027950
9,183667	0,5	1,995350
9,192000	0,5	1,953750
9,200333	0,5	1,922300
9,208667	0,5	1,891850
9,217000	0,5	1,869750
9,225333	0,5	1,853350
9,233667	0,5	1,838600
9,242000	0,5	1,828050
9,250333	0,5	1,819700
9,258667	0,5	1,818600
9,267000	0,5	1,818700
9,275333	0,5	1,824400
9,283667	0,5	1,828750
9,292000	0,5	1,835550
9,300333	0,5	1,849050
9,308667	0,5	1,854400
9,317000	0,5	1,854800
9,325333	0,5	1,856200
9,333667	0,5	1,850100
9,342000	0,5	1,855550
9,350333	0,5	1,845950
9,358667	0,5	1,836000
9,367000	0,5	1,820850
9,375333	0,5	1,805700
9,383667	0,5	1,790750
9,392000	0,5	1,769300
9,400333	0,5	1,761400
9,408667	0,5	1,754450
9,417000	0,5	1,750450
9,425333	0,5	1,752250
9,433667	0,5	1,762700
9,442000	0,5	1,782200
9,450333	0,5	1,812850
9,458667	0,5	1,835900
9,467000	0,5	1,850000
9,475333	0,5	1,852800
9,483667	0,5	1,833350
9,492000	0,5	1,807550
9,500333	0,5	1,777900
9,508667	0,5	1,739750
9,517000	0,5	1,714800
9,525333	0,5	1,694600
9,533667	0,5	1,673150
9,542000	0,5	1,651900
9,550333	0,5	1,640250
9,558667	0,5	1,623750
9,567000	0,5	1,607800
9,575333	0,5	1,592700
9,583667	0,5	1,577800
9,592000	0,5	1,568450
9,600333	0,5	1,563500
9,608667	0,5	1,557200
9,617000	0,5	1,548500
9,625333	0,5	1,540000
9,633667	0,5	1,544650
9,642000	0,5	1,544300
9,650333	0,5	1,539850
9,658667	0,5	1,541900
9,667000	0,5	1,542050
9,675333	0,5	1,544600
9,683667	0,5	1,550200
9,692000	0,5	1,556150
9,700333	0,5	1,569800
9,708667	0,5	1,579550
9,717000	0,5	1,595500
9,725333	0,5	1,619300
9,733667	0,5	1,641150
9,742000	0,5	1,680250
9,750333	0,5	1,718150
9,758667	0,5	1,758550
9,767000	0,5	1,808000
9,775333	0,5	1,868400
9,783667	0,5	1,943500
9,792000	0,5	2,041000
9,800333	0,5	2,159800
9,808667	0,5	2,289200
9,817000	0,5	2,435150
9,825333	0,5	2,590200
9,833667	0,5	2,754200
9,842000	0,5	2,919100
9,850333	0,5	3,069250
9,858667	0,5	3,180400
9,867000	0,5	3,231400
9,875333	0,5	3,201250
9,883667	0,5	3,088600
9,892000	0,5	2,908900
9,900333	0,5	2,681150
9,908667	0,5	2,442050
9,917000	0,5	2,221750
9,925333	0,5	2,039000
9,933667	0,5	1,904250
9,942000	0,5	1,816600
9,950333	0,5	1,752200
9,958667	0,5	1,726950
9,967000	0,5	1,717250
9,975333	0,5	1,714700
9,983667	0,5	1,720800
9,992000	0,5	1,728500
10,000333	0,5	1,736700
10,008667	0,5	1,749050
10,017000	0,5	1,765000
10,025333	0,5	1,789250
10,033667	0,5	1,808500
10,042000	0,5	1,830000
10,050333	0,5	1,848200
10,058667	0,5	1,855500
10,067000	0,5	1,853300
10,075333	0,5	1,850250
10,083667	0,5	1,839650
10,092000	0,5	1,821400
10,100333	0,5	1,798150
10,108667	0,5	1,761900
10,117000	0,5	1,719200
10,125333	0,5	1,673350
10,133667	0,5	1,629450
10,142000	0,5	1,582450
10,150333	0,5	1,543450
10,158667	0,5	1,514250
10,167000	0,5	1,492950
10,175333	0,5	1,471450
10,183667	0,5	1,455300
10,192000	0,5	1,443750
10,200333	0,5	1,435250
10,208667	0,5	1,431450
10,217000	0,5	1,425400
10,225333	0,5	1,420850
10,233667	0,5	1,425050
10,242000	0,5	1,423300
10,250333	0,5	1,429250
10,258667	0,5	1,436700
10,267000	0,5	1,449150
10,275333	0,5	1,466650
10,283667	0,5	1,495600
10,292000	0,5	1,520300
10,300333	0,5	1,555600
10,308667	0,5	1,595800
10,317000	0,5	1,642750
10,325333	0,5	1,691300
10,333667	0,5	1,750250
10,342000	0,5	1,800850
10,350333	0,5	1,845450
10,358667	0,5	1,881100
10,367000	0,5	1,894050
10,375333	0,5	1,887600
10,383667	0,5	1,869700
10,392000	0,5	1,821550
10,400333	0,5	1,759400
10,408667	0,5	1,705850
10,417000	0,5	1,644500
10,425333	0,5	1,591800
10,433667	0,5	1,546600
10,442000	0,5	1,513050
10,450333	0,5	1,490750
10,458667	0,5	1,469150
10,467000	0,5	1,450300
10,475333	0,5	1,436350
10,483667	0,5	1,421950
10,492000	0,5	1,400950
10,500333	0,5	1,382300
10,508667	0,5	1,361250
10,517000	0,5	1,354150
10,525333	0,5	1,351600
10,533667	0,5	1,351100
10,542000	0,5	1,341450
10,550333	0,5	1,340750
10,558667	0,5	1,338400
10,567000	0,5	1,337900
10,575333	0,5	1,335900
10,583667	0,5	1,329650
10,592000	0,5	1,333850
10,600333	0,5	1,332550
10,608667	0,5	1,340050
10,617000	0,5	1,352000
10,625333	0,5	1,374100
10,633667	0,5	1,399950
10,642000	0,5	1,433200
10,650333	0,5	1,459650
10,658667	0,5	1,489150
10,667000	0,5	1,506300
10,675333	0,5	1,501600
10,683667	0,5	1,470100
10,692000	0,5	1,424900
10,700333	0,5	1,366950
10,708667	0,5	1,305500
10,717000	0,5	1,254850
10,725333	0,5	1,223450
10,733667	0,5	1,196200
10,742000	0,5	1,189500
10,750333	0,5	1,200600
10,758667	0,5	1,215700
10,767000	0,5	1,221500
10,775333	0,5	1,245000
10,783667	0,5	1,257750
10,792000	0,5	1,277300
10,800333	0,5	1,290400
10,808667	0,5	1,297650
10,817000	0,5	1,312050
10,825333	0,5	1,326350
10,833667	0,5	1,330350
10,842000	0,5	1,332750
10,850333	0,5	1,335800
10,858667	0,5	1,334300
10,867000	0,5	1,328350
10,875333	0,5	1,325050
10,883667	0,5	1,324750
10,892000	0,5	1,325850
10,900333	0,5	1,327650
10,908667	0,5	1,329150
10,917000	0,5	1,336650
10,925333	0,5	1,350650
10,933667	0,5	1,368500
10,942000	0,5	1,390850
10,950333	0,5	1,415100
10,958667	0,5	1,436350
10,967000	0,5	1,462050
10,975333	0,5	1,479450
10,983667	0,5	1,473900
10,992000	0,5	1,465050
11,000333	0,5	1,443300
11,008667	0,5	1,419250
11,017000	0,5	1,400800
11,025333	0,5	1,383300
11,033667	0,5	1,369850
11,042000	0,5	1,366900
11,050333	0,5	1,360950
11,058667	0,5	1,360800
11,067000	0,5	1,352350
11,075333	0,5	1,349500
11,083667	0,5	1,333650
11,092000	0,5	1,323450
11,100333	0,5	1,308000
11,108667	0,5	1,302400
11,117000	0,5	1,299950
11,125333	0,5	1,303100
11,133667	0,5	1,310300
11,142000	0,5	1,315050
11,150333	0,5	1,323500
11,158667	0,5	1,328800
11,167000	0,5	1,343700
11,175333	0,5	1,355600
11,183667	0,5	1,374300
11,192000	0,5	1,405350
11,200333	0,5	1,451250
11,208667	0,5	1,504350
11,217000	0,5	1,580000
11,225333	0,5	1,665000
11,233667	0,5	1,735350
11,242000	0,5	1,794500
11,250333	0,5	1,821750
11,258667	0,5	1,825500
11,267000	0,5	1,804800
11,275333	0,5	1,759150
11,283667	0,5	1,699300
11,292000	0,5	1,644450
11,300333	0,5	1,599750
11,308667	0,5	1,564150
11,317000	0,5	1,536200
11,325333	0,5	1,517300
11,333667	0,5	1,500750
11,342000	0,5	1,490900
11,350333	0,5	1,468800
11,358667	0,5	1,454150
11,367000	0,5	1,442250
11,375333	0,5	1,441300
11,383667	0,5	1,441050
11,392000	0,5	1,447650
11,400333	0,5	1,462600
11,408667	0,5	1,499700
11,417000	0,5	1,538200
11,425333	0,5	1,605500
11,433667	0,5	1,695450
11,442000	0,5	1,826300
11,450333	0,5	1,988050
11,458667	0,5	2,188950
11,467000	0,5	2,416200
11,475333	0,5	2,641850
11,483667	0,5	2,856800
11,492000	0,5	3,039200
11,500333	0,5	3,161750
11,508667	0,5	3,225250
11,517000	0,5	3,215450
11,525333	0,5	3,135450
11,533667	0,5	3,003700
11,542000	0,5	2,835350
11,550333	0,5	2,670200
11,558667	0,5	2,521250
11,567000	0,5	2,401650
11,575333	0,5	2,312900
11,583667	0,5	2,274650
11,592000	0,5	2,282900
11,600333	0,5	2,322850
11,608667	0,5	2,375250
11,617000	0,5	2,432450
11,625333	0,5	2,466500
11,633667	0,5	2,479450
11,642000	0,5	2,466800
11,650333	0,5	2,417750
11,658667	0,5	2,352900
11,667000	0,5	2,264950
11,675333	0,5	2,153300
11,683667	0,5	2,028850
11,692000	0,5	1,897850
11,700333	0,5	1,779450
11,708667	0,5	1,672900
11,717000	0,5	1,574250
11,725333	0,5	1,494950
11,733667	0,5	1,434400
11,742000	0,5	1,390600
11,750333	0,5	1,349850
11,758667	0,5	1,328400
11,767000	0,5	1,310450
11,775333	0,5	1,302550
11,783667	0,5	1,299300
11,792000	0,5	1,294350
11,800333	0,5	1,287750
11,808667	0,5	1,296150
11,817000	0,5	1,297950
11,825333	0,5	1,309350
11,833667	0,5	1,318650
11,842000	0,5	1,317050
11,850333	0,5	1,328000
11,858667	0,5	1,330750
11,867000	0,5	1,323650
11,875333	0,5	1,309900
11,883667	0,5	1,299100
11,892000	0,5	1,275450
11,900333	0,5	1,266200
11,908667	0,5	1,250900
11,917000	0,5	1,245250
11,925333	0,5	1,234300
11,933667	0,5	1,225950
11,942000	0,5	1,224950
11,950333	0,5	1,229850
11,958667	0,5	1,241150
11,967000	0,5	1,252450
11,975333	0,5	1,269900
11,983667	0,5	1,287950
11,992000	0,5	1,310650
12,000333	0,5	1,336900
12,008667	0,5	1,360700
12,017000	0,5	1,378800
12,025333	0,5	1,390750
12,033667	0,5	1,393200
12,042000	0,5	1,391050
12,050333	0,5	1,386350
12,058667	0,5	1,380500
12,067000	0,5	1,374400
12,075333	0,5	1,366800
12,083667	0,5	1,367300
12,092000	0,5	1,366650
12,100333	0,5	1,374350
12,108667	0,5	1,384700
12,117000	0,5	1,390150
12,125333	0,5	1,398850
12,133667	0,5	1,404650
12,142000	0,5	1,429550
12,150333	0,5	1,468050
12,158667	0,5	1,510400
12,167000	0,5	1,567000
12,175333	0,5	1,635650
12,183667	0,5	1,710800
12,192000	0,5	1,797600
12,200333	0,5	1,876200
12,208667	0,5	1,940050
12,217000	0,5	1,992050
12,225333	0,5	2,033350
12,233667	0,5	2,054550
12,242000	0,5	2,071800
12,250333	0,5	2,094400
12,258667	0,5	2,114100
12,267000	0,5	2,132050
12,275333	0,5	2,137250
12,283667	0,5	2,146000
12,292000	0,5	2,144150
12,300333	0,5	2,140800
12,308667	0,5	2,136050
12,317000	0,5	2,124700
12,325333	0,5	2,108800
12,333667	0,5	2,087150
12,342000	0,5	2,053250
12,350333	0,5	2,020550
12,358667	0,5	1,969600
12,367000	0,5	1,913700
12,375333	0,5	1,882650
12,383667	0,5	1,851000
12,392000	0,5	1,845400
12,400333	0,5	1,857300
12,408667	0,5	1,882550
12,417000	0,5	1,907600
12,425333	0,5	1,929100
12,433667	0,5	1,949600
12,442000	0,5	1,957900
12,450333	0,5	1,944000
12,458667	0,5	1,921000
12,467000	0,5	1,874550
12,475333	0,5	1,822450
12,483667	0,5	1,759500
12,492000	0,5	1,695300
12,500333	0,5	1,634450
12,508667	0,5	1,575800
12,517000	0,5	1,520750
12,525333	0,5	1,472300
12,533667	0,5	1,418600
12,542000	0,5	1,381100
12,550333	0,5	1,352150
12,558667	0,5	1,314900
12,567000	0,5	1,294300
12,575333	0,5	1,263800
12,583667	0,5	1,247700
12,592000	0,5	1,237800
12,600333	0,5	1,225300
12,608667	0,5	1,213700
12,617000	0,5	1,208900
12,625333	0,5	1,198950
12,633667	0,5	1,192900
12,642000	0,5	1,178600
12,650333	0,5	1,170500
12,658667	0,5	1,163250
12,667000	0,5	1,156500
12,675333	0,5	1,148000
12,683667	0,5	1,139000
12,692000	0,5	1,134850
12,700333	0,5	1,131250
12,708667	0,5	1,117400
12,717000	0,5	1,109300
12,725333	0,5	1,089550
12,733667	0,5	1,093550
12,742000	0,5	1,083300
12,750333	0,5	1,073800
12,758667	0,5	1,067350
12,767000	0,5	1,065900
12,775333	0,5	1,080700
12,783667	0,5	1,108100
12,792000	0,5	1,151450
12,800333	0,5	1,204000
12,808667	0,5	1,259300
12,817000	0,5	1,298750
12,825333	0,5	1,324100
12,833667	0,5	1,315250
12,842000	0,5	1,286000
12,850333	0,5	1,211200
12,858667	0,5	1,120000
12,867000	0,5	1,023600
12,875333	0,5	0,938350
12,883667	0,5	0,870900
12,892000	0,5	0,791800
12,900333	0,5	0,727500
12,908667	0,5	0,683750
12,917000	0,5	0,597950
12,925333	0,5	0,471250
12,933667	0,5	0,315200
12,942000	0,5	0,071350
12,950333	0,5	-0,313150
12,958667	0,5	-0,709450
12,967000	0,5	-0,999950
12,975333	0,5	-1,264050
12,983667	0,5	-1,515250
12,992000	0,5	-1,711250
13,000333	0,5	-1,849150
13,008667	0,5	-1,965750
13,017000	0,5	-2,056800
13,025333	0,5	-2,133750
13,033667	0,5	-2,196400
13,042000	0,5	-2,253750
13,050333	0,5	-2,306050
13,058667	0,5	-2,348950
13,067000	0,5	-2,385250
13,075333	0,5	-2,408900
13,083667	0,5	-2,424100
13,092000	0,5	-2,428400
13,100333	0,5	-2,436750
13,108667	0,5	-2,432350
13,117000	0,5	-2,425050
13,125333	0,5	-2,417850
13,133667	0,5	-2,402500
13,142000	0,5	-2,393400
13,150333	0,5	-2,397450
13,158667	0,5	-2,404250
13,167000	0,5	-2,414950
13,175333	0,5	-2,423250
13,183667	0,5	-2,439950
13,192000	0,5	-2,457800
13,200333	0,5	-2,478250
13,208667	0,5	-2,503100
13,217000	0,5	-2,517800
13,225333	0,5	-2,533550
13,233667	0,5	-2,550850
13,242000	0,5	-2,556200
13,250333	0,5	-2,558350
13,258667	0,5	-2,561050
13,267000	0,5	-2,557700
13,275333	0,5	-2,549250
13,283667	0,5	-2,541100
13,292000	0,5	-2,527850
13,300333	0,5	-2,518950
13,308667	0,5	-2,519750
13,317000	0,5	-2,502650
13,325333	0,5	-2,477800
13,333667	0,5	-2,443200
13,342000	0,5	-2,413250
13,350333	0,5	-2,368950
13,358667	0,5	-2,327650
13,367000	0,5	-2,282900
13,375333	0,5	-2,235600
13,383667	0,5	-2,195100
13,392000	0,5	-2,167750
13,400333	0,5	-2,150250
13,408667	0,5	-2,137850
13,417000	0,5	-2,141250
13,425333	0,5	-2,133250
13,433667	0,5	-2,131900
13,442000	0,5	-2,140900
13,450333	0,5	-2,155200
13,458667	0,5	-2,188150
13,467000	0,5	-2,192300
13,475333	0,5	-2,201250
13,483667	0,5	-2,217200
13,492000	0,5	-2,224300
13,500333	0,5	-2,231900
13,508667	0,5	-2,235600
13,517000	0,5	-2,241300
13,525333	0,5	-2,236300
13,533667	0,5	-2,236800
13,542000	0,5	-2,241250
13,550333	0,5	-2,233200
13,558667	0,5	-2,234150
13,567000	0,5	-2,240000
13,575333	0,5	-2,222250
13,583667	0,5	-2,212700
13,592000	0,5	-2,207000
13,600333	0,5	-2,202100
13,608667	0,5	-2,198850
13,617000	0,5	-2,169800
13,625333	0,5	-2,141100
13,633667	0,5	-2,109950
13,642000	0,5	-2,080400
13,650333	0,5	-2,043200
13,658667	0,5	-2,013100
13,667000	0,5	-1,990250
13,675333	0,5	-1,959900
13,683667	0,5	-1,946600
13,692000	0,5	-1,930100
13,700333	0,5	-1,912400
13,708667	0,5	-1,905900
13,717000	0,5	-1,888900
13,725333	0,5	-1,872150
13,733667	0,5	-1,847750
13,742000	0,5	-1,824100
13,750333	0,5	-1,804950
13,758667	0,5	-1,767700
13,767000	0,5	-1,734600
13,775333	0,5	-1,690750
13,783667	0,5	-1,660400
13,792000	0,5	-1,624900
13,800333	0,5	-1,600900
13,808667	0,5	-1,574600
13,817000	0,5	-1,554500
13,825333	0,5	-1,534700
13,833667	0,5	-1,520750
13,842000	0,5	-1,518600
13,850333	0,5	-1,503150
13,858667	0,5	-1,492850
13,867000	0,5	-1,476500
13,875333	0,5	-1,460150
13,883667	0,5	-1,440650
13,892000	0,5	-1,429000
13,900333	0,5	-1,417450
13,908667	0,5	-1,402200
13,917000	0,5	-1,369200
13,925333	0,5	-1,349950
13,933667	0,5	-1,321800
13,942000	0,5	-1,297800
13,950333	0,5	-1,269000
13,958667	0,5	-1,240550
13,967000	0,5	-1,192400
13,975333	0,5	-1,154200
13,983667	0,5	-1,094750
13,992000	0,5	-1,025500
14,000333	0,5	-0,941200
14,008667	0,5	-0,860450
14,017000	0,5	-0,766000
14,025333	0,5	-0,686100
14,033667	0,5	-0,613700
14,042000	0,5	-0,556000
14,050333	0,5	-0,516650
14,058667	0,5	-0,462350
14,067000	0,5	-0,434450
14,075333	0,5	-0,412350
14,083667	0,5	-0,401600
14,092000	0,5	-0,401300
14,100333	0,5	-0,401000
14,108667	0,5	-0,381150
14,117000	0,5	-0,340350
14,125333	0,5	-0,293650
14,133667	0,5	-0,216300
14,142000	0,5	-0,120050
14,150333	0,5	-0,038600
14,158667	0,5	0,045000
14,167000	0,5	0,120800
14,175333	0,5	0,151350
14,183667	0,5	0,167400
14,192000	0,5	0,153800
14,200333	0,5	0,128650
14,208667	0,5	0,107650
14,217000	0,5	0,095900
14,225333	0,5	0,082250
14,233667	0,5	0,082450
14,242000	0,5	0,087950
14,250333	0,5	0,096050
14,258667	0,5	0,100350
14,267000	0,5	0,114050
14,275333	0,5	0,103500
14,283667	0,5	0,116200
14,292000	0,5	0,120850
14,300333	0,5	0,122900
14,308667	0,5	0,135100
14,317000	0,5	0,149200
14,325333	0,5	0,147950
14,333667	0,5	0,153750
14,342000	0,5	0,143650
14,350333	0,5	0,151450
14,358667	0,5	0,164250
14,367000	0,5	0,177150
14,375333	0,5	0,181700
14,383667	0,5	0,205200
14,392000	0,5	0,222900
14,400333	0,5	0,246750
14,408667	0,5	0,261300
14,417000	0,5	0,264350
14,425333	0,5	0,265300
14,433667	0,5	0,256850
14,442000	0,5	0,243700
14,450333	0,5	0,225050
14,458667	0,5	0,214750
14,467000	0,5	0,205050
14,475333	0,5	0,186050
14,483667	0,5	0,158200
14,492000	0,5	0,147600
14,500333	0,5	0,143600
14,508667	0,5	0,146850
14,517000	0,5	0,138200
14,525333	0,5	0,144150
14,533667	0,5	0,143950
14,542000	0,5	0,148250
14,550333	0,5	0,147800
14,558667	0,5	0,150950
14,567000	0,5	0,154700
14,575333	0,5	0,154700
14,583667	0,5	0,169400
14,592000	0,5	0,178600
14,600333	0,5	0,222400
14,608667	0,5	0,293800
14,617000	0,5	0,390950
14,625333	0,5	0,487650
14,633667	0,5	0,583500
14,642000	0,5	0,662100
14,650333	0,5	0,711800
14,658667	0,5	0,692800
14,667000	0,5	0,654400
14,675333	0,5	0,587100
14,683667	0,5	0,515150
14,692000	0,5	0,473600
14,700333	0,5	0,471850
14,708667	0,5	0,501750
14,717000	0,5	0,561200
14,725333	0,5	0,639000
14,733667	0,5	0,713550
14,742000	0,5	0,742350
14,750333	0,5	0,756100
14,758667	0,5	0,711900
14,767000	0,5	0,638050
14,775333	0,5	0,551150
14,783667	0,5	0,448250
14,792000	0,5	0,390750
14,800333	0,5	0,349800
14,808667	0,5	0,314900
14,817000	0,5	0,275050
14,825333	0,5	0,260650
14,833667	0,5	0,240700
14,842000	0,5	0,238000
14,850333	0,5	0,233200
14,858667	0,5	0,233800
14,867000	0,5	0,233950
14,875333	0,5	0,249100
14,883667	0,5	0,257350
14,892000	0,5	0,240950
14,900333	0,5	0,251800
14,908667	0,5	0,246600
14,917000	0,5	0,229650
14,925333	0,5	0,217850
14,933667	0,5	0,193150
14,942000	0,5	0,191950
14,950333	0,5	0,195950
14,958667	0,5	0,188000
14,967000	0,5	0,177850
14,975333	0,5	0,166800
14,983667	0,5	0,147050
14,992000	0,5	0,122800
15,000333	0,5	0,108950
15,008667	0,5	0,089100
15,017000	0,5	0,073250
15,025333	0,5	0,072900
15,033667	0,5	0,059650
15,042000	0,5	0,045800
15,050333	0,5	0,050600
15,058667	0,5	0,033900
15,067000	0,5	0,023700
15,075333	0,5	0,013200
15,083667	0,5	0,001500
15,092000	0,5	0,011750
15,100333	0,5	0,020900
15,108667	0,5	0,048450
15,117000	0,5	0,086400
15,125333	0,5	0,160500
15,133667	0,5	0,252700
15,142000	0,5	0,380650
15,150333	0,5	0,495350
15,158667	0,5	0,593500
15,167000	0,5	0,642350
15,175333	0,5	0,631750
15,183667	0,5	0,569300
15,192000	0,5	0,518800
15,200333	0,5	0,481000
15,208667	0,5	0,480600
15,217000	0,5	0,516150
15,225333	0,5	0,566950
15,233667	0,5	0,637950
15,242000	0,5	0,678200
15,250333	0,5	0,671300
15,258667	0,5	0,618200
15,267000	0,5	0,538350
15,275333	0,5	0,452600
15,283667	0,5	0,381400
15,292000	0,5	0,321250
15,300333	0,5	0,288950
15,308667	0,5	0,261900
15,317000	0,5	0,263750
15,325333	0,5	0,237550
15,333667	0,5	0,223400
15,342000	0,5	0,210700
15,350333	0,5	0,201550
15,358667	0,5	0,180050
15,367000	0,5	0,161550
15,375333	0,5	0,151100
15,383667	0,5	0,153600
15,392000	0,5	0,161850
15,400333	0,5	0,164400
15,408667	0,5	0,163600
15,417000	0,5	0,153400
15,425333	0,5	0,138400
15,433667	0,5	0,107950
15,442000	0,5	0,083550
15,450333	0,5	0,051400
15,458667	0,5	0,023950
15,467000	0,5	-0,005200
15,475333	0,5	-0,032600
15,483667	0,5	-0,044750
15,492000	0,5	-0,049600
15,500333	0,5	-0,071500
15,508667	0,5	-0,088800
15,517000	0,5	-0,117100
15,525333	0,5	-0,127200
15,533667	0,5	-0,138850
15,542000	0,5	-0,136100
15,550333	0,5	-0,134800
15,558667	0,5	-0,113450
15,567000	0,5	-0,077500
15,575333	0,5	-0,021250
15,583667	0,5	0,078150
15,592000	0,5	0,195500
15,600333	0,5	0,321000
15,608667	0,5	0,427300
15,617000	0,5	0,497550
15,625333	0,5	0,497400
15,633667	0,5	0,483200
15,642000	0,5	0,453600
15,650333	0,5	0,449600
15,658667	0,5	0,456500
15,667000	0,5	0,487500
15,675333	0,5	0,536400
15,683667	0,5	0,564050
15,692000	0,5	0,527000
15,700333	0,5	0,460700
15,708667	0,5	0,365050
15,717000	0,5	0,270450
15,725333	0,5	0,185300
15,733667	0,5	0,115700
15,742000	0,5	0,058850
15,750333	0,5	0,019750
15,758667	0,5	0,008450
15,767000	0,5	-0,012800
15,775333	0,5	-0,025500
15,783667	0,5	-0,018500
15,792000	0,5	-0,005550
15,800333	0,5	-0,009250
15,808667	0,5	-0,021150
15,817000	0,5	-0,034300
15,825333	0,5	-0,025850
15,833667	0,5	-0,048500
15,842000	0,5	-0,070150
15,850333	0,5	-0,092800
15,858667	0,5	-0,113750
15,867000	0,5	-0,141150
15,875333	0,5	-0,164050
15,883667	0,5	-0,180700
15,892000	0,5	-0,205850
15,900333	0,5	-0,220400
15,908667	0,5	-0,229400
15,917000	0,5	-0,256300
15,925333	0,5	-0,257450
15,933667	0,5	-0,257750
15,942000	0,5	-0,258750
15,950333	0,5	-0,265150
15,958667	0,5	-0,283600
15,967000	0,5	-0,260550
15,975333	0,5	-0,207250
15,983667	0,5	-0,120750
15,992000	0,5	-0,119050
16,000333	0,5	0,129650
16,008667	0,5	0,244650
16,017000	0,5	0,341350
16,025333	0,5	0,387600
16,033667	0,5	0,406800
16,042000	0,5	0,401850
16,050333	0,5	0,416000
16,058667	0,5	0,451050
16,067000	0,5	0,466900
16,075333	0,5	0,476550
16,083667	0,5	0,433700
16,092000	0,5	0,357750
16,100333	0,5	0,245400
16,108667	0,5	0,127350
16,117000	0,5	0,046900
16,125333	0,5	0,006250
16,133667	0,5	-0,025850
16,142000	0,5	-0,049650
16,150333	0,5	-0,056700
16,158667	0,5	-0,056000
16,167000	0,5	-0,057800
16,175333	0,5	-0,055650
16,183667	0,5	-0,055950
16,192000	0,5	-0,061250
16,200333	0,5	-0,068100
16,208667	0,5	-0,088150
16,217000	0,5	-0,118750
16,225333	0,5	-0,136450
16,233667	0,5	-0,161700
16,242000	0,5	-0,194050
16,250333	0,5	-0,241100
16,258667	0,5	-0,286450
16,267000	0,5	-0,303550
16,275333	0,5	-0,321100
16,283667	0,5	-0,342950
16,292000	0,5	-0,357150
16,300333	0,5	-0,370750
16,308667	0,5	-0,379750
16,317000	0,5	-0,386450
16,325333	0,5	-0,380050
16,333667	0,5	-0,351300
16,342000	0,5	-0,284950
16,350333	0,5	-0,183600
16,358667	0,5	-0,080300
16,367000	0,5	0,056300
16,375333	0,5	0,183800
16,383667	0,5	0,260800
16,392000	0,5	0,289250
16,400333	0,5	0,283650
16,408667	0,5	0,283700
16,417000	0,5	0,286200
16,425333	0,5	0,289300
16,433667	0,5	0,254550
16,442000	0,5	0,202050
16,450333	0,5	0,123650
16,458667	0,5	0,039000
16,467000	0,5	-0,028650
16,475333	0,5	-0,070700
16,483667	0,5	-0,101400
16,492000	0,5	-0,097400
16,500333	0,5	-0,087200
16,508667	0,5	-0,083900
16,517000	0,5	-0,062800
16,525333	0,5	-0,037100
16,533667	0,5	-0,030800
16,542000	0,5	-0,031900
16,550333	0,5	-0,047400
16,558667	0,5	-0,049400
16,567000	0,5	-0,055300
16,575333	0,5	-0,080850
16,583667	0,5	-0,099900
16,592000	0,5	-0,119000
16,600333	0,5	-0,135600
16,608667	0,5	-0,145600
16,617000	0,5	-0,152700
16,625333	0,5	-0,162650
16,633667	0,5	-0,168750
16,642000	0,5	-0,166100
16,650333	0,5	-0,177550
16,658667	0,5	-0,177100
16,667000	0,5	-0,146800
16,675333	0,5	-0,107350
16,683667	0,5	-0,038200
16,692000	0,5	0,027800
16,700333	0,5	0,115150
16,708667	0,5	0,193550
16,717000	0,5	0,232650
16,725333	0,5	0,231550
16,733667	0,5	0,239250
16,742000	0,5	0,225550
16,750333	0,5	0,203350
16,758667	0,5	0,160950
16,767000	0,5	0,098400
16,775333	0,5	0,023750
16,783667	0,5	-0,056350
16,792000	0,5	-0,104800
16,800333	0,5	-0,171900
16,808667	0,5	-0,192550
16,817000	0,5	-0,211050
16,825333	0,5	-0,228950
16,833667	0,5	-0,251400
16,842000	0,5	-0,269050
16,850333	0,5	-0,270450
16,858667	0,5	-0,267900
16,867000	0,5	-0,282550
16,875333	0,5	-0,300450
16,883667	0,5	-0,318000
16,892000	0,5	-0,327350
16,900333	0,5	-0,348100
16,908667	0,5	-0,362800
16,917000	0,5	-0,380350
16,925333	0,5	-0,405100
16,933667	0,5	-0,400000
16,942000	0,5	-0,401300
16,950333	0,5	-0,403050
16,958667	0,5	-0,366100
16,967000	0,5	-0,325800
16,975333	0,5	-0,263200
16,983667	0,5	-0,186200
16,992000	0,5	-0,096850
17,000333	0,5	0,034850
17,008667	0,5	0,141300
17,017000	0,5	0,239600
17,025333	0,5	0,317250
17,033667	0,5	0,411000
17,042000	0,5	0,490500
17,050333	0,5	0,586600
17,058667	0,5	0,675550
17,067000	0,5	0,771350
17,075333	0,5	0,883400
17,083667	0,5	1,011900
17,092000	0,5	1,146100
17,100333	0,5	1,281100
17,108667	0,5	1,414950
17,117000	0,5	1,523050
17,125333	0,5	1,613600
17,133667	0,5	1,667100
17,142000	0,5	1,734400
17,150333	0,5	1,787250
17,158667	0,5	1,824100
17,167000	0,5	1,819450
17,175333	0,5	1,784700
17,183667	0,5	1,697100
17,192000	0,5	1,580050
17,200333	0,5	1,437000
17,208667	0,5	1,267450
17,217000	0,5	1,095750
17,225333	0,5	0,927150
17,233667	0,5	0,782400
17,242000	0,5	0,660900
17,250333	0,5	0,593400
17,258667	0,5	0,564950
17,267000	0,5	0,557400
17,275333	0,5	0,552900
17,283667	0,5	0,542900
17,292000	0,5	0,527500
17,300333	0,5	0,520650
17,308667	0,5	0,481750
17,317000	0,5	0,448900
17,325333	0,5	0,390500
17,333667	0,5	0,332350
17,342000	0,5	0,272950
17,350333	0,5	0,241300
17,358667	0,5	0,223900
17,367000	0,5	0,229750
17,375333	0,5	0,262350
17,383667	0,5	0,295550
17,392000	0,5	0,320000
17,400333	0,5	0,361000
17,408667	0,5	0,392600
17,417000	0,5	0,418000
17,425333	0,5	0,421300
17,433667	0,5	0,405400
17,442000	0,5	0,405500
17,450333	0,5	0,402150
17,458667	0,5	0,379500
17,467000	0,5	0,342950
17,475333	0,5	0,291200
17,483667	0,5	0,233800
17,492000	0,5	0,200050
17,500333	0,5	0,177750
17,508667	0,5	0,167650
17,517000	0,5	0,180750
17,525333	0,5	0,200750
17,533667	0,5	0,183300
17,542000	0,5	0,176950
17,550333	0,5	0,159150
17,558667	0,5	0,112500
17,567000	0,5	0,050100
17,575333	0,5	-0,043200
17,583667	0,5	-0,110650
17,592000	0,5	-0,178450
17,600333	0,5	-0,222950
17,608667	0,5	-0,265200
17,617000	0,5	-0,293150
17,625333	0,5	-0,323350
17,633667	0,5	-0,357100
17,642000	0,5	-0,389000
17,650333	0,5	-0,402500
17,658667	0,5	-0,428950
17,667000	0,5	-0,440100
17,675333	0,5	-0,452500
17,683667	0,5	-0,484150
17,692000	0,5	-0,482100
17,700333	0,5	-0,481950
17,708667	0,5	-0,489550
17,717000	0,5	-0,482400
17,725333	0,5	-0,480150
17,733667	0,5	-0,429700
17,742000	0,5	-0,374000
17,750333	0,5	-0,319200
17,758667	0,5	-0,264550
17,767000	0,5	-0,232850
17,775333	0,5	-0,224850
17,783667	0,5	-0,233700
17,792000	0,5	-0,250600
17,800333	0,5	-0,300950
17,808667	0,5	-0,338350
17,817000	0,5	-0,383950
17,825333	0,5	-0,413400
17,833667	0,5	-0,450900
17,842000	0,5	-0,466900
17,850333	0,5	-0,486450
17,858667	0,5	-0,504950
17,867000	0,5	-0,541750
17,875333	0,5	-0,568450
17,883667	0,5	-0,560100
17,892000	0,5	-0,567850
17,900333	0,5	-0,572850
17,908667	0,5	-0,565550
17,917000	0,5	-0,560300
17,925333	0,5	-0,544450
17,933667	0,5	-0,508500
17,942000	0,5	-0,465950
17,950333	0,5	-0,416750
17,958667	0,5	-0,364900
17,967000	0,5	-0,312650
17,975333	0,5	-0,312150
17,983667	0,5	-0,302650
17,992000	0,5	-0,323050
18,000333	0,5	-0,353050
18,008667	0,5	-0,401000
18,017000	0,5	-0,454050
18,025333	0,5	-0,477650
18,033667	0,5	-0,493200
18,042000	0,5	-0,512150
18,050333	0,5	-0,533750
18,058667	0,5	-0,550400
18,067000	0,5	-0,556800
18,075333	0,5	-0,564150
18,083667	0,5	-0,573900
18,092000	0,5	-0,566050
18,100333	0,5	-0,577300
18,108667	0,5	-0,559950
18,117000	0,5	-0,532400
18,125333	0,5	-0,513100
18,133667	0,5	-0,457450
18,142000	0,5	-0,407050
18,150333	0,5	-0,376600
18,158667	0,5	-0,360550
18,167000	0,5	-0,380050
18,175333	0,5	-0,382200
18,183667	0,5	-0,402500
18,192000	0,5	-0,432700
18,200333	0,5	-0,472150
18,208667	0,5	-0,496900
18,217000	0,5	-0,518600
18,225333	0,5	-0,534050
18,233667	0,5	-0,543300
18,242000	0,5	-0,557250
18,250333	0,5	-0,571450
18,258667	0,5	-0,589050
18,267000	0,5	-0,590250
18,275333	0,5	-0,603000
18,283667	0,5	-0,577300
18,292000	0,5	-0,574450
18,300333	0,5	-0,550050
18,308667	0,5	-0,550950
18,317000	0,5	-0,527450
18,325333	0,5	-0,493550
18,333667	0,5	-0,474600
18,342000	0,5	-0,477200
18,350333	0,5	-0,485650
18,358667	0,5	-0,512300
18,367000	0,5	-0,536300
18,375333	0,5	-0,558800
18,383667	0,5	-0,576900
18,392000	0,5	-0,601100
18,400333	0,5	-0,613950
18,408667	0,5	-0,620500
18,417000	0,5	-0,635100
18,425333	0,5	-0,639650
18,433667	0,5	-0,643200
18,442000	0,5	-0,651250
18,450333	0,5	-0,664400
18,458667	0,5	-0,682700
18,467000	0,5	-0,693200
18,475333	0,5	-0,663100
18,483667	0,5	-0,656400
18,492000	0,5	-0,636300
18,500333	0,5	-0,629600
18,508667	0,5	-0,628550
18,517000	0,5	-0,639500
18,525333	0,5	-0,654150
18,533667	0,5	-0,675850
18,542000	0,5	-0,704300
18,550333	0,5	-0,712650
18,558667	0,5	-0,740900
18,567000	0,5	-0,763500
18,575333	0,5	-0,761000
18,583667	0,5	-0,764200
18,592000	0,5	-0,777350
18,600333	0,5	-0,797450
18,608667	0,5	-0,823650
18,617000	0,5	-0,816250
18,625333	0,5	-0,814750
18,633667	0,5	-0,793300
18,642000	0,5	-0,776450
18,650333	0,5	-0,746350
18,658667	0,5	-0,738550
18,667000	0,5	-0,727550
18,675333	0,5	-0,736350
18,683667	0,5	-0,753200
18,692000	0,5	-0,753900
18,700333	0,5	-0,741950
18,708667	0,5	-0,757150
18,717000	0,5	-0,742200
18,725333	0,5	-0,725250
18,733667	0,5	-0,715400
18,742000	0,5	-0,710550
18,750333	0,5	-0,717650
18,758667	0,5	-0,697500
18,767000	0,5	-0,675000
18,775333	0,5	-0,625500
18,783667	0,5	-0,595750
18,792000	0,5	-0,572100
18,800333	0,5	-0,560350
18,808667	0,5	-0,550450
18,817000	0,5	-0,558300
18,825333	0,5	-0,567150
18,833667	0,5	-0,583450
18,842000	0,5	-0,585500
18,850333	0,5	-0,590050
18,858667	0,5	-0,605250
18,867000	0,5	-0,600150
18,875333	0,5	-0,586050
18,883667	0,5	-0,580300
18,892000	0,5	-0,573150
18,900333	0,5	-0,586900
18,908667	0,5	-0,572500
18,917000	0,5	-0,571550
18,925333	0,5	-0,583700
18,933667	0,5	-0,604450
18,942000	0,5	-0,635500
18,950333	0,5	-0,664900
18,958667	0,5	-0,707400
18,967000	0,5	-0,729850
18,975333	0,5	-0,757600
18,983667	0,5	-0,779050
18,992000	0,5	-0,780100
19,000333	0,5	-0,785900
19,008667	0,5	-0,807000
19,017000	0,5	-0,804750
19,025333	0,5	-0,804000
19,033667	0,5	-0,820750
19,042000	0,5	-0,844750
19,050333	0,5	-0,881700
19,058667	0,5	-0,872600
19,067000	0,5	-0,895100
19,075333	0,5	-0,910100
19,083667	0,5	-0,931750
19,092000	0,5	-0,934750
19,100333	0,5	-0,958750
19,108667	0,5	-0,968300
19,117000	0,5	-0,988150
19,125333	0,5	-0,997850
19,133667	0,5	-1,008950
19,142000	0,5	-0,999750
19,150333	0,5	-1,025650
19,158667	0,5	-1,043000
19,167000	0,5	-1,061050
19,175333	0,5	-1,078650
19,183667	0,5	-1,105600
19,192000	0,5	-1,141800
19,200333	0,5	-1,163550
19,208667	0,5	-1,165350
19,217000	0,5	-1,166650
19,225333	0,5	-1,174100
19,233667	0,5	-1,179100
19,242000	0,5	-1,194250
19,250333	0,5	-1,212400
19,258667	0,5	-1,225500
19,267000	0,5	-1,234750
19,275333	0,5	-1,262950
19,283667	0,5	-1,265800
19,292000	0,5	-1,260400
19,300333	0,5	-1,278800
19,308667	0,5	-1,278800
19,317000	0,5	-1,283000
19,325333	0,5	-1,297950
19,333667	0,5	-1,316050
19,342000	0,5	-1,350550
19,350333	0,5	-1,361150
19,358667	0,5	-1,363050
19,367000	0,5	-1,366050
19,375333	0,5	-1,374900
19,383667	0,5	-1,377650
19,392000	0,5	-1,383600
19,400333	0,5	-1,390650
19,408667	0,5	-1,385000
19,417000	0,5	-1,393800
19,425333	0,5	-1,386500
19,433667	0,5	-1,398750
19,442000	0,5	-1,395750
19,450333	0,5	-1,411150
19,458667	0,5	-1,411850
19,467000	0,5	-1,421050
19,475333	0,5	-1,439250
19,483667	0,5	-1,469700
19,492000	0,5	-1,484000
19,500333	0,5	-1,482450
19,508667	0,5	-1,489150
19,517000	0,5	-1,511050
19,525333	0,5	-1,524550
19,533667	0,5	-1,539150
19,542000	0,5	-1,547700
19,550333	0,5	-1,550250
19,558667	0,5	-1,566000
19,567000	0,5	-1,565000
19,575333	0,5	-1,582400
19,583667	0,5	-1,581650
19,592000	0,5	-1,604750
19,600333	0,5	-1,601500
19,608667	0,5	-1,599800
19,617000	0,5	-1,606950
19,625333	0,5	-1,624500
19,633667	0,5	-1,638800
19,642000	0,5	-1,635950
19,650333	0,5	-1,636050
19,658667	0,5	-1,644350
19,667000	0,5	-1,639750
19,675333	0,5	-1,652700
19,683667	0,5	-1,662250
19,692000	0,5	-1,671750
19,700333	0,5	-1,673950
19,708667	0,5	-1,684750
19,717000	0,5	-1,716200
19,725333	0,5	-1,711350
19,733667	0,5	-1,733550
19,742000	0,5	-1,755050
19,750333	0,5	-1,765700
19,758667	0,5	-1,776650
19,767000	0,5	-1,804250
19,775333	0,5	-1,841500
19,783667	0,5	-1,883350
19,792000	0,5	-1,883900
19,800333	0,5	-1,897050
19,808667	0,5	-1,902600
19,817000	0,5	-1,918300
19,825333	0,5	-1,920700
19,833667	0,5	-1,939250
19,842000	0,5	-1,944100
19,850333	0,5	-1,955550
19,858667	0,5	-1,973850
19,867000	0,5	-1,977000
19,875333	0,5	-1,974800
19,883667	0,5	-2,005100
19,892000	0,5	-2,009950
19,900333	0,5	-2,006500
19,908667	0,5	-2,018250
19,917000	0,5	-2,032850
19,925333	0,5	-2,068600
19,933667	0,5	-2,067050
19,942000	0,5	-2,061400
19,950333	0,5	-2,061850
19,958667	0,5	-2,079400
19,967000	0,5	-2,077450
19,975333	0,5	-2,091250
19,983667	0,5	-2,108200
19,992000	0,5	-2,122600
20,000333	0,5	-2,140900
20,008667	0,5	-2,155050
20,017000	0,5	-2,180150
20,025333	0,5	-2,180900
20,033667	0,5	-2,219900
20,042000	0,5	-2,214200
20,050333	0,5	-2,233000
20,058667	0,5	-2,247500
20,067000	0,5	-2,274200
20,075333	0,5	-2,314350
20,083667	0,5	-2,316000
20,092000	0,5	-2,333400
20,100333	0,5	-2,349900
20,108667	0,5	-2,357150
20,117000	0,5	-2,376500
20,125333	0,5	-2,378750
20,133667	0,5	-2,390800
20,142000	0,5	-2,401500
20,150333	0,5	-2,416250
20,158667	0,5	-2,429050
20,167000	0,5	-2,411400
20,175333	0,5	-2,416050
20,183667	0,5	-2,427600
20,192000	0,5	-2,434400
20,200333	0,5	-2,436650
20,208667	0,5	-2,453200
20,217000	0,5	-2,472300
20,225333	0,5	-2,508650
20,233667	0,5	-2,499850
20,242000	0,5	-2,514950
20,250333	0,5	-2,523150
20,258667	0,5	-2,548850
20,267000	0,5	-2,558500
20,275333	0,5	-2,574800
20,283667	0,5	-2,583950
20,292000	0,5	-2,609650
20,300333	0,5	-2,624600
20,308667	0,5	-2,625300
20,317000	0,5	-2,641900
20,325333	0,5	-2,665850
20,333667	0,5	-2,684750
20,342000	0,5	-2,709100
20,350333	0,5	-2,729100
20,358667	0,5	-2,764900
20,367000	0,5	-2,813500
20,375333	0,5	-2,834800
20,383667	0,5	-2,853350
20,392000	0,5	-2,874350
20,400333	0,5	-2,910000
20,408667	0,5	-2,912250
20,417000	0,5	-2,940300
20,425333	0,5	-2,955950
20,433667	0,5	-2,971900
20,442000	0,5	-2,998050
20,450333	0,5	-3,016250
20,458667	0,5	-3,015150
20,467000	0,5	-3,026300
20,475333	0,5	-3,064250
20,483667	0,5	-3,074750
20,492000	0,5	-3,102100
20,500333	0,5	-3,137400
20,508667	0,5	-3,164350
20,517000	0,5	-3,180200
20,525333	0,5	-3,175450
20,533667	0,5	-3,157000
20,542000	0,5	-3,171050
20,550333	0,5	-3,172250
20,558667	0,5	-3,212200
20,567000	0,5	-3,254950
20,575333	0,5	-3,304900
20,583667	0,5	-3,350250
20,592000	0,5	-3,397800
20,600333	0,5	-3,434200
20,608667	0,5	-3,452650
20,617000	0,5	-3,484300
20,625333	0,5	-3,524850
20,633667	0,5	-3,556650
20,642000	0,5	-3,595200
20,650333	0,5	-3,643600
20,658667	0,5	-3,697800
20,667000	0,5	-3,730350
20,675333	0,5	-3,745600
20,683667	0,5	-3,766900
20,692000	0,5	-3,754650
20,700333	0,5	-3,748600
20,708667	0,5	-3,725100
20,717000	0,5	-3,714450
20,725333	0,5	-3,711650
20,733667	0,5	-3,736550
20,742000	0,5	-3,784250
20,750333	0,5	-3,823350
20,758667	0,5	-3,882350
20,767000	0,5	-3,964100
20,775333	0,5	-4,027600
20,783667	0,5	-4,083100
20,792000	0,5	-4,153850
20,800333	0,5	-4,228250
20,808667	0,5	-4,306000
20,817000	0,5	-4,339100
20,825333	0,5	-4,383250
20,833667	0,5	-4,414450
20,842000	0,5	-4,458700
20,850333	0,5	-4,486000
20,858667	0,5	-4,534850
20,867000	0,5	-4,555900
20,875333	0,5	-4,586200
20,883667	0,5	-4,618450
20,892000	0,5	-4,635150
20,900333	0,5	-4,636700
20,908667	0,5	-4,664050
20,917000	0,5	-4,711400
20,925333	0,5	-4,770450
20,933667	0,5	-4,825100
20,942000	0,5	-4,879600
20,950333	0,5	-4,956300
20,958667	0,5	-4,986850
20,967000	0,5	-5,023350
20,975333	0,5	-5,047950
20,983667	0,5	-5,093900
20,992000	0,5	-5,115700
21,000333	0,5	-5,153000
21,008667	0,5	-5,176050
21,017000	0,5	-5,190900
21,025333	0,5	-5,192750
21,033667	0,5	-5,216850
21,042000	0,5	-5,223250
21,050333	0,5	-5,231800
21,058667	0,5	-5,282650
21,067000	0,5	-5,327000
21,075333	0,5	-5,379400
21,083667	0,5	-5,429150
21,092000	0,5	-5,491950
21,100333	0,5	-5,551850
21,108667	0,5	-5,580850
21,117000	0,5	-5,615000
21,125333	0,5	-5,657700
21,133667	0,5	-5,682300
21,142000	0,5	-5,713750
21,150333	0,5	-5,744300
21,158667	0,5	-5,773750
21,167000	0,5	-5,798650
21,175333	0,5	-5,833250
21,183667	0,5	-5,853950
21,192000	0,5	-5,846400
21,200333	0,5	-5,848250
21,208667	0,5	-5,871550
21,217000	0,5	-5,901750
21,225333	0,5	-5,925800
21,233667	0,5	-5,961800
21,242000	0,5	-6,000900
21,250333	0,5	-6,037650
21,258667	0,5	-6,026350
21,267000	0,5	-6,043000
21,275333	0,5	-6,051250
21,283667	0,5	-6,056850
21,292000	0,5	-6,063050
21,300333	0,5	-6,088050
21,308667	0,5	-6,106350
21,317000	0,5	-6,142800
21,325333	0,5	-6,176350
21,333667	0,5	-6,171250
21,342000	0,5	-6,167300
21,350333	0,5	-6,184250
21,358667	0,5	-6,206000
21,367000	0,5	-6,236550
21,375333	0,5	-6,265600
21,383667	0,5	-6,296550
21,392000	0,5	-6,343750
21,400333	0,5	-6,345950
21,408667	0,5	-6,358550
21,417000	0,5	-6,369050
21,425333	0,5	-6,395700
21,433667	0,5	-6,393550
21,442000	0,5	-6,415850
21,450333	0,5	-6,419550
21,458667	0,5	-6,444050
21,467000	0,5	-6,454800
21,475333	0,5	-6,479750
21,483667	0,5	-6,454050
21,492000	0,5	-6,446750
21,500333	0,5	-6,461300
21,508667	0,5	-6,461100
21,517000	0,5	-6,487850
21,525333	0,5	-6,523050
21,533667	0,5	-6,565700
21,542000	0,5	-6,590900
21,550333	0,5	-6,605550
21,558667	0,5	-6,606950
21,567000	0,5	-6,622500
21,575333	0,5	-6,626750
21,583667	0,5	-6,638000
21,592000	0,5	-6,640050
21,600333	0,5	-6,646700
21,608667	0,5	-6,648750
21,617000	0,5	-6,653850
21,625333	0,5	-6,636050
21,633667	0,5	-6,605500
21,642000	0,5	-6,595600
21,650333	0,5	-6,581500
21,658667	0,5	-6,567550
21,667000	0,5	-6,579950
21,675333	0,5	-6,607850
21,683667	0,5	-6,642050
21,692000	0,5	-6,674850
21,700333	0,5	-6,688300
21,708667	0,5	-6,704200
21,717000	0,5	-6,713550
21,725333	0,5	-6,719150
21,733667	0,5	-6,727450
21,742000	0,5	-6,730200
21,750333	0,5	-6,735750
21,758667	0,5	-6,766450
21,767000	0,5	-6,795000
21,775333	0,5	-6,797750
21,783667	0,5	-6,818450
21,792000	0,5	-6,853000
21,800333	0,5	-6,865650
21,808667	0,5	-6,884450
21,817000	0,5	-6,918050
21,825333	0,5	-6,949450
21,833667	0,5	-6,979400
21,842000	0,5	-6,971650
21,850333	0,5	-6,986050
21,858667	0,5	-6,981900
21,867000	0,5	-7,007100
21,875333	0,5	-7,015850
21,883667	0,5	-7,030000
21,892000	0,5	-7,039650
21,900333	0,5	-7,051250
21,908667	0,5	-7,047300
21,917000	0,5	-7,013850
21,925333	0,5	-6,945100
21,933667	0,5	-6,924350
21,942000	0,5	-6,889000
21,950333	0,5	-6,892000
21,958667	0,5	-6,942900
21,967000	0,5	-6,995300
21,975333	0,5	-7,072200
21,983667	0,5	-7,101800
21,992000	0,5	-7,153150
22,000333	0,5	-7,178850
22,008667	0,5	-7,218850
22,017000	0,5	-7,250150
22,025333	0,5	-7,288900
22,033667	0,5	-7,311650
22,042000	0,5	-7,339000
22,050333	0,5	-7,362600
22,058667	0,5	-7,391650
22,067000	0,5	-7,399400
22,075333	0,5	-7,433400
22,083667	0,5	-7,456400
22,092000	0,5	-7,468700
22,100333	0,5	-7,486800
22,108667	0,5	-7,509600
22,117000	0,5	-7,555950
22,125333	0,5	-7,577150
22,133667	0,5	-7,595050
22,142000	0,5	-7,594550
22,150333	0,5	-7,620950
22,158667	0,5	-7,628350
22,167000	0,5	-7,640950
22,175333	0,5	-7,650550
22,183667	0,5	-7,663550
22,192000	0,5	-7,670600
22,200333	0,5	-7,684650
22,208667	0,5	-7,710700
22,217000	0,5	-7,719200
22,225333	0,5	-7,738650
22,233667	0,5	-7,725800
22,242000	0,5	-7,736050
22,250333	0,5	-7,719600
22,258667	0,5	-7,731800
22,267000	0,5	-7,751400
22,275333	0,5	-7,742650
22,283667	0,5	-7,726900
22,292000	0,5	-7,721750
22,300333	0,5	-7,715250
22,308667	0,5	-7,696700
22,317000	0,5	-7,692250
22,325333	0,5	-7,687600
22,333667	0,5	-7,669800
22,342000	0,5	-7,644000
22,350333	0,5	-7,592400
22,358667	0,5	-7,521400
22,367000	0,5	-7,427150
22,375333	0,5	-7,371450
22,383667	0,5	-7,333800
22,392000	0,5	-7,381550
22,400333	0,5	-7,453250
22,408667	0,5	-7,515100
22,417000	0,5	-7,581050
22,425333	0,5	-7,597500
22,433667	0,5	-7,619850
22,442000	0,5	-7,640250
22,450333	0,5	-7,665600
22,458667	0,5	-7,666850
22,467000	0,5	-7,678650
22,475333	0,5	-7,678150
22,483667	0,5	-7,680750
22,492000	0,5	-7,676700
22,500333	0,5	-7,694050
22,508667	0,5	-7,709100
22,517000	0,5	-7,694500
22,525333	0,5	-7,657200
22,533667	0,5	-7,626800
22,542000	0,5	-7,610950
22,550333	0,5	-7,603150
22,558667	0,5	-7,600800
22,567000	0,5	-7,570450
22,575333	0,5	-7,551500
22,583667	0,5	-7,519300
22,592000	0,5	-7,514200
22,600333	0,5	-7,504250
22,608667	0,5	-7,504850
22,617000	0,5	-7,503650
22,625333	0,5	-7,500350
22,633667	0,5	-7,503100
22,642000	0,5	-7,514750
22,650333	0,5	-7,569300
22,658667	0,5	-7,559300
22,667000	0,5	-7,538050
22,675333	0,5	-7,531950
22,683667	0,5	-7,539400
22,692000	0,5	-7,551300
22,700333	0,5	-7,591750
22,708667	0,5	-7,609250
22,717000	0,5	-7,639750
22,725333	0,5	-7,631550
22,733667	0,5	-7,651550
22,742000	0,5	-7,661250
22,750333	0,5	-7,682300
22,758667	0,5	-7,694400
22,767000	0,5	-7,709750
22,775333	0,5	-7,708950
22,783667	0,5	-7,728850
22,792000	0,5	-7,759600
22,800333	0,5	-7,835750
22,808667	0,5	-7,848300
22,817000	0,5	-7,828600
22,825333	0,5	-7,843650
22,833667	0,5	-7,876350
22,842000	0,5	-7,896750
22,850333	0,5	-7,925200
22,858667	0,5	-7,947700
22,867000	0,5	-7,977500
22,875333	0,5	-7,989900
22,883667	0,5	-8,015250
22,892000	0,5	-8,016500
22,900333	0,5	-8,027450
22,908667	0,5	-8,017050
22,917000	0,5	-8,024350
22,925333	0,5	-8,002100
22,933667	0,5	-7,996850
22,942000	0,5	-7,972400
22,950333	0,5	-7,974950
22,958667	0,5	-7,936600
22,967000	0,5	-7,951450
22,975333	0,5	-7,944700
22,983667	0,5	-7,918300
22,992000	0,5	-7,887850
23,000333	0,5	-7,856400
23,008667	0,5	-7,843200
23,017000	0,5	-7,800800
23,025333	0,5	-7,771550
23,033667	0,5	-7,705200
23,042000	0,5	-7,657000
23,050333	0,5	-7,593100
23,058667	0,5	-7,527600
23,067000	0,5	-7,456700
23,075333	0,5	-7,384600
23,083667	0,5	-7,287150
23,092000	0,5	-7,189800
23,100333	0,5	-7,112750
23,108667	0,5	-7,065850
23,117000	0,5	-7,017700
23,125333	0,5	-6,948150
23,133667	0,5	-6,872700
23,142000	0,5	-6,771050
23,150333	0,5	-6,713150
23,158667	0,5	-6,652400
23,167000	0,5	-6,578400
23,175333	0,5	-6,482050
23,183667	0,5	-6,408400
23,192000	0,5	-6,318600
23,200333	0,5	-6,233700
23,208667	0,5	-6,134150
23,217000	0,5	-6,042750
23,225333	0,5	-5,942700
23,233667	0,5	-5,813450
23,242000	0,5	-5,753850
23,250333	0,5	-5,626200
23,258667	0,5	-5,558050
23,267000	0,5	-5,510500
23,275333	0,5	-5,427700
23,283667	0,5	-5,342150
23,292000	0,5	-5,249350
23,300333	0,5	-5,189900
23,308667	0,5	-5,131100
23,317000	0,5	-5,054350
23,325333	0,5	-4,985750
23,333667	0,5	-4,912400
23,342000	0,5	-4,836250
23,350333	0,5	-4,757600
23,358667	0,5	-4,692900
23,367000	0,5	-4,605800
23,375333	0,5	-4,532250
23,383667	0,5	-4,495000
23,392000	0,5	-4,390050
23,400333	0,5	-4,300000
23,408667	0,5	-4,239100
23,417000	0,5	-4,189250
23,425333	0,5	-4,133150
23,433667	0,5	-4,066250
23,442000	0,5	-4,003050
23,450333	0,5	-3,962200
23,458667	0,5	-3,919800
23,467000	0,5	-3,874200
23,475333	0,5	-3,828600
23,483667	0,5	-3,782850
23,492000	0,5	-3,737500
23,500333	0,5	-3,693350
23,508667	0,5	-3,641400
23,517000	0,5	-3,590900
23,525333	0,5	-3,550700
23,533667	0,5	-3,604200
23,542000	0,5	-3,539250
23,550333	0,5	-3,443750
23,558667	0,5	-3,388900
23,567000	0,5	-3,345900
23,575333	0,5	-3,316950
23,583667	0,5	-3,281300
23,592000	0,5	-3,248600
23,600333	0,5	-3,218000
23,608667	0,5	-3,187500
23,617000	0,5	-3,153050
23,625333	0,5	-3,127000
23,633667	0,5	-3,099500
23,642000	0,5	-3,062250
23,650333	0,5	-3,030850
23,658667	0,5	-3,003700
23,667000	0,5	-2,970650
23,675333	0,5	-3,040950
23,683667	0,5	-3,072450
23,692000	0,5	-2,996550
23,700333	0,5	-2,922950
23,708667	0,5	-2,881600
23,717000	0,5	-2,856000
23,725333	0,5	-2,827000
23,733667	0,5	-2,812300
23,742000	0,5	-2,788650
23,750333	0,5	-2,770450
23,758667	0,5	-2,743700
23,767000	0,5	-2,718700
23,775333	0,5	-2,694150
23,783667	0,5	-2,667450
23,792000	0,5	-2,638350
23,800333	0,5	-2,611750
23,808667	0,5	-2,576350
23,817000	0,5	-2,552400
23,825333	0,5	-2,709400
23,833667	0,5	-2,657500
23,842000	0,5	-2,586200
23,850333	0,5	-2,520100
23,858667	0,5	-2,476050
23,867000	0,5	-2,439000
23,875333	0,5	-2,421000
23,883667	0,5	-2,406300
23,892000	0,5	-2,389600
23,900333	0,5	-2,355800
23,908667	0,5	-2,338450
23,917000	0,5	-2,314300
23,925333	0,5	-2,289600
23,933667	0,5	-2,265750
23,942000	0,5	-2,240400
23,950333	0,5	-2,219150
23,958667	0,5	-2,202500
23,967000	0,5	-2,256800
23,975333	0,5	-2,326850
23,983667	0,5	-2,295650
23,992000	0,5	-2,217100
24,000333	0,5	-2,158200
24,008667	0,5	-2,117150
24,017000	0,5	-2,094400
24,025333	0,5	-2,077850
24,033667	0,5	-2,055000
24,042000	0,5	-2,014000
24,050333	0,5	-1,999450
24,058667	0,5	-1,966100
24,067000	0,5	-1,942000
24,075333	0,5	-1,912050
24,083667	0,5	-1,893750
24,092000	0,5	-1,857900
24,100333	0,5	-1,839900
24,108667	0,5	-1,813150
24,117000	0,5	-1,916400
24,125333	0,5	-1,902300
24,133667	0,5	-1,891100
24,142000	0,5	-1,818600
24,150333	0,5	-1,778900
24,158667	0,5	-1,758200
24,167000	0,5	-1,735800
24,175333	0,5	-1,746250
24,183667	0,5	-1,706800
24,192000	0,5	-1,686650
24,200333	0,5	-1,661900
24,208667	0,5	-1,641050
24,217000	0,5	-1,610000
24,225333	0,5	-1,592600
24,233667	0,5	-1,564600
24,242000	0,5	-1,538800
24,250333	0,5	-1,512600
24,258667	0,5	-1,512350
24,267000	0,5	-1,604650
24,275333	0,5	-1,574500
24,283667	0,5	-1,538450
24,292000	0,5	-1,482700
24,300333	0,5	-1,448600
24,308667	0,5	-1,418750
24,317000	0,5	-1,410850
24,325333	0,5	-1,413500
24,333667	0,5	-1,389050
24,342000	0,5	-1,363850
24,350333	0,5	-1,347100
24,358667	0,5	-1,333900
24,367000	0,5	-1,318200
24,375333	0,5	-1,298650
24,383667	0,5	-1,282750
24,392000	0,5	-1,262500
24,400333	0,5	-1,249700
24,408667	0,5	-1,291900
24,417000	0,5	-1,314950
24,425333	0,5	-1,286750
24,433667	0,5	-1,247350
24,442000	0,5	-1,212350
24,450333	0,5	-1,190050
24,458667	0,5	-1,183200
24,467000	0,5	-1,180100
24,475333	0,5	-1,174000
24,483667	0,5	-1,147900
24,492000	0,5	-1,127800
24,500333	0,5	-1,115100
24,508667	0,5	-1,095950
24,517000	0,5	-1,079950
24,525333	0,5	-1,069600
24,533667	0,5	-1,045500
24,542000	0,5	-1,029100
24,550333	0,5	-1,010500
24,558667	0,5	-1,091250
24,567000	0,5	-1,061650
24,575333	0,5	-1,044100
24,583667	0,5	-1,012850
24,592000	0,5	-0,992800
24,600333	0,5	-0,977600
24,608667	0,5	-0,975950
24,617000	0,5	-0,980950
24,625333	0,5	-0,971650
24,633667	0,5	-0,954050
24,642000	0,5	-0,949900
24,650333	0,5	-0,936300
24,658667	0,5	-0,931650
24,667000	0,5	-0,917200
24,675333	0,5	-0,905300
24,683667	0,5	-0,894350
24,692000	0,5	-0,874450
24,700333	0,5	-0,877550
24,708667	0,5	-0,902450
24,717000	0,5	-0,888300
24,725333	0,5	-0,865950
24,733667	0,5	-0,841750
24,742000	0,5	-0,829750
24,750333	0,5	-0,818000
24,758667	0,5	-0,819150
24,767000	0,5	-0,817800
24,775333	0,5	-0,813550
24,783667	0,5	-0,802250
24,792000	0,5	-0,795700
24,800333	0,5	-0,787550
24,808667	0,5	-0,784050
24,817000	0,5	-0,777850
24,825333	0,5	-0,772100
24,833667	0,5	-0,760450
24,842000	0,5	-0,755150
24,850333	0,5	-0,765750
24,858667	0,5	-0,775300
24,867000	0,5	-0,763250
24,875333	0,5	-0,749100
24,883667	0,5	-0,732150
24,892000	0,5	-0,725150
24,900333	0,5	-0,715800
24,908667	0,5	-0,713150
24,917000	0,5	-0,708200
24,925333	0,5	-0,701500
24,933667	0,5	-0,688450
24,942000	0,5	-0,685100
24,950333	0,5	-0,675150
24,958667	0,5	-0,670350
24,967000	0,5	-0,665000
24,975333	0,5	-0,664100
24,983667	0,5	-0,656050
24,992000	0,5	-0,654700
25,000333	0,5	-0,669050
25,008667	0,5	-0,667750
25,017000	0,5	-0,660300
25,025333	0,5	-0,654950
25,033667	0,5	-0,649300
25,042000	0,5	-0,648850
25,050333	0,5	-0,648600
25,058667	0,5	-0,645900
25,067000	0,5	-0,643450
25,075333	0,5	-0,639250
25,083667	0,5	-0,635200
25,092000	0,5	-0,629000
25,100333	0,5	-0,620750
25,108667	0,5	-0,615100
25,117000	0,5	-0,609600
25,125333	0,5	-0,610850
25,133667	0,5	-0,596100
25,142000	0,5	-0,593650
25,150333	0,5	-0,591050
25,158667	0,5	-0,586000
25,167000	0,5	-0,582600
25,175333	0,5	-0,582700
25,183667	0,5	-0,580150
25,192000	0,5	-0,579600
25,200333	0,5	-0,577450
25,208667	0,5	-0,583950
25,217000	0,5	-0,580200
25,225333	0,5	-0,582450
25,233667	0,5	-0,580150
25,242000	0,5	-0,579200
25,250333	0,5	-0,578150
25,258667	0,5	-0,577750
25,267000	0,5	-0,572350
25,275333	0,5	-0,568900
25,283667	0,5	-0,564200
25,292000	0,5	-0,561100
25,300333	0,5	-0,551250
25,308667	0,5	-0,546350
25,317000	0,5	-0,547450
25,325333	0,5	-0,544450
25,333667	0,5	-0,540600
25,342000	0,5	-0,536500
25,350333	0,5	-0,534650
25,358667	0,5	-0,535700
25,367000	0,5	-0,537350
25,375333	0,5	-0,536000
25,383667	0,5	-0,534550
25,392000	0,5	-0,538950
25,400333	0,5	-0,539150
25,408667	0,5	-0,541250
25,417000	0,5	-0,539950
25,425333	0,5	-0,538750
25,433667	0,5	-0,539600
25,442000	0,5	-0,528900
25,450333	0,5	-0,529700
25,458667	0,5	-0,527700
25,467000	0,5	-0,531450
25,475333	0,5	-0,527150
25,483667	0,5	-0,529000
25,492000	0,5	-0,527750
25,500333	0,5	-0,519900
25,508667	0,5	-0,515700
25,517000	0,5	-0,517250
25,525333	0,5	-0,516900
25,533667	0,5	-0,515600
25,542000	0,5	-0,514050
25,550333	0,5	-0,516000
25,558667	0,5	-0,515850
25,567000	0,5	-0,519150
25,575333	0,5	-0,517750
25,583667	0,5	-0,518750
25,592000	0,5	-0,506900
25,600333	0,5	-0,512050
25,608667	0,5	-0,507150
25,617000	0,5	-0,514200
25,625333	0,5	-0,515000
25,633667	0,5	-0,515750
25,642000	0,5	-0,511000
25,650333	0,5	-0,503000
25,658667	0,5	-0,502350
25,667000	0,5	-0,507600
25,675333	0,5	-0,503900
25,683667	0,5	-0,507150
25,692000	0,5	-0,510100
25,700333	0,5	-0,507900
25,708667	0,5	-0,507650
25,717000	0,5	-0,504350
25,725333	0,5	-0,500650
25,733667	0,5	-0,491950
25,742000	0,5	-0,490500
25,750333	0,5	-0,482500
25,758667	0,5	-0,484700
25,767000	0,5	-0,492850
25,775333	0,5	-0,493150
25,783667	0,5	-0,493950
25,792000	0,5	-0,488900
25,800333	0,5	-0,476700
25,808667	0,5	-0,479400
25,817000	0,5	-0,477250
25,825333	0,5	-0,477050
25,833667	0,5	-0,477400
25,842000	0,5	-0,478400
25,850333	0,5	-0,473350
25,858667	0,5	-0,471900
25,867000	0,5	-0,468000
25,875333	0,5	-0,462500
25,883667	0,5	-0,462050
25,892000	0,5	-0,452600
25,900333	0,5	-0,441100
25,908667	0,5	-0,445450
25,917000	0,5	-0,450250
25,925333	0,5	-0,445200
25,933667	0,5	-0,443900
25,942000	0,5	-0,427100
25,950333	0,5	-0,419950
25,958667	0,5	-0,419150
25,967000	0,5	-0,416750
25,975333	0,5	-0,412850
25,983667	0,5	-0,416250
25,992000	0,5	-0,409800
26,000333	0,5	-0,407200
