File Path	chrom://chromeleon01/ikbm_chromeleon/2022/ICS-5000/ED1/Esteban/20220427_Cell_Amandas_mutants.seq/921.smp/ED_1.channel/ED_1.chm
Channel	ED_1

Injection Information:
Data Vault	ikbm_chromeleon
Injection	T24h_PASC_4b
Injection Number	28
Position	RC6
Comment	
Processing Method	Stop sequence after Cell Death
Instrument Method	ICS5000_PA200_FullNative_Ox_26min_ED1
Type	Unknown
Status	Finished
Injection Date	28.04.2022
Injection Time	01:47:58
Injection Volume (µl)	5,0
Dilution Factor	1,0000
Weight	1,0000

Chromatogram Data Information:
Time Min. (min)	0,000333
Time Max. (min)	26,000333
Data Points	3121
Detector	EDet1
Generating Data System	Chromeleon 7.2.9.11323
Exporting Data System	Chromeleon 7.2.9.0
Operator	Instrument Controller
Signal Quantity	
Signal Unit	nC
Signal Min.	-7,950950
Signal Max.	32,228400
Channel	ED_1
Driver Name	DC-5000
Channel Type	Evaluation
Min. Step (s)	0,5
Max. Step (s)	0,5
Average Step (s)	0,5

Signal Parameter Information:
Signal Info	

Chromatogram Data:
Time (min)	Step (s)	Value (nC)
0,000333	n.a.	-0,067650
0,008667	0,5	-0,108800
0,017000	0,5	-0,098750
0,025333	0,5	-0,091600
0,033667	0,5	-0,073400
0,042000	0,5	-0,076350
0,050333	0,5	-0,042400
0,058667	0,5	-0,050250
0,067000	0,5	-0,042250
0,075333	0,5	-0,002650
0,083667	0,5	-0,035300
0,092000	0,5	-0,062300
0,100333	0,5	-0,036550
0,108667	0,5	-0,021900
0,117000	0,5	0,022000
0,125333	0,5	0,008000
0,133667	0,5	-0,003550
0,142000	0,5	-0,007100
0,150333	0,5	-0,009400
0,158667	0,5	-0,018400
0,167000	0,5	-0,022200
0,175333	0,5	-0,013850
0,183667	0,5	-0,031850
0,192000	0,5	-0,022000
0,200333	0,5	-0,016350
0,208667	0,5	-0,004650
0,217000	0,5	-0,027350
0,225333	0,5	0,012200
0,233667	0,5	-0,032350
0,242000	0,5	-0,036900
0,250333	0,5	-0,037350
0,258667	0,5	-0,008500
0,267000	0,5	0,016500
0,275333	0,5	-0,012300
0,283667	0,5	-0,033100
0,292000	0,5	-0,020900
0,300333	0,5	0,022550
0,308667	0,5	0,072750
0,317000	0,5	0,041150
0,325333	0,5	-0,028700
0,333667	0,5	-0,049750
0,342000	0,5	-0,051000
0,350333	0,5	-0,037150
0,358667	0,5	-0,052550
0,367000	0,5	-0,041650
0,375333	0,5	-0,041350
0,383667	0,5	-0,052500
0,392000	0,5	-0,067700
0,400333	0,5	-0,048500
0,408667	0,5	-0,020450
0,417000	0,5	0,003250
0,425333	0,5	-0,033200
0,433667	0,5	-0,019200
0,442000	0,5	-0,032750
0,450333	0,5	-0,029150
0,458667	0,5	-0,041700
0,467000	0,5	-0,040250
0,475333	0,5	-0,045700
0,483667	0,5	-0,052750
0,492000	0,5	-0,046500
0,500333	0,5	-0,054450
0,508667	0,5	-0,065300
0,517000	0,5	-0,041750
0,525333	0,5	-0,060900
0,533667	0,5	-0,068650
0,542000	0,5	-0,068000
0,550333	0,5	-0,051800
0,558667	0,5	-0,012400
0,567000	0,5	-0,012050
0,575333	0,5	-0,012950
0,583667	0,5	-0,033050
0,592000	0,5	-0,025350
0,600333	0,5	-0,035350
0,608667	0,5	-0,023750
0,617000	0,5	-0,026850
0,625333	0,5	-0,035200
0,633667	0,5	-0,032950
0,642000	0,5	-0,029600
0,650333	0,5	-0,036850
0,658667	0,5	-0,030350
0,667000	0,5	-0,017900
0,675333	0,5	-0,039700
0,683667	0,5	-0,046350
0,692000	0,5	-0,049600
0,700333	0,5	-0,023450
0,708667	0,5	0,013200
0,717000	0,5	0,024850
0,725333	0,5	0,008800
0,733667	0,5	0,010000
0,742000	0,5	0,003200
0,750333	0,5	0,003750
0,758667	0,5	-0,013350
0,767000	0,5	-0,006950
0,775333	0,5	-0,016450
0,783667	0,5	-0,013450
0,792000	0,5	-0,015450
0,800333	0,5	-0,003450
0,808667	0,5	0,007700
0,817000	0,5	0,014750
0,825333	0,5	-0,013300
0,833667	0,5	-0,011900
0,842000	0,5	-0,008750
0,850333	0,5	0,020900
0,858667	0,5	0,045850
0,867000	0,5	0,032300
0,875333	0,5	0,028950
0,883667	0,5	0,019350
0,892000	0,5	0,019150
0,900333	0,5	0,013150
0,908667	0,5	0,031150
0,917000	0,5	0,022700
0,925333	0,5	0,024400
0,933667	0,5	0,024250
0,942000	0,5	0,024650
0,950333	0,5	0,006450
0,958667	0,5	0,049000
0,967000	0,5	0,027300
0,975333	0,5	0,016200
0,983667	0,5	0,013850
0,992000	0,5	0,023700
1,000333	0,5	0,057650
1,008667	0,5	0,072700
1,017000	0,5	0,059300
1,025333	0,5	0,060500
1,033667	0,5	0,064100
1,042000	0,5	0,061300
1,050333	0,5	0,063300
1,058667	0,5	0,057200
1,067000	0,5	0,059800
1,075333	0,5	0,055500
1,083667	0,5	0,059450
1,092000	0,5	0,054850
1,100333	0,5	0,062850
1,108667	0,5	0,102550
1,117000	0,5	0,073600
1,125333	0,5	0,058550
1,133667	0,5	0,064800
1,142000	0,5	0,074000
1,150333	0,5	0,126300
1,158667	0,5	0,111000
1,167000	0,5	0,104600
1,175333	0,5	0,104650
1,183667	0,5	0,106350
1,192000	0,5	0,096100
1,200333	0,5	0,102750
1,208667	0,5	0,125250
1,217000	0,5	0,111850
1,225333	0,5	0,121200
1,233667	0,5	0,132000
1,242000	0,5	0,154700
1,250333	0,5	0,155650
1,258667	0,5	0,169950
1,267000	0,5	0,146800
1,275333	0,5	0,146250
1,283667	0,5	0,151600
1,292000	0,5	0,173800
1,300333	0,5	0,209250
1,308667	0,5	0,197950
1,317000	0,5	0,187400
1,325333	0,5	0,196100
1,333667	0,5	0,193900
1,342000	0,5	0,211900
1,350333	0,5	0,218750
1,358667	0,5	0,213900
1,367000	0,5	0,216150
1,375333	0,5	0,223850
1,383667	0,5	0,248650
1,392000	0,5	0,241700
1,400333	0,5	0,272000
1,408667	0,5	0,275900
1,417000	0,5	0,259300
1,425333	0,5	0,256400
1,433667	0,5	0,279250
1,442000	0,5	0,307350
1,450333	0,5	0,341000
1,458667	0,5	0,309350
1,467000	0,5	0,330950
1,475333	0,5	0,325200
1,483667	0,5	0,337950
1,492000	0,5	0,332450
1,500333	0,5	0,342950
1,508667	0,5	0,349200
1,517000	0,5	0,354000
1,525333	0,5	0,360200
1,533667	0,5	0,371100
1,542000	0,5	0,359700
1,550333	0,5	0,394250
1,558667	0,5	0,377450
1,567000	0,5	0,373550
1,575333	0,5	0,308150
1,583667	0,5	-0,028200
1,592000	0,5	-0,936500
1,600333	0,5	-1,783200
1,608667	0,5	-1,127550
1,617000	0,5	0,878300
1,625333	0,5	2,892100
1,633667	0,5	4,777550
1,642000	0,5	6,773400
1,650333	0,5	8,306000
1,658667	0,5	8,816550
1,667000	0,5	8,466800
1,675333	0,5	7,778850
1,683667	0,5	7,015350
1,692000	0,5	6,325300
1,700333	0,5	5,756400
1,708667	0,5	5,392950
1,717000	0,5	5,509750
1,725333	0,5	6,374750
1,733667	0,5	7,648000
1,742000	0,5	8,153700
1,750333	0,5	7,374200
1,758667	0,5	6,035950
1,767000	0,5	4,948100
1,775333	0,5	4,343350
1,783667	0,5	4,383400
1,792000	0,5	5,428200
1,800333	0,5	7,690500
1,808667	0,5	10,322700
1,817000	0,5	12,094900
1,825333	0,5	12,600650
1,833667	0,5	11,836200
1,842000	0,5	10,226600
1,850333	0,5	8,523500
1,858667	0,5	7,155500
1,867000	0,5	6,194150
1,875333	0,5	5,497750
1,883667	0,5	5,017800
1,892000	0,5	4,621450
1,900333	0,5	4,273450
1,908667	0,5	3,981100
1,917000	0,5	3,732300
1,925333	0,5	3,528800
1,933667	0,5	3,369100
1,942000	0,5	3,268250
1,950333	0,5	3,214600
1,958667	0,5	3,205950
1,967000	0,5	3,183550
1,975333	0,5	3,149000
1,983667	0,5	3,117700
1,992000	0,5	3,147350
2,000333	0,5	3,146600
2,008667	0,5	3,161900
2,017000	0,5	3,204000
2,025333	0,5	3,281200
2,033667	0,5	3,454350
2,042000	0,5	3,841000
2,050333	0,5	4,486800
2,058667	0,5	5,179250
2,067000	0,5	5,747150
2,075333	0,5	6,269600
2,083667	0,5	6,695450
2,092000	0,5	6,889250
2,100333	0,5	6,916450
2,108667	0,5	6,896200
2,117000	0,5	6,904600
2,125333	0,5	6,948700
2,133667	0,5	7,155050
2,142000	0,5	7,549150
2,150333	0,5	8,188000
2,158667	0,5	9,344500
2,167000	0,5	10,905550
2,175333	0,5	11,887100
2,183667	0,5	11,568650
2,192000	0,5	10,360800
2,200333	0,5	9,201450
2,208667	0,5	8,383750
2,217000	0,5	7,828950
2,225333	0,5	7,423400
2,233667	0,5	7,153950
2,242000	0,5	6,961900
2,250333	0,5	6,845950
2,258667	0,5	6,775150
2,267000	0,5	6,743300
2,275333	0,5	6,714450
2,283667	0,5	6,727250
2,292000	0,5	6,739600
2,300333	0,5	6,741850
2,308667	0,5	6,757800
2,317000	0,5	6,782750
2,325333	0,5	6,839750
2,333667	0,5	6,871100
2,342000	0,5	6,899350
2,350333	0,5	6,932050
2,358667	0,5	6,983700
2,367000	0,5	7,024400
2,375333	0,5	7,080550
2,383667	0,5	7,125200
2,392000	0,5	7,185350
2,400333	0,5	7,229250
2,408667	0,5	7,306450
2,417000	0,5	7,404800
2,425333	0,5	7,503750
2,433667	0,5	7,686300
2,442000	0,5	7,871750
2,450333	0,5	8,047050
2,458667	0,5	8,160250
2,467000	0,5	8,162400
2,475333	0,5	8,112350
2,483667	0,5	8,062400
2,492000	0,5	8,038950
2,500333	0,5	8,056550
2,508667	0,5	8,078300
2,517000	0,5	8,085300
2,525333	0,5	8,072000
2,533667	0,5	8,068150
2,542000	0,5	8,049650
2,550333	0,5	8,042900
2,558667	0,5	8,040900
2,567000	0,5	8,056800
2,575333	0,5	8,105200
2,583667	0,5	8,254050
2,592000	0,5	8,451700
2,600333	0,5	8,832450
2,608667	0,5	9,506950
2,617000	0,5	10,726200
2,625333	0,5	12,682750
2,633667	0,5	15,326700
2,642000	0,5	18,266650
2,650333	0,5	20,817950
2,658667	0,5	22,451250
2,667000	0,5	22,930950
2,675333	0,5	22,362050
2,683667	0,5	20,987450
2,692000	0,5	19,189900
2,700333	0,5	17,332250
2,708667	0,5	15,712200
2,717000	0,5	14,426100
2,725333	0,5	13,581850
2,733667	0,5	13,185050
2,742000	0,5	13,328450
2,750333	0,5	14,184000
2,758667	0,5	15,838350
2,767000	0,5	18,286400
2,775333	0,5	21,440600
2,783667	0,5	25,065600
2,792000	0,5	28,667550
2,800333	0,5	31,337900
2,808667	0,5	32,228400
2,817000	0,5	31,070700
2,825333	0,5	28,312200
2,833667	0,5	24,798550
2,842000	0,5	21,307000
2,850333	0,5	18,372050
2,858667	0,5	16,174550
2,867000	0,5	14,825700
2,875333	0,5	14,431300
2,883667	0,5	15,107300
2,892000	0,5	16,786000
2,900333	0,5	18,951800
2,908667	0,5	20,609500
2,917000	0,5	20,972600
2,925333	0,5	19,822500
2,933667	0,5	17,680800
2,942000	0,5	15,234200
2,950333	0,5	12,992200
2,958667	0,5	11,127650
2,967000	0,5	9,675150
2,975333	0,5	8,557050
2,983667	0,5	7,681250
2,992000	0,5	7,011350
3,000333	0,5	6,470850
3,008667	0,5	6,038500
3,017000	0,5	5,667850
3,025333	0,5	5,370300
3,033667	0,5	5,073150
3,042000	0,5	4,824250
3,050333	0,5	4,601800
3,058667	0,5	4,419250
3,067000	0,5	4,254850
3,075333	0,5	4,095000
3,083667	0,5	3,928600
3,092000	0,5	3,800250
3,100333	0,5	3,657600
3,108667	0,5	3,540050
3,117000	0,5	3,421600
3,125333	0,5	3,294700
3,133667	0,5	3,173100
3,142000	0,5	3,056250
3,150333	0,5	2,956300
3,158667	0,5	2,850150
3,167000	0,5	2,771950
3,175333	0,5	2,705300
3,183667	0,5	2,630300
3,192000	0,5	2,580350
3,200333	0,5	2,572200
3,208667	0,5	2,592800
3,217000	0,5	2,654150
3,225333	0,5	2,705450
3,233667	0,5	2,858700
3,242000	0,5	3,153100
3,250333	0,5	3,681000
3,258667	0,5	4,491900
3,267000	0,5	5,587150
3,275333	0,5	6,771950
3,283667	0,5	7,772800
3,292000	0,5	8,297050
3,300333	0,5	8,195350
3,308667	0,5	7,515100
3,317000	0,5	6,543400
3,325333	0,5	5,450050
3,333667	0,5	4,469150
3,342000	0,5	3,676100
3,350333	0,5	3,089200
3,358667	0,5	2,686250
3,367000	0,5	2,349800
3,375333	0,5	2,097750
3,383667	0,5	1,888950
3,392000	0,5	1,739600
3,400333	0,5	1,601700
3,408667	0,5	1,496800
3,417000	0,5	1,403700
3,425333	0,5	1,321100
3,433667	0,5	1,242800
3,442000	0,5	1,182550
3,450333	0,5	1,128550
3,458667	0,5	1,069300
3,467000	0,5	1,036350
3,475333	0,5	0,977250
3,483667	0,5	0,925950
3,492000	0,5	0,888300
3,500333	0,5	0,854550
3,508667	0,5	0,848150
3,517000	0,5	0,824100
3,525333	0,5	0,781750
3,533667	0,5	0,755250
3,542000	0,5	0,725600
3,550333	0,5	0,698800
3,558667	0,5	0,671700
3,567000	0,5	0,654450
3,575333	0,5	0,622400
3,583667	0,5	0,610400
3,592000	0,5	0,592900
3,600333	0,5	0,563450
3,608667	0,5	0,535450
3,617000	0,5	0,537400
3,625333	0,5	0,500100
3,633667	0,5	0,480150
3,642000	0,5	0,460250
3,650333	0,5	0,461100
3,658667	0,5	0,473150
3,667000	0,5	0,453050
3,675333	0,5	0,424950
3,683667	0,5	0,414700
3,692000	0,5	0,396950
3,700333	0,5	0,376650
3,708667	0,5	0,362950
3,717000	0,5	0,345800
3,725333	0,5	0,342100
3,733667	0,5	0,323350
3,742000	0,5	0,308950
3,750333	0,5	0,275100
3,758667	0,5	0,271300
3,767000	0,5	0,265250
3,775333	0,5	0,245950
3,783667	0,5	0,242100
3,792000	0,5	0,236300
3,800333	0,5	0,251600
3,808667	0,5	0,267750
3,817000	0,5	0,258850
3,825333	0,5	0,261600
3,833667	0,5	0,249950
3,842000	0,5	0,249700
3,850333	0,5	0,237700
3,858667	0,5	0,241300
3,867000	0,5	0,235100
3,875333	0,5	0,228800
3,883667	0,5	0,236750
3,892000	0,5	0,213000
3,900333	0,5	0,202950
3,908667	0,5	0,212350
3,917000	0,5	0,193200
3,925333	0,5	0,179000
3,933667	0,5	0,182500
3,942000	0,5	0,180050
3,950333	0,5	0,203400
3,958667	0,5	0,200700
3,967000	0,5	0,200400
3,975333	0,5	0,185050
3,983667	0,5	0,179350
3,992000	0,5	0,167150
4,000333	0,5	0,173850
4,008667	0,5	0,161200
4,017000	0,5	0,149950
4,025333	0,5	0,149350
4,033667	0,5	0,147350
4,042000	0,5	0,129900
4,050333	0,5	0,127500
4,058667	0,5	0,132050
4,067000	0,5	0,119450
4,075333	0,5	0,104950
4,083667	0,5	0,103250
4,092000	0,5	0,120150
4,100333	0,5	0,127400
4,108667	0,5	0,126400
4,117000	0,5	0,109700
4,125333	0,5	0,115200
4,133667	0,5	0,107000
4,142000	0,5	0,111600
4,150333	0,5	0,098200
4,158667	0,5	0,099800
4,167000	0,5	0,093150
4,175333	0,5	0,090550
4,183667	0,5	0,088600
4,192000	0,5	0,076750
4,200333	0,5	0,091050
4,208667	0,5	0,098200
4,217000	0,5	0,080800
4,225333	0,5	0,066600
4,233667	0,5	0,081800
4,242000	0,5	0,096750
4,250333	0,5	0,105950
4,258667	0,5	0,085050
4,267000	0,5	0,082500
4,275333	0,5	0,087600
4,283667	0,5	0,081950
4,292000	0,5	0,073300
4,300333	0,5	0,078850
4,308667	0,5	0,069200
4,317000	0,5	0,069500
4,325333	0,5	0,070950
4,333667	0,5	0,086350
4,342000	0,5	0,065350
4,350333	0,5	0,088750
4,358667	0,5	0,073450
4,367000	0,5	0,070200
4,375333	0,5	0,065650
4,383667	0,5	0,073800
4,392000	0,5	0,102800
4,400333	0,5	0,100550
4,408667	0,5	0,097450
4,417000	0,5	0,094750
4,425333	0,5	0,098750
4,433667	0,5	0,102000
4,442000	0,5	0,115800
4,450333	0,5	0,122450
4,458667	0,5	0,122250
4,467000	0,5	0,127100
4,475333	0,5	0,143800
4,483667	0,5	0,142750
4,492000	0,5	0,143500
4,500333	0,5	0,174150
4,508667	0,5	0,178950
4,517000	0,5	0,196850
4,525333	0,5	0,227150
4,533667	0,5	0,264750
4,542000	0,5	0,325200
4,550333	0,5	0,337900
4,558667	0,5	0,346600
4,567000	0,5	0,352100
4,575333	0,5	0,352550
4,583667	0,5	0,343100
4,592000	0,5	0,331550
4,600333	0,5	0,315400
4,608667	0,5	0,291800
4,617000	0,5	0,282900
4,625333	0,5	0,264650
4,633667	0,5	0,248500
4,642000	0,5	0,236400
4,650333	0,5	0,239950
4,658667	0,5	0,207550
4,667000	0,5	0,195700
4,675333	0,5	0,191100
4,683667	0,5	0,207250
4,692000	0,5	0,222600
4,700333	0,5	0,223100
4,708667	0,5	0,207000
4,717000	0,5	0,213550
4,725333	0,5	0,207700
4,733667	0,5	0,206850
4,742000	0,5	0,215000
4,750333	0,5	0,212500
4,758667	0,5	0,211150
4,767000	0,5	0,209750
4,775333	0,5	0,211550
4,783667	0,5	0,206850
4,792000	0,5	0,220500
4,800333	0,5	0,220600
4,808667	0,5	0,213850
4,817000	0,5	0,217250
4,825333	0,5	0,230750
4,833667	0,5	0,253350
4,842000	0,5	0,283200
4,850333	0,5	0,280800
4,858667	0,5	0,277650
4,867000	0,5	0,278250
4,875333	0,5	0,281500
4,883667	0,5	0,279500
4,892000	0,5	0,283000
4,900333	0,5	0,279300
4,908667	0,5	0,279200
4,917000	0,5	0,284700
4,925333	0,5	0,273600
4,933667	0,5	0,267150
4,942000	0,5	0,295500
4,950333	0,5	0,289300
4,958667	0,5	0,279950
4,967000	0,5	0,289550
4,975333	0,5	0,307950
4,983667	0,5	0,343050
4,992000	0,5	0,347500
5,000333	0,5	0,347750
5,008667	0,5	0,347100
5,017000	0,5	0,358200
5,025333	0,5	0,356950
5,033667	0,5	0,362750
5,042000	0,5	0,361950
5,050333	0,5	0,374600
5,058667	0,5	0,374800
5,067000	0,5	0,381250
5,075333	0,5	0,365650
5,083667	0,5	0,377150
5,092000	0,5	0,384400
5,100333	0,5	0,385500
5,108667	0,5	0,384650
5,117000	0,5	0,393350
5,125333	0,5	0,411550
5,133667	0,5	0,436400
5,142000	0,5	0,441250
5,150333	0,5	0,442300
5,158667	0,5	0,448150
5,167000	0,5	0,448950
5,175333	0,5	0,459150
5,183667	0,5	0,467050
5,192000	0,5	0,477000
5,200333	0,5	0,474250
5,208667	0,5	0,495500
5,217000	0,5	0,505950
5,225333	0,5	0,517450
5,233667	0,5	0,547200
5,242000	0,5	0,572000
5,250333	0,5	0,588350
5,258667	0,5	0,612050
5,267000	0,5	0,633900
5,275333	0,5	0,674950
5,283667	0,5	0,691450
5,292000	0,5	0,690300
5,300333	0,5	0,686100
5,308667	0,5	0,686250
5,317000	0,5	0,665600
5,325333	0,5	0,651950
5,333667	0,5	0,636750
5,342000	0,5	0,615850
5,350333	0,5	0,613200
5,358667	0,5	0,600850
5,367000	0,5	0,584900
5,375333	0,5	0,561000
5,383667	0,5	0,577000
5,392000	0,5	0,557550
5,400333	0,5	0,555850
5,408667	0,5	0,555200
5,417000	0,5	0,566850
5,425333	0,5	0,592450
5,433667	0,5	0,586900
5,442000	0,5	0,584050
5,450333	0,5	0,585800
5,458667	0,5	0,594050
5,467000	0,5	0,595500
5,475333	0,5	0,597700
5,483667	0,5	0,600700
5,492000	0,5	0,606150
5,500333	0,5	0,611150
5,508667	0,5	0,616900
5,517000	0,5	0,603450
5,525333	0,5	0,599850
5,533667	0,5	0,621050
5,542000	0,5	0,616000
5,550333	0,5	0,623700
5,558667	0,5	0,635650
5,567000	0,5	0,647850
5,575333	0,5	0,681050
5,583667	0,5	0,676800
5,592000	0,5	0,685150
5,600333	0,5	0,687900
5,608667	0,5	0,692350
5,617000	0,5	0,690750
5,625333	0,5	0,697400
5,633667	0,5	0,697450
5,642000	0,5	0,693800
5,650333	0,5	0,703050
5,658667	0,5	0,706050
5,667000	0,5	0,704700
5,675333	0,5	0,710250
5,683667	0,5	0,724050
5,692000	0,5	0,719050
5,700333	0,5	0,721250
5,708667	0,5	0,727550
5,717000	0,5	0,747900
5,725333	0,5	0,771050
5,733667	0,5	0,779200
5,742000	0,5	0,772750
5,750333	0,5	0,781500
5,758667	0,5	0,782650
5,767000	0,5	0,791350
5,775333	0,5	0,793900
5,783667	0,5	0,803050
5,792000	0,5	0,806300
5,800333	0,5	0,812750
5,808667	0,5	0,813900
5,817000	0,5	0,812550
5,825333	0,5	0,821200
5,833667	0,5	0,827050
5,842000	0,5	0,821750
5,850333	0,5	0,828500
5,858667	0,5	0,844200
5,867000	0,5	0,867350
5,875333	0,5	0,887650
5,883667	0,5	0,889750
5,892000	0,5	0,892850
5,900333	0,5	0,898950
5,908667	0,5	0,904800
5,917000	0,5	0,908500
5,925333	0,5	0,917000
5,933667	0,5	0,912400
5,942000	0,5	0,923250
5,950333	0,5	0,927400
5,958667	0,5	0,925350
5,967000	0,5	0,927050
5,975333	0,5	0,955100
5,983667	0,5	0,950550
5,992000	0,5	0,953550
6,000333	0,5	0,962650
6,008667	0,5	0,978250
6,017000	0,5	1,005900
6,025333	0,5	1,013500
6,033667	0,5	1,019600
6,042000	0,5	1,020350
6,050333	0,5	1,030200
6,058667	0,5	1,026250
6,067000	0,5	1,043150
6,075333	0,5	1,045000
6,083667	0,5	1,047100
6,092000	0,5	1,053000
6,100333	0,5	1,064250
6,108667	0,5	1,049500
6,117000	0,5	1,069600
6,125333	0,5	1,072600
6,133667	0,5	1,072650
6,142000	0,5	1,069200
6,150333	0,5	1,079300
6,158667	0,5	1,104200
6,167000	0,5	1,131000
6,175333	0,5	1,131450
6,183667	0,5	1,135450
6,192000	0,5	1,141400
6,200333	0,5	1,146750
6,208667	0,5	1,149000
6,217000	0,5	1,156350
6,225333	0,5	1,162550
6,233667	0,5	1,161700
6,242000	0,5	1,171450
6,250333	0,5	1,174300
6,258667	0,5	1,180850
6,267000	0,5	1,206650
6,275333	0,5	1,212250
6,283667	0,5	1,203600
6,292000	0,5	1,207050
6,300333	0,5	1,215600
6,308667	0,5	1,244400
6,317000	0,5	1,253000
6,325333	0,5	1,255250
6,333667	0,5	1,257850
6,342000	0,5	1,270850
6,350333	0,5	1,271800
6,358667	0,5	1,281850
6,367000	0,5	1,288350
6,375333	0,5	1,295700
6,383667	0,5	1,307450
6,392000	0,5	1,311650
6,400333	0,5	1,331350
6,408667	0,5	1,327800
6,417000	0,5	1,357850
6,425333	0,5	1,348050
6,433667	0,5	1,353400
6,442000	0,5	1,356400
6,450333	0,5	1,368800
6,458667	0,5	1,395250
6,467000	0,5	1,412600
6,475333	0,5	1,410450
6,483667	0,5	1,421500
6,492000	0,5	1,423450
6,500333	0,5	1,436450
6,508667	0,5	1,446600
6,517000	0,5	1,456750
6,525333	0,5	1,460250
6,533667	0,5	1,470800
6,542000	0,5	1,485500
6,550333	0,5	1,493750
6,558667	0,5	1,498650
6,567000	0,5	1,525100
6,575333	0,5	1,517900
6,583667	0,5	1,527750
6,592000	0,5	1,539950
6,600333	0,5	1,559500
6,608667	0,5	1,588000
6,617000	0,5	1,582050
6,625333	0,5	1,597350
6,633667	0,5	1,604500
6,642000	0,5	1,616350
6,650333	0,5	1,614950
6,658667	0,5	1,622600
6,667000	0,5	1,628450
6,675333	0,5	1,633800
6,683667	0,5	1,640100
6,692000	0,5	1,645700
6,700333	0,5	1,647300
6,708667	0,5	1,661200
6,717000	0,5	1,668550
6,725333	0,5	1,668850
6,733667	0,5	1,671900
6,742000	0,5	1,692150
6,750333	0,5	1,716000
6,758667	0,5	1,733500
6,767000	0,5	1,742100
6,775333	0,5	1,748750
6,783667	0,5	1,761750
6,792000	0,5	1,760650
6,800333	0,5	1,768600
6,808667	0,5	1,767550
6,817000	0,5	1,779800
6,825333	0,5	1,779500
6,833667	0,5	1,794200
6,842000	0,5	1,795750
6,850333	0,5	1,799000
6,858667	0,5	1,809200
6,867000	0,5	1,809750
6,875333	0,5	1,807850
6,883667	0,5	1,818950
6,892000	0,5	1,828900
6,900333	0,5	1,845900
6,908667	0,5	1,864900
6,917000	0,5	1,860100
6,925333	0,5	1,864750
6,933667	0,5	1,867850
6,942000	0,5	1,871050
6,950333	0,5	1,876750
6,958667	0,5	1,877350
6,967000	0,5	1,873700
6,975333	0,5	1,875550
6,983667	0,5	1,878300
6,992000	0,5	1,883600
7,000333	0,5	1,883350
7,008667	0,5	1,895500
7,017000	0,5	1,883800
7,025333	0,5	1,879800
7,033667	0,5	1,884600
7,042000	0,5	1,895150
7,050333	0,5	1,905050
7,058667	0,5	1,905800
7,067000	0,5	1,903300
7,075333	0,5	1,908650
7,083667	0,5	1,906750
7,092000	0,5	1,905550
7,100333	0,5	1,904350
7,108667	0,5	1,898300
7,117000	0,5	1,901600
7,125333	0,5	1,899850
7,133667	0,5	1,903800
7,142000	0,5	1,899400
7,150333	0,5	1,907000
7,158667	0,5	1,905650
7,167000	0,5	1,897200
7,175333	0,5	1,888600
7,183667	0,5	1,894300
7,192000	0,5	1,903400
7,200333	0,5	1,910600
7,208667	0,5	1,905300
7,217000	0,5	1,900750
7,225333	0,5	1,897550
7,233667	0,5	1,896800
7,242000	0,5	1,894950
7,250333	0,5	1,897600
7,258667	0,5	1,893400
7,267000	0,5	1,893500
7,275333	0,5	1,894950
7,283667	0,5	1,892850
7,292000	0,5	1,893250
7,300333	0,5	1,903550
7,308667	0,5	1,903900
7,317000	0,5	1,899150
7,325333	0,5	1,897050
7,333667	0,5	1,898300
7,342000	0,5	1,910300
7,350333	0,5	1,908500
7,358667	0,5	1,902050
7,367000	0,5	1,897300
7,375333	0,5	1,895750
7,383667	0,5	1,886400
7,392000	0,5	1,886500
7,400333	0,5	1,880750
7,408667	0,5	1,879550
7,417000	0,5	1,872350
7,425333	0,5	1,871350
7,433667	0,5	1,876700
7,442000	0,5	1,868150
7,450333	0,5	1,874700
7,458667	0,5	1,857950
7,467000	0,5	1,859250
7,475333	0,5	1,856600
7,483667	0,5	1,859700
7,492000	0,5	1,874200
7,500333	0,5	1,877400
7,508667	0,5	1,869500
7,517000	0,5	1,874100
7,525333	0,5	1,877050
7,533667	0,5	1,879900
7,542000	0,5	1,884850
7,550333	0,5	1,893400
7,558667	0,5	1,893450
7,567000	0,5	1,901950
7,575333	0,5	1,913500
7,583667	0,5	1,930600
7,592000	0,5	1,954900
7,600333	0,5	1,995050
7,608667	0,5	2,035600
7,617000	0,5	2,106700
7,625333	0,5	2,209650
7,633667	0,5	2,342700
7,642000	0,5	2,502850
7,650333	0,5	2,643850
7,658667	0,5	2,775350
7,667000	0,5	2,869050
7,675333	0,5	2,920550
7,683667	0,5	2,914300
7,692000	0,5	2,880750
7,700333	0,5	2,801400
7,708667	0,5	2,709450
7,717000	0,5	2,612750
7,725333	0,5	2,526800
7,733667	0,5	2,442200
7,742000	0,5	2,381850
7,750333	0,5	2,328800
7,758667	0,5	2,288100
7,767000	0,5	2,254700
7,775333	0,5	2,223800
7,783667	0,5	2,197900
7,792000	0,5	2,164050
7,800333	0,5	2,130900
7,808667	0,5	2,087950
7,817000	0,5	2,060100
7,825333	0,5	2,035800
7,833667	0,5	2,013750
7,842000	0,5	1,996650
7,850333	0,5	1,978000
7,858667	0,5	1,968500
7,867000	0,5	1,957850
7,875333	0,5	1,944050
7,883667	0,5	1,933300
7,892000	0,5	1,931450
7,900333	0,5	1,924650
7,908667	0,5	1,909100
7,917000	0,5	1,910050
7,925333	0,5	1,908100
7,933667	0,5	1,913100
7,942000	0,5	1,913050
7,950333	0,5	1,911950
7,958667	0,5	1,908450
7,967000	0,5	1,916600
7,975333	0,5	1,920600
7,983667	0,5	1,925200
7,992000	0,5	1,932450
8,000333	0,5	1,943050
8,008667	0,5	1,953100
8,017000	0,5	1,960850
8,025333	0,5	1,969050
8,033667	0,5	1,973150
8,042000	0,5	1,977350
8,050333	0,5	1,963000
8,058667	0,5	1,952550
8,067000	0,5	1,946600
8,075333	0,5	1,941750
8,083667	0,5	1,947100
8,092000	0,5	1,945350
8,100333	0,5	1,947750
8,108667	0,5	1,953600
8,117000	0,5	1,956550
8,125333	0,5	1,959550
8,133667	0,5	1,970450
8,142000	0,5	1,988450
8,150333	0,5	2,016000
8,158667	0,5	2,058400
8,167000	0,5	2,105400
8,175333	0,5	2,142500
8,183667	0,5	2,170550
8,192000	0,5	2,160300
8,200333	0,5	2,126350
8,208667	0,5	2,079300
8,217000	0,5	2,029450
8,225333	0,5	2,001250
8,233667	0,5	1,984100
8,242000	0,5	1,967350
8,250333	0,5	1,965300
8,258667	0,5	1,965600
8,267000	0,5	1,971050
8,275333	0,5	1,982550
8,283667	0,5	2,009900
8,292000	0,5	2,039000
8,300333	0,5	2,064450
8,308667	0,5	2,089450
8,317000	0,5	2,094200
8,325333	0,5	2,094450
8,333667	0,5	2,088100
8,342000	0,5	2,074250
8,350333	0,5	2,065800
8,358667	0,5	2,055850
8,367000	0,5	2,060650
8,375333	0,5	2,069400
8,383667	0,5	2,082750
8,392000	0,5	2,087700
8,400333	0,5	2,097800
8,408667	0,5	2,112050
8,417000	0,5	2,125600
8,425333	0,5	2,146900
8,433667	0,5	2,177850
8,442000	0,5	2,213450
8,450333	0,5	2,255200
8,458667	0,5	2,277800
8,467000	0,5	2,256300
8,475333	0,5	2,176200
8,483667	0,5	2,073850
8,492000	0,5	1,967900
8,500333	0,5	1,880700
8,508667	0,5	1,818900
8,517000	0,5	1,779050
8,525333	0,5	1,752850
8,533667	0,5	1,732250
8,542000	0,5	1,720300
8,550333	0,5	1,710950
8,558667	0,5	1,696650
8,567000	0,5	1,691750
8,575333	0,5	1,687850
8,583667	0,5	1,686850
8,592000	0,5	1,682100
8,600333	0,5	1,685850
8,608667	0,5	1,694900
8,617000	0,5	1,697150
8,625333	0,5	1,708000
8,633667	0,5	1,721850
8,642000	0,5	1,721000
8,650333	0,5	1,721650
8,658667	0,5	1,724150
8,667000	0,5	1,721600
8,675333	0,5	1,721350
8,683667	0,5	1,718900
8,692000	0,5	1,717300
8,700333	0,5	1,713650
8,708667	0,5	1,717050
8,717000	0,5	1,717300
8,725333	0,5	1,721450
8,733667	0,5	1,726450
8,742000	0,5	1,732450
8,750333	0,5	1,735350
8,758667	0,5	1,746750
8,767000	0,5	1,749000
8,775333	0,5	1,755500
8,783667	0,5	1,755800
8,792000	0,5	1,739600
8,800333	0,5	1,735800
8,808667	0,5	1,731650
8,817000	0,5	1,731850
8,825333	0,5	1,738900
8,833667	0,5	1,746750
8,842000	0,5	1,757400
8,850333	0,5	1,765800
8,858667	0,5	1,773850
8,867000	0,5	1,778300
8,875333	0,5	1,790900
8,883667	0,5	1,797400
8,892000	0,5	1,805550
8,900333	0,5	1,813850
8,908667	0,5	1,827550
8,917000	0,5	1,837700
8,925333	0,5	1,857500
8,933667	0,5	1,870800
8,942000	0,5	1,878800
8,950333	0,5	1,894950
8,958667	0,5	1,904150
8,967000	0,5	1,908750
8,975333	0,5	1,905850
8,983667	0,5	1,891850
8,992000	0,5	1,881000
9,000333	0,5	1,866450
9,008667	0,5	1,852050
9,017000	0,5	1,840700
9,025333	0,5	1,836700
9,033667	0,5	1,837900
9,042000	0,5	1,851800
9,050333	0,5	1,861350
9,058667	0,5	1,870250
9,067000	0,5	1,884750
9,075333	0,5	1,888800
9,083667	0,5	1,874200
9,092000	0,5	1,840700
9,100333	0,5	1,793500
9,108667	0,5	1,752700
9,117000	0,5	1,723100
9,125333	0,5	1,706150
9,133667	0,5	1,687350
9,142000	0,5	1,679450
9,150333	0,5	1,675250
9,158667	0,5	1,675100
9,167000	0,5	1,676350
9,175333	0,5	1,673500
9,183667	0,5	1,680200
9,192000	0,5	1,679900
9,200333	0,5	1,684250
9,208667	0,5	1,681150
9,217000	0,5	1,677150
9,225333	0,5	1,673700
9,233667	0,5	1,669900
9,242000	0,5	1,661850
9,250333	0,5	1,657100
9,258667	0,5	1,656800
9,267000	0,5	1,657000
9,275333	0,5	1,656200
9,283667	0,5	1,655800
9,292000	0,5	1,660500
9,300333	0,5	1,662200
9,308667	0,5	1,658950
9,317000	0,5	1,667900
9,325333	0,5	1,672700
9,333667	0,5	1,678900
9,342000	0,5	1,688750
9,350333	0,5	1,695250
9,358667	0,5	1,694450
9,367000	0,5	1,697400
9,375333	0,5	1,699550
9,383667	0,5	1,695650
9,392000	0,5	1,693550
9,400333	0,5	1,695200
9,408667	0,5	1,697650
9,417000	0,5	1,700450
9,425333	0,5	1,705100
9,433667	0,5	1,706000
9,442000	0,5	1,702000
9,450333	0,5	1,701350
9,458667	0,5	1,684100
9,467000	0,5	1,669300
9,475333	0,5	1,642000
9,483667	0,5	1,626750
9,492000	0,5	1,609600
9,500333	0,5	1,594250
9,508667	0,5	1,582150
9,517000	0,5	1,569400
9,525333	0,5	1,561350
9,533667	0,5	1,550900
9,542000	0,5	1,544200
9,550333	0,5	1,535650
9,558667	0,5	1,531150
9,567000	0,5	1,527500
9,575333	0,5	1,523050
9,583667	0,5	1,523050
9,592000	0,5	1,513600
9,600333	0,5	1,503100
9,608667	0,5	1,499700
9,617000	0,5	1,494900
9,625333	0,5	1,484300
9,633667	0,5	1,482550
9,642000	0,5	1,476150
9,650333	0,5	1,474300
9,658667	0,5	1,463350
9,667000	0,5	1,459450
9,675333	0,5	1,450300
9,683667	0,5	1,442100
9,692000	0,5	1,432800
9,700333	0,5	1,428150
9,708667	0,5	1,426750
9,717000	0,5	1,420600
9,725333	0,5	1,418100
9,733667	0,5	1,412150
9,742000	0,5	1,407450
9,750333	0,5	1,402850
9,758667	0,5	1,399000
9,767000	0,5	1,393850
9,775333	0,5	1,384600
9,783667	0,5	1,381600
9,792000	0,5	1,379150
9,800333	0,5	1,377550
9,808667	0,5	1,377850
9,817000	0,5	1,381250
9,825333	0,5	1,379800
9,833667	0,5	1,386500
9,842000	0,5	1,384450
9,850333	0,5	1,394750
9,858667	0,5	1,407450
9,867000	0,5	1,417600
9,875333	0,5	1,434100
9,883667	0,5	1,452900
9,892000	0,5	1,484700
9,900333	0,5	1,532250
9,908667	0,5	1,589650
9,917000	0,5	1,666500
9,925333	0,5	1,756500
9,933667	0,5	1,860400
9,942000	0,5	1,959650
9,950333	0,5	2,048700
9,958667	0,5	2,113600
9,967000	0,5	2,137450
9,975333	0,5	2,120950
9,983667	0,5	2,056200
9,992000	0,5	1,965150
10,000333	0,5	1,859600
10,008667	0,5	1,752600
10,017000	0,5	1,655750
10,025333	0,5	1,571600
10,033667	0,5	1,507150
10,042000	0,5	1,466300
10,050333	0,5	1,438200
10,058667	0,5	1,419600
10,067000	0,5	1,409600
10,075333	0,5	1,405700
10,083667	0,5	1,406100
10,092000	0,5	1,411100
10,100333	0,5	1,419000
10,108667	0,5	1,435350
10,117000	0,5	1,455550
10,125333	0,5	1,466750
10,133667	0,5	1,484750
10,142000	0,5	1,500250
10,150333	0,5	1,525350
10,158667	0,5	1,544050
10,167000	0,5	1,576300
10,175333	0,5	1,601750
10,183667	0,5	1,633050
10,192000	0,5	1,658350
10,200333	0,5	1,678200
10,208667	0,5	1,675350
10,217000	0,5	1,663150
10,225333	0,5	1,631050
10,233667	0,5	1,587900
10,242000	0,5	1,547200
10,250333	0,5	1,502900
10,258667	0,5	1,467200
10,267000	0,5	1,431750
10,275333	0,5	1,402400
10,283667	0,5	1,375150
10,292000	0,5	1,356950
10,300333	0,5	1,342850
10,308667	0,5	1,329400
10,317000	0,5	1,319150
10,325333	0,5	1,304150
10,333667	0,5	1,292700
10,342000	0,5	1,285800
10,350333	0,5	1,280000
10,358667	0,5	1,275850
10,367000	0,5	1,276050
10,375333	0,5	1,278650
10,383667	0,5	1,283000
10,392000	0,5	1,286850
10,400333	0,5	1,304900
10,408667	0,5	1,320350
10,417000	0,5	1,339500
10,425333	0,5	1,363300
10,433667	0,5	1,391650
10,442000	0,5	1,432950
10,450333	0,5	1,486900
10,458667	0,5	1,543150
10,467000	0,5	1,603150
10,475333	0,5	1,660400
10,483667	0,5	1,697200
10,492000	0,5	1,706950
10,500333	0,5	1,680300
10,508667	0,5	1,633400
10,517000	0,5	1,568200
10,525333	0,5	1,508850
10,533667	0,5	1,453800
10,542000	0,5	1,404300
10,550333	0,5	1,378150
10,558667	0,5	1,357900
10,567000	0,5	1,336100
10,575333	0,5	1,318300
10,583667	0,5	1,304950
10,592000	0,5	1,299500
10,600333	0,5	1,295400
10,608667	0,5	1,288700
10,617000	0,5	1,278900
10,625333	0,5	1,282000
10,633667	0,5	1,266950
10,642000	0,5	1,265850
10,650333	0,5	1,256250
10,658667	0,5	1,256800
10,667000	0,5	1,254150
10,675333	0,5	1,253800
10,683667	0,5	1,260050
10,692000	0,5	1,267100
10,700333	0,5	1,285350
10,708667	0,5	1,311000
10,717000	0,5	1,349250
10,725333	0,5	1,391400
10,733667	0,5	1,436100
10,742000	0,5	1,491700
10,750333	0,5	1,524050
10,758667	0,5	1,531550
10,767000	0,5	1,513900
10,775333	0,5	1,458800
10,783667	0,5	1,387400
10,792000	0,5	1,309600
10,800333	0,5	1,239050
10,808667	0,5	1,164300
10,817000	0,5	1,117150
10,825333	0,5	1,091100
10,833667	0,5	1,085550
10,842000	0,5	1,087100
10,850333	0,5	1,113200
10,858667	0,5	1,142950
10,867000	0,5	1,172950
10,875333	0,5	1,203200
10,883667	0,5	1,229200
10,892000	0,5	1,262000
10,900333	0,5	1,289550
10,908667	0,5	1,306950
10,917000	0,5	1,312450
10,925333	0,5	1,312400
10,933667	0,5	1,307200
10,942000	0,5	1,296250
10,950333	0,5	1,280250
10,958667	0,5	1,272550
10,967000	0,5	1,262450
10,975333	0,5	1,259150
10,983667	0,5	1,244600
10,992000	0,5	1,242600
11,000333	0,5	1,236600
11,008667	0,5	1,230700
11,017000	0,5	1,224200
11,025333	0,5	1,222600
11,033667	0,5	1,213500
11,042000	0,5	1,216550
11,050333	0,5	1,210100
11,058667	0,5	1,216100
11,067000	0,5	1,215100
11,075333	0,5	1,222700
11,083667	0,5	1,221650
11,092000	0,5	1,225550
11,100333	0,5	1,222200
11,108667	0,5	1,220500
11,117000	0,5	1,222750
11,125333	0,5	1,219300
11,133667	0,5	1,214450
11,142000	0,5	1,217400
11,150333	0,5	1,215700
11,158667	0,5	1,211000
11,167000	0,5	1,208600
11,175333	0,5	1,199850
11,183667	0,5	1,199000
11,192000	0,5	1,195950
11,200333	0,5	1,197800
11,208667	0,5	1,200050
11,217000	0,5	1,203800
11,225333	0,5	1,208400
11,233667	0,5	1,212650
11,242000	0,5	1,218600
11,250333	0,5	1,221200
11,258667	0,5	1,232250
11,267000	0,5	1,253350
11,275333	0,5	1,278600
11,283667	0,5	1,329350
11,292000	0,5	1,395700
11,300333	0,5	1,475300
11,308667	0,5	1,563150
11,317000	0,5	1,628700
11,325333	0,5	1,685750
11,333667	0,5	1,709250
11,342000	0,5	1,695100
11,350333	0,5	1,645600
11,358667	0,5	1,585950
11,367000	0,5	1,523100
11,375333	0,5	1,469700
11,383667	0,5	1,422400
11,392000	0,5	1,391250
11,400333	0,5	1,361800
11,408667	0,5	1,336550
11,417000	0,5	1,315800
11,425333	0,5	1,289300
11,433667	0,5	1,276900
11,442000	0,5	1,264300
11,450333	0,5	1,250750
11,458667	0,5	1,243250
11,467000	0,5	1,237900
11,475333	0,5	1,245750
11,483667	0,5	1,272300
11,492000	0,5	1,299150
11,500333	0,5	1,348200
11,508667	0,5	1,413700
11,517000	0,5	1,498100
11,525333	0,5	1,585400
11,533667	0,5	1,681000
11,542000	0,5	1,761350
11,550333	0,5	1,838200
11,558667	0,5	1,920100
11,567000	0,5	1,997500
11,575333	0,5	2,068100
11,583667	0,5	2,142350
11,592000	0,5	2,186800
11,600333	0,5	2,199100
11,608667	0,5	2,170250
11,617000	0,5	2,097000
11,625333	0,5	2,017550
11,633667	0,5	1,918200
11,642000	0,5	1,823900
11,650333	0,5	1,741950
11,658667	0,5	1,687950
11,667000	0,5	1,658300
11,675333	0,5	1,663150
11,683667	0,5	1,686600
11,692000	0,5	1,716750
11,700333	0,5	1,740150
11,708667	0,5	1,755350
11,717000	0,5	1,744150
11,725333	0,5	1,704850
11,733667	0,5	1,655000
11,742000	0,5	1,585400
11,750333	0,5	1,510450
11,758667	0,5	1,428950
11,767000	0,5	1,357800
11,775333	0,5	1,308100
11,783667	0,5	1,258800
11,792000	0,5	1,217950
11,800333	0,5	1,187000
11,808667	0,5	1,165200
11,817000	0,5	1,146300
11,825333	0,5	1,133650
11,833667	0,5	1,123700
11,842000	0,5	1,117100
11,850333	0,5	1,109350
11,858667	0,5	1,100350
11,867000	0,5	1,093650
11,875333	0,5	1,091850
11,883667	0,5	1,094850
11,892000	0,5	1,093600
11,900333	0,5	1,093500
11,908667	0,5	1,086550
11,917000	0,5	1,091500
11,925333	0,5	1,092850
11,933667	0,5	1,095350
11,942000	0,5	1,101650
11,950333	0,5	1,102450
11,958667	0,5	1,104250
11,967000	0,5	1,104550
11,975333	0,5	1,115700
11,983667	0,5	1,122300
11,992000	0,5	1,128000
12,000333	0,5	1,135200
12,008667	0,5	1,153100
12,017000	0,5	1,160300
12,025333	0,5	1,183050
12,033667	0,5	1,195650
12,042000	0,5	1,214250
12,050333	0,5	1,232500
12,058667	0,5	1,246200
12,067000	0,5	1,269400
12,075333	0,5	1,296150
12,083667	0,5	1,314350
12,092000	0,5	1,339050
12,100333	0,5	1,351900
12,108667	0,5	1,365050
12,117000	0,5	1,374000
12,125333	0,5	1,392000
12,133667	0,5	1,405400
12,142000	0,5	1,412700
12,150333	0,5	1,429700
12,158667	0,5	1,446100
12,167000	0,5	1,472700
12,175333	0,5	1,524750
12,183667	0,5	1,582150
12,192000	0,5	1,648500
12,200333	0,5	1,707900
12,208667	0,5	1,765700
12,217000	0,5	1,821000
12,225333	0,5	1,842450
12,233667	0,5	1,865000
12,242000	0,5	1,877650
12,250333	0,5	1,900050
12,258667	0,5	1,933750
12,267000	0,5	1,990650
12,275333	0,5	2,070300
12,283667	0,5	2,169750
12,292000	0,5	2,291750
12,300333	0,5	2,417400
12,308667	0,5	2,523000
12,317000	0,5	2,616850
12,325333	0,5	2,662750
12,333667	0,5	2,652250
12,342000	0,5	2,587850
12,350333	0,5	2,480650
12,358667	0,5	2,370650
12,367000	0,5	2,260150
12,375333	0,5	2,175600
12,383667	0,5	2,107650
12,392000	0,5	2,068250
12,400333	0,5	2,041050
12,408667	0,5	2,025450
12,417000	0,5	2,006950
12,425333	0,5	1,981750
12,433667	0,5	1,943600
12,442000	0,5	1,899750
12,450333	0,5	1,860000
12,458667	0,5	1,814750
12,467000	0,5	1,789000
12,475333	0,5	1,776100
12,483667	0,5	1,768950
12,492000	0,5	1,764200
12,500333	0,5	1,753650
12,508667	0,5	1,744200
12,517000	0,5	1,733100
12,525333	0,5	1,696550
12,533667	0,5	1,658700
12,542000	0,5	1,605950
12,550333	0,5	1,560650
12,558667	0,5	1,507050
12,567000	0,5	1,465200
12,575333	0,5	1,424600
12,583667	0,5	1,392500
12,592000	0,5	1,369800
12,600333	0,5	1,361200
12,608667	0,5	1,341600
12,617000	0,5	1,341400
12,625333	0,5	1,337150
12,633667	0,5	1,338350
12,642000	0,5	1,340400
12,650333	0,5	1,361800
12,658667	0,5	1,404500
12,667000	0,5	1,418800
12,675333	0,5	1,423150
12,683667	0,5	1,419050
12,692000	0,5	1,394850
12,700333	0,5	1,339450
12,708667	0,5	1,267300
12,717000	0,5	1,201800
12,725333	0,5	1,158750
12,733667	0,5	1,061550
12,742000	0,5	0,853550
12,750333	0,5	0,486000
12,758667	0,5	0,003200
12,767000	0,5	-0,436700
12,775333	0,5	-0,760650
12,783667	0,5	-1,021050
12,792000	0,5	-1,247150
12,800333	0,5	-1,467700
12,808667	0,5	-1,703400
12,817000	0,5	-1,910550
12,825333	0,5	-2,066200
12,833667	0,5	-2,176000
12,842000	0,5	-2,271450
12,850333	0,5	-2,346200
12,858667	0,5	-2,418850
12,867000	0,5	-2,471550
12,875333	0,5	-2,526450
12,883667	0,5	-2,570650
12,892000	0,5	-2,606150
12,900333	0,5	-2,643700
12,908667	0,5	-2,667800
12,917000	0,5	-2,689100
12,925333	0,5	-2,710800
12,933667	0,5	-2,733550
12,942000	0,5	-2,762400
12,950333	0,5	-2,773850
12,958667	0,5	-2,786100
12,967000	0,5	-2,798600
12,975333	0,5	-2,814150
12,983667	0,5	-2,821400
12,992000	0,5	-2,842050
13,000333	0,5	-2,851550
13,008667	0,5	-2,861750
13,017000	0,5	-2,877200
13,025333	0,5	-2,883900
13,033667	0,5	-2,895050
13,042000	0,5	-2,903200
13,050333	0,5	-2,909350
13,058667	0,5	-2,898950
13,067000	0,5	-2,901550
13,075333	0,5	-2,908050
13,083667	0,5	-2,919550
13,092000	0,5	-2,923300
13,100333	0,5	-2,923150
13,108667	0,5	-2,916950
13,117000	0,5	-2,923200
13,125333	0,5	-2,920200
13,133667	0,5	-2,928500
13,142000	0,5	-2,925150
13,150333	0,5	-2,926900
13,158667	0,5	-2,924100
13,167000	0,5	-2,915250
13,175333	0,5	-2,903350
13,183667	0,5	-2,881000
13,192000	0,5	-2,866200
13,200333	0,5	-2,865600
13,208667	0,5	-2,793050
13,217000	0,5	-2,754650
13,225333	0,5	-2,711350
13,233667	0,5	-2,681100
13,242000	0,5	-2,639500
13,250333	0,5	-2,598250
13,258667	0,5	-2,582400
13,267000	0,5	-2,564300
13,275333	0,5	-2,571350
13,283667	0,5	-2,586250
13,292000	0,5	-2,606550
13,300333	0,5	-2,621050
13,308667	0,5	-2,652950
13,317000	0,5	-2,683450
13,325333	0,5	-2,696050
13,333667	0,5	-2,712100
13,342000	0,5	-2,738750
13,350333	0,5	-2,745850
13,358667	0,5	-2,752150
13,367000	0,5	-2,759150
13,375333	0,5	-2,764400
13,383667	0,5	-2,778750
13,392000	0,5	-2,768000
13,400333	0,5	-2,758850
13,408667	0,5	-2,743200
13,417000	0,5	-2,729050
13,425333	0,5	-2,708650
13,433667	0,5	-2,685600
13,442000	0,5	-2,653650
13,450333	0,5	-2,623900
13,458667	0,5	-2,591550
13,467000	0,5	-2,569750
13,475333	0,5	-2,550200
13,483667	0,5	-2,550800
13,492000	0,5	-2,543600
13,500333	0,5	-2,535450
13,508667	0,5	-2,538500
13,517000	0,5	-2,545600
13,525333	0,5	-2,553000
13,533667	0,5	-2,548500
13,542000	0,5	-2,542300
13,550333	0,5	-2,529050
13,558667	0,5	-2,524150
13,567000	0,5	-2,513300
13,575333	0,5	-2,501100
13,583667	0,5	-2,495450
13,592000	0,5	-2,489050
13,600333	0,5	-2,470400
13,608667	0,5	-2,468750
13,617000	0,5	-2,460350
13,625333	0,5	-2,442350
13,633667	0,5	-2,438150
13,642000	0,5	-2,425800
13,650333	0,5	-2,402700
13,658667	0,5	-2,390900
13,667000	0,5	-2,381100
13,675333	0,5	-2,374600
13,683667	0,5	-2,363650
13,692000	0,5	-2,339250
13,700333	0,5	-2,318250
13,708667	0,5	-2,298000
13,717000	0,5	-2,283600
13,725333	0,5	-2,263700
13,733667	0,5	-2,246300
13,742000	0,5	-2,225000
13,750333	0,5	-2,210950
13,758667	0,5	-2,193650
13,767000	0,5	-2,177650
13,775333	0,5	-2,147100
13,783667	0,5	-2,145800
13,792000	0,5	-2,115150
13,800333	0,5	-2,098700
13,808667	0,5	-2,074800
13,817000	0,5	-2,058150
13,825333	0,5	-2,038950
13,833667	0,5	-2,012800
13,842000	0,5	-1,974200
13,850333	0,5	-1,947500
13,858667	0,5	-1,917050
13,867000	0,5	-1,880600
13,875333	0,5	-1,853400
13,883667	0,5	-1,817500
13,892000	0,5	-1,791700
13,900333	0,5	-1,761700
13,908667	0,5	-1,732700
13,917000	0,5	-1,694200
13,925333	0,5	-1,665100
13,933667	0,5	-1,654900
13,942000	0,5	-1,625500
13,950333	0,5	-1,608650
13,958667	0,5	-1,600500
13,967000	0,5	-1,594250
13,975333	0,5	-1,589200
13,983667	0,5	-1,569000
13,992000	0,5	-1,558000
14,000333	0,5	-1,532100
14,008667	0,5	-1,507950
14,017000	0,5	-1,478400
14,025333	0,5	-1,445750
14,033667	0,5	-1,405000
14,042000	0,5	-1,352400
14,050333	0,5	-1,299650
14,058667	0,5	-1,216100
14,067000	0,5	-1,135400
14,075333	0,5	-1,077300
14,083667	0,5	-1,013700
14,092000	0,5	-0,966350
14,100333	0,5	-0,941350
14,108667	0,5	-0,917600
14,117000	0,5	-0,896350
14,125333	0,5	-0,849600
14,133667	0,5	-0,793550
14,142000	0,5	-0,727800
14,150333	0,5	-0,672750
14,158667	0,5	-0,638750
14,167000	0,5	-0,616250
14,175333	0,5	-0,595950
14,183667	0,5	-0,573850
14,192000	0,5	-0,539500
14,200333	0,5	-0,491000
14,208667	0,5	-0,419850
14,217000	0,5	-0,354350
14,225333	0,5	-0,301150
14,233667	0,5	-0,235750
14,242000	0,5	-0,183800
14,250333	0,5	-0,140700
14,258667	0,5	-0,112700
14,267000	0,5	-0,085600
14,275333	0,5	-0,077250
14,283667	0,5	-0,061450
14,292000	0,5	-0,066450
14,300333	0,5	-0,071150
14,308667	0,5	-0,076300
14,317000	0,5	-0,065100
14,325333	0,5	-0,062250
14,333667	0,5	-0,048850
14,342000	0,5	-0,037400
14,350333	0,5	-0,028700
14,358667	0,5	-0,010350
14,367000	0,5	-0,007450
14,375333	0,5	-0,007450
14,383667	0,5	0,012750
14,392000	0,5	0,025350
14,400333	0,5	0,020050
14,408667	0,5	0,019900
14,417000	0,5	0,017150
14,425333	0,5	0,039100
14,433667	0,5	0,042500
14,442000	0,5	0,050900
14,450333	0,5	0,057000
14,458667	0,5	0,083500
14,467000	0,5	0,094750
14,475333	0,5	0,116550
14,483667	0,5	0,136250
14,492000	0,5	0,147900
14,500333	0,5	0,148000
14,508667	0,5	0,153950
14,517000	0,5	0,128050
14,525333	0,5	0,121400
14,533667	0,5	0,106700
14,542000	0,5	0,091100
14,550333	0,5	0,068800
14,558667	0,5	0,035050
14,567000	0,5	0,026700
14,575333	0,5	0,025400
14,583667	0,5	0,022200
14,592000	0,5	0,012300
14,600333	0,5	0,015800
14,608667	0,5	0,005150
14,617000	0,5	0,008150
14,625333	0,5	0,007950
14,633667	0,5	0,011700
14,642000	0,5	0,011900
14,650333	0,5	0,018350
14,658667	0,5	0,035550
14,667000	0,5	0,056900
14,675333	0,5	0,117100
14,683667	0,5	0,191900
14,692000	0,5	0,288700
14,700333	0,5	0,390400
14,708667	0,5	0,470050
14,717000	0,5	0,547600
14,725333	0,5	0,583550
14,733667	0,5	0,564600
14,742000	0,5	0,511050
14,750333	0,5	0,447200
14,758667	0,5	0,379900
14,767000	0,5	0,347800
14,775333	0,5	0,343550
14,783667	0,5	0,371250
14,792000	0,5	0,422850
14,800333	0,5	0,488050
14,808667	0,5	0,531800
14,817000	0,5	0,535850
14,825333	0,5	0,529500
14,833667	0,5	0,476350
14,842000	0,5	0,405700
14,850333	0,5	0,321150
14,858667	0,5	0,243700
14,867000	0,5	0,204800
14,875333	0,5	0,171200
14,883667	0,5	0,140000
14,892000	0,5	0,121400
14,900333	0,5	0,111300
14,908667	0,5	0,096450
14,917000	0,5	0,101200
14,925333	0,5	0,103150
14,933667	0,5	0,111850
14,942000	0,5	0,127800
14,950333	0,5	0,144200
14,958667	0,5	0,141300
14,967000	0,5	0,142200
14,975333	0,5	0,140850
14,983667	0,5	0,122200
14,992000	0,5	0,104750
15,000333	0,5	0,087700
15,008667	0,5	0,066650
15,017000	0,5	0,060850
15,025333	0,5	0,054500
15,033667	0,5	0,044350
15,042000	0,5	0,020650
15,050333	0,5	0,004750
15,058667	0,5	-0,013800
15,067000	0,5	-0,032200
15,075333	0,5	-0,049750
15,083667	0,5	-0,068050
15,092000	0,5	-0,065150
15,100333	0,5	-0,076600
15,108667	0,5	-0,091250
15,117000	0,5	-0,091200
15,125333	0,5	-0,084650
15,133667	0,5	-0,093700
15,142000	0,5	-0,104050
15,150333	0,5	-0,120850
15,158667	0,5	-0,114350
15,167000	0,5	-0,097150
15,175333	0,5	-0,073400
15,183667	0,5	-0,030850
15,192000	0,5	0,036800
15,200333	0,5	0,140450
15,208667	0,5	0,253800
15,217000	0,5	0,383950
15,225333	0,5	0,492700
15,233667	0,5	0,549300
15,242000	0,5	0,549900
15,250333	0,5	0,494850
15,258667	0,5	0,428500
15,267000	0,5	0,380800
15,275333	0,5	0,363750
15,283667	0,5	0,381550
15,292000	0,5	0,407250
15,300333	0,5	0,463800
15,308667	0,5	0,501650
15,317000	0,5	0,498700
15,325333	0,5	0,440200
15,333667	0,5	0,370350
15,342000	0,5	0,284350
15,350333	0,5	0,213450
15,358667	0,5	0,156950
15,367000	0,5	0,131150
15,375333	0,5	0,106650
15,383667	0,5	0,087600
15,392000	0,5	0,087500
15,400333	0,5	0,055250
15,408667	0,5	0,046950
15,417000	0,5	0,031900
15,425333	0,5	0,016200
15,433667	0,5	0,002650
15,442000	0,5	-0,019500
15,450333	0,5	-0,020250
15,458667	0,5	0,000800
15,467000	0,5	-0,004150
15,475333	0,5	0,000350
15,483667	0,5	-0,006300
15,492000	0,5	-0,017650
15,500333	0,5	-0,041550
15,508667	0,5	-0,063550
15,517000	0,5	-0,093050
15,525333	0,5	-0,119850
15,533667	0,5	-0,129650
15,542000	0,5	-0,143550
15,550333	0,5	-0,180950
15,558667	0,5	-0,180600
15,567000	0,5	-0,192500
15,575333	0,5	-0,204950
15,583667	0,5	-0,222500
15,592000	0,5	-0,250150
15,600333	0,5	-0,235850
15,608667	0,5	-0,236600
15,617000	0,5	-0,236900
15,625333	0,5	-0,223850
15,633667	0,5	-0,189250
15,642000	0,5	-0,142050
15,650333	0,5	-0,047250
15,658667	0,5	0,063150
15,667000	0,5	0,205050
15,675333	0,5	0,326900
15,683667	0,5	0,410550
15,692000	0,5	0,435950
15,700333	0,5	0,410250
15,708667	0,5	0,376700
15,717000	0,5	0,336950
15,725333	0,5	0,329900
15,733667	0,5	0,340750
15,742000	0,5	0,368350
15,750333	0,5	0,399000
15,758667	0,5	0,392100
15,767000	0,5	0,341100
15,775333	0,5	0,272050
15,783667	0,5	0,188800
15,792000	0,5	0,111300
15,800333	0,5	0,043500
15,808667	0,5	-0,008750
15,817000	0,5	-0,058800
15,825333	0,5	-0,093700
15,833667	0,5	-0,096250
15,842000	0,5	-0,116100
15,850333	0,5	-0,111900
15,858667	0,5	-0,094100
15,867000	0,5	-0,082600
15,875333	0,5	-0,086350
15,883667	0,5	-0,101200
15,892000	0,5	-0,114800
15,900333	0,5	-0,114050
15,908667	0,5	-0,132050
15,917000	0,5	-0,146700
15,925333	0,5	-0,173900
15,933667	0,5	-0,202150
15,942000	0,5	-0,227400
15,950333	0,5	-0,246050
15,958667	0,5	-0,271700
15,967000	0,5	-0,287550
15,975333	0,5	-0,302500
15,983667	0,5	-0,307600
15,992000	0,5	-0,334500
16,000333	0,5	-0,330950
16,008667	0,5	-0,340700
16,017000	0,5	-0,342400
16,025333	0,5	-0,359300
16,033667	0,5	-0,360100
16,042000	0,5	-0,321800
16,050333	0,5	-0,256300
16,058667	0,5	-0,163250
16,067000	0,5	-0,025250
16,075333	0,5	0,126100
16,083667	0,5	0,254000
16,092000	0,5	0,339100
16,100333	0,5	0,380450
16,108667	0,5	0,375150
16,117000	0,5	0,361550
16,125333	0,5	0,369550
16,133667	0,5	0,369250
16,142000	0,5	0,382550
16,150333	0,5	0,366650
16,158667	0,5	0,314100
16,167000	0,5	0,217700
16,175333	0,5	0,111050
16,183667	0,5	0,010650
16,192000	0,5	-0,054150
16,200333	0,5	-0,101850
16,208667	0,5	-0,131600
16,217000	0,5	-0,150150
16,225333	0,5	-0,151750
16,233667	0,5	-0,165000
16,242000	0,5	-0,166000
16,250333	0,5	-0,166700
16,258667	0,5	-0,175600
16,267000	0,5	-0,179900
16,275333	0,5	-0,191750
16,283667	0,5	-0,223900
16,292000	0,5	-0,242050
16,300333	0,5	-0,256950
16,308667	0,5	-0,294750
16,317000	0,5	-0,320900
16,325333	0,5	-0,367100
16,333667	0,5	-0,396250
16,342000	0,5	-0,411850
16,350333	0,5	-0,412250
16,358667	0,5	-0,432050
16,367000	0,5	-0,440900
16,375333	0,5	-0,447950
16,383667	0,5	-0,453600
16,392000	0,5	-0,446200
16,400333	0,5	-0,437000
16,408667	0,5	-0,397050
16,417000	0,5	-0,324950
16,425333	0,5	-0,219700
16,433667	0,5	-0,109150
16,442000	0,5	0,050350
16,450333	0,5	0,178650
16,458667	0,5	0,253000
16,467000	0,5	0,273700
16,475333	0,5	0,259400
16,483667	0,5	0,253450
16,492000	0,5	0,243000
16,500333	0,5	0,226500
16,508667	0,5	0,195000
16,517000	0,5	0,137400
16,525333	0,5	0,068500
16,533667	0,5	-0,007500
16,542000	0,5	-0,052800
16,550333	0,5	-0,082250
16,558667	0,5	-0,091850
16,567000	0,5	-0,071550
16,575333	0,5	-0,063850
16,583667	0,5	-0,054000
16,592000	0,5	-0,031100
16,600333	0,5	-0,020050
16,608667	0,5	-0,035400
16,617000	0,5	-0,061150
16,625333	0,5	-0,087050
16,633667	0,5	-0,092550
16,642000	0,5	-0,124250
16,650333	0,5	-0,148550
16,658667	0,5	-0,172100
16,667000	0,5	-0,179450
16,675333	0,5	-0,187700
16,683667	0,5	-0,180550
16,692000	0,5	-0,175650
16,700333	0,5	-0,171800
16,708667	0,5	-0,165450
16,717000	0,5	-0,161950
16,725333	0,5	-0,182350
16,733667	0,5	-0,182350
16,742000	0,5	-0,172850
16,750333	0,5	-0,132650
16,758667	0,5	-0,067150
16,767000	0,5	0,004700
16,775333	0,5	0,114450
16,783667	0,5	0,203300
16,792000	0,5	0,248950
16,800333	0,5	0,251300
16,808667	0,5	0,251300
16,817000	0,5	0,219750
16,825333	0,5	0,199100
16,833667	0,5	0,153750
16,842000	0,5	0,091450
16,850333	0,5	0,016150
16,858667	0,5	-0,043250
16,867000	0,5	-0,099750
16,875333	0,5	-0,154700
16,883667	0,5	-0,170000
16,892000	0,5	-0,190900
16,900333	0,5	-0,209450
16,908667	0,5	-0,234750
16,917000	0,5	-0,255800
16,925333	0,5	-0,259550
16,933667	0,5	-0,255500
16,942000	0,5	-0,275850
16,950333	0,5	-0,281250
16,958667	0,5	-0,299300
16,967000	0,5	-0,318800
16,975333	0,5	-0,336200
16,983667	0,5	-0,351150
16,992000	0,5	-0,375850
17,000333	0,5	-0,385550
17,008667	0,5	-0,390950
17,017000	0,5	-0,382450
17,025333	0,5	-0,376600
17,033667	0,5	-0,331850
17,042000	0,5	-0,290750
17,050333	0,5	-0,209300
17,058667	0,5	-0,110350
17,067000	0,5	0,025050
17,075333	0,5	0,190500
17,083667	0,5	0,352950
17,092000	0,5	0,503300
17,100333	0,5	0,641250
17,108667	0,5	0,790400
17,117000	0,5	0,937000
17,125333	0,5	1,102400
17,133667	0,5	1,241850
17,142000	0,5	1,375250
17,150333	0,5	1,486500
17,158667	0,5	1,597000
17,167000	0,5	1,666350
17,175333	0,5	1,742700
17,183667	0,5	1,812700
17,192000	0,5	1,867500
17,200333	0,5	1,918350
17,208667	0,5	1,973250
17,217000	0,5	2,033700
17,225333	0,5	2,087650
17,233667	0,5	2,109900
17,242000	0,5	2,076600
17,250333	0,5	1,991950
17,258667	0,5	1,857750
17,267000	0,5	1,679950
17,275333	0,5	1,476350
17,283667	0,5	1,276150
17,292000	0,5	1,077050
17,300333	0,5	0,921850
17,308667	0,5	0,777000
17,317000	0,5	0,685150
17,325333	0,5	0,632400
17,333667	0,5	0,628550
17,342000	0,5	0,636800
17,350333	0,5	0,643300
17,358667	0,5	0,642800
17,367000	0,5	0,646650
17,375333	0,5	0,632750
17,383667	0,5	0,595100
17,392000	0,5	0,553950
17,400333	0,5	0,506750
17,408667	0,5	0,460250
17,417000	0,5	0,419650
17,425333	0,5	0,403500
17,433667	0,5	0,389600
17,442000	0,5	0,400950
17,450333	0,5	0,412000
17,458667	0,5	0,420650
17,467000	0,5	0,434900
17,475333	0,5	0,450050
17,483667	0,5	0,450750
17,492000	0,5	0,445600
17,500333	0,5	0,413150
17,508667	0,5	0,400350
17,517000	0,5	0,381300
17,525333	0,5	0,349000
17,533667	0,5	0,298050
17,542000	0,5	0,252850
17,550333	0,5	0,187350
17,558667	0,5	0,147000
17,567000	0,5	0,126250
17,575333	0,5	0,127950
17,583667	0,5	0,150700
17,592000	0,5	0,185600
17,600333	0,5	0,210800
17,608667	0,5	0,186700
17,617000	0,5	0,176050
17,625333	0,5	0,141550
17,633667	0,5	0,084250
17,642000	0,5	0,007550
17,650333	0,5	-0,088500
17,658667	0,5	-0,140700
17,667000	0,5	-0,183250
17,675333	0,5	-0,234300
17,683667	0,5	-0,256550
17,692000	0,5	-0,292800
17,700333	0,5	-0,318400
17,708667	0,5	-0,348000
17,717000	0,5	-0,365950
17,725333	0,5	-0,388400
17,733667	0,5	-0,409800
17,742000	0,5	-0,408350
17,750333	0,5	-0,413000
17,758667	0,5	-0,443100
17,767000	0,5	-0,426600
17,775333	0,5	-0,419450
17,783667	0,5	-0,404750
17,792000	0,5	-0,374350
17,800333	0,5	-0,338100
17,808667	0,5	-0,257750
17,817000	0,5	-0,198400
17,825333	0,5	-0,151450
17,833667	0,5	-0,135550
17,842000	0,5	-0,137100
17,850333	0,5	-0,170600
17,858667	0,5	-0,210900
17,867000	0,5	-0,247500
17,875333	0,5	-0,288550
17,883667	0,5	-0,315450
17,892000	0,5	-0,334850
17,900333	0,5	-0,374700
17,908667	0,5	-0,385600
17,917000	0,5	-0,404250
17,925333	0,5	-0,422550
17,933667	0,5	-0,437950
17,942000	0,5	-0,469300
17,950333	0,5	-0,479850
17,958667	0,5	-0,486600
17,967000	0,5	-0,464850
17,975333	0,5	-0,450900
17,983667	0,5	-0,412550
17,992000	0,5	-0,385250
18,000333	0,5	-0,325300
18,008667	0,5	-0,266700
18,017000	0,5	-0,213750
18,025333	0,5	-0,179400
18,033667	0,5	-0,156500
18,042000	0,5	-0,163950
18,050333	0,5	-0,200900
18,058667	0,5	-0,244350
18,067000	0,5	-0,278050
18,075333	0,5	-0,313200
18,083667	0,5	-0,349600
18,092000	0,5	-0,391300
18,100333	0,5	-0,410250
18,108667	0,5	-0,410500
18,117000	0,5	-0,426250
18,125333	0,5	-0,429500
18,133667	0,5	-0,442050
18,142000	0,5	-0,444000
18,150333	0,5	-0,450050
18,158667	0,5	-0,443400
18,167000	0,5	-0,438850
18,175333	0,5	-0,416600
18,183667	0,5	-0,368350
18,192000	0,5	-0,321800
18,200333	0,5	-0,281600
18,208667	0,5	-0,232000
18,217000	0,5	-0,223700
18,225333	0,5	-0,234050
18,233667	0,5	-0,282900
18,242000	0,5	-0,334350
18,250333	0,5	-0,363600
18,258667	0,5	-0,408800
18,267000	0,5	-0,435300
18,275333	0,5	-0,454500
18,283667	0,5	-0,466800
18,292000	0,5	-0,481750
18,300333	0,5	-0,490250
18,308667	0,5	-0,514700
18,317000	0,5	-0,518350
18,325333	0,5	-0,519850
18,333667	0,5	-0,510000
18,342000	0,5	-0,527300
18,350333	0,5	-0,500050
18,358667	0,5	-0,476600
18,367000	0,5	-0,458750
18,375333	0,5	-0,447500
18,383667	0,5	-0,450050
18,392000	0,5	-0,435050
18,400333	0,5	-0,444400
18,408667	0,5	-0,461100
18,417000	0,5	-0,499400
18,425333	0,5	-0,524400
18,433667	0,5	-0,556100
18,442000	0,5	-0,574200
18,450333	0,5	-0,586650
18,458667	0,5	-0,603100
18,467000	0,5	-0,634450
18,475333	0,5	-0,630050
18,483667	0,5	-0,639600
18,492000	0,5	-0,653950
18,500333	0,5	-0,644800
18,508667	0,5	-0,637750
18,517000	0,5	-0,646100
18,525333	0,5	-0,648450
18,533667	0,5	-0,648550
18,542000	0,5	-0,624250
18,550333	0,5	-0,612350
18,558667	0,5	-0,604300
18,567000	0,5	-0,629100
18,575333	0,5	-0,641550
18,583667	0,5	-0,662200
18,592000	0,5	-0,693750
18,600333	0,5	-0,709100
18,608667	0,5	-0,729550
18,617000	0,5	-0,746200
18,625333	0,5	-0,746650
18,633667	0,5	-0,764650
18,642000	0,5	-0,778900
18,650333	0,5	-0,775400
18,658667	0,5	-0,785850
18,667000	0,5	-0,808150
18,675333	0,5	-0,818700
18,683667	0,5	-0,795800
18,692000	0,5	-0,753000
18,700333	0,5	-0,724900
18,708667	0,5	-0,717300
18,717000	0,5	-0,713750
18,725333	0,5	-0,721900
18,733667	0,5	-0,738650
18,742000	0,5	-0,740350
18,750333	0,5	-0,742550
18,758667	0,5	-0,744050
18,767000	0,5	-0,733300
18,775333	0,5	-0,712400
18,783667	0,5	-0,724700
18,792000	0,5	-0,694500
18,800333	0,5	-0,669500
18,808667	0,5	-0,639650
18,817000	0,5	-0,630000
18,825333	0,5	-0,623400
18,833667	0,5	-0,602350
18,842000	0,5	-0,583750
18,850333	0,5	-0,595350
18,858667	0,5	-0,610550
18,867000	0,5	-0,634050
18,875333	0,5	-0,665200
18,883667	0,5	-0,677150
18,892000	0,5	-0,702650
18,900333	0,5	-0,703750
18,908667	0,5	-0,712300
18,917000	0,5	-0,681550
18,925333	0,5	-0,669050
18,933667	0,5	-0,670850
18,942000	0,5	-0,648300
18,950333	0,5	-0,633250
18,958667	0,5	-0,634150
18,967000	0,5	-0,652400
18,975333	0,5	-0,695550
18,983667	0,5	-0,700300
18,992000	0,5	-0,729000
19,000333	0,5	-0,748350
19,008667	0,5	-0,774000
19,017000	0,5	-0,783700
19,025333	0,5	-0,801050
19,033667	0,5	-0,806800
19,042000	0,5	-0,816600
19,050333	0,5	-0,823200
19,058667	0,5	-0,816850
19,067000	0,5	-0,802450
19,075333	0,5	-0,810550
19,083667	0,5	-0,819750
19,092000	0,5	-0,815800
19,100333	0,5	-0,834300
19,108667	0,5	-0,848550
19,117000	0,5	-0,885750
19,125333	0,5	-0,904500
19,133667	0,5	-0,921500
19,142000	0,5	-0,923800
19,150333	0,5	-0,937550
19,158667	0,5	-0,939500
19,167000	0,5	-0,943600
19,175333	0,5	-0,964750
19,183667	0,5	-0,964300
19,192000	0,5	-0,980700
19,200333	0,5	-0,991750
19,208667	0,5	-1,002850
19,217000	0,5	-1,016300
19,225333	0,5	-1,042050
19,233667	0,5	-1,055050
19,242000	0,5	-1,062350
19,250333	0,5	-1,067850
19,258667	0,5	-1,094600
19,267000	0,5	-1,103450
19,275333	0,5	-1,117550
19,283667	0,5	-1,115750
19,292000	0,5	-1,128400
19,300333	0,5	-1,133700
19,308667	0,5	-1,153900
19,317000	0,5	-1,158300
19,325333	0,5	-1,172600
19,333667	0,5	-1,170100
19,342000	0,5	-1,179700
19,350333	0,5	-1,178800
19,358667	0,5	-1,166050
19,367000	0,5	-1,178650
19,375333	0,5	-1,199200
19,383667	0,5	-1,212850
19,392000	0,5	-1,218500
19,400333	0,5	-1,239000
19,408667	0,5	-1,269800
19,417000	0,5	-1,296100
19,425333	0,5	-1,285850
19,433667	0,5	-1,290100
19,442000	0,5	-1,290700
19,450333	0,5	-1,295500
19,458667	0,5	-1,288550
19,467000	0,5	-1,307150
19,475333	0,5	-1,310450
19,483667	0,5	-1,320550
19,492000	0,5	-1,328500
19,500333	0,5	-1,322750
19,508667	0,5	-1,310250
19,517000	0,5	-1,332800
19,525333	0,5	-1,328850
19,533667	0,5	-1,340750
19,542000	0,5	-1,358100
19,550333	0,5	-1,375650
19,558667	0,5	-1,423900
19,567000	0,5	-1,417850
19,575333	0,5	-1,424600
19,583667	0,5	-1,437450
19,592000	0,5	-1,453100
19,600333	0,5	-1,454650
19,608667	0,5	-1,478100
19,617000	0,5	-1,487950
19,625333	0,5	-1,493300
19,633667	0,5	-1,495700
19,642000	0,5	-1,506100
19,650333	0,5	-1,497800
19,658667	0,5	-1,504850
19,667000	0,5	-1,518300
19,675333	0,5	-1,513300
19,683667	0,5	-1,520000
19,692000	0,5	-1,533500
19,700333	0,5	-1,555700
19,708667	0,5	-1,579400
19,717000	0,5	-1,573600
19,725333	0,5	-1,573500
19,733667	0,5	-1,586750
19,742000	0,5	-1,593650
19,750333	0,5	-1,613100
19,758667	0,5	-1,623250
19,767000	0,5	-1,641550
19,775333	0,5	-1,646600
19,783667	0,5	-1,678300
19,792000	0,5	-1,698950
19,800333	0,5	-1,695300
19,808667	0,5	-1,719200
19,817000	0,5	-1,742500
19,825333	0,5	-1,747650
19,833667	0,5	-1,763550
19,842000	0,5	-1,786400
19,850333	0,5	-1,827300
19,858667	0,5	-1,855350
19,867000	0,5	-1,845000
19,875333	0,5	-1,860350
19,883667	0,5	-1,868250
19,892000	0,5	-1,892350
19,900333	0,5	-1,900800
19,908667	0,5	-1,907200
19,917000	0,5	-1,913100
19,925333	0,5	-1,925450
19,933667	0,5	-1,934300
19,942000	0,5	-1,935000
19,950333	0,5	-1,929050
19,958667	0,5	-1,951400
19,967000	0,5	-1,949350
19,975333	0,5	-1,956050
19,983667	0,5	-1,964150
19,992000	0,5	-2,003500
20,000333	0,5	-2,032700
20,008667	0,5	-2,036650
20,017000	0,5	-2,046200
20,025333	0,5	-2,056100
20,033667	0,5	-2,075700
20,042000	0,5	-2,084050
20,050333	0,5	-2,105700
20,058667	0,5	-2,114600
20,067000	0,5	-2,130500
20,075333	0,5	-2,138200
20,083667	0,5	-2,162750
20,092000	0,5	-2,152750
20,100333	0,5	-2,179300
20,108667	0,5	-2,190900
20,117000	0,5	-2,196400
20,125333	0,5	-2,211100
20,133667	0,5	-2,228800
20,142000	0,5	-2,267850
20,150333	0,5	-2,290300
20,158667	0,5	-2,299600
20,167000	0,5	-2,299700
20,175333	0,5	-2,310400
20,183667	0,5	-2,314850
20,192000	0,5	-2,330250
20,200333	0,5	-2,341900
20,208667	0,5	-2,343600
20,217000	0,5	-2,337200
20,225333	0,5	-2,345600
20,233667	0,5	-2,340900
20,242000	0,5	-2,342300
20,250333	0,5	-2,353050
20,258667	0,5	-2,371650
20,267000	0,5	-2,376500
20,275333	0,5	-2,399550
20,283667	0,5	-2,422550
20,292000	0,5	-2,465550
20,300333	0,5	-2,487150
20,308667	0,5	-2,487200
20,317000	0,5	-2,493400
20,325333	0,5	-2,510300
20,333667	0,5	-2,524400
20,342000	0,5	-2,534900
20,350333	0,5	-2,553550
20,358667	0,5	-2,574200
20,367000	0,5	-2,600600
20,375333	0,5	-2,618650
20,383667	0,5	-2,624600
20,392000	0,5	-2,642350
20,400333	0,5	-2,685550
20,408667	0,5	-2,693950
20,417000	0,5	-2,711800
20,425333	0,5	-2,742200
20,433667	0,5	-2,786600
20,442000	0,5	-2,824000
20,450333	0,5	-2,831850
20,458667	0,5	-2,854150
20,467000	0,5	-2,882100
20,475333	0,5	-2,890950
20,483667	0,5	-2,910400
20,492000	0,5	-2,934450
20,500333	0,5	-2,966100
20,508667	0,5	-2,990600
20,517000	0,5	-3,014350
20,525333	0,5	-3,037550
20,533667	0,5	-3,029750
20,542000	0,5	-3,045850
20,550333	0,5	-3,044450
20,558667	0,5	-3,050950
20,567000	0,5	-3,055650
20,575333	0,5	-3,094150
20,583667	0,5	-3,157650
20,592000	0,5	-3,186750
20,600333	0,5	-3,228300
20,608667	0,5	-3,275700
20,617000	0,5	-3,326500
20,625333	0,5	-3,363050
20,633667	0,5	-3,398600
20,642000	0,5	-3,441650
20,650333	0,5	-3,473200
20,658667	0,5	-3,509450
20,667000	0,5	-3,549250
20,675333	0,5	-3,558850
20,683667	0,5	-3,576100
20,692000	0,5	-3,612500
20,700333	0,5	-3,640350
20,708667	0,5	-3,661850
20,717000	0,5	-3,672300
20,725333	0,5	-3,680950
20,733667	0,5	-3,704850
20,742000	0,5	-3,685050
20,750333	0,5	-3,690900
20,758667	0,5	-3,726750
20,767000	0,5	-3,767250
20,775333	0,5	-3,827750
20,783667	0,5	-3,890900
20,792000	0,5	-3,954800
20,800333	0,5	-4,011800
20,808667	0,5	-4,079200
20,817000	0,5	-4,120400
20,825333	0,5	-4,141100
20,833667	0,5	-4,169550
20,842000	0,5	-4,221850
20,850333	0,5	-4,262500
20,858667	0,5	-4,312750
20,867000	0,5	-4,363350
20,875333	0,5	-4,424850
20,883667	0,5	-4,469000
20,892000	0,5	-4,484000
20,900333	0,5	-4,505450
20,908667	0,5	-4,543750
20,917000	0,5	-4,566950
20,925333	0,5	-4,596500
20,933667	0,5	-4,644050
20,942000	0,5	-4,688000
20,950333	0,5	-4,739900
20,958667	0,5	-4,775200
20,967000	0,5	-4,805550
20,975333	0,5	-4,817800
20,983667	0,5	-4,850750
20,992000	0,5	-4,888500
21,000333	0,5	-4,927200
21,008667	0,5	-4,964400
21,017000	0,5	-5,030250
21,025333	0,5	-5,079050
21,033667	0,5	-5,107200
21,042000	0,5	-5,121350
21,050333	0,5	-5,149600
21,058667	0,5	-5,177850
21,067000	0,5	-5,201350
21,075333	0,5	-5,241100
21,083667	0,5	-5,270150
21,092000	0,5	-5,308550
21,100333	0,5	-5,336100
21,108667	0,5	-5,376300
21,117000	0,5	-5,381050
21,125333	0,5	-5,392150
21,133667	0,5	-5,434350
21,142000	0,5	-5,468050
21,150333	0,5	-5,500600
21,158667	0,5	-5,543150
21,167000	0,5	-5,596100
21,175333	0,5	-5,639400
21,183667	0,5	-5,664500
21,192000	0,5	-5,679450
21,200333	0,5	-5,695550
21,208667	0,5	-5,718000
21,217000	0,5	-5,739750
21,225333	0,5	-5,772550
21,233667	0,5	-5,783300
21,242000	0,5	-5,797450
21,250333	0,5	-5,821900
21,258667	0,5	-5,817050
21,267000	0,5	-5,811500
21,275333	0,5	-5,815600
21,283667	0,5	-5,833350
21,292000	0,5	-5,833750
21,300333	0,5	-5,849950
21,308667	0,5	-5,869550
21,317000	0,5	-5,913800
21,325333	0,5	-5,946300
21,333667	0,5	-5,967600
21,342000	0,5	-5,991800
21,350333	0,5	-6,021750
21,358667	0,5	-6,046000
21,367000	0,5	-6,063300
21,375333	0,5	-6,091900
21,383667	0,5	-6,114950
21,392000	0,5	-6,137550
21,400333	0,5	-6,154750
21,408667	0,5	-6,140500
21,417000	0,5	-6,139100
21,425333	0,5	-6,158200
21,433667	0,5	-6,179300
21,442000	0,5	-6,203250
21,450333	0,5	-6,231750
21,458667	0,5	-6,289800
21,467000	0,5	-6,313800
21,475333	0,5	-6,323850
21,483667	0,5	-6,335150
21,492000	0,5	-6,356000
21,500333	0,5	-6,369350
21,508667	0,5	-6,395950
21,517000	0,5	-6,408850
21,525333	0,5	-6,430500
21,533667	0,5	-6,453000
21,542000	0,5	-6,459100
21,550333	0,5	-6,469200
21,558667	0,5	-6,453450
21,567000	0,5	-6,461050
21,575333	0,5	-6,480400
21,583667	0,5	-6,502950
21,592000	0,5	-6,525250
21,600333	0,5	-6,556100
21,608667	0,5	-6,599100
21,617000	0,5	-6,604050
21,625333	0,5	-6,608650
21,633667	0,5	-6,624350
21,642000	0,5	-6,618300
21,650333	0,5	-6,621900
21,658667	0,5	-6,625250
21,667000	0,5	-6,618550
21,675333	0,5	-6,603600
21,683667	0,5	-6,606200
21,692000	0,5	-6,618300
21,700333	0,5	-6,598500
21,708667	0,5	-6,604000
21,717000	0,5	-6,638200
21,725333	0,5	-6,661500
21,733667	0,5	-6,683850
21,742000	0,5	-6,713850
21,750333	0,5	-6,734300
21,758667	0,5	-6,758950
21,767000	0,5	-6,755250
21,775333	0,5	-6,776650
21,783667	0,5	-6,789350
21,792000	0,5	-6,803550
21,800333	0,5	-6,807550
21,808667	0,5	-6,824700
21,817000	0,5	-6,828850
21,825333	0,5	-6,824350
21,833667	0,5	-6,836500
21,842000	0,5	-6,829850
21,850333	0,5	-6,792350
21,858667	0,5	-6,790350
21,867000	0,5	-6,792050
21,875333	0,5	-6,791650
21,883667	0,5	-6,816050
21,892000	0,5	-6,827400
21,900333	0,5	-6,861900
21,908667	0,5	-6,849350
21,917000	0,5	-6,842550
21,925333	0,5	-6,831300
21,933667	0,5	-6,817150
21,942000	0,5	-6,783750
21,950333	0,5	-6,740300
21,958667	0,5	-6,727400
21,967000	0,5	-6,723500
21,975333	0,5	-6,761350
21,983667	0,5	-6,810750
21,992000	0,5	-6,840850
22,000333	0,5	-6,863150
22,008667	0,5	-6,914500
22,017000	0,5	-6,932150
22,025333	0,5	-6,975750
22,033667	0,5	-7,014000
22,042000	0,5	-7,073850
22,050333	0,5	-7,111200
22,058667	0,5	-7,144050
22,067000	0,5	-7,158450
22,075333	0,5	-7,196500
22,083667	0,5	-7,210700
22,092000	0,5	-7,222800
22,100333	0,5	-7,245100
22,108667	0,5	-7,266800
22,117000	0,5	-7,287650
22,125333	0,5	-7,313350
22,133667	0,5	-7,334000
22,142000	0,5	-7,343750
22,150333	0,5	-7,370750
22,158667	0,5	-7,383650
22,167000	0,5	-7,393650
22,175333	0,5	-7,422000
22,183667	0,5	-7,447250
22,192000	0,5	-7,472700
22,200333	0,5	-7,489050
22,208667	0,5	-7,490450
22,217000	0,5	-7,500400
22,225333	0,5	-7,514500
22,233667	0,5	-7,521750
22,242000	0,5	-7,535600
22,250333	0,5	-7,537700
22,258667	0,5	-7,540600
22,267000	0,5	-7,539650
22,275333	0,5	-7,555250
22,283667	0,5	-7,547800
22,292000	0,5	-7,553700
22,300333	0,5	-7,546550
22,308667	0,5	-7,530300
22,317000	0,5	-7,518900
22,325333	0,5	-7,511500
22,333667	0,5	-7,512000
22,342000	0,5	-7,516900
22,350333	0,5	-7,496200
22,358667	0,5	-7,465000
22,367000	0,5	-7,404500
22,375333	0,5	-7,340500
22,383667	0,5	-7,267700
22,392000	0,5	-7,237700
22,400333	0,5	-7,244600
22,408667	0,5	-7,287200
22,417000	0,5	-7,356650
22,425333	0,5	-7,401400
22,433667	0,5	-7,471050
22,442000	0,5	-7,516100
22,450333	0,5	-7,511550
22,458667	0,5	-7,520100
22,467000	0,5	-7,542050
22,475333	0,5	-7,540150
22,483667	0,5	-7,583250
22,492000	0,5	-7,571700
22,500333	0,5	-7,574600
22,508667	0,5	-7,559300
22,517000	0,5	-7,566450
22,525333	0,5	-7,558250
22,533667	0,5	-7,553500
22,542000	0,5	-7,564950
22,550333	0,5	-7,553650
22,558667	0,5	-7,541150
22,567000	0,5	-7,514900
22,575333	0,5	-7,525300
22,583667	0,5	-7,503400
22,592000	0,5	-7,473250
22,600333	0,5	-7,413050
22,608667	0,5	-7,393300
22,617000	0,5	-7,380350
22,625333	0,5	-7,382900
22,633667	0,5	-7,388350
22,642000	0,5	-7,380500
22,650333	0,5	-7,364800
22,658667	0,5	-7,364750
22,667000	0,5	-7,360250
22,675333	0,5	-7,362600
22,683667	0,5	-7,356950
22,692000	0,5	-7,361600
22,700333	0,5	-7,365650
22,708667	0,5	-7,363100
22,717000	0,5	-7,382450
22,725333	0,5	-7,425950
22,733667	0,5	-7,448250
22,742000	0,5	-7,410600
22,750333	0,5	-7,411200
22,758667	0,5	-7,405850
22,767000	0,5	-7,414300
22,775333	0,5	-7,436050
22,783667	0,5	-7,440100
22,792000	0,5	-7,443950
22,800333	0,5	-7,445600
22,808667	0,5	-7,452350
22,817000	0,5	-7,462650
22,825333	0,5	-7,475200
22,833667	0,5	-7,494250
22,842000	0,5	-7,519950
22,850333	0,5	-7,538850
22,858667	0,5	-7,560550
22,867000	0,5	-7,662300
22,875333	0,5	-7,685750
22,883667	0,5	-7,689500
22,892000	0,5	-7,694000
22,900333	0,5	-7,727950
22,908667	0,5	-7,754950
22,917000	0,5	-7,785450
22,925333	0,5	-7,815550
22,933667	0,5	-7,849200
22,942000	0,5	-7,875850
22,950333	0,5	-7,914050
22,958667	0,5	-7,932300
22,967000	0,5	-7,934650
22,975333	0,5	-7,934450
22,983667	0,5	-7,940800
22,992000	0,5	-7,950950
23,000333	0,5	-7,937400
23,008667	0,5	-7,927350
23,017000	0,5	-7,935250
23,025333	0,5	-7,904350
23,033667	0,5	-7,889150
23,042000	0,5	-7,898500
23,050333	0,5	-7,880800
23,058667	0,5	-7,846550
23,067000	0,5	-7,819150
23,075333	0,5	-7,784150
23,083667	0,5	-7,768050
23,092000	0,5	-7,737200
23,100333	0,5	-7,685650
23,108667	0,5	-7,650400
23,117000	0,5	-7,586800
23,125333	0,5	-7,523000
23,133667	0,5	-7,457750
23,142000	0,5	-7,381300
23,150333	0,5	-7,324250
23,158667	0,5	-7,191500
23,167000	0,5	-7,127850
23,175333	0,5	-7,044250
23,183667	0,5	-7,015800
23,192000	0,5	-6,960700
23,200333	0,5	-6,882750
23,208667	0,5	-6,784700
23,217000	0,5	-6,708950
23,225333	0,5	-6,641250
23,233667	0,5	-6,583050
23,242000	0,5	-6,494650
23,250333	0,5	-6,429300
23,258667	0,5	-6,343350
23,267000	0,5	-6,255100
23,275333	0,5	-6,164550
23,283667	0,5	-6,080700
23,292000	0,5	-5,989400
23,300333	0,5	-5,884100
23,308667	0,5	-5,792050
23,317000	0,5	-5,696800
23,325333	0,5	-5,572250
23,333667	0,5	-5,516550
23,342000	0,5	-5,448600
23,350333	0,5	-5,368350
23,358667	0,5	-5,285200
23,367000	0,5	-5,203600
23,375333	0,5	-5,144600
23,383667	0,5	-5,070800
23,392000	0,5	-5,008050
23,400333	0,5	-4,925950
23,408667	0,5	-4,865200
23,417000	0,5	-4,785400
23,425333	0,5	-4,716200
23,433667	0,5	-4,633650
23,442000	0,5	-4,557600
23,450333	0,5	-4,460150
23,458667	0,5	-4,485350
23,467000	0,5	-4,373800
23,475333	0,5	-4,252550
23,483667	0,5	-4,203800
23,492000	0,5	-4,140800
23,500333	0,5	-4,088250
23,508667	0,5	-4,014450
23,517000	0,5	-3,968850
23,525333	0,5	-3,928200
23,533667	0,5	-3,893800
23,542000	0,5	-3,829900
23,550333	0,5	-3,798900
23,558667	0,5	-3,749450
23,567000	0,5	-3,709450
23,575333	0,5	-3,657650
23,583667	0,5	-3,615100
23,592000	0,5	-3,567400
23,600333	0,5	-3,619600
23,608667	0,5	-3,589350
23,617000	0,5	-3,515950
23,625333	0,5	-3,429150
23,633667	0,5	-3,385150
23,642000	0,5	-3,348900
23,650333	0,5	-3,314550
23,658667	0,5	-3,274750
23,667000	0,5	-3,240700
23,675333	0,5	-3,219750
23,683667	0,5	-3,181900
23,692000	0,5	-3,150300
23,700333	0,5	-3,129250
23,708667	0,5	-3,101350
23,717000	0,5	-3,064650
23,725333	0,5	-3,031800
23,733667	0,5	-3,002850
23,742000	0,5	-2,975150
23,750333	0,5	-3,131500
23,758667	0,5	-3,071900
23,767000	0,5	-3,013400
23,775333	0,5	-2,928000
23,783667	0,5	-2,892700
23,792000	0,5	-2,861800
23,800333	0,5	-2,839850
23,808667	0,5	-2,825700
23,817000	0,5	-2,797500
23,825333	0,5	-2,768200
23,833667	0,5	-2,743650
23,842000	0,5	-2,722300
23,850333	0,5	-2,699250
23,858667	0,5	-2,666700
23,867000	0,5	-2,642700
23,875333	0,5	-2,610400
23,883667	0,5	-2,582050
23,892000	0,5	-2,657150
23,900333	0,5	-2,725950
23,908667	0,5	-2,680150
23,917000	0,5	-2,587700
23,925333	0,5	-2,526750
23,933667	0,5	-2,480150
23,942000	0,5	-2,452750
23,950333	0,5	-2,441600
23,958667	0,5	-2,422400
23,967000	0,5	-2,389000
23,975333	0,5	-2,357550
23,983667	0,5	-2,336100
23,992000	0,5	-2,313200
24,000333	0,5	-2,289950
24,008667	0,5	-2,264350
24,017000	0,5	-2,238900
24,025333	0,5	-2,208850
24,033667	0,5	-2,190600
24,042000	0,5	-2,347250
24,050333	0,5	-2,344800
24,058667	0,5	-2,280900
24,067000	0,5	-2,207150
24,075333	0,5	-2,148150
24,083667	0,5	-2,110600
24,092000	0,5	-2,083900
24,100333	0,5	-2,072200
24,108667	0,5	-2,052050
24,117000	0,5	-2,013050
24,125333	0,5	-1,983000
24,133667	0,5	-1,953750
24,142000	0,5	-1,918650
24,150333	0,5	-1,899950
24,158667	0,5	-1,870550
24,167000	0,5	-1,838250
24,175333	0,5	-1,810000
24,183667	0,5	-1,810050
24,192000	0,5	-1,952600
24,200333	0,5	-1,909650
24,208667	0,5	-1,863950
24,217000	0,5	-1,788850
24,225333	0,5	-1,756800
24,233667	0,5	-1,725350
24,242000	0,5	-1,717650
24,250333	0,5	-1,715450
24,258667	0,5	-1,691550
24,267000	0,5	-1,657500
24,275333	0,5	-1,636850
24,283667	0,5	-1,609350
24,292000	0,5	-1,579800
24,300333	0,5	-1,558500
24,308667	0,5	-1,532950
24,317000	0,5	-1,496900
24,325333	0,5	-1,481300
24,333667	0,5	-1,528800
24,342000	0,5	-1,563300
24,350333	0,5	-1,543450
24,358667	0,5	-1,488550
24,367000	0,5	-1,438650
24,375333	0,5	-1,402300
24,383667	0,5	-1,385600
24,392000	0,5	-1,383200
24,400333	0,5	-1,359600
24,408667	0,5	-1,342750
24,417000	0,5	-1,323200
24,425333	0,5	-1,302950
24,433667	0,5	-1,288950
24,442000	0,5	-1,263900
24,450333	0,5	-1,252800
24,458667	0,5	-1,233700
24,467000	0,5	-1,213500
24,475333	0,5	-1,204250
24,483667	0,5	-1,290800
24,492000	0,5	-1,276200
24,500333	0,5	-1,249050
24,508667	0,5	-1,206350
24,517000	0,5	-1,168700
24,525333	0,5	-1,153350
24,533667	0,5	-1,134800
24,542000	0,5	-1,135800
24,550333	0,5	-1,114850
24,558667	0,5	-1,092250
24,567000	0,5	-1,075650
24,575333	0,5	-1,065350
24,583667	0,5	-1,039800
24,592000	0,5	-1,019550
24,600333	0,5	-1,005250
24,608667	0,5	-0,986300
24,617000	0,5	-0,975150
24,625333	0,5	-0,982250
24,633667	0,5	-1,039350
24,642000	0,5	-1,025300
24,650333	0,5	-0,993900
24,658667	0,5	-0,965500
24,667000	0,5	-0,947600
24,675333	0,5	-0,931250
24,683667	0,5	-0,935600
24,692000	0,5	-0,931850
24,700333	0,5	-0,912050
24,708667	0,5	-0,901900
24,717000	0,5	-0,885550
24,725333	0,5	-0,887450
24,733667	0,5	-0,874200
24,742000	0,5	-0,861300
24,750333	0,5	-0,856500
24,758667	0,5	-0,837100
24,767000	0,5	-0,822900
24,775333	0,5	-0,862800
24,783667	0,5	-0,860050
24,792000	0,5	-0,840650
24,800333	0,5	-0,812050
24,808667	0,5	-0,793450
24,817000	0,5	-0,777550
24,825333	0,5	-0,765100
24,833667	0,5	-0,770800
24,842000	0,5	-0,769550
24,850333	0,5	-0,757400
24,858667	0,5	-0,752600
24,867000	0,5	-0,746400
24,875333	0,5	-0,740300
24,883667	0,5	-0,733250
24,892000	0,5	-0,728450
24,900333	0,5	-0,718150
24,908667	0,5	-0,714850
24,917000	0,5	-0,705450
24,925333	0,5	-0,755150
24,933667	0,5	-0,731800
24,942000	0,5	-0,725700
24,950333	0,5	-0,702050
24,958667	0,5	-0,696050
24,967000	0,5	-0,683950
24,975333	0,5	-0,683800
24,983667	0,5	-0,682950
24,992000	0,5	-0,665350
25,000333	0,5	-0,658700
25,008667	0,5	-0,647400
25,017000	0,5	-0,635900
25,025333	0,5	-0,638600
25,033667	0,5	-0,635450
25,042000	0,5	-0,626350
25,050333	0,5	-0,624200
25,058667	0,5	-0,619300
25,067000	0,5	-0,633250
25,075333	0,5	-0,641550
25,083667	0,5	-0,633100
25,092000	0,5	-0,624800
25,100333	0,5	-0,617900
25,108667	0,5	-0,610150
25,117000	0,5	-0,609800
25,125333	0,5	-0,610150
25,133667	0,5	-0,606550
25,142000	0,5	-0,603550
25,150333	0,5	-0,595800
25,158667	0,5	-0,597850
25,167000	0,5	-0,592250
25,175333	0,5	-0,587150
25,183667	0,5	-0,572800
25,192000	0,5	-0,571300
25,200333	0,5	-0,563150
25,208667	0,5	-0,565000
25,217000	0,5	-0,565450
25,225333	0,5	-0,563300
25,233667	0,5	-0,556650
25,242000	0,5	-0,549450
25,250333	0,5	-0,550750
25,258667	0,5	-0,550500
25,267000	0,5	-0,552500
25,275333	0,5	-0,554100
25,283667	0,5	-0,554250
25,292000	0,5	-0,553950
25,300333	0,5	-0,554650
25,308667	0,5	-0,552950
25,317000	0,5	-0,549550
25,325333	0,5	-0,548850
25,333667	0,5	-0,545500
25,342000	0,5	-0,545250
25,350333	0,5	-0,532300
25,358667	0,5	-0,539450
25,367000	0,5	-0,533650
25,375333	0,5	-0,524550
25,383667	0,5	-0,517600
25,392000	0,5	-0,518650
25,400333	0,5	-0,516800
25,408667	0,5	-0,516650
25,417000	0,5	-0,507900
25,425333	0,5	-0,498100
25,433667	0,5	-0,505000
25,442000	0,5	-0,503750
25,450333	0,5	-0,506450
25,458667	0,5	-0,512250
25,467000	0,5	-0,511650
25,475333	0,5	-0,512400
25,483667	0,5	-0,509000
25,492000	0,5	-0,513550
25,500333	0,5	-0,510550
25,508667	0,5	-0,505850
25,517000	0,5	-0,494150
25,525333	0,5	-0,489700
25,533667	0,5	-0,490800
25,542000	0,5	-0,495650
25,550333	0,5	-0,497150
25,558667	0,5	-0,493600
25,567000	0,5	-0,492200
25,575333	0,5	-0,485100
25,583667	0,5	-0,491250
25,592000	0,5	-0,491350
25,600333	0,5	-0,493400
25,608667	0,5	-0,488150
25,617000	0,5	-0,491500
25,625333	0,5	-0,490050
25,633667	0,5	-0,492050
25,642000	0,5	-0,493100
25,650333	0,5	-0,494100
25,658667	0,5	-0,484600
25,667000	0,5	-0,476900
25,675333	0,5	-0,473250
25,683667	0,5	-0,485300
25,692000	0,5	-0,485850
25,700333	0,5	-0,488500
25,708667	0,5	-0,492650
25,717000	0,5	-0,485100
25,725333	0,5	-0,480600
25,733667	0,5	-0,485300
25,742000	0,5	-0,492200
25,750333	0,5	-0,489500
25,758667	0,5	-0,488450
25,767000	0,5	-0,482700
25,775333	0,5	-0,485200
25,783667	0,5	-0,483950
25,792000	0,5	-0,479600
25,800333	0,5	-0,476800
25,808667	0,5	-0,459000
25,817000	0,5	-0,461300
25,825333	0,5	-0,452700
25,833667	0,5	-0,463850
25,842000	0,5	-0,468350
25,850333	0,5	-0,466250
25,858667	0,5	-0,464850
25,867000	0,5	-0,449100
25,875333	0,5	-0,456700
25,883667	0,5	-0,463400
25,892000	0,5	-0,461350
25,900333	0,5	-0,463050
25,908667	0,5	-0,461850
25,917000	0,5	-0,462200
25,925333	0,5	-0,458250
25,933667	0,5	-0,459950
25,942000	0,5	-0,452850
25,950333	0,5	-0,447950
25,958667	0,5	-0,433050
25,967000	0,5	-0,431350
25,975333	0,5	-0,418600
25,983667	0,5	-0,437350
25,992000	0,5	-0,436900
26,000333	0,5	-0,430900
