File Path	chrom://chromeleon01/ikbm_chromeleon/2022/ICS-5000/ED1/Esteban/20220427_Cell_Amandas_mutants.seq/619.smp/ED_1.channel/ED_1.chm
Channel	ED_1

Injection Information:
Data Vault	ikbm_chromeleon
Injection	T24h_Avi_C-NE
Injection Number	59
Position	GB3
Comment	
Processing Method	Stop sequence after Cell Death
Instrument Method	ICS5000_PA200_FullNative_Ox_26min_ED1
Type	Unknown
Status	Finished
Injection Date	28.04.2022
Injection Time	16:40:10
Injection Volume (µl)	5,0
Dilution Factor	1,0000
Weight	1,0000

Chromatogram Data Information:
Time Min. (min)	0,000333
Time Max. (min)	26,000333
Data Points	3121
Detector	EDet1
Generating Data System	Chromeleon 7.2.9.11323
Exporting Data System	Chromeleon 7.2.9.0
Operator	Instrument Controller
Signal Quantity	
Signal Unit	nC
Signal Min.	-8,443650
Signal Max.	36,616351
Channel	ED_1
Driver Name	DC-5000
Channel Type	Evaluation
Min. Step (s)	0,5
Max. Step (s)	0,5
Average Step (s)	0,5

Signal Parameter Information:
Signal Info	

Chromatogram Data:
Time (min)	Step (s)	Value (nC)
0,000333	n.a.	-0,061300
0,008667	0,5	-0,096700
0,017000	0,5	-0,088950
0,025333	0,5	-0,050900
0,033667	0,5	-0,012050
0,042000	0,5	-0,025750
0,050333	0,5	-0,013400
0,058667	0,5	-0,017950
0,067000	0,5	-0,012150
0,075333	0,5	-0,023400
0,083667	0,5	-0,016350
0,092000	0,5	-0,027050
0,100333	0,5	-0,009450
0,108667	0,5	-0,015100
0,117000	0,5	-0,017350
0,125333	0,5	-0,026700
0,133667	0,5	0,000550
0,142000	0,5	-0,026250
0,150333	0,5	-0,042250
0,158667	0,5	-0,038800
0,167000	0,5	-0,025350
0,175333	0,5	0,006350
0,183667	0,5	0,008950
0,192000	0,5	0,002750
0,200333	0,5	0,012400
0,208667	0,5	0,009500
0,217000	0,5	-0,001450
0,225333	0,5	0,003000
0,233667	0,5	-0,013950
0,242000	0,5	-0,007950
0,250333	0,5	-0,022700
0,258667	0,5	-0,016250
0,267000	0,5	-0,045150
0,275333	0,5	-0,025500
0,283667	0,5	-0,024650
0,292000	0,5	-0,029500
0,300333	0,5	-0,010500
0,308667	0,5	0,046000
0,317000	0,5	0,032650
0,325333	0,5	0,008650
0,333667	0,5	-0,011450
0,342000	0,5	-0,015500
0,350333	0,5	-0,008850
0,358667	0,5	-0,018600
0,367000	0,5	-0,024400
0,375333	0,5	-0,027750
0,383667	0,5	-0,023400
0,392000	0,5	-0,029650
0,400333	0,5	-0,018500
0,408667	0,5	-0,020300
0,417000	0,5	-0,031950
0,425333	0,5	-0,019550
0,433667	0,5	-0,015600
0,442000	0,5	-0,031550
0,450333	0,5	-0,034300
0,458667	0,5	-0,032450
0,467000	0,5	0,002150
0,475333	0,5	0,008500
0,483667	0,5	-0,002050
0,492000	0,5	-0,006400
0,500333	0,5	0,014750
0,508667	0,5	0,008950
0,517000	0,5	0,002550
0,525333	0,5	0,005300
0,533667	0,5	0,001550
0,542000	0,5	0,002800
0,550333	0,5	-0,003400
0,558667	0,5	0,011350
0,567000	0,5	-0,008900
0,575333	0,5	0,031250
0,583667	0,5	0,010750
0,592000	0,5	0,004300
0,600333	0,5	0,003300
0,608667	0,5	0,025700
0,617000	0,5	0,061800
0,625333	0,5	0,068250
0,633667	0,5	0,048700
0,642000	0,5	0,059250
0,650333	0,5	0,055100
0,658667	0,5	0,056600
0,667000	0,5	0,053150
0,675333	0,5	0,062350
0,683667	0,5	0,058550
0,692000	0,5	0,056200
0,700333	0,5	0,071850
0,708667	0,5	0,062400
0,717000	0,5	0,052400
0,725333	0,5	0,067950
0,733667	0,5	0,055850
0,742000	0,5	0,055300
0,750333	0,5	0,062950
0,758667	0,5	0,082150
0,767000	0,5	0,134900
0,775333	0,5	0,119350
0,783667	0,5	0,118150
0,792000	0,5	0,113450
0,800333	0,5	0,121750
0,808667	0,5	0,117250
0,817000	0,5	0,129750
0,825333	0,5	0,121650
0,833667	0,5	0,118350
0,842000	0,5	0,115750
0,850333	0,5	0,120900
0,858667	0,5	0,116150
0,867000	0,5	0,134450
0,875333	0,5	0,137100
0,883667	0,5	0,117800
0,892000	0,5	0,131700
0,900333	0,5	0,132600
0,908667	0,5	0,166300
0,917000	0,5	0,198300
0,925333	0,5	0,200350
0,933667	0,5	0,188300
0,942000	0,5	0,197100
0,950333	0,5	0,192500
0,958667	0,5	0,195450
0,967000	0,5	0,202500
0,975333	0,5	0,207050
0,983667	0,5	0,192900
0,992000	0,5	0,203300
1,000333	0,5	0,201200
1,008667	0,5	0,211250
1,017000	0,5	0,228300
1,025333	0,5	0,227850
1,033667	0,5	0,208100
1,042000	0,5	0,214000
1,050333	0,5	0,225250
1,058667	0,5	0,270450
1,067000	0,5	0,289500
1,075333	0,5	0,280100
1,083667	0,5	0,285100
1,092000	0,5	0,287350
1,100333	0,5	0,287900
1,108667	0,5	0,293000
1,117000	0,5	0,305200
1,125333	0,5	0,298400
1,133667	0,5	0,309700
1,142000	0,5	0,317400
1,150333	0,5	0,316100
1,158667	0,5	0,313750
1,167000	0,5	0,343750
1,175333	0,5	0,336700
1,183667	0,5	0,333250
1,192000	0,5	0,350750
1,200333	0,5	0,369650
1,208667	0,5	0,414200
1,217000	0,5	0,427900
1,225333	0,5	0,426250
1,233667	0,5	0,440900
1,242000	0,5	0,440800
1,250333	0,5	0,449200
1,258667	0,5	0,462300
1,267000	0,5	0,468350
1,275333	0,5	0,471100
1,283667	0,5	0,480300
1,292000	0,5	0,494300
1,300333	0,5	0,491350
1,308667	0,5	0,526050
1,317000	0,5	0,536700
1,325333	0,5	0,528200
1,333667	0,5	0,521300
1,342000	0,5	0,549400
1,350333	0,5	0,587050
1,358667	0,5	0,606850
1,367000	0,5	0,606250
1,375333	0,5	0,615700
1,383667	0,5	0,619850
1,392000	0,5	0,625550
1,400333	0,5	0,626400
1,408667	0,5	0,638850
1,417000	0,5	0,648500
1,425333	0,5	0,649800
1,433667	0,5	0,658250
1,442000	0,5	0,667000
1,450333	0,5	0,666500
1,458667	0,5	0,696000
1,467000	0,5	0,687900
1,475333	0,5	0,679150
1,483667	0,5	0,677600
1,492000	0,5	0,687700
1,500333	0,5	0,724200
1,508667	0,5	0,716900
1,517000	0,5	0,723850
1,525333	0,5	0,712200
1,533667	0,5	0,718850
1,542000	0,5	0,714300
1,550333	0,5	0,716550
1,558667	0,5	0,704650
1,567000	0,5	0,658450
1,575333	0,5	0,445500
1,583667	0,5	-0,229950
1,592000	0,5	-1,391550
1,600333	0,5	-1,956300
1,608667	0,5	-0,716900
1,617000	0,5	1,424700
1,625333	0,5	3,407350
1,633667	0,5	5,518400
1,642000	0,5	7,834750
1,650333	0,5	9,629750
1,658667	0,5	10,249100
1,667000	0,5	9,948550
1,675333	0,5	9,272300
1,683667	0,5	8,488550
1,692000	0,5	7,814000
1,700333	0,5	7,324500
1,708667	0,5	7,344400
1,717000	0,5	8,379400
1,725333	0,5	10,520550
1,733667	0,5	12,192850
1,742000	0,5	11,820200
1,750333	0,5	9,875700
1,758667	0,5	7,848800
1,767000	0,5	6,346100
1,775333	0,5	5,459100
1,783667	0,5	5,135600
1,792000	0,5	5,477250
1,800333	0,5	6,346350
1,808667	0,5	7,147450
1,817000	0,5	7,571600
1,825333	0,5	7,557950
1,833667	0,5	7,238400
1,842000	0,5	6,745450
1,850333	0,5	6,227400
1,858667	0,5	5,724150
1,867000	0,5	5,313100
1,875333	0,5	5,002050
1,883667	0,5	4,753350
1,892000	0,5	4,566550
1,900333	0,5	4,477200
1,908667	0,5	4,436250
1,917000	0,5	4,390800
1,925333	0,5	4,290050
1,933667	0,5	4,102400
1,942000	0,5	3,931700
1,950333	0,5	3,836300
1,958667	0,5	3,778000
1,967000	0,5	3,734850
1,975333	0,5	3,750600
1,983667	0,5	3,849050
1,992000	0,5	4,176050
2,000333	0,5	4,853800
2,008667	0,5	6,148550
2,017000	0,5	8,433750
2,025333	0,5	12,085700
2,033667	0,5	16,749350
2,042000	0,5	21,162250
2,050333	0,5	24,701850
2,058667	0,5	28,496500
2,067000	0,5	33,036250
2,075333	0,5	36,407251
2,083667	0,5	36,616351
2,092000	0,5	34,138101
2,100333	0,5	30,707750
2,108667	0,5	27,544600
2,117000	0,5	25,048800
2,125333	0,5	23,280950
2,133667	0,5	22,152300
2,142000	0,5	21,740750
2,150333	0,5	22,298250
2,158667	0,5	23,588800
2,167000	0,5	24,353050
2,175333	0,5	23,660450
2,183667	0,5	22,208650
2,192000	0,5	20,938350
2,200333	0,5	19,832150
2,208667	0,5	18,426100
2,217000	0,5	16,877250
2,225333	0,5	15,531950
2,233667	0,5	14,553350
2,242000	0,5	13,867250
2,250333	0,5	13,371550
2,258667	0,5	12,994350
2,267000	0,5	12,725600
2,275333	0,5	12,519050
2,283667	0,5	12,361050
2,292000	0,5	12,220500
2,300333	0,5	12,107850
2,308667	0,5	11,998100
2,317000	0,5	11,918750
2,325333	0,5	11,874400
2,333667	0,5	11,842900
2,342000	0,5	11,848750
2,350333	0,5	11,813000
2,358667	0,5	11,790800
2,367000	0,5	11,762200
2,375333	0,5	11,777800
2,383667	0,5	11,829900
2,392000	0,5	11,901450
2,400333	0,5	11,991250
2,408667	0,5	12,169150
2,417000	0,5	12,410950
2,425333	0,5	12,734250
2,433667	0,5	13,083450
2,442000	0,5	13,465500
2,450333	0,5	13,890350
2,458667	0,5	14,158650
2,467000	0,5	13,994550
2,475333	0,5	13,549700
2,483667	0,5	13,224000
2,492000	0,5	13,120600
2,500333	0,5	13,034450
2,508667	0,5	12,958450
2,517000	0,5	12,888850
2,525333	0,5	12,822500
2,533667	0,5	12,807300
2,542000	0,5	12,750250
2,550333	0,5	12,713200
2,558667	0,5	12,684750
2,567000	0,5	12,699600
2,575333	0,5	12,733800
2,583667	0,5	12,846750
2,592000	0,5	13,025400
2,600333	0,5	13,357600
2,608667	0,5	13,937850
2,617000	0,5	14,869050
2,625333	0,5	16,141650
2,633667	0,5	17,528200
2,642000	0,5	18,717500
2,650333	0,5	19,382500
2,658667	0,5	19,506900
2,667000	0,5	19,195700
2,675333	0,5	18,603350
2,683667	0,5	17,890350
2,692000	0,5	17,177900
2,700333	0,5	16,592500
2,708667	0,5	16,221100
2,717000	0,5	16,084150
2,725333	0,5	16,267250
2,733667	0,5	16,857450
2,742000	0,5	17,960050
2,750333	0,5	19,601600
2,758667	0,5	21,782750
2,767000	0,5	24,371300
2,775333	0,5	26,987950
2,783667	0,5	29,019850
2,792000	0,5	29,873250
2,800333	0,5	29,279200
2,808667	0,5	27,611250
2,817000	0,5	25,427450
2,825333	0,5	23,264450
2,833667	0,5	21,455100
2,842000	0,5	20,165300
2,850333	0,5	19,704500
2,858667	0,5	20,411400
2,867000	0,5	22,558550
2,875333	0,5	25,874750
2,883667	0,5	29,210450
2,892000	0,5	31,058600
2,900333	0,5	30,610650
2,908667	0,5	28,192250
2,917000	0,5	24,780600
2,925333	0,5	21,291800
2,933667	0,5	18,296450
2,942000	0,5	15,849400
2,950333	0,5	13,937550
2,958667	0,5	12,451100
2,967000	0,5	11,307150
2,975333	0,5	10,401900
2,983667	0,5	9,674550
2,992000	0,5	9,050600
3,000333	0,5	8,535500
3,008667	0,5	8,094200
3,017000	0,5	7,705500
3,025333	0,5	7,368250
3,033667	0,5	7,071950
3,042000	0,5	6,817800
3,050333	0,5	6,588550
3,058667	0,5	6,430500
3,067000	0,5	6,314250
3,075333	0,5	6,272250
3,083667	0,5	6,290900
3,092000	0,5	6,335250
3,100333	0,5	6,379100
3,108667	0,5	6,382650
3,117000	0,5	6,298150
3,125333	0,5	6,107200
3,133667	0,5	5,805850
3,142000	0,5	5,471800
3,150333	0,5	5,152350
3,158667	0,5	4,895900
3,167000	0,5	4,700600
3,175333	0,5	4,567300
3,183667	0,5	4,496300
3,192000	0,5	4,478300
3,200333	0,5	4,539750
3,208667	0,5	4,732600
3,217000	0,5	5,152700
3,225333	0,5	5,913900
3,233667	0,5	7,099200
3,242000	0,5	8,625150
3,250333	0,5	10,247550
3,258667	0,5	11,541000
3,267000	0,5	12,170400
3,275333	0,5	11,953000
3,283667	0,5	11,013200
3,292000	0,5	9,637050
3,300333	0,5	8,183000
3,308667	0,5	6,876900
3,317000	0,5	5,821000
3,325333	0,5	5,004100
3,333667	0,5	4,384650
3,342000	0,5	3,909400
3,350333	0,5	3,534350
3,358667	0,5	3,234850
3,367000	0,5	2,976300
3,375333	0,5	2,772100
3,383667	0,5	2,586450
3,392000	0,5	2,424600
3,400333	0,5	2,293800
3,408667	0,5	2,188700
3,417000	0,5	2,103150
3,425333	0,5	2,102300
3,433667	0,5	1,934800
3,442000	0,5	1,872300
3,450333	0,5	1,805400
3,458667	0,5	1,737000
3,467000	0,5	1,666550
3,475333	0,5	1,607750
3,483667	0,5	1,544050
3,492000	0,5	1,488850
3,500333	0,5	1,434650
3,508667	0,5	1,376900
3,517000	0,5	1,322750
3,525333	0,5	1,303100
3,533667	0,5	1,252200
3,542000	0,5	1,211200
3,550333	0,5	1,182400
3,558667	0,5	1,153000
3,567000	0,5	1,146550
3,575333	0,5	1,104500
3,583667	0,5	1,072450
3,592000	0,5	1,035450
3,600333	0,5	1,007350
3,608667	0,5	0,968600
3,617000	0,5	0,944900
3,625333	0,5	0,908100
3,633667	0,5	0,883650
3,642000	0,5	0,850100
3,650333	0,5	0,836000
3,658667	0,5	0,802250
3,667000	0,5	0,785350
3,675333	0,5	0,773850
3,683667	0,5	0,739450
3,692000	0,5	0,720050
3,700333	0,5	0,707650
3,708667	0,5	0,697000
3,717000	0,5	0,704950
3,725333	0,5	0,694900
3,733667	0,5	0,677850
3,742000	0,5	0,669500
3,750333	0,5	0,658950
3,758667	0,5	0,658550
3,767000	0,5	0,643350
3,775333	0,5	0,638950
3,783667	0,5	0,634550
3,792000	0,5	0,638750
3,800333	0,5	0,648550
3,808667	0,5	0,655400
3,817000	0,5	0,668350
3,825333	0,5	0,675850
3,833667	0,5	0,657250
3,842000	0,5	0,648200
3,850333	0,5	0,636250
3,858667	0,5	0,635700
3,867000	0,5	0,615150
3,875333	0,5	0,573300
3,883667	0,5	0,540350
3,892000	0,5	0,521350
3,900333	0,5	0,495600
3,908667	0,5	0,480300
3,917000	0,5	0,461300
3,925333	0,5	0,446200
3,933667	0,5	0,436900
3,942000	0,5	0,427000
3,950333	0,5	0,428050
3,958667	0,5	0,405650
3,967000	0,5	0,415800
3,975333	0,5	0,400850
3,983667	0,5	0,389950
3,992000	0,5	0,381100
4,000333	0,5	0,385800
4,008667	0,5	0,400800
4,017000	0,5	0,400100
4,025333	0,5	0,386200
4,033667	0,5	0,390950
4,042000	0,5	0,386100
4,050333	0,5	0,381250
4,058667	0,5	0,380000
4,067000	0,5	0,381000
4,075333	0,5	0,372100
4,083667	0,5	0,364850
4,092000	0,5	0,364850
4,100333	0,5	0,348350
4,108667	0,5	0,341350
4,117000	0,5	0,346650
4,125333	0,5	0,329550
4,133667	0,5	0,322550
4,142000	0,5	0,322850
4,150333	0,5	0,338350
4,158667	0,5	0,361200
4,167000	0,5	0,365950
4,175333	0,5	0,365200
4,183667	0,5	0,357100
4,192000	0,5	0,356500
4,200333	0,5	0,349900
4,208667	0,5	0,345350
4,217000	0,5	0,345150
4,225333	0,5	0,346450
4,233667	0,5	0,349100
4,242000	0,5	0,350850
4,250333	0,5	0,359150
4,258667	0,5	0,370800
4,267000	0,5	0,391200
4,275333	0,5	0,390600
4,283667	0,5	0,416900
4,292000	0,5	0,437200
4,300333	0,5	0,489000
4,308667	0,5	0,547100
4,317000	0,5	0,619600
4,325333	0,5	0,683900
4,333667	0,5	0,779350
4,342000	0,5	0,881500
4,350333	0,5	1,004850
4,358667	0,5	1,124900
4,367000	0,5	1,246600
4,375333	0,5	1,345000
4,383667	0,5	1,423650
4,392000	0,5	1,487550
4,400333	0,5	1,534950
4,408667	0,5	1,574800
4,417000	0,5	1,592100
4,425333	0,5	1,602200
4,433667	0,5	1,631850
4,442000	0,5	1,658800
4,450333	0,5	1,699600
4,458667	0,5	1,709650
4,467000	0,5	1,682050
4,475333	0,5	1,649200
4,483667	0,5	1,583350
4,492000	0,5	1,501350
4,500333	0,5	1,405850
4,508667	0,5	1,318300
4,517000	0,5	1,233100
4,525333	0,5	1,161200
4,533667	0,5	1,102300
4,542000	0,5	1,041450
4,550333	0,5	0,997250
4,558667	0,5	0,973250
4,567000	0,5	0,909900
4,575333	0,5	0,860700
4,583667	0,5	0,819200
4,592000	0,5	0,791750
4,600333	0,5	0,767450
4,608667	0,5	0,718850
4,617000	0,5	0,680850
4,625333	0,5	0,642500
4,633667	0,5	0,615550
4,642000	0,5	0,588550
4,650333	0,5	0,570500
4,658667	0,5	0,551250
4,667000	0,5	0,535300
4,675333	0,5	0,527650
4,683667	0,5	0,529400
4,692000	0,5	0,509150
4,700333	0,5	0,520950
4,708667	0,5	0,519350
4,717000	0,5	0,504100
4,725333	0,5	0,494750
4,733667	0,5	0,494700
4,742000	0,5	0,514150
4,750333	0,5	0,521800
4,758667	0,5	0,516200
4,767000	0,5	0,516300
4,775333	0,5	0,522650
4,783667	0,5	0,528300
4,792000	0,5	0,523650
4,800333	0,5	0,526800
4,808667	0,5	0,518150
4,817000	0,5	0,502300
4,825333	0,5	0,502900
4,833667	0,5	0,494650
4,842000	0,5	0,487650
4,850333	0,5	0,487900
4,858667	0,5	0,480300
4,867000	0,5	0,468600
4,875333	0,5	0,469750
4,883667	0,5	0,473000
4,892000	0,5	0,501850
4,900333	0,5	0,510200
4,908667	0,5	0,501850
4,917000	0,5	0,499050
4,925333	0,5	0,504650
4,933667	0,5	0,502850
4,942000	0,5	0,505300
4,950333	0,5	0,502900
4,958667	0,5	0,508000
4,967000	0,5	0,514000
4,975333	0,5	0,523950
4,983667	0,5	0,523100
4,992000	0,5	0,513900
5,000333	0,5	0,540300
5,008667	0,5	0,524850
5,017000	0,5	0,529800
5,025333	0,5	0,529600
5,033667	0,5	0,542600
5,042000	0,5	0,568600
5,050333	0,5	0,575100
5,058667	0,5	0,572700
5,067000	0,5	0,587950
5,075333	0,5	0,589000
5,083667	0,5	0,599900
5,092000	0,5	0,604600
5,100333	0,5	0,612850
5,108667	0,5	0,604650
5,117000	0,5	0,616150
5,125333	0,5	0,621700
5,133667	0,5	0,614300
5,142000	0,5	0,616650
5,150333	0,5	0,634200
5,158667	0,5	0,623000
5,167000	0,5	0,630750
5,175333	0,5	0,637750
5,183667	0,5	0,659800
5,192000	0,5	0,681650
5,200333	0,5	0,694550
5,208667	0,5	0,707900
5,217000	0,5	0,716550
5,225333	0,5	0,733500
5,233667	0,5	0,737850
5,242000	0,5	0,761900
5,250333	0,5	0,769400
5,258667	0,5	0,779100
5,267000	0,5	0,791850
5,275333	0,5	0,787050
5,283667	0,5	0,788250
5,292000	0,5	0,786800
5,300333	0,5	0,789350
5,308667	0,5	0,774400
5,317000	0,5	0,769200
5,325333	0,5	0,769200
5,333667	0,5	0,786250
5,342000	0,5	0,787700
5,350333	0,5	0,791500
5,358667	0,5	0,787100
5,367000	0,5	0,790850
5,375333	0,5	0,782700
5,383667	0,5	0,786950
5,392000	0,5	0,781100
5,400333	0,5	0,790550
5,408667	0,5	0,789550
5,417000	0,5	0,795100
5,425333	0,5	0,796850
5,433667	0,5	0,800450
5,442000	0,5	0,816150
5,450333	0,5	0,819750
5,458667	0,5	0,817850
5,467000	0,5	0,828300
5,475333	0,5	0,841950
5,483667	0,5	0,866800
5,492000	0,5	0,884400
5,500333	0,5	0,880700
5,508667	0,5	0,896750
5,517000	0,5	0,898900
5,525333	0,5	0,902750
5,533667	0,5	0,904150
5,542000	0,5	0,912450
5,550333	0,5	0,910200
5,558667	0,5	0,915800
5,567000	0,5	0,918200
5,575333	0,5	0,923100
5,583667	0,5	0,928050
5,592000	0,5	0,941550
5,600333	0,5	0,938000
5,608667	0,5	0,933850
5,617000	0,5	0,939200
5,625333	0,5	0,962200
5,633667	0,5	0,980350
5,642000	0,5	0,979050
5,650333	0,5	0,985700
5,658667	0,5	0,991850
5,667000	0,5	0,998050
5,675333	0,5	1,002800
5,683667	0,5	1,003700
5,692000	0,5	1,012650
5,700333	0,5	1,010600
5,708667	0,5	1,020150
5,717000	0,5	1,030250
5,725333	0,5	1,024800
5,733667	0,5	1,046750
5,742000	0,5	1,050200
5,750333	0,5	1,051450
5,758667	0,5	1,051450
5,767000	0,5	1,060800
5,775333	0,5	1,084500
5,783667	0,5	1,095550
5,792000	0,5	1,100150
5,800333	0,5	1,111350
5,808667	0,5	1,115500
5,817000	0,5	1,131300
5,825333	0,5	1,137700
5,833667	0,5	1,147250
5,842000	0,5	1,154600
5,850333	0,5	1,162300
5,858667	0,5	1,173800
5,867000	0,5	1,184800
5,875333	0,5	1,191550
5,883667	0,5	1,220350
5,892000	0,5	1,224000
5,900333	0,5	1,218100
5,908667	0,5	1,228050
5,917000	0,5	1,243750
5,925333	0,5	1,281600
5,933667	0,5	1,289500
5,942000	0,5	1,299550
5,950333	0,5	1,308750
5,958667	0,5	1,319100
5,967000	0,5	1,332200
5,975333	0,5	1,348200
5,983667	0,5	1,364500
5,992000	0,5	1,372750
6,000333	0,5	1,387950
6,008667	0,5	1,394950
6,017000	0,5	1,398850
6,025333	0,5	1,400750
6,033667	0,5	1,418350
6,042000	0,5	1,407250
6,050333	0,5	1,405300
6,058667	0,5	1,404450
6,067000	0,5	1,407600
6,075333	0,5	1,426150
6,083667	0,5	1,426800
6,092000	0,5	1,419100
6,100333	0,5	1,427400
6,108667	0,5	1,425700
6,117000	0,5	1,426250
6,125333	0,5	1,433650
6,133667	0,5	1,443400
6,142000	0,5	1,443150
6,150333	0,5	1,448050
6,158667	0,5	1,454700
6,167000	0,5	1,455650
6,175333	0,5	1,461950
6,183667	0,5	1,471300
6,192000	0,5	1,465200
6,200333	0,5	1,473450
6,208667	0,5	1,488150
6,217000	0,5	1,512550
6,225333	0,5	1,540200
6,233667	0,5	1,544800
6,242000	0,5	1,563050
6,250333	0,5	1,566300
6,258667	0,5	1,583250
6,267000	0,5	1,588200
6,275333	0,5	1,604300
6,283667	0,5	1,605850
6,292000	0,5	1,622400
6,300333	0,5	1,634750
6,308667	0,5	1,646950
6,317000	0,5	1,653350
6,325333	0,5	1,671850
6,333667	0,5	1,704300
6,342000	0,5	1,722100
6,350333	0,5	1,755550
6,358667	0,5	1,804200
6,367000	0,5	1,869450
6,375333	0,5	1,937150
6,383667	0,5	2,005200
6,392000	0,5	2,070250
6,400333	0,5	2,132200
6,408667	0,5	2,193300
6,417000	0,5	2,236450
6,425333	0,5	2,258100
6,433667	0,5	2,263300
6,442000	0,5	2,246900
6,450333	0,5	2,212900
6,458667	0,5	2,158800
6,467000	0,5	2,111500
6,475333	0,5	2,061900
6,483667	0,5	2,011450
6,492000	0,5	1,965150
6,500333	0,5	1,938600
6,508667	0,5	1,919300
6,517000	0,5	1,916850
6,525333	0,5	1,906500
6,533667	0,5	1,900300
6,542000	0,5	1,896300
6,550333	0,5	1,894250
6,558667	0,5	1,888800
6,567000	0,5	1,895250
6,575333	0,5	1,896000
6,583667	0,5	1,896300
6,592000	0,5	1,899400
6,600333	0,5	1,905250
6,608667	0,5	1,909800
6,617000	0,5	1,919500
6,625333	0,5	1,924800
6,633667	0,5	1,921050
6,642000	0,5	1,918700
6,650333	0,5	1,923400
6,658667	0,5	1,943250
6,667000	0,5	1,954200
6,675333	0,5	1,960700
6,683667	0,5	1,960850
6,692000	0,5	1,974650
6,700333	0,5	1,981400
6,708667	0,5	1,989900
6,717000	0,5	1,995550
6,725333	0,5	2,004200
6,733667	0,5	2,012000
6,742000	0,5	2,022050
6,750333	0,5	2,029200
6,758667	0,5	2,024450
6,767000	0,5	2,039200
6,775333	0,5	2,044100
6,783667	0,5	2,045800
6,792000	0,5	2,049200
6,800333	0,5	2,057850
6,808667	0,5	2,069000
6,817000	0,5	2,079650
6,825333	0,5	2,084050
6,833667	0,5	2,089000
6,842000	0,5	2,091500
6,850333	0,5	2,095500
6,858667	0,5	2,099500
6,867000	0,5	2,108500
6,875333	0,5	2,109000
6,883667	0,5	2,113450
6,892000	0,5	2,122350
6,900333	0,5	2,122700
6,908667	0,5	2,116650
6,917000	0,5	2,129700
6,925333	0,5	2,124050
6,933667	0,5	2,120800
6,942000	0,5	2,122050
6,950333	0,5	2,115500
6,958667	0,5	2,127800
6,967000	0,5	2,120900
6,975333	0,5	2,123650
6,983667	0,5	2,115100
6,992000	0,5	2,115700
7,000333	0,5	2,111450
7,008667	0,5	2,107000
7,017000	0,5	2,109050
7,025333	0,5	2,110100
7,033667	0,5	2,115350
7,042000	0,5	2,119200
7,050333	0,5	2,121350
7,058667	0,5	2,124950
7,067000	0,5	2,142950
7,075333	0,5	2,150500
7,083667	0,5	2,173350
7,092000	0,5	2,199700
7,100333	0,5	2,252350
7,108667	0,5	2,339900
7,117000	0,5	2,456900
7,125333	0,5	2,622050
7,133667	0,5	2,823850
7,142000	0,5	3,046450
7,150333	0,5	3,236900
7,158667	0,5	3,358550
7,167000	0,5	3,380300
7,175333	0,5	3,294900
7,183667	0,5	3,139050
7,192000	0,5	2,939400
7,200333	0,5	2,746350
7,208667	0,5	2,585500
7,217000	0,5	2,469150
7,225333	0,5	2,364200
7,233667	0,5	2,295500
7,242000	0,5	2,247100
7,250333	0,5	2,222200
7,258667	0,5	2,207100
7,267000	0,5	2,189050
7,275333	0,5	2,176050
7,283667	0,5	2,162900
7,292000	0,5	2,153950
7,300333	0,5	2,143000
7,308667	0,5	2,141250
7,317000	0,5	2,140550
7,325333	0,5	2,139350
7,333667	0,5	2,141600
7,342000	0,5	2,140200
7,350333	0,5	2,131900
7,358667	0,5	2,127250
7,367000	0,5	2,120550
7,375333	0,5	2,113600
7,383667	0,5	2,104450
7,392000	0,5	2,101850
7,400333	0,5	2,107700
7,408667	0,5	2,117200
7,417000	0,5	2,135600
7,425333	0,5	2,154650
7,433667	0,5	2,187100
7,442000	0,5	2,231150
7,450333	0,5	2,290100
7,458667	0,5	2,355450
7,467000	0,5	2,413050
7,475333	0,5	2,437350
7,483667	0,5	2,435950
7,492000	0,5	2,402250
7,500333	0,5	2,374400
7,508667	0,5	2,360500
7,517000	0,5	2,365800
7,525333	0,5	2,391600
7,533667	0,5	2,431400
7,542000	0,5	2,498950
7,550333	0,5	2,566650
7,558667	0,5	2,632100
7,567000	0,5	2,677900
7,575333	0,5	2,707100
7,583667	0,5	2,715700
7,592000	0,5	2,703700
7,600333	0,5	2,682300
7,608667	0,5	2,650050
7,617000	0,5	2,612300
7,625333	0,5	2,572600
7,633667	0,5	2,532300
7,642000	0,5	2,492350
7,650333	0,5	2,464700
7,658667	0,5	2,440250
7,667000	0,5	2,409950
7,675333	0,5	2,372300
7,683667	0,5	2,335200
7,692000	0,5	2,314350
7,700333	0,5	2,293150
7,708667	0,5	2,268700
7,717000	0,5	2,248200
7,725333	0,5	2,227150
7,733667	0,5	2,215300
7,742000	0,5	2,205100
7,750333	0,5	2,201750
7,758667	0,5	2,196500
7,767000	0,5	2,193200
7,775333	0,5	2,184800
7,783667	0,5	2,183300
7,792000	0,5	2,166350
7,800333	0,5	2,158200
7,808667	0,5	2,144950
7,817000	0,5	2,126850
7,825333	0,5	2,113250
7,833667	0,5	2,103700
7,842000	0,5	2,104750
7,850333	0,5	2,106950
7,858667	0,5	2,108050
7,867000	0,5	2,107300
7,875333	0,5	2,103900
7,883667	0,5	2,101850
7,892000	0,5	2,098850
7,900333	0,5	2,088500
7,908667	0,5	2,077650
7,917000	0,5	2,074350
7,925333	0,5	2,076600
7,933667	0,5	2,085400
7,942000	0,5	2,089250
7,950333	0,5	2,100650
7,958667	0,5	2,105500
7,967000	0,5	2,103850
7,975333	0,5	2,088550
7,983667	0,5	2,067950
7,992000	0,5	2,057400
8,000333	0,5	2,043500
8,008667	0,5	2,032450
8,017000	0,5	2,033500
8,025333	0,5	2,025200
8,033667	0,5	2,032400
8,042000	0,5	2,034300
8,050333	0,5	2,045050
8,058667	0,5	2,063650
8,067000	0,5	2,090450
8,075333	0,5	2,126700
8,083667	0,5	2,170050
8,092000	0,5	2,209800
8,100333	0,5	2,245600
8,108667	0,5	2,254400
8,117000	0,5	2,255450
8,125333	0,5	2,249500
8,133667	0,5	2,255800
8,142000	0,5	2,312100
8,150333	0,5	2,417550
8,158667	0,5	2,602500
8,167000	0,5	2,827500
8,175333	0,5	3,036950
8,183667	0,5	3,139650
8,192000	0,5	3,106400
8,200333	0,5	2,967450
8,208667	0,5	2,801350
8,217000	0,5	2,668550
8,225333	0,5	2,568350
8,233667	0,5	2,492500
8,242000	0,5	2,431500
8,250333	0,5	2,381100
8,258667	0,5	2,333900
8,267000	0,5	2,295450
8,275333	0,5	2,269350
8,283667	0,5	2,261650
8,292000	0,5	2,249800
8,300333	0,5	2,243750
8,308667	0,5	2,235300
8,317000	0,5	2,228300
8,325333	0,5	2,221050
8,333667	0,5	2,217450
8,342000	0,5	2,216150
8,350333	0,5	2,228100
8,358667	0,5	2,242550
8,367000	0,5	2,288200
8,375333	0,5	2,333050
8,383667	0,5	2,355100
8,392000	0,5	2,328600
8,400333	0,5	2,252300
8,408667	0,5	2,149950
8,417000	0,5	2,051300
8,425333	0,5	1,976050
8,433667	0,5	1,924950
8,442000	0,5	1,876200
8,450333	0,5	1,833600
8,458667	0,5	1,802750
8,467000	0,5	1,777300
8,475333	0,5	1,755300
8,483667	0,5	1,738950
8,492000	0,5	1,727400
8,500333	0,5	1,714800
8,508667	0,5	1,701700
8,517000	0,5	1,700850
8,525333	0,5	1,688550
8,533667	0,5	1,679550
8,542000	0,5	1,675900
8,550333	0,5	1,660550
8,558667	0,5	1,648200
8,567000	0,5	1,638900
8,575333	0,5	1,629350
8,583667	0,5	1,620750
8,592000	0,5	1,623700
8,600333	0,5	1,626450
8,608667	0,5	1,633500
8,617000	0,5	1,633900
8,625333	0,5	1,646250
8,633667	0,5	1,650000
8,642000	0,5	1,657800
8,650333	0,5	1,662750
8,658667	0,5	1,668200
8,667000	0,5	1,676300
8,675333	0,5	1,688450
8,683667	0,5	1,703750
8,692000	0,5	1,732850
8,700333	0,5	1,766450
8,708667	0,5	1,799000
8,717000	0,5	1,830200
8,725333	0,5	1,859650
8,733667	0,5	1,865150
8,742000	0,5	1,869800
8,750333	0,5	1,857800
8,758667	0,5	1,836650
8,767000	0,5	1,816000
8,775333	0,5	1,797850
8,783667	0,5	1,788550
8,792000	0,5	1,780100
8,800333	0,5	1,771650
8,808667	0,5	1,770850
8,817000	0,5	1,768850
8,825333	0,5	1,772550
8,833667	0,5	1,773500
8,842000	0,5	1,777900
8,850333	0,5	1,786650
8,858667	0,5	1,797650
8,867000	0,5	1,815500
8,875333	0,5	1,831250
8,883667	0,5	1,839900
8,892000	0,5	1,850450
8,900333	0,5	1,848400
8,908667	0,5	1,841250
8,917000	0,5	1,821950
8,925333	0,5	1,821250
8,933667	0,5	1,817600
8,942000	0,5	1,816000
8,950333	0,5	1,825300
8,958667	0,5	1,832450
8,967000	0,5	1,848050
8,975333	0,5	1,859400
8,983667	0,5	1,883500
8,992000	0,5	1,917800
9,000333	0,5	1,969650
9,008667	0,5	2,051200
9,017000	0,5	2,155000
9,025333	0,5	2,268950
9,033667	0,5	2,353750
9,042000	0,5	2,377750
9,050333	0,5	2,344300
9,058667	0,5	2,255450
9,067000	0,5	2,147400
9,075333	0,5	2,034200
9,083667	0,5	1,948450
9,092000	0,5	1,876600
9,100333	0,5	1,830300
9,108667	0,5	1,791500
9,117000	0,5	1,762900
9,125333	0,5	1,737600
9,133667	0,5	1,723850
9,142000	0,5	1,711000
9,150333	0,5	1,698900
9,158667	0,5	1,695500
9,167000	0,5	1,693000
9,175333	0,5	1,696400
9,183667	0,5	1,703700
9,192000	0,5	1,698250
9,200333	0,5	1,691900
9,208667	0,5	1,680900
9,217000	0,5	1,670550
9,225333	0,5	1,662150
9,233667	0,5	1,651600
9,242000	0,5	1,646000
9,250333	0,5	1,647500
9,258667	0,5	1,660250
9,267000	0,5	1,683300
9,275333	0,5	1,711400
9,283667	0,5	1,751100
9,292000	0,5	1,787600
9,300333	0,5	1,806050
9,308667	0,5	1,813300
9,317000	0,5	1,797100
9,325333	0,5	1,772300
9,333667	0,5	1,741850
9,342000	0,5	1,713250
9,350333	0,5	1,682650
9,358667	0,5	1,665450
9,367000	0,5	1,648700
9,375333	0,5	1,639350
9,383667	0,5	1,625300
9,392000	0,5	1,603000
9,400333	0,5	1,590850
9,408667	0,5	1,582500
9,417000	0,5	1,576600
9,425333	0,5	1,572000
9,433667	0,5	1,585650
9,442000	0,5	1,589400
9,450333	0,5	1,605350
9,458667	0,5	1,629450
9,467000	0,5	1,660300
9,475333	0,5	1,672500
9,483667	0,5	1,676650
9,492000	0,5	1,666500
9,500333	0,5	1,649850
9,508667	0,5	1,639350
9,517000	0,5	1,637900
9,525333	0,5	1,645750
9,533667	0,5	1,651100
9,542000	0,5	1,650500
9,550333	0,5	1,632500
9,558667	0,5	1,611800
9,567000	0,5	1,574800
9,575333	0,5	1,539950
9,583667	0,5	1,503750
9,592000	0,5	1,471050
9,600333	0,5	1,455450
9,608667	0,5	1,437000
9,617000	0,5	1,430850
9,625333	0,5	1,433550
9,633667	0,5	1,433500
9,642000	0,5	1,446300
9,650333	0,5	1,442050
9,658667	0,5	1,454900
9,667000	0,5	1,459800
9,675333	0,5	1,466500
9,683667	0,5	1,467050
9,692000	0,5	1,462650
9,700333	0,5	1,464950
9,708667	0,5	1,458800
9,717000	0,5	1,450550
9,725333	0,5	1,449150
9,733667	0,5	1,455550
9,742000	0,5	1,456800
9,750333	0,5	1,480700
9,758667	0,5	1,507650
9,767000	0,5	1,553650
9,775333	0,5	1,601350
9,783667	0,5	1,644150
9,792000	0,5	1,666250
9,800333	0,5	1,677200
9,808667	0,5	1,663900
9,817000	0,5	1,636100
9,825333	0,5	1,608600
9,833667	0,5	1,583000
9,842000	0,5	1,570250
9,850333	0,5	1,567300
9,858667	0,5	1,549650
9,867000	0,5	1,542450
9,875333	0,5	1,526900
9,883667	0,5	1,505200
9,892000	0,5	1,475900
9,900333	0,5	1,453850
9,908667	0,5	1,431950
9,917000	0,5	1,424500
9,925333	0,5	1,433250
9,933667	0,5	1,438050
9,942000	0,5	1,463100
9,950333	0,5	1,492100
9,958667	0,5	1,535700
9,967000	0,5	1,576050
9,975333	0,5	1,609800
9,983667	0,5	1,636900
9,992000	0,5	1,643800
10,000333	0,5	1,650700
10,008667	0,5	1,641800
10,017000	0,5	1,641550
10,025333	0,5	1,647150
10,033667	0,5	1,651250
10,042000	0,5	1,658000
10,050333	0,5	1,667350
10,058667	0,5	1,687150
10,067000	0,5	1,700400
10,075333	0,5	1,689650
10,083667	0,5	1,679750
10,092000	0,5	1,651050
10,100333	0,5	1,613400
10,108667	0,5	1,560800
10,117000	0,5	1,512850
10,125333	0,5	1,469950
10,133667	0,5	1,433250
10,142000	0,5	1,401750
10,150333	0,5	1,383450
10,158667	0,5	1,363650
10,167000	0,5	1,361750
10,175333	0,5	1,344350
10,183667	0,5	1,342750
10,192000	0,5	1,334850
10,200333	0,5	1,336700
10,208667	0,5	1,341400
10,217000	0,5	1,349800
10,225333	0,5	1,344750
10,233667	0,5	1,344850
10,242000	0,5	1,338600
10,250333	0,5	1,327000
10,258667	0,5	1,319350
10,267000	0,5	1,321950
10,275333	0,5	1,324550
10,283667	0,5	1,332150
10,292000	0,5	1,352250
10,300333	0,5	1,376650
10,308667	0,5	1,408050
10,317000	0,5	1,453500
10,325333	0,5	1,513850
10,333667	0,5	1,572700
10,342000	0,5	1,643250
10,350333	0,5	1,698900
10,358667	0,5	1,753900
10,367000	0,5	1,788800
10,375333	0,5	1,806900
10,383667	0,5	1,789450
10,392000	0,5	1,760600
10,400333	0,5	1,714750
10,408667	0,5	1,656650
10,417000	0,5	1,591700
10,425333	0,5	1,529250
10,433667	0,5	1,475750
10,442000	0,5	1,433500
10,450333	0,5	1,398950
10,458667	0,5	1,379100
10,467000	0,5	1,362650
10,475333	0,5	1,335850
10,483667	0,5	1,314500
10,492000	0,5	1,285600
10,500333	0,5	1,260900
10,508667	0,5	1,245200
10,517000	0,5	1,242100
10,525333	0,5	1,230150
10,533667	0,5	1,230350
10,542000	0,5	1,223150
10,550333	0,5	1,217450
10,558667	0,5	1,211050
10,567000	0,5	1,214250
10,575333	0,5	1,212150
10,583667	0,5	1,205200
10,592000	0,5	1,201950
10,600333	0,5	1,196100
10,608667	0,5	1,195750
10,617000	0,5	1,200300
10,625333	0,5	1,207600
10,633667	0,5	1,209800
10,642000	0,5	1,225250
10,650333	0,5	1,248950
10,658667	0,5	1,288900
10,667000	0,5	1,310600
10,675333	0,5	1,335300
10,683667	0,5	1,345300
10,692000	0,5	1,333600
10,700333	0,5	1,311700
10,708667	0,5	1,275850
10,717000	0,5	1,231050
10,725333	0,5	1,186450
10,733667	0,5	1,135350
10,742000	0,5	1,094600
10,750333	0,5	1,062250
10,758667	0,5	1,055400
10,767000	0,5	1,050550
10,775333	0,5	1,058350
10,783667	0,5	1,067000
10,792000	0,5	1,082050
10,800333	0,5	1,104000
10,808667	0,5	1,127600
10,817000	0,5	1,155250
10,825333	0,5	1,174200
10,833667	0,5	1,193550
10,842000	0,5	1,202500
10,850333	0,5	1,206900
10,858667	0,5	1,217600
10,867000	0,5	1,209950
10,875333	0,5	1,204900
10,883667	0,5	1,205850
10,892000	0,5	1,191250
10,900333	0,5	1,188200
10,908667	0,5	1,181500
10,917000	0,5	1,188700
10,925333	0,5	1,188000
10,933667	0,5	1,193250
10,942000	0,5	1,209550
10,950333	0,5	1,239350
10,958667	0,5	1,263550
10,967000	0,5	1,275400
10,975333	0,5	1,283950
10,983667	0,5	1,285550
10,992000	0,5	1,270750
11,000333	0,5	1,247900
11,008667	0,5	1,238550
11,017000	0,5	1,205750
11,025333	0,5	1,195350
11,033667	0,5	1,187300
11,042000	0,5	1,170650
11,050333	0,5	1,165000
11,058667	0,5	1,160000
11,067000	0,5	1,145050
11,075333	0,5	1,135800
11,083667	0,5	1,121950
11,092000	0,5	1,113250
11,100333	0,5	1,112400
11,108667	0,5	1,100350
11,117000	0,5	1,104150
11,125333	0,5	1,096050
11,133667	0,5	1,101450
11,142000	0,5	1,103000
11,150333	0,5	1,106750
11,158667	0,5	1,110650
11,167000	0,5	1,125600
11,175333	0,5	1,131350
11,183667	0,5	1,158450
11,192000	0,5	1,180350
11,200333	0,5	1,227100
11,208667	0,5	1,277000
11,217000	0,5	1,337700
11,225333	0,5	1,404850
11,233667	0,5	1,467400
11,242000	0,5	1,528400
11,250333	0,5	1,560350
11,258667	0,5	1,552800
11,267000	0,5	1,530050
11,275333	0,5	1,484600
11,283667	0,5	1,433550
11,292000	0,5	1,388650
11,300333	0,5	1,342150
11,308667	0,5	1,315400
11,317000	0,5	1,286950
11,325333	0,5	1,276950
11,333667	0,5	1,260550
11,342000	0,5	1,245250
11,350333	0,5	1,241100
11,358667	0,5	1,246600
11,367000	0,5	1,246900
11,375333	0,5	1,252200
11,383667	0,5	1,270200
11,392000	0,5	1,297150
11,400333	0,5	1,331050
11,408667	0,5	1,374550
11,417000	0,5	1,438900
11,425333	0,5	1,523250
11,433667	0,5	1,653700
11,442000	0,5	1,826200
11,450333	0,5	2,065500
11,458667	0,5	2,363850
11,467000	0,5	2,742550
11,475333	0,5	3,178500
11,483667	0,5	3,644200
11,492000	0,5	4,102600
11,500333	0,5	4,500250
11,508667	0,5	4,777550
11,517000	0,5	4,911450
11,525333	0,5	4,881250
11,533667	0,5	4,718050
11,542000	0,5	4,440650
11,550333	0,5	4,100950
11,558667	0,5	3,730050
11,567000	0,5	3,379850
11,575333	0,5	3,063850
11,583667	0,5	2,818850
11,592000	0,5	2,650100
11,600333	0,5	2,545550
11,608667	0,5	2,498150
11,617000	0,5	2,488850
11,625333	0,5	2,495000
11,633667	0,5	2,485750
11,642000	0,5	2,471950
11,650333	0,5	2,422950
11,658667	0,5	2,348550
11,667000	0,5	2,248850
11,675333	0,5	2,122650
11,683667	0,5	1,987200
11,692000	0,5	1,862750
11,700333	0,5	1,731700
11,708667	0,5	1,621600
11,717000	0,5	1,525850
11,725333	0,5	1,441500
11,733667	0,5	1,378450
11,742000	0,5	1,329000
11,750333	0,5	1,289050
11,758667	0,5	1,259300
11,767000	0,5	1,239400
11,775333	0,5	1,215850
11,783667	0,5	1,205800
11,792000	0,5	1,193200
11,800333	0,5	1,182450
11,808667	0,5	1,175300
11,817000	0,5	1,159300
11,825333	0,5	1,151700
11,833667	0,5	1,153500
11,842000	0,5	1,143900
11,850333	0,5	1,140000
11,858667	0,5	1,144300
11,867000	0,5	1,139850
11,875333	0,5	1,141200
11,883667	0,5	1,140150
11,892000	0,5	1,137950
11,900333	0,5	1,137450
11,908667	0,5	1,141950
11,917000	0,5	1,144700
11,925333	0,5	1,140150
11,933667	0,5	1,145900
11,942000	0,5	1,150150
11,950333	0,5	1,149800
11,958667	0,5	1,152600
11,967000	0,5	1,152050
11,975333	0,5	1,157400
11,983667	0,5	1,169950
11,992000	0,5	1,187800
12,000333	0,5	1,196450
12,008667	0,5	1,219150
12,017000	0,5	1,232150
12,025333	0,5	1,246800
12,033667	0,5	1,253800
12,042000	0,5	1,258950
12,050333	0,5	1,260550
12,058667	0,5	1,269050
12,067000	0,5	1,267050
12,075333	0,5	1,260900
12,083667	0,5	1,269100
12,092000	0,5	1,275000
12,100333	0,5	1,279500
12,108667	0,5	1,289950
12,117000	0,5	1,296200
12,125333	0,5	1,313450
12,133667	0,5	1,327850
12,142000	0,5	1,346150
12,150333	0,5	1,360050
12,158667	0,5	1,385200
12,167000	0,5	1,427950
12,175333	0,5	1,475600
12,183667	0,5	1,547550
12,192000	0,5	1,629900
12,200333	0,5	1,716600
12,208667	0,5	1,797200
12,217000	0,5	1,867350
12,225333	0,5	1,906700
12,233667	0,5	1,940600
12,242000	0,5	1,942950
12,250333	0,5	1,937050
12,258667	0,5	1,933850
12,267000	0,5	1,931000
12,275333	0,5	1,942450
12,283667	0,5	1,934050
12,292000	0,5	1,927700
12,300333	0,5	1,928050
12,308667	0,5	1,926500
12,317000	0,5	1,915600
12,325333	0,5	1,911800
12,333667	0,5	1,901950
12,342000	0,5	1,889150
12,350333	0,5	1,853650
12,358667	0,5	1,811400
12,367000	0,5	1,740850
12,375333	0,5	1,685250
12,383667	0,5	1,633250
12,392000	0,5	1,602750
12,400333	0,5	1,579350
12,408667	0,5	1,572200
12,417000	0,5	1,576650
12,425333	0,5	1,588550
12,433667	0,5	1,578200
12,442000	0,5	1,566050
12,450333	0,5	1,535800
12,458667	0,5	1,509350
12,467000	0,5	1,471600
12,475333	0,5	1,436950
12,483667	0,5	1,389250
12,492000	0,5	1,342400
12,500333	0,5	1,307850
12,508667	0,5	1,262500
12,517000	0,5	1,216000
12,525333	0,5	1,182900
12,533667	0,5	1,150600
12,542000	0,5	1,122100
12,550333	0,5	1,092350
12,558667	0,5	1,062900
12,567000	0,5	1,056350
12,575333	0,5	1,041650
12,583667	0,5	1,040000
12,592000	0,5	1,024650
12,600333	0,5	1,025150
12,608667	0,5	1,014400
12,617000	0,5	1,012600
12,625333	0,5	1,010050
12,633667	0,5	1,002050
12,642000	0,5	0,988000
12,650333	0,5	0,982450
12,658667	0,5	0,970700
12,667000	0,5	0,951550
12,675333	0,5	0,955100
12,683667	0,5	0,940700
12,692000	0,5	0,940200
12,700333	0,5	0,918850
12,708667	0,5	0,911300
12,717000	0,5	0,911000
12,725333	0,5	0,908800
12,733667	0,5	0,900850
12,742000	0,5	0,901100
12,750333	0,5	0,891250
12,758667	0,5	0,891700
12,767000	0,5	0,884400
12,775333	0,5	0,875950
12,783667	0,5	0,875400
12,792000	0,5	0,887500
12,800333	0,5	0,917700
12,808667	0,5	0,955150
12,817000	0,5	1,004600
12,825333	0,5	1,065250
12,833667	0,5	1,116700
12,842000	0,5	1,145900
12,850333	0,5	1,129500
12,858667	0,5	1,104550
12,867000	0,5	1,064900
12,875333	0,5	1,013000
12,883667	0,5	0,974950
12,892000	0,5	0,934200
12,900333	0,5	0,903650
12,908667	0,5	0,857150
12,917000	0,5	0,803550
12,925333	0,5	0,749200
12,933667	0,5	0,689500
12,942000	0,5	0,638500
12,950333	0,5	0,588100
12,958667	0,5	0,539600
12,967000	0,5	0,506650
12,975333	0,5	0,472500
12,983667	0,5	0,375350
12,992000	0,5	0,274600
13,000333	0,5	0,103800
13,008667	0,5	-0,202500
13,017000	0,5	-0,624900
13,025333	0,5	-0,959650
13,033667	0,5	-1,256550
13,042000	0,5	-1,525150
13,050333	0,5	-1,717650
13,058667	0,5	-1,844750
13,067000	0,5	-1,942200
13,075333	0,5	-2,020150
13,083667	0,5	-2,076750
13,092000	0,5	-2,127250
13,100333	0,5	-2,173350
13,108667	0,5	-2,209250
13,117000	0,5	-2,250500
13,125333	0,5	-2,282850
13,133667	0,5	-2,330500
13,142000	0,5	-2,392700
13,150333	0,5	-2,443900
13,158667	0,5	-2,494250
13,167000	0,5	-2,535850
13,175333	0,5	-2,583850
13,183667	0,5	-2,627550
13,192000	0,5	-2,669100
13,200333	0,5	-2,690900
13,208667	0,5	-2,716900
13,217000	0,5	-2,737100
13,225333	0,5	-2,756350
13,233667	0,5	-2,765400
13,242000	0,5	-2,769600
13,250333	0,5	-2,777800
13,258667	0,5	-2,763400
13,267000	0,5	-2,763750
13,275333	0,5	-2,755250
13,283667	0,5	-2,740300
13,292000	0,5	-2,741650
13,300333	0,5	-2,707050
13,308667	0,5	-2,673800
13,317000	0,5	-2,641100
13,325333	0,5	-2,605500
13,333667	0,5	-2,583450
13,342000	0,5	-2,554300
13,350333	0,5	-2,539450
13,358667	0,5	-2,538850
13,367000	0,5	-2,543050
13,375333	0,5	-2,559600
13,383667	0,5	-2,566500
13,392000	0,5	-2,569400
13,400333	0,5	-2,598450
13,408667	0,5	-2,587000
13,417000	0,5	-2,584750
13,425333	0,5	-2,581050
13,433667	0,5	-2,563800
13,442000	0,5	-2,556450
13,450333	0,5	-2,525850
13,458667	0,5	-2,489950
13,467000	0,5	-2,466800
13,475333	0,5	-2,443450
13,483667	0,5	-2,418100
13,492000	0,5	-2,400050
13,500333	0,5	-2,401500
13,508667	0,5	-2,395250
13,517000	0,5	-2,397650
13,525333	0,5	-2,407550
13,533667	0,5	-2,412100
13,542000	0,5	-2,429900
13,550333	0,5	-2,448150
13,558667	0,5	-2,453500
13,567000	0,5	-2,462500
13,575333	0,5	-2,471250
13,583667	0,5	-2,482650
13,592000	0,5	-2,494650
13,600333	0,5	-2,479050
13,608667	0,5	-2,470450
13,617000	0,5	-2,452850
13,625333	0,5	-2,442700
13,633667	0,5	-2,428100
13,642000	0,5	-2,419500
13,650333	0,5	-2,407300
13,658667	0,5	-2,396350
13,667000	0,5	-2,388550
13,675333	0,5	-2,372200
13,683667	0,5	-2,358650
13,692000	0,5	-2,346400
13,700333	0,5	-2,326550
13,708667	0,5	-2,296200
13,717000	0,5	-2,285550
13,725333	0,5	-2,252850
13,733667	0,5	-2,244000
13,742000	0,5	-2,206400
13,750333	0,5	-2,167350
13,758667	0,5	-2,131900
13,767000	0,5	-2,099350
13,775333	0,5	-2,056150
13,783667	0,5	-2,035950
13,792000	0,5	-2,005850
13,800333	0,5	-1,988350
13,808667	0,5	-1,977750
13,817000	0,5	-1,967750
13,825333	0,5	-1,962850
13,833667	0,5	-1,959000
13,842000	0,5	-1,959100
13,850333	0,5	-1,948150
13,858667	0,5	-1,934850
13,867000	0,5	-1,919750
13,875333	0,5	-1,912700
13,883667	0,5	-1,901600
13,892000	0,5	-1,884300
13,900333	0,5	-1,855500
13,908667	0,5	-1,835250
13,917000	0,5	-1,810100
13,925333	0,5	-1,778200
13,933667	0,5	-1,743200
13,942000	0,5	-1,703100
13,950333	0,5	-1,658100
13,958667	0,5	-1,605100
13,967000	0,5	-1,534300
13,975333	0,5	-1,445750
13,983667	0,5	-1,365000
13,992000	0,5	-1,274000
14,000333	0,5	-1,169450
14,008667	0,5	-1,097800
14,017000	0,5	-1,035700
14,025333	0,5	-0,994600
14,033667	0,5	-0,954800
14,042000	0,5	-0,921900
14,050333	0,5	-0,911700
14,058667	0,5	-0,909100
14,067000	0,5	-0,904000
14,075333	0,5	-0,891350
14,083667	0,5	-0,868350
14,092000	0,5	-0,826750
14,100333	0,5	-0,765350
14,108667	0,5	-0,682100
14,117000	0,5	-0,580950
14,125333	0,5	-0,464150
14,133667	0,5	-0,371700
14,142000	0,5	-0,282000
14,150333	0,5	-0,216400
14,158667	0,5	-0,194000
14,167000	0,5	-0,192950
14,175333	0,5	-0,225500
14,183667	0,5	-0,236650
14,192000	0,5	-0,255200
14,200333	0,5	-0,264500
14,208667	0,5	-0,266550
14,217000	0,5	-0,260400
14,225333	0,5	-0,262550
14,233667	0,5	-0,249050
14,242000	0,5	-0,233150
14,250333	0,5	-0,212450
14,258667	0,5	-0,209150
14,267000	0,5	-0,191000
14,275333	0,5	-0,175200
14,283667	0,5	-0,174800
14,292000	0,5	-0,147300
14,300333	0,5	-0,132550
14,308667	0,5	-0,121250
14,317000	0,5	-0,117300
14,325333	0,5	-0,128900
14,333667	0,5	-0,109250
14,342000	0,5	-0,097700
14,350333	0,5	-0,081150
14,358667	0,5	-0,058150
14,367000	0,5	-0,038350
14,375333	0,5	-0,016650
14,383667	0,5	0,000500
14,392000	0,5	0,021150
14,400333	0,5	0,026050
14,408667	0,5	0,028200
14,417000	0,5	0,030100
14,425333	0,5	0,016850
14,433667	0,5	-0,007950
14,442000	0,5	-0,013450
14,450333	0,5	-0,031550
14,458667	0,5	-0,044450
14,467000	0,5	-0,065400
14,475333	0,5	-0,088750
14,483667	0,5	-0,081450
14,492000	0,5	-0,090250
14,500333	0,5	-0,094300
14,508667	0,5	-0,089100
14,517000	0,5	-0,089450
14,525333	0,5	-0,083600
14,533667	0,5	-0,081050
14,542000	0,5	-0,088150
14,550333	0,5	-0,082000
14,558667	0,5	-0,076300
14,567000	0,5	-0,059550
14,575333	0,5	-0,042150
14,583667	0,5	0,017050
14,592000	0,5	0,087200
14,600333	0,5	0,192600
14,608667	0,5	0,299100
14,617000	0,5	0,384850
14,625333	0,5	0,445750
14,633667	0,5	0,475800
14,642000	0,5	0,433850
14,650333	0,5	0,378600
14,658667	0,5	0,310100
14,667000	0,5	0,254600
14,675333	0,5	0,234400
14,683667	0,5	0,243800
14,692000	0,5	0,299550
14,700333	0,5	0,373850
14,708667	0,5	0,475250
14,717000	0,5	0,544550
14,725333	0,5	0,560050
14,733667	0,5	0,548050
14,742000	0,5	0,483200
14,750333	0,5	0,390600
14,758667	0,5	0,301200
14,767000	0,5	0,212450
14,775333	0,5	0,171600
14,783667	0,5	0,130000
14,792000	0,5	0,107850
14,800333	0,5	0,074250
14,808667	0,5	0,066250
14,817000	0,5	0,056150
14,825333	0,5	0,051500
14,833667	0,5	0,050300
14,842000	0,5	0,060350
14,850333	0,5	0,059800
14,858667	0,5	0,068800
14,867000	0,5	0,060200
14,875333	0,5	0,047700
14,883667	0,5	0,044500
14,892000	0,5	0,022600
14,900333	0,5	0,002200
14,908667	0,5	-0,027750
14,917000	0,5	-0,036500
14,925333	0,5	-0,043400
14,933667	0,5	-0,031100
14,942000	0,5	-0,051950
14,950333	0,5	-0,064000
14,958667	0,5	-0,087700
14,967000	0,5	-0,098700
14,975333	0,5	-0,117350
14,983667	0,5	-0,123150
14,992000	0,5	-0,139400
15,000333	0,5	-0,149700
15,008667	0,5	-0,146350
15,017000	0,5	-0,164300
15,025333	0,5	-0,162850
15,033667	0,5	-0,162150
15,042000	0,5	-0,174200
15,050333	0,5	-0,183300
15,058667	0,5	-0,203300
15,067000	0,5	-0,212750
15,075333	0,5	-0,191850
15,083667	0,5	-0,177650
15,092000	0,5	-0,145450
15,100333	0,5	-0,091250
15,108667	0,5	-0,004950
15,117000	0,5	0,096100
15,125333	0,5	0,229800
15,133667	0,5	0,340050
15,142000	0,5	0,409150
15,150333	0,5	0,439350
15,158667	0,5	0,417350
15,167000	0,5	0,348850
15,175333	0,5	0,317100
15,183667	0,5	0,312550
15,192000	0,5	0,340950
15,200333	0,5	0,409250
15,208667	0,5	0,497850
15,217000	0,5	0,588250
15,225333	0,5	0,626000
15,233667	0,5	0,611900
15,242000	0,5	0,545150
15,250333	0,5	0,461450
15,258667	0,5	0,372950
15,267000	0,5	0,288250
15,275333	0,5	0,233800
15,283667	0,5	0,193100
15,292000	0,5	0,163150
15,300333	0,5	0,152650
15,308667	0,5	0,112250
15,317000	0,5	0,094500
15,325333	0,5	0,069200
15,333667	0,5	0,041100
15,342000	0,5	0,018500
15,350333	0,5	-0,023600
15,358667	0,5	-0,035750
15,367000	0,5	-0,036150
15,375333	0,5	-0,035800
15,383667	0,5	-0,038350
15,392000	0,5	-0,038750
15,400333	0,5	-0,048350
15,408667	0,5	-0,064250
15,417000	0,5	-0,085850
15,425333	0,5	-0,106100
15,433667	0,5	-0,144800
15,442000	0,5	-0,163200
15,450333	0,5	-0,182800
15,458667	0,5	-0,215400
15,467000	0,5	-0,227500
15,475333	0,5	-0,243800
15,483667	0,5	-0,262200
15,492000	0,5	-0,282300
15,500333	0,5	-0,315450
15,508667	0,5	-0,322300
15,517000	0,5	-0,323400
15,525333	0,5	-0,319200
15,533667	0,5	-0,328350
15,542000	0,5	-0,311500
15,550333	0,5	-0,285050
15,558667	0,5	-0,236200
15,567000	0,5	-0,146500
15,575333	0,5	-0,032700
15,583667	0,5	0,086950
15,592000	0,5	0,201100
15,600333	0,5	0,286450
15,608667	0,5	0,281000
15,617000	0,5	0,282550
15,625333	0,5	0,244900
15,633667	0,5	0,240350
15,642000	0,5	0,240650
15,650333	0,5	0,280200
15,658667	0,5	0,341450
15,667000	0,5	0,370900
15,675333	0,5	0,353750
15,683667	0,5	0,287450
15,692000	0,5	0,195800
15,700333	0,5	0,096200
15,708667	0,5	0,002750
15,717000	0,5	-0,071750
15,725333	0,5	-0,130600
15,733667	0,5	-0,182250
15,742000	0,5	-0,197100
15,750333	0,5	-0,219350
15,758667	0,5	-0,229100
15,767000	0,5	-0,220850
15,775333	0,5	-0,213350
15,783667	0,5	-0,212800
15,792000	0,5	-0,222850
15,800333	0,5	-0,241350
15,808667	0,5	-0,242750
15,817000	0,5	-0,262900
15,825333	0,5	-0,274350
15,833667	0,5	-0,298800
15,842000	0,5	-0,325150
15,850333	0,5	-0,351200
15,858667	0,5	-0,366000
15,867000	0,5	-0,380850
15,875333	0,5	-0,395950
15,883667	0,5	-0,402450
15,892000	0,5	-0,418450
15,900333	0,5	-0,433850
15,908667	0,5	-0,435950
15,917000	0,5	-0,438500
15,925333	0,5	-0,445650
15,933667	0,5	-0,460650
15,942000	0,5	-0,477000
15,950333	0,5	-0,464750
15,958667	0,5	-0,418400
15,967000	0,5	-0,337900
15,975333	0,5	-0,235050
15,983667	0,5	-0,097750
15,992000	0,5	0,027600
16,000333	0,5	0,127700
16,008667	0,5	0,195850
16,017000	0,5	0,209800
16,025333	0,5	0,208750
16,033667	0,5	0,228500
16,042000	0,5	0,254100
16,050333	0,5	0,276500
16,058667	0,5	0,299150
16,067000	0,5	0,266350
16,075333	0,5	0,184700
16,083667	0,5	0,074500
16,092000	0,5	-0,041700
16,100333	0,5	-0,140350
16,108667	0,5	-0,190800
16,117000	0,5	-0,239900
16,125333	0,5	-0,253250
16,133667	0,5	-0,268350
16,142000	0,5	-0,268950
16,150333	0,5	-0,263850
16,158667	0,5	-0,248400
16,167000	0,5	-0,243650
16,175333	0,5	-0,234800
16,183667	0,5	-0,227800
16,192000	0,5	-0,248400
16,200333	0,5	-0,268350
16,208667	0,5	-0,281850
16,217000	0,5	-0,308050
16,225333	0,5	-0,339050
16,233667	0,5	-0,389800
16,242000	0,5	-0,423500
16,250333	0,5	-0,437900
16,258667	0,5	-0,467350
16,267000	0,5	-0,488650
16,275333	0,5	-0,517200
16,283667	0,5	-0,529050
16,292000	0,5	-0,549850
16,300333	0,5	-0,548800
16,308667	0,5	-0,551750
16,317000	0,5	-0,538750
16,325333	0,5	-0,487850
16,333667	0,5	-0,394100
16,342000	0,5	-0,306300
16,350333	0,5	-0,164550
16,358667	0,5	-0,034400
16,367000	0,5	0,057250
16,375333	0,5	0,100300
16,383667	0,5	0,093400
16,392000	0,5	0,110050
16,400333	0,5	0,114500
16,408667	0,5	0,118300
16,417000	0,5	0,096250
16,425333	0,5	0,060050
16,433667	0,5	-0,017500
16,442000	0,5	-0,102300
16,450333	0,5	-0,175350
16,458667	0,5	-0,230250
16,467000	0,5	-0,267850
16,475333	0,5	-0,271100
16,483667	0,5	-0,274550
16,492000	0,5	-0,269200
16,500333	0,5	-0,243500
16,508667	0,5	-0,221550
16,517000	0,5	-0,229500
16,525333	0,5	-0,224000
16,533667	0,5	-0,223850
16,542000	0,5	-0,212300
16,550333	0,5	-0,210800
16,558667	0,5	-0,230650
16,567000	0,5	-0,244100
16,575333	0,5	-0,266350
16,583667	0,5	-0,291100
16,592000	0,5	-0,309100
16,600333	0,5	-0,316050
16,608667	0,5	-0,329100
16,617000	0,5	-0,343900
16,625333	0,5	-0,349150
16,633667	0,5	-0,357300
16,642000	0,5	-0,351450
16,650333	0,5	-0,326900
16,658667	0,5	-0,283350
16,667000	0,5	-0,227800
16,675333	0,5	-0,157150
16,683667	0,5	-0,076150
16,692000	0,5	0,009350
16,700333	0,5	0,055350
16,708667	0,5	0,077650
16,717000	0,5	0,079600
16,725333	0,5	0,073550
16,733667	0,5	0,060300
16,742000	0,5	0,040400
16,750333	0,5	-0,026250
16,758667	0,5	-0,105150
16,767000	0,5	-0,190800
16,775333	0,5	-0,250800
16,783667	0,5	-0,323150
16,792000	0,5	-0,349400
16,800333	0,5	-0,373150
16,808667	0,5	-0,392250
16,817000	0,5	-0,417300
16,825333	0,5	-0,449200
16,833667	0,5	-0,453200
16,842000	0,5	-0,456050
16,850333	0,5	-0,466550
16,858667	0,5	-0,477350
16,867000	0,5	-0,486800
16,875333	0,5	-0,506950
16,883667	0,5	-0,525650
16,892000	0,5	-0,538350
16,900333	0,5	-0,559700
16,908667	0,5	-0,579750
16,917000	0,5	-0,578250
16,925333	0,5	-0,591700
16,933667	0,5	-0,600150
16,942000	0,5	-0,563100
16,950333	0,5	-0,528750
16,958667	0,5	-0,478300
16,967000	0,5	-0,409350
16,975333	0,5	-0,326350
16,983667	0,5	-0,205600
16,992000	0,5	-0,105200
17,000333	0,5	-0,019000
17,008667	0,5	0,053150
17,017000	0,5	0,127100
17,025333	0,5	0,191100
17,033667	0,5	0,243300
17,042000	0,5	0,303850
17,050333	0,5	0,355900
17,058667	0,5	0,439400
17,067000	0,5	0,536450
17,075333	0,5	0,648350
17,083667	0,5	0,779200
17,092000	0,5	0,918850
17,100333	0,5	1,042450
17,108667	0,5	1,160150
17,117000	0,5	1,231600
17,125333	0,5	1,314000
17,133667	0,5	1,386950
17,142000	0,5	1,447100
17,150333	0,5	1,486500
17,158667	0,5	1,505750
17,167000	0,5	1,485600
17,175333	0,5	1,440450
17,183667	0,5	1,356150
17,192000	0,5	1,240700
17,200333	0,5	1,110750
17,208667	0,5	0,961350
17,217000	0,5	0,815800
17,225333	0,5	0,659650
17,233667	0,5	0,560900
17,242000	0,5	0,483350
17,250333	0,5	0,436550
17,258667	0,5	0,400350
17,267000	0,5	0,375550
17,275333	0,5	0,354450
17,283667	0,5	0,344550
17,292000	0,5	0,313600
17,300333	0,5	0,283800
17,308667	0,5	0,237700
17,317000	0,5	0,182450
17,325333	0,5	0,117400
17,333667	0,5	0,067400
17,342000	0,5	0,017100
17,350333	0,5	-0,000550
17,358667	0,5	0,017000
17,367000	0,5	0,027950
17,375333	0,5	0,054950
17,383667	0,5	0,110950
17,392000	0,5	0,156600
17,400333	0,5	0,203550
17,408667	0,5	0,230700
17,417000	0,5	0,258550
17,425333	0,5	0,309000
17,433667	0,5	0,330500
17,442000	0,5	0,347900
17,450333	0,5	0,340950
17,458667	0,5	0,323150
17,467000	0,5	0,275700
17,475333	0,5	0,234150
17,483667	0,5	0,187500
17,492000	0,5	0,147550
17,500333	0,5	0,133450
17,508667	0,5	0,132200
17,517000	0,5	0,108850
17,525333	0,5	0,102950
17,533667	0,5	0,083950
17,542000	0,5	0,054100
17,550333	0,5	-0,006550
17,558667	0,5	-0,101400
17,567000	0,5	-0,162300
17,575333	0,5	-0,233050
17,583667	0,5	-0,292750
17,592000	0,5	-0,352550
17,600333	0,5	-0,387700
17,608667	0,5	-0,437000
17,617000	0,5	-0,460050
17,625333	0,5	-0,491750
17,633667	0,5	-0,517650
17,642000	0,5	-0,549400
17,650333	0,5	-0,566000
17,658667	0,5	-0,592750
17,667000	0,5	-0,631250
17,675333	0,5	-0,622950
17,683667	0,5	-0,640150
17,692000	0,5	-0,646900
17,700333	0,5	-0,658000
17,708667	0,5	-0,668300
17,717000	0,5	-0,632650
17,725333	0,5	-0,585350
17,733667	0,5	-0,544400
17,742000	0,5	-0,481700
17,750333	0,5	-0,435300
17,758667	0,5	-0,392900
17,767000	0,5	-0,379600
17,775333	0,5	-0,371350
17,783667	0,5	-0,402550
17,792000	0,5	-0,444600
17,800333	0,5	-0,480650
17,808667	0,5	-0,526350
17,817000	0,5	-0,574150
17,825333	0,5	-0,580350
17,833667	0,5	-0,615100
17,842000	0,5	-0,647900
17,850333	0,5	-0,685400
17,858667	0,5	-0,715750
17,867000	0,5	-0,721100
17,875333	0,5	-0,736700
17,883667	0,5	-0,743550
17,892000	0,5	-0,749700
17,900333	0,5	-0,750000
17,908667	0,5	-0,739150
17,917000	0,5	-0,720600
17,925333	0,5	-0,705200
17,933667	0,5	-0,662000
17,942000	0,5	-0,609450
17,950333	0,5	-0,549900
17,958667	0,5	-0,516100
17,967000	0,5	-0,489150
17,975333	0,5	-0,488150
17,983667	0,5	-0,502500
17,992000	0,5	-0,554350
18,000333	0,5	-0,597200
18,008667	0,5	-0,640700
18,017000	0,5	-0,662650
18,025333	0,5	-0,681050
18,033667	0,5	-0,706300
18,042000	0,5	-0,729300
18,050333	0,5	-0,742350
18,058667	0,5	-0,752750
18,067000	0,5	-0,764700
18,075333	0,5	-0,772900
18,083667	0,5	-0,788700
18,092000	0,5	-0,773850
18,100333	0,5	-0,775700
18,108667	0,5	-0,769600
18,117000	0,5	-0,729450
18,125333	0,5	-0,690800
18,133667	0,5	-0,649300
18,142000	0,5	-0,625850
18,150333	0,5	-0,613950
18,158667	0,5	-0,593650
18,167000	0,5	-0,591700
18,175333	0,5	-0,616250
18,183667	0,5	-0,649150
18,192000	0,5	-0,680150
18,200333	0,5	-0,708750
18,208667	0,5	-0,735650
18,217000	0,5	-0,746800
18,225333	0,5	-0,762650
18,233667	0,5	-0,770200
18,242000	0,5	-0,777900
18,250333	0,5	-0,793000
18,258667	0,5	-0,802450
18,267000	0,5	-0,793950
18,275333	0,5	-0,795550
18,283667	0,5	-0,793950
18,292000	0,5	-0,805050
18,300333	0,5	-0,778750
18,308667	0,5	-0,747950
18,317000	0,5	-0,711000
18,325333	0,5	-0,698300
18,333667	0,5	-0,681650
18,342000	0,5	-0,693250
18,350333	0,5	-0,709550
18,358667	0,5	-0,731100
18,367000	0,5	-0,756400
18,375333	0,5	-0,781600
18,383667	0,5	-0,799300
18,392000	0,5	-0,811550
18,400333	0,5	-0,842000
18,408667	0,5	-0,832650
18,417000	0,5	-0,840500
18,425333	0,5	-0,850450
18,433667	0,5	-0,854200
18,442000	0,5	-0,882300
18,450333	0,5	-0,871150
18,458667	0,5	-0,860750
18,467000	0,5	-0,847050
18,475333	0,5	-0,838750
18,483667	0,5	-0,820150
18,492000	0,5	-0,813000
18,500333	0,5	-0,809350
18,508667	0,5	-0,815750
18,517000	0,5	-0,830300
18,525333	0,5	-0,860900
18,533667	0,5	-0,867250
18,542000	0,5	-0,896650
18,550333	0,5	-0,921750
18,558667	0,5	-0,932300
18,567000	0,5	-0,946000
18,575333	0,5	-0,966150
18,583667	0,5	-0,987750
18,592000	0,5	-1,013150
18,600333	0,5	-0,998600
18,608667	0,5	-1,004950
18,617000	0,5	-0,996350
18,625333	0,5	-0,981650
18,633667	0,5	-0,957700
18,642000	0,5	-0,935650
18,650333	0,5	-0,912350
18,658667	0,5	-0,898750
18,667000	0,5	-0,912050
18,675333	0,5	-0,920550
18,683667	0,5	-0,927200
18,692000	0,5	-0,958650
18,700333	0,5	-0,961400
18,708667	0,5	-0,947750
18,717000	0,5	-0,941650
18,725333	0,5	-0,946300
18,733667	0,5	-0,963950
18,742000	0,5	-0,946550
18,750333	0,5	-0,929350
18,758667	0,5	-0,901850
18,767000	0,5	-0,886250
18,775333	0,5	-0,859050
18,783667	0,5	-0,849400
18,792000	0,5	-0,841750
18,800333	0,5	-0,862150
18,808667	0,5	-0,881150
18,817000	0,5	-0,900300
18,825333	0,5	-0,923350
18,833667	0,5	-0,945750
18,842000	0,5	-0,991350
18,850333	0,5	-0,984250
18,858667	0,5	-0,995750
18,867000	0,5	-0,997550
18,875333	0,5	-1,006100
18,883667	0,5	-1,026300
18,892000	0,5	-1,013500
18,900333	0,5	-1,003550
18,908667	0,5	-1,016150
18,917000	0,5	-1,002500
18,925333	0,5	-1,015300
18,933667	0,5	-1,030500
18,942000	0,5	-1,061450
18,950333	0,5	-1,087650
18,958667	0,5	-1,112000
18,967000	0,5	-1,132150
18,975333	0,5	-1,133750
18,983667	0,5	-1,147750
18,992000	0,5	-1,169900
19,000333	0,5	-1,158650
19,008667	0,5	-1,162750
19,017000	0,5	-1,172100
19,025333	0,5	-1,184450
19,033667	0,5	-1,201550
19,042000	0,5	-1,191350
19,050333	0,5	-1,211800
19,058667	0,5	-1,207150
19,067000	0,5	-1,221750
19,075333	0,5	-1,220650
19,083667	0,5	-1,239550
19,092000	0,5	-1,240250
19,100333	0,5	-1,248050
19,108667	0,5	-1,258900
19,117000	0,5	-1,248650
19,125333	0,5	-1,248800
19,133667	0,5	-1,258600
19,142000	0,5	-1,246450
19,150333	0,5	-1,238500
19,158667	0,5	-1,245700
19,167000	0,5	-1,257600
19,175333	0,5	-1,283650
19,183667	0,5	-1,296400
19,192000	0,5	-1,292400
19,200333	0,5	-1,296600
19,208667	0,5	-1,309350
19,217000	0,5	-1,316300
19,225333	0,5	-1,336000
19,233667	0,5	-1,350750
19,242000	0,5	-1,380400
19,250333	0,5	-1,401700
19,258667	0,5	-1,429100
19,267000	0,5	-1,435900
19,275333	0,5	-1,458600
19,283667	0,5	-1,471650
19,292000	0,5	-1,477450
19,300333	0,5	-1,487250
19,308667	0,5	-1,498800
19,317000	0,5	-1,522400
19,325333	0,5	-1,553800
19,333667	0,5	-1,568400
19,342000	0,5	-1,565700
19,350333	0,5	-1,576300
19,358667	0,5	-1,578800
19,367000	0,5	-1,578550
19,375333	0,5	-1,598650
19,383667	0,5	-1,594850
19,392000	0,5	-1,592650
19,400333	0,5	-1,596050
19,408667	0,5	-1,588550
19,417000	0,5	-1,584200
19,425333	0,5	-1,600250
19,433667	0,5	-1,600300
19,442000	0,5	-1,599400
19,450333	0,5	-1,616300
19,458667	0,5	-1,627100
19,467000	0,5	-1,668600
19,475333	0,5	-1,665600
19,483667	0,5	-1,669800
19,492000	0,5	-1,668350
19,500333	0,5	-1,689400
19,508667	0,5	-1,705350
19,517000	0,5	-1,719900
19,525333	0,5	-1,736100
19,533667	0,5	-1,746450
19,542000	0,5	-1,759200
19,550333	0,5	-1,764000
19,558667	0,5	-1,775450
19,567000	0,5	-1,773550
19,575333	0,5	-1,812550
19,583667	0,5	-1,815800
19,592000	0,5	-1,817500
19,600333	0,5	-1,826100
19,608667	0,5	-1,847800
19,617000	0,5	-1,871900
19,625333	0,5	-1,863050
19,633667	0,5	-1,865250
19,642000	0,5	-1,865450
19,650333	0,5	-1,867000
19,658667	0,5	-1,862100
19,667000	0,5	-1,865200
19,675333	0,5	-1,861400
19,683667	0,5	-1,867950
19,692000	0,5	-1,868850
19,700333	0,5	-1,878350
19,708667	0,5	-1,876100
19,717000	0,5	-1,903550
19,725333	0,5	-1,918750
19,733667	0,5	-1,933300
19,742000	0,5	-1,949000
19,750333	0,5	-1,982650
19,758667	0,5	-2,007500
19,767000	0,5	-2,047950
19,775333	0,5	-2,051200
19,783667	0,5	-2,065300
19,792000	0,5	-2,084600
19,800333	0,5	-2,095400
19,808667	0,5	-2,114100
19,817000	0,5	-2,128350
19,825333	0,5	-2,142600
19,833667	0,5	-2,144800
19,842000	0,5	-2,172700
19,850333	0,5	-2,184850
19,858667	0,5	-2,183650
19,867000	0,5	-2,195250
19,875333	0,5	-2,198400
19,883667	0,5	-2,195900
19,892000	0,5	-2,210550
19,900333	0,5	-2,227100
19,908667	0,5	-2,258400
19,917000	0,5	-2,265700
19,925333	0,5	-2,266800
19,933667	0,5	-2,273450
19,942000	0,5	-2,275800
19,950333	0,5	-2,284100
19,958667	0,5	-2,284750
19,967000	0,5	-2,290250
19,975333	0,5	-2,299050
19,983667	0,5	-2,310000
19,992000	0,5	-2,326500
20,000333	0,5	-2,343650
20,008667	0,5	-2,350200
20,017000	0,5	-2,377450
20,025333	0,5	-2,381250
20,033667	0,5	-2,401250
20,042000	0,5	-2,417350
20,050333	0,5	-2,455200
20,058667	0,5	-2,487250
20,067000	0,5	-2,498500
20,075333	0,5	-2,498650
20,083667	0,5	-2,521650
20,092000	0,5	-2,541250
20,100333	0,5	-2,556800
20,108667	0,5	-2,573450
20,117000	0,5	-2,585700
20,125333	0,5	-2,603350
20,133667	0,5	-2,619650
20,142000	0,5	-2,629100
20,150333	0,5	-2,622700
20,158667	0,5	-2,644100
20,167000	0,5	-2,639000
20,175333	0,5	-2,638900
20,183667	0,5	-2,640050
20,192000	0,5	-2,656050
20,200333	0,5	-2,677900
20,208667	0,5	-2,704950
20,217000	0,5	-2,692900
20,225333	0,5	-2,708550
20,233667	0,5	-2,712300
20,242000	0,5	-2,733550
20,250333	0,5	-2,742400
20,258667	0,5	-2,764300
20,267000	0,5	-2,777050
20,275333	0,5	-2,785600
20,283667	0,5	-2,803450
20,292000	0,5	-2,798600
20,300333	0,5	-2,807400
20,308667	0,5	-2,830100
20,317000	0,5	-2,838850
20,325333	0,5	-2,859450
20,333667	0,5	-2,889200
20,342000	0,5	-2,920500
20,350333	0,5	-2,957650
20,358667	0,5	-2,979200
20,367000	0,5	-2,998100
20,375333	0,5	-3,005500
20,383667	0,5	-3,026100
20,392000	0,5	-3,031450
20,400333	0,5	-3,062400
20,408667	0,5	-3,088900
20,417000	0,5	-3,119550
20,425333	0,5	-3,140050
20,433667	0,5	-3,170050
20,442000	0,5	-3,169050
20,450333	0,5	-3,195750
20,458667	0,5	-3,221100
20,467000	0,5	-3,242050
20,475333	0,5	-3,274750
20,483667	0,5	-3,303050
20,492000	0,5	-3,355900
20,500333	0,5	-3,375850
20,508667	0,5	-3,376350
20,517000	0,5	-3,361450
20,525333	0,5	-3,355200
20,533667	0,5	-3,339950
20,542000	0,5	-3,343000
20,550333	0,5	-3,364200
20,558667	0,5	-3,398100
20,567000	0,5	-3,451550
20,575333	0,5	-3,504750
20,583667	0,5	-3,545650
20,592000	0,5	-3,584900
20,600333	0,5	-3,626400
20,608667	0,5	-3,668850
20,617000	0,5	-3,700100
20,625333	0,5	-3,749650
20,633667	0,5	-3,802550
20,642000	0,5	-3,855450
20,650333	0,5	-3,886650
20,658667	0,5	-3,903400
20,667000	0,5	-3,935700
20,675333	0,5	-3,949850
20,683667	0,5	-3,961950
20,692000	0,5	-3,943600
20,700333	0,5	-3,930550
20,708667	0,5	-3,883400
20,717000	0,5	-3,872550
20,725333	0,5	-3,884450
20,733667	0,5	-3,889550
20,742000	0,5	-3,940500
20,750333	0,5	-4,025750
20,758667	0,5	-4,113750
20,767000	0,5	-4,189900
20,775333	0,5	-4,278250
20,783667	0,5	-4,368850
20,792000	0,5	-4,446000
20,800333	0,5	-4,476650
20,808667	0,5	-4,547000
20,817000	0,5	-4,590850
20,825333	0,5	-4,635750
20,833667	0,5	-4,675700
20,842000	0,5	-4,722250
20,850333	0,5	-4,757850
20,858667	0,5	-4,790050
20,867000	0,5	-4,830500
20,875333	0,5	-4,835700
20,883667	0,5	-4,838750
20,892000	0,5	-4,875750
20,900333	0,5	-4,917850
20,908667	0,5	-4,961250
20,917000	0,5	-5,016950
20,925333	0,5	-5,083500
20,933667	0,5	-5,168100
20,942000	0,5	-5,203400
20,950333	0,5	-5,239900
20,958667	0,5	-5,265650
20,967000	0,5	-5,315150
20,975333	0,5	-5,337200
20,983667	0,5	-5,378500
20,992000	0,5	-5,409950
21,000333	0,5	-5,437750
21,008667	0,5	-5,448700
21,017000	0,5	-5,464150
21,025333	0,5	-5,430000
21,033667	0,5	-5,427650
21,042000	0,5	-5,456200
21,050333	0,5	-5,490700
21,058667	0,5	-5,555800
21,067000	0,5	-5,600750
21,075333	0,5	-5,675950
21,083667	0,5	-5,743000
21,092000	0,5	-5,789300
21,100333	0,5	-5,826400
21,108667	0,5	-5,869000
21,117000	0,5	-5,891400
21,125333	0,5	-5,923100
21,133667	0,5	-5,964500
21,142000	0,5	-5,989650
21,150333	0,5	-6,014950
21,158667	0,5	-6,048300
21,167000	0,5	-6,072100
21,175333	0,5	-6,069100
21,183667	0,5	-6,080000
21,192000	0,5	-6,105700
21,200333	0,5	-6,137350
21,208667	0,5	-6,166200
21,217000	0,5	-6,200900
21,225333	0,5	-6,234450
21,233667	0,5	-6,272150
21,242000	0,5	-6,283200
21,250333	0,5	-6,315400
21,258667	0,5	-6,313400
21,267000	0,5	-6,325650
21,275333	0,5	-6,338750
21,283667	0,5	-6,365450
21,292000	0,5	-6,372250
21,300333	0,5	-6,389950
21,308667	0,5	-6,428200
21,317000	0,5	-6,432100
21,325333	0,5	-6,434300
21,333667	0,5	-6,464900
21,342000	0,5	-6,486500
21,350333	0,5	-6,518450
21,358667	0,5	-6,554850
21,367000	0,5	-6,605300
21,375333	0,5	-6,648400
21,383667	0,5	-6,659100
21,392000	0,5	-6,675000
21,400333	0,5	-6,670250
21,408667	0,5	-6,705050
21,417000	0,5	-6,714700
21,425333	0,5	-6,730150
21,433667	0,5	-6,735450
21,442000	0,5	-6,757250
21,450333	0,5	-6,773300
21,458667	0,5	-6,786900
21,467000	0,5	-6,769950
21,475333	0,5	-6,763500
21,483667	0,5	-6,764150
21,492000	0,5	-6,751300
21,500333	0,5	-6,745850
21,508667	0,5	-6,736350
21,517000	0,5	-6,796200
21,525333	0,5	-6,819350
21,533667	0,5	-6,868300
21,542000	0,5	-6,896250
21,550333	0,5	-6,951100
21,558667	0,5	-6,972700
21,567000	0,5	-6,997650
21,575333	0,5	-7,012550
21,583667	0,5	-7,016450
21,592000	0,5	-7,016900
21,600333	0,5	-7,026850
21,608667	0,5	-7,007200
21,617000	0,5	-6,987650
21,625333	0,5	-6,995100
21,633667	0,5	-6,984550
21,642000	0,5	-6,965750
21,650333	0,5	-6,944650
21,658667	0,5	-6,938050
21,667000	0,5	-6,956850
21,675333	0,5	-6,967600
21,683667	0,5	-6,996800
21,692000	0,5	-7,053000
21,700333	0,5	-7,083000
21,708667	0,5	-7,109050
21,717000	0,5	-7,127000
21,725333	0,5	-7,144850
21,733667	0,5	-7,150250
21,742000	0,5	-7,171350
21,750333	0,5	-7,186650
21,758667	0,5	-7,168350
21,767000	0,5	-7,198650
21,775333	0,5	-7,220250
21,783667	0,5	-7,235750
21,792000	0,5	-7,252050
21,800333	0,5	-7,274150
21,808667	0,5	-7,301750
21,817000	0,5	-7,289800
21,825333	0,5	-7,268400
21,833667	0,5	-7,272250
21,842000	0,5	-7,262000
21,850333	0,5	-7,267200
21,858667	0,5	-7,281700
21,867000	0,5	-7,283350
21,875333	0,5	-7,282850
21,883667	0,5	-7,296450
21,892000	0,5	-7,302000
21,900333	0,5	-7,285850
21,908667	0,5	-7,254600
21,917000	0,5	-7,226600
21,925333	0,5	-7,156850
21,933667	0,5	-7,097650
21,942000	0,5	-7,081950
21,950333	0,5	-7,098650
21,958667	0,5	-7,168900
21,967000	0,5	-7,200000
21,975333	0,5	-7,229850
21,983667	0,5	-7,245100
21,992000	0,5	-7,272850
22,000333	0,5	-7,303300
22,008667	0,5	-7,358400
22,017000	0,5	-7,421750
22,025333	0,5	-7,483200
22,033667	0,5	-7,529350
22,042000	0,5	-7,580850
22,050333	0,5	-7,617450
22,058667	0,5	-7,657500
22,067000	0,5	-7,687100
22,075333	0,5	-7,693400
22,083667	0,5	-7,726200
22,092000	0,5	-7,758900
22,100333	0,5	-7,795200
22,108667	0,5	-7,814500
22,117000	0,5	-7,839500
22,125333	0,5	-7,854900
22,133667	0,5	-7,881500
22,142000	0,5	-7,882300
22,150333	0,5	-7,898650
22,158667	0,5	-7,913150
22,167000	0,5	-7,917100
22,175333	0,5	-7,924250
22,183667	0,5	-7,920000
22,192000	0,5	-7,943000
22,200333	0,5	-7,958250
22,208667	0,5	-7,980400
22,217000	0,5	-7,981950
22,225333	0,5	-7,981550
22,233667	0,5	-7,993550
22,242000	0,5	-8,035850
22,250333	0,5	-8,046050
22,258667	0,5	-8,042800
22,267000	0,5	-8,023100
22,275333	0,5	-8,026300
22,283667	0,5	-8,029150
22,292000	0,5	-8,021200
22,300333	0,5	-8,024750
22,308667	0,5	-8,003900
22,317000	0,5	-7,994500
22,325333	0,5	-7,986550
22,333667	0,5	-7,958200
22,342000	0,5	-7,925000
22,350333	0,5	-7,859200
22,358667	0,5	-7,724200
22,367000	0,5	-7,612850
22,375333	0,5	-7,553900
22,383667	0,5	-7,585200
22,392000	0,5	-7,656650
22,400333	0,5	-7,727750
22,408667	0,5	-7,783150
22,417000	0,5	-7,824250
22,425333	0,5	-7,850250
22,433667	0,5	-7,876150
22,442000	0,5	-7,894950
22,450333	0,5	-7,922400
22,458667	0,5	-7,935250
22,467000	0,5	-7,940150
22,475333	0,5	-7,961050
22,483667	0,5	-7,971650
22,492000	0,5	-7,990200
22,500333	0,5	-7,993050
22,508667	0,5	-7,955550
22,517000	0,5	-7,939250
22,525333	0,5	-7,932700
22,533667	0,5	-7,925800
22,542000	0,5	-7,913000
22,550333	0,5	-7,877700
22,558667	0,5	-7,859000
22,567000	0,5	-7,836950
22,575333	0,5	-7,827050
22,583667	0,5	-7,813550
22,592000	0,5	-7,821650
22,600333	0,5	-7,810300
22,608667	0,5	-7,818650
22,617000	0,5	-7,823750
22,625333	0,5	-7,826500
22,633667	0,5	-7,883500
22,642000	0,5	-7,899500
22,650333	0,5	-7,883650
22,658667	0,5	-7,871650
22,667000	0,5	-7,895800
22,675333	0,5	-7,911700
22,683667	0,5	-7,958400
22,692000	0,5	-7,980650
22,700333	0,5	-7,991550
22,708667	0,5	-7,999300
22,717000	0,5	-8,006700
22,725333	0,5	-8,019400
22,733667	0,5	-8,036250
22,742000	0,5	-8,055050
22,750333	0,5	-8,062700
22,758667	0,5	-8,095900
22,767000	0,5	-8,116900
22,775333	0,5	-8,173200
22,783667	0,5	-8,210400
22,792000	0,5	-8,231200
22,800333	0,5	-8,223850
22,808667	0,5	-8,248300
22,817000	0,5	-8,269900
22,825333	0,5	-8,301200
22,833667	0,5	-8,329600
22,842000	0,5	-8,355600
22,850333	0,5	-8,390400
22,858667	0,5	-8,405500
22,867000	0,5	-8,419950
22,875333	0,5	-8,430900
22,883667	0,5	-8,439900
22,892000	0,5	-8,434750
22,900333	0,5	-8,443650
22,908667	0,5	-8,432750
22,917000	0,5	-8,409650
22,925333	0,5	-8,398150
22,933667	0,5	-8,387300
22,942000	0,5	-8,368050
22,950333	0,5	-8,383250
22,958667	0,5	-8,374700
22,967000	0,5	-8,336700
22,975333	0,5	-8,309950
22,983667	0,5	-8,261250
22,992000	0,5	-8,263450
23,000333	0,5	-8,220450
23,008667	0,5	-8,184250
23,017000	0,5	-8,121800
23,025333	0,5	-8,075900
23,033667	0,5	-7,999050
23,042000	0,5	-7,939750
23,050333	0,5	-7,870200
23,058667	0,5	-7,784650
23,067000	0,5	-7,677400
23,075333	0,5	-7,605000
23,083667	0,5	-7,523250
23,092000	0,5	-7,486750
23,100333	0,5	-7,423400
23,108667	0,5	-7,343200
23,117000	0,5	-7,266000
23,125333	0,5	-7,171400
23,133667	0,5	-7,108850
23,142000	0,5	-7,032300
23,150333	0,5	-6,967500
23,158667	0,5	-6,877000
23,167000	0,5	-6,796650
23,175333	0,5	-6,696850
23,183667	0,5	-6,616850
23,192000	0,5	-6,525750
23,200333	0,5	-6,433850
23,208667	0,5	-6,324400
23,217000	0,5	-6,200800
23,225333	0,5	-6,113450
23,233667	0,5	-6,001250
23,242000	0,5	-5,954350
23,250333	0,5	-5,877450
23,258667	0,5	-5,804300
23,267000	0,5	-5,705000
23,275333	0,5	-5,621250
23,283667	0,5	-5,545850
23,292000	0,5	-5,493000
23,300333	0,5	-5,416200
23,308667	0,5	-5,351750
23,317000	0,5	-5,280750
23,325333	0,5	-5,199150
23,333667	0,5	-5,125750
23,342000	0,5	-5,046450
23,350333	0,5	-4,968750
23,358667	0,5	-4,879850
23,367000	0,5	-4,861800
23,375333	0,5	-4,749450
23,383667	0,5	-4,641300
23,392000	0,5	-4,586150
23,400333	0,5	-4,528800
23,408667	0,5	-4,466200
23,417000	0,5	-4,399850
23,425333	0,5	-4,343700
23,433667	0,5	-4,299400
23,442000	0,5	-4,253350
23,450333	0,5	-4,200800
23,458667	0,5	-4,157100
23,467000	0,5	-4,117450
23,475333	0,5	-4,065550
23,483667	0,5	-4,017050
23,492000	0,5	-3,969650
23,500333	0,5	-3,925350
23,508667	0,5	-3,899600
23,517000	0,5	-3,916400
23,525333	0,5	-3,861950
23,533667	0,5	-3,754300
23,542000	0,5	-3,712950
23,550333	0,5	-3,674050
23,558667	0,5	-3,644250
23,567000	0,5	-3,602600
23,575333	0,5	-3,572200
23,583667	0,5	-3,544800
23,592000	0,5	-3,513950
23,600333	0,5	-3,486450
23,608667	0,5	-3,453900
23,617000	0,5	-3,421150
23,625333	0,5	-3,386200
23,633667	0,5	-3,355600
23,642000	0,5	-3,328200
23,650333	0,5	-3,297400
23,658667	0,5	-3,396000
23,667000	0,5	-3,383200
23,675333	0,5	-3,310400
23,683667	0,5	-3,237950
23,692000	0,5	-3,195450
23,700333	0,5	-3,174000
23,708667	0,5	-3,148950
23,717000	0,5	-3,138950
23,725333	0,5	-3,112300
23,733667	0,5	-3,091100
23,742000	0,5	-3,062300
23,750333	0,5	-3,045900
23,758667	0,5	-3,016500
23,767000	0,5	-2,988300
23,775333	0,5	-2,959800
23,783667	0,5	-2,928650
23,792000	0,5	-2,907250
23,800333	0,5	-2,894300
23,808667	0,5	-3,029750
23,817000	0,5	-2,967000
23,825333	0,5	-2,898650
23,833667	0,5	-2,836950
23,842000	0,5	-2,787850
23,850333	0,5	-2,762000
23,858667	0,5	-2,746400
23,867000	0,5	-2,726100
23,875333	0,5	-2,696450
23,883667	0,5	-2,669350
23,892000	0,5	-2,657300
23,900333	0,5	-2,630950
23,908667	0,5	-2,610100
23,917000	0,5	-2,586600
23,925333	0,5	-2,562600
23,933667	0,5	-2,535850
23,942000	0,5	-2,509700
23,950333	0,5	-2,620550
23,958667	0,5	-2,616300
23,967000	0,5	-2,601400
23,975333	0,5	-2,517550
23,983667	0,5	-2,464150
23,992000	0,5	-2,423450
24,000333	0,5	-2,405650
24,008667	0,5	-2,394150
24,017000	0,5	-2,371150
24,025333	0,5	-2,327150
24,033667	0,5	-2,301800
24,042000	0,5	-2,268550
24,050333	0,5	-2,238200
24,058667	0,5	-2,208250
24,067000	0,5	-2,183450
24,075333	0,5	-2,152600
24,083667	0,5	-2,128000
24,092000	0,5	-2,109900
24,100333	0,5	-2,239800
24,108667	0,5	-2,205600
24,117000	0,5	-2,182650
24,125333	0,5	-2,102950
24,133667	0,5	-2,070000
24,142000	0,5	-2,036650
24,150333	0,5	-2,021050
24,158667	0,5	-2,029000
24,167000	0,5	-1,993950
24,175333	0,5	-1,970000
24,183667	0,5	-1,936900
24,192000	0,5	-1,918650
24,200333	0,5	-1,884850
24,208667	0,5	-1,872800
24,217000	0,5	-1,843300
24,225333	0,5	-1,817050
24,233667	0,5	-1,787150
24,242000	0,5	-1,785900
24,250333	0,5	-1,867700
24,258667	0,5	-1,830550
24,267000	0,5	-1,781200
24,275333	0,5	-1,723550
24,283667	0,5	-1,690550
24,292000	0,5	-1,666200
24,300333	0,5	-1,661450
24,308667	0,5	-1,665900
24,317000	0,5	-1,643800
24,325333	0,5	-1,612250
24,333667	0,5	-1,598700
24,342000	0,5	-1,573050
24,350333	0,5	-1,551450
24,358667	0,5	-1,529350
24,367000	0,5	-1,513350
24,375333	0,5	-1,490600
24,383667	0,5	-1,472300
24,392000	0,5	-1,525200
24,400333	0,5	-1,533950
24,408667	0,5	-1,511700
24,417000	0,5	-1,478350
24,425333	0,5	-1,431250
24,433667	0,5	-1,415400
24,442000	0,5	-1,393250
24,450333	0,5	-1,389050
24,458667	0,5	-1,392050
24,467000	0,5	-1,359500
24,475333	0,5	-1,340050
24,483667	0,5	-1,320200
24,492000	0,5	-1,301650
24,500333	0,5	-1,282900
24,508667	0,5	-1,268000
24,517000	0,5	-1,251200
24,525333	0,5	-1,230450
24,533667	0,5	-1,216250
24,542000	0,5	-1,268450
24,550333	0,5	-1,250100
24,558667	0,5	-1,226400
24,567000	0,5	-1,195750
24,575333	0,5	-1,177100
24,583667	0,5	-1,164500
24,592000	0,5	-1,161350
24,600333	0,5	-1,160750
24,608667	0,5	-1,144750
24,617000	0,5	-1,142100
24,625333	0,5	-1,132150
24,633667	0,5	-1,119500
24,642000	0,5	-1,102000
24,650333	0,5	-1,093750
24,658667	0,5	-1,079600
24,667000	0,5	-1,060950
24,675333	0,5	-1,050500
24,683667	0,5	-1,051450
24,692000	0,5	-1,068150
24,700333	0,5	-1,060800
24,708667	0,5	-1,032150
24,717000	0,5	-1,013050
24,725333	0,5	-0,992800
24,733667	0,5	-0,987500
24,742000	0,5	-0,985250
24,750333	0,5	-0,977050
24,758667	0,5	-0,964050
24,767000	0,5	-0,956050
24,775333	0,5	-0,950350
24,783667	0,5	-0,944100
24,792000	0,5	-0,937900
24,800333	0,5	-0,931200
24,808667	0,5	-0,919850
24,817000	0,5	-0,912550
24,825333	0,5	-0,913750
24,833667	0,5	-0,932650
24,842000	0,5	-0,922400
24,850333	0,5	-0,918350
24,858667	0,5	-0,899850
24,867000	0,5	-0,883800
24,875333	0,5	-0,875650
24,883667	0,5	-0,867450
24,892000	0,5	-0,865100
24,900333	0,5	-0,853500
24,908667	0,5	-0,844150
24,917000	0,5	-0,834350
24,925333	0,5	-0,829000
24,933667	0,5	-0,817100
24,942000	0,5	-0,811200
24,950333	0,5	-0,809650
24,958667	0,5	-0,801100
24,967000	0,5	-0,791650
24,975333	0,5	-0,794750
24,983667	0,5	-0,813300
24,992000	0,5	-0,802700
25,000333	0,5	-0,804300
25,008667	0,5	-0,793500
25,017000	0,5	-0,787850
25,025333	0,5	-0,789000
25,033667	0,5	-0,793350
25,042000	0,5	-0,794100
25,050333	0,5	-0,784600
25,058667	0,5	-0,779150
25,067000	0,5	-0,775150
25,075333	0,5	-0,764050
25,083667	0,5	-0,763450
25,092000	0,5	-0,756900
25,100333	0,5	-0,749900
25,108667	0,5	-0,738850
25,117000	0,5	-0,736250
25,125333	0,5	-0,732600
25,133667	0,5	-0,729900
25,142000	0,5	-0,727200
25,150333	0,5	-0,725450
25,158667	0,5	-0,721500
25,167000	0,5	-0,720000
25,175333	0,5	-0,719700
25,183667	0,5	-0,718800
25,192000	0,5	-0,721850
25,200333	0,5	-0,720350
25,208667	0,5	-0,719000
25,217000	0,5	-0,717100
25,225333	0,5	-0,717150
25,233667	0,5	-0,716850
25,242000	0,5	-0,715900
25,250333	0,5	-0,706100
25,258667	0,5	-0,702650
25,267000	0,5	-0,696150
25,275333	0,5	-0,697550
25,283667	0,5	-0,686450
25,292000	0,5	-0,683950
25,300333	0,5	-0,683800
25,308667	0,5	-0,675100
25,317000	0,5	-0,674000
25,325333	0,5	-0,670800
25,333667	0,5	-0,665600
25,342000	0,5	-0,660450
25,350333	0,5	-0,665050
25,358667	0,5	-0,665650
25,367000	0,5	-0,658400
25,375333	0,5	-0,665550
25,383667	0,5	-0,664800
25,392000	0,5	-0,661300
25,400333	0,5	-0,664700
25,408667	0,5	-0,664350
25,417000	0,5	-0,659950
25,425333	0,5	-0,657250
25,433667	0,5	-0,651400
25,442000	0,5	-0,648400
25,450333	0,5	-0,650000
25,458667	0,5	-0,649550
25,467000	0,5	-0,647000
25,475333	0,5	-0,641700
25,483667	0,5	-0,635950
25,492000	0,5	-0,630800
25,500333	0,5	-0,628600
25,508667	0,5	-0,624400
25,517000	0,5	-0,627650
25,525333	0,5	-0,624000
25,533667	0,5	-0,623600
25,542000	0,5	-0,623200
25,550333	0,5	-0,626050
25,558667	0,5	-0,620100
25,567000	0,5	-0,614800
25,575333	0,5	-0,614850
25,583667	0,5	-0,614400
25,592000	0,5	-0,609050
25,600333	0,5	-0,619350
25,608667	0,5	-0,619350
25,617000	0,5	-0,619250
25,625333	0,5	-0,612100
25,633667	0,5	-0,601850
25,642000	0,5	-0,601850
25,650333	0,5	-0,605200
25,658667	0,5	-0,608550
25,667000	0,5	-0,607450
25,675333	0,5	-0,599700
25,683667	0,5	-0,603050
25,692000	0,5	-0,601800
25,700333	0,5	-0,598550
25,708667	0,5	-0,595450
25,717000	0,5	-0,590750
25,725333	0,5	-0,588800
25,733667	0,5	-0,577400
25,742000	0,5	-0,581200
25,750333	0,5	-0,580050
25,758667	0,5	-0,582200
25,767000	0,5	-0,578200
25,775333	0,5	-0,570950
25,783667	0,5	-0,563800
25,792000	0,5	-0,567550
25,800333	0,5	-0,564050
25,808667	0,5	-0,568200
25,817000	0,5	-0,567500
25,825333	0,5	-0,566800
25,833667	0,5	-0,560300
25,842000	0,5	-0,559600
25,850333	0,5	-0,553250
25,858667	0,5	-0,544300
25,867000	0,5	-0,545800
25,875333	0,5	-0,542900
25,883667	0,5	-0,530500
25,892000	0,5	-0,540300
25,900333	0,5	-0,539450
25,908667	0,5	-0,526500
25,917000	0,5	-0,520750
25,925333	0,5	-0,497800
25,933667	0,5	-0,502850
25,942000	0,5	-0,499350
25,950333	0,5	-0,502150
25,958667	0,5	-0,491050
25,967000	0,5	-0,491450
25,975333	0,5	-0,486400
25,983667	0,5	-0,489000
25,992000	0,5	-0,484750
26,000333	0,5	-0,483900
