File Path	chrom://chromeleon01/ikbm_chromeleon/2022/ICS-5000/ED1/Esteban/20220427_Cell_Amandas_mutants.seq/914.smp/ED_1.channel/ED_1.chm
Channel	ED_1

Injection Information:
Data Vault	ikbm_chromeleon
Injection	T24h_Avi_4b
Injection Number	27
Position	RC5
Comment	
Processing Method	Stop sequence after Cell Death
Instrument Method	ICS5000_PA200_FullNative_Ox_26min_ED1
Type	Unknown
Status	Finished
Injection Date	28.04.2022
Injection Time	01:19:10
Injection Volume (µl)	5,0
Dilution Factor	1,0000
Weight	1,0000

Chromatogram Data Information:
Time Min. (min)	0,000333
Time Max. (min)	26,000333
Data Points	3121
Detector	EDet1
Generating Data System	Chromeleon 7.2.9.11323
Exporting Data System	Chromeleon 7.2.9.0
Operator	Instrument Controller
Signal Quantity	
Signal Unit	nC
Signal Min.	-7,867250
Signal Max.	37,020701
Channel	ED_1
Driver Name	DC-5000
Channel Type	Evaluation
Min. Step (s)	0,5
Max. Step (s)	0,5
Average Step (s)	0,5

Signal Parameter Information:
Signal Info	

Chromatogram Data:
Time (min)	Step (s)	Value (nC)
0,000333	n.a.	-0,086400
0,008667	0,5	-0,082500
0,017000	0,5	-0,069450
0,025333	0,5	-0,080050
0,033667	0,5	-0,063650
0,042000	0,5	-0,030400
0,050333	0,5	0,001450
0,058667	0,5	0,030950
0,067000	0,5	0,009900
0,075333	0,5	0,018850
0,083667	0,5	0,010100
0,092000	0,5	0,020450
0,100333	0,5	0,015150
0,108667	0,5	0,026800
0,117000	0,5	0,006450
0,125333	0,5	0,003050
0,133667	0,5	0,002850
0,142000	0,5	-0,021800
0,150333	0,5	-0,033600
0,158667	0,5	0,008700
0,167000	0,5	-0,015000
0,175333	0,5	-0,031900
0,183667	0,5	-0,031400
0,192000	0,5	-0,009150
0,200333	0,5	0,039700
0,208667	0,5	0,039950
0,217000	0,5	0,032600
0,225333	0,5	0,019050
0,233667	0,5	0,020550
0,242000	0,5	0,014250
0,250333	0,5	0,016750
0,258667	0,5	0,003300
0,267000	0,5	0,002050
0,275333	0,5	-0,003550
0,283667	0,5	-0,004450
0,292000	0,5	-0,029050
0,300333	0,5	0,043100
0,308667	0,5	0,058250
0,317000	0,5	-0,006100
0,325333	0,5	-0,049250
0,333667	0,5	-0,041150
0,342000	0,5	-0,022400
0,350333	0,5	0,003550
0,358667	0,5	0,001300
0,367000	0,5	-0,015300
0,375333	0,5	-0,015950
0,383667	0,5	-0,024750
0,392000	0,5	-0,021900
0,400333	0,5	-0,022150
0,408667	0,5	-0,016400
0,417000	0,5	-0,031200
0,425333	0,5	-0,021550
0,433667	0,5	-0,035750
0,442000	0,5	-0,047150
0,450333	0,5	-0,026450
0,458667	0,5	-0,033950
0,467000	0,5	-0,057400
0,475333	0,5	-0,062250
0,483667	0,5	-0,056400
0,492000	0,5	-0,017850
0,500333	0,5	-0,008200
0,508667	0,5	-0,020700
0,517000	0,5	-0,041500
0,525333	0,5	-0,027950
0,533667	0,5	-0,033300
0,542000	0,5	-0,032600
0,550333	0,5	-0,036700
0,558667	0,5	-0,045500
0,567000	0,5	-0,047750
0,575333	0,5	-0,048700
0,583667	0,5	-0,029250
0,592000	0,5	-0,065450
0,600333	0,5	-0,011900
0,608667	0,5	-0,044850
0,617000	0,5	-0,057950
0,625333	0,5	-0,067200
0,633667	0,5	-0,046100
0,642000	0,5	-0,014400
0,650333	0,5	-0,017850
0,658667	0,5	-0,044150
0,667000	0,5	-0,040550
0,675333	0,5	-0,042350
0,683667	0,5	-0,042500
0,692000	0,5	-0,051400
0,700333	0,5	-0,041350
0,708667	0,5	-0,049850
0,717000	0,5	-0,043450
0,725333	0,5	-0,037500
0,733667	0,5	-0,054150
0,742000	0,5	-0,070950
0,750333	0,5	-0,035400
0,758667	0,5	-0,053950
0,767000	0,5	-0,065500
0,775333	0,5	-0,047800
0,783667	0,5	-0,035700
0,792000	0,5	0,003750
0,800333	0,5	-0,017200
0,808667	0,5	-0,007600
0,817000	0,5	-0,020600
0,825333	0,5	-0,017950
0,833667	0,5	-0,028150
0,842000	0,5	-0,018300
0,850333	0,5	-0,037800
0,858667	0,5	-0,034800
0,867000	0,5	-0,033900
0,875333	0,5	-0,027600
0,883667	0,5	-0,032700
0,892000	0,5	-0,020200
0,900333	0,5	-0,009200
0,908667	0,5	-0,035850
0,917000	0,5	-0,036650
0,925333	0,5	-0,034150
0,933667	0,5	-0,008900
0,942000	0,5	0,022350
0,950333	0,5	0,018500
0,958667	0,5	0,005850
0,967000	0,5	0,018600
0,975333	0,5	-0,001000
0,983667	0,5	0,002900
0,992000	0,5	-0,006400
1,000333	0,5	0,010300
1,008667	0,5	0,008650
1,017000	0,5	0,013350
1,025333	0,5	0,013800
1,033667	0,5	0,016100
1,042000	0,5	0,028300
1,050333	0,5	0,023050
1,058667	0,5	0,000150
1,067000	0,5	0,002450
1,075333	0,5	0,012800
1,083667	0,5	0,047050
1,092000	0,5	0,062850
1,100333	0,5	0,048350
1,108667	0,5	0,059350
1,117000	0,5	0,055700
1,125333	0,5	0,051550
1,133667	0,5	0,040500
1,142000	0,5	0,047050
1,150333	0,5	0,037100
1,158667	0,5	0,042700
1,167000	0,5	0,038550
1,175333	0,5	0,046250
1,183667	0,5	0,040800
1,192000	0,5	0,066800
1,200333	0,5	0,046800
1,208667	0,5	0,044950
1,217000	0,5	0,045600
1,225333	0,5	0,068800
1,233667	0,5	0,094650
1,242000	0,5	0,094800
1,250333	0,5	0,088000
1,258667	0,5	0,093300
1,267000	0,5	0,088050
1,275333	0,5	0,085650
1,283667	0,5	0,088550
1,292000	0,5	0,087750
1,300333	0,5	0,092150
1,308667	0,5	0,103200
1,317000	0,5	0,109800
1,325333	0,5	0,084500
1,333667	0,5	0,109700
1,342000	0,5	0,111650
1,350333	0,5	0,099050
1,358667	0,5	0,094650
1,367000	0,5	0,109350
1,375333	0,5	0,142200
1,383667	0,5	0,173150
1,392000	0,5	0,155700
1,400333	0,5	0,159950
1,408667	0,5	0,166900
1,417000	0,5	0,171750
1,425333	0,5	0,170650
1,433667	0,5	0,172450
1,442000	0,5	0,174250
1,450333	0,5	0,170750
1,458667	0,5	0,185500
1,467000	0,5	0,185700
1,475333	0,5	0,180850
1,483667	0,5	0,227250
1,492000	0,5	0,215950
1,500333	0,5	0,208200
1,508667	0,5	0,222100
1,517000	0,5	0,226300
1,525333	0,5	0,281350
1,533667	0,5	0,272400
1,542000	0,5	0,268850
1,550333	0,5	0,262400
1,558667	0,5	0,268050
1,567000	0,5	0,188700
1,575333	0,5	-0,114050
1,583667	0,5	-0,971500
1,592000	0,5	-2,000900
1,600333	0,5	-1,929550
1,608667	0,5	-0,195900
1,617000	0,5	1,991850
1,625333	0,5	4,021050
1,633667	0,5	6,351550
1,642000	0,5	8,531950
1,650333	0,5	9,725150
1,658667	0,5	9,660850
1,667000	0,5	8,922550
1,675333	0,5	8,055250
1,683667	0,5	7,205750
1,692000	0,5	6,439950
1,700333	0,5	5,803600
1,708667	0,5	5,250700
1,717000	0,5	4,793150
1,725333	0,5	4,406800
1,733667	0,5	4,079100
1,742000	0,5	3,746400
1,750333	0,5	3,428000
1,758667	0,5	3,172900
1,767000	0,5	3,012750
1,775333	0,5	3,006050
1,783667	0,5	3,378800
1,792000	0,5	4,308400
1,800333	0,5	5,907100
1,808667	0,5	7,710300
1,817000	0,5	9,251450
1,825333	0,5	10,045700
1,833667	0,5	9,567150
1,842000	0,5	8,305100
1,850333	0,5	6,986450
1,858667	0,5	5,957800
1,867000	0,5	5,208750
1,875333	0,5	4,686100
1,883667	0,5	4,300500
1,892000	0,5	4,005500
1,900333	0,5	3,764050
1,908667	0,5	3,570900
1,917000	0,5	3,378500
1,925333	0,5	3,232850
1,933667	0,5	3,105250
1,942000	0,5	3,032850
1,950333	0,5	3,071050
1,958667	0,5	3,148050
1,967000	0,5	3,186950
1,975333	0,5	3,142550
1,983667	0,5	3,069300
1,992000	0,5	3,034800
2,000333	0,5	3,078350
2,008667	0,5	3,176850
2,017000	0,5	3,392250
2,025333	0,5	3,791450
2,033667	0,5	4,561800
2,042000	0,5	5,725600
2,050333	0,5	6,950950
2,058667	0,5	7,786750
2,067000	0,5	8,480600
2,075333	0,5	9,218500
2,083667	0,5	9,580800
2,092000	0,5	9,323550
2,100333	0,5	8,781950
2,108667	0,5	8,316500
2,117000	0,5	8,067450
2,125333	0,5	7,980600
2,133667	0,5	8,065350
2,142000	0,5	8,376650
2,150333	0,5	9,076250
2,158667	0,5	10,397050
2,167000	0,5	12,162650
2,175333	0,5	13,283500
2,183667	0,5	12,962750
2,192000	0,5	11,757450
2,200333	0,5	10,555200
2,208667	0,5	9,690400
2,217000	0,5	9,090200
2,225333	0,5	8,669450
2,233667	0,5	8,349300
2,242000	0,5	8,174550
2,250333	0,5	8,092150
2,258667	0,5	8,090700
2,267000	0,5	8,122350
2,275333	0,5	8,172600
2,283667	0,5	8,244000
2,292000	0,5	8,351650
2,300333	0,5	8,437350
2,308667	0,5	8,520800
2,317000	0,5	8,595400
2,325333	0,5	8,664200
2,333667	0,5	8,750850
2,342000	0,5	8,846000
2,350333	0,5	8,939950
2,358667	0,5	9,018450
2,367000	0,5	9,134400
2,375333	0,5	9,220800
2,383667	0,5	9,311600
2,392000	0,5	9,406800
2,400333	0,5	9,536150
2,408667	0,5	9,699250
2,417000	0,5	9,898650
2,425333	0,5	10,110350
2,433667	0,5	10,417700
2,442000	0,5	10,771950
2,450333	0,5	11,153050
2,458667	0,5	11,478650
2,467000	0,5	11,704650
2,475333	0,5	11,782950
2,483667	0,5	11,724900
2,492000	0,5	11,602600
2,500333	0,5	11,474150
2,508667	0,5	11,393100
2,517000	0,5	11,389450
2,525333	0,5	11,336550
2,533667	0,5	11,281050
2,542000	0,5	11,239600
2,550333	0,5	11,203500
2,558667	0,5	11,199500
2,567000	0,5	11,162250
2,575333	0,5	11,169200
2,583667	0,5	11,230850
2,592000	0,5	11,393250
2,600333	0,5	11,667800
2,608667	0,5	12,185000
2,617000	0,5	13,098950
2,625333	0,5	14,745950
2,633667	0,5	17,342900
2,642000	0,5	20,721750
2,650333	0,5	24,134100
2,658667	0,5	26,621850
2,667000	0,5	27,651750
2,675333	0,5	27,129000
2,683667	0,5	25,545700
2,692000	0,5	23,440650
2,700333	0,5	21,300550
2,708667	0,5	19,432200
2,717000	0,5	17,925000
2,725333	0,5	16,854050
2,733667	0,5	16,267850
2,742000	0,5	16,222550
2,750333	0,5	16,893050
2,758667	0,5	18,396200
2,767000	0,5	20,794500
2,775333	0,5	23,988650
2,783667	0,5	27,875850
2,792000	0,5	32,007250
2,800333	0,5	35,433901
2,808667	0,5	37,020701
2,817000	0,5	36,235601
2,825333	0,5	33,349200
2,833667	0,5	29,414150
2,842000	0,5	25,464050
2,850333	0,5	22,155550
2,858667	0,5	19,758900
2,867000	0,5	18,296900
2,875333	0,5	17,993000
2,883667	0,5	19,045400
2,892000	0,5	21,439950
2,900333	0,5	24,466100
2,908667	0,5	26,811250
2,917000	0,5	27,314650
2,925333	0,5	25,805600
2,933667	0,5	22,965550
2,942000	0,5	19,728900
2,950333	0,5	16,752600
2,958667	0,5	14,348900
2,967000	0,5	12,467400
2,975333	0,5	11,035450
2,983667	0,5	9,939500
2,992000	0,5	9,104600
3,000333	0,5	8,448600
3,008667	0,5	7,919850
3,017000	0,5	7,449900
3,025333	0,5	7,058450
3,033667	0,5	6,710600
3,042000	0,5	6,382150
3,050333	0,5	6,099750
3,058667	0,5	5,848850
3,067000	0,5	5,620850
3,075333	0,5	5,411050
3,083667	0,5	5,235550
3,092000	0,5	5,059500
3,100333	0,5	4,900450
3,108667	0,5	4,764350
3,117000	0,5	4,614200
3,125333	0,5	4,470900
3,133667	0,5	4,356250
3,142000	0,5	4,261850
3,150333	0,5	4,175250
3,158667	0,5	4,066650
3,167000	0,5	3,940550
3,175333	0,5	3,825800
3,183667	0,5	3,730400
3,192000	0,5	3,651350
3,200333	0,5	3,617100
3,208667	0,5	3,618700
3,217000	0,5	3,664750
3,225333	0,5	3,810350
3,233667	0,5	4,093150
3,242000	0,5	4,635750
3,250333	0,5	5,543450
3,258667	0,5	6,839800
3,267000	0,5	8,346400
3,275333	0,5	9,758750
3,283667	0,5	10,668000
3,292000	0,5	10,837250
3,300333	0,5	10,232250
3,308667	0,5	9,065700
3,317000	0,5	7,680800
3,325333	0,5	6,374100
3,333667	0,5	5,273250
3,342000	0,5	4,432050
3,350333	0,5	3,804350
3,358667	0,5	3,329200
3,367000	0,5	2,969150
3,375333	0,5	2,692050
3,383667	0,5	2,468900
3,392000	0,5	2,276000
3,400333	0,5	2,143000
3,408667	0,5	2,009150
3,417000	0,5	1,888050
3,425333	0,5	1,793950
3,433667	0,5	1,720550
3,442000	0,5	1,686250
3,450333	0,5	1,634200
3,458667	0,5	1,559950
3,467000	0,5	1,511100
3,475333	0,5	1,447000
3,483667	0,5	1,386650
3,492000	0,5	1,325050
3,500333	0,5	1,278400
3,508667	0,5	1,218050
3,517000	0,5	1,174050
3,525333	0,5	1,133150
3,533667	0,5	1,087600
3,542000	0,5	1,038100
3,550333	0,5	1,039150
3,558667	0,5	0,990500
3,567000	0,5	0,961000
3,575333	0,5	0,935200
3,583667	0,5	0,916050
3,592000	0,5	0,927200
3,600333	0,5	0,891350
3,608667	0,5	0,865300
3,617000	0,5	0,834850
3,625333	0,5	0,819150
3,633667	0,5	0,795200
3,642000	0,5	0,778150
3,650333	0,5	0,747900
3,658667	0,5	0,727650
3,667000	0,5	0,704650
3,675333	0,5	0,690350
3,683667	0,5	0,661550
3,692000	0,5	0,643100
3,700333	0,5	0,641550
3,708667	0,5	0,607500
3,717000	0,5	0,589600
3,725333	0,5	0,580400
3,733667	0,5	0,584300
3,742000	0,5	0,606700
3,750333	0,5	0,586850
3,758667	0,5	0,569350
3,767000	0,5	0,556750
3,775333	0,5	0,547100
3,783667	0,5	0,540200
3,792000	0,5	0,529600
3,800333	0,5	0,524250
3,808667	0,5	0,504100
3,817000	0,5	0,504050
3,825333	0,5	0,497250
3,833667	0,5	0,497350
3,842000	0,5	0,494200
3,850333	0,5	0,494000
3,858667	0,5	0,471900
3,867000	0,5	0,472600
3,875333	0,5	0,475450
3,883667	0,5	0,489400
3,892000	0,5	0,506750
3,900333	0,5	0,486600
3,908667	0,5	0,471850
3,917000	0,5	0,469950
3,925333	0,5	0,460950
3,933667	0,5	0,455950
3,942000	0,5	0,460250
3,950333	0,5	0,448850
3,958667	0,5	0,448700
3,967000	0,5	0,444700
3,975333	0,5	0,438950
3,983667	0,5	0,426300
3,992000	0,5	0,441100
4,000333	0,5	0,433800
4,008667	0,5	0,422800
4,017000	0,5	0,415100
4,025333	0,5	0,427100
4,033667	0,5	0,442800
4,042000	0,5	0,461800
4,050333	0,5	0,452050
4,058667	0,5	0,458300
4,067000	0,5	0,450750
4,075333	0,5	0,447750
4,083667	0,5	0,441000
4,092000	0,5	0,439900
4,100333	0,5	0,431150
4,108667	0,5	0,426200
4,117000	0,5	0,431950
4,125333	0,5	0,408000
4,133667	0,5	0,406550
4,142000	0,5	0,413450
4,150333	0,5	0,406800
4,158667	0,5	0,400850
4,167000	0,5	0,410800
4,175333	0,5	0,424250
4,183667	0,5	0,453750
4,192000	0,5	0,452600
4,200333	0,5	0,454850
4,208667	0,5	0,449750
4,217000	0,5	0,451050
4,225333	0,5	0,444150
4,233667	0,5	0,443000
4,242000	0,5	0,441850
4,250333	0,5	0,443150
4,258667	0,5	0,446300
4,267000	0,5	0,442850
4,275333	0,5	0,432650
4,283667	0,5	0,449200
4,292000	0,5	0,452650
4,300333	0,5	0,443950
4,308667	0,5	0,452350
4,317000	0,5	0,457100
4,325333	0,5	0,486500
4,333667	0,5	0,501450
4,342000	0,5	0,524550
4,350333	0,5	0,533250
4,358667	0,5	0,557800
4,367000	0,5	0,568700
4,375333	0,5	0,599500
4,383667	0,5	0,622650
4,392000	0,5	0,661600
4,400333	0,5	0,699800
4,408667	0,5	0,747100
4,417000	0,5	0,799350
4,425333	0,5	0,853200
4,433667	0,5	0,942550
4,442000	0,5	1,000350
4,450333	0,5	1,070800
4,458667	0,5	1,160300
4,467000	0,5	1,253100
4,475333	0,5	1,376500
4,483667	0,5	1,460350
4,492000	0,5	1,508600
4,500333	0,5	1,548700
4,508667	0,5	1,548750
4,517000	0,5	1,515650
4,525333	0,5	1,454250
4,533667	0,5	1,380050
4,542000	0,5	1,286050
4,550333	0,5	1,197900
4,558667	0,5	1,113700
4,567000	0,5	1,029900
4,575333	0,5	0,946550
4,583667	0,5	0,918000
4,592000	0,5	0,853600
4,600333	0,5	0,813800
4,608667	0,5	0,788500
4,617000	0,5	0,781150
4,625333	0,5	0,791000
4,633667	0,5	0,766500
4,642000	0,5	0,751500
4,650333	0,5	0,744900
4,658667	0,5	0,754250
4,667000	0,5	0,746800
4,675333	0,5	0,747950
4,683667	0,5	0,743650
4,692000	0,5	0,740850
4,700333	0,5	0,742400
4,708667	0,5	0,748100
4,717000	0,5	0,744650
4,725333	0,5	0,748150
4,733667	0,5	0,769550
4,742000	0,5	0,759850
4,750333	0,5	0,764450
4,758667	0,5	0,787300
4,767000	0,5	0,811300
4,775333	0,5	0,843200
4,783667	0,5	0,839900
4,792000	0,5	0,841150
4,800333	0,5	0,842700
4,808667	0,5	0,845450
4,817000	0,5	0,836100
4,825333	0,5	0,843450
4,833667	0,5	0,844550
4,842000	0,5	0,842500
4,850333	0,5	0,848100
4,858667	0,5	0,851150
4,867000	0,5	0,850600
4,875333	0,5	0,863200
4,883667	0,5	0,867750
4,892000	0,5	0,859900
4,900333	0,5	0,869750
4,908667	0,5	0,877000
4,917000	0,5	0,915000
4,925333	0,5	0,937300
4,933667	0,5	0,935600
4,942000	0,5	0,931650
4,950333	0,5	0,943900
4,958667	0,5	0,947050
4,967000	0,5	0,957700
4,975333	0,5	0,966300
4,983667	0,5	0,970400
4,992000	0,5	0,982650
5,000333	0,5	0,983250
5,008667	0,5	1,003650
5,017000	0,5	1,004950
5,025333	0,5	1,025150
5,033667	0,5	1,022600
5,042000	0,5	1,021850
5,050333	0,5	1,022900
5,058667	0,5	1,041550
5,067000	0,5	1,066800
5,075333	0,5	1,092400
5,083667	0,5	1,086250
5,092000	0,5	1,096350
5,100333	0,5	1,095900
5,108667	0,5	1,104100
5,117000	0,5	1,111600
5,125333	0,5	1,122700
5,133667	0,5	1,127150
5,142000	0,5	1,137900
5,150333	0,5	1,156050
5,158667	0,5	1,165900
5,167000	0,5	1,198650
5,175333	0,5	1,235900
5,183667	0,5	1,245400
5,192000	0,5	1,271900
5,200333	0,5	1,299100
5,208667	0,5	1,339000
5,217000	0,5	1,369200
5,225333	0,5	1,365000
5,233667	0,5	1,367250
5,242000	0,5	1,344700
5,250333	0,5	1,334900
5,258667	0,5	1,312050
5,267000	0,5	1,305750
5,275333	0,5	1,289500
5,283667	0,5	1,279800
5,292000	0,5	1,265500
5,300333	0,5	1,264050
5,308667	0,5	1,249050
5,317000	0,5	1,264250
5,325333	0,5	1,256400
5,333667	0,5	1,243100
5,342000	0,5	1,238450
5,350333	0,5	1,239900
5,358667	0,5	1,268100
5,367000	0,5	1,275450
5,375333	0,5	1,281550
5,383667	0,5	1,279250
5,392000	0,5	1,286800
5,400333	0,5	1,285950
5,408667	0,5	1,294600
5,417000	0,5	1,291750
5,425333	0,5	1,290150
5,433667	0,5	1,288650
5,442000	0,5	1,292450
5,450333	0,5	1,293750
5,458667	0,5	1,299200
5,467000	0,5	1,302150
5,475333	0,5	1,294950
5,483667	0,5	1,283400
5,492000	0,5	1,279650
5,500333	0,5	1,281300
5,508667	0,5	1,302650
5,517000	0,5	1,301550
5,525333	0,5	1,292300
5,533667	0,5	1,294000
5,542000	0,5	1,292750
5,550333	0,5	1,290600
5,558667	0,5	1,286650
5,567000	0,5	1,284050
5,575333	0,5	1,278550
5,583667	0,5	1,288850
5,592000	0,5	1,285900
5,600333	0,5	1,286750
5,608667	0,5	1,273550
5,617000	0,5	1,291900
5,625333	0,5	1,275650
5,633667	0,5	1,270950
5,642000	0,5	1,266850
5,650333	0,5	1,280850
5,658667	0,5	1,298200
5,667000	0,5	1,281850
5,675333	0,5	1,280550
5,683667	0,5	1,283750
5,692000	0,5	1,282850
5,700333	0,5	1,280150
5,708667	0,5	1,277000
5,717000	0,5	1,273500
5,725333	0,5	1,270100
5,733667	0,5	1,260700
5,742000	0,5	1,260650
5,750333	0,5	1,243350
5,758667	0,5	1,242400
5,767000	0,5	1,243800
5,775333	0,5	1,224300
5,783667	0,5	1,218550
5,792000	0,5	1,216450
5,800333	0,5	1,226900
5,808667	0,5	1,237000
5,817000	0,5	1,218650
5,825333	0,5	1,208850
5,833667	0,5	1,202900
5,842000	0,5	1,194000
5,850333	0,5	1,183500
5,858667	0,5	1,174050
5,867000	0,5	1,168950
5,875333	0,5	1,158850
5,883667	0,5	1,158000
5,892000	0,5	1,153050
5,900333	0,5	1,139750
5,908667	0,5	1,140250
5,917000	0,5	1,125200
5,925333	0,5	1,113800
5,933667	0,5	1,107950
5,942000	0,5	1,107350
5,950333	0,5	1,117600
5,958667	0,5	1,121400
5,967000	0,5	1,111700
5,975333	0,5	1,104750
5,983667	0,5	1,099950
5,992000	0,5	1,095450
6,000333	0,5	1,093400
6,008667	0,5	1,088250
6,017000	0,5	1,089900
6,025333	0,5	1,097750
6,033667	0,5	1,103050
6,042000	0,5	1,131650
6,050333	0,5	1,152550
6,058667	0,5	1,183900
6,067000	0,5	1,198700
6,075333	0,5	1,219500
6,083667	0,5	1,233850
6,092000	0,5	1,247400
6,100333	0,5	1,254000
6,108667	0,5	1,235700
6,117000	0,5	1,197650
6,125333	0,5	1,169950
6,133667	0,5	1,130900
6,142000	0,5	1,100500
6,150333	0,5	1,076100
6,158667	0,5	1,052650
6,167000	0,5	1,030450
6,175333	0,5	1,022350
6,183667	0,5	1,011600
6,192000	0,5	0,999450
6,200333	0,5	0,998750
6,208667	0,5	0,995850
6,217000	0,5	0,978850
6,225333	0,5	0,969550
6,233667	0,5	0,964900
6,242000	0,5	0,978600
6,250333	0,5	0,987050
6,258667	0,5	0,980800
6,267000	0,5	0,979850
6,275333	0,5	0,975600
6,283667	0,5	0,974900
6,292000	0,5	0,968850
6,300333	0,5	0,974300
6,308667	0,5	0,965300
6,317000	0,5	0,969000
6,325333	0,5	0,971650
6,333667	0,5	0,971650
6,342000	0,5	0,962550
6,350333	0,5	0,979000
6,358667	0,5	0,972200
6,367000	0,5	0,966950
6,375333	0,5	0,967900
6,383667	0,5	0,971550
6,392000	0,5	0,990500
6,400333	0,5	1,001350
6,408667	0,5	0,997550
6,417000	0,5	0,994800
6,425333	0,5	0,998400
6,433667	0,5	0,997950
6,442000	0,5	1,003350
6,450333	0,5	1,007150
6,458667	0,5	1,013850
6,467000	0,5	1,016000
6,475333	0,5	1,021400
6,483667	0,5	1,018450
6,492000	0,5	1,024950
6,500333	0,5	1,050900
6,508667	0,5	1,051200
6,517000	0,5	1,042200
6,525333	0,5	1,048100
6,533667	0,5	1,059600
6,542000	0,5	1,084950
6,550333	0,5	1,096050
6,558667	0,5	1,098450
6,567000	0,5	1,107750
6,575333	0,5	1,111000
6,583667	0,5	1,118650
6,592000	0,5	1,120150
6,600333	0,5	1,131700
6,608667	0,5	1,137650
6,617000	0,5	1,152800
6,625333	0,5	1,158550
6,633667	0,5	1,172050
6,642000	0,5	1,180650
6,650333	0,5	1,204200
6,658667	0,5	1,205050
6,667000	0,5	1,213050
6,675333	0,5	1,228050
6,683667	0,5	1,252100
6,692000	0,5	1,279350
6,700333	0,5	1,286900
6,708667	0,5	1,295650
6,717000	0,5	1,319450
6,725333	0,5	1,328600
6,733667	0,5	1,341700
6,742000	0,5	1,359700
6,750333	0,5	1,371850
6,758667	0,5	1,387800
6,767000	0,5	1,397650
6,775333	0,5	1,427500
6,783667	0,5	1,435400
6,792000	0,5	1,469300
6,800333	0,5	1,497050
6,808667	0,5	1,533050
6,817000	0,5	1,581550
6,825333	0,5	1,656550
6,833667	0,5	1,760300
6,842000	0,5	1,871500
6,850333	0,5	1,978900
6,858667	0,5	2,093000
6,867000	0,5	2,185800
6,875333	0,5	2,249550
6,883667	0,5	2,271650
6,892000	0,5	2,256100
6,900333	0,5	2,200000
6,908667	0,5	2,127250
6,917000	0,5	2,036000
6,925333	0,5	1,938050
6,933667	0,5	1,856950
6,942000	0,5	1,798150
6,950333	0,5	1,745350
6,958667	0,5	1,703200
6,967000	0,5	1,675700
6,975333	0,5	1,669000
6,983667	0,5	1,677900
6,992000	0,5	1,669250
7,000333	0,5	1,666000
7,008667	0,5	1,659800
7,017000	0,5	1,665350
7,025333	0,5	1,660600
7,033667	0,5	1,664200
7,042000	0,5	1,663650
7,050333	0,5	1,667100
7,058667	0,5	1,662300
7,067000	0,5	1,670050
7,075333	0,5	1,669300
7,083667	0,5	1,674300
7,092000	0,5	1,692450
7,100333	0,5	1,676800
7,108667	0,5	1,682950
7,117000	0,5	1,690000
7,125333	0,5	1,707050
7,133667	0,5	1,723600
7,142000	0,5	1,728050
7,150333	0,5	1,722650
7,158667	0,5	1,721350
7,167000	0,5	1,716200
7,175333	0,5	1,718750
7,183667	0,5	1,715650
7,192000	0,5	1,713950
7,200333	0,5	1,710400
7,208667	0,5	1,719450
7,217000	0,5	1,731150
7,225333	0,5	1,739700
7,233667	0,5	1,761600
7,242000	0,5	1,786250
7,250333	0,5	1,810100
7,258667	0,5	1,845250
7,267000	0,5	1,898250
7,275333	0,5	1,963100
7,283667	0,5	2,017750
7,292000	0,5	2,047500
7,300333	0,5	2,062900
7,308667	0,5	2,062850
7,317000	0,5	2,061050
7,325333	0,5	2,073600
7,333667	0,5	2,104450
7,342000	0,5	2,155100
7,350333	0,5	2,230450
7,358667	0,5	2,317050
7,367000	0,5	2,397450
7,375333	0,5	2,461200
7,383667	0,5	2,525150
7,392000	0,5	2,534450
7,400333	0,5	2,525750
7,408667	0,5	2,497150
7,417000	0,5	2,461100
7,425333	0,5	2,421100
7,433667	0,5	2,367500
7,442000	0,5	2,308850
7,450333	0,5	2,255050
7,458667	0,5	2,217300
7,467000	0,5	2,181950
7,475333	0,5	2,150450
7,483667	0,5	2,124400
7,492000	0,5	2,099600
7,500333	0,5	2,080600
7,508667	0,5	2,060400
7,517000	0,5	2,040200
7,525333	0,5	2,018100
7,533667	0,5	2,008900
7,542000	0,5	1,980850
7,550333	0,5	1,961600
7,558667	0,5	1,944800
7,567000	0,5	1,935450
7,575333	0,5	1,944850
7,583667	0,5	1,933950
7,592000	0,5	1,935250
7,600333	0,5	1,929600
7,608667	0,5	1,922550
7,617000	0,5	1,913150
7,625333	0,5	1,907850
7,633667	0,5	1,902650
7,642000	0,5	1,893300
7,650333	0,5	1,884000
7,658667	0,5	1,876550
7,667000	0,5	1,871650
7,675333	0,5	1,869850
7,683667	0,5	1,861950
7,692000	0,5	1,851700
7,700333	0,5	1,848450
7,708667	0,5	1,851950
7,717000	0,5	1,859300
7,725333	0,5	1,879750
7,733667	0,5	1,891850
7,742000	0,5	1,895650
7,750333	0,5	1,902750
7,758667	0,5	1,903800
7,767000	0,5	1,905350
7,775333	0,5	1,895750
7,783667	0,5	1,891300
7,792000	0,5	1,885850
7,800333	0,5	1,882950
7,808667	0,5	1,876950
7,817000	0,5	1,872700
7,825333	0,5	1,879500
7,833667	0,5	1,889950
7,842000	0,5	1,906250
7,850333	0,5	1,927800
7,858667	0,5	1,973750
7,867000	0,5	2,037450
7,875333	0,5	2,091550
7,883667	0,5	2,113250
7,892000	0,5	2,104900
7,900333	0,5	2,074250
7,908667	0,5	2,028800
7,917000	0,5	1,981900
7,925333	0,5	1,949500
7,933667	0,5	1,928700
7,942000	0,5	1,918450
7,950333	0,5	1,923100
7,958667	0,5	1,933050
7,967000	0,5	1,950150
7,975333	0,5	1,991000
7,983667	0,5	2,021650
7,992000	0,5	2,055250
8,000333	0,5	2,067000
8,008667	0,5	2,068600
8,017000	0,5	2,062000
8,025333	0,5	2,031350
8,033667	0,5	2,007000
8,042000	0,5	1,980200
8,050333	0,5	1,969300
8,058667	0,5	1,966050
8,067000	0,5	1,981250
8,075333	0,5	2,012000
8,083667	0,5	2,071250
8,092000	0,5	2,167200
8,100333	0,5	2,296550
8,108667	0,5	2,431400
8,117000	0,5	2,555350
8,125333	0,5	2,628250
8,133667	0,5	2,631850
8,142000	0,5	2,581300
8,150333	0,5	2,512600
8,158667	0,5	2,440150
8,167000	0,5	2,379000
8,175333	0,5	2,320600
8,183667	0,5	2,269750
8,192000	0,5	2,228250
8,200333	0,5	2,192550
8,208667	0,5	2,166900
8,217000	0,5	2,142950
8,225333	0,5	2,130800
8,233667	0,5	2,116000
8,242000	0,5	2,100600
8,250333	0,5	2,085250
8,258667	0,5	2,072750
8,267000	0,5	2,076750
8,275333	0,5	2,087250
8,283667	0,5	2,114000
8,292000	0,5	2,153600
8,300333	0,5	2,180350
8,308667	0,5	2,167050
8,317000	0,5	2,108800
8,325333	0,5	2,012400
8,333667	0,5	1,918750
8,342000	0,5	1,843450
8,350333	0,5	1,792550
8,358667	0,5	1,761550
8,367000	0,5	1,744600
8,375333	0,5	1,749200
8,383667	0,5	1,755250
8,392000	0,5	1,790250
8,400333	0,5	1,843250
8,408667	0,5	1,885950
8,417000	0,5	1,921450
8,425333	0,5	1,922000
8,433667	0,5	1,891100
8,442000	0,5	1,846000
8,450333	0,5	1,798700
8,458667	0,5	1,766850
8,467000	0,5	1,740450
8,475333	0,5	1,719400
8,483667	0,5	1,714850
8,492000	0,5	1,711100
8,500333	0,5	1,714400
8,508667	0,5	1,716900
8,517000	0,5	1,715150
8,525333	0,5	1,708650
8,533667	0,5	1,703550
8,542000	0,5	1,699250
8,550333	0,5	1,682350
8,558667	0,5	1,678950
8,567000	0,5	1,676500
8,575333	0,5	1,666900
8,583667	0,5	1,664100
8,592000	0,5	1,662000
8,600333	0,5	1,668600
8,608667	0,5	1,681550
8,617000	0,5	1,684300
8,625333	0,5	1,688400
8,633667	0,5	1,691900
8,642000	0,5	1,697250
8,650333	0,5	1,698600
8,658667	0,5	1,696500
8,667000	0,5	1,700450
8,675333	0,5	1,701750
8,683667	0,5	1,701850
8,692000	0,5	1,714100
8,700333	0,5	1,718650
8,708667	0,5	1,731450
8,717000	0,5	1,741050
8,725333	0,5	1,752600
8,733667	0,5	1,759900
8,742000	0,5	1,772250
8,750333	0,5	1,793400
8,758667	0,5	1,805450
8,767000	0,5	1,823750
8,775333	0,5	1,831100
8,783667	0,5	1,838900
8,792000	0,5	1,842200
8,800333	0,5	1,843000
8,808667	0,5	1,840500
8,817000	0,5	1,843000
8,825333	0,5	1,858350
8,833667	0,5	1,880850
8,842000	0,5	1,911600
8,850333	0,5	1,944200
8,858667	0,5	1,962400
8,867000	0,5	1,961250
8,875333	0,5	1,920950
8,883667	0,5	1,884800
8,892000	0,5	1,850250
8,900333	0,5	1,832200
8,908667	0,5	1,826100
8,917000	0,5	1,823850
8,925333	0,5	1,823600
8,933667	0,5	1,822100
8,942000	0,5	1,824600
8,950333	0,5	1,824650
8,958667	0,5	1,818100
8,967000	0,5	1,806250
8,975333	0,5	1,788600
8,983667	0,5	1,768850
8,992000	0,5	1,744250
9,000333	0,5	1,726350
9,008667	0,5	1,722800
9,017000	0,5	1,716700
9,025333	0,5	1,720100
9,033667	0,5	1,730450
9,042000	0,5	1,733900
9,050333	0,5	1,745050
9,058667	0,5	1,759150
9,067000	0,5	1,770900
9,075333	0,5	1,793800
9,083667	0,5	1,829250
9,092000	0,5	1,868150
9,100333	0,5	1,900600
9,108667	0,5	1,916350
9,117000	0,5	1,908350
9,125333	0,5	1,873900
9,133667	0,5	1,828700
9,142000	0,5	1,780150
9,150333	0,5	1,743950
9,158667	0,5	1,720650
9,167000	0,5	1,701500
9,175333	0,5	1,687450
9,183667	0,5	1,684300
9,192000	0,5	1,685300
9,200333	0,5	1,697400
9,208667	0,5	1,710550
9,217000	0,5	1,736250
9,225333	0,5	1,763850
9,233667	0,5	1,802300
9,242000	0,5	1,831150
9,250333	0,5	1,844500
9,258667	0,5	1,830550
9,267000	0,5	1,810200
9,275333	0,5	1,781750
9,283667	0,5	1,755750
9,292000	0,5	1,733550
9,300333	0,5	1,722200
9,308667	0,5	1,715850
9,317000	0,5	1,709300
9,325333	0,5	1,704650
9,333667	0,5	1,698750
9,342000	0,5	1,689000
9,350333	0,5	1,681000
9,358667	0,5	1,666800
9,367000	0,5	1,649650
9,375333	0,5	1,635950
9,383667	0,5	1,622950
9,392000	0,5	1,605050
9,400333	0,5	1,592900
9,408667	0,5	1,585750
9,417000	0,5	1,579700
9,425333	0,5	1,567250
9,433667	0,5	1,565700
9,442000	0,5	1,557250
9,450333	0,5	1,553600
9,458667	0,5	1,548200
9,467000	0,5	1,543400
9,475333	0,5	1,537600
9,483667	0,5	1,532850
9,492000	0,5	1,529200
9,500333	0,5	1,529300
9,508667	0,5	1,526400
9,517000	0,5	1,532650
9,525333	0,5	1,534000
9,533667	0,5	1,542900
9,542000	0,5	1,547750
9,550333	0,5	1,558200
9,558667	0,5	1,573850
9,567000	0,5	1,591700
9,575333	0,5	1,601250
9,583667	0,5	1,599900
9,592000	0,5	1,591300
9,600333	0,5	1,570950
9,608667	0,5	1,547100
9,617000	0,5	1,523800
9,625333	0,5	1,498050
9,633667	0,5	1,480750
9,642000	0,5	1,467700
9,650333	0,5	1,458050
9,658667	0,5	1,449650
9,667000	0,5	1,439450
9,675333	0,5	1,438900
9,683667	0,5	1,436300
9,692000	0,5	1,432950
9,700333	0,5	1,431800
9,708667	0,5	1,439950
9,717000	0,5	1,440200
9,725333	0,5	1,446850
9,733667	0,5	1,454950
9,742000	0,5	1,463150
9,750333	0,5	1,476300
9,758667	0,5	1,496350
9,767000	0,5	1,523900
9,775333	0,5	1,559750
9,783667	0,5	1,613150
9,792000	0,5	1,686500
9,800333	0,5	1,777300
9,808667	0,5	1,877150
9,817000	0,5	1,992100
9,825333	0,5	2,107500
9,833667	0,5	2,215350
9,842000	0,5	2,299200
9,850333	0,5	2,348750
9,858667	0,5	2,358800
9,867000	0,5	2,319300
9,875333	0,5	2,249600
9,883667	0,5	2,156750
9,892000	0,5	2,049050
9,900333	0,5	1,944300
9,908667	0,5	1,838500
9,917000	0,5	1,744400
9,925333	0,5	1,661800
9,933667	0,5	1,597950
9,942000	0,5	1,542950
9,950333	0,5	1,504850
9,958667	0,5	1,478450
9,967000	0,5	1,462800
9,975333	0,5	1,450550
9,983667	0,5	1,444400
9,992000	0,5	1,445800
10,000333	0,5	1,457050
10,008667	0,5	1,462900
10,017000	0,5	1,481100
10,025333	0,5	1,508100
10,033667	0,5	1,535300
10,042000	0,5	1,563650
10,050333	0,5	1,590900
10,058667	0,5	1,612900
10,067000	0,5	1,624200
10,075333	0,5	1,621850
10,083667	0,5	1,615850
10,092000	0,5	1,608350
10,100333	0,5	1,594800
10,108667	0,5	1,581400
10,117000	0,5	1,581300
10,125333	0,5	1,586350
10,133667	0,5	1,596150
10,142000	0,5	1,613650
10,150333	0,5	1,629000
10,158667	0,5	1,645500
10,167000	0,5	1,646850
10,175333	0,5	1,637050
10,183667	0,5	1,608550
10,192000	0,5	1,580350
10,200333	0,5	1,541550
10,208667	0,5	1,503600
10,217000	0,5	1,468550
10,225333	0,5	1,433300
10,233667	0,5	1,414200
10,242000	0,5	1,402500
10,250333	0,5	1,387150
10,258667	0,5	1,374300
10,267000	0,5	1,365450
10,275333	0,5	1,359050
10,283667	0,5	1,354550
10,292000	0,5	1,361050
10,300333	0,5	1,363000
10,308667	0,5	1,370000
10,317000	0,5	1,383150
10,325333	0,5	1,389050
10,333667	0,5	1,397200
10,342000	0,5	1,408100
10,350333	0,5	1,414650
10,358667	0,5	1,420950
10,367000	0,5	1,418950
10,375333	0,5	1,416650
10,383667	0,5	1,421000
10,392000	0,5	1,421000
10,400333	0,5	1,427550
10,408667	0,5	1,444650
10,417000	0,5	1,469800
10,425333	0,5	1,504950
10,433667	0,5	1,544750
10,442000	0,5	1,586950
10,450333	0,5	1,622500
10,458667	0,5	1,638800
10,467000	0,5	1,638600
10,475333	0,5	1,618400
10,483667	0,5	1,586650
10,492000	0,5	1,550850
10,500333	0,5	1,502600
10,508667	0,5	1,461200
10,517000	0,5	1,422600
10,525333	0,5	1,390200
10,533667	0,5	1,370300
10,542000	0,5	1,344500
10,550333	0,5	1,331400
10,558667	0,5	1,319700
10,567000	0,5	1,310400
10,575333	0,5	1,306700
10,583667	0,5	1,301750
10,592000	0,5	1,293700
10,600333	0,5	1,289100
10,608667	0,5	1,281600
10,617000	0,5	1,284100
10,625333	0,5	1,279600
10,633667	0,5	1,290550
10,642000	0,5	1,307700
10,650333	0,5	1,326300
10,658667	0,5	1,348000
10,667000	0,5	1,367150
10,675333	0,5	1,378550
10,683667	0,5	1,373450
10,692000	0,5	1,351200
10,700333	0,5	1,321050
10,708667	0,5	1,277400
10,717000	0,5	1,234250
10,725333	0,5	1,195550
10,733667	0,5	1,165200
10,742000	0,5	1,150350
10,750333	0,5	1,145900
10,758667	0,5	1,158000
10,767000	0,5	1,175250
10,775333	0,5	1,195250
10,783667	0,5	1,225500
10,792000	0,5	1,244950
10,800333	0,5	1,259600
10,808667	0,5	1,275200
10,817000	0,5	1,277450
10,825333	0,5	1,296450
10,833667	0,5	1,303650
10,842000	0,5	1,312400
10,850333	0,5	1,314000
10,858667	0,5	1,315900
10,867000	0,5	1,315600
10,875333	0,5	1,310300
10,883667	0,5	1,299050
10,892000	0,5	1,286650
10,900333	0,5	1,274500
10,908667	0,5	1,262750
10,917000	0,5	1,250000
10,925333	0,5	1,244350
10,933667	0,5	1,241100
10,942000	0,5	1,240350
10,950333	0,5	1,235750
10,958667	0,5	1,233150
10,967000	0,5	1,234000
10,975333	0,5	1,242100
10,983667	0,5	1,248350
10,992000	0,5	1,253300
11,000333	0,5	1,255600
11,008667	0,5	1,262350
11,017000	0,5	1,269650
11,025333	0,5	1,276800
11,033667	0,5	1,283450
11,042000	0,5	1,286250
11,050333	0,5	1,304150
11,058667	0,5	1,328650
11,067000	0,5	1,349500
11,075333	0,5	1,374450
11,083667	0,5	1,391150
11,092000	0,5	1,399350
11,100333	0,5	1,393100
11,108667	0,5	1,369100
11,117000	0,5	1,346800
11,125333	0,5	1,330000
11,133667	0,5	1,310000
11,142000	0,5	1,296400
11,150333	0,5	1,286050
11,158667	0,5	1,280650
11,167000	0,5	1,284050
11,175333	0,5	1,288550
11,183667	0,5	1,279100
11,192000	0,5	1,271750
11,200333	0,5	1,261200
11,208667	0,5	1,246950
11,217000	0,5	1,222650
11,225333	0,5	1,213750
11,233667	0,5	1,201600
11,242000	0,5	1,190000
11,250333	0,5	1,187250
11,258667	0,5	1,179400
11,267000	0,5	1,185850
11,275333	0,5	1,196850
11,283667	0,5	1,209600
11,292000	0,5	1,232100
11,300333	0,5	1,260500
11,308667	0,5	1,313050
11,317000	0,5	1,381450
11,325333	0,5	1,471150
11,333667	0,5	1,566600
11,342000	0,5	1,663200
11,350333	0,5	1,738500
11,358667	0,5	1,767600
11,367000	0,5	1,767650
11,375333	0,5	1,728550
11,383667	0,5	1,661000
11,392000	0,5	1,588350
11,400333	0,5	1,522500
11,408667	0,5	1,467350
11,417000	0,5	1,437200
11,425333	0,5	1,412300
11,433667	0,5	1,404850
11,442000	0,5	1,403200
11,450333	0,5	1,399700
11,458667	0,5	1,400850
11,467000	0,5	1,405550
11,475333	0,5	1,420700
11,483667	0,5	1,449200
11,492000	0,5	1,502950
11,500333	0,5	1,576500
11,508667	0,5	1,680400
11,517000	0,5	1,814550
11,525333	0,5	1,969600
11,533667	0,5	2,121700
11,542000	0,5	2,262600
11,550333	0,5	2,380500
11,558667	0,5	2,471400
11,567000	0,5	2,523750
11,575333	0,5	2,530400
11,583667	0,5	2,490800
11,592000	0,5	2,413550
11,600333	0,5	2,314000
11,608667	0,5	2,216400
11,617000	0,5	2,131600
11,625333	0,5	2,070150
11,633667	0,5	2,041700
11,642000	0,5	2,030250
11,650333	0,5	2,030150
11,658667	0,5	2,023800
11,667000	0,5	2,012850
11,675333	0,5	1,980250
11,683667	0,5	1,929150
11,692000	0,5	1,856100
11,700333	0,5	1,771800
11,708667	0,5	1,689000
11,717000	0,5	1,608150
11,725333	0,5	1,534850
11,733667	0,5	1,480950
11,742000	0,5	1,433000
11,750333	0,5	1,409200
11,758667	0,5	1,392150
11,767000	0,5	1,395600
11,775333	0,5	1,397600
11,783667	0,5	1,402350
11,792000	0,5	1,406400
11,800333	0,5	1,397300
11,808667	0,5	1,376000
11,817000	0,5	1,356750
11,825333	0,5	1,328900
11,833667	0,5	1,296400
11,842000	0,5	1,263700
11,850333	0,5	1,234800
11,858667	0,5	1,227150
11,867000	0,5	1,207150
11,875333	0,5	1,197850
11,883667	0,5	1,191600
11,892000	0,5	1,192450
11,900333	0,5	1,194600
11,908667	0,5	1,196100
11,917000	0,5	1,201150
11,925333	0,5	1,208350
11,933667	0,5	1,218250
11,942000	0,5	1,233700
11,950333	0,5	1,232750
11,958667	0,5	1,248900
11,967000	0,5	1,263200
11,975333	0,5	1,271700
11,983667	0,5	1,272900
11,992000	0,5	1,270600
12,000333	0,5	1,270150
12,008667	0,5	1,268350
12,017000	0,5	1,261200
12,025333	0,5	1,257450
12,033667	0,5	1,258200
12,042000	0,5	1,258100
12,050333	0,5	1,265000
12,058667	0,5	1,274300
12,067000	0,5	1,289600
12,075333	0,5	1,294400
12,083667	0,5	1,313150
12,092000	0,5	1,324200
12,100333	0,5	1,336050
12,108667	0,5	1,355300
12,117000	0,5	1,364650
12,125333	0,5	1,374750
12,133667	0,5	1,375650
12,142000	0,5	1,374900
12,150333	0,5	1,378600
12,158667	0,5	1,380400
12,167000	0,5	1,371900
12,175333	0,5	1,367500
12,183667	0,5	1,360350
12,192000	0,5	1,357550
12,200333	0,5	1,353900
12,208667	0,5	1,367050
12,217000	0,5	1,374050
12,225333	0,5	1,390000
12,233667	0,5	1,408100
12,242000	0,5	1,431350
12,250333	0,5	1,453200
12,258667	0,5	1,488900
12,267000	0,5	1,526100
12,275333	0,5	1,581450
12,283667	0,5	1,649500
12,292000	0,5	1,737150
12,300333	0,5	1,849100
12,308667	0,5	1,966850
12,317000	0,5	2,067850
12,325333	0,5	2,162100
12,333667	0,5	2,231200
12,342000	0,5	2,269350
12,350333	0,5	2,277800
12,358667	0,5	2,264300
12,367000	0,5	2,223700
12,375333	0,5	2,171450
12,383667	0,5	2,111700
12,392000	0,5	2,032850
12,400333	0,5	1,976400
12,408667	0,5	1,932200
12,417000	0,5	1,891500
12,425333	0,5	1,880500
12,433667	0,5	1,880700
12,442000	0,5	1,895450
12,450333	0,5	1,915550
12,458667	0,5	1,927700
12,467000	0,5	1,942700
12,475333	0,5	1,951650
12,483667	0,5	1,955550
12,492000	0,5	1,958750
12,500333	0,5	1,950750
12,508667	0,5	1,944850
12,517000	0,5	1,917400
12,525333	0,5	1,885650
12,533667	0,5	1,834750
12,542000	0,5	1,771950
12,550333	0,5	1,711900
12,558667	0,5	1,647700
12,567000	0,5	1,577050
12,575333	0,5	1,508650
12,583667	0,5	1,440350
12,592000	0,5	1,398700
12,600333	0,5	1,349900
12,608667	0,5	1,309350
12,617000	0,5	1,271850
12,625333	0,5	1,243850
12,633667	0,5	1,216750
12,642000	0,5	1,199050
12,650333	0,5	1,178900
12,658667	0,5	1,160150
12,667000	0,5	1,144150
12,675333	0,5	1,133900
12,683667	0,5	1,112550
12,692000	0,5	1,098700
12,700333	0,5	1,092950
12,708667	0,5	1,087050
12,717000	0,5	1,071750
12,725333	0,5	1,056200
12,733667	0,5	1,045250
12,742000	0,5	1,050750
12,750333	0,5	1,045650
12,758667	0,5	1,038350
12,767000	0,5	1,036600
12,775333	0,5	1,032900
12,783667	0,5	1,037650
12,792000	0,5	1,042450
12,800333	0,5	1,041900
12,808667	0,5	1,038500
12,817000	0,5	1,030100
12,825333	0,5	1,021050
12,833667	0,5	0,996300
12,842000	0,5	0,987700
12,850333	0,5	0,973400
12,858667	0,5	0,965150
12,867000	0,5	0,945250
12,875333	0,5	0,928500
12,883667	0,5	0,930300
12,892000	0,5	0,946900
12,900333	0,5	0,964200
12,908667	0,5	0,996500
12,917000	0,5	1,035450
12,925333	0,5	1,087500
12,933667	0,5	1,130100
12,942000	0,5	1,146350
12,950333	0,5	1,125050
12,958667	0,5	1,076300
12,967000	0,5	1,016100
12,975333	0,5	0,941800
12,983667	0,5	0,844200
12,992000	0,5	0,773350
13,000333	0,5	0,699150
13,008667	0,5	0,635050
13,017000	0,5	0,524000
13,025333	0,5	0,376400
13,033667	0,5	0,174800
13,042000	0,5	-0,168150
13,050333	0,5	-0,607500
13,058667	0,5	-0,959150
13,067000	0,5	-1,252650
13,075333	0,5	-1,532450
13,083667	0,5	-1,734550
13,092000	0,5	-1,870850
13,100333	0,5	-1,970700
13,108667	0,5	-2,051600
13,117000	0,5	-2,113250
13,125333	0,5	-2,180750
13,133667	0,5	-2,248050
13,142000	0,5	-2,296600
13,150333	0,5	-2,352100
13,158667	0,5	-2,399650
13,167000	0,5	-2,446400
13,175333	0,5	-2,491350
13,183667	0,5	-2,518400
13,192000	0,5	-2,532700
13,200333	0,5	-2,547950
13,208667	0,5	-2,557800
13,217000	0,5	-2,557300
13,225333	0,5	-2,550250
13,233667	0,5	-2,539900
13,242000	0,5	-2,523950
13,250333	0,5	-2,499900
13,258667	0,5	-2,465550
13,267000	0,5	-2,431700
13,275333	0,5	-2,406750
13,283667	0,5	-2,383050
13,292000	0,5	-2,359650
13,300333	0,5	-2,350150
13,308667	0,5	-2,344600
13,317000	0,5	-2,358200
13,325333	0,5	-2,358000
13,333667	0,5	-2,368100
13,342000	0,5	-2,382800
13,350333	0,5	-2,397750
13,358667	0,5	-2,412600
13,367000	0,5	-2,429600
13,375333	0,5	-2,447350
13,383667	0,5	-2,458700
13,392000	0,5	-2,469350
13,400333	0,5	-2,469600
13,408667	0,5	-2,469850
13,417000	0,5	-2,463400
13,425333	0,5	-2,463900
13,433667	0,5	-2,439600
13,442000	0,5	-2,414150
13,450333	0,5	-2,381600
13,458667	0,5	-2,349750
13,467000	0,5	-2,311150
13,475333	0,5	-2,266850
13,483667	0,5	-2,219450
13,492000	0,5	-2,185600
13,500333	0,5	-2,159250
13,508667	0,5	-2,141700
13,517000	0,5	-2,129950
13,525333	0,5	-2,136600
13,533667	0,5	-2,140900
13,542000	0,5	-2,151900
13,550333	0,5	-2,168650
13,558667	0,5	-2,169850
13,567000	0,5	-2,191850
13,575333	0,5	-2,200250
13,583667	0,5	-2,207950
13,592000	0,5	-2,211050
13,600333	0,5	-2,220850
13,608667	0,5	-2,228300
13,617000	0,5	-2,233600
13,625333	0,5	-2,219400
13,633667	0,5	-2,216750
13,642000	0,5	-2,211500
13,650333	0,5	-2,209700
13,658667	0,5	-2,196700
13,667000	0,5	-2,197900
13,675333	0,5	-2,184850
13,683667	0,5	-2,176350
13,692000	0,5	-2,165650
13,700333	0,5	-2,150350
13,708667	0,5	-2,129350
13,717000	0,5	-2,121450
13,725333	0,5	-2,086950
13,733667	0,5	-2,058300
13,742000	0,5	-2,025400
13,750333	0,5	-1,990650
13,758667	0,5	-1,970700
13,767000	0,5	-1,930300
13,775333	0,5	-1,902050
13,783667	0,5	-1,876700
13,792000	0,5	-1,865800
13,800333	0,5	-1,843300
13,808667	0,5	-1,832000
13,817000	0,5	-1,812300
13,825333	0,5	-1,796300
13,833667	0,5	-1,770650
13,842000	0,5	-1,753350
13,850333	0,5	-1,730950
13,858667	0,5	-1,693900
13,867000	0,5	-1,670250
13,875333	0,5	-1,627700
13,883667	0,5	-1,591300
13,892000	0,5	-1,570700
13,900333	0,5	-1,539450
13,908667	0,5	-1,531550
13,917000	0,5	-1,498350
13,925333	0,5	-1,469550
13,933667	0,5	-1,455400
13,942000	0,5	-1,435400
13,950333	0,5	-1,429500
13,958667	0,5	-1,411800
13,967000	0,5	-1,400900
13,975333	0,5	-1,379600
13,983667	0,5	-1,369400
13,992000	0,5	-1,349650
14,000333	0,5	-1,320500
14,008667	0,5	-1,295100
14,017000	0,5	-1,282500
14,025333	0,5	-1,244750
14,033667	0,5	-1,226050
14,042000	0,5	-1,198800
14,050333	0,5	-1,178300
14,058667	0,5	-1,157650
14,067000	0,5	-1,104550
14,075333	0,5	-1,054600
14,083667	0,5	-0,992400
14,092000	0,5	-0,918750
14,100333	0,5	-0,834000
14,108667	0,5	-0,736600
14,117000	0,5	-0,626350
14,125333	0,5	-0,527550
14,133667	0,5	-0,431500
14,142000	0,5	-0,358550
14,150333	0,5	-0,296350
14,158667	0,5	-0,266300
14,167000	0,5	-0,237400
14,175333	0,5	-0,235200
14,183667	0,5	-0,234050
14,192000	0,5	-0,247050
14,200333	0,5	-0,258600
14,208667	0,5	-0,254350
14,217000	0,5	-0,219300
14,225333	0,5	-0,165400
14,233667	0,5	-0,089250
14,242000	0,5	-0,000850
14,250333	0,5	0,088300
14,258667	0,5	0,162900
14,267000	0,5	0,218650
14,275333	0,5	0,253250
14,283667	0,5	0,253500
14,292000	0,5	0,252500
14,300333	0,5	0,223800
14,308667	0,5	0,184750
14,317000	0,5	0,166850
14,325333	0,5	0,152950
14,333667	0,5	0,136400
14,342000	0,5	0,127100
14,350333	0,5	0,110150
14,358667	0,5	0,102250
14,367000	0,5	0,103250
14,375333	0,5	0,107600
14,383667	0,5	0,101200
14,392000	0,5	0,104150
14,400333	0,5	0,099000
14,408667	0,5	0,102850
14,417000	0,5	0,107850
14,425333	0,5	0,108400
14,433667	0,5	0,118200
14,442000	0,5	0,123400
14,450333	0,5	0,121250
14,458667	0,5	0,113900
14,467000	0,5	0,128150
14,475333	0,5	0,140750
14,483667	0,5	0,150100
14,492000	0,5	0,161400
14,500333	0,5	0,179350
14,508667	0,5	0,195350
14,517000	0,5	0,214700
14,525333	0,5	0,211350
14,533667	0,5	0,210900
14,542000	0,5	0,198600
14,550333	0,5	0,178650
14,558667	0,5	0,154050
14,567000	0,5	0,140500
14,575333	0,5	0,126500
14,583667	0,5	0,110400
14,592000	0,5	0,106700
14,600333	0,5	0,084500
14,608667	0,5	0,090600
14,617000	0,5	0,091000
14,625333	0,5	0,085550
14,633667	0,5	0,080500
14,642000	0,5	0,068450
14,650333	0,5	0,071800
14,658667	0,5	0,080950
14,667000	0,5	0,082950
14,675333	0,5	0,095750
14,683667	0,5	0,109750
14,692000	0,5	0,133900
14,700333	0,5	0,176400
14,708667	0,5	0,261650
14,717000	0,5	0,368300
14,725333	0,5	0,486400
14,733667	0,5	0,604750
14,742000	0,5	0,689150
14,750333	0,5	0,697850
14,758667	0,5	0,679250
14,767000	0,5	0,615650
14,775333	0,5	0,534100
14,783667	0,5	0,464100
14,792000	0,5	0,408650
14,800333	0,5	0,421700
14,808667	0,5	0,450200
14,817000	0,5	0,512800
14,825333	0,5	0,579700
14,833667	0,5	0,632650
14,842000	0,5	0,648800
14,850333	0,5	0,619750
14,858667	0,5	0,568300
14,867000	0,5	0,486100
14,875333	0,5	0,407100
14,883667	0,5	0,345600
14,892000	0,5	0,290550
14,900333	0,5	0,238250
14,908667	0,5	0,221400
14,917000	0,5	0,201800
14,925333	0,5	0,176550
14,933667	0,5	0,152050
14,942000	0,5	0,141550
14,950333	0,5	0,146450
14,958667	0,5	0,161850
14,967000	0,5	0,161150
14,975333	0,5	0,178200
14,983667	0,5	0,184050
14,992000	0,5	0,183250
15,000333	0,5	0,169300
15,008667	0,5	0,164900
15,017000	0,5	0,147250
15,025333	0,5	0,137800
15,033667	0,5	0,136000
15,042000	0,5	0,127750
15,050333	0,5	0,121500
15,058667	0,5	0,114150
15,067000	0,5	0,096150
15,075333	0,5	0,065150
15,083667	0,5	0,037450
15,092000	0,5	0,014400
15,100333	0,5	0,017250
15,108667	0,5	0,004900
15,117000	0,5	-0,004250
15,125333	0,5	-0,009000
15,133667	0,5	-0,018750
15,142000	0,5	-0,029750
15,150333	0,5	-0,033000
15,158667	0,5	-0,041250
15,167000	0,5	-0,044200
15,175333	0,5	-0,050600
15,183667	0,5	-0,038450
15,192000	0,5	-0,037400
15,200333	0,5	0,003100
15,208667	0,5	0,061450
15,217000	0,5	0,148400
15,225333	0,5	0,254100
15,233667	0,5	0,378600
15,242000	0,5	0,497550
15,250333	0,5	0,585050
15,258667	0,5	0,603300
15,267000	0,5	0,557200
15,275333	0,5	0,492700
15,283667	0,5	0,427750
15,292000	0,5	0,402550
15,300333	0,5	0,412250
15,308667	0,5	0,461600
15,317000	0,5	0,512600
15,325333	0,5	0,566450
15,333667	0,5	0,557200
15,342000	0,5	0,511350
15,350333	0,5	0,449950
15,358667	0,5	0,367250
15,367000	0,5	0,289400
15,375333	0,5	0,220000
15,383667	0,5	0,174550
15,392000	0,5	0,161250
15,400333	0,5	0,153650
15,408667	0,5	0,156150
15,417000	0,5	0,140250
15,425333	0,5	0,135400
15,433667	0,5	0,118550
15,442000	0,5	0,109550
15,450333	0,5	0,111000
15,458667	0,5	0,098100
15,467000	0,5	0,104350
15,475333	0,5	0,107000
15,483667	0,5	0,097500
15,492000	0,5	0,098600
15,500333	0,5	0,102500
15,508667	0,5	0,082000
15,517000	0,5	0,057150
15,525333	0,5	0,009350
15,533667	0,5	-0,018650
15,542000	0,5	-0,036750
15,550333	0,5	-0,055500
15,558667	0,5	-0,079000
15,567000	0,5	-0,090000
15,575333	0,5	-0,109100
15,583667	0,5	-0,121800
15,592000	0,5	-0,128000
15,600333	0,5	-0,142800
15,608667	0,5	-0,158050
15,617000	0,5	-0,163450
15,625333	0,5	-0,159100
15,633667	0,5	-0,175450
15,642000	0,5	-0,149850
15,650333	0,5	-0,121900
15,658667	0,5	-0,078300
15,667000	0,5	-0,008850
15,675333	0,5	0,089100
15,683667	0,5	0,224350
15,692000	0,5	0,367950
15,700333	0,5	0,460200
15,708667	0,5	0,506400
15,717000	0,5	0,484000
15,725333	0,5	0,450100
15,733667	0,5	0,406500
15,742000	0,5	0,393450
15,750333	0,5	0,413350
15,758667	0,5	0,442700
15,767000	0,5	0,474100
15,775333	0,5	0,449900
15,783667	0,5	0,393050
15,792000	0,5	0,321000
15,800333	0,5	0,240250
15,808667	0,5	0,150250
15,817000	0,5	0,067800
15,825333	0,5	-0,000850
15,833667	0,5	-0,029650
15,842000	0,5	-0,059550
15,850333	0,5	-0,075550
15,858667	0,5	-0,088050
15,867000	0,5	-0,085450
15,875333	0,5	-0,085850
15,883667	0,5	-0,077100
15,892000	0,5	-0,074900
15,900333	0,5	-0,076050
15,908667	0,5	-0,080950
15,917000	0,5	-0,085500
15,925333	0,5	-0,119250
15,933667	0,5	-0,132250
15,942000	0,5	-0,153750
15,950333	0,5	-0,177150
15,958667	0,5	-0,206450
15,967000	0,5	-0,253800
15,975333	0,5	-0,262750
15,983667	0,5	-0,279400
15,992000	0,5	-0,287450
16,000333	0,5	-0,299450
16,008667	0,5	-0,298850
16,017000	0,5	-0,308550
16,025333	0,5	-0,304450
16,033667	0,5	-0,312300
16,042000	0,5	-0,308400
16,050333	0,5	-0,299350
16,058667	0,5	-0,266250
16,067000	0,5	-0,199700
16,075333	0,5	-0,108500
16,083667	0,5	0,032100
16,092000	0,5	0,172500
16,100333	0,5	0,301000
16,108667	0,5	0,374650
16,117000	0,5	0,395400
16,125333	0,5	0,385400
16,133667	0,5	0,387000
16,142000	0,5	0,378950
16,150333	0,5	0,396800
16,158667	0,5	0,397500
16,167000	0,5	0,386100
16,175333	0,5	0,331800
16,183667	0,5	0,249650
16,192000	0,5	0,152300
16,200333	0,5	0,067550
16,208667	0,5	0,001350
16,217000	0,5	-0,047350
16,225333	0,5	-0,085800
16,233667	0,5	-0,084600
16,242000	0,5	-0,093550
16,250333	0,5	-0,090950
16,258667	0,5	-0,101950
16,267000	0,5	-0,119200
16,275333	0,5	-0,112100
16,283667	0,5	-0,119750
16,292000	0,5	-0,135350
16,300333	0,5	-0,150400
16,308667	0,5	-0,173250
16,317000	0,5	-0,199950
16,325333	0,5	-0,220150
16,333667	0,5	-0,252400
16,342000	0,5	-0,278750
16,350333	0,5	-0,304150
16,358667	0,5	-0,315750
16,367000	0,5	-0,355050
16,375333	0,5	-0,370150
16,383667	0,5	-0,376100
16,392000	0,5	-0,394700
16,400333	0,5	-0,414800
16,408667	0,5	-0,426650
16,417000	0,5	-0,417650
16,425333	0,5	-0,381200
16,433667	0,5	-0,295600
16,442000	0,5	-0,193850
16,450333	0,5	-0,053550
16,458667	0,5	0,092800
16,467000	0,5	0,214650
16,475333	0,5	0,290900
16,483667	0,5	0,323800
16,492000	0,5	0,312700
16,500333	0,5	0,307750
16,508667	0,5	0,286750
16,517000	0,5	0,261400
16,525333	0,5	0,221700
16,533667	0,5	0,171550
16,542000	0,5	0,089300
16,550333	0,5	0,016450
16,558667	0,5	-0,056400
16,567000	0,5	-0,075950
16,575333	0,5	-0,079400
16,583667	0,5	-0,068850
16,592000	0,5	-0,048650
16,600333	0,5	-0,028850
16,608667	0,5	-0,001950
16,617000	0,5	0,018200
16,625333	0,5	0,032700
16,633667	0,5	0,027750
16,642000	0,5	0,027800
16,650333	0,5	0,018250
16,658667	0,5	-0,011200
16,667000	0,5	-0,028650
16,675333	0,5	-0,035900
16,683667	0,5	-0,045150
16,692000	0,5	-0,061750
16,700333	0,5	-0,097250
16,708667	0,5	-0,108500
16,717000	0,5	-0,121550
16,725333	0,5	-0,127250
16,733667	0,5	-0,154100
16,742000	0,5	-0,166550
16,750333	0,5	-0,170900
16,758667	0,5	-0,145650
16,767000	0,5	-0,080350
16,775333	0,5	0,017450
16,783667	0,5	0,121800
16,792000	0,5	0,214200
16,800333	0,5	0,284200
16,808667	0,5	0,272050
16,817000	0,5	0,279600
16,825333	0,5	0,261950
16,833667	0,5	0,229250
16,842000	0,5	0,173450
16,850333	0,5	0,095050
16,858667	0,5	0,030900
16,867000	0,5	-0,036550
16,875333	0,5	-0,104850
16,883667	0,5	-0,148900
16,892000	0,5	-0,189000
16,900333	0,5	-0,213850
16,908667	0,5	-0,233050
16,917000	0,5	-0,236500
16,925333	0,5	-0,241700
16,933667	0,5	-0,256900
16,942000	0,5	-0,259750
16,950333	0,5	-0,267600
16,958667	0,5	-0,300250
16,967000	0,5	-0,302750
16,975333	0,5	-0,316300
16,983667	0,5	-0,336750
16,992000	0,5	-0,363700
17,000333	0,5	-0,403950
17,008667	0,5	-0,406800
17,017000	0,5	-0,410350
17,025333	0,5	-0,401250
17,033667	0,5	-0,389600
17,042000	0,5	-0,347650
17,050333	0,5	-0,297650
17,058667	0,5	-0,209450
17,067000	0,5	-0,101800
17,075333	0,5	0,032700
17,083667	0,5	0,174500
17,092000	0,5	0,313850
17,100333	0,5	0,445300
17,108667	0,5	0,552700
17,117000	0,5	0,687100
17,125333	0,5	0,826250
17,133667	0,5	0,970850
17,142000	0,5	1,116850
17,150333	0,5	1,272250
17,158667	0,5	1,451750
17,167000	0,5	1,629850
17,175333	0,5	1,786300
17,183667	0,5	1,939650
17,192000	0,5	2,066800
17,200333	0,5	2,178650
17,208667	0,5	2,260400
17,217000	0,5	2,323100
17,225333	0,5	2,356300
17,233667	0,5	2,353050
17,242000	0,5	2,304650
17,250333	0,5	2,198500
17,258667	0,5	2,056600
17,267000	0,5	1,879200
17,275333	0,5	1,678300
17,283667	0,5	1,449900
17,292000	0,5	1,228350
17,300333	0,5	1,035600
17,308667	0,5	0,884000
17,317000	0,5	0,747950
17,325333	0,5	0,660900
17,333667	0,5	0,618300
17,342000	0,5	0,622950
17,350333	0,5	0,636600
17,358667	0,5	0,671000
17,367000	0,5	0,673650
17,375333	0,5	0,668750
17,383667	0,5	0,656050
17,392000	0,5	0,621850
17,400333	0,5	0,566200
17,408667	0,5	0,528100
17,417000	0,5	0,467350
17,425333	0,5	0,431250
17,433667	0,5	0,390500
17,442000	0,5	0,377000
17,450333	0,5	0,399950
17,458667	0,5	0,423600
17,467000	0,5	0,455600
17,475333	0,5	0,480300
17,483667	0,5	0,504100
17,492000	0,5	0,508750
17,500333	0,5	0,510900
17,508667	0,5	0,498250
17,517000	0,5	0,466150
17,525333	0,5	0,435450
17,533667	0,5	0,398600
17,542000	0,5	0,325750
17,550333	0,5	0,274150
17,558667	0,5	0,220600
17,567000	0,5	0,169350
17,575333	0,5	0,140350
17,583667	0,5	0,125000
17,592000	0,5	0,148350
17,600333	0,5	0,181600
17,608667	0,5	0,206450
17,617000	0,5	0,205650
17,625333	0,5	0,196250
17,633667	0,5	0,166450
17,642000	0,5	0,116450
17,650333	0,5	0,056300
17,658667	0,5	-0,010450
17,667000	0,5	-0,082150
17,675333	0,5	-0,126300
17,683667	0,5	-0,171950
17,692000	0,5	-0,229850
17,700333	0,5	-0,248950
17,708667	0,5	-0,264650
17,717000	0,5	-0,299350
17,725333	0,5	-0,331450
17,733667	0,5	-0,376850
17,742000	0,5	-0,380650
17,750333	0,5	-0,392700
17,758667	0,5	-0,406000
17,767000	0,5	-0,411800
17,775333	0,5	-0,415100
17,783667	0,5	-0,412200
17,792000	0,5	-0,409450
17,800333	0,5	-0,374300
17,808667	0,5	-0,342350
17,817000	0,5	-0,280500
17,825333	0,5	-0,224100
17,833667	0,5	-0,164800
17,842000	0,5	-0,136050
17,850333	0,5	-0,116550
17,858667	0,5	-0,128350
17,867000	0,5	-0,158750
17,875333	0,5	-0,216450
17,883667	0,5	-0,271550
17,892000	0,5	-0,302500
17,900333	0,5	-0,329350
17,908667	0,5	-0,365400
17,917000	0,5	-0,385400
17,925333	0,5	-0,418350
17,933667	0,5	-0,437450
17,942000	0,5	-0,453700
17,950333	0,5	-0,465050
17,958667	0,5	-0,471650
17,967000	0,5	-0,487650
17,975333	0,5	-0,470550
17,983667	0,5	-0,482850
17,992000	0,5	-0,464050
18,000333	0,5	-0,439150
18,008667	0,5	-0,405350
18,017000	0,5	-0,367150
18,025333	0,5	-0,328800
18,033667	0,5	-0,277600
18,042000	0,5	-0,229550
18,050333	0,5	-0,209000
18,058667	0,5	-0,216650
18,067000	0,5	-0,240150
18,075333	0,5	-0,279100
18,083667	0,5	-0,314800
18,092000	0,5	-0,347300
18,100333	0,5	-0,380850
18,108667	0,5	-0,406300
18,117000	0,5	-0,413550
18,125333	0,5	-0,423350
18,133667	0,5	-0,460000
18,142000	0,5	-0,455650
18,150333	0,5	-0,459650
18,158667	0,5	-0,466450
18,167000	0,5	-0,475800
18,175333	0,5	-0,501400
18,183667	0,5	-0,482900
18,192000	0,5	-0,452000
18,200333	0,5	-0,406150
18,208667	0,5	-0,356250
18,217000	0,5	-0,296800
18,225333	0,5	-0,267600
18,233667	0,5	-0,252550
18,242000	0,5	-0,251550
18,250333	0,5	-0,279400
18,258667	0,5	-0,303250
18,267000	0,5	-0,342900
18,275333	0,5	-0,382550
18,283667	0,5	-0,415950
18,292000	0,5	-0,424600
18,300333	0,5	-0,448200
18,308667	0,5	-0,456350
18,317000	0,5	-0,490700
18,325333	0,5	-0,510700
18,333667	0,5	-0,520000
18,342000	0,5	-0,507500
18,350333	0,5	-0,511250
18,358667	0,5	-0,487700
18,367000	0,5	-0,472750
18,375333	0,5	-0,450350
18,383667	0,5	-0,416650
18,392000	0,5	-0,388700
18,400333	0,5	-0,374350
18,408667	0,5	-0,369650
18,417000	0,5	-0,379250
18,425333	0,5	-0,415850
18,433667	0,5	-0,445850
18,442000	0,5	-0,460850
18,450333	0,5	-0,489100
18,458667	0,5	-0,516950
18,467000	0,5	-0,547300
18,475333	0,5	-0,577550
18,483667	0,5	-0,576200
18,492000	0,5	-0,589550
18,500333	0,5	-0,587100
18,508667	0,5	-0,592350
18,517000	0,5	-0,590250
18,525333	0,5	-0,596250
18,533667	0,5	-0,585550
18,542000	0,5	-0,577350
18,550333	0,5	-0,558750
18,558667	0,5	-0,535700
18,567000	0,5	-0,532150
18,575333	0,5	-0,549350
18,583667	0,5	-0,547550
18,592000	0,5	-0,565750
18,600333	0,5	-0,599500
18,608667	0,5	-0,636050
18,617000	0,5	-0,679700
18,625333	0,5	-0,677050
18,633667	0,5	-0,704700
18,642000	0,5	-0,701200
18,650333	0,5	-0,715600
18,658667	0,5	-0,715650
18,667000	0,5	-0,726350
18,675333	0,5	-0,732800
18,683667	0,5	-0,722700
18,692000	0,5	-0,705300
18,700333	0,5	-0,677650
18,708667	0,5	-0,638300
18,717000	0,5	-0,633950
18,725333	0,5	-0,625900
18,733667	0,5	-0,626600
18,742000	0,5	-0,641350
18,750333	0,5	-0,656500
18,758667	0,5	-0,680000
18,767000	0,5	-0,667500
18,775333	0,5	-0,657050
18,783667	0,5	-0,640950
18,792000	0,5	-0,631400
18,800333	0,5	-0,609250
18,808667	0,5	-0,595400
18,817000	0,5	-0,562600
18,825333	0,5	-0,532250
18,833667	0,5	-0,496550
18,842000	0,5	-0,500000
18,850333	0,5	-0,483450
18,858667	0,5	-0,473900
18,867000	0,5	-0,504850
18,875333	0,5	-0,505800
18,883667	0,5	-0,528300
18,892000	0,5	-0,552400
18,900333	0,5	-0,580000
18,908667	0,5	-0,619850
18,917000	0,5	-0,611050
18,925333	0,5	-0,589850
18,933667	0,5	-0,580150
18,942000	0,5	-0,575450
18,950333	0,5	-0,564350
18,958667	0,5	-0,553750
18,967000	0,5	-0,550000
18,975333	0,5	-0,548500
18,983667	0,5	-0,569950
18,992000	0,5	-0,598500
19,000333	0,5	-0,630850
19,008667	0,5	-0,654400
19,017000	0,5	-0,697900
19,025333	0,5	-0,690550
19,033667	0,5	-0,709700
19,042000	0,5	-0,728100
19,050333	0,5	-0,755600
19,058667	0,5	-0,780600
19,067000	0,5	-0,756850
19,075333	0,5	-0,755000
19,083667	0,5	-0,763100
19,092000	0,5	-0,772100
19,100333	0,5	-0,778650
19,108667	0,5	-0,795200
19,117000	0,5	-0,798100
19,125333	0,5	-0,814300
19,133667	0,5	-0,837000
19,142000	0,5	-0,856750
19,150333	0,5	-0,859650
19,158667	0,5	-0,881450
19,167000	0,5	-0,885200
19,175333	0,5	-0,890250
19,183667	0,5	-0,896700
19,192000	0,5	-0,915700
19,200333	0,5	-0,949700
19,208667	0,5	-0,971650
19,217000	0,5	-0,985800
19,225333	0,5	-1,000500
19,233667	0,5	-1,013700
19,242000	0,5	-1,028600
19,250333	0,5	-1,048600
19,258667	0,5	-1,053150
19,267000	0,5	-1,053250
19,275333	0,5	-1,054550
19,283667	0,5	-1,070600
19,292000	0,5	-1,066050
19,300333	0,5	-1,088450
19,308667	0,5	-1,104550
19,317000	0,5	-1,106200
19,325333	0,5	-1,117000
19,333667	0,5	-1,132250
19,342000	0,5	-1,149050
19,350333	0,5	-1,178650
19,358667	0,5	-1,182800
19,367000	0,5	-1,178050
19,375333	0,5	-1,181350
19,383667	0,5	-1,194950
19,392000	0,5	-1,198300
19,400333	0,5	-1,206800
19,408667	0,5	-1,215200
19,417000	0,5	-1,221400
19,425333	0,5	-1,232000
19,433667	0,5	-1,239300
19,442000	0,5	-1,236900
19,450333	0,5	-1,247850
19,458667	0,5	-1,258750
19,467000	0,5	-1,238900
19,475333	0,5	-1,243700
19,483667	0,5	-1,244250
19,492000	0,5	-1,288300
19,500333	0,5	-1,300700
19,508667	0,5	-1,304950
19,517000	0,5	-1,298300
19,525333	0,5	-1,309350
19,533667	0,5	-1,304750
19,542000	0,5	-1,309850
19,550333	0,5	-1,325200
19,558667	0,5	-1,339650
19,567000	0,5	-1,354950
19,575333	0,5	-1,363800
19,583667	0,5	-1,364300
19,592000	0,5	-1,356950
19,600333	0,5	-1,383400
19,608667	0,5	-1,382300
19,617000	0,5	-1,394500
19,625333	0,5	-1,411000
19,633667	0,5	-1,433450
19,642000	0,5	-1,458800
19,650333	0,5	-1,456050
19,658667	0,5	-1,463500
19,667000	0,5	-1,466000
19,675333	0,5	-1,471000
19,683667	0,5	-1,469350
19,692000	0,5	-1,465950
19,700333	0,5	-1,469700
19,708667	0,5	-1,469700
19,717000	0,5	-1,476000
19,725333	0,5	-1,491600
19,733667	0,5	-1,486650
19,742000	0,5	-1,497850
19,750333	0,5	-1,519900
19,758667	0,5	-1,530800
19,767000	0,5	-1,532300
19,775333	0,5	-1,558400
19,783667	0,5	-1,585150
19,792000	0,5	-1,618850
19,800333	0,5	-1,625850
19,808667	0,5	-1,637200
19,817000	0,5	-1,656650
19,825333	0,5	-1,673550
19,833667	0,5	-1,681350
19,842000	0,5	-1,700350
19,850333	0,5	-1,714250
19,858667	0,5	-1,726950
19,867000	0,5	-1,746350
19,875333	0,5	-1,748500
19,883667	0,5	-1,749300
19,892000	0,5	-1,780250
19,900333	0,5	-1,782150
19,908667	0,5	-1,781950
19,917000	0,5	-1,787850
19,925333	0,5	-1,810900
19,933667	0,5	-1,849000
19,942000	0,5	-1,854600
19,950333	0,5	-1,853150
19,958667	0,5	-1,858600
19,967000	0,5	-1,885700
19,975333	0,5	-1,886600
19,983667	0,5	-1,887100
19,992000	0,5	-1,894250
20,000333	0,5	-1,896300
20,008667	0,5	-1,908300
20,017000	0,5	-1,913850
20,025333	0,5	-1,930700
20,033667	0,5	-1,931500
20,042000	0,5	-1,965700
20,050333	0,5	-1,965700
20,058667	0,5	-1,982600
20,067000	0,5	-2,006850
20,075333	0,5	-2,040300
20,083667	0,5	-2,078900
20,092000	0,5	-2,084150
20,100333	0,5	-2,081950
20,108667	0,5	-2,105200
20,117000	0,5	-2,115100
20,125333	0,5	-2,133050
20,133667	0,5	-2,142150
20,142000	0,5	-2,154600
20,150333	0,5	-2,164550
20,158667	0,5	-2,180450
20,167000	0,5	-2,204400
20,175333	0,5	-2,192500
20,183667	0,5	-2,201000
20,192000	0,5	-2,218300
20,200333	0,5	-2,218200
20,208667	0,5	-2,225450
20,217000	0,5	-2,242750
20,225333	0,5	-2,263450
20,233667	0,5	-2,295900
20,242000	0,5	-2,291850
20,250333	0,5	-2,304750
20,258667	0,5	-2,307850
20,267000	0,5	-2,332700
20,275333	0,5	-2,344400
20,283667	0,5	-2,372100
20,292000	0,5	-2,376550
20,300333	0,5	-2,389750
20,308667	0,5	-2,409800
20,317000	0,5	-2,406450
20,325333	0,5	-2,404900
20,333667	0,5	-2,436450
20,342000	0,5	-2,450350
20,350333	0,5	-2,464000
20,358667	0,5	-2,497350
20,367000	0,5	-2,537650
20,375333	0,5	-2,590250
20,383667	0,5	-2,610550
20,392000	0,5	-2,634800
20,400333	0,5	-2,643000
20,408667	0,5	-2,677200
20,417000	0,5	-2,692900
20,425333	0,5	-2,717050
20,433667	0,5	-2,739000
20,442000	0,5	-2,758350
20,450333	0,5	-2,782700
20,458667	0,5	-2,810850
20,467000	0,5	-2,807500
20,475333	0,5	-2,825200
20,483667	0,5	-2,858050
20,492000	0,5	-2,867900
20,500333	0,5	-2,894750
20,508667	0,5	-2,925850
20,517000	0,5	-2,984550
20,525333	0,5	-3,018650
20,533667	0,5	-3,046350
20,542000	0,5	-3,045100
20,550333	0,5	-3,064650
20,558667	0,5	-3,054600
20,567000	0,5	-3,069250
20,575333	0,5	-3,088550
20,583667	0,5	-3,117850
20,592000	0,5	-3,146550
20,600333	0,5	-3,197250
20,608667	0,5	-3,227850
20,617000	0,5	-3,259100
20,625333	0,5	-3,295400
20,633667	0,5	-3,339450
20,642000	0,5	-3,381100
20,650333	0,5	-3,427750
20,658667	0,5	-3,480800
20,667000	0,5	-3,543950
20,675333	0,5	-3,583850
20,683667	0,5	-3,606200
20,692000	0,5	-3,639600
20,700333	0,5	-3,663050
20,708667	0,5	-3,684400
20,717000	0,5	-3,688500
20,725333	0,5	-3,696800
20,733667	0,5	-3,681350
20,742000	0,5	-3,679850
20,750333	0,5	-3,686650
20,758667	0,5	-3,678800
20,767000	0,5	-3,709550
20,775333	0,5	-3,781600
20,783667	0,5	-3,848150
20,792000	0,5	-3,909900
20,800333	0,5	-3,983150
20,808667	0,5	-4,054500
20,817000	0,5	-4,131450
20,825333	0,5	-4,163450
20,833667	0,5	-4,212350
20,842000	0,5	-4,255900
20,850333	0,5	-4,299800
20,858667	0,5	-4,331350
20,867000	0,5	-4,382150
20,875333	0,5	-4,397400
20,883667	0,5	-4,443950
20,892000	0,5	-4,477900
20,900333	0,5	-4,492350
20,908667	0,5	-4,483150
20,917000	0,5	-4,498950
20,925333	0,5	-4,541500
20,933667	0,5	-4,581850
20,942000	0,5	-4,631450
20,950333	0,5	-4,699400
20,958667	0,5	-4,783050
20,967000	0,5	-4,811550
20,975333	0,5	-4,841000
20,983667	0,5	-4,875100
20,992000	0,5	-4,920700
21,000333	0,5	-4,949900
21,008667	0,5	-4,990500
21,017000	0,5	-5,013200
21,025333	0,5	-5,042350
21,033667	0,5	-5,056050
21,042000	0,5	-5,078000
21,050333	0,5	-5,078900
21,058667	0,5	-5,071450
21,067000	0,5	-5,103450
21,075333	0,5	-5,145550
21,083667	0,5	-5,189550
21,092000	0,5	-5,242500
21,100333	0,5	-5,294800
21,108667	0,5	-5,348000
21,117000	0,5	-5,384750
21,125333	0,5	-5,411250
21,133667	0,5	-5,443700
21,142000	0,5	-5,471300
21,150333	0,5	-5,504250
21,158667	0,5	-5,536550
21,167000	0,5	-5,569050
21,175333	0,5	-5,587050
21,183667	0,5	-5,622000
21,192000	0,5	-5,644450
21,200333	0,5	-5,627800
21,208667	0,5	-5,634400
21,217000	0,5	-5,656050
21,225333	0,5	-5,678800
21,233667	0,5	-5,710800
21,242000	0,5	-5,746700
21,250333	0,5	-5,786500
21,258667	0,5	-5,824400
21,267000	0,5	-5,826450
21,275333	0,5	-5,841850
21,283667	0,5	-5,846150
21,292000	0,5	-5,846250
21,300333	0,5	-5,857400
21,308667	0,5	-5,870350
21,317000	0,5	-5,868850
21,325333	0,5	-5,886100
21,333667	0,5	-5,921200
21,342000	0,5	-5,923700
21,350333	0,5	-5,932600
21,358667	0,5	-5,950300
21,367000	0,5	-5,973850
21,375333	0,5	-6,000000
21,383667	0,5	-6,043000
21,392000	0,5	-6,073200
21,400333	0,5	-6,131700
21,408667	0,5	-6,141800
21,417000	0,5	-6,161600
21,425333	0,5	-6,174850
21,433667	0,5	-6,195200
21,442000	0,5	-6,203000
21,450333	0,5	-6,226800
21,458667	0,5	-6,230850
21,467000	0,5	-6,243850
21,475333	0,5	-6,259800
21,483667	0,5	-6,286700
21,492000	0,5	-6,266400
21,500333	0,5	-6,263200
21,508667	0,5	-6,283950
21,517000	0,5	-6,288550
21,525333	0,5	-6,316750
21,533667	0,5	-6,337850
21,542000	0,5	-6,384400
21,550333	0,5	-6,411150
21,558667	0,5	-6,435200
21,567000	0,5	-6,443300
21,575333	0,5	-6,455450
21,583667	0,5	-6,465050
21,592000	0,5	-6,478300
21,600333	0,5	-6,490750
21,608667	0,5	-6,502150
21,617000	0,5	-6,490550
21,625333	0,5	-6,498750
21,633667	0,5	-6,477500
21,642000	0,5	-6,456750
21,650333	0,5	-6,445050
21,658667	0,5	-6,443650
21,667000	0,5	-6,429500
21,675333	0,5	-6,436850
21,683667	0,5	-6,451950
21,692000	0,5	-6,470700
21,700333	0,5	-6,486000
21,708667	0,5	-6,506050
21,717000	0,5	-6,528150
21,725333	0,5	-6,531200
21,733667	0,5	-6,537600
21,742000	0,5	-6,536150
21,750333	0,5	-6,545050
21,758667	0,5	-6,544850
21,767000	0,5	-6,563600
21,775333	0,5	-6,577550
21,783667	0,5	-6,574000
21,792000	0,5	-6,587100
21,800333	0,5	-6,614750
21,808667	0,5	-6,631050
21,817000	0,5	-6,656500
21,825333	0,5	-6,676150
21,833667	0,5	-6,703600
21,842000	0,5	-6,723050
21,850333	0,5	-6,709800
21,858667	0,5	-6,716500
21,867000	0,5	-6,729400
21,875333	0,5	-6,749700
21,883667	0,5	-6,767450
21,892000	0,5	-6,781550
21,900333	0,5	-6,785250
21,908667	0,5	-6,809000
21,917000	0,5	-6,817400
21,925333	0,5	-6,796650
21,933667	0,5	-6,750800
21,942000	0,5	-6,742800
21,950333	0,5	-6,708800
21,958667	0,5	-6,695900
21,967000	0,5	-6,726300
21,975333	0,5	-6,771100
21,983667	0,5	-6,849050
21,992000	0,5	-6,865200
22,000333	0,5	-6,904550
22,008667	0,5	-6,937300
22,017000	0,5	-6,980250
22,025333	0,5	-6,998350
22,033667	0,5	-7,032600
22,042000	0,5	-7,055450
22,050333	0,5	-7,081950
22,058667	0,5	-7,111800
22,067000	0,5	-7,133200
22,075333	0,5	-7,148000
22,083667	0,5	-7,177450
22,092000	0,5	-7,206300
22,100333	0,5	-7,211450
22,108667	0,5	-7,234350
22,117000	0,5	-7,263700
22,125333	0,5	-7,301050
22,133667	0,5	-7,325900
22,142000	0,5	-7,338500
22,150333	0,5	-7,335300
22,158667	0,5	-7,365500
22,167000	0,5	-7,372050
22,175333	0,5	-7,394600
22,183667	0,5	-7,397700
22,192000	0,5	-7,422500
22,200333	0,5	-7,430600
22,208667	0,5	-7,449700
22,217000	0,5	-7,461700
22,225333	0,5	-7,487700
22,233667	0,5	-7,494850
22,242000	0,5	-7,485400
22,250333	0,5	-7,476800
22,258667	0,5	-7,485950
22,267000	0,5	-7,499750
22,275333	0,5	-7,514650
22,283667	0,5	-7,518250
22,292000	0,5	-7,500500
22,300333	0,5	-7,505200
22,308667	0,5	-7,480750
22,317000	0,5	-7,475300
22,325333	0,5	-7,466350
22,333667	0,5	-7,454200
22,342000	0,5	-7,436500
22,350333	0,5	-7,428500
22,358667	0,5	-7,396650
22,367000	0,5	-7,356850
22,375333	0,5	-7,287550
22,383667	0,5	-7,226200
22,392000	0,5	-7,186350
22,400333	0,5	-7,207500
22,408667	0,5	-7,268300
22,417000	0,5	-7,339850
22,425333	0,5	-7,395150
22,433667	0,5	-7,413300
22,442000	0,5	-7,433350
22,450333	0,5	-7,461500
22,458667	0,5	-7,478200
22,467000	0,5	-7,479450
22,475333	0,5	-7,504050
22,483667	0,5	-7,506450
22,492000	0,5	-7,506300
22,500333	0,5	-7,519100
22,508667	0,5	-7,531300
22,517000	0,5	-7,555250
22,525333	0,5	-7,561800
22,533667	0,5	-7,520900
22,542000	0,5	-7,507450
22,550333	0,5	-7,501250
22,558667	0,5	-7,493200
22,567000	0,5	-7,488200
22,575333	0,5	-7,450400
22,583667	0,5	-7,428450
22,592000	0,5	-7,400350
22,600333	0,5	-7,385300
22,608667	0,5	-7,362150
22,617000	0,5	-7,363650
22,625333	0,5	-7,356450
22,633667	0,5	-7,348150
22,642000	0,5	-7,353700
22,650333	0,5	-7,364750
22,658667	0,5	-7,420350
22,667000	0,5	-7,429700
22,675333	0,5	-7,407050
22,683667	0,5	-7,408050
22,692000	0,5	-7,408750
22,700333	0,5	-7,426550
22,708667	0,5	-7,458200
22,717000	0,5	-7,490000
22,725333	0,5	-7,500600
22,733667	0,5	-7,508650
22,742000	0,5	-7,527350
22,750333	0,5	-7,536950
22,758667	0,5	-7,557550
22,767000	0,5	-7,566600
22,775333	0,5	-7,588450
22,783667	0,5	-7,583150
22,792000	0,5	-7,600450
22,800333	0,5	-7,627250
22,808667	0,5	-7,702850
22,817000	0,5	-7,705350
22,825333	0,5	-7,697700
22,833667	0,5	-7,704750
22,842000	0,5	-7,722500
22,850333	0,5	-7,738800
22,858667	0,5	-7,768900
22,867000	0,5	-7,785100
22,875333	0,5	-7,811050
22,883667	0,5	-7,823900
22,892000	0,5	-7,849500
22,900333	0,5	-7,848800
22,908667	0,5	-7,867250
22,917000	0,5	-7,851850
22,925333	0,5	-7,860650
22,933667	0,5	-7,853200
22,942000	0,5	-7,845400
22,950333	0,5	-7,812850
22,958667	0,5	-7,813050
22,967000	0,5	-7,785300
22,975333	0,5	-7,798750
22,983667	0,5	-7,788700
22,992000	0,5	-7,752850
23,000333	0,5	-7,725100
23,008667	0,5	-7,688500
23,017000	0,5	-7,683900
23,025333	0,5	-7,637700
23,033667	0,5	-7,600800
23,042000	0,5	-7,555200
23,050333	0,5	-7,516600
23,058667	0,5	-7,443400
23,067000	0,5	-7,390300
23,075333	0,5	-7,308700
23,083667	0,5	-7,243150
23,092000	0,5	-7,153000
23,100333	0,5	-7,053450
23,108667	0,5	-6,977750
23,117000	0,5	-6,921450
23,125333	0,5	-6,867650
23,133667	0,5	-6,806400
23,142000	0,5	-6,726100
23,150333	0,5	-6,637450
23,158667	0,5	-6,565800
23,167000	0,5	-6,508850
23,175333	0,5	-6,442600
23,183667	0,5	-6,351600
23,192000	0,5	-6,274150
23,200333	0,5	-6,189950
23,208667	0,5	-6,097150
23,217000	0,5	-6,013900
23,225333	0,5	-5,924900
23,233667	0,5	-5,832600
23,242000	0,5	-5,708300
23,250333	0,5	-5,649950
23,258667	0,5	-5,524800
23,267000	0,5	-5,467750
23,275333	0,5	-5,415950
23,283667	0,5	-5,327200
23,292000	0,5	-5,243650
23,300333	0,5	-5,158400
23,308667	0,5	-5,088200
23,317000	0,5	-5,026500
23,325333	0,5	-4,957700
23,333667	0,5	-4,888300
23,342000	0,5	-4,825100
23,350333	0,5	-4,749300
23,358667	0,5	-4,672350
23,367000	0,5	-4,606550
23,375333	0,5	-4,527550
23,383667	0,5	-4,454100
23,392000	0,5	-4,430400
23,400333	0,5	-4,333700
23,408667	0,5	-4,227150
23,417000	0,5	-4,173800
23,425333	0,5	-4,110950
23,433667	0,5	-4,065700
23,442000	0,5	-3,995000
23,450333	0,5	-3,932600
23,458667	0,5	-3,899800
23,467000	0,5	-3,860300
23,475333	0,5	-3,801050
23,483667	0,5	-3,773100
23,492000	0,5	-3,722550
23,500333	0,5	-3,678900
23,508667	0,5	-3,635100
23,517000	0,5	-3,591450
23,525333	0,5	-3,547150
23,533667	0,5	-3,509350
23,542000	0,5	-3,574050
23,550333	0,5	-3,517850
23,558667	0,5	-3,411750
23,567000	0,5	-3,362500
23,575333	0,5	-3,331000
23,583667	0,5	-3,291450
23,592000	0,5	-3,253750
23,600333	0,5	-3,222550
23,608667	0,5	-3,198450
23,617000	0,5	-3,165700
23,625333	0,5	-3,140950
23,633667	0,5	-3,112400
23,642000	0,5	-3,077850
23,650333	0,5	-3,051850
23,658667	0,5	-3,027300
23,667000	0,5	-2,990650
23,675333	0,5	-2,962050
23,683667	0,5	-3,053850
23,692000	0,5	-3,059500
23,700333	0,5	-3,009150
23,708667	0,5	-2,917250
23,717000	0,5	-2,869450
23,725333	0,5	-2,843400
23,733667	0,5	-2,821500
23,742000	0,5	-2,810450
23,750333	0,5	-2,776800
23,758667	0,5	-2,754700
23,767000	0,5	-2,735150
23,775333	0,5	-2,713950
23,783667	0,5	-2,688400
23,792000	0,5	-2,662100
23,800333	0,5	-2,634950
23,808667	0,5	-2,606500
23,817000	0,5	-2,577600
23,825333	0,5	-2,550950
23,833667	0,5	-2,723200
23,842000	0,5	-2,671400
23,850333	0,5	-2,602850
23,858667	0,5	-2,527350
23,867000	0,5	-2,481300
23,875333	0,5	-2,448200
23,883667	0,5	-2,428550
23,892000	0,5	-2,417600
23,900333	0,5	-2,382550
23,908667	0,5	-2,353550
23,917000	0,5	-2,331550
23,925333	0,5	-2,305200
23,933667	0,5	-2,292600
23,942000	0,5	-2,268650
23,950333	0,5	-2,242850
23,958667	0,5	-2,218550
23,967000	0,5	-2,198250
23,975333	0,5	-2,263300
23,983667	0,5	-2,334750
23,992000	0,5	-2,301750
24,000333	0,5	-2,221850
24,008667	0,5	-2,163500
24,017000	0,5	-2,110750
24,025333	0,5	-2,087200
24,033667	0,5	-2,086100
24,042000	0,5	-2,071600
24,050333	0,5	-2,025500
24,058667	0,5	-1,997650
24,067000	0,5	-1,973700
24,075333	0,5	-1,940250
24,083667	0,5	-1,917150
24,092000	0,5	-1,888500
24,100333	0,5	-1,858500
24,108667	0,5	-1,837150
24,117000	0,5	-1,812200
24,125333	0,5	-1,934250
24,133667	0,5	-1,921450
24,142000	0,5	-1,899200
24,150333	0,5	-1,818950
24,158667	0,5	-1,780750
24,167000	0,5	-1,750100
24,175333	0,5	-1,731600
24,183667	0,5	-1,730350
24,192000	0,5	-1,698000
24,200333	0,5	-1,673700
24,208667	0,5	-1,652300
24,217000	0,5	-1,630500
24,225333	0,5	-1,601150
24,233667	0,5	-1,587450
24,242000	0,5	-1,557250
24,250333	0,5	-1,532650
24,258667	0,5	-1,504250
24,267000	0,5	-1,505850
24,275333	0,5	-1,597350
24,283667	0,5	-1,568000
24,292000	0,5	-1,518950
24,300333	0,5	-1,463250
24,308667	0,5	-1,434400
24,317000	0,5	-1,405550
24,325333	0,5	-1,393400
24,333667	0,5	-1,395150
24,342000	0,5	-1,376350
24,350333	0,5	-1,350800
24,358667	0,5	-1,330750
24,367000	0,5	-1,312550
24,375333	0,5	-1,291150
24,383667	0,5	-1,270750
24,392000	0,5	-1,252500
24,400333	0,5	-1,231900
24,408667	0,5	-1,222400
24,417000	0,5	-1,246900
24,425333	0,5	-1,293450
24,433667	0,5	-1,264250
24,442000	0,5	-1,234900
24,450333	0,5	-1,184550
24,458667	0,5	-1,171000
24,467000	0,5	-1,144500
24,475333	0,5	-1,147300
24,483667	0,5	-1,141750
24,492000	0,5	-1,114250
24,500333	0,5	-1,089950
24,508667	0,5	-1,071900
24,517000	0,5	-1,060750
24,525333	0,5	-1,041400
24,533667	0,5	-1,029600
24,542000	0,5	-1,011000
24,550333	0,5	-1,000600
24,558667	0,5	-0,973800
24,567000	0,5	-1,041800
24,575333	0,5	-1,026850
24,583667	0,5	-1,014750
24,592000	0,5	-0,976900
24,600333	0,5	-0,956150
24,608667	0,5	-0,940000
24,617000	0,5	-0,939900
24,625333	0,5	-0,937800
24,633667	0,5	-0,932150
24,642000	0,5	-0,922450
24,650333	0,5	-0,914050
24,658667	0,5	-0,902550
24,667000	0,5	-0,892050
24,675333	0,5	-0,874600
24,683667	0,5	-0,862350
24,692000	0,5	-0,849200
24,700333	0,5	-0,834450
24,708667	0,5	-0,832500
24,717000	0,5	-0,860650
24,725333	0,5	-0,850800
24,733667	0,5	-0,831250
24,742000	0,5	-0,817300
24,750333	0,5	-0,791650
24,758667	0,5	-0,781100
24,767000	0,5	-0,777400
24,775333	0,5	-0,781600
24,783667	0,5	-0,764650
24,792000	0,5	-0,758300
24,800333	0,5	-0,751800
24,808667	0,5	-0,750350
24,817000	0,5	-0,743200
24,825333	0,5	-0,739400
24,833667	0,5	-0,728250
24,842000	0,5	-0,726400
24,850333	0,5	-0,724900
24,858667	0,5	-0,733500
24,867000	0,5	-0,743250
24,875333	0,5	-0,734700
24,883667	0,5	-0,717000
24,892000	0,5	-0,702650
24,900333	0,5	-0,689150
24,908667	0,5	-0,681000
24,917000	0,5	-0,676500
24,925333	0,5	-0,672750
24,933667	0,5	-0,664450
24,942000	0,5	-0,659450
24,950333	0,5	-0,654500
24,958667	0,5	-0,638550
24,967000	0,5	-0,638350
24,975333	0,5	-0,630850
24,983667	0,5	-0,628450
24,992000	0,5	-0,621600
25,000333	0,5	-0,619900
25,008667	0,5	-0,641700
25,017000	0,5	-0,631400
25,025333	0,5	-0,634450
25,033667	0,5	-0,620050
25,042000	0,5	-0,618600
25,050333	0,5	-0,616000
25,058667	0,5	-0,606900
25,067000	0,5	-0,615650
25,075333	0,5	-0,610950
25,083667	0,5	-0,604300
25,092000	0,5	-0,605700
25,100333	0,5	-0,597100
25,108667	0,5	-0,593500
25,117000	0,5	-0,587100
25,125333	0,5	-0,574200
25,133667	0,5	-0,572500
25,142000	0,5	-0,569700
25,150333	0,5	-0,576850
25,158667	0,5	-0,568050
25,167000	0,5	-0,560600
25,175333	0,5	-0,559350
25,183667	0,5	-0,556900
25,192000	0,5	-0,558200
25,200333	0,5	-0,552450
25,208667	0,5	-0,556400
25,217000	0,5	-0,556550
25,225333	0,5	-0,556150
25,233667	0,5	-0,555500
25,242000	0,5	-0,563700
25,250333	0,5	-0,563150
25,258667	0,5	-0,559800
25,267000	0,5	-0,556500
25,275333	0,5	-0,551800
25,283667	0,5	-0,554100
25,292000	0,5	-0,545800
25,300333	0,5	-0,546250
25,308667	0,5	-0,540200
25,317000	0,5	-0,533400
25,325333	0,5	-0,533700
25,333667	0,5	-0,533600
25,342000	0,5	-0,523700
25,350333	0,5	-0,528100
25,358667	0,5	-0,524250
25,367000	0,5	-0,522350
25,375333	0,5	-0,522100
25,383667	0,5	-0,527400
25,392000	0,5	-0,525150
25,400333	0,5	-0,527200
25,408667	0,5	-0,530600
25,417000	0,5	-0,531400
25,425333	0,5	-0,528000
25,433667	0,5	-0,532350
25,442000	0,5	-0,526450
25,450333	0,5	-0,523350
25,458667	0,5	-0,521750
25,467000	0,5	-0,515450
25,475333	0,5	-0,525600
25,483667	0,5	-0,522350
25,492000	0,5	-0,521200
25,500333	0,5	-0,519900
25,508667	0,5	-0,509250
25,517000	0,5	-0,512650
25,525333	0,5	-0,516050
25,533667	0,5	-0,512700
25,542000	0,5	-0,511200
25,550333	0,5	-0,509150
25,558667	0,5	-0,510650
25,567000	0,5	-0,515300
25,575333	0,5	-0,511050
25,583667	0,5	-0,509650
25,592000	0,5	-0,512250
25,600333	0,5	-0,506400
25,608667	0,5	-0,502600
25,617000	0,5	-0,507150
25,625333	0,5	-0,510700
25,633667	0,5	-0,513500
25,642000	0,5	-0,513450
25,650333	0,5	-0,509400
25,658667	0,5	-0,506050
25,667000	0,5	-0,508400
25,675333	0,5	-0,504900
25,683667	0,5	-0,507250
25,692000	0,5	-0,510100
25,700333	0,5	-0,508050
25,708667	0,5	-0,503200
25,717000	0,5	-0,503900
25,725333	0,5	-0,502500
25,733667	0,5	-0,498900
25,742000	0,5	-0,492450
25,750333	0,5	-0,488100
25,758667	0,5	-0,477400
25,767000	0,5	-0,483250
25,775333	0,5	-0,492850
25,783667	0,5	-0,489450
25,792000	0,5	-0,488800
25,800333	0,5	-0,481900
25,808667	0,5	-0,481350
25,817000	0,5	-0,482800
25,825333	0,5	-0,481000
25,833667	0,5	-0,482800
25,842000	0,5	-0,479800
25,850333	0,5	-0,482650
25,858667	0,5	-0,479750
25,867000	0,5	-0,478550
25,875333	0,5	-0,476700
25,883667	0,5	-0,470400
25,892000	0,5	-0,463800
25,900333	0,5	-0,462500
25,908667	0,5	-0,443100
25,917000	0,5	-0,453950
25,925333	0,5	-0,457400
25,933667	0,5	-0,455150
25,942000	0,5	-0,452050
25,950333	0,5	-0,426150
25,958667	0,5	-0,431400
25,967000	0,5	-0,435050
25,975333	0,5	-0,432700
25,983667	0,5	-0,431250
25,992000	0,5	-0,431750
26,000333	0,5	-0,423750
