File Path	chrom://chromeleon01/ikbm_chromeleon/2022/ICS-5000/ED1/Esteban/20220427_Cell_Amandas_mutants.seq/286.smp/ED_1.channel/ED_1.chm
Channel	ED_1

Injection Information:
Data Vault	ikbm_chromeleon
Injection	T24h_BMCC_WT
Injection Number	17
Position	RB3
Comment	
Processing Method	Stop sequence after Cell Death
Instrument Method	ICS5000_PA200_FullNative_Ox_26min_ED1
Type	Unknown
Status	Finished
Injection Date	27.04.2022
Injection Time	20:31:29
Injection Volume (µl)	5,0
Dilution Factor	1,0000
Weight	1,0000

Chromatogram Data Information:
Time Min. (min)	0,000333
Time Max. (min)	26,000333
Data Points	3121
Detector	EDet1
Generating Data System	Chromeleon 7.2.9.11323
Exporting Data System	Chromeleon 7.2.9.0
Operator	Instrument Controller
Signal Quantity	
Signal Unit	nC
Signal Min.	-7,028350
Signal Max.	37,742601
Channel	ED_1
Driver Name	DC-5000
Channel Type	Evaluation
Min. Step (s)	0,5
Max. Step (s)	0,5
Average Step (s)	0,5

Signal Parameter Information:
Signal Info	

Chromatogram Data:
Time (min)	Step (s)	Value (nC)
0,000333	n.a.	-0,114150
0,008667	0,5	-0,112100
0,017000	0,5	-0,064300
0,025333	0,5	-0,049550
0,033667	0,5	-0,065000
0,042000	0,5	-0,064350
0,050333	0,5	-0,043600
0,058667	0,5	-0,033600
0,067000	0,5	-0,033400
0,075333	0,5	-0,031050
0,083667	0,5	-0,041850
0,092000	0,5	-0,035250
0,100333	0,5	-0,040400
0,108667	0,5	-0,020200
0,117000	0,5	-0,049650
0,125333	0,5	-0,005750
0,133667	0,5	-0,051000
0,142000	0,5	-0,047950
0,150333	0,5	-0,055500
0,158667	0,5	-0,012500
0,167000	0,5	0,016550
0,175333	0,5	0,013300
0,183667	0,5	-0,004000
0,192000	0,5	0,000250
0,200333	0,5	-0,010050
0,208667	0,5	-0,016350
0,217000	0,5	-0,019350
0,225333	0,5	-0,026600
0,233667	0,5	-0,029700
0,242000	0,5	-0,033700
0,250333	0,5	-0,031900
0,258667	0,5	-0,039300
0,267000	0,5	-0,035400
0,275333	0,5	-0,022050
0,283667	0,5	-0,052300
0,292000	0,5	-0,038150
0,300333	0,5	0,027250
0,308667	0,5	0,041400
0,317000	0,5	0,015550
0,325333	0,5	-0,024100
0,333667	0,5	-0,027850
0,342000	0,5	-0,038600
0,350333	0,5	-0,031450
0,358667	0,5	-0,033800
0,367000	0,5	-0,031900
0,375333	0,5	-0,038550
0,383667	0,5	-0,047500
0,392000	0,5	-0,042850
0,400333	0,5	-0,047250
0,408667	0,5	-0,055250
0,417000	0,5	-0,033050
0,425333	0,5	-0,044200
0,433667	0,5	-0,070800
0,442000	0,5	-0,060450
0,450333	0,5	-0,060300
0,458667	0,5	-0,006750
0,467000	0,5	-0,002600
0,475333	0,5	-0,010750
0,483667	0,5	-0,034200
0,492000	0,5	-0,028900
0,500333	0,5	-0,040800
0,508667	0,5	-0,038800
0,517000	0,5	-0,051750
0,525333	0,5	-0,057150
0,533667	0,5	-0,061100
0,542000	0,5	-0,050850
0,550333	0,5	-0,047950
0,558667	0,5	-0,036450
0,567000	0,5	-0,018750
0,575333	0,5	-0,056600
0,583667	0,5	-0,069750
0,592000	0,5	-0,068000
0,600333	0,5	-0,050150
0,608667	0,5	-0,022300
0,617000	0,5	-0,023000
0,625333	0,5	-0,045850
0,633667	0,5	-0,035600
0,642000	0,5	-0,046150
0,650333	0,5	-0,050600
0,658667	0,5	-0,047200
0,667000	0,5	-0,043600
0,675333	0,5	-0,059600
0,683667	0,5	-0,061350
0,692000	0,5	-0,064700
0,700333	0,5	-0,075800
0,708667	0,5	-0,071050
0,717000	0,5	-0,049150
0,725333	0,5	-0,084350
0,733667	0,5	-0,087700
0,742000	0,5	-0,080150
0,750333	0,5	-0,051650
0,758667	0,5	-0,022550
0,767000	0,5	-0,052700
0,775333	0,5	-0,060450
0,783667	0,5	-0,060900
0,792000	0,5	-0,054450
0,800333	0,5	-0,069150
0,808667	0,5	-0,065750
0,817000	0,5	-0,072200
0,825333	0,5	-0,068700
0,833667	0,5	-0,072600
0,842000	0,5	-0,062200
0,850333	0,5	-0,095900
0,858667	0,5	-0,058200
0,867000	0,5	-0,075450
0,875333	0,5	-0,085700
0,883667	0,5	-0,092300
0,892000	0,5	-0,087500
0,900333	0,5	-0,052700
0,908667	0,5	-0,049100
0,917000	0,5	-0,064800
0,925333	0,5	-0,059900
0,933667	0,5	-0,057700
0,942000	0,5	-0,062000
0,950333	0,5	-0,070250
0,958667	0,5	-0,065850
0,967000	0,5	-0,060250
0,975333	0,5	-0,069500
0,983667	0,5	-0,057150
0,992000	0,5	-0,063850
1,000333	0,5	-0,082750
1,008667	0,5	-0,059050
1,017000	0,5	-0,077650
1,025333	0,5	-0,082300
1,033667	0,5	-0,079000
1,042000	0,5	-0,070400
1,050333	0,5	-0,032900
1,058667	0,5	-0,037400
1,067000	0,5	-0,041300
1,075333	0,5	-0,054100
1,083667	0,5	-0,053150
1,092000	0,5	-0,065650
1,100333	0,5	-0,059050
1,108667	0,5	-0,061250
1,117000	0,5	-0,066500
1,125333	0,5	-0,061200
1,133667	0,5	-0,064050
1,142000	0,5	-0,044200
1,150333	0,5	-0,061250
1,158667	0,5	-0,034250
1,167000	0,5	-0,068650
1,175333	0,5	-0,069400
1,183667	0,5	-0,075750
1,192000	0,5	-0,055700
1,200333	0,5	-0,023350
1,208667	0,5	-0,014100
1,217000	0,5	-0,037750
1,225333	0,5	-0,026350
1,233667	0,5	-0,037000
1,242000	0,5	-0,041200
1,250333	0,5	-0,045150
1,258667	0,5	-0,044750
1,267000	0,5	-0,041400
1,275333	0,5	-0,046550
1,283667	0,5	-0,040350
1,292000	0,5	-0,053450
1,300333	0,5	-0,044100
1,308667	0,5	-0,034300
1,317000	0,5	-0,065750
1,325333	0,5	-0,060200
1,333667	0,5	-0,050450
1,342000	0,5	-0,030850
1,350333	0,5	0,009050
1,358667	0,5	-0,011950
1,367000	0,5	0,001950
1,375333	0,5	-0,019550
1,383667	0,5	-0,013350
1,392000	0,5	-0,021450
1,400333	0,5	-0,012150
1,408667	0,5	-0,020050
1,417000	0,5	-0,023950
1,425333	0,5	-0,019100
1,433667	0,5	-0,029100
1,442000	0,5	-0,036650
1,450333	0,5	-0,010400
1,458667	0,5	-0,026000
1,467000	0,5	-0,031400
1,475333	0,5	-0,022700
1,483667	0,5	-0,016450
1,492000	0,5	0,022500
1,500333	0,5	0,029400
1,508667	0,5	0,033200
1,517000	0,5	0,022700
1,525333	0,5	0,028000
1,533667	0,5	0,014150
1,542000	0,5	0,029350
1,550333	0,5	0,024050
1,558667	0,5	0,015750
1,567000	0,5	-0,045000
1,575333	0,5	-0,290750
1,583667	0,5	-0,976500
1,592000	0,5	-1,701950
1,600333	0,5	-1,422800
1,608667	0,5	0,168250
1,617000	0,5	2,094400
1,625333	0,5	4,071600
1,633667	0,5	6,426150
1,642000	0,5	8,806050
1,650333	0,5	10,293850
1,658667	0,5	10,573950
1,667000	0,5	10,094500
1,675333	0,5	9,282350
1,683667	0,5	8,409800
1,692000	0,5	7,608650
1,700333	0,5	7,047450
1,708667	0,5	7,023950
1,717000	0,5	8,187600
1,725333	0,5	10,916500
1,733667	0,5	13,822100
1,742000	0,5	14,482500
1,750333	0,5	12,585200
1,758667	0,5	9,903900
1,767000	0,5	7,835050
1,775333	0,5	6,666300
1,783667	0,5	6,547900
1,792000	0,5	7,570500
1,800333	0,5	9,323150
1,808667	0,5	10,782000
1,817000	0,5	11,312750
1,825333	0,5	10,989950
1,833667	0,5	10,050750
1,842000	0,5	8,881350
1,850333	0,5	7,789100
1,858667	0,5	6,918800
1,867000	0,5	6,238550
1,875333	0,5	5,723000
1,883667	0,5	5,255000
1,892000	0,5	4,920800
1,900333	0,5	4,579900
1,908667	0,5	4,302100
1,917000	0,5	4,059600
1,925333	0,5	3,883900
1,933667	0,5	3,753050
1,942000	0,5	3,626600
1,950333	0,5	3,520850
1,958667	0,5	3,463750
1,967000	0,5	3,416500
1,975333	0,5	3,387400
1,983667	0,5	3,367200
1,992000	0,5	3,357000
2,000333	0,5	3,352450
2,008667	0,5	3,365250
2,017000	0,5	3,430350
2,025333	0,5	3,544600
2,033667	0,5	3,823450
2,042000	0,5	4,382050
2,050333	0,5	5,131100
2,058667	0,5	5,968700
2,067000	0,5	6,898300
2,075333	0,5	7,936850
2,083667	0,5	8,888300
2,092000	0,5	9,492000
2,100333	0,5	9,815350
2,108667	0,5	9,955250
2,117000	0,5	10,013650
2,125333	0,5	10,051250
2,133667	0,5	10,144350
2,142000	0,5	10,284000
2,150333	0,5	10,513400
2,158667	0,5	10,901950
2,167000	0,5	11,336100
2,175333	0,5	11,460650
2,183667	0,5	11,127000
2,192000	0,5	10,638150
2,200333	0,5	10,180100
2,208667	0,5	9,893150
2,217000	0,5	9,690600
2,225333	0,5	9,584350
2,233667	0,5	9,537600
2,242000	0,5	9,533400
2,250333	0,5	9,528450
2,258667	0,5	9,545800
2,267000	0,5	9,541050
2,275333	0,5	9,555200
2,283667	0,5	9,572250
2,292000	0,5	9,590500
2,300333	0,5	9,613400
2,308667	0,5	9,645900
2,317000	0,5	9,681950
2,325333	0,5	9,712700
2,333667	0,5	9,769800
2,342000	0,5	9,826250
2,350333	0,5	9,861850
2,358667	0,5	9,931550
2,367000	0,5	10,016100
2,375333	0,5	10,131900
2,383667	0,5	10,227750
2,392000	0,5	10,296500
2,400333	0,5	10,387650
2,408667	0,5	10,494100
2,417000	0,5	10,659850
2,425333	0,5	10,904800
2,433667	0,5	11,197000
2,442000	0,5	11,302050
2,450333	0,5	11,268500
2,458667	0,5	11,241550
2,467000	0,5	11,288100
2,475333	0,5	11,389900
2,483667	0,5	11,512700
2,492000	0,5	11,579750
2,500333	0,5	11,629400
2,508667	0,5	11,671150
2,517000	0,5	11,711250
2,525333	0,5	11,761250
2,533667	0,5	11,781850
2,542000	0,5	11,825850
2,550333	0,5	11,914100
2,558667	0,5	12,100100
2,567000	0,5	12,418550
2,575333	0,5	12,935150
2,583667	0,5	13,604600
2,592000	0,5	14,362650
2,600333	0,5	15,069250
2,608667	0,5	15,596850
2,617000	0,5	15,866450
2,625333	0,5	15,977450
2,633667	0,5	15,999750
2,642000	0,5	15,994900
2,650333	0,5	16,007450
2,658667	0,5	16,026300
2,667000	0,5	16,017000
2,675333	0,5	15,973900
2,683667	0,5	15,866050
2,692000	0,5	15,846200
2,700333	0,5	16,089000
2,708667	0,5	16,821050
2,717000	0,5	18,260900
2,725333	0,5	20,472450
2,733667	0,5	23,261400
2,742000	0,5	26,261100
2,750333	0,5	29,134850
2,758667	0,5	31,565400
2,767000	0,5	33,304900
2,775333	0,5	34,161151
2,783667	0,5	34,010551
2,792000	0,5	33,021300
2,800333	0,5	31,538250
2,808667	0,5	29,803350
2,817000	0,5	28,020250
2,825333	0,5	26,256950
2,833667	0,5	24,737550
2,842000	0,5	23,839900
2,850333	0,5	24,093800
2,858667	0,5	25,941600
2,867000	0,5	29,370750
2,875333	0,5	33,476850
2,883667	0,5	36,699201
2,892000	0,5	37,742601
2,900333	0,5	36,336701
2,908667	0,5	33,225550
2,917000	0,5	29,484250
2,925333	0,5	26,021500
2,933667	0,5	23,081250
2,942000	0,5	20,679600
2,950333	0,5	18,625600
2,958667	0,5	16,814000
2,967000	0,5	15,191300
2,975333	0,5	13,703350
2,983667	0,5	12,392000
2,992000	0,5	11,283300
3,000333	0,5	10,338100
3,008667	0,5	9,551550
3,017000	0,5	8,878750
3,025333	0,5	8,318100
3,033667	0,5	7,826000
3,042000	0,5	7,404950
3,050333	0,5	7,036100
3,058667	0,5	6,689350
3,067000	0,5	6,378300
3,075333	0,5	6,133950
3,083667	0,5	5,870150
3,092000	0,5	5,641450
3,100333	0,5	5,429200
3,108667	0,5	5,238300
3,117000	0,5	5,084750
3,125333	0,5	4,884550
3,133667	0,5	4,702900
3,142000	0,5	4,527650
3,150333	0,5	4,380850
3,158667	0,5	4,244850
3,167000	0,5	4,148800
3,175333	0,5	4,069400
3,183667	0,5	4,040000
3,192000	0,5	4,038000
3,200333	0,5	4,084950
3,208667	0,5	4,182600
3,217000	0,5	4,374450
3,225333	0,5	4,712000
3,233667	0,5	5,286450
3,242000	0,5	6,275650
3,250333	0,5	7,773950
3,258667	0,5	9,786200
3,267000	0,5	12,048900
3,275333	0,5	14,139000
3,283667	0,5	15,611000
3,292000	0,5	16,208400
3,300333	0,5	15,853100
3,308667	0,5	14,753100
3,317000	0,5	13,182050
3,325333	0,5	11,424650
3,333667	0,5	9,697500
3,342000	0,5	8,171500
3,350333	0,5	6,878650
3,358667	0,5	5,847000
3,367000	0,5	5,041750
3,375333	0,5	4,388400
3,383667	0,5	3,866200
3,392000	0,5	3,470700
3,400333	0,5	3,157100
3,408667	0,5	2,926550
3,417000	0,5	2,733150
3,425333	0,5	2,547500
3,433667	0,5	2,408850
3,442000	0,5	2,291450
3,450333	0,5	2,195700
3,458667	0,5	2,102200
3,467000	0,5	2,021000
3,475333	0,5	1,919850
3,483667	0,5	1,841700
3,492000	0,5	1,754700
3,500333	0,5	1,658900
3,508667	0,5	1,570200
3,517000	0,5	1,512800
3,525333	0,5	1,426600
3,533667	0,5	1,351150
3,542000	0,5	1,303000
3,550333	0,5	1,258500
3,558667	0,5	1,229600
3,567000	0,5	1,182450
3,575333	0,5	1,141650
3,583667	0,5	1,105000
3,592000	0,5	1,082200
3,600333	0,5	1,053300
3,608667	0,5	1,024000
3,617000	0,5	0,998500
3,625333	0,5	0,974700
3,633667	0,5	0,948250
3,642000	0,5	0,931750
3,650333	0,5	0,893100
3,658667	0,5	0,885200
3,667000	0,5	0,868700
3,675333	0,5	0,835550
3,683667	0,5	0,801650
3,692000	0,5	0,797450
3,700333	0,5	0,799400
3,708667	0,5	0,789700
3,717000	0,5	0,754100
3,725333	0,5	0,724850
3,733667	0,5	0,700700
3,742000	0,5	0,681150
3,750333	0,5	0,652250
3,758667	0,5	0,631500
3,767000	0,5	0,611450
3,775333	0,5	0,590000
3,783667	0,5	0,585050
3,792000	0,5	0,569000
3,800333	0,5	0,546900
3,808667	0,5	0,559850
3,817000	0,5	0,536950
3,825333	0,5	0,516700
3,833667	0,5	0,499600
3,842000	0,5	0,494250
3,850333	0,5	0,515300
3,858667	0,5	0,496000
3,867000	0,5	0,476900
3,875333	0,5	0,452050
3,883667	0,5	0,457000
3,892000	0,5	0,440250
3,900333	0,5	0,445350
3,908667	0,5	0,423350
3,917000	0,5	0,408850
3,925333	0,5	0,398950
3,933667	0,5	0,393350
3,942000	0,5	0,405950
3,950333	0,5	0,382250
3,958667	0,5	0,397700
3,967000	0,5	0,374100
3,975333	0,5	0,368800
3,983667	0,5	0,356350
3,992000	0,5	0,364950
4,000333	0,5	0,393750
4,008667	0,5	0,384000
4,017000	0,5	0,362550
4,025333	0,5	0,358500
4,033667	0,5	0,347600
4,042000	0,5	0,338300
4,050333	0,5	0,323000
4,058667	0,5	0,321650
4,067000	0,5	0,305750
4,075333	0,5	0,300300
4,083667	0,5	0,298450
4,092000	0,5	0,283200
4,100333	0,5	0,272950
4,108667	0,5	0,282750
4,117000	0,5	0,252650
4,125333	0,5	0,241850
4,133667	0,5	0,238750
4,142000	0,5	0,245400
4,150333	0,5	0,271950
4,158667	0,5	0,248950
4,167000	0,5	0,242300
4,175333	0,5	0,235100
4,183667	0,5	0,228550
4,192000	0,5	0,217400
4,200333	0,5	0,222200
4,208667	0,5	0,213200
4,217000	0,5	0,211800
4,225333	0,5	0,201450
4,233667	0,5	0,195450
4,242000	0,5	0,175800
4,250333	0,5	0,179950
4,258667	0,5	0,178100
4,267000	0,5	0,163150
4,275333	0,5	0,159100
4,283667	0,5	0,163450
4,292000	0,5	0,185600
4,300333	0,5	0,196900
4,308667	0,5	0,194600
4,317000	0,5	0,187150
4,325333	0,5	0,187900
4,333667	0,5	0,175000
4,342000	0,5	0,175950
4,350333	0,5	0,166750
4,358667	0,5	0,165850
4,367000	0,5	0,154000
4,375333	0,5	0,159500
4,383667	0,5	0,145950
4,392000	0,5	0,143950
4,400333	0,5	0,145950
4,408667	0,5	0,145450
4,417000	0,5	0,130550
4,425333	0,5	0,133850
4,433667	0,5	0,137650
4,442000	0,5	0,163750
4,450333	0,5	0,169950
4,458667	0,5	0,166650
4,467000	0,5	0,165950
4,475333	0,5	0,161950
4,483667	0,5	0,155650
4,492000	0,5	0,154400
4,500333	0,5	0,162200
4,508667	0,5	0,161050
4,517000	0,5	0,175250
4,525333	0,5	0,179750
4,533667	0,5	0,190700
4,542000	0,5	0,201300
4,550333	0,5	0,232900
4,558667	0,5	0,234600
4,567000	0,5	0,247450
4,575333	0,5	0,267000
4,583667	0,5	0,297850
4,592000	0,5	0,328350
4,600333	0,5	0,328450
4,608667	0,5	0,328700
4,617000	0,5	0,336750
4,625333	0,5	0,321750
4,633667	0,5	0,309850
4,642000	0,5	0,296200
4,650333	0,5	0,282500
4,658667	0,5	0,260600
4,667000	0,5	0,245800
4,675333	0,5	0,236800
4,683667	0,5	0,209600
4,692000	0,5	0,216200
4,700333	0,5	0,207650
4,708667	0,5	0,190300
4,717000	0,5	0,176500
4,725333	0,5	0,184950
4,733667	0,5	0,199050
4,742000	0,5	0,213750
4,750333	0,5	0,195650
4,758667	0,5	0,198550
4,767000	0,5	0,195500
4,775333	0,5	0,194800
4,783667	0,5	0,187750
4,792000	0,5	0,192250
4,800333	0,5	0,188350
4,808667	0,5	0,193000
4,817000	0,5	0,208400
4,825333	0,5	0,195700
4,833667	0,5	0,189800
4,842000	0,5	0,217650
4,850333	0,5	0,209250
4,858667	0,5	0,206850
4,867000	0,5	0,203550
4,875333	0,5	0,208750
4,883667	0,5	0,244400
4,892000	0,5	0,236150
4,900333	0,5	0,227450
4,908667	0,5	0,217900
4,917000	0,5	0,228200
4,925333	0,5	0,221500
4,933667	0,5	0,233000
4,942000	0,5	0,226700
4,950333	0,5	0,228700
4,958667	0,5	0,228200
4,967000	0,5	0,229050
4,975333	0,5	0,232500
4,983667	0,5	0,222150
4,992000	0,5	0,243750
5,000333	0,5	0,226100
5,008667	0,5	0,226200
5,017000	0,5	0,227750
5,025333	0,5	0,250950
5,033667	0,5	0,279700
5,042000	0,5	0,274200
5,050333	0,5	0,271500
5,058667	0,5	0,279050
5,067000	0,5	0,275750
5,075333	0,5	0,283100
5,083667	0,5	0,281250
5,092000	0,5	0,293450
5,100333	0,5	0,287000
5,108667	0,5	0,301100
5,117000	0,5	0,298600
5,125333	0,5	0,302900
5,133667	0,5	0,309050
5,142000	0,5	0,335050
5,150333	0,5	0,317700
5,158667	0,5	0,330000
5,167000	0,5	0,334250
5,175333	0,5	0,363050
5,183667	0,5	0,389900
5,192000	0,5	0,384300
5,200333	0,5	0,391500
5,208667	0,5	0,392300
5,217000	0,5	0,397300
5,225333	0,5	0,405650
5,233667	0,5	0,415600
5,242000	0,5	0,414000
5,250333	0,5	0,425700
5,258667	0,5	0,439000
5,267000	0,5	0,442450
5,275333	0,5	0,446050
5,283667	0,5	0,478100
5,292000	0,5	0,492450
5,300333	0,5	0,504850
5,308667	0,5	0,525000
5,317000	0,5	0,555300
5,325333	0,5	0,581700
5,333667	0,5	0,600750
5,342000	0,5	0,596600
5,350333	0,5	0,582800
5,358667	0,5	0,573950
5,367000	0,5	0,553450
5,375333	0,5	0,542850
5,383667	0,5	0,525400
5,392000	0,5	0,507600
5,400333	0,5	0,493850
5,408667	0,5	0,490550
5,417000	0,5	0,464500
5,425333	0,5	0,455400
5,433667	0,5	0,470250
5,442000	0,5	0,458350
5,450333	0,5	0,439900
5,458667	0,5	0,447050
5,467000	0,5	0,455800
5,475333	0,5	0,484850
5,483667	0,5	0,486500
5,492000	0,5	0,487050
5,500333	0,5	0,484700
5,508667	0,5	0,486350
5,517000	0,5	0,480250
5,525333	0,5	0,482150
5,533667	0,5	0,486900
5,542000	0,5	0,485050
5,550333	0,5	0,493600
5,558667	0,5	0,492500
5,567000	0,5	0,482600
5,575333	0,5	0,489300
5,583667	0,5	0,504550
5,592000	0,5	0,493400
5,600333	0,5	0,493950
5,608667	0,5	0,499350
5,617000	0,5	0,523800
5,625333	0,5	0,539300
5,633667	0,5	0,539600
5,642000	0,5	0,531100
5,650333	0,5	0,541900
5,658667	0,5	0,536250
5,667000	0,5	0,545950
5,675333	0,5	0,547550
5,683667	0,5	0,554550
5,692000	0,5	0,546650
5,700333	0,5	0,555750
5,708667	0,5	0,563450
5,717000	0,5	0,549250
5,725333	0,5	0,571550
5,733667	0,5	0,567700
5,742000	0,5	0,567450
5,750333	0,5	0,563250
5,758667	0,5	0,572050
5,767000	0,5	0,595200
5,775333	0,5	0,605150
5,783667	0,5	0,591500
5,792000	0,5	0,600450
5,800333	0,5	0,600300
5,808667	0,5	0,605700
5,817000	0,5	0,603750
5,825333	0,5	0,606550
5,833667	0,5	0,602750
5,842000	0,5	0,609950
5,850333	0,5	0,616950
5,858667	0,5	0,613200
5,867000	0,5	0,603650
5,875333	0,5	0,629950
5,883667	0,5	0,615950
5,892000	0,5	0,616450
5,900333	0,5	0,620150
5,908667	0,5	0,630350
5,917000	0,5	0,662200
5,925333	0,5	0,653300
5,933667	0,5	0,650700
5,942000	0,5	0,653800
5,950333	0,5	0,663650
5,958667	0,5	0,655700
5,967000	0,5	0,666250
5,975333	0,5	0,665850
5,983667	0,5	0,675300
5,992000	0,5	0,675250
6,000333	0,5	0,680400
6,008667	0,5	0,685600
6,017000	0,5	0,683900
6,025333	0,5	0,706600
6,033667	0,5	0,691200
6,042000	0,5	0,693250
6,050333	0,5	0,702850
6,058667	0,5	0,715600
6,067000	0,5	0,744850
6,075333	0,5	0,744450
6,083667	0,5	0,741000
6,092000	0,5	0,745550
6,100333	0,5	0,748550
6,108667	0,5	0,746000
6,117000	0,5	0,750750
6,125333	0,5	0,755700
6,133667	0,5	0,753500
6,142000	0,5	0,761150
6,150333	0,5	0,764150
6,158667	0,5	0,765750
6,167000	0,5	0,767900
6,175333	0,5	0,780900
6,183667	0,5	0,764600
6,192000	0,5	0,771650
6,200333	0,5	0,771400
6,208667	0,5	0,792650
6,217000	0,5	0,817000
6,225333	0,5	0,817100
6,233667	0,5	0,815650
6,242000	0,5	0,819100
6,250333	0,5	0,823250
6,258667	0,5	0,825950
6,267000	0,5	0,825550
6,275333	0,5	0,827150
6,283667	0,5	0,834800
6,292000	0,5	0,829300
6,300333	0,5	0,830650
6,308667	0,5	0,826950
6,317000	0,5	0,836800
6,325333	0,5	0,834450
6,333667	0,5	0,830800
6,342000	0,5	0,837350
6,350333	0,5	0,856800
6,358667	0,5	0,883600
6,367000	0,5	0,898500
6,375333	0,5	0,895200
6,383667	0,5	0,900650
6,392000	0,5	0,906350
6,400333	0,5	0,913200
6,408667	0,5	0,915550
6,417000	0,5	0,920000
6,425333	0,5	0,922700
6,433667	0,5	0,920450
6,442000	0,5	0,929050
6,450333	0,5	0,915900
6,458667	0,5	0,920900
6,467000	0,5	0,945250
6,475333	0,5	0,942200
6,483667	0,5	0,942400
6,492000	0,5	0,956150
6,500333	0,5	0,978700
6,508667	0,5	1,007850
6,517000	0,5	1,012850
6,525333	0,5	1,019950
6,533667	0,5	1,024350
6,542000	0,5	1,035350
6,550333	0,5	1,036400
6,558667	0,5	1,056300
6,567000	0,5	1,061800
6,575333	0,5	1,064150
6,583667	0,5	1,075050
6,592000	0,5	1,079250
6,600333	0,5	1,073050
6,608667	0,5	1,088850
6,617000	0,5	1,097850
6,625333	0,5	1,097300
6,633667	0,5	1,102750
6,642000	0,5	1,112000
6,650333	0,5	1,136850
6,658667	0,5	1,157100
6,667000	0,5	1,165350
6,675333	0,5	1,163250
6,683667	0,5	1,170950
6,692000	0,5	1,172850
6,700333	0,5	1,183600
6,708667	0,5	1,195100
6,717000	0,5	1,202050
6,725333	0,5	1,203800
6,733667	0,5	1,216750
6,742000	0,5	1,220450
6,750333	0,5	1,221750
6,758667	0,5	1,248200
6,767000	0,5	1,256300
6,775333	0,5	1,257850
6,783667	0,5	1,264000
6,792000	0,5	1,280250
6,800333	0,5	1,305100
6,808667	0,5	1,325000
6,817000	0,5	1,320400
6,825333	0,5	1,332950
6,833667	0,5	1,350000
6,842000	0,5	1,355600
6,850333	0,5	1,362650
6,858667	0,5	1,376900
6,867000	0,5	1,384550
6,875333	0,5	1,399850
6,883667	0,5	1,408150
6,892000	0,5	1,409600
6,900333	0,5	1,409600
6,908667	0,5	1,437800
6,917000	0,5	1,428400
6,925333	0,5	1,438550
6,933667	0,5	1,443200
6,942000	0,5	1,464500
6,950333	0,5	1,496950
6,958667	0,5	1,500800
6,967000	0,5	1,509050
6,975333	0,5	1,512000
6,983667	0,5	1,520950
6,992000	0,5	1,527300
7,000333	0,5	1,539750
7,008667	0,5	1,541250
7,017000	0,5	1,547900
7,025333	0,5	1,547400
7,033667	0,5	1,556500
7,042000	0,5	1,546000
7,050333	0,5	1,549550
7,058667	0,5	1,565300
7,067000	0,5	1,563550
7,075333	0,5	1,570900
7,083667	0,5	1,575950
7,092000	0,5	1,593400
7,100333	0,5	1,615650
7,108667	0,5	1,622200
7,117000	0,5	1,626350
7,125333	0,5	1,625950
7,133667	0,5	1,631650
7,142000	0,5	1,633650
7,150333	0,5	1,638350
7,158667	0,5	1,636400
7,167000	0,5	1,631850
7,175333	0,5	1,640400
7,183667	0,5	1,633200
7,192000	0,5	1,628950
7,200333	0,5	1,629600
7,208667	0,5	1,635400
7,217000	0,5	1,625550
7,225333	0,5	1,630000
7,233667	0,5	1,629900
7,242000	0,5	1,650350
7,250333	0,5	1,662550
7,258667	0,5	1,660700
7,267000	0,5	1,656300
7,275333	0,5	1,659050
7,283667	0,5	1,656450
7,292000	0,5	1,650050
7,300333	0,5	1,652300
7,308667	0,5	1,645750
7,317000	0,5	1,646750
7,325333	0,5	1,647050
7,333667	0,5	1,640800
7,342000	0,5	1,634100
7,350333	0,5	1,644350
7,358667	0,5	1,639600
7,367000	0,5	1,631850
7,375333	0,5	1,634350
7,383667	0,5	1,644150
7,392000	0,5	1,654150
7,400333	0,5	1,662600
7,408667	0,5	1,656950
7,417000	0,5	1,660100
7,425333	0,5	1,657700
7,433667	0,5	1,662800
7,442000	0,5	1,660000
7,450333	0,5	1,662900
7,458667	0,5	1,658950
7,467000	0,5	1,655250
7,475333	0,5	1,660350
7,483667	0,5	1,656300
7,492000	0,5	1,664700
7,500333	0,5	1,687700
7,508667	0,5	1,690650
7,517000	0,5	1,706500
7,525333	0,5	1,731400
7,533667	0,5	1,763050
7,542000	0,5	1,792000
7,550333	0,5	1,791650
7,558667	0,5	1,787000
7,567000	0,5	1,766400
7,575333	0,5	1,750250
7,583667	0,5	1,722600
7,592000	0,5	1,705850
7,600333	0,5	1,686600
7,608667	0,5	1,673650
7,617000	0,5	1,662000
7,625333	0,5	1,660400
7,633667	0,5	1,649600
7,642000	0,5	1,652500
7,650333	0,5	1,652950
7,658667	0,5	1,636700
7,667000	0,5	1,638850
7,675333	0,5	1,644250
7,683667	0,5	1,665400
7,692000	0,5	1,674150
7,700333	0,5	1,678150
7,708667	0,5	1,677650
7,717000	0,5	1,682400
7,725333	0,5	1,692700
7,733667	0,5	1,711500
7,742000	0,5	1,727650
7,750333	0,5	1,752850
7,758667	0,5	1,787950
7,767000	0,5	1,841300
7,775333	0,5	1,918550
7,783667	0,5	2,001500
7,792000	0,5	2,115600
7,800333	0,5	2,211450
7,808667	0,5	2,296700
7,817000	0,5	2,368350
7,825333	0,5	2,405400
7,833667	0,5	2,430100
7,842000	0,5	2,412250
7,850333	0,5	2,367200
7,858667	0,5	2,313250
7,867000	0,5	2,258500
7,875333	0,5	2,198600
7,883667	0,5	2,143550
7,892000	0,5	2,096400
7,900333	0,5	2,055200
7,908667	0,5	2,019850
7,917000	0,5	1,988850
7,925333	0,5	1,959750
7,933667	0,5	1,931100
7,942000	0,5	1,922900
7,950333	0,5	1,904150
7,958667	0,5	1,897350
7,967000	0,5	1,886850
7,975333	0,5	1,889100
7,983667	0,5	1,890400
7,992000	0,5	1,876000
8,000333	0,5	1,854900
8,008667	0,5	1,836500
8,017000	0,5	1,817500
8,025333	0,5	1,805800
8,033667	0,5	1,790800
8,042000	0,5	1,785300
8,050333	0,5	1,777650
8,058667	0,5	1,769400
8,067000	0,5	1,766350
8,075333	0,5	1,757050
8,083667	0,5	1,753450
8,092000	0,5	1,757850
8,100333	0,5	1,747450
8,108667	0,5	1,745850
8,117000	0,5	1,744200
8,125333	0,5	1,751150
8,133667	0,5	1,768900
8,142000	0,5	1,769800
8,150333	0,5	1,779600
8,158667	0,5	1,793300
8,167000	0,5	1,810900
8,175333	0,5	1,814450
8,183667	0,5	1,825600
8,192000	0,5	1,830200
8,200333	0,5	1,822600
8,208667	0,5	1,814700
8,217000	0,5	1,805500
8,225333	0,5	1,795150
8,233667	0,5	1,801650
8,242000	0,5	1,799750
8,250333	0,5	1,793350
8,258667	0,5	1,791250
8,267000	0,5	1,789600
8,275333	0,5	1,799300
8,283667	0,5	1,802450
8,292000	0,5	1,807650
8,300333	0,5	1,809100
8,308667	0,5	1,822900
8,317000	0,5	1,842000
8,325333	0,5	1,871300
8,333667	0,5	1,910750
8,342000	0,5	1,948700
8,350333	0,5	1,961250
8,358667	0,5	1,961800
8,367000	0,5	1,938400
8,375333	0,5	1,901000
8,383667	0,5	1,867050
8,392000	0,5	1,830000
8,400333	0,5	1,803800
8,408667	0,5	1,789200
8,417000	0,5	1,782600
8,425333	0,5	1,786700
8,433667	0,5	1,798300
8,442000	0,5	1,807050
8,450333	0,5	1,827100
8,458667	0,5	1,853050
8,467000	0,5	1,877050
8,475333	0,5	1,891250
8,483667	0,5	1,900900
8,492000	0,5	1,890450
8,500333	0,5	1,881650
8,508667	0,5	1,868500
8,517000	0,5	1,853700
8,525333	0,5	1,849950
8,533667	0,5	1,853250
8,542000	0,5	1,851650
8,550333	0,5	1,866950
8,558667	0,5	1,887050
8,567000	0,5	1,908300
8,575333	0,5	1,934450
8,583667	0,5	1,944100
8,592000	0,5	1,955650
8,600333	0,5	1,978600
8,608667	0,5	1,994650
8,617000	0,5	1,984600
8,625333	0,5	1,944250
8,633667	0,5	1,871650
8,642000	0,5	1,793350
8,650333	0,5	1,730100
8,658667	0,5	1,672800
8,667000	0,5	1,621700
8,675333	0,5	1,588700
8,683667	0,5	1,560050
8,692000	0,5	1,536400
8,700333	0,5	1,521250
8,708667	0,5	1,514700
8,717000	0,5	1,514750
8,725333	0,5	1,510550
8,733667	0,5	1,501200
8,742000	0,5	1,501750
8,750333	0,5	1,498700
8,758667	0,5	1,498650
8,767000	0,5	1,504000
8,775333	0,5	1,502300
8,783667	0,5	1,504350
8,792000	0,5	1,501400
8,800333	0,5	1,509200
8,808667	0,5	1,513050
8,817000	0,5	1,518350
8,825333	0,5	1,524850
8,833667	0,5	1,528250
8,842000	0,5	1,535750
8,850333	0,5	1,545450
8,858667	0,5	1,562050
8,867000	0,5	1,577900
8,875333	0,5	1,588300
8,883667	0,5	1,591200
8,892000	0,5	1,593700
8,900333	0,5	1,593000
8,908667	0,5	1,593750
8,917000	0,5	1,586200
8,925333	0,5	1,579400
8,933667	0,5	1,578850
8,942000	0,5	1,579150
8,950333	0,5	1,575700
8,958667	0,5	1,582550
8,967000	0,5	1,580850
8,975333	0,5	1,588550
8,983667	0,5	1,587950
8,992000	0,5	1,595600
9,000333	0,5	1,601000
9,008667	0,5	1,617450
9,017000	0,5	1,632350
9,025333	0,5	1,643200
9,033667	0,5	1,655550
9,042000	0,5	1,664350
9,050333	0,5	1,670050
9,058667	0,5	1,667500
9,067000	0,5	1,668900
9,075333	0,5	1,670300
9,083667	0,5	1,677200
9,092000	0,5	1,680550
9,100333	0,5	1,692850
9,108667	0,5	1,697950
9,117000	0,5	1,706200
9,125333	0,5	1,721700
9,133667	0,5	1,727150
9,142000	0,5	1,733250
9,150333	0,5	1,742550
9,158667	0,5	1,747500
9,167000	0,5	1,747050
9,175333	0,5	1,746550
9,183667	0,5	1,739400
9,192000	0,5	1,730950
9,200333	0,5	1,717000
9,208667	0,5	1,709450
9,217000	0,5	1,701800
9,225333	0,5	1,701150
9,233667	0,5	1,702450
9,242000	0,5	1,707450
9,250333	0,5	1,711200
9,258667	0,5	1,716550
9,267000	0,5	1,721500
9,275333	0,5	1,720050
9,283667	0,5	1,710900
9,292000	0,5	1,685750
9,300333	0,5	1,669900
9,308667	0,5	1,650900
9,317000	0,5	1,643350
9,325333	0,5	1,631650
9,333667	0,5	1,621750
9,342000	0,5	1,614950
9,350333	0,5	1,607200
9,358667	0,5	1,603350
9,367000	0,5	1,596500
9,375333	0,5	1,594700
9,383667	0,5	1,591850
9,392000	0,5	1,596800
9,400333	0,5	1,597950
9,408667	0,5	1,602250
9,417000	0,5	1,607900
9,425333	0,5	1,611800
9,433667	0,5	1,617450
9,442000	0,5	1,613100
9,450333	0,5	1,619400
9,458667	0,5	1,628250
9,467000	0,5	1,629150
9,475333	0,5	1,628850
9,483667	0,5	1,625000
9,492000	0,5	1,619400
9,500333	0,5	1,607300
9,508667	0,5	1,606000
9,517000	0,5	1,604050
9,525333	0,5	1,601850
9,533667	0,5	1,603900
9,542000	0,5	1,605350
9,550333	0,5	1,608500
9,558667	0,5	1,610850
9,567000	0,5	1,617700
9,575333	0,5	1,623300
9,583667	0,5	1,626150
9,592000	0,5	1,619650
9,600333	0,5	1,617800
9,608667	0,5	1,618400
9,617000	0,5	1,608700
9,625333	0,5	1,593250
9,633667	0,5	1,584550
9,642000	0,5	1,571150
9,650333	0,5	1,561700
9,658667	0,5	1,552950
9,667000	0,5	1,549300
9,675333	0,5	1,537300
9,683667	0,5	1,533700
9,692000	0,5	1,529700
9,700333	0,5	1,523300
9,708667	0,5	1,516200
9,717000	0,5	1,514150
9,725333	0,5	1,503100
9,733667	0,5	1,496150
9,742000	0,5	1,493850
9,750333	0,5	1,488650
9,758667	0,5	1,486350
9,767000	0,5	1,481950
9,775333	0,5	1,475450
9,783667	0,5	1,470300
9,792000	0,5	1,470350
9,800333	0,5	1,463300
9,808667	0,5	1,461250
9,817000	0,5	1,460400
9,825333	0,5	1,454450
9,833667	0,5	1,452450
9,842000	0,5	1,448250
9,850333	0,5	1,441100
9,858667	0,5	1,440450
9,867000	0,5	1,441350
9,875333	0,5	1,434200
9,883667	0,5	1,428450
9,892000	0,5	1,428400
9,900333	0,5	1,430150
9,908667	0,5	1,430300
9,917000	0,5	1,429250
9,925333	0,5	1,425300
9,933667	0,5	1,430050
9,942000	0,5	1,426300
9,950333	0,5	1,434000
9,958667	0,5	1,434800
9,967000	0,5	1,438450
9,975333	0,5	1,438850
9,983667	0,5	1,444050
9,992000	0,5	1,450650
10,000333	0,5	1,458550
10,008667	0,5	1,473050
10,017000	0,5	1,481550
10,025333	0,5	1,489800
10,033667	0,5	1,505350
10,042000	0,5	1,528250
10,050333	0,5	1,555950
10,058667	0,5	1,605450
10,067000	0,5	1,665950
10,075333	0,5	1,740150
10,083667	0,5	1,832850
10,092000	0,5	1,948000
10,100333	0,5	2,057500
10,108667	0,5	2,176200
10,117000	0,5	2,264050
10,125333	0,5	2,330950
10,133667	0,5	2,347550
10,142000	0,5	2,319500
10,150333	0,5	2,242150
10,158667	0,5	2,134500
10,167000	0,5	2,010750
10,175333	0,5	1,898700
10,183667	0,5	1,789900
10,192000	0,5	1,714750
10,200333	0,5	1,652850
10,208667	0,5	1,612200
10,217000	0,5	1,583150
10,225333	0,5	1,564300
10,233667	0,5	1,546900
10,242000	0,5	1,537400
10,250333	0,5	1,529000
10,258667	0,5	1,525650
10,267000	0,5	1,524700
10,275333	0,5	1,530000
10,283667	0,5	1,536000
10,292000	0,5	1,537050
10,300333	0,5	1,543550
10,308667	0,5	1,549700
10,317000	0,5	1,550150
10,325333	0,5	1,548450
10,333667	0,5	1,546400
10,342000	0,5	1,543300
10,350333	0,5	1,547100
10,358667	0,5	1,542900
10,367000	0,5	1,542650
10,375333	0,5	1,537150
10,383667	0,5	1,537400
10,392000	0,5	1,544250
10,400333	0,5	1,550900
10,408667	0,5	1,560750
10,417000	0,5	1,581400
10,425333	0,5	1,600700
10,433667	0,5	1,615100
10,442000	0,5	1,620200
10,450333	0,5	1,631050
10,458667	0,5	1,621800
10,467000	0,5	1,605500
10,475333	0,5	1,587150
10,483667	0,5	1,557600
10,492000	0,5	1,537400
10,500333	0,5	1,519600
10,508667	0,5	1,499700
10,517000	0,5	1,480050
10,525333	0,5	1,463900
10,533667	0,5	1,446500
10,542000	0,5	1,439000
10,550333	0,5	1,428350
10,558667	0,5	1,424400
10,567000	0,5	1,419800
10,575333	0,5	1,415700
10,583667	0,5	1,419550
10,592000	0,5	1,419250
10,600333	0,5	1,422250
10,608667	0,5	1,421750
10,617000	0,5	1,421450
10,625333	0,5	1,424300
10,633667	0,5	1,427150
10,642000	0,5	1,428800
10,650333	0,5	1,431600
10,658667	0,5	1,440900
10,667000	0,5	1,449200
10,675333	0,5	1,459850
10,683667	0,5	1,482600
10,692000	0,5	1,505950
10,700333	0,5	1,530050
10,708667	0,5	1,563050
10,717000	0,5	1,595150
10,725333	0,5	1,623300
10,733667	0,5	1,640500
10,742000	0,5	1,637300
10,750333	0,5	1,628000
10,758667	0,5	1,613550
10,767000	0,5	1,586200
10,775333	0,5	1,564150
10,783667	0,5	1,538100
10,792000	0,5	1,523900
10,800333	0,5	1,516550
10,808667	0,5	1,505750
10,817000	0,5	1,504550
10,825333	0,5	1,506650
10,833667	0,5	1,519900
10,842000	0,5	1,535300
10,850333	0,5	1,560750
10,858667	0,5	1,596100
10,867000	0,5	1,628950
10,875333	0,5	1,659450
10,883667	0,5	1,675300
10,892000	0,5	1,677850
10,900333	0,5	1,657750
10,908667	0,5	1,616800
10,917000	0,5	1,568200
10,925333	0,5	1,512900
10,933667	0,5	1,464100
10,942000	0,5	1,428400
10,950333	0,5	1,398400
10,958667	0,5	1,389600
10,967000	0,5	1,392050
10,975333	0,5	1,402500
10,983667	0,5	1,419200
10,992000	0,5	1,438650
11,000333	0,5	1,458050
11,008667	0,5	1,482100
11,017000	0,5	1,497700
11,025333	0,5	1,515150
11,033667	0,5	1,524500
11,042000	0,5	1,532350
11,050333	0,5	1,534650
11,058667	0,5	1,530150
11,067000	0,5	1,524300
11,075333	0,5	1,515600
11,083667	0,5	1,506800
11,092000	0,5	1,503550
11,100333	0,5	1,499350
11,108667	0,5	1,496850
11,117000	0,5	1,501150
11,125333	0,5	1,495600
11,133667	0,5	1,492750
11,142000	0,5	1,494900
11,150333	0,5	1,491250
11,158667	0,5	1,486300
11,167000	0,5	1,491800
11,175333	0,5	1,490150
11,183667	0,5	1,487100
11,192000	0,5	1,484800
11,200333	0,5	1,482300
11,208667	0,5	1,478700
11,217000	0,5	1,479100
11,225333	0,5	1,476550
11,233667	0,5	1,474750
11,242000	0,5	1,478400
11,250333	0,5	1,478550
11,258667	0,5	1,477700
11,267000	0,5	1,475600
11,275333	0,5	1,475850
11,283667	0,5	1,476200
11,292000	0,5	1,477050
11,300333	0,5	1,472550
11,308667	0,5	1,469750
11,317000	0,5	1,471400
11,325333	0,5	1,472150
11,333667	0,5	1,471050
11,342000	0,5	1,481900
11,350333	0,5	1,479350
11,358667	0,5	1,479550
11,367000	0,5	1,476000
11,375333	0,5	1,479200
11,383667	0,5	1,477950
11,392000	0,5	1,476400
11,400333	0,5	1,471700
11,408667	0,5	1,470850
11,417000	0,5	1,462850
11,425333	0,5	1,458900
11,433667	0,5	1,451950
11,442000	0,5	1,444800
11,450333	0,5	1,439350
11,458667	0,5	1,431250
11,467000	0,5	1,421850
11,475333	0,5	1,409850
11,483667	0,5	1,407000
11,492000	0,5	1,406150
11,500333	0,5	1,400700
11,508667	0,5	1,393650
11,517000	0,5	1,391850
11,525333	0,5	1,396350
11,533667	0,5	1,405050
11,542000	0,5	1,429900
11,550333	0,5	1,454350
11,558667	0,5	1,502100
11,567000	0,5	1,557800
11,575333	0,5	1,634850
11,583667	0,5	1,719700
11,592000	0,5	1,797500
11,600333	0,5	1,852050
11,608667	0,5	1,886350
11,617000	0,5	1,890650
11,625333	0,5	1,867750
11,633667	0,5	1,843850
11,642000	0,5	1,819650
11,650333	0,5	1,801350
11,658667	0,5	1,795350
11,667000	0,5	1,815850
11,675333	0,5	1,874700
11,683667	0,5	1,971300
11,692000	0,5	2,111850
11,700333	0,5	2,283900
11,708667	0,5	2,517350
11,717000	0,5	2,770400
11,725333	0,5	3,029300
11,733667	0,5	3,254700
11,742000	0,5	3,417850
11,750333	0,5	3,504650
11,758667	0,5	3,507800
11,767000	0,5	3,446850
11,775333	0,5	3,342100
11,783667	0,5	3,250300
11,792000	0,5	3,180650
11,800333	0,5	3,158900
11,808667	0,5	3,189050
11,817000	0,5	3,256900
11,825333	0,5	3,356250
11,833667	0,5	3,428850
11,842000	0,5	3,460000
11,850333	0,5	3,439400
11,858667	0,5	3,362150
11,867000	0,5	3,243900
11,875333	0,5	3,084000
11,883667	0,5	2,901600
11,892000	0,5	2,714500
11,900333	0,5	2,525600
11,908667	0,5	2,353200
11,917000	0,5	2,192200
11,925333	0,5	2,049650
11,933667	0,5	1,936050
11,942000	0,5	1,834950
11,950333	0,5	1,744150
11,958667	0,5	1,674350
11,967000	0,5	1,622700
11,975333	0,5	1,581500
11,983667	0,5	1,543250
11,992000	0,5	1,514050
12,000333	0,5	1,495050
12,008667	0,5	1,472250
12,017000	0,5	1,454300
12,025333	0,5	1,439300
12,033667	0,5	1,424000
12,042000	0,5	1,412700
12,050333	0,5	1,408500
12,058667	0,5	1,395450
12,067000	0,5	1,379900
12,075333	0,5	1,373050
12,083667	0,5	1,365550
12,092000	0,5	1,355250
12,100333	0,5	1,349600
12,108667	0,5	1,333650
12,117000	0,5	1,332700
12,125333	0,5	1,334850
12,133667	0,5	1,333850
12,142000	0,5	1,321250
12,150333	0,5	1,324350
12,158667	0,5	1,316600
12,167000	0,5	1,323750
12,175333	0,5	1,315800
12,183667	0,5	1,314200
12,192000	0,5	1,320450
12,200333	0,5	1,316500
12,208667	0,5	1,318850
12,217000	0,5	1,321900
12,225333	0,5	1,333000
12,233667	0,5	1,346800
12,242000	0,5	1,350350
12,250333	0,5	1,351850
12,258667	0,5	1,361550
12,267000	0,5	1,375350
12,275333	0,5	1,395250
12,283667	0,5	1,398650
12,292000	0,5	1,405150
12,300333	0,5	1,410550
12,308667	0,5	1,420050
12,317000	0,5	1,428850
12,325333	0,5	1,438200
12,333667	0,5	1,445700
12,342000	0,5	1,449500
12,350333	0,5	1,452750
12,358667	0,5	1,453550
12,367000	0,5	1,456800
12,375333	0,5	1,465100
12,383667	0,5	1,469850
12,392000	0,5	1,471200
12,400333	0,5	1,473550
12,408667	0,5	1,476200
12,417000	0,5	1,491850
12,425333	0,5	1,503100
12,433667	0,5	1,516700
12,442000	0,5	1,533300
12,450333	0,5	1,559500
12,458667	0,5	1,605150
12,467000	0,5	1,622350
12,475333	0,5	1,636000
12,483667	0,5	1,700050
12,492000	0,5	1,769200
12,500333	0,5	1,855750
12,508667	0,5	1,939600
12,517000	0,5	2,050400
12,525333	0,5	2,136750
12,533667	0,5	2,212250
12,542000	0,5	2,261150
12,550333	0,5	2,288550
12,558667	0,5	2,309150
12,567000	0,5	2,316500
12,575333	0,5	2,315200
12,583667	0,5	2,301600
12,592000	0,5	2,292050
12,600333	0,5	2,284650
12,608667	0,5	2,283250
12,617000	0,5	2,292950
12,625333	0,5	2,323700
12,633667	0,5	2,372550
12,642000	0,5	2,422850
12,650333	0,5	2,468800
12,658667	0,5	2,497350
12,667000	0,5	2,509100
12,675333	0,5	2,491950
12,683667	0,5	2,453350
12,692000	0,5	2,391450
12,700333	0,5	2,321900
12,708667	0,5	2,252450
12,717000	0,5	2,174350
12,725333	0,5	2,094200
12,733667	0,5	2,028950
12,742000	0,5	1,967950
12,750333	0,5	1,911000
12,758667	0,5	1,857950
12,767000	0,5	1,806700
12,775333	0,5	1,754200
12,783667	0,5	1,698100
12,792000	0,5	1,635000
12,800333	0,5	1,578950
12,808667	0,5	1,536900
12,817000	0,5	1,498150
12,825333	0,5	1,464650
12,833667	0,5	1,435650
12,842000	0,5	1,396500
12,850333	0,5	1,378300
12,858667	0,5	1,361750
12,867000	0,5	1,343600
12,875333	0,5	1,329100
12,883667	0,5	1,317900
12,892000	0,5	1,312100
12,900333	0,5	1,302700
12,908667	0,5	1,299050
12,917000	0,5	1,289750
12,925333	0,5	1,286600
12,933667	0,5	1,279850
12,942000	0,5	1,282300
12,950333	0,5	1,273400
12,958667	0,5	1,275750
12,967000	0,5	1,269400
12,975333	0,5	1,260700
12,983667	0,5	1,242250
12,992000	0,5	1,220450
13,000333	0,5	1,208950
13,008667	0,5	1,199350
13,017000	0,5	1,179650
13,025333	0,5	1,169150
13,033667	0,5	1,166750
13,042000	0,5	1,149450
13,050333	0,5	1,120950
13,058667	0,5	1,079400
13,067000	0,5	1,035850
13,075333	0,5	0,983850
13,083667	0,5	0,939200
13,092000	0,5	0,885550
13,100333	0,5	0,825450
13,108667	0,5	0,783750
13,117000	0,5	0,731650
13,125333	0,5	0,638250
13,133667	0,5	0,514750
13,142000	0,5	0,295800
13,150333	0,5	-0,041550
13,158667	0,5	-0,434550
13,167000	0,5	-0,748400
13,175333	0,5	-1,040850
13,183667	0,5	-1,260950
13,192000	0,5	-1,409300
13,200333	0,5	-1,510050
13,208667	0,5	-1,575600
13,217000	0,5	-1,627100
13,225333	0,5	-1,665100
13,233667	0,5	-1,696200
13,242000	0,5	-1,732400
13,250333	0,5	-1,762800
13,258667	0,5	-1,791300
13,267000	0,5	-1,835700
13,275333	0,5	-1,875700
13,283667	0,5	-1,920400
13,292000	0,5	-1,952000
13,300333	0,5	-1,986000
13,308667	0,5	-2,008200
13,317000	0,5	-2,029150
13,325333	0,5	-2,029250
13,333667	0,5	-2,059800
13,342000	0,5	-2,066150
13,350333	0,5	-2,073700
13,358667	0,5	-2,080150
13,367000	0,5	-2,090650
13,375333	0,5	-2,098600
13,383667	0,5	-2,113650
13,392000	0,5	-2,126550
13,400333	0,5	-2,137550
13,408667	0,5	-2,146200
13,417000	0,5	-2,151950
13,425333	0,5	-2,162200
13,433667	0,5	-2,177700
13,442000	0,5	-2,172300
13,450333	0,5	-2,159950
13,458667	0,5	-2,153400
13,467000	0,5	-2,128250
13,475333	0,5	-2,108450
13,483667	0,5	-2,076400
13,492000	0,5	-2,044650
13,500333	0,5	-2,011950
13,508667	0,5	-1,982350
13,517000	0,5	-1,956350
13,525333	0,5	-1,933950
13,533667	0,5	-1,924650
13,542000	0,5	-1,921700
13,550333	0,5	-1,908400
13,558667	0,5	-1,904200
13,567000	0,5	-1,898600
13,575333	0,5	-1,888450
13,583667	0,5	-1,881050
13,592000	0,5	-1,854900
13,600333	0,5	-1,841250
13,608667	0,5	-1,825950
13,617000	0,5	-1,817650
13,625333	0,5	-1,806050
13,633667	0,5	-1,801500
13,642000	0,5	-1,786800
13,650333	0,5	-1,775250
13,658667	0,5	-1,753250
13,667000	0,5	-1,727750
13,675333	0,5	-1,699250
13,683667	0,5	-1,687450
13,692000	0,5	-1,664600
13,700333	0,5	-1,651250
13,708667	0,5	-1,646650
13,717000	0,5	-1,663100
13,725333	0,5	-1,679150
13,733667	0,5	-1,688600
13,742000	0,5	-1,704550
13,750333	0,5	-1,719750
13,758667	0,5	-1,734900
13,767000	0,5	-1,741000
13,775333	0,5	-1,744800
13,783667	0,5	-1,744800
13,792000	0,5	-1,742800
13,800333	0,5	-1,734350
13,808667	0,5	-1,736350
13,817000	0,5	-1,723950
13,825333	0,5	-1,707950
13,833667	0,5	-1,710800
13,842000	0,5	-1,693600
13,850333	0,5	-1,681950
13,858667	0,5	-1,670600
13,867000	0,5	-1,666700
13,875333	0,5	-1,657550
13,883667	0,5	-1,644850
13,892000	0,5	-1,619750
13,900333	0,5	-1,597200
13,908667	0,5	-1,582100
13,917000	0,5	-1,565100
13,925333	0,5	-1,550150
13,933667	0,5	-1,527800
13,942000	0,5	-1,502750
13,950333	0,5	-1,489700
13,958667	0,5	-1,458850
13,967000	0,5	-1,442650
13,975333	0,5	-1,411450
13,983667	0,5	-1,398000
13,992000	0,5	-1,366550
14,000333	0,5	-1,345100
14,008667	0,5	-1,321600
14,017000	0,5	-1,317650
14,025333	0,5	-1,300350
14,033667	0,5	-1,269300
14,042000	0,5	-1,240950
14,050333	0,5	-1,212300
14,058667	0,5	-1,184600
14,067000	0,5	-1,155300
14,075333	0,5	-1,125000
14,083667	0,5	-1,091600
14,092000	0,5	-1,055950
14,100333	0,5	-1,012700
14,108667	0,5	-0,975700
14,117000	0,5	-0,941100
14,125333	0,5	-0,922950
14,133667	0,5	-0,891450
14,142000	0,5	-0,861650
14,150333	0,5	-0,842650
14,158667	0,5	-0,829550
14,167000	0,5	-0,820950
14,175333	0,5	-0,801900
14,183667	0,5	-0,761450
14,192000	0,5	-0,738500
14,200333	0,5	-0,702300
14,208667	0,5	-0,663800
14,217000	0,5	-0,625450
14,225333	0,5	-0,589300
14,233667	0,5	-0,540700
14,242000	0,5	-0,489550
14,250333	0,5	-0,437300
14,258667	0,5	-0,363800
14,267000	0,5	-0,282600
14,275333	0,5	-0,195650
14,283667	0,5	-0,079450
14,292000	0,5	0,042100
14,300333	0,5	0,150550
14,308667	0,5	0,243000
14,317000	0,5	0,306700
14,325333	0,5	0,352650
14,333667	0,5	0,375600
14,342000	0,5	0,375000
14,350333	0,5	0,356850
14,358667	0,5	0,347500
14,367000	0,5	0,331750
14,375333	0,5	0,339300
14,383667	0,5	0,367600
14,392000	0,5	0,405750
14,400333	0,5	0,468650
14,408667	0,5	0,533350
14,417000	0,5	0,582650
14,425333	0,5	0,607500
14,433667	0,5	0,620600
14,442000	0,5	0,602300
14,450333	0,5	0,566600
14,458667	0,5	0,511450
14,467000	0,5	0,473000
14,475333	0,5	0,440500
14,483667	0,5	0,416200
14,492000	0,5	0,390550
14,500333	0,5	0,379850
14,508667	0,5	0,367400
14,517000	0,5	0,358200
14,525333	0,5	0,351000
14,533667	0,5	0,338000
14,542000	0,5	0,333400
14,550333	0,5	0,326700
14,558667	0,5	0,329450
14,567000	0,5	0,320100
14,575333	0,5	0,317300
14,583667	0,5	0,320900
14,592000	0,5	0,314250
14,600333	0,5	0,312350
14,608667	0,5	0,294350
14,617000	0,5	0,292100
14,625333	0,5	0,302300
14,633667	0,5	0,300750
14,642000	0,5	0,317400
14,650333	0,5	0,337650
14,658667	0,5	0,350800
14,667000	0,5	0,355150
14,675333	0,5	0,367100
14,683667	0,5	0,367500
14,692000	0,5	0,354350
14,700333	0,5	0,342650
14,708667	0,5	0,329850
14,717000	0,5	0,294950
14,725333	0,5	0,289800
14,733667	0,5	0,268900
14,742000	0,5	0,255500
14,750333	0,5	0,241650
14,758667	0,5	0,219250
14,767000	0,5	0,225500
14,775333	0,5	0,232600
14,783667	0,5	0,227000
14,792000	0,5	0,223650
14,800333	0,5	0,227100
14,808667	0,5	0,228800
14,817000	0,5	0,238500
14,825333	0,5	0,242950
14,833667	0,5	0,263250
14,842000	0,5	0,283050
14,850333	0,5	0,344300
14,858667	0,5	0,418950
14,867000	0,5	0,512600
14,875333	0,5	0,628200
14,883667	0,5	0,723950
14,892000	0,5	0,781300
14,900333	0,5	0,781850
14,908667	0,5	0,728200
14,917000	0,5	0,665100
14,925333	0,5	0,597800
14,933667	0,5	0,540250
14,942000	0,5	0,512600
14,950333	0,5	0,521650
14,958667	0,5	0,552400
14,967000	0,5	0,597850
14,975333	0,5	0,641350
14,983667	0,5	0,660350
14,992000	0,5	0,652750
15,000333	0,5	0,610250
15,008667	0,5	0,558200
15,017000	0,5	0,494550
15,025333	0,5	0,452050
15,033667	0,5	0,397300
15,042000	0,5	0,354100
15,050333	0,5	0,313350
15,058667	0,5	0,291050
15,067000	0,5	0,286450
15,075333	0,5	0,276500
15,083667	0,5	0,269100
15,092000	0,5	0,269750
15,100333	0,5	0,268250
15,108667	0,5	0,275500
15,117000	0,5	0,284300
15,125333	0,5	0,291900
15,133667	0,5	0,300200
15,142000	0,5	0,306600
15,150333	0,5	0,304650
15,158667	0,5	0,284050
15,167000	0,5	0,289050
15,175333	0,5	0,283000
15,183667	0,5	0,273650
15,192000	0,5	0,254200
15,200333	0,5	0,239250
15,208667	0,5	0,216650
15,217000	0,5	0,209950
15,225333	0,5	0,190550
15,233667	0,5	0,181300
15,242000	0,5	0,162350
15,250333	0,5	0,147750
15,258667	0,5	0,142750
15,267000	0,5	0,133050
15,275333	0,5	0,125900
15,283667	0,5	0,118850
15,292000	0,5	0,124400
15,300333	0,5	0,116700
15,308667	0,5	0,107650
15,317000	0,5	0,112200
15,325333	0,5	0,108850
15,333667	0,5	0,110000
15,342000	0,5	0,111700
15,350333	0,5	0,136600
15,358667	0,5	0,204500
15,367000	0,5	0,294700
15,375333	0,5	0,409400
15,383667	0,5	0,524800
15,392000	0,5	0,625050
15,400333	0,5	0,674000
15,408667	0,5	0,665950
15,417000	0,5	0,617100
15,425333	0,5	0,551450
15,433667	0,5	0,508900
15,442000	0,5	0,482850
15,450333	0,5	0,476450
15,458667	0,5	0,516150
15,467000	0,5	0,553150
15,475333	0,5	0,571300
15,483667	0,5	0,550600
15,492000	0,5	0,486700
15,500333	0,5	0,435400
15,508667	0,5	0,375350
15,517000	0,5	0,330650
15,525333	0,5	0,291350
15,533667	0,5	0,274500
15,542000	0,5	0,257300
15,550333	0,5	0,260150
15,558667	0,5	0,263550
15,567000	0,5	0,263500
15,575333	0,5	0,254700
15,583667	0,5	0,246200
15,592000	0,5	0,236000
15,600333	0,5	0,210350
15,608667	0,5	0,209200
15,617000	0,5	0,205300
15,625333	0,5	0,197450
15,633667	0,5	0,182200
15,642000	0,5	0,154900
15,650333	0,5	0,143650
15,658667	0,5	0,132250
15,667000	0,5	0,105000
15,675333	0,5	0,096400
15,683667	0,5	0,072250
15,692000	0,5	0,049050
15,700333	0,5	0,027300
15,708667	0,5	0,019900
15,717000	0,5	0,001050
15,725333	0,5	-0,010400
15,733667	0,5	-0,014850
15,742000	0,5	-0,019650
15,750333	0,5	-0,047250
15,758667	0,5	-0,040000
15,767000	0,5	-0,047500
15,775333	0,5	-0,046200
15,783667	0,5	-0,054400
15,792000	0,5	-0,049450
15,800333	0,5	-0,002850
15,808667	0,5	0,050150
15,817000	0,5	0,132100
15,825333	0,5	0,238300
15,833667	0,5	0,363400
15,842000	0,5	0,464900
15,850333	0,5	0,535950
15,858667	0,5	0,537350
15,867000	0,5	0,512900
15,875333	0,5	0,470350
15,883667	0,5	0,442450
15,892000	0,5	0,416600
15,900333	0,5	0,436150
15,908667	0,5	0,449700
15,917000	0,5	0,444350
15,925333	0,5	0,406050
15,933667	0,5	0,341400
15,942000	0,5	0,280700
15,950333	0,5	0,233950
15,958667	0,5	0,186050
15,967000	0,5	0,136650
15,975333	0,5	0,116350
15,983667	0,5	0,082750
15,992000	0,5	0,064850
16,000333	0,5	0,060150
16,008667	0,5	0,061300
16,017000	0,5	0,053600
16,025333	0,5	0,067100
16,033667	0,5	0,071300
16,042000	0,5	0,052100
16,050333	0,5	0,064250
16,058667	0,5	0,048500
16,067000	0,5	0,032000
16,075333	0,5	0,005650
16,083667	0,5	-0,029950
16,092000	0,5	-0,054550
16,100333	0,5	-0,067800
16,108667	0,5	-0,087400
16,117000	0,5	-0,104000
16,125333	0,5	-0,117000
16,133667	0,5	-0,132300
16,142000	0,5	-0,139950
16,150333	0,5	-0,145000
16,158667	0,5	-0,154200
16,167000	0,5	-0,164050
16,175333	0,5	-0,170000
16,183667	0,5	-0,166750
16,192000	0,5	-0,164500
16,200333	0,5	-0,130850
16,208667	0,5	-0,089600
16,217000	0,5	-0,030250
16,225333	0,5	0,060050
16,233667	0,5	0,175350
16,242000	0,5	0,304300
16,250333	0,5	0,401750
16,258667	0,5	0,446800
16,267000	0,5	0,444300
16,275333	0,5	0,421650
16,283667	0,5	0,408450
16,292000	0,5	0,403900
16,300333	0,5	0,397650
16,308667	0,5	0,386850
16,317000	0,5	0,349500
16,325333	0,5	0,294300
16,333667	0,5	0,205000
16,342000	0,5	0,144500
16,350333	0,5	0,093750
16,358667	0,5	0,046850
16,367000	0,5	0,009000
16,375333	0,5	-0,024650
16,383667	0,5	-0,025200
16,392000	0,5	-0,015150
16,400333	0,5	-0,012600
16,408667	0,5	-0,008250
16,417000	0,5	-0,006200
16,425333	0,5	-0,010350
16,433667	0,5	-0,021000
16,442000	0,5	-0,033250
16,450333	0,5	-0,045150
16,458667	0,5	-0,073650
16,467000	0,5	-0,090250
16,475333	0,5	-0,119150
16,483667	0,5	-0,151700
16,492000	0,5	-0,160700
16,500333	0,5	-0,187450
16,508667	0,5	-0,200700
16,517000	0,5	-0,228700
16,525333	0,5	-0,255100
16,533667	0,5	-0,254650
16,542000	0,5	-0,256950
16,550333	0,5	-0,251500
16,558667	0,5	-0,232850
16,567000	0,5	-0,194300
16,575333	0,5	-0,130450
16,583667	0,5	-0,015800
16,592000	0,5	0,116800
16,600333	0,5	0,239850
16,608667	0,5	0,332800
16,617000	0,5	0,394650
16,625333	0,5	0,398750
16,633667	0,5	0,387950
16,642000	0,5	0,380400
16,650333	0,5	0,355850
16,658667	0,5	0,327450
16,667000	0,5	0,273400
16,675333	0,5	0,215750
16,683667	0,5	0,186000
16,692000	0,5	0,156000
16,700333	0,5	0,136200
16,708667	0,5	0,140200
16,717000	0,5	0,139500
16,725333	0,5	0,142300
16,733667	0,5	0,150650
16,742000	0,5	0,159050
16,750333	0,5	0,157250
16,758667	0,5	0,160550
16,767000	0,5	0,169450
16,775333	0,5	0,146700
16,783667	0,5	0,159650
16,792000	0,5	0,154500
16,800333	0,5	0,138250
16,808667	0,5	0,102000
16,817000	0,5	0,054350
16,825333	0,5	0,015950
16,833667	0,5	-0,006800
16,842000	0,5	-0,056050
16,850333	0,5	-0,098400
16,858667	0,5	-0,135750
16,867000	0,5	-0,165800
16,875333	0,5	-0,182000
16,883667	0,5	-0,174350
16,892000	0,5	-0,141700
16,900333	0,5	-0,082450
16,908667	0,5	0,019300
16,917000	0,5	0,132050
16,925333	0,5	0,209300
16,933667	0,5	0,283300
16,942000	0,5	0,304450
16,950333	0,5	0,293850
16,958667	0,5	0,261550
16,967000	0,5	0,210600
16,975333	0,5	0,172700
16,983667	0,5	0,117250
16,992000	0,5	0,070050
17,000333	0,5	0,015450
17,008667	0,5	-0,030800
17,017000	0,5	-0,073550
17,025333	0,5	-0,085650
17,033667	0,5	-0,104450
17,042000	0,5	-0,115650
17,050333	0,5	-0,123700
17,058667	0,5	-0,103750
17,067000	0,5	-0,113850
17,075333	0,5	-0,118150
17,083667	0,5	-0,130900
17,092000	0,5	-0,145150
17,100333	0,5	-0,160500
17,108667	0,5	-0,191850
17,117000	0,5	-0,209000
17,125333	0,5	-0,210700
17,133667	0,5	-0,204350
17,142000	0,5	-0,200050
17,150333	0,5	-0,181350
17,158667	0,5	-0,154950
17,167000	0,5	-0,110300
17,175333	0,5	-0,038050
17,183667	0,5	0,054550
17,192000	0,5	0,183850
17,200333	0,5	0,377650
17,208667	0,5	0,594500
17,217000	0,5	0,826600
17,225333	0,5	1,064700
17,233667	0,5	1,305100
17,242000	0,5	1,506250
17,250333	0,5	1,694450
17,258667	0,5	1,848250
17,267000	0,5	1,993500
17,275333	0,5	2,127300
17,283667	0,5	2,223150
17,292000	0,5	2,302550
17,300333	0,5	2,381250
17,308667	0,5	2,435700
17,317000	0,5	2,462100
17,325333	0,5	2,450550
17,333667	0,5	2,377600
17,342000	0,5	2,249200
17,350333	0,5	2,086000
17,358667	0,5	1,878500
17,367000	0,5	1,642850
17,375333	0,5	1,428700
17,383667	0,5	1,210300
17,392000	0,5	1,008850
17,400333	0,5	0,819700
17,408667	0,5	0,671850
17,417000	0,5	0,566150
17,425333	0,5	0,484950
17,433667	0,5	0,417250
17,442000	0,5	0,378550
17,450333	0,5	0,359800
17,458667	0,5	0,367400
17,467000	0,5	0,407500
17,475333	0,5	0,470850
17,483667	0,5	0,539250
17,492000	0,5	0,589450
17,500333	0,5	0,644900
17,508667	0,5	0,650450
17,517000	0,5	0,658900
17,525333	0,5	0,652350
17,533667	0,5	0,642800
17,542000	0,5	0,616750
17,550333	0,5	0,578100
17,558667	0,5	0,562950
17,567000	0,5	0,561950
17,575333	0,5	0,552900
17,583667	0,5	0,535000
17,592000	0,5	0,510100
17,600333	0,5	0,480800
17,608667	0,5	0,429850
17,617000	0,5	0,375800
17,625333	0,5	0,312600
17,633667	0,5	0,240250
17,642000	0,5	0,184300
17,650333	0,5	0,131550
17,658667	0,5	0,055800
17,667000	0,5	0,019650
17,675333	0,5	-0,006000
17,683667	0,5	-0,032850
17,692000	0,5	-0,049850
17,700333	0,5	-0,084150
17,708667	0,5	-0,031850
17,717000	0,5	0,007800
17,725333	0,5	0,068150
17,733667	0,5	0,107400
17,742000	0,5	0,144200
17,750333	0,5	0,137450
17,758667	0,5	0,117200
17,767000	0,5	0,086900
17,775333	0,5	0,028900
17,783667	0,5	-0,009000
17,792000	0,5	-0,063150
17,800333	0,5	-0,104200
17,808667	0,5	-0,147600
17,817000	0,5	-0,155700
17,825333	0,5	-0,174500
17,833667	0,5	-0,197900
17,842000	0,5	-0,238450
17,850333	0,5	-0,269400
17,858667	0,5	-0,280700
17,867000	0,5	-0,284000
17,875333	0,5	-0,304050
17,883667	0,5	-0,306550
17,892000	0,5	-0,313650
17,900333	0,5	-0,318350
17,908667	0,5	-0,321200
17,917000	0,5	-0,306450
17,925333	0,5	-0,279950
17,933667	0,5	-0,230200
17,942000	0,5	-0,162850
17,950333	0,5	-0,113500
17,958667	0,5	-0,076100
17,967000	0,5	-0,052150
17,975333	0,5	-0,054900
17,983667	0,5	-0,090100
17,992000	0,5	-0,137700
18,000333	0,5	-0,202100
18,008667	0,5	-0,226550
18,017000	0,5	-0,262500
18,025333	0,5	-0,282750
18,033667	0,5	-0,313350
18,042000	0,5	-0,324050
18,050333	0,5	-0,339400
18,058667	0,5	-0,352700
18,067000	0,5	-0,360400
18,075333	0,5	-0,362450
18,083667	0,5	-0,344100
18,092000	0,5	-0,341550
18,100333	0,5	-0,348900
18,108667	0,5	-0,335550
18,117000	0,5	-0,313050
18,125333	0,5	-0,279750
18,133667	0,5	-0,240200
18,142000	0,5	-0,210750
18,150333	0,5	-0,156700
18,158667	0,5	-0,126750
18,167000	0,5	-0,111650
18,175333	0,5	-0,130450
18,183667	0,5	-0,148750
18,192000	0,5	-0,195600
18,200333	0,5	-0,227600
18,208667	0,5	-0,265900
18,217000	0,5	-0,292900
18,225333	0,5	-0,306350
18,233667	0,5	-0,306750
18,242000	0,5	-0,329650
18,250333	0,5	-0,345800
18,258667	0,5	-0,344700
18,267000	0,5	-0,344450
18,275333	0,5	-0,344900
18,283667	0,5	-0,363350
18,292000	0,5	-0,360100
18,300333	0,5	-0,339150
18,308667	0,5	-0,297050
18,317000	0,5	-0,264150
18,325333	0,5	-0,209900
18,333667	0,5	-0,172450
18,342000	0,5	-0,152150
18,350333	0,5	-0,162200
18,358667	0,5	-0,173900
18,367000	0,5	-0,209500
18,375333	0,5	-0,236100
18,383667	0,5	-0,255950
18,392000	0,5	-0,283150
18,400333	0,5	-0,296250
18,408667	0,5	-0,297350
18,417000	0,5	-0,312000
18,425333	0,5	-0,315900
18,433667	0,5	-0,347850
18,442000	0,5	-0,346050
18,450333	0,5	-0,333550
18,458667	0,5	-0,328100
18,467000	0,5	-0,312950
18,475333	0,5	-0,292850
18,483667	0,5	-0,263200
18,492000	0,5	-0,238200
18,500333	0,5	-0,203850
18,508667	0,5	-0,199000
18,517000	0,5	-0,211550
18,525333	0,5	-0,215700
18,533667	0,5	-0,233400
18,542000	0,5	-0,280550
18,550333	0,5	-0,283250
18,558667	0,5	-0,299450
18,567000	0,5	-0,315450
18,575333	0,5	-0,343050
18,583667	0,5	-0,373950
18,592000	0,5	-0,362400
18,600333	0,5	-0,363800
18,608667	0,5	-0,358400
18,617000	0,5	-0,362550
18,625333	0,5	-0,362900
18,633667	0,5	-0,352750
18,642000	0,5	-0,330800
18,650333	0,5	-0,320250
18,658667	0,5	-0,309050
18,667000	0,5	-0,310750
18,675333	0,5	-0,304150
18,683667	0,5	-0,334200
18,692000	0,5	-0,346150
18,700333	0,5	-0,355500
18,708667	0,5	-0,378850
18,717000	0,5	-0,403450
18,725333	0,5	-0,438050
18,733667	0,5	-0,456050
18,742000	0,5	-0,447550
18,750333	0,5	-0,458000
18,758667	0,5	-0,465100
18,767000	0,5	-0,470950
18,775333	0,5	-0,463900
18,783667	0,5	-0,456350
18,792000	0,5	-0,436800
18,800333	0,5	-0,406050
18,808667	0,5	-0,389050
18,817000	0,5	-0,370700
18,825333	0,5	-0,365800
18,833667	0,5	-0,382450
18,842000	0,5	-0,370750
18,850333	0,5	-0,358150
18,858667	0,5	-0,347050
18,867000	0,5	-0,339550
18,875333	0,5	-0,353900
18,883667	0,5	-0,349100
18,892000	0,5	-0,334200
18,900333	0,5	-0,330050
18,908667	0,5	-0,319250
18,917000	0,5	-0,302100
18,925333	0,5	-0,294000
18,933667	0,5	-0,276850
18,942000	0,5	-0,271200
18,950333	0,5	-0,271100
18,958667	0,5	-0,287400
18,967000	0,5	-0,304300
18,975333	0,5	-0,313700
18,983667	0,5	-0,345700
18,992000	0,5	-0,342350
19,000333	0,5	-0,361550
19,008667	0,5	-0,369950
19,017000	0,5	-0,389350
19,025333	0,5	-0,405800
19,033667	0,5	-0,395900
19,042000	0,5	-0,370000
19,050333	0,5	-0,372150
19,058667	0,5	-0,366900
19,067000	0,5	-0,366350
19,075333	0,5	-0,380700
19,083667	0,5	-0,406500
19,092000	0,5	-0,428150
19,100333	0,5	-0,459450
19,108667	0,5	-0,477650
19,117000	0,5	-0,476150
19,125333	0,5	-0,484600
19,133667	0,5	-0,500600
19,142000	0,5	-0,493750
19,150333	0,5	-0,496900
19,158667	0,5	-0,504150
19,167000	0,5	-0,520100
19,175333	0,5	-0,538000
19,183667	0,5	-0,536100
19,192000	0,5	-0,547200
19,200333	0,5	-0,556600
19,208667	0,5	-0,574200
19,217000	0,5	-0,583100
19,225333	0,5	-0,607750
19,233667	0,5	-0,629050
19,242000	0,5	-0,644700
19,250333	0,5	-0,656350
19,258667	0,5	-0,648650
19,267000	0,5	-0,655550
19,275333	0,5	-0,687950
19,283667	0,5	-0,686900
19,292000	0,5	-0,695950
19,300333	0,5	-0,720050
19,308667	0,5	-0,749700
19,317000	0,5	-0,791350
19,325333	0,5	-0,791950
19,333667	0,5	-0,815100
19,342000	0,5	-0,812750
19,350333	0,5	-0,816700
19,358667	0,5	-0,801550
19,367000	0,5	-0,817050
19,375333	0,5	-0,819600
19,383667	0,5	-0,831000
19,392000	0,5	-0,856800
19,400333	0,5	-0,865050
19,408667	0,5	-0,865400
19,417000	0,5	-0,881000
19,425333	0,5	-0,889800
19,433667	0,5	-0,889500
19,442000	0,5	-0,899950
19,450333	0,5	-0,916450
19,458667	0,5	-0,946100
19,467000	0,5	-0,966950
19,475333	0,5	-0,970000
19,483667	0,5	-0,964750
19,492000	0,5	-0,973950
19,500333	0,5	-0,974700
19,508667	0,5	-0,978000
19,517000	0,5	-0,977250
19,525333	0,5	-0,989150
19,533667	0,5	-0,984350
19,542000	0,5	-0,996000
19,550333	0,5	-0,995750
19,558667	0,5	-0,983050
19,567000	0,5	-1,013100
19,575333	0,5	-1,009700
19,583667	0,5	-1,018600
19,592000	0,5	-1,024900
19,600333	0,5	-1,037900
19,608667	0,5	-1,075250
19,617000	0,5	-1,084900
19,625333	0,5	-1,081350
19,633667	0,5	-1,108100
19,642000	0,5	-1,121400
19,650333	0,5	-1,131600
19,658667	0,5	-1,134100
19,667000	0,5	-1,147250
19,675333	0,5	-1,158100
19,683667	0,5	-1,171100
19,692000	0,5	-1,180150
19,700333	0,5	-1,178700
19,708667	0,5	-1,176550
19,717000	0,5	-1,201300
19,725333	0,5	-1,191500
19,733667	0,5	-1,194250
19,742000	0,5	-1,206450
19,750333	0,5	-1,239950
19,758667	0,5	-1,268850
19,767000	0,5	-1,250000
19,775333	0,5	-1,263000
19,783667	0,5	-1,270750
19,792000	0,5	-1,277700
19,800333	0,5	-1,280550
19,808667	0,5	-1,304350
19,817000	0,5	-1,312250
19,825333	0,5	-1,317900
19,833667	0,5	-1,334250
19,842000	0,5	-1,342600
19,850333	0,5	-1,352800
19,858667	0,5	-1,367350
19,867000	0,5	-1,383150
19,875333	0,5	-1,380200
19,883667	0,5	-1,397250
19,892000	0,5	-1,423800
19,900333	0,5	-1,457000
19,908667	0,5	-1,476450
19,917000	0,5	-1,479800
19,925333	0,5	-1,474600
19,933667	0,5	-1,487950
19,942000	0,5	-1,485350
19,950333	0,5	-1,506700
19,958667	0,5	-1,509600
19,967000	0,5	-1,513800
19,975333	0,5	-1,511600
19,983667	0,5	-1,522850
19,992000	0,5	-1,517550
20,000333	0,5	-1,523900
20,008667	0,5	-1,534600
20,017000	0,5	-1,533500
20,025333	0,5	-1,531350
20,033667	0,5	-1,543700
20,042000	0,5	-1,568600
20,050333	0,5	-1,603600
20,058667	0,5	-1,629100
20,067000	0,5	-1,625950
20,075333	0,5	-1,648550
20,083667	0,5	-1,656900
20,092000	0,5	-1,669800
20,100333	0,5	-1,682000
20,108667	0,5	-1,697450
20,117000	0,5	-1,710150
20,125333	0,5	-1,729450
20,133667	0,5	-1,737300
20,142000	0,5	-1,740200
20,150333	0,5	-1,754600
20,158667	0,5	-1,783200
20,167000	0,5	-1,778700
20,175333	0,5	-1,797400
20,183667	0,5	-1,813650
20,192000	0,5	-1,845600
20,200333	0,5	-1,881300
20,208667	0,5	-1,878750
20,217000	0,5	-1,883800
20,225333	0,5	-1,889700
20,233667	0,5	-1,900250
20,242000	0,5	-1,909600
20,250333	0,5	-1,920750
20,258667	0,5	-1,929100
20,267000	0,5	-1,943650
20,275333	0,5	-1,952200
20,283667	0,5	-1,956900
20,292000	0,5	-1,951450
20,300333	0,5	-1,985850
20,308667	0,5	-1,992200
20,317000	0,5	-2,001750
20,325333	0,5	-2,028100
20,333667	0,5	-2,051650
20,342000	0,5	-2,099200
20,350333	0,5	-2,105050
20,358667	0,5	-2,123050
20,367000	0,5	-2,139550
20,375333	0,5	-2,152600
20,383667	0,5	-2,171050
20,392000	0,5	-2,197150
20,400333	0,5	-2,216800
20,408667	0,5	-2,241550
20,417000	0,5	-2,257200
20,425333	0,5	-2,289900
20,433667	0,5	-2,282300
20,442000	0,5	-2,295100
20,450333	0,5	-2,315250
20,458667	0,5	-2,340000
20,467000	0,5	-2,362550
20,475333	0,5	-2,392600
20,483667	0,5	-2,434150
20,492000	0,5	-2,469600
20,500333	0,5	-2,476550
20,508667	0,5	-2,489300
20,517000	0,5	-2,502300
20,525333	0,5	-2,516900
20,533667	0,5	-2,526800
20,542000	0,5	-2,547450
20,550333	0,5	-2,569600
20,558667	0,5	-2,590850
20,567000	0,5	-2,630750
20,575333	0,5	-2,628350
20,583667	0,5	-2,612050
20,592000	0,5	-2,618100
20,600333	0,5	-2,630000
20,608667	0,5	-2,652000
20,617000	0,5	-2,675700
20,625333	0,5	-2,717600
20,633667	0,5	-2,788400
20,642000	0,5	-2,825950
20,650333	0,5	-2,850150
20,658667	0,5	-2,872400
20,667000	0,5	-2,914500
20,675333	0,5	-2,946000
20,683667	0,5	-2,969350
20,692000	0,5	-3,000450
20,700333	0,5	-3,024800
20,708667	0,5	-3,060700
20,717000	0,5	-3,088600
20,725333	0,5	-3,089650
20,733667	0,5	-3,091750
20,742000	0,5	-3,120050
20,750333	0,5	-3,124800
20,758667	0,5	-3,137700
20,767000	0,5	-3,137250
20,775333	0,5	-3,170900
20,783667	0,5	-3,214550
20,792000	0,5	-3,230850
20,800333	0,5	-3,276100
20,808667	0,5	-3,328900
20,817000	0,5	-3,375550
20,825333	0,5	-3,434250
20,833667	0,5	-3,478600
20,842000	0,5	-3,526400
20,850333	0,5	-3,568000
20,858667	0,5	-3,610250
20,867000	0,5	-3,643350
20,875333	0,5	-3,649750
20,883667	0,5	-3,670050
20,892000	0,5	-3,710750
20,900333	0,5	-3,744400
20,908667	0,5	-3,782850
20,917000	0,5	-3,832500
20,925333	0,5	-3,870850
20,933667	0,5	-3,914750
20,942000	0,5	-3,934800
20,950333	0,5	-3,962450
20,958667	0,5	-3,991350
20,967000	0,5	-4,029400
20,975333	0,5	-4,063400
20,983667	0,5	-4,112000
20,992000	0,5	-4,143850
21,000333	0,5	-4,178100
21,008667	0,5	-4,215300
21,017000	0,5	-4,216400
21,025333	0,5	-4,214900
21,033667	0,5	-4,250050
21,042000	0,5	-4,281450
21,050333	0,5	-4,307350
21,058667	0,5	-4,355800
21,067000	0,5	-4,396100
21,075333	0,5	-4,440650
21,083667	0,5	-4,480900
21,092000	0,5	-4,508700
21,100333	0,5	-4,525400
21,108667	0,5	-4,553250
21,117000	0,5	-4,564750
21,125333	0,5	-4,592900
21,133667	0,5	-4,612050
21,142000	0,5	-4,641900
21,150333	0,5	-4,677300
21,158667	0,5	-4,691300
21,167000	0,5	-4,686000
21,175333	0,5	-4,684800
21,183667	0,5	-4,713550
21,192000	0,5	-4,743100
21,200333	0,5	-4,769550
21,208667	0,5	-4,791850
21,217000	0,5	-4,854800
21,225333	0,5	-4,879550
21,233667	0,5	-4,901900
21,242000	0,5	-4,911900
21,250333	0,5	-4,932350
21,258667	0,5	-4,949400
21,267000	0,5	-4,965100
21,275333	0,5	-4,976500
21,283667	0,5	-4,989850
21,292000	0,5	-5,008350
21,300333	0,5	-5,027100
21,308667	0,5	-5,011850
21,317000	0,5	-4,987200
21,325333	0,5	-4,982200
21,333667	0,5	-4,990650
21,342000	0,5	-5,007650
21,350333	0,5	-5,030500
21,358667	0,5	-5,069850
21,367000	0,5	-5,127450
21,375333	0,5	-5,149450
21,383667	0,5	-5,170500
21,392000	0,5	-5,200150
21,400333	0,5	-5,218900
21,408667	0,5	-5,238450
21,417000	0,5	-5,252300
21,425333	0,5	-5,280500
21,433667	0,5	-5,293150
21,442000	0,5	-5,313850
21,450333	0,5	-5,328250
21,458667	0,5	-5,306000
21,467000	0,5	-5,296250
21,475333	0,5	-5,316050
21,483667	0,5	-5,325700
21,492000	0,5	-5,347400
21,500333	0,5	-5,399100
21,508667	0,5	-5,425850
21,517000	0,5	-5,447550
21,525333	0,5	-5,450250
21,533667	0,5	-5,467450
21,542000	0,5	-5,476600
21,550333	0,5	-5,490950
21,558667	0,5	-5,493500
21,567000	0,5	-5,512450
21,575333	0,5	-5,533900
21,583667	0,5	-5,542800
21,592000	0,5	-5,564600
21,600333	0,5	-5,571100
21,608667	0,5	-5,550750
21,617000	0,5	-5,551950
21,625333	0,5	-5,572650
21,633667	0,5	-5,585600
21,642000	0,5	-5,600800
21,650333	0,5	-5,618300
21,658667	0,5	-5,657750
21,667000	0,5	-5,648300
21,675333	0,5	-5,644700
21,683667	0,5	-5,630800
21,692000	0,5	-5,624850
21,700333	0,5	-5,612400
21,708667	0,5	-5,626750
21,717000	0,5	-5,624950
21,725333	0,5	-5,640450
21,733667	0,5	-5,661500
21,742000	0,5	-5,676600
21,750333	0,5	-5,668350
21,758667	0,5	-5,657100
21,767000	0,5	-5,679400
21,775333	0,5	-5,676350
21,783667	0,5	-5,703400
21,792000	0,5	-5,718150
21,800333	0,5	-5,748700
21,808667	0,5	-5,789250
21,817000	0,5	-5,776150
21,825333	0,5	-5,783450
21,833667	0,5	-5,788150
21,842000	0,5	-5,781950
21,850333	0,5	-5,786000
21,858667	0,5	-5,792950
21,867000	0,5	-5,776100
21,875333	0,5	-5,785350
21,883667	0,5	-5,786000
21,892000	0,5	-5,797800
21,900333	0,5	-5,779800
21,908667	0,5	-5,807350
21,917000	0,5	-5,820100
21,925333	0,5	-5,836650
21,933667	0,5	-5,849600
21,942000	0,5	-5,875100
21,950333	0,5	-5,883850
21,958667	0,5	-5,867400
21,967000	0,5	-5,847450
21,975333	0,5	-5,842750
21,983667	0,5	-5,850150
21,992000	0,5	-5,885100
22,000333	0,5	-5,917200
22,008667	0,5	-5,962800
22,017000	0,5	-5,993200
22,025333	0,5	-6,020100
22,033667	0,5	-6,057000
22,042000	0,5	-6,069850
22,050333	0,5	-6,095350
22,058667	0,5	-6,121600
22,067000	0,5	-6,142750
22,075333	0,5	-6,162300
22,083667	0,5	-6,196350
22,092000	0,5	-6,228750
22,100333	0,5	-6,264400
22,108667	0,5	-6,280500
22,117000	0,5	-6,300500
22,125333	0,5	-6,312300
22,133667	0,5	-6,335100
22,142000	0,5	-6,351700
22,150333	0,5	-6,366050
22,158667	0,5	-6,376900
22,167000	0,5	-6,386200
22,175333	0,5	-6,408400
22,183667	0,5	-6,435350
22,192000	0,5	-6,455550
22,200333	0,5	-6,469950
22,208667	0,5	-6,480600
22,217000	0,5	-6,485300
22,225333	0,5	-6,497850
22,233667	0,5	-6,520150
22,242000	0,5	-6,545500
22,250333	0,5	-6,554550
22,258667	0,5	-6,559550
22,267000	0,5	-6,555800
22,275333	0,5	-6,572950
22,283667	0,5	-6,571250
22,292000	0,5	-6,571150
22,300333	0,5	-6,561300
22,308667	0,5	-6,559900
22,317000	0,5	-6,571800
22,325333	0,5	-6,551400
22,333667	0,5	-6,558400
22,342000	0,5	-6,545450
22,350333	0,5	-6,537850
22,358667	0,5	-6,506050
22,367000	0,5	-6,488350
22,375333	0,5	-6,469350
22,383667	0,5	-6,436050
22,392000	0,5	-6,395450
22,400333	0,5	-6,349650
22,408667	0,5	-6,339150
22,417000	0,5	-6,390350
22,425333	0,5	-6,431800
22,433667	0,5	-6,469200
22,442000	0,5	-6,501400
22,450333	0,5	-6,527800
22,458667	0,5	-6,550300
22,467000	0,5	-6,573450
22,475333	0,5	-6,609050
22,483667	0,5	-6,633450
22,492000	0,5	-6,670950
22,500333	0,5	-6,634750
22,508667	0,5	-6,642850
22,517000	0,5	-6,645750
22,525333	0,5	-6,664400
22,533667	0,5	-6,674950
22,542000	0,5	-6,688600
22,550333	0,5	-6,680100
22,558667	0,5	-6,692800
22,567000	0,5	-6,688500
22,575333	0,5	-6,678600
22,583667	0,5	-6,667550
22,592000	0,5	-6,658600
22,600333	0,5	-6,646500
22,608667	0,5	-6,631950
22,617000	0,5	-6,623300
22,625333	0,5	-6,651100
22,633667	0,5	-6,638550
22,642000	0,5	-6,614650
22,650333	0,5	-6,573500
22,658667	0,5	-6,575100
22,667000	0,5	-6,590300
22,675333	0,5	-6,601500
22,683667	0,5	-6,646000
22,692000	0,5	-6,637600
22,700333	0,5	-6,662500
22,708667	0,5	-6,687050
22,717000	0,5	-6,714400
22,725333	0,5	-6,727750
22,733667	0,5	-6,747550
22,742000	0,5	-6,762750
22,750333	0,5	-6,784000
22,758667	0,5	-6,800200
22,767000	0,5	-6,830650
22,775333	0,5	-6,919950
22,783667	0,5	-6,915650
22,792000	0,5	-6,910950
22,800333	0,5	-6,915250
22,808667	0,5	-6,933000
22,817000	0,5	-6,947900
22,825333	0,5	-6,968700
22,833667	0,5	-6,988250
22,842000	0,5	-6,998450
22,850333	0,5	-7,015250
22,858667	0,5	-7,015300
22,867000	0,5	-7,024600
22,875333	0,5	-7,028350
22,883667	0,5	-7,021250
22,892000	0,5	-7,018800
22,900333	0,5	-7,010000
22,908667	0,5	-7,005300
22,917000	0,5	-6,969750
22,925333	0,5	-6,976000
22,933667	0,5	-6,947100
22,942000	0,5	-6,952450
22,950333	0,5	-6,942750
22,958667	0,5	-6,934150
22,967000	0,5	-6,894100
22,975333	0,5	-6,872100
22,983667	0,5	-6,854550
22,992000	0,5	-6,831750
23,000333	0,5	-6,806400
23,008667	0,5	-6,778850
23,017000	0,5	-6,727700
23,025333	0,5	-6,668100
23,033667	0,5	-6,625350
23,042000	0,5	-6,569200
23,050333	0,5	-6,504450
23,058667	0,5	-6,423950
23,067000	0,5	-6,325650
23,075333	0,5	-6,265750
23,083667	0,5	-6,222900
23,092000	0,5	-6,194650
23,100333	0,5	-6,119400
23,108667	0,5	-6,054150
23,117000	0,5	-5,977950
23,125333	0,5	-5,895050
23,133667	0,5	-5,847800
23,142000	0,5	-5,779500
23,150333	0,5	-5,717900
23,158667	0,5	-5,641450
23,167000	0,5	-5,575950
23,175333	0,5	-5,495450
23,183667	0,5	-5,420300
23,192000	0,5	-5,346550
23,200333	0,5	-5,255800
23,208667	0,5	-5,136150
23,217000	0,5	-5,057700
23,225333	0,5	-4,959750
23,233667	0,5	-4,881500
23,242000	0,5	-4,847450
23,250333	0,5	-4,768450
23,258667	0,5	-4,696200
23,267000	0,5	-4,612650
23,275333	0,5	-4,550000
23,283667	0,5	-4,493250
23,292000	0,5	-4,441050
23,300333	0,5	-4,361350
23,308667	0,5	-4,310100
23,317000	0,5	-4,234450
23,325333	0,5	-4,165550
23,333667	0,5	-4,103550
23,342000	0,5	-4,033600
23,350333	0,5	-3,965200
23,358667	0,5	-3,893750
23,367000	0,5	-3,834300
23,375333	0,5	-3,737000
23,383667	0,5	-3,682850
23,392000	0,5	-3,635750
23,400333	0,5	-3,580800
23,408667	0,5	-3,519750
23,417000	0,5	-3,465150
23,425333	0,5	-3,424800
23,433667	0,5	-3,389950
23,442000	0,5	-3,342700
23,450333	0,5	-3,305800
23,458667	0,5	-3,257900
23,467000	0,5	-3,217400
23,475333	0,5	-3,169950
23,483667	0,5	-3,137850
23,492000	0,5	-3,092400
23,500333	0,5	-3,046400
23,508667	0,5	-3,101250
23,517000	0,5	-3,031400
23,525333	0,5	-2,961950
23,533667	0,5	-2,906250
23,542000	0,5	-2,876600
23,550333	0,5	-2,836450
23,558667	0,5	-2,804350
23,567000	0,5	-2,769700
23,575333	0,5	-2,751350
23,583667	0,5	-2,723350
23,592000	0,5	-2,690100
23,600333	0,5	-2,661200
23,608667	0,5	-2,636100
23,617000	0,5	-2,606400
23,625333	0,5	-2,581700
23,633667	0,5	-2,549500
23,642000	0,5	-2,520300
23,650333	0,5	-2,569700
23,658667	0,5	-2,594600
23,667000	0,5	-2,566450
23,675333	0,5	-2,475250
23,683667	0,5	-2,436100
23,692000	0,5	-2,408950
23,700333	0,5	-2,382950
23,708667	0,5	-2,373150
23,717000	0,5	-2,349300
23,725333	0,5	-2,323950
23,733667	0,5	-2,301000
23,742000	0,5	-2,276200
23,750333	0,5	-2,258500
23,758667	0,5	-2,231700
23,767000	0,5	-2,205450
23,775333	0,5	-2,183400
23,783667	0,5	-2,150300
23,792000	0,5	-2,129500
23,800333	0,5	-2,276650
23,808667	0,5	-2,233900
23,817000	0,5	-2,175150
23,825333	0,5	-2,096350
23,833667	0,5	-2,057800
23,842000	0,5	-2,027800
23,850333	0,5	-2,001000
23,858667	0,5	-1,992300
23,867000	0,5	-1,966950
23,875333	0,5	-1,941550
23,883667	0,5	-1,921500
23,892000	0,5	-1,900350
23,900333	0,5	-1,879400
23,908667	0,5	-1,861400
23,917000	0,5	-1,830100
23,925333	0,5	-1,805800
23,933667	0,5	-1,785200
23,942000	0,5	-1,794250
23,950333	0,5	-1,927700
23,958667	0,5	-1,872650
23,967000	0,5	-1,823200
23,975333	0,5	-1,745450
23,983667	0,5	-1,707050
23,992000	0,5	-1,675750
24,000333	0,5	-1,670250
24,008667	0,5	-1,657250
24,017000	0,5	-1,622750
24,025333	0,5	-1,591950
24,033667	0,5	-1,570750
24,042000	0,5	-1,539650
24,050333	0,5	-1,514800
24,058667	0,5	-1,493800
24,067000	0,5	-1,461400
24,075333	0,5	-1,444650
24,083667	0,5	-1,421700
24,092000	0,5	-1,498550
24,100333	0,5	-1,516400
24,108667	0,5	-1,498650
24,117000	0,5	-1,433250
24,125333	0,5	-1,386800
24,133667	0,5	-1,358800
24,142000	0,5	-1,338200
24,150333	0,5	-1,330300
24,158667	0,5	-1,319050
24,167000	0,5	-1,285600
24,175333	0,5	-1,268950
24,183667	0,5	-1,243100
24,192000	0,5	-1,223700
24,200333	0,5	-1,201000
24,208667	0,5	-1,180300
24,217000	0,5	-1,148350
24,225333	0,5	-1,126700
24,233667	0,5	-1,117850
24,242000	0,5	-1,207000
24,250333	0,5	-1,194550
24,258667	0,5	-1,155950
24,267000	0,5	-1,097500
24,275333	0,5	-1,059150
24,283667	0,5	-1,038450
24,292000	0,5	-1,021150
24,300333	0,5	-1,020750
24,308667	0,5	-0,992700
24,317000	0,5	-0,980050
24,325333	0,5	-0,957900
24,333667	0,5	-0,945900
24,342000	0,5	-0,927250
24,350333	0,5	-0,915150
24,358667	0,5	-0,894600
24,367000	0,5	-0,881250
24,375333	0,5	-0,862800
24,383667	0,5	-0,879050
24,392000	0,5	-0,929850
24,400333	0,5	-0,913600
24,408667	0,5	-0,875250
24,417000	0,5	-0,837550
24,425333	0,5	-0,814800
24,433667	0,5	-0,797100
24,442000	0,5	-0,805850
24,450333	0,5	-0,792150
24,458667	0,5	-0,768050
24,467000	0,5	-0,746900
24,475333	0,5	-0,732800
24,483667	0,5	-0,718750
24,492000	0,5	-0,708750
24,500333	0,5	-0,692450
24,508667	0,5	-0,680550
24,517000	0,5	-0,661050
24,525333	0,5	-0,651700
24,533667	0,5	-0,702800
24,542000	0,5	-0,702850
24,550333	0,5	-0,695600
24,558667	0,5	-0,665900
24,567000	0,5	-0,638950
24,575333	0,5	-0,623150
24,583667	0,5	-0,620050
24,592000	0,5	-0,622300
24,600333	0,5	-0,611950
24,608667	0,5	-0,594900
24,617000	0,5	-0,591350
24,625333	0,5	-0,583250
24,633667	0,5	-0,579050
24,642000	0,5	-0,569600
24,650333	0,5	-0,562050
24,658667	0,5	-0,541400
24,667000	0,5	-0,531200
24,675333	0,5	-0,525850
24,683667	0,5	-0,566950
24,692000	0,5	-0,540700
24,700333	0,5	-0,540750
24,708667	0,5	-0,513400
24,717000	0,5	-0,499800
24,725333	0,5	-0,487500
24,733667	0,5	-0,488750
24,742000	0,5	-0,493450
24,750333	0,5	-0,486400
24,758667	0,5	-0,476100
24,767000	0,5	-0,471200
24,775333	0,5	-0,466250
24,783667	0,5	-0,459500
24,792000	0,5	-0,458750
24,800333	0,5	-0,453650
24,808667	0,5	-0,443600
24,817000	0,5	-0,438450
24,825333	0,5	-0,447500
24,833667	0,5	-0,462650
24,842000	0,5	-0,459200
24,850333	0,5	-0,444850
24,858667	0,5	-0,431600
24,867000	0,5	-0,422450
24,875333	0,5	-0,411650
24,883667	0,5	-0,412850
24,892000	0,5	-0,410650
24,900333	0,5	-0,403100
24,908667	0,5	-0,400300
24,917000	0,5	-0,396000
24,925333	0,5	-0,394050
24,933667	0,5	-0,391750
24,942000	0,5	-0,388850
24,950333	0,5	-0,390650
24,958667	0,5	-0,384900
24,967000	0,5	-0,385550
24,975333	0,5	-0,393350
24,983667	0,5	-0,391350
24,992000	0,5	-0,392150
25,000333	0,5	-0,385100
25,008667	0,5	-0,383500
25,017000	0,5	-0,380150
25,025333	0,5	-0,374950
25,033667	0,5	-0,379050
25,042000	0,5	-0,379050
25,050333	0,5	-0,378850
25,058667	0,5	-0,376400
25,067000	0,5	-0,373150
25,075333	0,5	-0,367600
25,083667	0,5	-0,366050
25,092000	0,5	-0,362850
25,100333	0,5	-0,358050
25,108667	0,5	-0,353400
25,117000	0,5	-0,352000
25,125333	0,5	-0,358300
25,133667	0,5	-0,355400
25,142000	0,5	-0,356550
25,150333	0,5	-0,354500
25,158667	0,5	-0,353900
25,167000	0,5	-0,353700
25,175333	0,5	-0,354250
25,183667	0,5	-0,356300
25,192000	0,5	-0,360250
25,200333	0,5	-0,350450
25,208667	0,5	-0,354550
25,217000	0,5	-0,354700
25,225333	0,5	-0,353450
25,233667	0,5	-0,354450
25,242000	0,5	-0,355500
25,250333	0,5	-0,352700
25,258667	0,5	-0,352200
25,267000	0,5	-0,347250
25,275333	0,5	-0,342750
25,283667	0,5	-0,345100
25,292000	0,5	-0,336300
25,300333	0,5	-0,335500
25,308667	0,5	-0,337200
25,317000	0,5	-0,336950
25,325333	0,5	-0,337200
25,333667	0,5	-0,336050
25,342000	0,5	-0,339150
25,350333	0,5	-0,340300
25,358667	0,5	-0,342650
25,367000	0,5	-0,344900
25,375333	0,5	-0,347200
25,383667	0,5	-0,350750
25,392000	0,5	-0,351400
25,400333	0,5	-0,349800
25,408667	0,5	-0,345800
25,417000	0,5	-0,344300
25,425333	0,5	-0,345850
25,433667	0,5	-0,337200
25,442000	0,5	-0,342100
25,450333	0,5	-0,344400
25,458667	0,5	-0,346450
25,467000	0,5	-0,343500
25,475333	0,5	-0,339000
25,483667	0,5	-0,337250
25,492000	0,5	-0,340300
25,500333	0,5	-0,341150
25,508667	0,5	-0,340600
25,517000	0,5	-0,341150
25,525333	0,5	-0,340350
25,533667	0,5	-0,344200
25,542000	0,5	-0,344650
25,550333	0,5	-0,347950
25,558667	0,5	-0,347950
25,567000	0,5	-0,339600
25,575333	0,5	-0,345600
25,583667	0,5	-0,338200
25,592000	0,5	-0,347000
25,600333	0,5	-0,352250
25,608667	0,5	-0,351650
25,617000	0,5	-0,349550
25,625333	0,5	-0,341600
25,633667	0,5	-0,338450
25,642000	0,5	-0,346350
25,650333	0,5	-0,344600
25,658667	0,5	-0,345600
25,667000	0,5	-0,346200
25,675333	0,5	-0,347200
25,683667	0,5	-0,346350
25,692000	0,5	-0,341600
25,700333	0,5	-0,348300
25,708667	0,5	-0,345500
25,717000	0,5	-0,336450
25,725333	0,5	-0,343050
25,733667	0,5	-0,334450
25,742000	0,5	-0,347750
25,750333	0,5	-0,344850
25,758667	0,5	-0,348250
25,767000	0,5	-0,339850
25,775333	0,5	-0,328900
25,783667	0,5	-0,333250
25,792000	0,5	-0,336000
25,800333	0,5	-0,335950
25,808667	0,5	-0,337400
25,817000	0,5	-0,340050
25,825333	0,5	-0,337900
25,833667	0,5	-0,334650
25,842000	0,5	-0,336700
25,850333	0,5	-0,334300
25,858667	0,5	-0,323950
25,867000	0,5	-0,329100
25,875333	0,5	-0,323700
25,883667	0,5	-0,322050
25,892000	0,5	-0,324800
25,900333	0,5	-0,328850
25,908667	0,5	-0,322400
25,917000	0,5	-0,320800
25,925333	0,5	-0,312200
25,933667	0,5	-0,318300
25,942000	0,5	-0,316350
25,950333	0,5	-0,318200
25,958667	0,5	-0,312050
25,967000	0,5	-0,310800
25,975333	0,5	-0,306050
25,983667	0,5	-0,306350
25,992000	0,5	-0,303450
26,000333	0,5	-0,297200
