File Path	chrom://chromeleon01/ikbm_chromeleon/2022/ICS-5000/ED1/Esteban/20220427_Cell_Amandas_mutants.seq/894.smp/ED_1.channel/ED_1.chm
Channel	ED_1

Injection Information:
Data Vault	ikbm_chromeleon
Injection	T24h_Avi_4a
Injection Number	21
Position	RB7
Comment	
Processing Method	Stop sequence after Cell Death
Instrument Method	ICS5000_PA200_FullNative_Ox_26min_ED1
Type	Unknown
Status	Finished
Injection Date	27.04.2022
Injection Time	22:26:34
Injection Volume (µl)	5,0
Dilution Factor	1,0000
Weight	1,0000

Chromatogram Data Information:
Time Min. (min)	0,000167
Time Max. (min)	26,000167
Data Points	3121
Detector	EDet1
Generating Data System	Chromeleon 7.2.9.11323
Exporting Data System	Chromeleon 7.2.9.0
Operator	Instrument Controller
Signal Quantity	
Signal Unit	nC
Signal Min.	-6,980450
Signal Max.	44,768601
Channel	ED_1
Driver Name	DC-5000
Channel Type	Evaluation
Min. Step (s)	0,5
Max. Step (s)	0,5
Average Step (s)	0,5

Signal Parameter Information:
Signal Info	

Chromatogram Data:
Time (min)	Step (s)	Value (nC)
0,000167	n.a.	0,003700
0,008500	0,5	-0,087400
0,016833	0,5	-0,080450
0,025167	0,5	-0,070050
0,033500	0,5	-0,032750
0,041833	0,5	0,007200
0,050167	0,5	0,000550
0,058500	0,5	-0,009000
0,066833	0,5	-0,000600
0,075167	0,5	-0,009450
0,083500	0,5	-0,001950
0,091833	0,5	-0,003400
0,100167	0,5	-0,000500
0,108500	0,5	-0,017000
0,116833	0,5	0,016250
0,125167	0,5	0,002650
0,133500	0,5	0,001900
0,141833	0,5	0,007100
0,150167	0,5	0,009500
0,158500	0,5	-0,019650
0,166833	0,5	-0,015050
0,175167	0,5	-0,005350
0,183500	0,5	0,030150
0,191833	0,5	0,045850
0,200167	0,5	0,027600
0,208500	0,5	0,023700
0,216833	0,5	0,033800
0,225167	0,5	0,021600
0,233500	0,5	0,023450
0,241833	0,5	0,024150
0,250167	0,5	0,010050
0,258500	0,5	0,005350
0,266833	0,5	-0,007100
0,275167	0,5	-0,013000
0,283500	0,5	-0,022650
0,291833	0,5	0,002200
0,300167	0,5	-0,014700
0,308500	0,5	0,019500
0,316833	0,5	0,032250
0,325167	0,5	0,014250
0,333500	0,5	0,007150
0,341833	0,5	0,014950
0,350167	0,5	-0,001350
0,358500	0,5	0,003450
0,366833	0,5	-0,004350
0,375167	0,5	-0,007450
0,383500	0,5	-0,007900
0,391833	0,5	-0,014100
0,400167	0,5	-0,019600
0,408500	0,5	-0,022600
0,416833	0,5	-0,009000
0,425167	0,5	-0,046250
0,433500	0,5	-0,037650
0,441833	0,5	-0,033900
0,450167	0,5	-0,047400
0,458500	0,5	-0,055600
0,466833	0,5	-0,043300
0,475167	0,5	-0,016300
0,483500	0,5	0,009750
0,491833	0,5	-0,009200
0,500167	0,5	-0,007250
0,508500	0,5	-0,023300
0,516833	0,5	-0,002450
0,525167	0,5	-0,016700
0,533500	0,5	-0,009300
0,541833	0,5	-0,021050
0,550167	0,5	-0,025250
0,558500	0,5	-0,021200
0,566833	0,5	-0,043700
0,575167	0,5	-0,050750
0,583500	0,5	-0,024350
0,591833	0,5	-0,042950
0,600167	0,5	-0,054850
0,608500	0,5	-0,050150
0,616833	0,5	-0,031700
0,625167	0,5	0,017400
0,633500	0,5	0,005500
0,641833	0,5	0,000350
0,650167	0,5	-0,017050
0,658500	0,5	-0,004700
0,666833	0,5	-0,027300
0,675167	0,5	-0,026650
0,683500	0,5	-0,034200
0,691833	0,5	-0,036600
0,700167	0,5	-0,039200
0,708500	0,5	-0,035100
0,716833	0,5	-0,022700
0,725167	0,5	-0,037200
0,733500	0,5	-0,007150
0,741833	0,5	-0,036000
0,750167	0,5	-0,048250
0,758500	0,5	-0,049400
0,766833	0,5	-0,038350
0,775167	0,5	-0,001500
0,783500	0,5	-0,008800
0,791833	0,5	-0,035500
0,800167	0,5	-0,024200
0,808500	0,5	-0,034100
0,816833	0,5	-0,018400
0,825167	0,5	-0,024150
0,833500	0,5	-0,021950
0,841833	0,5	-0,033750
0,850167	0,5	-0,026850
0,858500	0,5	-0,030750
0,866833	0,5	-0,042200
0,875167	0,5	-0,058000
0,883500	0,5	-0,024500
0,891833	0,5	-0,051300
0,900167	0,5	-0,047600
0,908500	0,5	-0,040350
0,916833	0,5	-0,008950
0,925167	0,5	0,025000
0,933500	0,5	-0,008550
0,941833	0,5	-0,005800
0,950167	0,5	-0,010000
0,958500	0,5	-0,006200
0,966833	0,5	-0,016300
0,975167	0,5	-0,006450
0,983500	0,5	-0,014150
0,991833	0,5	-0,012250
1,000167	0,5	-0,009150
1,008500	0,5	-0,016150
1,016833	0,5	-0,030050
1,025167	0,5	-0,005800
1,033500	0,5	-0,005150
1,041833	0,5	-0,028050
1,050167	0,5	-0,025850
1,058500	0,5	-0,014200
1,066833	0,5	0,013550
1,075167	0,5	0,041500
1,083500	0,5	0,028450
1,091833	0,5	0,025500
1,100167	0,5	0,027900
1,108500	0,5	0,015450
1,116833	0,5	0,025350
1,125167	0,5	0,026450
1,133500	0,5	0,021350
1,141833	0,5	0,011200
1,150167	0,5	0,024100
1,158500	0,5	0,012850
1,166833	0,5	0,008550
1,175167	0,5	0,019750
1,183500	0,5	0,006000
1,191833	0,5	0,001950
1,200167	0,5	0,003450
1,208500	0,5	0,021600
1,216833	0,5	0,064900
1,225167	0,5	0,075750
1,233500	0,5	0,060750
1,241833	0,5	0,055400
1,250167	0,5	0,057050
1,258500	0,5	0,048400
1,266833	0,5	0,051450
1,275167	0,5	0,054000
1,283500	0,5	0,051750
1,291833	0,5	0,053850
1,300167	0,5	0,051750
1,308500	0,5	0,047800
1,316833	0,5	0,054450
1,325167	0,5	0,082650
1,333500	0,5	0,052950
1,341833	0,5	0,050800
1,350167	0,5	0,047750
1,358500	0,5	0,077000
1,366833	0,5	0,108500
1,375167	0,5	0,123150
1,383500	0,5	0,109250
1,391833	0,5	0,112550
1,400167	0,5	0,106400
1,408500	0,5	0,112700
1,416833	0,5	0,118150
1,425167	0,5	0,124800
1,433500	0,5	0,119600
1,441833	0,5	0,116800
1,450167	0,5	0,125750
1,458500	0,5	0,113900
1,466833	0,5	0,130700
1,475167	0,5	0,136100
1,483500	0,5	0,122550
1,491833	0,5	0,124300
1,500167	0,5	0,135700
1,508500	0,5	0,169200
1,516833	0,5	0,200850
1,525167	0,5	0,196400
1,533500	0,5	0,200500
1,541833	0,5	0,190950
1,550167	0,5	0,199350
1,558500	0,5	0,195700
1,566833	0,5	0,203850
1,575167	0,5	0,125950
1,583500	0,5	-0,162350
1,591833	0,5	-0,950100
1,600167	0,5	-1,910450
1,608500	0,5	-1,890850
1,616833	0,5	-0,345500
1,625167	0,5	1,456950
1,633500	0,5	3,063050
1,641833	0,5	4,863300
1,650167	0,5	6,724050
1,658500	0,5	8,009800
1,666833	0,5	8,306800
1,675167	0,5	7,955500
1,683500	0,5	7,337850
1,691833	0,5	6,691200
1,700167	0,5	6,070700
1,708500	0,5	5,536850
1,716833	0,5	5,050100
1,725167	0,5	4,626000
1,733500	0,5	4,247350
1,741833	0,5	3,929350
1,750167	0,5	3,619650
1,758500	0,5	3,358100
1,766833	0,5	3,173050
1,775167	0,5	3,005950
1,783500	0,5	2,947800
1,791833	0,5	3,093900
1,800167	0,5	3,571000
1,808500	0,5	4,485900
1,816833	0,5	5,871250
1,825167	0,5	7,461450
1,833500	0,5	8,313350
1,841833	0,5	7,874000
1,850167	0,5	6,768350
1,858500	0,5	5,698900
1,866833	0,5	4,886800
1,875167	0,5	4,313650
1,883500	0,5	3,913450
1,891833	0,5	3,617200
1,900167	0,5	3,389150
1,908500	0,5	3,204000
1,916833	0,5	3,064000
1,925167	0,5	2,875700
1,933500	0,5	2,736300
1,941833	0,5	2,643250
1,950167	0,5	2,620900
1,958500	0,5	2,638050
1,966833	0,5	2,612350
1,975167	0,5	2,591350
1,983500	0,5	2,581700
1,991833	0,5	2,611650
2,000167	0,5	2,705900
2,008500	0,5	2,939600
2,016833	0,5	3,409350
2,025167	0,5	4,395400
2,033500	0,5	6,283300
2,041833	0,5	8,926900
2,050167	0,5	11,005600
2,058500	0,5	11,527650
2,066833	0,5	10,950350
2,075167	0,5	10,292300
2,083500	0,5	9,849350
2,091833	0,5	9,546050
2,100167	0,5	9,338600
2,108500	0,5	9,215200
2,116833	0,5	9,187650
2,125167	0,5	9,301500
2,133500	0,5	9,552300
2,141833	0,5	9,997900
2,150167	0,5	10,818450
2,158500	0,5	12,216400
2,166833	0,5	13,718400
2,175167	0,5	14,305000
2,183500	0,5	13,679300
2,191833	0,5	12,534600
2,200167	0,5	11,584700
2,208500	0,5	10,961500
2,216833	0,5	10,543750
2,225167	0,5	10,267950
2,233500	0,5	10,119700
2,241833	0,5	10,061600
2,250167	0,5	10,084850
2,258500	0,5	10,129600
2,266833	0,5	10,213400
2,275167	0,5	10,334600
2,283500	0,5	10,494500
2,291833	0,5	10,635250
2,300167	0,5	10,746950
2,308500	0,5	10,816250
2,316833	0,5	10,878200
2,325167	0,5	10,952000
2,333500	0,5	11,037250
2,341833	0,5	11,108600
2,350167	0,5	11,187100
2,358500	0,5	11,273100
2,366833	0,5	11,330150
2,375167	0,5	11,418000
2,383500	0,5	11,511000
2,391833	0,5	11,643400
2,400167	0,5	11,765250
2,408500	0,5	11,884300
2,416833	0,5	11,986850
2,425167	0,5	12,137550
2,433500	0,5	12,314300
2,441833	0,5	12,565150
2,450167	0,5	12,876150
2,458500	0,5	13,225550
2,466833	0,5	13,521350
2,475167	0,5	13,673800
2,483500	0,5	13,649250
2,491833	0,5	13,582550
2,500167	0,5	13,573950
2,508500	0,5	13,563300
2,516833	0,5	13,537950
2,525167	0,5	13,509700
2,533500	0,5	13,476750
2,541833	0,5	13,465150
2,550167	0,5	13,441850
2,558500	0,5	13,421350
2,566833	0,5	13,473700
2,575167	0,5	13,593350
2,583500	0,5	13,844850
2,591833	0,5	14,287100
2,600167	0,5	15,122650
2,608500	0,5	16,631300
2,616833	0,5	19,153250
2,625167	0,5	22,559900
2,633500	0,5	26,106050
2,641833	0,5	28,762550
2,650167	0,5	29,869350
2,658500	0,5	29,308100
2,666833	0,5	27,616950
2,675167	0,5	25,420500
2,683500	0,5	23,242900
2,691833	0,5	21,407650
2,700167	0,5	19,970400
2,708500	0,5	19,036000
2,716833	0,5	18,663800
2,725167	0,5	18,956150
2,733500	0,5	20,115150
2,741833	0,5	22,337400
2,750167	0,5	25,670500
2,758500	0,5	30,092000
2,766833	0,5	35,329101
2,775167	0,5	40,504351
2,783500	0,5	44,070451
2,791833	0,5	44,768601
2,800167	0,5	42,423551
2,808500	0,5	38,003401
2,816833	0,5	32,986100
2,825167	0,5	28,497500
2,833500	0,5	25,061800
2,841833	0,5	22,859850
2,850167	0,5	21,936250
2,858500	0,5	22,559950
2,866833	0,5	24,737200
2,875167	0,5	27,777500
2,883500	0,5	30,236050
2,891833	0,5	30,826650
2,900167	0,5	29,243650
2,908500	0,5	26,203150
2,916833	0,5	22,752000
2,925167	0,5	19,587600
2,933500	0,5	16,998950
2,941833	0,5	15,009050
2,950167	0,5	13,497200
2,958500	0,5	12,327250
2,966833	0,5	11,427950
2,975167	0,5	10,713150
2,983500	0,5	10,145850
2,991833	0,5	9,663200
3,000167	0,5	9,226250
3,008500	0,5	8,837850
3,016833	0,5	8,513500
3,025167	0,5	8,208800
3,033500	0,5	7,936600
3,041833	0,5	7,692800
3,050167	0,5	7,475100
3,058500	0,5	7,283050
3,066833	0,5	7,102400
3,075167	0,5	6,946550
3,083500	0,5	6,776700
3,091833	0,5	6,656350
3,100167	0,5	6,515350
3,108500	0,5	6,380050
3,116833	0,5	6,255250
3,125167	0,5	6,137250
3,133500	0,5	6,006100
3,141833	0,5	5,873800
3,150167	0,5	5,731050
3,158500	0,5	5,648450
3,166833	0,5	5,587950
3,175167	0,5	5,590300
3,183500	0,5	5,639850
3,191833	0,5	5,808000
3,200167	0,5	6,163700
3,208500	0,5	6,857100
3,216833	0,5	7,988600
3,225167	0,5	9,507350
3,233500	0,5	11,166550
3,241833	0,5	12,532950
3,250167	0,5	13,142250
3,258500	0,5	12,856150
3,266833	0,5	11,824400
3,275167	0,5	10,379650
3,283500	0,5	8,895250
3,291833	0,5	7,572950
3,300167	0,5	6,516750
3,308500	0,5	5,716350
3,316833	0,5	5,136150
3,325167	0,5	4,686300
3,333500	0,5	4,347700
3,341833	0,5	4,066250
3,350167	0,5	3,836850
3,358500	0,5	3,651050
3,366833	0,5	3,483950
3,375167	0,5	3,346000
3,383500	0,5	3,255050
3,391833	0,5	3,149350
3,400167	0,5	3,048500
3,408500	0,5	2,968650
3,416833	0,5	2,897050
3,425167	0,5	2,858200
3,433500	0,5	2,787200
3,441833	0,5	2,713600
3,450167	0,5	2,622050
3,458500	0,5	2,553400
3,466833	0,5	2,475450
3,475167	0,5	2,415850
3,483500	0,5	2,348800
3,491833	0,5	2,287100
3,500167	0,5	2,233700
3,508500	0,5	2,185900
3,516833	0,5	2,138200
3,525167	0,5	2,103300
3,533500	0,5	2,075900
3,541833	0,5	2,023450
3,550167	0,5	1,969400
3,558500	0,5	1,933750
3,566833	0,5	1,901550
3,575167	0,5	1,896750
3,583500	0,5	1,868950
3,591833	0,5	1,827900
3,600167	0,5	1,796200
3,608500	0,5	1,760600
3,616833	0,5	1,726950
3,625167	0,5	1,706700
3,633500	0,5	1,684650
3,641833	0,5	1,646550
3,650167	0,5	1,621600
3,658500	0,5	1,595750
3,666833	0,5	1,578100
3,675167	0,5	1,549600
3,683500	0,5	1,563950
3,691833	0,5	1,517400
3,700167	0,5	1,492500
3,708500	0,5	1,471500
3,716833	0,5	1,472450
3,725167	0,5	1,485600
3,733500	0,5	1,453800
3,741833	0,5	1,435500
3,750167	0,5	1,423600
3,758500	0,5	1,408500
3,766833	0,5	1,393300
3,775167	0,5	1,377800
3,783500	0,5	1,358850
3,791833	0,5	1,333600
3,800167	0,5	1,319550
3,808500	0,5	1,309050
3,816833	0,5	1,277450
3,825167	0,5	1,275850
3,833500	0,5	1,275850
3,841833	0,5	1,243400
3,850167	0,5	1,218350
3,858500	0,5	1,214150
3,866833	0,5	1,220650
3,875167	0,5	1,234750
3,883500	0,5	1,209400
3,891833	0,5	1,200000
3,900167	0,5	1,190550
3,908500	0,5	1,181650
3,916833	0,5	1,173400
3,925167	0,5	1,169250
3,933500	0,5	1,163300
3,941833	0,5	1,149900
3,950167	0,5	1,147850
3,958500	0,5	1,144750
3,966833	0,5	1,130250
3,975167	0,5	1,133200
3,983500	0,5	1,124150
3,991833	0,5	1,105800
4,000167	0,5	1,097550
4,008500	0,5	1,100800
4,016833	0,5	1,119050
4,025167	0,5	1,115650
4,033500	0,5	1,107950
4,041833	0,5	1,086400
4,050167	0,5	1,081300
4,058500	0,5	1,064150
4,066833	0,5	1,061150
4,075167	0,5	1,047350
4,083500	0,5	1,038450
4,091833	0,5	1,031100
4,100167	0,5	1,022850
4,108500	0,5	1,035900
4,116833	0,5	1,020450
4,125167	0,5	1,035050
4,133500	0,5	1,022850
4,141833	0,5	1,007650
4,150167	0,5	1,002700
4,158500	0,5	1,012650
4,166833	0,5	1,029600
4,175167	0,5	1,030200
4,183500	0,5	1,009700
4,191833	0,5	1,015550
4,200167	0,5	1,007750
4,208500	0,5	1,008650
4,216833	0,5	1,002950
4,225167	0,5	1,009850
4,233500	0,5	1,014100
4,241833	0,5	1,024250
4,250167	0,5	1,038050
4,258500	0,5	1,044450
4,266833	0,5	1,058400
4,275167	0,5	1,090800
4,283500	0,5	1,103500
4,291833	0,5	1,140450
4,300167	0,5	1,181900
4,308500	0,5	1,246750
4,316833	0,5	1,321400
4,325167	0,5	1,370800
4,333500	0,5	1,433300
4,341833	0,5	1,485050
4,350167	0,5	1,539450
4,358500	0,5	1,588850
4,366833	0,5	1,656150
4,375167	0,5	1,708200
4,383500	0,5	1,770650
4,391833	0,5	1,822350
4,400167	0,5	1,855800
4,408500	0,5	1,858050
4,416833	0,5	1,861150
4,425167	0,5	1,817150
4,433500	0,5	1,748300
4,441833	0,5	1,679350
4,450167	0,5	1,588350
4,458500	0,5	1,528450
4,466833	0,5	1,456550
4,475167	0,5	1,383850
4,483500	0,5	1,323100
4,491833	0,5	1,275600
4,500167	0,5	1,230500
4,508500	0,5	1,198800
4,516833	0,5	1,168600
4,525167	0,5	1,148850
4,533500	0,5	1,127750
4,541833	0,5	1,130650
4,550167	0,5	1,107400
4,558500	0,5	1,096100
4,566833	0,5	1,105000
4,575167	0,5	1,090700
4,583500	0,5	1,070100
4,591833	0,5	1,072100
4,600167	0,5	1,072200
4,608500	0,5	1,096900
4,616833	0,5	1,089850
4,625167	0,5	1,086300
4,633500	0,5	1,088250
4,641833	0,5	1,094700
4,650167	0,5	1,089150
4,658500	0,5	1,091300
4,666833	0,5	1,098200
4,675167	0,5	1,097750
4,683500	0,5	1,104000
4,691833	0,5	1,099250
4,700167	0,5	1,104050
4,708500	0,5	1,103450
4,716833	0,5	1,121900
4,725167	0,5	1,100000
4,733500	0,5	1,094500
4,741833	0,5	1,100150
4,750167	0,5	1,114150
4,758500	0,5	1,129250
4,766833	0,5	1,119250
4,775167	0,5	1,110500
4,783500	0,5	1,112100
4,791833	0,5	1,113550
4,800167	0,5	1,119950
4,808500	0,5	1,120900
4,816833	0,5	1,125400
4,825167	0,5	1,123600
4,833500	0,5	1,128600
4,841833	0,5	1,148400
4,850167	0,5	1,135050
4,858500	0,5	1,151000
4,866833	0,5	1,158400
4,875167	0,5	1,153300
4,883500	0,5	1,148100
4,891833	0,5	1,157200
4,900167	0,5	1,170650
4,908500	0,5	1,196950
4,916833	0,5	1,182650
4,925167	0,5	1,188450
4,933500	0,5	1,186850
4,941833	0,5	1,198100
4,950167	0,5	1,200500
4,958500	0,5	1,203850
4,966833	0,5	1,211200
4,975167	0,5	1,211100
4,983500	0,5	1,218850
4,991833	0,5	1,224050
5,000167	0,5	1,221300
5,008500	0,5	1,244950
5,016833	0,5	1,240150
5,025167	0,5	1,240850
5,033500	0,5	1,247800
5,041833	0,5	1,268300
5,050167	0,5	1,313350
5,058500	0,5	1,327850
5,066833	0,5	1,341600
5,075167	0,5	1,356400
5,083500	0,5	1,386400
5,091833	0,5	1,408700
5,100167	0,5	1,442100
5,108500	0,5	1,468300
5,116833	0,5	1,492150
5,125167	0,5	1,506550
5,133500	0,5	1,511400
5,141833	0,5	1,512950
5,150167	0,5	1,505100
5,158500	0,5	1,501300
5,166833	0,5	1,470900
5,175167	0,5	1,450500
5,183500	0,5	1,429700
5,191833	0,5	1,428000
5,200167	0,5	1,430800
5,208500	0,5	1,428150
5,216833	0,5	1,406050
5,225167	0,5	1,401800
5,233500	0,5	1,392050
5,241833	0,5	1,387000
5,250167	0,5	1,382850
5,258500	0,5	1,383650
5,266833	0,5	1,378150
5,275167	0,5	1,390600
5,283500	0,5	1,385050
5,291833	0,5	1,388650
5,300167	0,5	1,391950
5,308500	0,5	1,394500
5,316833	0,5	1,383750
5,325167	0,5	1,386050
5,333500	0,5	1,381750
5,341833	0,5	1,399850
5,350167	0,5	1,415750
5,358500	0,5	1,413150
5,366833	0,5	1,410400
5,375167	0,5	1,405250
5,383500	0,5	1,400950
5,391833	0,5	1,401700
5,400167	0,5	1,403800
5,408500	0,5	1,400700
5,416833	0,5	1,399850
5,425167	0,5	1,393550
5,433500	0,5	1,392050
5,441833	0,5	1,378200
5,450167	0,5	1,399350
5,458500	0,5	1,392900
5,466833	0,5	1,381400
5,475167	0,5	1,385950
5,483500	0,5	1,392700
5,491833	0,5	1,411250
5,500167	0,5	1,417400
5,508500	0,5	1,413050
5,516833	0,5	1,410350
5,525167	0,5	1,411600
5,533500	0,5	1,410400
5,541833	0,5	1,416450
5,550167	0,5	1,412050
5,558500	0,5	1,418150
5,566833	0,5	1,412800
5,575167	0,5	1,424250
5,583500	0,5	1,408500
5,591833	0,5	1,408200
5,600167	0,5	1,421150
5,608500	0,5	1,413850
5,616833	0,5	1,401900
5,625167	0,5	1,399400
5,633500	0,5	1,403500
5,641833	0,5	1,422450
5,650167	0,5	1,415650
5,658500	0,5	1,419550
5,666833	0,5	1,410150
5,675167	0,5	1,411250
5,683500	0,5	1,392250
5,691833	0,5	1,389250
5,700167	0,5	1,390500
5,708500	0,5	1,378700
5,716833	0,5	1,374000
5,725167	0,5	1,363000
5,733500	0,5	1,354000
5,741833	0,5	1,344450
5,750167	0,5	1,347400
5,758500	0,5	1,336000
5,766833	0,5	1,322400
5,775167	0,5	1,319250
5,783500	0,5	1,326950
5,791833	0,5	1,332800
5,800167	0,5	1,320200
5,808500	0,5	1,309350
5,816833	0,5	1,309800
5,825167	0,5	1,302850
5,833500	0,5	1,301800
5,841833	0,5	1,294000
5,850167	0,5	1,290400
5,858500	0,5	1,286800
5,866833	0,5	1,284000
5,875167	0,5	1,290100
5,883500	0,5	1,278900
5,891833	0,5	1,289200
5,900167	0,5	1,307150
5,908500	0,5	1,322250
5,916833	0,5	1,338600
5,925167	0,5	1,379900
5,933500	0,5	1,431800
5,941833	0,5	1,475800
5,950167	0,5	1,489400
5,958500	0,5	1,511900
5,966833	0,5	1,510750
5,975167	0,5	1,493300
5,983500	0,5	1,457100
5,991833	0,5	1,415500
6,000167	0,5	1,366550
6,008500	0,5	1,322750
6,016833	0,5	1,285250
6,025167	0,5	1,249300
6,033500	0,5	1,207650
6,041833	0,5	1,197650
6,050167	0,5	1,176600
6,058500	0,5	1,161300
6,066833	0,5	1,152500
6,075167	0,5	1,154000
6,083500	0,5	1,167950
6,091833	0,5	1,159650
6,100167	0,5	1,151550
6,108500	0,5	1,140450
6,116833	0,5	1,132550
6,125167	0,5	1,128150
6,133500	0,5	1,122000
6,141833	0,5	1,114100
6,150167	0,5	1,105650
6,158500	0,5	1,099900
6,166833	0,5	1,101600
6,175167	0,5	1,090650
6,183500	0,5	1,088950
6,191833	0,5	1,089750
6,200167	0,5	1,078450
6,208500	0,5	1,069700
6,216833	0,5	1,070050
6,225167	0,5	1,067850
6,233500	0,5	1,082000
6,241833	0,5	1,086350
6,250167	0,5	1,075950
6,258500	0,5	1,074400
6,266833	0,5	1,075650
6,275167	0,5	1,070100
6,283500	0,5	1,062850
6,291833	0,5	1,061600
6,300167	0,5	1,057150
6,308500	0,5	1,058350
6,316833	0,5	1,055800
6,325167	0,5	1,052800
6,333500	0,5	1,051400
6,341833	0,5	1,058650
6,350167	0,5	1,046850
6,358500	0,5	1,045300
6,366833	0,5	1,047050
6,375167	0,5	1,067700
6,383500	0,5	1,078100
6,391833	0,5	1,077000
6,400167	0,5	1,075300
6,408500	0,5	1,076650
6,416833	0,5	1,073750
6,425167	0,5	1,071000
6,433500	0,5	1,075700
6,441833	0,5	1,076700
6,450167	0,5	1,077450
6,458500	0,5	1,078850
6,466833	0,5	1,080400
6,475167	0,5	1,077550
6,483500	0,5	1,088200
6,491833	0,5	1,088100
6,500167	0,5	1,091850
6,508500	0,5	1,093600
6,516833	0,5	1,101450
6,525167	0,5	1,130350
6,533500	0,5	1,141150
6,541833	0,5	1,145500
6,550167	0,5	1,155600
6,558500	0,5	1,158500
6,566833	0,5	1,168700
6,575167	0,5	1,175450
6,583500	0,5	1,187450
6,591833	0,5	1,187800
6,600167	0,5	1,199500
6,608500	0,5	1,215150
6,616833	0,5	1,216400
6,625167	0,5	1,227250
6,633500	0,5	1,250050
6,641833	0,5	1,256700
6,650167	0,5	1,271200
6,658500	0,5	1,300900
6,666833	0,5	1,342200
6,675167	0,5	1,408550
6,683500	0,5	1,467650
6,691833	0,5	1,532150
6,700167	0,5	1,604350
6,708500	0,5	1,682900
6,716833	0,5	1,743400
6,725167	0,5	1,788900
6,733500	0,5	1,804600
6,741833	0,5	1,793950
6,750167	0,5	1,759000
6,758500	0,5	1,709750
6,766833	0,5	1,648500
6,775167	0,5	1,601600
6,783500	0,5	1,559750
6,791833	0,5	1,509800
6,800167	0,5	1,478500
6,808500	0,5	1,454650
6,816833	0,5	1,458150
6,825167	0,5	1,453350
6,833500	0,5	1,444550
6,841833	0,5	1,432500
6,850167	0,5	1,435500
6,858500	0,5	1,431150
6,866833	0,5	1,433350
6,875167	0,5	1,440700
6,883500	0,5	1,449650
6,891833	0,5	1,450950
6,900167	0,5	1,457450
6,908500	0,5	1,473450
6,916833	0,5	1,479000
6,925167	0,5	1,498550
6,933500	0,5	1,497300
6,941833	0,5	1,503000
6,950167	0,5	1,502450
6,958500	0,5	1,507000
6,966833	0,5	1,521850
6,975167	0,5	1,528650
6,983500	0,5	1,526800
6,991833	0,5	1,523250
7,000167	0,5	1,519550
7,008500	0,5	1,521350
7,016833	0,5	1,516350
7,025167	0,5	1,518400
7,033500	0,5	1,512450
7,041833	0,5	1,512350
7,050167	0,5	1,516500
7,058500	0,5	1,522500
7,066833	0,5	1,524000
7,075167	0,5	1,540250
7,083500	0,5	1,541500
7,091833	0,5	1,555800
7,100167	0,5	1,571450
7,108500	0,5	1,607950
7,116833	0,5	1,658000
7,125167	0,5	1,700050
7,133500	0,5	1,751150
7,141833	0,5	1,809400
7,150167	0,5	1,866050
7,158500	0,5	1,906400
7,166833	0,5	1,929350
7,175167	0,5	1,940050
7,183500	0,5	1,940600
7,191833	0,5	1,940700
7,200167	0,5	1,946450
7,208500	0,5	1,952550
7,216833	0,5	1,968400
7,225167	0,5	1,983850
7,233500	0,5	1,981400
7,241833	0,5	1,970100
7,250167	0,5	1,961450
7,258500	0,5	1,948550
7,266833	0,5	1,939150
7,275167	0,5	1,908750
7,283500	0,5	1,879800
7,291833	0,5	1,858250
7,300167	0,5	1,844800
7,308500	0,5	1,821850
7,316833	0,5	1,810700
7,325167	0,5	1,801000
7,333500	0,5	1,791350
7,341833	0,5	1,789900
7,350167	0,5	1,783450
7,358500	0,5	1,783150
7,366833	0,5	1,782850
7,375167	0,5	1,782750
7,383500	0,5	1,767900
7,391833	0,5	1,764500
7,400167	0,5	1,768300
7,408500	0,5	1,776250
7,416833	0,5	1,777750
7,425167	0,5	1,773200
7,433500	0,5	1,763450
7,441833	0,5	1,757050
7,450167	0,5	1,747450
7,458500	0,5	1,742300
7,466833	0,5	1,732850
7,475167	0,5	1,729400
7,483500	0,5	1,720600
7,491833	0,5	1,719900
7,500167	0,5	1,722300
7,508500	0,5	1,720750
7,516833	0,5	1,723400
7,525167	0,5	1,716800
7,533500	0,5	1,707450
7,541833	0,5	1,705350
7,550167	0,5	1,707300
7,558500	0,5	1,716550
7,566833	0,5	1,731400
7,575167	0,5	1,742200
7,583500	0,5	1,767000
7,591833	0,5	1,800400
7,600167	0,5	1,841100
7,608500	0,5	1,879000
7,616833	0,5	1,912150
7,625167	0,5	1,932300
7,633500	0,5	1,920850
7,641833	0,5	1,908150
7,650167	0,5	1,875850
7,658500	0,5	1,839050
7,666833	0,5	1,814550
7,675167	0,5	1,778700
7,683500	0,5	1,757750
7,691833	0,5	1,745900
7,700167	0,5	1,746950
7,708500	0,5	1,757550
7,716833	0,5	1,751650
7,725167	0,5	1,754800
7,733500	0,5	1,764550
7,741833	0,5	1,788650
7,750167	0,5	1,822400
7,758500	0,5	1,877050
7,766833	0,5	1,933850
7,775167	0,5	1,982000
7,783500	0,5	1,998250
7,791833	0,5	1,988000
7,800167	0,5	1,949650
7,808500	0,5	1,914650
7,816833	0,5	1,886200
7,825167	0,5	1,877800
7,833500	0,5	1,882250
7,841833	0,5	1,895000
7,850167	0,5	1,927000
7,858500	0,5	1,938100
7,866833	0,5	1,934450
7,875167	0,5	1,914200
7,883500	0,5	1,885650
7,891833	0,5	1,856550
7,900167	0,5	1,830050
7,908500	0,5	1,813300
7,916833	0,5	1,797350
7,925167	0,5	1,787600
7,933500	0,5	1,789300
7,941833	0,5	1,791900
7,950167	0,5	1,793050
7,958500	0,5	1,809450
7,966833	0,5	1,834950
7,975167	0,5	1,889400
7,983500	0,5	1,974850
7,991833	0,5	2,081350
8,000167	0,5	2,194750
8,008500	0,5	2,266250
8,016833	0,5	2,281450
8,025167	0,5	2,254250
8,033500	0,5	2,193850
8,041833	0,5	2,128950
8,050167	0,5	2,072750
8,058500	0,5	2,028900
8,066833	0,5	1,994100
8,075167	0,5	1,964550
8,083500	0,5	1,938450
8,091833	0,5	1,917500
8,100167	0,5	1,888200
8,108500	0,5	1,882700
8,116833	0,5	1,864650
8,125167	0,5	1,858500
8,133500	0,5	1,872750
8,141833	0,5	1,904800
8,150167	0,5	1,946350
8,158500	0,5	1,953350
8,166833	0,5	1,922900
8,175167	0,5	1,853500
8,183500	0,5	1,775250
8,191833	0,5	1,697900
8,200167	0,5	1,639400
8,208500	0,5	1,599200
8,216833	0,5	1,571750
8,225167	0,5	1,547200
8,233500	0,5	1,538250
8,241833	0,5	1,522950
8,250167	0,5	1,519250
8,258500	0,5	1,517550
8,266833	0,5	1,526000
8,275167	0,5	1,537150
8,283500	0,5	1,545250
8,291833	0,5	1,569850
8,300167	0,5	1,601650
8,308500	0,5	1,629900
8,316833	0,5	1,672300
8,325167	0,5	1,720250
8,333500	0,5	1,751450
8,341833	0,5	1,758750
8,350167	0,5	1,751050
8,358500	0,5	1,718700
8,366833	0,5	1,681700
8,375167	0,5	1,651900
8,383500	0,5	1,630600
8,391833	0,5	1,609000
8,400167	0,5	1,599800
8,408500	0,5	1,584550
8,416833	0,5	1,567200
8,425167	0,5	1,561100
8,433500	0,5	1,553150
8,441833	0,5	1,556000
8,450167	0,5	1,557000
8,458500	0,5	1,563000
8,466833	0,5	1,566600
8,475167	0,5	1,574600
8,483500	0,5	1,573100
8,491833	0,5	1,579650
8,500167	0,5	1,583650
8,508500	0,5	1,583000
8,516833	0,5	1,580300
8,525167	0,5	1,579300
8,533500	0,5	1,578700
8,541833	0,5	1,583700
8,550167	0,5	1,580000
8,558500	0,5	1,586350
8,566833	0,5	1,587650
8,575167	0,5	1,597550
8,583500	0,5	1,612150
8,591833	0,5	1,632350
8,600167	0,5	1,647550
8,608500	0,5	1,656200
8,616833	0,5	1,664200
8,625167	0,5	1,678250
8,633500	0,5	1,687250
8,641833	0,5	1,696100
8,650167	0,5	1,700300
8,658500	0,5	1,700600
8,666833	0,5	1,704000
8,675167	0,5	1,701850
8,683500	0,5	1,694850
8,691833	0,5	1,680550
8,700167	0,5	1,674000
8,708500	0,5	1,663500
8,716833	0,5	1,652250
8,725167	0,5	1,643700
8,733500	0,5	1,645750
8,741833	0,5	1,660450
8,750167	0,5	1,674350
8,758500	0,5	1,708350
8,766833	0,5	1,754150
8,775167	0,5	1,810750
8,783500	0,5	1,854900
8,791833	0,5	1,882750
8,800167	0,5	1,876400
8,808500	0,5	1,839000
8,816833	0,5	1,788000
8,825167	0,5	1,730650
8,833500	0,5	1,679800
8,841833	0,5	1,651400
8,850167	0,5	1,626300
8,858500	0,5	1,607650
8,866833	0,5	1,596350
8,875167	0,5	1,596750
8,883500	0,5	1,598250
8,891833	0,5	1,607450
8,900167	0,5	1,622400
8,908500	0,5	1,641500
8,916833	0,5	1,666750
8,925167	0,5	1,692950
8,933500	0,5	1,726850
8,941833	0,5	1,752100
8,950167	0,5	1,767400
8,958500	0,5	1,771750
8,966833	0,5	1,764450
8,975167	0,5	1,743300
8,983500	0,5	1,713100
8,991833	0,5	1,695500
9,000167	0,5	1,680350
9,008500	0,5	1,681100
9,016833	0,5	1,693700
9,025167	0,5	1,711150
9,033500	0,5	1,728350
9,041833	0,5	1,737950
9,050167	0,5	1,732550
9,058500	0,5	1,719300
9,066833	0,5	1,694700
9,075167	0,5	1,676550
9,083500	0,5	1,669350
9,091833	0,5	1,660300
9,100167	0,5	1,657050
9,108500	0,5	1,657150
9,116833	0,5	1,654650
9,125167	0,5	1,653250
9,133500	0,5	1,655850
9,141833	0,5	1,664350
9,150167	0,5	1,679450
9,158500	0,5	1,690750
9,166833	0,5	1,713850
9,175167	0,5	1,733450
9,183500	0,5	1,743450
9,191833	0,5	1,735150
9,200167	0,5	1,716000
9,208500	0,5	1,689600
9,216833	0,5	1,662600
9,225167	0,5	1,636250
9,233500	0,5	1,623300
9,241833	0,5	1,607100
9,250167	0,5	1,591950
9,258500	0,5	1,579700
9,266833	0,5	1,567900
9,275167	0,5	1,554500
9,283500	0,5	1,546950
9,291833	0,5	1,535800
9,300167	0,5	1,526550
9,308500	0,5	1,516200
9,316833	0,5	1,504600
9,325167	0,5	1,500050
9,333500	0,5	1,495300
9,341833	0,5	1,491100
9,350167	0,5	1,482100
9,358500	0,5	1,477950
9,366833	0,5	1,474100
9,375167	0,5	1,463500
9,383500	0,5	1,459200
9,391833	0,5	1,453800
9,400167	0,5	1,448600
9,408500	0,5	1,450050
9,416833	0,5	1,444200
9,425167	0,5	1,447900
9,433500	0,5	1,449450
9,441833	0,5	1,457750
9,450167	0,5	1,463350
9,458500	0,5	1,470850
9,466833	0,5	1,476950
9,475167	0,5	1,488250
9,483500	0,5	1,500200
9,491833	0,5	1,508500
9,500167	0,5	1,519000
9,508500	0,5	1,530050
9,516833	0,5	1,544200
9,525167	0,5	1,547000
9,533500	0,5	1,540450
9,541833	0,5	1,530300
9,550167	0,5	1,509150
9,558500	0,5	1,495050
9,566833	0,5	1,483850
9,575167	0,5	1,481900
9,583500	0,5	1,486900
9,591833	0,5	1,495200
9,600167	0,5	1,505200
9,608500	0,5	1,527650
9,616833	0,5	1,555200
9,625167	0,5	1,599650
9,633500	0,5	1,667650
9,641833	0,5	1,751250
9,650167	0,5	1,852250
9,658500	0,5	1,977050
9,666833	0,5	2,117700
9,675167	0,5	2,258650
9,683500	0,5	2,390600
9,691833	0,5	2,509300
9,700167	0,5	2,589850
9,708500	0,5	2,613050
9,716833	0,5	2,584550
9,725167	0,5	2,509200
9,733500	0,5	2,385450
9,741833	0,5	2,240400
9,750167	0,5	2,088650
9,758500	0,5	1,954100
9,766833	0,5	1,840600
9,775167	0,5	1,748700
9,783500	0,5	1,682000
9,791833	0,5	1,627100
9,800167	0,5	1,595350
9,808500	0,5	1,572600
9,816833	0,5	1,571200
9,825167	0,5	1,576500
9,833500	0,5	1,589550
9,841833	0,5	1,603300
9,850167	0,5	1,614400
9,858500	0,5	1,622700
9,866833	0,5	1,618050
9,875167	0,5	1,613550
9,883500	0,5	1,619200
9,891833	0,5	1,616500
9,900167	0,5	1,619400
9,908500	0,5	1,619450
9,916833	0,5	1,618700
9,925167	0,5	1,616650
9,933500	0,5	1,607300
9,941833	0,5	1,603300
9,950167	0,5	1,605700
9,958500	0,5	1,613850
9,966833	0,5	1,619100
9,975167	0,5	1,637350
9,983500	0,5	1,652050
9,991833	0,5	1,662650
10,000167	0,5	1,672200
10,008500	0,5	1,678600
10,016833	0,5	1,680000
10,025167	0,5	1,679400
10,033500	0,5	1,685400
10,041833	0,5	1,682750
10,050167	0,5	1,691050
10,058500	0,5	1,697200
10,066833	0,5	1,705450
10,075167	0,5	1,719750
10,083500	0,5	1,723750
10,091833	0,5	1,728150
10,100167	0,5	1,730450
10,108500	0,5	1,727850
10,116833	0,5	1,717850
10,125167	0,5	1,697650
10,133500	0,5	1,670600
10,141833	0,5	1,641000
10,150167	0,5	1,614700
10,158500	0,5	1,591300
10,166833	0,5	1,580250
10,175167	0,5	1,572450
10,183500	0,5	1,577100
10,191833	0,5	1,576500
10,200167	0,5	1,581150
10,208500	0,5	1,575500
10,216833	0,5	1,579300
10,225167	0,5	1,572350
10,233500	0,5	1,566000
10,241833	0,5	1,547600
10,250167	0,5	1,534450
10,258500	0,5	1,520550
10,266833	0,5	1,502750
10,275167	0,5	1,489550
10,283500	0,5	1,479150
10,291833	0,5	1,482200
10,300167	0,5	1,479850
10,308500	0,5	1,484350
10,316833	0,5	1,497600
10,325167	0,5	1,520600
10,333500	0,5	1,540400
10,341833	0,5	1,571050
10,350167	0,5	1,611900
10,358500	0,5	1,652050
10,366833	0,5	1,691100
10,375167	0,5	1,709050
10,383500	0,5	1,719400
10,391833	0,5	1,711800
10,400167	0,5	1,692850
10,408500	0,5	1,674350
10,416833	0,5	1,644300
10,425167	0,5	1,625700
10,433500	0,5	1,610950
10,441833	0,5	1,597500
10,450167	0,5	1,598450
10,458500	0,5	1,604900
10,466833	0,5	1,625750
10,475167	0,5	1,639550
10,483500	0,5	1,656250
10,491833	0,5	1,669500
10,500167	0,5	1,664850
10,508500	0,5	1,654550
10,516833	0,5	1,629250
10,525167	0,5	1,582050
10,533500	0,5	1,524700
10,541833	0,5	1,472000
10,550167	0,5	1,421400
10,558500	0,5	1,383200
10,566833	0,5	1,359150
10,575167	0,5	1,346250
10,583500	0,5	1,346100
10,591833	0,5	1,356350
10,600167	0,5	1,374450
10,608500	0,5	1,387600
10,616833	0,5	1,413850
10,625167	0,5	1,432650
10,633500	0,5	1,447700
10,641833	0,5	1,458150
10,650167	0,5	1,466650
10,658500	0,5	1,481900
10,666833	0,5	1,493850
10,675167	0,5	1,501650
10,683500	0,5	1,504650
10,691833	0,5	1,508700
10,700167	0,5	1,508800
10,708500	0,5	1,506400
10,716833	0,5	1,499550
10,725167	0,5	1,490050
10,733500	0,5	1,477700
10,741833	0,5	1,465200
10,750167	0,5	1,460850
10,758500	0,5	1,445850
10,766833	0,5	1,444750
10,775167	0,5	1,438150
10,783500	0,5	1,432950
10,791833	0,5	1,428050
10,800167	0,5	1,415800
10,808500	0,5	1,412800
10,816833	0,5	1,402850
10,825167	0,5	1,388300
10,833500	0,5	1,373200
10,841833	0,5	1,359650
10,850167	0,5	1,349100
10,858500	0,5	1,337700
10,866833	0,5	1,332850
10,875167	0,5	1,330150
10,883500	0,5	1,327300
10,891833	0,5	1,332050
10,900167	0,5	1,334650
10,908500	0,5	1,328750
10,916833	0,5	1,337150
10,925167	0,5	1,336200
10,933500	0,5	1,336300
10,941833	0,5	1,336550
10,950167	0,5	1,341000
10,958500	0,5	1,356550
10,966833	0,5	1,380900
10,975167	0,5	1,409900
10,983500	0,5	1,440100
10,991833	0,5	1,470750
11,000167	0,5	1,493700
11,008500	0,5	1,503700
11,016833	0,5	1,497850
11,025167	0,5	1,477700
11,033500	0,5	1,444250
11,041833	0,5	1,415200
11,050167	0,5	1,375800
11,058500	0,5	1,351800
11,066833	0,5	1,328150
11,075167	0,5	1,310650
11,083500	0,5	1,300100
11,091833	0,5	1,291250
11,100167	0,5	1,289000
11,108500	0,5	1,288800
11,116833	0,5	1,281400
11,125167	0,5	1,269400
11,133500	0,5	1,264700
11,141833	0,5	1,255150
11,150167	0,5	1,248450
11,158500	0,5	1,247500
11,166833	0,5	1,251250
11,175167	0,5	1,257350
11,183500	0,5	1,278100
11,191833	0,5	1,300200
11,200167	0,5	1,333050
11,208500	0,5	1,387100
11,216833	0,5	1,462350
11,225167	0,5	1,540250
11,233500	0,5	1,622100
11,241833	0,5	1,699500
11,250167	0,5	1,761100
11,258500	0,5	1,799650
11,266833	0,5	1,799200
11,275167	0,5	1,774450
11,283500	0,5	1,737050
11,291833	0,5	1,699450
11,300167	0,5	1,672250
11,308500	0,5	1,672600
11,316833	0,5	1,697650
11,325167	0,5	1,753600
11,333500	0,5	1,839450
11,341833	0,5	1,955900
11,350167	0,5	2,084000
11,358500	0,5	2,223850
11,366833	0,5	2,330400
11,375167	0,5	2,414200
11,383500	0,5	2,441400
11,391833	0,5	2,424250
11,400167	0,5	2,367050
11,408500	0,5	2,289250
11,416833	0,5	2,205500
11,425167	0,5	2,136400
11,433500	0,5	2,097550
11,441833	0,5	2,099850
11,450167	0,5	2,136650
11,458500	0,5	2,201650
11,466833	0,5	2,282850
11,475167	0,5	2,340500
11,483500	0,5	2,381300
11,491833	0,5	2,372550
11,500167	0,5	2,333700
11,508500	0,5	2,262000
11,516833	0,5	2,160850
11,525167	0,5	2,043500
11,533500	0,5	1,924100
11,541833	0,5	1,806950
11,550167	0,5	1,705950
11,558500	0,5	1,608900
11,566833	0,5	1,526650
11,575167	0,5	1,460900
11,583500	0,5	1,411600
11,591833	0,5	1,369300
11,600167	0,5	1,342500
11,608500	0,5	1,320900
11,616833	0,5	1,305600
11,625167	0,5	1,301650
11,633500	0,5	1,293850
11,641833	0,5	1,280100
11,650167	0,5	1,289200
11,658500	0,5	1,296650
11,666833	0,5	1,305500
11,675167	0,5	1,314250
11,683500	0,5	1,326100
11,691833	0,5	1,349150
11,700167	0,5	1,367400
11,708500	0,5	1,379950
11,716833	0,5	1,375500
11,725167	0,5	1,366900
11,733500	0,5	1,351650
11,741833	0,5	1,324350
11,750167	0,5	1,308750
11,758500	0,5	1,290150
11,766833	0,5	1,272000
11,775167	0,5	1,256950
11,783500	0,5	1,243800
11,791833	0,5	1,240700
11,800167	0,5	1,245150
11,808500	0,5	1,241850
11,816833	0,5	1,244200
11,825167	0,5	1,249250
11,833500	0,5	1,246100
11,841833	0,5	1,254150
11,850167	0,5	1,267500
11,858500	0,5	1,277250
11,866833	0,5	1,289750
11,875167	0,5	1,299400
11,883500	0,5	1,319950
11,891833	0,5	1,339100
11,900167	0,5	1,348950
11,908500	0,5	1,354950
11,916833	0,5	1,356700
11,925167	0,5	1,352800
11,933500	0,5	1,349200
11,941833	0,5	1,351500
11,950167	0,5	1,353300
11,958500	0,5	1,348350
11,966833	0,5	1,339650
11,975167	0,5	1,334200
11,983500	0,5	1,336950
11,991833	0,5	1,343550
12,000167	0,5	1,351050
12,008500	0,5	1,359450
12,016833	0,5	1,368450
12,025167	0,5	1,371550
12,033500	0,5	1,378200
12,041833	0,5	1,384100
12,050167	0,5	1,389000
12,058500	0,5	1,396000
12,066833	0,5	1,397550
12,075167	0,5	1,409200
12,083500	0,5	1,397300
12,091833	0,5	1,415100
12,100167	0,5	1,419950
12,108500	0,5	1,435700
12,116833	0,5	1,453400
12,125167	0,5	1,473650
12,133500	0,5	1,517250
12,141833	0,5	1,568500
12,150167	0,5	1,638100
12,158500	0,5	1,715250
12,166833	0,5	1,810700
12,175167	0,5	1,908950
12,183500	0,5	2,004700
12,191833	0,5	2,082300
12,200167	0,5	2,131700
12,208500	0,5	2,147600
12,216833	0,5	2,132300
12,225167	0,5	2,098600
12,233500	0,5	2,049500
12,241833	0,5	2,014250
12,250167	0,5	1,979600
12,258500	0,5	1,954650
12,266833	0,5	1,935100
12,275167	0,5	1,924600
12,283500	0,5	1,937850
12,291833	0,5	1,965650
12,300167	0,5	2,001900
12,308500	0,5	2,035650
12,316833	0,5	2,059200
12,325167	0,5	2,055850
12,333500	0,5	2,033650
12,341833	0,5	1,985300
12,350167	0,5	1,921150
12,358500	0,5	1,851100
12,366833	0,5	1,773950
12,375167	0,5	1,695300
12,383500	0,5	1,625450
12,391833	0,5	1,570000
12,400167	0,5	1,518200
12,408500	0,5	1,475350
12,416833	0,5	1,433250
12,425167	0,5	1,414450
12,433500	0,5	1,393350
12,441833	0,5	1,384350
12,450167	0,5	1,353200
12,458500	0,5	1,333350
12,466833	0,5	1,307650
12,475167	0,5	1,278100
12,483500	0,5	1,246050
12,491833	0,5	1,223400
12,500167	0,5	1,200500
12,508500	0,5	1,183750
12,516833	0,5	1,165800
12,525167	0,5	1,149050
12,533500	0,5	1,143900
12,541833	0,5	1,134650
12,550167	0,5	1,126150
12,558500	0,5	1,115050
12,566833	0,5	1,100550
12,575167	0,5	1,095600
12,583500	0,5	1,096950
12,591833	0,5	1,088450
12,600167	0,5	1,093300
12,608500	0,5	1,092150
12,616833	0,5	1,097250
12,625167	0,5	1,093650
12,633500	0,5	1,093850
12,641833	0,5	1,087450
12,650167	0,5	1,083450
12,658500	0,5	1,077300
12,666833	0,5	1,072350
12,675167	0,5	1,054650
12,683500	0,5	1,052850
12,691833	0,5	1,043500
12,700167	0,5	1,034350
12,708500	0,5	1,023950
12,716833	0,5	1,013950
12,725167	0,5	0,996800
12,733500	0,5	0,959250
12,741833	0,5	0,920600
12,750167	0,5	0,885050
12,758500	0,5	0,851750
12,766833	0,5	0,819750
12,775167	0,5	0,792950
12,783500	0,5	0,775500
12,791833	0,5	0,761100
12,800167	0,5	0,711600
12,808500	0,5	0,625700
12,816833	0,5	0,428050
12,825167	0,5	0,087400
12,833500	0,5	-0,313800
12,841833	0,5	-0,621850
12,850167	0,5	-0,885350
12,858500	0,5	-1,167250
12,866833	0,5	-1,373600
12,875167	0,5	-1,512700
12,883500	0,5	-1,612650
12,891833	0,5	-1,705150
12,900167	0,5	-1,766600
12,908500	0,5	-1,827700
12,916833	0,5	-1,886600
12,925167	0,5	-1,939050
12,933500	0,5	-1,987550
12,941833	0,5	-2,033550
12,950167	0,5	-2,075000
12,958500	0,5	-2,105800
12,966833	0,5	-2,142350
12,975167	0,5	-2,164400
12,983500	0,5	-2,190600
12,991833	0,5	-2,208800
13,000167	0,5	-2,232250
13,008500	0,5	-2,259850
13,016833	0,5	-2,274900
13,025167	0,5	-2,282250
13,033500	0,5	-2,297200
13,041833	0,5	-2,308000
13,050167	0,5	-2,322750
13,058500	0,5	-2,328850
13,066833	0,5	-2,341450
13,075167	0,5	-2,344850
13,083500	0,5	-2,353450
13,091833	0,5	-2,358150
13,100167	0,5	-2,361050
13,108500	0,5	-2,351700
13,116833	0,5	-2,358150
13,125167	0,5	-2,339450
13,133500	0,5	-2,336700
13,141833	0,5	-2,333000
13,150167	0,5	-2,334450
13,158500	0,5	-2,336200
13,166833	0,5	-2,329150
13,175167	0,5	-2,319250
13,183500	0,5	-2,304900
13,191833	0,5	-2,298850
13,200167	0,5	-2,286850
13,208500	0,5	-2,271550
13,216833	0,5	-2,252000
13,225167	0,5	-2,227250
13,233500	0,5	-2,197050
13,241833	0,5	-2,161700
13,250167	0,5	-2,120900
13,258500	0,5	-2,079500
13,266833	0,5	-2,034400
13,275167	0,5	-1,988300
13,283500	0,5	-1,949800
13,291833	0,5	-1,919050
13,300167	0,5	-1,897900
13,308500	0,5	-1,880700
13,316833	0,5	-1,856750
13,325167	0,5	-1,838650
13,333500	0,5	-1,832400
13,341833	0,5	-1,828600
13,350167	0,5	-1,835050
13,358500	0,5	-1,855050
13,366833	0,5	-1,875150
13,375167	0,5	-1,892150
13,383500	0,5	-1,919100
13,391833	0,5	-1,930150
13,400167	0,5	-1,942650
13,408500	0,5	-1,952600
13,416833	0,5	-1,949400
13,425167	0,5	-1,936500
13,433500	0,5	-1,925550
13,441833	0,5	-1,900000
13,450167	0,5	-1,895500
13,458500	0,5	-1,870050
13,466833	0,5	-1,848200
13,475167	0,5	-1,831000
13,483500	0,5	-1,820200
13,491833	0,5	-1,813700
13,500167	0,5	-1,822950
13,508500	0,5	-1,822400
13,516833	0,5	-1,821600
13,525167	0,5	-1,817250
13,533500	0,5	-1,817550
13,541833	0,5	-1,808800
13,550167	0,5	-1,801050
13,558500	0,5	-1,787050
13,566833	0,5	-1,756350
13,575167	0,5	-1,737450
13,583500	0,5	-1,715800
13,591833	0,5	-1,700500
13,600167	0,5	-1,680250
13,608500	0,5	-1,657000
13,616833	0,5	-1,630500
13,625167	0,5	-1,606250
13,633500	0,5	-1,587900
13,641833	0,5	-1,568950
13,650167	0,5	-1,550800
13,658500	0,5	-1,535450
13,666833	0,5	-1,518750
13,675167	0,5	-1,501400
13,683500	0,5	-1,481250
13,691833	0,5	-1,457850
13,700167	0,5	-1,448500
13,708500	0,5	-1,424400
13,716833	0,5	-1,380000
13,725167	0,5	-1,347750
13,733500	0,5	-1,319250
13,741833	0,5	-1,304650
13,750167	0,5	-1,274950
13,758500	0,5	-1,241100
13,766833	0,5	-1,223700
13,775167	0,5	-1,208850
13,783500	0,5	-1,200550
13,791833	0,5	-1,188650
13,800167	0,5	-1,175050
13,808500	0,5	-1,159700
13,816833	0,5	-1,128500
13,825167	0,5	-1,097500
13,833500	0,5	-1,059400
13,841833	0,5	-1,016500
13,850167	0,5	-0,984750
13,858500	0,5	-0,939950
13,866833	0,5	-0,904350
13,875167	0,5	-0,872050
13,883500	0,5	-0,842600
13,891833	0,5	-0,824300
13,900167	0,5	-0,782200
13,908500	0,5	-0,756800
13,916833	0,5	-0,731950
13,925167	0,5	-0,707350
13,933500	0,5	-0,681700
13,941833	0,5	-0,655250
13,950167	0,5	-0,627200
13,958500	0,5	-0,597550
13,966833	0,5	-0,572750
13,975167	0,5	-0,540350
13,983500	0,5	-0,503350
13,991833	0,5	-0,466350
14,000167	0,5	-0,437650
14,008500	0,5	-0,399200
14,016833	0,5	-0,362100
14,025167	0,5	-0,317850
14,033500	0,5	-0,281300
14,041833	0,5	-0,243250
14,050167	0,5	-0,169100
14,058500	0,5	-0,086250
14,066833	0,5	0,000450
14,075167	0,5	0,095450
14,083500	0,5	0,183000
14,091833	0,5	0,262550
14,100167	0,5	0,330100
14,108500	0,5	0,378650
14,116833	0,5	0,399550
14,125167	0,5	0,413000
14,133500	0,5	0,418950
14,141833	0,5	0,407250
14,150167	0,5	0,388250
14,158500	0,5	0,390600
14,166833	0,5	0,385800
14,175167	0,5	0,399000
14,183500	0,5	0,419400
14,191833	0,5	0,459150
14,200167	0,5	0,514700
14,208500	0,5	0,563250
14,216833	0,5	0,588850
14,225167	0,5	0,609050
14,233500	0,5	0,609450
14,241833	0,5	0,584800
14,250167	0,5	0,559150
14,258500	0,5	0,520200
14,266833	0,5	0,480850
14,275167	0,5	0,453150
14,283500	0,5	0,433400
14,291833	0,5	0,406550
14,300167	0,5	0,404900
14,308500	0,5	0,389850
14,316833	0,5	0,375150
14,325167	0,5	0,359000
14,333500	0,5	0,343050
14,341833	0,5	0,331400
14,350167	0,5	0,330900
14,358500	0,5	0,324650
14,366833	0,5	0,330850
14,375167	0,5	0,328500
14,383500	0,5	0,325350
14,391833	0,5	0,328000
14,400167	0,5	0,331450
14,408500	0,5	0,329900
14,416833	0,5	0,318850
14,425167	0,5	0,330600
14,433500	0,5	0,321300
14,441833	0,5	0,328900
14,450167	0,5	0,347250
14,458500	0,5	0,365600
14,466833	0,5	0,379800
14,475167	0,5	0,385300
14,483500	0,5	0,395450
14,491833	0,5	0,398650
14,500167	0,5	0,390700
14,508500	0,5	0,380800
14,516833	0,5	0,353000
14,525167	0,5	0,341550
14,533500	0,5	0,320900
14,541833	0,5	0,304450
14,550167	0,5	0,300150
14,558500	0,5	0,288300
14,566833	0,5	0,283900
14,575167	0,5	0,279950
14,583500	0,5	0,267100
14,591833	0,5	0,263800
14,600167	0,5	0,269300
14,608500	0,5	0,272650
14,616833	0,5	0,270400
14,625167	0,5	0,251500
14,633500	0,5	0,260250
14,641833	0,5	0,269750
14,650167	0,5	0,293250
14,658500	0,5	0,322950
14,666833	0,5	0,386600
14,675167	0,5	0,467650
14,683500	0,5	0,573050
14,691833	0,5	0,668500
14,700167	0,5	0,745650
14,708500	0,5	0,784500
14,716833	0,5	0,772250
14,725167	0,5	0,734000
14,733500	0,5	0,649900
14,741833	0,5	0,597900
14,750167	0,5	0,553850
14,758500	0,5	0,534500
14,766833	0,5	0,538300
14,775167	0,5	0,560350
14,783500	0,5	0,610500
14,791833	0,5	0,664450
14,800167	0,5	0,663900
14,808500	0,5	0,661450
14,816833	0,5	0,617250
14,825167	0,5	0,561000
14,833500	0,5	0,490950
14,841833	0,5	0,443200
14,850167	0,5	0,400750
14,858500	0,5	0,359250
14,866833	0,5	0,342750
14,875167	0,5	0,323100
14,883500	0,5	0,294350
14,891833	0,5	0,293800
14,900167	0,5	0,291850
14,908500	0,5	0,280700
14,916833	0,5	0,271100
14,925167	0,5	0,257750
14,933500	0,5	0,280800
14,941833	0,5	0,286350
14,950167	0,5	0,304300
14,958500	0,5	0,305350
14,966833	0,5	0,306450
14,975167	0,5	0,298100
14,983500	0,5	0,295750
14,991833	0,5	0,285500
15,000167	0,5	0,283050
15,008500	0,5	0,268900
15,016833	0,5	0,259800
15,025167	0,5	0,225950
15,033500	0,5	0,211750
15,041833	0,5	0,205850
15,050167	0,5	0,189200
15,058500	0,5	0,166000
15,066833	0,5	0,136650
15,075167	0,5	0,113750
15,083500	0,5	0,114200
15,091833	0,5	0,113550
15,100167	0,5	0,102750
15,108500	0,5	0,105650
15,116833	0,5	0,102200
15,125167	0,5	0,095500
15,133500	0,5	0,088300
15,141833	0,5	0,097300
15,150167	0,5	0,105300
15,158500	0,5	0,116000
15,166833	0,5	0,152950
15,175167	0,5	0,200300
15,183500	0,5	0,282750
15,191833	0,5	0,398800
15,200167	0,5	0,506050
15,208500	0,5	0,598850
15,216833	0,5	0,647700
15,225167	0,5	0,650050
15,233500	0,5	0,619700
15,241833	0,5	0,563550
15,250167	0,5	0,510500
15,258500	0,5	0,483600
15,266833	0,5	0,489800
15,275167	0,5	0,523450
15,283500	0,5	0,575800
15,291833	0,5	0,597400
15,300167	0,5	0,603700
15,308500	0,5	0,571950
15,316833	0,5	0,510250
15,325167	0,5	0,440300
15,333500	0,5	0,398750
15,341833	0,5	0,351450
15,350167	0,5	0,327900
15,358500	0,5	0,296500
15,366833	0,5	0,280500
15,375167	0,5	0,284000
15,383500	0,5	0,290150
15,391833	0,5	0,284200
15,400167	0,5	0,280050
15,408500	0,5	0,266950
15,416833	0,5	0,251850
15,425167	0,5	0,245500
15,433500	0,5	0,231450
15,441833	0,5	0,224550
15,450167	0,5	0,223850
15,458500	0,5	0,221850
15,466833	0,5	0,196750
15,475167	0,5	0,194650
15,483500	0,5	0,181550
15,491833	0,5	0,155100
15,500167	0,5	0,126350
15,508500	0,5	0,089050
15,516833	0,5	0,066950
15,525167	0,5	0,062200
15,533500	0,5	0,055450
15,541833	0,5	0,038150
15,550167	0,5	0,025850
15,558500	0,5	0,021900
15,566833	0,5	0,007150
15,575167	0,5	-0,002150
15,583500	0,5	-0,007700
15,591833	0,5	-0,017600
15,600167	0,5	-0,009350
15,608500	0,5	-0,003200
15,616833	0,5	0,004500
15,625167	0,5	0,050100
15,633500	0,5	0,127600
15,641833	0,5	0,211350
15,650167	0,5	0,325800
15,658500	0,5	0,424100
15,666833	0,5	0,512000
15,675167	0,5	0,539550
15,683500	0,5	0,533050
15,691833	0,5	0,486750
15,700167	0,5	0,456950
15,708500	0,5	0,441850
15,716833	0,5	0,449100
15,725167	0,5	0,467600
15,733500	0,5	0,471550
15,741833	0,5	0,449000
15,750167	0,5	0,398650
15,758500	0,5	0,340750
15,766833	0,5	0,273950
15,775167	0,5	0,231550
15,783500	0,5	0,183400
15,791833	0,5	0,139950
15,800167	0,5	0,090000
15,808500	0,5	0,066450
15,816833	0,5	0,059800
15,825167	0,5	0,058650
15,833500	0,5	0,056350
15,841833	0,5	0,053950
15,850167	0,5	0,057700
15,858500	0,5	0,059750
15,866833	0,5	0,052700
15,875167	0,5	0,047550
15,883500	0,5	0,030300
15,891833	0,5	0,009750
15,900167	0,5	0,001850
15,908500	0,5	-0,037350
15,916833	0,5	-0,052450
15,925167	0,5	-0,065000
15,933500	0,5	-0,086400
15,941833	0,5	-0,121500
15,950167	0,5	-0,145200
15,958500	0,5	-0,156100
15,966833	0,5	-0,148500
15,975167	0,5	-0,159000
15,983500	0,5	-0,159500
15,991833	0,5	-0,162900
16,000167	0,5	-0,157600
16,008500	0,5	-0,156700
16,016833	0,5	-0,128850
16,025167	0,5	-0,101750
16,033500	0,5	-0,054500
16,041833	0,5	0,028900
16,050167	0,5	0,137700
16,058500	0,5	0,242700
16,066833	0,5	0,363800
16,075167	0,5	0,441300
16,083500	0,5	0,467600
16,091833	0,5	0,450200
16,100167	0,5	0,415700
16,108500	0,5	0,414750
16,116833	0,5	0,423800
16,125167	0,5	0,432700
16,133500	0,5	0,423850
16,141833	0,5	0,391900
16,150167	0,5	0,314250
16,158500	0,5	0,245000
16,166833	0,5	0,171350
16,175167	0,5	0,111700
16,183500	0,5	0,061200
16,191833	0,5	0,037400
16,200167	0,5	0,010100
16,208500	0,5	-0,001500
16,216833	0,5	-0,000450
16,225167	0,5	-0,002150
16,233500	0,5	-0,004650
16,241833	0,5	-0,020100
16,250167	0,5	-0,043300
16,258500	0,5	-0,045200
16,266833	0,5	-0,051550
16,275167	0,5	-0,065250
16,283500	0,5	-0,086600
16,291833	0,5	-0,107600
16,300167	0,5	-0,128200
16,308500	0,5	-0,151850
16,316833	0,5	-0,168950
16,325167	0,5	-0,195700
16,333500	0,5	-0,220050
16,341833	0,5	-0,234650
16,350167	0,5	-0,259400
16,358500	0,5	-0,271000
16,366833	0,5	-0,256850
16,375167	0,5	-0,261200
16,383500	0,5	-0,254150
16,391833	0,5	-0,250100
16,400167	0,5	-0,214450
16,408500	0,5	-0,131700
16,416833	0,5	-0,021700
16,425167	0,5	0,103200
16,433500	0,5	0,224850
16,441833	0,5	0,329850
16,450167	0,5	0,380100
16,458500	0,5	0,407100
16,466833	0,5	0,408250
16,475167	0,5	0,409200
16,483500	0,5	0,411150
16,491833	0,5	0,405550
16,500167	0,5	0,370150
16,508500	0,5	0,338650
16,516833	0,5	0,300600
16,525167	0,5	0,252150
16,533500	0,5	0,201600
16,541833	0,5	0,171600
16,550167	0,5	0,156150
16,558500	0,5	0,149200
16,566833	0,5	0,146050
16,575167	0,5	0,145350
16,583500	0,5	0,152900
16,591833	0,5	0,156700
16,600167	0,5	0,158500
16,608500	0,5	0,157200
16,616833	0,5	0,158100
16,625167	0,5	0,129350
16,633500	0,5	0,125700
16,641833	0,5	0,072950
16,650167	0,5	0,035150
16,658500	0,5	0,000950
16,666833	0,5	-0,038450
16,675167	0,5	-0,088600
16,683500	0,5	-0,138200
16,691833	0,5	-0,179450
16,700167	0,5	-0,192700
16,708500	0,5	-0,206200
16,716833	0,5	-0,210650
16,725167	0,5	-0,194550
16,733500	0,5	-0,165350
16,741833	0,5	-0,100400
16,750167	0,5	-0,005150
16,758500	0,5	0,098650
16,766833	0,5	0,186800
16,775167	0,5	0,263800
16,783500	0,5	0,294000
16,791833	0,5	0,274150
16,800167	0,5	0,273950
16,808500	0,5	0,253800
16,816833	0,5	0,218450
16,825167	0,5	0,168050
16,833500	0,5	0,083200
16,841833	0,5	0,033150
16,850167	0,5	-0,012000
16,858500	0,5	-0,045200
16,866833	0,5	-0,074650
16,875167	0,5	-0,084450
16,883500	0,5	-0,092950
16,891833	0,5	-0,093950
16,900167	0,5	-0,090150
16,908500	0,5	-0,098050
16,916833	0,5	-0,099500
16,925167	0,5	-0,109050
16,933500	0,5	-0,106900
16,941833	0,5	-0,133200
16,950167	0,5	-0,119650
16,958500	0,5	-0,133000
16,966833	0,5	-0,136500
16,975167	0,5	-0,148850
16,983500	0,5	-0,144150
16,991833	0,5	-0,104250
17,000167	0,5	-0,050500
17,008500	0,5	0,007900
17,016833	0,5	0,106350
17,025167	0,5	0,225350
17,033500	0,5	0,395600
17,041833	0,5	0,610850
17,050167	0,5	0,863600
17,058500	0,5	1,140050
17,066833	0,5	1,390850
17,075167	0,5	1,640450
17,083500	0,5	1,828450
17,091833	0,5	1,976600
17,100167	0,5	2,100700
17,108500	0,5	2,175900
17,116833	0,5	2,218700
17,125167	0,5	2,235500
17,133500	0,5	2,218450
17,141833	0,5	2,223750
17,150167	0,5	2,185800
17,158500	0,5	2,122550
17,166833	0,5	2,021000
17,175167	0,5	1,895600
17,183500	0,5	1,733300
17,191833	0,5	1,558550
17,200167	0,5	1,366450
17,208500	0,5	1,186200
17,216833	0,5	1,024900
17,225167	0,5	0,881000
17,233500	0,5	0,734800
17,241833	0,5	0,629350
17,250167	0,5	0,535950
17,258500	0,5	0,453100
17,266833	0,5	0,376100
17,275167	0,5	0,312200
17,283500	0,5	0,289200
17,291833	0,5	0,277250
17,300167	0,5	0,309150
17,308500	0,5	0,340000
17,316833	0,5	0,414200
17,325167	0,5	0,492400
17,333500	0,5	0,574850
17,341833	0,5	0,645200
17,350167	0,5	0,689550
17,358500	0,5	0,709250
17,366833	0,5	0,721550
17,375167	0,5	0,705900
17,383500	0,5	0,680850
17,391833	0,5	0,663600
17,400167	0,5	0,636100
17,408500	0,5	0,601650
17,416833	0,5	0,551050
17,425167	0,5	0,512550
17,433500	0,5	0,469200
17,441833	0,5	0,440400
17,450167	0,5	0,376750
17,458500	0,5	0,325500
17,466833	0,5	0,255950
17,475167	0,5	0,189100
17,483500	0,5	0,123900
17,491833	0,5	0,071850
17,500167	0,5	0,015950
17,508500	0,5	-0,018550
17,516833	0,5	-0,042200
17,525167	0,5	-0,081650
17,533500	0,5	-0,092750
17,541833	0,5	-0,081500
17,550167	0,5	-0,071500
17,558500	0,5	-0,035800
17,566833	0,5	-0,014900
17,575167	0,5	0,019200
17,583500	0,5	0,072300
17,591833	0,5	0,091100
17,600167	0,5	0,088100
17,608500	0,5	0,066500
17,616833	0,5	0,031550
17,625167	0,5	-0,018250
17,633500	0,5	-0,064700
17,641833	0,5	-0,105200
17,650167	0,5	-0,138400
17,658500	0,5	-0,157650
17,666833	0,5	-0,167700
17,675167	0,5	-0,221450
17,683500	0,5	-0,216150
17,691833	0,5	-0,225450
17,700167	0,5	-0,253950
17,708500	0,5	-0,274050
17,716833	0,5	-0,314650
17,725167	0,5	-0,312050
17,733500	0,5	-0,315400
17,741833	0,5	-0,316300
17,750167	0,5	-0,312700
17,758500	0,5	-0,305600
17,766833	0,5	-0,297850
17,775167	0,5	-0,270950
17,783500	0,5	-0,228450
17,791833	0,5	-0,175750
17,800167	0,5	-0,121050
17,808500	0,5	-0,058100
17,816833	0,5	-0,033900
17,825167	0,5	-0,032450
17,833500	0,5	-0,033100
17,841833	0,5	-0,057500
17,850167	0,5	-0,102150
17,858500	0,5	-0,151600
17,866833	0,5	-0,200950
17,875167	0,5	-0,215950
17,883500	0,5	-0,236250
17,891833	0,5	-0,253300
17,900167	0,5	-0,261150
17,908500	0,5	-0,278250
17,916833	0,5	-0,289900
17,925167	0,5	-0,293500
17,933500	0,5	-0,297400
17,941833	0,5	-0,299700
17,950167	0,5	-0,291900
17,958500	0,5	-0,281350
17,966833	0,5	-0,277200
17,975167	0,5	-0,263650
17,983500	0,5	-0,237900
17,991833	0,5	-0,211500
18,000167	0,5	-0,162200
18,008500	0,5	-0,132850
18,016833	0,5	-0,096150
18,025167	0,5	-0,062400
18,033500	0,5	-0,065400
18,041833	0,5	-0,084400
18,050167	0,5	-0,111300
18,058500	0,5	-0,142250
18,066833	0,5	-0,176500
18,075167	0,5	-0,197350
18,083500	0,5	-0,230800
18,091833	0,5	-0,246900
18,100167	0,5	-0,252800
18,108500	0,5	-0,254850
18,116833	0,5	-0,289850
18,125167	0,5	-0,277750
18,133500	0,5	-0,289950
18,141833	0,5	-0,288350
18,150167	0,5	-0,309300
18,158500	0,5	-0,319850
18,166833	0,5	-0,313900
18,175167	0,5	-0,282350
18,183500	0,5	-0,253800
18,191833	0,5	-0,216550
18,200167	0,5	-0,173300
18,208500	0,5	-0,144350
18,216833	0,5	-0,136450
18,225167	0,5	-0,147750
18,233500	0,5	-0,175350
18,241833	0,5	-0,207050
18,250167	0,5	-0,229350
18,258500	0,5	-0,256200
18,266833	0,5	-0,285900
18,275167	0,5	-0,291400
18,283500	0,5	-0,309900
18,291833	0,5	-0,332800
18,300167	0,5	-0,360650
18,308500	0,5	-0,383400
18,316833	0,5	-0,388500
18,325167	0,5	-0,385750
18,333500	0,5	-0,376600
18,341833	0,5	-0,376250
18,350167	0,5	-0,367300
18,358500	0,5	-0,353800
18,366833	0,5	-0,332450
18,375167	0,5	-0,308100
18,383500	0,5	-0,291850
18,391833	0,5	-0,282000
18,400167	0,5	-0,282950
18,408500	0,5	-0,314500
18,416833	0,5	-0,340650
18,425167	0,5	-0,358000
18,433500	0,5	-0,395500
18,441833	0,5	-0,411350
18,450167	0,5	-0,464100
18,458500	0,5	-0,479250
18,466833	0,5	-0,488850
18,475167	0,5	-0,492300
18,483500	0,5	-0,507750
18,491833	0,5	-0,503600
18,500167	0,5	-0,515000
18,508500	0,5	-0,505700
18,516833	0,5	-0,501500
18,525167	0,5	-0,495400
18,533500	0,5	-0,483750
18,541833	0,5	-0,459200
18,550167	0,5	-0,459800
18,558500	0,5	-0,467900
18,566833	0,5	-0,460500
18,575167	0,5	-0,472250
18,583500	0,5	-0,493300
18,591833	0,5	-0,539250
18,600167	0,5	-0,571900
18,608500	0,5	-0,585950
18,616833	0,5	-0,579850
18,625167	0,5	-0,585600
18,633500	0,5	-0,584150
18,641833	0,5	-0,598900
18,650167	0,5	-0,596300
18,658500	0,5	-0,594000
18,666833	0,5	-0,577750
18,675167	0,5	-0,555050
18,683500	0,5	-0,532900
18,691833	0,5	-0,471500
18,700167	0,5	-0,458400
18,708500	0,5	-0,427050
18,716833	0,5	-0,402650
18,725167	0,5	-0,391950
18,733500	0,5	-0,391600
18,741833	0,5	-0,414300
18,750167	0,5	-0,412750
18,758500	0,5	-0,394300
18,766833	0,5	-0,403100
18,775167	0,5	-0,398200
18,783500	0,5	-0,411150
18,791833	0,5	-0,399550
18,800167	0,5	-0,401000
18,808500	0,5	-0,373500
18,816833	0,5	-0,347650
18,825167	0,5	-0,329800
18,833500	0,5	-0,312200
18,841833	0,5	-0,311850
18,850167	0,5	-0,347300
18,858500	0,5	-0,352400
18,866833	0,5	-0,369600
18,875167	0,5	-0,396600
18,883500	0,5	-0,429000
18,891833	0,5	-0,484200
18,900167	0,5	-0,491500
18,908500	0,5	-0,497200
18,916833	0,5	-0,484100
18,925167	0,5	-0,490100
18,933500	0,5	-0,487550
18,941833	0,5	-0,497800
18,950167	0,5	-0,497700
18,958500	0,5	-0,515200
18,966833	0,5	-0,533800
18,975167	0,5	-0,570350
18,983500	0,5	-0,585900
18,991833	0,5	-0,614200
19,000167	0,5	-0,655650
19,008500	0,5	-0,649500
19,016833	0,5	-0,661550
19,025167	0,5	-0,664600
19,033500	0,5	-0,685750
19,041833	0,5	-0,700000
19,050167	0,5	-0,683750
19,058500	0,5	-0,668550
19,066833	0,5	-0,672500
19,075167	0,5	-0,688950
19,083500	0,5	-0,714050
19,091833	0,5	-0,721050
19,100167	0,5	-0,744650
19,108500	0,5	-0,754200
19,116833	0,5	-0,774900
19,125167	0,5	-0,778850
19,133500	0,5	-0,787400
19,141833	0,5	-0,800500
19,150167	0,5	-0,810200
19,158500	0,5	-0,807300
19,166833	0,5	-0,811900
19,175167	0,5	-0,835350
19,183500	0,5	-0,869600
19,191833	0,5	-0,904600
19,200167	0,5	-0,909750
19,208500	0,5	-0,931550
19,216833	0,5	-0,950050
19,225167	0,5	-0,958250
19,233500	0,5	-0,958400
19,241833	0,5	-0,964400
19,250167	0,5	-0,963250
19,258500	0,5	-0,959350
19,266833	0,5	-0,960000
19,275167	0,5	-0,960500
19,283500	0,5	-0,960500
19,291833	0,5	-0,986800
19,300167	0,5	-0,988700
19,308500	0,5	-1,001100
19,316833	0,5	-1,016150
19,325167	0,5	-1,043150
19,333500	0,5	-1,054850
19,341833	0,5	-1,054450
19,350167	0,5	-1,047350
19,358500	0,5	-1,047250
19,366833	0,5	-1,048750
19,375167	0,5	-1,052950
19,383500	0,5	-1,069350
19,391833	0,5	-1,073150
19,400167	0,5	-1,075400
19,408500	0,5	-1,079700
19,416833	0,5	-1,096500
19,425167	0,5	-1,078100
19,433500	0,5	-1,096400
19,441833	0,5	-1,091800
19,450167	0,5	-1,092250
19,458500	0,5	-1,099200
19,466833	0,5	-1,113850
19,475167	0,5	-1,142650
19,483500	0,5	-1,164450
19,491833	0,5	-1,166900
19,500167	0,5	-1,174450
19,508500	0,5	-1,180950
19,516833	0,5	-1,190400
19,525167	0,5	-1,198200
19,533500	0,5	-1,205300
19,541833	0,5	-1,214700
19,550167	0,5	-1,221900
19,558500	0,5	-1,243600
19,566833	0,5	-1,237500
19,575167	0,5	-1,236200
19,583500	0,5	-1,261650
19,591833	0,5	-1,258350
19,600167	0,5	-1,245650
19,608500	0,5	-1,261450
19,616833	0,5	-1,281450
19,625167	0,5	-1,307900
19,633500	0,5	-1,310350
19,641833	0,5	-1,299600
19,650167	0,5	-1,303750
19,658500	0,5	-1,310150
19,666833	0,5	-1,316700
19,675167	0,5	-1,334700
19,683500	0,5	-1,347100
19,691833	0,5	-1,357800
19,700167	0,5	-1,373950
19,708500	0,5	-1,381650
19,716833	0,5	-1,392750
19,725167	0,5	-1,402400
19,733500	0,5	-1,429200
19,741833	0,5	-1,420550
19,750167	0,5	-1,432400
19,758500	0,5	-1,445750
19,766833	0,5	-1,485200
19,775167	0,5	-1,506200
19,783500	0,5	-1,508400
19,791833	0,5	-1,504750
19,800167	0,5	-1,533050
19,808500	0,5	-1,542250
19,816833	0,5	-1,556150
19,825167	0,5	-1,570100
19,833500	0,5	-1,577200
19,841833	0,5	-1,586350
19,850167	0,5	-1,585650
19,858500	0,5	-1,593350
19,866833	0,5	-1,580600
19,875167	0,5	-1,604650
19,883500	0,5	-1,622150
19,891833	0,5	-1,625250
19,900167	0,5	-1,624800
19,908500	0,5	-1,652050
19,916833	0,5	-1,676100
19,925167	0,5	-1,690900
19,933500	0,5	-1,684950
19,941833	0,5	-1,696550
19,950167	0,5	-1,691500
19,958500	0,5	-1,709100
19,966833	0,5	-1,723050
19,975167	0,5	-1,740600
19,983500	0,5	-1,753850
19,991833	0,5	-1,765650
20,000167	0,5	-1,783500
20,008500	0,5	-1,780450
20,016833	0,5	-1,782450
20,025167	0,5	-1,818700
20,033500	0,5	-1,819000
20,041833	0,5	-1,829700
20,050167	0,5	-1,847800
20,058500	0,5	-1,870800
20,066833	0,5	-1,910500
20,075167	0,5	-1,912950
20,083500	0,5	-1,923450
20,091833	0,5	-1,923250
20,100167	0,5	-1,934550
20,108500	0,5	-1,936250
20,116833	0,5	-1,957300
20,125167	0,5	-1,971450
20,133500	0,5	-1,970750
20,141833	0,5	-1,976300
20,150167	0,5	-1,979100
20,158500	0,5	-1,979950
20,166833	0,5	-1,988300
20,175167	0,5	-1,997250
20,183500	0,5	-1,993150
20,191833	0,5	-2,003800
20,200167	0,5	-2,016850
20,208500	0,5	-2,050150
20,216833	0,5	-2,066800
20,225167	0,5	-2,076900
20,233500	0,5	-2,081700
20,241833	0,5	-2,097400
20,250167	0,5	-2,106400
20,258500	0,5	-2,112750
20,266833	0,5	-2,121050
20,275167	0,5	-2,133500
20,283500	0,5	-2,145650
20,291833	0,5	-2,163100
20,300167	0,5	-2,168800
20,308500	0,5	-2,172200
20,316833	0,5	-2,195600
20,325167	0,5	-2,214850
20,333500	0,5	-2,239100
20,341833	0,5	-2,261750
20,350167	0,5	-2,293650
20,358500	0,5	-2,326950
20,366833	0,5	-2,361950
20,375167	0,5	-2,357650
20,383500	0,5	-2,383000
20,391833	0,5	-2,392200
20,400167	0,5	-2,417750
20,408500	0,5	-2,435050
20,416833	0,5	-2,450450
20,425167	0,5	-2,467350
20,433500	0,5	-2,486600
20,441833	0,5	-2,507750
20,450167	0,5	-2,493950
20,458500	0,5	-2,506100
20,466833	0,5	-2,533350
20,475167	0,5	-2,542650
20,483500	0,5	-2,568000
20,491833	0,5	-2,595300
20,500167	0,5	-2,636350
20,508500	0,5	-2,659600
20,516833	0,5	-2,655550
20,525167	0,5	-2,671500
20,533500	0,5	-2,686350
20,541833	0,5	-2,713300
20,550167	0,5	-2,724500
20,558500	0,5	-2,764050
20,566833	0,5	-2,791800
20,575167	0,5	-2,829450
20,583500	0,5	-2,867150
20,591833	0,5	-2,883800
20,600167	0,5	-2,891900
20,608500	0,5	-2,925950
20,616833	0,5	-2,964150
20,625167	0,5	-2,981500
20,633500	0,5	-3,015800
20,641833	0,5	-3,066800
20,650167	0,5	-3,125050
20,658500	0,5	-3,149150
20,666833	0,5	-3,168150
20,675167	0,5	-3,171500
20,683500	0,5	-3,185400
20,691833	0,5	-3,180250
20,700167	0,5	-3,176350
20,708500	0,5	-3,170700
20,716833	0,5	-3,181950
20,725167	0,5	-3,201500
20,733500	0,5	-3,249500
20,741833	0,5	-3,270350
20,750167	0,5	-3,305700
20,758500	0,5	-3,367050
20,766833	0,5	-3,409600
20,775167	0,5	-3,461500
20,783500	0,5	-3,505400
20,791833	0,5	-3,569950
20,800167	0,5	-3,629850
20,808500	0,5	-3,650900
20,816833	0,5	-3,677900
20,825167	0,5	-3,718500
20,833500	0,5	-3,750750
20,841833	0,5	-3,787750
20,850167	0,5	-3,819300
20,858500	0,5	-3,845450
20,866833	0,5	-3,864000
20,875167	0,5	-3,881150
20,883500	0,5	-3,901700
20,891833	0,5	-3,897700
20,900167	0,5	-3,906550
20,908500	0,5	-3,955850
20,916833	0,5	-3,988400
20,925167	0,5	-4,029700
20,933500	0,5	-4,089200
20,941833	0,5	-4,154300
20,950167	0,5	-4,202200
20,958500	0,5	-4,214650
20,966833	0,5	-4,242600
20,975167	0,5	-4,274250
20,983500	0,5	-4,297750
20,991833	0,5	-4,316200
21,000167	0,5	-4,353950
21,008500	0,5	-4,357550
21,016833	0,5	-4,384350
21,025167	0,5	-4,415450
21,033500	0,5	-4,410600
21,041833	0,5	-4,415400
21,050167	0,5	-4,456850
21,058500	0,5	-4,488650
21,066833	0,5	-4,518750
21,075167	0,5	-4,552050
21,083500	0,5	-4,603900
21,091833	0,5	-4,664650
21,100167	0,5	-4,681000
21,108500	0,5	-4,711250
21,116833	0,5	-4,738200
21,125167	0,5	-4,769150
21,133500	0,5	-4,783000
21,141833	0,5	-4,811550
21,150167	0,5	-4,833500
21,158500	0,5	-4,870850
21,166833	0,5	-4,890500
21,175167	0,5	-4,897700
21,183500	0,5	-4,892150
21,191833	0,5	-4,900250
21,200167	0,5	-4,911700
21,208500	0,5	-4,935700
21,216833	0,5	-4,965400
21,225167	0,5	-4,991250
21,233500	0,5	-5,036500
21,241833	0,5	-5,065750
21,250167	0,5	-5,079550
21,258500	0,5	-5,091750
21,266833	0,5	-5,108350
21,275167	0,5	-5,104500
21,283500	0,5	-5,103350
21,291833	0,5	-5,105050
21,300167	0,5	-5,117250
21,308500	0,5	-5,124800
21,316833	0,5	-5,166350
21,325167	0,5	-5,166000
21,333500	0,5	-5,169800
21,341833	0,5	-5,187400
21,350167	0,5	-5,219850
21,358500	0,5	-5,235850
21,366833	0,5	-5,273650
21,375167	0,5	-5,319000
21,383500	0,5	-5,347750
21,391833	0,5	-5,376250
21,400167	0,5	-5,381300
21,408500	0,5	-5,403200
21,416833	0,5	-5,410650
21,425167	0,5	-5,420300
21,433500	0,5	-5,438650
21,441833	0,5	-5,452950
21,450167	0,5	-5,468000
21,458500	0,5	-5,483800
21,466833	0,5	-5,511550
21,475167	0,5	-5,493450
21,483500	0,5	-5,491050
21,491833	0,5	-5,512950
21,500167	0,5	-5,526950
21,508500	0,5	-5,546950
21,516833	0,5	-5,581800
21,525167	0,5	-5,618750
21,533500	0,5	-5,639900
21,541833	0,5	-5,644050
21,550167	0,5	-5,666150
21,558500	0,5	-5,676700
21,566833	0,5	-5,703450
21,575167	0,5	-5,710600
21,583500	0,5	-5,724000
21,591833	0,5	-5,728950
21,600167	0,5	-5,738300
21,608500	0,5	-5,750200
21,616833	0,5	-5,728950
21,625167	0,5	-5,703650
21,633500	0,5	-5,716600
21,641833	0,5	-5,711600
21,650167	0,5	-5,702200
21,658500	0,5	-5,704450
21,666833	0,5	-5,713700
21,675167	0,5	-5,753300
21,683500	0,5	-5,765700
21,691833	0,5	-5,782750
21,700167	0,5	-5,801350
21,708500	0,5	-5,818750
21,716833	0,5	-5,820200
21,725167	0,5	-5,828500
21,733500	0,5	-5,826000
21,741833	0,5	-5,830550
21,750167	0,5	-5,846100
21,758500	0,5	-5,857500
21,766833	0,5	-5,843150
21,775167	0,5	-5,858300
21,783500	0,5	-5,868750
21,791833	0,5	-5,868550
21,800167	0,5	-5,875550
21,808500	0,5	-5,885450
21,816833	0,5	-5,909750
21,825167	0,5	-5,906750
21,833500	0,5	-5,894800
21,841833	0,5	-5,879500
21,850167	0,5	-5,883000
21,858500	0,5	-5,866500
21,866833	0,5	-5,871500
21,875167	0,5	-5,883550
21,883500	0,5	-5,889900
21,891833	0,5	-5,875700
21,900167	0,5	-5,885400
21,908500	0,5	-5,869350
21,916833	0,5	-5,833950
21,925167	0,5	-5,830450
21,933500	0,5	-5,792100
21,941833	0,5	-5,775150
21,950167	0,5	-5,787800
21,958500	0,5	-5,836800
21,966833	0,5	-5,888050
21,975167	0,5	-5,921750
21,983500	0,5	-5,945800
21,991833	0,5	-5,972900
22,000167	0,5	-6,003900
22,008500	0,5	-6,024150
22,016833	0,5	-6,050400
22,025167	0,5	-6,076800
22,033500	0,5	-6,092100
22,041833	0,5	-6,128100
22,050167	0,5	-6,150550
22,058500	0,5	-6,171100
22,066833	0,5	-6,191900
22,075167	0,5	-6,217900
22,083500	0,5	-6,220000
22,091833	0,5	-6,234900
22,100167	0,5	-6,264200
22,108500	0,5	-6,284600
22,116833	0,5	-6,336050
22,125167	0,5	-6,333350
22,133500	0,5	-6,344250
22,141833	0,5	-6,350700
22,150167	0,5	-6,370700
22,158500	0,5	-6,381750
22,166833	0,5	-6,400050
22,175167	0,5	-6,400500
22,183500	0,5	-6,418700
22,191833	0,5	-6,428350
22,200167	0,5	-6,445500
22,208500	0,5	-6,472250
22,216833	0,5	-6,484100
22,225167	0,5	-6,474500
22,233500	0,5	-6,465350
22,241833	0,5	-6,481900
22,250167	0,5	-6,492600
22,258500	0,5	-6,516450
22,266833	0,5	-6,502900
22,275167	0,5	-6,494600
22,283500	0,5	-6,488350
22,291833	0,5	-6,488900
22,300167	0,5	-6,472900
22,308500	0,5	-6,460600
22,316833	0,5	-6,464650
22,325167	0,5	-6,456200
22,333500	0,5	-6,453550
22,341833	0,5	-6,459050
22,350167	0,5	-6,458200
22,358500	0,5	-6,421900
22,366833	0,5	-6,347800
22,375167	0,5	-6,280200
22,383500	0,5	-6,267700
22,391833	0,5	-6,281750
22,400167	0,5	-6,339150
22,408500	0,5	-6,388350
22,416833	0,5	-6,423850
22,425167	0,5	-6,429050
22,433500	0,5	-6,462750
22,441833	0,5	-6,481250
22,450167	0,5	-6,495000
22,458500	0,5	-6,510900
22,466833	0,5	-6,520200
22,475167	0,5	-6,519500
22,483500	0,5	-6,535450
22,491833	0,5	-6,563500
22,500167	0,5	-6,576000
22,508500	0,5	-6,577550
22,516833	0,5	-6,547350
22,525167	0,5	-6,527850
22,533500	0,5	-6,523000
22,541833	0,5	-6,533250
22,550167	0,5	-6,532700
22,558500	0,5	-6,516050
22,566833	0,5	-6,473550
22,575167	0,5	-6,465750
22,583500	0,5	-6,440450
22,591833	0,5	-6,418650
22,600167	0,5	-6,389950
22,608500	0,5	-6,396700
22,616833	0,5	-6,383750
22,625167	0,5	-6,382550
22,633500	0,5	-6,384450
22,641833	0,5	-6,452300
22,650167	0,5	-6,469650
22,658500	0,5	-6,447700
22,666833	0,5	-6,444700
22,675167	0,5	-6,451250
22,683500	0,5	-6,474850
22,691833	0,5	-6,509450
22,700167	0,5	-6,535300
22,708500	0,5	-6,536300
22,716833	0,5	-6,566700
22,725167	0,5	-6,582900
22,733500	0,5	-6,604000
22,741833	0,5	-6,622450
22,750167	0,5	-6,648400
22,758500	0,5	-6,662500
22,766833	0,5	-6,677950
22,775167	0,5	-6,694300
22,783500	0,5	-6,725600
22,791833	0,5	-6,804450
22,800167	0,5	-6,810200
22,808500	0,5	-6,783050
22,816833	0,5	-6,799050
22,825167	0,5	-6,817400
22,833500	0,5	-6,841550
22,841833	0,5	-6,865700
22,850167	0,5	-6,889200
22,858500	0,5	-6,914750
22,866833	0,5	-6,936200
22,875167	0,5	-6,946250
22,883500	0,5	-6,963300
22,891833	0,5	-6,967500
22,900167	0,5	-6,980450
22,908500	0,5	-6,977350
22,916833	0,5	-6,973300
22,925167	0,5	-6,963850
22,933500	0,5	-6,948500
22,941833	0,5	-6,937450
22,950167	0,5	-6,916750
22,958500	0,5	-6,931400
22,966833	0,5	-6,924850
22,975167	0,5	-6,911650
22,983500	0,5	-6,881150
22,991833	0,5	-6,847950
23,000167	0,5	-6,834150
23,008500	0,5	-6,825900
23,016833	0,5	-6,773550
23,025167	0,5	-6,751100
23,033500	0,5	-6,695450
23,041833	0,5	-6,651150
23,050167	0,5	-6,591600
23,058500	0,5	-6,543000
23,066833	0,5	-6,465150
23,075167	0,5	-6,373800
23,083500	0,5	-6,303900
23,091833	0,5	-6,222200
23,100167	0,5	-6,163850
23,108500	0,5	-6,145050
23,116833	0,5	-6,083600
23,125167	0,5	-5,992350
23,133500	0,5	-5,925150
23,141833	0,5	-5,849550
23,150167	0,5	-5,806300
23,158500	0,5	-5,731650
23,166833	0,5	-5,673600
23,175167	0,5	-5,593950
23,183500	0,5	-5,518250
23,191833	0,5	-5,418050
23,200167	0,5	-5,352500
23,208500	0,5	-5,260050
23,216833	0,5	-5,183450
23,225167	0,5	-5,055500
23,233500	0,5	-4,998350
23,241833	0,5	-4,883950
23,250167	0,5	-4,830850
23,258500	0,5	-4,778100
23,266833	0,5	-4,709750
23,275167	0,5	-4,615800
23,283500	0,5	-4,540550
23,291833	0,5	-4,474200
23,300167	0,5	-4,419000
23,308500	0,5	-4,356650
23,316833	0,5	-4,288400
23,325167	0,5	-4,234700
23,333500	0,5	-4,163050
23,341833	0,5	-4,100250
23,350167	0,5	-4,024050
23,358500	0,5	-3,951100
23,366833	0,5	-3,874650
23,375167	0,5	-3,846550
23,383500	0,5	-3,786200
23,391833	0,5	-3,670000
23,400167	0,5	-3,605500
23,408500	0,5	-3,560550
23,416833	0,5	-3,505050
23,425167	0,5	-3,443600
23,433500	0,5	-3,392550
23,441833	0,5	-3,351900
23,450167	0,5	-3,308300
23,458500	0,5	-3,267000
23,466833	0,5	-3,222000
23,475167	0,5	-3,178050
23,483500	0,5	-3,140750
23,491833	0,5	-3,090700
23,500167	0,5	-3,051800
23,508500	0,5	-3,006650
23,516833	0,5	-2,970550
23,525167	0,5	-3,045150
23,533500	0,5	-2,975250
23,541833	0,5	-2,883300
23,550167	0,5	-2,836200
23,558500	0,5	-2,794550
23,566833	0,5	-2,769750
23,575167	0,5	-2,730550
23,583500	0,5	-2,699950
23,591833	0,5	-2,675100
23,600167	0,5	-2,648200
23,608500	0,5	-2,618750
23,616833	0,5	-2,588850
23,625167	0,5	-2,557800
23,633500	0,5	-2,531450
23,641833	0,5	-2,499350
23,650167	0,5	-2,465800
23,658500	0,5	-2,437300
23,666833	0,5	-2,550950
23,675167	0,5	-2,527000
23,683500	0,5	-2,496650
23,691833	0,5	-2,406300
23,700167	0,5	-2,357950
23,708500	0,5	-2,326050
23,716833	0,5	-2,302200
23,725167	0,5	-2,285200
23,733500	0,5	-2,258950
23,741833	0,5	-2,231050
23,750167	0,5	-2,209650
23,758500	0,5	-2,183450
23,766833	0,5	-2,157550
23,775167	0,5	-2,131500
23,783500	0,5	-2,102500
23,791833	0,5	-2,078000
23,800167	0,5	-2,051700
23,808500	0,5	-2,043700
23,816833	0,5	-2,194500
23,825167	0,5	-2,148100
23,833500	0,5	-2,080700
23,841833	0,5	-2,004400
23,850167	0,5	-1,960150
23,858500	0,5	-1,930700
23,866833	0,5	-1,909350
23,875167	0,5	-1,902000
23,883500	0,5	-1,862550
23,891833	0,5	-1,834200
23,900167	0,5	-1,815700
23,908500	0,5	-1,796300
23,916833	0,5	-1,774250
23,925167	0,5	-1,752600
23,933500	0,5	-1,725900
23,941833	0,5	-1,704550
23,950167	0,5	-1,681100
23,958500	0,5	-1,752200
23,966833	0,5	-1,825600
23,975167	0,5	-1,788450
23,983500	0,5	-1,719200
23,991833	0,5	-1,649250
24,000167	0,5	-1,618700
24,008500	0,5	-1,594000
24,016833	0,5	-1,581700
24,025167	0,5	-1,561150
24,033500	0,5	-1,528700
24,041833	0,5	-1,495250
24,050167	0,5	-1,474850
24,058500	0,5	-1,444700
24,066833	0,5	-1,422050
24,075167	0,5	-1,389250
24,083500	0,5	-1,358900
24,091833	0,5	-1,337750
24,100167	0,5	-1,323200
24,108500	0,5	-1,466850
24,116833	0,5	-1,432950
24,125167	0,5	-1,398100
24,133500	0,5	-1,334050
24,141833	0,5	-1,287950
24,150167	0,5	-1,257150
24,158500	0,5	-1,241400
24,166833	0,5	-1,243950
24,175167	0,5	-1,231550
24,183500	0,5	-1,196900
24,191833	0,5	-1,175200
24,200167	0,5	-1,150950
24,208500	0,5	-1,130450
24,216833	0,5	-1,104850
24,225167	0,5	-1,086400
24,233500	0,5	-1,055450
24,241833	0,5	-1,032750
24,250167	0,5	-1,032650
24,258500	0,5	-1,131900
24,266833	0,5	-1,100950
24,275167	0,5	-1,057650
24,283500	0,5	-0,997800
24,291833	0,5	-0,966300
24,300167	0,5	-0,944500
24,308500	0,5	-0,942700
24,316833	0,5	-0,934100
24,325167	0,5	-0,906550
24,333500	0,5	-0,886550
24,341833	0,5	-0,871400
24,350167	0,5	-0,852950
24,358500	0,5	-0,833650
24,366833	0,5	-0,821550
24,375167	0,5	-0,798250
24,383500	0,5	-0,778750
24,391833	0,5	-0,765050
24,400167	0,5	-0,815750
24,408500	0,5	-0,845950
24,416833	0,5	-0,829050
24,425167	0,5	-0,783400
24,433500	0,5	-0,748700
24,441833	0,5	-0,725200
24,450167	0,5	-0,711600
24,458500	0,5	-0,712950
24,466833	0,5	-0,699950
24,475167	0,5	-0,682200
24,483500	0,5	-0,663850
24,491833	0,5	-0,650550
24,500167	0,5	-0,630500
24,508500	0,5	-0,623150
24,516833	0,5	-0,607850
24,525167	0,5	-0,595300
24,533500	0,5	-0,576550
24,541833	0,5	-0,569350
24,550167	0,5	-0,629100
24,558500	0,5	-0,614450
24,566833	0,5	-0,596900
24,575167	0,5	-0,569950
24,583500	0,5	-0,547450
24,591833	0,5	-0,538000
24,600167	0,5	-0,522650
24,608500	0,5	-0,542900
24,616833	0,5	-0,527400
24,625167	0,5	-0,511600
24,633500	0,5	-0,498250
24,641833	0,5	-0,496050
24,650167	0,5	-0,486050
24,658500	0,5	-0,476200
24,666833	0,5	-0,465050
24,675167	0,5	-0,447200
24,683500	0,5	-0,440900
24,691833	0,5	-0,438300
24,700167	0,5	-0,478050
24,708500	0,5	-0,464200
24,716833	0,5	-0,448250
24,725167	0,5	-0,426000
24,733500	0,5	-0,407750
24,741833	0,5	-0,401150
24,750167	0,5	-0,397400
24,758500	0,5	-0,395150
24,766833	0,5	-0,386700
24,775167	0,5	-0,377750
24,783500	0,5	-0,376450
24,791833	0,5	-0,366500
24,800167	0,5	-0,366500
24,808500	0,5	-0,362800
24,816833	0,5	-0,357250
24,825167	0,5	-0,347400
24,833500	0,5	-0,344850
24,841833	0,5	-0,375400
24,850167	0,5	-0,371650
24,858500	0,5	-0,369850
24,866833	0,5	-0,347800
24,875167	0,5	-0,336350
24,883500	0,5	-0,325900
24,891833	0,5	-0,324300
24,900167	0,5	-0,326150
24,908500	0,5	-0,324000
24,916833	0,5	-0,312800
24,925167	0,5	-0,305200
24,933500	0,5	-0,299000
24,941833	0,5	-0,299050
24,950167	0,5	-0,289000
24,958500	0,5	-0,290550
24,966833	0,5	-0,285300
24,975167	0,5	-0,280100
24,983500	0,5	-0,281250
24,991833	0,5	-0,307200
25,000167	0,5	-0,299750
25,008500	0,5	-0,298500
25,016833	0,5	-0,290550
25,025167	0,5	-0,284450
25,033500	0,5	-0,285750
25,041833	0,5	-0,282150
25,050167	0,5	-0,285500
25,058500	0,5	-0,280700
25,066833	0,5	-0,281350
25,075167	0,5	-0,278500
25,083500	0,5	-0,274950
25,091833	0,5	-0,266900
25,100167	0,5	-0,266800
25,108500	0,5	-0,264500
25,116833	0,5	-0,261500
25,125167	0,5	-0,254700
25,133500	0,5	-0,253150
25,141833	0,5	-0,262950
25,150167	0,5	-0,252350
25,158500	0,5	-0,251150
25,166833	0,5	-0,253750
25,175167	0,5	-0,253750
25,183500	0,5	-0,253750
25,191833	0,5	-0,255000
25,200167	0,5	-0,258550
25,208500	0,5	-0,255550
25,216833	0,5	-0,256450
25,225167	0,5	-0,257700
25,233500	0,5	-0,256900
25,241833	0,5	-0,260500
25,250167	0,5	-0,261750
25,258500	0,5	-0,258850
25,266833	0,5	-0,255650
25,275167	0,5	-0,253200
25,283500	0,5	-0,248500
25,291833	0,5	-0,248850
25,300167	0,5	-0,243850
25,308500	0,5	-0,244450
25,316833	0,5	-0,244900
25,325167	0,5	-0,243650
25,333500	0,5	-0,242200
25,341833	0,5	-0,240500
25,350167	0,5	-0,236750
25,358500	0,5	-0,243400
25,366833	0,5	-0,244800
25,375167	0,5	-0,248900
25,383500	0,5	-0,248400
25,391833	0,5	-0,247700
25,400167	0,5	-0,251000
25,408500	0,5	-0,252100
25,416833	0,5	-0,249850
25,425167	0,5	-0,250100
25,433500	0,5	-0,244850
25,441833	0,5	-0,244100
25,450167	0,5	-0,238950
25,458500	0,5	-0,241950
25,466833	0,5	-0,244350
25,475167	0,5	-0,245350
25,483500	0,5	-0,242700
25,491833	0,5	-0,236700
25,500167	0,5	-0,239050
25,508500	0,5	-0,237850
25,516833	0,5	-0,236350
25,525167	0,5	-0,237400
25,533500	0,5	-0,242250
25,541833	0,5	-0,241700
25,550167	0,5	-0,239600
25,558500	0,5	-0,240000
25,566833	0,5	-0,243950
25,575167	0,5	-0,243500
25,583500	0,5	-0,234400
25,591833	0,5	-0,232400
25,600167	0,5	-0,236500
25,608500	0,5	-0,245250
25,616833	0,5	-0,242100
25,625167	0,5	-0,241900
25,633500	0,5	-0,239750
25,641833	0,5	-0,237500
25,650167	0,5	-0,240950
25,658500	0,5	-0,241650
25,666833	0,5	-0,243200
25,675167	0,5	-0,242000
25,683500	0,5	-0,237900
25,691833	0,5	-0,235350
25,700167	0,5	-0,234750
25,708500	0,5	-0,239050
25,716833	0,5	-0,240500
25,725167	0,5	-0,231450
25,733500	0,5	-0,227750
25,741833	0,5	-0,222000
25,750167	0,5	-0,228850
25,758500	0,5	-0,233750
25,766833	0,5	-0,235350
25,775167	0,5	-0,234000
25,783500	0,5	-0,225500
25,791833	0,5	-0,226650
25,800167	0,5	-0,235200
25,808500	0,5	-0,235650
25,816833	0,5	-0,227600
25,825167	0,5	-0,228500
25,833500	0,5	-0,227950
25,841833	0,5	-0,227250
25,850167	0,5	-0,225900
25,858500	0,5	-0,225350
25,866833	0,5	-0,225050
25,875167	0,5	-0,203600
25,883500	0,5	-0,217750
25,891833	0,5	-0,203100
25,900167	0,5	-0,215050
25,908500	0,5	-0,214850
25,916833	0,5	-0,215350
25,925167	0,5	-0,204750
25,933500	0,5	-0,189750
25,941833	0,5	-0,195650
25,950167	0,5	-0,200750
25,958500	0,5	-0,194000
25,966833	0,5	-0,195250
25,975167	0,5	-0,189850
25,983500	0,5	-0,187300
25,991833	0,5	-0,186100
26,000167	0,5	-0,185400
