File Path	chrom://chromeleon01/ikbm_chromeleon/2022/ICS-5000/ED1/Esteban/20220427_Cell_Amandas_mutants.seq/615.smp/ED_1.channel/ED_1.chm
Channel	ED_1

Injection Information:
Data Vault	ikbm_chromeleon
Injection	T24h_Avi_WT
Injection Number	15
Position	RB1
Comment	
Processing Method	Stop sequence after Cell Death
Instrument Method	ICS5000_PA200_FullNative_Ox_26min_ED1
Type	Unknown
Status	Finished
Injection Date	27.04.2022
Injection Time	19:33:55
Injection Volume (µl)	5,0
Dilution Factor	1,0000
Weight	1,0000

Chromatogram Data Information:
Time Min. (min)	0,000333
Time Max. (min)	26,000333
Data Points	3121
Detector	EDet1
Generating Data System	Chromeleon 7.2.9.11323
Exporting Data System	Chromeleon 7.2.9.0
Operator	Instrument Controller
Signal Quantity	
Signal Unit	nC
Signal Min.	-6,951550
Signal Max.	23,714050
Channel	ED_1
Driver Name	DC-5000
Channel Type	Evaluation
Min. Step (s)	0,5
Max. Step (s)	0,5
Average Step (s)	0,5

Signal Parameter Information:
Signal Info	

Chromatogram Data:
Time (min)	Step (s)	Value (nC)
0,000333	n.a.	-0,029400
0,008667	0,5	-0,089500
0,017000	0,5	-0,093950
0,025333	0,5	-0,077300
0,033667	0,5	-0,026600
0,042000	0,5	-0,009500
0,050333	0,5	-0,003450
0,058667	0,5	0,007350
0,067000	0,5	0,020600
0,075333	0,5	0,005350
0,083667	0,5	0,009450
0,092000	0,5	0,005400
0,100333	0,5	-0,000600
0,108667	0,5	-0,007650
0,117000	0,5	-0,000100
0,125333	0,5	-0,019100
0,133667	0,5	-0,001750
0,142000	0,5	0,005800
0,150333	0,5	-0,013900
0,158667	0,5	-0,022800
0,167000	0,5	-0,013200
0,175333	0,5	0,013950
0,183667	0,5	0,043000
0,192000	0,5	0,050050
0,200333	0,5	0,032900
0,208667	0,5	0,028950
0,217000	0,5	0,023350
0,225333	0,5	0,011450
0,233667	0,5	0,007150
0,242000	0,5	0,003500
0,250333	0,5	-0,006400
0,258667	0,5	0,018500
0,267000	0,5	0,006500
0,275333	0,5	-0,002300
0,283667	0,5	0,000350
0,292000	0,5	0,007950
0,300333	0,5	-0,006450
0,308667	0,5	0,042500
0,317000	0,5	0,038750
0,325333	0,5	0,017000
0,333667	0,5	-0,000750
0,342000	0,5	-0,003200
0,350333	0,5	-0,011600
0,358667	0,5	0,007700
0,367000	0,5	0,000550
0,375333	0,5	-0,001750
0,383667	0,5	-0,000550
0,392000	0,5	-0,013300
0,400333	0,5	-0,020200
0,408667	0,5	-0,022850
0,417000	0,5	-0,025650
0,425333	0,5	-0,046350
0,433667	0,5	-0,001500
0,442000	0,5	-0,024950
0,450333	0,5	-0,040450
0,458667	0,5	-0,034200
0,467000	0,5	-0,028300
0,475333	0,5	0,005150
0,483667	0,5	0,003750
0,492000	0,5	-0,020700
0,500333	0,5	-0,010400
0,508667	0,5	-0,016500
0,517000	0,5	-0,016450
0,525333	0,5	-0,031500
0,533667	0,5	-0,023750
0,542000	0,5	-0,030900
0,550333	0,5	-0,027800
0,558667	0,5	-0,010500
0,567000	0,5	-0,046250
0,575333	0,5	-0,056500
0,583667	0,5	-0,012850
0,592000	0,5	-0,048350
0,600333	0,5	-0,053800
0,608667	0,5	-0,046500
0,617000	0,5	-0,036250
0,625333	0,5	0,013000
0,633667	0,5	-0,020200
0,642000	0,5	-0,023700
0,650333	0,5	-0,034100
0,658667	0,5	-0,015500
0,667000	0,5	-0,033400
0,675333	0,5	-0,030450
0,683667	0,5	-0,040150
0,692000	0,5	-0,050150
0,700333	0,5	-0,045450
0,708667	0,5	-0,046550
0,717000	0,5	-0,060750
0,725333	0,5	-0,058350
0,733667	0,5	-0,040250
0,742000	0,5	-0,071500
0,750333	0,5	-0,067750
0,758667	0,5	-0,062350
0,767000	0,5	-0,048700
0,775333	0,5	-0,015600
0,783667	0,5	-0,028700
0,792000	0,5	-0,049100
0,800333	0,5	-0,037400
0,808667	0,5	-0,046850
0,817000	0,5	-0,043700
0,825333	0,5	-0,045850
0,833667	0,5	-0,048800
0,842000	0,5	-0,068650
0,850333	0,5	-0,052500
0,858667	0,5	-0,038100
0,867000	0,5	-0,056000
0,875333	0,5	-0,045650
0,883667	0,5	-0,047350
0,892000	0,5	-0,077450
0,900333	0,5	-0,078100
0,908667	0,5	-0,071450
0,917000	0,5	-0,034800
0,925333	0,5	-0,009450
0,933667	0,5	-0,041400
0,942000	0,5	-0,043900
0,950333	0,5	-0,044800
0,958667	0,5	-0,045050
0,967000	0,5	-0,059450
0,975333	0,5	-0,049600
0,983667	0,5	-0,064400
0,992000	0,5	-0,059400
1,000333	0,5	-0,067300
1,008667	0,5	-0,062350
1,017000	0,5	-0,083350
1,025333	0,5	-0,051900
1,033667	0,5	-0,076400
1,042000	0,5	-0,084450
1,050333	0,5	-0,082950
1,058667	0,5	-0,061700
1,067000	0,5	-0,030150
1,075333	0,5	-0,031850
1,083667	0,5	-0,042150
1,092000	0,5	-0,043800
1,100333	0,5	-0,041800
1,108667	0,5	-0,043100
1,117000	0,5	-0,044600
1,125333	0,5	-0,052250
1,133667	0,5	-0,059900
1,142000	0,5	-0,068400
1,150333	0,5	-0,054950
1,158667	0,5	-0,086100
1,167000	0,5	-0,075300
1,175333	0,5	-0,065100
1,183667	0,5	-0,084500
1,192000	0,5	-0,098750
1,200333	0,5	-0,091150
1,208667	0,5	-0,067550
1,217000	0,5	-0,032650
1,225333	0,5	-0,031150
1,233667	0,5	-0,045150
1,242000	0,5	-0,053900
1,250333	0,5	-0,041700
1,258667	0,5	-0,059800
1,267000	0,5	-0,060850
1,275333	0,5	-0,062650
1,283667	0,5	-0,072300
1,292000	0,5	-0,064300
1,300333	0,5	-0,074200
1,308667	0,5	-0,080900
1,317000	0,5	-0,067550
1,325333	0,5	-0,064500
1,333667	0,5	-0,091400
1,342000	0,5	-0,082450
1,350333	0,5	-0,075300
1,358667	0,5	-0,032950
1,367000	0,5	-0,039000
1,375333	0,5	-0,043850
1,383667	0,5	-0,056550
1,392000	0,5	-0,047300
1,400333	0,5	-0,057150
1,408667	0,5	-0,050600
1,417000	0,5	-0,054750
1,425333	0,5	-0,061650
1,433667	0,5	-0,068800
1,442000	0,5	-0,065050
1,450333	0,5	-0,055450
1,458667	0,5	-0,071700
1,467000	0,5	-0,030500
1,475333	0,5	-0,063400
1,483667	0,5	-0,076850
1,492000	0,5	-0,075700
1,500333	0,5	-0,059700
1,508667	0,5	-0,016000
1,517000	0,5	-0,016700
1,525333	0,5	-0,044300
1,533667	0,5	-0,032850
1,542000	0,5	-0,029150
1,550333	0,5	-0,024950
1,558667	0,5	-0,037850
1,567000	0,5	-0,036350
1,575333	0,5	-0,106500
1,583667	0,5	-0,343350
1,592000	0,5	-1,034550
1,600333	0,5	-2,025250
1,608667	0,5	-2,240650
1,617000	0,5	-0,926300
1,625333	0,5	0,934300
1,633667	0,5	2,652400
1,642000	0,5	4,602300
1,650333	0,5	6,764500
1,658667	0,5	8,434450
1,667000	0,5	8,915200
1,675333	0,5	8,564000
1,683667	0,5	7,839050
1,692000	0,5	7,059800
1,700333	0,5	6,313050
1,708667	0,5	5,663350
1,717000	0,5	5,064600
1,725333	0,5	4,561450
1,733667	0,5	4,132050
1,742000	0,5	3,776300
1,750333	0,5	3,425650
1,758667	0,5	3,119450
1,767000	0,5	2,848100
1,775333	0,5	2,612600
1,783667	0,5	2,510400
1,792000	0,5	2,609850
1,800333	0,5	3,042850
1,808667	0,5	3,854050
1,817000	0,5	4,816100
1,825333	0,5	5,731300
1,833667	0,5	6,370400
1,842000	0,5	6,384400
1,850333	0,5	5,800150
1,858667	0,5	5,012850
1,867000	0,5	4,335650
1,875333	0,5	3,807150
1,883667	0,5	3,437450
1,892000	0,5	3,152550
1,900333	0,5	2,921850
1,908667	0,5	2,756550
1,917000	0,5	2,608650
1,925333	0,5	2,450900
1,933667	0,5	2,315650
1,942000	0,5	2,225450
1,950333	0,5	2,193150
1,958667	0,5	2,216350
1,967000	0,5	2,276050
1,975333	0,5	2,318650
1,983667	0,5	2,286500
1,992000	0,5	2,198600
2,000333	0,5	2,134600
2,008667	0,5	2,119900
2,017000	0,5	2,135350
2,025333	0,5	2,232150
2,033667	0,5	2,407350
2,042000	0,5	2,755750
2,050333	0,5	3,392950
2,058667	0,5	4,298650
2,067000	0,5	5,021500
2,075333	0,5	5,348750
2,083667	0,5	5,417550
2,092000	0,5	5,441150
2,100333	0,5	5,385550
2,108667	0,5	5,260650
2,117000	0,5	5,130650
2,125333	0,5	5,074200
2,133667	0,5	5,086250
2,142000	0,5	5,184400
2,150333	0,5	5,375600
2,158667	0,5	5,721300
2,167000	0,5	6,341100
2,175333	0,5	7,332050
2,183667	0,5	8,389100
2,192000	0,5	8,804400
2,200333	0,5	8,477350
2,208667	0,5	7,835800
2,217000	0,5	7,286350
2,225333	0,5	6,919150
2,233667	0,5	6,677100
2,242000	0,5	6,513850
2,250333	0,5	6,427150
2,258667	0,5	6,367600
2,267000	0,5	6,382800
2,275333	0,5	6,420800
2,283667	0,5	6,497900
2,292000	0,5	6,591250
2,300333	0,5	6,727500
2,308667	0,5	6,865800
2,317000	0,5	7,002950
2,325333	0,5	7,146200
2,333667	0,5	7,262650
2,342000	0,5	7,374400
2,350333	0,5	7,538550
2,358667	0,5	7,660550
2,367000	0,5	7,780250
2,375333	0,5	7,909500
2,383667	0,5	8,030000
2,392000	0,5	8,194750
2,400333	0,5	8,310300
2,408667	0,5	8,429700
2,417000	0,5	8,530100
2,425333	0,5	8,666200
2,433667	0,5	8,788600
2,442000	0,5	8,930100
2,450333	0,5	9,060200
2,458667	0,5	9,220200
2,467000	0,5	9,411250
2,475333	0,5	9,658900
2,483667	0,5	9,941200
2,492000	0,5	10,217050
2,500333	0,5	10,482350
2,508667	0,5	10,604350
2,517000	0,5	10,635300
2,525333	0,5	10,607100
2,533667	0,5	10,587350
2,542000	0,5	10,606550
2,550333	0,5	10,584250
2,558667	0,5	10,552000
2,567000	0,5	10,536550
2,575333	0,5	10,497950
2,583667	0,5	10,462700
2,592000	0,5	10,440750
2,600333	0,5	10,448750
2,608667	0,5	10,491750
2,617000	0,5	10,610500
2,625333	0,5	10,831600
2,633667	0,5	11,250550
2,642000	0,5	12,022800
2,650333	0,5	13,369050
2,658667	0,5	15,127150
2,667000	0,5	17,018850
2,675333	0,5	18,467950
2,683667	0,5	19,097100
2,692000	0,5	18,877250
2,700333	0,5	17,971550
2,708667	0,5	16,781900
2,717000	0,5	15,554700
2,725333	0,5	14,455250
2,733667	0,5	13,558200
2,742000	0,5	12,876600
2,750333	0,5	12,399300
2,758667	0,5	12,176500
2,767000	0,5	12,251450
2,775333	0,5	12,735450
2,783667	0,5	13,679300
2,792000	0,5	15,132350
2,800333	0,5	16,981750
2,808667	0,5	19,087000
2,817000	0,5	21,223400
2,825333	0,5	22,926350
2,833667	0,5	23,714050
2,842000	0,5	23,387950
2,850333	0,5	22,130100
2,858667	0,5	20,356900
2,867000	0,5	18,379400
2,875333	0,5	16,449850
2,883667	0,5	14,765900
2,892000	0,5	13,482800
2,900333	0,5	12,717950
2,908667	0,5	12,603750
2,917000	0,5	13,289550
2,925333	0,5	14,679000
2,933667	0,5	16,358100
2,942000	0,5	17,574300
2,950333	0,5	17,680000
2,958667	0,5	16,639300
2,967000	0,5	14,887950
2,975333	0,5	12,967700
2,983667	0,5	11,258550
2,992000	0,5	9,854050
3,000333	0,5	8,751500
3,008667	0,5	7,903650
3,017000	0,5	7,255500
3,025333	0,5	6,736350
3,033667	0,5	6,322350
3,042000	0,5	5,965100
3,050333	0,5	5,656250
3,058667	0,5	5,396550
3,067000	0,5	5,155850
3,075333	0,5	4,943100
3,083667	0,5	4,739000
3,092000	0,5	4,577100
3,100333	0,5	4,386350
3,108667	0,5	4,227950
3,117000	0,5	4,091450
3,125333	0,5	3,993300
3,133667	0,5	3,893600
3,142000	0,5	3,771150
3,150333	0,5	3,623550
3,158667	0,5	3,496250
3,167000	0,5	3,368300
3,175333	0,5	3,247700
3,183667	0,5	3,135950
3,192000	0,5	3,049000
3,200333	0,5	2,968250
3,208667	0,5	2,906450
3,217000	0,5	2,849150
3,225333	0,5	2,783500
3,233667	0,5	2,757850
3,242000	0,5	2,718200
3,250333	0,5	2,674900
3,258667	0,5	2,676250
3,267000	0,5	2,745550
3,275333	0,5	2,948000
3,283667	0,5	3,324050
3,292000	0,5	3,893300
3,300333	0,5	4,682400
3,308667	0,5	5,522650
3,317000	0,5	6,226300
3,325333	0,5	6,546100
3,333667	0,5	6,421600
3,342000	0,5	5,881450
3,350333	0,5	5,123100
3,358667	0,5	4,331050
3,367000	0,5	3,613150
3,375333	0,5	3,031000
3,383667	0,5	2,623650
3,392000	0,5	2,274350
3,400333	0,5	2,019100
3,408667	0,5	1,825450
3,417000	0,5	1,672800
3,425333	0,5	1,587100
3,433667	0,5	1,470100
3,442000	0,5	1,373600
3,450333	0,5	1,284250
3,458667	0,5	1,226150
3,467000	0,5	1,156000
3,475333	0,5	1,113350
3,483667	0,5	1,058750
3,492000	0,5	1,011750
3,500333	0,5	0,958600
3,508667	0,5	0,911700
3,517000	0,5	0,867900
3,525333	0,5	0,821850
3,533667	0,5	0,811150
3,542000	0,5	0,746450
3,550333	0,5	0,696450
3,558667	0,5	0,664900
3,567000	0,5	0,641900
3,575333	0,5	0,643450
3,583667	0,5	0,606850
3,592000	0,5	0,572450
3,600333	0,5	0,550050
3,608667	0,5	0,525250
3,617000	0,5	0,503050
3,625333	0,5	0,478550
3,633667	0,5	0,461850
3,642000	0,5	0,433400
3,650333	0,5	0,417550
3,658667	0,5	0,408600
3,667000	0,5	0,385800
3,675333	0,5	0,367100
3,683667	0,5	0,378500
3,692000	0,5	0,337500
3,700333	0,5	0,322050
3,708667	0,5	0,309350
3,717000	0,5	0,312100
3,725333	0,5	0,341250
3,733667	0,5	0,312700
3,742000	0,5	0,292200
3,750333	0,5	0,279050
3,758667	0,5	0,269400
3,767000	0,5	0,257850
3,775333	0,5	0,257950
3,783667	0,5	0,243000
3,792000	0,5	0,237800
3,800333	0,5	0,227700
3,808667	0,5	0,225900
3,817000	0,5	0,196450
3,825333	0,5	0,210950
3,833667	0,5	0,210700
3,842000	0,5	0,189850
3,850333	0,5	0,184700
3,858667	0,5	0,187450
3,867000	0,5	0,201250
3,875333	0,5	0,219350
3,883667	0,5	0,199600
3,892000	0,5	0,198550
3,900333	0,5	0,189100
3,908667	0,5	0,184550
3,917000	0,5	0,182400
3,925333	0,5	0,182450
3,933667	0,5	0,176750
3,942000	0,5	0,168750
3,950333	0,5	0,164350
3,958667	0,5	0,140450
3,967000	0,5	0,128950
3,975333	0,5	0,141950
3,983667	0,5	0,132350
3,992000	0,5	0,118100
4,000333	0,5	0,123400
4,008667	0,5	0,129700
4,017000	0,5	0,159250
4,025333	0,5	0,167150
4,033667	0,5	0,167700
4,042000	0,5	0,152000
4,050333	0,5	0,154200
4,058667	0,5	0,137800
4,067000	0,5	0,141900
4,075333	0,5	0,137100
4,083667	0,5	0,130400
4,092000	0,5	0,132850
4,100333	0,5	0,124750
4,108667	0,5	0,115500
4,117000	0,5	0,108050
4,125333	0,5	0,124550
4,133667	0,5	0,110350
4,142000	0,5	0,104200
4,150333	0,5	0,096750
4,158667	0,5	0,119250
4,167000	0,5	0,131900
4,175333	0,5	0,140000
4,183667	0,5	0,117200
4,192000	0,5	0,121000
4,200333	0,5	0,110600
4,208667	0,5	0,118300
4,217000	0,5	0,116100
4,225333	0,5	0,119750
4,233667	0,5	0,116000
4,242000	0,5	0,116900
4,250333	0,5	0,121000
4,258667	0,5	0,114750
4,267000	0,5	0,135000
4,275333	0,5	0,139450
4,283667	0,5	0,127300
4,292000	0,5	0,127500
4,300333	0,5	0,135850
4,308667	0,5	0,156750
4,317000	0,5	0,170450
4,325333	0,5	0,160600
4,333667	0,5	0,173800
4,342000	0,5	0,164050
4,350333	0,5	0,161750
4,358667	0,5	0,156000
4,367000	0,5	0,156900
4,375333	0,5	0,149050
4,383667	0,5	0,150500
4,392000	0,5	0,152050
4,400333	0,5	0,150800
4,408667	0,5	0,139800
4,417000	0,5	0,173200
4,425333	0,5	0,164200
4,433667	0,5	0,166100
4,442000	0,5	0,177800
4,450333	0,5	0,188650
4,458667	0,5	0,228450
4,467000	0,5	0,228900
4,475333	0,5	0,232600
4,483667	0,5	0,236250
4,492000	0,5	0,251450
4,500333	0,5	0,262600
4,508667	0,5	0,286200
4,517000	0,5	0,297950
4,525333	0,5	0,331200
4,533667	0,5	0,364750
4,542000	0,5	0,415800
4,550333	0,5	0,457000
4,558667	0,5	0,517950
4,567000	0,5	0,617850
4,575333	0,5	0,688200
4,583667	0,5	0,780100
4,592000	0,5	0,890950
4,600333	0,5	1,002000
4,608667	0,5	1,128400
4,617000	0,5	1,171800
4,625333	0,5	1,212600
4,633667	0,5	1,218100
4,642000	0,5	1,194500
4,650333	0,5	1,136050
4,658667	0,5	1,058250
4,667000	0,5	0,966850
4,675333	0,5	0,867700
4,683667	0,5	0,788450
4,692000	0,5	0,715500
4,700333	0,5	0,655750
4,708667	0,5	0,598900
4,717000	0,5	0,576250
4,725333	0,5	0,512700
4,733667	0,5	0,493850
4,742000	0,5	0,480400
4,750333	0,5	0,488700
4,758667	0,5	0,490200
4,767000	0,5	0,468150
4,775333	0,5	0,452750
4,783667	0,5	0,456200
4,792000	0,5	0,449950
4,800333	0,5	0,450100
4,808667	0,5	0,459500
4,817000	0,5	0,453800
4,825333	0,5	0,457750
4,833667	0,5	0,468350
4,842000	0,5	0,476650
4,850333	0,5	0,462650
4,858667	0,5	0,472450
4,867000	0,5	0,464300
4,875333	0,5	0,454250
4,883667	0,5	0,451850
4,892000	0,5	0,466950
4,900333	0,5	0,486250
4,908667	0,5	0,508700
4,917000	0,5	0,493350
4,925333	0,5	0,499850
4,933667	0,5	0,511350
4,942000	0,5	0,510550
4,950333	0,5	0,508900
4,958667	0,5	0,510950
4,967000	0,5	0,509200
4,975333	0,5	0,508900
4,983667	0,5	0,518950
4,992000	0,5	0,508250
5,000333	0,5	0,511550
5,008667	0,5	0,532300
5,017000	0,5	0,522950
5,025333	0,5	0,523150
5,033667	0,5	0,529800
5,042000	0,5	0,552800
5,050333	0,5	0,583900
5,058667	0,5	0,581350
5,067000	0,5	0,588950
5,075333	0,5	0,587000
5,083667	0,5	0,597850
5,092000	0,5	0,589900
5,100333	0,5	0,599050
5,108667	0,5	0,602800
5,117000	0,5	0,607700
5,125333	0,5	0,614500
5,133667	0,5	0,631850
5,142000	0,5	0,622750
5,150333	0,5	0,636050
5,158667	0,5	0,642600
5,167000	0,5	0,636050
5,175333	0,5	0,642800
5,183667	0,5	0,653050
5,192000	0,5	0,686350
5,200333	0,5	0,715350
5,208667	0,5	0,736450
5,217000	0,5	0,753500
5,225333	0,5	0,785250
5,233667	0,5	0,811800
5,242000	0,5	0,844400
5,250333	0,5	0,874500
5,258667	0,5	0,896950
5,267000	0,5	0,910850
5,275333	0,5	0,925900
5,283667	0,5	0,924750
5,292000	0,5	0,914000
5,300333	0,5	0,911550
5,308667	0,5	0,888950
5,317000	0,5	0,853450
5,325333	0,5	0,830350
5,333667	0,5	0,812150
5,342000	0,5	0,829300
5,350333	0,5	0,818900
5,358667	0,5	0,795150
5,367000	0,5	0,786000
5,375333	0,5	0,778000
5,383667	0,5	0,773000
5,392000	0,5	0,764000
5,400333	0,5	0,761900
5,408667	0,5	0,757250
5,417000	0,5	0,755200
5,425333	0,5	0,753950
5,433667	0,5	0,756050
5,442000	0,5	0,740300
5,450333	0,5	0,775400
5,458667	0,5	0,750750
5,467000	0,5	0,752550
5,475333	0,5	0,748400
5,483667	0,5	0,760450
5,492000	0,5	0,787850
5,500333	0,5	0,784700
5,508667	0,5	0,780350
5,517000	0,5	0,778850
5,525333	0,5	0,782700
5,533667	0,5	0,787200
5,542000	0,5	0,800100
5,550333	0,5	0,799450
5,558667	0,5	0,798950
5,567000	0,5	0,792150
5,575333	0,5	0,798250
5,583667	0,5	0,780500
5,592000	0,5	0,777300
5,600333	0,5	0,795600
5,608667	0,5	0,774700
5,617000	0,5	0,771650
5,625333	0,5	0,777550
5,633667	0,5	0,783350
5,642000	0,5	0,815200
5,650333	0,5	0,799150
5,658667	0,5	0,793600
5,667000	0,5	0,786100
5,675333	0,5	0,791000
5,683667	0,5	0,780700
5,692000	0,5	0,780350
5,700333	0,5	0,783650
5,708667	0,5	0,778000
5,717000	0,5	0,780300
5,725333	0,5	0,776850
5,733667	0,5	0,774500
5,742000	0,5	0,785500
5,750333	0,5	0,785850
5,758667	0,5	0,762850
5,767000	0,5	0,762200
5,775333	0,5	0,765150
5,783667	0,5	0,785750
5,792000	0,5	0,794550
5,800333	0,5	0,796550
5,808667	0,5	0,780300
5,817000	0,5	0,787350
5,825333	0,5	0,776350
5,833667	0,5	0,777700
5,842000	0,5	0,778350
5,850333	0,5	0,778300
5,858667	0,5	0,770550
5,867000	0,5	0,769250
5,875333	0,5	0,775300
5,883667	0,5	0,766950
5,892000	0,5	0,769750
5,900333	0,5	0,758100
5,908667	0,5	0,747900
5,917000	0,5	0,746700
5,925333	0,5	0,750550
5,933667	0,5	0,759800
5,942000	0,5	0,783850
5,950333	0,5	0,764700
5,958667	0,5	0,762800
5,967000	0,5	0,751850
5,975333	0,5	0,747800
5,983667	0,5	0,748200
5,992000	0,5	0,741150
6,000333	0,5	0,728200
6,008667	0,5	0,723800
6,017000	0,5	0,717450
6,025333	0,5	0,702900
6,033667	0,5	0,701850
6,042000	0,5	0,722050
6,050333	0,5	0,697900
6,058667	0,5	0,690200
6,067000	0,5	0,688150
6,075333	0,5	0,704900
6,083667	0,5	0,720500
6,092000	0,5	0,715550
6,100333	0,5	0,707350
6,108667	0,5	0,704550
6,117000	0,5	0,704100
6,125333	0,5	0,695450
6,133667	0,5	0,695700
6,142000	0,5	0,693150
6,150333	0,5	0,692300
6,158667	0,5	0,686000
6,167000	0,5	0,690250
6,175333	0,5	0,683650
6,183667	0,5	0,697150
6,192000	0,5	0,690750
6,200333	0,5	0,676800
6,208667	0,5	0,672150
6,217000	0,5	0,679150
6,225333	0,5	0,696150
6,233667	0,5	0,699350
6,242000	0,5	0,703400
6,250333	0,5	0,696550
6,258667	0,5	0,694850
6,267000	0,5	0,694000
6,275333	0,5	0,697750
6,283667	0,5	0,700350
6,292000	0,5	0,699250
6,300333	0,5	0,695000
6,308667	0,5	0,705050
6,317000	0,5	0,712550
6,325333	0,5	0,726100
6,333667	0,5	0,745700
6,342000	0,5	0,761950
6,350333	0,5	0,767150
6,358667	0,5	0,782950
6,367000	0,5	0,803600
6,375333	0,5	0,835000
6,383667	0,5	0,848500
6,392000	0,5	0,838150
6,400333	0,5	0,833400
6,408667	0,5	0,825350
6,417000	0,5	0,814300
6,425333	0,5	0,798350
6,433667	0,5	0,782050
6,442000	0,5	0,765550
6,450333	0,5	0,766850
6,458667	0,5	0,761400
6,467000	0,5	0,759550
6,475333	0,5	0,743800
6,483667	0,5	0,761750
6,492000	0,5	0,740100
6,500333	0,5	0,740750
6,508667	0,5	0,739150
6,517000	0,5	0,752900
6,525333	0,5	0,770850
6,533667	0,5	0,770350
6,542000	0,5	0,764700
6,550333	0,5	0,780600
6,558667	0,5	0,781350
6,567000	0,5	0,783150
6,575333	0,5	0,787250
6,583667	0,5	0,794500
6,592000	0,5	0,800150
6,600333	0,5	0,800950
6,608667	0,5	0,813350
6,617000	0,5	0,802450
6,625333	0,5	0,810600
6,633667	0,5	0,830600
6,642000	0,5	0,827950
6,650333	0,5	0,835900
6,658667	0,5	0,846200
6,667000	0,5	0,873900
6,675333	0,5	0,895150
6,683667	0,5	0,890850
6,692000	0,5	0,902250
6,700333	0,5	0,906650
6,708667	0,5	0,917850
6,717000	0,5	0,923500
6,725333	0,5	0,932150
6,733667	0,5	0,935750
6,742000	0,5	0,943150
6,750333	0,5	0,962600
6,758667	0,5	0,970650
6,767000	0,5	0,969350
6,775333	0,5	0,986500
6,783667	0,5	0,993550
6,792000	0,5	0,994150
6,800333	0,5	0,997550
6,808667	0,5	1,014300
6,817000	0,5	1,045250
6,825333	0,5	1,063200
6,833667	0,5	1,074550
6,842000	0,5	1,065550
6,850333	0,5	1,088900
6,858667	0,5	1,084400
6,867000	0,5	1,098400
6,875333	0,5	1,097550
6,883667	0,5	1,105350
6,892000	0,5	1,103550
6,900333	0,5	1,117000
6,908667	0,5	1,127450
6,917000	0,5	1,129800
6,925333	0,5	1,148000
6,933667	0,5	1,138450
6,942000	0,5	1,143100
6,950333	0,5	1,154750
6,958667	0,5	1,175000
6,967000	0,5	1,199150
6,975333	0,5	1,212450
6,983667	0,5	1,213550
6,992000	0,5	1,225150
7,000333	0,5	1,224850
7,008667	0,5	1,234850
7,017000	0,5	1,246450
7,025333	0,5	1,253200
7,033667	0,5	1,258800
7,042000	0,5	1,267700
7,050333	0,5	1,279550
7,058667	0,5	1,283200
7,067000	0,5	1,298450
7,075333	0,5	1,321200
7,083667	0,5	1,318350
7,092000	0,5	1,326450
7,100333	0,5	1,336300
7,108667	0,5	1,370500
7,117000	0,5	1,406900
7,125333	0,5	1,444450
7,133667	0,5	1,479300
7,142000	0,5	1,542800
7,150333	0,5	1,621700
7,158667	0,5	1,720350
7,167000	0,5	1,839650
7,175333	0,5	1,964250
7,183667	0,5	2,082650
7,192000	0,5	2,169800
7,200333	0,5	2,225550
7,208667	0,5	2,217700
7,217000	0,5	2,187300
7,225333	0,5	2,105050
7,233667	0,5	1,999000
7,242000	0,5	1,898300
7,250333	0,5	1,812550
7,258667	0,5	1,755400
7,267000	0,5	1,702100
7,275333	0,5	1,646750
7,283667	0,5	1,606350
7,292000	0,5	1,577500
7,300333	0,5	1,549000
7,308667	0,5	1,530450
7,317000	0,5	1,511550
7,325333	0,5	1,498800
7,333667	0,5	1,480000
7,342000	0,5	1,477150
7,350333	0,5	1,460500
7,358667	0,5	1,458400
7,367000	0,5	1,473800
7,375333	0,5	1,460450
7,383667	0,5	1,452800
7,392000	0,5	1,459450
7,400333	0,5	1,465900
7,408667	0,5	1,493900
7,417000	0,5	1,488750
7,425333	0,5	1,483450
7,433667	0,5	1,485300
7,442000	0,5	1,481900
7,450333	0,5	1,483000
7,458667	0,5	1,488850
7,467000	0,5	1,489550
7,475333	0,5	1,493950
7,483667	0,5	1,510450
7,492000	0,5	1,528000
7,500333	0,5	1,559750
7,508667	0,5	1,599700
7,517000	0,5	1,658900
7,525333	0,5	1,698800
7,533667	0,5	1,754350
7,542000	0,5	1,806700
7,550333	0,5	1,863400
7,558667	0,5	1,923800
7,567000	0,5	1,947750
7,575333	0,5	1,953950
7,583667	0,5	1,970100
7,592000	0,5	1,982400
7,600333	0,5	1,995200
7,608667	0,5	1,992450
7,617000	0,5	1,975250
7,625333	0,5	1,939350
7,633667	0,5	1,883950
7,642000	0,5	1,833800
7,650333	0,5	1,773350
7,658667	0,5	1,736350
7,667000	0,5	1,706700
7,675333	0,5	1,675850
7,683667	0,5	1,654300
7,692000	0,5	1,651100
7,700333	0,5	1,652550
7,708667	0,5	1,671200
7,717000	0,5	1,673550
7,725333	0,5	1,680250
7,733667	0,5	1,684050
7,742000	0,5	1,685100
7,750333	0,5	1,675800
7,758667	0,5	1,669200
7,767000	0,5	1,652250
7,775333	0,5	1,637650
7,783667	0,5	1,625100
7,792000	0,5	1,619100
7,800333	0,5	1,597400
7,808667	0,5	1,604100
7,817000	0,5	1,591900
7,825333	0,5	1,582850
7,833667	0,5	1,581800
7,842000	0,5	1,582800
7,850333	0,5	1,598750
7,858667	0,5	1,604300
7,867000	0,5	1,607300
7,875333	0,5	1,600100
7,883667	0,5	1,595350
7,892000	0,5	1,588600
7,900333	0,5	1,588250
7,908667	0,5	1,593300
7,917000	0,5	1,599050
7,925333	0,5	1,609050
7,933667	0,5	1,631500
7,942000	0,5	1,659600
7,950333	0,5	1,704450
7,958667	0,5	1,764900
7,967000	0,5	1,803850
7,975333	0,5	1,828700
7,983667	0,5	1,833700
7,992000	0,5	1,821750
8,000333	0,5	1,787750
8,008667	0,5	1,749200
8,017000	0,5	1,710850
8,025333	0,5	1,682200
8,033667	0,5	1,662550
8,042000	0,5	1,654050
8,050333	0,5	1,639000
8,058667	0,5	1,636250
8,067000	0,5	1,627550
8,075333	0,5	1,628200
8,083667	0,5	1,624950
8,092000	0,5	1,622950
8,100333	0,5	1,633600
8,108667	0,5	1,638700
8,117000	0,5	1,651200
8,125333	0,5	1,666150
8,133667	0,5	1,702700
8,142000	0,5	1,760100
8,150333	0,5	1,824700
8,158667	0,5	1,898150
8,167000	0,5	1,965100
8,175333	0,5	2,014800
8,183667	0,5	2,023850
8,192000	0,5	1,997250
8,200333	0,5	1,939600
8,208667	0,5	1,870400
8,217000	0,5	1,814800
8,225333	0,5	1,772950
8,233667	0,5	1,745350
8,242000	0,5	1,722400
8,250333	0,5	1,720050
8,258667	0,5	1,707650
8,267000	0,5	1,702950
8,275333	0,5	1,718900
8,283667	0,5	1,739150
8,292000	0,5	1,779000
8,300333	0,5	1,811850
8,308667	0,5	1,835150
8,317000	0,5	1,854250
8,325333	0,5	1,872650
8,333667	0,5	1,897300
8,342000	0,5	1,953000
8,350333	0,5	2,044550
8,358667	0,5	2,175600
8,367000	0,5	2,317100
8,375333	0,5	2,423700
8,383667	0,5	2,445100
8,392000	0,5	2,390150
8,400333	0,5	2,292450
8,408667	0,5	2,175200
8,417000	0,5	2,080000
8,425333	0,5	2,019300
8,433667	0,5	1,996550
8,442000	0,5	1,995900
8,450333	0,5	1,962150
8,458667	0,5	1,912050
8,467000	0,5	1,833750
8,475333	0,5	1,756600
8,483667	0,5	1,686600
8,492000	0,5	1,631100
8,500333	0,5	1,590800
8,508667	0,5	1,560600
8,517000	0,5	1,539000
8,525333	0,5	1,522950
8,533667	0,5	1,512050
8,542000	0,5	1,493700
8,550333	0,5	1,491850
8,558667	0,5	1,473400
8,567000	0,5	1,466650
8,575333	0,5	1,464550
8,583667	0,5	1,462900
8,592000	0,5	1,468800
8,600333	0,5	1,470550
8,608667	0,5	1,469450
8,617000	0,5	1,479550
8,625333	0,5	1,484650
8,633667	0,5	1,495200
8,642000	0,5	1,507350
8,650333	0,5	1,521200
8,658667	0,5	1,535150
8,667000	0,5	1,561200
8,675333	0,5	1,602800
8,683667	0,5	1,653150
8,692000	0,5	1,722250
8,700333	0,5	1,780100
8,708667	0,5	1,809900
8,717000	0,5	1,800050
8,725333	0,5	1,762550
8,733667	0,5	1,717950
8,742000	0,5	1,674900
8,750333	0,5	1,625000
8,758667	0,5	1,591450
8,767000	0,5	1,565100
8,775333	0,5	1,551150
8,783667	0,5	1,543000
8,792000	0,5	1,532900
8,800333	0,5	1,532850
8,808667	0,5	1,529500
8,817000	0,5	1,528600
8,825333	0,5	1,525000
8,833667	0,5	1,517500
8,842000	0,5	1,524900
8,850333	0,5	1,522500
8,858667	0,5	1,522900
8,867000	0,5	1,521650
8,875333	0,5	1,531950
8,883667	0,5	1,548700
8,892000	0,5	1,558250
8,900333	0,5	1,566600
8,908667	0,5	1,569600
8,917000	0,5	1,574500
8,925333	0,5	1,578650
8,933667	0,5	1,589600
8,942000	0,5	1,599950
8,950333	0,5	1,607450
8,958667	0,5	1,614750
8,967000	0,5	1,624650
8,975333	0,5	1,626900
8,983667	0,5	1,632250
8,992000	0,5	1,629600
9,000333	0,5	1,626900
9,008667	0,5	1,620800
9,017000	0,5	1,615850
9,025333	0,5	1,620150
9,033667	0,5	1,627550
9,042000	0,5	1,628350
9,050333	0,5	1,625700
9,058667	0,5	1,623200
9,067000	0,5	1,620800
9,075333	0,5	1,627800
9,083667	0,5	1,634850
9,092000	0,5	1,647600
9,100333	0,5	1,661150
9,108667	0,5	1,684550
9,117000	0,5	1,713700
9,125333	0,5	1,754600
9,133667	0,5	1,800650
9,142000	0,5	1,829100
9,150333	0,5	1,821700
9,158667	0,5	1,795900
9,167000	0,5	1,752500
9,175333	0,5	1,709750
9,183667	0,5	1,671900
9,192000	0,5	1,637900
9,200333	0,5	1,614200
9,208667	0,5	1,594900
9,217000	0,5	1,591250
9,225333	0,5	1,586750
9,233667	0,5	1,582500
9,242000	0,5	1,587700
9,250333	0,5	1,601050
9,258667	0,5	1,624500
9,267000	0,5	1,658450
9,275333	0,5	1,689250
9,283667	0,5	1,737900
9,292000	0,5	1,778400
9,300333	0,5	1,805850
9,308667	0,5	1,824450
9,317000	0,5	1,826050
9,325333	0,5	1,817850
9,333667	0,5	1,803200
9,342000	0,5	1,786650
9,350333	0,5	1,789400
9,358667	0,5	1,814650
9,367000	0,5	1,860200
9,375333	0,5	1,908600
9,383667	0,5	1,957200
9,392000	0,5	1,968400
9,400333	0,5	1,956400
9,408667	0,5	1,915700
9,417000	0,5	1,864450
9,425333	0,5	1,823400
9,433667	0,5	1,796600
9,442000	0,5	1,765950
9,450333	0,5	1,743100
9,458667	0,5	1,722050
9,467000	0,5	1,698750
9,475333	0,5	1,688900
9,483667	0,5	1,673750
9,492000	0,5	1,671400
9,500333	0,5	1,685450
9,508667	0,5	1,711000
9,517000	0,5	1,747250
9,525333	0,5	1,777300
9,533667	0,5	1,783100
9,542000	0,5	1,763650
9,550333	0,5	1,726500
9,558667	0,5	1,682650
9,567000	0,5	1,636050
9,575333	0,5	1,606700
9,583667	0,5	1,584150
9,592000	0,5	1,557600
9,600333	0,5	1,534700
9,608667	0,5	1,521200
9,617000	0,5	1,511200
9,625333	0,5	1,501550
9,633667	0,5	1,488350
9,642000	0,5	1,480600
9,650333	0,5	1,467800
9,658667	0,5	1,457500
9,667000	0,5	1,449050
9,675333	0,5	1,442500
9,683667	0,5	1,441750
9,692000	0,5	1,430700
9,700333	0,5	1,429650
9,708667	0,5	1,421500
9,717000	0,5	1,422850
9,725333	0,5	1,420200
9,733667	0,5	1,414050
9,742000	0,5	1,409150
9,750333	0,5	1,403650
9,758667	0,5	1,400400
9,767000	0,5	1,407150
9,775333	0,5	1,410400
9,783667	0,5	1,419350
9,792000	0,5	1,424400
9,800333	0,5	1,436650
9,808667	0,5	1,451000
9,817000	0,5	1,465800
9,825333	0,5	1,480250
9,833667	0,5	1,504900
9,842000	0,5	1,532000
9,850333	0,5	1,562450
9,858667	0,5	1,582850
9,867000	0,5	1,592350
9,875333	0,5	1,580800
9,883667	0,5	1,554050
9,892000	0,5	1,525950
9,900333	0,5	1,507550
9,908667	0,5	1,493000
9,917000	0,5	1,486350
9,925333	0,5	1,490700
9,933667	0,5	1,506250
9,942000	0,5	1,528050
9,950333	0,5	1,559050
9,958667	0,5	1,599750
9,967000	0,5	1,648450
9,975333	0,5	1,706350
9,983667	0,5	1,761400
9,992000	0,5	1,810900
10,000333	0,5	1,843800
10,008667	0,5	1,855650
10,017000	0,5	1,836750
10,025333	0,5	1,805700
10,033667	0,5	1,756450
10,042000	0,5	1,702700
10,050333	0,5	1,645950
10,058667	0,5	1,593800
10,067000	0,5	1,564650
10,075333	0,5	1,540450
10,083667	0,5	1,524750
10,092000	0,5	1,515950
10,100333	0,5	1,509850
10,108667	0,5	1,510450
10,117000	0,5	1,508800
10,125333	0,5	1,513550
10,133667	0,5	1,520850
10,142000	0,5	1,536700
10,150333	0,5	1,566650
10,158667	0,5	1,608700
10,167000	0,5	1,656800
10,175333	0,5	1,698600
10,183667	0,5	1,722700
10,192000	0,5	1,721900
10,200333	0,5	1,709900
10,208667	0,5	1,687750
10,217000	0,5	1,653400
10,225333	0,5	1,625800
10,233667	0,5	1,602450
10,242000	0,5	1,587650
10,250333	0,5	1,581350
10,258667	0,5	1,570750
10,267000	0,5	1,580850
10,275333	0,5	1,580000
10,283667	0,5	1,584150
10,292000	0,5	1,596800
10,300333	0,5	1,609100
10,308667	0,5	1,620850
10,317000	0,5	1,630950
10,325333	0,5	1,644000
10,333667	0,5	1,656150
10,342000	0,5	1,656550
10,350333	0,5	1,665200
10,358667	0,5	1,680450
10,367000	0,5	1,691650
10,375333	0,5	1,705550
10,383667	0,5	1,719200
10,392000	0,5	1,723900
10,400333	0,5	1,736150
10,408667	0,5	1,733700
10,417000	0,5	1,735800
10,425333	0,5	1,735300
10,433667	0,5	1,740100
10,442000	0,5	1,740250
10,450333	0,5	1,733850
10,458667	0,5	1,724800
10,467000	0,5	1,708950
10,475333	0,5	1,688350
10,483667	0,5	1,659850
10,492000	0,5	1,637500
10,500333	0,5	1,618100
10,508667	0,5	1,606350
10,517000	0,5	1,594200
10,525333	0,5	1,577200
10,533667	0,5	1,565300
10,542000	0,5	1,552900
10,550333	0,5	1,543600
10,558667	0,5	1,529800
10,567000	0,5	1,523150
10,575333	0,5	1,517600
10,583667	0,5	1,506600
10,592000	0,5	1,504000
10,600333	0,5	1,497550
10,608667	0,5	1,498150
10,617000	0,5	1,502150
10,625333	0,5	1,509400
10,633667	0,5	1,513500
10,642000	0,5	1,533750
10,650333	0,5	1,557550
10,658667	0,5	1,587850
10,667000	0,5	1,625950
10,675333	0,5	1,665050
10,683667	0,5	1,700450
10,692000	0,5	1,729750
10,700333	0,5	1,745850
10,708667	0,5	1,752550
10,717000	0,5	1,752900
10,725333	0,5	1,745750
10,733667	0,5	1,743350
10,742000	0,5	1,739900
10,750333	0,5	1,750550
10,758667	0,5	1,763950
10,767000	0,5	1,778350
10,775333	0,5	1,785450
10,783667	0,5	1,781200
10,792000	0,5	1,756350
10,800333	0,5	1,718150
10,808667	0,5	1,656300
10,817000	0,5	1,596300
10,825333	0,5	1,538950
10,833667	0,5	1,486800
10,842000	0,5	1,451650
10,850333	0,5	1,428350
10,858667	0,5	1,416650
10,867000	0,5	1,416650
10,875333	0,5	1,413800
10,883667	0,5	1,417400
10,892000	0,5	1,425000
10,900333	0,5	1,429450
10,908667	0,5	1,445600
10,917000	0,5	1,454700
10,925333	0,5	1,467950
10,933667	0,5	1,474050
10,942000	0,5	1,481650
10,950333	0,5	1,485500
10,958667	0,5	1,482250
10,967000	0,5	1,482850
10,975333	0,5	1,479800
10,983667	0,5	1,475150
10,992000	0,5	1,477400
11,000333	0,5	1,478850
11,008667	0,5	1,486950
11,017000	0,5	1,483100
11,025333	0,5	1,482200
11,033667	0,5	1,478000
11,042000	0,5	1,470100
11,050333	0,5	1,458100
11,058667	0,5	1,455500
11,067000	0,5	1,444100
11,075333	0,5	1,438750
11,083667	0,5	1,431150
11,092000	0,5	1,430500
11,100333	0,5	1,422300
11,108667	0,5	1,424700
11,117000	0,5	1,425450
11,125333	0,5	1,424250
11,133667	0,5	1,410700
11,142000	0,5	1,409900
11,150333	0,5	1,401000
11,158667	0,5	1,396300
11,167000	0,5	1,389100
11,175333	0,5	1,377550
11,183667	0,5	1,374000
11,192000	0,5	1,371150
11,200333	0,5	1,366400
11,208667	0,5	1,370250
11,217000	0,5	1,372100
11,225333	0,5	1,373150
11,233667	0,5	1,372150
11,242000	0,5	1,376000
11,250333	0,5	1,389800
11,258667	0,5	1,393500
11,267000	0,5	1,398450
11,275333	0,5	1,409750
11,283667	0,5	1,423900
11,292000	0,5	1,444800
11,300333	0,5	1,466250
11,308667	0,5	1,495350
11,317000	0,5	1,519750
11,325333	0,5	1,535650
11,333667	0,5	1,542800
11,342000	0,5	1,538800
11,350333	0,5	1,520150
11,358667	0,5	1,505350
11,367000	0,5	1,473200
11,375333	0,5	1,446850
11,383667	0,5	1,423000
11,392000	0,5	1,412200
11,400333	0,5	1,400800
11,408667	0,5	1,393950
11,417000	0,5	1,391450
11,425333	0,5	1,396750
11,433667	0,5	1,400200
11,442000	0,5	1,396050
11,450333	0,5	1,393000
11,458667	0,5	1,386150
11,467000	0,5	1,377450
11,475333	0,5	1,373200
11,483667	0,5	1,368100
11,492000	0,5	1,366800
11,500333	0,5	1,379650
11,508667	0,5	1,393300
11,517000	0,5	1,418000
11,525333	0,5	1,458650
11,533667	0,5	1,507650
11,542000	0,5	1,583300
11,550333	0,5	1,664550
11,558667	0,5	1,749950
11,567000	0,5	1,827700
11,575333	0,5	1,887450
11,583667	0,5	1,922200
11,592000	0,5	1,921150
11,600333	0,5	1,904750
11,608667	0,5	1,876500
11,617000	0,5	1,854150
11,625333	0,5	1,855150
11,633667	0,5	1,865000
11,642000	0,5	1,894700
11,650333	0,5	1,943850
11,658667	0,5	2,001050
11,667000	0,5	2,047300
11,675333	0,5	2,075650
11,683667	0,5	2,083150
11,692000	0,5	2,064900
11,700333	0,5	2,024950
11,708667	0,5	1,974250
11,717000	0,5	1,910500
11,725333	0,5	1,860350
11,733667	0,5	1,823300
11,742000	0,5	1,807400
11,750333	0,5	1,814400
11,758667	0,5	1,837250
11,767000	0,5	1,879350
11,775333	0,5	1,928250
11,783667	0,5	1,968350
11,792000	0,5	1,993250
11,800333	0,5	1,993500
11,808667	0,5	1,973400
11,817000	0,5	1,932500
11,825333	0,5	1,874850
11,833667	0,5	1,812800
11,842000	0,5	1,738150
11,850333	0,5	1,673850
11,858667	0,5	1,607850
11,867000	0,5	1,546350
11,875333	0,5	1,486700
11,883667	0,5	1,441550
11,892000	0,5	1,397250
11,900333	0,5	1,362150
11,908667	0,5	1,333950
11,917000	0,5	1,320500
11,925333	0,5	1,306950
11,933667	0,5	1,297800
11,942000	0,5	1,302150
11,950333	0,5	1,313100
11,958667	0,5	1,321200
11,967000	0,5	1,330850
11,975333	0,5	1,339550
11,983667	0,5	1,349850
11,992000	0,5	1,372150
12,000333	0,5	1,400900
12,008667	0,5	1,423450
12,017000	0,5	1,449950
12,025333	0,5	1,471300
12,033667	0,5	1,487050
12,042000	0,5	1,481250
12,050333	0,5	1,466300
12,058667	0,5	1,441200
12,067000	0,5	1,412100
12,075333	0,5	1,381000
12,083667	0,5	1,355200
12,092000	0,5	1,336950
12,100333	0,5	1,317400
12,108667	0,5	1,307300
12,117000	0,5	1,296850
12,125333	0,5	1,292400
12,133667	0,5	1,295500
12,142000	0,5	1,305750
12,150333	0,5	1,316850
12,158667	0,5	1,332700
12,167000	0,5	1,352150
12,175333	0,5	1,369800
12,183667	0,5	1,393250
12,192000	0,5	1,417650
12,200333	0,5	1,439500
12,208667	0,5	1,456350
12,217000	0,5	1,468400
12,225333	0,5	1,470900
12,233667	0,5	1,465200
12,242000	0,5	1,464450
12,250333	0,5	1,452050
12,258667	0,5	1,441400
12,267000	0,5	1,432300
12,275333	0,5	1,421650
12,283667	0,5	1,421150
12,292000	0,5	1,421450
12,300333	0,5	1,422750
12,308667	0,5	1,422850
12,317000	0,5	1,424750
12,325333	0,5	1,436900
12,333667	0,5	1,448600
12,342000	0,5	1,458500
12,350333	0,5	1,465350
12,358667	0,5	1,476200
12,367000	0,5	1,489000
12,375333	0,5	1,489900
12,383667	0,5	1,507050
12,392000	0,5	1,513100
12,400333	0,5	1,522900
12,408667	0,5	1,536000
12,417000	0,5	1,541650
12,425333	0,5	1,567800
12,433667	0,5	1,601250
12,442000	0,5	1,646400
12,450333	0,5	1,703700
12,458667	0,5	1,774000
12,467000	0,5	1,863400
12,475333	0,5	1,955350
12,483667	0,5	2,051050
12,492000	0,5	2,133850
12,500333	0,5	2,191850
12,508667	0,5	2,211050
12,517000	0,5	2,197900
12,525333	0,5	2,162800
12,533667	0,5	2,139100
12,542000	0,5	2,108550
12,550333	0,5	2,092750
12,558667	0,5	2,080550
12,567000	0,5	2,077200
12,575333	0,5	2,086900
12,583667	0,5	2,102750
12,592000	0,5	2,108800
12,600333	0,5	2,128750
12,608667	0,5	2,132050
12,617000	0,5	2,132950
12,625333	0,5	2,112750
12,633667	0,5	2,081550
12,642000	0,5	2,034000
12,650333	0,5	1,962300
12,658667	0,5	1,887100
12,667000	0,5	1,810600
12,675333	0,5	1,731500
12,683667	0,5	1,670500
12,692000	0,5	1,610850
12,700333	0,5	1,566950
12,708667	0,5	1,523450
12,717000	0,5	1,491550
12,725333	0,5	1,481700
12,733667	0,5	1,469600
12,742000	0,5	1,459750
12,750333	0,5	1,443950
12,758667	0,5	1,424800
12,767000	0,5	1,403200
12,775333	0,5	1,375950
12,783667	0,5	1,347400
12,792000	0,5	1,320700
12,800333	0,5	1,300650
12,808667	0,5	1,280650
12,817000	0,5	1,258850
12,825333	0,5	1,247350
12,833667	0,5	1,238900
12,842000	0,5	1,228900
12,850333	0,5	1,219900
12,858667	0,5	1,209950
12,867000	0,5	1,208150
12,875333	0,5	1,212600
12,883667	0,5	1,219500
12,892000	0,5	1,229200
12,900333	0,5	1,229150
12,908667	0,5	1,228950
12,917000	0,5	1,218900
12,925333	0,5	1,212800
12,933667	0,5	1,206400
12,942000	0,5	1,191300
12,950333	0,5	1,185650
12,958667	0,5	1,174200
12,967000	0,5	1,155850
12,975333	0,5	1,149100
12,983667	0,5	1,143850
12,992000	0,5	1,135300
13,000333	0,5	1,101400
13,008667	0,5	1,056750
13,017000	0,5	1,012050
13,025333	0,5	0,965150
13,033667	0,5	0,924800
13,042000	0,5	0,879100
13,050333	0,5	0,834350
13,058667	0,5	0,797250
13,067000	0,5	0,753400
13,075333	0,5	0,671300
13,083667	0,5	0,542100
13,092000	0,5	0,302750
13,100333	0,5	-0,083000
13,108667	0,5	-0,481300
13,117000	0,5	-0,799550
13,125333	0,5	-1,088950
13,133667	0,5	-1,334700
13,142000	0,5	-1,501250
13,150333	0,5	-1,622200
13,158667	0,5	-1,706750
13,167000	0,5	-1,766450
13,175333	0,5	-1,810350
13,183667	0,5	-1,849600
13,192000	0,5	-1,883900
13,200333	0,5	-1,911900
13,208667	0,5	-1,937200
13,217000	0,5	-1,964250
13,225333	0,5	-1,985100
13,233667	0,5	-2,000050
13,242000	0,5	-2,008450
13,250333	0,5	-2,017750
13,258667	0,5	-2,029300
13,267000	0,5	-2,036650
13,275333	0,5	-2,038550
13,283667	0,5	-2,041600
13,292000	0,5	-2,053400
13,300333	0,5	-2,069800
13,308667	0,5	-2,081100
13,317000	0,5	-2,088400
13,325333	0,5	-2,104150
13,333667	0,5	-2,117850
13,342000	0,5	-2,134050
13,350333	0,5	-2,145050
13,358667	0,5	-2,160250
13,367000	0,5	-2,173450
13,375333	0,5	-2,182950
13,383667	0,5	-2,193100
13,392000	0,5	-2,192000
13,400333	0,5	-2,187600
13,408667	0,5	-2,198500
13,417000	0,5	-2,193650
13,425333	0,5	-2,192050
13,433667	0,5	-2,191650
13,442000	0,5	-2,183200
13,450333	0,5	-2,189700
13,458667	0,5	-2,169750
13,467000	0,5	-2,164400
13,475333	0,5	-2,140150
13,483667	0,5	-2,126700
13,492000	0,5	-2,099550
13,500333	0,5	-2,070600
13,508667	0,5	-2,037700
13,517000	0,5	-1,999500
13,525333	0,5	-1,967700
13,533667	0,5	-1,937950
13,542000	0,5	-1,900600
13,550333	0,5	-1,882700
13,558667	0,5	-1,863950
13,567000	0,5	-1,837750
13,575333	0,5	-1,820350
13,583667	0,5	-1,795350
13,592000	0,5	-1,770800
13,600333	0,5	-1,748800
13,608667	0,5	-1,715300
13,617000	0,5	-1,685150
13,625333	0,5	-1,673250
13,633667	0,5	-1,667550
13,642000	0,5	-1,672150
13,650333	0,5	-1,682300
13,658667	0,5	-1,697000
13,667000	0,5	-1,709000
13,675333	0,5	-1,717650
13,683667	0,5	-1,709950
13,692000	0,5	-1,707100
13,700333	0,5	-1,695800
13,708667	0,5	-1,684500
13,717000	0,5	-1,666100
13,725333	0,5	-1,654750
13,733667	0,5	-1,656550
13,742000	0,5	-1,660100
13,750333	0,5	-1,672050
13,758667	0,5	-1,670050
13,767000	0,5	-1,677850
13,775333	0,5	-1,680050
13,783667	0,5	-1,672000
13,792000	0,5	-1,661950
13,800333	0,5	-1,656800
13,808667	0,5	-1,637800
13,817000	0,5	-1,622750
13,825333	0,5	-1,603750
13,833667	0,5	-1,574200
13,842000	0,5	-1,550900
13,850333	0,5	-1,531100
13,858667	0,5	-1,507100
13,867000	0,5	-1,488000
13,875333	0,5	-1,478400
13,883667	0,5	-1,474450
13,892000	0,5	-1,464100
13,900333	0,5	-1,447300
13,908667	0,5	-1,425650
13,917000	0,5	-1,401850
13,925333	0,5	-1,384000
13,933667	0,5	-1,353450
13,942000	0,5	-1,318350
13,950333	0,5	-1,280550
13,958667	0,5	-1,241300
13,967000	0,5	-1,204500
13,975333	0,5	-1,174950
13,983667	0,5	-1,140600
13,992000	0,5	-1,120850
14,000333	0,5	-1,110350
14,008667	0,5	-1,096700
14,017000	0,5	-1,077400
14,025333	0,5	-1,066150
14,033667	0,5	-1,056800
14,042000	0,5	-1,039650
14,050333	0,5	-1,002400
14,058667	0,5	-0,965700
14,067000	0,5	-0,930750
14,075333	0,5	-0,891350
14,083667	0,5	-0,848850
14,092000	0,5	-0,809500
14,100333	0,5	-0,774050
14,108667	0,5	-0,737450
14,117000	0,5	-0,700450
14,125333	0,5	-0,666350
14,133667	0,5	-0,630650
14,142000	0,5	-0,610150
14,150333	0,5	-0,578500
14,158667	0,5	-0,546250
14,167000	0,5	-0,520250
14,175333	0,5	-0,496450
14,183667	0,5	-0,482400
14,192000	0,5	-0,452600
14,200333	0,5	-0,421050
14,208667	0,5	-0,385750
14,217000	0,5	-0,350400
14,225333	0,5	-0,311800
14,233667	0,5	-0,277500
14,242000	0,5	-0,233850
14,250333	0,5	-0,189800
14,258667	0,5	-0,131450
14,267000	0,5	-0,076800
14,275333	0,5	-0,008600
14,283667	0,5	0,082250
14,292000	0,5	0,171350
14,300333	0,5	0,291750
14,308667	0,5	0,397100
14,317000	0,5	0,494350
14,325333	0,5	0,572250
14,333667	0,5	0,608600
14,342000	0,5	0,633900
14,350333	0,5	0,634400
14,358667	0,5	0,609550
14,367000	0,5	0,579950
14,375333	0,5	0,550600
14,383667	0,5	0,528450
14,392000	0,5	0,526700
14,400333	0,5	0,535600
14,408667	0,5	0,565700
14,417000	0,5	0,597900
14,425333	0,5	0,650800
14,433667	0,5	0,672250
14,442000	0,5	0,675950
14,450333	0,5	0,671200
14,458667	0,5	0,641850
14,467000	0,5	0,598500
14,475333	0,5	0,547850
14,483667	0,5	0,491950
14,492000	0,5	0,475850
14,500333	0,5	0,449450
14,508667	0,5	0,430000
14,517000	0,5	0,412100
14,525333	0,5	0,404500
14,533667	0,5	0,390900
14,542000	0,5	0,382150
14,550333	0,5	0,372300
14,558667	0,5	0,361850
14,567000	0,5	0,351350
14,575333	0,5	0,350500
14,583667	0,5	0,343900
14,592000	0,5	0,346250
14,600333	0,5	0,347800
14,608667	0,5	0,343950
14,617000	0,5	0,339900
14,625333	0,5	0,329300
14,633667	0,5	0,322750
14,642000	0,5	0,323150
14,650333	0,5	0,336450
14,658667	0,5	0,341000
14,667000	0,5	0,362600
14,675333	0,5	0,380050
14,683667	0,5	0,396150
14,692000	0,5	0,403550
14,700333	0,5	0,403650
14,708667	0,5	0,391500
14,717000	0,5	0,372400
14,725333	0,5	0,355850
14,733667	0,5	0,331300
14,742000	0,5	0,317800
14,750333	0,5	0,307550
14,758667	0,5	0,299950
14,767000	0,5	0,284350
14,775333	0,5	0,269200
14,783667	0,5	0,263250
14,792000	0,5	0,265850
14,800333	0,5	0,269150
14,808667	0,5	0,272600
14,817000	0,5	0,267650
14,825333	0,5	0,278900
14,833667	0,5	0,281500
14,842000	0,5	0,297000
14,850333	0,5	0,301100
14,858667	0,5	0,340250
14,867000	0,5	0,402800
14,875333	0,5	0,471450
14,883667	0,5	0,567300
14,892000	0,5	0,686650
14,900333	0,5	0,778500
14,908667	0,5	0,826850
14,917000	0,5	0,816900
14,925333	0,5	0,764350
14,933667	0,5	0,702800
14,942000	0,5	0,632600
14,950333	0,5	0,576950
14,958667	0,5	0,556800
14,967000	0,5	0,565200
14,975333	0,5	0,590000
14,983667	0,5	0,633600
14,992000	0,5	0,671300
15,000333	0,5	0,684400
15,008667	0,5	0,677700
15,017000	0,5	0,648550
15,025333	0,5	0,582050
15,033667	0,5	0,526600
15,042000	0,5	0,480100
15,050333	0,5	0,437850
15,058667	0,5	0,409100
15,067000	0,5	0,367550
15,075333	0,5	0,344800
15,083667	0,5	0,336250
15,092000	0,5	0,323550
15,100333	0,5	0,317950
15,108667	0,5	0,316800
15,117000	0,5	0,315650
15,125333	0,5	0,317000
15,133667	0,5	0,323850
15,142000	0,5	0,335600
15,150333	0,5	0,339100
15,158667	0,5	0,351800
15,167000	0,5	0,349150
15,175333	0,5	0,338250
15,183667	0,5	0,339650
15,192000	0,5	0,336200
15,200333	0,5	0,325000
15,208667	0,5	0,310450
15,217000	0,5	0,278700
15,225333	0,5	0,274500
15,233667	0,5	0,261550
15,242000	0,5	0,240600
15,250333	0,5	0,219150
15,258667	0,5	0,210450
15,267000	0,5	0,192900
15,275333	0,5	0,184450
15,283667	0,5	0,174100
15,292000	0,5	0,162600
15,300333	0,5	0,157500
15,308667	0,5	0,149650
15,317000	0,5	0,149550
15,325333	0,5	0,134950
15,333667	0,5	0,148000
15,342000	0,5	0,146600
15,350333	0,5	0,155650
15,358667	0,5	0,159950
15,367000	0,5	0,188350
15,375333	0,5	0,255300
15,383667	0,5	0,347300
15,392000	0,5	0,449550
15,400333	0,5	0,571250
15,408667	0,5	0,672750
15,417000	0,5	0,728150
15,425333	0,5	0,724900
15,433667	0,5	0,684300
15,442000	0,5	0,618050
15,450333	0,5	0,557150
15,458667	0,5	0,538650
15,467000	0,5	0,538750
15,475333	0,5	0,574500
15,483667	0,5	0,617100
15,492000	0,5	0,636300
15,500333	0,5	0,613600
15,508667	0,5	0,571200
15,517000	0,5	0,503600
15,525333	0,5	0,462050
15,533667	0,5	0,417400
15,542000	0,5	0,385650
15,550333	0,5	0,359950
15,558667	0,5	0,354300
15,567000	0,5	0,351850
15,575333	0,5	0,354250
15,583667	0,5	0,355750
15,592000	0,5	0,343550
15,600333	0,5	0,345900
15,608667	0,5	0,333650
15,617000	0,5	0,309350
15,625333	0,5	0,308850
15,633667	0,5	0,303850
15,642000	0,5	0,298800
15,650333	0,5	0,273250
15,658667	0,5	0,249400
15,667000	0,5	0,240150
15,675333	0,5	0,226950
15,683667	0,5	0,208000
15,692000	0,5	0,176500
15,700333	0,5	0,160850
15,708667	0,5	0,135250
15,717000	0,5	0,119850
15,725333	0,5	0,109400
15,733667	0,5	0,095200
15,742000	0,5	0,089450
15,750333	0,5	0,080650
15,758667	0,5	0,067550
15,767000	0,5	0,055550
15,775333	0,5	0,057100
15,783667	0,5	0,053600
15,792000	0,5	0,054650
15,800333	0,5	0,046500
15,808667	0,5	0,049600
15,817000	0,5	0,077500
15,825333	0,5	0,140450
15,833667	0,5	0,217500
15,842000	0,5	0,328000
15,850333	0,5	0,440950
15,858667	0,5	0,552750
15,867000	0,5	0,617300
15,875333	0,5	0,630950
15,883667	0,5	0,598750
15,892000	0,5	0,548650
15,900333	0,5	0,518850
15,908667	0,5	0,500750
15,917000	0,5	0,506800
15,925333	0,5	0,524400
15,933667	0,5	0,505500
15,942000	0,5	0,474600
15,950333	0,5	0,406550
15,958667	0,5	0,348450
15,967000	0,5	0,304450
15,975333	0,5	0,252900
15,983667	0,5	0,216050
15,992000	0,5	0,182750
16,000333	0,5	0,159350
16,008667	0,5	0,136850
16,017000	0,5	0,128350
16,025333	0,5	0,125050
16,033667	0,5	0,130850
16,042000	0,5	0,129550
16,050333	0,5	0,137950
16,058667	0,5	0,114800
16,067000	0,5	0,115300
16,075333	0,5	0,103850
16,083667	0,5	0,090900
16,092000	0,5	0,059700
16,100333	0,5	0,032700
16,108667	0,5	0,022750
16,117000	0,5	-0,005350
16,125333	0,5	-0,027450
16,133667	0,5	-0,043600
16,142000	0,5	-0,054950
16,150333	0,5	-0,074350
16,158667	0,5	-0,079200
16,167000	0,5	-0,082050
16,175333	0,5	-0,081100
16,183667	0,5	-0,089000
16,192000	0,5	-0,076600
16,200333	0,5	-0,078300
16,208667	0,5	-0,066400
16,217000	0,5	-0,033400
16,225333	0,5	0,016500
16,233667	0,5	0,086900
16,242000	0,5	0,182350
16,250333	0,5	0,294550
16,258667	0,5	0,412650
16,267000	0,5	0,498100
16,275333	0,5	0,532950
16,283667	0,5	0,517250
16,292000	0,5	0,498450
16,300333	0,5	0,472450
16,308667	0,5	0,467500
16,317000	0,5	0,468100
16,325333	0,5	0,446350
16,333667	0,5	0,408150
16,342000	0,5	0,347200
16,350333	0,5	0,266600
16,358667	0,5	0,208450
16,367000	0,5	0,160100
16,375333	0,5	0,120000
16,383667	0,5	0,095950
16,392000	0,5	0,062950
16,400333	0,5	0,062250
16,408667	0,5	0,072250
16,417000	0,5	0,074500
16,425333	0,5	0,069950
16,433667	0,5	0,074650
16,442000	0,5	0,068750
16,450333	0,5	0,064200
16,458667	0,5	0,054100
16,467000	0,5	0,039150
16,475333	0,5	0,013050
16,483667	0,5	-0,010800
16,492000	0,5	-0,022500
16,500333	0,5	-0,060700
16,508667	0,5	-0,072350
16,517000	0,5	-0,092900
16,525333	0,5	-0,107500
16,533667	0,5	-0,139350
16,542000	0,5	-0,159050
16,550333	0,5	-0,163450
16,558667	0,5	-0,162800
16,567000	0,5	-0,168850
16,575333	0,5	-0,145500
16,583667	0,5	-0,109550
16,592000	0,5	-0,045650
16,600333	0,5	0,047100
16,608667	0,5	0,164550
16,617000	0,5	0,300850
16,625333	0,5	0,409600
16,633667	0,5	0,486950
16,642000	0,5	0,520800
16,650333	0,5	0,511350
16,658667	0,5	0,508500
16,667000	0,5	0,494350
16,675333	0,5	0,468800
16,683667	0,5	0,434000
16,692000	0,5	0,386100
16,700333	0,5	0,358750
16,708667	0,5	0,319450
16,717000	0,5	0,293750
16,725333	0,5	0,274600
16,733667	0,5	0,265600
16,742000	0,5	0,256650
16,750333	0,5	0,263450
16,758667	0,5	0,267050
16,767000	0,5	0,261350
16,775333	0,5	0,279950
16,783667	0,5	0,288550
16,792000	0,5	0,281400
16,800333	0,5	0,269200
16,808667	0,5	0,257950
16,817000	0,5	0,224400
16,825333	0,5	0,190000
16,833667	0,5	0,120750
16,842000	0,5	0,081050
16,850333	0,5	0,039400
16,858667	0,5	-0,004500
16,867000	0,5	-0,046600
16,875333	0,5	-0,067850
16,883667	0,5	-0,096300
16,892000	0,5	-0,101300
16,900333	0,5	-0,094450
16,908667	0,5	-0,069300
16,917000	0,5	-0,015800
16,925333	0,5	0,082700
16,933667	0,5	0,187100
16,942000	0,5	0,285250
16,950333	0,5	0,368550
16,958667	0,5	0,408650
16,967000	0,5	0,396750
16,975333	0,5	0,365050
16,983667	0,5	0,330000
16,992000	0,5	0,287550
17,000333	0,5	0,248650
17,008667	0,5	0,189600
17,017000	0,5	0,138150
17,025333	0,5	0,090650
17,033667	0,5	0,057100
17,042000	0,5	0,031350
17,050333	0,5	0,020450
17,058667	0,5	0,009800
17,067000	0,5	0,003000
17,075333	0,5	0,009850
17,083667	0,5	0,006600
17,092000	0,5	-0,003200
17,100333	0,5	-0,001400
17,108667	0,5	-0,011000
17,117000	0,5	-0,027250
17,125333	0,5	-0,055650
17,133667	0,5	-0,066150
17,142000	0,5	-0,059300
17,150333	0,5	-0,047100
17,158667	0,5	-0,032250
17,167000	0,5	-0,015300
17,175333	0,5	0,034550
17,183667	0,5	0,099500
17,192000	0,5	0,204600
17,200333	0,5	0,346000
17,208667	0,5	0,528050
17,217000	0,5	0,760700
17,225333	0,5	1,032750
17,233667	0,5	1,292250
17,242000	0,5	1,569700
17,250333	0,5	1,798650
17,258667	0,5	1,989400
17,267000	0,5	2,138400
17,275333	0,5	2,236800
17,283667	0,5	2,340400
17,292000	0,5	2,410450
17,300333	0,5	2,463450
17,308667	0,5	2,483100
17,317000	0,5	2,489800
17,325333	0,5	2,449750
17,333667	0,5	2,370050
17,342000	0,5	2,248200
17,350333	0,5	2,089500
17,358667	0,5	1,896550
17,367000	0,5	1,698400
17,375333	0,5	1,494450
17,383667	0,5	1,285200
17,392000	0,5	1,119600
17,400333	0,5	0,967050
17,408667	0,5	0,832900
17,417000	0,5	0,709400
17,425333	0,5	0,594700
17,433667	0,5	0,539200
17,442000	0,5	0,493400
17,450333	0,5	0,460250
17,458667	0,5	0,435150
17,467000	0,5	0,442350
17,475333	0,5	0,473600
17,483667	0,5	0,531650
17,492000	0,5	0,617500
17,500333	0,5	0,683150
17,508667	0,5	0,748700
17,517000	0,5	0,790050
17,525333	0,5	0,812750
17,533667	0,5	0,802800
17,542000	0,5	0,801550
17,550333	0,5	0,781900
17,558667	0,5	0,755700
17,567000	0,5	0,707050
17,575333	0,5	0,663700
17,583667	0,5	0,647350
17,592000	0,5	0,624050
17,600333	0,5	0,591250
17,608667	0,5	0,554950
17,617000	0,5	0,504350
17,625333	0,5	0,451350
17,633667	0,5	0,395300
17,642000	0,5	0,330950
17,650333	0,5	0,277700
17,658667	0,5	0,217750
17,667000	0,5	0,180450
17,675333	0,5	0,122700
17,683667	0,5	0,108550
17,692000	0,5	0,088800
17,700333	0,5	0,081050
17,708667	0,5	0,059950
17,717000	0,5	0,068000
17,725333	0,5	0,107750
17,733667	0,5	0,158750
17,742000	0,5	0,206200
17,750333	0,5	0,246650
17,758667	0,5	0,258400
17,767000	0,5	0,238800
17,775333	0,5	0,199700
17,783667	0,5	0,159950
17,792000	0,5	0,108350
17,800333	0,5	0,053800
17,808667	0,5	0,030250
17,817000	0,5	-0,009850
17,825333	0,5	-0,032450
17,833667	0,5	-0,050850
17,842000	0,5	-0,063200
17,850333	0,5	-0,093900
17,858667	0,5	-0,119200
17,867000	0,5	-0,150450
17,875333	0,5	-0,168550
17,883667	0,5	-0,173850
17,892000	0,5	-0,181450
17,900333	0,5	-0,191050
17,908667	0,5	-0,183650
17,917000	0,5	-0,183600
17,925333	0,5	-0,166150
17,933667	0,5	-0,132200
17,942000	0,5	-0,093250
17,950333	0,5	-0,035900
17,958667	0,5	0,035650
17,967000	0,5	0,065650
17,975333	0,5	0,082150
17,983667	0,5	0,087700
17,992000	0,5	0,065400
18,000333	0,5	0,023950
18,008667	0,5	-0,037300
18,017000	0,5	-0,086750
18,025333	0,5	-0,108250
18,033667	0,5	-0,121850
18,042000	0,5	-0,151750
18,050333	0,5	-0,158250
18,058667	0,5	-0,185900
18,067000	0,5	-0,192650
18,075333	0,5	-0,202700
18,083667	0,5	-0,203100
18,092000	0,5	-0,210950
18,100333	0,5	-0,208500
18,108667	0,5	-0,196150
18,117000	0,5	-0,204850
18,125333	0,5	-0,172550
18,133667	0,5	-0,144850
18,142000	0,5	-0,104150
18,150333	0,5	-0,065450
18,158667	0,5	-0,029100
18,167000	0,5	0,011900
18,175333	0,5	0,031000
18,183667	0,5	0,017350
18,192000	0,5	-0,007400
18,200333	0,5	-0,036550
18,208667	0,5	-0,069950
18,217000	0,5	-0,095350
18,225333	0,5	-0,105250
18,233667	0,5	-0,127250
18,242000	0,5	-0,137400
18,250333	0,5	-0,141100
18,258667	0,5	-0,148150
18,267000	0,5	-0,166350
18,275333	0,5	-0,157750
18,283667	0,5	-0,149800
18,292000	0,5	-0,165950
18,300333	0,5	-0,162950
18,308667	0,5	-0,165400
18,317000	0,5	-0,122450
18,325333	0,5	-0,083850
18,333667	0,5	-0,034950
18,342000	0,5	0,005850
18,350333	0,5	0,035300
18,358667	0,5	0,031450
18,367000	0,5	0,012300
18,375333	0,5	-0,019300
18,383667	0,5	-0,056700
18,392000	0,5	-0,082600
18,400333	0,5	-0,088850
18,408667	0,5	-0,121000
18,417000	0,5	-0,126500
18,425333	0,5	-0,124150
18,433667	0,5	-0,134300
18,442000	0,5	-0,148000
18,450333	0,5	-0,175000
18,458667	0,5	-0,169900
18,467000	0,5	-0,167200
18,475333	0,5	-0,153350
18,483667	0,5	-0,143650
18,492000	0,5	-0,113750
18,500333	0,5	-0,089500
18,508667	0,5	-0,066650
18,517000	0,5	-0,053350
18,525333	0,5	-0,057600
18,533667	0,5	-0,077450
18,542000	0,5	-0,097300
18,550333	0,5	-0,125550
18,558667	0,5	-0,160000
18,567000	0,5	-0,169100
18,575333	0,5	-0,181450
18,583667	0,5	-0,198500
18,592000	0,5	-0,227050
18,600333	0,5	-0,252000
18,608667	0,5	-0,256950
18,617000	0,5	-0,249050
18,625333	0,5	-0,257250
18,633667	0,5	-0,248200
18,642000	0,5	-0,246250
18,650333	0,5	-0,238850
18,658667	0,5	-0,233200
18,667000	0,5	-0,211600
18,675333	0,5	-0,218500
18,683667	0,5	-0,223150
18,692000	0,5	-0,231650
18,700333	0,5	-0,244200
18,708667	0,5	-0,271000
18,717000	0,5	-0,279600
18,725333	0,5	-0,298950
18,733667	0,5	-0,314000
18,742000	0,5	-0,343800
18,750333	0,5	-0,363550
18,758667	0,5	-0,376400
18,767000	0,5	-0,369900
18,775333	0,5	-0,372700
18,783667	0,5	-0,379850
18,792000	0,5	-0,364800
18,800333	0,5	-0,352400
18,808667	0,5	-0,316000
18,817000	0,5	-0,287350
18,825333	0,5	-0,276000
18,833667	0,5	-0,265800
18,842000	0,5	-0,245350
18,850333	0,5	-0,258300
18,858667	0,5	-0,255150
18,867000	0,5	-0,240400
18,875333	0,5	-0,228350
18,883667	0,5	-0,241450
18,892000	0,5	-0,257050
18,900333	0,5	-0,261050
18,908667	0,5	-0,257850
18,917000	0,5	-0,239500
18,925333	0,5	-0,233550
18,933667	0,5	-0,213400
18,942000	0,5	-0,206150
18,950333	0,5	-0,202900
18,958667	0,5	-0,210250
18,967000	0,5	-0,226800
18,975333	0,5	-0,256300
18,983667	0,5	-0,258950
18,992000	0,5	-0,290950
19,000333	0,5	-0,316650
19,008667	0,5	-0,322500
19,017000	0,5	-0,326500
19,025333	0,5	-0,334200
19,033667	0,5	-0,340000
19,042000	0,5	-0,354200
19,050333	0,5	-0,340200
19,058667	0,5	-0,333150
19,067000	0,5	-0,338050
19,075333	0,5	-0,346600
19,083667	0,5	-0,352400
19,092000	0,5	-0,396050
19,100333	0,5	-0,421100
19,108667	0,5	-0,432600
19,117000	0,5	-0,462200
19,125333	0,5	-0,466850
19,133667	0,5	-0,463200
19,142000	0,5	-0,477250
19,150333	0,5	-0,480650
19,158667	0,5	-0,465200
19,167000	0,5	-0,460550
19,175333	0,5	-0,461500
19,183667	0,5	-0,490500
19,192000	0,5	-0,510800
19,200333	0,5	-0,502600
19,208667	0,5	-0,511350
19,217000	0,5	-0,531700
19,225333	0,5	-0,542300
19,233667	0,5	-0,565150
19,242000	0,5	-0,579050
19,250333	0,5	-0,582800
19,258667	0,5	-0,591600
19,267000	0,5	-0,597200
19,275333	0,5	-0,606850
19,283667	0,5	-0,597300
19,292000	0,5	-0,637450
19,300333	0,5	-0,627600
19,308667	0,5	-0,643050
19,317000	0,5	-0,656750
19,325333	0,5	-0,682450
19,333667	0,5	-0,716300
19,342000	0,5	-0,724400
19,350333	0,5	-0,724150
19,358667	0,5	-0,731550
19,367000	0,5	-0,727950
19,375333	0,5	-0,728050
19,383667	0,5	-0,735800
19,392000	0,5	-0,743700
19,400333	0,5	-0,757950
19,408667	0,5	-0,766150
19,417000	0,5	-0,784600
19,425333	0,5	-0,783250
19,433667	0,5	-0,785200
19,442000	0,5	-0,798550
19,450333	0,5	-0,787650
19,458667	0,5	-0,786400
19,467000	0,5	-0,804800
19,475333	0,5	-0,830350
19,483667	0,5	-0,850150
19,492000	0,5	-0,848950
19,500333	0,5	-0,853650
19,508667	0,5	-0,847000
19,517000	0,5	-0,859900
19,525333	0,5	-0,855550
19,533667	0,5	-0,861400
19,542000	0,5	-0,865000
19,550333	0,5	-0,857850
19,558667	0,5	-0,867200
19,567000	0,5	-0,862650
19,575333	0,5	-0,862850
19,583667	0,5	-0,871850
19,592000	0,5	-0,881400
19,600333	0,5	-0,883100
19,608667	0,5	-0,890950
19,617000	0,5	-0,901950
19,625333	0,5	-0,927500
19,633667	0,5	-0,942550
19,642000	0,5	-0,950750
19,650333	0,5	-0,954100
19,658667	0,5	-0,973250
19,667000	0,5	-0,976000
19,675333	0,5	-0,978900
19,683667	0,5	-0,980750
19,692000	0,5	-0,993850
19,700333	0,5	-1,005650
19,708667	0,5	-1,027150
19,717000	0,5	-1,018700
19,725333	0,5	-1,020650
19,733667	0,5	-1,028150
19,742000	0,5	-1,014350
19,750333	0,5	-1,016400
19,758667	0,5	-1,022800
19,767000	0,5	-1,050350
19,775333	0,5	-1,071550
19,783667	0,5	-1,074350
19,792000	0,5	-1,074850
19,800333	0,5	-1,098450
19,808667	0,5	-1,104400
19,817000	0,5	-1,115150
19,825333	0,5	-1,121150
19,833667	0,5	-1,144800
19,842000	0,5	-1,152600
19,850333	0,5	-1,163500
19,858667	0,5	-1,177600
19,867000	0,5	-1,185250
19,875333	0,5	-1,213400
19,883667	0,5	-1,227950
19,892000	0,5	-1,227550
19,900333	0,5	-1,245550
19,908667	0,5	-1,266050
19,917000	0,5	-1,292650
19,925333	0,5	-1,309200
19,933667	0,5	-1,306700
19,942000	0,5	-1,328550
19,950333	0,5	-1,333200
19,958667	0,5	-1,348750
19,967000	0,5	-1,353900
19,975333	0,5	-1,374150
19,983667	0,5	-1,372250
19,992000	0,5	-1,385300
20,000333	0,5	-1,404950
20,008667	0,5	-1,406800
20,017000	0,5	-1,407950
20,025333	0,5	-1,432350
20,033667	0,5	-1,428550
20,042000	0,5	-1,425150
20,050333	0,5	-1,439550
20,058667	0,5	-1,462050
20,067000	0,5	-1,509750
20,075333	0,5	-1,518050
20,083667	0,5	-1,534350
20,092000	0,5	-1,545400
20,100333	0,5	-1,567000
20,108667	0,5	-1,577000
20,117000	0,5	-1,595700
20,125333	0,5	-1,603800
20,133667	0,5	-1,617350
20,142000	0,5	-1,643350
20,150333	0,5	-1,653500
20,158667	0,5	-1,653750
20,167000	0,5	-1,683950
20,175333	0,5	-1,695850
20,183667	0,5	-1,708300
20,192000	0,5	-1,709150
20,200333	0,5	-1,727450
20,208667	0,5	-1,777550
20,217000	0,5	-1,783000
20,225333	0,5	-1,783250
20,233667	0,5	-1,782800
20,242000	0,5	-1,804050
20,250333	0,5	-1,812800
20,258667	0,5	-1,823600
20,267000	0,5	-1,839800
20,275333	0,5	-1,849500
20,283667	0,5	-1,850450
20,292000	0,5	-1,872250
20,300333	0,5	-1,882900
20,308667	0,5	-1,893150
20,317000	0,5	-1,915350
20,325333	0,5	-1,922750
20,333667	0,5	-1,923150
20,342000	0,5	-1,940550
20,350333	0,5	-1,951550
20,358667	0,5	-1,982250
20,367000	0,5	-1,996500
20,375333	0,5	-1,989100
20,383667	0,5	-2,012450
20,392000	0,5	-2,023800
20,400333	0,5	-2,044050
20,408667	0,5	-2,057200
20,417000	0,5	-2,083750
20,425333	0,5	-2,098700
20,433667	0,5	-2,124100
20,442000	0,5	-2,144200
20,450333	0,5	-2,153700
20,458667	0,5	-2,161900
20,467000	0,5	-2,195850
20,475333	0,5	-2,204350
20,483667	0,5	-2,218150
20,492000	0,5	-2,244700
20,500333	0,5	-2,280550
20,508667	0,5	-2,334400
20,517000	0,5	-2,334250
20,525333	0,5	-2,347200
20,533667	0,5	-2,350300
20,542000	0,5	-2,373250
20,550333	0,5	-2,389050
20,558667	0,5	-2,418050
20,567000	0,5	-2,440200
20,575333	0,5	-2,459500
20,583667	0,5	-2,478200
20,592000	0,5	-2,483050
20,600333	0,5	-2,470350
20,608667	0,5	-2,491950
20,617000	0,5	-2,513050
20,625333	0,5	-2,537000
20,633667	0,5	-2,572850
20,642000	0,5	-2,614150
20,650333	0,5	-2,679650
20,658667	0,5	-2,727600
20,667000	0,5	-2,753350
20,675333	0,5	-2,786300
20,683667	0,5	-2,820850
20,692000	0,5	-2,835950
20,700333	0,5	-2,868400
20,708667	0,5	-2,897600
20,717000	0,5	-2,927200
20,725333	0,5	-2,952600
20,733667	0,5	-2,983000
20,742000	0,5	-2,991400
20,750333	0,5	-2,992200
20,758667	0,5	-2,999950
20,767000	0,5	-3,007100
20,775333	0,5	-3,006150
20,783667	0,5	-3,017400
20,792000	0,5	-3,057300
20,800333	0,5	-3,103900
20,808667	0,5	-3,147900
20,817000	0,5	-3,191800
20,825333	0,5	-3,239050
20,833667	0,5	-3,288850
20,842000	0,5	-3,328800
20,850333	0,5	-3,373150
20,858667	0,5	-3,419150
20,867000	0,5	-3,442000
20,875333	0,5	-3,485800
20,883667	0,5	-3,514900
20,892000	0,5	-3,523750
20,900333	0,5	-3,534100
20,908667	0,5	-3,579500
20,917000	0,5	-3,616950
20,925333	0,5	-3,649800
20,933667	0,5	-3,673000
20,942000	0,5	-3,673600
20,950333	0,5	-3,757200
20,958667	0,5	-3,772000
20,967000	0,5	-3,793450
20,975333	0,5	-3,828550
20,983667	0,5	-3,862000
20,992000	0,5	-3,899700
21,000333	0,5	-3,943850
21,008667	0,5	-3,958250
21,017000	0,5	-4,000900
21,025333	0,5	-4,042000
21,033667	0,5	-4,044650
21,042000	0,5	-4,044100
21,050333	0,5	-4,075100
21,058667	0,5	-4,099850
21,067000	0,5	-4,117750
21,075333	0,5	-4,144650
21,083667	0,5	-4,182250
21,092000	0,5	-4,238450
21,100333	0,5	-4,259100
21,108667	0,5	-4,283800
21,117000	0,5	-4,321250
21,125333	0,5	-4,356700
21,133667	0,5	-4,377300
21,142000	0,5	-4,398100
21,150333	0,5	-4,426400
21,158667	0,5	-4,461650
21,167000	0,5	-4,485500
21,175333	0,5	-4,511200
21,183667	0,5	-4,507000
21,192000	0,5	-4,506500
21,200333	0,5	-4,540550
21,208667	0,5	-4,564200
21,217000	0,5	-4,590000
21,225333	0,5	-4,641300
21,233667	0,5	-4,689150
21,242000	0,5	-4,716550
21,250333	0,5	-4,721750
21,258667	0,5	-4,737550
21,267000	0,5	-4,758250
21,275333	0,5	-4,772750
21,283667	0,5	-4,784750
21,292000	0,5	-4,801050
21,300333	0,5	-4,815800
21,308667	0,5	-4,820250
21,317000	0,5	-4,844450
21,325333	0,5	-4,829750
21,333667	0,5	-4,807600
21,342000	0,5	-4,802100
21,350333	0,5	-4,812750
21,358667	0,5	-4,825400
21,367000	0,5	-4,849950
21,375333	0,5	-4,892000
21,383667	0,5	-4,949900
21,392000	0,5	-4,967850
21,400333	0,5	-4,989250
21,408667	0,5	-5,011000
21,417000	0,5	-5,041350
21,425333	0,5	-5,059150
21,433667	0,5	-5,088300
21,442000	0,5	-5,108500
21,450333	0,5	-5,110200
21,458667	0,5	-5,133600
21,467000	0,5	-5,150050
21,475333	0,5	-5,129850
21,483667	0,5	-5,127450
21,492000	0,5	-5,153450
21,500333	0,5	-5,158250
21,508667	0,5	-5,191600
21,517000	0,5	-5,210800
21,525333	0,5	-5,248050
21,533667	0,5	-5,292250
21,542000	0,5	-5,296150
21,550333	0,5	-5,299950
21,558667	0,5	-5,313900
21,567000	0,5	-5,324450
21,575333	0,5	-5,329300
21,583667	0,5	-5,357950
21,592000	0,5	-5,365900
21,600333	0,5	-5,381500
21,608667	0,5	-5,394650
21,617000	0,5	-5,400550
21,625333	0,5	-5,380600
21,633667	0,5	-5,387700
21,642000	0,5	-5,402600
21,650333	0,5	-5,404000
21,658667	0,5	-5,419400
21,667000	0,5	-5,430650
21,675333	0,5	-5,448550
21,683667	0,5	-5,457850
21,692000	0,5	-5,443800
21,700333	0,5	-5,437600
21,708667	0,5	-5,428150
21,717000	0,5	-5,413450
21,725333	0,5	-5,421950
21,733667	0,5	-5,425700
21,742000	0,5	-5,455550
21,750333	0,5	-5,465500
21,758667	0,5	-5,488400
21,767000	0,5	-5,477250
21,775333	0,5	-5,475100
21,783667	0,5	-5,476300
21,792000	0,5	-5,489900
21,800333	0,5	-5,497500
21,808667	0,5	-5,529850
21,817000	0,5	-5,558700
21,825333	0,5	-5,572400
21,833667	0,5	-5,595800
21,842000	0,5	-5,601950
21,850333	0,5	-5,601650
21,858667	0,5	-5,596600
21,867000	0,5	-5,600800
21,875333	0,5	-5,600550
21,883667	0,5	-5,612050
21,892000	0,5	-5,614550
21,900333	0,5	-5,630300
21,908667	0,5	-5,628850
21,917000	0,5	-5,622200
21,925333	0,5	-5,649350
21,933667	0,5	-5,663650
21,942000	0,5	-5,674400
21,950333	0,5	-5,695150
21,958667	0,5	-5,695200
21,967000	0,5	-5,700750
21,975333	0,5	-5,688650
21,983667	0,5	-5,685900
21,992000	0,5	-5,684300
22,000333	0,5	-5,708350
22,008667	0,5	-5,738100
22,017000	0,5	-5,785300
22,025333	0,5	-5,812250
22,033667	0,5	-5,841950
22,042000	0,5	-5,885600
22,050333	0,5	-5,907600
22,058667	0,5	-5,930200
22,067000	0,5	-5,958000
22,075333	0,5	-5,999900
22,083667	0,5	-5,994750
22,092000	0,5	-6,022500
22,100333	0,5	-6,045300
22,108667	0,5	-6,079200
22,117000	0,5	-6,115750
22,125333	0,5	-6,117750
22,133667	0,5	-6,135350
22,142000	0,5	-6,161050
22,150333	0,5	-6,180050
22,158667	0,5	-6,190100
22,167000	0,5	-6,210900
22,175333	0,5	-6,225700
22,183667	0,5	-6,235050
22,192000	0,5	-6,267100
22,200333	0,5	-6,274150
22,208667	0,5	-6,302450
22,217000	0,5	-6,343200
22,225333	0,5	-6,325850
22,233667	0,5	-6,341850
22,242000	0,5	-6,342000
22,250333	0,5	-6,371100
22,258667	0,5	-6,400450
22,267000	0,5	-6,397650
22,275333	0,5	-6,402550
22,283667	0,5	-6,407800
22,292000	0,5	-6,417800
22,300333	0,5	-6,413950
22,308667	0,5	-6,433300
22,317000	0,5	-6,428650
22,325333	0,5	-6,430850
22,333667	0,5	-6,422050
22,342000	0,5	-6,424100
22,350333	0,5	-6,441750
22,358667	0,5	-6,438250
22,367000	0,5	-6,433950
22,375333	0,5	-6,394800
22,383667	0,5	-6,367300
22,392000	0,5	-6,336000
22,400333	0,5	-6,307100
22,408667	0,5	-6,289950
22,417000	0,5	-6,267900
22,425333	0,5	-6,273700
22,433667	0,5	-6,311900
22,442000	0,5	-6,362650
22,450333	0,5	-6,403150
22,458667	0,5	-6,434700
22,467000	0,5	-6,453250
22,475333	0,5	-6,471200
22,483667	0,5	-6,495200
22,492000	0,5	-6,512350
22,500333	0,5	-6,586750
22,508667	0,5	-6,585000
22,517000	0,5	-6,573100
22,525333	0,5	-6,568250
22,533667	0,5	-6,589750
22,542000	0,5	-6,593200
22,550333	0,5	-6,623700
22,558667	0,5	-6,646850
22,567000	0,5	-6,644550
22,575333	0,5	-6,643800
22,583667	0,5	-6,653450
22,592000	0,5	-6,641600
22,600333	0,5	-6,643500
22,608667	0,5	-6,634150
22,617000	0,5	-6,628450
22,625333	0,5	-6,616850
22,633667	0,5	-6,589450
22,642000	0,5	-6,647500
22,650333	0,5	-6,629100
22,658667	0,5	-6,596550
22,667000	0,5	-6,557800
22,675333	0,5	-6,548600
22,683667	0,5	-6,563350
22,692000	0,5	-6,587800
22,700333	0,5	-6,619150
22,708667	0,5	-6,625700
22,717000	0,5	-6,653400
22,725333	0,5	-6,673850
22,733667	0,5	-6,690000
22,742000	0,5	-6,713750
22,750333	0,5	-6,736850
22,758667	0,5	-6,743100
22,767000	0,5	-6,761400
22,775333	0,5	-6,778100
22,783667	0,5	-6,794400
22,792000	0,5	-6,907750
22,800333	0,5	-6,899700
22,808667	0,5	-6,865800
22,817000	0,5	-6,871900
22,825333	0,5	-6,883950
22,833667	0,5	-6,897350
22,842000	0,5	-6,915500
22,850333	0,5	-6,917650
22,858667	0,5	-6,937300
22,867000	0,5	-6,950200
22,875333	0,5	-6,951550
22,883667	0,5	-6,941550
22,892000	0,5	-6,939350
22,900333	0,5	-6,946050
22,908667	0,5	-6,932100
22,917000	0,5	-6,917650
22,925333	0,5	-6,899200
22,933667	0,5	-6,863500
22,942000	0,5	-6,895950
22,950333	0,5	-6,842850
22,958667	0,5	-6,824200
22,967000	0,5	-6,830200
22,975333	0,5	-6,786250
22,983667	0,5	-6,759750
22,992000	0,5	-6,736200
23,000333	0,5	-6,713600
23,008667	0,5	-6,688200
23,017000	0,5	-6,646350
23,025333	0,5	-6,605450
23,033667	0,5	-6,565750
23,042000	0,5	-6,512850
23,050333	0,5	-6,458450
23,058667	0,5	-6,399700
23,067000	0,5	-6,327300
23,075333	0,5	-6,261250
23,083667	0,5	-6,158300
23,092000	0,5	-6,091450
23,100333	0,5	-6,013250
23,108667	0,5	-5,991750
23,117000	0,5	-5,932250
23,125333	0,5	-5,860550
23,133667	0,5	-5,777500
23,142000	0,5	-5,703350
23,150333	0,5	-5,661200
23,158667	0,5	-5,596250
23,167000	0,5	-5,526450
23,175333	0,5	-5,456700
23,183667	0,5	-5,380550
23,192000	0,5	-5,303550
23,200333	0,5	-5,228800
23,208667	0,5	-5,147050
23,217000	0,5	-5,067200
23,225333	0,5	-4,945100
23,233667	0,5	-4,894500
23,242000	0,5	-4,797050
23,250333	0,5	-4,701750
23,258667	0,5	-4,657650
23,267000	0,5	-4,591700
23,275333	0,5	-4,511300
23,283667	0,5	-4,434500
23,292000	0,5	-4,371850
23,300333	0,5	-4,321950
23,308667	0,5	-4,252550
23,317000	0,5	-4,197700
23,325333	0,5	-4,131650
23,333667	0,5	-4,071950
23,342000	0,5	-3,997900
23,350333	0,5	-3,937300
23,358667	0,5	-3,876850
23,367000	0,5	-3,809450
23,375333	0,5	-3,771850
23,383667	0,5	-3,710750
23,392000	0,5	-3,610300
23,400333	0,5	-3,538700
23,408667	0,5	-3,494600
23,417000	0,5	-3,442950
23,425333	0,5	-3,390150
23,433667	0,5	-3,327400
23,442000	0,5	-3,286800
23,450333	0,5	-3,251250
23,458667	0,5	-3,216100
23,467000	0,5	-3,169400
23,475333	0,5	-3,141300
23,483667	0,5	-3,096350
23,492000	0,5	-3,057850
23,500333	0,5	-3,021200
23,508667	0,5	-2,978850
23,517000	0,5	-2,934350
23,525333	0,5	-3,028850
23,533667	0,5	-2,943950
23,542000	0,5	-2,876050
23,550333	0,5	-2,813800
23,558667	0,5	-2,777250
23,567000	0,5	-2,744800
23,575333	0,5	-2,708550
23,583667	0,5	-2,677700
23,592000	0,5	-2,649800
23,600333	0,5	-2,632100
23,608667	0,5	-2,598900
23,617000	0,5	-2,570950
23,625333	0,5	-2,541250
23,633667	0,5	-2,516000
23,642000	0,5	-2,489900
23,650333	0,5	-2,461750
23,658667	0,5	-2,430900
23,667000	0,5	-2,478550
23,675333	0,5	-2,544950
23,683667	0,5	-2,483150
23,692000	0,5	-2,408050
23,700333	0,5	-2,355700
23,708667	0,5	-2,324350
23,717000	0,5	-2,299600
23,725333	0,5	-2,275900
23,733667	0,5	-2,257300
23,742000	0,5	-2,234850
23,750333	0,5	-2,208000
23,758667	0,5	-2,186850
23,767000	0,5	-2,165950
23,775333	0,5	-2,140650
23,783667	0,5	-2,116250
23,792000	0,5	-2,092800
23,800333	0,5	-2,066850
23,808667	0,5	-2,041600
23,817000	0,5	-2,189800
23,825333	0,5	-2,174300
23,833667	0,5	-2,116800
23,842000	0,5	-2,040150
23,850333	0,5	-1,983500
23,858667	0,5	-1,948350
23,867000	0,5	-1,922850
23,875333	0,5	-1,904150
23,883667	0,5	-1,877550
23,892000	0,5	-1,855150
23,900333	0,5	-1,829950
23,908667	0,5	-1,809850
23,917000	0,5	-1,783650
23,925333	0,5	-1,765200
23,933667	0,5	-1,739900
23,942000	0,5	-1,723500
23,950333	0,5	-1,696150
23,958667	0,5	-1,715100
23,967000	0,5	-1,845250
23,975333	0,5	-1,820950
23,983667	0,5	-1,748500
23,992000	0,5	-1,683150
24,000333	0,5	-1,638150
24,008667	0,5	-1,610350
24,017000	0,5	-1,586100
24,025333	0,5	-1,571050
24,033667	0,5	-1,538000
24,042000	0,5	-1,509850
24,050333	0,5	-1,484950
24,058667	0,5	-1,454350
24,067000	0,5	-1,430800
24,075333	0,5	-1,411550
24,083667	0,5	-1,389100
24,092000	0,5	-1,356400
24,100333	0,5	-1,340400
24,108667	0,5	-1,442600
24,117000	0,5	-1,466600
24,125333	0,5	-1,436750
24,133667	0,5	-1,365950
24,142000	0,5	-1,326650
24,150333	0,5	-1,297950
24,158667	0,5	-1,267850
24,167000	0,5	-1,269950
24,175333	0,5	-1,248950
24,183667	0,5	-1,219800
24,192000	0,5	-1,192300
24,200333	0,5	-1,174700
24,208667	0,5	-1,152800
24,217000	0,5	-1,132100
24,225333	0,5	-1,112900
24,233667	0,5	-1,089150
24,242000	0,5	-1,070250
24,250333	0,5	-1,052850
24,258667	0,5	-1,189500
24,267000	0,5	-1,146150
24,275333	0,5	-1,127150
24,283667	0,5	-1,058150
24,292000	0,5	-1,029000
24,300333	0,5	-0,995450
24,308667	0,5	-0,986700
24,317000	0,5	-0,984900
24,325333	0,5	-0,959650
24,333667	0,5	-0,932000
24,342000	0,5	-0,919750
24,350333	0,5	-0,902850
24,358667	0,5	-0,891500
24,367000	0,5	-0,879450
24,375333	0,5	-0,862550
24,383667	0,5	-0,844600
24,392000	0,5	-0,834100
24,400333	0,5	-0,857300
24,408667	0,5	-0,918950
24,417000	0,5	-0,892150
24,425333	0,5	-0,860750
24,433667	0,5	-0,821700
24,442000	0,5	-0,803350
24,450333	0,5	-0,788100
24,458667	0,5	-0,779900
24,467000	0,5	-0,780300
24,475333	0,5	-0,753600
24,483667	0,5	-0,742850
24,492000	0,5	-0,726650
24,500333	0,5	-0,713850
24,508667	0,5	-0,695000
24,517000	0,5	-0,683600
24,525333	0,5	-0,666100
24,533667	0,5	-0,649000
24,542000	0,5	-0,642150
24,550333	0,5	-0,705100
24,558667	0,5	-0,704900
24,567000	0,5	-0,685650
24,575333	0,5	-0,661450
24,583667	0,5	-0,636150
24,592000	0,5	-0,624900
24,600333	0,5	-0,616750
24,608667	0,5	-0,618400
24,617000	0,5	-0,613400
24,625333	0,5	-0,610800
24,633667	0,5	-0,596100
24,642000	0,5	-0,591200
24,650333	0,5	-0,577550
24,658667	0,5	-0,571950
24,667000	0,5	-0,560600
24,675333	0,5	-0,550300
24,683667	0,5	-0,539650
24,692000	0,5	-0,526950
24,700333	0,5	-0,577100
24,708667	0,5	-0,559450
24,717000	0,5	-0,547650
24,725333	0,5	-0,529750
24,733667	0,5	-0,509150
24,742000	0,5	-0,499650
24,750333	0,5	-0,504250
24,758667	0,5	-0,498400
24,767000	0,5	-0,494000
24,775333	0,5	-0,483250
24,783667	0,5	-0,480100
24,792000	0,5	-0,475250
24,800333	0,5	-0,474400
24,808667	0,5	-0,467750
24,817000	0,5	-0,466400
24,825333	0,5	-0,451300
24,833667	0,5	-0,450950
24,842000	0,5	-0,465900
24,850333	0,5	-0,478650
24,858667	0,5	-0,469800
24,867000	0,5	-0,455100
24,875333	0,5	-0,442200
24,883667	0,5	-0,431850
24,892000	0,5	-0,425800
24,900333	0,5	-0,422200
24,908667	0,5	-0,414700
24,917000	0,5	-0,409100
24,925333	0,5	-0,410000
24,933667	0,5	-0,401950
24,942000	0,5	-0,399300
24,950333	0,5	-0,395000
24,958667	0,5	-0,388800
24,967000	0,5	-0,385900
24,975333	0,5	-0,387150
24,983667	0,5	-0,384450
24,992000	0,5	-0,398650
25,000333	0,5	-0,400300
25,008667	0,5	-0,396200
25,017000	0,5	-0,388100
25,025333	0,5	-0,385400
25,033667	0,5	-0,381900
25,042000	0,5	-0,382500
25,050333	0,5	-0,391800
25,058667	0,5	-0,382950
25,067000	0,5	-0,381650
25,075333	0,5	-0,373700
25,083667	0,5	-0,373400
25,092000	0,5	-0,368050
25,100333	0,5	-0,367000
25,108667	0,5	-0,362300
25,117000	0,5	-0,354100
25,125333	0,5	-0,353850
25,133667	0,5	-0,353200
25,142000	0,5	-0,357700
25,150333	0,5	-0,353800
25,158667	0,5	-0,348650
25,167000	0,5	-0,351000
25,175333	0,5	-0,351050
25,183667	0,5	-0,351450
25,192000	0,5	-0,351300
25,200333	0,5	-0,353350
25,208667	0,5	-0,353950
25,217000	0,5	-0,353550
25,225333	0,5	-0,353350
25,233667	0,5	-0,355650
25,242000	0,5	-0,354650
25,250333	0,5	-0,353400
25,258667	0,5	-0,352700
25,267000	0,5	-0,351500
25,275333	0,5	-0,349500
25,283667	0,5	-0,348500
25,292000	0,5	-0,334050
25,300333	0,5	-0,333300
25,308667	0,5	-0,337550
25,317000	0,5	-0,341050
25,325333	0,5	-0,337900
25,333667	0,5	-0,337650
25,342000	0,5	-0,341300
25,350333	0,5	-0,335600
25,358667	0,5	-0,340650
25,367000	0,5	-0,345200
25,375333	0,5	-0,347700
25,383667	0,5	-0,344850
25,392000	0,5	-0,347800
25,400333	0,5	-0,354700
25,408667	0,5	-0,353550
25,417000	0,5	-0,353350
25,425333	0,5	-0,355300
25,433667	0,5	-0,343150
25,442000	0,5	-0,336700
25,450333	0,5	-0,335950
25,458667	0,5	-0,344800
25,467000	0,5	-0,349500
25,475333	0,5	-0,349750
25,483667	0,5	-0,346700
25,492000	0,5	-0,343950
25,500333	0,5	-0,339300
25,508667	0,5	-0,342550
25,517000	0,5	-0,344050
25,525333	0,5	-0,344800
25,533667	0,5	-0,346200
25,542000	0,5	-0,352050
25,550333	0,5	-0,350600
25,558667	0,5	-0,353800
25,567000	0,5	-0,354600
25,575333	0,5	-0,348450
25,583667	0,5	-0,346300
25,592000	0,5	-0,338100
25,600333	0,5	-0,340200
25,608667	0,5	-0,352150
25,617000	0,5	-0,355150
25,625333	0,5	-0,359600
25,633667	0,5	-0,356650
25,642000	0,5	-0,353350
25,650333	0,5	-0,350050
25,658667	0,5	-0,351800
25,667000	0,5	-0,354550
25,675333	0,5	-0,353800
25,683667	0,5	-0,358950
25,692000	0,5	-0,357250
25,700333	0,5	-0,359250
25,708667	0,5	-0,358400
25,717000	0,5	-0,356000
25,725333	0,5	-0,353450
25,733667	0,5	-0,340950
25,742000	0,5	-0,336050
25,750333	0,5	-0,341900
25,758667	0,5	-0,354050
25,767000	0,5	-0,355550
25,775333	0,5	-0,359950
25,783667	0,5	-0,350250
25,792000	0,5	-0,349050
25,800333	0,5	-0,356050
25,808667	0,5	-0,354150
25,817000	0,5	-0,353900
25,825333	0,5	-0,357000
25,833667	0,5	-0,355800
25,842000	0,5	-0,349950
25,850333	0,5	-0,347100
25,858667	0,5	-0,353450
25,867000	0,5	-0,349800
25,875333	0,5	-0,337550
25,883667	0,5	-0,335250
25,892000	0,5	-0,318850
25,900333	0,5	-0,336150
25,908667	0,5	-0,343200
25,917000	0,5	-0,338950
25,925333	0,5	-0,337250
25,933667	0,5	-0,326800
25,942000	0,5	-0,332600
25,950333	0,5	-0,337450
25,958667	0,5	-0,330700
25,967000	0,5	-0,333550
25,975333	0,5	-0,331750
25,983667	0,5	-0,333100
25,992000	0,5	-0,325200
26,000333	0,5	-0,327200
