File Path	chrom://chromeleon01/ikbm_chromeleon/2022/ICS-5000/ED1/Esteban/20220427_Cell_Amandas_mutants.seq/151.smp/ED_1.channel/ED_1.chm
Channel	ED_1

Injection Information:
Data Vault	ikbm_chromeleon
Injection	T24h_PASC_2b
Injection Number	42
Position	RE2
Comment	
Processing Method	Stop sequence after Cell Death
Instrument Method	ICS5000_PA200_FullNative_Ox_26min_ED1
Type	Unknown
Status	Finished
Injection Date	28.04.2022
Injection Time	08:30:44
Injection Volume (µl)	5,0
Dilution Factor	1,0000
Weight	1,0000

Chromatogram Data Information:
Time Min. (min)	0,000167
Time Max. (min)	26,000167
Data Points	3121
Detector	EDet1
Generating Data System	Chromeleon 7.2.9.11323
Exporting Data System	Chromeleon 7.2.9.0
Operator	Instrument Controller
Signal Quantity	
Signal Unit	nC
Signal Min.	-7,883200
Signal Max.	42,291401
Channel	ED_1
Driver Name	DC-5000
Channel Type	Evaluation
Min. Step (s)	0,5
Max. Step (s)	0,5
Average Step (s)	0,5

Signal Parameter Information:
Signal Info	

Chromatogram Data:
Time (min)	Step (s)	Value (nC)
0,000167	n.a.	0,016350
0,008500	0,5	-0,065200
0,016833	0,5	-0,061550
0,025167	0,5	-0,051400
0,033500	0,5	-0,031500
0,041833	0,5	-0,021100
0,050167	0,5	0,003200
0,058500	0,5	-0,009050
0,066833	0,5	-0,000050
0,075167	0,5	0,001450
0,083500	0,5	-0,000100
0,091833	0,5	-0,019800
0,100167	0,5	0,028850
0,108500	0,5	0,002250
0,116833	0,5	-0,007150
0,125167	0,5	-0,010350
0,133500	0,5	0,018250
0,141833	0,5	0,058200
0,150167	0,5	0,061250
0,158500	0,5	0,048800
0,166833	0,5	0,037750
0,175167	0,5	0,045050
0,183500	0,5	0,029950
0,191833	0,5	0,033450
0,200167	0,5	0,028500
0,208500	0,5	0,030700
0,216833	0,5	0,020850
0,225167	0,5	0,034700
0,233500	0,5	0,026150
0,241833	0,5	0,028550
0,250167	0,5	0,030650
0,258500	0,5	0,012650
0,266833	0,5	0,000500
0,275167	0,5	0,001600
0,283500	0,5	0,022950
0,291833	0,5	0,057650
0,300167	0,5	0,098700
0,308500	0,5	0,140050
0,316833	0,5	0,123450
0,325167	0,5	0,057350
0,333500	0,5	0,019000
0,341833	0,5	0,014900
0,350167	0,5	0,016850
0,358500	0,5	0,005050
0,366833	0,5	0,012150
0,375167	0,5	0,008600
0,383500	0,5	0,016650
0,391833	0,5	0,018150
0,400167	0,5	0,029300
0,408500	0,5	-0,000300
0,416833	0,5	0,001250
0,425167	0,5	-0,003500
0,433500	0,5	0,038550
0,441833	0,5	0,047550
0,450167	0,5	0,035750
0,458500	0,5	0,029050
0,466833	0,5	0,034200
0,475167	0,5	0,021650
0,483500	0,5	0,017550
0,491833	0,5	0,014100
0,500167	0,5	0,013600
0,508500	0,5	0,016300
0,516833	0,5	0,009600
0,525167	0,5	0,011950
0,533500	0,5	-0,003250
0,541833	0,5	0,034350
0,550167	0,5	0,008600
0,558500	0,5	-0,003250
0,566833	0,5	-0,005850
0,575167	0,5	0,011100
0,583500	0,5	0,048600
0,591833	0,5	0,053350
0,600167	0,5	0,045000
0,608500	0,5	0,054450
0,616833	0,5	0,043700
0,625167	0,5	0,043600
0,633500	0,5	0,035450
0,641833	0,5	0,037000
0,650167	0,5	0,025500
0,658500	0,5	0,032650
0,666833	0,5	0,040700
0,675167	0,5	0,014800
0,683500	0,5	0,013250
0,691833	0,5	0,043350
0,700167	0,5	0,021600
0,708500	0,5	0,021200
0,716833	0,5	0,028350
0,725167	0,5	0,039150
0,733500	0,5	0,076950
0,741833	0,5	0,056350
0,750167	0,5	0,059850
0,758500	0,5	0,048300
0,766833	0,5	0,059500
0,775167	0,5	0,044350
0,783500	0,5	0,061950
0,791833	0,5	0,053100
0,800167	0,5	0,063300
0,808500	0,5	0,063100
0,816833	0,5	0,066900
0,825167	0,5	0,057550
0,833500	0,5	0,071050
0,841833	0,5	0,081750
0,850167	0,5	0,062700
0,858500	0,5	0,056950
0,866833	0,5	0,065150
0,875167	0,5	0,092700
0,883500	0,5	0,116950
0,891833	0,5	0,100300
0,900167	0,5	0,099000
0,908500	0,5	0,116250
0,916833	0,5	0,101750
0,925167	0,5	0,101950
0,933500	0,5	0,095950
0,941833	0,5	0,098650
0,950167	0,5	0,097350
0,958500	0,5	0,106700
0,966833	0,5	0,124400
0,975167	0,5	0,115500
0,983500	0,5	0,133100
0,991833	0,5	0,128000
1,000167	0,5	0,120750
1,008500	0,5	0,115800
1,016833	0,5	0,125450
1,025167	0,5	0,159800
1,033500	0,5	0,175250
1,041833	0,5	0,150850
1,050167	0,5	0,156300
1,058500	0,5	0,149050
1,066833	0,5	0,153700
1,075167	0,5	0,152350
1,083500	0,5	0,166200
1,091833	0,5	0,157450
1,100167	0,5	0,168850
1,108500	0,5	0,174400
1,116833	0,5	0,179750
1,125167	0,5	0,164000
1,133500	0,5	0,197700
1,141833	0,5	0,163400
1,150167	0,5	0,173150
1,158500	0,5	0,172850
1,166833	0,5	0,197150
1,175167	0,5	0,231500
1,183500	0,5	0,235750
1,191833	0,5	0,225650
1,200167	0,5	0,241500
1,208500	0,5	0,241100
1,216833	0,5	0,231450
1,225167	0,5	0,236250
1,233500	0,5	0,237450
1,241833	0,5	0,241900
1,250167	0,5	0,240900
1,258500	0,5	0,256550
1,266833	0,5	0,243450
1,275167	0,5	0,260000
1,283500	0,5	0,272850
1,291833	0,5	0,258750
1,300167	0,5	0,267950
1,308500	0,5	0,277500
1,316833	0,5	0,305150
1,325167	0,5	0,347350
1,333500	0,5	0,345650
1,341833	0,5	0,343350
1,350167	0,5	0,343800
1,358500	0,5	0,353450
1,366833	0,5	0,347500
1,375167	0,5	0,361150
1,383500	0,5	0,365200
1,391833	0,5	0,368750
1,400167	0,5	0,391550
1,408500	0,5	0,389950
1,416833	0,5	0,393600
1,425167	0,5	0,406800
1,433500	0,5	0,408150
1,441833	0,5	0,397350
1,450167	0,5	0,413900
1,458500	0,5	0,417150
1,466833	0,5	0,463550
1,475167	0,5	0,487600
1,483500	0,5	0,490200
1,491833	0,5	0,484650
1,500167	0,5	0,504950
1,508500	0,5	0,495400
1,516833	0,5	0,502200
1,525167	0,5	0,510750
1,533500	0,5	0,511450
1,541833	0,5	0,508400
1,550167	0,5	0,518850
1,558500	0,5	0,538600
1,566833	0,5	0,545900
1,575167	0,5	0,551600
1,583500	0,5	0,270900
1,591833	0,5	-0,628750
1,600167	0,5	-1,579550
1,608500	0,5	-1,020050
1,616833	0,5	1,139800
1,625167	0,5	3,489700
1,633500	0,5	5,945550
1,641833	0,5	8,801450
1,650167	0,5	11,176200
1,658500	0,5	12,137000
1,666833	0,5	11,819350
1,675167	0,5	10,948800
1,683500	0,5	9,920950
1,691833	0,5	8,926700
1,700167	0,5	8,031900
1,708500	0,5	7,211950
1,716833	0,5	6,530050
1,725167	0,5	5,993250
1,733500	0,5	5,506650
1,741833	0,5	5,058700
1,750167	0,5	4,619650
1,758500	0,5	4,246100
1,766833	0,5	4,006500
1,775167	0,5	3,978700
1,783500	0,5	4,543850
1,791833	0,5	6,269050
1,800167	0,5	9,473400
1,808500	0,5	12,992000
1,816833	0,5	15,265150
1,825167	0,5	15,841400
1,833500	0,5	14,784600
1,841833	0,5	12,700850
1,850167	0,5	10,623800
1,858500	0,5	8,994650
1,866833	0,5	7,867000
1,875167	0,5	7,041050
1,883500	0,5	6,421300
1,891833	0,5	5,920100
1,900167	0,5	5,520200
1,908500	0,5	5,195200
1,916833	0,5	4,919700
1,925167	0,5	4,664200
1,933500	0,5	4,466750
1,941833	0,5	4,327250
1,950167	0,5	4,230150
1,958500	0,5	4,176150
1,966833	0,5	4,126850
1,975167	0,5	4,105800
1,983500	0,5	4,114000
1,991833	0,5	4,168700
2,000167	0,5	4,234800
2,008500	0,5	4,278750
2,016833	0,5	4,382750
2,025167	0,5	4,483050
2,033500	0,5	4,736850
2,041833	0,5	5,298050
2,050167	0,5	6,068450
2,058500	0,5	6,796100
2,066833	0,5	7,389150
2,075167	0,5	7,988850
2,083500	0,5	8,492950
2,091833	0,5	8,742350
2,100167	0,5	8,808550
2,108500	0,5	8,795100
2,116833	0,5	8,799150
2,125167	0,5	8,857200
2,133500	0,5	9,099200
2,141833	0,5	9,607200
2,150167	0,5	10,625600
2,158500	0,5	12,330600
2,166833	0,5	14,136750
2,175167	0,5	14,533900
2,183500	0,5	13,353450
2,191833	0,5	11,669600
2,200167	0,5	10,393000
2,208500	0,5	9,571600
2,216833	0,5	9,018200
2,225167	0,5	8,624950
2,233500	0,5	8,366400
2,241833	0,5	8,179900
2,250167	0,5	8,059750
2,258500	0,5	7,978900
2,266833	0,5	7,922100
2,275167	0,5	7,899550
2,283500	0,5	7,900800
2,291833	0,5	7,923450
2,300167	0,5	7,919600
2,308500	0,5	7,954100
2,316833	0,5	8,000750
2,325167	0,5	8,031450
2,333500	0,5	8,084150
2,341833	0,5	8,151250
2,350167	0,5	8,236500
2,358500	0,5	8,337400
2,366833	0,5	8,398350
2,375167	0,5	8,478000
2,383500	0,5	8,547400
2,391833	0,5	8,630600
2,400167	0,5	8,702850
2,408500	0,5	8,790450
2,416833	0,5	8,864150
2,425167	0,5	8,953850
2,433500	0,5	9,052700
2,441833	0,5	9,079750
2,450167	0,5	9,032900
2,458500	0,5	8,983150
2,466833	0,5	8,982600
2,475167	0,5	9,025750
2,483500	0,5	9,106550
2,491833	0,5	9,185700
2,500167	0,5	9,283000
2,508500	0,5	9,349450
2,516833	0,5	9,403600
2,525167	0,5	9,442700
2,533500	0,5	9,490750
2,541833	0,5	9,522350
2,550167	0,5	9,587500
2,558500	0,5	9,688400
2,566833	0,5	9,859550
2,575167	0,5	10,129750
2,583500	0,5	10,581300
2,591833	0,5	11,353400
2,600167	0,5	12,704500
2,608500	0,5	14,906050
2,616833	0,5	17,993050
2,625167	0,5	21,586650
2,633500	0,5	24,953500
2,641833	0,5	27,418050
2,650167	0,5	28,643700
2,658500	0,5	28,559250
2,666833	0,5	27,307900
2,675167	0,5	25,289700
2,683500	0,5	22,951950
2,691833	0,5	20,774750
2,700167	0,5	19,001650
2,708500	0,5	17,790300
2,716833	0,5	17,209650
2,725167	0,5	17,429650
2,733500	0,5	18,606350
2,741833	0,5	20,855050
2,750167	0,5	24,220350
2,758500	0,5	28,599000
2,766833	0,5	33,600151
2,775167	0,5	38,347501
2,783500	0,5	41,561201
2,791833	0,5	42,291401
2,800167	0,5	40,405051
2,808500	0,5	36,620951
2,816833	0,5	32,040600
2,825167	0,5	27,610250
2,833500	0,5	23,943400
2,841833	0,5	21,343150
2,850167	0,5	20,038200
2,858500	0,5	20,204900
2,866833	0,5	21,880100
2,875167	0,5	24,468450
2,883500	0,5	26,739550
2,891833	0,5	27,460300
2,900167	0,5	26,307100
2,908500	0,5	23,720500
2,916833	0,5	20,620600
2,925167	0,5	17,679200
2,933500	0,5	15,214300
2,941833	0,5	13,264250
2,950167	0,5	11,719800
2,958500	0,5	10,503200
2,966833	0,5	9,559600
2,975167	0,5	8,805150
2,983500	0,5	8,198950
2,991833	0,5	7,692850
3,000167	0,5	7,266400
3,008500	0,5	6,890100
3,016833	0,5	6,556150
3,025167	0,5	6,269500
3,033500	0,5	5,999000
3,041833	0,5	5,756200
3,050167	0,5	5,556850
3,058500	0,5	5,343500
3,066833	0,5	5,150400
3,075167	0,5	4,973200
3,083500	0,5	4,817850
3,091833	0,5	4,700350
3,100167	0,5	4,531500
3,108500	0,5	4,365400
3,116833	0,5	4,206200
3,125167	0,5	4,066550
3,133500	0,5	3,933300
3,141833	0,5	3,833150
3,150167	0,5	3,743700
3,158500	0,5	3,675650
3,166833	0,5	3,643300
3,175167	0,5	3,627500
3,183500	0,5	3,660000
3,191833	0,5	3,727650
3,200167	0,5	3,902900
3,208500	0,5	4,176000
3,216833	0,5	4,734100
3,225167	0,5	5,655850
3,233500	0,5	7,001550
3,241833	0,5	8,599750
3,250167	0,5	10,054700
3,258500	0,5	10,996050
3,266833	0,5	11,162700
3,275167	0,5	10,510650
3,283500	0,5	9,320550
3,291833	0,5	7,895950
3,300167	0,5	6,547100
3,308500	0,5	5,413500
3,316833	0,5	4,547950
3,325167	0,5	3,917800
3,333500	0,5	3,437250
3,341833	0,5	3,085300
3,350167	0,5	2,818150
3,358500	0,5	2,574550
3,366833	0,5	2,389900
3,375167	0,5	2,243450
3,383500	0,5	2,132750
3,391833	0,5	2,048700
3,400167	0,5	1,942800
3,408500	0,5	1,860500
3,416833	0,5	1,779000
3,425167	0,5	1,709750
3,433500	0,5	1,637350
3,441833	0,5	1,583350
3,450167	0,5	1,520300
3,458500	0,5	1,469950
3,466833	0,5	1,421150
3,475167	0,5	1,360000
3,483500	0,5	1,309100
3,491833	0,5	1,278050
3,500167	0,5	1,235550
3,508500	0,5	1,187600
3,516833	0,5	1,154000
3,525167	0,5	1,128000
3,533500	0,5	1,124850
3,541833	0,5	1,097250
3,550167	0,5	1,074100
3,558500	0,5	1,034850
3,566833	0,5	1,016200
3,575167	0,5	0,978250
3,583500	0,5	0,956350
3,591833	0,5	0,924000
3,600167	0,5	0,903950
3,608500	0,5	0,874650
3,616833	0,5	0,856400
3,625167	0,5	0,822100
3,633500	0,5	0,807600
3,641833	0,5	0,793050
3,650167	0,5	0,771800
3,658500	0,5	0,738250
3,666833	0,5	0,725550
3,675167	0,5	0,724950
3,683500	0,5	0,727500
3,691833	0,5	0,717100
3,700167	0,5	0,697450
3,708500	0,5	0,686100
3,716833	0,5	0,665450
3,725167	0,5	0,652300
3,733500	0,5	0,636800
3,741833	0,5	0,624700
3,750167	0,5	0,608750
3,758500	0,5	0,607950
3,766833	0,5	0,602250
3,775167	0,5	0,588750
3,783500	0,5	0,592550
3,791833	0,5	0,588700
3,800167	0,5	0,576950
3,808500	0,5	0,569200
3,816833	0,5	0,574300
3,825167	0,5	0,596450
3,833500	0,5	0,594050
3,841833	0,5	0,578250
3,850167	0,5	0,569600
3,858500	0,5	0,564850
3,866833	0,5	0,550850
3,875167	0,5	0,540500
3,883500	0,5	0,536550
3,891833	0,5	0,523750
3,900167	0,5	0,528200
3,908500	0,5	0,516850
3,916833	0,5	0,514400
3,925167	0,5	0,490500
3,933500	0,5	0,516450
3,941833	0,5	0,502650
3,950167	0,5	0,496700
3,958500	0,5	0,488000
3,966833	0,5	0,495050
3,975167	0,5	0,519550
3,983500	0,5	0,513750
3,991833	0,5	0,497450
4,000167	0,5	0,504550
4,008500	0,5	0,502350
4,016833	0,5	0,500350
4,025167	0,5	0,493600
4,033500	0,5	0,493000
4,041833	0,5	0,489000
4,050167	0,5	0,491250
4,058500	0,5	0,494300
4,066833	0,5	0,479050
4,075167	0,5	0,470100
4,083500	0,5	0,488400
4,091833	0,5	0,472700
4,100167	0,5	0,466400
4,108500	0,5	0,469550
4,116833	0,5	0,476750
4,125167	0,5	0,512400
4,133500	0,5	0,498850
4,141833	0,5	0,498550
4,150167	0,5	0,498700
4,158500	0,5	0,500400
4,166833	0,5	0,491300
4,175167	0,5	0,496300
4,183500	0,5	0,494550
4,191833	0,5	0,493000
4,200167	0,5	0,497200
4,208500	0,5	0,497250
4,216833	0,5	0,490750
4,225167	0,5	0,493150
4,233500	0,5	0,506700
4,241833	0,5	0,490100
4,250167	0,5	0,497150
4,258500	0,5	0,505250
4,266833	0,5	0,526650
4,275167	0,5	0,546400
4,283500	0,5	0,541550
4,291833	0,5	0,537200
4,300167	0,5	0,553650
4,308500	0,5	0,546550
4,316833	0,5	0,553350
4,325167	0,5	0,550900
4,333500	0,5	0,560750
4,341833	0,5	0,557000
4,350167	0,5	0,569600
4,358500	0,5	0,577950
4,366833	0,5	0,580500
4,375167	0,5	0,595750
4,383500	0,5	0,605400
4,391833	0,5	0,601750
4,400167	0,5	0,609800
4,408500	0,5	0,632300
4,416833	0,5	0,663250
4,425167	0,5	0,695500
4,433500	0,5	0,696250
4,441833	0,5	0,711550
4,450167	0,5	0,714650
4,458500	0,5	0,724100
4,466833	0,5	0,729150
4,475167	0,5	0,750950
4,483500	0,5	0,748850
4,491833	0,5	0,758200
4,500167	0,5	0,759850
4,508500	0,5	0,763950
4,516833	0,5	0,752500
4,525167	0,5	0,764700
4,533500	0,5	0,749500
4,541833	0,5	0,747850
4,550167	0,5	0,742400
4,558500	0,5	0,759250
4,566833	0,5	0,776100
4,575167	0,5	0,782950
4,583500	0,5	0,786100
4,591833	0,5	0,784500
4,600167	0,5	0,788300
4,608500	0,5	0,787500
4,616833	0,5	0,799350
4,625167	0,5	0,798500
4,633500	0,5	0,803550
4,641833	0,5	0,805200
4,650167	0,5	0,813500
4,658500	0,5	0,802050
4,666833	0,5	0,815700
4,675167	0,5	0,832500
4,683500	0,5	0,835850
4,691833	0,5	0,838550
4,700167	0,5	0,855250
4,708500	0,5	0,889050
4,716833	0,5	0,917000
4,725167	0,5	0,917950
4,733500	0,5	0,919950
4,741833	0,5	0,924700
4,750167	0,5	0,926050
4,758500	0,5	0,929000
4,766833	0,5	0,929900
4,775167	0,5	0,942950
4,783500	0,5	0,942750
4,791833	0,5	0,953400
4,800167	0,5	0,958200
4,808500	0,5	0,958700
4,816833	0,5	0,980550
4,825167	0,5	0,984900
4,833500	0,5	0,974400
4,841833	0,5	0,979800
4,850167	0,5	0,989300
4,858500	0,5	1,023300
4,866833	0,5	1,036450
4,875167	0,5	1,038200
4,883500	0,5	1,041300
4,891833	0,5	1,054700
4,900167	0,5	1,054900
4,908500	0,5	1,071100
4,916833	0,5	1,083850
4,925167	0,5	1,085250
4,933500	0,5	1,088200
4,941833	0,5	1,098700
4,950167	0,5	1,107450
4,958500	0,5	1,104500
4,966833	0,5	1,137450
4,975167	0,5	1,129800
4,983500	0,5	1,137900
4,991833	0,5	1,143950
5,000167	0,5	1,158600
5,008500	0,5	1,196050
5,016833	0,5	1,203700
5,025167	0,5	1,200400
5,033500	0,5	1,212400
5,041833	0,5	1,216150
5,050167	0,5	1,222450
5,058500	0,5	1,230650
5,066833	0,5	1,240950
5,075167	0,5	1,244650
5,083500	0,5	1,256900
5,091833	0,5	1,278850
5,100167	0,5	1,290150
5,108500	0,5	1,309650
5,116833	0,5	1,353850
5,125167	0,5	1,358050
5,133500	0,5	1,378000
5,141833	0,5	1,402900
5,150167	0,5	1,429150
5,158500	0,5	1,465150
5,166833	0,5	1,458900
5,175167	0,5	1,458850
5,183500	0,5	1,443800
5,191833	0,5	1,436150
5,200167	0,5	1,418850
5,208500	0,5	1,414750
5,216833	0,5	1,403900
5,225167	0,5	1,388250
5,233500	0,5	1,384300
5,241833	0,5	1,376800
5,250167	0,5	1,359400
5,258500	0,5	1,363650
5,266833	0,5	1,363650
5,275167	0,5	1,357000
5,283500	0,5	1,351550
5,291833	0,5	1,364650
5,300167	0,5	1,384650
5,308500	0,5	1,403900
5,316833	0,5	1,404850
5,325167	0,5	1,396450
5,333500	0,5	1,406500
5,341833	0,5	1,405150
5,350167	0,5	1,405250
5,358500	0,5	1,408800
5,366833	0,5	1,412550
5,375167	0,5	1,406950
5,383500	0,5	1,416650
5,391833	0,5	1,417400
5,400167	0,5	1,414300
5,408500	0,5	1,419550
5,416833	0,5	1,423950
5,425167	0,5	1,418850
5,433500	0,5	1,422150
5,441833	0,5	1,425650
5,450167	0,5	1,446000
5,458500	0,5	1,462400
5,466833	0,5	1,456350
5,475167	0,5	1,455050
5,483500	0,5	1,457800
5,491833	0,5	1,456700
5,500167	0,5	1,456200
5,508500	0,5	1,458100
5,516833	0,5	1,454650
5,525167	0,5	1,457300
5,533500	0,5	1,453650
5,541833	0,5	1,457000
5,550167	0,5	1,449250
5,558500	0,5	1,459050
5,566833	0,5	1,445050
5,575167	0,5	1,444750
5,583500	0,5	1,436950
5,591833	0,5	1,452500
5,600167	0,5	1,465700
5,608500	0,5	1,469450
5,616833	0,5	1,462450
5,625167	0,5	1,467450
5,633500	0,5	1,455350
5,641833	0,5	1,451300
5,650167	0,5	1,450550
5,658500	0,5	1,443500
5,666833	0,5	1,442900
5,675167	0,5	1,436550
5,683500	0,5	1,435650
5,691833	0,5	1,420000
5,700167	0,5	1,420050
5,708500	0,5	1,415350
5,716833	0,5	1,401200
5,725167	0,5	1,396000
5,733500	0,5	1,392350
5,741833	0,5	1,396150
5,750167	0,5	1,405400
5,758500	0,5	1,394250
5,766833	0,5	1,392450
5,775167	0,5	1,375800
5,783500	0,5	1,370150
5,791833	0,5	1,356400
5,800167	0,5	1,349050
5,808500	0,5	1,333950
5,816833	0,5	1,320900
5,825167	0,5	1,322150
5,833500	0,5	1,307450
5,841833	0,5	1,298600
5,850167	0,5	1,299100
5,858500	0,5	1,281250
5,866833	0,5	1,266900
5,875167	0,5	1,257550
5,883500	0,5	1,249300
5,891833	0,5	1,267500
5,900167	0,5	1,258300
5,908500	0,5	1,258600
5,916833	0,5	1,241350
5,925167	0,5	1,244050
5,933500	0,5	1,224600
5,941833	0,5	1,223450
5,950167	0,5	1,214200
5,958500	0,5	1,203750
5,966833	0,5	1,193450
5,975167	0,5	1,189500
5,983500	0,5	1,186700
5,991833	0,5	1,177850
6,000167	0,5	1,181750
6,008500	0,5	1,165050
6,016833	0,5	1,150650
6,025167	0,5	1,142350
6,033500	0,5	1,144250
6,041833	0,5	1,154550
6,050167	0,5	1,149350
6,058500	0,5	1,134900
6,066833	0,5	1,134000
6,075167	0,5	1,127150
6,083500	0,5	1,120050
6,091833	0,5	1,111250
6,100167	0,5	1,104500
6,108500	0,5	1,100300
6,116833	0,5	1,096700
6,125167	0,5	1,099650
6,133500	0,5	1,090500
6,141833	0,5	1,081500
6,150167	0,5	1,091200
6,158500	0,5	1,073150
6,166833	0,5	1,068350
6,175167	0,5	1,065200
6,183500	0,5	1,067150
6,191833	0,5	1,077900
6,200167	0,5	1,067000
6,208500	0,5	1,066300
6,216833	0,5	1,063850
6,225167	0,5	1,059650
6,233500	0,5	1,055600
6,241833	0,5	1,054200
6,250167	0,5	1,050900
6,258500	0,5	1,048400
6,266833	0,5	1,045250
6,275167	0,5	1,040500
6,283500	0,5	1,032650
6,291833	0,5	1,037550
6,300167	0,5	1,033000
6,308500	0,5	1,030600
6,316833	0,5	1,025350
6,325167	0,5	1,031450
6,333500	0,5	1,053750
6,341833	0,5	1,059650
6,350167	0,5	1,057350
6,358500	0,5	1,055450
6,366833	0,5	1,057600
6,375167	0,5	1,056200
6,383500	0,5	1,057900
6,391833	0,5	1,058200
6,400167	0,5	1,062800
6,408500	0,5	1,058450
6,416833	0,5	1,068400
6,425167	0,5	1,070050
6,433500	0,5	1,079050
6,441833	0,5	1,087650
6,450167	0,5	1,084400
6,458500	0,5	1,083950
6,466833	0,5	1,088050
6,475167	0,5	1,095950
6,483500	0,5	1,117900
6,491833	0,5	1,130850
6,500167	0,5	1,130300
6,508500	0,5	1,134000
6,516833	0,5	1,141000
6,525167	0,5	1,144550
6,533500	0,5	1,154150
6,541833	0,5	1,157750
6,550167	0,5	1,165800
6,558500	0,5	1,174850
6,566833	0,5	1,177850
6,575167	0,5	1,193500
6,583500	0,5	1,196850
6,591833	0,5	1,210450
6,600167	0,5	1,207850
6,608500	0,5	1,216500
6,616833	0,5	1,221350
6,625167	0,5	1,243300
6,633500	0,5	1,266700
6,641833	0,5	1,276900
6,650167	0,5	1,277550
6,658500	0,5	1,281800
6,666833	0,5	1,287500
6,675167	0,5	1,294850
6,683500	0,5	1,302000
6,691833	0,5	1,309900
6,700167	0,5	1,311550
6,708500	0,5	1,319300
6,716833	0,5	1,332000
6,725167	0,5	1,333650
6,733500	0,5	1,351900
6,741833	0,5	1,360300
6,750167	0,5	1,357100
6,758500	0,5	1,368950
6,766833	0,5	1,375800
6,775167	0,5	1,393850
6,783500	0,5	1,409600
6,791833	0,5	1,410450
6,800167	0,5	1,422600
6,808500	0,5	1,423050
6,816833	0,5	1,431300
6,825167	0,5	1,432850
6,833500	0,5	1,436900
6,841833	0,5	1,444600
6,850167	0,5	1,449600
6,858500	0,5	1,458200
6,866833	0,5	1,461050
6,875167	0,5	1,464250
6,883500	0,5	1,479150
6,891833	0,5	1,481000
6,900167	0,5	1,483350
6,908500	0,5	1,491900
6,916833	0,5	1,498650
6,925167	0,5	1,525900
6,933500	0,5	1,531750
6,941833	0,5	1,539600
6,950167	0,5	1,539850
6,958500	0,5	1,551800
6,966833	0,5	1,554850
6,975167	0,5	1,557900
6,983500	0,5	1,561550
6,991833	0,5	1,570050
7,000167	0,5	1,565450
7,008500	0,5	1,576700
7,016833	0,5	1,572700
7,025167	0,5	1,578800
7,033500	0,5	1,593750
7,041833	0,5	1,591650
7,050167	0,5	1,591400
7,058500	0,5	1,597500
7,066833	0,5	1,610900
7,075167	0,5	1,629050
7,083500	0,5	1,637800
7,091833	0,5	1,639550
7,100167	0,5	1,653050
7,108500	0,5	1,657250
7,116833	0,5	1,667150
7,125167	0,5	1,680550
7,133500	0,5	1,692250
7,141833	0,5	1,705350
7,150167	0,5	1,722050
7,158500	0,5	1,744850
7,166833	0,5	1,757250
7,175167	0,5	1,777950
7,183500	0,5	1,800650
7,191833	0,5	1,818900
7,200167	0,5	1,842950
7,208500	0,5	1,890150
7,216833	0,5	1,952900
7,225167	0,5	2,047250
7,233500	0,5	2,143000
7,241833	0,5	2,280800
7,250167	0,5	2,431550
7,258500	0,5	2,595750
7,266833	0,5	2,754050
7,275167	0,5	2,907950
7,283500	0,5	3,010850
7,291833	0,5	3,081350
7,300167	0,5	3,095850
7,308500	0,5	3,070350
7,316833	0,5	2,996000
7,325167	0,5	2,916900
7,333500	0,5	2,813950
7,341833	0,5	2,715850
7,350167	0,5	2,626250
7,358500	0,5	2,555250
7,366833	0,5	2,497500
7,375167	0,5	2,438650
7,383500	0,5	2,373700
7,391833	0,5	2,319750
7,400167	0,5	2,271550
7,408500	0,5	2,229350
7,416833	0,5	2,182850
7,425167	0,5	2,146500
7,433500	0,5	2,113900
7,441833	0,5	2,087600
7,450167	0,5	2,068350
7,458500	0,5	2,037900
7,466833	0,5	2,015600
7,475167	0,5	2,003100
7,483500	0,5	1,983950
7,491833	0,5	1,972050
7,500167	0,5	1,958300
7,508500	0,5	1,949000
7,516833	0,5	1,955300
7,525167	0,5	1,950200
7,533500	0,5	1,941600
7,541833	0,5	1,928850
7,550167	0,5	1,926000
7,558500	0,5	1,915600
7,566833	0,5	1,914850
7,575167	0,5	1,906200
7,583500	0,5	1,899200
7,591833	0,5	1,891650
7,600167	0,5	1,892250
7,608500	0,5	1,888550
7,616833	0,5	1,883350
7,625167	0,5	1,888000
7,633500	0,5	1,880700
7,641833	0,5	1,882950
7,650167	0,5	1,884800
7,658500	0,5	1,899200
7,666833	0,5	1,916200
7,675167	0,5	1,918650
7,683500	0,5	1,907950
7,691833	0,5	1,909750
7,700167	0,5	1,900650
7,708500	0,5	1,899150
7,716833	0,5	1,896700
7,725167	0,5	1,893250
7,733500	0,5	1,894100
7,741833	0,5	1,893200
7,750167	0,5	1,892850
7,758500	0,5	1,891100
7,766833	0,5	1,896750
7,775167	0,5	1,896600
7,783500	0,5	1,895250
7,791833	0,5	1,896650
7,800167	0,5	1,895950
7,808500	0,5	1,906750
7,816833	0,5	1,912900
7,825167	0,5	1,917500
7,833500	0,5	1,928100
7,841833	0,5	1,943550
7,850167	0,5	1,969950
7,858500	0,5	1,999550
7,866833	0,5	2,037350
7,875167	0,5	2,070150
7,883500	0,5	2,086550
7,891833	0,5	2,088050
7,900167	0,5	2,065600
7,908500	0,5	2,028900
7,916833	0,5	2,002600
7,925167	0,5	1,972250
7,933500	0,5	1,954150
7,941833	0,5	1,949650
7,950167	0,5	1,950250
7,958500	0,5	1,969300
7,966833	0,5	1,981600
7,975167	0,5	1,989950
7,983500	0,5	2,007450
7,991833	0,5	2,015700
8,000167	0,5	2,035750
8,008500	0,5	2,061000
8,016833	0,5	2,094250
8,025167	0,5	2,133000
8,033500	0,5	2,160100
8,041833	0,5	2,177950
8,050167	0,5	2,176300
8,058500	0,5	2,168750
8,066833	0,5	2,163650
8,075167	0,5	2,150950
8,083500	0,5	2,144900
8,091833	0,5	2,145250
8,100167	0,5	2,143900
8,108500	0,5	2,150850
8,116833	0,5	2,150750
8,125167	0,5	2,153700
8,133500	0,5	2,154600
8,141833	0,5	2,169450
8,150167	0,5	2,192700
8,158500	0,5	2,230350
8,166833	0,5	2,247200
8,175167	0,5	2,214600
8,183500	0,5	2,124950
8,191833	0,5	2,008500
8,200167	0,5	1,915200
8,208500	0,5	1,846800
8,216833	0,5	1,808700
8,225167	0,5	1,772650
8,233500	0,5	1,753650
8,241833	0,5	1,731800
8,250167	0,5	1,728300
8,258500	0,5	1,722150
8,266833	0,5	1,717850
8,275167	0,5	1,705750
8,283500	0,5	1,703400
8,291833	0,5	1,699800
8,300167	0,5	1,694350
8,308500	0,5	1,693450
8,316833	0,5	1,687600
8,325167	0,5	1,689600
8,333500	0,5	1,693250
8,341833	0,5	1,696800
8,350167	0,5	1,701100
8,358500	0,5	1,715550
8,366833	0,5	1,729800
8,375167	0,5	1,740350
8,383500	0,5	1,747350
8,391833	0,5	1,750150
8,400167	0,5	1,756600
8,408500	0,5	1,752450
8,416833	0,5	1,743050
8,425167	0,5	1,740300
8,433500	0,5	1,735350
8,441833	0,5	1,732000
8,450167	0,5	1,726650
8,458500	0,5	1,721650
8,466833	0,5	1,713800
8,475167	0,5	1,698000
8,483500	0,5	1,689150
8,491833	0,5	1,677850
8,500167	0,5	1,659700
8,508500	0,5	1,654150
8,516833	0,5	1,648050
8,525167	0,5	1,640550
8,533500	0,5	1,640750
8,541833	0,5	1,644800
8,550167	0,5	1,653400
8,558500	0,5	1,666100
8,566833	0,5	1,676550
8,575167	0,5	1,692900
8,583500	0,5	1,712050
8,591833	0,5	1,723750
8,600167	0,5	1,743100
8,608500	0,5	1,758950
8,616833	0,5	1,773150
8,625167	0,5	1,790900
8,633500	0,5	1,807250
8,641833	0,5	1,821200
8,650167	0,5	1,828400
8,658500	0,5	1,837650
8,666833	0,5	1,831750
8,675167	0,5	1,821100
8,683500	0,5	1,813800
8,691833	0,5	1,800850
8,700167	0,5	1,791250
8,708500	0,5	1,772000
8,716833	0,5	1,763600
8,725167	0,5	1,754050
8,733500	0,5	1,740950
8,741833	0,5	1,738100
8,750167	0,5	1,742100
8,758500	0,5	1,750500
8,766833	0,5	1,762500
8,775167	0,5	1,770600
8,783500	0,5	1,775900
8,791833	0,5	1,777450
8,800167	0,5	1,765900
8,808500	0,5	1,734650
8,816833	0,5	1,686350
8,825167	0,5	1,650300
8,833500	0,5	1,624000
8,841833	0,5	1,612150
8,850167	0,5	1,600800
8,858500	0,5	1,592850
8,866833	0,5	1,586500
8,875167	0,5	1,581150
8,883500	0,5	1,588400
8,891833	0,5	1,588000
8,900167	0,5	1,589050
8,908500	0,5	1,593350
8,916833	0,5	1,594550
8,925167	0,5	1,600550
8,933500	0,5	1,603650
8,941833	0,5	1,607550
8,950167	0,5	1,610400
8,958500	0,5	1,616650
8,966833	0,5	1,615900
8,975167	0,5	1,620650
8,983500	0,5	1,623600
8,991833	0,5	1,627350
9,000167	0,5	1,630050
9,008500	0,5	1,633050
9,016833	0,5	1,631850
9,025167	0,5	1,629600
9,033500	0,5	1,626850
9,041833	0,5	1,628050
9,050167	0,5	1,629850
9,058500	0,5	1,632200
9,066833	0,5	1,635800
9,075167	0,5	1,639850
9,083500	0,5	1,642550
9,091833	0,5	1,654550
9,100167	0,5	1,667100
9,108500	0,5	1,672800
9,116833	0,5	1,682700
9,125167	0,5	1,691400
9,133500	0,5	1,693550
9,141833	0,5	1,702750
9,150167	0,5	1,701800
9,158500	0,5	1,704050
9,166833	0,5	1,698650
9,175167	0,5	1,702850
9,183500	0,5	1,698200
9,191833	0,5	1,697450
9,200167	0,5	1,693750
9,208500	0,5	1,695650
9,216833	0,5	1,699100
9,225167	0,5	1,694650
9,233500	0,5	1,677850
9,241833	0,5	1,668800
9,250167	0,5	1,665200
9,258500	0,5	1,653200
9,266833	0,5	1,642250
9,275167	0,5	1,634950
9,283500	0,5	1,626400
9,291833	0,5	1,621500
9,300167	0,5	1,606700
9,308500	0,5	1,600550
9,316833	0,5	1,594400
9,325167	0,5	1,586800
9,333500	0,5	1,574350
9,341833	0,5	1,568850
9,350167	0,5	1,564600
9,358500	0,5	1,558400
9,366833	0,5	1,550500
9,375167	0,5	1,546050
9,383500	0,5	1,539650
9,391833	0,5	1,533100
9,400167	0,5	1,531500
9,408500	0,5	1,521150
9,416833	0,5	1,513800
9,425167	0,5	1,504750
9,433500	0,5	1,499800
9,441833	0,5	1,497150
9,450167	0,5	1,492050
9,458500	0,5	1,488850
9,466833	0,5	1,480350
9,475167	0,5	1,478250
9,483500	0,5	1,469000
9,491833	0,5	1,461350
9,500167	0,5	1,452950
9,508500	0,5	1,445850
9,516833	0,5	1,443800
9,525167	0,5	1,435500
9,533500	0,5	1,429300
9,541833	0,5	1,422300
9,550167	0,5	1,423000
9,558500	0,5	1,418700
9,566833	0,5	1,414250
9,575167	0,5	1,412300
9,583500	0,5	1,417800
9,591833	0,5	1,422100
9,600167	0,5	1,423150
9,608500	0,5	1,425900
9,616833	0,5	1,436750
9,625167	0,5	1,443000
9,633500	0,5	1,448600
9,641833	0,5	1,462700
9,650167	0,5	1,478050
9,658500	0,5	1,505200
9,666833	0,5	1,536400
9,675167	0,5	1,571850
9,683500	0,5	1,630700
9,691833	0,5	1,713950
9,700167	0,5	1,810550
9,708500	0,5	1,924450
9,716833	0,5	2,049750
9,725167	0,5	2,183250
9,733500	0,5	2,307300
9,741833	0,5	2,401450
9,750167	0,5	2,458850
9,758500	0,5	2,469950
9,766833	0,5	2,418800
9,775167	0,5	2,322800
9,783500	0,5	2,197100
9,791833	0,5	2,049100
9,800167	0,5	1,903550
9,808500	0,5	1,779150
9,816833	0,5	1,671200
9,825167	0,5	1,586900
9,833500	0,5	1,525350
9,841833	0,5	1,480950
9,850167	0,5	1,446900
9,858500	0,5	1,425300
9,866833	0,5	1,406900
9,875167	0,5	1,404700
9,883500	0,5	1,402100
9,891833	0,5	1,407600
9,900167	0,5	1,413050
9,908500	0,5	1,426450
9,916833	0,5	1,450000
9,925167	0,5	1,468550
9,933500	0,5	1,495250
9,941833	0,5	1,516250
9,950167	0,5	1,537800
9,958500	0,5	1,550900
9,966833	0,5	1,555150
9,975167	0,5	1,555300
9,983500	0,5	1,545750
9,991833	0,5	1,544300
10,000167	0,5	1,544500
10,008500	0,5	1,548950
10,016833	0,5	1,549350
10,025167	0,5	1,594550
10,033500	0,5	1,620850
10,041833	0,5	1,643200
10,050167	0,5	1,652650
10,058500	0,5	1,638750
10,066833	0,5	1,613300
10,075167	0,5	1,573600
10,083500	0,5	1,538200
10,091833	0,5	1,496900
10,100167	0,5	1,461200
10,108500	0,5	1,429950
10,116833	0,5	1,401100
10,125167	0,5	1,373400
10,133500	0,5	1,358700
10,141833	0,5	1,346750
10,150167	0,5	1,328600
10,158500	0,5	1,317550
10,166833	0,5	1,310150
10,175167	0,5	1,305850
10,183500	0,5	1,309200
10,191833	0,5	1,312700
10,200167	0,5	1,317000
10,208500	0,5	1,321650
10,216833	0,5	1,338150
10,225167	0,5	1,348100
10,233500	0,5	1,368900
10,241833	0,5	1,392350
10,250167	0,5	1,404250
10,258500	0,5	1,417650
10,266833	0,5	1,422600
10,275167	0,5	1,426450
10,283500	0,5	1,432000
10,291833	0,5	1,441300
10,300167	0,5	1,467200
10,308500	0,5	1,503600
10,316833	0,5	1,549100
10,325167	0,5	1,613950
10,333500	0,5	1,666900
10,341833	0,5	1,708600
10,350167	0,5	1,726550
10,358500	0,5	1,713550
10,366833	0,5	1,675500
10,375167	0,5	1,628700
10,383500	0,5	1,564900
10,391833	0,5	1,511650
10,400167	0,5	1,468200
10,408500	0,5	1,435200
10,416833	0,5	1,415250
10,425167	0,5	1,399900
10,433500	0,5	1,394650
10,441833	0,5	1,382700
10,450167	0,5	1,374400
10,458500	0,5	1,372550
10,466833	0,5	1,366600
10,475167	0,5	1,362500
10,483500	0,5	1,359250
10,491833	0,5	1,348900
10,500167	0,5	1,348200
10,508500	0,5	1,350350
10,516833	0,5	1,359600
10,525167	0,5	1,372000
10,533500	0,5	1,397950
10,541833	0,5	1,432400
10,550167	0,5	1,475600
10,558500	0,5	1,525600
10,566833	0,5	1,565850
10,575167	0,5	1,593900
10,583500	0,5	1,591450
10,591833	0,5	1,567900
10,600167	0,5	1,512950
10,608500	0,5	1,448600
10,616833	0,5	1,369000
10,625167	0,5	1,300850
10,633500	0,5	1,237000
10,641833	0,5	1,194400
10,650167	0,5	1,169050
10,658500	0,5	1,157400
10,666833	0,5	1,167750
10,675167	0,5	1,185450
10,683500	0,5	1,208150
10,691833	0,5	1,240600
10,700167	0,5	1,277000
10,708500	0,5	1,311650
10,716833	0,5	1,331750
10,725167	0,5	1,360300
10,733500	0,5	1,378200
10,741833	0,5	1,379850
10,750167	0,5	1,372200
10,758500	0,5	1,360550
10,766833	0,5	1,359150
10,775167	0,5	1,343950
10,783500	0,5	1,324900
10,791833	0,5	1,310750
10,800167	0,5	1,290350
10,808500	0,5	1,284500
10,816833	0,5	1,281650
10,825167	0,5	1,270050
10,833500	0,5	1,266850
10,841833	0,5	1,263950
10,850167	0,5	1,264900
10,858500	0,5	1,256500
10,866833	0,5	1,260900
10,875167	0,5	1,254800
10,883500	0,5	1,252300
10,891833	0,5	1,248650
10,900167	0,5	1,240300
10,908500	0,5	1,240850
10,916833	0,5	1,245100
10,925167	0,5	1,244200
10,933500	0,5	1,248950
10,941833	0,5	1,244800
10,950167	0,5	1,244700
10,958500	0,5	1,246500
10,966833	0,5	1,243450
10,975167	0,5	1,246200
10,983500	0,5	1,241150
10,991833	0,5	1,241050
11,000167	0,5	1,240650
11,008500	0,5	1,244400
11,016833	0,5	1,246500
11,025167	0,5	1,254450
11,033500	0,5	1,255700
11,041833	0,5	1,259050
11,050167	0,5	1,261900
11,058500	0,5	1,267500
11,066833	0,5	1,273550
11,075167	0,5	1,273100
11,083500	0,5	1,272850
11,091833	0,5	1,264900
11,100167	0,5	1,266400
11,108500	0,5	1,258150
11,116833	0,5	1,257600
11,125167	0,5	1,249900
11,133500	0,5	1,248300
11,141833	0,5	1,248100
11,150167	0,5	1,259600
11,158500	0,5	1,272050
11,166833	0,5	1,309900
11,175167	0,5	1,357600
11,183500	0,5	1,420450
11,191833	0,5	1,490950
11,200167	0,5	1,570300
11,208500	0,5	1,637300
11,216833	0,5	1,686200
11,225167	0,5	1,693800
11,233500	0,5	1,671400
11,241833	0,5	1,630600
11,250167	0,5	1,565900
11,258500	0,5	1,511150
11,266833	0,5	1,464200
11,275167	0,5	1,427850
11,283500	0,5	1,407950
11,291833	0,5	1,390100
11,300167	0,5	1,367600
11,308500	0,5	1,352900
11,316833	0,5	1,345700
11,325167	0,5	1,337800
11,333500	0,5	1,324250
11,341833	0,5	1,313150
11,350167	0,5	1,315000
11,358500	0,5	1,326350
11,366833	0,5	1,345450
11,375167	0,5	1,385300
11,383500	0,5	1,436200
11,391833	0,5	1,525900
11,400167	0,5	1,645450
11,408500	0,5	1,804700
11,416833	0,5	1,985200
11,425167	0,5	2,169100
11,433500	0,5	2,343250
11,441833	0,5	2,475550
11,450167	0,5	2,552650
11,458500	0,5	2,569350
11,466833	0,5	2,538050
11,475167	0,5	2,447950
11,483500	0,5	2,329800
11,491833	0,5	2,195700
11,500167	0,5	2,084700
11,508500	0,5	1,987750
11,516833	0,5	1,921050
11,525167	0,5	1,887050
11,533500	0,5	1,879350
11,541833	0,5	1,882200
11,550167	0,5	1,902050
11,558500	0,5	1,918250
11,566833	0,5	1,927050
11,575167	0,5	1,906150
11,583500	0,5	1,867450
11,591833	0,5	1,810600
11,600167	0,5	1,731350
11,608500	0,5	1,663300
11,616833	0,5	1,585200
11,625167	0,5	1,506250
11,633500	0,5	1,440050
11,641833	0,5	1,374400
11,650167	0,5	1,335000
11,658500	0,5	1,298700
11,666833	0,5	1,266350
11,675167	0,5	1,247550
11,683500	0,5	1,218550
11,691833	0,5	1,206250
11,700167	0,5	1,192400
11,708500	0,5	1,187600
11,716833	0,5	1,179200
11,725167	0,5	1,170750
11,733500	0,5	1,171000
11,741833	0,5	1,166150
11,750167	0,5	1,159200
11,758500	0,5	1,161600
11,766833	0,5	1,157750
11,775167	0,5	1,153350
11,783500	0,5	1,146600
11,791833	0,5	1,145550
11,800167	0,5	1,148100
11,808500	0,5	1,153100
11,816833	0,5	1,157950
11,825167	0,5	1,161400
11,833500	0,5	1,163350
11,841833	0,5	1,168500
11,850167	0,5	1,176200
11,858500	0,5	1,178100
11,866833	0,5	1,184000
11,875167	0,5	1,182800
11,883500	0,5	1,198950
11,891833	0,5	1,202400
11,900167	0,5	1,217800
11,908500	0,5	1,242700
11,916833	0,5	1,264200
11,925167	0,5	1,291250
11,933500	0,5	1,305700
11,941833	0,5	1,329100
11,950167	0,5	1,355550
11,958500	0,5	1,370500
11,966833	0,5	1,379850
11,975167	0,5	1,380700
11,983500	0,5	1,374000
11,991833	0,5	1,373100
12,000167	0,5	1,363700
12,008500	0,5	1,354600
12,016833	0,5	1,350050
12,025167	0,5	1,357000
12,033500	0,5	1,351000
12,041833	0,5	1,354300
12,050167	0,5	1,366800
12,058500	0,5	1,381400
12,066833	0,5	1,399250
12,075167	0,5	1,434150
12,083500	0,5	1,476700
12,091833	0,5	1,540300
12,100167	0,5	1,616750
12,108500	0,5	1,689650
12,116833	0,5	1,755000
12,125167	0,5	1,810250
12,133500	0,5	1,867300
12,141833	0,5	1,919750
12,150167	0,5	1,987600
12,158500	0,5	2,059650
12,166833	0,5	2,160950
12,175167	0,5	2,265000
12,183500	0,5	2,371400
12,191833	0,5	2,463050
12,200167	0,5	2,543950
12,208500	0,5	2,588250
12,216833	0,5	2,595300
12,225167	0,5	2,557000
12,233500	0,5	2,487350
12,241833	0,5	2,402100
12,250167	0,5	2,293200
12,258500	0,5	2,187550
12,266833	0,5	2,081350
12,275167	0,5	2,002200
12,283500	0,5	1,937600
12,291833	0,5	1,894600
12,300167	0,5	1,863800
12,308500	0,5	1,850450
12,316833	0,5	1,847500
12,325167	0,5	1,858300
12,333500	0,5	1,858750
12,341833	0,5	1,878700
12,350167	0,5	1,894800
12,358500	0,5	1,906900
12,366833	0,5	1,918750
12,375167	0,5	1,914300
12,383500	0,5	1,910300
12,391833	0,5	1,899750
12,400167	0,5	1,867600
12,408500	0,5	1,822050
12,416833	0,5	1,771800
12,425167	0,5	1,718500
12,433500	0,5	1,657400
12,441833	0,5	1,606600
12,450167	0,5	1,546850
12,458500	0,5	1,504750
12,466833	0,5	1,466050
12,475167	0,5	1,440100
12,483500	0,5	1,412700
12,491833	0,5	1,407000
12,500167	0,5	1,403200
12,508500	0,5	1,391600
12,516833	0,5	1,394300
12,525167	0,5	1,390950
12,533500	0,5	1,406000
12,541833	0,5	1,395950
12,550167	0,5	1,382250
12,558500	0,5	1,374950
12,566833	0,5	1,381800
12,575167	0,5	1,373800
12,583500	0,5	1,357150
12,591833	0,5	1,326800
12,600167	0,5	1,298900
12,608500	0,5	1,168800
12,616833	0,5	0,929300
12,625167	0,5	0,550500
12,633500	0,5	0,073300
12,641833	0,5	-0,318700
12,650167	0,5	-0,613900
12,658500	0,5	-0,849850
12,666833	0,5	-1,058200
12,675167	0,5	-1,263350
12,683500	0,5	-1,469000
12,691833	0,5	-1,700500
12,700167	0,5	-1,888600
12,708500	0,5	-2,023950
12,716833	0,5	-2,129350
12,725167	0,5	-2,211950
12,733500	0,5	-2,287000
12,741833	0,5	-2,344350
12,750167	0,5	-2,399300
12,758500	0,5	-2,441850
12,766833	0,5	-2,481150
12,775167	0,5	-2,516350
12,783500	0,5	-2,545800
12,791833	0,5	-2,564850
12,800167	0,5	-2,589250
12,808500	0,5	-2,616600
12,816833	0,5	-2,640850
12,825167	0,5	-2,665600
12,833500	0,5	-2,670200
12,841833	0,5	-2,685000
12,850167	0,5	-2,696500
12,858500	0,5	-2,703300
12,866833	0,5	-2,708850
12,875167	0,5	-2,727100
12,883500	0,5	-2,734300
12,891833	0,5	-2,741950
12,900167	0,5	-2,746800
12,908500	0,5	-2,756000
12,916833	0,5	-2,759000
12,925167	0,5	-2,773050
12,933500	0,5	-2,776700
12,941833	0,5	-2,779950
12,950167	0,5	-2,791050
12,958500	0,5	-2,802200
12,966833	0,5	-2,815350
12,975167	0,5	-2,814800
12,983500	0,5	-2,814200
12,991833	0,5	-2,803450
13,000167	0,5	-2,803900
13,008500	0,5	-2,796000
13,016833	0,5	-2,791450
13,025167	0,5	-2,773850
13,033500	0,5	-2,753000
13,041833	0,5	-2,732500
13,050167	0,5	-2,715000
13,058500	0,5	-2,689950
13,066833	0,5	-2,674800
13,075167	0,5	-2,662050
13,083500	0,5	-2,645150
13,091833	0,5	-2,632850
13,100167	0,5	-2,636600
13,108500	0,5	-2,651050
13,116833	0,5	-2,665550
13,125167	0,5	-2,664650
13,133500	0,5	-2,671200
13,141833	0,5	-2,678100
13,150167	0,5	-2,685050
13,158500	0,5	-2,690900
13,166833	0,5	-2,694050
13,175167	0,5	-2,692050
13,183500	0,5	-2,674800
13,191833	0,5	-2,671650
13,200167	0,5	-2,650850
13,208500	0,5	-2,634900
13,216833	0,5	-2,626250
13,225167	0,5	-2,597900
13,233500	0,5	-2,584150
13,241833	0,5	-2,578800
13,250167	0,5	-2,577100
13,258500	0,5	-2,594350
13,266833	0,5	-2,601150
13,275167	0,5	-2,605050
13,283500	0,5	-2,609800
13,291833	0,5	-2,617900
13,300167	0,5	-2,620800
13,308500	0,5	-2,629800
13,316833	0,5	-2,627650
13,325167	0,5	-2,631500
13,333500	0,5	-2,625450
13,341833	0,5	-2,615150
13,350167	0,5	-2,616750
13,358500	0,5	-2,606400
13,366833	0,5	-2,604700
13,375167	0,5	-2,582450
13,383500	0,5	-2,562400
13,391833	0,5	-2,535200
13,400167	0,5	-2,520300
13,408500	0,5	-2,501650
13,416833	0,5	-2,468250
13,425167	0,5	-2,427400
13,433500	0,5	-2,398750
13,441833	0,5	-2,368800
13,450167	0,5	-2,358500
13,458500	0,5	-2,350250
13,466833	0,5	-2,352350
13,475167	0,5	-2,352900
13,483500	0,5	-2,354250
13,491833	0,5	-2,365100
13,500167	0,5	-2,364300
13,508500	0,5	-2,365900
13,516833	0,5	-2,370850
13,525167	0,5	-2,355400
13,533500	0,5	-2,340250
13,541833	0,5	-2,342750
13,550167	0,5	-2,331550
13,558500	0,5	-2,331350
13,566833	0,5	-2,310750
13,575167	0,5	-2,297350
13,583500	0,5	-2,286350
13,591833	0,5	-2,276500
13,600167	0,5	-2,258200
13,608500	0,5	-2,250050
13,616833	0,5	-2,233500
13,625167	0,5	-2,211800
13,633500	0,5	-2,194950
13,641833	0,5	-2,182000
13,650167	0,5	-2,158250
13,658500	0,5	-2,143750
13,666833	0,5	-2,114550
13,675167	0,5	-2,088400
13,683500	0,5	-2,073400
13,691833	0,5	-2,053700
13,700167	0,5	-2,048100
13,708500	0,5	-2,026300
13,716833	0,5	-2,006900
13,725167	0,5	-1,977800
13,733500	0,5	-1,964350
13,741833	0,5	-1,943950
13,750167	0,5	-1,923100
13,758500	0,5	-1,905500
13,766833	0,5	-1,884200
13,775167	0,5	-1,863650
13,783500	0,5	-1,855150
13,791833	0,5	-1,837050
13,800167	0,5	-1,812100
13,808500	0,5	-1,805150
13,816833	0,5	-1,778000
13,825167	0,5	-1,757450
13,833500	0,5	-1,739050
13,841833	0,5	-1,729200
13,850167	0,5	-1,721300
13,858500	0,5	-1,707550
13,866833	0,5	-1,677750
13,875167	0,5	-1,658650
13,883500	0,5	-1,637250
13,891833	0,5	-1,619600
13,900167	0,5	-1,593750
13,908500	0,5	-1,582450
13,916833	0,5	-1,559100
13,925167	0,5	-1,554850
13,933500	0,5	-1,531750
13,941833	0,5	-1,512000
13,950167	0,5	-1,489750
13,958500	0,5	-1,479800
13,966833	0,5	-1,449750
13,975167	0,5	-1,416350
13,983500	0,5	-1,386000
13,991833	0,5	-1,345850
14,000167	0,5	-1,303800
14,008500	0,5	-1,230050
14,016833	0,5	-1,162200
14,025167	0,5	-1,092650
14,033500	0,5	-1,027950
14,041833	0,5	-0,979000
14,050167	0,5	-0,953700
14,058500	0,5	-0,933150
14,066833	0,5	-0,923250
14,075167	0,5	-0,904400
14,083500	0,5	-0,875100
14,091833	0,5	-0,823150
14,100167	0,5	-0,770750
14,108500	0,5	-0,698650
14,116833	0,5	-0,622250
14,125167	0,5	-0,578200
14,133500	0,5	-0,532550
14,141833	0,5	-0,505800
14,150167	0,5	-0,468000
14,158500	0,5	-0,423550
14,166833	0,5	-0,364650
14,175167	0,5	-0,312600
14,183500	0,5	-0,252500
14,191833	0,5	-0,211750
14,200167	0,5	-0,168700
14,208500	0,5	-0,133150
14,216833	0,5	-0,094350
14,225167	0,5	-0,057550
14,233500	0,5	-0,002500
14,241833	0,5	0,027300
14,250167	0,5	0,041900
14,258500	0,5	0,058550
14,266833	0,5	0,060250
14,275167	0,5	0,049300
14,283500	0,5	0,033750
14,291833	0,5	0,017150
14,300167	0,5	0,027450
14,308500	0,5	0,033650
14,316833	0,5	0,040000
14,325167	0,5	0,040500
14,333500	0,5	0,050800
14,341833	0,5	0,057650
14,350167	0,5	0,064500
14,358500	0,5	0,070850
14,366833	0,5	0,079500
14,375167	0,5	0,086900
14,383500	0,5	0,089650
14,391833	0,5	0,094400
14,400167	0,5	0,095450
14,408500	0,5	0,107400
14,416833	0,5	0,116200
14,425167	0,5	0,123950
14,433500	0,5	0,134250
14,441833	0,5	0,151750
14,450167	0,5	0,169450
14,458500	0,5	0,193600
14,466833	0,5	0,204200
14,475167	0,5	0,213950
14,483500	0,5	0,210850
14,491833	0,5	0,204250
14,500167	0,5	0,191350
14,508500	0,5	0,181950
14,516833	0,5	0,170500
14,525167	0,5	0,146000
14,533500	0,5	0,145250
14,541833	0,5	0,119250
14,550167	0,5	0,126000
14,558500	0,5	0,120600
14,566833	0,5	0,120800
14,575167	0,5	0,105650
14,583500	0,5	0,089750
14,591833	0,5	0,096050
14,600167	0,5	0,097550
14,608500	0,5	0,100750
14,616833	0,5	0,108150
14,625167	0,5	0,103600
14,633500	0,5	0,118050
14,641833	0,5	0,134500
14,650167	0,5	0,174200
14,658500	0,5	0,235050
14,666833	0,5	0,306900
14,675167	0,5	0,404650
14,683500	0,5	0,489550
14,691833	0,5	0,547250
14,700167	0,5	0,607200
14,708500	0,5	0,622750
14,716833	0,5	0,604350
14,725167	0,5	0,559800
14,733500	0,5	0,491900
14,741833	0,5	0,465600
14,750167	0,5	0,446550
14,758500	0,5	0,460900
14,766833	0,5	0,496700
14,775167	0,5	0,560900
14,783500	0,5	0,616450
14,791833	0,5	0,668350
14,800167	0,5	0,685950
14,808500	0,5	0,664500
14,816833	0,5	0,619300
14,825167	0,5	0,546050
14,833500	0,5	0,474100
14,841833	0,5	0,406100
14,850167	0,5	0,362600
14,858500	0,5	0,318700
14,866833	0,5	0,286350
14,875167	0,5	0,248250
14,883500	0,5	0,216600
14,891833	0,5	0,210200
14,900167	0,5	0,208000
14,908500	0,5	0,201650
14,916833	0,5	0,217400
14,925167	0,5	0,213350
14,933500	0,5	0,213200
14,941833	0,5	0,221800
14,950167	0,5	0,218600
14,958500	0,5	0,208300
14,966833	0,5	0,191750
14,975167	0,5	0,180600
14,983500	0,5	0,162500
14,991833	0,5	0,157800
15,000167	0,5	0,151000
15,008500	0,5	0,136950
15,016833	0,5	0,114800
15,025167	0,5	0,074350
15,033500	0,5	0,047450
15,041833	0,5	0,037850
15,050167	0,5	0,023550
15,058500	0,5	0,014300
15,066833	0,5	0,000750
15,075167	0,5	-0,006750
15,083500	0,5	-0,016950
15,091833	0,5	-0,021000
15,100167	0,5	-0,030550
15,108500	0,5	-0,032250
15,116833	0,5	-0,032800
15,125167	0,5	-0,026350
15,133500	0,5	-0,049900
15,141833	0,5	-0,035200
15,150167	0,5	-0,023100
15,158500	0,5	0,001600
15,166833	0,5	0,035850
15,175167	0,5	0,090850
15,183500	0,5	0,202600
15,191833	0,5	0,313050
15,200167	0,5	0,434700
15,208500	0,5	0,515000
15,216833	0,5	0,552000
15,225167	0,5	0,531150
15,233500	0,5	0,485200
15,241833	0,5	0,435300
15,250167	0,5	0,403000
15,258500	0,5	0,403350
15,266833	0,5	0,458350
15,275167	0,5	0,507650
15,283500	0,5	0,574350
15,291833	0,5	0,598850
15,300167	0,5	0,586050
15,308500	0,5	0,523000
15,316833	0,5	0,426750
15,325167	0,5	0,339650
15,333500	0,5	0,262650
15,341833	0,5	0,219500
15,350167	0,5	0,192450
15,358500	0,5	0,179850
15,366833	0,5	0,169200
15,375167	0,5	0,158850
15,383500	0,5	0,140150
15,391833	0,5	0,127300
15,400167	0,5	0,101200
15,408500	0,5	0,094200
15,416833	0,5	0,088000
15,425167	0,5	0,071750
15,433500	0,5	0,072000
15,441833	0,5	0,078750
15,450167	0,5	0,081350
15,458500	0,5	0,076250
15,466833	0,5	0,048650
15,475167	0,5	0,044800
15,483500	0,5	0,032650
15,491833	0,5	0,003300
15,500167	0,5	-0,020500
15,508500	0,5	-0,036700
15,516833	0,5	-0,055900
15,525167	0,5	-0,076850
15,533500	0,5	-0,087050
15,541833	0,5	-0,105050
15,550167	0,5	-0,112400
15,558500	0,5	-0,123450
15,566833	0,5	-0,130800
15,575167	0,5	-0,159100
15,583500	0,5	-0,147500
15,591833	0,5	-0,148950
15,600167	0,5	-0,141800
15,608500	0,5	-0,143400
15,616833	0,5	-0,140000
15,625167	0,5	-0,073850
15,633500	0,5	0,014350
15,641833	0,5	0,116550
15,650167	0,5	0,244950
15,658500	0,5	0,366350
15,666833	0,5	0,444100
15,675167	0,5	0,462000
15,683500	0,5	0,444550
15,691833	0,5	0,407250
15,700167	0,5	0,384850
15,708500	0,5	0,409300
15,716833	0,5	0,439750
15,725167	0,5	0,481850
15,733500	0,5	0,507700
15,741833	0,5	0,495400
15,750167	0,5	0,435350
15,758500	0,5	0,348150
15,766833	0,5	0,245950
15,775167	0,5	0,184500
15,783500	0,5	0,106400
15,791833	0,5	0,051600
15,800167	0,5	0,011400
15,808500	0,5	-0,021300
15,816833	0,5	-0,038350
15,825167	0,5	-0,039800
15,833500	0,5	-0,037450
15,841833	0,5	-0,042650
15,850167	0,5	-0,024150
15,858500	0,5	-0,020350
15,866833	0,5	-0,031200
15,875167	0,5	-0,033150
15,883500	0,5	-0,033450
15,891833	0,5	-0,055250
15,900167	0,5	-0,081650
15,908500	0,5	-0,128900
15,916833	0,5	-0,156300
15,925167	0,5	-0,175200
15,933500	0,5	-0,192050
15,941833	0,5	-0,222450
15,950167	0,5	-0,222100
15,958500	0,5	-0,242650
15,966833	0,5	-0,250100
15,975167	0,5	-0,256700
15,983500	0,5	-0,263650
15,991833	0,5	-0,268900
16,000167	0,5	-0,275700
16,008500	0,5	-0,268850
16,016833	0,5	-0,267150
16,025167	0,5	-0,225050
16,033500	0,5	-0,162750
16,041833	0,5	-0,072700
16,050167	0,5	0,036300
16,058500	0,5	0,159700
16,066833	0,5	0,281400
16,075167	0,5	0,377750
16,083500	0,5	0,408700
16,091833	0,5	0,418400
16,100167	0,5	0,419000
16,108500	0,5	0,432950
16,116833	0,5	0,457500
16,125167	0,5	0,475450
16,133500	0,5	0,454100
16,141833	0,5	0,390550
16,150167	0,5	0,308100
16,158500	0,5	0,207700
16,166833	0,5	0,107550
16,175167	0,5	0,037550
16,183500	0,5	-0,019100
16,191833	0,5	-0,054200
16,200167	0,5	-0,094200
16,208500	0,5	-0,122050
16,216833	0,5	-0,119200
16,225167	0,5	-0,125550
16,233500	0,5	-0,118550
16,241833	0,5	-0,135300
16,250167	0,5	-0,137100
16,258500	0,5	-0,153100
16,266833	0,5	-0,164000
16,275167	0,5	-0,190200
16,283500	0,5	-0,213600
16,291833	0,5	-0,236100
16,300167	0,5	-0,257550
16,308500	0,5	-0,292350
16,316833	0,5	-0,313050
16,325167	0,5	-0,323000
16,333500	0,5	-0,346050
16,341833	0,5	-0,379400
16,350167	0,5	-0,413600
16,358500	0,5	-0,422450
16,366833	0,5	-0,426250
16,375167	0,5	-0,417950
16,383500	0,5	-0,409500
16,391833	0,5	-0,368050
16,400167	0,5	-0,312050
16,408500	0,5	-0,214350
16,416833	0,5	-0,092950
16,425167	0,5	0,051250
16,433500	0,5	0,169050
16,441833	0,5	0,258850
16,450167	0,5	0,293850
16,458500	0,5	0,293400
16,466833	0,5	0,298800
16,475167	0,5	0,313350
16,483500	0,5	0,304000
16,491833	0,5	0,272700
16,500167	0,5	0,217150
16,508500	0,5	0,153750
16,516833	0,5	0,088550
16,525167	0,5	0,042900
16,533500	0,5	0,008750
16,541833	0,5	-0,015150
16,550167	0,5	-0,022500
16,558500	0,5	-0,013150
16,566833	0,5	0,004850
16,575167	0,5	0,002050
16,583500	0,5	0,000650
16,591833	0,5	-0,003600
16,600167	0,5	-0,025800
16,608500	0,5	-0,048350
16,616833	0,5	-0,060400
16,625167	0,5	-0,089600
16,633500	0,5	-0,111000
16,641833	0,5	-0,154800
16,650167	0,5	-0,166400
16,658500	0,5	-0,155300
16,666833	0,5	-0,143250
16,675167	0,5	-0,142300
16,683500	0,5	-0,139300
16,691833	0,5	-0,138500
16,700167	0,5	-0,155900
16,708500	0,5	-0,158300
16,716833	0,5	-0,165650
16,725167	0,5	-0,151300
16,733500	0,5	-0,116800
16,741833	0,5	-0,031950
16,750167	0,5	0,026500
16,758500	0,5	0,144250
16,766833	0,5	0,224550
16,775167	0,5	0,277350
16,783500	0,5	0,290400
16,791833	0,5	0,269600
16,800167	0,5	0,269900
16,808500	0,5	0,263400
16,816833	0,5	0,219550
16,825167	0,5	0,168250
16,833500	0,5	0,089050
16,841833	0,5	0,008550
16,850167	0,5	-0,065400
16,858500	0,5	-0,116850
16,866833	0,5	-0,150600
16,875167	0,5	-0,172950
16,883500	0,5	-0,178900
16,891833	0,5	-0,184150
16,900167	0,5	-0,208150
16,908500	0,5	-0,208100
16,916833	0,5	-0,214900
16,925167	0,5	-0,230500
16,933500	0,5	-0,253600
16,941833	0,5	-0,292500
16,950167	0,5	-0,305150
16,958500	0,5	-0,318600
16,966833	0,5	-0,323850
16,975167	0,5	-0,350200
16,983500	0,5	-0,354650
16,991833	0,5	-0,361500
17,000167	0,5	-0,354700
17,008500	0,5	-0,340350
17,016833	0,5	-0,309650
17,025167	0,5	-0,255550
17,033500	0,5	-0,167700
17,041833	0,5	-0,058700
17,050167	0,5	0,067650
17,058500	0,5	0,235750
17,066833	0,5	0,388350
17,075167	0,5	0,529150
17,083500	0,5	0,660450
17,091833	0,5	0,792000
17,100167	0,5	0,935000
17,108500	0,5	1,074750
17,116833	0,5	1,183000
17,125167	0,5	1,276150
17,133500	0,5	1,334900
17,141833	0,5	1,379750
17,150167	0,5	1,407550
17,158500	0,5	1,430050
17,166833	0,5	1,454800
17,175167	0,5	1,484800
17,183500	0,5	1,533950
17,191833	0,5	1,577700
17,200167	0,5	1,635000
17,208500	0,5	1,682550
17,216833	0,5	1,701750
17,225167	0,5	1,673650
17,233500	0,5	1,606500
17,241833	0,5	1,508200
17,250167	0,5	1,386350
17,258500	0,5	1,230000
17,266833	0,5	1,079800
17,275167	0,5	0,929550
17,283500	0,5	0,793950
17,291833	0,5	0,679900
17,300167	0,5	0,605350
17,308500	0,5	0,564050
17,316833	0,5	0,559100
17,325167	0,5	0,593200
17,333500	0,5	0,616750
17,341833	0,5	0,620800
17,350167	0,5	0,623450
17,358500	0,5	0,608150
17,366833	0,5	0,581550
17,375167	0,5	0,534250
17,383500	0,5	0,468000
17,391833	0,5	0,434750
17,400167	0,5	0,399850
17,408500	0,5	0,392300
17,416833	0,5	0,388700
17,425167	0,5	0,410550
17,433500	0,5	0,413300
17,441833	0,5	0,441550
17,450167	0,5	0,451700
17,458500	0,5	0,450800
17,466833	0,5	0,455850
17,475167	0,5	0,474400
17,483500	0,5	0,448300
17,491833	0,5	0,452400
17,500167	0,5	0,432100
17,508500	0,5	0,403800
17,516833	0,5	0,352750
17,525167	0,5	0,291700
17,533500	0,5	0,246350
17,541833	0,5	0,209850
17,550167	0,5	0,200050
17,558500	0,5	0,193200
17,566833	0,5	0,218150
17,575167	0,5	0,243250
17,583500	0,5	0,266500
17,591833	0,5	0,269400
17,600167	0,5	0,259850
17,608500	0,5	0,225350
17,616833	0,5	0,185300
17,625167	0,5	0,122450
17,633500	0,5	0,045400
17,641833	0,5	-0,001800
17,650167	0,5	-0,036950
17,658500	0,5	-0,088400
17,666833	0,5	-0,119750
17,675167	0,5	-0,165300
17,683500	0,5	-0,173000
17,691833	0,5	-0,181500
17,700167	0,5	-0,203750
17,708500	0,5	-0,210700
17,716833	0,5	-0,217200
17,725167	0,5	-0,221250
17,733500	0,5	-0,233250
17,741833	0,5	-0,230000
17,750167	0,5	-0,232300
17,758500	0,5	-0,227250
17,766833	0,5	-0,198550
17,775167	0,5	-0,155400
17,783500	0,5	-0,115650
17,791833	0,5	-0,029650
17,800167	0,5	0,027000
17,808500	0,5	0,074950
17,816833	0,5	0,092750
17,825167	0,5	0,084300
17,833500	0,5	0,081700
17,841833	0,5	0,053150
17,850167	0,5	0,011450
17,858500	0,5	-0,033450
17,866833	0,5	-0,069600
17,875167	0,5	-0,103700
17,883500	0,5	-0,117950
17,891833	0,5	-0,142850
17,900167	0,5	-0,168400
17,908500	0,5	-0,183700
17,916833	0,5	-0,193350
17,925167	0,5	-0,223600
17,933500	0,5	-0,220650
17,941833	0,5	-0,232500
17,950167	0,5	-0,228100
17,958500	0,5	-0,249400
17,966833	0,5	-0,253900
17,975167	0,5	-0,238800
17,983500	0,5	-0,187150
17,991833	0,5	-0,142850
18,000167	0,5	-0,089450
18,008500	0,5	-0,049100
18,016833	0,5	-0,029400
18,025167	0,5	-0,033050
18,033500	0,5	-0,057300
18,041833	0,5	-0,089300
18,050167	0,5	-0,139550
18,058500	0,5	-0,184100
18,066833	0,5	-0,218600
18,075167	0,5	-0,260150
18,083500	0,5	-0,273900
18,091833	0,5	-0,296250
18,100167	0,5	-0,326050
18,108500	0,5	-0,351200
18,116833	0,5	-0,391900
18,125167	0,5	-0,401400
18,133500	0,5	-0,401750
18,141833	0,5	-0,409500
18,150167	0,5	-0,409200
18,158500	0,5	-0,400950
18,166833	0,5	-0,389100
18,175167	0,5	-0,344300
18,183500	0,5	-0,299550
18,191833	0,5	-0,268600
18,200167	0,5	-0,240950
18,208500	0,5	-0,249700
18,216833	0,5	-0,267700
18,225167	0,5	-0,308450
18,233500	0,5	-0,331550
18,241833	0,5	-0,393500
18,250167	0,5	-0,424400
18,258500	0,5	-0,476050
18,266833	0,5	-0,518250
18,275167	0,5	-0,530050
18,283500	0,5	-0,536150
18,291833	0,5	-0,556500
18,300167	0,5	-0,566100
18,308500	0,5	-0,578450
18,316833	0,5	-0,585650
18,325167	0,5	-0,576900
18,333500	0,5	-0,568100
18,341833	0,5	-0,554700
18,350167	0,5	-0,525000
18,358500	0,5	-0,501200
18,366833	0,5	-0,499700
18,375167	0,5	-0,480600
18,383500	0,5	-0,487300
18,391833	0,5	-0,510050
18,400167	0,5	-0,549700
18,408500	0,5	-0,607400
18,416833	0,5	-0,641000
18,425167	0,5	-0,653300
18,433500	0,5	-0,673150
18,441833	0,5	-0,686750
18,450167	0,5	-0,705450
18,458500	0,5	-0,715400
18,466833	0,5	-0,732550
18,475167	0,5	-0,731800
18,483500	0,5	-0,733900
18,491833	0,5	-0,738300
18,500167	0,5	-0,721400
18,508500	0,5	-0,709800
18,516833	0,5	-0,706850
18,525167	0,5	-0,691900
18,533500	0,5	-0,675300
18,541833	0,5	-0,681350
18,550167	0,5	-0,706100
18,558500	0,5	-0,750100
18,566833	0,5	-0,763950
18,575167	0,5	-0,783550
18,583500	0,5	-0,798250
18,591833	0,5	-0,820100
18,600167	0,5	-0,830350
18,608500	0,5	-0,848250
18,616833	0,5	-0,847350
18,625167	0,5	-0,852150
18,633500	0,5	-0,852250
18,641833	0,5	-0,862200
18,650167	0,5	-0,852650
18,658500	0,5	-0,858250
18,666833	0,5	-0,843250
18,675167	0,5	-0,810850
18,683500	0,5	-0,778850
18,691833	0,5	-0,777500
18,700167	0,5	-0,804600
18,708500	0,5	-0,812150
18,716833	0,5	-0,823800
18,725167	0,5	-0,818750
18,733500	0,5	-0,823550
18,741833	0,5	-0,811450
18,750167	0,5	-0,803300
18,758500	0,5	-0,793800
18,766833	0,5	-0,791200
18,775167	0,5	-0,773150
18,783500	0,5	-0,758250
18,791833	0,5	-0,710700
18,800167	0,5	-0,661300
18,808500	0,5	-0,651300
18,816833	0,5	-0,602250
18,825167	0,5	-0,584000
18,833500	0,5	-0,581050
18,841833	0,5	-0,592850
18,850167	0,5	-0,628200
18,858500	0,5	-0,638800
18,866833	0,5	-0,642750
18,875167	0,5	-0,663050
18,883500	0,5	-0,664350
18,891833	0,5	-0,658900
18,900167	0,5	-0,654550
18,908500	0,5	-0,647250
18,916833	0,5	-0,632000
18,925167	0,5	-0,624100
18,933500	0,5	-0,611350
18,941833	0,5	-0,599700
18,950167	0,5	-0,595000
18,958500	0,5	-0,628200
18,966833	0,5	-0,636500
18,975167	0,5	-0,682850
18,983500	0,5	-0,713800
18,991833	0,5	-0,755200
19,000167	0,5	-0,797200
19,008500	0,5	-0,793800
19,016833	0,5	-0,806250
19,025167	0,5	-0,828900
19,033500	0,5	-0,839300
19,041833	0,5	-0,836200
19,050167	0,5	-0,847100
19,058500	0,5	-0,839200
19,066833	0,5	-0,845450
19,075167	0,5	-0,868450
19,083500	0,5	-0,879200
19,091833	0,5	-0,872350
19,100167	0,5	-0,896400
19,108500	0,5	-0,910300
19,116833	0,5	-0,921450
19,125167	0,5	-0,936550
19,133500	0,5	-0,962750
19,141833	0,5	-0,997100
19,150167	0,5	-1,007200
19,158500	0,5	-1,010750
19,166833	0,5	-1,018850
19,175167	0,5	-1,037500
19,183500	0,5	-1,042750
19,191833	0,5	-1,062500
19,200167	0,5	-1,083700
19,208500	0,5	-1,106600
19,216833	0,5	-1,119500
19,225167	0,5	-1,137950
19,233500	0,5	-1,132900
19,241833	0,5	-1,140550
19,250167	0,5	-1,150050
19,258500	0,5	-1,149000
19,266833	0,5	-1,154600
19,275167	0,5	-1,174750
19,283500	0,5	-1,202100
19,291833	0,5	-1,239100
19,300167	0,5	-1,250550
19,308500	0,5	-1,254450
19,316833	0,5	-1,262450
19,325167	0,5	-1,263800
19,333500	0,5	-1,261900
19,341833	0,5	-1,267900
19,350167	0,5	-1,274050
19,358500	0,5	-1,275150
19,366833	0,5	-1,284950
19,375167	0,5	-1,298950
19,383500	0,5	-1,300450
19,391833	0,5	-1,310250
19,400167	0,5	-1,326750
19,408500	0,5	-1,316450
19,416833	0,5	-1,328450
19,425167	0,5	-1,327700
19,433500	0,5	-1,361550
19,441833	0,5	-1,369100
19,450167	0,5	-1,355850
19,458500	0,5	-1,349450
19,466833	0,5	-1,363750
19,475167	0,5	-1,365000
19,483500	0,5	-1,375400
19,491833	0,5	-1,384400
19,500167	0,5	-1,383150
19,508500	0,5	-1,389650
19,516833	0,5	-1,390800
19,525167	0,5	-1,387100
19,533500	0,5	-1,384950
19,541833	0,5	-1,412600
19,550167	0,5	-1,419600
19,558500	0,5	-1,430650
19,566833	0,5	-1,436850
19,575167	0,5	-1,462300
19,583500	0,5	-1,492600
19,591833	0,5	-1,498300
19,600167	0,5	-1,488100
19,608500	0,5	-1,502050
19,616833	0,5	-1,511700
19,625167	0,5	-1,515000
19,633500	0,5	-1,519950
19,641833	0,5	-1,529150
19,650167	0,5	-1,528100
19,658500	0,5	-1,525750
19,666833	0,5	-1,535650
19,675167	0,5	-1,509550
19,683500	0,5	-1,527450
19,691833	0,5	-1,537650
19,700167	0,5	-1,531150
19,708500	0,5	-1,531500
19,716833	0,5	-1,549150
19,725167	0,5	-1,577400
19,733500	0,5	-1,603100
19,741833	0,5	-1,605600
19,750167	0,5	-1,616800
19,758500	0,5	-1,628350
19,766833	0,5	-1,645300
19,775167	0,5	-1,654650
19,783500	0,5	-1,692200
19,791833	0,5	-1,694400
19,800167	0,5	-1,713900
19,808500	0,5	-1,733900
19,816833	0,5	-1,744400
19,825167	0,5	-1,753800
19,833500	0,5	-1,778150
19,841833	0,5	-1,790500
19,850167	0,5	-1,798400
19,858500	0,5	-1,810600
19,866833	0,5	-1,821350
19,875167	0,5	-1,864950
19,883500	0,5	-1,880550
19,891833	0,5	-1,883300
19,900167	0,5	-1,888450
19,908500	0,5	-1,898150
19,916833	0,5	-1,906300
19,925167	0,5	-1,914550
19,933500	0,5	-1,928750
19,941833	0,5	-1,933800
19,950167	0,5	-1,948950
19,958500	0,5	-1,953100
19,966833	0,5	-1,959750
19,975167	0,5	-1,952150
19,983500	0,5	-1,975500
19,991833	0,5	-1,974150
20,000167	0,5	-1,973500
20,008500	0,5	-1,980600
20,016833	0,5	-2,015450
20,025167	0,5	-2,058400
20,033500	0,5	-2,066300
20,041833	0,5	-2,067400
20,050167	0,5	-2,098550
20,058500	0,5	-2,112800
20,066833	0,5	-2,129800
20,075167	0,5	-2,142950
20,083500	0,5	-2,170450
20,091833	0,5	-2,181600
20,100167	0,5	-2,195200
20,108500	0,5	-2,208400
20,116833	0,5	-2,197800
20,125167	0,5	-2,227000
20,133500	0,5	-2,243350
20,141833	0,5	-2,247600
20,150167	0,5	-2,255900
20,158500	0,5	-2,278700
20,166833	0,5	-2,311650
20,175167	0,5	-2,346450
20,183500	0,5	-2,345250
20,191833	0,5	-2,350950
20,200167	0,5	-2,349100
20,208500	0,5	-2,352950
20,216833	0,5	-2,355700
20,225167	0,5	-2,371150
20,233500	0,5	-2,371800
20,241833	0,5	-2,385000
20,250167	0,5	-2,400800
20,258500	0,5	-2,404700
20,266833	0,5	-2,407300
20,275167	0,5	-2,430750
20,283500	0,5	-2,447950
20,291833	0,5	-2,462800
20,300167	0,5	-2,480400
20,308500	0,5	-2,501500
20,316833	0,5	-2,528650
20,325167	0,5	-2,548450
20,333500	0,5	-2,566700
20,341833	0,5	-2,569850
20,350167	0,5	-2,606150
20,358500	0,5	-2,618650
20,366833	0,5	-2,650600
20,375167	0,5	-2,661300
20,383500	0,5	-2,681050
20,391833	0,5	-2,710350
20,400167	0,5	-2,731100
20,408500	0,5	-2,732000
20,416833	0,5	-2,751950
20,425167	0,5	-2,778500
20,433500	0,5	-2,803050
20,441833	0,5	-2,826800
20,450167	0,5	-2,853950
20,458500	0,5	-2,903150
20,466833	0,5	-2,933300
20,475167	0,5	-2,953600
20,483500	0,5	-2,951900
20,491833	0,5	-2,992700
20,500167	0,5	-3,007650
20,508500	0,5	-3,028150
20,516833	0,5	-3,038950
20,525167	0,5	-3,058400
20,533500	0,5	-3,066200
20,541833	0,5	-3,076250
20,550167	0,5	-3,057150
20,558500	0,5	-3,037900
20,566833	0,5	-3,045600
20,575167	0,5	-3,073350
20,583500	0,5	-3,103750
20,591833	0,5	-3,155200
20,600167	0,5	-3,218100
20,608500	0,5	-3,289150
20,616833	0,5	-3,338950
20,625167	0,5	-3,362900
20,633500	0,5	-3,412050
20,641833	0,5	-3,436100
20,650167	0,5	-3,479100
20,658500	0,5	-3,502150
20,666833	0,5	-3,551950
20,675167	0,5	-3,571350
20,683500	0,5	-3,606850
20,691833	0,5	-3,636300
20,700167	0,5	-3,637750
20,708500	0,5	-3,617400
20,716833	0,5	-3,625000
20,725167	0,5	-3,614000
20,733500	0,5	-3,591500
20,741833	0,5	-3,595750
20,750167	0,5	-3,631350
20,758500	0,5	-3,681450
20,766833	0,5	-3,726550
20,775167	0,5	-3,796300
20,783500	0,5	-3,862200
20,791833	0,5	-3,939550
20,800167	0,5	-3,996600
20,808500	0,5	-4,065850
20,816833	0,5	-4,105450
20,825167	0,5	-4,142450
20,833500	0,5	-4,207550
20,841833	0,5	-4,246850
20,850167	0,5	-4,259950
20,858500	0,5	-4,292300
20,866833	0,5	-4,329100
20,875167	0,5	-4,376000
20,883500	0,5	-4,412650
20,891833	0,5	-4,448450
20,900167	0,5	-4,517500
20,908500	0,5	-4,532100
20,916833	0,5	-4,565350
20,925167	0,5	-4,595350
20,933500	0,5	-4,646500
20,941833	0,5	-4,691550
20,950167	0,5	-4,741400
20,958500	0,5	-4,788300
20,966833	0,5	-4,831800
20,975167	0,5	-4,860700
20,983500	0,5	-4,917100
20,991833	0,5	-4,926850
21,000167	0,5	-4,938800
21,008500	0,5	-4,978250
21,016833	0,5	-5,004000
21,025167	0,5	-5,038600
21,033500	0,5	-5,069850
21,041833	0,5	-5,113100
21,050167	0,5	-5,161750
21,058500	0,5	-5,178900
21,066833	0,5	-5,210500
21,075167	0,5	-5,259850
21,083500	0,5	-5,292650
21,091833	0,5	-5,332450
21,100167	0,5	-5,373000
21,108500	0,5	-5,422950
21,116833	0,5	-5,443950
21,125167	0,5	-5,486050
21,133500	0,5	-5,524300
21,141833	0,5	-5,517750
21,150167	0,5	-5,535300
21,158500	0,5	-5,569050
21,166833	0,5	-5,602600
21,175167	0,5	-5,629450
21,183500	0,5	-5,679000
21,191833	0,5	-5,725800
21,200167	0,5	-5,764650
21,208500	0,5	-5,777350
21,216833	0,5	-5,793450
21,225167	0,5	-5,808900
21,233500	0,5	-5,828950
21,241833	0,5	-5,843100
21,250167	0,5	-5,865200
21,258500	0,5	-5,871550
21,266833	0,5	-5,902700
21,275167	0,5	-5,919800
21,283500	0,5	-5,901050
21,291833	0,5	-5,890300
21,300167	0,5	-5,886800
21,308500	0,5	-5,898200
21,316833	0,5	-5,926850
21,325167	0,5	-5,950550
21,333500	0,5	-6,000550
21,341833	0,5	-6,052650
21,350167	0,5	-6,089100
21,358500	0,5	-6,108450
21,366833	0,5	-6,130450
21,375167	0,5	-6,147400
21,383500	0,5	-6,153300
21,391833	0,5	-6,179150
21,400167	0,5	-6,198950
21,408500	0,5	-6,220100
21,416833	0,5	-6,242600
21,425167	0,5	-6,255200
21,433500	0,5	-6,236950
21,441833	0,5	-6,233900
21,450167	0,5	-6,260100
21,458500	0,5	-6,274500
21,466833	0,5	-6,294900
21,475167	0,5	-6,325650
21,483500	0,5	-6,378050
21,491833	0,5	-6,408450
21,500167	0,5	-6,422600
21,508500	0,5	-6,454350
21,516833	0,5	-6,470050
21,525167	0,5	-6,472850
21,533500	0,5	-6,488850
21,541833	0,5	-6,499750
21,550167	0,5	-6,525500
21,558500	0,5	-6,538350
21,566833	0,5	-6,552900
21,575167	0,5	-6,557350
21,583500	0,5	-6,550750
21,591833	0,5	-6,562650
21,600167	0,5	-6,567350
21,608500	0,5	-6,581750
21,616833	0,5	-6,607150
21,625167	0,5	-6,635700
21,633500	0,5	-6,652500
21,641833	0,5	-6,661150
21,650167	0,5	-6,643000
21,658500	0,5	-6,642750
21,666833	0,5	-6,637300
21,675167	0,5	-6,625950
21,683500	0,5	-6,634050
21,691833	0,5	-6,650950
21,700167	0,5	-6,669150
21,708500	0,5	-6,695450
21,716833	0,5	-6,725550
21,725167	0,5	-6,705650
21,733500	0,5	-6,699750
21,741833	0,5	-6,712700
21,750167	0,5	-6,723150
21,758500	0,5	-6,744950
21,766833	0,5	-6,771950
21,775167	0,5	-6,818400
21,783500	0,5	-6,833400
21,791833	0,5	-6,830250
21,800167	0,5	-6,848850
21,808500	0,5	-6,846400
21,816833	0,5	-6,864150
21,825167	0,5	-6,859500
21,833500	0,5	-6,860550
21,841833	0,5	-6,846850
21,850167	0,5	-6,853600
21,858500	0,5	-6,853600
21,866833	0,5	-6,841900
21,875167	0,5	-6,817300
21,883500	0,5	-6,826550
21,891833	0,5	-6,819700
21,900167	0,5	-6,833750
21,908500	0,5	-6,838300
21,916833	0,5	-6,847150
21,925167	0,5	-6,856750
21,933500	0,5	-6,791950
21,941833	0,5	-6,734100
21,950167	0,5	-6,697400
21,958500	0,5	-6,690550
21,966833	0,5	-6,712850
21,975167	0,5	-6,750850
21,983500	0,5	-6,809750
21,991833	0,5	-6,855400
22,000167	0,5	-6,893500
22,008500	0,5	-6,937050
22,016833	0,5	-6,955050
22,025167	0,5	-6,997950
22,033500	0,5	-7,028500
22,041833	0,5	-7,055900
22,050167	0,5	-7,085150
22,058500	0,5	-7,127800
22,066833	0,5	-7,174750
22,075167	0,5	-7,201400
22,083500	0,5	-7,216700
22,091833	0,5	-7,241800
22,100167	0,5	-7,261200
22,108500	0,5	-7,279700
22,116833	0,5	-7,315950
22,125167	0,5	-7,328450
22,133500	0,5	-7,351400
22,141833	0,5	-7,357350
22,150167	0,5	-7,390550
22,158500	0,5	-7,413650
22,166833	0,5	-7,416750
22,175167	0,5	-7,448100
22,183500	0,5	-7,442600
22,191833	0,5	-7,460850
22,200167	0,5	-7,464050
22,208500	0,5	-7,486000
22,216833	0,5	-7,518900
22,225167	0,5	-7,532650
22,233500	0,5	-7,523700
22,241833	0,5	-7,544450
22,250167	0,5	-7,532200
22,258500	0,5	-7,540500
22,266833	0,5	-7,536900
22,275167	0,5	-7,536700
22,283500	0,5	-7,524600
22,291833	0,5	-7,531900
22,300167	0,5	-7,528450
22,308500	0,5	-7,530050
22,316833	0,5	-7,519350
22,325167	0,5	-7,521400
22,333500	0,5	-7,489650
22,341833	0,5	-7,480950
22,350167	0,5	-7,468250
22,358500	0,5	-7,433750
22,366833	0,5	-7,380400
22,375167	0,5	-7,275000
22,383500	0,5	-7,206050
22,391833	0,5	-7,185050
22,400167	0,5	-7,207350
22,408500	0,5	-7,253750
22,416833	0,5	-7,320250
22,425167	0,5	-7,357700
22,433500	0,5	-7,395700
22,441833	0,5	-7,420400
22,450167	0,5	-7,464850
22,458500	0,5	-7,504500
22,466833	0,5	-7,511400
22,475167	0,5	-7,499750
22,483500	0,5	-7,496150
22,491833	0,5	-7,494250
22,500167	0,5	-7,507550
22,508500	0,5	-7,530950
22,516833	0,5	-7,508600
22,525167	0,5	-7,519700
22,533500	0,5	-7,489600
22,541833	0,5	-7,484700
22,550167	0,5	-7,454600
22,558500	0,5	-7,428100
22,566833	0,5	-7,393350
22,575167	0,5	-7,375850
22,583500	0,5	-7,360000
22,591833	0,5	-7,351850
22,600167	0,5	-7,372250
22,608500	0,5	-7,362150
22,616833	0,5	-7,330850
22,625167	0,5	-7,312850
22,633500	0,5	-7,307300
22,641833	0,5	-7,313350
22,650167	0,5	-7,337450
22,658500	0,5	-7,343600
22,666833	0,5	-7,351000
22,675167	0,5	-7,333150
22,683500	0,5	-7,343800
22,691833	0,5	-7,332600
22,700167	0,5	-7,349200
22,708500	0,5	-7,344550
22,716833	0,5	-7,367500
22,725167	0,5	-7,365200
22,733500	0,5	-7,373600
22,741833	0,5	-7,399950
22,750167	0,5	-7,451400
22,758500	0,5	-7,449950
22,766833	0,5	-7,429250
22,775167	0,5	-7,435100
22,783500	0,5	-7,437200
22,791833	0,5	-7,457400
22,800167	0,5	-7,489750
22,808500	0,5	-7,505150
22,816833	0,5	-7,507150
22,825167	0,5	-7,526300
22,833500	0,5	-7,541250
22,841833	0,5	-7,557400
22,850167	0,5	-7,574350
22,858500	0,5	-7,590150
22,866833	0,5	-7,622900
22,875167	0,5	-7,629550
22,883500	0,5	-7,658900
22,891833	0,5	-7,732100
22,900167	0,5	-7,753300
22,908500	0,5	-7,745850
22,916833	0,5	-7,740700
22,925167	0,5	-7,784050
22,933500	0,5	-7,806150
22,941833	0,5	-7,818550
22,950167	0,5	-7,835450
22,958500	0,5	-7,865900
22,966833	0,5	-7,867100
22,975167	0,5	-7,881750
22,983500	0,5	-7,883200
22,991833	0,5	-7,870450
23,000167	0,5	-7,852300
23,008500	0,5	-7,843400
23,016833	0,5	-7,816400
23,025167	0,5	-7,790450
23,033500	0,5	-7,742700
23,041833	0,5	-7,725450
23,050167	0,5	-7,684350
23,058500	0,5	-7,662400
23,066833	0,5	-7,657900
23,075167	0,5	-7,635900
23,083500	0,5	-7,580100
23,091833	0,5	-7,525350
23,100167	0,5	-7,490500
23,108500	0,5	-7,461900
23,116833	0,5	-7,401450
23,125167	0,5	-7,330650
23,133500	0,5	-7,291050
23,141833	0,5	-7,206250
23,150167	0,5	-7,147900
23,158500	0,5	-7,062550
23,166833	0,5	-6,984200
23,175167	0,5	-6,896750
23,183500	0,5	-6,777400
23,191833	0,5	-6,712150
23,200167	0,5	-6,605850
23,208500	0,5	-6,575500
23,216833	0,5	-6,507100
23,225167	0,5	-6,435850
23,233500	0,5	-6,343700
23,241833	0,5	-6,256700
23,250167	0,5	-6,199300
23,258500	0,5	-6,133950
23,266833	0,5	-6,049700
23,275167	0,5	-5,978500
23,283500	0,5	-5,890450
23,291833	0,5	-5,812350
23,300167	0,5	-5,713900
23,308500	0,5	-5,631550
23,316833	0,5	-5,532550
23,325167	0,5	-5,433100
23,333500	0,5	-5,380050
23,341833	0,5	-5,243000
23,350167	0,5	-5,144300
23,358500	0,5	-5,097350
23,366833	0,5	-5,029300
23,375167	0,5	-4,948000
23,383500	0,5	-4,868000
23,391833	0,5	-4,790750
23,400167	0,5	-4,735900
23,408500	0,5	-4,679450
23,416833	0,5	-4,604700
23,425167	0,5	-4,543600
23,433500	0,5	-4,483600
23,441833	0,5	-4,411800
23,450167	0,5	-4,354400
23,458500	0,5	-4,271050
23,466833	0,5	-4,207850
23,475167	0,5	-4,125700
23,483500	0,5	-4,129500
23,491833	0,5	-4,031950
23,500167	0,5	-3,928100
23,508500	0,5	-3,881950
23,516833	0,5	-3,826700
23,525167	0,5	-3,767900
23,533500	0,5	-3,722500
23,541833	0,5	-3,668950
23,550167	0,5	-3,635450
23,558500	0,5	-3,592400
23,566833	0,5	-3,557750
23,575167	0,5	-3,512050
23,583500	0,5	-3,474900
23,591833	0,5	-3,438500
23,600167	0,5	-3,394850
23,608500	0,5	-3,350250
23,616833	0,5	-3,308000
23,625167	0,5	-3,407250
23,633500	0,5	-3,364200
23,641833	0,5	-3,269500
23,650167	0,5	-3,199950
23,658500	0,5	-3,163050
23,666833	0,5	-3,125050
23,675167	0,5	-3,098700
23,683500	0,5	-3,066650
23,691833	0,5	-3,044750
23,700167	0,5	-3,018950
23,708500	0,5	-2,994550
23,716833	0,5	-2,968300
23,725167	0,5	-2,943900
23,733500	0,5	-2,918350
23,741833	0,5	-2,886400
23,750167	0,5	-2,858650
23,758500	0,5	-2,828350
23,766833	0,5	-2,813000
23,775167	0,5	-2,955850
23,783500	0,5	-2,906700
23,791833	0,5	-2,827350
23,800167	0,5	-2,765050
23,808500	0,5	-2,731500
23,816833	0,5	-2,709950
23,825167	0,5	-2,699900
23,833500	0,5	-2,676700
23,841833	0,5	-2,655150
23,850167	0,5	-2,636500
23,858500	0,5	-2,616900
23,866833	0,5	-2,593600
23,875167	0,5	-2,573200
23,883500	0,5	-2,551650
23,891833	0,5	-2,525900
23,900167	0,5	-2,495300
23,908500	0,5	-2,472700
23,916833	0,5	-2,576000
23,925167	0,5	-2,600350
23,933500	0,5	-2,574700
23,941833	0,5	-2,480250
23,950167	0,5	-2,431250
23,958500	0,5	-2,391600
23,966833	0,5	-2,364900
23,975167	0,5	-2,355150
23,983500	0,5	-2,334100
23,991833	0,5	-2,303300
24,000167	0,5	-2,284550
24,008500	0,5	-2,259050
24,016833	0,5	-2,244800
24,025167	0,5	-2,222350
24,033500	0,5	-2,206850
24,041833	0,5	-2,177900
24,050167	0,5	-2,159050
24,058500	0,5	-2,139900
24,066833	0,5	-2,299850
24,075167	0,5	-2,265250
24,083500	0,5	-2,226800
24,091833	0,5	-2,146100
24,100167	0,5	-2,101950
24,108500	0,5	-2,071300
24,116833	0,5	-2,057450
24,125167	0,5	-2,062200
24,133500	0,5	-2,012800
24,141833	0,5	-1,986150
24,150167	0,5	-1,960050
24,158500	0,5	-1,933850
24,166833	0,5	-1,905950
24,175167	0,5	-1,884250
24,183500	0,5	-1,850550
24,191833	0,5	-1,829250
24,200167	0,5	-1,802900
24,208500	0,5	-1,823750
24,216833	0,5	-1,925100
24,225167	0,5	-1,902100
24,233500	0,5	-1,841550
24,241833	0,5	-1,781900
24,250167	0,5	-1,745800
24,258500	0,5	-1,721750
24,266833	0,5	-1,713400
24,275167	0,5	-1,711000
24,283500	0,5	-1,681400
24,291833	0,5	-1,653100
24,300167	0,5	-1,640550
24,308500	0,5	-1,609150
24,316833	0,5	-1,587550
24,325167	0,5	-1,572150
24,333500	0,5	-1,548550
24,341833	0,5	-1,520350
24,350167	0,5	-1,502000
24,358500	0,5	-1,586900
24,366833	0,5	-1,579550
24,375167	0,5	-1,543750
24,383500	0,5	-1,492600
24,391833	0,5	-1,452700
24,400167	0,5	-1,415250
24,408500	0,5	-1,398450
24,416833	0,5	-1,397050
24,425167	0,5	-1,392000
24,433500	0,5	-1,361750
24,441833	0,5	-1,339250
24,450167	0,5	-1,321550
24,458500	0,5	-1,299100
24,466833	0,5	-1,277900
24,475167	0,5	-1,263800
24,483500	0,5	-1,243900
24,491833	0,5	-1,226200
24,500167	0,5	-1,213800
24,508500	0,5	-1,297250
24,516833	0,5	-1,271800
24,525167	0,5	-1,254250
24,533500	0,5	-1,208300
24,541833	0,5	-1,180450
24,550167	0,5	-1,155450
24,558500	0,5	-1,148050
24,566833	0,5	-1,146050
24,575167	0,5	-1,131300
24,583500	0,5	-1,107750
24,591833	0,5	-1,088500
24,600167	0,5	-1,071900
24,608500	0,5	-1,057300
24,616833	0,5	-1,034200
24,625167	0,5	-1,021250
24,633500	0,5	-1,002150
24,641833	0,5	-0,988350
24,650167	0,5	-1,004800
24,658500	0,5	-1,031200
24,666833	0,5	-1,015350
24,675167	0,5	-0,982650
24,683500	0,5	-0,955550
24,691833	0,5	-0,935800
24,700167	0,5	-0,924050
24,708500	0,5	-0,923400
24,716833	0,5	-0,923800
24,725167	0,5	-0,920000
24,733500	0,5	-0,907450
24,741833	0,5	-0,894000
24,750167	0,5	-0,880700
24,758500	0,5	-0,866350
24,766833	0,5	-0,860300
24,775167	0,5	-0,845100
24,783500	0,5	-0,833950
24,791833	0,5	-0,821400
24,800167	0,5	-0,849350
24,808500	0,5	-0,845750
24,816833	0,5	-0,824350
24,825167	0,5	-0,804150
24,833500	0,5	-0,784750
24,841833	0,5	-0,772050
24,850167	0,5	-0,755750
24,858500	0,5	-0,758900
24,866833	0,5	-0,747250
24,875167	0,5	-0,738700
24,883500	0,5	-0,724850
24,891833	0,5	-0,720550
24,900167	0,5	-0,712150
24,908500	0,5	-0,710000
24,916833	0,5	-0,703000
24,925167	0,5	-0,704550
24,933500	0,5	-0,696950
24,941833	0,5	-0,686600
24,950167	0,5	-0,714900
24,958500	0,5	-0,706050
24,966833	0,5	-0,696500
24,975167	0,5	-0,674450
24,983500	0,5	-0,665800
24,991833	0,5	-0,657800
25,000167	0,5	-0,652600
25,008500	0,5	-0,650700
25,016833	0,5	-0,638350
25,025167	0,5	-0,636700
25,033500	0,5	-0,629100
25,041833	0,5	-0,619400
25,050167	0,5	-0,614750
25,058500	0,5	-0,610300
25,066833	0,5	-0,603500
25,075167	0,5	-0,592100
25,083500	0,5	-0,589500
25,091833	0,5	-0,594400
25,100167	0,5	-0,596350
25,108500	0,5	-0,595050
25,116833	0,5	-0,588450
25,125167	0,5	-0,584400
25,133500	0,5	-0,579600
25,141833	0,5	-0,582700
25,150167	0,5	-0,582850
25,158500	0,5	-0,583650
25,166833	0,5	-0,576100
25,175167	0,5	-0,574800
25,183500	0,5	-0,571950
25,191833	0,5	-0,566450
25,200167	0,5	-0,565800
25,208500	0,5	-0,559750
25,216833	0,5	-0,555550
25,225167	0,5	-0,548950
25,233500	0,5	-0,537500
25,241833	0,5	-0,543700
25,250167	0,5	-0,536950
25,258500	0,5	-0,533850
25,266833	0,5	-0,528050
25,275167	0,5	-0,527350
25,283500	0,5	-0,524600
25,291833	0,5	-0,527250
25,300167	0,5	-0,528250
25,308500	0,5	-0,524500
25,316833	0,5	-0,524250
25,325167	0,5	-0,524850
25,333500	0,5	-0,526850
25,341833	0,5	-0,524400
25,350167	0,5	-0,527150
25,358500	0,5	-0,520550
25,366833	0,5	-0,521700
25,375167	0,5	-0,522550
25,383500	0,5	-0,516200
25,391833	0,5	-0,513200
25,400167	0,5	-0,507950
25,408500	0,5	-0,500250
25,416833	0,5	-0,504500
25,425167	0,5	-0,500150
25,433500	0,5	-0,502400
25,441833	0,5	-0,498000
25,450167	0,5	-0,491000
25,458500	0,5	-0,491500
25,466833	0,5	-0,494700
25,475167	0,5	-0,496650
25,483500	0,5	-0,495150
25,491833	0,5	-0,499800
25,500167	0,5	-0,499350
25,508500	0,5	-0,498450
25,516833	0,5	-0,497200
25,525167	0,5	-0,500350
25,533500	0,5	-0,500650
25,541833	0,5	-0,488300
25,550167	0,5	-0,490250
25,558500	0,5	-0,493000
25,566833	0,5	-0,500050
25,575167	0,5	-0,494100
25,583500	0,5	-0,493300
25,591833	0,5	-0,489400
25,600167	0,5	-0,485050
25,608500	0,5	-0,487300
25,616833	0,5	-0,489950
25,625167	0,5	-0,485700
25,633500	0,5	-0,484900
25,641833	0,5	-0,484650
25,650167	0,5	-0,478250
25,658500	0,5	-0,481650
25,666833	0,5	-0,478600
25,675167	0,5	-0,481250
25,683500	0,5	-0,470500
25,691833	0,5	-0,467250
25,700167	0,5	-0,464650
25,708500	0,5	-0,470800
25,716833	0,5	-0,477900
25,725167	0,5	-0,476350
25,733500	0,5	-0,478500
25,741833	0,5	-0,473800
25,750167	0,5	-0,470500
25,758500	0,5	-0,474800
25,766833	0,5	-0,472200
25,775167	0,5	-0,473100
25,783500	0,5	-0,475300
25,791833	0,5	-0,471500
25,800167	0,5	-0,474250
25,808500	0,5	-0,469400
25,816833	0,5	-0,468050
25,825167	0,5	-0,461700
25,833500	0,5	-0,453400
25,841833	0,5	-0,444700
25,850167	0,5	-0,445900
25,858500	0,5	-0,450850
25,866833	0,5	-0,451650
25,875167	0,5	-0,453950
25,883500	0,5	-0,449650
25,891833	0,5	-0,436750
25,900167	0,5	-0,439200
25,908500	0,5	-0,440850
25,916833	0,5	-0,439550
25,925167	0,5	-0,433650
25,933500	0,5	-0,436500
25,941833	0,5	-0,432700
25,950167	0,5	-0,432050
25,958500	0,5	-0,427050
25,966833	0,5	-0,425400
25,975167	0,5	-0,416600
25,983500	0,5	-0,407800
25,991833	0,5	-0,396950
26,000167	0,5	-0,392850
