File Path	chrom://chromeleon01/ikbm_chromeleon/2022/ICS-5000/ED1/Esteban/20220427_Cell_Amandas_mutants.seq/252.smp/ED_1.channel/ED_1.chm
Channel	ED_1

Injection Information:
Data Vault	ikbm_chromeleon
Injection	T24h_BMCC_3b
Injection Number	55
Position	GA7
Comment	
Processing Method	Stop sequence after Cell Death
Instrument Method	ICS5000_PA200_FullNative_Ox_26min_ED1
Type	Unknown
Status	Finished
Injection Date	28.04.2022
Injection Time	14:44:53
Injection Volume (µl)	5,0
Dilution Factor	1,0000
Weight	1,0000

Chromatogram Data Information:
Time Min. (min)	0,000333
Time Max. (min)	26,000333
Data Points	3121
Detector	EDet1
Generating Data System	Chromeleon 7.2.9.11323
Exporting Data System	Chromeleon 7.2.9.0
Operator	Instrument Controller
Signal Quantity	
Signal Unit	nC
Signal Min.	-8,341450
Signal Max.	40,292451
Channel	ED_1
Driver Name	DC-5000
Channel Type	Evaluation
Min. Step (s)	0,5
Max. Step (s)	0,5
Average Step (s)	0,5

Signal Parameter Information:
Signal Info	

Chromatogram Data:
Time (min)	Step (s)	Value (nC)
0,000333	n.a.	-0,039600
0,008667	0,5	-0,097550
0,017000	0,5	-0,098650
0,025333	0,5	-0,071550
0,033667	0,5	-0,070700
0,042000	0,5	-0,035550
0,050333	0,5	-0,040500
0,058667	0,5	-0,047250
0,067000	0,5	-0,051700
0,075333	0,5	-0,030000
0,083667	0,5	0,007350
0,092000	0,5	0,031900
0,100333	0,5	0,004450
0,108667	0,5	0,009400
0,117000	0,5	-0,006200
0,125333	0,5	0,002100
0,133667	0,5	-0,011100
0,142000	0,5	-0,000500
0,150333	0,5	-0,021550
0,158667	0,5	0,000400
0,167000	0,5	-0,000950
0,175333	0,5	-0,006000
0,183667	0,5	-0,022000
0,192000	0,5	0,008300
0,200333	0,5	-0,024450
0,208667	0,5	-0,027950
0,217000	0,5	-0,030750
0,225333	0,5	-0,006800
0,233667	0,5	0,032300
0,242000	0,5	0,024250
0,250333	0,5	0,025500
0,258667	0,5	0,032650
0,267000	0,5	0,028250
0,275333	0,5	0,009800
0,283667	0,5	0,014300
0,292000	0,5	-0,000550
0,300333	0,5	0,017250
0,308667	0,5	0,063750
0,317000	0,5	0,047650
0,325333	0,5	-0,020950
0,333667	0,5	-0,029050
0,342000	0,5	-0,024600
0,350333	0,5	-0,032250
0,358667	0,5	-0,039800
0,367000	0,5	-0,030950
0,375333	0,5	-0,001300
0,383667	0,5	0,023100
0,392000	0,5	0,028800
0,400333	0,5	0,016500
0,408667	0,5	0,016200
0,417000	0,5	0,007700
0,425333	0,5	0,002450
0,433667	0,5	-0,001100
0,442000	0,5	-0,002150
0,450333	0,5	-0,006550
0,458667	0,5	0,013950
0,467000	0,5	-0,002800
0,475333	0,5	-0,013550
0,483667	0,5	-0,002250
0,492000	0,5	-0,002000
0,500333	0,5	-0,021000
0,508667	0,5	-0,012450
0,517000	0,5	-0,014300
0,525333	0,5	0,033400
0,533667	0,5	0,045400
0,542000	0,5	0,040150
0,550333	0,5	0,038050
0,558667	0,5	0,052600
0,567000	0,5	0,043100
0,575333	0,5	0,039800
0,583667	0,5	0,040350
0,592000	0,5	0,027850
0,600333	0,5	0,029600
0,608667	0,5	0,028500
0,617000	0,5	0,039650
0,625333	0,5	0,026950
0,633667	0,5	0,069550
0,642000	0,5	0,042200
0,650333	0,5	0,030750
0,658667	0,5	0,045950
0,667000	0,5	0,069900
0,675333	0,5	0,093900
0,683667	0,5	0,091000
0,692000	0,5	0,081000
0,700333	0,5	0,086600
0,708667	0,5	0,082350
0,717000	0,5	0,079400
0,725333	0,5	0,073850
0,733667	0,5	0,079900
0,742000	0,5	0,082950
0,750333	0,5	0,082550
0,758667	0,5	0,104950
0,767000	0,5	0,084650
0,775333	0,5	0,095050
0,783667	0,5	0,106850
0,792000	0,5	0,089850
0,800333	0,5	0,079650
0,808667	0,5	0,093850
0,817000	0,5	0,116500
0,825333	0,5	0,158850
0,833667	0,5	0,127900
0,842000	0,5	0,133000
0,850333	0,5	0,131300
0,858667	0,5	0,147100
0,867000	0,5	0,133850
0,875333	0,5	0,144850
0,883667	0,5	0,137600
0,892000	0,5	0,135250
0,900333	0,5	0,139050
0,908667	0,5	0,150850
0,917000	0,5	0,138900
0,925333	0,5	0,174700
0,933667	0,5	0,170900
0,942000	0,5	0,156500
0,950333	0,5	0,153700
0,958667	0,5	0,176800
0,967000	0,5	0,205050
0,975333	0,5	0,218350
0,983667	0,5	0,216050
0,992000	0,5	0,203800
1,000333	0,5	0,214150
1,008667	0,5	0,201450
1,017000	0,5	0,213950
1,025333	0,5	0,205550
1,033667	0,5	0,211450
1,042000	0,5	0,209800
1,050333	0,5	0,220950
1,058667	0,5	0,264600
1,067000	0,5	0,256300
1,075333	0,5	0,276250
1,083667	0,5	0,257400
1,092000	0,5	0,248300
1,100333	0,5	0,250250
1,108667	0,5	0,265350
1,117000	0,5	0,301700
1,125333	0,5	0,314150
1,133667	0,5	0,300250
1,142000	0,5	0,310350
1,150333	0,5	0,305400
1,158667	0,5	0,317850
1,167000	0,5	0,314750
1,175333	0,5	0,347500
1,183667	0,5	0,325950
1,192000	0,5	0,338200
1,200333	0,5	0,342050
1,208667	0,5	0,359900
1,217000	0,5	0,357950
1,225333	0,5	0,390250
1,233667	0,5	0,362750
1,242000	0,5	0,371450
1,250333	0,5	0,381850
1,258667	0,5	0,428050
1,267000	0,5	0,464000
1,275333	0,5	0,456700
1,283667	0,5	0,451800
1,292000	0,5	0,463050
1,300333	0,5	0,472700
1,308667	0,5	0,475000
1,317000	0,5	0,482950
1,325333	0,5	0,485300
1,333667	0,5	0,477050
1,342000	0,5	0,491100
1,350333	0,5	0,509000
1,358667	0,5	0,515600
1,367000	0,5	0,541150
1,375333	0,5	0,543700
1,383667	0,5	0,531650
1,392000	0,5	0,537200
1,400333	0,5	0,555150
1,408667	0,5	0,589450
1,417000	0,5	0,629650
1,425333	0,5	0,633350
1,433667	0,5	0,630600
1,442000	0,5	0,632200
1,450333	0,5	0,641200
1,458667	0,5	0,646050
1,467000	0,5	0,649700
1,475333	0,5	0,649950
1,483667	0,5	0,644950
1,492000	0,5	0,658500
1,500333	0,5	0,662950
1,508667	0,5	0,670750
1,517000	0,5	0,691050
1,525333	0,5	0,681300
1,533667	0,5	0,665750
1,542000	0,5	0,674350
1,550333	0,5	0,683300
1,558667	0,5	0,734400
1,567000	0,5	0,719100
1,575333	0,5	0,634700
1,583667	0,5	0,238200
1,592000	0,5	-0,646050
1,600333	0,5	-1,259400
1,608667	0,5	-0,316850
1,617000	0,5	1,765750
1,625333	0,5	3,820100
1,633667	0,5	5,878000
1,642000	0,5	7,961200
1,650333	0,5	9,468750
1,658667	0,5	9,874900
1,667000	0,5	9,490650
1,675333	0,5	8,744100
1,683667	0,5	7,949900
1,692000	0,5	7,193450
1,700333	0,5	6,529900
1,708667	0,5	5,958500
1,717000	0,5	5,470900
1,725333	0,5	5,086300
1,733667	0,5	4,788150
1,742000	0,5	4,435400
1,750333	0,5	4,075900
1,758667	0,5	3,753600
1,767000	0,5	3,555650
1,775333	0,5	3,592200
1,783667	0,5	4,170450
1,792000	0,5	5,696250
1,800333	0,5	8,045800
1,808667	0,5	10,195350
1,817000	0,5	11,289600
1,825333	0,5	11,231050
1,833667	0,5	10,304650
1,842000	0,5	9,047950
1,850333	0,5	7,920600
1,858667	0,5	7,044400
1,867000	0,5	6,328800
1,875333	0,5	5,807800
1,883667	0,5	5,381750
1,892000	0,5	5,025200
1,900333	0,5	4,705100
1,908667	0,5	4,436250
1,917000	0,5	4,192100
1,925333	0,5	3,994800
1,933667	0,5	3,827600
1,942000	0,5	3,697700
1,950333	0,5	3,595750
1,958667	0,5	3,566100
1,967000	0,5	3,487400
1,975333	0,5	3,459350
1,983667	0,5	3,457350
1,992000	0,5	3,469200
2,000333	0,5	3,500950
2,008667	0,5	3,512600
2,017000	0,5	3,562850
2,025333	0,5	3,694500
2,033667	0,5	4,046950
2,042000	0,5	4,582500
2,050333	0,5	5,118750
2,058667	0,5	5,573800
2,067000	0,5	6,141250
2,075333	0,5	6,914700
2,083667	0,5	7,716750
2,092000	0,5	8,329350
2,100333	0,5	8,699000
2,108667	0,5	8,931650
2,117000	0,5	9,038300
2,125333	0,5	9,197100
2,133667	0,5	9,477200
2,142000	0,5	9,915350
2,150333	0,5	10,563250
2,158667	0,5	11,302850
2,167000	0,5	11,297550
2,175333	0,5	11,484200
2,183667	0,5	10,757300
2,192000	0,5	10,038200
2,200333	0,5	9,535350
2,208667	0,5	9,216400
2,217000	0,5	9,004650
2,225333	0,5	8,885150
2,233667	0,5	8,819200
2,242000	0,5	8,812600
2,250333	0,5	8,820600
2,258667	0,5	8,859250
2,267000	0,5	8,824200
2,275333	0,5	8,828050
2,283667	0,5	8,842400
2,292000	0,5	8,875400
2,300333	0,5	8,937650
2,308667	0,5	8,962700
2,317000	0,5	9,002250
2,325333	0,5	9,065650
2,333667	0,5	9,123850
2,342000	0,5	9,190150
2,350333	0,5	9,268450
2,358667	0,5	9,342450
2,367000	0,5	9,421500
2,375333	0,5	9,504000
2,383667	0,5	9,583100
2,392000	0,5	9,652450
2,400333	0,5	9,746500
2,408667	0,5	9,790350
2,417000	0,5	9,687850
2,425333	0,5	9,540800
2,433667	0,5	9,475100
2,442000	0,5	9,528500
2,450333	0,5	9,629700
2,458667	0,5	9,706550
2,467000	0,5	9,797800
2,475333	0,5	9,879950
2,483667	0,5	9,958200
2,492000	0,5	10,032500
2,500333	0,5	10,108100
2,508667	0,5	10,181150
2,517000	0,5	10,249300
2,525333	0,5	10,347300
2,533667	0,5	10,435300
2,542000	0,5	10,578550
2,550333	0,5	10,817100
2,558667	0,5	11,155750
2,567000	0,5	11,682700
2,575333	0,5	12,460350
2,583667	0,5	13,445300
2,592000	0,5	14,531500
2,600333	0,5	15,480000
2,608667	0,5	16,183100
2,617000	0,5	16,619350
2,625333	0,5	16,912400
2,633667	0,5	17,117050
2,642000	0,5	17,315150
2,650333	0,5	17,443500
2,658667	0,5	17,461800
2,667000	0,5	17,370350
2,675333	0,5	17,279700
2,683667	0,5	17,387000
2,692000	0,5	18,009400
2,700333	0,5	19,423800
2,708667	0,5	21,731550
2,717000	0,5	24,790750
2,725333	0,5	28,185850
2,733667	0,5	31,461800
2,742000	0,5	34,235851
2,750333	0,5	36,218001
2,758667	0,5	37,187651
2,767000	0,5	37,119651
2,775333	0,5	36,156101
2,783667	0,5	34,644701
2,792000	0,5	32,824900
2,800333	0,5	30,924200
2,808667	0,5	29,212900
2,817000	0,5	28,186700
2,825333	0,5	28,481450
2,833667	0,5	30,557750
2,842000	0,5	34,172751
2,850333	0,5	37,989801
2,858667	0,5	40,292451
2,867000	0,5	40,045351
2,875333	0,5	37,450801
2,883667	0,5	33,587251
2,892000	0,5	29,557350
2,900333	0,5	26,030700
2,908667	0,5	23,187700
2,917000	0,5	20,827050
2,925333	0,5	18,770600
2,933667	0,5	16,905550
2,942000	0,5	15,231550
2,950333	0,5	13,745950
2,958667	0,5	12,474300
2,967000	0,5	11,395450
2,975333	0,5	10,485250
2,983667	0,5	9,714150
2,992000	0,5	9,105800
3,000333	0,5	8,538950
3,008667	0,5	8,066700
3,017000	0,5	7,652900
3,025333	0,5	7,301450
3,033667	0,5	7,011250
3,042000	0,5	6,706550
3,050333	0,5	6,428900
3,058667	0,5	6,177400
3,067000	0,5	5,945450
3,075333	0,5	5,718150
3,083667	0,5	5,505000
3,092000	0,5	5,295250
3,100333	0,5	5,104150
3,108667	0,5	4,930000
3,117000	0,5	4,788200
3,125333	0,5	4,652650
3,133667	0,5	4,554900
3,142000	0,5	4,508500
3,150333	0,5	4,472650
3,158667	0,5	4,491250
3,167000	0,5	4,573100
3,175333	0,5	4,742500
3,183667	0,5	5,082600
3,192000	0,5	5,624700
3,200333	0,5	6,567050
3,208667	0,5	8,049200
3,217000	0,5	10,077250
3,225333	0,5	12,430900
3,233667	0,5	14,682850
3,242000	0,5	16,336400
3,250333	0,5	17,053900
3,258667	0,5	16,786600
3,267000	0,5	15,672750
3,275333	0,5	14,021550
3,283667	0,5	12,152300
3,292000	0,5	10,334400
3,300333	0,5	8,681250
3,308667	0,5	7,319200
3,317000	0,5	6,236300
3,325333	0,5	5,394450
3,333667	0,5	4,739000
3,342000	0,5	4,200450
3,350333	0,5	3,781300
3,358667	0,5	3,457150
3,367000	0,5	3,174900
3,375333	0,5	2,945800
3,383667	0,5	2,750450
3,392000	0,5	2,588350
3,400333	0,5	2,450750
3,408667	0,5	2,343200
3,417000	0,5	2,246050
3,425333	0,5	2,159950
3,433667	0,5	2,111100
3,442000	0,5	2,044750
3,450333	0,5	1,980750
3,458667	0,5	1,913500
3,467000	0,5	1,850400
3,475333	0,5	1,789750
3,483667	0,5	1,731850
3,492000	0,5	1,637150
3,500333	0,5	1,570350
3,508667	0,5	1,496500
3,517000	0,5	1,436150
3,525333	0,5	1,374400
3,533667	0,5	1,326600
3,542000	0,5	1,274550
3,550333	0,5	1,235650
3,558667	0,5	1,209000
3,567000	0,5	1,150700
3,575333	0,5	1,108150
3,583667	0,5	1,095000
3,592000	0,5	1,050700
3,600333	0,5	1,014450
3,608667	0,5	0,992150
3,617000	0,5	0,976100
3,625333	0,5	0,967900
3,633667	0,5	0,945350
3,642000	0,5	0,927650
3,650333	0,5	0,884950
3,658667	0,5	0,867150
3,667000	0,5	0,827450
3,675333	0,5	0,808450
3,683667	0,5	0,776000
3,692000	0,5	0,749600
3,700333	0,5	0,726250
3,708667	0,5	0,703350
3,717000	0,5	0,666650
3,725333	0,5	0,660800
3,733667	0,5	0,648200
3,742000	0,5	0,630800
3,750333	0,5	0,610600
3,758667	0,5	0,610600
3,767000	0,5	0,636650
3,775333	0,5	0,641800
3,783667	0,5	0,631400
3,792000	0,5	0,619400
3,800333	0,5	0,614250
3,808667	0,5	0,594900
3,817000	0,5	0,578600
3,825333	0,5	0,556700
3,833667	0,5	0,542400
3,842000	0,5	0,520700
3,850333	0,5	0,518800
3,858667	0,5	0,496700
3,867000	0,5	0,480300
3,875333	0,5	0,483800
3,883667	0,5	0,466800
3,892000	0,5	0,446450
3,900333	0,5	0,430800
3,908667	0,5	0,425750
3,917000	0,5	0,441400
3,925333	0,5	0,441150
3,933667	0,5	0,420800
3,942000	0,5	0,412550
3,950333	0,5	0,403700
3,958667	0,5	0,396400
3,967000	0,5	0,392600
3,975333	0,5	0,391100
3,983667	0,5	0,376450
3,992000	0,5	0,370700
4,000333	0,5	0,361850
4,008667	0,5	0,343650
4,017000	0,5	0,322700
4,025333	0,5	0,344400
4,033667	0,5	0,323000
4,042000	0,5	0,318150
4,050333	0,5	0,316700
4,058667	0,5	0,325000
4,067000	0,5	0,353350
4,075333	0,5	0,343000
4,083667	0,5	0,325550
4,092000	0,5	0,327550
4,100333	0,5	0,319400
4,108667	0,5	0,309300
4,117000	0,5	0,303000
4,125333	0,5	0,295400
4,133667	0,5	0,295750
4,142000	0,5	0,288200
4,150333	0,5	0,289200
4,158667	0,5	0,276000
4,167000	0,5	0,279900
4,175333	0,5	0,295000
4,183667	0,5	0,269700
4,192000	0,5	0,261400
4,200333	0,5	0,264100
4,208667	0,5	0,272350
4,217000	0,5	0,302500
4,225333	0,5	0,287500
4,233667	0,5	0,287500
4,242000	0,5	0,279850
4,250333	0,5	0,282100
4,258667	0,5	0,271150
4,267000	0,5	0,284300
4,275333	0,5	0,281750
4,283667	0,5	0,277300
4,292000	0,5	0,279800
4,300333	0,5	0,281750
4,308667	0,5	0,279050
4,317000	0,5	0,283900
4,325333	0,5	0,287200
4,333667	0,5	0,270050
4,342000	0,5	0,278850
4,350333	0,5	0,285400
4,358667	0,5	0,318900
4,367000	0,5	0,346700
4,375333	0,5	0,346900
4,383667	0,5	0,353950
4,392000	0,5	0,373300
4,400333	0,5	0,379450
4,408667	0,5	0,394400
4,417000	0,5	0,405050
4,425333	0,5	0,411650
4,433667	0,5	0,409850
4,442000	0,5	0,416800
4,450333	0,5	0,419700
4,458667	0,5	0,413800
4,467000	0,5	0,425050
4,475333	0,5	0,413450
4,483667	0,5	0,391250
4,492000	0,5	0,386900
4,500333	0,5	0,396450
4,508667	0,5	0,411300
4,517000	0,5	0,429250
4,525333	0,5	0,418600
4,533667	0,5	0,424450
4,542000	0,5	0,419950
4,550333	0,5	0,420800
4,558667	0,5	0,407400
4,567000	0,5	0,407750
4,575333	0,5	0,400250
4,583667	0,5	0,398150
4,592000	0,5	0,388400
4,600333	0,5	0,383450
4,608667	0,5	0,371150
4,617000	0,5	0,380300
4,625333	0,5	0,354900
4,633667	0,5	0,355400
4,642000	0,5	0,347350
4,650333	0,5	0,368100
4,658667	0,5	0,387600
4,667000	0,5	0,387800
4,675333	0,5	0,394800
4,683667	0,5	0,388400
4,692000	0,5	0,387150
4,700333	0,5	0,385000
4,708667	0,5	0,390450
4,717000	0,5	0,390600
4,725333	0,5	0,394750
4,733667	0,5	0,394700
4,742000	0,5	0,398600
4,750333	0,5	0,391950
4,758667	0,5	0,414050
4,767000	0,5	0,420400
4,775333	0,5	0,416300
4,783667	0,5	0,422900
4,792000	0,5	0,421200
4,800333	0,5	0,447450
4,808667	0,5	0,459000
4,817000	0,5	0,461000
4,825333	0,5	0,451200
4,833667	0,5	0,455500
4,842000	0,5	0,453350
4,850333	0,5	0,450200
4,858667	0,5	0,453900
4,867000	0,5	0,448950
4,875333	0,5	0,449050
4,883667	0,5	0,456950
4,892000	0,5	0,461600
4,900333	0,5	0,457350
4,908667	0,5	0,476600
4,917000	0,5	0,469700
4,925333	0,5	0,470300
4,933667	0,5	0,468850
4,942000	0,5	0,480150
4,950333	0,5	0,513500
4,958667	0,5	0,513400
4,967000	0,5	0,512250
4,975333	0,5	0,517750
4,983667	0,5	0,522450
4,992000	0,5	0,518050
5,000333	0,5	0,523200
5,008667	0,5	0,535550
5,017000	0,5	0,526700
5,025333	0,5	0,534100
5,033667	0,5	0,537150
5,042000	0,5	0,549150
5,050333	0,5	0,544950
5,058667	0,5	0,572950
5,067000	0,5	0,556150
5,075333	0,5	0,557450
5,083667	0,5	0,567550
5,092000	0,5	0,583500
5,100333	0,5	0,604800
5,108667	0,5	0,598500
5,117000	0,5	0,593450
5,125333	0,5	0,604650
5,133667	0,5	0,605450
5,142000	0,5	0,610450
5,150333	0,5	0,613150
5,158667	0,5	0,616150
5,167000	0,5	0,619150
5,175333	0,5	0,628400
5,183667	0,5	0,651250
5,192000	0,5	0,645450
5,200333	0,5	0,667300
5,208667	0,5	0,696600
5,217000	0,5	0,695650
5,225333	0,5	0,708750
5,233667	0,5	0,728000
5,242000	0,5	0,753350
5,250333	0,5	0,788000
5,258667	0,5	0,775900
5,267000	0,5	0,787850
5,275333	0,5	0,782350
5,283667	0,5	0,791550
5,292000	0,5	0,776100
5,300333	0,5	0,770950
5,308667	0,5	0,762100
5,317000	0,5	0,760100
5,325333	0,5	0,757500
5,333667	0,5	0,755550
5,342000	0,5	0,736950
5,350333	0,5	0,749450
5,358667	0,5	0,741550
5,367000	0,5	0,736300
5,375333	0,5	0,737750
5,383667	0,5	0,757450
5,392000	0,5	0,784650
5,400333	0,5	0,791100
5,408667	0,5	0,795050
5,417000	0,5	0,791150
5,425333	0,5	0,803250
5,433667	0,5	0,799250
5,442000	0,5	0,807900
5,450333	0,5	0,805800
5,458667	0,5	0,812350
5,467000	0,5	0,814750
5,475333	0,5	0,822950
5,483667	0,5	0,834600
5,492000	0,5	0,836550
5,500333	0,5	0,852350
5,508667	0,5	0,850550
5,517000	0,5	0,847250
5,525333	0,5	0,856300
5,533667	0,5	0,872500
5,542000	0,5	0,894600
5,550333	0,5	0,909250
5,558667	0,5	0,907500
5,567000	0,5	0,918550
5,575333	0,5	0,922500
5,583667	0,5	0,924050
5,592000	0,5	0,931050
5,600333	0,5	0,938600
5,608667	0,5	0,936900
5,617000	0,5	0,945950
5,625333	0,5	0,949750
5,633667	0,5	0,945700
5,642000	0,5	0,953500
5,650333	0,5	0,969450
5,658667	0,5	0,961600
5,667000	0,5	0,965750
5,675333	0,5	0,973300
5,683667	0,5	0,999050
5,692000	0,5	1,034150
5,700333	0,5	1,038900
5,708667	0,5	1,043000
5,717000	0,5	1,048300
5,725333	0,5	1,053600
5,733667	0,5	1,058800
5,742000	0,5	1,063100
5,750333	0,5	1,067000
5,758667	0,5	1,074600
5,767000	0,5	1,079650
5,775333	0,5	1,084950
5,783667	0,5	1,073300
5,792000	0,5	1,101150
5,800333	0,5	1,103650
5,808667	0,5	1,103750
5,817000	0,5	1,111650
5,825333	0,5	1,123950
5,833667	0,5	1,154450
5,842000	0,5	1,175000
5,850333	0,5	1,177650
5,858667	0,5	1,184400
5,867000	0,5	1,194850
5,875333	0,5	1,200300
5,883667	0,5	1,209150
5,892000	0,5	1,224300
5,900333	0,5	1,227300
5,908667	0,5	1,233350
5,917000	0,5	1,240500
5,925333	0,5	1,240150
5,933667	0,5	1,242050
5,942000	0,5	1,263600
5,950333	0,5	1,264250
5,958667	0,5	1,258750
5,967000	0,5	1,265350
5,975333	0,5	1,272200
5,983667	0,5	1,307400
5,992000	0,5	1,317400
6,000333	0,5	1,322700
6,008667	0,5	1,322700
6,017000	0,5	1,332800
6,025333	0,5	1,329200
6,033667	0,5	1,337350
6,042000	0,5	1,339450
6,050333	0,5	1,342300
6,058667	0,5	1,351650
6,067000	0,5	1,352050
6,075333	0,5	1,351750
6,083667	0,5	1,359150
6,092000	0,5	1,380350
6,100333	0,5	1,377950
6,108667	0,5	1,381050
6,117000	0,5	1,386050
6,125333	0,5	1,409200
6,133667	0,5	1,428700
6,142000	0,5	1,426550
6,150333	0,5	1,425550
6,158667	0,5	1,441350
6,167000	0,5	1,441800
6,175333	0,5	1,458350
6,183667	0,5	1,459500
6,192000	0,5	1,463700
6,200333	0,5	1,466850
6,208667	0,5	1,473150
6,217000	0,5	1,482900
6,225333	0,5	1,477550
6,233667	0,5	1,490800
6,242000	0,5	1,499350
6,250333	0,5	1,501150
6,258667	0,5	1,499400
6,267000	0,5	1,511150
6,275333	0,5	1,537850
6,283667	0,5	1,560950
6,292000	0,5	1,554700
6,300333	0,5	1,570000
6,308667	0,5	1,574350
6,317000	0,5	1,580550
6,325333	0,5	1,581950
6,333667	0,5	1,596950
6,342000	0,5	1,600600
6,350333	0,5	1,610800
6,358667	0,5	1,619550
6,367000	0,5	1,619800
6,375333	0,5	1,623350
6,383667	0,5	1,648450
6,392000	0,5	1,643200
6,400333	0,5	1,654850
6,408667	0,5	1,661650
6,417000	0,5	1,679950
6,425333	0,5	1,707700
6,433667	0,5	1,721350
6,442000	0,5	1,720300
6,450333	0,5	1,723450
6,458667	0,5	1,734400
6,467000	0,5	1,732500
6,475333	0,5	1,741950
6,483667	0,5	1,740800
6,492000	0,5	1,747750
6,500333	0,5	1,750950
6,508667	0,5	1,761700
6,517000	0,5	1,756850
6,525333	0,5	1,758450
6,533667	0,5	1,776850
6,542000	0,5	1,774150
6,550333	0,5	1,775850
6,558667	0,5	1,784800
6,567000	0,5	1,802050
6,575333	0,5	1,824300
6,583667	0,5	1,840900
6,592000	0,5	1,839000
6,600333	0,5	1,854250
6,608667	0,5	1,860350
6,617000	0,5	1,864550
6,625333	0,5	1,869550
6,633667	0,5	1,875850
6,642000	0,5	1,878750
6,650333	0,5	1,889500
6,658667	0,5	1,898750
6,667000	0,5	1,905650
6,675333	0,5	1,909250
6,683667	0,5	1,917350
6,692000	0,5	1,913050
6,700333	0,5	1,924000
6,708667	0,5	1,929500
6,717000	0,5	1,957800
6,725333	0,5	1,972900
6,733667	0,5	1,989350
6,742000	0,5	1,992000
6,750333	0,5	2,003150
6,758667	0,5	2,003350
6,767000	0,5	2,008900
6,775333	0,5	2,014050
6,783667	0,5	2,018150
6,792000	0,5	2,019750
6,800333	0,5	2,021800
6,808667	0,5	2,028900
6,817000	0,5	2,024850
6,825333	0,5	2,034550
6,833667	0,5	2,039750
6,842000	0,5	2,039800
6,850333	0,5	2,043750
6,858667	0,5	2,051650
6,867000	0,5	2,073100
6,875333	0,5	2,083100
6,883667	0,5	2,083850
6,892000	0,5	2,088000
6,900333	0,5	2,083300
6,908667	0,5	2,090350
6,917000	0,5	2,088350
6,925333	0,5	2,089800
6,933667	0,5	2,088600
6,942000	0,5	2,091550
6,950333	0,5	2,092650
6,958667	0,5	2,074850
6,967000	0,5	2,067000
6,975333	0,5	2,074700
6,983667	0,5	2,071200
6,992000	0,5	2,059800
7,000333	0,5	2,058800
7,008667	0,5	2,065700
7,017000	0,5	2,080000
7,025333	0,5	2,077450
7,033667	0,5	2,079950
7,042000	0,5	2,076500
7,050333	0,5	2,074800
7,058667	0,5	2,064950
7,067000	0,5	2,065400
7,075333	0,5	2,060050
7,083667	0,5	2,059700
7,092000	0,5	2,062650
7,100333	0,5	2,066050
7,108667	0,5	2,062800
7,117000	0,5	2,084700
7,125333	0,5	2,102850
7,133667	0,5	2,117400
7,142000	0,5	2,129400
7,150333	0,5	2,133750
7,158667	0,5	2,133600
7,167000	0,5	2,120650
7,175333	0,5	2,095950
7,183667	0,5	2,061750
7,192000	0,5	2,034150
7,200333	0,5	2,008600
7,208667	0,5	1,989200
7,217000	0,5	1,972200
7,225333	0,5	1,958750
7,233667	0,5	1,941050
7,242000	0,5	1,927650
7,250333	0,5	1,914350
7,258667	0,5	1,901550
7,267000	0,5	1,893200
7,275333	0,5	1,884050
7,283667	0,5	1,870650
7,292000	0,5	1,859950
7,300333	0,5	1,855650
7,308667	0,5	1,860700
7,317000	0,5	1,863850
7,325333	0,5	1,851700
7,333667	0,5	1,842800
7,342000	0,5	1,837750
7,350333	0,5	1,840900
7,358667	0,5	1,831550
7,367000	0,5	1,830000
7,375333	0,5	1,825100
7,383667	0,5	1,826450
7,392000	0,5	1,829050
7,400333	0,5	1,827250
7,408667	0,5	1,822250
7,417000	0,5	1,835600
7,425333	0,5	1,836750
7,433667	0,5	1,841650
7,442000	0,5	1,847700
7,450333	0,5	1,862400
7,458667	0,5	1,891750
7,467000	0,5	1,906250
7,475333	0,5	1,928200
7,483667	0,5	1,957450
7,492000	0,5	1,998200
7,500333	0,5	2,055900
7,508667	0,5	2,130100
7,517000	0,5	2,236600
7,525333	0,5	2,350950
7,533667	0,5	2,470250
7,542000	0,5	2,578400
7,550333	0,5	2,655100
7,558667	0,5	2,704000
7,567000	0,5	2,723250
7,575333	0,5	2,704100
7,583667	0,5	2,657850
7,592000	0,5	2,601900
7,600333	0,5	2,550400
7,608667	0,5	2,502850
7,617000	0,5	2,460900
7,625333	0,5	2,421500
7,633667	0,5	2,378800
7,642000	0,5	2,340050
7,650333	0,5	2,292600
7,658667	0,5	2,250100
7,667000	0,5	2,213350
7,675333	0,5	2,176450
7,683667	0,5	2,147800
7,692000	0,5	2,121800
7,700333	0,5	2,102400
7,708667	0,5	2,085050
7,717000	0,5	2,074300
7,725333	0,5	2,057450
7,733667	0,5	2,044300
7,742000	0,5	2,037050
7,750333	0,5	2,038000
7,758667	0,5	2,039250
7,767000	0,5	2,034950
7,775333	0,5	2,026700
7,783667	0,5	2,023500
7,792000	0,5	2,015900
7,800333	0,5	2,010200
7,808667	0,5	2,006550
7,817000	0,5	2,005000
7,825333	0,5	2,001900
7,833667	0,5	2,000450
7,842000	0,5	2,002050
7,850333	0,5	2,001350
7,858667	0,5	2,003700
7,867000	0,5	2,003550
7,875333	0,5	2,002000
7,883667	0,5	2,005100
7,892000	0,5	2,016000
7,900333	0,5	2,035600
7,908667	0,5	2,047250
7,917000	0,5	2,041150
7,925333	0,5	2,039850
7,933667	0,5	2,028800
7,942000	0,5	2,018900
7,950333	0,5	2,010850
7,958667	0,5	1,998650
7,967000	0,5	1,989250
7,975333	0,5	1,981500
7,983667	0,5	1,979550
7,992000	0,5	1,973400
8,000333	0,5	1,970900
8,008667	0,5	1,973950
8,017000	0,5	1,978800
8,025333	0,5	1,987950
8,033667	0,5	2,010100
8,042000	0,5	2,041850
8,050333	0,5	2,083100
8,058667	0,5	2,111250
8,067000	0,5	2,121350
8,075333	0,5	2,111150
8,083667	0,5	2,087200
8,092000	0,5	2,052100
8,100333	0,5	2,024850
8,108667	0,5	2,000200
8,117000	0,5	1,982750
8,125333	0,5	1,989400
8,133667	0,5	1,999900
8,142000	0,5	2,014800
8,150333	0,5	2,039750
8,158667	0,5	2,068600
8,167000	0,5	2,091300
8,175333	0,5	2,100000
8,183667	0,5	2,112250
8,192000	0,5	2,119100
8,200333	0,5	2,115300
8,208667	0,5	2,106100
8,217000	0,5	2,089750
8,225333	0,5	2,073700
8,233667	0,5	2,058900
8,242000	0,5	2,050200
8,250333	0,5	2,040100
8,258667	0,5	2,038250
8,267000	0,5	2,034700
8,275333	0,5	2,034650
8,283667	0,5	2,036500
8,292000	0,5	2,037650
8,300333	0,5	2,044900
8,308667	0,5	2,064750
8,317000	0,5	2,076150
8,325333	0,5	2,108900
8,333667	0,5	2,136750
8,342000	0,5	2,153550
8,350333	0,5	2,116800
8,358667	0,5	2,035350
8,367000	0,5	1,934800
8,375333	0,5	1,851000
8,383667	0,5	1,782050
8,392000	0,5	1,729400
8,400333	0,5	1,686950
8,408667	0,5	1,655800
8,417000	0,5	1,629650
8,425333	0,5	1,619000
8,433667	0,5	1,610550
8,442000	0,5	1,594400
8,450333	0,5	1,595450
8,458667	0,5	1,587750
8,467000	0,5	1,582800
8,475333	0,5	1,581700
8,483667	0,5	1,591100
8,492000	0,5	1,603200
8,500333	0,5	1,611200
8,508667	0,5	1,610550
8,517000	0,5	1,613250
8,525333	0,5	1,613450
8,533667	0,5	1,614550
8,542000	0,5	1,609850
8,550333	0,5	1,610250
8,558667	0,5	1,604250
8,567000	0,5	1,606850
8,575333	0,5	1,607500
8,583667	0,5	1,608800
8,592000	0,5	1,612900
8,600333	0,5	1,617300
8,608667	0,5	1,624050
8,617000	0,5	1,627600
8,625333	0,5	1,630550
8,633667	0,5	1,633050
8,642000	0,5	1,635900
8,650333	0,5	1,636350
8,658667	0,5	1,631900
8,667000	0,5	1,632450
8,675333	0,5	1,635100
8,683667	0,5	1,638650
8,692000	0,5	1,646350
8,700333	0,5	1,660950
8,708667	0,5	1,673800
8,717000	0,5	1,687600
8,725333	0,5	1,702250
8,733667	0,5	1,699900
8,742000	0,5	1,710300
8,750333	0,5	1,715400
8,758667	0,5	1,717950
8,767000	0,5	1,722200
8,775333	0,5	1,726250
8,783667	0,5	1,737100
8,792000	0,5	1,748900
8,800333	0,5	1,758700
8,808667	0,5	1,765900
8,817000	0,5	1,775850
8,825333	0,5	1,776650
8,833667	0,5	1,779450
8,842000	0,5	1,779650
8,850333	0,5	1,781800
8,858667	0,5	1,778300
8,867000	0,5	1,776850
8,875333	0,5	1,767700
8,883667	0,5	1,763100
8,892000	0,5	1,762200
8,900333	0,5	1,756350
8,908667	0,5	1,749950
8,917000	0,5	1,749250
8,925333	0,5	1,751400
8,933667	0,5	1,758100
8,942000	0,5	1,766550
8,950333	0,5	1,772500
8,958667	0,5	1,784800
8,967000	0,5	1,795300
8,975333	0,5	1,802550
8,983667	0,5	1,804600
8,992000	0,5	1,805950
9,000333	0,5	1,798000
9,008667	0,5	1,783600
9,017000	0,5	1,765600
9,025333	0,5	1,737650
9,033667	0,5	1,720050
9,042000	0,5	1,700400
9,050333	0,5	1,681300
9,058667	0,5	1,661450
9,067000	0,5	1,647700
9,075333	0,5	1,636700
9,083667	0,5	1,636850
9,092000	0,5	1,628300
9,100333	0,5	1,622450
9,108667	0,5	1,621600
9,117000	0,5	1,615950
9,125333	0,5	1,611500
9,133667	0,5	1,606350
9,142000	0,5	1,602750
9,150333	0,5	1,601500
9,158667	0,5	1,597800
9,167000	0,5	1,593750
9,175333	0,5	1,587200
9,183667	0,5	1,584950
9,192000	0,5	1,587350
9,200333	0,5	1,584600
9,208667	0,5	1,577850
9,217000	0,5	1,577200
9,225333	0,5	1,578100
9,233667	0,5	1,585550
9,242000	0,5	1,587450
9,250333	0,5	1,591350
9,258667	0,5	1,594000
9,267000	0,5	1,597150
9,275333	0,5	1,596700
9,283667	0,5	1,603300
9,292000	0,5	1,604250
9,300333	0,5	1,600150
9,308667	0,5	1,602850
9,317000	0,5	1,600800
9,325333	0,5	1,596100
9,333667	0,5	1,591300
9,342000	0,5	1,588650
9,350333	0,5	1,576750
9,358667	0,5	1,564550
9,367000	0,5	1,547800
9,375333	0,5	1,537350
9,383667	0,5	1,522650
9,392000	0,5	1,508300
9,400333	0,5	1,491650
9,408667	0,5	1,485250
9,417000	0,5	1,476900
9,425333	0,5	1,467500
9,433667	0,5	1,457100
9,442000	0,5	1,445850
9,450333	0,5	1,443950
9,458667	0,5	1,437600
9,467000	0,5	1,432500
9,475333	0,5	1,424650
9,483667	0,5	1,418750
9,492000	0,5	1,412300
9,500333	0,5	1,405100
9,508667	0,5	1,393800
9,517000	0,5	1,387200
9,525333	0,5	1,384850
9,533667	0,5	1,383800
9,542000	0,5	1,377750
9,550333	0,5	1,370800
9,558667	0,5	1,367500
9,567000	0,5	1,360700
9,575333	0,5	1,356500
9,583667	0,5	1,354350
9,592000	0,5	1,345750
9,600333	0,5	1,343300
9,608667	0,5	1,335950
9,617000	0,5	1,334900
9,625333	0,5	1,327350
9,633667	0,5	1,328650
9,642000	0,5	1,328900
9,650333	0,5	1,322300
9,658667	0,5	1,318950
9,667000	0,5	1,321750
9,675333	0,5	1,319550
9,683667	0,5	1,328050
9,692000	0,5	1,331650
9,700333	0,5	1,338450
9,708667	0,5	1,347250
9,717000	0,5	1,355450
9,725333	0,5	1,366500
9,733667	0,5	1,380350
9,742000	0,5	1,391450
9,750333	0,5	1,411400
9,758667	0,5	1,447200
9,767000	0,5	1,480850
9,775333	0,5	1,535450
9,783667	0,5	1,612250
9,792000	0,5	1,699850
9,800333	0,5	1,812300
9,808667	0,5	1,946200
9,817000	0,5	2,088450
9,825333	0,5	2,229450
9,833667	0,5	2,345700
9,842000	0,5	2,427150
9,850333	0,5	2,448300
9,858667	0,5	2,413250
9,867000	0,5	2,320650
9,875333	0,5	2,191650
9,883667	0,5	2,039600
9,892000	0,5	1,886100
9,900333	0,5	1,758300
9,908667	0,5	1,653500
9,917000	0,5	1,570150
9,925333	0,5	1,514850
9,933667	0,5	1,487700
9,942000	0,5	1,458450
9,950333	0,5	1,444200
9,958667	0,5	1,435000
9,967000	0,5	1,430050
9,975333	0,5	1,436250
9,983667	0,5	1,440650
9,992000	0,5	1,446850
10,000333	0,5	1,455500
10,008667	0,5	1,467850
10,017000	0,5	1,484950
10,025333	0,5	1,500300
10,033667	0,5	1,521550
10,042000	0,5	1,534800
10,050333	0,5	1,542350
10,058667	0,5	1,540950
10,067000	0,5	1,532850
10,075333	0,5	1,518250
10,083667	0,5	1,496850
10,092000	0,5	1,463250
10,100333	0,5	1,436400
10,108667	0,5	1,406350
10,117000	0,5	1,382500
10,125333	0,5	1,359000
10,133667	0,5	1,343450
10,142000	0,5	1,328450
10,150333	0,5	1,312000
10,158667	0,5	1,300350
10,167000	0,5	1,288450
10,175333	0,5	1,281100
10,183667	0,5	1,270350
10,192000	0,5	1,263200
10,200333	0,5	1,262350
10,208667	0,5	1,261400
10,217000	0,5	1,255450
10,225333	0,5	1,258200
10,233667	0,5	1,263400
10,242000	0,5	1,263800
10,250333	0,5	1,273550
10,258667	0,5	1,286650
10,267000	0,5	1,303000
10,275333	0,5	1,322400
10,283667	0,5	1,343850
10,292000	0,5	1,369300
10,300333	0,5	1,397950
10,308667	0,5	1,436000
10,317000	0,5	1,481700
10,325333	0,5	1,531150
10,333667	0,5	1,573550
10,342000	0,5	1,612350
10,350333	0,5	1,634050
10,358667	0,5	1,628500
10,367000	0,5	1,600000
10,375333	0,5	1,561050
10,383667	0,5	1,510300
10,392000	0,5	1,458750
10,400333	0,5	1,412350
10,408667	0,5	1,371000
10,417000	0,5	1,349750
10,425333	0,5	1,326550
10,433667	0,5	1,304800
10,442000	0,5	1,288800
10,450333	0,5	1,270950
10,458667	0,5	1,252700
10,467000	0,5	1,242250
10,475333	0,5	1,229650
10,483667	0,5	1,213500
10,492000	0,5	1,204650
10,500333	0,5	1,197750
10,508667	0,5	1,184750
10,517000	0,5	1,181300
10,525333	0,5	1,173050
10,533667	0,5	1,167300
10,542000	0,5	1,159750
10,550333	0,5	1,152250
10,558667	0,5	1,151400
10,567000	0,5	1,153700
10,575333	0,5	1,157400
10,583667	0,5	1,161950
10,592000	0,5	1,170300
10,600333	0,5	1,175600
10,608667	0,5	1,189100
10,617000	0,5	1,204650
10,625333	0,5	1,228350
10,633667	0,5	1,250450
10,642000	0,5	1,264900
10,650333	0,5	1,279850
10,658667	0,5	1,275300
10,667000	0,5	1,260050
10,675333	0,5	1,224650
10,683667	0,5	1,182600
10,692000	0,5	1,124800
10,700333	0,5	1,079850
10,708667	0,5	1,043250
10,717000	0,5	1,025600
10,725333	0,5	1,011250
10,733667	0,5	1,019600
10,742000	0,5	1,025000
10,750333	0,5	1,047150
10,758667	0,5	1,069550
10,767000	0,5	1,097050
10,775333	0,5	1,128300
10,783667	0,5	1,152050
10,792000	0,5	1,178950
10,800333	0,5	1,196000
10,808667	0,5	1,209100
10,817000	0,5	1,227150
10,825333	0,5	1,233050
10,833667	0,5	1,230750
10,842000	0,5	1,229800
10,850333	0,5	1,218400
10,858667	0,5	1,213700
10,867000	0,5	1,208350
10,875333	0,5	1,202500
10,883667	0,5	1,200750
10,892000	0,5	1,199200
10,900333	0,5	1,192750
10,908667	0,5	1,196050
10,917000	0,5	1,195000
10,925333	0,5	1,196200
10,933667	0,5	1,204700
10,942000	0,5	1,205850
10,950333	0,5	1,203700
10,958667	0,5	1,205350
10,967000	0,5	1,204700
10,975333	0,5	1,201700
10,983667	0,5	1,200750
10,992000	0,5	1,195500
11,000333	0,5	1,195250
11,008667	0,5	1,200700
11,017000	0,5	1,207000
11,025333	0,5	1,207200
11,033667	0,5	1,207450
11,042000	0,5	1,207550
11,050333	0,5	1,205300
11,058667	0,5	1,201850
11,067000	0,5	1,195350
11,075333	0,5	1,195150
11,083667	0,5	1,184900
11,092000	0,5	1,189850
11,100333	0,5	1,187350
11,108667	0,5	1,191650
11,117000	0,5	1,198000
11,125333	0,5	1,198550
11,133667	0,5	1,199100
11,142000	0,5	1,209750
11,150333	0,5	1,221500
11,158667	0,5	1,249100
11,167000	0,5	1,280750
11,175333	0,5	1,321750
11,183667	0,5	1,375100
11,192000	0,5	1,451900
11,200333	0,5	1,525200
11,208667	0,5	1,591900
11,217000	0,5	1,636000
11,225333	0,5	1,650150
11,233667	0,5	1,643050
11,242000	0,5	1,606700
11,250333	0,5	1,556100
11,258667	0,5	1,513500
11,267000	0,5	1,465850
11,275333	0,5	1,428200
11,283667	0,5	1,394750
11,292000	0,5	1,368000
11,300333	0,5	1,356150
11,308667	0,5	1,335600
11,317000	0,5	1,316350
11,325333	0,5	1,304900
11,333667	0,5	1,302500
11,342000	0,5	1,295750
11,350333	0,5	1,289700
11,358667	0,5	1,294400
11,367000	0,5	1,309700
11,375333	0,5	1,323150
11,383667	0,5	1,358000
11,392000	0,5	1,398600
11,400333	0,5	1,474550
11,408667	0,5	1,573200
11,417000	0,5	1,704050
11,425333	0,5	1,867450
11,433667	0,5	2,050900
11,442000	0,5	2,273000
11,450333	0,5	2,502500
11,458667	0,5	2,724900
11,467000	0,5	2,925900
11,475333	0,5	3,082750
11,483667	0,5	3,184400
11,492000	0,5	3,209800
11,500333	0,5	3,170100
11,508667	0,5	3,067200
11,517000	0,5	2,928350
11,525333	0,5	2,770550
11,533667	0,5	2,631900
11,542000	0,5	2,533550
11,550333	0,5	2,503200
11,558667	0,5	2,533950
11,567000	0,5	2,613700
11,575333	0,5	2,715400
11,583667	0,5	2,822400
11,592000	0,5	2,926850
11,600333	0,5	2,974800
11,608667	0,5	2,961100
11,617000	0,5	2,886150
11,625333	0,5	2,775700
11,633667	0,5	2,619650
11,642000	0,5	2,446500
11,650333	0,5	2,267600
11,658667	0,5	2,095350
11,667000	0,5	1,936250
11,675333	0,5	1,789400
11,683667	0,5	1,683100
11,692000	0,5	1,577450
11,700333	0,5	1,509700
11,708667	0,5	1,441600
11,717000	0,5	1,391500
11,725333	0,5	1,347800
11,733667	0,5	1,311650
11,742000	0,5	1,289300
11,750333	0,5	1,269550
11,758667	0,5	1,250650
11,767000	0,5	1,237500
11,775333	0,5	1,225350
11,783667	0,5	1,210300
11,792000	0,5	1,206450
11,800333	0,5	1,202100
11,808667	0,5	1,192600
11,817000	0,5	1,182650
11,825333	0,5	1,182650
11,833667	0,5	1,171300
11,842000	0,5	1,177000
11,850333	0,5	1,181500
11,858667	0,5	1,178350
11,867000	0,5	1,175600
11,875333	0,5	1,164150
11,883667	0,5	1,162200
11,892000	0,5	1,170100
11,900333	0,5	1,175700
11,908667	0,5	1,182750
11,917000	0,5	1,183550
11,925333	0,5	1,190200
11,933667	0,5	1,205300
11,942000	0,5	1,219150
11,950333	0,5	1,232250
11,958667	0,5	1,243300
11,967000	0,5	1,260250
11,975333	0,5	1,276450
11,983667	0,5	1,282000
11,992000	0,5	1,292650
12,000333	0,5	1,298350
12,008667	0,5	1,299250
12,017000	0,5	1,294950
12,025333	0,5	1,289000
12,033667	0,5	1,291700
12,042000	0,5	1,301950
12,050333	0,5	1,309300
12,058667	0,5	1,309950
12,067000	0,5	1,326200
12,075333	0,5	1,328800
12,083667	0,5	1,341400
12,092000	0,5	1,355100
12,100333	0,5	1,368650
12,108667	0,5	1,384100
12,117000	0,5	1,407100
12,125333	0,5	1,437200
12,133667	0,5	1,483800
12,142000	0,5	1,544300
12,150333	0,5	1,618950
12,158667	0,5	1,684750
12,167000	0,5	1,745450
12,175333	0,5	1,803600
12,183667	0,5	1,836600
12,192000	0,5	1,863300
12,200333	0,5	1,886100
12,208667	0,5	1,899950
12,217000	0,5	1,911750
12,225333	0,5	1,936200
12,233667	0,5	1,956450
12,242000	0,5	1,986900
12,250333	0,5	2,008550
12,258667	0,5	2,023700
12,267000	0,5	2,041000
12,275333	0,5	2,049700
12,283667	0,5	2,055000
12,292000	0,5	2,061650
12,300333	0,5	2,047100
12,308667	0,5	2,020550
12,317000	0,5	1,975350
12,325333	0,5	1,920400
12,333667	0,5	1,867650
12,342000	0,5	1,818950
12,350333	0,5	1,791150
12,358667	0,5	1,782150
12,367000	0,5	1,801400
12,375333	0,5	1,831050
12,383667	0,5	1,883300
12,392000	0,5	1,936600
12,400333	0,5	1,992000
12,408667	0,5	2,035750
12,417000	0,5	2,069750
12,425333	0,5	2,069450
12,433667	0,5	2,065150
12,442000	0,5	2,039400
12,450333	0,5	1,984450
12,458667	0,5	1,915850
12,467000	0,5	1,831350
12,475333	0,5	1,758200
12,483667	0,5	1,674500
12,492000	0,5	1,594550
12,500333	0,5	1,520750
12,508667	0,5	1,452150
12,517000	0,5	1,396400
12,525333	0,5	1,344200
12,533667	0,5	1,302550
12,542000	0,5	1,262350
12,550333	0,5	1,225050
12,558667	0,5	1,202200
12,567000	0,5	1,177250
12,575333	0,5	1,149000
12,583667	0,5	1,138050
12,592000	0,5	1,117450
12,600333	0,5	1,104550
12,608667	0,5	1,087150
12,617000	0,5	1,075250
12,625333	0,5	1,070850
12,633667	0,5	1,071900
12,642000	0,5	1,063250
12,650333	0,5	1,056500
12,658667	0,5	1,052500
12,667000	0,5	1,042900
12,675333	0,5	1,039650
12,683667	0,5	1,032650
12,692000	0,5	1,023900
12,700333	0,5	1,017500
12,708667	0,5	1,016900
12,717000	0,5	1,004200
12,725333	0,5	0,993200
12,733667	0,5	0,997650
12,742000	0,5	1,001200
12,750333	0,5	1,018700
12,758667	0,5	1,034900
12,767000	0,5	1,081200
12,775333	0,5	1,135600
12,783667	0,5	1,187700
12,792000	0,5	1,209650
12,800333	0,5	1,221750
12,808667	0,5	1,194650
12,817000	0,5	1,158450
12,825333	0,5	1,113900
12,833667	0,5	1,042250
12,842000	0,5	0,961900
12,850333	0,5	0,880750
12,858667	0,5	0,809000
12,867000	0,5	0,729250
12,875333	0,5	0,662500
12,883667	0,5	0,594750
12,892000	0,5	0,528150
12,900333	0,5	0,456800
12,908667	0,5	0,349650
12,917000	0,5	0,216800
12,925333	0,5	0,049500
12,933667	0,5	-0,213700
12,942000	0,5	-0,596900
12,950333	0,5	-0,971900
12,958667	0,5	-1,249100
12,967000	0,5	-1,495600
12,975333	0,5	-1,725300
12,983667	0,5	-1,889300
12,992000	0,5	-2,005950
13,000333	0,5	-2,092350
13,008667	0,5	-2,156150
13,017000	0,5	-2,226100
13,025333	0,5	-2,269050
13,033667	0,5	-2,309100
13,042000	0,5	-2,339300
13,050333	0,5	-2,367150
13,058667	0,5	-2,386300
13,067000	0,5	-2,377800
13,075333	0,5	-2,377300
13,083667	0,5	-2,363850
13,092000	0,5	-2,360750
13,100333	0,5	-2,362450
13,108667	0,5	-2,375450
13,117000	0,5	-2,388200
13,125333	0,5	-2,410950
13,133667	0,5	-2,438650
13,142000	0,5	-2,475100
13,150333	0,5	-2,510250
13,158667	0,5	-2,552300
13,167000	0,5	-2,581550
13,175333	0,5	-2,596250
13,183667	0,5	-2,631200
13,192000	0,5	-2,647050
13,200333	0,5	-2,669400
13,208667	0,5	-2,677450
13,217000	0,5	-2,682450
13,225333	0,5	-2,672850
13,233667	0,5	-2,670550
13,242000	0,5	-2,662550
13,250333	0,5	-2,661750
13,258667	0,5	-2,651950
13,267000	0,5	-2,639050
13,275333	0,5	-2,624650
13,283667	0,5	-2,608300
13,292000	0,5	-2,588150
13,300333	0,5	-2,570100
13,308667	0,5	-2,544100
13,317000	0,5	-2,504650
13,325333	0,5	-2,469150
13,333667	0,5	-2,446100
13,342000	0,5	-2,431600
13,350333	0,5	-2,422150
13,358667	0,5	-2,410300
13,367000	0,5	-2,391850
13,375333	0,5	-2,380950
13,383667	0,5	-2,368350
13,392000	0,5	-2,352950
13,400333	0,5	-2,345950
13,408667	0,5	-2,337500
13,417000	0,5	-2,315800
13,425333	0,5	-2,316750
13,433667	0,5	-2,311950
13,442000	0,5	-2,316900
13,450333	0,5	-2,319700
13,458667	0,5	-2,341800
13,467000	0,5	-2,345550
13,475333	0,5	-2,356600
13,483667	0,5	-2,374550
13,492000	0,5	-2,393450
13,500333	0,5	-2,412750
13,508667	0,5	-2,413050
13,517000	0,5	-2,414050
13,525333	0,5	-2,419400
13,533667	0,5	-2,411950
13,542000	0,5	-2,408600
13,550333	0,5	-2,408100
13,558667	0,5	-2,400900
13,567000	0,5	-2,393850
13,575333	0,5	-2,382250
13,583667	0,5	-2,382400
13,592000	0,5	-2,362550
13,600333	0,5	-2,361100
13,608667	0,5	-2,349150
13,617000	0,5	-2,331850
13,625333	0,5	-2,315450
13,633667	0,5	-2,307250
13,642000	0,5	-2,298200
13,650333	0,5	-2,280400
13,658667	0,5	-2,250800
13,667000	0,5	-2,234350
13,675333	0,5	-2,212700
13,683667	0,5	-2,186900
13,692000	0,5	-2,162450
13,700333	0,5	-2,140050
13,708667	0,5	-2,118800
13,717000	0,5	-2,098200
13,725333	0,5	-2,071150
13,733667	0,5	-2,044550
13,742000	0,5	-2,017450
13,750333	0,5	-1,997000
13,758667	0,5	-1,962950
13,767000	0,5	-1,932100
13,775333	0,5	-1,908850
13,783667	0,5	-1,883200
13,792000	0,5	-1,878700
13,800333	0,5	-1,849650
13,808667	0,5	-1,836000
13,817000	0,5	-1,819050
13,825333	0,5	-1,809500
13,833667	0,5	-1,798650
13,842000	0,5	-1,794150
13,850333	0,5	-1,778400
13,858667	0,5	-1,764150
13,867000	0,5	-1,748600
13,875333	0,5	-1,728300
13,883667	0,5	-1,711750
13,892000	0,5	-1,688000
13,900333	0,5	-1,667550
13,908667	0,5	-1,638600
13,917000	0,5	-1,610150
13,925333	0,5	-1,568050
13,933667	0,5	-1,537300
13,942000	0,5	-1,500350
13,950333	0,5	-1,443850
13,958667	0,5	-1,372650
13,967000	0,5	-1,300100
13,975333	0,5	-1,203650
13,983667	0,5	-1,115000
13,992000	0,5	-1,033900
14,000333	0,5	-0,956250
14,008667	0,5	-0,890300
14,017000	0,5	-0,837900
14,025333	0,5	-0,797100
14,033667	0,5	-0,751700
14,042000	0,5	-0,736100
14,050333	0,5	-0,724550
14,058667	0,5	-0,713550
14,067000	0,5	-0,712800
14,075333	0,5	-0,702900
14,083667	0,5	-0,678450
14,092000	0,5	-0,635700
14,100333	0,5	-0,552050
14,108667	0,5	-0,464500
14,117000	0,5	-0,366450
14,125333	0,5	-0,270450
14,133667	0,5	-0,183600
14,142000	0,5	-0,121950
14,150333	0,5	-0,076850
14,158667	0,5	-0,070750
14,167000	0,5	-0,076850
14,175333	0,5	-0,092200
14,183667	0,5	-0,103050
14,192000	0,5	-0,132250
14,200333	0,5	-0,128800
14,208667	0,5	-0,129200
14,217000	0,5	-0,126850
14,225333	0,5	-0,121550
14,233667	0,5	-0,115450
14,242000	0,5	-0,101000
14,250333	0,5	-0,087800
14,258667	0,5	-0,068250
14,267000	0,5	-0,059200
14,275333	0,5	-0,039800
14,283667	0,5	-0,031500
14,292000	0,5	-0,012300
14,300333	0,5	-0,006700
14,308667	0,5	0,008450
14,317000	0,5	0,004200
14,325333	0,5	0,024200
14,333667	0,5	0,017450
14,342000	0,5	0,028650
14,350333	0,5	0,046850
14,358667	0,5	0,066400
14,367000	0,5	0,081100
14,375333	0,5	0,092200
14,383667	0,5	0,099800
14,392000	0,5	0,106250
14,400333	0,5	0,119450
14,408667	0,5	0,110100
14,417000	0,5	0,097050
14,425333	0,5	0,081150
14,433667	0,5	0,070100
14,442000	0,5	0,052200
14,450333	0,5	0,044850
14,458667	0,5	0,028600
14,467000	0,5	0,018950
14,475333	0,5	0,016400
14,483667	0,5	0,005300
14,492000	0,5	0,005250
14,500333	0,5	0,012450
14,508667	0,5	0,016150
14,517000	0,5	-0,002750
14,525333	0,5	-0,011550
14,533667	0,5	-0,009700
14,542000	0,5	0,005700
14,550333	0,5	0,003500
14,558667	0,5	0,010500
14,567000	0,5	0,039650
14,575333	0,5	0,074250
14,583667	0,5	0,139150
14,592000	0,5	0,236750
14,600333	0,5	0,344500
14,608667	0,5	0,452500
14,617000	0,5	0,532050
14,625333	0,5	0,562550
14,633667	0,5	0,526200
14,642000	0,5	0,485000
14,650333	0,5	0,416000
14,658667	0,5	0,356850
14,667000	0,5	0,308650
14,675333	0,5	0,300450
14,683667	0,5	0,346800
14,692000	0,5	0,424350
14,700333	0,5	0,508950
14,708667	0,5	0,570750
14,717000	0,5	0,604150
14,725333	0,5	0,579300
14,733667	0,5	0,516600
14,742000	0,5	0,437800
14,750333	0,5	0,347000
14,758667	0,5	0,264750
14,767000	0,5	0,209200
14,775333	0,5	0,160550
14,783667	0,5	0,119150
14,792000	0,5	0,098300
14,800333	0,5	0,079300
14,808667	0,5	0,058700
14,817000	0,5	0,049500
14,825333	0,5	0,030050
14,833667	0,5	0,050150
14,842000	0,5	0,061050
14,850333	0,5	0,073150
14,858667	0,5	0,075750
14,867000	0,5	0,073950
14,875333	0,5	0,067450
14,883667	0,5	0,053100
14,892000	0,5	0,047700
14,900333	0,5	0,037650
14,908667	0,5	0,037450
14,917000	0,5	0,031500
14,925333	0,5	0,016950
14,933667	0,5	0,006800
14,942000	0,5	0,001700
14,950333	0,5	-0,012700
14,958667	0,5	-0,030750
14,967000	0,5	-0,062400
14,975333	0,5	-0,081950
14,983667	0,5	-0,084700
14,992000	0,5	-0,091350
15,000333	0,5	-0,101200
15,008667	0,5	-0,093500
15,017000	0,5	-0,107600
15,025333	0,5	-0,119600
15,033667	0,5	-0,124450
15,042000	0,5	-0,128500
15,050333	0,5	-0,132750
15,058667	0,5	-0,135800
15,067000	0,5	-0,124050
15,075333	0,5	-0,122150
15,083667	0,5	-0,080450
15,092000	0,5	-0,023150
15,100333	0,5	0,061600
15,108667	0,5	0,152000
15,117000	0,5	0,260500
15,125333	0,5	0,359900
15,133667	0,5	0,436500
15,142000	0,5	0,446400
15,150333	0,5	0,408650
15,158667	0,5	0,355300
15,167000	0,5	0,297750
15,175333	0,5	0,281250
15,183667	0,5	0,309400
15,192000	0,5	0,369700
15,200333	0,5	0,439450
15,208667	0,5	0,515400
15,217000	0,5	0,526100
15,225333	0,5	0,478600
15,233667	0,5	0,410850
15,242000	0,5	0,316750
15,250333	0,5	0,224600
15,258667	0,5	0,151200
15,267000	0,5	0,087100
15,275333	0,5	0,066300
15,283667	0,5	0,048450
15,292000	0,5	0,040100
15,300333	0,5	0,027350
15,308667	0,5	0,010800
15,317000	0,5	-0,008450
15,325333	0,5	-0,025950
15,333667	0,5	-0,048100
15,342000	0,5	-0,054200
15,350333	0,5	-0,054800
15,358667	0,5	-0,047050
15,367000	0,5	-0,060350
15,375333	0,5	-0,046200
15,383667	0,5	-0,038800
15,392000	0,5	-0,052900
15,400333	0,5	-0,065000
15,408667	0,5	-0,111550
15,417000	0,5	-0,136300
15,425333	0,5	-0,164700
15,433667	0,5	-0,181300
15,442000	0,5	-0,203850
15,450333	0,5	-0,214850
15,458667	0,5	-0,224250
15,467000	0,5	-0,238300
15,475333	0,5	-0,252200
15,483667	0,5	-0,260500
15,492000	0,5	-0,276350
15,500333	0,5	-0,282650
15,508667	0,5	-0,289550
15,517000	0,5	-0,297150
15,525333	0,5	-0,282550
15,533667	0,5	-0,267350
15,542000	0,5	-0,227850
15,550333	0,5	-0,168800
15,558667	0,5	-0,092150
15,567000	0,5	0,033500
15,575333	0,5	0,164100
15,583667	0,5	0,269200
15,592000	0,5	0,319550
15,600333	0,5	0,326500
15,608667	0,5	0,299850
15,617000	0,5	0,268750
15,625333	0,5	0,276000
15,633667	0,5	0,300850
15,642000	0,5	0,352200
15,650333	0,5	0,399250
15,658667	0,5	0,405850
15,667000	0,5	0,368200
15,675333	0,5	0,310750
15,683667	0,5	0,214000
15,692000	0,5	0,114550
15,700333	0,5	0,010150
15,708667	0,5	-0,068050
15,717000	0,5	-0,107200
15,725333	0,5	-0,149250
15,733667	0,5	-0,181350
15,742000	0,5	-0,192600
15,750333	0,5	-0,193850
15,758667	0,5	-0,192450
15,767000	0,5	-0,180850
15,775333	0,5	-0,174900
15,783667	0,5	-0,169400
15,792000	0,5	-0,181750
15,800333	0,5	-0,181250
15,808667	0,5	-0,218100
15,817000	0,5	-0,227450
15,825333	0,5	-0,244000
15,833667	0,5	-0,275100
15,842000	0,5	-0,317250
15,850333	0,5	-0,349100
15,858667	0,5	-0,365000
15,867000	0,5	-0,376700
15,875333	0,5	-0,397700
15,883667	0,5	-0,403850
15,892000	0,5	-0,413750
15,900333	0,5	-0,425850
15,908667	0,5	-0,431550
15,917000	0,5	-0,439850
15,925333	0,5	-0,433650
15,933667	0,5	-0,440400
15,942000	0,5	-0,417350
15,950333	0,5	-0,365000
15,958667	0,5	-0,302700
15,967000	0,5	-0,169250
15,975333	0,5	-0,029350
15,983667	0,5	0,092950
15,992000	0,5	0,177300
16,000333	0,5	0,198150
16,008667	0,5	0,219650
16,017000	0,5	0,227600
16,025333	0,5	0,247350
16,033667	0,5	0,273150
16,042000	0,5	0,297200
16,050333	0,5	0,297050
16,058667	0,5	0,248150
16,067000	0,5	0,171550
16,075333	0,5	0,063300
16,083667	0,5	-0,024600
16,092000	0,5	-0,112650
16,100333	0,5	-0,157800
16,108667	0,5	-0,204300
16,117000	0,5	-0,204750
16,125333	0,5	-0,214950
16,133667	0,5	-0,215200
16,142000	0,5	-0,232700
16,150333	0,5	-0,241150
16,158667	0,5	-0,232900
16,167000	0,5	-0,221300
16,175333	0,5	-0,236200
16,183667	0,5	-0,247450
16,192000	0,5	-0,273550
16,200333	0,5	-0,294450
16,208667	0,5	-0,326450
16,217000	0,5	-0,354600
16,225333	0,5	-0,384950
16,233667	0,5	-0,420200
16,242000	0,5	-0,441250
16,250333	0,5	-0,478200
16,258667	0,5	-0,496900
16,267000	0,5	-0,507950
16,275333	0,5	-0,519700
16,283667	0,5	-0,539150
16,292000	0,5	-0,553350
16,300333	0,5	-0,557400
16,308667	0,5	-0,511700
16,317000	0,5	-0,452300
16,325333	0,5	-0,352900
16,333667	0,5	-0,230500
16,342000	0,5	-0,096500
16,350333	0,5	0,010900
16,358667	0,5	0,095550
16,367000	0,5	0,128950
16,375333	0,5	0,136200
16,383667	0,5	0,147950
16,392000	0,5	0,148800
16,400333	0,5	0,136750
16,408667	0,5	0,115850
16,417000	0,5	0,062500
16,425333	0,5	-0,021650
16,433667	0,5	-0,118900
16,442000	0,5	-0,211250
16,450333	0,5	-0,258650
16,458667	0,5	-0,280550
16,467000	0,5	-0,281400
16,475333	0,5	-0,277300
16,483667	0,5	-0,260000
16,492000	0,5	-0,248650
16,500333	0,5	-0,229050
16,508667	0,5	-0,213150
16,517000	0,5	-0,202150
16,525333	0,5	-0,196900
16,533667	0,5	-0,191550
16,542000	0,5	-0,215000
16,550333	0,5	-0,238000
16,558667	0,5	-0,248450
16,567000	0,5	-0,268550
16,575333	0,5	-0,288450
16,583667	0,5	-0,326750
16,592000	0,5	-0,330600
16,600333	0,5	-0,337650
16,608667	0,5	-0,327650
16,617000	0,5	-0,346400
16,625333	0,5	-0,336350
16,633667	0,5	-0,341000
16,642000	0,5	-0,316650
16,650333	0,5	-0,291300
16,658667	0,5	-0,212950
16,667000	0,5	-0,131550
16,675333	0,5	-0,038100
16,683667	0,5	0,033250
16,692000	0,5	0,062000
16,700333	0,5	0,096750
16,708667	0,5	0,103900
16,717000	0,5	0,100600
16,725333	0,5	0,075250
16,733667	0,5	0,021150
16,742000	0,5	-0,040000
16,750333	0,5	-0,107250
16,758667	0,5	-0,191250
16,767000	0,5	-0,257050
16,775333	0,5	-0,305450
16,783667	0,5	-0,341050
16,792000	0,5	-0,365800
16,800333	0,5	-0,372600
16,808667	0,5	-0,392100
16,817000	0,5	-0,397000
16,825333	0,5	-0,403350
16,833667	0,5	-0,394750
16,842000	0,5	-0,434250
16,850333	0,5	-0,435450
16,858667	0,5	-0,447800
16,867000	0,5	-0,464400
16,875333	0,5	-0,488200
16,883667	0,5	-0,526800
16,892000	0,5	-0,527450
16,900333	0,5	-0,543350
16,908667	0,5	-0,558500
16,917000	0,5	-0,557400
16,925333	0,5	-0,549850
16,933667	0,5	-0,542500
16,942000	0,5	-0,508450
16,950333	0,5	-0,465100
16,958667	0,5	-0,402250
16,967000	0,5	-0,299500
16,975333	0,5	-0,180650
16,983667	0,5	-0,080650
16,992000	0,5	0,020500
17,000333	0,5	0,105450
17,008667	0,5	0,177950
17,017000	0,5	0,242150
17,025333	0,5	0,313950
17,033667	0,5	0,384300
17,042000	0,5	0,473050
17,050333	0,5	0,558300
17,058667	0,5	0,650550
17,067000	0,5	0,776000
17,075333	0,5	0,902400
17,083667	0,5	1,026400
17,092000	0,5	1,133500
17,100333	0,5	1,235900
17,108667	0,5	1,312200
17,117000	0,5	1,388100
17,125333	0,5	1,442600
17,133667	0,5	1,472750
17,142000	0,5	1,505400
17,150333	0,5	1,507650
17,158667	0,5	1,456350
17,167000	0,5	1,371450
17,175333	0,5	1,240300
17,183667	0,5	1,108150
17,192000	0,5	0,970350
17,200333	0,5	0,807700
17,208667	0,5	0,664550
17,217000	0,5	0,537800
17,225333	0,5	0,424600
17,233667	0,5	0,356800
17,242000	0,5	0,320700
17,250333	0,5	0,318350
17,258667	0,5	0,321800
17,267000	0,5	0,334000
17,275333	0,5	0,344700
17,283667	0,5	0,321550
17,292000	0,5	0,313850
17,300333	0,5	0,280750
17,308667	0,5	0,236950
17,317000	0,5	0,166250
17,325333	0,5	0,101050
17,333667	0,5	0,061850
17,342000	0,5	0,054250
17,350333	0,5	0,056000
17,358667	0,5	0,071200
17,367000	0,5	0,105650
17,375333	0,5	0,144750
17,383667	0,5	0,184550
17,392000	0,5	0,219600
17,400333	0,5	0,248000
17,408667	0,5	0,274050
17,417000	0,5	0,295950
17,425333	0,5	0,295950
17,433667	0,5	0,285100
17,442000	0,5	0,275250
17,450333	0,5	0,238350
17,458667	0,5	0,181650
17,467000	0,5	0,110700
17,475333	0,5	0,053150
17,483667	0,5	0,025350
17,492000	0,5	0,007150
17,500333	0,5	0,023500
17,508667	0,5	0,031550
17,517000	0,5	0,049300
17,525333	0,5	0,037800
17,533667	0,5	0,029300
17,542000	0,5	-0,005900
17,550333	0,5	-0,051700
17,558667	0,5	-0,112050
17,567000	0,5	-0,187650
17,575333	0,5	-0,262450
17,583667	0,5	-0,312150
17,592000	0,5	-0,355000
17,600333	0,5	-0,401500
17,608667	0,5	-0,441000
17,617000	0,5	-0,492900
17,625333	0,5	-0,512250
17,633667	0,5	-0,531350
17,642000	0,5	-0,552000
17,650333	0,5	-0,575200
17,658667	0,5	-0,586850
17,667000	0,5	-0,615500
17,675333	0,5	-0,625550
17,683667	0,5	-0,624350
17,692000	0,5	-0,629250
17,700333	0,5	-0,619200
17,708667	0,5	-0,589350
17,717000	0,5	-0,559050
17,725333	0,5	-0,507250
17,733667	0,5	-0,442500
17,742000	0,5	-0,381300
17,750333	0,5	-0,351150
17,758667	0,5	-0,356050
17,767000	0,5	-0,378850
17,775333	0,5	-0,404900
17,783667	0,5	-0,433200
17,792000	0,5	-0,489100
17,800333	0,5	-0,525150
17,808667	0,5	-0,569050
17,817000	0,5	-0,588100
17,825333	0,5	-0,614450
17,833667	0,5	-0,631550
17,842000	0,5	-0,657400
17,850333	0,5	-0,678100
17,858667	0,5	-0,688950
17,867000	0,5	-0,725500
17,875333	0,5	-0,717550
17,883667	0,5	-0,710050
17,892000	0,5	-0,700300
17,900333	0,5	-0,696850
17,908667	0,5	-0,695000
17,917000	0,5	-0,655400
17,925333	0,5	-0,596000
17,933667	0,5	-0,537500
17,942000	0,5	-0,480550
17,950333	0,5	-0,439200
17,958667	0,5	-0,423600
17,967000	0,5	-0,443650
17,975333	0,5	-0,459400
17,983667	0,5	-0,491050
17,992000	0,5	-0,522450
18,000333	0,5	-0,555850
18,008667	0,5	-0,567900
18,017000	0,5	-0,618400
18,025333	0,5	-0,621500
18,033667	0,5	-0,643400
18,042000	0,5	-0,665850
18,050333	0,5	-0,685150
18,058667	0,5	-0,719500
18,067000	0,5	-0,712200
18,075333	0,5	-0,730550
18,083667	0,5	-0,723750
18,092000	0,5	-0,715200
18,100333	0,5	-0,686550
18,108667	0,5	-0,646900
18,117000	0,5	-0,595100
18,125333	0,5	-0,549200
18,133667	0,5	-0,509050
18,142000	0,5	-0,502300
18,150333	0,5	-0,497250
18,158667	0,5	-0,524800
18,167000	0,5	-0,562600
18,175333	0,5	-0,587350
18,183667	0,5	-0,614950
18,192000	0,5	-0,643150
18,200333	0,5	-0,681200
18,208667	0,5	-0,711100
18,217000	0,5	-0,717250
18,225333	0,5	-0,710650
18,233667	0,5	-0,731500
18,242000	0,5	-0,735200
18,250333	0,5	-0,735650
18,258667	0,5	-0,731050
18,267000	0,5	-0,731050
18,275333	0,5	-0,709000
18,283667	0,5	-0,694650
18,292000	0,5	-0,675700
18,300333	0,5	-0,646600
18,308667	0,5	-0,633500
18,317000	0,5	-0,614600
18,325333	0,5	-0,612200
18,333667	0,5	-0,635900
18,342000	0,5	-0,664800
18,350333	0,5	-0,712900
18,358667	0,5	-0,745300
18,367000	0,5	-0,756450
18,375333	0,5	-0,775250
18,383667	0,5	-0,793200
18,392000	0,5	-0,788400
18,400333	0,5	-0,801300
18,408667	0,5	-0,803550
18,417000	0,5	-0,801100
18,425333	0,5	-0,802600
18,433667	0,5	-0,794150
18,442000	0,5	-0,788100
18,450333	0,5	-0,771050
18,458667	0,5	-0,772050
18,467000	0,5	-0,743700
18,475333	0,5	-0,739950
18,483667	0,5	-0,731050
18,492000	0,5	-0,753500
18,500333	0,5	-0,780700
18,508667	0,5	-0,794550
18,517000	0,5	-0,813650
18,525333	0,5	-0,847800
18,533667	0,5	-0,866300
18,542000	0,5	-0,878100
18,550333	0,5	-0,893250
18,558667	0,5	-0,905650
18,567000	0,5	-0,918250
18,575333	0,5	-0,926450
18,583667	0,5	-0,947500
18,592000	0,5	-0,933550
18,600333	0,5	-0,943250
18,608667	0,5	-0,937100
18,617000	0,5	-0,912650
18,625333	0,5	-0,889100
18,633667	0,5	-0,877850
18,642000	0,5	-0,888200
18,650333	0,5	-0,895250
18,658667	0,5	-0,903750
18,667000	0,5	-0,918350
18,675333	0,5	-0,916450
18,683667	0,5	-0,937100
18,692000	0,5	-0,930000
18,700333	0,5	-0,926850
18,708667	0,5	-0,923250
18,717000	0,5	-0,914100
18,725333	0,5	-0,911450
18,733667	0,5	-0,886300
18,742000	0,5	-0,867150
18,750333	0,5	-0,860650
18,758667	0,5	-0,828850
18,767000	0,5	-0,800050
18,775333	0,5	-0,800650
18,783667	0,5	-0,815350
18,792000	0,5	-0,838850
18,800333	0,5	-0,848650
18,808667	0,5	-0,860750
18,817000	0,5	-0,861050
18,825333	0,5	-0,901500
18,833667	0,5	-0,911900
18,842000	0,5	-0,921900
18,850333	0,5	-0,915950
18,858667	0,5	-0,914150
18,867000	0,5	-0,909250
18,875333	0,5	-0,905400
18,883667	0,5	-0,894350
18,892000	0,5	-0,894100
18,900333	0,5	-0,907800
18,908667	0,5	-0,893750
18,917000	0,5	-0,910800
18,925333	0,5	-0,941300
18,933667	0,5	-0,994300
18,942000	0,5	-1,023800
18,950333	0,5	-1,034850
18,958667	0,5	-1,052050
18,967000	0,5	-1,074100
18,975333	0,5	-1,078350
18,983667	0,5	-1,096850
18,992000	0,5	-1,096000
19,000333	0,5	-1,096050
19,008667	0,5	-1,096800
19,017000	0,5	-1,100300
19,025333	0,5	-1,102100
19,033667	0,5	-1,100350
19,042000	0,5	-1,126250
19,050333	0,5	-1,130850
19,058667	0,5	-1,145950
19,067000	0,5	-1,156100
19,075333	0,5	-1,182450
19,083667	0,5	-1,219450
19,092000	0,5	-1,238900
19,100333	0,5	-1,234600
19,108667	0,5	-1,247700
19,117000	0,5	-1,256750
19,125333	0,5	-1,269950
19,133667	0,5	-1,275400
19,142000	0,5	-1,292900
19,150333	0,5	-1,307450
19,158667	0,5	-1,322550
19,167000	0,5	-1,348350
19,175333	0,5	-1,349050
19,183667	0,5	-1,358750
19,192000	0,5	-1,392750
19,200333	0,5	-1,381350
19,208667	0,5	-1,384050
19,217000	0,5	-1,391600
19,225333	0,5	-1,404300
19,233667	0,5	-1,448700
19,242000	0,5	-1,438100
19,250333	0,5	-1,454000
19,258667	0,5	-1,455450
19,267000	0,5	-1,473050
19,275333	0,5	-1,465400
19,283667	0,5	-1,475150
19,292000	0,5	-1,483500
19,300333	0,5	-1,489850
19,308667	0,5	-1,495900
19,317000	0,5	-1,504950
19,325333	0,5	-1,499500
19,333667	0,5	-1,512100
19,342000	0,5	-1,532750
19,350333	0,5	-1,527850
19,358667	0,5	-1,548900
19,367000	0,5	-1,556750
19,375333	0,5	-1,584350
19,383667	0,5	-1,594500
19,392000	0,5	-1,603900
19,400333	0,5	-1,589150
19,408667	0,5	-1,599050
19,417000	0,5	-1,590500
19,425333	0,5	-1,600650
19,433667	0,5	-1,608550
19,442000	0,5	-1,618500
19,450333	0,5	-1,623350
19,458667	0,5	-1,628650
19,467000	0,5	-1,622250
19,475333	0,5	-1,628650
19,483667	0,5	-1,643550
19,492000	0,5	-1,653650
19,500333	0,5	-1,671650
19,508667	0,5	-1,689500
19,517000	0,5	-1,711950
19,525333	0,5	-1,742450
19,533667	0,5	-1,761000
19,542000	0,5	-1,758000
19,550333	0,5	-1,767850
19,558667	0,5	-1,775600
19,567000	0,5	-1,793750
19,575333	0,5	-1,794450
19,583667	0,5	-1,805700
19,592000	0,5	-1,802700
19,600333	0,5	-1,821500
19,608667	0,5	-1,824650
19,617000	0,5	-1,816500
19,625333	0,5	-1,818850
19,633667	0,5	-1,836150
19,642000	0,5	-1,828150
19,650333	0,5	-1,839400
19,658667	0,5	-1,847350
19,667000	0,5	-1,876500
19,675333	0,5	-1,908650
19,683667	0,5	-1,899800
19,692000	0,5	-1,917400
19,700333	0,5	-1,931800
19,708667	0,5	-1,943950
19,717000	0,5	-1,949700
19,725333	0,5	-1,966450
19,733667	0,5	-1,980450
19,742000	0,5	-1,991250
19,750333	0,5	-2,004550
19,758667	0,5	-2,016750
19,767000	0,5	-2,017500
19,775333	0,5	-2,044900
19,783667	0,5	-2,045700
19,792000	0,5	-2,064850
19,800333	0,5	-2,078350
19,808667	0,5	-2,102850
19,817000	0,5	-2,136800
19,825333	0,5	-2,153000
19,833667	0,5	-2,152500
19,842000	0,5	-2,155100
19,850333	0,5	-2,169300
19,858667	0,5	-2,170450
19,867000	0,5	-2,184000
19,875333	0,5	-2,191150
19,883667	0,5	-2,196150
19,892000	0,5	-2,201900
19,900333	0,5	-2,227900
19,908667	0,5	-2,220400
19,917000	0,5	-2,222750
19,925333	0,5	-2,244400
19,933667	0,5	-2,241550
19,942000	0,5	-2,239350
19,950333	0,5	-2,255500
19,958667	0,5	-2,269450
19,967000	0,5	-2,308550
19,975333	0,5	-2,309500
19,983667	0,5	-2,315950
19,992000	0,5	-2,339250
20,000333	0,5	-2,363600
20,008667	0,5	-2,389150
20,017000	0,5	-2,402800
20,025333	0,5	-2,418050
20,033667	0,5	-2,427100
20,042000	0,5	-2,448600
20,050333	0,5	-2,457600
20,058667	0,5	-2,460300
20,067000	0,5	-2,468400
20,075333	0,5	-2,496250
20,083667	0,5	-2,489200
20,092000	0,5	-2,512150
20,100333	0,5	-2,539500
20,108667	0,5	-2,572200
20,117000	0,5	-2,582800
20,125333	0,5	-2,571450
20,133667	0,5	-2,583250
20,142000	0,5	-2,586850
20,150333	0,5	-2,588000
20,158667	0,5	-2,584450
20,167000	0,5	-2,583700
20,175333	0,5	-2,572000
20,183667	0,5	-2,576650
20,192000	0,5	-2,568850
20,200333	0,5	-2,567500
20,208667	0,5	-2,567750
20,217000	0,5	-2,594700
20,225333	0,5	-2,599650
20,233667	0,5	-2,619900
20,242000	0,5	-2,637350
20,250333	0,5	-2,673650
20,258667	0,5	-2,720000
20,267000	0,5	-2,726000
20,275333	0,5	-2,723850
20,283667	0,5	-2,745550
20,292000	0,5	-2,763500
20,300333	0,5	-2,779400
20,308667	0,5	-2,792600
20,317000	0,5	-2,819250
20,325333	0,5	-2,838900
20,333667	0,5	-2,857250
20,342000	0,5	-2,889150
20,350333	0,5	-2,888500
20,358667	0,5	-2,905450
20,367000	0,5	-2,936850
20,375333	0,5	-2,953150
20,383667	0,5	-2,972200
20,392000	0,5	-3,004800
20,400333	0,5	-3,042200
20,408667	0,5	-3,094550
20,417000	0,5	-3,109700
20,425333	0,5	-3,123200
20,433667	0,5	-3,141450
20,442000	0,5	-3,158150
20,450333	0,5	-3,173150
20,458667	0,5	-3,195300
20,467000	0,5	-3,217750
20,475333	0,5	-3,233400
20,483667	0,5	-3,250100
20,492000	0,5	-3,262500
20,500333	0,5	-3,260050
20,508667	0,5	-3,259300
20,517000	0,5	-3,256000
20,525333	0,5	-3,237600
20,533667	0,5	-3,254350
20,542000	0,5	-3,278250
20,550333	0,5	-3,334900
20,558667	0,5	-3,385550
20,567000	0,5	-3,426750
20,575333	0,5	-3,475150
20,583667	0,5	-3,527350
20,592000	0,5	-3,561900
20,600333	0,5	-3,604350
20,608667	0,5	-3,643450
20,617000	0,5	-3,682000
20,625333	0,5	-3,719250
20,633667	0,5	-3,754350
20,642000	0,5	-3,764550
20,650333	0,5	-3,784900
20,658667	0,5	-3,816550
20,667000	0,5	-3,843000
20,675333	0,5	-3,863450
20,683667	0,5	-3,865700
20,692000	0,5	-3,884850
20,700333	0,5	-3,868850
20,708667	0,5	-3,849650
20,717000	0,5	-3,849150
20,725333	0,5	-3,868150
20,733667	0,5	-3,914550
20,742000	0,5	-3,983300
20,750333	0,5	-4,062100
20,758667	0,5	-4,134950
20,767000	0,5	-4,206950
20,775333	0,5	-4,269550
20,783667	0,5	-4,325700
20,792000	0,5	-4,358650
20,800333	0,5	-4,399450
20,808667	0,5	-4,450200
20,817000	0,5	-4,503300
20,825333	0,5	-4,555100
20,833667	0,5	-4,612100
20,842000	0,5	-4,676100
20,850333	0,5	-4,716050
20,858667	0,5	-4,746250
20,867000	0,5	-4,776500
20,875333	0,5	-4,805750
20,883667	0,5	-4,822950
20,892000	0,5	-4,850800
20,900333	0,5	-4,894450
20,908667	0,5	-4,939750
20,917000	0,5	-4,980600
20,925333	0,5	-5,048950
20,933667	0,5	-5,066500
20,942000	0,5	-5,082800
20,950333	0,5	-5,137450
20,958667	0,5	-5,175700
20,967000	0,5	-5,212700
20,975333	0,5	-5,265850
20,983667	0,5	-5,311200
20,992000	0,5	-5,380050
21,000333	0,5	-5,406700
21,008667	0,5	-5,433950
21,017000	0,5	-5,467700
21,025333	0,5	-5,508100
21,033667	0,5	-5,529150
21,042000	0,5	-5,571700
21,050333	0,5	-5,601550
21,058667	0,5	-5,625000
21,067000	0,5	-5,660100
21,075333	0,5	-5,682400
21,083667	0,5	-5,694650
21,092000	0,5	-5,700650
21,100333	0,5	-5,755600
21,108667	0,5	-5,789100
21,117000	0,5	-5,819000
21,125333	0,5	-5,874000
21,133667	0,5	-5,942600
21,142000	0,5	-5,973600
21,150333	0,5	-5,993200
21,158667	0,5	-6,022000
21,167000	0,5	-6,048600
21,175333	0,5	-6,072900
21,183667	0,5	-6,102650
21,192000	0,5	-6,124350
21,200333	0,5	-6,139450
21,208667	0,5	-6,162400
21,217000	0,5	-6,175750
21,225333	0,5	-6,186350
21,233667	0,5	-6,187500
21,242000	0,5	-6,204250
21,250333	0,5	-6,221150
21,258667	0,5	-6,240050
21,267000	0,5	-6,248400
21,275333	0,5	-6,279050
21,283667	0,5	-6,319850
21,292000	0,5	-6,326800
21,300333	0,5	-6,333700
21,308667	0,5	-6,376550
21,317000	0,5	-6,397950
21,325333	0,5	-6,418650
21,333667	0,5	-6,454300
21,342000	0,5	-6,483200
21,350333	0,5	-6,497150
21,358667	0,5	-6,518300
21,367000	0,5	-6,549300
21,375333	0,5	-6,533100
21,383667	0,5	-6,523150
21,392000	0,5	-6,545000
21,400333	0,5	-6,563000
21,408667	0,5	-6,591750
21,417000	0,5	-6,629550
21,425333	0,5	-6,661250
21,433667	0,5	-6,701800
21,442000	0,5	-6,709700
21,450333	0,5	-6,729400
21,458667	0,5	-6,748650
21,467000	0,5	-6,764800
21,475333	0,5	-6,790400
21,483667	0,5	-6,810900
21,492000	0,5	-6,818500
21,500333	0,5	-6,846650
21,508667	0,5	-6,861950
21,517000	0,5	-6,864550
21,525333	0,5	-6,841550
21,533667	0,5	-6,862100
21,542000	0,5	-6,891000
21,550333	0,5	-6,906300
21,558667	0,5	-6,924650
21,567000	0,5	-6,959300
21,575333	0,5	-6,994500
21,583667	0,5	-7,009850
21,592000	0,5	-7,025600
21,600333	0,5	-7,024300
21,608667	0,5	-7,036300
21,617000	0,5	-7,033050
21,625333	0,5	-7,036150
21,633667	0,5	-7,032250
21,642000	0,5	-7,025550
21,650333	0,5	-7,029550
21,658667	0,5	-7,021950
21,667000	0,5	-6,993350
21,675333	0,5	-6,997550
21,683667	0,5	-7,014800
21,692000	0,5	-7,029950
21,700333	0,5	-7,061700
21,708667	0,5	-7,084650
21,717000	0,5	-7,126900
21,725333	0,5	-7,146950
21,733667	0,5	-7,152950
21,742000	0,5	-7,161400
21,750333	0,5	-7,170800
21,758667	0,5	-7,175700
21,767000	0,5	-7,186850
21,775333	0,5	-7,204400
21,783667	0,5	-7,210150
21,792000	0,5	-7,209900
21,800333	0,5	-7,225200
21,808667	0,5	-7,217700
21,817000	0,5	-7,187800
21,825333	0,5	-7,201150
21,833667	0,5	-7,200950
21,842000	0,5	-7,211050
21,850333	0,5	-7,226150
21,858667	0,5	-7,251250
21,867000	0,5	-7,276800
21,875333	0,5	-7,284250
21,883667	0,5	-7,281700
21,892000	0,5	-7,292350
21,900333	0,5	-7,289200
21,908667	0,5	-7,262250
21,917000	0,5	-7,220300
21,925333	0,5	-7,173600
21,933667	0,5	-7,110550
21,942000	0,5	-7,102850
21,950333	0,5	-7,138800
21,958667	0,5	-7,157950
21,967000	0,5	-7,212100
21,975333	0,5	-7,276650
21,983667	0,5	-7,326100
21,992000	0,5	-7,363300
22,000333	0,5	-7,419850
22,008667	0,5	-7,480150
22,017000	0,5	-7,519500
22,025333	0,5	-7,551900
22,033667	0,5	-7,566350
22,042000	0,5	-7,607000
22,050333	0,5	-7,638200
22,058667	0,5	-7,651900
22,067000	0,5	-7,687000
22,075333	0,5	-7,703800
22,083667	0,5	-7,728400
22,092000	0,5	-7,754650
22,100333	0,5	-7,771450
22,108667	0,5	-7,780600
22,117000	0,5	-7,823900
22,125333	0,5	-7,830450
22,133667	0,5	-7,843350
22,142000	0,5	-7,861000
22,150333	0,5	-7,882400
22,158667	0,5	-7,927550
22,167000	0,5	-7,920800
22,175333	0,5	-7,929050
22,183667	0,5	-7,934350
22,192000	0,5	-7,952850
22,200333	0,5	-7,966500
22,208667	0,5	-7,967900
22,217000	0,5	-7,976500
22,225333	0,5	-7,984800
22,233667	0,5	-7,995650
22,242000	0,5	-7,990550
22,250333	0,5	-8,014950
22,258667	0,5	-8,008950
22,267000	0,5	-8,019350
22,275333	0,5	-7,997200
22,283667	0,5	-7,996850
22,292000	0,5	-7,991750
22,300333	0,5	-8,012100
22,308667	0,5	-8,010200
22,317000	0,5	-7,982900
22,325333	0,5	-7,970300
22,333667	0,5	-7,957250
22,342000	0,5	-7,919600
22,350333	0,5	-7,861200
22,358667	0,5	-7,769900
22,367000	0,5	-7,658700
22,375333	0,5	-7,586950
22,383667	0,5	-7,581800
22,392000	0,5	-7,637500
22,400333	0,5	-7,705050
22,408667	0,5	-7,785150
22,417000	0,5	-7,800100
22,425333	0,5	-7,834700
22,433667	0,5	-7,859600
22,442000	0,5	-7,893600
22,450333	0,5	-7,947700
22,458667	0,5	-7,954450
22,467000	0,5	-7,950200
22,475333	0,5	-7,954500
22,483667	0,5	-7,954550
22,492000	0,5	-7,949300
22,500333	0,5	-7,941100
22,508667	0,5	-7,942050
22,517000	0,5	-7,921350
22,525333	0,5	-7,908300
22,533667	0,5	-7,899650
22,542000	0,5	-7,904200
22,550333	0,5	-7,884900
22,558667	0,5	-7,828600
22,567000	0,5	-7,779750
22,575333	0,5	-7,762200
22,583667	0,5	-7,760950
22,592000	0,5	-7,757600
22,600333	0,5	-7,776600
22,608667	0,5	-7,767700
22,617000	0,5	-7,753400
22,625333	0,5	-7,750600
22,633667	0,5	-7,740400
22,642000	0,5	-7,731950
22,650333	0,5	-7,737250
22,658667	0,5	-7,726750
22,667000	0,5	-7,715950
22,675333	0,5	-7,728550
22,683667	0,5	-7,746050
22,692000	0,5	-7,791200
22,700333	0,5	-7,777650
22,708667	0,5	-7,761550
22,717000	0,5	-7,738200
22,725333	0,5	-7,762600
22,733667	0,5	-7,777850
22,742000	0,5	-7,802300
22,750333	0,5	-7,833300
22,758667	0,5	-7,832950
22,767000	0,5	-7,832100
22,775333	0,5	-7,846900
22,783667	0,5	-7,850950
22,792000	0,5	-7,864100
22,800333	0,5	-7,881400
22,808667	0,5	-7,891900
22,817000	0,5	-7,909000
22,825333	0,5	-7,925850
22,833667	0,5	-8,031150
22,842000	0,5	-8,049450
22,850333	0,5	-8,062750
22,858667	0,5	-8,071450
22,867000	0,5	-8,098200
22,875333	0,5	-8,136600
22,883667	0,5	-8,163200
22,892000	0,5	-8,201950
22,900333	0,5	-8,235000
22,908667	0,5	-8,269950
22,917000	0,5	-8,293300
22,925333	0,5	-8,323800
22,933667	0,5	-8,331100
22,942000	0,5	-8,340200
22,950333	0,5	-8,340800
22,958667	0,5	-8,341450
22,967000	0,5	-8,340100
22,975333	0,5	-8,305350
22,983667	0,5	-8,314000
22,992000	0,5	-8,308050
23,000333	0,5	-8,283400
23,008667	0,5	-8,297600
23,017000	0,5	-8,287950
23,025333	0,5	-8,258400
23,033667	0,5	-8,221000
23,042000	0,5	-8,206850
23,050333	0,5	-8,178350
23,058667	0,5	-8,140900
23,067000	0,5	-8,096400
23,075333	0,5	-8,050650
23,083667	0,5	-7,984450
23,092000	0,5	-7,922750
23,100333	0,5	-7,856250
23,108667	0,5	-7,783400
23,117000	0,5	-7,695850
23,125333	0,5	-7,580400
23,133667	0,5	-7,509550
23,142000	0,5	-7,434700
23,150333	0,5	-7,405500
23,158667	0,5	-7,346200
23,167000	0,5	-7,262650
23,175333	0,5	-7,183600
23,183667	0,5	-7,084450
23,192000	0,5	-7,034650
23,200333	0,5	-6,960400
23,208667	0,5	-6,879400
23,217000	0,5	-6,791600
23,225333	0,5	-6,713350
23,233667	0,5	-6,613600
23,242000	0,5	-6,527100
23,250333	0,5	-6,426300
23,258667	0,5	-6,331900
23,267000	0,5	-6,229850
23,275333	0,5	-6,137900
23,283667	0,5	-6,008550
23,292000	0,5	-5,905450
23,300333	0,5	-5,855850
23,308667	0,5	-5,785450
23,317000	0,5	-5,699300
23,325333	0,5	-5,603200
23,333667	0,5	-5,529450
23,342000	0,5	-5,467800
23,350333	0,5	-5,401750
23,358667	0,5	-5,321150
23,367000	0,5	-5,249050
23,375333	0,5	-5,170700
23,383667	0,5	-5,095000
23,392000	0,5	-5,015300
23,400333	0,5	-4,936450
23,408667	0,5	-4,854300
23,417000	0,5	-4,771650
23,425333	0,5	-4,744700
23,433667	0,5	-4,633150
23,442000	0,5	-4,534650
23,450333	0,5	-4,479200
23,458667	0,5	-4,429100
23,467000	0,5	-4,358950
23,475333	0,5	-4,290150
23,483667	0,5	-4,239150
23,492000	0,5	-4,203400
23,500333	0,5	-4,147500
23,508667	0,5	-4,100800
23,517000	0,5	-4,052400
23,525333	0,5	-4,001900
23,533667	0,5	-3,947750
23,542000	0,5	-3,907850
23,550333	0,5	-3,849050
23,558667	0,5	-3,802550
23,567000	0,5	-3,861100
23,575333	0,5	-3,803800
23,583667	0,5	-3,722800
23,592000	0,5	-3,636850
23,600333	0,5	-3,592150
23,608667	0,5	-3,557200
23,617000	0,5	-3,518050
23,625333	0,5	-3,482700
23,633667	0,5	-3,447550
23,642000	0,5	-3,418600
23,650333	0,5	-3,384350
23,658667	0,5	-3,352300
23,667000	0,5	-3,321450
23,675333	0,5	-3,288200
23,683667	0,5	-3,257150
23,692000	0,5	-3,219900
23,700333	0,5	-3,185200
23,708667	0,5	-3,162100
23,717000	0,5	-3,303900
23,725333	0,5	-3,249500
23,733667	0,5	-3,161050
23,742000	0,5	-3,092400
23,750333	0,5	-3,060750
23,758667	0,5	-3,035000
23,767000	0,5	-3,012400
23,775333	0,5	-2,996100
23,783667	0,5	-2,968750
23,792000	0,5	-2,948100
23,800333	0,5	-2,922400
23,808667	0,5	-2,893500
23,817000	0,5	-2,861850
23,825333	0,5	-2,832450
23,833667	0,5	-2,803750
23,842000	0,5	-2,768750
23,850333	0,5	-2,748700
23,858667	0,5	-2,829500
23,867000	0,5	-2,878000
23,875333	0,5	-2,813150
23,883667	0,5	-2,731600
23,892000	0,5	-2,664950
23,900333	0,5	-2,631000
23,908667	0,5	-2,600800
23,917000	0,5	-2,593350
23,925333	0,5	-2,569500
23,933667	0,5	-2,538650
23,942000	0,5	-2,519500
23,950333	0,5	-2,495850
23,958667	0,5	-2,475100
23,967000	0,5	-2,447150
23,975333	0,5	-2,431100
23,983667	0,5	-2,398800
23,992000	0,5	-2,374550
24,000333	0,5	-2,348050
24,008667	0,5	-2,503700
24,017000	0,5	-2,475250
24,025333	0,5	-2,426500
24,033667	0,5	-2,342800
24,042000	0,5	-2,293150
24,050333	0,5	-2,259450
24,058667	0,5	-2,246500
24,067000	0,5	-2,232950
24,075333	0,5	-2,195650
24,083667	0,5	-2,156950
24,092000	0,5	-2,132400
24,100333	0,5	-2,100700
24,108667	0,5	-2,071400
24,117000	0,5	-2,044850
24,125333	0,5	-2,013200
24,133667	0,5	-1,986750
24,142000	0,5	-1,956450
24,150333	0,5	-1,986950
24,158667	0,5	-2,079950
24,167000	0,5	-2,062200
24,175333	0,5	-1,996750
24,183667	0,5	-1,934550
24,192000	0,5	-1,897100
24,200333	0,5	-1,879600
24,208667	0,5	-1,867900
24,217000	0,5	-1,854300
24,225333	0,5	-1,818200
24,233667	0,5	-1,793400
24,242000	0,5	-1,764800
24,250333	0,5	-1,739150
24,258667	0,5	-1,719400
24,267000	0,5	-1,697050
24,275333	0,5	-1,668250
24,283667	0,5	-1,637850
24,292000	0,5	-1,619050
24,300333	0,5	-1,684550
24,308667	0,5	-1,693400
24,317000	0,5	-1,666200
24,325333	0,5	-1,604750
24,333667	0,5	-1,559650
24,342000	0,5	-1,528600
24,350333	0,5	-1,507800
24,358667	0,5	-1,519050
24,367000	0,5	-1,491350
24,375333	0,5	-1,469400
24,383667	0,5	-1,442700
24,392000	0,5	-1,428950
24,400333	0,5	-1,401900
24,408667	0,5	-1,388150
24,417000	0,5	-1,368050
24,425333	0,5	-1,345750
24,433667	0,5	-1,327350
24,442000	0,5	-1,313600
24,450333	0,5	-1,415150
24,458667	0,5	-1,380900
24,467000	0,5	-1,360650
24,475333	0,5	-1,305900
24,483667	0,5	-1,279600
24,492000	0,5	-1,255200
24,500333	0,5	-1,246650
24,508667	0,5	-1,242000
24,517000	0,5	-1,226100
24,525333	0,5	-1,194000
24,533667	0,5	-1,179800
24,542000	0,5	-1,159700
24,550333	0,5	-1,140200
24,558667	0,5	-1,128800
24,567000	0,5	-1,113750
24,575333	0,5	-1,088100
24,583667	0,5	-1,069450
24,592000	0,5	-1,086800
24,600333	0,5	-1,124400
24,608667	0,5	-1,105650
24,617000	0,5	-1,078200
24,625333	0,5	-1,046000
24,633667	0,5	-1,027500
24,642000	0,5	-1,020200
24,650333	0,5	-1,020100
24,658667	0,5	-1,023650
24,667000	0,5	-1,010150
24,675333	0,5	-0,996950
24,683667	0,5	-0,982950
24,692000	0,5	-0,968700
24,700333	0,5	-0,955750
24,708667	0,5	-0,940450
24,717000	0,5	-0,925950
24,725333	0,5	-0,911100
24,733667	0,5	-0,897600
24,742000	0,5	-0,931950
24,750333	0,5	-0,923950
24,758667	0,5	-0,908500
24,767000	0,5	-0,883850
24,775333	0,5	-0,858350
24,783667	0,5	-0,847350
24,792000	0,5	-0,835850
24,800333	0,5	-0,838800
24,808667	0,5	-0,827500
24,817000	0,5	-0,825300
24,825333	0,5	-0,817150
24,833667	0,5	-0,810350
24,842000	0,5	-0,802900
24,850333	0,5	-0,790950
24,858667	0,5	-0,794050
24,867000	0,5	-0,786850
24,875333	0,5	-0,776500
24,883667	0,5	-0,773600
24,892000	0,5	-0,803950
24,900333	0,5	-0,786950
24,908667	0,5	-0,774450
24,917000	0,5	-0,753900
24,925333	0,5	-0,735900
24,933667	0,5	-0,727850
24,942000	0,5	-0,723600
24,950333	0,5	-0,719150
24,958667	0,5	-0,711900
24,967000	0,5	-0,701000
24,975333	0,5	-0,694750
24,983667	0,5	-0,685950
24,992000	0,5	-0,679000
25,000333	0,5	-0,674250
25,008667	0,5	-0,667300
25,017000	0,5	-0,659200
25,025333	0,5	-0,660050
25,033667	0,5	-0,664050
25,042000	0,5	-0,678300
25,050333	0,5	-0,674050
25,058667	0,5	-0,665850
25,067000	0,5	-0,661200
25,075333	0,5	-0,657000
25,083667	0,5	-0,652500
25,092000	0,5	-0,650450
25,100333	0,5	-0,650800
25,108667	0,5	-0,643100
25,117000	0,5	-0,641450
25,125333	0,5	-0,633200
25,133667	0,5	-0,628350
25,142000	0,5	-0,623250
25,150333	0,5	-0,615450
25,158667	0,5	-0,605650
25,167000	0,5	-0,599300
25,175333	0,5	-0,603650
25,183667	0,5	-0,602550
25,192000	0,5	-0,596250
25,200333	0,5	-0,592900
25,208667	0,5	-0,587250
25,217000	0,5	-0,590450
25,225333	0,5	-0,583850
25,233667	0,5	-0,587650
25,242000	0,5	-0,589950
25,250333	0,5	-0,593750
25,258667	0,5	-0,590300
25,267000	0,5	-0,590300
25,275333	0,5	-0,591850
25,283667	0,5	-0,589100
25,292000	0,5	-0,586650
25,300333	0,5	-0,588050
25,308667	0,5	-0,582850
25,317000	0,5	-0,576700
25,325333	0,5	-0,571650
25,333667	0,5	-0,565500
25,342000	0,5	-0,562250
25,350333	0,5	-0,553550
25,358667	0,5	-0,553350
25,367000	0,5	-0,548900
25,375333	0,5	-0,548100
25,383667	0,5	-0,550350
25,392000	0,5	-0,546750
25,400333	0,5	-0,551350
25,408667	0,5	-0,545500
25,417000	0,5	-0,546850
25,425333	0,5	-0,552350
25,433667	0,5	-0,549600
25,442000	0,5	-0,550450
25,450333	0,5	-0,549450
25,458667	0,5	-0,548500
25,467000	0,5	-0,549950
25,475333	0,5	-0,548200
25,483667	0,5	-0,535800
25,492000	0,5	-0,542150
25,500333	0,5	-0,535200
25,508667	0,5	-0,538500
25,517000	0,5	-0,536750
25,525333	0,5	-0,537850
25,533667	0,5	-0,532450
25,542000	0,5	-0,529250
25,550333	0,5	-0,525550
25,558667	0,5	-0,526050
25,567000	0,5	-0,526650
25,575333	0,5	-0,527450
25,583667	0,5	-0,527050
25,592000	0,5	-0,525900
25,600333	0,5	-0,528450
25,608667	0,5	-0,528750
25,617000	0,5	-0,529550
25,625333	0,5	-0,519600
25,633667	0,5	-0,523450
25,642000	0,5	-0,519400
25,650333	0,5	-0,525150
25,658667	0,5	-0,527050
25,667000	0,5	-0,533550
25,675333	0,5	-0,529300
25,683667	0,5	-0,525550
25,692000	0,5	-0,516700
25,700333	0,5	-0,524250
25,708667	0,5	-0,522400
25,717000	0,5	-0,526450
25,725333	0,5	-0,526450
25,733667	0,5	-0,525650
25,742000	0,5	-0,524400
25,750333	0,5	-0,523350
25,758667	0,5	-0,521100
25,767000	0,5	-0,520700
25,775333	0,5	-0,503350
25,783667	0,5	-0,509100
25,792000	0,5	-0,502950
25,800333	0,5	-0,511100
25,808667	0,5	-0,517050
25,817000	0,5	-0,517100
25,825333	0,5	-0,509050
25,833667	0,5	-0,497800
25,842000	0,5	-0,497000
25,850333	0,5	-0,501450
25,858667	0,5	-0,509550
25,867000	0,5	-0,503650
25,875333	0,5	-0,506350
25,883667	0,5	-0,501600
25,892000	0,5	-0,505050
25,900333	0,5	-0,504850
25,908667	0,5	-0,500100
25,917000	0,5	-0,496700
25,925333	0,5	-0,487950
25,933667	0,5	-0,479500
25,942000	0,5	-0,482700
25,950333	0,5	-0,489600
25,958667	0,5	-0,485750
25,967000	0,5	-0,481250
25,975333	0,5	-0,470350
25,983667	0,5	-0,463850
25,992000	0,5	-0,462350
26,000333	0,5	-0,464300
