File Path	chrom://chromeleon01/ikbm_chromeleon/2022/ICS-5000/ED1/Esteban/20220427_Cell_Amandas_mutants.seq/985.smp/ED_1.channel/ED_1.chm
Channel	ED_1

Injection Information:
Data Vault	ikbm_chromeleon
Injection	T24h_BMCC_3a
Injection Number	49
Position	GA1
Comment	
Processing Method	Stop sequence after Cell Death
Instrument Method	ICS5000_PA200_FullNative_Ox_26min_ED1
Type	Unknown
Status	Finished
Injection Date	28.04.2022
Injection Time	11:52:13
Injection Volume (µl)	5,0
Dilution Factor	1,0000
Weight	1,0000

Chromatogram Data Information:
Time Min. (min)	0,000333
Time Max. (min)	26,000333
Data Points	3121
Detector	EDet1
Generating Data System	Chromeleon 7.2.9.11323
Exporting Data System	Chromeleon 7.2.9.0
Operator	Instrument Controller
Signal Quantity	
Signal Unit	nC
Signal Min.	-8,189950
Signal Max.	44,867951
Channel	ED_1
Driver Name	DC-5000
Channel Type	Evaluation
Min. Step (s)	0,5
Max. Step (s)	0,5
Average Step (s)	0,5

Signal Parameter Information:
Signal Info	

Chromatogram Data:
Time (min)	Step (s)	Value (nC)
0,000333	n.a.	-0,113200
0,008667	0,5	-0,107100
0,017000	0,5	-0,099200
0,025333	0,5	-0,073600
0,033667	0,5	-0,064600
0,042000	0,5	-0,069750
0,050333	0,5	-0,051400
0,058667	0,5	-0,055100
0,067000	0,5	-0,050950
0,075333	0,5	-0,026700
0,083667	0,5	-0,032900
0,092000	0,5	-0,062200
0,100333	0,5	-0,039900
0,108667	0,5	-0,041050
0,117000	0,5	0,005550
0,125333	0,5	0,010100
0,133667	0,5	0,017350
0,142000	0,5	-0,001250
0,150333	0,5	0,011700
0,158667	0,5	-0,013900
0,167000	0,5	-0,011050
0,175333	0,5	-0,015350
0,183667	0,5	-0,020400
0,192000	0,5	-0,018450
0,200333	0,5	-0,018450
0,208667	0,5	-0,020250
0,217000	0,5	-0,017700
0,225333	0,5	-0,004600
0,233667	0,5	-0,028050
0,242000	0,5	-0,044950
0,250333	0,5	-0,043750
0,258667	0,5	-0,027550
0,267000	0,5	0,003050
0,275333	0,5	0,012050
0,283667	0,5	-0,019150
0,292000	0,5	0,008350
0,300333	0,5	0,037950
0,308667	0,5	0,046450
0,317000	0,5	-0,012400
0,325333	0,5	-0,032100
0,333667	0,5	-0,042800
0,342000	0,5	-0,042350
0,350333	0,5	-0,042350
0,358667	0,5	-0,050050
0,367000	0,5	-0,048700
0,375333	0,5	-0,030700
0,383667	0,5	-0,054350
0,392000	0,5	-0,051850
0,400333	0,5	-0,049350
0,408667	0,5	-0,025400
0,417000	0,5	-0,005200
0,425333	0,5	-0,033350
0,433667	0,5	-0,032800
0,442000	0,5	-0,034700
0,450333	0,5	-0,035350
0,458667	0,5	-0,044650
0,467000	0,5	-0,034800
0,475333	0,5	-0,050500
0,483667	0,5	-0,052400
0,492000	0,5	-0,045100
0,500333	0,5	-0,042650
0,508667	0,5	-0,075450
0,517000	0,5	-0,036750
0,525333	0,5	-0,050950
0,533667	0,5	-0,061050
0,542000	0,5	-0,067300
0,550333	0,5	-0,051600
0,558667	0,5	-0,012350
0,567000	0,5	-0,011550
0,575333	0,5	-0,025050
0,583667	0,5	-0,022950
0,592000	0,5	-0,014250
0,600333	0,5	-0,018250
0,608667	0,5	-0,024950
0,617000	0,5	-0,028650
0,625333	0,5	-0,029350
0,633667	0,5	-0,037650
0,642000	0,5	-0,022100
0,650333	0,5	-0,021400
0,658667	0,5	-0,030950
0,667000	0,5	-0,009450
0,675333	0,5	-0,031350
0,683667	0,5	-0,035500
0,692000	0,5	-0,021700
0,700333	0,5	-0,011500
0,708667	0,5	0,030050
0,717000	0,5	0,017850
0,725333	0,5	0,000900
0,733667	0,5	-0,005250
0,742000	0,5	0,004200
0,750333	0,5	0,001550
0,758667	0,5	0,004300
0,767000	0,5	0,010350
0,775333	0,5	0,002650
0,783667	0,5	0,009650
0,792000	0,5	0,023600
0,800333	0,5	0,046700
0,808667	0,5	0,017050
0,817000	0,5	0,052550
0,825333	0,5	0,022750
0,833667	0,5	0,025400
0,842000	0,5	0,017050
0,850333	0,5	0,037950
0,858667	0,5	0,072350
0,867000	0,5	0,069900
0,875333	0,5	0,058500
0,883667	0,5	0,069850
0,892000	0,5	0,071200
0,900333	0,5	0,068850
0,908667	0,5	0,064000
0,917000	0,5	0,063200
0,925333	0,5	0,070250
0,933667	0,5	0,068200
0,942000	0,5	0,083300
0,950333	0,5	0,066400
0,958667	0,5	0,084700
0,967000	0,5	0,088200
0,975333	0,5	0,065400
0,983667	0,5	0,073250
0,992000	0,5	0,094450
1,000333	0,5	0,123000
1,008667	0,5	0,151550
1,017000	0,5	0,136550
1,025333	0,5	0,140350
1,033667	0,5	0,133850
1,042000	0,5	0,140700
1,050333	0,5	0,131400
1,058667	0,5	0,145000
1,067000	0,5	0,141700
1,075333	0,5	0,144500
1,083667	0,5	0,145950
1,092000	0,5	0,147850
1,100333	0,5	0,143000
1,108667	0,5	0,168750
1,117000	0,5	0,160100
1,125333	0,5	0,147600
1,133667	0,5	0,161600
1,142000	0,5	0,167000
1,150333	0,5	0,209200
1,158667	0,5	0,224800
1,167000	0,5	0,239750
1,175333	0,5	0,229750
1,183667	0,5	0,242850
1,192000	0,5	0,241600
1,200333	0,5	0,250700
1,208667	0,5	0,243200
1,217000	0,5	0,246150
1,225333	0,5	0,251600
1,233667	0,5	0,257000
1,242000	0,5	0,256650
1,250333	0,5	0,273000
1,258667	0,5	0,290250
1,267000	0,5	0,282550
1,275333	0,5	0,277300
1,283667	0,5	0,291250
1,292000	0,5	0,332250
1,300333	0,5	0,362100
1,308667	0,5	0,372700
1,317000	0,5	0,363600
1,325333	0,5	0,372250
1,333667	0,5	0,368950
1,342000	0,5	0,376700
1,350333	0,5	0,380650
1,358667	0,5	0,396100
1,367000	0,5	0,395150
1,375333	0,5	0,410450
1,383667	0,5	0,419450
1,392000	0,5	0,434150
1,400333	0,5	0,455900
1,408667	0,5	0,463800
1,417000	0,5	0,450350
1,425333	0,5	0,454400
1,433667	0,5	0,463400
1,442000	0,5	0,497700
1,450333	0,5	0,521800
1,458667	0,5	0,514650
1,467000	0,5	0,521550
1,475333	0,5	0,533850
1,483667	0,5	0,536600
1,492000	0,5	0,545800
1,500333	0,5	0,558000
1,508667	0,5	0,552700
1,517000	0,5	0,558300
1,525333	0,5	0,561550
1,533667	0,5	0,577300
1,542000	0,5	0,556900
1,550333	0,5	0,613050
1,558667	0,5	0,587500
1,567000	0,5	0,534300
1,575333	0,5	0,278950
1,583667	0,5	-0,438700
1,592000	0,5	-1,249800
1,600333	0,5	-0,947150
1,608667	0,5	0,812750
1,617000	0,5	2,892850
1,625333	0,5	4,948000
1,633667	0,5	7,187650
1,642000	0,5	9,129350
1,650333	0,5	9,982100
1,658667	0,5	9,723750
1,667000	0,5	8,953550
1,675333	0,5	8,112900
1,683667	0,5	7,328250
1,692000	0,5	6,770650
1,700333	0,5	6,725800
1,708667	0,5	7,768700
1,717000	0,5	10,905050
1,725333	0,5	15,355900
1,733667	0,5	17,767250
1,742000	0,5	16,371050
1,750333	0,5	12,985300
1,758667	0,5	9,943000
1,767000	0,5	7,907250
1,775333	0,5	6,855800
1,783667	0,5	6,876200
1,792000	0,5	8,083900
1,800333	0,5	9,804850
1,808667	0,5	11,017350
1,817000	0,5	11,328700
1,825333	0,5	10,702450
1,833667	0,5	9,460100
1,842000	0,5	8,134450
1,850333	0,5	7,082500
1,858667	0,5	6,252200
1,867000	0,5	5,653150
1,875333	0,5	5,191550
1,883667	0,5	4,840300
1,892000	0,5	4,566100
1,900333	0,5	4,281750
1,908667	0,5	4,031850
1,917000	0,5	3,847650
1,925333	0,5	3,673400
1,933667	0,5	3,553500
1,942000	0,5	3,464500
1,950333	0,5	3,411850
1,958667	0,5	3,358050
1,967000	0,5	3,314700
1,975333	0,5	3,307950
1,983667	0,5	3,294400
1,992000	0,5	3,315750
2,000333	0,5	3,323050
2,008667	0,5	3,326650
2,017000	0,5	3,384300
2,025333	0,5	3,542300
2,033667	0,5	3,934400
2,042000	0,5	4,510300
2,050333	0,5	5,082300
2,058667	0,5	5,773200
2,067000	0,5	6,694550
2,075333	0,5	7,745350
2,083667	0,5	8,624550
2,092000	0,5	9,245350
2,100333	0,5	9,602500
2,108667	0,5	9,818800
2,117000	0,5	9,975300
2,125333	0,5	10,154750
2,133667	0,5	10,437600
2,142000	0,5	10,907650
2,150333	0,5	11,571850
2,158667	0,5	12,224050
2,167000	0,5	12,354950
2,175333	0,5	11,861300
2,183667	0,5	11,154150
2,192000	0,5	10,555700
2,200333	0,5	10,123250
2,208667	0,5	9,811150
2,217000	0,5	9,600750
2,225333	0,5	9,450200
2,233667	0,5	9,376150
2,242000	0,5	9,337850
2,250333	0,5	9,329000
2,258667	0,5	9,321800
2,267000	0,5	9,334600
2,275333	0,5	9,333500
2,283667	0,5	9,366550
2,292000	0,5	9,416600
2,300333	0,5	9,444550
2,308667	0,5	9,478200
2,317000	0,5	9,543200
2,325333	0,5	9,638850
2,333667	0,5	9,743800
2,342000	0,5	9,843400
2,350333	0,5	9,933900
2,358667	0,5	10,042800
2,367000	0,5	10,139500
2,375333	0,5	10,255000
2,383667	0,5	10,387450
2,392000	0,5	10,578450
2,400333	0,5	10,824800
2,408667	0,5	11,201100
2,417000	0,5	11,670850
2,425333	0,5	12,150550
2,433667	0,5	12,444500
2,442000	0,5	12,417900
2,450333	0,5	12,238900
2,458667	0,5	12,164700
2,467000	0,5	12,167950
2,475333	0,5	12,216750
2,483667	0,5	12,227100
2,492000	0,5	12,220600
2,500333	0,5	12,182950
2,508667	0,5	12,155400
2,517000	0,5	12,106050
2,525333	0,5	12,056500
2,533667	0,5	12,005250
2,542000	0,5	11,959500
2,550333	0,5	11,946250
2,558667	0,5	11,970750
2,567000	0,5	12,081050
2,575333	0,5	12,268150
2,583667	0,5	12,697700
2,592000	0,5	13,405600
2,600333	0,5	14,579150
2,608667	0,5	16,190450
2,617000	0,5	18,038700
2,625333	0,5	19,731800
2,633667	0,5	20,906700
2,642000	0,5	21,464450
2,650333	0,5	21,467150
2,658667	0,5	20,981100
2,667000	0,5	20,161550
2,675333	0,5	19,186200
2,683667	0,5	18,290200
2,692000	0,5	17,653750
2,700333	0,5	17,461550
2,708667	0,5	17,979300
2,717000	0,5	19,519050
2,725333	0,5	22,372300
2,733667	0,5	26,506450
2,742000	0,5	31,324450
2,750333	0,5	36,161401
2,758667	0,5	40,342801
2,767000	0,5	43,215951
2,775333	0,5	44,227351
2,783667	0,5	43,101451
2,792000	0,5	40,308851
2,800333	0,5	36,575201
2,808667	0,5	32,685500
2,817000	0,5	29,215600
2,825333	0,5	26,644250
2,833667	0,5	25,386750
2,842000	0,5	26,039050
2,850333	0,5	29,139900
2,858667	0,5	34,444651
2,867000	0,5	40,302751
2,875333	0,5	44,314551
2,883667	0,5	44,867951
2,892000	0,5	42,058801
2,900333	0,5	37,313051
2,908667	0,5	32,114450
2,917000	0,5	27,381500
2,925333	0,5	23,407100
2,933667	0,5	20,146700
2,942000	0,5	17,520100
2,950333	0,5	15,441750
2,958667	0,5	13,770950
2,967000	0,5	12,448550
2,975333	0,5	11,378400
2,983667	0,5	10,508200
2,992000	0,5	9,793700
3,000333	0,5	9,191400
3,008667	0,5	8,674600
3,017000	0,5	8,214050
3,025333	0,5	7,821600
3,033667	0,5	7,461400
3,042000	0,5	7,132650
3,050333	0,5	6,839700
3,058667	0,5	6,582400
3,067000	0,5	6,358700
3,075333	0,5	6,143350
3,083667	0,5	5,907400
3,092000	0,5	5,698700
3,100333	0,5	5,489000
3,108667	0,5	5,292800
3,117000	0,5	5,116450
3,125333	0,5	4,970000
3,133667	0,5	4,839200
3,142000	0,5	4,760050
3,150333	0,5	4,717950
3,158667	0,5	4,728050
3,167000	0,5	4,775200
3,175333	0,5	4,918200
3,183667	0,5	5,121150
3,192000	0,5	5,504400
3,200333	0,5	6,194250
3,208667	0,5	7,404000
3,217000	0,5	9,319800
3,225333	0,5	11,935500
3,233667	0,5	14,918550
3,242000	0,5	17,615900
3,250333	0,5	19,329950
3,258667	0,5	19,661050
3,267000	0,5	18,673100
3,275333	0,5	16,725950
3,283667	0,5	14,324850
3,292000	0,5	11,927900
3,300333	0,5	9,827300
3,308667	0,5	8,118100
3,317000	0,5	6,820950
3,325333	0,5	5,847600
3,333667	0,5	5,094350
3,342000	0,5	4,516550
3,350333	0,5	4,077450
3,358667	0,5	3,738550
3,367000	0,5	3,476850
3,375333	0,5	3,239200
3,383667	0,5	3,033350
3,392000	0,5	2,863200
3,400333	0,5	2,728550
3,408667	0,5	2,609600
3,417000	0,5	2,523200
3,425333	0,5	2,455000
3,433667	0,5	2,384650
3,442000	0,5	2,336350
3,450333	0,5	2,260900
3,458667	0,5	2,178050
3,467000	0,5	2,105350
3,475333	0,5	2,012100
3,483667	0,5	1,915950
3,492000	0,5	1,841450
3,500333	0,5	1,772800
3,508667	0,5	1,745800
3,517000	0,5	1,688800
3,525333	0,5	1,639450
3,533667	0,5	1,587700
3,542000	0,5	1,554950
3,550333	0,5	1,510700
3,558667	0,5	1,485550
3,567000	0,5	1,450750
3,575333	0,5	1,413000
3,583667	0,5	1,377900
3,592000	0,5	1,338700
3,600333	0,5	1,310000
3,608667	0,5	1,270800
3,617000	0,5	1,262400
3,625333	0,5	1,206300
3,633667	0,5	1,165900
3,642000	0,5	1,128800
3,650333	0,5	1,107350
3,658667	0,5	1,106050
3,667000	0,5	1,070350
3,675333	0,5	1,025750
3,683667	0,5	1,003450
3,692000	0,5	0,968200
3,700333	0,5	0,951100
3,708667	0,5	0,917500
3,717000	0,5	0,895700
3,725333	0,5	0,873150
3,733667	0,5	0,857500
3,742000	0,5	0,844800
3,750333	0,5	0,816600
3,758667	0,5	0,805250
3,767000	0,5	0,816000
3,775333	0,5	0,787250
3,783667	0,5	0,777000
3,792000	0,5	0,770900
3,800333	0,5	0,787500
3,808667	0,5	0,806600
3,817000	0,5	0,771300
3,825333	0,5	0,763800
3,833667	0,5	0,744250
3,842000	0,5	0,744400
3,850333	0,5	0,731550
3,858667	0,5	0,727450
3,867000	0,5	0,709900
3,875333	0,5	0,699550
3,883667	0,5	0,687600
3,892000	0,5	0,671450
3,900333	0,5	0,647400
3,908667	0,5	0,648350
3,917000	0,5	0,631850
3,925333	0,5	0,611500
3,933667	0,5	0,600550
3,942000	0,5	0,600400
3,950333	0,5	0,607150
3,958667	0,5	0,607250
3,967000	0,5	0,594900
3,975333	0,5	0,576500
3,983667	0,5	0,571250
3,992000	0,5	0,552250
4,000333	0,5	0,549300
4,008667	0,5	0,534950
4,017000	0,5	0,527050
4,025333	0,5	0,508550
4,033667	0,5	0,510100
4,042000	0,5	0,499500
4,050333	0,5	0,486550
4,058667	0,5	0,486950
4,067000	0,5	0,472650
4,075333	0,5	0,450500
4,083667	0,5	0,444050
4,092000	0,5	0,455400
4,100333	0,5	0,465650
4,108667	0,5	0,477300
4,117000	0,5	0,456700
4,125333	0,5	0,446600
4,133667	0,5	0,441600
4,142000	0,5	0,433200
4,150333	0,5	0,427750
4,158667	0,5	0,422250
4,167000	0,5	0,408050
4,175333	0,5	0,409600
4,183667	0,5	0,408450
4,192000	0,5	0,404450
4,200333	0,5	0,393850
4,208667	0,5	0,407100
4,217000	0,5	0,381850
4,225333	0,5	0,381000
4,233667	0,5	0,377150
4,242000	0,5	0,389750
4,250333	0,5	0,402800
4,258667	0,5	0,402800
4,267000	0,5	0,394900
4,275333	0,5	0,393400
4,283667	0,5	0,383500
4,292000	0,5	0,381600
4,300333	0,5	0,378050
4,308667	0,5	0,382100
4,317000	0,5	0,376700
4,325333	0,5	0,374600
4,333667	0,5	0,376650
4,342000	0,5	0,363100
4,350333	0,5	0,373450
4,358667	0,5	0,373350
4,367000	0,5	0,364700
4,375333	0,5	0,367200
4,383667	0,5	0,377500
4,392000	0,5	0,401150
4,400333	0,5	0,432400
4,408667	0,5	0,445200
4,417000	0,5	0,467550
4,425333	0,5	0,467150
4,433667	0,5	0,479600
4,442000	0,5	0,480850
4,450333	0,5	0,488350
4,458667	0,5	0,490150
4,467000	0,5	0,487750
4,475333	0,5	0,486350
4,483667	0,5	0,475900
4,492000	0,5	0,471000
4,500333	0,5	0,481900
4,508667	0,5	0,478100
4,517000	0,5	0,463350
4,525333	0,5	0,461500
4,533667	0,5	0,465450
4,542000	0,5	0,491950
4,550333	0,5	0,483800
4,558667	0,5	0,478500
4,567000	0,5	0,465500
4,575333	0,5	0,465000
4,583667	0,5	0,446500
4,592000	0,5	0,442650
4,600333	0,5	0,432650
4,608667	0,5	0,427700
4,617000	0,5	0,421050
4,625333	0,5	0,416350
4,633667	0,5	0,415850
4,642000	0,5	0,405050
4,650333	0,5	0,422400
4,658667	0,5	0,406400
4,667000	0,5	0,395050
4,675333	0,5	0,393800
4,683667	0,5	0,408500
4,692000	0,5	0,431250
4,700333	0,5	0,434500
4,708667	0,5	0,425450
4,717000	0,5	0,440900
4,725333	0,5	0,438250
4,733667	0,5	0,444400
4,742000	0,5	0,443800
4,750333	0,5	0,451600
4,758667	0,5	0,452500
4,767000	0,5	0,459600
4,775333	0,5	0,462850
4,783667	0,5	0,463050
4,792000	0,5	0,468800
4,800333	0,5	0,478400
4,808667	0,5	0,461750
4,817000	0,5	0,458950
4,825333	0,5	0,464550
4,833667	0,5	0,477350
4,842000	0,5	0,497500
4,850333	0,5	0,481800
4,858667	0,5	0,486550
4,867000	0,5	0,482250
4,875333	0,5	0,486500
4,883667	0,5	0,484650
4,892000	0,5	0,499400
4,900333	0,5	0,504650
4,908667	0,5	0,503100
4,917000	0,5	0,510650
4,925333	0,5	0,519950
4,933667	0,5	0,503750
4,942000	0,5	0,532400
4,950333	0,5	0,531900
4,958667	0,5	0,535600
4,967000	0,5	0,532700
4,975333	0,5	0,555300
4,983667	0,5	0,582000
4,992000	0,5	0,593200
5,000333	0,5	0,592800
5,008667	0,5	0,596000
5,017000	0,5	0,606600
5,025333	0,5	0,611250
5,033667	0,5	0,615900
5,042000	0,5	0,610550
5,050333	0,5	0,618350
5,058667	0,5	0,615500
5,067000	0,5	0,623900
5,075333	0,5	0,622750
5,083667	0,5	0,624150
5,092000	0,5	0,639400
5,100333	0,5	0,628100
5,108667	0,5	0,627800
5,117000	0,5	0,629500
5,125333	0,5	0,642150
5,133667	0,5	0,675100
5,142000	0,5	0,682850
5,150333	0,5	0,677850
5,158667	0,5	0,670200
5,167000	0,5	0,675650
5,175333	0,5	0,679500
5,183667	0,5	0,686400
5,192000	0,5	0,702650
5,200333	0,5	0,709950
5,208667	0,5	0,726250
5,217000	0,5	0,742350
5,225333	0,5	0,770200
5,233667	0,5	0,781800
5,242000	0,5	0,801200
5,250333	0,5	0,783400
5,258667	0,5	0,791500
5,267000	0,5	0,784100
5,275333	0,5	0,799850
5,283667	0,5	0,812600
5,292000	0,5	0,806950
5,300333	0,5	0,791250
5,308667	0,5	0,792850
5,317000	0,5	0,775600
5,325333	0,5	0,773450
5,333667	0,5	0,773450
5,342000	0,5	0,764700
5,350333	0,5	0,757300
5,358667	0,5	0,753750
5,367000	0,5	0,760450
5,375333	0,5	0,756750
5,383667	0,5	0,770700
5,392000	0,5	0,775800
5,400333	0,5	0,763000
5,408667	0,5	0,763900
5,417000	0,5	0,774100
5,425333	0,5	0,799650
5,433667	0,5	0,823350
5,442000	0,5	0,814000
5,450333	0,5	0,825600
5,458667	0,5	0,824200
5,467000	0,5	0,827200
5,475333	0,5	0,823600
5,483667	0,5	0,834200
5,492000	0,5	0,833750
5,500333	0,5	0,843150
5,508667	0,5	0,855900
5,517000	0,5	0,846100
5,525333	0,5	0,851150
5,533667	0,5	0,871300
5,542000	0,5	0,867550
5,550333	0,5	0,863050
5,558667	0,5	0,869000
5,567000	0,5	0,884100
5,575333	0,5	0,915500
5,583667	0,5	0,918700
5,592000	0,5	0,924850
5,600333	0,5	0,920600
5,608667	0,5	0,929250
5,617000	0,5	0,926200
5,625333	0,5	0,940400
5,633667	0,5	0,946200
5,642000	0,5	0,950400
5,650333	0,5	0,952250
5,658667	0,5	0,963600
5,667000	0,5	0,956600
5,675333	0,5	0,972650
5,683667	0,5	0,988600
5,692000	0,5	0,984900
5,700333	0,5	0,980850
5,708667	0,5	0,996550
5,717000	0,5	1,013750
5,725333	0,5	1,029500
5,733667	0,5	1,042050
5,742000	0,5	1,037450
5,750333	0,5	1,047650
5,758667	0,5	1,049850
5,767000	0,5	1,055650
5,775333	0,5	1,059000
5,783667	0,5	1,063450
5,792000	0,5	1,066400
5,800333	0,5	1,077900
5,808667	0,5	1,087900
5,817000	0,5	1,091500
5,825333	0,5	1,107100
5,833667	0,5	1,118300
5,842000	0,5	1,115300
5,850333	0,5	1,118450
5,858667	0,5	1,131550
5,867000	0,5	1,161200
5,875333	0,5	1,181550
5,883667	0,5	1,177850
5,892000	0,5	1,177750
5,900333	0,5	1,188000
5,908667	0,5	1,195800
5,917000	0,5	1,206700
5,925333	0,5	1,217400
5,933667	0,5	1,220650
5,942000	0,5	1,235150
5,950333	0,5	1,238550
5,958667	0,5	1,249350
5,967000	0,5	1,236150
5,975333	0,5	1,261200
5,983667	0,5	1,254500
5,992000	0,5	1,256000
6,000333	0,5	1,257050
6,008667	0,5	1,273600
6,017000	0,5	1,298950
6,025333	0,5	1,305550
6,033667	0,5	1,305350
6,042000	0,5	1,319450
6,050333	0,5	1,325650
6,058667	0,5	1,325100
6,067000	0,5	1,332900
6,075333	0,5	1,334750
6,083667	0,5	1,339600
6,092000	0,5	1,343900
6,100333	0,5	1,352400
6,108667	0,5	1,351000
6,117000	0,5	1,352650
6,125333	0,5	1,376500
6,133667	0,5	1,369900
6,142000	0,5	1,380950
6,150333	0,5	1,384400
6,158667	0,5	1,403400
6,167000	0,5	1,433450
6,175333	0,5	1,434450
6,183667	0,5	1,439750
6,192000	0,5	1,445350
6,200333	0,5	1,450950
6,208667	0,5	1,452300
6,217000	0,5	1,461300
6,225333	0,5	1,467400
6,233667	0,5	1,473550
6,242000	0,5	1,490050
6,250333	0,5	1,493350
6,258667	0,5	1,496050
6,267000	0,5	1,505000
6,275333	0,5	1,516950
6,283667	0,5	1,507750
6,292000	0,5	1,520050
6,300333	0,5	1,527200
6,308667	0,5	1,551750
6,317000	0,5	1,575600
6,325333	0,5	1,583950
6,333667	0,5	1,588500
6,342000	0,5	1,604800
6,350333	0,5	1,606150
6,358667	0,5	1,617700
6,367000	0,5	1,622900
6,375333	0,5	1,628350
6,383667	0,5	1,642700
6,392000	0,5	1,646050
6,400333	0,5	1,659800
6,408667	0,5	1,665050
6,417000	0,5	1,677950
6,425333	0,5	1,686000
6,433667	0,5	1,683250
6,442000	0,5	1,689050
6,450333	0,5	1,704350
6,458667	0,5	1,716750
6,467000	0,5	1,736700
6,475333	0,5	1,730700
6,483667	0,5	1,740500
6,492000	0,5	1,739900
6,500333	0,5	1,742400
6,508667	0,5	1,743900
6,517000	0,5	1,750550
6,525333	0,5	1,753500
6,533667	0,5	1,762650
6,542000	0,5	1,769850
6,550333	0,5	1,770900
6,558667	0,5	1,770850
6,567000	0,5	1,790950
6,575333	0,5	1,785450
6,583667	0,5	1,786150
6,592000	0,5	1,788850
6,600333	0,5	1,807550
6,608667	0,5	1,829800
6,617000	0,5	1,840200
6,625333	0,5	1,845900
6,633667	0,5	1,848500
6,642000	0,5	1,850950
6,650333	0,5	1,856900
6,658667	0,5	1,869650
6,667000	0,5	1,874350
6,675333	0,5	1,876550
6,683667	0,5	1,883550
6,692000	0,5	1,889700
6,700333	0,5	1,886250
6,708667	0,5	1,903000
6,717000	0,5	1,911450
6,725333	0,5	1,912150
6,733667	0,5	1,911150
6,742000	0,5	1,920700
6,750333	0,5	1,944700
6,758667	0,5	1,956600
6,767000	0,5	1,964150
6,775333	0,5	1,966400
6,783667	0,5	1,969250
6,792000	0,5	1,966250
6,800333	0,5	1,974100
6,808667	0,5	1,974050
6,817000	0,5	1,978100
6,825333	0,5	1,979000
6,833667	0,5	1,979950
6,842000	0,5	1,989250
6,850333	0,5	1,999000
6,858667	0,5	2,011400
6,867000	0,5	2,007100
6,875333	0,5	1,998400
6,883667	0,5	1,997850
6,892000	0,5	2,002850
6,900333	0,5	2,025650
6,908667	0,5	2,024850
6,917000	0,5	2,018900
6,925333	0,5	2,019950
6,933667	0,5	2,018400
6,942000	0,5	2,013950
6,950333	0,5	2,015900
6,958667	0,5	2,022950
6,967000	0,5	2,014200
6,975333	0,5	2,011250
6,983667	0,5	2,009100
6,992000	0,5	2,017150
7,000333	0,5	2,002850
7,008667	0,5	2,017000
7,017000	0,5	2,003750
7,025333	0,5	1,998600
7,033667	0,5	1,996300
7,042000	0,5	2,001350
7,050333	0,5	2,015700
7,058667	0,5	2,020200
7,067000	0,5	2,009550
7,075333	0,5	2,007700
7,083667	0,5	2,010650
7,092000	0,5	2,004700
7,100333	0,5	2,005450
7,108667	0,5	2,012600
7,117000	0,5	2,016600
7,125333	0,5	2,029850
7,133667	0,5	2,045300
7,142000	0,5	2,060000
7,150333	0,5	2,078300
7,158667	0,5	2,104850
7,167000	0,5	2,095600
7,175333	0,5	2,085500
7,183667	0,5	2,067000
7,192000	0,5	2,057200
7,200333	0,5	2,051200
7,208667	0,5	2,029450
7,217000	0,5	2,012500
7,225333	0,5	1,993850
7,233667	0,5	1,987800
7,242000	0,5	1,972400
7,250333	0,5	1,966000
7,258667	0,5	1,961000
7,267000	0,5	1,954300
7,275333	0,5	1,953750
7,283667	0,5	1,951750
7,292000	0,5	1,947100
7,300333	0,5	1,944450
7,308667	0,5	1,938150
7,317000	0,5	1,927200
7,325333	0,5	1,921400
7,333667	0,5	1,921700
7,342000	0,5	1,934900
7,350333	0,5	1,940000
7,358667	0,5	1,942400
7,367000	0,5	1,939000
7,375333	0,5	1,937950
7,383667	0,5	1,933300
7,392000	0,5	1,932100
7,400333	0,5	1,932950
7,408667	0,5	1,937000
7,417000	0,5	1,934950
7,425333	0,5	1,939700
7,433667	0,5	1,952550
7,442000	0,5	1,957950
7,450333	0,5	1,968750
7,458667	0,5	1,974250
7,467000	0,5	1,981250
7,475333	0,5	1,994400
7,483667	0,5	2,021850
7,492000	0,5	2,060000
7,500333	0,5	2,111900
7,508667	0,5	2,167500
7,517000	0,5	2,250350
7,525333	0,5	2,351450
7,533667	0,5	2,459850
7,542000	0,5	2,575950
7,550333	0,5	2,682400
7,558667	0,5	2,750400
7,567000	0,5	2,797150
7,575333	0,5	2,801600
7,583667	0,5	2,773050
7,592000	0,5	2,716900
7,600333	0,5	2,652000
7,608667	0,5	2,581600
7,617000	0,5	2,514150
7,625333	0,5	2,460350
7,633667	0,5	2,424800
7,642000	0,5	2,398600
7,650333	0,5	2,363500
7,658667	0,5	2,330050
7,667000	0,5	2,293750
7,675333	0,5	2,255750
7,683667	0,5	2,218350
7,692000	0,5	2,190150
7,700333	0,5	2,157050
7,708667	0,5	2,132950
7,717000	0,5	2,113700
7,725333	0,5	2,095550
7,733667	0,5	2,068550
7,742000	0,5	2,058300
7,750333	0,5	2,049050
7,758667	0,5	2,033900
7,767000	0,5	2,020700
7,775333	0,5	2,016600
7,783667	0,5	2,014800
7,792000	0,5	2,011100
7,800333	0,5	2,007350
7,808667	0,5	1,997600
7,817000	0,5	1,995050
7,825333	0,5	1,985500
7,833667	0,5	1,989900
7,842000	0,5	1,986000
7,850333	0,5	1,990750
7,858667	0,5	1,999500
7,867000	0,5	2,001450
7,875333	0,5	2,000400
7,883667	0,5	1,994300
7,892000	0,5	1,995000
7,900333	0,5	1,989200
7,908667	0,5	1,984650
7,917000	0,5	1,979200
7,925333	0,5	1,985900
7,933667	0,5	1,992100
7,942000	0,5	1,984300
7,950333	0,5	1,975500
7,958667	0,5	1,959450
7,967000	0,5	1,947750
7,975333	0,5	1,939200
7,983667	0,5	1,932550
7,992000	0,5	1,926000
8,000333	0,5	1,923800
8,008667	0,5	1,923000
8,017000	0,5	1,926250
8,025333	0,5	1,935550
8,033667	0,5	1,940250
8,042000	0,5	1,968550
8,050333	0,5	1,988550
8,058667	0,5	2,019350
8,067000	0,5	2,052500
8,075333	0,5	2,076350
8,083667	0,5	2,084200
8,092000	0,5	2,063900
8,100333	0,5	2,027850
8,108667	0,5	2,004700
8,117000	0,5	1,981250
8,125333	0,5	1,963450
8,133667	0,5	1,956150
8,142000	0,5	1,966700
8,150333	0,5	1,985100
8,158667	0,5	2,013800
8,167000	0,5	2,039100
8,175333	0,5	2,065500
8,183667	0,5	2,085950
8,192000	0,5	2,101000
8,200333	0,5	2,104650
8,208667	0,5	2,096450
8,217000	0,5	2,088400
8,225333	0,5	2,083550
8,233667	0,5	2,077600
8,242000	0,5	2,062750
8,250333	0,5	2,054750
8,258667	0,5	2,049650
8,267000	0,5	2,045850
8,275333	0,5	2,043000
8,283667	0,5	2,043400
8,292000	0,5	2,043850
8,300333	0,5	2,047950
8,308667	0,5	2,049050
8,317000	0,5	2,055950
8,325333	0,5	2,056250
8,333667	0,5	2,088900
8,342000	0,5	2,118350
8,350333	0,5	2,143350
8,358667	0,5	2,145500
8,367000	0,5	2,103750
8,375333	0,5	2,030800
8,383667	0,5	1,946750
8,392000	0,5	1,868500
8,400333	0,5	1,801750
8,408667	0,5	1,750300
8,417000	0,5	1,707050
8,425333	0,5	1,675400
8,433667	0,5	1,656100
8,442000	0,5	1,639900
8,450333	0,5	1,624400
8,458667	0,5	1,620900
8,467000	0,5	1,614500
8,475333	0,5	1,602700
8,483667	0,5	1,610000
8,492000	0,5	1,608000
8,500333	0,5	1,608400
8,508667	0,5	1,613650
8,517000	0,5	1,618150
8,525333	0,5	1,631650
8,533667	0,5	1,635550
8,542000	0,5	1,635050
8,550333	0,5	1,629100
8,558667	0,5	1,621550
8,567000	0,5	1,621050
8,575333	0,5	1,619800
8,583667	0,5	1,623550
8,592000	0,5	1,620300
8,600333	0,5	1,624050
8,608667	0,5	1,631100
8,617000	0,5	1,640050
8,625333	0,5	1,643350
8,633667	0,5	1,653000
8,642000	0,5	1,651250
8,650333	0,5	1,650700
8,658667	0,5	1,641250
8,667000	0,5	1,641450
8,675333	0,5	1,646150
8,683667	0,5	1,653650
8,692000	0,5	1,655500
8,700333	0,5	1,663350
8,708667	0,5	1,676600
8,717000	0,5	1,687300
8,725333	0,5	1,702700
8,733667	0,5	1,713400
8,742000	0,5	1,722000
8,750333	0,5	1,730300
8,758667	0,5	1,736500
8,767000	0,5	1,741850
8,775333	0,5	1,747750
8,783667	0,5	1,750650
8,792000	0,5	1,758850
8,800333	0,5	1,757900
8,808667	0,5	1,770400
8,817000	0,5	1,784000
8,825333	0,5	1,800800
8,833667	0,5	1,809450
8,842000	0,5	1,816450
8,850333	0,5	1,818600
8,858667	0,5	1,816350
8,867000	0,5	1,817050
8,875333	0,5	1,814900
8,883667	0,5	1,810300
8,892000	0,5	1,806450
8,900333	0,5	1,803300
8,908667	0,5	1,798700
8,917000	0,5	1,798000
8,925333	0,5	1,795550
8,933667	0,5	1,795750
8,942000	0,5	1,791350
8,950333	0,5	1,795700
8,958667	0,5	1,802750
8,967000	0,5	1,812650
8,975333	0,5	1,827500
8,983667	0,5	1,835450
8,992000	0,5	1,842250
9,000333	0,5	1,854250
9,008667	0,5	1,839050
9,017000	0,5	1,826100
9,025333	0,5	1,802400
9,033667	0,5	1,774800
9,042000	0,5	1,752500
9,050333	0,5	1,736150
9,058667	0,5	1,725850
9,067000	0,5	1,707800
9,075333	0,5	1,693700
9,083667	0,5	1,679350
9,092000	0,5	1,663650
9,100333	0,5	1,656250
9,108667	0,5	1,648750
9,117000	0,5	1,648700
9,125333	0,5	1,643400
9,133667	0,5	1,640000
9,142000	0,5	1,636250
9,150333	0,5	1,632900
9,158667	0,5	1,632200
9,167000	0,5	1,631750
9,175333	0,5	1,627500
9,183667	0,5	1,626250
9,192000	0,5	1,621650
9,200333	0,5	1,622650
9,208667	0,5	1,619400
9,217000	0,5	1,622200
9,225333	0,5	1,626750
9,233667	0,5	1,624000
9,242000	0,5	1,622700
9,250333	0,5	1,621800
9,258667	0,5	1,632950
9,267000	0,5	1,643000
9,275333	0,5	1,648150
9,283667	0,5	1,647450
9,292000	0,5	1,658100
9,300333	0,5	1,661550
9,308667	0,5	1,666500
9,317000	0,5	1,663750
9,325333	0,5	1,670000
9,333667	0,5	1,670400
9,342000	0,5	1,673350
9,350333	0,5	1,664200
9,358667	0,5	1,656600
9,367000	0,5	1,645550
9,375333	0,5	1,639200
9,383667	0,5	1,620100
9,392000	0,5	1,600550
9,400333	0,5	1,588050
9,408667	0,5	1,581300
9,417000	0,5	1,571600
9,425333	0,5	1,564200
9,433667	0,5	1,553250
9,442000	0,5	1,544650
9,450333	0,5	1,538850
9,458667	0,5	1,527350
9,467000	0,5	1,518450
9,475333	0,5	1,511100
9,483667	0,5	1,503650
9,492000	0,5	1,499450
9,500333	0,5	1,488850
9,508667	0,5	1,474550
9,517000	0,5	1,473950
9,525333	0,5	1,454300
9,533667	0,5	1,445400
9,542000	0,5	1,437500
9,550333	0,5	1,428250
9,558667	0,5	1,422050
9,567000	0,5	1,413600
9,575333	0,5	1,407600
9,583667	0,5	1,402300
9,592000	0,5	1,395450
9,600333	0,5	1,387150
9,608667	0,5	1,379250
9,617000	0,5	1,370400
9,625333	0,5	1,359750
9,633667	0,5	1,357150
9,642000	0,5	1,345800
9,650333	0,5	1,344150
9,658667	0,5	1,343150
9,667000	0,5	1,333450
9,675333	0,5	1,329450
9,683667	0,5	1,319350
9,692000	0,5	1,319800
9,700333	0,5	1,326500
9,708667	0,5	1,330100
9,717000	0,5	1,338750
9,725333	0,5	1,346950
9,733667	0,5	1,353600
9,742000	0,5	1,368400
9,750333	0,5	1,380200
9,758667	0,5	1,399000
9,767000	0,5	1,424500
9,775333	0,5	1,458250
9,783667	0,5	1,506700
9,792000	0,5	1,570750
9,800333	0,5	1,662600
9,808667	0,5	1,775000
9,817000	0,5	1,908700
9,825333	0,5	2,055400
9,833667	0,5	2,197500
9,842000	0,5	2,332850
9,850333	0,5	2,435550
9,858667	0,5	2,494900
9,867000	0,5	2,488100
9,875333	0,5	2,419000
9,883667	0,5	2,298100
9,892000	0,5	2,141650
9,900333	0,5	1,982100
9,908667	0,5	1,828150
9,917000	0,5	1,704550
9,925333	0,5	1,612200
9,933667	0,5	1,539150
9,942000	0,5	1,490500
9,950333	0,5	1,456500
9,958667	0,5	1,438250
9,967000	0,5	1,435000
9,975333	0,5	1,428150
9,983667	0,5	1,425350
9,992000	0,5	1,424550
10,000333	0,5	1,435900
10,008667	0,5	1,442950
10,017000	0,5	1,458900
10,025333	0,5	1,473800
10,033667	0,5	1,490500
10,042000	0,5	1,513650
10,050333	0,5	1,535500
10,058667	0,5	1,549950
10,067000	0,5	1,568950
10,075333	0,5	1,578700
10,083667	0,5	1,581900
10,092000	0,5	1,576550
10,100333	0,5	1,555250
10,108667	0,5	1,540400
10,117000	0,5	1,508200
10,125333	0,5	1,473800
10,133667	0,5	1,443100
10,142000	0,5	1,415800
10,150333	0,5	1,394450
10,158667	0,5	1,373300
10,167000	0,5	1,353700
10,175333	0,5	1,339350
10,183667	0,5	1,324700
10,192000	0,5	1,314000
10,200333	0,5	1,303700
10,208667	0,5	1,297900
10,217000	0,5	1,291500
10,225333	0,5	1,285150
10,233667	0,5	1,282950
10,242000	0,5	1,289400
10,250333	0,5	1,293300
10,258667	0,5	1,301550
10,267000	0,5	1,308900
10,275333	0,5	1,320750
10,283667	0,5	1,329550
10,292000	0,5	1,342150
10,300333	0,5	1,364300
10,308667	0,5	1,386450
10,317000	0,5	1,411400
10,325333	0,5	1,439600
10,333667	0,5	1,475600
10,342000	0,5	1,518400
10,350333	0,5	1,556750
10,358667	0,5	1,602150
10,367000	0,5	1,636000
10,375333	0,5	1,650650
10,383667	0,5	1,644750
10,392000	0,5	1,626900
10,400333	0,5	1,577650
10,408667	0,5	1,531700
10,417000	0,5	1,477050
10,425333	0,5	1,437300
10,433667	0,5	1,399950
10,442000	0,5	1,373950
10,450333	0,5	1,354950
10,458667	0,5	1,340450
10,467000	0,5	1,324700
10,475333	0,5	1,312850
10,483667	0,5	1,299150
10,492000	0,5	1,285800
10,500333	0,5	1,283350
10,508667	0,5	1,265600
10,517000	0,5	1,260300
10,525333	0,5	1,252700
10,533667	0,5	1,242850
10,542000	0,5	1,234800
10,550333	0,5	1,232950
10,558667	0,5	1,222650
10,567000	0,5	1,220200
10,575333	0,5	1,212100
10,583667	0,5	1,210300
10,592000	0,5	1,211900
10,600333	0,5	1,218250
10,608667	0,5	1,227300
10,617000	0,5	1,231700
10,625333	0,5	1,248000
10,633667	0,5	1,271900
10,642000	0,5	1,292750
10,650333	0,5	1,319700
10,658667	0,5	1,342200
10,667000	0,5	1,344850
10,675333	0,5	1,341850
10,683667	0,5	1,320900
10,692000	0,5	1,287200
10,700333	0,5	1,236650
10,708667	0,5	1,188000
10,717000	0,5	1,135400
10,725333	0,5	1,094550
10,733667	0,5	1,066700
10,742000	0,5	1,053550
10,750333	0,5	1,063750
10,758667	0,5	1,072300
10,767000	0,5	1,094000
10,775333	0,5	1,116400
10,783667	0,5	1,137700
10,792000	0,5	1,157000
10,800333	0,5	1,182700
10,808667	0,5	1,199900
10,817000	0,5	1,211150
10,825333	0,5	1,220750
10,833667	0,5	1,226550
10,842000	0,5	1,232800
10,850333	0,5	1,230750
10,858667	0,5	1,225150
10,867000	0,5	1,218700
10,875333	0,5	1,206350
10,883667	0,5	1,198700
10,892000	0,5	1,198200
10,900333	0,5	1,195050
10,908667	0,5	1,185950
10,917000	0,5	1,184650
10,925333	0,5	1,182300
10,933667	0,5	1,184500
10,942000	0,5	1,188100
10,950333	0,5	1,185900
10,958667	0,5	1,188500
10,967000	0,5	1,188400
10,975333	0,5	1,190250
10,983667	0,5	1,186150
10,992000	0,5	1,190800
11,000333	0,5	1,192400
11,008667	0,5	1,189350
11,017000	0,5	1,182250
11,025333	0,5	1,181450
11,033667	0,5	1,182550
11,042000	0,5	1,186600
11,050333	0,5	1,187000
11,058667	0,5	1,185200
11,067000	0,5	1,189600
11,075333	0,5	1,185650
11,083667	0,5	1,184550
11,092000	0,5	1,182250
11,100333	0,5	1,174500
11,108667	0,5	1,170050
11,117000	0,5	1,172400
11,125333	0,5	1,171100
11,133667	0,5	1,166350
11,142000	0,5	1,174350
11,150333	0,5	1,176400
11,158667	0,5	1,187200
11,167000	0,5	1,189700
11,175333	0,5	1,190100
11,183667	0,5	1,211600
11,192000	0,5	1,236650
11,200333	0,5	1,274500
11,208667	0,5	1,326150
11,217000	0,5	1,391050
11,225333	0,5	1,465900
11,233667	0,5	1,539550
11,242000	0,5	1,593950
11,250333	0,5	1,625700
11,258667	0,5	1,622850
11,267000	0,5	1,592950
11,275333	0,5	1,551700
11,283667	0,5	1,496250
11,292000	0,5	1,454600
11,300333	0,5	1,412500
11,308667	0,5	1,379700
11,317000	0,5	1,358100
11,325333	0,5	1,332100
11,333667	0,5	1,322700
11,342000	0,5	1,312600
11,350333	0,5	1,299200
11,358667	0,5	1,293300
11,367000	0,5	1,288550
11,375333	0,5	1,286550
11,383667	0,5	1,292750
11,392000	0,5	1,301600
11,400333	0,5	1,322800
11,408667	0,5	1,352700
11,417000	0,5	1,402350
11,425333	0,5	1,466400
11,433667	0,5	1,571450
11,442000	0,5	1,721000
11,450333	0,5	1,909250
11,458667	0,5	2,130750
11,467000	0,5	2,386050
11,475333	0,5	2,650300
11,483667	0,5	2,904800
11,492000	0,5	3,102300
11,500333	0,5	3,233850
11,508667	0,5	3,281300
11,517000	0,5	3,248050
11,525333	0,5	3,145900
11,533667	0,5	3,005150
11,542000	0,5	2,839850
11,550333	0,5	2,692300
11,558667	0,5	2,579200
11,567000	0,5	2,517700
11,575333	0,5	2,509200
11,583667	0,5	2,569100
11,592000	0,5	2,662950
11,600333	0,5	2,769850
11,608667	0,5	2,846650
11,617000	0,5	2,888700
11,625333	0,5	2,888500
11,633667	0,5	2,831500
11,642000	0,5	2,733550
11,650333	0,5	2,594100
11,658667	0,5	2,430150
11,667000	0,5	2,258800
11,675333	0,5	2,095400
11,683667	0,5	1,936150
11,692000	0,5	1,806150
11,700333	0,5	1,680950
11,708667	0,5	1,584900
11,717000	0,5	1,499400
11,725333	0,5	1,435400
11,733667	0,5	1,385350
11,742000	0,5	1,345900
11,750333	0,5	1,309100
11,758667	0,5	1,282400
11,767000	0,5	1,254350
11,775333	0,5	1,240500
11,783667	0,5	1,232800
11,792000	0,5	1,219400
11,800333	0,5	1,212200
11,808667	0,5	1,198400
11,817000	0,5	1,194400
11,825333	0,5	1,181100
11,833667	0,5	1,177350
11,842000	0,5	1,167750
11,850333	0,5	1,169750
11,858667	0,5	1,163500
11,867000	0,5	1,162050
11,875333	0,5	1,159300
11,883667	0,5	1,161600
11,892000	0,5	1,159600
11,900333	0,5	1,161000
11,908667	0,5	1,150950
11,917000	0,5	1,152250
11,925333	0,5	1,159900
11,933667	0,5	1,163950
11,942000	0,5	1,172500
11,950333	0,5	1,180000
11,958667	0,5	1,188100
11,967000	0,5	1,198200
11,975333	0,5	1,213250
11,983667	0,5	1,226050
11,992000	0,5	1,241400
12,000333	0,5	1,252300
12,008667	0,5	1,262750
12,017000	0,5	1,264050
12,025333	0,5	1,276450
12,033667	0,5	1,279650
12,042000	0,5	1,275500
12,050333	0,5	1,273950
12,058667	0,5	1,270700
12,067000	0,5	1,271750
12,075333	0,5	1,279500
12,083667	0,5	1,284050
12,092000	0,5	1,293350
12,100333	0,5	1,300450
12,108667	0,5	1,317400
12,117000	0,5	1,333450
12,125333	0,5	1,343800
12,133667	0,5	1,364650
12,142000	0,5	1,374400
12,150333	0,5	1,409900
12,158667	0,5	1,447500
12,167000	0,5	1,492400
12,175333	0,5	1,568250
12,183667	0,5	1,643350
12,192000	0,5	1,711550
12,200333	0,5	1,772850
12,208667	0,5	1,820600
12,217000	0,5	1,866650
12,225333	0,5	1,887650
12,233667	0,5	1,912500
12,242000	0,5	1,928600
12,250333	0,5	1,953400
12,258667	0,5	1,978400
12,267000	0,5	2,003550
12,275333	0,5	2,019800
12,283667	0,5	2,025450
12,292000	0,5	2,031950
12,300333	0,5	2,032000
12,308667	0,5	2,023100
12,317000	0,5	2,023300
12,325333	0,5	2,020250
12,333667	0,5	2,003100
12,342000	0,5	1,965900
12,350333	0,5	1,923100
12,358667	0,5	1,869750
12,367000	0,5	1,834450
12,375333	0,5	1,806700
12,383667	0,5	1,799050
12,392000	0,5	1,824050
12,400333	0,5	1,866600
12,408667	0,5	1,925850
12,417000	0,5	1,979900
12,425333	0,5	2,031350
12,433667	0,5	2,066500
12,442000	0,5	2,079700
12,450333	0,5	2,080100
12,458667	0,5	2,043550
12,467000	0,5	2,005200
12,475333	0,5	1,937350
12,483667	0,5	1,860900
12,492000	0,5	1,771400
12,500333	0,5	1,682600
12,508667	0,5	1,606600
12,517000	0,5	1,537400
12,525333	0,5	1,467500
12,533667	0,5	1,407650
12,542000	0,5	1,350850
12,550333	0,5	1,308900
12,558667	0,5	1,267800
12,567000	0,5	1,244800
12,575333	0,5	1,215250
12,583667	0,5	1,183600
12,592000	0,5	1,164950
12,600333	0,5	1,152100
12,608667	0,5	1,126600
12,617000	0,5	1,118400
12,625333	0,5	1,107750
12,633667	0,5	1,097400
12,642000	0,5	1,085550
12,650333	0,5	1,072550
12,658667	0,5	1,073450
12,667000	0,5	1,074950
12,675333	0,5	1,071750
12,683667	0,5	1,063200
12,692000	0,5	1,061600
12,700333	0,5	1,057200
12,708667	0,5	1,049450
12,717000	0,5	1,043500
12,725333	0,5	1,038450
12,733667	0,5	1,028700
12,742000	0,5	1,028250
12,750333	0,5	1,007500
12,758667	0,5	1,002750
12,767000	0,5	0,999600
12,775333	0,5	1,000100
12,783667	0,5	1,012300
12,792000	0,5	1,040750
12,800333	0,5	1,074400
12,808667	0,5	1,131300
12,817000	0,5	1,181400
12,825333	0,5	1,216400
12,833667	0,5	1,225550
12,842000	0,5	1,210300
12,850333	0,5	1,175050
12,858667	0,5	1,125550
12,867000	0,5	1,053900
12,875333	0,5	0,967000
12,883667	0,5	0,892800
12,892000	0,5	0,810750
12,900333	0,5	0,730700
12,908667	0,5	0,659450
12,917000	0,5	0,595600
12,925333	0,5	0,533350
12,933667	0,5	0,449000
12,942000	0,5	0,312800
12,950333	0,5	0,159950
12,958667	0,5	-0,054450
12,967000	0,5	-0,382450
12,975333	0,5	-0,783600
12,983667	0,5	-1,096450
12,992000	0,5	-1,363100
13,000333	0,5	-1,617850
13,008667	0,5	-1,800200
13,017000	0,5	-1,923200
13,025333	0,5	-2,019800
13,033667	0,5	-2,097600
13,042000	0,5	-2,163100
13,050333	0,5	-2,220650
13,058667	0,5	-2,257850
13,067000	0,5	-2,287800
13,075333	0,5	-2,313450
13,083667	0,5	-2,330250
13,092000	0,5	-2,329100
13,100333	0,5	-2,323550
13,108667	0,5	-2,300450
13,117000	0,5	-2,286850
13,125333	0,5	-2,276200
13,133667	0,5	-2,271550
13,142000	0,5	-2,271750
13,150333	0,5	-2,292350
13,158667	0,5	-2,325200
13,167000	0,5	-2,357600
13,175333	0,5	-2,393050
13,183667	0,5	-2,426250
13,192000	0,5	-2,475050
13,200333	0,5	-2,501400
13,208667	0,5	-2,530150
13,217000	0,5	-2,554150
13,225333	0,5	-2,569700
13,233667	0,5	-2,592200
13,242000	0,5	-2,600800
13,250333	0,5	-2,596100
13,258667	0,5	-2,596450
13,267000	0,5	-2,585750
13,275333	0,5	-2,581950
13,283667	0,5	-2,571800
13,292000	0,5	-2,560050
13,300333	0,5	-2,547200
13,308667	0,5	-2,528550
13,317000	0,5	-2,506750
13,325333	0,5	-2,475800
13,333667	0,5	-2,444900
13,342000	0,5	-2,422500
13,350333	0,5	-2,392500
13,358667	0,5	-2,373600
13,367000	0,5	-2,351900
13,375333	0,5	-2,342250
13,383667	0,5	-2,342400
13,392000	0,5	-2,324950
13,400333	0,5	-2,312050
13,408667	0,5	-2,298050
13,417000	0,5	-2,287250
13,425333	0,5	-2,266150
13,433667	0,5	-2,254700
13,442000	0,5	-2,236700
13,450333	0,5	-2,227450
13,458667	0,5	-2,223850
13,467000	0,5	-2,230400
13,475333	0,5	-2,233050
13,483667	0,5	-2,240600
13,492000	0,5	-2,248950
13,500333	0,5	-2,260350
13,508667	0,5	-2,268050
13,517000	0,5	-2,280000
13,525333	0,5	-2,296250
13,533667	0,5	-2,311000
13,542000	0,5	-2,313350
13,550333	0,5	-2,310250
13,558667	0,5	-2,307800
13,567000	0,5	-2,303600
13,575333	0,5	-2,296900
13,583667	0,5	-2,286900
13,592000	0,5	-2,281950
13,600333	0,5	-2,267000
13,608667	0,5	-2,259700
13,617000	0,5	-2,247400
13,625333	0,5	-2,233400
13,633667	0,5	-2,222900
13,642000	0,5	-2,212950
13,650333	0,5	-2,190100
13,658667	0,5	-2,174500
13,667000	0,5	-2,165000
13,675333	0,5	-2,150500
13,683667	0,5	-2,138200
13,692000	0,5	-2,102700
13,700333	0,5	-2,074900
13,708667	0,5	-2,056950
13,717000	0,5	-2,033600
13,725333	0,5	-2,005450
13,733667	0,5	-1,978950
13,742000	0,5	-1,947900
13,750333	0,5	-1,920100
13,758667	0,5	-1,895850
13,767000	0,5	-1,867800
13,775333	0,5	-1,833000
13,783667	0,5	-1,807200
13,792000	0,5	-1,769550
13,800333	0,5	-1,739250
13,808667	0,5	-1,711750
13,817000	0,5	-1,698550
13,825333	0,5	-1,688000
13,833667	0,5	-1,673000
13,842000	0,5	-1,659650
13,850333	0,5	-1,647550
13,858667	0,5	-1,635350
13,867000	0,5	-1,622750
13,875333	0,5	-1,617050
13,883667	0,5	-1,591700
13,892000	0,5	-1,573100
13,900333	0,5	-1,549350
13,908667	0,5	-1,529800
13,917000	0,5	-1,500200
13,925333	0,5	-1,479350
13,933667	0,5	-1,456200
13,942000	0,5	-1,419950
13,950333	0,5	-1,378250
13,958667	0,5	-1,347650
13,967000	0,5	-1,310100
13,975333	0,5	-1,260800
13,983667	0,5	-1,183800
13,992000	0,5	-1,088950
14,000333	0,5	-1,006600
14,008667	0,5	-0,909600
14,017000	0,5	-0,826400
14,025333	0,5	-0,745450
14,033667	0,5	-0,677600
14,042000	0,5	-0,620050
14,050333	0,5	-0,577950
14,058667	0,5	-0,551650
14,067000	0,5	-0,538450
14,075333	0,5	-0,544250
14,083667	0,5	-0,542800
14,092000	0,5	-0,525700
14,100333	0,5	-0,513800
14,108667	0,5	-0,476600
14,117000	0,5	-0,431800
14,125333	0,5	-0,350400
14,133667	0,5	-0,261550
14,142000	0,5	-0,150500
14,150333	0,5	-0,059700
14,158667	0,5	0,022600
14,167000	0,5	0,068500
14,175333	0,5	0,090050
14,183667	0,5	0,095450
14,192000	0,5	0,083600
14,200333	0,5	0,062250
14,208667	0,5	0,034500
14,217000	0,5	0,029750
14,225333	0,5	0,005850
14,233667	0,5	0,021350
14,242000	0,5	0,028450
14,250333	0,5	0,033950
14,258667	0,5	0,033650
14,267000	0,5	0,030100
14,275333	0,5	0,035350
14,283667	0,5	0,056750
14,292000	0,5	0,061800
14,300333	0,5	0,069950
14,308667	0,5	0,077050
14,317000	0,5	0,090750
14,325333	0,5	0,094800
14,333667	0,5	0,103150
14,342000	0,5	0,105550
14,350333	0,5	0,106500
14,358667	0,5	0,117300
14,367000	0,5	0,123400
14,375333	0,5	0,115600
14,383667	0,5	0,150400
14,392000	0,5	0,171300
14,400333	0,5	0,187350
14,408667	0,5	0,203100
14,417000	0,5	0,189650
14,425333	0,5	0,207900
14,433667	0,5	0,197650
14,442000	0,5	0,188550
14,450333	0,5	0,166100
14,458667	0,5	0,157300
14,467000	0,5	0,140800
14,475333	0,5	0,133350
14,483667	0,5	0,115550
14,492000	0,5	0,104500
14,500333	0,5	0,094700
14,508667	0,5	0,095150
14,517000	0,5	0,087350
14,525333	0,5	0,091600
14,533667	0,5	0,095700
14,542000	0,5	0,104750
14,550333	0,5	0,102300
14,558667	0,5	0,088200
14,567000	0,5	0,090500
14,575333	0,5	0,093900
14,583667	0,5	0,107450
14,592000	0,5	0,117550
14,600333	0,5	0,163200
14,608667	0,5	0,225600
14,617000	0,5	0,308800
14,625333	0,5	0,412300
14,633667	0,5	0,517700
14,642000	0,5	0,604650
14,650333	0,5	0,650500
14,658667	0,5	0,660600
14,667000	0,5	0,610550
14,675333	0,5	0,549050
14,683667	0,5	0,478200
14,692000	0,5	0,428550
14,700333	0,5	0,404050
14,708667	0,5	0,411700
14,717000	0,5	0,463650
14,725333	0,5	0,552150
14,733667	0,5	0,629100
14,742000	0,5	0,685400
14,750333	0,5	0,696100
14,758667	0,5	0,667400
14,767000	0,5	0,591550
14,775333	0,5	0,509600
14,783667	0,5	0,421800
14,792000	0,5	0,352950
14,800333	0,5	0,297150
14,808667	0,5	0,263100
14,817000	0,5	0,223500
14,825333	0,5	0,210950
14,833667	0,5	0,190700
14,842000	0,5	0,182700
14,850333	0,5	0,162250
14,858667	0,5	0,150900
14,867000	0,5	0,161750
14,875333	0,5	0,176200
14,883667	0,5	0,184900
14,892000	0,5	0,190350
14,900333	0,5	0,191000
14,908667	0,5	0,182500
14,917000	0,5	0,174350
14,925333	0,5	0,160250
14,933667	0,5	0,151250
14,942000	0,5	0,147600
14,950333	0,5	0,161050
14,958667	0,5	0,137600
14,967000	0,5	0,125400
14,975333	0,5	0,119100
14,983667	0,5	0,093000
14,992000	0,5	0,071450
15,000333	0,5	0,040100
15,008667	0,5	0,021050
15,017000	0,5	0,015850
15,025333	0,5	0,014250
15,033667	0,5	0,009200
15,042000	0,5	-0,001400
15,050333	0,5	-0,001950
15,058667	0,5	-0,011600
15,067000	0,5	-0,017200
15,075333	0,5	-0,020950
15,083667	0,5	-0,031200
15,092000	0,5	-0,021850
15,100333	0,5	-0,014800
15,108667	0,5	-0,013600
15,117000	0,5	0,018850
15,125333	0,5	0,078350
15,133667	0,5	0,161550
15,142000	0,5	0,269250
15,150333	0,5	0,373700
15,158667	0,5	0,480000
15,167000	0,5	0,546600
15,175333	0,5	0,560450
15,183667	0,5	0,518550
15,192000	0,5	0,461450
15,200333	0,5	0,407800
15,208667	0,5	0,387750
15,217000	0,5	0,412800
15,225333	0,5	0,474600
15,233667	0,5	0,551200
15,242000	0,5	0,607650
15,250333	0,5	0,621450
15,258667	0,5	0,567800
15,267000	0,5	0,506450
15,275333	0,5	0,414050
15,283667	0,5	0,325650
15,292000	0,5	0,236100
15,300333	0,5	0,181200
15,308667	0,5	0,167050
15,317000	0,5	0,163350
15,325333	0,5	0,141350
15,333667	0,5	0,132650
15,342000	0,5	0,114300
15,350333	0,5	0,097000
15,358667	0,5	0,074150
15,367000	0,5	0,063450
15,375333	0,5	0,057400
15,383667	0,5	0,054750
15,392000	0,5	0,070250
15,400333	0,5	0,050050
15,408667	0,5	0,053100
15,417000	0,5	0,052500
15,425333	0,5	0,048250
15,433667	0,5	0,018700
15,442000	0,5	-0,016150
15,450333	0,5	-0,041650
15,458667	0,5	-0,050550
15,467000	0,5	-0,081900
15,475333	0,5	-0,097750
15,483667	0,5	-0,121400
15,492000	0,5	-0,139000
15,500333	0,5	-0,157100
15,508667	0,5	-0,157500
15,517000	0,5	-0,179650
15,525333	0,5	-0,194150
15,533667	0,5	-0,199350
15,542000	0,5	-0,194200
15,550333	0,5	-0,202900
15,558667	0,5	-0,181350
15,567000	0,5	-0,156100
15,575333	0,5	-0,114850
15,583667	0,5	-0,046350
15,592000	0,5	0,038500
15,600333	0,5	0,175200
15,608667	0,5	0,296300
15,617000	0,5	0,386350
15,625333	0,5	0,421000
15,633667	0,5	0,420350
15,642000	0,5	0,380600
15,650333	0,5	0,363400
15,658667	0,5	0,365650
15,667000	0,5	0,412250
15,675333	0,5	0,455850
15,683667	0,5	0,498050
15,692000	0,5	0,485150
15,700333	0,5	0,418300
15,708667	0,5	0,349800
15,717000	0,5	0,252350
15,725333	0,5	0,157600
15,733667	0,5	0,063400
15,742000	0,5	-0,006050
15,750333	0,5	-0,049550
15,758667	0,5	-0,068150
15,767000	0,5	-0,093300
15,775333	0,5	-0,104250
15,783667	0,5	-0,099150
15,792000	0,5	-0,093700
15,800333	0,5	-0,094300
15,808667	0,5	-0,079350
15,817000	0,5	-0,084650
15,825333	0,5	-0,084650
15,833667	0,5	-0,098050
15,842000	0,5	-0,110700
15,850333	0,5	-0,136250
15,858667	0,5	-0,162150
15,867000	0,5	-0,192850
15,875333	0,5	-0,221450
15,883667	0,5	-0,254650
15,892000	0,5	-0,287150
15,900333	0,5	-0,294400
15,908667	0,5	-0,309300
15,917000	0,5	-0,316650
15,925333	0,5	-0,326050
15,933667	0,5	-0,326400
15,942000	0,5	-0,338500
15,950333	0,5	-0,336650
15,958667	0,5	-0,340950
15,967000	0,5	-0,329050
15,975333	0,5	-0,288000
15,983667	0,5	-0,214500
15,992000	0,5	-0,127750
16,000333	0,5	0,011400
16,008667	0,5	0,142950
16,017000	0,5	0,252550
16,025333	0,5	0,304550
16,033667	0,5	0,322100
16,042000	0,5	0,320850
16,050333	0,5	0,334350
16,058667	0,5	0,356550
16,067000	0,5	0,387300
16,075333	0,5	0,408350
16,083667	0,5	0,374100
16,092000	0,5	0,310300
16,100333	0,5	0,209250
16,108667	0,5	0,104050
16,117000	0,5	0,022300
16,125333	0,5	-0,033300
16,133667	0,5	-0,085350
16,142000	0,5	-0,109950
16,150333	0,5	-0,113000
16,158667	0,5	-0,119100
16,167000	0,5	-0,119900
16,175333	0,5	-0,129150
16,183667	0,5	-0,136900
16,192000	0,5	-0,137200
16,200333	0,5	-0,136200
16,208667	0,5	-0,159750
16,217000	0,5	-0,176300
16,225333	0,5	-0,205050
16,233667	0,5	-0,230700
16,242000	0,5	-0,254050
16,250333	0,5	-0,290000
16,258667	0,5	-0,322150
16,267000	0,5	-0,340650
16,275333	0,5	-0,364000
16,283667	0,5	-0,389050
16,292000	0,5	-0,410500
16,300333	0,5	-0,416600
16,308667	0,5	-0,435000
16,317000	0,5	-0,435500
16,325333	0,5	-0,452250
16,333667	0,5	-0,426250
16,342000	0,5	-0,363700
16,350333	0,5	-0,266850
16,358667	0,5	-0,140250
16,367000	0,5	0,002500
16,375333	0,5	0,120000
16,383667	0,5	0,195900
16,392000	0,5	0,235550
16,400333	0,5	0,243750
16,408667	0,5	0,241100
16,417000	0,5	0,238050
16,425333	0,5	0,241400
16,433667	0,5	0,186150
16,442000	0,5	0,140000
16,450333	0,5	0,056250
16,458667	0,5	-0,030600
16,467000	0,5	-0,108500
16,475333	0,5	-0,171650
16,483667	0,5	-0,183950
16,492000	0,5	-0,180850
16,500333	0,5	-0,182350
16,508667	0,5	-0,165550
16,517000	0,5	-0,155600
16,525333	0,5	-0,134700
16,533667	0,5	-0,121500
16,542000	0,5	-0,108400
16,550333	0,5	-0,108650
16,558667	0,5	-0,113150
16,567000	0,5	-0,115600
16,575333	0,5	-0,139350
16,583667	0,5	-0,165300
16,592000	0,5	-0,179050
16,600333	0,5	-0,186900
16,608667	0,5	-0,215700
16,617000	0,5	-0,233500
16,625333	0,5	-0,254050
16,633667	0,5	-0,246150
16,642000	0,5	-0,251300
16,650333	0,5	-0,250250
16,658667	0,5	-0,247950
16,667000	0,5	-0,223500
16,675333	0,5	-0,181250
16,683667	0,5	-0,106100
16,692000	0,5	-0,019000
16,700333	0,5	0,067400
16,708667	0,5	0,141550
16,717000	0,5	0,164900
16,725333	0,5	0,165600
16,733667	0,5	0,176350
16,742000	0,5	0,169650
16,750333	0,5	0,147450
16,758667	0,5	0,098850
16,767000	0,5	0,014150
16,775333	0,5	-0,062950
16,783667	0,5	-0,133400
16,792000	0,5	-0,180050
16,800333	0,5	-0,234650
16,808667	0,5	-0,257350
16,817000	0,5	-0,299650
16,825333	0,5	-0,305550
16,833667	0,5	-0,314850
16,842000	0,5	-0,317050
16,850333	0,5	-0,320500
16,858667	0,5	-0,335550
16,867000	0,5	-0,341600
16,875333	0,5	-0,360500
16,883667	0,5	-0,366400
16,892000	0,5	-0,384300
16,900333	0,5	-0,396800
16,908667	0,5	-0,426250
16,917000	0,5	-0,458150
16,925333	0,5	-0,475600
16,933667	0,5	-0,467300
16,942000	0,5	-0,477450
16,950333	0,5	-0,460550
16,958667	0,5	-0,439000
16,967000	0,5	-0,398350
16,975333	0,5	-0,345800
16,983667	0,5	-0,254900
16,992000	0,5	-0,151350
17,000333	0,5	-0,039750
17,008667	0,5	0,082950
17,017000	0,5	0,167950
17,025333	0,5	0,240750
17,033667	0,5	0,338050
17,042000	0,5	0,418550
17,050333	0,5	0,507500
17,058667	0,5	0,577200
17,067000	0,5	0,659700
17,075333	0,5	0,775650
17,083667	0,5	0,902750
17,092000	0,5	1,039700
17,100333	0,5	1,167200
17,108667	0,5	1,297800
17,117000	0,5	1,419300
17,125333	0,5	1,512400
17,133667	0,5	1,593850
17,142000	0,5	1,665150
17,150333	0,5	1,718400
17,158667	0,5	1,751100
17,167000	0,5	1,742050
17,175333	0,5	1,706100
17,183667	0,5	1,639100
17,192000	0,5	1,519650
17,200333	0,5	1,378950
17,208667	0,5	1,195850
17,217000	0,5	1,016250
17,225333	0,5	0,850800
17,233667	0,5	0,708200
17,242000	0,5	0,582700
17,250333	0,5	0,509800
17,258667	0,5	0,461500
17,267000	0,5	0,458750
17,275333	0,5	0,465150
17,283667	0,5	0,474950
17,292000	0,5	0,470500
17,300333	0,5	0,470450
17,308667	0,5	0,445400
17,317000	0,5	0,404100
17,325333	0,5	0,353350
17,333667	0,5	0,297750
17,342000	0,5	0,242300
17,350333	0,5	0,181350
17,358667	0,5	0,151850
17,367000	0,5	0,151200
17,375333	0,5	0,174700
17,383667	0,5	0,201100
17,392000	0,5	0,242000
17,400333	0,5	0,276100
17,408667	0,5	0,308100
17,417000	0,5	0,337800
17,425333	0,5	0,350950
17,433667	0,5	0,351700
17,442000	0,5	0,366200
17,450333	0,5	0,357450
17,458667	0,5	0,328900
17,467000	0,5	0,290500
17,475333	0,5	0,249650
17,483667	0,5	0,195800
17,492000	0,5	0,145200
17,500333	0,5	0,099300
17,508667	0,5	0,089400
17,517000	0,5	0,108650
17,525333	0,5	0,116550
17,533667	0,5	0,115650
17,542000	0,5	0,106600
17,550333	0,5	0,085700
17,558667	0,5	0,043700
17,567000	0,5	-0,009500
17,575333	0,5	-0,079300
17,583667	0,5	-0,150700
17,592000	0,5	-0,223050
17,600333	0,5	-0,262550
17,608667	0,5	-0,327000
17,617000	0,5	-0,344150
17,625333	0,5	-0,375300
17,633667	0,5	-0,407650
17,642000	0,5	-0,444550
17,650333	0,5	-0,487200
17,658667	0,5	-0,496800
17,667000	0,5	-0,506450
17,675333	0,5	-0,528800
17,683667	0,5	-0,540400
17,692000	0,5	-0,556200
17,700333	0,5	-0,561800
17,708667	0,5	-0,561550
17,717000	0,5	-0,548600
17,725333	0,5	-0,523450
17,733667	0,5	-0,496750
17,742000	0,5	-0,420000
17,750333	0,5	-0,361350
17,758667	0,5	-0,331550
17,767000	0,5	-0,285100
17,775333	0,5	-0,275250
17,783667	0,5	-0,291000
17,792000	0,5	-0,326600
17,800333	0,5	-0,389800
17,808667	0,5	-0,412950
17,817000	0,5	-0,452550
17,825333	0,5	-0,486550
17,833667	0,5	-0,523100
17,842000	0,5	-0,543500
17,850333	0,5	-0,565200
17,858667	0,5	-0,580450
17,867000	0,5	-0,599650
17,875333	0,5	-0,619550
17,883667	0,5	-0,621250
17,892000	0,5	-0,627650
17,900333	0,5	-0,629800
17,908667	0,5	-0,631400
17,917000	0,5	-0,612800
17,925333	0,5	-0,598750
17,933667	0,5	-0,581250
17,942000	0,5	-0,563050
17,950333	0,5	-0,506050
17,958667	0,5	-0,449100
17,967000	0,5	-0,390950
17,975333	0,5	-0,364750
17,983667	0,5	-0,343050
17,992000	0,5	-0,357500
18,000333	0,5	-0,378550
18,008667	0,5	-0,407950
18,017000	0,5	-0,439950
18,025333	0,5	-0,478300
18,033667	0,5	-0,494800
18,042000	0,5	-0,515500
18,050333	0,5	-0,547800
18,058667	0,5	-0,561300
18,067000	0,5	-0,575350
18,075333	0,5	-0,588750
18,083667	0,5	-0,618050
18,092000	0,5	-0,631100
18,100333	0,5	-0,643450
18,108667	0,5	-0,626500
18,117000	0,5	-0,619300
18,125333	0,5	-0,587850
18,133667	0,5	-0,550300
18,142000	0,5	-0,503900
18,150333	0,5	-0,467700
18,158667	0,5	-0,423600
18,167000	0,5	-0,411600
18,175333	0,5	-0,412450
18,183667	0,5	-0,418650
18,192000	0,5	-0,443250
18,200333	0,5	-0,489100
18,208667	0,5	-0,518550
18,217000	0,5	-0,537650
18,225333	0,5	-0,569250
18,233667	0,5	-0,602400
18,242000	0,5	-0,634800
18,250333	0,5	-0,628400
18,258667	0,5	-0,641250
18,267000	0,5	-0,649600
18,275333	0,5	-0,654350
18,283667	0,5	-0,650900
18,292000	0,5	-0,642950
18,300333	0,5	-0,627800
18,308667	0,5	-0,599600
18,317000	0,5	-0,569950
18,325333	0,5	-0,540500
18,333667	0,5	-0,511250
18,342000	0,5	-0,528650
18,350333	0,5	-0,527650
18,358667	0,5	-0,543500
18,367000	0,5	-0,574000
18,375333	0,5	-0,602450
18,383667	0,5	-0,652100
18,392000	0,5	-0,663050
18,400333	0,5	-0,683300
18,408667	0,5	-0,685900
18,417000	0,5	-0,705350
18,425333	0,5	-0,702700
18,433667	0,5	-0,710800
18,442000	0,5	-0,710250
18,450333	0,5	-0,717400
18,458667	0,5	-0,704100
18,467000	0,5	-0,702500
18,475333	0,5	-0,678050
18,483667	0,5	-0,659100
18,492000	0,5	-0,658900
18,500333	0,5	-0,637250
18,508667	0,5	-0,626200
18,517000	0,5	-0,645800
18,525333	0,5	-0,668750
18,533667	0,5	-0,710900
18,542000	0,5	-0,730900
18,550333	0,5	-0,751700
18,558667	0,5	-0,782850
18,567000	0,5	-0,791800
18,575333	0,5	-0,807800
18,583667	0,5	-0,817500
18,592000	0,5	-0,832750
18,600333	0,5	-0,837100
18,608667	0,5	-0,851850
18,617000	0,5	-0,852000
18,625333	0,5	-0,850250
18,633667	0,5	-0,837500
18,642000	0,5	-0,820950
18,650333	0,5	-0,788100
18,658667	0,5	-0,774350
18,667000	0,5	-0,773350
18,675333	0,5	-0,796600
18,683667	0,5	-0,824500
18,692000	0,5	-0,816900
18,700333	0,5	-0,826550
18,708667	0,5	-0,830250
18,717000	0,5	-0,818800
18,725333	0,5	-0,818050
18,733667	0,5	-0,807750
18,742000	0,5	-0,796300
18,750333	0,5	-0,797050
18,758667	0,5	-0,774600
18,767000	0,5	-0,745300
18,775333	0,5	-0,707300
18,783667	0,5	-0,707100
18,792000	0,5	-0,680800
18,800333	0,5	-0,679250
18,808667	0,5	-0,680150
18,817000	0,5	-0,716600
18,825333	0,5	-0,757050
18,833667	0,5	-0,768200
18,842000	0,5	-0,779900
18,850333	0,5	-0,793900
18,858667	0,5	-0,815750
18,867000	0,5	-0,813300
18,875333	0,5	-0,803950
18,883667	0,5	-0,798850
18,892000	0,5	-0,792050
18,900333	0,5	-0,784000
18,908667	0,5	-0,785350
18,917000	0,5	-0,776000
18,925333	0,5	-0,784450
18,933667	0,5	-0,808400
18,942000	0,5	-0,822250
18,950333	0,5	-0,856800
18,958667	0,5	-0,892100
18,967000	0,5	-0,922250
18,975333	0,5	-0,964050
18,983667	0,5	-0,971850
18,992000	0,5	-0,977150
19,000333	0,5	-0,983100
19,008667	0,5	-0,986950
19,017000	0,5	-0,980850
19,025333	0,5	-0,982650
19,033667	0,5	-0,984200
19,042000	0,5	-0,984600
19,050333	0,5	-1,002300
19,058667	0,5	-1,016600
19,067000	0,5	-1,025000
19,075333	0,5	-1,030500
19,083667	0,5	-1,051350
19,092000	0,5	-1,054800
19,100333	0,5	-1,073400
19,108667	0,5	-1,096500
19,117000	0,5	-1,124500
19,125333	0,5	-1,141000
19,133667	0,5	-1,143250
19,142000	0,5	-1,153400
19,150333	0,5	-1,169350
19,158667	0,5	-1,182750
19,167000	0,5	-1,197650
19,175333	0,5	-1,224050
19,183667	0,5	-1,236000
19,192000	0,5	-1,254000
19,200333	0,5	-1,261250
19,208667	0,5	-1,263700
19,217000	0,5	-1,259950
19,225333	0,5	-1,276700
19,233667	0,5	-1,277900
19,242000	0,5	-1,284150
19,250333	0,5	-1,295850
19,258667	0,5	-1,330600
19,267000	0,5	-1,351850
19,275333	0,5	-1,367250
19,283667	0,5	-1,358050
19,292000	0,5	-1,372400
19,300333	0,5	-1,370600
19,308667	0,5	-1,376800
19,317000	0,5	-1,377700
19,325333	0,5	-1,388600
19,333667	0,5	-1,394650
19,342000	0,5	-1,402900
19,350333	0,5	-1,422700
19,358667	0,5	-1,415300
19,367000	0,5	-1,442150
19,375333	0,5	-1,450300
19,383667	0,5	-1,450750
19,392000	0,5	-1,458450
19,400333	0,5	-1,466750
19,408667	0,5	-1,484400
19,417000	0,5	-1,494350
19,425333	0,5	-1,493800
19,433667	0,5	-1,508550
19,442000	0,5	-1,512350
19,450333	0,5	-1,517850
19,458667	0,5	-1,517600
19,467000	0,5	-1,530000
19,475333	0,5	-1,533250
19,483667	0,5	-1,535100
19,492000	0,5	-1,542600
19,500333	0,5	-1,556800
19,508667	0,5	-1,565100
19,517000	0,5	-1,588500
19,525333	0,5	-1,599800
19,533667	0,5	-1,601550
19,542000	0,5	-1,617200
19,550333	0,5	-1,630650
19,558667	0,5	-1,666950
19,567000	0,5	-1,685900
19,575333	0,5	-1,694300
19,583667	0,5	-1,699150
19,592000	0,5	-1,715800
19,600333	0,5	-1,713400
19,608667	0,5	-1,719900
19,617000	0,5	-1,733800
19,625333	0,5	-1,735550
19,633667	0,5	-1,748000
19,642000	0,5	-1,747500
19,650333	0,5	-1,753200
19,658667	0,5	-1,749150
19,667000	0,5	-1,777700
19,675333	0,5	-1,765300
19,683667	0,5	-1,769200
19,692000	0,5	-1,782850
19,700333	0,5	-1,810300
19,708667	0,5	-1,838750
19,717000	0,5	-1,840650
19,725333	0,5	-1,853100
19,733667	0,5	-1,867800
19,742000	0,5	-1,878200
19,750333	0,5	-1,891100
19,758667	0,5	-1,904500
19,767000	0,5	-1,927850
19,775333	0,5	-1,943000
19,783667	0,5	-1,957600
19,792000	0,5	-1,973900
19,800333	0,5	-1,965400
19,808667	0,5	-1,987550
19,817000	0,5	-2,003050
19,825333	0,5	-2,007350
19,833667	0,5	-2,017250
19,842000	0,5	-2,040850
19,850333	0,5	-2,064200
19,858667	0,5	-2,086350
19,867000	0,5	-2,081200
19,875333	0,5	-2,085950
19,883667	0,5	-2,094500
19,892000	0,5	-2,100750
19,900333	0,5	-2,106250
19,908667	0,5	-2,126750
19,917000	0,5	-2,125150
19,925333	0,5	-2,138550
19,933667	0,5	-2,143500
19,942000	0,5	-2,142500
19,950333	0,5	-2,135050
19,958667	0,5	-2,161400
19,967000	0,5	-2,157250
19,975333	0,5	-2,172350
19,983667	0,5	-2,184400
19,992000	0,5	-2,213800
20,000333	0,5	-2,250700
20,008667	0,5	-2,260700
20,017000	0,5	-2,281250
20,025333	0,5	-2,288600
20,033667	0,5	-2,317950
20,042000	0,5	-2,324150
20,050333	0,5	-2,341450
20,058667	0,5	-2,348750
20,067000	0,5	-2,361350
20,075333	0,5	-2,374750
20,083667	0,5	-2,391750
20,092000	0,5	-2,397950
20,100333	0,5	-2,411000
20,108667	0,5	-2,429400
20,117000	0,5	-2,428900
20,125333	0,5	-2,436800
20,133667	0,5	-2,448550
20,142000	0,5	-2,476300
20,150333	0,5	-2,495100
20,158667	0,5	-2,487700
20,167000	0,5	-2,477950
20,175333	0,5	-2,480050
20,183667	0,5	-2,465550
20,192000	0,5	-2,460300
20,200333	0,5	-2,451400
20,208667	0,5	-2,452400
20,217000	0,5	-2,457200
20,225333	0,5	-2,485550
20,233667	0,5	-2,497550
20,242000	0,5	-2,507000
20,250333	0,5	-2,530250
20,258667	0,5	-2,552400
20,267000	0,5	-2,564800
20,275333	0,5	-2,594250
20,283667	0,5	-2,622100
20,292000	0,5	-2,649800
20,300333	0,5	-2,679600
20,308667	0,5	-2,684100
20,317000	0,5	-2,714000
20,325333	0,5	-2,729900
20,333667	0,5	-2,762500
20,342000	0,5	-2,781050
20,350333	0,5	-2,805500
20,358667	0,5	-2,821100
20,367000	0,5	-2,838150
20,375333	0,5	-2,866200
20,383667	0,5	-2,876450
20,392000	0,5	-2,893100
20,400333	0,5	-2,925200
20,408667	0,5	-2,946350
20,417000	0,5	-2,964300
20,425333	0,5	-3,004050
20,433667	0,5	-3,043800
20,442000	0,5	-3,080300
20,450333	0,5	-3,085900
20,458667	0,5	-3,102900
20,467000	0,5	-3,123100
20,475333	0,5	-3,151050
20,483667	0,5	-3,168800
20,492000	0,5	-3,197450
20,500333	0,5	-3,201600
20,508667	0,5	-3,210900
20,517000	0,5	-3,218650
20,525333	0,5	-3,204600
20,533667	0,5	-3,175100
20,542000	0,5	-3,191450
20,550333	0,5	-3,217050
20,558667	0,5	-3,249750
20,567000	0,5	-3,300750
20,575333	0,5	-3,359700
20,583667	0,5	-3,447100
20,592000	0,5	-3,486200
20,600333	0,5	-3,528650
20,608667	0,5	-3,558400
20,617000	0,5	-3,602300
20,625333	0,5	-3,635600
20,633667	0,5	-3,672800
20,642000	0,5	-3,704300
20,650333	0,5	-3,732400
20,658667	0,5	-3,765100
20,667000	0,5	-3,793200
20,675333	0,5	-3,791600
20,683667	0,5	-3,790150
20,692000	0,5	-3,792950
20,700333	0,5	-3,777150
20,708667	0,5	-3,754500
20,717000	0,5	-3,753550
20,725333	0,5	-3,774150
20,733667	0,5	-3,820600
20,742000	0,5	-3,873150
20,750333	0,5	-3,937200
20,758667	0,5	-4,018700
20,767000	0,5	-4,085700
20,775333	0,5	-4,152250
20,783667	0,5	-4,208500
20,792000	0,5	-4,280250
20,800333	0,5	-4,318650
20,808667	0,5	-4,380350
20,817000	0,5	-4,422800
20,825333	0,5	-4,441250
20,833667	0,5	-4,463200
20,842000	0,5	-4,514650
20,850333	0,5	-4,550500
20,858667	0,5	-4,592800
20,867000	0,5	-4,644800
20,875333	0,5	-4,680500
20,883667	0,5	-4,723650
20,892000	0,5	-4,746800
20,900333	0,5	-4,786950
20,908667	0,5	-4,832800
20,917000	0,5	-4,871050
20,925333	0,5	-4,923050
20,933667	0,5	-4,976100
20,942000	0,5	-5,012350
20,950333	0,5	-5,058450
20,958667	0,5	-5,101900
20,967000	0,5	-5,124950
20,975333	0,5	-5,131500
20,983667	0,5	-5,168500
20,992000	0,5	-5,200900
21,000333	0,5	-5,254800
21,008667	0,5	-5,295400
21,017000	0,5	-5,351600
21,025333	0,5	-5,400000
21,033667	0,5	-5,422350
21,042000	0,5	-5,454300
21,050333	0,5	-5,487250
21,058667	0,5	-5,519550
21,067000	0,5	-5,542750
21,075333	0,5	-5,579550
21,083667	0,5	-5,607950
21,092000	0,5	-5,641550
21,100333	0,5	-5,675300
21,108667	0,5	-5,718150
21,117000	0,5	-5,716100
21,125333	0,5	-5,730350
21,133667	0,5	-5,754900
21,142000	0,5	-5,795600
21,150333	0,5	-5,828800
21,158667	0,5	-5,868800
21,167000	0,5	-5,919000
21,175333	0,5	-5,959750
21,183667	0,5	-5,986000
21,192000	0,5	-6,004950
21,200333	0,5	-6,034400
21,208667	0,5	-6,038800
21,217000	0,5	-6,059400
21,225333	0,5	-6,073500
21,233667	0,5	-6,103050
21,242000	0,5	-6,110800
21,250333	0,5	-6,131450
21,258667	0,5	-6,120650
21,267000	0,5	-6,105450
21,275333	0,5	-6,105000
21,283667	0,5	-6,106500
21,292000	0,5	-6,121150
21,300333	0,5	-6,165000
21,308667	0,5	-6,206350
21,317000	0,5	-6,245150
21,325333	0,5	-6,284600
21,333667	0,5	-6,298100
21,342000	0,5	-6,328100
21,350333	0,5	-6,342350
21,358667	0,5	-6,355350
21,367000	0,5	-6,376350
21,375333	0,5	-6,401550
21,383667	0,5	-6,414950
21,392000	0,5	-6,438550
21,400333	0,5	-6,452150
21,408667	0,5	-6,436350
21,417000	0,5	-6,425750
21,425333	0,5	-6,441750
21,433667	0,5	-6,466000
21,442000	0,5	-6,487800
21,450333	0,5	-6,514250
21,458667	0,5	-6,556650
21,467000	0,5	-6,591100
21,475333	0,5	-6,603850
21,483667	0,5	-6,619800
21,492000	0,5	-6,628000
21,500333	0,5	-6,644700
21,508667	0,5	-6,665300
21,517000	0,5	-6,683100
21,525333	0,5	-6,684850
21,533667	0,5	-6,707850
21,542000	0,5	-6,720600
21,550333	0,5	-6,732350
21,558667	0,5	-6,702800
21,567000	0,5	-6,711400
21,575333	0,5	-6,719300
21,583667	0,5	-6,738300
21,592000	0,5	-6,757000
21,600333	0,5	-6,773750
21,608667	0,5	-6,807950
21,617000	0,5	-6,801200
21,625333	0,5	-6,809900
21,633667	0,5	-6,793750
21,642000	0,5	-6,792650
21,650333	0,5	-6,775600
21,658667	0,5	-6,770050
21,667000	0,5	-6,774700
21,675333	0,5	-6,784550
21,683667	0,5	-6,799550
21,692000	0,5	-6,831700
21,700333	0,5	-6,818200
21,708667	0,5	-6,819350
21,717000	0,5	-6,844950
21,725333	0,5	-6,851850
21,733667	0,5	-6,865700
21,742000	0,5	-6,906950
21,750333	0,5	-6,947450
21,758667	0,5	-6,978750
21,767000	0,5	-7,000550
21,775333	0,5	-7,014000
21,783667	0,5	-7,040600
21,792000	0,5	-7,048400
21,800333	0,5	-7,067000
21,808667	0,5	-7,078850
21,817000	0,5	-7,105500
21,825333	0,5	-7,109400
21,833667	0,5	-7,133450
21,842000	0,5	-7,127600
21,850333	0,5	-7,116100
21,858667	0,5	-7,132550
21,867000	0,5	-7,154200
21,875333	0,5	-7,168850
21,883667	0,5	-7,197300
21,892000	0,5	-7,213100
21,900333	0,5	-7,247000
21,908667	0,5	-7,236300
21,917000	0,5	-7,188600
21,925333	0,5	-7,143250
21,933667	0,5	-7,088400
21,942000	0,5	-7,080750
21,950333	0,5	-7,097350
21,958667	0,5	-7,141150
21,967000	0,5	-7,192650
21,975333	0,5	-7,247400
21,983667	0,5	-7,291300
21,992000	0,5	-7,310000
22,000333	0,5	-7,344400
22,008667	0,5	-7,385500
22,017000	0,5	-7,413350
22,025333	0,5	-7,454850
22,033667	0,5	-7,494150
22,042000	0,5	-7,529050
22,050333	0,5	-7,575500
22,058667	0,5	-7,587550
22,067000	0,5	-7,608250
22,075333	0,5	-7,626350
22,083667	0,5	-7,650400
22,092000	0,5	-7,656900
22,100333	0,5	-7,681650
22,108667	0,5	-7,691600
22,117000	0,5	-7,725150
22,125333	0,5	-7,734550
22,133667	0,5	-7,754300
22,142000	0,5	-7,757700
22,150333	0,5	-7,787400
22,158667	0,5	-7,792050
22,167000	0,5	-7,799950
22,175333	0,5	-7,816850
22,183667	0,5	-7,847100
22,192000	0,5	-7,875850
22,200333	0,5	-7,878600
22,208667	0,5	-7,885200
22,217000	0,5	-7,888800
22,225333	0,5	-7,901300
22,233667	0,5	-7,899600
22,242000	0,5	-7,900550
22,250333	0,5	-7,895500
22,258667	0,5	-7,894450
22,267000	0,5	-7,886450
22,275333	0,5	-7,883750
22,283667	0,5	-7,888350
22,292000	0,5	-7,886650
22,300333	0,5	-7,875400
22,308667	0,5	-7,847150
22,317000	0,5	-7,839000
22,325333	0,5	-7,835700
22,333667	0,5	-7,839300
22,342000	0,5	-7,803000
22,350333	0,5	-7,740200
22,358667	0,5	-7,638000
22,367000	0,5	-7,545950
22,375333	0,5	-7,483600
22,383667	0,5	-7,492850
22,392000	0,5	-7,534850
22,400333	0,5	-7,605950
22,408667	0,5	-7,650900
22,417000	0,5	-7,710250
22,425333	0,5	-7,747600
22,433667	0,5	-7,783900
22,442000	0,5	-7,810300
22,450333	0,5	-7,817700
22,458667	0,5	-7,813300
22,467000	0,5	-7,836450
22,475333	0,5	-7,840500
22,483667	0,5	-7,857950
22,492000	0,5	-7,864200
22,500333	0,5	-7,842250
22,508667	0,5	-7,823450
22,517000	0,5	-7,819350
22,525333	0,5	-7,798850
22,533667	0,5	-7,781000
22,542000	0,5	-7,756950
22,550333	0,5	-7,709800
22,558667	0,5	-7,682100
22,567000	0,5	-7,656000
22,575333	0,5	-7,666150
22,583667	0,5	-7,657950
22,592000	0,5	-7,639400
22,600333	0,5	-7,613600
22,608667	0,5	-7,607750
22,617000	0,5	-7,610350
22,625333	0,5	-7,634500
22,633667	0,5	-7,638200
22,642000	0,5	-7,618950
22,650333	0,5	-7,610950
22,658667	0,5	-7,603750
22,667000	0,5	-7,601900
22,675333	0,5	-7,600350
22,683667	0,5	-7,599600
22,692000	0,5	-7,584500
22,700333	0,5	-7,591700
22,708667	0,5	-7,587500
22,717000	0,5	-7,603900
22,725333	0,5	-7,646550
22,733667	0,5	-7,658150
22,742000	0,5	-7,624800
22,750333	0,5	-7,623250
22,758667	0,5	-7,627900
22,767000	0,5	-7,645450
22,775333	0,5	-7,671800
22,783667	0,5	-7,682350
22,792000	0,5	-7,684750
22,800333	0,5	-7,695950
22,808667	0,5	-7,715250
22,817000	0,5	-7,730550
22,825333	0,5	-7,754200
22,833667	0,5	-7,766400
22,842000	0,5	-7,774250
22,850333	0,5	-7,801300
22,858667	0,5	-7,817050
22,867000	0,5	-7,899500
22,875333	0,5	-7,945400
22,883667	0,5	-7,956250
22,892000	0,5	-7,958100
22,900333	0,5	-7,992200
22,908667	0,5	-8,022950
22,917000	0,5	-8,053700
22,925333	0,5	-8,084150
22,933667	0,5	-8,122200
22,942000	0,5	-8,149850
22,950333	0,5	-8,168700
22,958667	0,5	-8,188050
22,967000	0,5	-8,183850
22,975333	0,5	-8,189950
22,983667	0,5	-8,176400
22,992000	0,5	-8,179200
23,000333	0,5	-8,154600
23,008667	0,5	-8,151700
23,017000	0,5	-8,135650
23,025333	0,5	-8,110450
23,033667	0,5	-8,085650
23,042000	0,5	-8,107250
23,050333	0,5	-8,098550
23,058667	0,5	-8,058000
23,067000	0,5	-8,019650
23,075333	0,5	-7,985000
23,083667	0,5	-7,963900
23,092000	0,5	-7,923150
23,100333	0,5	-7,869400
23,108667	0,5	-7,821650
23,117000	0,5	-7,758850
23,125333	0,5	-7,676150
23,133667	0,5	-7,620250
23,142000	0,5	-7,543450
23,150333	0,5	-7,470600
23,158667	0,5	-7,335850
23,167000	0,5	-7,261350
23,175333	0,5	-7,186150
23,183667	0,5	-7,152350
23,192000	0,5	-7,092200
23,200333	0,5	-7,012600
23,208667	0,5	-6,922500
23,217000	0,5	-6,835250
23,225333	0,5	-6,754450
23,233667	0,5	-6,695200
23,242000	0,5	-6,620250
23,250333	0,5	-6,540550
23,258667	0,5	-6,452400
23,267000	0,5	-6,357800
23,275333	0,5	-6,266700
23,283667	0,5	-6,174600
23,292000	0,5	-6,082550
23,300333	0,5	-5,978300
23,308667	0,5	-5,871350
23,317000	0,5	-5,774900
23,325333	0,5	-5,669000
23,333667	0,5	-5,618900
23,342000	0,5	-5,546300
23,350333	0,5	-5,470000
23,358667	0,5	-5,385250
23,367000	0,5	-5,300300
23,375333	0,5	-5,230850
23,383667	0,5	-5,166500
23,392000	0,5	-5,103650
23,400333	0,5	-5,034450
23,408667	0,5	-4,960100
23,417000	0,5	-4,884150
23,425333	0,5	-4,802950
23,433667	0,5	-4,742300
23,442000	0,5	-4,659550
23,450333	0,5	-4,567700
23,458667	0,5	-4,561700
23,467000	0,5	-4,451150
23,475333	0,5	-4,348800
23,483667	0,5	-4,303850
23,492000	0,5	-4,247000
23,500333	0,5	-4,190000
23,508667	0,5	-4,120100
23,517000	0,5	-4,075150
23,525333	0,5	-4,020000
23,533667	0,5	-3,984800
23,542000	0,5	-3,932000
23,550333	0,5	-3,899050
23,558667	0,5	-3,848100
23,567000	0,5	-3,805700
23,575333	0,5	-3,758750
23,583667	0,5	-3,710400
23,592000	0,5	-3,660750
23,600333	0,5	-3,678950
23,608667	0,5	-3,668700
23,617000	0,5	-3,602050
23,625333	0,5	-3,515100
23,633667	0,5	-3,483000
23,642000	0,5	-3,440200
23,650333	0,5	-3,405650
23,658667	0,5	-3,376850
23,667000	0,5	-3,351450
23,675333	0,5	-3,321650
23,683667	0,5	-3,290800
23,692000	0,5	-3,263000
23,700333	0,5	-3,232700
23,708667	0,5	-3,199000
23,717000	0,5	-3,172250
23,725333	0,5	-3,140000
23,733667	0,5	-3,113950
23,742000	0,5	-3,087250
23,750333	0,5	-3,212400
23,758667	0,5	-3,173650
23,767000	0,5	-3,105200
23,775333	0,5	-3,034700
23,783667	0,5	-2,998400
23,792000	0,5	-2,975700
23,800333	0,5	-2,954200
23,808667	0,5	-2,940600
23,817000	0,5	-2,914850
23,825333	0,5	-2,892650
23,833667	0,5	-2,872300
23,842000	0,5	-2,850200
23,850333	0,5	-2,823800
23,858667	0,5	-2,803350
23,867000	0,5	-2,774200
23,875333	0,5	-2,742800
23,883667	0,5	-2,712250
23,892000	0,5	-2,736900
23,900333	0,5	-2,829450
23,908667	0,5	-2,796750
23,917000	0,5	-2,709600
23,925333	0,5	-2,655650
23,933667	0,5	-2,615650
23,942000	0,5	-2,592500
23,950333	0,5	-2,582600
23,958667	0,5	-2,555900
23,967000	0,5	-2,532350
23,975333	0,5	-2,502400
23,983667	0,5	-2,483900
23,992000	0,5	-2,464700
24,000333	0,5	-2,440550
24,008667	0,5	-2,414500
24,017000	0,5	-2,390700
24,025333	0,5	-2,365900
24,033667	0,5	-2,358500
24,042000	0,5	-2,487500
24,050333	0,5	-2,457650
24,058667	0,5	-2,424300
24,067000	0,5	-2,345500
24,075333	0,5	-2,299300
24,083667	0,5	-2,266850
24,092000	0,5	-2,241750
24,100333	0,5	-2,236650
24,108667	0,5	-2,208350
24,117000	0,5	-2,169300
24,125333	0,5	-2,143900
24,133667	0,5	-2,121800
24,142000	0,5	-2,098550
24,150333	0,5	-2,071400
24,158667	0,5	-2,045750
24,167000	0,5	-2,011150
24,175333	0,5	-1,985250
24,183667	0,5	-1,977150
24,192000	0,5	-2,095800
24,200333	0,5	-2,052100
24,208667	0,5	-2,017250
24,217000	0,5	-1,946900
24,225333	0,5	-1,917300
24,233667	0,5	-1,898450
24,242000	0,5	-1,888000
24,250333	0,5	-1,889450
24,258667	0,5	-1,854600
24,267000	0,5	-1,832350
24,275333	0,5	-1,808950
24,283667	0,5	-1,786650
24,292000	0,5	-1,753000
24,300333	0,5	-1,733750
24,308667	0,5	-1,704150
24,317000	0,5	-1,683600
24,325333	0,5	-1,662050
24,333667	0,5	-1,713550
24,342000	0,5	-1,734350
24,350333	0,5	-1,704350
24,358667	0,5	-1,645350
24,367000	0,5	-1,603000
24,375333	0,5	-1,575400
24,383667	0,5	-1,553000
24,392000	0,5	-1,541700
24,400333	0,5	-1,534100
24,408667	0,5	-1,512200
24,417000	0,5	-1,490950
24,425333	0,5	-1,476900
24,433667	0,5	-1,464100
24,442000	0,5	-1,442300
24,450333	0,5	-1,421200
24,458667	0,5	-1,407050
24,467000	0,5	-1,383100
24,475333	0,5	-1,365400
24,483667	0,5	-1,424300
24,492000	0,5	-1,420050
24,500333	0,5	-1,388850
24,508667	0,5	-1,354450
24,517000	0,5	-1,322300
24,525333	0,5	-1,300650
24,533667	0,5	-1,290100
24,542000	0,5	-1,290850
24,550333	0,5	-1,276050
24,558667	0,5	-1,260900
24,567000	0,5	-1,238350
24,575333	0,5	-1,218800
24,583667	0,5	-1,197050
24,592000	0,5	-1,186700
24,600333	0,5	-1,162350
24,608667	0,5	-1,146850
24,617000	0,5	-1,129350
24,625333	0,5	-1,121800
24,633667	0,5	-1,171100
24,642000	0,5	-1,153400
24,650333	0,5	-1,134000
24,658667	0,5	-1,102350
24,667000	0,5	-1,085700
24,675333	0,5	-1,067600
24,683667	0,5	-1,071850
24,692000	0,5	-1,068700
24,700333	0,5	-1,057650
24,708667	0,5	-1,047050
24,717000	0,5	-1,034950
24,725333	0,5	-1,021800
24,733667	0,5	-1,011400
24,742000	0,5	-1,007250
24,750333	0,5	-0,991600
24,758667	0,5	-0,976050
24,767000	0,5	-0,963950
24,775333	0,5	-0,981850
24,783667	0,5	-0,970700
24,792000	0,5	-0,966150
24,800333	0,5	-0,937550
24,808667	0,5	-0,918850
24,817000	0,5	-0,908200
24,825333	0,5	-0,895850
24,833667	0,5	-0,897600
24,842000	0,5	-0,896300
24,850333	0,5	-0,883850
24,858667	0,5	-0,879250
24,867000	0,5	-0,873000
24,875333	0,5	-0,869350
24,883667	0,5	-0,865650
24,892000	0,5	-0,860900
24,900333	0,5	-0,849550
24,908667	0,5	-0,846800
24,917000	0,5	-0,838400
24,925333	0,5	-0,858000
24,933667	0,5	-0,850050
24,942000	0,5	-0,844250
24,950333	0,5	-0,824500
24,958667	0,5	-0,814300
24,967000	0,5	-0,805600
24,975333	0,5	-0,805650
24,983667	0,5	-0,802750
24,992000	0,5	-0,791850
25,000333	0,5	-0,779750
25,008667	0,5	-0,773600
25,017000	0,5	-0,765200
25,025333	0,5	-0,758850
25,033667	0,5	-0,753000
25,042000	0,5	-0,756700
25,050333	0,5	-0,752650
25,058667	0,5	-0,747250
25,067000	0,5	-0,751750
25,075333	0,5	-0,753100
25,083667	0,5	-0,747200
25,092000	0,5	-0,747000
25,100333	0,5	-0,740650
25,108667	0,5	-0,741700
25,117000	0,5	-0,738100
25,125333	0,5	-0,737350
25,133667	0,5	-0,737200
25,142000	0,5	-0,732050
25,150333	0,5	-0,726450
25,158667	0,5	-0,725100
25,167000	0,5	-0,721200
25,175333	0,5	-0,714850
25,183667	0,5	-0,711400
25,192000	0,5	-0,706000
25,200333	0,5	-0,699350
25,208667	0,5	-0,690850
25,217000	0,5	-0,690100
25,225333	0,5	-0,685950
25,233667	0,5	-0,682900
25,242000	0,5	-0,680100
25,250333	0,5	-0,677350
25,258667	0,5	-0,678550
25,267000	0,5	-0,679300
25,275333	0,5	-0,680700
25,283667	0,5	-0,678900
25,292000	0,5	-0,681100
25,300333	0,5	-0,679550
25,308667	0,5	-0,681350
25,317000	0,5	-0,679650
25,325333	0,5	-0,678500
25,333667	0,5	-0,675550
25,342000	0,5	-0,670350
25,350333	0,5	-0,668800
25,358667	0,5	-0,668100
25,367000	0,5	-0,656300
25,375333	0,5	-0,650300
25,383667	0,5	-0,643300
25,392000	0,5	-0,646000
25,400333	0,5	-0,645450
25,408667	0,5	-0,646600
25,417000	0,5	-0,638400
25,425333	0,5	-0,633750
25,433667	0,5	-0,630900
25,442000	0,5	-0,630700
25,450333	0,5	-0,632450
25,458667	0,5	-0,638900
25,467000	0,5	-0,635600
25,475333	0,5	-0,636400
25,483667	0,5	-0,639550
25,492000	0,5	-0,640150
25,500333	0,5	-0,633650
25,508667	0,5	-0,635750
25,517000	0,5	-0,625850
25,525333	0,5	-0,622300
25,533667	0,5	-0,622300
25,542000	0,5	-0,624200
25,550333	0,5	-0,627750
25,558667	0,5	-0,623250
25,567000	0,5	-0,615400
25,575333	0,5	-0,607250
25,583667	0,5	-0,602950
25,592000	0,5	-0,605900
25,600333	0,5	-0,606750
25,608667	0,5	-0,604450
25,617000	0,5	-0,604550
25,625333	0,5	-0,607300
25,633667	0,5	-0,605150
25,642000	0,5	-0,607800
25,650333	0,5	-0,602200
25,658667	0,5	-0,598150
25,667000	0,5	-0,594150
25,675333	0,5	-0,590550
25,683667	0,5	-0,594400
25,692000	0,5	-0,600250
25,700333	0,5	-0,600850
25,708667	0,5	-0,605100
25,717000	0,5	-0,592450
25,725333	0,5	-0,590750
25,733667	0,5	-0,590800
25,742000	0,5	-0,598350
25,750333	0,5	-0,589950
25,758667	0,5	-0,594350
25,767000	0,5	-0,591350
25,775333	0,5	-0,589050
25,783667	0,5	-0,585650
25,792000	0,5	-0,584600
25,800333	0,5	-0,580750
25,808667	0,5	-0,567050
25,817000	0,5	-0,574600
25,825333	0,5	-0,559700
25,833667	0,5	-0,571650
25,842000	0,5	-0,574900
25,850333	0,5	-0,575050
25,858667	0,5	-0,565500
25,867000	0,5	-0,552750
25,875333	0,5	-0,558700
25,883667	0,5	-0,563950
25,892000	0,5	-0,559650
25,900333	0,5	-0,559100
25,908667	0,5	-0,558800
25,917000	0,5	-0,559400
25,925333	0,5	-0,553200
25,933667	0,5	-0,557700
25,942000	0,5	-0,551950
25,950333	0,5	-0,544950
25,958667	0,5	-0,535500
25,967000	0,5	-0,533700
25,975333	0,5	-0,518400
25,983667	0,5	-0,529550
25,992000	0,5	-0,532000
26,000333	0,5	-0,523300
