File Path	chrom://chromeleon01/ikbm_chromeleon/2022/ICS-5000/ED1/Esteban/20220427_Cell_Amandas_mutants.seq/416.smp/ED_1.channel/ED_1.chm
Channel	ED_1

Injection Information:
Data Vault	ikbm_chromeleon
Injection	T24h_PASC_C-NE
Injection Number	60
Position	GB4
Comment	
Processing Method	Stop sequence after Cell Death
Instrument Method	ICS5000_PA200_FullNative_Ox_26min_ED1
Type	Unknown
Status	Finished
Injection Date	28.04.2022
Injection Time	17:09:01
Injection Volume (µl)	5,0
Dilution Factor	1,0000
Weight	1,0000

Chromatogram Data Information:
Time Min. (min)	0,000333
Time Max. (min)	26,000333
Data Points	3121
Detector	EDet1
Generating Data System	Chromeleon 7.2.9.11323
Exporting Data System	Chromeleon 7.2.9.0
Operator	Instrument Controller
Signal Quantity	
Signal Unit	nC
Signal Min.	-8,399450
Signal Max.	30,604000
Channel	ED_1
Driver Name	DC-5000
Channel Type	Evaluation
Min. Step (s)	0,5
Max. Step (s)	0,5
Average Step (s)	0,5

Signal Parameter Information:
Signal Info	

Chromatogram Data:
Time (min)	Step (s)	Value (nC)
0,000333	n.a.	-0,013750
0,008667	0,5	-0,080950
0,017000	0,5	-0,089700
0,025333	0,5	-0,067800
0,033667	0,5	-0,024200
0,042000	0,5	0,002350
0,050333	0,5	-0,007350
0,058667	0,5	0,006700
0,067000	0,5	0,003300
0,075333	0,5	0,001250
0,083667	0,5	-0,007950
0,092000	0,5	-0,002300
0,100333	0,5	-0,012800
0,108667	0,5	0,003150
0,117000	0,5	0,013900
0,125333	0,5	0,005750
0,133667	0,5	0,014750
0,142000	0,5	0,026600
0,150333	0,5	0,000500
0,158667	0,5	-0,007350
0,167000	0,5	0,004450
0,175333	0,5	0,034300
0,183667	0,5	0,051850
0,192000	0,5	0,028100
0,200333	0,5	0,025050
0,208667	0,5	0,022200
0,217000	0,5	0,030750
0,225333	0,5	0,020350
0,233667	0,5	0,027100
0,242000	0,5	0,016250
0,250333	0,5	0,018000
0,258667	0,5	0,010200
0,267000	0,5	0,009150
0,275333	0,5	-0,020650
0,283667	0,5	0,024250
0,292000	0,5	0,003850
0,300333	0,5	0,011800
0,308667	0,5	0,050550
0,317000	0,5	0,107300
0,325333	0,5	0,089700
0,333667	0,5	0,035650
0,342000	0,5	0,015850
0,350333	0,5	0,016700
0,358667	0,5	0,019250
0,367000	0,5	0,013850
0,375333	0,5	0,014950
0,383667	0,5	0,009600
0,392000	0,5	0,005450
0,400333	0,5	-0,005400
0,408667	0,5	0,011500
0,417000	0,5	0,008950
0,425333	0,5	0,011300
0,433667	0,5	0,044750
0,442000	0,5	0,011750
0,450333	0,5	-0,001650
0,458667	0,5	0,001700
0,467000	0,5	0,015500
0,475333	0,5	0,061450
0,483667	0,5	0,049900
0,492000	0,5	0,036850
0,500333	0,5	0,034000
0,508667	0,5	0,034350
0,517000	0,5	0,021600
0,525333	0,5	0,034750
0,533667	0,5	0,033400
0,542000	0,5	0,025900
0,550333	0,5	0,034200
0,558667	0,5	0,033750
0,567000	0,5	0,047200
0,575333	0,5	0,036300
0,583667	0,5	0,058500
0,592000	0,5	0,027700
0,600333	0,5	0,021850
0,608667	0,5	0,027050
0,617000	0,5	0,054200
0,625333	0,5	0,093250
0,633667	0,5	0,087650
0,642000	0,5	0,073200
0,650333	0,5	0,082950
0,658667	0,5	0,072750
0,667000	0,5	0,077950
0,675333	0,5	0,071100
0,683667	0,5	0,072400
0,692000	0,5	0,066350
0,700333	0,5	0,066650
0,708667	0,5	0,078900
0,717000	0,5	0,076700
0,725333	0,5	0,089200
0,733667	0,5	0,097550
0,742000	0,5	0,071300
0,750333	0,5	0,071800
0,758667	0,5	0,083250
0,767000	0,5	0,112550
0,775333	0,5	0,143300
0,783667	0,5	0,121800
0,792000	0,5	0,132000
0,800333	0,5	0,120750
0,808667	0,5	0,124950
0,817000	0,5	0,116450
0,825333	0,5	0,126850
0,833667	0,5	0,121050
0,842000	0,5	0,123700
0,850333	0,5	0,136650
0,858667	0,5	0,119900
0,867000	0,5	0,117350
0,875333	0,5	0,140950
0,883667	0,5	0,126150
0,892000	0,5	0,122300
0,900333	0,5	0,128750
0,908667	0,5	0,154100
0,917000	0,5	0,192100
0,925333	0,5	0,197300
0,933667	0,5	0,214000
0,942000	0,5	0,199350
0,950333	0,5	0,206950
0,958667	0,5	0,194600
0,967000	0,5	0,208400
0,975333	0,5	0,202050
0,983667	0,5	0,206300
0,992000	0,5	0,201600
1,000333	0,5	0,207900
1,008667	0,5	0,205600
1,017000	0,5	0,230400
1,025333	0,5	0,235750
1,033667	0,5	0,229150
1,042000	0,5	0,223150
1,050333	0,5	0,233100
1,058667	0,5	0,270600
1,067000	0,5	0,291000
1,075333	0,5	0,303500
1,083667	0,5	0,291800
1,092000	0,5	0,306900
1,100333	0,5	0,298800
1,108667	0,5	0,308200
1,117000	0,5	0,304950
1,125333	0,5	0,311800
1,133667	0,5	0,315000
1,142000	0,5	0,331050
1,150333	0,5	0,344350
1,158667	0,5	0,347150
1,167000	0,5	0,369650
1,175333	0,5	0,370600
1,183667	0,5	0,361050
1,192000	0,5	0,372300
1,200333	0,5	0,375100
1,208667	0,5	0,422550
1,217000	0,5	0,438700
1,225333	0,5	0,432650
1,233667	0,5	0,437950
1,242000	0,5	0,450350
1,250333	0,5	0,458500
1,258667	0,5	0,461350
1,267000	0,5	0,472150
1,275333	0,5	0,476450
1,283667	0,5	0,489150
1,292000	0,5	0,497850
1,300333	0,5	0,517700
1,308667	0,5	0,504900
1,317000	0,5	0,554550
1,325333	0,5	0,532450
1,333667	0,5	0,542500
1,342000	0,5	0,558250
1,350333	0,5	0,575700
1,358667	0,5	0,620800
1,367000	0,5	0,619000
1,375333	0,5	0,613250
1,383667	0,5	0,633600
1,392000	0,5	0,642500
1,400333	0,5	0,646500
1,408667	0,5	0,650900
1,417000	0,5	0,658450
1,425333	0,5	0,662850
1,433667	0,5	0,668400
1,442000	0,5	0,689450
1,450333	0,5	0,684100
1,458667	0,5	0,688850
1,467000	0,5	0,717550
1,475333	0,5	0,702950
1,483667	0,5	0,705500
1,492000	0,5	0,716300
1,500333	0,5	0,729250
1,508667	0,5	0,769700
1,517000	0,5	0,752650
1,525333	0,5	0,752600
1,533667	0,5	0,756750
1,542000	0,5	0,756100
1,550333	0,5	0,750650
1,558667	0,5	0,759800
1,567000	0,5	0,761100
1,575333	0,5	0,759250
1,583667	0,5	0,657200
1,592000	0,5	0,115850
1,600333	0,5	-1,036050
1,608667	0,5	-1,612900
1,617000	0,5	-0,358200
1,625333	0,5	1,776850
1,633667	0,5	3,788000
1,642000	0,5	5,923550
1,650333	0,5	8,160850
1,658667	0,5	9,714050
1,667000	0,5	10,160500
1,675333	0,5	9,796850
1,683667	0,5	9,109750
1,692000	0,5	8,336300
1,700333	0,5	7,668850
1,708667	0,5	7,231950
1,717000	0,5	7,348500
1,725333	0,5	8,521500
1,733667	0,5	10,533950
1,742000	0,5	11,676150
1,750333	0,5	10,800550
1,758667	0,5	8,848600
1,767000	0,5	7,075050
1,775333	0,5	5,884450
1,783667	0,5	5,324800
1,792000	0,5	5,553300
1,800333	0,5	6,797250
1,808667	0,5	8,613350
1,817000	0,5	9,879450
1,825333	0,5	10,174400
1,833667	0,5	9,672750
1,842000	0,5	8,733650
1,850333	0,5	7,714400
1,858667	0,5	6,872800
1,867000	0,5	6,209750
1,875333	0,5	5,723650
1,883667	0,5	5,338200
1,892000	0,5	4,987250
1,900333	0,5	4,677450
1,908667	0,5	4,478600
1,917000	0,5	4,363150
1,925333	0,5	4,347300
1,933667	0,5	4,271700
1,942000	0,5	4,145000
1,950333	0,5	4,033350
1,958667	0,5	3,970450
1,967000	0,5	3,944550
1,975333	0,5	3,952150
1,983667	0,5	4,030800
1,992000	0,5	4,201650
2,000333	0,5	4,542200
2,008667	0,5	5,090550
2,017000	0,5	5,954950
2,025333	0,5	7,229850
2,033667	0,5	9,131550
2,042000	0,5	11,853600
2,050333	0,5	15,446450
2,058667	0,5	19,734400
2,067000	0,5	24,454550
2,075333	0,5	28,311050
2,083667	0,5	29,543350
2,092000	0,5	28,037800
2,100333	0,5	25,305200
2,108667	0,5	22,669250
2,117000	0,5	20,615500
2,125333	0,5	19,228150
2,133667	0,5	18,484850
2,142000	0,5	18,438250
2,150333	0,5	19,427950
2,158667	0,5	21,648250
2,167000	0,5	23,797650
2,175333	0,5	23,923350
2,183667	0,5	22,131950
2,192000	0,5	20,184600
2,200333	0,5	18,782800
2,208667	0,5	17,319550
2,217000	0,5	15,592950
2,225333	0,5	13,991750
2,233667	0,5	12,764350
2,242000	0,5	11,945850
2,250333	0,5	11,340050
2,258667	0,5	10,882950
2,267000	0,5	10,532500
2,275333	0,5	10,263200
2,283667	0,5	10,044100
2,292000	0,5	9,871000
2,300333	0,5	9,730200
2,308667	0,5	9,603700
2,317000	0,5	9,515150
2,325333	0,5	9,444500
2,333667	0,5	9,408900
2,342000	0,5	9,370550
2,350333	0,5	9,387600
2,358667	0,5	9,352600
2,367000	0,5	9,356600
2,375333	0,5	9,376900
2,383667	0,5	9,422400
2,392000	0,5	9,513950
2,400333	0,5	9,604750
2,408667	0,5	9,751450
2,417000	0,5	9,992150
2,425333	0,5	10,256900
2,433667	0,5	10,462850
2,442000	0,5	10,497350
2,450333	0,5	10,387600
2,458667	0,5	10,277200
2,467000	0,5	10,250000
2,475333	0,5	10,287650
2,483667	0,5	10,292250
2,492000	0,5	10,300550
2,500333	0,5	10,313900
2,508667	0,5	10,279200
2,517000	0,5	10,259250
2,525333	0,5	10,262950
2,533667	0,5	10,284550
2,542000	0,5	10,343000
2,550333	0,5	10,380600
2,558667	0,5	10,495500
2,567000	0,5	10,683900
2,575333	0,5	11,016150
2,583667	0,5	11,552400
2,592000	0,5	12,494900
2,600333	0,5	13,976150
2,608667	0,5	16,037000
2,617000	0,5	18,403700
2,625333	0,5	20,601350
2,633667	0,5	22,205050
2,642000	0,5	23,113700
2,650333	0,5	23,294800
2,658667	0,5	22,809050
2,667000	0,5	21,791100
2,675333	0,5	20,492000
2,683667	0,5	19,172900
2,692000	0,5	18,049050
2,700333	0,5	17,283900
2,708667	0,5	17,012000
2,717000	0,5	17,380650
2,725333	0,5	18,461900
2,733667	0,5	20,245650
2,742000	0,5	22,544200
2,750333	0,5	25,093750
2,758667	0,5	27,566300
2,767000	0,5	29,553250
2,775333	0,5	30,604000
2,783667	0,5	30,432550
2,792000	0,5	29,174450
2,800333	0,5	27,141950
2,808667	0,5	24,801650
2,817000	0,5	22,601500
2,825333	0,5	20,909150
2,833667	0,5	20,111250
2,842000	0,5	20,590300
2,850333	0,5	22,590300
2,858667	0,5	25,791200
2,867000	0,5	28,935800
2,875333	0,5	30,554900
2,883667	0,5	29,909250
2,892000	0,5	27,411850
2,900333	0,5	24,029950
2,908667	0,5	20,669800
2,917000	0,5	17,742700
2,925333	0,5	15,330150
2,933667	0,5	13,391800
2,942000	0,5	11,873900
2,950333	0,5	10,652150
2,958667	0,5	9,692150
2,967000	0,5	8,918350
2,975333	0,5	8,313650
2,983667	0,5	7,812700
2,992000	0,5	7,370750
3,000333	0,5	6,975200
3,008667	0,5	6,639750
3,017000	0,5	6,339000
3,025333	0,5	6,068350
3,033667	0,5	5,838400
3,042000	0,5	5,627350
3,050333	0,5	5,435550
3,058667	0,5	5,256600
3,067000	0,5	5,089150
3,075333	0,5	4,897950
3,083667	0,5	4,744800
3,092000	0,5	4,571550
3,100333	0,5	4,393550
3,108667	0,5	4,233900
3,117000	0,5	4,101600
3,125333	0,5	4,013600
3,133667	0,5	3,933800
3,142000	0,5	3,871900
3,150333	0,5	3,842100
3,158667	0,5	3,838000
3,167000	0,5	3,876000
3,175333	0,5	3,956350
3,183667	0,5	4,139500
3,192000	0,5	4,497100
3,200333	0,5	5,127450
3,208667	0,5	6,189050
3,217000	0,5	7,687700
3,225333	0,5	9,483550
3,233667	0,5	11,208750
3,242000	0,5	12,360600
3,250333	0,5	12,639900
3,258667	0,5	12,054050
3,267000	0,5	10,800850
3,275333	0,5	9,281750
3,283667	0,5	7,757550
3,292000	0,5	6,460400
3,300333	0,5	5,435800
3,308667	0,5	4,682850
3,317000	0,5	4,098850
3,325333	0,5	3,659500
3,333667	0,5	3,311900
3,342000	0,5	3,023200
3,350333	0,5	2,789750
3,358667	0,5	2,591050
3,367000	0,5	2,426100
3,375333	0,5	2,285300
3,383667	0,5	2,182100
3,392000	0,5	2,067900
3,400333	0,5	1,972400
3,408667	0,5	1,890200
3,417000	0,5	1,829750
3,425333	0,5	1,778850
3,433667	0,5	1,710600
3,442000	0,5	1,644550
3,450333	0,5	1,601500
3,458667	0,5	1,536300
3,467000	0,5	1,496300
3,475333	0,5	1,446150
3,483667	0,5	1,416550
3,492000	0,5	1,369750
3,500333	0,5	1,340250
3,508667	0,5	1,317800
3,517000	0,5	1,268100
3,525333	0,5	1,243000
3,533667	0,5	1,219800
3,542000	0,5	1,175350
3,550333	0,5	1,136550
3,558667	0,5	1,112300
3,567000	0,5	1,105700
3,575333	0,5	1,091250
3,583667	0,5	1,039750
3,592000	0,5	1,015700
3,600333	0,5	0,986900
3,608667	0,5	0,967950
3,617000	0,5	0,933100
3,625333	0,5	0,915400
3,633667	0,5	0,883850
3,642000	0,5	0,864450
3,650333	0,5	0,841850
3,658667	0,5	0,814050
3,667000	0,5	0,780550
3,675333	0,5	0,785150
3,683667	0,5	0,759000
3,692000	0,5	0,740150
3,700333	0,5	0,728950
3,708667	0,5	0,737600
3,717000	0,5	0,745550
3,725333	0,5	0,744200
3,733667	0,5	0,731950
3,742000	0,5	0,714550
3,750333	0,5	0,714900
3,758667	0,5	0,702100
3,767000	0,5	0,700350
3,775333	0,5	0,700950
3,783667	0,5	0,699350
3,792000	0,5	0,692100
3,800333	0,5	0,689600
3,808667	0,5	0,685800
3,817000	0,5	0,669450
3,825333	0,5	0,678050
3,833667	0,5	0,651300
3,842000	0,5	0,630650
3,850333	0,5	0,622100
3,858667	0,5	0,620750
3,867000	0,5	0,638800
3,875333	0,5	0,633450
3,883667	0,5	0,621850
3,892000	0,5	0,614900
3,900333	0,5	0,608050
3,908667	0,5	0,598900
3,917000	0,5	0,596050
3,925333	0,5	0,595350
3,933667	0,5	0,583450
3,942000	0,5	0,585300
3,950333	0,5	0,586350
3,958667	0,5	0,586650
3,967000	0,5	0,580450
3,975333	0,5	0,591400
3,983667	0,5	0,571500
3,992000	0,5	0,560450
4,000333	0,5	0,560200
4,008667	0,5	0,575250
4,017000	0,5	0,599000
4,025333	0,5	0,601250
4,033667	0,5	0,588950
4,042000	0,5	0,591450
4,050333	0,5	0,582700
4,058667	0,5	0,582350
4,067000	0,5	0,580050
4,075333	0,5	0,583200
4,083667	0,5	0,577250
4,092000	0,5	0,575050
4,100333	0,5	0,572500
4,108667	0,5	0,566750
4,117000	0,5	0,579900
4,125333	0,5	0,590600
4,133667	0,5	0,576000
4,142000	0,5	0,576650
4,150333	0,5	0,587550
4,158667	0,5	0,612800
4,167000	0,5	0,625850
4,175333	0,5	0,615200
4,183667	0,5	0,620300
4,192000	0,5	0,619650
4,200333	0,5	0,621400
4,208667	0,5	0,621800
4,217000	0,5	0,621500
4,225333	0,5	0,620350
4,233667	0,5	0,629850
4,242000	0,5	0,640200
4,250333	0,5	0,643800
4,258667	0,5	0,648050
4,267000	0,5	0,673000
4,275333	0,5	0,667700
4,283667	0,5	0,664150
4,292000	0,5	0,667850
4,300333	0,5	0,685450
4,308667	0,5	0,710650
4,317000	0,5	0,709100
4,325333	0,5	0,722750
4,333667	0,5	0,725800
4,342000	0,5	0,741400
4,350333	0,5	0,741400
4,358667	0,5	0,759500
4,367000	0,5	0,771050
4,375333	0,5	0,784600
4,383667	0,5	0,795850
4,392000	0,5	0,817700
4,400333	0,5	0,834000
4,408667	0,5	0,865750
4,417000	0,5	0,904850
4,425333	0,5	0,936150
4,433667	0,5	0,993900
4,442000	0,5	1,081100
4,450333	0,5	1,190150
4,458667	0,5	1,306700
4,467000	0,5	1,405750
4,475333	0,5	1,484650
4,483667	0,5	1,560450
4,492000	0,5	1,593200
4,500333	0,5	1,599650
4,508667	0,5	1,574250
4,517000	0,5	1,534750
4,525333	0,5	1,466250
4,533667	0,5	1,409800
4,542000	0,5	1,354750
4,550333	0,5	1,291050
4,558667	0,5	1,251250
4,567000	0,5	1,214100
4,575333	0,5	1,167400
4,583667	0,5	1,133350
4,592000	0,5	1,117900
4,600333	0,5	1,124350
4,608667	0,5	1,126450
4,617000	0,5	1,103500
4,625333	0,5	1,095050
4,633667	0,5	1,090450
4,642000	0,5	1,089600
4,650333	0,5	1,085300
4,658667	0,5	1,084200
4,667000	0,5	1,070450
4,675333	0,5	1,075250
4,683667	0,5	1,078650
4,692000	0,5	1,083700
4,700333	0,5	1,064700
4,708667	0,5	1,092750
4,717000	0,5	1,076600
4,725333	0,5	1,071450
4,733667	0,5	1,069500
4,742000	0,5	1,080300
4,750333	0,5	1,113350
4,758667	0,5	1,114950
4,767000	0,5	1,109000
4,775333	0,5	1,115350
4,783667	0,5	1,121650
4,792000	0,5	1,125900
4,800333	0,5	1,129000
4,808667	0,5	1,138850
4,817000	0,5	1,143350
4,825333	0,5	1,146300
4,833667	0,5	1,158500
4,842000	0,5	1,153750
4,850333	0,5	1,154850
4,858667	0,5	1,180200
4,867000	0,5	1,174100
4,875333	0,5	1,179300
4,883667	0,5	1,191250
4,892000	0,5	1,211350
4,900333	0,5	1,248350
4,908667	0,5	1,252000
4,917000	0,5	1,262350
4,925333	0,5	1,265650
4,933667	0,5	1,284600
4,942000	0,5	1,286550
4,950333	0,5	1,290850
4,958667	0,5	1,308950
4,967000	0,5	1,314900
4,975333	0,5	1,326550
4,983667	0,5	1,337000
4,992000	0,5	1,343100
5,000333	0,5	1,349850
5,008667	0,5	1,361750
5,017000	0,5	1,356050
5,025333	0,5	1,361750
5,033667	0,5	1,365800
5,042000	0,5	1,394000
5,050333	0,5	1,417250
5,058667	0,5	1,430900
5,067000	0,5	1,432400
5,075333	0,5	1,442300
5,083667	0,5	1,447900
5,092000	0,5	1,467100
5,100333	0,5	1,481800
5,108667	0,5	1,499350
5,117000	0,5	1,517350
5,125333	0,5	1,530150
5,133667	0,5	1,543300
5,142000	0,5	1,549800
5,150333	0,5	1,564400
5,158667	0,5	1,551700
5,167000	0,5	1,542250
5,175333	0,5	1,531500
5,183667	0,5	1,529950
5,192000	0,5	1,539550
5,200333	0,5	1,546850
5,208667	0,5	1,530400
5,217000	0,5	1,531700
5,225333	0,5	1,520900
5,233667	0,5	1,518450
5,242000	0,5	1,519000
5,250333	0,5	1,515500
5,258667	0,5	1,515950
5,267000	0,5	1,514950
5,275333	0,5	1,522250
5,283667	0,5	1,517100
5,292000	0,5	1,517850
5,300333	0,5	1,533500
5,308667	0,5	1,528350
5,317000	0,5	1,521450
5,325333	0,5	1,524000
5,333667	0,5	1,535700
5,342000	0,5	1,558550
5,350333	0,5	1,554350
5,358667	0,5	1,554900
5,367000	0,5	1,548450
5,375333	0,5	1,554850
5,383667	0,5	1,551800
5,392000	0,5	1,553350
5,400333	0,5	1,546950
5,408667	0,5	1,547550
5,417000	0,5	1,546350
5,425333	0,5	1,540650
5,433667	0,5	1,536100
5,442000	0,5	1,546550
5,450333	0,5	1,545650
5,458667	0,5	1,538150
5,467000	0,5	1,522600
5,475333	0,5	1,531500
5,483667	0,5	1,542400
5,492000	0,5	1,556800
5,500333	0,5	1,549150
5,508667	0,5	1,545700
5,517000	0,5	1,542900
5,525333	0,5	1,539400
5,533667	0,5	1,535400
5,542000	0,5	1,530800
5,550333	0,5	1,531600
5,558667	0,5	1,521100
5,567000	0,5	1,527250
5,575333	0,5	1,526450
5,583667	0,5	1,526400
5,592000	0,5	1,540100
5,600333	0,5	1,537900
5,608667	0,5	1,527900
5,617000	0,5	1,525100
5,625333	0,5	1,533500
5,633667	0,5	1,562000
5,642000	0,5	1,573550
5,650333	0,5	1,578650
5,658667	0,5	1,593950
5,667000	0,5	1,620250
5,675333	0,5	1,634300
5,683667	0,5	1,665050
5,692000	0,5	1,691800
5,700333	0,5	1,703050
5,708667	0,5	1,711050
5,717000	0,5	1,711550
5,725333	0,5	1,703950
5,733667	0,5	1,669650
5,742000	0,5	1,655350
5,750333	0,5	1,607400
5,758667	0,5	1,568700
5,767000	0,5	1,532700
5,775333	0,5	1,512500
5,783667	0,5	1,508750
5,792000	0,5	1,483100
5,800333	0,5	1,453350
5,808667	0,5	1,439950
5,817000	0,5	1,420850
5,825333	0,5	1,405700
5,833667	0,5	1,386400
5,842000	0,5	1,376850
5,850333	0,5	1,364750
5,858667	0,5	1,347550
5,867000	0,5	1,338300
5,875333	0,5	1,323450
5,883667	0,5	1,309050
5,892000	0,5	1,310500
5,900333	0,5	1,290750
5,908667	0,5	1,273950
5,917000	0,5	1,265550
5,925333	0,5	1,258400
5,933667	0,5	1,270250
5,942000	0,5	1,257300
5,950333	0,5	1,243550
5,958667	0,5	1,230850
5,967000	0,5	1,225000
5,975333	0,5	1,211950
5,983667	0,5	1,202150
5,992000	0,5	1,185450
6,000333	0,5	1,174850
6,008667	0,5	1,170650
6,017000	0,5	1,153000
6,025333	0,5	1,140200
6,033667	0,5	1,132650
6,042000	0,5	1,125650
6,050333	0,5	1,111300
6,058667	0,5	1,098100
6,067000	0,5	1,092750
6,075333	0,5	1,103350
6,083667	0,5	1,108350
6,092000	0,5	1,098400
6,100333	0,5	1,090550
6,108667	0,5	1,086550
6,117000	0,5	1,072600
6,125333	0,5	1,064750
6,133667	0,5	1,054650
6,142000	0,5	1,050950
6,150333	0,5	1,036700
6,158667	0,5	1,034150
6,167000	0,5	1,028150
6,175333	0,5	1,016350
6,183667	0,5	1,016050
6,192000	0,5	1,005850
6,200333	0,5	0,992550
6,208667	0,5	0,997150
6,217000	0,5	1,001500
6,225333	0,5	1,012000
6,233667	0,5	1,015350
6,242000	0,5	1,004750
6,250333	0,5	1,009700
6,258667	0,5	1,003300
6,267000	0,5	0,999650
6,275333	0,5	0,998450
6,283667	0,5	0,996350
6,292000	0,5	0,988100
6,300333	0,5	0,993100
6,308667	0,5	0,994100
6,317000	0,5	0,989550
6,325333	0,5	0,990900
6,333667	0,5	0,997000
6,342000	0,5	0,993150
6,350333	0,5	0,990450
6,358667	0,5	0,988800
6,367000	0,5	1,005000
6,375333	0,5	1,023400
6,383667	0,5	1,025050
6,392000	0,5	1,034350
6,400333	0,5	1,038550
6,408667	0,5	1,043150
6,417000	0,5	1,046900
6,425333	0,5	1,060000
6,433667	0,5	1,061650
6,442000	0,5	1,067050
6,450333	0,5	1,077150
6,458667	0,5	1,087250
6,467000	0,5	1,091600
6,475333	0,5	1,101850
6,483667	0,5	1,106200
6,492000	0,5	1,109200
6,500333	0,5	1,112300
6,508667	0,5	1,115900
6,517000	0,5	1,141700
6,525333	0,5	1,150950
6,533667	0,5	1,159050
6,542000	0,5	1,164900
6,550333	0,5	1,175150
6,558667	0,5	1,180050
6,567000	0,5	1,187250
6,575333	0,5	1,194200
6,583667	0,5	1,205100
6,592000	0,5	1,208900
6,600333	0,5	1,218400
6,608667	0,5	1,226600
6,617000	0,5	1,232800
6,625333	0,5	1,259950
6,633667	0,5	1,264950
6,642000	0,5	1,263700
6,650333	0,5	1,271900
6,658667	0,5	1,281700
6,667000	0,5	1,314900
6,675333	0,5	1,317300
6,683667	0,5	1,326850
6,692000	0,5	1,335750
6,700333	0,5	1,350250
6,708667	0,5	1,355050
6,717000	0,5	1,368900
6,725333	0,5	1,375200
6,733667	0,5	1,391550
6,742000	0,5	1,398450
6,750333	0,5	1,411050
6,758667	0,5	1,432650
6,767000	0,5	1,429400
6,775333	0,5	1,460950
6,783667	0,5	1,463200
6,792000	0,5	1,468400
6,800333	0,5	1,474200
6,808667	0,5	1,496250
6,817000	0,5	1,521450
6,825333	0,5	1,534750
6,833667	0,5	1,542850
6,842000	0,5	1,559900
6,850333	0,5	1,566300
6,858667	0,5	1,575050
6,867000	0,5	1,582500
6,875333	0,5	1,598950
6,883667	0,5	1,600000
6,892000	0,5	1,606200
6,900333	0,5	1,619250
6,908667	0,5	1,620700
6,917000	0,5	1,630100
6,925333	0,5	1,644850
6,933667	0,5	1,649650
6,942000	0,5	1,653600
6,950333	0,5	1,664900
6,958667	0,5	1,679250
6,967000	0,5	1,699100
6,975333	0,5	1,700700
6,983667	0,5	1,711350
6,992000	0,5	1,721500
7,000333	0,5	1,732000
7,008667	0,5	1,747200
7,017000	0,5	1,756150
7,025333	0,5	1,758750
7,033667	0,5	1,772850
7,042000	0,5	1,788250
7,050333	0,5	1,803950
7,058667	0,5	1,811850
7,067000	0,5	1,832000
7,075333	0,5	1,846900
7,083667	0,5	1,862450
7,092000	0,5	1,885250
7,100333	0,5	1,912700
7,108667	0,5	1,954900
7,117000	0,5	2,002750
7,125333	0,5	2,053350
7,133667	0,5	2,103150
7,142000	0,5	2,185650
7,150333	0,5	2,276600
7,158667	0,5	2,403400
7,167000	0,5	2,553800
7,175333	0,5	2,729300
7,183667	0,5	2,909000
7,192000	0,5	3,075400
7,200333	0,5	3,212500
7,208667	0,5	3,311450
7,217000	0,5	3,361350
7,225333	0,5	3,350050
7,233667	0,5	3,290750
7,242000	0,5	3,209400
7,250333	0,5	3,112900
7,258667	0,5	3,023200
7,267000	0,5	2,920500
7,275333	0,5	2,811800
7,283667	0,5	2,716250
7,292000	0,5	2,629350
7,300333	0,5	2,543050
7,308667	0,5	2,476150
7,317000	0,5	2,412500
7,325333	0,5	2,352700
7,333667	0,5	2,311000
7,342000	0,5	2,268400
7,350333	0,5	2,232850
7,358667	0,5	2,198300
7,367000	0,5	2,171400
7,375333	0,5	2,128900
7,383667	0,5	2,098300
7,392000	0,5	2,072300
7,400333	0,5	2,057750
7,408667	0,5	2,044000
7,417000	0,5	2,027500
7,425333	0,5	2,007200
7,433667	0,5	1,994850
7,442000	0,5	1,973550
7,450333	0,5	1,956850
7,458667	0,5	1,949900
7,467000	0,5	1,931900
7,475333	0,5	1,919350
7,483667	0,5	1,906750
7,492000	0,5	1,895950
7,500333	0,5	1,881750
7,508667	0,5	1,881000
7,517000	0,5	1,874300
7,525333	0,5	1,861600
7,533667	0,5	1,855650
7,542000	0,5	1,849500
7,550333	0,5	1,855500
7,558667	0,5	1,861400
7,567000	0,5	1,855800
7,575333	0,5	1,857550
7,583667	0,5	1,856100
7,592000	0,5	1,859900
7,600333	0,5	1,859050
7,608667	0,5	1,860000
7,617000	0,5	1,855650
7,625333	0,5	1,850800
7,633667	0,5	1,848350
7,642000	0,5	1,841450
7,650333	0,5	1,830500
7,658667	0,5	1,838350
7,667000	0,5	1,833450
7,675333	0,5	1,826700
7,683667	0,5	1,821000
7,692000	0,5	1,820950
7,700333	0,5	1,829300
7,708667	0,5	1,825750
7,717000	0,5	1,824400
7,725333	0,5	1,823650
7,733667	0,5	1,829350
7,742000	0,5	1,830850
7,750333	0,5	1,837300
7,758667	0,5	1,842850
7,767000	0,5	1,859500
7,775333	0,5	1,873900
7,783667	0,5	1,907250
7,792000	0,5	1,930750
7,800333	0,5	1,958400
7,808667	0,5	1,981300
7,817000	0,5	1,979800
7,825333	0,5	1,960000
7,833667	0,5	1,937950
7,842000	0,5	1,915150
7,850333	0,5	1,905650
7,858667	0,5	1,891850
7,867000	0,5	1,889100
7,875333	0,5	1,891050
7,883667	0,5	1,891200
7,892000	0,5	1,907450
7,900333	0,5	1,914000
7,908667	0,5	1,930250
7,917000	0,5	1,942750
7,925333	0,5	1,961050
7,933667	0,5	1,985300
7,942000	0,5	2,021600
7,950333	0,5	2,058650
7,958667	0,5	2,099300
7,967000	0,5	2,114000
7,975333	0,5	2,124800
7,983667	0,5	2,123950
7,992000	0,5	2,116350
8,000333	0,5	2,103800
8,008667	0,5	2,084150
8,017000	0,5	2,074950
8,025333	0,5	2,071250
8,033667	0,5	2,068150
8,042000	0,5	2,066200
8,050333	0,5	2,061250
8,058667	0,5	2,058200
8,067000	0,5	2,059500
8,075333	0,5	2,061700
8,083667	0,5	2,079400
8,092000	0,5	2,102550
8,100333	0,5	2,147450
8,108667	0,5	2,177800
8,117000	0,5	2,154600
8,125333	0,5	2,070300
8,133667	0,5	1,955900
8,142000	0,5	1,861300
8,150333	0,5	1,796600
8,158667	0,5	1,742700
8,167000	0,5	1,710650
8,175333	0,5	1,685750
8,183667	0,5	1,674150
8,192000	0,5	1,661100
8,200333	0,5	1,651900
8,208667	0,5	1,635350
8,217000	0,5	1,624800
8,225333	0,5	1,620600
8,233667	0,5	1,617900
8,242000	0,5	1,616400
8,250333	0,5	1,621550
8,258667	0,5	1,627600
8,267000	0,5	1,630750
8,275333	0,5	1,647650
8,283667	0,5	1,660200
8,292000	0,5	1,673100
8,300333	0,5	1,675450
8,308667	0,5	1,670700
8,317000	0,5	1,663100
8,325333	0,5	1,655850
8,333667	0,5	1,644450
8,342000	0,5	1,635750
8,350333	0,5	1,620000
8,358667	0,5	1,605050
8,367000	0,5	1,596100
8,375333	0,5	1,576350
8,383667	0,5	1,567350
8,392000	0,5	1,556850
8,400333	0,5	1,552450
8,408667	0,5	1,540300
8,417000	0,5	1,535700
8,425333	0,5	1,528400
8,433667	0,5	1,528300
8,442000	0,5	1,538400
8,450333	0,5	1,540350
8,458667	0,5	1,550650
8,467000	0,5	1,558400
8,475333	0,5	1,564850
8,483667	0,5	1,582850
8,492000	0,5	1,600450
8,500333	0,5	1,619350
8,508667	0,5	1,631150
8,517000	0,5	1,649300
8,525333	0,5	1,667050
8,533667	0,5	1,674350
8,542000	0,5	1,686950
8,550333	0,5	1,700800
8,558667	0,5	1,702150
8,567000	0,5	1,709400
8,575333	0,5	1,713750
8,583667	0,5	1,717200
8,592000	0,5	1,717100
8,600333	0,5	1,710750
8,608667	0,5	1,705000
8,617000	0,5	1,689350
8,625333	0,5	1,669750
8,633667	0,5	1,659250
8,642000	0,5	1,651250
8,650333	0,5	1,637950
8,658667	0,5	1,629950
8,667000	0,5	1,626050
8,675333	0,5	1,624200
8,683667	0,5	1,626350
8,692000	0,5	1,641000
8,700333	0,5	1,656500
8,708667	0,5	1,668950
8,717000	0,5	1,679350
8,725333	0,5	1,679850
8,733667	0,5	1,679350
8,742000	0,5	1,655350
8,750333	0,5	1,626500
8,758667	0,5	1,595000
8,767000	0,5	1,576450
8,775333	0,5	1,558850
8,783667	0,5	1,551800
8,792000	0,5	1,546800
8,800333	0,5	1,544800
8,808667	0,5	1,538350
8,817000	0,5	1,537800
8,825333	0,5	1,539350
8,833667	0,5	1,538100
8,842000	0,5	1,545350
8,850333	0,5	1,549350
8,858667	0,5	1,542000
8,867000	0,5	1,545450
8,875333	0,5	1,551500
8,883667	0,5	1,559600
8,892000	0,5	1,558250
8,900333	0,5	1,559300
8,908667	0,5	1,555750
8,917000	0,5	1,553300
8,925333	0,5	1,555500
8,933667	0,5	1,555450
8,942000	0,5	1,556450
8,950333	0,5	1,554300
8,958667	0,5	1,555400
8,967000	0,5	1,555750
8,975333	0,5	1,554500
8,983667	0,5	1,553100
8,992000	0,5	1,553800
9,000333	0,5	1,554900
9,008667	0,5	1,559350
9,017000	0,5	1,562600
9,025333	0,5	1,569250
9,033667	0,5	1,581700
9,042000	0,5	1,584350
9,050333	0,5	1,587400
9,058667	0,5	1,588500
9,067000	0,5	1,594550
9,075333	0,5	1,596450
9,083667	0,5	1,596200
9,092000	0,5	1,594250
9,100333	0,5	1,591150
9,108667	0,5	1,592400
9,117000	0,5	1,595900
9,125333	0,5	1,594150
9,133667	0,5	1,591800
9,142000	0,5	1,592250
9,150333	0,5	1,586550
9,158667	0,5	1,589500
9,167000	0,5	1,581200
9,175333	0,5	1,567100
9,183667	0,5	1,560250
9,192000	0,5	1,544150
9,200333	0,5	1,536600
9,208667	0,5	1,522550
9,217000	0,5	1,509950
9,225333	0,5	1,495750
9,233667	0,5	1,489850
9,242000	0,5	1,481850
9,250333	0,5	1,472250
9,258667	0,5	1,462850
9,267000	0,5	1,460900
9,275333	0,5	1,453550
9,283667	0,5	1,445050
9,292000	0,5	1,442200
9,300333	0,5	1,430900
9,308667	0,5	1,425600
9,317000	0,5	1,425450
9,325333	0,5	1,416450
9,333667	0,5	1,415350
9,342000	0,5	1,412900
9,350333	0,5	1,405750
9,358667	0,5	1,397700
9,367000	0,5	1,400750
9,375333	0,5	1,389950
9,383667	0,5	1,380100
9,392000	0,5	1,376400
9,400333	0,5	1,366800
9,408667	0,5	1,368450
9,417000	0,5	1,359950
9,425333	0,5	1,348050
9,433667	0,5	1,345300
9,442000	0,5	1,344000
9,450333	0,5	1,331750
9,458667	0,5	1,331300
9,467000	0,5	1,328300
9,475333	0,5	1,330250
9,483667	0,5	1,325850
9,492000	0,5	1,323250
9,500333	0,5	1,319200
9,508667	0,5	1,313100
9,517000	0,5	1,309250
9,525333	0,5	1,303150
9,533667	0,5	1,300000
9,542000	0,5	1,288050
9,550333	0,5	1,288650
9,558667	0,5	1,285800
9,567000	0,5	1,282950
9,575333	0,5	1,281850
9,583667	0,5	1,283350
9,592000	0,5	1,291500
9,600333	0,5	1,305050
9,608667	0,5	1,322900
9,617000	0,5	1,350500
9,625333	0,5	1,385300
9,633667	0,5	1,427500
9,642000	0,5	1,467600
9,650333	0,5	1,504700
9,658667	0,5	1,529300
9,667000	0,5	1,547500
9,675333	0,5	1,548250
9,683667	0,5	1,532150
9,692000	0,5	1,497000
9,700333	0,5	1,458350
9,708667	0,5	1,419750
9,717000	0,5	1,376650
9,725333	0,5	1,343750
9,733667	0,5	1,311550
9,742000	0,5	1,289450
9,750333	0,5	1,268500
9,758667	0,5	1,253000
9,767000	0,5	1,259200
9,775333	0,5	1,255850
9,783667	0,5	1,254200
9,792000	0,5	1,260500
9,800333	0,5	1,265850
9,808667	0,5	1,281950
9,817000	0,5	1,289600
9,825333	0,5	1,313250
9,833667	0,5	1,338300
9,842000	0,5	1,366600
9,850333	0,5	1,403500
9,858667	0,5	1,434700
9,867000	0,5	1,463650
9,875333	0,5	1,496900
9,883667	0,5	1,511800
9,892000	0,5	1,522150
9,900333	0,5	1,528800
9,908667	0,5	1,524100
9,917000	0,5	1,534100
9,925333	0,5	1,540400
9,933667	0,5	1,552550
9,942000	0,5	1,559350
9,950333	0,5	1,555300
9,958667	0,5	1,546900
9,967000	0,5	1,520900
9,975333	0,5	1,487400
9,983667	0,5	1,448450
9,992000	0,5	1,409300
10,000333	0,5	1,381850
10,008667	0,5	1,343150
10,017000	0,5	1,314150
10,025333	0,5	1,293950
10,033667	0,5	1,269200
10,042000	0,5	1,253850
10,050333	0,5	1,242400
10,058667	0,5	1,225950
10,067000	0,5	1,225050
10,075333	0,5	1,215900
10,083667	0,5	1,204900
10,092000	0,5	1,201600
10,100333	0,5	1,202400
10,108667	0,5	1,195300
10,117000	0,5	1,202400
10,125333	0,5	1,213700
10,133667	0,5	1,223450
10,142000	0,5	1,234750
10,150333	0,5	1,256050
10,158667	0,5	1,271300
10,167000	0,5	1,288150
10,175333	0,5	1,312400
10,183667	0,5	1,328600
10,192000	0,5	1,341500
10,200333	0,5	1,363200
10,208667	0,5	1,400550
10,217000	0,5	1,447850
10,225333	0,5	1,501450
10,233667	0,5	1,560950
10,242000	0,5	1,599400
10,250333	0,5	1,631700
10,258667	0,5	1,624250
10,267000	0,5	1,590700
10,275333	0,5	1,535750
10,283667	0,5	1,471000
10,292000	0,5	1,404950
10,300333	0,5	1,355200
10,308667	0,5	1,304800
10,317000	0,5	1,273600
10,325333	0,5	1,251700
10,333667	0,5	1,235500
10,342000	0,5	1,216100
10,350333	0,5	1,206350
10,358667	0,5	1,197800
10,367000	0,5	1,190050
10,375333	0,5	1,179900
10,383667	0,5	1,170900
10,392000	0,5	1,166850
10,400333	0,5	1,162300
10,408667	0,5	1,148100
10,417000	0,5	1,143500
10,425333	0,5	1,135250
10,433667	0,5	1,133600
10,442000	0,5	1,137450
10,450333	0,5	1,139550
10,458667	0,5	1,149800
10,467000	0,5	1,167650
10,475333	0,5	1,198500
10,483667	0,5	1,227850
10,492000	0,5	1,268300
10,500333	0,5	1,299050
10,508667	0,5	1,323600
10,517000	0,5	1,338700
10,525333	0,5	1,319650
10,533667	0,5	1,277900
10,542000	0,5	1,219000
10,550333	0,5	1,149600
10,558667	0,5	1,079700
10,567000	0,5	1,017200
10,575333	0,5	0,978400
10,583667	0,5	0,954050
10,592000	0,5	0,947250
10,600333	0,5	0,960050
10,608667	0,5	0,981450
10,617000	0,5	1,017150
10,625333	0,5	1,060200
10,633667	0,5	1,103800
10,642000	0,5	1,140500
10,650333	0,5	1,178750
10,658667	0,5	1,216250
10,667000	0,5	1,246800
10,675333	0,5	1,258950
10,683667	0,5	1,259900
10,692000	0,5	1,255250
10,700333	0,5	1,249850
10,708667	0,5	1,236650
10,717000	0,5	1,220500
10,725333	0,5	1,204450
10,733667	0,5	1,190750
10,742000	0,5	1,184050
10,750333	0,5	1,179550
10,758667	0,5	1,176200
10,767000	0,5	1,168250
10,775333	0,5	1,165800
10,783667	0,5	1,158400
10,792000	0,5	1,145500
10,800333	0,5	1,143500
10,808667	0,5	1,147700
10,817000	0,5	1,140650
10,825333	0,5	1,141700
10,833667	0,5	1,139750
10,842000	0,5	1,139550
10,850333	0,5	1,133350
10,858667	0,5	1,132750
10,867000	0,5	1,128700
10,875333	0,5	1,124250
10,883667	0,5	1,123150
10,892000	0,5	1,122800
10,900333	0,5	1,107350
10,908667	0,5	1,118000
10,917000	0,5	1,110600
10,925333	0,5	1,108000
10,933667	0,5	1,106250
10,942000	0,5	1,097800
10,950333	0,5	1,105650
10,958667	0,5	1,104500
10,967000	0,5	1,098900
10,975333	0,5	1,104500
10,983667	0,5	1,103450
10,992000	0,5	1,103950
11,000333	0,5	1,105350
11,008667	0,5	1,108000
11,017000	0,5	1,111100
11,025333	0,5	1,112150
11,033667	0,5	1,115650
11,042000	0,5	1,111200
11,050333	0,5	1,112800
11,058667	0,5	1,126450
11,067000	0,5	1,152350
11,075333	0,5	1,187300
11,083667	0,5	1,237050
11,092000	0,5	1,303050
11,100333	0,5	1,382400
11,108667	0,5	1,454950
11,117000	0,5	1,511150
11,125333	0,5	1,541550
11,133667	0,5	1,530500
11,142000	0,5	1,507400
11,150333	0,5	1,451250
11,158667	0,5	1,407350
11,167000	0,5	1,359150
11,175333	0,5	1,327900
11,183667	0,5	1,305300
11,192000	0,5	1,285700
11,200333	0,5	1,272350
11,208667	0,5	1,261300
11,217000	0,5	1,247050
11,225333	0,5	1,234250
11,233667	0,5	1,221300
11,242000	0,5	1,215600
11,250333	0,5	1,224700
11,258667	0,5	1,231400
11,267000	0,5	1,247350
11,275333	0,5	1,276050
11,283667	0,5	1,313450
11,292000	0,5	1,378250
11,300333	0,5	1,466750
11,308667	0,5	1,581100
11,317000	0,5	1,738300
11,325333	0,5	1,931000
11,333667	0,5	2,147600
11,342000	0,5	2,376450
11,350333	0,5	2,604900
11,358667	0,5	2,812850
11,367000	0,5	2,967800
11,375333	0,5	3,062700
11,383667	0,5	3,090300
11,392000	0,5	3,039400
11,400333	0,5	2,942300
11,408667	0,5	2,778950
11,417000	0,5	2,586650
11,425333	0,5	2,390250
11,433667	0,5	2,216650
11,442000	0,5	2,060500
11,450333	0,5	1,952650
11,458667	0,5	1,880400
11,467000	0,5	1,842150
11,475333	0,5	1,838850
11,483667	0,5	1,829600
11,492000	0,5	1,826400
11,500333	0,5	1,821000
11,508667	0,5	1,788150
11,517000	0,5	1,739700
11,525333	0,5	1,673500
11,533667	0,5	1,592400
11,542000	0,5	1,521050
11,550333	0,5	1,449800
11,558667	0,5	1,382450
11,567000	0,5	1,320300
11,575333	0,5	1,275950
11,583667	0,5	1,235650
11,592000	0,5	1,204650
11,600333	0,5	1,174700
11,608667	0,5	1,152850
11,617000	0,5	1,138350
11,625333	0,5	1,123550
11,633667	0,5	1,108650
11,642000	0,5	1,103800
11,650333	0,5	1,097600
11,658667	0,5	1,091650
11,667000	0,5	1,090300
11,675333	0,5	1,078000
11,683667	0,5	1,074600
11,692000	0,5	1,080150
11,700333	0,5	1,088800
11,708667	0,5	1,083400
11,717000	0,5	1,088700
11,725333	0,5	1,089900
11,733667	0,5	1,087450
11,742000	0,5	1,084900
11,750333	0,5	1,095400
11,758667	0,5	1,098100
11,767000	0,5	1,102400
11,775333	0,5	1,111850
11,783667	0,5	1,110450
11,792000	0,5	1,119000
11,800333	0,5	1,136750
11,808667	0,5	1,139400
11,817000	0,5	1,148100
11,825333	0,5	1,162050
11,833667	0,5	1,183100
11,842000	0,5	1,211700
11,850333	0,5	1,233100
11,858667	0,5	1,260600
11,867000	0,5	1,272900
11,875333	0,5	1,296250
11,883667	0,5	1,300900
11,892000	0,5	1,311550
11,900333	0,5	1,304850
11,908667	0,5	1,300050
11,917000	0,5	1,299800
11,925333	0,5	1,290450
11,933667	0,5	1,278050
11,942000	0,5	1,281850
11,950333	0,5	1,284450
11,958667	0,5	1,280200
11,967000	0,5	1,283050
11,975333	0,5	1,293200
11,983667	0,5	1,319050
11,992000	0,5	1,347650
12,000333	0,5	1,390950
12,008667	0,5	1,451500
12,017000	0,5	1,526700
12,025333	0,5	1,589800
12,033667	0,5	1,646950
12,042000	0,5	1,696150
12,050333	0,5	1,738000
12,058667	0,5	1,773850
12,067000	0,5	1,813750
12,075333	0,5	1,842000
12,083667	0,5	1,908250
12,092000	0,5	1,976250
12,100333	0,5	2,070350
12,108667	0,5	2,151550
12,117000	0,5	2,241350
12,125333	0,5	2,316800
12,133667	0,5	2,374150
12,142000	0,5	2,393850
12,150333	0,5	2,368700
12,158667	0,5	2,317400
12,167000	0,5	2,227300
12,175333	0,5	2,117850
12,183667	0,5	2,000000
12,192000	0,5	1,901150
12,200333	0,5	1,802600
12,208667	0,5	1,739200
12,217000	0,5	1,696900
12,225333	0,5	1,663650
12,233667	0,5	1,650100
12,242000	0,5	1,646950
12,250333	0,5	1,644050
12,258667	0,5	1,642150
12,267000	0,5	1,637000
12,275333	0,5	1,643950
12,283667	0,5	1,650550
12,292000	0,5	1,654700
12,300333	0,5	1,653200
12,308667	0,5	1,656900
12,317000	0,5	1,651350
12,325333	0,5	1,641850
12,333667	0,5	1,616550
12,342000	0,5	1,578750
12,350333	0,5	1,534800
12,358667	0,5	1,490650
12,367000	0,5	1,444700
12,375333	0,5	1,385200
12,383667	0,5	1,354400
12,392000	0,5	1,311800
12,400333	0,5	1,283500
12,408667	0,5	1,243300
12,417000	0,5	1,210850
12,425333	0,5	1,203250
12,433667	0,5	1,200500
12,442000	0,5	1,197000
12,450333	0,5	1,203900
12,458667	0,5	1,198300
12,467000	0,5	1,206000
12,475333	0,5	1,206650
12,483667	0,5	1,218900
12,492000	0,5	1,244550
12,500333	0,5	1,275350
12,508667	0,5	1,302350
12,517000	0,5	1,313200
12,525333	0,5	1,306750
12,533667	0,5	1,294400
12,542000	0,5	1,245200
12,550333	0,5	1,183550
12,558667	0,5	1,126150
12,567000	0,5	1,095450
12,575333	0,5	1,106150
12,583667	0,5	1,021450
12,592000	0,5	0,851700
12,600333	0,5	0,514250
12,608667	0,5	0,058450
12,617000	0,5	-0,343450
12,625333	0,5	-0,632450
12,633667	0,5	-0,858900
12,642000	0,5	-1,082050
12,650333	0,5	-1,278450
12,658667	0,5	-1,517250
12,667000	0,5	-1,783450
12,675333	0,5	-1,984850
12,683667	0,5	-2,142750
12,692000	0,5	-2,268200
12,700333	0,5	-2,377850
12,708667	0,5	-2,476950
12,717000	0,5	-2,552900
12,725333	0,5	-2,617800
12,733667	0,5	-2,677050
12,742000	0,5	-2,730350
12,750333	0,5	-2,776800
12,758667	0,5	-2,821550
12,767000	0,5	-2,852250
12,775333	0,5	-2,893350
12,783667	0,5	-2,919050
12,792000	0,5	-2,949450
12,800333	0,5	-2,966600
12,808667	0,5	-2,994200
12,817000	0,5	-3,012350
12,825333	0,5	-3,029600
12,833667	0,5	-3,040100
12,842000	0,5	-3,053000
12,850333	0,5	-3,068200
12,858667	0,5	-3,075800
12,867000	0,5	-3,083950
12,875333	0,5	-3,086650
12,883667	0,5	-3,088700
12,892000	0,5	-3,088700
12,900333	0,5	-3,093600
12,908667	0,5	-3,088700
12,917000	0,5	-3,090700
12,925333	0,5	-3,082550
12,933667	0,5	-3,080500
12,942000	0,5	-3,082050
12,950333	0,5	-3,075200
12,958667	0,5	-3,075500
12,967000	0,5	-3,068600
12,975333	0,5	-3,054950
12,983667	0,5	-3,049200
12,992000	0,5	-3,038100
13,000333	0,5	-3,036100
13,008667	0,5	-3,013950
13,017000	0,5	-2,989450
13,025333	0,5	-2,966950
13,033667	0,5	-2,943950
13,042000	0,5	-2,915650
13,050333	0,5	-2,890850
13,058667	0,5	-2,866200
13,067000	0,5	-2,844600
13,075333	0,5	-2,822500
13,083667	0,5	-2,811250
13,092000	0,5	-2,798300
13,100333	0,5	-2,779250
13,108667	0,5	-2,792650
13,117000	0,5	-2,780550
13,125333	0,5	-2,794500
13,133667	0,5	-2,806650
13,142000	0,5	-2,836550
13,150333	0,5	-2,869100
13,158667	0,5	-2,879300
13,167000	0,5	-2,894150
13,175333	0,5	-2,913100
13,183667	0,5	-2,925550
13,192000	0,5	-2,934000
13,200333	0,5	-2,933100
13,208667	0,5	-2,948500
13,217000	0,5	-2,945900
13,225333	0,5	-2,941550
13,233667	0,5	-2,944300
13,242000	0,5	-2,935100
13,250333	0,5	-2,927800
13,258667	0,5	-2,931400
13,267000	0,5	-2,914050
13,275333	0,5	-2,899300
13,283667	0,5	-2,891550
13,292000	0,5	-2,868000
13,300333	0,5	-2,850050
13,308667	0,5	-2,802000
13,317000	0,5	-2,766150
13,325333	0,5	-2,730550
13,333667	0,5	-2,701050
13,342000	0,5	-2,676250
13,350333	0,5	-2,661100
13,358667	0,5	-2,651200
13,367000	0,5	-2,648750
13,375333	0,5	-2,652700
13,383667	0,5	-2,656550
13,392000	0,5	-2,659950
13,400333	0,5	-2,667800
13,408667	0,5	-2,672800
13,417000	0,5	-2,670850
13,425333	0,5	-2,670450
13,433667	0,5	-2,674050
13,442000	0,5	-2,679250
13,450333	0,5	-2,675550
13,458667	0,5	-2,674700
13,467000	0,5	-2,654650
13,475333	0,5	-2,651600
13,483667	0,5	-2,638100
13,492000	0,5	-2,631900
13,500333	0,5	-2,624750
13,508667	0,5	-2,611350
13,517000	0,5	-2,605150
13,525333	0,5	-2,588550
13,533667	0,5	-2,575300
13,542000	0,5	-2,563300
13,550333	0,5	-2,548850
13,558667	0,5	-2,534700
13,567000	0,5	-2,515000
13,575333	0,5	-2,500800
13,583667	0,5	-2,489500
13,592000	0,5	-2,479350
13,600333	0,5	-2,467300
13,608667	0,5	-2,439950
13,617000	0,5	-2,422700
13,625333	0,5	-2,394350
13,633667	0,5	-2,376450
13,642000	0,5	-2,350500
13,650333	0,5	-2,333900
13,658667	0,5	-2,305600
13,667000	0,5	-2,282950
13,675333	0,5	-2,262550
13,683667	0,5	-2,227900
13,692000	0,5	-2,205550
13,700333	0,5	-2,189400
13,708667	0,5	-2,164300
13,717000	0,5	-2,141400
13,725333	0,5	-2,120350
13,733667	0,5	-2,104800
13,742000	0,5	-2,100350
13,750333	0,5	-2,071750
13,758667	0,5	-2,056600
13,767000	0,5	-2,031700
13,775333	0,5	-2,014300
13,783667	0,5	-1,996050
13,792000	0,5	-1,988250
13,800333	0,5	-1,967650
13,808667	0,5	-1,947850
13,817000	0,5	-1,931900
13,825333	0,5	-1,919950
13,833667	0,5	-1,895000
13,842000	0,5	-1,900700
13,850333	0,5	-1,887300
13,858667	0,5	-1,874550
13,867000	0,5	-1,853200
13,875333	0,5	-1,841250
13,883667	0,5	-1,829300
13,892000	0,5	-1,809650
13,900333	0,5	-1,778800
13,908667	0,5	-1,729000
13,917000	0,5	-1,685700
13,925333	0,5	-1,624800
13,933667	0,5	-1,557000
13,942000	0,5	-1,490250
13,950333	0,5	-1,424800
13,958667	0,5	-1,370200
13,967000	0,5	-1,341350
13,975333	0,5	-1,324700
13,983667	0,5	-1,309200
13,992000	0,5	-1,304700
14,000333	0,5	-1,278550
14,008667	0,5	-1,229400
14,017000	0,5	-1,179900
14,025333	0,5	-1,120600
14,033667	0,5	-1,071800
14,042000	0,5	-1,013950
14,050333	0,5	-0,972450
14,058667	0,5	-0,928500
14,067000	0,5	-0,896300
14,075333	0,5	-0,844600
14,083667	0,5	-0,788800
14,092000	0,5	-0,727900
14,100333	0,5	-0,666000
14,108667	0,5	-0,612900
14,117000	0,5	-0,565700
14,125333	0,5	-0,533900
14,133667	0,5	-0,486150
14,142000	0,5	-0,452100
14,150333	0,5	-0,396000
14,158667	0,5	-0,359100
14,167000	0,5	-0,334500
14,175333	0,5	-0,330800
14,183667	0,5	-0,343500
14,192000	0,5	-0,332800
14,200333	0,5	-0,327650
14,208667	0,5	-0,324550
14,217000	0,5	-0,319600
14,225333	0,5	-0,311950
14,233667	0,5	-0,297200
14,242000	0,5	-0,282300
14,250333	0,5	-0,259350
14,258667	0,5	-0,242500
14,267000	0,5	-0,232250
14,275333	0,5	-0,210450
14,283667	0,5	-0,194750
14,292000	0,5	-0,189800
14,300333	0,5	-0,168050
14,308667	0,5	-0,150550
14,317000	0,5	-0,148000
14,325333	0,5	-0,143100
14,333667	0,5	-0,142400
14,342000	0,5	-0,119500
14,350333	0,5	-0,102600
14,358667	0,5	-0,079750
14,367000	0,5	-0,058750
14,375333	0,5	-0,030500
14,383667	0,5	-0,019950
14,392000	0,5	-0,003600
14,400333	0,5	-0,004850
14,408667	0,5	-0,006750
14,417000	0,5	-0,016850
14,425333	0,5	-0,025250
14,433667	0,5	-0,048500
14,442000	0,5	-0,050000
14,450333	0,5	-0,057250
14,458667	0,5	-0,066950
14,467000	0,5	-0,080200
14,475333	0,5	-0,094950
14,483667	0,5	-0,086750
14,492000	0,5	-0,088450
14,500333	0,5	-0,080850
14,508667	0,5	-0,084650
14,517000	0,5	-0,077050
14,525333	0,5	-0,072900
14,533667	0,5	-0,071900
14,542000	0,5	-0,072350
14,550333	0,5	-0,065250
14,558667	0,5	-0,061450
14,567000	0,5	-0,046700
14,575333	0,5	-0,007500
14,583667	0,5	0,035250
14,592000	0,5	0,117950
14,600333	0,5	0,202000
14,608667	0,5	0,288950
14,617000	0,5	0,357550
14,625333	0,5	0,400150
14,633667	0,5	0,426650
14,642000	0,5	0,427150
14,650333	0,5	0,384500
14,658667	0,5	0,353600
14,667000	0,5	0,302000
14,675333	0,5	0,279800
14,683667	0,5	0,282800
14,692000	0,5	0,320250
14,700333	0,5	0,374450
14,708667	0,5	0,444900
14,717000	0,5	0,516650
14,725333	0,5	0,548300
14,733667	0,5	0,557850
14,742000	0,5	0,526200
14,750333	0,5	0,469450
14,758667	0,5	0,389550
14,767000	0,5	0,301150
14,775333	0,5	0,230300
14,783667	0,5	0,178550
14,792000	0,5	0,140000
14,800333	0,5	0,114400
14,808667	0,5	0,081000
14,817000	0,5	0,073500
14,825333	0,5	0,054100
14,833667	0,5	0,049150
14,842000	0,5	0,050350
14,850333	0,5	0,053150
14,858667	0,5	0,060300
14,867000	0,5	0,067300
14,875333	0,5	0,061200
14,883667	0,5	0,058100
14,892000	0,5	0,055400
14,900333	0,5	0,032800
14,908667	0,5	0,015200
14,917000	0,5	-0,011000
14,925333	0,5	-0,020700
14,933667	0,5	-0,023400
14,942000	0,5	-0,023250
14,950333	0,5	-0,038500
14,958667	0,5	-0,051750
14,967000	0,5	-0,077950
14,975333	0,5	-0,097500
14,983667	0,5	-0,110750
14,992000	0,5	-0,124100
15,000333	0,5	-0,143400
15,008667	0,5	-0,145100
15,017000	0,5	-0,161200
15,025333	0,5	-0,170650
15,033667	0,5	-0,166150
15,042000	0,5	-0,172700
15,050333	0,5	-0,180050
15,058667	0,5	-0,190550
15,067000	0,5	-0,216100
15,075333	0,5	-0,208650
15,083667	0,5	-0,197650
15,092000	0,5	-0,176050
15,100333	0,5	-0,133750
15,108667	0,5	-0,080850
15,117000	0,5	-0,001750
15,125333	0,5	0,103150
15,133667	0,5	0,225600
15,142000	0,5	0,331450
15,150333	0,5	0,401300
15,158667	0,5	0,427150
15,167000	0,5	0,386150
15,175333	0,5	0,332900
15,183667	0,5	0,300200
15,192000	0,5	0,279000
15,200333	0,5	0,293350
15,208667	0,5	0,330200
15,217000	0,5	0,402350
15,225333	0,5	0,477250
15,233667	0,5	0,504300
15,242000	0,5	0,476100
15,250333	0,5	0,404650
15,258667	0,5	0,318800
15,267000	0,5	0,222000
15,275333	0,5	0,142650
15,283667	0,5	0,087700
15,292000	0,5	0,065050
15,300333	0,5	0,048300
15,308667	0,5	0,037100
15,317000	0,5	0,001300
15,325333	0,5	-0,001650
15,333667	0,5	-0,027400
15,342000	0,5	-0,042750
15,350333	0,5	-0,072750
15,358667	0,5	-0,096250
15,367000	0,5	-0,094900
15,375333	0,5	-0,091800
15,383667	0,5	-0,095400
15,392000	0,5	-0,088000
15,400333	0,5	-0,092650
15,408667	0,5	-0,102400
15,417000	0,5	-0,115150
15,425333	0,5	-0,133450
15,433667	0,5	-0,154250
15,442000	0,5	-0,184850
15,450333	0,5	-0,193350
15,458667	0,5	-0,215150
15,467000	0,5	-0,243050
15,475333	0,5	-0,247000
15,483667	0,5	-0,260450
15,492000	0,5	-0,277550
15,500333	0,5	-0,293400
15,508667	0,5	-0,329900
15,517000	0,5	-0,317800
15,525333	0,5	-0,324500
15,533667	0,5	-0,321650
15,542000	0,5	-0,318850
15,550333	0,5	-0,286200
15,558667	0,5	-0,248750
15,567000	0,5	-0,179450
15,575333	0,5	-0,080850
15,583667	0,5	0,034200
15,592000	0,5	0,161200
15,600333	0,5	0,260800
15,608667	0,5	0,311850
15,617000	0,5	0,299650
15,625333	0,5	0,283700
15,633667	0,5	0,259200
15,642000	0,5	0,266150
15,650333	0,5	0,286300
15,658667	0,5	0,338950
15,667000	0,5	0,385000
15,675333	0,5	0,398550
15,683667	0,5	0,351100
15,692000	0,5	0,284350
15,700333	0,5	0,174250
15,708667	0,5	0,076900
15,717000	0,5	-0,005350
15,725333	0,5	-0,066250
15,733667	0,5	-0,120000
15,742000	0,5	-0,154100
15,750333	0,5	-0,175500
15,758667	0,5	-0,188800
15,767000	0,5	-0,182150
15,775333	0,5	-0,164350
15,783667	0,5	-0,154800
15,792000	0,5	-0,163000
15,800333	0,5	-0,178050
15,808667	0,5	-0,190250
15,817000	0,5	-0,184650
15,825333	0,5	-0,200900
15,833667	0,5	-0,221550
15,842000	0,5	-0,246150
15,850333	0,5	-0,270350
15,858667	0,5	-0,295000
15,867000	0,5	-0,309400
15,875333	0,5	-0,334600
15,883667	0,5	-0,351800
15,892000	0,5	-0,353400
15,900333	0,5	-0,369650
15,908667	0,5	-0,392900
15,917000	0,5	-0,383050
15,925333	0,5	-0,390950
15,933667	0,5	-0,395250
15,942000	0,5	-0,411800
15,950333	0,5	-0,410800
15,958667	0,5	-0,368750
15,967000	0,5	-0,294250
15,975333	0,5	-0,184600
15,983667	0,5	-0,055900
15,992000	0,5	0,083000
16,000333	0,5	0,185950
16,008667	0,5	0,255950
16,017000	0,5	0,278200
16,025333	0,5	0,285550
16,033667	0,5	0,294200
16,042000	0,5	0,334650
16,050333	0,5	0,347700
16,058667	0,5	0,358800
16,067000	0,5	0,325850
16,075333	0,5	0,253450
16,083667	0,5	0,149750
16,092000	0,5	0,017650
16,100333	0,5	-0,080500
16,108667	0,5	-0,149150
16,117000	0,5	-0,194000
16,125333	0,5	-0,221700
16,133667	0,5	-0,241050
16,142000	0,5	-0,248750
16,150333	0,5	-0,254650
16,158667	0,5	-0,259150
16,167000	0,5	-0,257400
16,175333	0,5	-0,275450
16,183667	0,5	-0,280600
16,192000	0,5	-0,301250
16,200333	0,5	-0,332150
16,208667	0,5	-0,352550
16,217000	0,5	-0,371700
16,225333	0,5	-0,403500
16,233667	0,5	-0,441500
16,242000	0,5	-0,487750
16,250333	0,5	-0,503900
16,258667	0,5	-0,518400
16,267000	0,5	-0,541550
16,275333	0,5	-0,557400
16,283667	0,5	-0,565900
16,292000	0,5	-0,578300
16,300333	0,5	-0,581450
16,308667	0,5	-0,558600
16,317000	0,5	-0,544600
16,325333	0,5	-0,489450
16,333667	0,5	-0,402000
16,342000	0,5	-0,280150
16,350333	0,5	-0,150500
16,358667	0,5	-0,007650
16,367000	0,5	0,075450
16,375333	0,5	0,118150
16,383667	0,5	0,126350
16,392000	0,5	0,123750
16,400333	0,5	0,149950
16,408667	0,5	0,154850
16,417000	0,5	0,123100
16,425333	0,5	0,091150
16,433667	0,5	0,021250
16,442000	0,5	-0,056150
16,450333	0,5	-0,121300
16,458667	0,5	-0,159100
16,467000	0,5	-0,191150
16,475333	0,5	-0,203400
16,483667	0,5	-0,192150
16,492000	0,5	-0,198000
16,500333	0,5	-0,174750
16,508667	0,5	-0,165600
16,517000	0,5	-0,169550
16,525333	0,5	-0,187200
16,533667	0,5	-0,220700
16,542000	0,5	-0,231050
16,550333	0,5	-0,239500
16,558667	0,5	-0,278250
16,567000	0,5	-0,297750
16,575333	0,5	-0,327300
16,583667	0,5	-0,339550
16,592000	0,5	-0,358700
16,600333	0,5	-0,358050
16,608667	0,5	-0,360050
16,617000	0,5	-0,363400
16,625333	0,5	-0,357450
16,633667	0,5	-0,354100
16,642000	0,5	-0,366050
16,650333	0,5	-0,337550
16,658667	0,5	-0,305200
16,667000	0,5	-0,254100
16,675333	0,5	-0,184800
16,683667	0,5	-0,112150
16,692000	0,5	-0,014300
16,700333	0,5	0,049250
16,708667	0,5	0,091100
16,717000	0,5	0,104500
16,725333	0,5	0,114600
16,733667	0,5	0,103750
16,742000	0,5	0,098950
16,750333	0,5	0,059800
16,758667	0,5	0,002450
16,767000	0,5	-0,073250
16,775333	0,5	-0,152400
16,783667	0,5	-0,207850
16,792000	0,5	-0,271100
16,800333	0,5	-0,291900
16,808667	0,5	-0,318900
16,817000	0,5	-0,336900
16,825333	0,5	-0,359200
16,833667	0,5	-0,383900
16,842000	0,5	-0,386200
16,850333	0,5	-0,391300
16,858667	0,5	-0,407050
16,867000	0,5	-0,399350
16,875333	0,5	-0,416900
16,883667	0,5	-0,439850
16,892000	0,5	-0,460000
16,900333	0,5	-0,475350
16,908667	0,5	-0,494400
16,917000	0,5	-0,508900
16,925333	0,5	-0,516950
16,933667	0,5	-0,524650
16,942000	0,5	-0,516500
16,950333	0,5	-0,490400
16,958667	0,5	-0,455950
16,967000	0,5	-0,404650
16,975333	0,5	-0,337600
16,983667	0,5	-0,240500
16,992000	0,5	-0,099950
17,000333	0,5	0,028450
17,008667	0,5	0,154150
17,017000	0,5	0,271200
17,025333	0,5	0,382250
17,033667	0,5	0,488000
17,042000	0,5	0,601200
17,050333	0,5	0,699500
17,058667	0,5	0,783450
17,067000	0,5	0,865000
17,075333	0,5	0,929550
17,083667	0,5	0,967200
17,092000	0,5	1,018800
17,100333	0,5	1,047100
17,108667	0,5	1,074250
17,117000	0,5	1,081950
17,125333	0,5	1,088650
17,133667	0,5	1,135200
17,142000	0,5	1,168650
17,150333	0,5	1,216900
17,158667	0,5	1,255650
17,167000	0,5	1,296200
17,175333	0,5	1,289000
17,183667	0,5	1,259050
17,192000	0,5	1,198150
17,200333	0,5	1,106450
17,208667	0,5	0,990300
17,217000	0,5	0,876950
17,225333	0,5	0,732250
17,233667	0,5	0,609400
17,242000	0,5	0,511800
17,250333	0,5	0,447100
17,258667	0,5	0,411900
17,267000	0,5	0,386000
17,275333	0,5	0,389250
17,283667	0,5	0,394550
17,292000	0,5	0,399900
17,300333	0,5	0,388600
17,308667	0,5	0,371200
17,317000	0,5	0,337650
17,325333	0,5	0,288350
17,333667	0,5	0,240450
17,342000	0,5	0,201550
17,350333	0,5	0,172300
17,358667	0,5	0,164050
17,367000	0,5	0,179350
17,375333	0,5	0,187400
17,383667	0,5	0,220050
17,392000	0,5	0,253500
17,400333	0,5	0,273250
17,408667	0,5	0,282500
17,417000	0,5	0,266700
17,425333	0,5	0,271550
17,433667	0,5	0,288250
17,442000	0,5	0,287450
17,450333	0,5	0,273150
17,458667	0,5	0,253050
17,467000	0,5	0,219600
17,475333	0,5	0,177250
17,483667	0,5	0,147950
17,492000	0,5	0,120200
17,500333	0,5	0,108900
17,508667	0,5	0,114200
17,517000	0,5	0,128050
17,525333	0,5	0,116800
17,533667	0,5	0,135150
17,542000	0,5	0,129850
17,550333	0,5	0,100150
17,558667	0,5	0,040200
17,567000	0,5	-0,047650
17,575333	0,5	-0,102300
17,583667	0,5	-0,163250
17,592000	0,5	-0,220050
17,600333	0,5	-0,267250
17,608667	0,5	-0,296850
17,617000	0,5	-0,326100
17,625333	0,5	-0,348700
17,633667	0,5	-0,367300
17,642000	0,5	-0,388600
17,650333	0,5	-0,412000
17,658667	0,5	-0,411550
17,667000	0,5	-0,430800
17,675333	0,5	-0,442400
17,683667	0,5	-0,437550
17,692000	0,5	-0,438250
17,700333	0,5	-0,446300
17,708667	0,5	-0,438100
17,717000	0,5	-0,428000
17,725333	0,5	-0,367100
17,733667	0,5	-0,310800
17,742000	0,5	-0,247700
17,750333	0,5	-0,189650
17,758667	0,5	-0,142550
17,767000	0,5	-0,120050
17,775333	0,5	-0,121150
17,783667	0,5	-0,136700
17,792000	0,5	-0,177400
17,800333	0,5	-0,214700
17,808667	0,5	-0,257200
17,817000	0,5	-0,292750
17,825333	0,5	-0,314750
17,833667	0,5	-0,327550
17,842000	0,5	-0,353150
17,850333	0,5	-0,382250
17,858667	0,5	-0,423550
17,867000	0,5	-0,441300
17,875333	0,5	-0,454650
17,883667	0,5	-0,453000
17,892000	0,5	-0,470600
17,900333	0,5	-0,457200
17,908667	0,5	-0,454850
17,917000	0,5	-0,441500
17,925333	0,5	-0,411250
17,933667	0,5	-0,386900
17,942000	0,5	-0,340550
17,950333	0,5	-0,294200
17,958667	0,5	-0,259050
17,967000	0,5	-0,242950
17,975333	0,5	-0,226400
17,983667	0,5	-0,243650
17,992000	0,5	-0,283350
18,000333	0,5	-0,350350
18,008667	0,5	-0,398250
18,017000	0,5	-0,433100
18,025333	0,5	-0,454900
18,033667	0,5	-0,485800
18,042000	0,5	-0,505700
18,050333	0,5	-0,537300
18,058667	0,5	-0,555450
18,067000	0,5	-0,577800
18,075333	0,5	-0,586800
18,083667	0,5	-0,603900
18,092000	0,5	-0,623700
18,100333	0,5	-0,611300
18,108667	0,5	-0,622750
18,117000	0,5	-0,604700
18,125333	0,5	-0,567150
18,133667	0,5	-0,536600
18,142000	0,5	-0,503500
18,150333	0,5	-0,489750
18,158667	0,5	-0,482300
18,167000	0,5	-0,477900
18,175333	0,5	-0,509600
18,183667	0,5	-0,536750
18,192000	0,5	-0,592000
18,200333	0,5	-0,620600
18,208667	0,5	-0,661800
18,217000	0,5	-0,680400
18,225333	0,5	-0,706900
18,233667	0,5	-0,725250
18,242000	0,5	-0,738900
18,250333	0,5	-0,752750
18,258667	0,5	-0,783450
18,267000	0,5	-0,786650
18,275333	0,5	-0,785350
18,283667	0,5	-0,784500
18,292000	0,5	-0,790100
18,300333	0,5	-0,803150
18,308667	0,5	-0,767300
18,317000	0,5	-0,747250
18,325333	0,5	-0,720350
18,333667	0,5	-0,707950
18,342000	0,5	-0,706550
18,350333	0,5	-0,731250
18,358667	0,5	-0,756200
18,367000	0,5	-0,790050
18,375333	0,5	-0,817200
18,383667	0,5	-0,840900
18,392000	0,5	-0,852600
18,400333	0,5	-0,882800
18,408667	0,5	-0,896400
18,417000	0,5	-0,903100
18,425333	0,5	-0,905850
18,433667	0,5	-0,915000
18,442000	0,5	-0,928800
18,450333	0,5	-0,937900
18,458667	0,5	-0,931500
18,467000	0,5	-0,918250
18,475333	0,5	-0,910550
18,483667	0,5	-0,896850
18,492000	0,5	-0,886000
18,500333	0,5	-0,881700
18,508667	0,5	-0,887250
18,517000	0,5	-0,890150
18,525333	0,5	-0,922150
18,533667	0,5	-0,949250
18,542000	0,5	-0,960150
18,550333	0,5	-1,007900
18,558667	0,5	-1,018700
18,567000	0,5	-1,023050
18,575333	0,5	-1,023400
18,583667	0,5	-1,041400
18,592000	0,5	-1,073500
18,600333	0,5	-1,076750
18,608667	0,5	-1,079650
18,617000	0,5	-1,076400
18,625333	0,5	-1,063950
18,633667	0,5	-1,034900
18,642000	0,5	-1,010150
18,650333	0,5	-0,985000
18,658667	0,5	-0,978500
18,667000	0,5	-0,990250
18,675333	0,5	-1,006850
18,683667	0,5	-1,021000
18,692000	0,5	-1,014750
18,700333	0,5	-1,042000
18,708667	0,5	-1,030200
18,717000	0,5	-1,031100
18,725333	0,5	-1,016850
18,733667	0,5	-1,029650
18,742000	0,5	-1,034800
18,750333	0,5	-1,004150
18,758667	0,5	-0,968450
18,767000	0,5	-0,942850
18,775333	0,5	-0,921150
18,783667	0,5	-0,898450
18,792000	0,5	-0,892550
18,800333	0,5	-0,902250
18,808667	0,5	-0,911550
18,817000	0,5	-0,934300
18,825333	0,5	-0,957700
18,833667	0,5	-0,958800
18,842000	0,5	-0,978200
18,850333	0,5	-0,994650
18,858667	0,5	-0,991650
18,867000	0,5	-0,984100
18,875333	0,5	-0,993850
18,883667	0,5	-0,995400
18,892000	0,5	-1,009450
18,900333	0,5	-0,998550
18,908667	0,5	-0,994150
18,917000	0,5	-1,004300
18,925333	0,5	-1,016600
18,933667	0,5	-1,041500
18,942000	0,5	-1,068750
18,950333	0,5	-1,092400
18,958667	0,5	-1,113000
18,967000	0,5	-1,136000
18,975333	0,5	-1,139400
18,983667	0,5	-1,150550
18,992000	0,5	-1,168800
19,000333	0,5	-1,169900
19,008667	0,5	-1,155900
19,017000	0,5	-1,164100
19,025333	0,5	-1,174700
19,033667	0,5	-1,208250
19,042000	0,5	-1,216150
19,050333	0,5	-1,217050
19,058667	0,5	-1,218250
19,067000	0,5	-1,224350
19,075333	0,5	-1,232700
19,083667	0,5	-1,240800
19,092000	0,5	-1,258300
19,100333	0,5	-1,264850
19,108667	0,5	-1,275550
19,117000	0,5	-1,275400
19,125333	0,5	-1,283350
19,133667	0,5	-1,288450
19,142000	0,5	-1,303400
19,150333	0,5	-1,299950
19,158667	0,5	-1,312100
19,167000	0,5	-1,327950
19,175333	0,5	-1,363450
19,183667	0,5	-1,390600
19,192000	0,5	-1,403750
19,200333	0,5	-1,402950
19,208667	0,5	-1,415450
19,217000	0,5	-1,410000
19,225333	0,5	-1,416700
19,233667	0,5	-1,434750
19,242000	0,5	-1,438200
19,250333	0,5	-1,457950
19,258667	0,5	-1,464750
19,267000	0,5	-1,481800
19,275333	0,5	-1,476100
19,283667	0,5	-1,492950
19,292000	0,5	-1,499650
19,300333	0,5	-1,495700
19,308667	0,5	-1,494300
19,317000	0,5	-1,513400
19,325333	0,5	-1,544750
19,333667	0,5	-1,562150
19,342000	0,5	-1,560700
19,350333	0,5	-1,575050
19,358667	0,5	-1,574300
19,367000	0,5	-1,579100
19,375333	0,5	-1,584150
19,383667	0,5	-1,597400
19,392000	0,5	-1,593950
19,400333	0,5	-1,595250
19,408667	0,5	-1,600950
19,417000	0,5	-1,583850
19,425333	0,5	-1,589550
19,433667	0,5	-1,608850
19,442000	0,5	-1,612150
19,450333	0,5	-1,613950
19,458667	0,5	-1,635650
19,467000	0,5	-1,642400
19,475333	0,5	-1,677050
19,483667	0,5	-1,667700
19,492000	0,5	-1,676600
19,500333	0,5	-1,685050
19,508667	0,5	-1,705700
19,517000	0,5	-1,708350
19,525333	0,5	-1,731150
19,533667	0,5	-1,729150
19,542000	0,5	-1,739150
19,550333	0,5	-1,750250
19,558667	0,5	-1,767050
19,567000	0,5	-1,766100
19,575333	0,5	-1,782550
19,583667	0,5	-1,786900
19,592000	0,5	-1,775150
19,600333	0,5	-1,774450
19,608667	0,5	-1,778850
19,617000	0,5	-1,807850
19,625333	0,5	-1,809250
19,633667	0,5	-1,795000
19,642000	0,5	-1,773900
19,650333	0,5	-1,798050
19,658667	0,5	-1,788550
19,667000	0,5	-1,788300
19,675333	0,5	-1,791750
19,683667	0,5	-1,794900
19,692000	0,5	-1,804300
19,700333	0,5	-1,820900
19,708667	0,5	-1,841800
19,717000	0,5	-1,848350
19,725333	0,5	-1,875750
19,733667	0,5	-1,894900
19,742000	0,5	-1,916100
19,750333	0,5	-1,934200
19,758667	0,5	-1,985300
19,767000	0,5	-2,028100
19,775333	0,5	-2,046950
19,783667	0,5	-2,053800
19,792000	0,5	-2,069350
19,800333	0,5	-2,086700
19,808667	0,5	-2,109950
19,817000	0,5	-2,114300
19,825333	0,5	-2,141300
19,833667	0,5	-2,143750
19,842000	0,5	-2,164050
19,850333	0,5	-2,171300
19,858667	0,5	-2,174950
19,867000	0,5	-2,176450
19,875333	0,5	-2,204950
19,883667	0,5	-2,200750
19,892000	0,5	-2,212850
19,900333	0,5	-2,227450
19,908667	0,5	-2,251650
19,917000	0,5	-2,278700
19,925333	0,5	-2,276050
19,933667	0,5	-2,284050
19,942000	0,5	-2,281550
19,950333	0,5	-2,287850
19,958667	0,5	-2,285400
19,967000	0,5	-2,302400
19,975333	0,5	-2,303800
19,983667	0,5	-2,313050
19,992000	0,5	-2,323350
20,000333	0,5	-2,342700
20,008667	0,5	-2,342750
20,017000	0,5	-2,368800
20,025333	0,5	-2,383000
20,033667	0,5	-2,387950
20,042000	0,5	-2,403950
20,050333	0,5	-2,435850
20,058667	0,5	-2,470950
20,067000	0,5	-2,505900
20,075333	0,5	-2,508400
20,083667	0,5	-2,511650
20,092000	0,5	-2,526750
20,100333	0,5	-2,535250
20,108667	0,5	-2,553000
20,117000	0,5	-2,563400
20,125333	0,5	-2,574600
20,133667	0,5	-2,588050
20,142000	0,5	-2,601750
20,150333	0,5	-2,594150
20,158667	0,5	-2,600550
20,167000	0,5	-2,601600
20,175333	0,5	-2,609500
20,183667	0,5	-2,597500
20,192000	0,5	-2,609800
20,200333	0,5	-2,620500
20,208667	0,5	-2,639600
20,217000	0,5	-2,656900
20,225333	0,5	-2,659400
20,233667	0,5	-2,673400
20,242000	0,5	-2,686200
20,250333	0,5	-2,698300
20,258667	0,5	-2,713950
20,267000	0,5	-2,727200
20,275333	0,5	-2,735100
20,283667	0,5	-2,756900
20,292000	0,5	-2,765050
20,300333	0,5	-2,769050
20,308667	0,5	-2,784350
20,317000	0,5	-2,806700
20,325333	0,5	-2,815450
20,333667	0,5	-2,835100
20,342000	0,5	-2,861100
20,350333	0,5	-2,906700
20,358667	0,5	-2,949150
20,367000	0,5	-2,942400
20,375333	0,5	-2,972050
20,383667	0,5	-2,983800
20,392000	0,5	-3,006800
20,400333	0,5	-3,027300
20,408667	0,5	-3,058600
20,417000	0,5	-3,071550
20,425333	0,5	-3,107600
20,433667	0,5	-3,134350
20,442000	0,5	-3,137600
20,450333	0,5	-3,146700
20,458667	0,5	-3,184500
20,467000	0,5	-3,201150
20,475333	0,5	-3,220900
20,483667	0,5	-3,249100
20,492000	0,5	-3,289400
20,500333	0,5	-3,327250
20,508667	0,5	-3,329900
20,517000	0,5	-3,321700
20,525333	0,5	-3,302700
20,533667	0,5	-3,300950
20,542000	0,5	-3,292850
20,550333	0,5	-3,304050
20,558667	0,5	-3,331850
20,567000	0,5	-3,381350
20,575333	0,5	-3,423000
20,583667	0,5	-3,488750
20,592000	0,5	-3,499850
20,600333	0,5	-3,545600
20,608667	0,5	-3,597500
20,617000	0,5	-3,626500
20,625333	0,5	-3,662950
20,633667	0,5	-3,710050
20,642000	0,5	-3,770000
20,650333	0,5	-3,816100
20,658667	0,5	-3,833250
20,667000	0,5	-3,850350
20,675333	0,5	-3,866950
20,683667	0,5	-3,867700
20,692000	0,5	-3,864100
20,700333	0,5	-3,847400
20,708667	0,5	-3,814600
20,717000	0,5	-3,782850
20,725333	0,5	-3,779750
20,733667	0,5	-3,789700
20,742000	0,5	-3,814150
20,750333	0,5	-3,883100
20,758667	0,5	-3,969600
20,767000	0,5	-4,052150
20,775333	0,5	-4,133700
20,783667	0,5	-4,213550
20,792000	0,5	-4,309950
20,800333	0,5	-4,376900
20,808667	0,5	-4,422000
20,817000	0,5	-4,473150
20,825333	0,5	-4,516050
20,833667	0,5	-4,562750
20,842000	0,5	-4,611450
20,850333	0,5	-4,657100
20,858667	0,5	-4,692900
20,867000	0,5	-4,734000
20,875333	0,5	-4,763150
20,883667	0,5	-4,767050
20,892000	0,5	-4,779250
20,900333	0,5	-4,816450
20,908667	0,5	-4,867700
20,917000	0,5	-4,924500
20,925333	0,5	-4,980350
20,933667	0,5	-5,048450
20,942000	0,5	-5,127400
20,950333	0,5	-5,150450
20,958667	0,5	-5,188300
20,967000	0,5	-5,227900
20,975333	0,5	-5,267250
20,983667	0,5	-5,301400
20,992000	0,5	-5,331650
21,000333	0,5	-5,361200
21,008667	0,5	-5,384500
21,017000	0,5	-5,402350
21,025333	0,5	-5,414700
21,033667	0,5	-5,386600
21,042000	0,5	-5,402850
21,050333	0,5	-5,432050
21,058667	0,5	-5,474250
21,067000	0,5	-5,525900
21,075333	0,5	-5,597150
21,083667	0,5	-5,665500
21,092000	0,5	-5,715850
21,100333	0,5	-5,754200
21,108667	0,5	-5,782650
21,117000	0,5	-5,827300
21,125333	0,5	-5,857450
21,133667	0,5	-5,885050
21,142000	0,5	-5,916050
21,150333	0,5	-5,946250
21,158667	0,5	-5,973600
21,167000	0,5	-6,008150
21,175333	0,5	-6,005500
21,183667	0,5	-6,015000
21,192000	0,5	-6,028750
21,200333	0,5	-6,055100
21,208667	0,5	-6,069400
21,217000	0,5	-6,108750
21,225333	0,5	-6,152450
21,233667	0,5	-6,188950
21,242000	0,5	-6,218200
21,250333	0,5	-6,222600
21,258667	0,5	-6,241100
21,267000	0,5	-6,261400
21,275333	0,5	-6,261250
21,283667	0,5	-6,279500
21,292000	0,5	-6,286750
21,300333	0,5	-6,295450
21,308667	0,5	-6,328950
21,317000	0,5	-6,345100
21,325333	0,5	-6,351150
21,333667	0,5	-6,363150
21,342000	0,5	-6,394850
21,350333	0,5	-6,417600
21,358667	0,5	-6,452350
21,367000	0,5	-6,493600
21,375333	0,5	-6,544650
21,383667	0,5	-6,563650
21,392000	0,5	-6,582900
21,400333	0,5	-6,598950
21,408667	0,5	-6,614450
21,417000	0,5	-6,632550
21,425333	0,5	-6,650800
21,433667	0,5	-6,663700
21,442000	0,5	-6,671600
21,450333	0,5	-6,689850
21,458667	0,5	-6,714750
21,467000	0,5	-6,711250
21,475333	0,5	-6,694950
21,483667	0,5	-6,703550
21,492000	0,5	-6,701300
21,500333	0,5	-6,682650
21,508667	0,5	-6,677450
21,517000	0,5	-6,690650
21,525333	0,5	-6,726050
21,533667	0,5	-6,760450
21,542000	0,5	-6,803150
21,550333	0,5	-6,858450
21,558667	0,5	-6,897600
21,567000	0,5	-6,927400
21,575333	0,5	-6,955650
21,583667	0,5	-6,970500
21,592000	0,5	-6,981350
21,600333	0,5	-6,994900
21,608667	0,5	-7,010500
21,617000	0,5	-6,977800
21,625333	0,5	-6,966100
21,633667	0,5	-6,968450
21,642000	0,5	-6,971550
21,650333	0,5	-6,945250
21,658667	0,5	-6,935300
21,667000	0,5	-6,926150
21,675333	0,5	-6,920200
21,683667	0,5	-6,942950
21,692000	0,5	-6,987950
21,700333	0,5	-7,032500
21,708667	0,5	-7,059850
21,717000	0,5	-7,059200
21,725333	0,5	-7,047950
21,733667	0,5	-7,037700
21,742000	0,5	-7,034250
21,750333	0,5	-7,051150
21,758667	0,5	-7,059200
21,767000	0,5	-7,079900
21,775333	0,5	-7,143500
21,783667	0,5	-7,168800
21,792000	0,5	-7,197300
21,800333	0,5	-7,222300
21,808667	0,5	-7,247750
21,817000	0,5	-7,287000
21,825333	0,5	-7,276150
21,833667	0,5	-7,269700
21,842000	0,5	-7,262350
21,850333	0,5	-7,266000
21,858667	0,5	-7,260750
21,867000	0,5	-7,265850
21,875333	0,5	-7,262200
21,883667	0,5	-7,266800
21,892000	0,5	-7,280650
21,900333	0,5	-7,266100
21,908667	0,5	-7,240550
21,917000	0,5	-7,195100
21,925333	0,5	-7,153300
21,933667	0,5	-7,072100
21,942000	0,5	-7,032600
21,950333	0,5	-7,031300
21,958667	0,5	-7,079750
21,967000	0,5	-7,145850
21,975333	0,5	-7,188250
21,983667	0,5	-7,245400
21,992000	0,5	-7,287400
22,000333	0,5	-7,324000
22,008667	0,5	-7,370950
22,017000	0,5	-7,408000
22,025333	0,5	-7,445850
22,033667	0,5	-7,480000
22,042000	0,5	-7,512050
22,050333	0,5	-7,556400
22,058667	0,5	-7,585400
22,067000	0,5	-7,630600
22,075333	0,5	-7,635100
22,083667	0,5	-7,649850
22,092000	0,5	-7,669150
22,100333	0,5	-7,717700
22,108667	0,5	-7,763300
22,117000	0,5	-7,778250
22,125333	0,5	-7,789850
22,133667	0,5	-7,803700
22,142000	0,5	-7,822600
22,150333	0,5	-7,836900
22,158667	0,5	-7,866950
22,167000	0,5	-7,878950
22,175333	0,5	-7,893050
22,183667	0,5	-7,895550
22,192000	0,5	-7,916450
22,200333	0,5	-7,928000
22,208667	0,5	-7,956550
22,217000	0,5	-7,956350
22,225333	0,5	-7,949900
22,233667	0,5	-7,964350
22,242000	0,5	-7,970250
22,250333	0,5	-7,990850
22,258667	0,5	-7,994350
22,267000	0,5	-7,994650
22,275333	0,5	-7,991350
22,283667	0,5	-7,976550
22,292000	0,5	-7,977100
22,300333	0,5	-7,965500
22,308667	0,5	-7,960850
22,317000	0,5	-7,941150
22,325333	0,5	-7,930550
22,333667	0,5	-7,925800
22,342000	0,5	-7,906850
22,350333	0,5	-7,876000
22,358667	0,5	-7,772000
22,367000	0,5	-7,636600
22,375333	0,5	-7,523350
22,383667	0,5	-7,494950
22,392000	0,5	-7,530850
22,400333	0,5	-7,622300
22,408667	0,5	-7,678650
22,417000	0,5	-7,734300
22,425333	0,5	-7,772750
22,433667	0,5	-7,797900
22,442000	0,5	-7,819900
22,450333	0,5	-7,842450
22,458667	0,5	-7,856350
22,467000	0,5	-7,873750
22,475333	0,5	-7,894350
22,483667	0,5	-7,891600
22,492000	0,5	-7,955500
22,500333	0,5	-7,952550
22,508667	0,5	-7,909300
22,517000	0,5	-7,879800
22,525333	0,5	-7,860950
22,533667	0,5	-7,852250
22,542000	0,5	-7,858000
22,550333	0,5	-7,840050
22,558667	0,5	-7,807850
22,567000	0,5	-7,777350
22,575333	0,5	-7,775500
22,583667	0,5	-7,765650
22,592000	0,5	-7,760850
22,600333	0,5	-7,756850
22,608667	0,5	-7,747550
22,617000	0,5	-7,756600
22,625333	0,5	-7,756450
22,633667	0,5	-7,800050
22,642000	0,5	-7,842250
22,650333	0,5	-7,848900
22,658667	0,5	-7,799050
22,667000	0,5	-7,816000
22,675333	0,5	-7,835100
22,683667	0,5	-7,856950
22,692000	0,5	-7,895600
22,700333	0,5	-7,900200
22,708667	0,5	-7,912600
22,717000	0,5	-7,933450
22,725333	0,5	-7,954400
22,733667	0,5	-7,962150
22,742000	0,5	-7,969850
22,750333	0,5	-7,988150
22,758667	0,5	-7,993400
22,767000	0,5	-8,011400
22,775333	0,5	-8,043350
22,783667	0,5	-8,176050
22,792000	0,5	-8,189100
22,800333	0,5	-8,167700
22,808667	0,5	-8,172950
22,817000	0,5	-8,203950
22,825333	0,5	-8,230100
22,833667	0,5	-8,257900
22,842000	0,5	-8,294550
22,850333	0,5	-8,318550
22,858667	0,5	-8,349000
22,867000	0,5	-8,359900
22,875333	0,5	-8,378400
22,883667	0,5	-8,384900
22,892000	0,5	-8,399450
22,900333	0,5	-8,397650
22,908667	0,5	-8,393100
22,917000	0,5	-8,388000
22,925333	0,5	-8,361600
22,933667	0,5	-8,395200
22,942000	0,5	-8,349200
22,950333	0,5	-8,333600
22,958667	0,5	-8,342600
22,967000	0,5	-8,320250
22,975333	0,5	-8,304700
22,983667	0,5	-8,265100
22,992000	0,5	-8,238450
23,000333	0,5	-8,215550
23,008667	0,5	-8,179000
23,017000	0,5	-8,130750
23,025333	0,5	-8,081300
23,033667	0,5	-8,016850
23,042000	0,5	-7,950850
23,050333	0,5	-7,891650
23,058667	0,5	-7,801700
23,067000	0,5	-7,726000
23,075333	0,5	-7,619850
23,083667	0,5	-7,555850
23,092000	0,5	-7,457300
23,100333	0,5	-7,431850
23,108667	0,5	-7,363650
23,117000	0,5	-7,306250
23,125333	0,5	-7,193250
23,133667	0,5	-7,121750
23,142000	0,5	-7,046000
23,150333	0,5	-6,987150
23,158667	0,5	-6,893100
23,167000	0,5	-6,814750
23,175333	0,5	-6,719150
23,183667	0,5	-6,625050
23,192000	0,5	-6,538850
23,200333	0,5	-6,443550
23,208667	0,5	-6,349550
23,217000	0,5	-6,236950
23,225333	0,5	-6,128350
23,233667	0,5	-6,033250
23,242000	0,5	-5,959450
23,250333	0,5	-5,897200
23,258667	0,5	-5,810700
23,267000	0,5	-5,718400
23,275333	0,5	-5,636400
23,283667	0,5	-5,548900
23,292000	0,5	-5,475300
23,300333	0,5	-5,408050
23,308667	0,5	-5,343800
23,317000	0,5	-5,266800
23,325333	0,5	-5,198500
23,333667	0,5	-5,112150
23,342000	0,5	-5,041650
23,350333	0,5	-4,959250
23,358667	0,5	-4,879200
23,367000	0,5	-4,782100
23,375333	0,5	-4,694550
23,383667	0,5	-4,625950
23,392000	0,5	-4,567650
23,400333	0,5	-4,509850
23,408667	0,5	-4,448550
23,417000	0,5	-4,386550
23,425333	0,5	-4,319850
23,433667	0,5	-4,265100
23,442000	0,5	-4,222750
23,450333	0,5	-4,170550
23,458667	0,5	-4,119200
23,467000	0,5	-4,081150
23,475333	0,5	-4,027050
23,483667	0,5	-3,989650
23,492000	0,5	-3,929650
23,500333	0,5	-3,887600
23,508667	0,5	-3,837900
23,517000	0,5	-3,796450
23,525333	0,5	-3,749600
23,533667	0,5	-3,706250
23,542000	0,5	-3,666550
23,550333	0,5	-3,634300
23,558667	0,5	-3,600100
23,567000	0,5	-3,562300
23,575333	0,5	-3,524200
23,583667	0,5	-3,493000
23,592000	0,5	-3,457650
23,600333	0,5	-3,433600
23,608667	0,5	-3,406250
23,617000	0,5	-3,368700
23,625333	0,5	-3,342300
23,633667	0,5	-3,310900
23,642000	0,5	-3,276150
23,650333	0,5	-3,250800
23,658667	0,5	-3,227600
23,667000	0,5	-3,212400
23,675333	0,5	-3,189800
23,683667	0,5	-3,153500
23,692000	0,5	-3,125250
23,700333	0,5	-3,103600
23,708667	0,5	-3,087550
23,717000	0,5	-3,077700
23,725333	0,5	-3,061250
23,733667	0,5	-3,035650
23,742000	0,5	-3,022050
23,750333	0,5	-3,001900
23,758667	0,5	-2,978450
23,767000	0,5	-2,954100
23,775333	0,5	-2,928950
23,783667	0,5	-2,903500
23,792000	0,5	-2,871100
23,800333	0,5	-2,844850
23,808667	0,5	-2,873000
23,817000	0,5	-2,809750
23,825333	0,5	-2,832250
23,833667	0,5	-2,749950
23,842000	0,5	-2,720950
23,850333	0,5	-2,697900
23,858667	0,5	-2,683100
23,867000	0,5	-2,691400
23,875333	0,5	-2,662900
23,883667	0,5	-2,633550
23,892000	0,5	-2,616500
23,900333	0,5	-2,597200
23,908667	0,5	-2,583750
23,917000	0,5	-2,567300
23,925333	0,5	-2,541500
23,933667	0,5	-2,526150
23,942000	0,5	-2,503750
23,950333	0,5	-2,489600
23,958667	0,5	-2,495150
23,967000	0,5	-2,458550
23,975333	0,5	-2,462850
23,983667	0,5	-2,395750
23,992000	0,5	-2,367300
24,000333	0,5	-2,343750
24,008667	0,5	-2,338250
24,017000	0,5	-2,371800
24,025333	0,5	-2,320350
24,033667	0,5	-2,285050
24,042000	0,5	-2,260550
24,050333	0,5	-2,233250
24,058667	0,5	-2,201150
24,067000	0,5	-2,182200
24,075333	0,5	-2,151600
24,083667	0,5	-2,116650
24,092000	0,5	-2,097100
24,100333	0,5	-2,080150
24,108667	0,5	-2,090850
24,117000	0,5	-2,076500
24,125333	0,5	-2,058650
24,133667	0,5	-1,995050
24,142000	0,5	-1,975850
24,150333	0,5	-1,956850
24,158667	0,5	-1,962200
24,167000	0,5	-1,980100
24,175333	0,5	-1,955500
24,183667	0,5	-1,916050
24,192000	0,5	-1,903350
24,200333	0,5	-1,867800
24,208667	0,5	-1,848500
24,217000	0,5	-1,827800
24,225333	0,5	-1,812050
24,233667	0,5	-1,777550
24,242000	0,5	-1,754750
24,250333	0,5	-1,743150
24,258667	0,5	-1,715500
24,267000	0,5	-1,698900
24,275333	0,5	-1,665050
24,283667	0,5	-1,627850
24,292000	0,5	-1,604950
24,300333	0,5	-1,601400
24,308667	0,5	-1,609400
24,317000	0,5	-1,617050
24,325333	0,5	-1,586250
24,333667	0,5	-1,566300
24,342000	0,5	-1,548100
24,350333	0,5	-1,527250
24,358667	0,5	-1,507400
24,367000	0,5	-1,497400
24,375333	0,5	-1,470850
24,383667	0,5	-1,453600
24,392000	0,5	-1,435900
24,400333	0,5	-1,422050
24,408667	0,5	-1,398100
24,417000	0,5	-1,405650
24,425333	0,5	-1,376800
24,433667	0,5	-1,351600
24,442000	0,5	-1,339600
24,450333	0,5	-1,325300
24,458667	0,5	-1,342650
24,467000	0,5	-1,320600
24,475333	0,5	-1,308550
24,483667	0,5	-1,281100
24,492000	0,5	-1,269650
24,500333	0,5	-1,248250
24,508667	0,5	-1,233850
24,517000	0,5	-1,213900
24,525333	0,5	-1,199800
24,533667	0,5	-1,199700
24,542000	0,5	-1,174600
24,550333	0,5	-1,147000
24,558667	0,5	-1,153350
24,567000	0,5	-1,127750
24,575333	0,5	-1,105600
24,583667	0,5	-1,092800
24,592000	0,5	-1,092000
24,600333	0,5	-1,099350
24,608667	0,5	-1,104150
24,617000	0,5	-1,096700
24,625333	0,5	-1,077550
24,633667	0,5	-1,079400
24,642000	0,5	-1,064550
24,650333	0,5	-1,051950
24,658667	0,5	-1,041150
24,667000	0,5	-1,028100
24,675333	0,5	-1,010100
24,683667	0,5	-0,997200
24,692000	0,5	-0,987200
24,700333	0,5	-0,967050
24,708667	0,5	-0,967500
24,717000	0,5	-0,950450
24,725333	0,5	-0,930050
24,733667	0,5	-0,920150
24,742000	0,5	-0,917850
24,750333	0,5	-0,927550
24,758667	0,5	-0,913650
24,767000	0,5	-0,903050
24,775333	0,5	-0,899000
24,783667	0,5	-0,895300
24,792000	0,5	-0,887850
24,800333	0,5	-0,882200
24,808667	0,5	-0,876350
24,817000	0,5	-0,866800
24,825333	0,5	-0,864300
24,833667	0,5	-0,855850
24,842000	0,5	-0,861400
24,850333	0,5	-0,840500
24,858667	0,5	-0,845350
24,867000	0,5	-0,826050
24,875333	0,5	-0,819150
24,883667	0,5	-0,808350
24,892000	0,5	-0,801800
24,900333	0,5	-0,808650
24,908667	0,5	-0,794700
24,917000	0,5	-0,779650
24,925333	0,5	-0,775400
24,933667	0,5	-0,770500
24,942000	0,5	-0,764250
24,950333	0,5	-0,759450
24,958667	0,5	-0,755350
24,967000	0,5	-0,739950
24,975333	0,5	-0,738900
24,983667	0,5	-0,740050
24,992000	0,5	-0,731800
25,000333	0,5	-0,732800
25,008667	0,5	-0,731650
25,017000	0,5	-0,726350
25,025333	0,5	-0,723600
25,033667	0,5	-0,718350
25,042000	0,5	-0,723100
25,050333	0,5	-0,725400
25,058667	0,5	-0,713500
25,067000	0,5	-0,713200
25,075333	0,5	-0,706650
25,083667	0,5	-0,704550
25,092000	0,5	-0,698650
25,100333	0,5	-0,688850
25,108667	0,5	-0,683000
25,117000	0,5	-0,670400
25,125333	0,5	-0,667350
25,133667	0,5	-0,666350
25,142000	0,5	-0,661250
25,150333	0,5	-0,657600
25,158667	0,5	-0,656400
25,167000	0,5	-0,648500
25,175333	0,5	-0,653600
25,183667	0,5	-0,647150
25,192000	0,5	-0,649900
25,200333	0,5	-0,653650
25,208667	0,5	-0,653750
25,217000	0,5	-0,651550
25,225333	0,5	-0,649150
25,233667	0,5	-0,649800
25,242000	0,5	-0,647200
25,250333	0,5	-0,650800
25,258667	0,5	-0,648850
25,267000	0,5	-0,642500
25,275333	0,5	-0,635400
25,283667	0,5	-0,634800
25,292000	0,5	-0,628300
25,300333	0,5	-0,623400
25,308667	0,5	-0,616450
25,317000	0,5	-0,615300
25,325333	0,5	-0,606300
25,333667	0,5	-0,604200
25,342000	0,5	-0,604550
25,350333	0,5	-0,600000
25,358667	0,5	-0,602150
25,367000	0,5	-0,594550
25,375333	0,5	-0,597200
25,383667	0,5	-0,593350
25,392000	0,5	-0,594650
25,400333	0,5	-0,600400
25,408667	0,5	-0,598450
25,417000	0,5	-0,602800
25,425333	0,5	-0,596500
25,433667	0,5	-0,594100
25,442000	0,5	-0,592800
25,450333	0,5	-0,588350
25,458667	0,5	-0,592000
25,467000	0,5	-0,587650
25,475333	0,5	-0,582600
25,483667	0,5	-0,579700
25,492000	0,5	-0,578700
25,500333	0,5	-0,571000
25,508667	0,5	-0,572350
25,517000	0,5	-0,571750
25,525333	0,5	-0,571450
25,533667	0,5	-0,567300
25,542000	0,5	-0,570200
25,550333	0,5	-0,569800
25,558667	0,5	-0,567600
25,567000	0,5	-0,568600
25,575333	0,5	-0,568450
25,583667	0,5	-0,570400
25,592000	0,5	-0,565000
25,600333	0,5	-0,565700
25,608667	0,5	-0,568100
25,617000	0,5	-0,572700
25,625333	0,5	-0,567450
25,633667	0,5	-0,567400
25,642000	0,5	-0,554100
25,650333	0,5	-0,556500
25,658667	0,5	-0,559100
25,667000	0,5	-0,558850
25,675333	0,5	-0,553200
25,683667	0,5	-0,553050
25,692000	0,5	-0,554300
25,700333	0,5	-0,552300
25,708667	0,5	-0,545100
25,717000	0,5	-0,547900
25,725333	0,5	-0,552650
25,733667	0,5	-0,542150
25,742000	0,5	-0,536700
25,750333	0,5	-0,541700
25,758667	0,5	-0,547700
25,767000	0,5	-0,542850
25,775333	0,5	-0,540800
25,783667	0,5	-0,522400
25,792000	0,5	-0,529000
25,800333	0,5	-0,532450
25,808667	0,5	-0,533400
25,817000	0,5	-0,532400
25,825333	0,5	-0,526650
25,833667	0,5	-0,520050
25,842000	0,5	-0,525950
25,850333	0,5	-0,526150
25,858667	0,5	-0,520550
25,867000	0,5	-0,516000
25,875333	0,5	-0,501600
25,883667	0,5	-0,507200
25,892000	0,5	-0,491700
25,900333	0,5	-0,498300
25,908667	0,5	-0,496250
25,917000	0,5	-0,498350
25,925333	0,5	-0,486150
25,933667	0,5	-0,472750
25,942000	0,5	-0,476400
25,950333	0,5	-0,474050
25,958667	0,5	-0,468700
25,967000	0,5	-0,468800
25,975333	0,5	-0,461450
25,983667	0,5	-0,458550
25,992000	0,5	-0,452450
26,000333	0,5	-0,450250
