File Path	chrom://chromeleon01/ikbm_chromeleon/2022/ICS-5000/ED1/Esteban/20220427_Cell_Amandas_mutants.seq/803.smp/ED_1.channel/ED_1.chm
Channel	ED_1

Injection Information:
Data Vault	ikbm_chromeleon
Injection	T24h_Avi_3b
Injection Number	53
Position	GA5
Comment	
Processing Method	Stop sequence after Cell Death
Instrument Method	ICS5000_PA200_FullNative_Ox_26min_ED1
Type	Unknown
Status	Finished
Injection Date	28.04.2022
Injection Time	13:47:21
Injection Volume (µl)	5,0
Dilution Factor	1,0000
Weight	1,0000

Chromatogram Data Information:
Time Min. (min)	0,000167
Time Max. (min)	26,000167
Data Points	3121
Detector	EDet1
Generating Data System	Chromeleon 7.2.9.11323
Exporting Data System	Chromeleon 7.2.9.0
Operator	Instrument Controller
Signal Quantity	
Signal Unit	nC
Signal Min.	-8,285800
Signal Max.	37,023951
Channel	ED_1
Driver Name	DC-5000
Channel Type	Evaluation
Min. Step (s)	0,5
Max. Step (s)	0,5
Average Step (s)	0,5

Signal Parameter Information:
Signal Info	

Chromatogram Data:
Time (min)	Step (s)	Value (nC)
0,000167	n.a.	-0,006300
0,008500	0,5	-0,082900
0,016833	0,5	-0,090700
0,025167	0,5	-0,084150
0,033500	0,5	-0,077400
0,041833	0,5	-0,022750
0,050167	0,5	-0,038700
0,058500	0,5	-0,050000
0,066833	0,5	-0,046450
0,075167	0,5	-0,031800
0,083500	0,5	0,023000
0,091833	0,5	0,013200
0,100167	0,5	0,005250
0,108500	0,5	0,008650
0,116833	0,5	0,026450
0,125167	0,5	0,002800
0,133500	0,5	0,014250
0,141833	0,5	0,012100
0,150167	0,5	0,012000
0,158500	0,5	0,005300
0,166833	0,5	0,006650
0,175167	0,5	-0,001150
0,183500	0,5	-0,017400
0,191833	0,5	0,023850
0,200167	0,5	-0,006250
0,208500	0,5	0,001000
0,216833	0,5	-0,008550
0,225167	0,5	0,012350
0,233500	0,5	0,053150
0,241833	0,5	0,050200
0,250167	0,5	0,023000
0,258500	0,5	0,025300
0,266833	0,5	0,015550
0,275167	0,5	0,018800
0,283500	0,5	0,009600
0,291833	0,5	0,014700
0,300167	0,5	0,005600
0,308500	0,5	0,075050
0,316833	0,5	0,090650
0,325167	0,5	0,021950
0,333500	0,5	-0,020150
0,341833	0,5	-0,004600
0,350167	0,5	-0,026550
0,358500	0,5	-0,024250
0,366833	0,5	-0,023650
0,375167	0,5	0,001150
0,383500	0,5	0,044200
0,391833	0,5	0,022950
0,400167	0,5	0,022550
0,408500	0,5	0,027500
0,416833	0,5	0,024600
0,425167	0,5	0,015800
0,433500	0,5	0,024400
0,441833	0,5	0,013900
0,450167	0,5	0,009600
0,458500	0,5	0,008200
0,466833	0,5	-0,000700
0,475167	0,5	-0,024600
0,483500	0,5	-0,013700
0,491833	0,5	-0,008750
0,500167	0,5	-0,023750
0,508500	0,5	-0,009100
0,516833	0,5	0,011600
0,525167	0,5	0,031500
0,533500	0,5	0,056050
0,541833	0,5	0,047400
0,550167	0,5	0,043950
0,558500	0,5	0,042250
0,566833	0,5	0,036850
0,575167	0,5	0,036850
0,583500	0,5	0,026150
0,591833	0,5	0,025050
0,600167	0,5	0,025350
0,608500	0,5	0,043450
0,616833	0,5	0,019550
0,625167	0,5	0,017400
0,633500	0,5	0,038000
0,641833	0,5	0,027800
0,650167	0,5	0,010950
0,658500	0,5	0,016200
0,666833	0,5	0,029300
0,675167	0,5	0,074900
0,683500	0,5	0,085000
0,691833	0,5	0,085500
0,700167	0,5	0,073000
0,708500	0,5	0,092150
0,716833	0,5	0,079500
0,725167	0,5	0,079850
0,733500	0,5	0,081550
0,741833	0,5	0,073450
0,750167	0,5	0,080200
0,758500	0,5	0,075350
0,766833	0,5	0,063400
0,775167	0,5	0,061050
0,783500	0,5	0,087800
0,791833	0,5	0,071550
0,800167	0,5	0,063900
0,808500	0,5	0,084150
0,816833	0,5	0,122800
0,825167	0,5	0,136100
0,833500	0,5	0,142500
0,841833	0,5	0,118750
0,850167	0,5	0,132050
0,858500	0,5	0,123000
0,866833	0,5	0,126600
0,875167	0,5	0,127100
0,883500	0,5	0,127850
0,891833	0,5	0,121850
0,900167	0,5	0,122450
0,908500	0,5	0,140850
0,916833	0,5	0,126550
0,925167	0,5	0,156250
0,933500	0,5	0,155100
0,941833	0,5	0,141500
0,950167	0,5	0,128400
0,958500	0,5	0,145200
0,966833	0,5	0,173750
0,975167	0,5	0,196400
0,983500	0,5	0,171500
0,991833	0,5	0,187350
1,000167	0,5	0,183950
1,008500	0,5	0,202800
1,016833	0,5	0,194650
1,025167	0,5	0,204700
1,033500	0,5	0,196050
1,041833	0,5	0,202300
1,050167	0,5	0,212050
1,058500	0,5	0,203600
1,066833	0,5	0,186050
1,075167	0,5	0,238750
1,083500	0,5	0,213100
1,091833	0,5	0,218150
1,100167	0,5	0,219900
1,108500	0,5	0,244000
1,116833	0,5	0,300500
1,125167	0,5	0,289150
1,133500	0,5	0,285850
1,141833	0,5	0,279550
1,150167	0,5	0,293200
1,158500	0,5	0,285950
1,166833	0,5	0,303400
1,175167	0,5	0,299450
1,183500	0,5	0,306200
1,191833	0,5	0,309850
1,200167	0,5	0,318950
1,208500	0,5	0,333900
1,216833	0,5	0,332300
1,225167	0,5	0,368850
1,233500	0,5	0,352950
1,241833	0,5	0,354950
1,250167	0,5	0,359500
1,258500	0,5	0,376300
1,266833	0,5	0,422400
1,275167	0,5	0,423100
1,283500	0,5	0,418200
1,291833	0,5	0,431300
1,300167	0,5	0,436250
1,308500	0,5	0,453050
1,316833	0,5	0,461250
1,325167	0,5	0,468750
1,333500	0,5	0,467600
1,341833	0,5	0,484850
1,350167	0,5	0,494300
1,358500	0,5	0,498450
1,366833	0,5	0,496050
1,375167	0,5	0,528250
1,383500	0,5	0,504750
1,391833	0,5	0,524350
1,400167	0,5	0,535750
1,408500	0,5	0,584750
1,416833	0,5	0,621850
1,425167	0,5	0,610050
1,433500	0,5	0,610350
1,441833	0,5	0,621400
1,450167	0,5	0,621000
1,458500	0,5	0,627350
1,466833	0,5	0,636500
1,475167	0,5	0,645700
1,483500	0,5	0,652000
1,491833	0,5	0,657300
1,500167	0,5	0,656500
1,508500	0,5	0,645450
1,516833	0,5	0,673200
1,525167	0,5	0,673000
1,533500	0,5	0,662500
1,541833	0,5	0,669700
1,550167	0,5	0,688250
1,558500	0,5	0,710050
1,566833	0,5	0,735050
1,575167	0,5	0,648300
1,583500	0,5	0,343750
1,591833	0,5	-0,543700
1,600167	0,5	-1,623400
1,608500	0,5	-1,498750
1,616833	0,5	0,389350
1,625167	0,5	2,643500
1,633500	0,5	4,683850
1,641833	0,5	6,863700
1,650167	0,5	8,809750
1,658500	0,5	9,765350
1,666833	0,5	9,605600
1,675167	0,5	8,862800
1,683500	0,5	8,020000
1,691833	0,5	7,246750
1,700167	0,5	6,576400
1,708500	0,5	6,023950
1,716833	0,5	5,519400
1,725167	0,5	5,095800
1,733500	0,5	4,731000
1,741833	0,5	4,392400
1,750167	0,5	4,013900
1,758500	0,5	3,677700
1,766833	0,5	3,418900
1,775167	0,5	3,336700
1,783500	0,5	3,595950
1,791833	0,5	4,632000
1,800167	0,5	6,839600
1,808500	0,5	9,757400
1,816833	0,5	12,085400
1,825167	0,5	13,105850
1,833500	0,5	12,690850
1,841833	0,5	11,142050
1,850167	0,5	9,356450
1,858500	0,5	7,885450
1,866833	0,5	6,804300
1,875167	0,5	6,027750
1,883500	0,5	5,487900
1,891833	0,5	5,059200
1,900167	0,5	4,722800
1,908500	0,5	4,442600
1,916833	0,5	4,189300
1,925167	0,5	3,959750
1,933500	0,5	3,785800
1,941833	0,5	3,687500
1,950167	0,5	3,659850
1,958500	0,5	3,700500
1,966833	0,5	3,679400
1,975167	0,5	3,602700
1,983500	0,5	3,548900
1,991833	0,5	3,553000
2,000167	0,5	3,624350
2,008500	0,5	3,723600
2,016833	0,5	3,819450
2,025167	0,5	3,980050
2,033500	0,5	4,259100
2,041833	0,5	4,802650
2,050167	0,5	5,568350
2,058500	0,5	6,481100
2,066833	0,5	7,549550
2,075167	0,5	8,661800
2,083500	0,5	9,340600
2,091833	0,5	9,405850
2,100167	0,5	9,127400
2,108500	0,5	8,891250
2,116833	0,5	8,668700
2,125167	0,5	8,607400
2,133500	0,5	8,719850
2,141833	0,5	9,103200
2,150167	0,5	9,990450
2,158500	0,5	11,588350
2,166833	0,5	13,480600
2,175167	0,5	14,321850
2,183500	0,5	13,555800
2,191833	0,5	12,018900
2,200167	0,5	10,684200
2,208500	0,5	9,754900
2,216833	0,5	9,112750
2,225167	0,5	8,638500
2,233500	0,5	8,332200
2,241833	0,5	8,102950
2,250167	0,5	7,979000
2,258500	0,5	7,952200
2,266833	0,5	7,930800
2,275167	0,5	7,961200
2,283500	0,5	8,041700
2,291833	0,5	8,126600
2,300167	0,5	8,221350
2,308500	0,5	8,270000
2,316833	0,5	8,320050
2,325167	0,5	8,386700
2,333500	0,5	8,459600
2,341833	0,5	8,532450
2,350167	0,5	8,606200
2,358500	0,5	8,675700
2,366833	0,5	8,743600
2,375167	0,5	8,835000
2,383500	0,5	8,929650
2,391833	0,5	9,031650
2,400167	0,5	9,141250
2,408500	0,5	9,277500
2,416833	0,5	9,374650
2,425167	0,5	9,515300
2,433500	0,5	9,674200
2,441833	0,5	9,860200
2,450167	0,5	10,034850
2,458500	0,5	10,166100
2,466833	0,5	10,246550
2,475167	0,5	10,232150
2,483500	0,5	10,157150
2,491833	0,5	10,134700
2,500167	0,5	10,162750
2,508500	0,5	10,207400
2,516833	0,5	10,250250
2,525167	0,5	10,281050
2,533500	0,5	10,314450
2,541833	0,5	10,333550
2,550167	0,5	10,376600
2,558500	0,5	10,410300
2,566833	0,5	10,471600
2,575167	0,5	10,586700
2,583500	0,5	10,804750
2,591833	0,5	11,153100
2,600167	0,5	11,714850
2,608500	0,5	12,647350
2,616833	0,5	14,307450
2,625167	0,5	16,940550
2,633500	0,5	20,480600
2,641833	0,5	24,242300
2,650167	0,5	27,249750
2,658500	0,5	28,781000
2,666833	0,5	28,688000
2,675167	0,5	27,284400
2,683500	0,5	25,125900
2,691833	0,5	22,802450
2,700167	0,5	20,697250
2,708500	0,5	19,005900
2,716833	0,5	17,812600
2,725167	0,5	17,187200
2,733500	0,5	17,252150
2,741833	0,5	18,162500
2,750167	0,5	19,995150
2,758500	0,5	22,763950
2,766833	0,5	26,307900
2,775167	0,5	30,326850
2,783500	0,5	34,114551
2,791833	0,5	36,642001
2,800167	0,5	37,023951
2,808500	0,5	35,197401
2,816833	0,5	31,855150
2,825167	0,5	28,002900
2,833500	0,5	24,440150
2,841833	0,5	21,667850
2,850167	0,5	19,851200
2,858500	0,5	19,212450
2,866833	0,5	20,038100
2,875167	0,5	22,364300
2,883500	0,5	25,594550
2,891833	0,5	28,309550
2,900167	0,5	29,206950
2,908500	0,5	27,910200
2,916833	0,5	25,063350
2,925167	0,5	21,646500
2,933500	0,5	18,446300
2,941833	0,5	15,778650
2,950167	0,5	13,681650
2,958500	0,5	12,062450
2,966833	0,5	10,826850
2,975167	0,5	9,858250
2,983500	0,5	9,084250
2,991833	0,5	8,482100
3,000167	0,5	7,952600
3,008500	0,5	7,503800
3,016833	0,5	7,115450
3,025167	0,5	6,778550
3,033500	0,5	6,506600
3,041833	0,5	6,244200
3,050167	0,5	5,992200
3,058500	0,5	5,777500
3,066833	0,5	5,584650
3,075167	0,5	5,407800
3,083500	0,5	5,256700
3,091833	0,5	5,122950
3,100167	0,5	4,983100
3,108500	0,5	4,861300
3,116833	0,5	4,721650
3,125167	0,5	4,557950
3,133500	0,5	4,387600
3,141833	0,5	4,259000
3,150167	0,5	4,084650
3,158500	0,5	3,954850
3,166833	0,5	3,865450
3,175167	0,5	3,822400
3,183500	0,5	3,833000
3,191833	0,5	3,846350
3,200167	0,5	3,907350
3,208500	0,5	4,073200
3,216833	0,5	4,391400
3,225167	0,5	4,986400
3,233500	0,5	5,979300
3,241833	0,5	7,383900
3,250167	0,5	9,037700
3,258500	0,5	10,556650
3,266833	0,5	11,533550
3,275167	0,5	11,664750
3,283500	0,5	11,014000
3,291833	0,5	9,807950
3,300167	0,5	8,329050
3,308500	0,5	6,921400
3,316833	0,5	5,753950
3,325167	0,5	4,848200
3,333500	0,5	4,185250
3,341833	0,5	3,656550
3,350167	0,5	3,266750
3,358500	0,5	2,952700
3,366833	0,5	2,707650
3,375167	0,5	2,495150
3,383500	0,5	2,324550
3,391833	0,5	2,175150
3,400167	0,5	2,042750
3,408500	0,5	1,950200
3,416833	0,5	1,857700
3,425167	0,5	1,769300
3,433500	0,5	1,710650
3,441833	0,5	1,653950
3,450167	0,5	1,586350
3,458500	0,5	1,528150
3,466833	0,5	1,479950
3,475167	0,5	1,452750
3,483500	0,5	1,402450
3,491833	0,5	1,341700
3,500167	0,5	1,275700
3,508500	0,5	1,231250
3,516833	0,5	1,180100
3,525167	0,5	1,135050
3,533500	0,5	1,094400
3,541833	0,5	1,049500
3,550167	0,5	1,015850
3,558500	0,5	0,980600
3,566833	0,5	0,960200
3,575167	0,5	0,917000
3,583500	0,5	0,902900
3,591833	0,5	0,861400
3,600167	0,5	0,829600
3,608500	0,5	0,797350
3,616833	0,5	0,799250
3,625167	0,5	0,789200
3,633500	0,5	0,781450
3,641833	0,5	0,740250
3,650167	0,5	0,722350
3,658500	0,5	0,696350
3,666833	0,5	0,686150
3,675167	0,5	0,659750
3,683500	0,5	0,644650
3,691833	0,5	0,621900
3,700167	0,5	0,603950
3,708500	0,5	0,594100
3,716833	0,5	0,575150
3,725167	0,5	0,554500
3,733500	0,5	0,549850
3,741833	0,5	0,519300
3,750167	0,5	0,498700
3,758500	0,5	0,488850
3,766833	0,5	0,498600
3,775167	0,5	0,516700
3,783500	0,5	0,509200
3,791833	0,5	0,506250
3,800167	0,5	0,494800
3,808500	0,5	0,486150
3,816833	0,5	0,479150
3,825167	0,5	0,474950
3,833500	0,5	0,458450
3,841833	0,5	0,445150
3,850167	0,5	0,436600
3,858500	0,5	0,422200
3,866833	0,5	0,392050
3,875167	0,5	0,394900
3,883500	0,5	0,379800
3,891833	0,5	0,354050
3,900167	0,5	0,352250
3,908500	0,5	0,343400
3,916833	0,5	0,374750
3,925167	0,5	0,374800
3,933500	0,5	0,367100
3,941833	0,5	0,353800
3,950167	0,5	0,346300
3,958500	0,5	0,334900
3,966833	0,5	0,330600
3,975167	0,5	0,322800
3,983500	0,5	0,317850
3,991833	0,5	0,306050
4,000167	0,5	0,304300
4,008500	0,5	0,292800
4,016833	0,5	0,290200
4,025167	0,5	0,304700
4,033500	0,5	0,295900
4,041833	0,5	0,278950
4,050167	0,5	0,281300
4,058500	0,5	0,287300
4,066833	0,5	0,310400
4,075167	0,5	0,310800
4,083500	0,5	0,302300
4,091833	0,5	0,294650
4,100167	0,5	0,290150
4,108500	0,5	0,281950
4,116833	0,5	0,274350
4,125167	0,5	0,277500
4,133500	0,5	0,262750
4,141833	0,5	0,266050
4,150167	0,5	0,257950
4,158500	0,5	0,261700
4,166833	0,5	0,247250
4,175167	0,5	0,271750
4,183500	0,5	0,253350
4,191833	0,5	0,246300
4,200167	0,5	0,239200
4,208500	0,5	0,252400
4,216833	0,5	0,269500
4,225167	0,5	0,269400
4,233500	0,5	0,249750
4,241833	0,5	0,251750
4,250167	0,5	0,244150
4,258500	0,5	0,243500
4,266833	0,5	0,243800
4,275167	0,5	0,245950
4,283500	0,5	0,245000
4,291833	0,5	0,246900
4,300167	0,5	0,261800
4,308500	0,5	0,254350
4,316833	0,5	0,277500
4,325167	0,5	0,314950
4,333500	0,5	0,322250
4,341833	0,5	0,343400
4,350167	0,5	0,385450
4,358500	0,5	0,436900
4,366833	0,5	0,492050
4,375167	0,5	0,515000
4,383500	0,5	0,558950
4,391833	0,5	0,598450
4,400167	0,5	0,653700
4,408500	0,5	0,705150
4,416833	0,5	0,777950
4,425167	0,5	0,856400
4,433500	0,5	0,940650
4,441833	0,5	1,030150
4,450167	0,5	1,113250
4,458500	0,5	1,168200
4,466833	0,5	1,222350
4,475167	0,5	1,217650
4,483500	0,5	1,181700
4,491833	0,5	1,129950
4,500167	0,5	1,064950
4,508500	0,5	1,007150
4,516833	0,5	0,918200
4,525167	0,5	0,836400
4,533500	0,5	0,752400
4,541833	0,5	0,685550
4,550167	0,5	0,618800
4,558500	0,5	0,568150
4,566833	0,5	0,523200
4,575167	0,5	0,489200
4,583500	0,5	0,456900
4,591833	0,5	0,438300
4,600167	0,5	0,424800
4,608500	0,5	0,403100
4,616833	0,5	0,401700
4,625167	0,5	0,382200
4,633500	0,5	0,372550
4,641833	0,5	0,362600
4,650167	0,5	0,368000
4,658500	0,5	0,389500
4,666833	0,5	0,388300
4,675167	0,5	0,373800
4,683500	0,5	0,375150
4,691833	0,5	0,370600
4,700167	0,5	0,375300
4,708500	0,5	0,373300
4,716833	0,5	0,379700
4,725167	0,5	0,381700
4,733500	0,5	0,393200
4,741833	0,5	0,403200
4,750167	0,5	0,403850
4,758500	0,5	0,407050
4,766833	0,5	0,419500
4,775167	0,5	0,403900
4,783500	0,5	0,406200
4,791833	0,5	0,408750
4,800167	0,5	0,427050
4,808500	0,5	0,451300
4,816833	0,5	0,439100
4,825167	0,5	0,439250
4,833500	0,5	0,438600
4,841833	0,5	0,432000
4,850167	0,5	0,421250
4,858500	0,5	0,419650
4,866833	0,5	0,414200
4,875167	0,5	0,418900
4,883500	0,5	0,413950
4,891833	0,5	0,414800
4,900167	0,5	0,405750
4,908500	0,5	0,424500
4,916833	0,5	0,421200
4,925167	0,5	0,412450
4,933500	0,5	0,418600
4,941833	0,5	0,432650
4,950167	0,5	0,457050
4,958500	0,5	0,473950
4,966833	0,5	0,477950
4,975167	0,5	0,475000
4,983500	0,5	0,478350
4,991833	0,5	0,476200
5,000167	0,5	0,479650
5,008500	0,5	0,485400
5,016833	0,5	0,484500
5,025167	0,5	0,483350
5,033500	0,5	0,495700
5,041833	0,5	0,493150
5,050167	0,5	0,494400
5,058500	0,5	0,512900
5,066833	0,5	0,513350
5,075167	0,5	0,506300
5,083500	0,5	0,518200
5,091833	0,5	0,521500
5,100167	0,5	0,556400
5,108500	0,5	0,560450
5,116833	0,5	0,563050
5,125167	0,5	0,566150
5,133500	0,5	0,576350
5,141833	0,5	0,576600
5,150167	0,5	0,585100
5,158500	0,5	0,588700
5,166833	0,5	0,587950
5,175167	0,5	0,596850
5,183500	0,5	0,609750
5,191833	0,5	0,625350
5,200167	0,5	0,643950
5,208500	0,5	0,669250
5,216833	0,5	0,671300
5,225167	0,5	0,686950
5,233500	0,5	0,709050
5,241833	0,5	0,753200
5,250167	0,5	0,779050
5,258500	0,5	0,787650
5,266833	0,5	0,792800
5,275167	0,5	0,800400
5,283500	0,5	0,791950
5,291833	0,5	0,794750
5,300167	0,5	0,785400
5,308500	0,5	0,779700
5,316833	0,5	0,770200
5,325167	0,5	0,765950
5,333500	0,5	0,762050
5,341833	0,5	0,751000
5,350167	0,5	0,765400
5,358500	0,5	0,757750
5,366833	0,5	0,748950
5,375167	0,5	0,741700
5,383500	0,5	0,752800
5,391833	0,5	0,778300
5,400167	0,5	0,785900
5,408500	0,5	0,773050
5,416833	0,5	0,783450
5,425167	0,5	0,781500
5,433500	0,5	0,785450
5,441833	0,5	0,793200
5,450167	0,5	0,800550
5,458500	0,5	0,804050
5,466833	0,5	0,808200
5,475167	0,5	0,815750
5,483500	0,5	0,826300
5,491833	0,5	0,816000
5,500167	0,5	0,849950
5,508500	0,5	0,842400
5,516833	0,5	0,842650
5,525167	0,5	0,847150
5,533500	0,5	0,862900
5,541833	0,5	0,901100
5,550167	0,5	0,901750
5,558500	0,5	0,902800
5,566833	0,5	0,905150
5,575167	0,5	0,911000
5,583500	0,5	0,912650
5,591833	0,5	0,919650
5,600167	0,5	0,919250
5,608500	0,5	0,923100
5,616833	0,5	0,927050
5,625167	0,5	0,935950
5,633500	0,5	0,940050
5,641833	0,5	0,943550
5,650167	0,5	0,964900
5,658500	0,5	0,954150
5,666833	0,5	0,958700
5,675167	0,5	0,968400
5,683500	0,5	0,988100
5,691833	0,5	1,016900
5,700167	0,5	1,018200
5,708500	0,5	1,020950
5,716833	0,5	1,022150
5,725167	0,5	1,025900
5,733500	0,5	1,029150
5,741833	0,5	1,032950
5,750167	0,5	1,045800
5,758500	0,5	1,042700
5,766833	0,5	1,055300
5,775167	0,5	1,061800
5,783500	0,5	1,079900
5,791833	0,5	1,084900
5,800167	0,5	1,096850
5,808500	0,5	1,086950
5,816833	0,5	1,099700
5,825167	0,5	1,104000
5,833500	0,5	1,131750
5,841833	0,5	1,159300
5,850167	0,5	1,165550
5,858500	0,5	1,174300
5,866833	0,5	1,184250
5,875167	0,5	1,186800
5,883500	0,5	1,189100
5,891833	0,5	1,196600
5,900167	0,5	1,194250
5,908500	0,5	1,206200
5,916833	0,5	1,207700
5,925167	0,5	1,215100
5,933500	0,5	1,214300
5,941833	0,5	1,230850
5,950167	0,5	1,234400
5,958500	0,5	1,227800
5,966833	0,5	1,235000
5,975167	0,5	1,250850
5,983500	0,5	1,278550
5,991833	0,5	1,295800
6,000167	0,5	1,294100
6,008500	0,5	1,303850
6,016833	0,5	1,307850
6,025167	0,5	1,310600
6,033500	0,5	1,311300
6,041833	0,5	1,324800
6,050167	0,5	1,324900
6,058500	0,5	1,331500
6,066833	0,5	1,340650
6,075167	0,5	1,333250
6,083500	0,5	1,333950
6,091833	0,5	1,347250
6,100167	0,5	1,348950
6,108500	0,5	1,347600
6,116833	0,5	1,357200
6,125167	0,5	1,377100
6,133500	0,5	1,398150
6,141833	0,5	1,399250
6,150167	0,5	1,413050
6,158500	0,5	1,422550
6,166833	0,5	1,431700
6,175167	0,5	1,428800
6,183500	0,5	1,435900
6,191833	0,5	1,436300
6,200167	0,5	1,439100
6,208500	0,5	1,448700
6,216833	0,5	1,451050
6,225167	0,5	1,452350
6,233500	0,5	1,470350
6,241833	0,5	1,476400
6,250167	0,5	1,481500
6,258500	0,5	1,485000
6,266833	0,5	1,488200
6,275167	0,5	1,517300
6,283500	0,5	1,531800
6,291833	0,5	1,539450
6,300167	0,5	1,538650
6,308500	0,5	1,549900
6,316833	0,5	1,552200
6,325167	0,5	1,562250
6,333500	0,5	1,567650
6,341833	0,5	1,580450
6,350167	0,5	1,593900
6,358500	0,5	1,612450
6,366833	0,5	1,636250
6,375167	0,5	1,649500
6,383500	0,5	1,690750
6,391833	0,5	1,711900
6,400167	0,5	1,731250
6,408500	0,5	1,752850
6,416833	0,5	1,781200
6,425167	0,5	1,817600
6,433500	0,5	1,839350
6,441833	0,5	1,828100
6,450167	0,5	1,831750
6,458500	0,5	1,831050
6,466833	0,5	1,815750
6,475167	0,5	1,798500
6,483500	0,5	1,792600
6,491833	0,5	1,775050
6,500167	0,5	1,763350
6,508500	0,5	1,758200
6,516833	0,5	1,759500
6,525167	0,5	1,747550
6,533500	0,5	1,768100
6,541833	0,5	1,754400
6,550167	0,5	1,758050
6,558500	0,5	1,761000
6,566833	0,5	1,779100
6,575167	0,5	1,811500
6,583500	0,5	1,809850
6,591833	0,5	1,813450
6,600167	0,5	1,816100
6,608500	0,5	1,834800
6,616833	0,5	1,836250
6,625167	0,5	1,841550
6,633500	0,5	1,849500
6,641833	0,5	1,855850
6,650167	0,5	1,857200
6,658500	0,5	1,864450
6,666833	0,5	1,861650
6,675167	0,5	1,870550
6,683500	0,5	1,880100
6,691833	0,5	1,879000
6,700167	0,5	1,884250
6,708500	0,5	1,891200
6,716833	0,5	1,914750
6,725167	0,5	1,943000
6,733500	0,5	1,945000
6,741833	0,5	1,949400
6,750167	0,5	1,954850
6,758500	0,5	1,960150
6,766833	0,5	1,967850
6,775167	0,5	1,972000
6,783500	0,5	1,971500
6,791833	0,5	1,967650
6,800167	0,5	1,975850
6,808500	0,5	1,974400
6,816833	0,5	1,977350
6,825167	0,5	1,977950
6,833500	0,5	1,987050
6,841833	0,5	1,977050
6,850167	0,5	1,980000
6,858500	0,5	1,985000
6,866833	0,5	2,001550
6,875167	0,5	2,020100
6,883500	0,5	2,022650
6,891833	0,5	2,013150
6,900167	0,5	2,021250
6,908500	0,5	2,018500
6,916833	0,5	2,021850
6,925167	0,5	2,023400
6,933500	0,5	2,022700
6,941833	0,5	2,023750
6,950167	0,5	2,022950
6,958500	0,5	2,018650
6,966833	0,5	2,021800
6,975167	0,5	2,031800
6,983500	0,5	2,028050
6,991833	0,5	2,022700
7,000167	0,5	2,018000
7,008500	0,5	2,030300
7,016833	0,5	2,048150
7,025167	0,5	2,063200
7,033500	0,5	2,066600
7,041833	0,5	2,070950
7,050167	0,5	2,077250
7,058500	0,5	2,086100
7,066833	0,5	2,093500
7,075167	0,5	2,104200
7,083500	0,5	2,110250
7,091833	0,5	2,127500
7,100167	0,5	2,159500
7,108500	0,5	2,183750
7,116833	0,5	2,240100
7,125167	0,5	2,331800
7,133500	0,5	2,447400
7,141833	0,5	2,604900
7,150167	0,5	2,784100
7,158500	0,5	2,962400
7,166833	0,5	3,099350
7,175167	0,5	3,138000
7,183500	0,5	3,102500
7,191833	0,5	2,987250
7,200167	0,5	2,843300
7,208500	0,5	2,683500
7,216833	0,5	2,546000
7,225167	0,5	2,434650
7,233500	0,5	2,344550
7,241833	0,5	2,286650
7,250167	0,5	2,236800
7,258500	0,5	2,201000
7,266833	0,5	2,186050
7,275167	0,5	2,164750
7,283500	0,5	2,141350
7,291833	0,5	2,130400
7,300167	0,5	2,122650
7,308500	0,5	2,132600
7,316833	0,5	2,138850
7,325167	0,5	2,144900
7,333500	0,5	2,140000
7,341833	0,5	2,140300
7,350167	0,5	2,133400
7,358500	0,5	2,120700
7,366833	0,5	2,108300
7,375167	0,5	2,099650
7,383500	0,5	2,083900
7,391833	0,5	2,080350
7,400167	0,5	2,076200
7,408500	0,5	2,069950
7,416833	0,5	2,079150
7,425167	0,5	2,075400
7,433500	0,5	2,085750
7,441833	0,5	2,105800
7,450167	0,5	2,144250
7,458500	0,5	2,214600
7,466833	0,5	2,284400
7,475167	0,5	2,344300
7,483500	0,5	2,393450
7,491833	0,5	2,413900
7,500167	0,5	2,408850
7,508500	0,5	2,403450
7,516833	0,5	2,420150
7,525167	0,5	2,469050
7,533500	0,5	2,560000
7,541833	0,5	2,683250
7,550167	0,5	2,814150
7,558500	0,5	2,921900
7,566833	0,5	3,026900
7,575167	0,5	3,066400
7,583500	0,5	3,072850
7,591833	0,5	3,038050
7,600167	0,5	2,974800
7,608500	0,5	2,909900
7,616833	0,5	2,825600
7,625167	0,5	2,744400
7,633500	0,5	2,678300
7,641833	0,5	2,613200
7,650167	0,5	2,560350
7,658500	0,5	2,509500
7,666833	0,5	2,458300
7,675167	0,5	2,411250
7,683500	0,5	2,369600
7,691833	0,5	2,328750
7,700167	0,5	2,291400
7,708500	0,5	2,259050
7,716833	0,5	2,234300
7,725167	0,5	2,202950
7,733500	0,5	2,179800
7,741833	0,5	2,171350
7,750167	0,5	2,166800
7,758500	0,5	2,172850
7,766833	0,5	2,167900
7,775167	0,5	2,162900
7,783500	0,5	2,157100
7,791833	0,5	2,151150
7,800167	0,5	2,139350
7,808500	0,5	2,122250
7,816833	0,5	2,110150
7,825167	0,5	2,100300
7,833500	0,5	2,096250
7,841833	0,5	2,092650
7,850167	0,5	2,090950
7,858500	0,5	2,102650
7,866833	0,5	2,105450
7,875167	0,5	2,102550
7,883500	0,5	2,100850
7,891833	0,5	2,093850
7,900167	0,5	2,098550
7,908500	0,5	2,106800
7,916833	0,5	2,119250
7,925167	0,5	2,145300
7,933500	0,5	2,191100
7,941833	0,5	2,247450
7,950167	0,5	2,298750
7,958500	0,5	2,322450
7,966833	0,5	2,300950
7,975167	0,5	2,250850
7,983500	0,5	2,185400
7,991833	0,5	2,132100
8,000167	0,5	2,092250
8,008500	0,5	2,063450
8,016833	0,5	2,041750
8,025167	0,5	2,032500
8,033500	0,5	2,032850
8,041833	0,5	2,045000
8,050167	0,5	2,070300
8,058500	0,5	2,103650
8,066833	0,5	2,143450
8,075167	0,5	2,181050
8,083500	0,5	2,203900
8,091833	0,5	2,217400
8,100167	0,5	2,201900
8,108500	0,5	2,180350
8,116833	0,5	2,159100
8,125167	0,5	2,159350
8,133500	0,5	2,192900
8,141833	0,5	2,279200
8,150167	0,5	2,429900
8,158500	0,5	2,621000
8,166833	0,5	2,794650
8,175167	0,5	2,868400
8,183500	0,5	2,836900
8,191833	0,5	2,729150
8,200167	0,5	2,592850
8,208500	0,5	2,473650
8,216833	0,5	2,379050
8,225167	0,5	2,306400
8,233500	0,5	2,248750
8,241833	0,5	2,204300
8,250167	0,5	2,175350
8,258500	0,5	2,148700
8,266833	0,5	2,130300
8,275167	0,5	2,118750
8,283500	0,5	2,107200
8,291833	0,5	2,095100
8,300167	0,5	2,093700
8,308500	0,5	2,087750
8,316833	0,5	2,082100
8,325167	0,5	2,084550
8,333500	0,5	2,094100
8,341833	0,5	2,124650
8,350167	0,5	2,169750
8,358500	0,5	2,220050
8,366833	0,5	2,263500
8,375167	0,5	2,287700
8,383500	0,5	2,273350
8,391833	0,5	2,224850
8,400167	0,5	2,158200
8,408500	0,5	2,065600
8,416833	0,5	1,974500
8,425167	0,5	1,893450
8,433500	0,5	1,824050
8,441833	0,5	1,767600
8,450167	0,5	1,741150
8,458500	0,5	1,723450
8,466833	0,5	1,706100
8,475167	0,5	1,693950
8,483500	0,5	1,687050
8,491833	0,5	1,681250
8,500167	0,5	1,677750
8,508500	0,5	1,678800
8,516833	0,5	1,675050
8,525167	0,5	1,669900
8,533500	0,5	1,663800
8,541833	0,5	1,664100
8,550167	0,5	1,653900
8,558500	0,5	1,645950
8,566833	0,5	1,642700
8,575167	0,5	1,641150
8,583500	0,5	1,642550
8,591833	0,5	1,639500
8,600167	0,5	1,648350
8,608500	0,5	1,655500
8,616833	0,5	1,656650
8,625167	0,5	1,662500
8,633500	0,5	1,674350
8,641833	0,5	1,681250
8,650167	0,5	1,685450
8,658500	0,5	1,687950
8,666833	0,5	1,690700
8,675167	0,5	1,694800
8,683500	0,5	1,703600
8,691833	0,5	1,717750
8,700167	0,5	1,731050
8,708500	0,5	1,746150
8,716833	0,5	1,764850
8,725167	0,5	1,784150
8,733500	0,5	1,792450
8,741833	0,5	1,802850
8,750167	0,5	1,814450
8,758500	0,5	1,827850
8,766833	0,5	1,844100
8,775167	0,5	1,875400
8,783500	0,5	1,928950
8,791833	0,5	1,984800
8,800167	0,5	2,024300
8,808500	0,5	2,034400
8,816833	0,5	2,013850
8,825167	0,5	1,980150
8,833500	0,5	1,941400
8,841833	0,5	1,908250
8,850167	0,5	1,880500
8,858500	0,5	1,869950
8,866833	0,5	1,856900
8,875167	0,5	1,854650
8,883500	0,5	1,848050
8,891833	0,5	1,844700
8,900167	0,5	1,837650
8,908500	0,5	1,825750
8,916833	0,5	1,813450
8,925167	0,5	1,804250
8,933500	0,5	1,797350
8,941833	0,5	1,794000
8,950167	0,5	1,796200
8,958500	0,5	1,800050
8,966833	0,5	1,811850
8,975167	0,5	1,823400
8,983500	0,5	1,838700
8,991833	0,5	1,856450
9,000167	0,5	1,876200
9,008500	0,5	1,903100
9,016833	0,5	1,943400
9,025167	0,5	1,986200
9,033500	0,5	2,030300
9,041833	0,5	2,081150
9,050167	0,5	2,115500
9,058500	0,5	2,125100
9,066833	0,5	2,100000
9,075167	0,5	2,052450
9,083500	0,5	1,986300
9,091833	0,5	1,913250
9,100167	0,5	1,854650
9,108500	0,5	1,811350
9,116833	0,5	1,788850
9,125167	0,5	1,778750
9,133500	0,5	1,780450
9,141833	0,5	1,799900
9,150167	0,5	1,830250
9,158500	0,5	1,858850
9,166833	0,5	1,872950
9,175167	0,5	1,868300
9,183500	0,5	1,845450
9,191833	0,5	1,814750
9,200167	0,5	1,780250
9,208500	0,5	1,747400
9,216833	0,5	1,733500
9,225167	0,5	1,725200
9,233500	0,5	1,713850
9,241833	0,5	1,705450
9,250167	0,5	1,699950
9,258500	0,5	1,700650
9,266833	0,5	1,699900
9,275167	0,5	1,705400
9,283500	0,5	1,714150
9,291833	0,5	1,725850
9,300167	0,5	1,734900
9,308500	0,5	1,740900
9,316833	0,5	1,756300
9,325167	0,5	1,756250
9,333500	0,5	1,761200
9,341833	0,5	1,759200
9,350167	0,5	1,755000
9,358500	0,5	1,743900
9,366833	0,5	1,738000
9,375167	0,5	1,729250
9,383500	0,5	1,723350
9,391833	0,5	1,708500
9,400167	0,5	1,693650
9,408500	0,5	1,685350
9,416833	0,5	1,672700
9,425167	0,5	1,668100
9,433500	0,5	1,666250
9,441833	0,5	1,668950
9,450167	0,5	1,680500
9,458500	0,5	1,703800
9,466833	0,5	1,728900
9,475167	0,5	1,750750
9,483500	0,5	1,760350
9,491833	0,5	1,751850
9,500167	0,5	1,731550
9,508500	0,5	1,686650
9,516833	0,5	1,647050
9,525167	0,5	1,620900
9,533500	0,5	1,592600
9,541833	0,5	1,565650
9,550167	0,5	1,549450
9,558500	0,5	1,530950
9,566833	0,5	1,511950
9,575167	0,5	1,491950
9,583500	0,5	1,474500
9,591833	0,5	1,457300
9,600167	0,5	1,438050
9,608500	0,5	1,427900
9,616833	0,5	1,417100
9,625167	0,5	1,406650
9,633500	0,5	1,400250
9,641833	0,5	1,391950
9,650167	0,5	1,381100
9,658500	0,5	1,375550
9,666833	0,5	1,368850
9,675167	0,5	1,371150
9,683500	0,5	1,371050
9,691833	0,5	1,372550
9,700167	0,5	1,370150
9,708500	0,5	1,373000
9,716833	0,5	1,378850
9,725167	0,5	1,385750
9,733500	0,5	1,398450
9,741833	0,5	1,409500
9,750167	0,5	1,434600
9,758500	0,5	1,435000
9,766833	0,5	1,496650
9,775167	0,5	1,530650
9,783500	0,5	1,566700
9,791833	0,5	1,614950
9,800167	0,5	1,669250
9,808500	0,5	1,743900
9,816833	0,5	1,827000
9,825167	0,5	1,921600
9,833500	0,5	2,018250
9,841833	0,5	2,120450
9,850167	0,5	2,214200
9,858500	0,5	2,291250
9,866833	0,5	2,339200
9,875167	0,5	2,347600
9,883500	0,5	2,303800
9,891833	0,5	2,217050
9,900167	0,5	2,095700
9,908500	0,5	1,960600
9,916833	0,5	1,824900
9,925167	0,5	1,707600
9,933500	0,5	1,612350
9,941833	0,5	1,549200
9,950167	0,5	1,503300
9,958500	0,5	1,488500
9,966833	0,5	1,482700
9,975167	0,5	1,494600
9,983500	0,5	1,508100
9,991833	0,5	1,522300
10,000167	0,5	1,537100
10,008500	0,5	1,554150
10,016833	0,5	1,562850
10,025167	0,5	1,573750
10,033500	0,5	1,594550
10,041833	0,5	1,610700
10,050167	0,5	1,629600
10,058500	0,5	1,654650
10,066833	0,5	1,665100
10,075167	0,5	1,680850
10,083500	0,5	1,681050
10,091833	0,5	1,673500
10,100167	0,5	1,662150
10,108500	0,5	1,637600
10,116833	0,5	1,615850
10,125167	0,5	1,578300
10,133500	0,5	1,547750
10,141833	0,5	1,504150
10,150167	0,5	1,468100
10,158500	0,5	1,431300
10,166833	0,5	1,402300
10,175167	0,5	1,379200
10,183500	0,5	1,365900
10,191833	0,5	1,349100
10,200167	0,5	1,341850
10,208500	0,5	1,328850
10,216833	0,5	1,323900
10,225167	0,5	1,320300
10,233500	0,5	1,316200
10,241833	0,5	1,316800
10,250167	0,5	1,312950
10,258500	0,5	1,312700
10,266833	0,5	1,318500
10,275167	0,5	1,327600
10,283500	0,5	1,339400
10,291833	0,5	1,359750
10,300167	0,5	1,382250
10,308500	0,5	1,408850
10,316833	0,5	1,437900
10,325167	0,5	1,471650
10,333500	0,5	1,512050
10,341833	0,5	1,559950
10,350167	0,5	1,604650
10,358500	0,5	1,655450
10,366833	0,5	1,701850
10,375167	0,5	1,742850
10,383500	0,5	1,770800
10,391833	0,5	1,770600
10,400167	0,5	1,757450
10,408500	0,5	1,723450
10,416833	0,5	1,678450
10,425167	0,5	1,622250
10,433500	0,5	1,563200
10,441833	0,5	1,520650
10,450167	0,5	1,477400
10,458500	0,5	1,437050
10,466833	0,5	1,412800
10,475167	0,5	1,392750
10,483500	0,5	1,377000
10,491833	0,5	1,357700
10,500167	0,5	1,343800
10,508500	0,5	1,319400
10,516833	0,5	1,309400
10,525167	0,5	1,295700
10,533500	0,5	1,284400
10,541833	0,5	1,275150
10,550167	0,5	1,267750
10,558500	0,5	1,266800
10,566833	0,5	1,269050
10,575167	0,5	1,269450
10,583500	0,5	1,259150
10,591833	0,5	1,261050
10,600167	0,5	1,260800
10,608500	0,5	1,256200
10,616833	0,5	1,260650
10,625167	0,5	1,260600
10,633500	0,5	1,265800
10,641833	0,5	1,279600
10,650167	0,5	1,301350
10,658500	0,5	1,322300
10,666833	0,5	1,356500
10,675167	0,5	1,387850
10,683500	0,5	1,400900
10,691833	0,5	1,403350
10,700167	0,5	1,379350
10,708500	0,5	1,343850
10,716833	0,5	1,294750
10,725167	0,5	1,232150
10,733500	0,5	1,179450
10,741833	0,5	1,137850
10,750167	0,5	1,114500
10,758500	0,5	1,100200
10,766833	0,5	1,103100
10,775167	0,5	1,109250
10,783500	0,5	1,122700
10,791833	0,5	1,140550
10,800167	0,5	1,157700
10,808500	0,5	1,165100
10,816833	0,5	1,193050
10,825167	0,5	1,200400
10,833500	0,5	1,208400
10,841833	0,5	1,217250
10,850167	0,5	1,220800
10,858500	0,5	1,225900
10,866833	0,5	1,226600
10,875167	0,5	1,219850
10,883500	0,5	1,223600
10,891833	0,5	1,220050
10,900167	0,5	1,217300
10,908500	0,5	1,210800
10,916833	0,5	1,213350
10,925167	0,5	1,212550
10,933500	0,5	1,219000
10,941833	0,5	1,232150
10,950167	0,5	1,251050
10,958500	0,5	1,273900
10,966833	0,5	1,299450
10,975167	0,5	1,323400
10,983500	0,5	1,330400
10,991833	0,5	1,329800
11,000167	0,5	1,316550
11,008500	0,5	1,308950
11,016833	0,5	1,286200
11,025167	0,5	1,266300
11,033500	0,5	1,252600
11,041833	0,5	1,241750
11,050167	0,5	1,237000
11,058500	0,5	1,239000
11,066833	0,5	1,233650
11,075167	0,5	1,228600
11,083500	0,5	1,221050
11,091833	0,5	1,206200
11,100167	0,5	1,191900
11,108500	0,5	1,186050
11,116833	0,5	1,182750
11,125167	0,5	1,174100
11,133500	0,5	1,173550
11,141833	0,5	1,168700
11,150167	0,5	1,181750
11,158500	0,5	1,193150
11,166833	0,5	1,207700
11,175167	0,5	1,219150
11,183500	0,5	1,239800
11,191833	0,5	1,259600
11,200167	0,5	1,284150
11,208500	0,5	1,330450
11,216833	0,5	1,388250
11,225167	0,5	1,460650
11,233500	0,5	1,541900
11,241833	0,5	1,614500
11,250167	0,5	1,671700
11,258500	0,5	1,707000
11,266833	0,5	1,709100
11,275167	0,5	1,678300
11,283500	0,5	1,630850
11,291833	0,5	1,573350
11,300167	0,5	1,519500
11,308500	0,5	1,475200
11,316833	0,5	1,442850
11,325167	0,5	1,417950
11,333500	0,5	1,391500
11,341833	0,5	1,374750
11,350167	0,5	1,346400
11,358500	0,5	1,333750
11,366833	0,5	1,312800
11,375167	0,5	1,298250
11,383500	0,5	1,291350
11,391833	0,5	1,284900
11,400167	0,5	1,295750
11,408500	0,5	1,317300
11,416833	0,5	1,343200
11,425167	0,5	1,376050
11,433500	0,5	1,428300
11,441833	0,5	1,508300
11,450167	0,5	1,619600
11,458500	0,5	1,754300
11,466833	0,5	1,901550
11,475167	0,5	2,054450
11,483500	0,5	2,208000
11,491833	0,5	2,338600
11,500167	0,5	2,457850
11,508500	0,5	2,546900
11,516833	0,5	2,596100
11,525167	0,5	2,607800
11,533500	0,5	2,576350
11,541833	0,5	2,484700
11,550167	0,5	2,384850
11,558500	0,5	2,258900
11,566833	0,5	2,127550
11,575167	0,5	2,007000
11,583500	0,5	1,913900
11,591833	0,5	1,864750
11,600167	0,5	1,857000
11,608500	0,5	1,873050
11,616833	0,5	1,928200
11,625167	0,5	1,988300
11,633500	0,5	2,045350
11,641833	0,5	2,088500
11,650167	0,5	2,099100
11,658500	0,5	2,085450
11,666833	0,5	2,033850
11,675167	0,5	1,957850
11,683500	0,5	1,852600
11,691833	0,5	1,732250
11,700167	0,5	1,623050
11,708500	0,5	1,514350
11,716833	0,5	1,415800
11,725167	0,5	1,336300
11,733500	0,5	1,272100
11,741833	0,5	1,232150
11,750167	0,5	1,195750
11,758500	0,5	1,173150
11,766833	0,5	1,161750
11,775167	0,5	1,156600
11,783500	0,5	1,148150
11,791833	0,5	1,147150
11,800167	0,5	1,150600
11,808500	0,5	1,160900
11,816833	0,5	1,169050
11,825167	0,5	1,176050
11,833500	0,5	1,189700
11,841833	0,5	1,194500
11,850167	0,5	1,202750
11,858500	0,5	1,192700
11,866833	0,5	1,180700
11,875167	0,5	1,157150
11,883500	0,5	1,145000
11,891833	0,5	1,136150
11,900167	0,5	1,132800
11,908500	0,5	1,120200
11,916833	0,5	1,114100
11,925167	0,5	1,109500
11,933500	0,5	1,110800
11,941833	0,5	1,112750
11,950167	0,5	1,116050
11,958500	0,5	1,125250
11,966833	0,5	1,139750
11,975167	0,5	1,165700
11,983500	0,5	1,183500
11,991833	0,5	1,208850
12,000167	0,5	1,235100
12,008500	0,5	1,259900
12,016833	0,5	1,266400
12,025167	0,5	1,275400
12,033500	0,5	1,280200
12,041833	0,5	1,289900
12,050167	0,5	1,280600
12,058500	0,5	1,276500
12,066833	0,5	1,273500
12,075167	0,5	1,273450
12,083500	0,5	1,276000
12,091833	0,5	1,279400
12,100167	0,5	1,288650
12,108500	0,5	1,297650
12,116833	0,5	1,314800
12,125167	0,5	1,333200
12,133500	0,5	1,343700
12,141833	0,5	1,372900
12,150167	0,5	1,398500
12,158500	0,5	1,428000
12,166833	0,5	1,472250
12,175167	0,5	1,533900
12,183500	0,5	1,615000
12,191833	0,5	1,699900
12,200167	0,5	1,781950
12,208500	0,5	1,845950
12,216833	0,5	1,900800
12,225167	0,5	1,933000
12,233500	0,5	1,953150
12,241833	0,5	1,958800
12,250167	0,5	1,967700
12,258500	0,5	1,974150
12,266833	0,5	1,990100
12,275167	0,5	1,994200
12,283500	0,5	2,010850
12,291833	0,5	2,024000
12,300167	0,5	2,025150
12,308500	0,5	2,023150
12,316833	0,5	2,014650
12,325167	0,5	2,002500
12,333500	0,5	1,988400
12,341833	0,5	1,962150
12,350167	0,5	1,912850
12,358500	0,5	1,855150
12,366833	0,5	1,790550
12,375167	0,5	1,740400
12,383500	0,5	1,703450
12,391833	0,5	1,681650
12,400167	0,5	1,679150
12,408500	0,5	1,692300
12,416833	0,5	1,702550
12,425167	0,5	1,714650
12,433500	0,5	1,719650
12,441833	0,5	1,720050
12,450167	0,5	1,702500
12,458500	0,5	1,668050
12,466833	0,5	1,621350
12,475167	0,5	1,581650
12,483500	0,5	1,531100
12,491833	0,5	1,477200
12,500167	0,5	1,422400
12,508500	0,5	1,369000
12,516833	0,5	1,315950
12,525167	0,5	1,264000
12,533500	0,5	1,221200
12,541833	0,5	1,177300
12,550167	0,5	1,143900
12,558500	0,5	1,115100
12,566833	0,5	1,090900
12,575167	0,5	1,063050
12,583500	0,5	1,055000
12,591833	0,5	1,043050
12,600167	0,5	1,035700
12,608500	0,5	1,012200
12,616833	0,5	1,002100
12,625167	0,5	1,002650
12,633500	0,5	1,002650
12,641833	0,5	0,986050
12,650167	0,5	0,979250
12,658500	0,5	0,970300
12,666833	0,5	0,959900
12,675167	0,5	0,953450
12,683500	0,5	0,946600
12,691833	0,5	0,942250
12,700167	0,5	0,929900
12,708500	0,5	0,931150
12,716833	0,5	0,920550
12,725167	0,5	0,919550
12,733500	0,5	0,915700
12,741833	0,5	0,909650
12,750167	0,5	0,904800
12,758500	0,5	0,891850
12,766833	0,5	0,895350
12,775167	0,5	0,904850
12,783500	0,5	0,930800
12,791833	0,5	0,962700
12,800167	0,5	1,010750
12,808500	0,5	1,065250
12,816833	0,5	1,116650
12,825167	0,5	1,154350
12,833500	0,5	1,167050
12,841833	0,5	1,146000
12,850167	0,5	1,117800
12,858500	0,5	1,082300
12,866833	0,5	1,020950
12,875167	0,5	0,961950
12,883500	0,5	0,888900
12,891833	0,5	0,811250
12,900167	0,5	0,739200
12,908500	0,5	0,654300
12,916833	0,5	0,596050
12,925167	0,5	0,531750
12,933500	0,5	0,499200
12,941833	0,5	0,428100
12,950167	0,5	0,317650
12,958500	0,5	0,166800
12,966833	0,5	-0,062350
12,975167	0,5	-0,436300
12,983500	0,5	-0,844150
12,991833	0,5	-1,170200
13,000167	0,5	-1,441550
13,008500	0,5	-1,700700
13,016833	0,5	-1,899600
13,025167	0,5	-2,024200
13,033500	0,5	-2,126100
13,041833	0,5	-2,203050
13,050167	0,5	-2,276600
13,058500	0,5	-2,334600
13,066833	0,5	-2,376950
13,075167	0,5	-2,404100
13,083500	0,5	-2,435100
13,091833	0,5	-2,448750
13,100167	0,5	-2,461250
13,108500	0,5	-2,463150
13,116833	0,5	-2,465000
13,125167	0,5	-2,462200
13,133500	0,5	-2,469900
13,141833	0,5	-2,473450
13,150167	0,5	-2,490000
13,158500	0,5	-2,507350
13,166833	0,5	-2,542650
13,175167	0,5	-2,567050
13,183500	0,5	-2,601250
13,191833	0,5	-2,635050
13,200167	0,5	-2,666600
13,208500	0,5	-2,701750
13,216833	0,5	-2,717400
13,225167	0,5	-2,734400
13,233500	0,5	-2,735700
13,241833	0,5	-2,740250
13,250167	0,5	-2,738400
13,258500	0,5	-2,744450
13,266833	0,5	-2,734100
13,275167	0,5	-2,731550
13,283500	0,5	-2,723400
13,291833	0,5	-2,709150
13,300167	0,5	-2,686800
13,308500	0,5	-2,680750
13,316833	0,5	-2,650500
13,325167	0,5	-2,623100
13,333500	0,5	-2,594500
13,341833	0,5	-2,567200
13,350167	0,5	-2,541800
13,358500	0,5	-2,517900
13,366833	0,5	-2,499050
13,375167	0,5	-2,471400
13,383500	0,5	-2,460550
13,391833	0,5	-2,449050
13,400167	0,5	-2,440050
13,408500	0,5	-2,427100
13,416833	0,5	-2,417550
13,425167	0,5	-2,402650
13,433500	0,5	-2,388600
13,441833	0,5	-2,365200
13,450167	0,5	-2,358450
13,458500	0,5	-2,350200
13,466833	0,5	-2,345200
13,475167	0,5	-2,339700
13,483500	0,5	-2,351250
13,491833	0,5	-2,362850
13,500167	0,5	-2,375250
13,508500	0,5	-2,385600
13,516833	0,5	-2,389100
13,525167	0,5	-2,396850
13,533500	0,5	-2,400700
13,541833	0,5	-2,411250
13,550167	0,5	-2,420300
13,558500	0,5	-2,423050
13,566833	0,5	-2,418400
13,575167	0,5	-2,427550
13,583500	0,5	-2,418950
13,591833	0,5	-2,408500
13,600167	0,5	-2,401850
13,608500	0,5	-2,392100
13,616833	0,5	-2,362400
13,625167	0,5	-2,333550
13,633500	0,5	-2,308250
13,641833	0,5	-2,293300
13,650167	0,5	-2,267300
13,658500	0,5	-2,241900
13,666833	0,5	-2,222200
13,675167	0,5	-2,216850
13,683500	0,5	-2,197900
13,691833	0,5	-2,186950
13,700167	0,5	-2,172900
13,708500	0,5	-2,153500
13,716833	0,5	-2,135200
13,725167	0,5	-2,112800
13,733500	0,5	-2,074500
13,741833	0,5	-2,040600
13,750167	0,5	-2,018600
13,758500	0,5	-1,969650
13,766833	0,5	-1,934350
13,775167	0,5	-1,910400
13,783500	0,5	-1,884600
13,791833	0,5	-1,870700
13,800167	0,5	-1,846250
13,808500	0,5	-1,821600
13,816833	0,5	-1,808600
13,825167	0,5	-1,794150
13,833500	0,5	-1,788300
13,841833	0,5	-1,775100
13,850167	0,5	-1,760700
13,858500	0,5	-1,742650
13,866833	0,5	-1,727850
13,875167	0,5	-1,718150
13,883500	0,5	-1,694900
13,891833	0,5	-1,674800
13,900167	0,5	-1,666350
13,908500	0,5	-1,634600
13,916833	0,5	-1,610900
13,925167	0,5	-1,589700
13,933500	0,5	-1,567950
13,941833	0,5	-1,554450
13,950167	0,5	-1,503900
13,958500	0,5	-1,464050
13,966833	0,5	-1,410950
13,975167	0,5	-1,354100
13,983500	0,5	-1,280050
13,991833	0,5	-1,198350
14,000167	0,5	-1,106200
14,008500	0,5	-1,018250
14,016833	0,5	-0,940700
14,025167	0,5	-0,873050
14,033500	0,5	-0,802850
14,041833	0,5	-0,749950
14,050167	0,5	-0,724150
14,058500	0,5	-0,692050
14,066833	0,5	-0,680050
14,075167	0,5	-0,680400
14,083500	0,5	-0,690750
14,091833	0,5	-0,684350
14,100167	0,5	-0,648450
14,108500	0,5	-0,597050
14,116833	0,5	-0,542900
14,125167	0,5	-0,453450
14,133500	0,5	-0,359750
14,141833	0,5	-0,258000
14,150167	0,5	-0,176550
14,158500	0,5	-0,104400
14,166833	0,5	-0,069550
14,175167	0,5	-0,058250
14,183500	0,5	-0,064900
14,191833	0,5	-0,089600
14,200167	0,5	-0,106250
14,208500	0,5	-0,118550
14,216833	0,5	-0,124950
14,225167	0,5	-0,136900
14,233500	0,5	-0,137150
14,241833	0,5	-0,132350
14,250167	0,5	-0,109750
14,258500	0,5	-0,102050
14,266833	0,5	-0,088800
14,275167	0,5	-0,083000
14,283500	0,5	-0,069500
14,291833	0,5	-0,057200
14,300167	0,5	-0,041500
14,308500	0,5	-0,030750
14,316833	0,5	-0,023150
14,325167	0,5	-0,008000
14,333500	0,5	0,007900
14,341833	0,5	0,004050
14,350167	0,5	0,017350
14,358500	0,5	0,024600
14,366833	0,5	0,041500
14,375167	0,5	0,046550
14,383500	0,5	0,053200
14,391833	0,5	0,079500
14,400167	0,5	0,105300
14,408500	0,5	0,118100
14,416833	0,5	0,121450
14,425167	0,5	0,123300
14,433500	0,5	0,111350
14,441833	0,5	0,102500
14,450167	0,5	0,090200
14,458500	0,5	0,075100
14,466833	0,5	0,061650
14,475167	0,5	0,052900
14,483500	0,5	0,032350
14,491833	0,5	0,023550
14,500167	0,5	0,025450
14,508500	0,5	0,020750
14,516833	0,5	0,019100
14,525167	0,5	0,011400
14,533500	0,5	0,004000
14,541833	0,5	0,008850
14,550167	0,5	0,015900
14,558500	0,5	0,020150
14,566833	0,5	0,024850
14,575167	0,5	0,030050
14,583500	0,5	0,044350
14,591833	0,5	0,075700
14,600167	0,5	0,128150
14,608500	0,5	0,203200
14,616833	0,5	0,314000
14,625167	0,5	0,423450
14,633500	0,5	0,505650
14,641833	0,5	0,566250
14,650167	0,5	0,588500
14,658500	0,5	0,545650
14,666833	0,5	0,479200
14,675167	0,5	0,395400
14,683500	0,5	0,345850
14,691833	0,5	0,321850
14,700167	0,5	0,341000
14,708500	0,5	0,398550
14,716833	0,5	0,478600
14,725167	0,5	0,560500
14,733500	0,5	0,612850
14,741833	0,5	0,624150
14,750167	0,5	0,585550
14,758500	0,5	0,513400
14,766833	0,5	0,428700
14,775167	0,5	0,347650
14,783500	0,5	0,262550
14,791833	0,5	0,215100
14,800167	0,5	0,175100
14,808500	0,5	0,144200
14,816833	0,5	0,107050
14,825167	0,5	0,085550
14,833500	0,5	0,075900
14,841833	0,5	0,075350
14,850167	0,5	0,079750
14,858500	0,5	0,081550
14,866833	0,5	0,092350
14,875167	0,5	0,101150
14,883500	0,5	0,099550
14,891833	0,5	0,093750
14,900167	0,5	0,083050
14,908500	0,5	0,066750
14,916833	0,5	0,064700
14,925167	0,5	0,047900
14,933500	0,5	0,044350
14,941833	0,5	0,042750
14,950167	0,5	0,039100
14,958500	0,5	0,018700
14,966833	0,5	-0,007400
14,975167	0,5	-0,033400
14,983500	0,5	-0,040300
14,991833	0,5	-0,059650
15,000167	0,5	-0,069000
15,008500	0,5	-0,081300
15,016833	0,5	-0,084550
15,025167	0,5	-0,096500
15,033500	0,5	-0,098400
15,041833	0,5	-0,104500
15,050167	0,5	-0,119100
15,058500	0,5	-0,125950
15,066833	0,5	-0,128900
15,075167	0,5	-0,139400
15,083500	0,5	-0,128850
15,091833	0,5	-0,117100
15,100167	0,5	-0,091550
15,108500	0,5	-0,053150
15,116833	0,5	-0,001200
15,125167	0,5	0,103600
15,133500	0,5	0,232250
15,141833	0,5	0,358650
15,150167	0,5	0,435350
15,158500	0,5	0,477100
15,166833	0,5	0,455300
15,175167	0,5	0,397650
15,183500	0,5	0,345650
15,191833	0,5	0,315650
15,200167	0,5	0,319500
15,208500	0,5	0,359500
15,216833	0,5	0,441150
15,225167	0,5	0,502600
15,233500	0,5	0,553900
15,241833	0,5	0,539200
15,250167	0,5	0,484650
15,258500	0,5	0,386900
15,266833	0,5	0,286250
15,275167	0,5	0,220000
15,283500	0,5	0,180900
15,291833	0,5	0,135100
15,300167	0,5	0,122850
15,308500	0,5	0,107150
15,316833	0,5	0,095550
15,325167	0,5	0,084800
15,333500	0,5	0,069650
15,341833	0,5	0,054150
15,350167	0,5	0,044300
15,358500	0,5	0,029150
15,366833	0,5	0,034050
15,375167	0,5	0,025200
15,383500	0,5	0,036250
15,391833	0,5	0,036500
15,400167	0,5	0,025200
15,408500	0,5	0,005950
15,416833	0,5	-0,020100
15,425167	0,5	-0,027800
15,433500	0,5	-0,053200
15,441833	0,5	-0,076950
15,450167	0,5	-0,106050
15,458500	0,5	-0,122100
15,466833	0,5	-0,150650
15,475167	0,5	-0,156600
15,483500	0,5	-0,172200
15,491833	0,5	-0,187550
15,500167	0,5	-0,203850
15,508500	0,5	-0,214000
15,516833	0,5	-0,239850
15,525167	0,5	-0,233050
15,533500	0,5	-0,241900
15,541833	0,5	-0,239850
15,550167	0,5	-0,234500
15,558500	0,5	-0,222600
15,566833	0,5	-0,169600
15,575167	0,5	-0,085950
15,583500	0,5	0,031750
15,591833	0,5	0,159350
15,600167	0,5	0,281900
15,608500	0,5	0,353150
15,616833	0,5	0,380550
15,625167	0,5	0,360200
15,633500	0,5	0,338100
15,641833	0,5	0,313550
15,650167	0,5	0,341550
15,658500	0,5	0,376000
15,666833	0,5	0,430650
15,675167	0,5	0,461100
15,683500	0,5	0,443750
15,691833	0,5	0,377750
15,700167	0,5	0,266250
15,708500	0,5	0,154300
15,716833	0,5	0,070550
15,725167	0,5	-0,005150
15,733500	0,5	-0,061950
15,741833	0,5	-0,098250
15,750167	0,5	-0,137300
15,758500	0,5	-0,152600
15,766833	0,5	-0,159850
15,775167	0,5	-0,154350
15,783500	0,5	-0,158050
15,791833	0,5	-0,145200
15,800167	0,5	-0,145600
15,808500	0,5	-0,163200
15,816833	0,5	-0,173400
15,825167	0,5	-0,182300
15,833500	0,5	-0,205850
15,841833	0,5	-0,234150
15,850167	0,5	-0,284600
15,858500	0,5	-0,307550
15,866833	0,5	-0,321450
15,875167	0,5	-0,342100
15,883500	0,5	-0,363700
15,891833	0,5	-0,378900
15,900167	0,5	-0,387900
15,908500	0,5	-0,401600
15,916833	0,5	-0,401450
15,925167	0,5	-0,415400
15,933500	0,5	-0,414400
15,941833	0,5	-0,419900
15,950167	0,5	-0,406050
15,958500	0,5	-0,409400
15,966833	0,5	-0,345600
15,975167	0,5	-0,274100
15,983500	0,5	-0,159600
15,991833	0,5	-0,037100
16,000167	0,5	0,068900
16,008500	0,5	0,168300
16,016833	0,5	0,233050
16,025167	0,5	0,244900
16,033500	0,5	0,247900
16,041833	0,5	0,263300
16,050167	0,5	0,297200
16,058500	0,5	0,325250
16,066833	0,5	0,334500
16,075167	0,5	0,294800
16,083500	0,5	0,214600
16,091833	0,5	0,129850
16,100167	0,5	0,028350
16,108500	0,5	-0,065400
16,116833	0,5	-0,124650
16,125167	0,5	-0,161650
16,133500	0,5	-0,197750
16,141833	0,5	-0,217050
16,150167	0,5	-0,238100
16,158500	0,5	-0,218950
16,166833	0,5	-0,216500
16,175167	0,5	-0,212200
16,183500	0,5	-0,211600
16,191833	0,5	-0,211300
16,200167	0,5	-0,222800
16,208500	0,5	-0,238700
16,216833	0,5	-0,263200
16,225167	0,5	-0,288050
16,233500	0,5	-0,310450
16,241833	0,5	-0,332500
16,250167	0,5	-0,365300
16,258500	0,5	-0,393550
16,266833	0,5	-0,412650
16,275167	0,5	-0,439200
16,283500	0,5	-0,466050
16,291833	0,5	-0,501450
16,300167	0,5	-0,514500
16,308500	0,5	-0,517900
16,316833	0,5	-0,519750
16,325167	0,5	-0,509650
16,333500	0,5	-0,470150
16,341833	0,5	-0,412900
16,350167	0,5	-0,316450
16,358500	0,5	-0,196150
16,366833	0,5	-0,069250
16,375167	0,5	0,040750
16,383500	0,5	0,115750
16,391833	0,5	0,159550
16,400167	0,5	0,160450
16,408500	0,5	0,176000
16,416833	0,5	0,175850
16,425167	0,5	0,173500
16,433500	0,5	0,135000
16,441833	0,5	0,071700
16,450167	0,5	-0,009550
16,458500	0,5	-0,083050
16,466833	0,5	-0,152150
16,475167	0,5	-0,200050
16,483500	0,5	-0,233350
16,491833	0,5	-0,240700
16,500167	0,5	-0,241400
16,508500	0,5	-0,218600
16,516833	0,5	-0,217900
16,525167	0,5	-0,191750
16,533500	0,5	-0,169250
16,541833	0,5	-0,157400
16,550167	0,5	-0,157550
16,558500	0,5	-0,151350
16,566833	0,5	-0,161600
16,575167	0,5	-0,182350
16,583500	0,5	-0,217450
16,591833	0,5	-0,253700
16,600167	0,5	-0,255700
16,608500	0,5	-0,271350
16,616833	0,5	-0,280950
16,625167	0,5	-0,290700
16,633500	0,5	-0,285750
16,641833	0,5	-0,296050
16,650167	0,5	-0,294700
16,658500	0,5	-0,301600
16,666833	0,5	-0,288350
16,675167	0,5	-0,261250
16,683500	0,5	-0,191400
16,691833	0,5	-0,129050
16,700167	0,5	-0,021000
16,708500	0,5	0,058750
16,716833	0,5	0,110350
16,725167	0,5	0,128350
16,733500	0,5	0,112900
16,741833	0,5	0,113100
16,750167	0,5	0,105150
16,758500	0,5	0,081000
16,766833	0,5	0,028050
16,775167	0,5	-0,043600
16,783500	0,5	-0,121000
16,791833	0,5	-0,190100
16,800167	0,5	-0,246000
16,808500	0,5	-0,279850
16,816833	0,5	-0,318150
16,825167	0,5	-0,325450
16,833500	0,5	-0,342500
16,841833	0,5	-0,359400
16,850167	0,5	-0,355800
16,858500	0,5	-0,359100
16,866833	0,5	-0,377050
16,875167	0,5	-0,398350
16,883500	0,5	-0,424150
16,891833	0,5	-0,438950
16,900167	0,5	-0,449150
16,908500	0,5	-0,469600
16,916833	0,5	-0,489600
16,925167	0,5	-0,511850
16,933500	0,5	-0,526000
16,941833	0,5	-0,524900
16,950167	0,5	-0,513250
16,958500	0,5	-0,493300
16,966833	0,5	-0,456200
16,975167	0,5	-0,393250
16,983500	0,5	-0,314350
16,991833	0,5	-0,218600
17,000167	0,5	-0,081700
17,008500	0,5	0,021050
17,016833	0,5	0,104700
17,025167	0,5	0,164250
17,033500	0,5	0,231250
17,041833	0,5	0,322050
17,050167	0,5	0,408200
17,058500	0,5	0,484500
17,066833	0,5	0,565800
17,075167	0,5	0,670450
17,083500	0,5	0,784800
17,091833	0,5	0,920600
17,100167	0,5	1,049750
17,108500	0,5	1,177600
17,116833	0,5	1,280650
17,125167	0,5	1,386150
17,133500	0,5	1,448250
17,141833	0,5	1,528000
17,150167	0,5	1,584800
17,158500	0,5	1,622400
17,166833	0,5	1,608150
17,175167	0,5	1,552200
17,183500	0,5	1,478450
17,191833	0,5	1,375950
17,200167	0,5	1,233150
17,208500	0,5	1,076350
17,216833	0,5	0,915750
17,225167	0,5	0,751500
17,233500	0,5	0,614650
17,241833	0,5	0,522950
17,250167	0,5	0,469350
17,258500	0,5	0,438350
17,266833	0,5	0,451900
17,275167	0,5	0,450900
17,283500	0,5	0,430800
17,291833	0,5	0,426700
17,300167	0,5	0,398350
17,308500	0,5	0,354050
17,316833	0,5	0,294200
17,325167	0,5	0,202450
17,333500	0,5	0,154200
17,341833	0,5	0,100000
17,350167	0,5	0,074800
17,358500	0,5	0,061350
17,366833	0,5	0,071700
17,375167	0,5	0,092450
17,383500	0,5	0,127400
17,391833	0,5	0,170500
17,400167	0,5	0,201900
17,408500	0,5	0,232250
17,416833	0,5	0,259600
17,425167	0,5	0,285800
17,433500	0,5	0,283500
17,441833	0,5	0,310000
17,450167	0,5	0,298550
17,458500	0,5	0,271150
17,466833	0,5	0,215050
17,475167	0,5	0,161200
17,483500	0,5	0,129250
17,491833	0,5	0,108150
17,500167	0,5	0,088350
17,508500	0,5	0,095450
17,516833	0,5	0,095200
17,525167	0,5	0,095800
17,533500	0,5	0,080950
17,541833	0,5	0,065400
17,550167	0,5	0,020450
17,558500	0,5	-0,029600
17,566833	0,5	-0,089400
17,575167	0,5	-0,173400
17,583500	0,5	-0,234150
17,591833	0,5	-0,288150
17,600167	0,5	-0,342350
17,608500	0,5	-0,389200
17,616833	0,5	-0,436500
17,625167	0,5	-0,478750
17,633500	0,5	-0,493950
17,641833	0,5	-0,523300
17,650167	0,5	-0,539300
17,658500	0,5	-0,556150
17,666833	0,5	-0,574700
17,675167	0,5	-0,592450
17,683500	0,5	-0,605200
17,691833	0,5	-0,611850
17,700167	0,5	-0,619850
17,708500	0,5	-0,597500
17,716833	0,5	-0,581450
17,725167	0,5	-0,549400
17,733500	0,5	-0,491300
17,741833	0,5	-0,441550
17,750167	0,5	-0,394500
17,758500	0,5	-0,370300
17,766833	0,5	-0,369800
17,775167	0,5	-0,363850
17,783500	0,5	-0,392350
17,791833	0,5	-0,429250
17,800167	0,5	-0,476400
17,808500	0,5	-0,502850
17,816833	0,5	-0,548700
17,825167	0,5	-0,570450
17,833500	0,5	-0,601800
17,841833	0,5	-0,628700
17,850167	0,5	-0,640450
17,858500	0,5	-0,650000
17,866833	0,5	-0,681750
17,875167	0,5	-0,684200
17,883500	0,5	-0,695150
17,891833	0,5	-0,696150
17,900167	0,5	-0,703950
17,908500	0,5	-0,717700
17,916833	0,5	-0,692750
17,925167	0,5	-0,669100
17,933500	0,5	-0,623150
17,941833	0,5	-0,583950
17,950167	0,5	-0,519700
17,958500	0,5	-0,481500
17,966833	0,5	-0,449850
17,975167	0,5	-0,440150
17,983500	0,5	-0,453200
17,991833	0,5	-0,479800
18,000167	0,5	-0,517900
18,008500	0,5	-0,546500
18,016833	0,5	-0,591750
18,025167	0,5	-0,599100
18,033500	0,5	-0,620750
18,041833	0,5	-0,643850
18,050167	0,5	-0,667100
18,058500	0,5	-0,698350
18,066833	0,5	-0,702200
18,075167	0,5	-0,696000
18,083500	0,5	-0,706350
18,091833	0,5	-0,700650
18,100167	0,5	-0,706000
18,108500	0,5	-0,684800
18,116833	0,5	-0,664150
18,125167	0,5	-0,621100
18,133500	0,5	-0,577150
18,141833	0,5	-0,539100
18,150167	0,5	-0,497950
18,158500	0,5	-0,470550
18,166833	0,5	-0,483700
18,175167	0,5	-0,486750
18,183500	0,5	-0,512250
18,191833	0,5	-0,553800
18,200167	0,5	-0,598800
18,208500	0,5	-0,646650
18,216833	0,5	-0,646400
18,225167	0,5	-0,666800
18,233500	0,5	-0,674600
18,241833	0,5	-0,692200
18,250167	0,5	-0,702450
18,258500	0,5	-0,713650
18,266833	0,5	-0,713750
18,275167	0,5	-0,713250
18,283500	0,5	-0,699950
18,291833	0,5	-0,686100
18,300167	0,5	-0,656900
18,308500	0,5	-0,643900
18,316833	0,5	-0,607850
18,325167	0,5	-0,582400
18,333500	0,5	-0,572550
18,341833	0,5	-0,595400
18,350167	0,5	-0,630550
18,358500	0,5	-0,648850
18,366833	0,5	-0,662500
18,375167	0,5	-0,681750
18,383500	0,5	-0,707000
18,391833	0,5	-0,716850
18,400167	0,5	-0,729450
18,408500	0,5	-0,738300
18,416833	0,5	-0,752250
18,425167	0,5	-0,757700
18,433500	0,5	-0,771500
18,441833	0,5	-0,769150
18,450167	0,5	-0,771050
18,458500	0,5	-0,774600
18,466833	0,5	-0,757350
18,475167	0,5	-0,744550
18,483500	0,5	-0,734950
18,491833	0,5	-0,743300
18,500167	0,5	-0,751400
18,508500	0,5	-0,757550
18,516833	0,5	-0,757850
18,525167	0,5	-0,768900
18,533500	0,5	-0,793250
18,541833	0,5	-0,815950
18,550167	0,5	-0,852850
18,558500	0,5	-0,871000
18,566833	0,5	-0,876200
18,575167	0,5	-0,885950
18,583500	0,5	-0,883550
18,591833	0,5	-0,892000
18,600167	0,5	-0,897150
18,608500	0,5	-0,914600
18,616833	0,5	-0,899300
18,625167	0,5	-0,902050
18,633500	0,5	-0,883250
18,641833	0,5	-0,885250
18,650167	0,5	-0,877500
18,658500	0,5	-0,857900
18,666833	0,5	-0,850600
18,675167	0,5	-0,864400
18,683500	0,5	-0,877700
18,691833	0,5	-0,888700
18,700167	0,5	-0,892900
18,708500	0,5	-0,879950
18,716833	0,5	-0,878900
18,725167	0,5	-0,880950
18,733500	0,5	-0,862150
18,741833	0,5	-0,850450
18,750167	0,5	-0,855150
18,758500	0,5	-0,821200
18,766833	0,5	-0,790550
18,775167	0,5	-0,758750
18,783500	0,5	-0,752500
18,791833	0,5	-0,755800
18,800167	0,5	-0,758350
18,808500	0,5	-0,748000
18,816833	0,5	-0,762650
18,825167	0,5	-0,771200
18,833500	0,5	-0,789550
18,841833	0,5	-0,801700
18,850167	0,5	-0,819450
18,858500	0,5	-0,812900
18,866833	0,5	-0,808050
18,875167	0,5	-0,809600
18,883500	0,5	-0,776900
18,891833	0,5	-0,774100
18,900167	0,5	-0,765100
18,908500	0,5	-0,759500
18,916833	0,5	-0,756350
18,925167	0,5	-0,772150
18,933500	0,5	-0,804700
18,941833	0,5	-0,844700
18,950167	0,5	-0,877050
18,958500	0,5	-0,910100
18,966833	0,5	-0,922150
18,975167	0,5	-0,947550
18,983500	0,5	-0,955000
18,991833	0,5	-0,972650
19,000167	0,5	-0,981400
19,008500	0,5	-0,981000
19,016833	0,5	-0,983400
19,025167	0,5	-0,987150
19,033500	0,5	-0,981900
19,041833	0,5	-1,004000
19,050167	0,5	-1,012150
19,058500	0,5	-1,019350
19,066833	0,5	-1,035500
19,075167	0,5	-1,053950
19,083500	0,5	-1,103700
19,091833	0,5	-1,106500
19,100167	0,5	-1,119150
19,108500	0,5	-1,120150
19,116833	0,5	-1,139100
19,125167	0,5	-1,140850
19,133500	0,5	-1,152600
19,141833	0,5	-1,156350
19,150167	0,5	-1,173750
19,158500	0,5	-1,197300
19,166833	0,5	-1,213150
19,175167	0,5	-1,228450
19,183500	0,5	-1,237450
19,191833	0,5	-1,275250
19,200167	0,5	-1,270400
19,208500	0,5	-1,278800
19,216833	0,5	-1,284600
19,225167	0,5	-1,304250
19,233500	0,5	-1,333500
19,241833	0,5	-1,335350
19,250167	0,5	-1,332700
19,258500	0,5	-1,365550
19,266833	0,5	-1,374900
19,275167	0,5	-1,385400
19,283500	0,5	-1,393500
19,291833	0,5	-1,402900
19,300167	0,5	-1,398450
19,308500	0,5	-1,407950
19,316833	0,5	-1,415600
19,325167	0,5	-1,414750
19,333500	0,5	-1,419900
19,341833	0,5	-1,436750
19,350167	0,5	-1,450200
19,358500	0,5	-1,458950
19,366833	0,5	-1,487500
19,375167	0,5	-1,497600
19,383500	0,5	-1,530000
19,391833	0,5	-1,506550
19,400167	0,5	-1,517900
19,408500	0,5	-1,518500
19,416833	0,5	-1,524500
19,425167	0,5	-1,517550
19,433500	0,5	-1,527550
19,441833	0,5	-1,530500
19,450167	0,5	-1,540200
19,458500	0,5	-1,558250
19,466833	0,5	-1,560000
19,475167	0,5	-1,558700
19,483500	0,5	-1,573300
19,491833	0,5	-1,578250
19,500167	0,5	-1,584450
19,508500	0,5	-1,596950
19,516833	0,5	-1,622650
19,525167	0,5	-1,662350
19,533500	0,5	-1,674100
19,541833	0,5	-1,674850
19,550167	0,5	-1,676550
19,558500	0,5	-1,692750
19,566833	0,5	-1,697750
19,575167	0,5	-1,708550
19,583500	0,5	-1,715600
19,591833	0,5	-1,728400
19,600167	0,5	-1,730850
19,608500	0,5	-1,734000
19,616833	0,5	-1,729500
19,625167	0,5	-1,734400
19,633500	0,5	-1,748750
19,641833	0,5	-1,738750
19,650167	0,5	-1,736750
19,658500	0,5	-1,742050
19,666833	0,5	-1,777100
19,675167	0,5	-1,794300
19,683500	0,5	-1,808950
19,691833	0,5	-1,805400
19,700167	0,5	-1,822800
19,708500	0,5	-1,835150
19,716833	0,5	-1,848550
19,725167	0,5	-1,855650
19,733500	0,5	-1,881050
19,741833	0,5	-1,894300
19,750167	0,5	-1,915200
19,758500	0,5	-1,935900
19,766833	0,5	-1,951950
19,775167	0,5	-1,979400
19,783500	0,5	-1,995750
19,791833	0,5	-2,001550
19,800167	0,5	-2,015700
19,808500	0,5	-2,033800
19,816833	0,5	-2,072800
19,825167	0,5	-2,100950
19,833500	0,5	-2,096700
19,841833	0,5	-2,107050
19,850167	0,5	-2,113250
19,858500	0,5	-2,124700
19,866833	0,5	-2,133450
19,875167	0,5	-2,146250
19,883500	0,5	-2,154800
19,891833	0,5	-2,169200
19,900167	0,5	-2,173100
19,908500	0,5	-2,175500
19,916833	0,5	-2,179700
19,925167	0,5	-2,191900
19,933500	0,5	-2,185850
19,941833	0,5	-2,194300
19,950167	0,5	-2,201850
19,958500	0,5	-2,223850
19,966833	0,5	-2,256250
19,975167	0,5	-2,266750
19,983500	0,5	-2,274000
19,991833	0,5	-2,275500
20,000167	0,5	-2,301400
20,008500	0,5	-2,307650
20,016833	0,5	-2,327450
20,025167	0,5	-2,347200
20,033500	0,5	-2,367900
20,041833	0,5	-2,382900
20,050167	0,5	-2,402700
20,058500	0,5	-2,396800
20,066833	0,5	-2,433300
20,075167	0,5	-2,453200
20,083500	0,5	-2,454800
20,091833	0,5	-2,467850
20,100167	0,5	-2,485750
20,108500	0,5	-2,521800
20,116833	0,5	-2,539000
20,125167	0,5	-2,544500
20,133500	0,5	-2,548550
20,141833	0,5	-2,560650
20,150167	0,5	-2,563650
20,158500	0,5	-2,575250
20,166833	0,5	-2,577550
20,175167	0,5	-2,589200
20,183500	0,5	-2,575450
20,191833	0,5	-2,588450
20,200167	0,5	-2,575650
20,208500	0,5	-2,572700
20,216833	0,5	-2,593150
20,225167	0,5	-2,596250
20,233500	0,5	-2,600550
20,241833	0,5	-2,612300
20,250167	0,5	-2,630600
20,258500	0,5	-2,681300
20,266833	0,5	-2,683800
20,275167	0,5	-2,694900
20,283500	0,5	-2,710350
20,291833	0,5	-2,713750
20,300167	0,5	-2,727100
20,308500	0,5	-2,737550
20,316833	0,5	-2,765300
20,325167	0,5	-2,778200
20,333500	0,5	-2,809250
20,341833	0,5	-2,823150
20,350167	0,5	-2,836350
20,358500	0,5	-2,846550
20,366833	0,5	-2,886950
20,375167	0,5	-2,902250
20,383500	0,5	-2,927450
20,391833	0,5	-2,950800
20,400167	0,5	-2,989600
20,408500	0,5	-3,038800
20,416833	0,5	-3,033400
20,425167	0,5	-3,052850
20,433500	0,5	-3,082250
20,441833	0,5	-3,095850
20,450167	0,5	-3,119300
20,458500	0,5	-3,134900
20,466833	0,5	-3,157250
20,475167	0,5	-3,184900
20,483500	0,5	-3,206200
20,491833	0,5	-3,218250
20,500167	0,5	-3,217450
20,508500	0,5	-3,220450
20,516833	0,5	-3,227000
20,525167	0,5	-3,210350
20,533500	0,5	-3,205900
20,541833	0,5	-3,223350
20,550167	0,5	-3,263550
20,558500	0,5	-3,311000
20,566833	0,5	-3,348500
20,575167	0,5	-3,397200
20,583500	0,5	-3,450650
20,591833	0,5	-3,496250
20,600167	0,5	-3,540600
20,608500	0,5	-3,575050
20,616833	0,5	-3,614300
20,625167	0,5	-3,643750
20,633500	0,5	-3,696950
20,641833	0,5	-3,703450
20,650167	0,5	-3,726100
20,658500	0,5	-3,766150
20,666833	0,5	-3,793250
20,675167	0,5	-3,816700
20,683500	0,5	-3,850600
20,691833	0,5	-3,868450
20,700167	0,5	-3,872700
20,708500	0,5	-3,850450
20,716833	0,5	-3,819700
20,725167	0,5	-3,827000
20,733500	0,5	-3,857850
20,741833	0,5	-3,907750
20,750167	0,5	-3,983950
20,758500	0,5	-4,058350
20,766833	0,5	-4,129500
20,775167	0,5	-4,205250
20,783500	0,5	-4,265000
20,791833	0,5	-4,296450
20,800167	0,5	-4,342800
20,808500	0,5	-4,404200
20,816833	0,5	-4,443350
20,825167	0,5	-4,505300
20,833500	0,5	-4,556850
20,841833	0,5	-4,636400
20,850167	0,5	-4,681500
20,858500	0,5	-4,703250
20,866833	0,5	-4,737850
20,875167	0,5	-4,769700
20,883500	0,5	-4,800000
20,891833	0,5	-4,823250
20,900167	0,5	-4,862400
20,908500	0,5	-4,899250
20,916833	0,5	-4,949650
20,925167	0,5	-4,996850
20,933500	0,5	-5,023400
20,941833	0,5	-5,045000
20,950167	0,5	-5,082200
20,958500	0,5	-5,121500
20,966833	0,5	-5,161850
20,975167	0,5	-5,201150
20,983500	0,5	-5,259900
20,991833	0,5	-5,324850
21,000167	0,5	-5,352050
21,008500	0,5	-5,366500
21,016833	0,5	-5,396800
21,025167	0,5	-5,402300
21,033500	0,5	-5,427150
21,041833	0,5	-5,456200
21,050167	0,5	-5,482050
21,058500	0,5	-5,522900
21,066833	0,5	-5,564400
21,075167	0,5	-5,605100
21,083500	0,5	-5,614200
21,091833	0,5	-5,632000
21,100167	0,5	-5,674300
21,108500	0,5	-5,722650
21,116833	0,5	-5,760750
21,125167	0,5	-5,814650
21,133500	0,5	-5,869650
21,141833	0,5	-5,902000
21,150167	0,5	-5,934600
21,158500	0,5	-5,956950
21,166833	0,5	-5,979800
21,175167	0,5	-6,010500
21,183500	0,5	-6,036500
21,191833	0,5	-6,065800
21,200167	0,5	-6,089750
21,208500	0,5	-6,104850
21,216833	0,5	-6,136850
21,225167	0,5	-6,138700
21,233500	0,5	-6,116700
21,241833	0,5	-6,125200
21,250167	0,5	-6,155150
21,258500	0,5	-6,173200
21,266833	0,5	-6,194350
21,275167	0,5	-6,219600
21,283500	0,5	-6,261050
21,291833	0,5	-6,264050
21,300167	0,5	-6,288900
21,308500	0,5	-6,304100
21,316833	0,5	-6,336300
21,325167	0,5	-6,357500
21,333500	0,5	-6,381150
21,341833	0,5	-6,407650
21,350167	0,5	-6,422900
21,358500	0,5	-6,446450
21,366833	0,5	-6,455900
21,375167	0,5	-6,445850
21,383500	0,5	-6,438950
21,391833	0,5	-6,449900
21,400167	0,5	-6,481450
21,408500	0,5	-6,509550
21,416833	0,5	-6,525950
21,425167	0,5	-6,571100
21,433500	0,5	-6,602850
21,441833	0,5	-6,608600
21,450167	0,5	-6,628100
21,458500	0,5	-6,643400
21,466833	0,5	-6,661350
21,475167	0,5	-6,679150
21,483500	0,5	-6,689800
21,491833	0,5	-6,703150
21,500167	0,5	-6,729150
21,508500	0,5	-6,733100
21,516833	0,5	-6,741350
21,525167	0,5	-6,728750
21,533500	0,5	-6,726800
21,541833	0,5	-6,755150
21,550167	0,5	-6,783500
21,558500	0,5	-6,803350
21,566833	0,5	-6,846450
21,575167	0,5	-6,877200
21,583500	0,5	-6,889700
21,591833	0,5	-6,897950
21,600167	0,5	-6,906500
21,608500	0,5	-6,911350
21,616833	0,5	-6,904550
21,625167	0,5	-6,904100
21,633500	0,5	-6,903400
21,641833	0,5	-6,887350
21,650167	0,5	-6,874950
21,658500	0,5	-6,871400
21,666833	0,5	-6,823900
21,675167	0,5	-6,808100
21,683500	0,5	-6,837250
21,691833	0,5	-6,857050
21,700167	0,5	-6,890050
21,708500	0,5	-6,932600
21,716833	0,5	-6,958300
21,725167	0,5	-6,985850
21,733500	0,5	-6,982400
21,741833	0,5	-6,983350
21,750167	0,5	-6,993350
21,758500	0,5	-7,017550
21,766833	0,5	-7,036100
21,775167	0,5	-7,055500
21,783500	0,5	-7,081650
21,791833	0,5	-7,101550
21,800167	0,5	-7,112650
21,808500	0,5	-7,128900
21,816833	0,5	-7,115550
21,825167	0,5	-7,119850
21,833500	0,5	-7,138350
21,841833	0,5	-7,141450
21,850167	0,5	-7,172150
21,858500	0,5	-7,192700
21,866833	0,5	-7,236200
21,875167	0,5	-7,251900
21,883500	0,5	-7,261950
21,891833	0,5	-7,263350
21,900167	0,5	-7,273350
21,908500	0,5	-7,277550
21,916833	0,5	-7,241300
21,925167	0,5	-7,207350
21,933500	0,5	-7,140150
21,941833	0,5	-7,105800
21,950167	0,5	-7,099950
21,958500	0,5	-7,119300
21,966833	0,5	-7,166950
21,975167	0,5	-7,225050
21,983500	0,5	-7,261700
21,991833	0,5	-7,326750
22,000167	0,5	-7,367400
22,008500	0,5	-7,429100
22,016833	0,5	-7,475400
22,025167	0,5	-7,494750
22,033500	0,5	-7,521650
22,041833	0,5	-7,552900
22,050167	0,5	-7,573950
22,058500	0,5	-7,602750
22,066833	0,5	-7,626300
22,075167	0,5	-7,642450
22,083500	0,5	-7,663600
22,091833	0,5	-7,679500
22,100167	0,5	-7,699400
22,108500	0,5	-7,704100
22,116833	0,5	-7,761900
22,125167	0,5	-7,754400
22,133500	0,5	-7,772000
22,141833	0,5	-7,790350
22,150167	0,5	-7,815900
22,158500	0,5	-7,852200
22,166833	0,5	-7,860050
22,175167	0,5	-7,869050
22,183500	0,5	-7,876350
22,191833	0,5	-7,887700
22,200167	0,5	-7,891050
22,208500	0,5	-7,904000
22,216833	0,5	-7,917900
22,225167	0,5	-7,926050
22,233500	0,5	-7,934300
22,241833	0,5	-7,946300
22,250167	0,5	-7,946050
22,258500	0,5	-7,964200
22,266833	0,5	-7,955800
22,275167	0,5	-7,938450
22,283500	0,5	-7,930800
22,291833	0,5	-7,939500
22,300167	0,5	-7,942250
22,308500	0,5	-7,950450
22,316833	0,5	-7,927250
22,325167	0,5	-7,914350
22,333500	0,5	-7,890750
22,341833	0,5	-7,867600
22,350167	0,5	-7,824150
22,358500	0,5	-7,748100
22,366833	0,5	-7,644300
22,375167	0,5	-7,548100
22,383500	0,5	-7,516400
22,391833	0,5	-7,535900
22,400167	0,5	-7,620500
22,408500	0,5	-7,692200
22,416833	0,5	-7,736600
22,425167	0,5	-7,762950
22,433500	0,5	-7,805950
22,441833	0,5	-7,836650
22,450167	0,5	-7,875500
22,458500	0,5	-7,882350
22,466833	0,5	-7,878650
22,475167	0,5	-7,887350
22,483500	0,5	-7,898700
22,491833	0,5	-7,892150
22,500167	0,5	-7,894950
22,508500	0,5	-7,889700
22,516833	0,5	-7,878650
22,525167	0,5	-7,868350
22,533500	0,5	-7,848750
22,541833	0,5	-7,887650
22,550167	0,5	-7,852750
22,558500	0,5	-7,827200
22,566833	0,5	-7,766250
22,575167	0,5	-7,745250
22,583500	0,5	-7,726200
22,591833	0,5	-7,729050
22,600167	0,5	-7,736100
22,608500	0,5	-7,713600
22,616833	0,5	-7,708550
22,625167	0,5	-7,705250
22,633500	0,5	-7,701000
22,641833	0,5	-7,698950
22,650167	0,5	-7,689500
22,658500	0,5	-7,686650
22,666833	0,5	-7,675600
22,675167	0,5	-7,672900
22,683500	0,5	-7,695150
22,691833	0,5	-7,745550
22,700167	0,5	-7,742300
22,708500	0,5	-7,705550
22,716833	0,5	-7,708950
22,725167	0,5	-7,711950
22,733500	0,5	-7,723700
22,741833	0,5	-7,754900
22,750167	0,5	-7,774050
22,758500	0,5	-7,784250
22,766833	0,5	-7,786650
22,775167	0,5	-7,801000
22,783500	0,5	-7,806050
22,791833	0,5	-7,809700
22,800167	0,5	-7,824300
22,808500	0,5	-7,833800
22,816833	0,5	-7,855400
22,825167	0,5	-7,882800
22,833500	0,5	-7,957300
22,841833	0,5	-8,013750
22,850167	0,5	-8,006500
22,858500	0,5	-8,016150
22,866833	0,5	-8,042150
22,875167	0,5	-8,069500
22,883500	0,5	-8,103100
22,891833	0,5	-8,148100
22,900167	0,5	-8,175350
22,908500	0,5	-8,203850
22,916833	0,5	-8,242600
22,925167	0,5	-8,258350
22,933500	0,5	-8,274200
22,941833	0,5	-8,279900
22,950167	0,5	-8,283300
22,958500	0,5	-8,281400
22,966833	0,5	-8,266450
22,975167	0,5	-8,263150
22,983500	0,5	-8,285800
22,991833	0,5	-8,242800
23,000167	0,5	-8,227350
23,008500	0,5	-8,247950
23,016833	0,5	-8,216600
23,025167	0,5	-8,208000
23,033500	0,5	-8,163600
23,041833	0,5	-8,141400
23,050167	0,5	-8,118350
23,058500	0,5	-8,086850
23,066833	0,5	-8,043800
23,075167	0,5	-7,994500
23,083500	0,5	-7,943300
23,091833	0,5	-7,869100
23,100167	0,5	-7,805950
23,108500	0,5	-7,724350
23,116833	0,5	-7,655700
23,125167	0,5	-7,525800
23,133500	0,5	-7,464950
23,141833	0,5	-7,382450
23,150167	0,5	-7,346950
23,158500	0,5	-7,288800
23,166833	0,5	-7,213300
23,175167	0,5	-7,122550
23,183500	0,5	-7,037700
23,191833	0,5	-6,971650
23,200167	0,5	-6,910550
23,208500	0,5	-6,824100
23,216833	0,5	-6,739650
23,225167	0,5	-6,652150
23,233500	0,5	-6,560500
23,241833	0,5	-6,476150
23,250167	0,5	-6,378850
23,258500	0,5	-6,284800
23,266833	0,5	-6,176750
23,275167	0,5	-6,083350
23,283500	0,5	-5,989750
23,291833	0,5	-5,847800
23,300167	0,5	-5,796550
23,308500	0,5	-5,738650
23,316833	0,5	-5,643450
23,325167	0,5	-5,565900
23,333500	0,5	-5,480150
23,341833	0,5	-5,422100
23,350167	0,5	-5,342600
23,358500	0,5	-5,275050
23,366833	0,5	-5,194800
23,375167	0,5	-5,130000
23,383500	0,5	-5,041800
23,391833	0,5	-4,968800
23,400167	0,5	-4,888150
23,408500	0,5	-4,802300
23,416833	0,5	-4,711450
23,425167	0,5	-4,717750
23,433500	0,5	-4,602200
23,441833	0,5	-4,483400
23,450167	0,5	-4,433250
23,458500	0,5	-4,373950
23,466833	0,5	-4,315700
23,475167	0,5	-4,245700
23,483500	0,5	-4,200600
23,491833	0,5	-4,153500
23,500167	0,5	-4,109050
23,508500	0,5	-4,051800
23,516833	0,5	-4,002700
23,525167	0,5	-3,951400
23,533500	0,5	-3,909150
23,541833	0,5	-3,857300
23,550167	0,5	-3,808000
23,558500	0,5	-3,760250
23,566833	0,5	-3,809050
23,575167	0,5	-3,762900
23,583500	0,5	-3,694450
23,591833	0,5	-3,604150
23,600167	0,5	-3,559400
23,608500	0,5	-3,528250
23,616833	0,5	-3,486200
23,625167	0,5	-3,449600
23,633500	0,5	-3,414900
23,641833	0,5	-3,391750
23,650167	0,5	-3,354100
23,658500	0,5	-3,322000
23,666833	0,5	-3,284950
23,675167	0,5	-3,260600
23,683500	0,5	-3,223650
23,691833	0,5	-3,193700
23,700167	0,5	-3,160100
23,708500	0,5	-3,136500
23,716833	0,5	-3,293750
23,725167	0,5	-3,226300
23,733500	0,5	-3,152700
23,741833	0,5	-3,075700
23,750167	0,5	-3,044000
23,758500	0,5	-3,010200
23,766833	0,5	-2,987250
23,775167	0,5	-2,977100
23,783500	0,5	-2,942850
23,791833	0,5	-2,921700
23,800167	0,5	-2,898050
23,808500	0,5	-2,869650
23,816833	0,5	-2,844600
23,825167	0,5	-2,817750
23,833500	0,5	-2,781050
23,841833	0,5	-2,752100
23,850167	0,5	-2,723100
23,858500	0,5	-2,774400
23,866833	0,5	-2,860200
23,875167	0,5	-2,809600
23,883500	0,5	-2,717750
23,891833	0,5	-2,653500
23,900167	0,5	-2,610100
23,908500	0,5	-2,577700
23,916833	0,5	-2,569050
23,925167	0,5	-2,547000
23,933500	0,5	-2,524800
23,941833	0,5	-2,497650
23,950167	0,5	-2,473900
23,958500	0,5	-2,446700
23,966833	0,5	-2,421250
23,975167	0,5	-2,396800
23,983500	0,5	-2,370850
23,991833	0,5	-2,341250
24,000167	0,5	-2,320900
24,008500	0,5	-2,469550
24,016833	0,5	-2,468450
24,025167	0,5	-2,401300
24,033500	0,5	-2,330450
24,041833	0,5	-2,269350
24,050167	0,5	-2,241450
24,058500	0,5	-2,209600
24,066833	0,5	-2,191350
24,075167	0,5	-2,170700
24,083500	0,5	-2,132100
24,091833	0,5	-2,100250
24,100167	0,5	-2,064950
24,108500	0,5	-2,037150
24,116833	0,5	-2,007150
24,125167	0,5	-1,981400
24,133500	0,5	-1,949300
24,141833	0,5	-1,920900
24,150167	0,5	-1,915450
24,158500	0,5	-2,044000
24,166833	0,5	-2,010850
24,175167	0,5	-1,956450
24,183500	0,5	-1,894150
24,191833	0,5	-1,855250
24,200167	0,5	-1,827350
24,208500	0,5	-1,820800
24,216833	0,5	-1,804700
24,225167	0,5	-1,780650
24,233500	0,5	-1,748550
24,241833	0,5	-1,732800
24,250167	0,5	-1,703750
24,258500	0,5	-1,681200
24,266833	0,5	-1,653600
24,275167	0,5	-1,624150
24,283500	0,5	-1,597900
24,291833	0,5	-1,568650
24,300167	0,5	-1,644000
24,308500	0,5	-1,653600
24,316833	0,5	-1,639350
24,325167	0,5	-1,573300
24,333500	0,5	-1,523050
24,341833	0,5	-1,488800
24,350167	0,5	-1,468250
24,358500	0,5	-1,464300
24,366833	0,5	-1,448100
24,375167	0,5	-1,419900
24,383500	0,5	-1,401050
24,391833	0,5	-1,378800
24,400167	0,5	-1,361300
24,408500	0,5	-1,338900
24,416833	0,5	-1,326200
24,425167	0,5	-1,312350
24,433500	0,5	-1,293800
24,441833	0,5	-1,282250
24,450167	0,5	-1,364250
24,458500	0,5	-1,346450
24,466833	0,5	-1,318500
24,475167	0,5	-1,272000
24,483500	0,5	-1,245650
24,491833	0,5	-1,222050
24,500167	0,5	-1,208750
24,508500	0,5	-1,205850
24,516833	0,5	-1,180800
24,525167	0,5	-1,171450
24,533500	0,5	-1,150900
24,541833	0,5	-1,134050
24,550167	0,5	-1,113650
24,558500	0,5	-1,100800
24,566833	0,5	-1,079600
24,575167	0,5	-1,059400
24,583500	0,5	-1,044600
24,591833	0,5	-1,052100
24,600167	0,5	-1,107950
24,608500	0,5	-1,085300
24,616833	0,5	-1,059600
24,625167	0,5	-1,034500
24,633500	0,5	-1,021450
24,641833	0,5	-1,011550
24,650167	0,5	-1,006800
24,658500	0,5	-1,006200
24,666833	0,5	-0,991250
24,675167	0,5	-0,978200
24,683500	0,5	-0,970900
24,691833	0,5	-0,960200
24,700167	0,5	-0,952050
24,708500	0,5	-0,934800
24,716833	0,5	-0,923550
24,725167	0,5	-0,912350
24,733500	0,5	-0,902450
24,741833	0,5	-0,940850
24,750167	0,5	-0,931150
24,758500	0,5	-0,916200
24,766833	0,5	-0,884750
24,775167	0,5	-0,868000
24,783500	0,5	-0,850400
24,791833	0,5	-0,843550
24,800167	0,5	-0,841650
24,808500	0,5	-0,841800
24,816833	0,5	-0,825550
24,825167	0,5	-0,825100
24,833500	0,5	-0,822400
24,841833	0,5	-0,815100
24,850167	0,5	-0,809800
24,858500	0,5	-0,802400
24,866833	0,5	-0,792750
24,875167	0,5	-0,792500
24,883500	0,5	-0,785350
24,891833	0,5	-0,821050
24,900167	0,5	-0,807050
24,908500	0,5	-0,793250
24,916833	0,5	-0,779700
24,925167	0,5	-0,768800
24,933500	0,5	-0,754800
24,941833	0,5	-0,749850
24,950167	0,5	-0,750600
24,958500	0,5	-0,738900
24,966833	0,5	-0,726700
24,975167	0,5	-0,721050
24,983500	0,5	-0,717300
24,991833	0,5	-0,710650
25,000167	0,5	-0,705450
25,008500	0,5	-0,700450
25,016833	0,5	-0,695600
25,025167	0,5	-0,694150
25,033500	0,5	-0,702700
25,041833	0,5	-0,710850
25,050167	0,5	-0,705300
25,058500	0,5	-0,695650
25,066833	0,5	-0,692350
25,075167	0,5	-0,687000
25,083500	0,5	-0,687000
25,091833	0,5	-0,685950
25,100167	0,5	-0,685150
25,108500	0,5	-0,680950
25,116833	0,5	-0,674000
25,125167	0,5	-0,668750
25,133500	0,5	-0,666100
25,141833	0,5	-0,659150
25,150167	0,5	-0,650500
25,158500	0,5	-0,645450
25,166833	0,5	-0,638150
25,175167	0,5	-0,635000
25,183500	0,5	-0,637600
25,191833	0,5	-0,633100
25,200167	0,5	-0,626800
25,208500	0,5	-0,620500
25,216833	0,5	-0,616950
25,225167	0,5	-0,625200
25,233500	0,5	-0,617450
25,241833	0,5	-0,625450
25,250167	0,5	-0,624500
25,258500	0,5	-0,624950
25,266833	0,5	-0,622450
25,275167	0,5	-0,622200
25,283500	0,5	-0,620950
25,291833	0,5	-0,620050
25,300167	0,5	-0,619450
25,308500	0,5	-0,617200
25,316833	0,5	-0,610500
25,325167	0,5	-0,603900
25,333500	0,5	-0,602700
25,341833	0,5	-0,591800
25,350167	0,5	-0,588300
25,358500	0,5	-0,586800
25,366833	0,5	-0,585000
25,375167	0,5	-0,581150
25,383500	0,5	-0,578200
25,391833	0,5	-0,572050
25,400167	0,5	-0,575550
25,408500	0,5	-0,577350
25,416833	0,5	-0,575350
25,425167	0,5	-0,575050
25,433500	0,5	-0,577300
25,441833	0,5	-0,578350
25,450167	0,5	-0,569800
25,458500	0,5	-0,579300
25,466833	0,5	-0,576600
25,475167	0,5	-0,570150
25,483500	0,5	-0,559250
25,491833	0,5	-0,555450
25,500167	0,5	-0,555450
25,508500	0,5	-0,561250
25,516833	0,5	-0,563250
25,525167	0,5	-0,556300
25,533500	0,5	-0,552300
25,541833	0,5	-0,551900
25,550167	0,5	-0,551600
25,558500	0,5	-0,548500
25,566833	0,5	-0,546800
25,575167	0,5	-0,544450
25,583500	0,5	-0,544300
25,591833	0,5	-0,544200
25,600167	0,5	-0,546100
25,608500	0,5	-0,544800
25,616833	0,5	-0,545600
25,625167	0,5	-0,534150
25,633500	0,5	-0,525350
25,641833	0,5	-0,523950
25,650167	0,5	-0,532400
25,658500	0,5	-0,537800
25,666833	0,5	-0,538200
25,675167	0,5	-0,538950
25,683500	0,5	-0,534350
25,691833	0,5	-0,535750
25,700167	0,5	-0,532900
25,708500	0,5	-0,534450
25,716833	0,5	-0,531450
25,725167	0,5	-0,532500
25,733500	0,5	-0,531400
25,741833	0,5	-0,534750
25,750167	0,5	-0,534850
25,758500	0,5	-0,531250
25,766833	0,5	-0,525350
25,775167	0,5	-0,507600
25,783500	0,5	-0,507950
25,791833	0,5	-0,506700
25,800167	0,5	-0,519750
25,808500	0,5	-0,519100
25,816833	0,5	-0,521200
25,825167	0,5	-0,517300
25,833500	0,5	-0,507500
25,841833	0,5	-0,504850
25,850167	0,5	-0,519100
25,858500	0,5	-0,513900
25,866833	0,5	-0,518900
25,875167	0,5	-0,516050
25,883500	0,5	-0,514100
25,891833	0,5	-0,513900
25,900167	0,5	-0,512900
25,908500	0,5	-0,510700
25,916833	0,5	-0,500950
25,925167	0,5	-0,489350
25,933500	0,5	-0,483800
25,941833	0,5	-0,477150
25,950167	0,5	-0,493400
25,958500	0,5	-0,491600
25,966833	0,5	-0,486250
25,975167	0,5	-0,481500
25,983500	0,5	-0,467400
25,991833	0,5	-0,476750
26,000167	0,5	-0,474900
