File Path	chrom://chromeleon01/ikbm_chromeleon/2022/ICS-5000/ED1/Esteban/20220427_Cell_Amandas_mutants.seq/666.smp/ED_1.channel/ED_1.chm
Channel	ED_1

Injection Information:
Data Vault	ikbm_chromeleon
Injection	T24h_PASC_CelS2
Injection Number	8
Position	RA4
Comment	
Processing Method	Stop sequence after Cell Death
Instrument Method	ICS5000_PA200_FullNative_Ox_26min_ED1
Type	Unknown
Status	Finished
Injection Date	27.04.2022
Injection Time	15:23:14
Injection Volume (µl)	5,0
Dilution Factor	1,0000
Weight	1,0000

Chromatogram Data Information:
Time Min. (min)	0,000333
Time Max. (min)	26,000333
Data Points	3121
Detector	EDet1
Generating Data System	Chromeleon 7.2.9.11323
Exporting Data System	Chromeleon 7.2.9.0
Operator	Instrument Controller
Signal Quantity	
Signal Unit	nC
Signal Min.	-3,567800
Signal Max.	67,034051
Channel	ED_1
Driver Name	DC-5000
Channel Type	Evaluation
Min. Step (s)	0,5
Max. Step (s)	0,5
Average Step (s)	0,5

Signal Parameter Information:
Signal Info	

Chromatogram Data:
Time (min)	Step (s)	Value (nC)
0,000333	n.a.	-0,044250
0,008667	0,5	-0,086250
0,017000	0,5	-0,075500
0,025333	0,5	-0,066100
0,033667	0,5	-0,080500
0,042000	0,5	-0,066750
0,050333	0,5	-0,055100
0,058667	0,5	-0,005600
0,067000	0,5	0,011300
0,075333	0,5	-0,000600
0,083667	0,5	0,005950
0,092000	0,5	0,001400
0,100333	0,5	-0,000550
0,108667	0,5	-0,005850
0,117000	0,5	-0,001500
0,125333	0,5	-0,015800
0,133667	0,5	-0,007900
0,142000	0,5	-0,013600
0,150333	0,5	-0,013050
0,158667	0,5	-0,026850
0,167000	0,5	0,017850
0,175333	0,5	-0,009400
0,183667	0,5	-0,021450
0,192000	0,5	-0,025200
0,200333	0,5	-0,007500
0,208667	0,5	0,022550
0,217000	0,5	0,007250
0,225333	0,5	-0,007300
0,233667	0,5	-0,003650
0,242000	0,5	-0,004500
0,250333	0,5	-0,006600
0,258667	0,5	-0,004950
0,267000	0,5	-0,009200
0,275333	0,5	-0,006050
0,283667	0,5	-0,010900
0,292000	0,5	-0,000150
0,300333	0,5	-0,023500
0,308667	0,5	0,023800
0,317000	0,5	0,014950
0,325333	0,5	-0,028650
0,333667	0,5	-0,050500
0,342000	0,5	-0,042150
0,350333	0,5	-0,024050
0,358667	0,5	0,002900
0,367000	0,5	-0,014650
0,375333	0,5	-0,011000
0,383667	0,5	-0,016350
0,392000	0,5	-0,020250
0,400333	0,5	-0,024700
0,408667	0,5	-0,018250
0,417000	0,5	-0,024250
0,425333	0,5	-0,033750
0,433667	0,5	-0,028500
0,442000	0,5	-0,028550
0,450333	0,5	-0,040500
0,458667	0,5	-0,023700
0,467000	0,5	-0,032500
0,475333	0,5	-0,045050
0,483667	0,5	-0,048900
0,492000	0,5	-0,046150
0,500333	0,5	-0,007000
0,508667	0,5	-0,012750
0,517000	0,5	-0,021000
0,525333	0,5	-0,033100
0,533667	0,5	-0,018750
0,542000	0,5	-0,035250
0,550333	0,5	-0,032950
0,558667	0,5	-0,039600
0,567000	0,5	-0,040200
0,575333	0,5	-0,036350
0,583667	0,5	-0,039150
0,592000	0,5	-0,017800
0,600333	0,5	-0,042550
0,608667	0,5	-0,022500
0,617000	0,5	-0,048650
0,625333	0,5	-0,058050
0,633667	0,5	-0,066550
0,642000	0,5	-0,048650
0,650333	0,5	-0,019500
0,658667	0,5	-0,015250
0,667000	0,5	-0,036000
0,675333	0,5	-0,025500
0,683667	0,5	-0,040850
0,692000	0,5	-0,040300
0,700333	0,5	-0,050300
0,708667	0,5	-0,046400
0,717000	0,5	-0,062550
0,725333	0,5	-0,054750
0,733667	0,5	-0,056100
0,742000	0,5	-0,061000
0,750333	0,5	-0,072750
0,758667	0,5	-0,055600
0,767000	0,5	-0,086950
0,775333	0,5	-0,081000
0,783667	0,5	-0,089250
0,792000	0,5	-0,067800
0,800333	0,5	-0,039000
0,808667	0,5	-0,059250
0,817000	0,5	-0,059400
0,825333	0,5	-0,059050
0,833667	0,5	-0,063050
0,842000	0,5	-0,072700
0,850333	0,5	-0,068950
0,858667	0,5	-0,084750
0,867000	0,5	-0,085800
0,875333	0,5	-0,088150
0,883667	0,5	-0,094200
0,892000	0,5	-0,110050
0,900333	0,5	-0,090300
0,908667	0,5	-0,099900
0,917000	0,5	-0,113100
0,925333	0,5	-0,115450
0,933667	0,5	-0,118300
0,942000	0,5	-0,080200
0,950333	0,5	-0,066850
0,958667	0,5	-0,072350
0,967000	0,5	-0,086150
0,975333	0,5	-0,069500
0,983667	0,5	-0,086600
0,992000	0,5	-0,087550
1,000333	0,5	-0,100850
1,008667	0,5	-0,096700
1,017000	0,5	-0,110050
1,025333	0,5	-0,098400
1,033667	0,5	-0,106350
1,042000	0,5	-0,117850
1,050333	0,5	-0,099150
1,058667	0,5	-0,115700
1,067000	0,5	-0,132300
1,075333	0,5	-0,122050
1,083667	0,5	-0,123300
1,092000	0,5	-0,087050
1,100333	0,5	-0,092550
1,108667	0,5	-0,098100
1,117000	0,5	-0,107450
1,125333	0,5	-0,106500
1,133667	0,5	-0,113550
1,142000	0,5	-0,118000
1,150333	0,5	-0,116350
1,158667	0,5	-0,133700
1,167000	0,5	-0,124550
1,175333	0,5	-0,125300
1,183667	0,5	-0,120550
1,192000	0,5	-0,126500
1,200333	0,5	-0,096150
1,208667	0,5	-0,130450
1,217000	0,5	-0,137750
1,225333	0,5	-0,142650
1,233667	0,5	-0,121250
1,242000	0,5	-0,099050
1,250333	0,5	-0,117650
1,258667	0,5	-0,127800
1,267000	0,5	-0,117900
1,275333	0,5	-0,118400
1,283667	0,5	-0,127200
1,292000	0,5	-0,136350
1,300333	0,5	-0,131400
1,308667	0,5	-0,133550
1,317000	0,5	-0,136750
1,325333	0,5	-0,127950
1,333667	0,5	-0,151250
1,342000	0,5	-0,137450
1,350333	0,5	-0,139650
1,358667	0,5	-0,158250
1,367000	0,5	-0,166200
1,375333	0,5	-0,151200
1,383667	0,5	-0,139900
1,392000	0,5	-0,111500
1,400333	0,5	-0,138950
1,408667	0,5	-0,136950
1,417000	0,5	-0,141800
1,425333	0,5	-0,141850
1,433667	0,5	-0,150500
1,442000	0,5	-0,147450
1,450333	0,5	-0,152800
1,458667	0,5	-0,157600
1,467000	0,5	-0,149700
1,475333	0,5	-0,152500
1,483667	0,5	-0,174400
1,492000	0,5	-0,145750
1,500333	0,5	-0,161300
1,508667	0,5	-0,170150
1,517000	0,5	-0,174500
1,525333	0,5	-0,168350
1,533667	0,5	-0,135600
1,542000	0,5	-0,140450
1,550333	0,5	-0,143250
1,558667	0,5	-0,157750
1,567000	0,5	-0,154650
1,575333	0,5	-0,262600
1,583667	0,5	-0,611250
1,592000	0,5	-1,484250
1,600333	0,5	-2,500600
1,608667	0,5	-2,593400
1,617000	0,5	-1,039050
1,625333	0,5	1,542850
1,633667	0,5	5,462650
1,642000	0,5	12,355850
1,650333	0,5	20,903600
1,658667	0,5	26,173350
1,667000	0,5	25,403350
1,675333	0,5	21,210900
1,683667	0,5	16,921150
1,692000	0,5	13,602350
1,700333	0,5	11,119650
1,708667	0,5	9,230800
1,717000	0,5	7,745250
1,725333	0,5	6,618300
1,733667	0,5	5,813250
1,742000	0,5	5,255250
1,750333	0,5	4,734750
1,758667	0,5	4,163450
1,767000	0,5	3,559550
1,775333	0,5	3,044100
1,783667	0,5	2,675150
1,792000	0,5	2,482200
1,800333	0,5	2,439200
1,808667	0,5	2,583150
1,817000	0,5	2,776000
1,825333	0,5	2,904700
1,833667	0,5	2,922550
1,842000	0,5	2,803000
1,850333	0,5	2,641150
1,858667	0,5	2,460600
1,867000	0,5	2,298250
1,875333	0,5	2,140550
1,883667	0,5	2,002000
1,892000	0,5	1,868050
1,900333	0,5	1,760350
1,908667	0,5	1,664450
1,917000	0,5	1,576000
1,925333	0,5	1,499900
1,933667	0,5	1,502700
1,942000	0,5	1,506450
1,950333	0,5	1,519750
1,958667	0,5	1,529900
1,967000	0,5	1,568400
1,975333	0,5	1,614950
1,983667	0,5	1,595950
1,992000	0,5	1,542400
2,000333	0,5	1,516450
2,008667	0,5	1,561550
2,017000	0,5	1,698600
2,025333	0,5	1,989100
2,033667	0,5	2,484550
2,042000	0,5	3,308500
2,050333	0,5	4,631550
2,058667	0,5	6,587700
2,067000	0,5	8,976600
2,075333	0,5	11,521200
2,083667	0,5	13,834150
2,092000	0,5	15,252900
2,100333	0,5	15,546750
2,108667	0,5	15,070850
2,117000	0,5	14,291600
2,125333	0,5	13,546150
2,133667	0,5	12,833900
2,142000	0,5	12,259350
2,150333	0,5	11,811550
2,158667	0,5	11,560750
2,167000	0,5	11,574500
2,175333	0,5	11,940000
2,183667	0,5	12,441400
2,192000	0,5	12,600750
2,200333	0,5	12,247950
2,208667	0,5	11,719200
2,217000	0,5	11,389500
2,225333	0,5	11,211050
2,233667	0,5	10,962400
2,242000	0,5	10,523400
2,250333	0,5	10,072950
2,258667	0,5	9,705450
2,267000	0,5	9,460250
2,275333	0,5	9,272500
2,283667	0,5	9,122850
2,292000	0,5	9,024000
2,300333	0,5	8,995200
2,308667	0,5	8,982500
2,317000	0,5	9,006900
2,325333	0,5	9,035300
2,333667	0,5	9,080050
2,342000	0,5	9,123950
2,350333	0,5	9,170650
2,358667	0,5	9,222050
2,367000	0,5	9,287200
2,375333	0,5	9,401800
2,383667	0,5	9,508350
2,392000	0,5	9,581700
2,400333	0,5	9,627300
2,408667	0,5	9,668700
2,417000	0,5	9,717600
2,425333	0,5	9,769450
2,433667	0,5	9,795350
2,442000	0,5	9,869650
2,450333	0,5	9,946950
2,458667	0,5	10,048800
2,467000	0,5	10,158900
2,475333	0,5	10,276800
2,483667	0,5	10,356000
2,492000	0,5	10,446550
2,500333	0,5	10,529750
2,508667	0,5	10,597150
2,517000	0,5	10,639800
2,525333	0,5	10,700200
2,533667	0,5	10,691150
2,542000	0,5	10,675850
2,550333	0,5	10,673850
2,558667	0,5	10,725500
2,567000	0,5	10,814900
2,575333	0,5	10,853500
2,583667	0,5	10,862200
2,592000	0,5	10,839000
2,600333	0,5	10,799750
2,608667	0,5	10,727950
2,617000	0,5	10,670050
2,625333	0,5	10,625400
2,633667	0,5	10,617000
2,642000	0,5	10,657550
2,650333	0,5	10,804400
2,658667	0,5	11,083550
2,667000	0,5	11,531300
2,675333	0,5	12,025200
2,683667	0,5	12,388550
2,692000	0,5	12,519900
2,700333	0,5	12,406550
2,708667	0,5	12,160650
2,717000	0,5	11,880450
2,725333	0,5	11,594600
2,733667	0,5	11,339300
2,742000	0,5	11,154350
2,750333	0,5	11,021850
2,758667	0,5	10,955350
2,767000	0,5	10,960800
2,775333	0,5	11,056250
2,783667	0,5	11,275150
2,792000	0,5	11,687200
2,800333	0,5	12,291150
2,808667	0,5	13,120100
2,817000	0,5	14,137550
2,825333	0,5	15,224500
2,833667	0,5	16,122500
2,842000	0,5	16,730450
2,850333	0,5	17,095300
2,858667	0,5	17,498100
2,867000	0,5	17,987200
2,875333	0,5	18,363250
2,883667	0,5	18,297800
2,892000	0,5	17,590100
2,900333	0,5	16,382850
2,908667	0,5	15,077250
2,917000	0,5	14,076250
2,925333	0,5	13,625800
2,933667	0,5	13,737600
2,942000	0,5	14,153550
2,950333	0,5	14,430900
2,958667	0,5	14,174450
2,967000	0,5	13,371400
2,975333	0,5	12,136050
2,983667	0,5	10,819300
2,992000	0,5	9,650650
3,000333	0,5	8,707550
3,008667	0,5	7,991550
3,017000	0,5	7,408100
3,025333	0,5	6,929250
3,033667	0,5	6,545550
3,042000	0,5	6,216050
3,050333	0,5	5,930750
3,058667	0,5	5,669150
3,067000	0,5	5,448200
3,075333	0,5	5,232400
3,083667	0,5	5,028350
3,092000	0,5	4,848900
3,100333	0,5	4,653700
3,108667	0,5	4,495150
3,117000	0,5	4,372600
3,125333	0,5	4,218050
3,133667	0,5	4,078350
3,142000	0,5	3,968600
3,150333	0,5	3,855050
3,158667	0,5	3,769650
3,167000	0,5	3,640800
3,175333	0,5	3,516350
3,183667	0,5	3,372350
3,192000	0,5	3,264150
3,200333	0,5	3,133500
3,208667	0,5	3,030100
3,217000	0,5	2,930100
3,225333	0,5	2,842250
3,233667	0,5	2,768050
3,242000	0,5	2,699500
3,250333	0,5	2,631400
3,258667	0,5	2,603050
3,267000	0,5	2,596950
3,275333	0,5	2,600000
3,283667	0,5	2,693450
3,292000	0,5	2,897100
3,300333	0,5	3,242100
3,308667	0,5	3,675050
3,317000	0,5	4,074950
3,325333	0,5	4,333250
3,333667	0,5	4,382850
3,342000	0,5	4,179000
3,350333	0,5	3,801250
3,358667	0,5	3,346750
3,367000	0,5	2,920400
3,375333	0,5	2,546350
3,383667	0,5	2,262900
3,392000	0,5	2,048000
3,400333	0,5	1,869000
3,408667	0,5	1,743100
3,417000	0,5	1,620650
3,425333	0,5	1,508900
3,433667	0,5	1,411000
3,442000	0,5	1,338600
3,450333	0,5	1,297850
3,458667	0,5	1,244650
3,467000	0,5	1,176550
3,475333	0,5	1,125900
3,483667	0,5	1,070800
3,492000	0,5	1,021450
3,500333	0,5	0,974050
3,508667	0,5	0,943100
3,517000	0,5	0,897200
3,525333	0,5	0,867450
3,533667	0,5	0,838700
3,542000	0,5	0,820400
3,550333	0,5	0,785700
3,558667	0,5	0,782300
3,567000	0,5	0,739000
3,575333	0,5	0,710400
3,583667	0,5	0,675050
3,592000	0,5	0,662950
3,600333	0,5	0,656250
3,608667	0,5	0,619500
3,617000	0,5	0,576550
3,625333	0,5	0,547350
3,633667	0,5	0,518900
3,642000	0,5	0,486850
3,650333	0,5	0,458700
3,658667	0,5	0,427450
3,667000	0,5	0,406250
3,675333	0,5	0,381100
3,683667	0,5	0,369100
3,692000	0,5	0,333400
3,700333	0,5	0,327750
3,708667	0,5	0,309750
3,717000	0,5	0,285750
3,725333	0,5	0,269750
3,733667	0,5	0,260450
3,742000	0,5	0,264550
3,750333	0,5	0,279550
3,758667	0,5	0,270400
3,767000	0,5	0,270550
3,775333	0,5	0,257700
3,783667	0,5	0,255900
3,792000	0,5	0,255050
3,800333	0,5	0,260150
3,808667	0,5	0,267650
3,817000	0,5	0,274100
3,825333	0,5	0,297250
3,833667	0,5	0,314300
3,842000	0,5	0,329300
3,850333	0,5	0,378100
3,858667	0,5	0,421700
3,867000	0,5	0,495900
3,875333	0,5	0,621100
3,883667	0,5	0,786100
3,892000	0,5	1,020550
3,900333	0,5	1,248500
3,908667	0,5	1,447000
3,917000	0,5	1,591150
3,925333	0,5	1,656200
3,933667	0,5	1,609250
3,942000	0,5	1,482400
3,950333	0,5	1,302700
3,958667	0,5	1,094150
3,967000	0,5	0,899550
3,975333	0,5	0,733300
3,983667	0,5	0,598200
3,992000	0,5	0,484000
4,000333	0,5	0,437000
4,008667	0,5	0,353100
4,017000	0,5	0,295600
4,025333	0,5	0,256500
4,033667	0,5	0,236300
4,042000	0,5	0,231300
4,050333	0,5	0,212900
4,058667	0,5	0,179700
4,067000	0,5	0,178000
4,075333	0,5	0,175400
4,083667	0,5	0,174400
4,092000	0,5	0,168300
4,100333	0,5	0,178850
4,108667	0,5	0,186600
4,117000	0,5	0,195950
4,125333	0,5	0,215100
4,133667	0,5	0,208450
4,142000	0,5	0,203550
4,150333	0,5	0,206750
4,158667	0,5	0,176550
4,167000	0,5	0,150100
4,175333	0,5	0,139500
4,183667	0,5	0,130050
4,192000	0,5	0,136700
4,200333	0,5	0,099750
4,208667	0,5	0,090000
4,217000	0,5	0,079300
4,225333	0,5	0,073550
4,233667	0,5	0,069050
4,242000	0,5	0,080050
4,250333	0,5	0,074500
4,258667	0,5	0,084900
4,267000	0,5	0,082300
4,275333	0,5	0,095050
4,283667	0,5	0,074500
4,292000	0,5	0,084150
4,300333	0,5	0,081250
4,308667	0,5	0,061950
4,317000	0,5	0,053800
4,325333	0,5	0,050200
4,333667	0,5	0,068800
4,342000	0,5	0,070450
4,350333	0,5	0,055400
4,358667	0,5	0,050150
4,367000	0,5	0,053350
4,375333	0,5	0,054350
4,383667	0,5	0,059650
4,392000	0,5	0,054250
4,400333	0,5	0,055750
4,408667	0,5	0,054500
4,417000	0,5	0,063350
4,425333	0,5	0,070550
4,433667	0,5	0,068100
4,442000	0,5	0,089300
4,450333	0,5	0,098000
4,458667	0,5	0,105550
4,467000	0,5	0,118600
4,475333	0,5	0,151500
4,483667	0,5	0,205200
4,492000	0,5	0,235950
4,500333	0,5	0,252850
4,508667	0,5	0,274600
4,517000	0,5	0,309000
4,525333	0,5	0,347650
4,533667	0,5	0,395350
4,542000	0,5	0,455600
4,550333	0,5	0,516550
4,558667	0,5	0,610200
4,567000	0,5	0,713300
4,575333	0,5	0,840950
4,583667	0,5	1,013450
4,592000	0,5	1,262500
4,600333	0,5	1,547650
4,608667	0,5	1,925100
4,617000	0,5	2,387300
4,625333	0,5	2,949400
4,633667	0,5	3,560050
4,642000	0,5	4,166700
4,650333	0,5	4,709250
4,658667	0,5	5,151050
4,667000	0,5	5,427950
4,675333	0,5	5,505500
4,683667	0,5	5,406000
4,692000	0,5	5,115400
4,700333	0,5	4,688150
4,708667	0,5	4,179350
4,717000	0,5	3,642600
4,725333	0,5	3,100700
4,733667	0,5	2,633500
4,742000	0,5	2,223600
4,750333	0,5	1,864750
4,758667	0,5	1,574800
4,767000	0,5	1,349100
4,775333	0,5	1,186650
4,783667	0,5	1,076400
4,792000	0,5	0,963250
4,800333	0,5	0,875250
4,808667	0,5	0,792600
4,817000	0,5	0,744300
4,825333	0,5	0,687600
4,833667	0,5	0,659300
4,842000	0,5	0,627850
4,850333	0,5	0,598150
4,858667	0,5	0,581000
4,867000	0,5	0,551200
4,875333	0,5	0,529550
4,883667	0,5	0,547650
4,892000	0,5	0,542450
4,900333	0,5	0,539200
4,908667	0,5	0,555850
4,917000	0,5	0,574350
4,925333	0,5	0,632450
4,933667	0,5	0,652700
4,942000	0,5	0,662400
4,950333	0,5	0,660300
4,958667	0,5	0,666800
4,967000	0,5	0,649800
4,975333	0,5	0,638950
4,983667	0,5	0,610100
4,992000	0,5	0,586600
5,000333	0,5	0,552500
5,008667	0,5	0,518950
5,017000	0,5	0,491250
5,025333	0,5	0,465100
5,033667	0,5	0,466250
5,042000	0,5	0,434650
5,050333	0,5	0,415050
5,058667	0,5	0,402450
5,067000	0,5	0,398900
5,075333	0,5	0,416400
5,083667	0,5	0,410150
5,092000	0,5	0,397850
5,100333	0,5	0,402150
5,108667	0,5	0,397350
5,117000	0,5	0,401650
5,125333	0,5	0,405550
5,133667	0,5	0,407900
5,142000	0,5	0,407450
5,150333	0,5	0,412450
5,158667	0,5	0,418600
5,167000	0,5	0,412150
5,175333	0,5	0,417150
5,183667	0,5	0,441650
5,192000	0,5	0,437900
5,200333	0,5	0,449600
5,208667	0,5	0,469500
5,217000	0,5	0,505050
5,225333	0,5	0,505400
5,233667	0,5	0,572700
5,242000	0,5	0,607200
5,250333	0,5	0,646650
5,258667	0,5	0,688750
5,267000	0,5	0,726600
5,275333	0,5	0,765500
5,283667	0,5	0,788550
5,292000	0,5	0,808200
5,300333	0,5	0,806300
5,308667	0,5	0,793900
5,317000	0,5	0,752950
5,325333	0,5	0,739450
5,333667	0,5	0,709450
5,342000	0,5	0,675500
5,350333	0,5	0,642650
5,358667	0,5	0,627250
5,367000	0,5	0,630100
5,375333	0,5	0,628450
5,383667	0,5	0,607750
5,392000	0,5	0,599650
5,400333	0,5	0,601550
5,408667	0,5	0,604050
5,417000	0,5	0,603550
5,425333	0,5	0,603550
5,433667	0,5	0,605900
5,442000	0,5	0,601250
5,450333	0,5	0,616200
5,458667	0,5	0,601700
5,467000	0,5	0,607200
5,475333	0,5	0,609550
5,483667	0,5	0,596150
5,492000	0,5	0,586450
5,500333	0,5	0,590400
5,508667	0,5	0,594250
5,517000	0,5	0,611050
5,525333	0,5	0,611050
5,533667	0,5	0,606050
5,542000	0,5	0,599950
5,550333	0,5	0,602150
5,558667	0,5	0,595700
5,567000	0,5	0,601700
5,575333	0,5	0,610750
5,583667	0,5	0,608450
5,592000	0,5	0,616100
5,600333	0,5	0,626200
5,608667	0,5	0,622000
5,617000	0,5	0,613550
5,625333	0,5	0,609100
5,633667	0,5	0,587500
5,642000	0,5	0,572100
5,650333	0,5	0,556350
5,658667	0,5	0,565750
5,667000	0,5	0,563000
5,675333	0,5	0,555350
5,683667	0,5	0,534100
5,692000	0,5	0,531150
5,700333	0,5	0,529650
5,708667	0,5	0,526650
5,717000	0,5	0,516900
5,725333	0,5	0,519700
5,733667	0,5	0,505850
5,742000	0,5	0,505300
5,750333	0,5	0,503250
5,758667	0,5	0,491100
5,767000	0,5	0,495100
5,775333	0,5	0,500050
5,783667	0,5	0,484950
5,792000	0,5	0,480700
5,800333	0,5	0,486200
5,808667	0,5	0,508650
5,817000	0,5	0,522300
5,825333	0,5	0,505950
5,833667	0,5	0,510800
5,842000	0,5	0,509950
5,850333	0,5	0,520850
5,858667	0,5	0,520750
5,867000	0,5	0,534450
5,875333	0,5	0,534400
5,883667	0,5	0,550600
5,892000	0,5	0,564750
5,900333	0,5	0,578050
5,908667	0,5	0,585200
5,917000	0,5	0,614350
5,925333	0,5	0,599950
5,933667	0,5	0,587300
5,942000	0,5	0,579500
5,950333	0,5	0,572900
5,958667	0,5	0,583650
5,967000	0,5	0,572650
5,975333	0,5	0,554950
5,983667	0,5	0,537100
5,992000	0,5	0,524900
6,000333	0,5	0,507150
6,008667	0,5	0,503050
6,017000	0,5	0,486600
6,025333	0,5	0,474900
6,033667	0,5	0,471150
6,042000	0,5	0,463550
6,050333	0,5	0,456550
6,058667	0,5	0,453950
6,067000	0,5	0,466850
6,075333	0,5	0,449150
6,083667	0,5	0,440450
6,092000	0,5	0,439050
6,100333	0,5	0,436600
6,108667	0,5	0,460650
6,117000	0,5	0,448050
6,125333	0,5	0,435000
6,133667	0,5	0,437150
6,142000	0,5	0,436300
6,150333	0,5	0,435150
6,158667	0,5	0,438200
6,167000	0,5	0,440900
6,175333	0,5	0,441650
6,183667	0,5	0,457500
6,192000	0,5	0,460700
6,200333	0,5	0,459550
6,208667	0,5	0,461650
6,217000	0,5	0,477100
6,225333	0,5	0,461150
6,233667	0,5	0,455650
6,242000	0,5	0,449150
6,250333	0,5	0,460250
6,258667	0,5	0,468900
6,267000	0,5	0,449950
6,275333	0,5	0,442450
6,283667	0,5	0,434350
6,292000	0,5	0,426800
6,300333	0,5	0,422150
6,308667	0,5	0,432250
6,317000	0,5	0,421550
6,325333	0,5	0,424050
6,333667	0,5	0,424350
6,342000	0,5	0,425100
6,350333	0,5	0,411650
6,358667	0,5	0,425700
6,367000	0,5	0,422500
6,375333	0,5	0,423450
6,383667	0,5	0,424300
6,392000	0,5	0,436300
6,400333	0,5	0,452850
6,408667	0,5	0,465650
6,417000	0,5	0,470350
6,425333	0,5	0,473850
6,433667	0,5	0,473800
6,442000	0,5	0,479700
6,450333	0,5	0,486750
6,458667	0,5	0,496600
6,467000	0,5	0,500200
6,475333	0,5	0,510050
6,483667	0,5	0,520550
6,492000	0,5	0,513350
6,500333	0,5	0,523000
6,508667	0,5	0,541550
6,517000	0,5	0,570350
6,525333	0,5	0,577400
6,533667	0,5	0,610650
6,542000	0,5	0,653050
6,550333	0,5	0,714550
6,558667	0,5	0,761350
6,567000	0,5	0,817000
6,575333	0,5	0,868100
6,583667	0,5	0,928250
6,592000	0,5	0,972150
6,600333	0,5	1,016800
6,608667	0,5	1,051600
6,617000	0,5	1,069500
6,625333	0,5	1,073100
6,633667	0,5	1,051850
6,642000	0,5	1,016600
6,650333	0,5	0,983650
6,658667	0,5	0,954750
6,667000	0,5	0,904850
6,675333	0,5	0,867350
6,683667	0,5	0,833400
6,692000	0,5	0,825900
6,700333	0,5	0,821750
6,708667	0,5	0,809100
6,717000	0,5	0,792550
6,725333	0,5	0,795950
6,733667	0,5	0,785750
6,742000	0,5	0,793950
6,750333	0,5	0,791100
6,758667	0,5	0,795550
6,767000	0,5	0,797350
6,775333	0,5	0,799900
6,783667	0,5	0,802850
6,792000	0,5	0,802550
6,800333	0,5	0,821400
6,808667	0,5	0,826750
6,817000	0,5	0,827500
6,825333	0,5	0,841550
6,833667	0,5	0,849800
6,842000	0,5	0,879450
6,850333	0,5	0,894000
6,858667	0,5	0,903450
6,867000	0,5	0,916150
6,875333	0,5	0,929850
6,883667	0,5	0,944300
6,892000	0,5	0,951950
6,900333	0,5	0,963400
6,908667	0,5	0,968250
6,917000	0,5	0,976700
6,925333	0,5	0,990500
6,933667	0,5	0,990450
6,942000	0,5	0,986600
6,950333	0,5	1,011300
6,958667	0,5	1,010250
6,967000	0,5	1,009600
6,975333	0,5	1,020400
6,983667	0,5	1,031000
6,992000	0,5	1,062050
7,000333	0,5	1,061400
7,008667	0,5	1,065650
7,017000	0,5	1,070650
7,025333	0,5	1,082900
7,033667	0,5	1,089600
7,042000	0,5	1,098000
7,050333	0,5	1,099000
7,058667	0,5	1,108400
7,067000	0,5	1,110950
7,075333	0,5	1,122150
7,083667	0,5	1,122550
7,092000	0,5	1,134600
7,100333	0,5	1,152450
7,108667	0,5	1,151850
7,117000	0,5	1,156150
7,125333	0,5	1,173200
7,133667	0,5	1,198300
7,142000	0,5	1,234150
7,150333	0,5	1,243400
7,158667	0,5	1,261850
7,167000	0,5	1,289650
7,175333	0,5	1,328450
7,183667	0,5	1,379050
7,192000	0,5	1,431700
7,200333	0,5	1,503950
7,208667	0,5	1,566350
7,217000	0,5	1,631950
7,225333	0,5	1,696750
7,233667	0,5	1,741050
7,242000	0,5	1,755900
7,250333	0,5	1,758000
7,258667	0,5	1,724650
7,267000	0,5	1,702950
7,275333	0,5	1,675300
7,283667	0,5	1,676700
7,292000	0,5	1,684150
7,300333	0,5	1,696900
7,308667	0,5	1,723850
7,317000	0,5	1,796800
7,325333	0,5	1,894400
7,333667	0,5	2,063150
7,342000	0,5	2,297100
7,350333	0,5	2,612950
7,358667	0,5	3,031950
7,367000	0,5	3,492350
7,375333	0,5	3,982650
7,383667	0,5	4,400800
7,392000	0,5	4,706200
7,400333	0,5	4,817100
7,408667	0,5	4,716050
7,417000	0,5	4,452300
7,425333	0,5	4,082100
7,433667	0,5	3,673550
7,442000	0,5	3,264200
7,450333	0,5	2,889450
7,458667	0,5	2,595700
7,467000	0,5	2,369200
7,475333	0,5	2,202350
7,483667	0,5	2,082400
7,492000	0,5	2,003050
7,500333	0,5	1,949450
7,508667	0,5	1,924950
7,517000	0,5	1,920050
7,525333	0,5	1,906700
7,533667	0,5	1,914800
7,542000	0,5	1,942950
7,550333	0,5	1,970000
7,558667	0,5	2,007450
7,567000	0,5	2,065100
7,575333	0,5	2,131350
7,583667	0,5	2,207450
7,592000	0,5	2,261500
7,600333	0,5	2,300350
7,608667	0,5	2,319450
7,617000	0,5	2,327100
7,625333	0,5	2,315550
7,633667	0,5	2,292850
7,642000	0,5	2,237550
7,650333	0,5	2,165050
7,658667	0,5	2,081300
7,667000	0,5	2,000700
7,675333	0,5	1,914300
7,683667	0,5	1,863850
7,692000	0,5	1,817800
7,700333	0,5	1,771800
7,708667	0,5	1,740300
7,717000	0,5	1,717650
7,725333	0,5	1,711050
7,733667	0,5	1,699000
7,742000	0,5	1,684500
7,750333	0,5	1,666100
7,758667	0,5	1,651450
7,767000	0,5	1,638300
7,775333	0,5	1,625250
7,783667	0,5	1,624200
7,792000	0,5	1,626500
7,800333	0,5	1,625950
7,808667	0,5	1,638450
7,817000	0,5	1,638350
7,825333	0,5	1,641900
7,833667	0,5	1,659900
7,842000	0,5	1,680350
7,850333	0,5	1,707700
7,858667	0,5	1,760000
7,867000	0,5	1,832800
7,875333	0,5	1,939450
7,883667	0,5	2,030900
7,892000	0,5	2,101100
7,900333	0,5	2,132900
7,908667	0,5	2,122650
7,917000	0,5	2,085800
7,925333	0,5	2,031950
7,933667	0,5	1,997150
7,942000	0,5	1,968800
7,950333	0,5	1,959100
7,958667	0,5	1,958950
7,967000	0,5	1,970100
7,975333	0,5	1,981800
7,983667	0,5	2,037950
7,992000	0,5	2,097000
8,000333	0,5	2,198850
8,008667	0,5	2,331950
8,017000	0,5	2,505450
8,025333	0,5	2,723400
8,033667	0,5	2,950100
8,042000	0,5	3,220550
8,050333	0,5	3,547050
8,058667	0,5	3,947250
8,067000	0,5	4,502850
8,075333	0,5	5,342950
8,083667	0,5	6,676400
8,092000	0,5	8,730450
8,100333	0,5	11,663450
8,108667	0,5	15,391400
8,117000	0,5	19,406200
8,125333	0,5	22,945750
8,133667	0,5	25,180200
8,142000	0,5	25,518550
8,150333	0,5	23,976550
8,158667	0,5	21,034000
8,167000	0,5	17,420450
8,175333	0,5	13,840100
8,183667	0,5	10,722650
8,192000	0,5	8,305000
8,200333	0,5	6,556950
8,208667	0,5	5,371750
8,217000	0,5	4,584950
8,225333	0,5	4,067650
8,233667	0,5	3,717350
8,242000	0,5	3,453650
8,250333	0,5	3,246750
8,258667	0,5	3,098800
8,267000	0,5	3,022800
8,275333	0,5	3,041500
8,283667	0,5	3,128450
8,292000	0,5	3,236550
8,300333	0,5	3,305000
8,308667	0,5	3,281600
8,317000	0,5	3,157550
8,325333	0,5	2,958550
8,333667	0,5	2,727300
8,342000	0,5	2,517600
8,350333	0,5	2,359800
8,358667	0,5	2,261000
8,367000	0,5	2,210800
8,375333	0,5	2,206850
8,383667	0,5	2,241650
8,392000	0,5	2,297900
8,400333	0,5	2,357550
8,408667	0,5	2,395350
8,417000	0,5	2,399750
8,425333	0,5	2,379950
8,433667	0,5	2,361700
8,442000	0,5	2,342650
8,450333	0,5	2,344900
8,458667	0,5	2,358700
8,467000	0,5	2,387300
8,475333	0,5	2,436250
8,483667	0,5	2,511050
8,492000	0,5	2,627550
8,500333	0,5	2,739400
8,508667	0,5	2,825100
8,517000	0,5	2,851650
8,525333	0,5	2,828450
8,533667	0,5	2,771450
8,542000	0,5	2,717400
8,550333	0,5	2,689050
8,558667	0,5	2,713850
8,567000	0,5	2,846000
8,575333	0,5	3,142000
8,583667	0,5	3,632550
8,592000	0,5	4,285050
8,600333	0,5	4,963950
8,608667	0,5	5,454800
8,617000	0,5	5,610200
8,625333	0,5	5,421000
8,633667	0,5	5,052800
8,642000	0,5	4,666650
8,650333	0,5	4,345950
8,658667	0,5	4,086350
8,667000	0,5	3,846550
8,675333	0,5	3,589750
8,683667	0,5	3,327200
8,692000	0,5	3,075250
8,700333	0,5	2,858300
8,708667	0,5	2,672600
8,717000	0,5	2,544250
8,725333	0,5	2,445400
8,733667	0,5	2,399450
8,742000	0,5	2,397700
8,750333	0,5	2,439250
8,758667	0,5	2,530350
8,767000	0,5	2,633200
8,775333	0,5	2,721900
8,783667	0,5	2,760550
8,792000	0,5	2,742800
8,800333	0,5	2,658100
8,808667	0,5	2,531650
8,817000	0,5	2,381350
8,825333	0,5	2,248950
8,833667	0,5	2,144100
8,842000	0,5	2,075900
8,850333	0,5	2,037950
8,858667	0,5	2,030100
8,867000	0,5	2,062450
8,875333	0,5	2,121400
8,883667	0,5	2,197750
8,892000	0,5	2,281250
8,900333	0,5	2,344350
8,908667	0,5	2,370500
8,917000	0,5	2,357850
8,925333	0,5	2,298200
8,933667	0,5	2,221150
8,942000	0,5	2,133300
8,950333	0,5	2,037600
8,958667	0,5	1,955550
8,967000	0,5	1,893400
8,975333	0,5	1,851350
8,983667	0,5	1,817100
8,992000	0,5	1,799850
9,000333	0,5	1,786050
9,008667	0,5	1,764700
9,017000	0,5	1,751500
9,025333	0,5	1,732800
9,033667	0,5	1,723400
9,042000	0,5	1,717700
9,050333	0,5	1,735400
9,058667	0,5	1,758550
9,067000	0,5	1,789700
9,075333	0,5	1,829250
9,083667	0,5	1,881200
9,092000	0,5	1,938850
9,100333	0,5	2,009950
9,108667	0,5	2,085350
9,117000	0,5	2,150750
9,125333	0,5	2,206850
9,133667	0,5	2,235200
9,142000	0,5	2,237450
9,150333	0,5	2,220500
9,158667	0,5	2,197500
9,167000	0,5	2,179600
9,175333	0,5	2,169150
9,183667	0,5	2,169400
9,192000	0,5	2,183600
9,200333	0,5	2,206150
9,208667	0,5	2,233250
9,217000	0,5	2,246250
9,225333	0,5	2,256850
9,233667	0,5	2,261500
9,242000	0,5	2,256300
9,250333	0,5	2,239750
9,258667	0,5	2,216300
9,267000	0,5	2,188250
9,275333	0,5	2,169600
9,283667	0,5	2,181850
9,292000	0,5	2,201500
9,300333	0,5	2,250200
9,308667	0,5	2,334800
9,317000	0,5	2,474500
9,325333	0,5	2,676250
9,333667	0,5	2,953400
9,342000	0,5	3,316000
9,350333	0,5	3,759800
9,358667	0,5	4,279000
9,367000	0,5	4,879800
9,375333	0,5	5,597400
9,383667	0,5	6,556300
9,392000	0,5	7,959700
9,400333	0,5	10,170650
9,408667	0,5	13,691350
9,417000	0,5	18,975650
9,425333	0,5	26,065050
9,433667	0,5	34,268251
9,442000	0,5	42,021851
9,450333	0,5	47,498501
9,458667	0,5	49,346701
9,467000	0,5	47,252651
9,475333	0,5	42,017701
9,483667	0,5	35,067601
9,492000	0,5	27,855100
9,500333	0,5	21,457500
9,508667	0,5	16,414150
9,517000	0,5	12,788100
9,525333	0,5	10,347600
9,533667	0,5	8,743300
9,542000	0,5	7,623300
9,550333	0,5	6,745900
9,558667	0,5	5,981350
9,567000	0,5	5,293150
9,575333	0,5	4,710200
9,583667	0,5	4,237650
9,592000	0,5	3,873550
9,600333	0,5	3,591100
9,608667	0,5	3,376000
9,617000	0,5	3,183800
9,625333	0,5	3,033750
9,633667	0,5	2,915800
9,642000	0,5	2,838600
9,650333	0,5	2,800350
9,658667	0,5	2,795200
9,667000	0,5	2,806700
9,675333	0,5	2,819500
9,683667	0,5	2,803500
9,692000	0,5	2,746750
9,700333	0,5	2,642550
9,708667	0,5	2,515100
9,717000	0,5	2,386900
9,725333	0,5	2,269900
9,733667	0,5	2,173650
9,742000	0,5	2,099150
9,750333	0,5	2,044900
9,758667	0,5	1,995750
9,767000	0,5	1,948550
9,775333	0,5	1,907000
9,783667	0,5	1,873300
9,792000	0,5	1,849950
9,800333	0,5	1,823350
9,808667	0,5	1,801550
9,817000	0,5	1,775100
9,825333	0,5	1,757350
9,833667	0,5	1,739700
9,842000	0,5	1,723900
9,850333	0,5	1,705150
9,858667	0,5	1,693500
9,867000	0,5	1,678750
9,875333	0,5	1,666200
9,883667	0,5	1,659950
9,892000	0,5	1,648700
9,900333	0,5	1,648250
9,908667	0,5	1,641350
9,917000	0,5	1,632050
9,925333	0,5	1,633200
9,933667	0,5	1,632500
9,942000	0,5	1,643850
9,950333	0,5	1,658900
9,958667	0,5	1,679800
9,967000	0,5	1,709250
9,975333	0,5	1,731950
9,983667	0,5	1,754000
9,992000	0,5	1,765250
10,000333	0,5	1,762650
10,008667	0,5	1,751950
10,017000	0,5	1,732500
10,025333	0,5	1,704800
10,033667	0,5	1,686150
10,042000	0,5	1,668100
10,050333	0,5	1,648600
10,058667	0,5	1,637050
10,067000	0,5	1,624150
10,075333	0,5	1,623000
10,083667	0,5	1,622100
10,092000	0,5	1,631900
10,100333	0,5	1,643450
10,108667	0,5	1,652650
10,117000	0,5	1,671700
10,125333	0,5	1,685250
10,133667	0,5	1,691700
10,142000	0,5	1,693300
10,150333	0,5	1,690750
10,158667	0,5	1,670750
10,167000	0,5	1,652250
10,175333	0,5	1,630600
10,183667	0,5	1,612850
10,192000	0,5	1,597400
10,200333	0,5	1,593250
10,208667	0,5	1,603350
10,217000	0,5	1,624550
10,225333	0,5	1,659200
10,233667	0,5	1,699300
10,242000	0,5	1,731650
10,250333	0,5	1,749350
10,258667	0,5	1,746700
10,267000	0,5	1,720700
10,275333	0,5	1,690700
10,283667	0,5	1,655100
10,292000	0,5	1,631200
10,300333	0,5	1,611700
10,308667	0,5	1,608300
10,317000	0,5	1,612050
10,325333	0,5	1,620900
10,333667	0,5	1,637550
10,342000	0,5	1,652250
10,350333	0,5	1,661100
10,358667	0,5	1,658000
10,367000	0,5	1,645900
10,375333	0,5	1,626650
10,383667	0,5	1,614200
10,392000	0,5	1,617100
10,400333	0,5	1,624000
10,408667	0,5	1,664750
10,417000	0,5	1,746700
10,425333	0,5	1,885800
10,433667	0,5	2,106950
10,442000	0,5	2,416550
10,450333	0,5	2,824100
10,458667	0,5	3,321050
10,467000	0,5	3,905900
10,475333	0,5	4,572150
10,483667	0,5	5,370750
10,492000	0,5	6,393400
10,500333	0,5	7,878850
10,508667	0,5	10,195250
10,517000	0,5	13,836600
10,525333	0,5	19,233350
10,533667	0,5	26,456650
10,542000	0,5	34,888601
10,550333	0,5	43,195901
10,558667	0,5	49,693551
10,567000	0,5	52,988351
10,575333	0,5	52,453451
10,583667	0,5	48,438051
10,592000	0,5	41,983151
10,600333	0,5	34,442551
10,608667	0,5	27,048500
10,617000	0,5	20,604000
10,625333	0,5	15,480400
10,633667	0,5	11,664650
10,642000	0,5	8,950800
10,650333	0,5	7,058900
10,658667	0,5	5,749200
10,667000	0,5	4,834500
10,675333	0,5	4,180100
10,683667	0,5	3,702050
10,692000	0,5	3,348500
10,700333	0,5	3,077550
10,708667	0,5	2,871400
10,717000	0,5	2,704950
10,725333	0,5	2,570250
10,733667	0,5	2,462250
10,742000	0,5	2,370400
10,750333	0,5	2,291050
10,758667	0,5	2,220900
10,767000	0,5	2,160500
10,775333	0,5	2,105100
10,783667	0,5	2,058300
10,792000	0,5	2,020100
10,800333	0,5	1,988450
10,808667	0,5	1,973400
10,817000	0,5	1,961400
10,825333	0,5	1,964100
10,833667	0,5	1,984200
10,842000	0,5	2,006500
10,850333	0,5	2,041750
10,858667	0,5	2,076650
10,867000	0,5	2,107050
10,875333	0,5	2,119450
10,883667	0,5	2,108650
10,892000	0,5	2,077850
10,900333	0,5	2,017550
10,908667	0,5	1,951300
10,917000	0,5	1,873950
10,925333	0,5	1,798100
10,933667	0,5	1,732250
10,942000	0,5	1,684600
10,950333	0,5	1,649250
10,958667	0,5	1,628100
10,967000	0,5	1,622900
10,975333	0,5	1,626450
10,983667	0,5	1,640950
10,992000	0,5	1,650800
11,000333	0,5	1,651000
11,008667	0,5	1,650800
11,017000	0,5	1,636450
11,025333	0,5	1,618250
11,033667	0,5	1,588950
11,042000	0,5	1,559200
11,050333	0,5	1,535450
11,058667	0,5	1,511250
11,067000	0,5	1,493050
11,075333	0,5	1,484900
11,083667	0,5	1,482200
11,092000	0,5	1,482900
11,100333	0,5	1,484300
11,108667	0,5	1,482800
11,117000	0,5	1,485900
11,125333	0,5	1,476400
11,133667	0,5	1,461000
11,142000	0,5	1,444150
11,150333	0,5	1,427200
11,158667	0,5	1,407850
11,167000	0,5	1,399850
11,175333	0,5	1,384950
11,183667	0,5	1,376400
11,192000	0,5	1,370950
11,200333	0,5	1,367250
11,208667	0,5	1,356950
11,217000	0,5	1,356400
11,225333	0,5	1,350300
11,233667	0,5	1,359400
11,242000	0,5	1,360900
11,250333	0,5	1,367950
11,258667	0,5	1,368900
11,267000	0,5	1,377950
11,275333	0,5	1,384250
11,283667	0,5	1,391050
11,292000	0,5	1,387950
11,300333	0,5	1,388650
11,308667	0,5	1,396100
11,317000	0,5	1,430500
11,325333	0,5	1,492300
11,333667	0,5	1,601450
11,342000	0,5	1,771550
11,350333	0,5	1,998500
11,358667	0,5	2,293900
11,367000	0,5	2,646850
11,375333	0,5	3,062050
11,383667	0,5	3,548850
11,392000	0,5	4,137150
11,400333	0,5	4,923900
11,408667	0,5	6,091150
11,417000	0,5	7,904300
11,425333	0,5	10,737600
11,433667	0,5	14,885550
11,442000	0,5	20,411600
11,450333	0,5	26,871300
11,458667	0,5	33,233100
11,467000	0,5	38,178451
11,475333	0,5	40,594001
11,483667	0,5	40,008801
11,492000	0,5	36,724001
11,500333	0,5	31,623950
11,508667	0,5	25,781400
11,517000	0,5	20,149500
11,525333	0,5	15,331650
11,533667	0,5	11,545750
11,542000	0,5	8,769150
11,550333	0,5	6,823300
11,558667	0,5	5,479800
11,567000	0,5	4,569400
11,575333	0,5	3,943150
11,583667	0,5	3,505350
11,592000	0,5	3,175850
11,600333	0,5	2,930150
11,608667	0,5	2,730100
11,617000	0,5	2,563050
11,625333	0,5	2,426150
11,633667	0,5	2,322700
11,642000	0,5	2,236950
11,650333	0,5	2,184050
11,658667	0,5	2,152750
11,667000	0,5	2,143600
11,675333	0,5	2,167450
11,683667	0,5	2,223450
11,692000	0,5	2,324550
11,700333	0,5	2,473550
11,708667	0,5	2,678900
11,717000	0,5	2,949350
11,725333	0,5	3,250400
11,733667	0,5	3,558350
11,742000	0,5	3,834200
11,750333	0,5	4,032000
11,758667	0,5	4,131100
11,767000	0,5	4,113750
11,775333	0,5	4,008200
11,783667	0,5	3,823200
11,792000	0,5	3,597800
11,800333	0,5	3,361350
11,808667	0,5	3,121550
11,817000	0,5	2,910800
11,825333	0,5	2,738750
11,833667	0,5	2,597350
11,842000	0,5	2,480550
11,850333	0,5	2,385300
11,858667	0,5	2,304050
11,867000	0,5	2,240200
11,875333	0,5	2,171900
11,883667	0,5	2,095950
11,892000	0,5	2,026550
11,900333	0,5	1,956600
11,908667	0,5	1,890100
11,917000	0,5	1,835750
11,925333	0,5	1,793350
11,933667	0,5	1,759000
11,942000	0,5	1,741450
11,950333	0,5	1,736950
11,958667	0,5	1,730350
11,967000	0,5	1,728100
11,975333	0,5	1,725800
11,983667	0,5	1,714700
11,992000	0,5	1,692600
12,000333	0,5	1,668400
12,008667	0,5	1,645350
12,017000	0,5	1,636150
12,025333	0,5	1,639900
12,033667	0,5	1,680450
12,042000	0,5	1,777700
12,050333	0,5	1,944150
12,058667	0,5	2,208350
12,067000	0,5	2,582900
12,075333	0,5	3,059850
12,083667	0,5	3,635350
12,092000	0,5	4,312350
12,100333	0,5	5,092050
12,108667	0,5	6,016950
12,117000	0,5	7,248000
12,125333	0,5	9,023050
12,133667	0,5	11,784400
12,142000	0,5	16,128400
12,150333	0,5	22,654350
12,158667	0,5	31,580200
12,167000	0,5	42,297001
12,175333	0,5	53,193151
12,183667	0,5	62,057251
12,192000	0,5	66,962601
12,200333	0,5	67,034051
12,208667	0,5	62,636301
12,217000	0,5	55,027251
12,225333	0,5	45,832501
12,233667	0,5	36,539301
12,242000	0,5	28,215250
12,250333	0,5	21,395850
12,258667	0,5	16,170400
12,267000	0,5	12,385250
12,275333	0,5	9,705300
12,283667	0,5	7,832800
12,292000	0,5	6,515750
12,300333	0,5	5,577350
12,308667	0,5	4,902400
12,317000	0,5	4,398300
12,325333	0,5	4,009100
12,333667	0,5	3,713050
12,342000	0,5	3,479900
12,350333	0,5	3,288250
12,358667	0,5	3,126250
12,367000	0,5	2,989300
12,375333	0,5	2,863200
12,383667	0,5	2,760050
12,392000	0,5	2,658600
12,400333	0,5	2,568650
12,408667	0,5	2,488600
12,417000	0,5	2,423350
12,425333	0,5	2,361000
12,433667	0,5	2,304700
12,442000	0,5	2,259700
12,450333	0,5	2,213300
12,458667	0,5	2,182750
12,467000	0,5	2,151800
12,475333	0,5	2,130400
12,483667	0,5	2,111650
12,492000	0,5	2,100800
12,500333	0,5	2,096500
12,508667	0,5	2,100600
12,517000	0,5	2,089750
12,525333	0,5	2,083850
12,533667	0,5	2,078950
12,542000	0,5	2,069400
12,550333	0,5	2,054300
12,558667	0,5	2,055000
12,567000	0,5	2,053700
12,575333	0,5	2,052600
12,583667	0,5	2,063850
12,592000	0,5	2,080050
12,600333	0,5	2,117200
12,608667	0,5	2,174800
12,617000	0,5	2,259850
12,625333	0,5	2,396950
12,633667	0,5	2,600100
12,642000	0,5	2,859850
12,650333	0,5	3,196000
12,658667	0,5	3,586800
12,667000	0,5	4,052800
12,675333	0,5	4,578400
12,683667	0,5	5,235250
12,692000	0,5	6,142450
12,700333	0,5	7,529650
12,708667	0,5	9,706800
12,717000	0,5	12,952500
12,725333	0,5	17,357000
12,733667	0,5	22,546050
12,742000	0,5	27,614000
12,750333	0,5	31,336750
12,758667	0,5	32,702400
12,767000	0,5	31,431000
12,775333	0,5	28,014000
12,783667	0,5	23,435600
12,792000	0,5	18,705750
12,800333	0,5	14,531650
12,808667	0,5	11,241050
12,817000	0,5	8,809700
12,825333	0,5	7,078250
12,833667	0,5	5,865650
12,842000	0,5	4,984450
12,850333	0,5	4,331950
12,858667	0,5	3,843050
12,867000	0,5	3,454950
12,875333	0,5	3,148750
12,883667	0,5	2,900850
12,892000	0,5	2,704700
12,900333	0,5	2,546000
12,908667	0,5	2,411850
12,917000	0,5	2,301350
12,925333	0,5	2,210700
12,933667	0,5	2,129300
12,942000	0,5	2,064500
12,950333	0,5	2,006850
12,958667	0,5	1,957150
12,967000	0,5	1,906900
12,975333	0,5	1,856950
12,983667	0,5	1,819250
12,992000	0,5	1,768200
13,000333	0,5	1,739050
13,008667	0,5	1,711050
13,017000	0,5	1,687900
13,025333	0,5	1,670950
13,033667	0,5	1,656000
13,042000	0,5	1,651250
13,050333	0,5	1,658300
13,058667	0,5	1,659000
13,067000	0,5	1,652900
13,075333	0,5	1,646900
13,083667	0,5	1,633900
13,092000	0,5	1,615450
13,100333	0,5	1,614600
13,108667	0,5	1,623900
13,117000	0,5	1,645600
13,125333	0,5	1,701600
13,133667	0,5	1,775400
13,142000	0,5	1,867250
13,150333	0,5	1,992500
13,158667	0,5	2,110150
13,167000	0,5	2,202150
13,175333	0,5	2,252250
13,183667	0,5	2,257900
13,192000	0,5	2,227550
13,200333	0,5	2,161550
13,208667	0,5	2,074450
13,217000	0,5	1,969350
13,225333	0,5	1,869150
13,233667	0,5	1,769350
13,242000	0,5	1,695350
13,250333	0,5	1,648600
13,258667	0,5	1,624100
13,267000	0,5	1,616450
13,275333	0,5	1,614150
13,283667	0,5	1,606000
13,292000	0,5	1,592650
13,300333	0,5	1,583100
13,308667	0,5	1,568150
13,317000	0,5	1,547200
13,325333	0,5	1,492300
13,333667	0,5	1,431250
13,342000	0,5	1,373300
13,350333	0,5	1,328800
13,358667	0,5	1,277900
13,367000	0,5	1,233200
13,375333	0,5	1,174500
13,383667	0,5	1,106700
13,392000	0,5	1,045200
13,400333	0,5	0,961900
13,408667	0,5	0,879300
13,417000	0,5	0,762500
13,425333	0,5	0,554150
13,433667	0,5	0,172800
13,442000	0,5	-0,276700
13,450333	0,5	-0,592650
13,458667	0,5	-0,779050
13,467000	0,5	-0,888300
13,475333	0,5	-0,970950
13,483667	0,5	-1,011000
13,492000	0,5	-1,031150
13,500333	0,5	-1,044850
13,508667	0,5	-1,049100
13,517000	0,5	-1,053200
13,525333	0,5	-1,051950
13,533667	0,5	-1,058050
13,542000	0,5	-1,061750
13,550333	0,5	-1,062600
13,558667	0,5	-1,059650
13,567000	0,5	-1,050250
13,575333	0,5	-1,043200
13,583667	0,5	-1,054050
13,592000	0,5	-1,044400
13,600333	0,5	-1,047450
13,608667	0,5	-1,052300
13,617000	0,5	-1,066450
13,625333	0,5	-1,065300
13,633667	0,5	-1,048100
13,642000	0,5	-1,032050
13,650333	0,5	-1,023750
13,658667	0,5	-1,017350
13,667000	0,5	-1,016900
13,675333	0,5	-1,037250
13,683667	0,5	-1,049050
13,692000	0,5	-1,076800
13,700333	0,5	-1,098000
13,708667	0,5	-1,116450
13,717000	0,5	-1,116200
13,725333	0,5	-1,127800
13,733667	0,5	-1,118450
13,742000	0,5	-1,100850
13,750333	0,5	-1,083750
13,758667	0,5	-1,069000
13,767000	0,5	-1,049750
13,775333	0,5	-1,019700
13,783667	0,5	-0,984500
13,792000	0,5	-0,955050
13,800333	0,5	-0,925350
13,808667	0,5	-0,893900
13,817000	0,5	-0,858400
13,825333	0,5	-0,829350
13,833667	0,5	-0,801250
13,842000	0,5	-0,784900
13,850333	0,5	-0,786400
13,858667	0,5	-0,784900
13,867000	0,5	-0,799150
13,875333	0,5	-0,822250
13,883667	0,5	-0,835150
13,892000	0,5	-0,839300
13,900333	0,5	-0,842050
13,908667	0,5	-0,839350
13,917000	0,5	-0,833900
13,925333	0,5	-0,811700
13,933667	0,5	-0,781750
13,942000	0,5	-0,754100
13,950333	0,5	-0,732650
13,958667	0,5	-0,714900
13,967000	0,5	-0,700250
13,975333	0,5	-0,695150
13,983667	0,5	-0,693800
13,992000	0,5	-0,704750
14,000333	0,5	-0,714600
14,008667	0,5	-0,717250
14,017000	0,5	-0,721800
14,025333	0,5	-0,743450
14,033667	0,5	-0,731050
14,042000	0,5	-0,733300
14,050333	0,5	-0,725200
14,058667	0,5	-0,724450
14,067000	0,5	-0,711700
14,075333	0,5	-0,686250
14,083667	0,5	-0,653950
14,092000	0,5	-0,635600
14,100333	0,5	-0,605200
14,108667	0,5	-0,582600
14,117000	0,5	-0,564200
14,125333	0,5	-0,541300
14,133667	0,5	-0,511700
14,142000	0,5	-0,490300
14,150333	0,5	-0,457250
14,158667	0,5	-0,417300
14,167000	0,5	-0,381550
14,175333	0,5	-0,336450
14,183667	0,5	-0,275100
14,192000	0,5	-0,221500
14,200333	0,5	-0,158800
14,208667	0,5	-0,104900
14,217000	0,5	-0,054150
14,225333	0,5	0,007050
14,233667	0,5	0,045950
14,242000	0,5	0,075650
14,250333	0,5	0,099800
14,258667	0,5	0,127950
14,267000	0,5	0,149600
14,275333	0,5	0,182700
14,283667	0,5	0,208350
14,292000	0,5	0,231850
14,300333	0,5	0,258500
14,308667	0,5	0,270550
14,317000	0,5	0,273400
14,325333	0,5	0,287050
14,333667	0,5	0,308650
14,342000	0,5	0,323800
14,350333	0,5	0,346450
14,358667	0,5	0,358300
14,367000	0,5	0,411750
14,375333	0,5	0,477050
14,383667	0,5	0,569150
14,392000	0,5	0,673650
14,400333	0,5	0,806450
14,408667	0,5	0,919550
14,417000	0,5	1,007500
14,425333	0,5	1,047300
14,433667	0,5	1,040200
14,442000	0,5	0,992350
14,450333	0,5	0,929900
14,458667	0,5	0,863900
14,467000	0,5	0,808350
14,475333	0,5	0,784550
14,483667	0,5	0,784900
14,492000	0,5	0,796600
14,500333	0,5	0,829800
14,508667	0,5	0,873500
14,517000	0,5	0,921800
14,525333	0,5	0,964100
14,533667	0,5	0,979700
14,542000	0,5	0,993650
14,550333	0,5	0,982200
14,558667	0,5	0,973300
14,567000	0,5	0,953650
14,575333	0,5	0,950150
14,583667	0,5	0,934800
14,592000	0,5	0,924900
14,600333	0,5	0,921500
14,608667	0,5	0,908250
14,617000	0,5	0,895850
14,625333	0,5	0,897250
14,633667	0,5	0,882500
14,642000	0,5	0,856250
14,650333	0,5	0,815350
14,658667	0,5	0,776700
14,667000	0,5	0,752650
14,675333	0,5	0,739200
14,683667	0,5	0,729050
14,692000	0,5	0,724500
14,700333	0,5	0,723550
14,708667	0,5	0,712500
14,717000	0,5	0,701550
14,725333	0,5	0,686200
14,733667	0,5	0,668400
14,742000	0,5	0,657400
14,750333	0,5	0,658350
14,758667	0,5	0,648250
14,767000	0,5	0,659500
14,775333	0,5	0,666650
14,783667	0,5	0,676400
14,792000	0,5	0,665750
14,800333	0,5	0,651100
14,808667	0,5	0,644000
14,817000	0,5	0,633900
14,825333	0,5	0,618650
14,833667	0,5	0,610700
14,842000	0,5	0,599100
14,850333	0,5	0,587300
14,858667	0,5	0,577950
14,867000	0,5	0,568900
14,875333	0,5	0,568050
14,883667	0,5	0,557750
14,892000	0,5	0,562100
14,900333	0,5	0,567750
14,908667	0,5	0,575550
14,917000	0,5	0,597950
14,925333	0,5	0,619950
14,933667	0,5	0,643400
14,942000	0,5	0,671900
14,950333	0,5	0,690550
14,958667	0,5	0,759500
14,967000	0,5	0,845250
14,975333	0,5	0,950250
14,983667	0,5	1,055600
14,992000	0,5	1,139150
15,000333	0,5	1,164850
15,008667	0,5	1,136250
15,017000	0,5	1,069400
15,025333	0,5	0,979300
15,033667	0,5	0,894750
15,042000	0,5	0,838950
15,050333	0,5	0,811400
15,058667	0,5	0,811600
15,067000	0,5	0,839050
15,075333	0,5	0,856550
15,083667	0,5	0,874700
15,092000	0,5	0,861800
15,100333	0,5	0,837350
15,108667	0,5	0,794650
15,117000	0,5	0,751400
15,125333	0,5	0,705550
15,133667	0,5	0,669250
15,142000	0,5	0,638200
15,150333	0,5	0,619700
15,158667	0,5	0,602000
15,167000	0,5	0,588250
15,175333	0,5	0,574300
15,183667	0,5	0,563800
15,192000	0,5	0,564650
15,200333	0,5	0,550100
15,208667	0,5	0,557750
15,217000	0,5	0,568250
15,225333	0,5	0,567750
15,233667	0,5	0,571100
15,242000	0,5	0,562150
15,250333	0,5	0,561300
15,258667	0,5	0,564700
15,267000	0,5	0,554450
15,275333	0,5	0,548150
15,283667	0,5	0,533150
15,292000	0,5	0,531750
15,300333	0,5	0,520250
15,308667	0,5	0,514000
15,317000	0,5	0,499400
15,325333	0,5	0,483750
15,333667	0,5	0,482700
15,342000	0,5	0,469900
15,350333	0,5	0,448750
15,358667	0,5	0,449650
15,367000	0,5	0,450500
15,375333	0,5	0,434800
15,383667	0,5	0,426200
15,392000	0,5	0,411750
15,400333	0,5	0,417600
15,408667	0,5	0,415550
15,417000	0,5	0,415650
15,425333	0,5	0,415250
15,433667	0,5	0,421950
15,442000	0,5	0,434350
15,450333	0,5	0,470000
15,458667	0,5	0,527850
15,467000	0,5	0,607950
15,475333	0,5	0,724700
15,483667	0,5	0,852500
15,492000	0,5	0,945150
15,500333	0,5	1,000900
15,508667	0,5	0,996450
15,517000	0,5	0,946400
15,525333	0,5	0,867100
15,533667	0,5	0,779550
15,542000	0,5	0,743100
15,550333	0,5	0,743250
15,558667	0,5	0,763950
15,567000	0,5	0,790250
15,575333	0,5	0,812950
15,583667	0,5	0,801350
15,592000	0,5	0,781950
15,600333	0,5	0,742850
15,608667	0,5	0,700600
15,617000	0,5	0,656400
15,625333	0,5	0,624250
15,633667	0,5	0,605000
15,642000	0,5	0,578350
15,650333	0,5	0,588150
15,658667	0,5	0,582500
15,667000	0,5	0,583150
15,675333	0,5	0,571500
15,683667	0,5	0,537900
15,692000	0,5	0,523850
15,700333	0,5	0,524500
15,708667	0,5	0,507250
15,717000	0,5	0,497600
15,725333	0,5	0,492200
15,733667	0,5	0,486750
15,742000	0,5	0,472150
15,750333	0,5	0,463100
15,758667	0,5	0,440200
15,767000	0,5	0,419150
15,775333	0,5	0,408900
15,783667	0,5	0,391800
15,792000	0,5	0,351900
15,800333	0,5	0,349250
15,808667	0,5	0,333500
15,817000	0,5	0,319950
15,825333	0,5	0,302250
15,833667	0,5	0,278950
15,842000	0,5	0,280200
15,850333	0,5	0,279900
15,858667	0,5	0,271750
15,867000	0,5	0,270400
15,875333	0,5	0,283400
15,883667	0,5	0,289500
15,892000	0,5	0,318950
15,900333	0,5	0,361450
15,908667	0,5	0,435350
15,917000	0,5	0,538000
15,925333	0,5	0,680800
15,933667	0,5	0,798850
15,942000	0,5	0,882100
15,950333	0,5	0,920700
15,958667	0,5	0,899600
15,967000	0,5	0,834950
15,975333	0,5	0,767650
15,983667	0,5	0,715350
15,992000	0,5	0,706450
16,000333	0,5	0,706900
16,008667	0,5	0,705850
16,017000	0,5	0,687750
16,025333	0,5	0,654800
16,033667	0,5	0,607950
16,042000	0,5	0,564750
16,050333	0,5	0,526600
16,058667	0,5	0,487700
16,067000	0,5	0,473650
16,075333	0,5	0,454650
16,083667	0,5	0,430000
16,092000	0,5	0,417150
16,100333	0,5	0,421150
16,108667	0,5	0,413100
16,117000	0,5	0,416750
16,125333	0,5	0,401450
16,133667	0,5	0,395300
16,142000	0,5	0,393000
16,150333	0,5	0,380700
16,158667	0,5	0,370300
16,167000	0,5	0,348100
16,175333	0,5	0,337650
16,183667	0,5	0,322100
16,192000	0,5	0,305450
16,200333	0,5	0,291250
16,208667	0,5	0,283000
16,217000	0,5	0,276850
16,225333	0,5	0,271750
16,233667	0,5	0,260000
16,242000	0,5	0,269500
16,250333	0,5	0,270600
16,258667	0,5	0,271300
16,267000	0,5	0,259750
16,275333	0,5	0,257350
16,283667	0,5	0,260900
16,292000	0,5	0,286800
16,300333	0,5	0,317300
16,308667	0,5	0,397850
16,317000	0,5	0,501350
16,325333	0,5	0,629100
16,333667	0,5	0,753150
16,342000	0,5	0,853150
16,350333	0,5	0,888700
16,358667	0,5	0,874250
16,367000	0,5	0,829150
16,375333	0,5	0,780050
16,383667	0,5	0,737800
16,392000	0,5	0,720300
16,400333	0,5	0,690650
16,408667	0,5	0,649050
16,417000	0,5	0,583650
16,425333	0,5	0,512450
16,433667	0,5	0,466850
16,442000	0,5	0,418850
16,450333	0,5	0,386600
16,458667	0,5	0,360000
16,467000	0,5	0,355200
16,475333	0,5	0,352050
16,483667	0,5	0,356900
16,492000	0,5	0,366950
16,500333	0,5	0,371850
16,508667	0,5	0,383950
16,517000	0,5	0,395800
16,525333	0,5	0,383850
16,533667	0,5	0,387900
16,542000	0,5	0,382650
16,550333	0,5	0,363350
16,558667	0,5	0,340100
16,567000	0,5	0,300000
16,575333	0,5	0,294350
16,583667	0,5	0,274500
16,592000	0,5	0,266350
16,600333	0,5	0,239600
16,608667	0,5	0,234850
16,617000	0,5	0,226100
16,625333	0,5	0,230650
16,633667	0,5	0,240650
16,642000	0,5	0,253450
16,650333	0,5	0,279550
16,658667	0,5	0,327650
16,667000	0,5	0,403650
16,675333	0,5	0,493950
16,683667	0,5	0,639450
16,692000	0,5	0,786050
16,700333	0,5	0,912300
16,708667	0,5	0,982000
16,717000	0,5	1,000150
16,725333	0,5	1,014400
16,733667	0,5	1,007850
16,742000	0,5	0,987250
16,750333	0,5	0,969750
16,758667	0,5	0,939200
16,767000	0,5	0,899700
16,775333	0,5	0,856350
16,783667	0,5	0,827050
16,792000	0,5	0,795650
16,800333	0,5	0,771450
16,808667	0,5	0,760350
16,817000	0,5	0,756150
16,825333	0,5	0,739150
16,833667	0,5	0,726550
16,842000	0,5	0,694050
16,850333	0,5	0,659300
16,858667	0,5	0,596950
16,867000	0,5	0,545800
16,875333	0,5	0,520200
16,883667	0,5	0,472700
16,892000	0,5	0,429050
16,900333	0,5	0,389650
16,908667	0,5	0,351600
16,917000	0,5	0,323900
16,925333	0,5	0,307150
16,933667	0,5	0,286900
16,942000	0,5	0,274700
16,950333	0,5	0,256100
16,958667	0,5	0,257700
16,967000	0,5	0,241900
16,975333	0,5	0,269800
16,983667	0,5	0,317650
16,992000	0,5	0,391800
17,000333	0,5	0,485000
17,008667	0,5	0,580050
17,017000	0,5	0,667350
17,025333	0,5	0,730050
17,033667	0,5	0,735150
17,042000	0,5	0,707700
17,050333	0,5	0,666900
17,058667	0,5	0,620750
17,067000	0,5	0,574800
17,075333	0,5	0,529100
17,083667	0,5	0,483450
17,092000	0,5	0,441950
17,100333	0,5	0,425850
17,108667	0,5	0,394550
17,117000	0,5	0,392700
17,125333	0,5	0,403600
17,133667	0,5	0,421950
17,142000	0,5	0,432450
17,150333	0,5	0,432650
17,158667	0,5	0,439200
17,167000	0,5	0,453350
17,175333	0,5	0,474250
17,183667	0,5	0,498200
17,192000	0,5	0,535600
17,200333	0,5	0,588200
17,208667	0,5	0,666350
17,217000	0,5	0,767500
17,225333	0,5	0,925450
17,233667	0,5	1,103800
17,242000	0,5	1,328850
17,250333	0,5	1,590050
17,258667	0,5	1,875800
17,267000	0,5	2,197900
17,275333	0,5	2,538100
17,283667	0,5	2,863700
17,292000	0,5	3,169900
17,300333	0,5	3,403550
17,308667	0,5	3,587600
17,317000	0,5	3,672400
17,325333	0,5	3,674700
17,333667	0,5	3,582400
17,342000	0,5	3,432700
17,350333	0,5	3,228150
17,358667	0,5	2,966050
17,367000	0,5	2,685000
17,375333	0,5	2,399350
17,383667	0,5	2,143150
17,392000	0,5	1,906200
17,400333	0,5	1,715350
17,408667	0,5	1,528100
17,417000	0,5	1,406650
17,425333	0,5	1,296300
17,433667	0,5	1,203900
17,442000	0,5	1,109450
17,450333	0,5	1,025200
17,458667	0,5	0,975750
17,467000	0,5	0,934650
17,475333	0,5	0,879000
17,483667	0,5	0,848300
17,492000	0,5	0,815300
17,500333	0,5	0,804300
17,508667	0,5	0,801650
17,517000	0,5	0,815550
17,525333	0,5	0,844050
17,533667	0,5	0,896200
17,542000	0,5	0,988650
17,550333	0,5	1,080550
17,558667	0,5	1,161950
17,567000	0,5	1,242500
17,575333	0,5	1,277300
17,583667	0,5	1,264450
17,592000	0,5	1,226850
17,600333	0,5	1,146750
17,608667	0,5	1,093850
17,617000	0,5	1,010800
17,625333	0,5	0,920100
17,633667	0,5	0,844950
17,642000	0,5	0,786500
17,650333	0,5	0,726650
17,658667	0,5	0,680000
17,667000	0,5	0,637400
17,675333	0,5	0,594950
17,683667	0,5	0,559200
17,692000	0,5	0,531200
17,700333	0,5	0,480100
17,708667	0,5	0,452300
17,717000	0,5	0,425450
17,725333	0,5	0,396700
17,733667	0,5	0,366900
17,742000	0,5	0,338100
17,750333	0,5	0,327950
17,758667	0,5	0,327400
17,767000	0,5	0,342650
17,775333	0,5	0,368100
17,783667	0,5	0,419500
17,792000	0,5	0,475800
17,800333	0,5	0,537700
17,808667	0,5	0,566650
17,817000	0,5	0,581100
17,825333	0,5	0,569200
17,833667	0,5	0,539350
17,842000	0,5	0,510800
17,850333	0,5	0,462550
17,858667	0,5	0,436800
17,867000	0,5	0,401900
17,875333	0,5	0,369750
17,883667	0,5	0,345000
17,892000	0,5	0,312900
17,900333	0,5	0,298650
17,908667	0,5	0,290300
17,917000	0,5	0,271850
17,925333	0,5	0,262000
17,933667	0,5	0,241750
17,942000	0,5	0,233000
17,950333	0,5	0,229850
17,958667	0,5	0,236350
17,967000	0,5	0,241250
17,975333	0,5	0,251500
17,983667	0,5	0,266150
17,992000	0,5	0,298000
18,000333	0,5	0,328600
18,008667	0,5	0,390100
18,017000	0,5	0,440450
18,025333	0,5	0,475450
18,033667	0,5	0,466400
18,042000	0,5	0,444450
18,050333	0,5	0,423200
18,058667	0,5	0,387700
18,067000	0,5	0,352350
18,075333	0,5	0,315550
18,083667	0,5	0,288500
18,092000	0,5	0,255400
18,100333	0,5	0,244600
18,108667	0,5	0,227800
18,117000	0,5	0,217300
18,125333	0,5	0,210500
18,133667	0,5	0,209850
18,142000	0,5	0,182400
18,150333	0,5	0,194500
18,158667	0,5	0,201150
18,167000	0,5	0,203550
18,175333	0,5	0,206550
18,183667	0,5	0,196700
18,192000	0,5	0,225950
18,200333	0,5	0,274200
18,208667	0,5	0,321100
18,217000	0,5	0,369650
18,225333	0,5	0,405950
18,233667	0,5	0,395900
18,242000	0,5	0,379150
18,250333	0,5	0,350500
18,258667	0,5	0,324850
18,267000	0,5	0,286750
18,275333	0,5	0,277050
18,283667	0,5	0,254700
18,292000	0,5	0,222600
18,300333	0,5	0,214700
18,308667	0,5	0,213450
18,317000	0,5	0,198500
18,325333	0,5	0,188950
18,333667	0,5	0,161550
18,342000	0,5	0,170100
18,350333	0,5	0,181400
18,358667	0,5	0,189700
18,367000	0,5	0,205950
18,375333	0,5	0,247350
18,383667	0,5	0,290250
18,392000	0,5	0,333000
18,400333	0,5	0,362350
18,408667	0,5	0,363800
18,417000	0,5	0,355200
18,425333	0,5	0,333050
18,433667	0,5	0,293100
18,442000	0,5	0,262000
18,450333	0,5	0,250900
18,458667	0,5	0,240850
18,467000	0,5	0,225150
18,475333	0,5	0,191450
18,483667	0,5	0,183900
18,492000	0,5	0,188600
18,500333	0,5	0,185200
18,508667	0,5	0,182050
18,517000	0,5	0,193300
18,525333	0,5	0,199300
18,533667	0,5	0,208700
18,542000	0,5	0,237400
18,550333	0,5	0,265550
18,558667	0,5	0,295750
18,567000	0,5	0,308500
18,575333	0,5	0,316100
18,583667	0,5	0,290650
18,592000	0,5	0,271500
18,600333	0,5	0,251050
18,608667	0,5	0,237750
18,617000	0,5	0,204400
18,625333	0,5	0,172850
18,633667	0,5	0,165100
18,642000	0,5	0,161750
18,650333	0,5	0,146350
18,658667	0,5	0,151700
18,667000	0,5	0,150050
18,675333	0,5	0,153100
18,683667	0,5	0,155550
18,692000	0,5	0,164900
18,700333	0,5	0,180300
18,708667	0,5	0,194000
18,717000	0,5	0,222950
18,725333	0,5	0,238850
18,733667	0,5	0,216250
18,742000	0,5	0,213850
18,750333	0,5	0,198900
18,758667	0,5	0,179550
18,767000	0,5	0,160750
18,775333	0,5	0,128800
18,783667	0,5	0,134400
18,792000	0,5	0,132800
18,800333	0,5	0,142250
18,808667	0,5	0,144650
18,817000	0,5	0,154850
18,825333	0,5	0,168250
18,833667	0,5	0,194900
18,842000	0,5	0,234800
18,850333	0,5	0,265850
18,858667	0,5	0,325700
18,867000	0,5	0,382100
18,875333	0,5	0,399050
18,883667	0,5	0,407550
18,892000	0,5	0,412200
18,900333	0,5	0,394400
18,908667	0,5	0,371750
18,917000	0,5	0,332200
18,925333	0,5	0,295050
18,933667	0,5	0,263350
18,942000	0,5	0,236450
18,950333	0,5	0,206500
18,958667	0,5	0,202200
18,967000	0,5	0,199700
18,975333	0,5	0,207900
18,983667	0,5	0,216850
18,992000	0,5	0,218900
19,000333	0,5	0,213350
19,008667	0,5	0,201500
19,017000	0,5	0,184100
19,025333	0,5	0,148950
19,033667	0,5	0,140350
19,042000	0,5	0,116250
19,050333	0,5	0,089900
19,058667	0,5	0,064850
19,067000	0,5	0,050350
19,075333	0,5	0,052250
19,083667	0,5	0,068350
19,092000	0,5	0,065400
19,100333	0,5	0,081100
19,108667	0,5	0,084650
19,117000	0,5	0,087450
19,125333	0,5	0,074850
19,133667	0,5	0,055050
19,142000	0,5	0,034350
19,150333	0,5	0,021900
19,158667	0,5	0,026700
19,167000	0,5	0,026950
19,175333	0,5	0,027300
19,183667	0,5	0,044550
19,192000	0,5	0,050250
19,200333	0,5	0,049300
19,208667	0,5	0,042600
19,217000	0,5	0,030500
19,225333	0,5	0,043150
19,233667	0,5	0,023550
19,242000	0,5	0,015150
19,250333	0,5	-0,004450
19,258667	0,5	-0,020200
19,267000	0,5	-0,033400
19,275333	0,5	-0,041300
19,283667	0,5	-0,049650
19,292000	0,5	-0,065300
19,300333	0,5	-0,056200
19,308667	0,5	-0,051800
19,317000	0,5	-0,073750
19,325333	0,5	-0,057600
19,333667	0,5	-0,064450
19,342000	0,5	-0,071500
19,350333	0,5	-0,088900
19,358667	0,5	-0,137000
19,367000	0,5	-0,134400
19,375333	0,5	-0,144450
19,383667	0,5	-0,141750
19,392000	0,5	-0,148350
19,400333	0,5	-0,132450
19,408667	0,5	-0,135750
19,417000	0,5	-0,137300
19,425333	0,5	-0,146600
19,433667	0,5	-0,156850
19,442000	0,5	-0,167000
19,450333	0,5	-0,168150
19,458667	0,5	-0,179750
19,467000	0,5	-0,199700
19,475333	0,5	-0,174650
19,483667	0,5	-0,167550
19,492000	0,5	-0,171600
19,500333	0,5	-0,188650
19,508667	0,5	-0,218750
19,517000	0,5	-0,213600
19,525333	0,5	-0,209950
19,533667	0,5	-0,223100
19,542000	0,5	-0,218500
19,550333	0,5	-0,218950
19,558667	0,5	-0,218600
19,567000	0,5	-0,226700
19,575333	0,5	-0,217200
19,583667	0,5	-0,228100
19,592000	0,5	-0,220050
19,600333	0,5	-0,224850
19,608667	0,5	-0,225000
19,617000	0,5	-0,246150
19,625333	0,5	-0,243500
19,633667	0,5	-0,254500
19,642000	0,5	-0,268850
19,650333	0,5	-0,287900
19,658667	0,5	-0,309000
19,667000	0,5	-0,311950
19,675333	0,5	-0,327250
19,683667	0,5	-0,331800
19,692000	0,5	-0,340700
19,700333	0,5	-0,332450
19,708667	0,5	-0,334050
19,717000	0,5	-0,324200
19,725333	0,5	-0,334250
19,733667	0,5	-0,340500
19,742000	0,5	-0,347100
19,750333	0,5	-0,337450
19,758667	0,5	-0,360400
19,767000	0,5	-0,356400
19,775333	0,5	-0,370800
19,783667	0,5	-0,378500
19,792000	0,5	-0,400900
19,800333	0,5	-0,437400
19,808667	0,5	-0,443800
19,817000	0,5	-0,445550
19,825333	0,5	-0,457050
19,833667	0,5	-0,469000
19,842000	0,5	-0,481100
19,850333	0,5	-0,494050
19,858667	0,5	-0,500700
19,867000	0,5	-0,515600
19,875333	0,5	-0,526700
19,883667	0,5	-0,544800
19,892000	0,5	-0,539950
19,900333	0,5	-0,549450
19,908667	0,5	-0,559700
19,917000	0,5	-0,559200
19,925333	0,5	-0,566600
19,933667	0,5	-0,583250
19,942000	0,5	-0,605550
19,950333	0,5	-0,629900
19,958667	0,5	-0,632400
19,967000	0,5	-0,627500
19,975333	0,5	-0,640450
19,983667	0,5	-0,637550
19,992000	0,5	-0,639100
20,000333	0,5	-0,645750
20,008667	0,5	-0,645350
20,017000	0,5	-0,646100
20,025333	0,5	-0,658950
20,033667	0,5	-0,657900
20,042000	0,5	-0,660150
20,050333	0,5	-0,682900
20,058667	0,5	-0,690200
20,067000	0,5	-0,689750
20,075333	0,5	-0,711200
20,083667	0,5	-0,721850
20,092000	0,5	-0,759300
20,100333	0,5	-0,767000
20,108667	0,5	-0,769300
20,117000	0,5	-0,775500
20,125333	0,5	-0,780750
20,133667	0,5	-0,786550
20,142000	0,5	-0,791850
20,150333	0,5	-0,803700
20,158667	0,5	-0,807550
20,167000	0,5	-0,817900
20,175333	0,5	-0,828950
20,183667	0,5	-0,846250
20,192000	0,5	-0,845500
20,200333	0,5	-0,868000
20,208667	0,5	-0,859850
20,217000	0,5	-0,866150
20,225333	0,5	-0,870650
20,233667	0,5	-0,896150
20,242000	0,5	-0,916250
20,250333	0,5	-0,911750
20,258667	0,5	-0,918800
20,267000	0,5	-0,936500
20,275333	0,5	-0,945250
20,283667	0,5	-0,967200
20,292000	0,5	-0,980950
20,300333	0,5	-0,988250
20,308667	0,5	-1,003100
20,317000	0,5	-1,012450
20,325333	0,5	-1,020450
20,333667	0,5	-1,010850
20,342000	0,5	-1,027600
20,350333	0,5	-1,029350
20,358667	0,5	-1,044900
20,367000	0,5	-1,049700
20,375333	0,5	-1,069250
20,383667	0,5	-1,110200
20,392000	0,5	-1,133550
20,400333	0,5	-1,124400
20,408667	0,5	-1,138850
20,417000	0,5	-1,157650
20,425333	0,5	-1,176950
20,433667	0,5	-1,191500
20,442000	0,5	-1,201950
20,450333	0,5	-1,218750
20,458667	0,5	-1,232700
20,467000	0,5	-1,255650
20,475333	0,5	-1,257350
20,483667	0,5	-1,256700
20,492000	0,5	-1,288200
20,500333	0,5	-1,295500
20,508667	0,5	-1,303850
20,517000	0,5	-1,311400
20,525333	0,5	-1,337850
20,533667	0,5	-1,381900
20,542000	0,5	-1,374800
20,550333	0,5	-1,395750
20,558667	0,5	-1,399450
20,567000	0,5	-1,420350
20,575333	0,5	-1,426000
20,583667	0,5	-1,433350
20,592000	0,5	-1,456250
20,600333	0,5	-1,464150
20,608667	0,5	-1,485500
20,617000	0,5	-1,513550
20,625333	0,5	-1,511150
20,633667	0,5	-1,521350
20,642000	0,5	-1,550450
20,650333	0,5	-1,565850
20,658667	0,5	-1,597350
20,667000	0,5	-1,621850
20,675333	0,5	-1,659500
20,683667	0,5	-1,700000
20,692000	0,5	-1,718550
20,700333	0,5	-1,729700
20,708667	0,5	-1,765500
20,717000	0,5	-1,775850
20,725333	0,5	-1,792750
20,733667	0,5	-1,804150
20,742000	0,5	-1,815900
20,750333	0,5	-1,815150
20,758667	0,5	-1,824800
20,767000	0,5	-1,812850
20,775333	0,5	-1,803850
20,783667	0,5	-1,812550
20,792000	0,5	-1,841900
20,800333	0,5	-1,874600
20,808667	0,5	-1,917350
20,817000	0,5	-1,975300
20,825333	0,5	-2,021850
20,833667	0,5	-2,073750
20,842000	0,5	-2,087650
20,850333	0,5	-2,113200
20,858667	0,5	-2,138750
20,867000	0,5	-2,162500
20,875333	0,5	-2,182800
20,883667	0,5	-2,207050
20,892000	0,5	-2,221000
20,900333	0,5	-2,253750
20,908667	0,5	-2,284550
20,917000	0,5	-2,267950
20,925333	0,5	-2,262150
20,933667	0,5	-2,287750
20,942000	0,5	-2,293150
20,950333	0,5	-2,316200
20,958667	0,5	-2,350500
20,967000	0,5	-2,394550
20,975333	0,5	-2,445250
20,983667	0,5	-2,468050
20,992000	0,5	-2,502100
21,000333	0,5	-2,524150
21,008667	0,5	-2,551700
21,017000	0,5	-2,563900
21,025333	0,5	-2,591400
21,033667	0,5	-2,604900
21,042000	0,5	-2,628900
21,050333	0,5	-2,645300
21,058667	0,5	-2,655150
21,067000	0,5	-2,642050
21,075333	0,5	-2,650100
21,083667	0,5	-2,669000
21,092000	0,5	-2,693800
21,100333	0,5	-2,726550
21,108667	0,5	-2,755700
21,117000	0,5	-2,805900
21,125333	0,5	-2,811350
21,133667	0,5	-2,831300
21,142000	0,5	-2,841400
21,150333	0,5	-2,873000
21,158667	0,5	-2,880150
21,167000	0,5	-2,900450
21,175333	0,5	-2,918900
21,183667	0,5	-2,935450
21,192000	0,5	-2,947200
21,200333	0,5	-2,957800
21,208667	0,5	-2,944500
21,217000	0,5	-2,937950
21,225333	0,5	-2,943650
21,233667	0,5	-2,960050
21,242000	0,5	-2,975650
21,250333	0,5	-2,989200
21,258667	0,5	-3,015750
21,267000	0,5	-3,040300
21,275333	0,5	-3,049800
21,283667	0,5	-3,044650
21,292000	0,5	-3,058800
21,300333	0,5	-3,051100
21,308667	0,5	-3,059950
21,317000	0,5	-3,057450
21,325333	0,5	-3,062500
21,333667	0,5	-3,043700
21,342000	0,5	-3,037850
21,350333	0,5	-3,043200
21,358667	0,5	-3,022650
21,367000	0,5	-3,013000
21,375333	0,5	-3,044400
21,383667	0,5	-3,052800
21,392000	0,5	-3,069050
21,400333	0,5	-3,099850
21,408667	0,5	-3,126450
21,417000	0,5	-3,156900
21,425333	0,5	-3,143000
21,433667	0,5	-3,153000
21,442000	0,5	-3,150250
21,450333	0,5	-3,150000
21,458667	0,5	-3,143050
21,467000	0,5	-3,145250
21,475333	0,5	-3,138300
21,483667	0,5	-3,133500
21,492000	0,5	-3,136900
21,500333	0,5	-3,105400
21,508667	0,5	-3,057750
21,517000	0,5	-3,039750
21,525333	0,5	-3,006050
21,533667	0,5	-2,971950
21,542000	0,5	-2,959300
21,550333	0,5	-2,968850
21,558667	0,5	-3,014450
21,567000	0,5	-3,025700
21,575333	0,5	-3,048500
21,583667	0,5	-3,047700
21,592000	0,5	-3,067850
21,600333	0,5	-3,056550
21,608667	0,5	-3,054700
21,617000	0,5	-3,041850
21,625333	0,5	-3,046900
21,633667	0,5	-3,024950
21,642000	0,5	-2,997300
21,650333	0,5	-2,952300
21,658667	0,5	-2,914350
21,667000	0,5	-2,890400
21,675333	0,5	-2,864350
21,683667	0,5	-2,851350
21,692000	0,5	-2,829000
21,700333	0,5	-2,858200
21,708667	0,5	-2,875600
21,717000	0,5	-2,893700
21,725333	0,5	-2,906950
21,733667	0,5	-2,924300
21,742000	0,5	-2,919000
21,750333	0,5	-2,918800
21,758667	0,5	-2,915800
21,767000	0,5	-2,917750
21,775333	0,5	-2,922500
21,783667	0,5	-2,921550
21,792000	0,5	-2,933050
21,800333	0,5	-2,920000
21,808667	0,5	-2,936750
21,817000	0,5	-2,949250
21,825333	0,5	-2,961950
21,833667	0,5	-2,971350
21,842000	0,5	-2,984700
21,850333	0,5	-3,003000
21,858667	0,5	-3,011400
21,867000	0,5	-2,994950
21,875333	0,5	-2,995150
21,883667	0,5	-3,000350
21,892000	0,5	-3,017450
21,900333	0,5	-3,029700
21,908667	0,5	-3,034550
21,917000	0,5	-3,043850
21,925333	0,5	-3,046350
21,933667	0,5	-3,056750
21,942000	0,5	-3,031150
21,950333	0,5	-3,023000
21,958667	0,5	-3,004250
21,967000	0,5	-2,979450
21,975333	0,5	-2,962450
21,983667	0,5	-2,967900
21,992000	0,5	-2,992400
22,000333	0,5	-3,015100
22,008667	0,5	-3,010100
22,017000	0,5	-3,020650
22,025333	0,5	-3,022850
22,033667	0,5	-3,043300
22,042000	0,5	-3,040500
22,050333	0,5	-3,056400
22,058667	0,5	-3,060200
22,067000	0,5	-3,059250
22,075333	0,5	-3,059500
22,083667	0,5	-3,053500
22,092000	0,5	-3,053350
22,100333	0,5	-3,064450
22,108667	0,5	-3,049050
22,117000	0,5	-3,039050
22,125333	0,5	-3,042350
22,133667	0,5	-3,043700
22,142000	0,5	-3,058800
22,150333	0,5	-3,042850
22,158667	0,5	-3,035000
22,167000	0,5	-3,008050
22,175333	0,5	-3,018700
22,183667	0,5	-3,000600
22,192000	0,5	-2,993700
22,200333	0,5	-2,975750
22,208667	0,5	-2,962500
22,217000	0,5	-2,946900
22,225333	0,5	-2,930300
22,233667	0,5	-2,945100
22,242000	0,5	-2,938000
22,250333	0,5	-2,915400
22,258667	0,5	-2,883600
22,267000	0,5	-2,862650
22,275333	0,5	-2,843950
22,283667	0,5	-2,834050
22,292000	0,5	-2,806050
22,300333	0,5	-2,764250
22,308667	0,5	-2,725650
22,317000	0,5	-2,696850
22,325333	0,5	-2,656450
22,333667	0,5	-2,626300
22,342000	0,5	-2,603750
22,350333	0,5	-2,576450
22,358667	0,5	-2,535550
22,367000	0,5	-2,503100
22,375333	0,5	-2,468900
22,383667	0,5	-2,417850
22,392000	0,5	-2,367750
22,400333	0,5	-2,277950
22,408667	0,5	-2,226950
22,417000	0,5	-2,200100
22,425333	0,5	-2,201150
22,433667	0,5	-2,215150
22,442000	0,5	-2,208250
22,450333	0,5	-2,174900
22,458667	0,5	-2,159900
22,467000	0,5	-2,135150
22,475333	0,5	-2,114000
22,483667	0,5	-2,078150
22,492000	0,5	-2,055000
22,500333	0,5	-2,019600
22,508667	0,5	-1,985550
22,517000	0,5	-1,963950
22,525333	0,5	-1,955200
22,533667	0,5	-1,918350
22,542000	0,5	-1,868900
22,550333	0,5	-1,804550
22,558667	0,5	-1,764650
22,567000	0,5	-1,713450
22,575333	0,5	-1,674600
22,583667	0,5	-1,647200
22,592000	0,5	-1,559400
22,600333	0,5	-1,511100
22,608667	0,5	-1,438300
22,617000	0,5	-1,371200
22,625333	0,5	-1,293650
22,633667	0,5	-1,233500
22,642000	0,5	-1,183200
22,650333	0,5	-1,141100
22,658667	0,5	-1,100300
22,667000	0,5	-1,083850
22,675333	0,5	-1,094700
22,683667	0,5	-1,049250
22,692000	0,5	-1,014950
22,700333	0,5	-0,986500
22,708667	0,5	-0,977900
22,717000	0,5	-0,977000
22,725333	0,5	-0,998250
22,733667	0,5	-1,008200
22,742000	0,5	-1,020350
22,750333	0,5	-1,029450
22,758667	0,5	-1,055300
22,767000	0,5	-1,078450
22,775333	0,5	-1,114500
22,783667	0,5	-1,148500
22,792000	0,5	-1,185200
22,800333	0,5	-1,221900
22,808667	0,5	-1,261350
22,817000	0,5	-1,373750
22,825333	0,5	-1,418600
22,833667	0,5	-1,450200
22,842000	0,5	-1,496250
22,850333	0,5	-1,547350
22,858667	0,5	-1,621900
22,867000	0,5	-1,695250
22,875333	0,5	-1,782700
22,883667	0,5	-1,873150
22,892000	0,5	-1,966150
22,900333	0,5	-2,056850
22,908667	0,5	-2,152600
22,917000	0,5	-2,250550
22,925333	0,5	-2,343750
22,933667	0,5	-2,431250
22,942000	0,5	-2,524650
22,950333	0,5	-2,600550
22,958667	0,5	-2,677350
22,967000	0,5	-2,766000
22,975333	0,5	-2,841300
22,983667	0,5	-2,912550
22,992000	0,5	-3,004650
23,000333	0,5	-3,071200
23,008667	0,5	-3,133300
23,017000	0,5	-3,186300
23,025333	0,5	-3,245900
23,033667	0,5	-3,320050
23,042000	0,5	-3,367350
23,050333	0,5	-3,418200
23,058667	0,5	-3,457600
23,067000	0,5	-3,497550
23,075333	0,5	-3,518000
23,083667	0,5	-3,542150
23,092000	0,5	-3,554800
23,100333	0,5	-3,567800
23,108667	0,5	-3,519300
23,117000	0,5	-3,530700
23,125333	0,5	-3,525550
23,133667	0,5	-3,566800
23,142000	0,5	-3,562400
23,150333	0,5	-3,541000
23,158667	0,5	-3,529750
23,167000	0,5	-3,496100
23,175333	0,5	-3,502800
23,183667	0,5	-3,481250
23,192000	0,5	-3,457900
23,200333	0,5	-3,427950
23,208667	0,5	-3,415600
23,217000	0,5	-3,383650
23,225333	0,5	-3,358800
23,233667	0,5	-3,318100
23,242000	0,5	-3,274750
23,250333	0,5	-3,223400
23,258667	0,5	-3,176250
23,267000	0,5	-3,115050
23,275333	0,5	-3,061250
23,283667	0,5	-3,058650
23,292000	0,5	-3,028300
23,300333	0,5	-2,974800
23,308667	0,5	-2,925200
23,317000	0,5	-2,868250
23,325333	0,5	-2,852600
23,333667	0,5	-2,824150
23,342000	0,5	-2,775700
23,350333	0,5	-2,744050
23,358667	0,5	-2,705600
23,367000	0,5	-2,675050
23,375333	0,5	-2,632500
23,383667	0,5	-2,602400
23,392000	0,5	-2,546000
23,400333	0,5	-2,488750
23,408667	0,5	-2,499500
23,417000	0,5	-2,411850
23,425333	0,5	-2,355400
23,433667	0,5	-2,335700
23,442000	0,5	-2,308150
23,450333	0,5	-2,259600
23,458667	0,5	-2,222850
23,467000	0,5	-2,185950
23,475333	0,5	-2,167800
23,483667	0,5	-2,137500
23,492000	0,5	-2,111100
23,500333	0,5	-2,083150
23,508667	0,5	-2,059300
23,517000	0,5	-2,032650
23,525333	0,5	-2,023550
23,533667	0,5	-1,986400
23,542000	0,5	-1,964750
23,550333	0,5	-2,040750
23,558667	0,5	-1,991500
23,567000	0,5	-1,944900
23,575333	0,5	-1,885200
23,583667	0,5	-1,860950
23,592000	0,5	-1,844600
23,600333	0,5	-1,817800
23,608667	0,5	-1,797950
23,617000	0,5	-1,780600
23,625333	0,5	-1,762300
23,633667	0,5	-1,749650
23,642000	0,5	-1,734950
23,650333	0,5	-1,713600
23,658667	0,5	-1,699200
23,667000	0,5	-1,684000
23,675333	0,5	-1,665500
23,683667	0,5	-1,645850
23,692000	0,5	-1,631800
23,700333	0,5	-1,765400
23,708667	0,5	-1,724100
23,717000	0,5	-1,649600
23,725333	0,5	-1,598750
23,733667	0,5	-1,571100
23,742000	0,5	-1,554350
23,750333	0,5	-1,542850
23,758667	0,5	-1,538850
23,767000	0,5	-1,517400
23,775333	0,5	-1,502750
23,783667	0,5	-1,490150
23,792000	0,5	-1,473650
23,800333	0,5	-1,462250
23,808667	0,5	-1,446300
23,817000	0,5	-1,430650
23,825333	0,5	-1,409450
23,833667	0,5	-1,392400
23,842000	0,5	-1,435650
23,850333	0,5	-1,538750
23,858667	0,5	-1,496950
23,867000	0,5	-1,424350
23,875333	0,5	-1,363000
23,883667	0,5	-1,342650
23,892000	0,5	-1,314300
23,900333	0,5	-1,315650
23,908667	0,5	-1,290950
23,917000	0,5	-1,274200
23,925333	0,5	-1,249150
23,933667	0,5	-1,237100
23,942000	0,5	-1,218500
23,950333	0,5	-1,208500
23,958667	0,5	-1,196200
23,967000	0,5	-1,176100
23,975333	0,5	-1,158600
23,983667	0,5	-1,146900
23,992000	0,5	-1,293250
24,000333	0,5	-1,271400
24,008667	0,5	-1,240900
24,017000	0,5	-1,167050
24,025333	0,5	-1,128250
24,033667	0,5	-1,099200
24,042000	0,5	-1,082100
24,050333	0,5	-1,086800
24,058667	0,5	-1,064300
24,067000	0,5	-1,026250
24,075333	0,5	-1,014050
24,083667	0,5	-0,993600
24,092000	0,5	-0,977400
24,100333	0,5	-0,957200
24,108667	0,5	-0,940500
24,117000	0,5	-0,915100
24,125333	0,5	-0,906750
24,133667	0,5	-0,907300
24,142000	0,5	-1,012800
24,150333	0,5	-1,001500
24,158667	0,5	-0,960050
24,167000	0,5	-0,903700
24,175333	0,5	-0,874450
24,183667	0,5	-0,852400
24,192000	0,5	-0,843500
24,200333	0,5	-0,845800
24,208667	0,5	-0,811000
24,217000	0,5	-0,794050
24,225333	0,5	-0,781050
24,233667	0,5	-0,765450
24,242000	0,5	-0,744950
24,250333	0,5	-0,737550
24,258667	0,5	-0,718650
24,267000	0,5	-0,703750
24,275333	0,5	-0,686900
24,283667	0,5	-0,760150
24,292000	0,5	-0,774750
24,300333	0,5	-0,764500
24,308667	0,5	-0,700850
24,317000	0,5	-0,672050
24,325333	0,5	-0,642550
24,333667	0,5	-0,626900
24,342000	0,5	-0,629950
24,350333	0,5	-0,616950
24,358667	0,5	-0,606900
24,367000	0,5	-0,587850
24,375333	0,5	-0,580750
24,383667	0,5	-0,563750
24,392000	0,5	-0,553750
24,400333	0,5	-0,540800
24,408667	0,5	-0,531650
24,417000	0,5	-0,517750
24,425333	0,5	-0,511550
24,433667	0,5	-0,595200
24,442000	0,5	-0,578400
24,450333	0,5	-0,555750
24,458667	0,5	-0,522200
24,467000	0,5	-0,503250
24,475333	0,5	-0,486800
24,483667	0,5	-0,479450
24,492000	0,5	-0,484100
24,500333	0,5	-0,470400
24,508667	0,5	-0,455550
24,517000	0,5	-0,444650
24,525333	0,5	-0,435150
24,533667	0,5	-0,418350
24,542000	0,5	-0,412650
24,550333	0,5	-0,399850
24,558667	0,5	-0,391950
24,567000	0,5	-0,379450
24,575333	0,5	-0,379950
24,583667	0,5	-0,441550
24,592000	0,5	-0,416300
24,600333	0,5	-0,402050
24,608667	0,5	-0,375750
24,617000	0,5	-0,359000
24,625333	0,5	-0,343900
24,633667	0,5	-0,356550
24,642000	0,5	-0,362450
24,650333	0,5	-0,353350
24,658667	0,5	-0,348200
24,667000	0,5	-0,345100
24,675333	0,5	-0,334250
24,683667	0,5	-0,327200
24,692000	0,5	-0,320850
24,700333	0,5	-0,316600
24,708667	0,5	-0,307250
24,717000	0,5	-0,296650
24,725333	0,5	-0,324000
24,733667	0,5	-0,327850
24,742000	0,5	-0,324000
24,750333	0,5	-0,299700
24,758667	0,5	-0,288100
24,767000	0,5	-0,280700
24,775333	0,5	-0,273500
24,783667	0,5	-0,276050
24,792000	0,5	-0,275000
24,800333	0,5	-0,269250
24,808667	0,5	-0,265600
24,817000	0,5	-0,255800
24,825333	0,5	-0,255550
24,833667	0,5	-0,254600
24,842000	0,5	-0,253050
24,850333	0,5	-0,249350
24,858667	0,5	-0,247150
24,867000	0,5	-0,248600
24,875333	0,5	-0,271450
24,883667	0,5	-0,269250
24,892000	0,5	-0,262050
24,900333	0,5	-0,246400
24,908667	0,5	-0,240250
24,917000	0,5	-0,233900
24,925333	0,5	-0,230350
24,933667	0,5	-0,237250
24,942000	0,5	-0,230100
24,950333	0,5	-0,221850
24,958667	0,5	-0,220650
24,967000	0,5	-0,221100
24,975333	0,5	-0,215900
24,983667	0,5	-0,214550
24,992000	0,5	-0,213300
25,000333	0,5	-0,208350
25,008667	0,5	-0,206600
25,017000	0,5	-0,210150
25,025333	0,5	-0,225850
25,033667	0,5	-0,222150
25,042000	0,5	-0,221500
25,050333	0,5	-0,216950
25,058667	0,5	-0,216000
25,067000	0,5	-0,211950
25,075333	0,5	-0,216250
25,083667	0,5	-0,218450
25,092000	0,5	-0,214600
25,100333	0,5	-0,207850
25,108667	0,5	-0,212050
25,117000	0,5	-0,206700
25,125333	0,5	-0,209150
25,133667	0,5	-0,203850
25,142000	0,5	-0,205350
25,150333	0,5	-0,200800
25,158667	0,5	-0,198600
25,167000	0,5	-0,206150
25,175333	0,5	-0,202400
25,183667	0,5	-0,203500
25,192000	0,5	-0,200250
25,200333	0,5	-0,208200
25,208667	0,5	-0,202650
25,217000	0,5	-0,208700
25,225333	0,5	-0,210250
25,233667	0,5	-0,213650
25,242000	0,5	-0,214150
25,250333	0,5	-0,212700
25,258667	0,5	-0,214700
25,267000	0,5	-0,218550
25,275333	0,5	-0,216250
25,283667	0,5	-0,215950
25,292000	0,5	-0,214000
25,300333	0,5	-0,214300
25,308667	0,5	-0,211550
25,317000	0,5	-0,210650
25,325333	0,5	-0,208350
25,333667	0,5	-0,204450
25,342000	0,5	-0,212450
25,350333	0,5	-0,207750
25,358667	0,5	-0,211450
25,367000	0,5	-0,213250
25,375333	0,5	-0,210650
25,383667	0,5	-0,213950
25,392000	0,5	-0,217350
25,400333	0,5	-0,217100
25,408667	0,5	-0,220600
25,417000	0,5	-0,223350
25,425333	0,5	-0,226500
25,433667	0,5	-0,231350
25,442000	0,5	-0,226600
25,450333	0,5	-0,228650
25,458667	0,5	-0,230650
25,467000	0,5	-0,220750
25,475333	0,5	-0,222400
25,483667	0,5	-0,222750
25,492000	0,5	-0,229400
25,500333	0,5	-0,230450
25,508667	0,5	-0,233050
25,517000	0,5	-0,228750
25,525333	0,5	-0,224450
25,533667	0,5	-0,228000
25,542000	0,5	-0,229600
25,550333	0,5	-0,229900
25,558667	0,5	-0,234350
25,567000	0,5	-0,230600
25,575333	0,5	-0,239900
25,583667	0,5	-0,239550
25,592000	0,5	-0,243900
25,600333	0,5	-0,243350
25,608667	0,5	-0,243700
25,617000	0,5	-0,237100
25,625333	0,5	-0,235600
25,633667	0,5	-0,239400
25,642000	0,5	-0,248200
25,650333	0,5	-0,246300
25,658667	0,5	-0,248200
25,667000	0,5	-0,243450
25,675333	0,5	-0,238950
25,683667	0,5	-0,242900
25,692000	0,5	-0,249700
25,700333	0,5	-0,244750
25,708667	0,5	-0,246150
25,717000	0,5	-0,247100
25,725333	0,5	-0,245050
25,733667	0,5	-0,244050
25,742000	0,5	-0,251800
25,750333	0,5	-0,245500
25,758667	0,5	-0,241050
25,767000	0,5	-0,242100
25,775333	0,5	-0,232150
25,783667	0,5	-0,246350
25,792000	0,5	-0,248200
25,800333	0,5	-0,248150
25,808667	0,5	-0,248600
25,817000	0,5	-0,239900
25,825333	0,5	-0,239500
25,833667	0,5	-0,242050
25,842000	0,5	-0,236300
25,850333	0,5	-0,241750
25,858667	0,5	-0,242700
25,867000	0,5	-0,239750
25,875333	0,5	-0,239700
25,883667	0,5	-0,241800
25,892000	0,5	-0,238900
25,900333	0,5	-0,234050
25,908667	0,5	-0,232950
25,917000	0,5	-0,222100
25,925333	0,5	-0,223800
25,933667	0,5	-0,230050
25,942000	0,5	-0,233500
25,950333	0,5	-0,231250
25,958667	0,5	-0,224150
25,967000	0,5	-0,208550
25,975333	0,5	-0,217600
25,983667	0,5	-0,218900
25,992000	0,5	-0,217100
26,000333	0,5	-0,218600
