File Path	chrom://chromeleon01/ikbm_chromeleon/2022/ICS-5000/ED1/Esteban/20220427_Cell_Amandas_mutants.seq/971.smp/ED_1.channel/ED_1.chm
Channel	ED_1

Injection Information:
Data Vault	ikbm_chromeleon
Injection	T24h_BMCC_4b
Injection Number	29
Position	RC7
Comment	
Processing Method	Stop sequence after Cell Death
Instrument Method	ICS5000_PA200_FullNative_Ox_26min_ED1
Type	Unknown
Status	Finished
Injection Date	28.04.2022
Injection Time	02:16:44
Injection Volume (µl)	5,0
Dilution Factor	1,0000
Weight	1,0000

Chromatogram Data Information:
Time Min. (min)	0,000333
Time Max. (min)	26,000333
Data Points	3121
Detector	EDet1
Generating Data System	Chromeleon 7.2.9.11323
Exporting Data System	Chromeleon 7.2.9.0
Operator	Instrument Controller
Signal Quantity	
Signal Unit	nC
Signal Min.	-7,929700
Signal Max.	46,173101
Channel	ED_1
Driver Name	DC-5000
Channel Type	Evaluation
Min. Step (s)	0,5
Max. Step (s)	0,5
Average Step (s)	0,5

Signal Parameter Information:
Signal Info	

Chromatogram Data:
Time (min)	Step (s)	Value (nC)
0,000333	n.a.	-0,035600
0,008667	0,5	-0,071700
0,017000	0,5	-0,069600
0,025333	0,5	-0,042300
0,033667	0,5	0,006700
0,042000	0,5	-0,009100
0,050333	0,5	-0,014950
0,058667	0,5	0,000650
0,067000	0,5	-0,002650
0,075333	0,5	0,005850
0,083667	0,5	0,010700
0,092000	0,5	0,006350
0,100333	0,5	0,014650
0,108667	0,5	0,012650
0,117000	0,5	0,027300
0,125333	0,5	-0,005050
0,133667	0,5	0,017200
0,142000	0,5	0,019850
0,150333	0,5	0,001800
0,158667	0,5	-0,005100
0,167000	0,5	0,014650
0,175333	0,5	0,040950
0,183667	0,5	0,065650
0,192000	0,5	0,038550
0,200333	0,5	0,051800
0,208667	0,5	0,044400
0,217000	0,5	0,039800
0,225333	0,5	0,023200
0,233667	0,5	0,029450
0,242000	0,5	0,020750
0,250333	0,5	0,021450
0,258667	0,5	0,024300
0,267000	0,5	0,015650
0,275333	0,5	0,003000
0,283667	0,5	0,024900
0,292000	0,5	0,017850
0,300333	0,5	0,026750
0,308667	0,5	0,076800
0,317000	0,5	0,053950
0,325333	0,5	0,033150
0,333667	0,5	0,026750
0,342000	0,5	0,025750
0,350333	0,5	0,016450
0,358667	0,5	0,024350
0,367000	0,5	0,006400
0,375333	0,5	0,016200
0,383667	0,5	0,008400
0,392000	0,5	0,008850
0,400333	0,5	0,009650
0,408667	0,5	0,009550
0,417000	0,5	0,008300
0,425333	0,5	-0,005300
0,433667	0,5	0,006250
0,442000	0,5	-0,007800
0,450333	0,5	-0,014100
0,458667	0,5	-0,020500
0,467000	0,5	0,006950
0,475333	0,5	0,028500
0,483667	0,5	0,043650
0,492000	0,5	0,014350
0,500333	0,5	0,030650
0,508667	0,5	0,016950
0,517000	0,5	0,021200
0,525333	0,5	0,012450
0,533667	0,5	0,015800
0,542000	0,5	0,005000
0,550333	0,5	0,009000
0,558667	0,5	0,009100
0,567000	0,5	-0,012550
0,575333	0,5	-0,004600
0,583667	0,5	0,011600
0,592000	0,5	-0,019000
0,600333	0,5	-0,015350
0,608667	0,5	-0,013000
0,617000	0,5	0,025950
0,625333	0,5	0,049100
0,633667	0,5	0,040000
0,642000	0,5	0,034600
0,650333	0,5	0,028950
0,658667	0,5	0,030500
0,667000	0,5	0,015350
0,675333	0,5	0,023450
0,683667	0,5	0,011350
0,692000	0,5	0,014050
0,700333	0,5	0,017050
0,708667	0,5	0,002700
0,717000	0,5	-0,023500
0,725333	0,5	0,021450
0,733667	0,5	-0,001350
0,742000	0,5	-0,010650
0,750333	0,5	-0,009850
0,758667	0,5	0,002250
0,767000	0,5	0,047200
0,775333	0,5	0,052600
0,783667	0,5	0,039100
0,792000	0,5	0,035500
0,800333	0,5	0,039850
0,808667	0,5	0,042850
0,817000	0,5	0,043850
0,825333	0,5	0,043250
0,833667	0,5	0,040800
0,842000	0,5	0,034650
0,850333	0,5	0,039150
0,858667	0,5	0,020600
0,867000	0,5	0,020750
0,875333	0,5	0,051450
0,883667	0,5	0,032250
0,892000	0,5	0,018700
0,900333	0,5	0,031950
0,908667	0,5	0,043300
0,917000	0,5	0,093100
0,925333	0,5	0,079250
0,933667	0,5	0,067400
0,942000	0,5	0,061300
0,950333	0,5	0,070250
0,958667	0,5	0,062200
0,967000	0,5	0,064600
0,975333	0,5	0,060800
0,983667	0,5	0,052750
0,992000	0,5	0,061300
1,000333	0,5	0,074550
1,008667	0,5	0,081200
1,017000	0,5	0,080500
1,025333	0,5	0,099550
1,033667	0,5	0,070600
1,042000	0,5	0,061200
1,050333	0,5	0,068900
1,058667	0,5	0,089750
1,067000	0,5	0,089700
1,075333	0,5	0,105350
1,083667	0,5	0,091600
1,092000	0,5	0,108200
1,100333	0,5	0,099250
1,108667	0,5	0,113500
1,117000	0,5	0,112900
1,125333	0,5	0,116300
1,133667	0,5	0,109700
1,142000	0,5	0,107950
1,150333	0,5	0,118400
1,158667	0,5	0,099000
1,167000	0,5	0,123550
1,175333	0,5	0,117750
1,183667	0,5	0,105850
1,192000	0,5	0,107300
1,200333	0,5	0,134400
1,208667	0,5	0,173600
1,217000	0,5	0,185300
1,225333	0,5	0,157600
1,233667	0,5	0,165100
1,242000	0,5	0,165900
1,250333	0,5	0,173050
1,258667	0,5	0,165600
1,267000	0,5	0,173050
1,275333	0,5	0,166650
1,283667	0,5	0,173900
1,292000	0,5	0,182450
1,300333	0,5	0,185150
1,308667	0,5	0,170400
1,317000	0,5	0,200950
1,325333	0,5	0,188250
1,333667	0,5	0,186100
1,342000	0,5	0,192800
1,350333	0,5	0,208900
1,358667	0,5	0,253150
1,367000	0,5	0,260250
1,375333	0,5	0,270850
1,383667	0,5	0,257450
1,392000	0,5	0,267300
1,400333	0,5	0,272150
1,408667	0,5	0,285800
1,417000	0,5	0,281650
1,425333	0,5	0,284800
1,433667	0,5	0,288100
1,442000	0,5	0,297050
1,450333	0,5	0,288050
1,458667	0,5	0,299050
1,467000	0,5	0,313250
1,475333	0,5	0,302950
1,483667	0,5	0,303650
1,492000	0,5	0,319050
1,500333	0,5	0,354100
1,508667	0,5	0,391500
1,517000	0,5	0,398100
1,525333	0,5	0,394000
1,533667	0,5	0,395800
1,542000	0,5	0,399000
1,550333	0,5	0,398100
1,558667	0,5	0,403500
1,567000	0,5	0,394500
1,575333	0,5	0,281250
1,583667	0,5	-0,121450
1,592000	0,5	-0,995700
1,600333	0,5	-1,584200
1,608667	0,5	-0,755000
1,617000	0,5	1,143600
1,625333	0,5	2,989550
1,633667	0,5	4,819050
1,642000	0,5	6,749200
1,650333	0,5	8,288500
1,658667	0,5	8,849850
1,667000	0,5	8,558650
1,675333	0,5	7,915900
1,683667	0,5	7,224950
1,692000	0,5	6,555950
1,700333	0,5	6,006800
1,708667	0,5	5,688100
1,717000	0,5	5,824500
1,725333	0,5	6,794400
1,733667	0,5	8,215900
1,742000	0,5	8,853300
1,750333	0,5	8,090900
1,758667	0,5	6,738450
1,767000	0,5	5,541150
1,775333	0,5	4,852300
1,783667	0,5	4,844900
1,792000	0,5	5,876250
1,800333	0,5	8,108800
1,808667	0,5	10,642750
1,817000	0,5	12,268700
1,825333	0,5	12,682950
1,833667	0,5	11,990150
1,842000	0,5	10,604200
1,850333	0,5	9,140000
1,858667	0,5	7,938400
1,867000	0,5	7,018900
1,875333	0,5	6,331800
1,883667	0,5	5,811100
1,892000	0,5	5,370600
1,900333	0,5	5,026350
1,908667	0,5	4,759050
1,917000	0,5	4,479250
1,925333	0,5	4,254200
1,933667	0,5	4,086900
1,942000	0,5	3,959300
1,950333	0,5	3,894250
1,958667	0,5	3,804250
1,967000	0,5	3,769500
1,975333	0,5	3,740200
1,983667	0,5	3,752800
1,992000	0,5	3,766600
2,000333	0,5	3,801150
2,008667	0,5	3,820550
2,017000	0,5	3,869300
2,025333	0,5	3,971500
2,033667	0,5	4,176400
2,042000	0,5	4,611900
2,050333	0,5	5,302250
2,058667	0,5	6,047000
2,067000	0,5	6,785750
2,075333	0,5	7,744650
2,083667	0,5	8,906350
2,092000	0,5	9,966450
2,100333	0,5	10,689000
2,108667	0,5	11,049550
2,117000	0,5	11,198350
2,125333	0,5	11,285850
2,133667	0,5	11,370650
2,142000	0,5	11,581050
2,150333	0,5	11,940200
2,158667	0,5	12,551050
2,167000	0,5	13,331200
2,175333	0,5	13,783950
2,183667	0,5	13,478300
2,192000	0,5	12,657750
2,200333	0,5	11,899900
2,208667	0,5	11,335550
2,217000	0,5	10,954100
2,225333	0,5	10,697450
2,233667	0,5	10,553550
2,242000	0,5	10,489700
2,250333	0,5	10,472400
2,258667	0,5	10,429000
2,267000	0,5	10,399600
2,275333	0,5	10,355650
2,283667	0,5	10,330950
2,292000	0,5	10,310000
2,300333	0,5	10,317950
2,308667	0,5	10,313700
2,317000	0,5	10,327700
2,325333	0,5	10,350800
2,333667	0,5	10,379500
2,342000	0,5	10,404950
2,350333	0,5	10,490450
2,358667	0,5	10,521400
2,367000	0,5	10,586900
2,375333	0,5	10,647500
2,383667	0,5	10,739200
2,392000	0,5	10,869150
2,400333	0,5	10,992650
2,408667	0,5	11,175900
2,417000	0,5	11,432950
2,425333	0,5	11,756950
2,433667	0,5	11,932250
2,442000	0,5	11,872450
2,450333	0,5	11,711300
2,458667	0,5	11,654350
2,467000	0,5	11,680000
2,475333	0,5	11,728050
2,483667	0,5	11,756950
2,492000	0,5	11,800100
2,500333	0,5	11,834650
2,508667	0,5	11,830550
2,517000	0,5	11,835900
2,525333	0,5	11,843300
2,533667	0,5	11,868300
2,542000	0,5	11,924650
2,550333	0,5	11,978850
2,558667	0,5	12,090450
2,567000	0,5	12,300300
2,575333	0,5	12,684000
2,583667	0,5	13,321600
2,592000	0,5	14,272550
2,600333	0,5	15,478750
2,608667	0,5	16,744850
2,617000	0,5	17,860750
2,625333	0,5	18,642800
2,633667	0,5	19,118000
2,642000	0,5	19,397550
2,650333	0,5	19,559600
2,658667	0,5	19,634350
2,667000	0,5	19,610800
2,675333	0,5	19,432550
2,683667	0,5	19,149850
2,692000	0,5	18,851000
2,700333	0,5	18,747650
2,708667	0,5	19,144050
2,717000	0,5	20,389350
2,725333	0,5	22,688900
2,733667	0,5	26,047650
2,742000	0,5	30,067100
2,750333	0,5	34,245701
2,758667	0,5	38,119501
2,767000	0,5	41,237151
2,775333	0,5	43,160851
2,783667	0,5	43,615301
2,792000	0,5	42,763301
2,800333	0,5	40,883051
2,808667	0,5	38,466651
2,817000	0,5	35,825201
2,825333	0,5	33,250800
2,833667	0,5	31,146800
2,842000	0,5	30,088900
2,850333	0,5	30,819650
2,858667	0,5	33,841801
2,867000	0,5	38,594751
2,875333	0,5	43,402201
2,883667	0,5	46,173101
2,892000	0,5	45,793801
2,900333	0,5	42,645601
2,908667	0,5	38,061951
2,917000	0,5	33,356050
2,925333	0,5	29,214150
2,933667	0,5	25,804250
2,942000	0,5	22,949750
2,950333	0,5	20,434350
2,958667	0,5	18,213550
2,967000	0,5	16,282750
2,975333	0,5	14,640350
2,983667	0,5	13,268100
2,992000	0,5	12,077500
3,000333	0,5	11,111200
3,008667	0,5	10,295200
3,017000	0,5	9,621000
3,025333	0,5	9,027100
3,033667	0,5	8,523950
3,042000	0,5	8,072050
3,050333	0,5	7,676350
3,058667	0,5	7,325250
3,067000	0,5	7,007550
3,075333	0,5	6,699650
3,083667	0,5	6,440750
3,092000	0,5	6,184600
3,100333	0,5	5,937200
3,108667	0,5	5,707700
3,117000	0,5	5,503100
3,125333	0,5	5,325450
3,133667	0,5	5,148750
3,142000	0,5	4,977800
3,150333	0,5	4,835300
3,158667	0,5	4,737750
3,167000	0,5	4,670400
3,175333	0,5	4,662750
3,183667	0,5	4,697150
3,192000	0,5	4,803600
3,200333	0,5	4,989500
3,208667	0,5	5,338200
3,217000	0,5	5,923250
3,225333	0,5	6,933550
3,233667	0,5	8,573050
3,242000	0,5	10,875300
3,250333	0,5	13,676300
3,258667	0,5	16,496600
3,267000	0,5	18,731300
3,275333	0,5	19,900300
3,283667	0,5	19,800850
3,292000	0,5	18,601650
3,300333	0,5	16,699950
3,308667	0,5	14,472700
3,317000	0,5	12,236950
3,325333	0,5	10,230550
3,333667	0,5	8,558500
3,342000	0,5	7,205750
3,350333	0,5	6,164950
3,358667	0,5	5,356950
3,367000	0,5	4,718700
3,375333	0,5	4,210150
3,383667	0,5	3,836250
3,392000	0,5	3,487050
3,400333	0,5	3,227400
3,408667	0,5	3,014550
3,417000	0,5	2,858650
3,425333	0,5	2,734000
3,433667	0,5	2,608400
3,442000	0,5	2,503150
3,450333	0,5	2,422900
3,458667	0,5	2,346400
3,467000	0,5	2,263500
3,475333	0,5	2,187150
3,483667	0,5	2,093100
3,492000	0,5	2,001000
3,500333	0,5	1,912550
3,508667	0,5	1,829450
3,517000	0,5	1,725400
3,525333	0,5	1,657500
3,533667	0,5	1,592400
3,542000	0,5	1,520000
3,550333	0,5	1,468300
3,558667	0,5	1,432850
3,567000	0,5	1,410950
3,575333	0,5	1,394800
3,583667	0,5	1,352100
3,592000	0,5	1,322850
3,600333	0,5	1,281950
3,608667	0,5	1,248850
3,617000	0,5	1,214400
3,625333	0,5	1,181250
3,633667	0,5	1,143400
3,642000	0,5	1,105250
3,650333	0,5	1,081800
3,658667	0,5	1,034850
3,667000	0,5	0,998000
3,675333	0,5	0,987250
3,683667	0,5	0,954150
3,692000	0,5	0,913750
3,700333	0,5	0,892900
3,708667	0,5	0,876600
3,717000	0,5	0,883550
3,725333	0,5	0,858200
3,733667	0,5	0,835900
3,742000	0,5	0,806450
3,750333	0,5	0,797300
3,758667	0,5	0,771150
3,767000	0,5	0,754150
3,775333	0,5	0,734050
3,783667	0,5	0,727450
3,792000	0,5	0,717700
3,800333	0,5	0,713800
3,808667	0,5	0,693450
3,817000	0,5	0,690250
3,825333	0,5	0,698700
3,833667	0,5	0,672500
3,842000	0,5	0,650500
3,850333	0,5	0,639800
3,858667	0,5	0,641900
3,867000	0,5	0,653400
3,875333	0,5	0,645700
3,883667	0,5	0,622700
3,892000	0,5	0,616750
3,900333	0,5	0,594350
3,908667	0,5	0,588500
3,917000	0,5	0,579900
3,925333	0,5	0,572100
3,933667	0,5	0,552900
3,942000	0,5	0,545500
3,950333	0,5	0,537150
3,958667	0,5	0,520800
3,967000	0,5	0,516300
3,975333	0,5	0,518900
3,983667	0,5	0,497000
3,992000	0,5	0,483200
4,000333	0,5	0,475450
4,008667	0,5	0,486700
4,017000	0,5	0,501350
4,025333	0,5	0,475400
4,033667	0,5	0,466200
4,042000	0,5	0,456400
4,050333	0,5	0,452200
4,058667	0,5	0,437500
4,067000	0,5	0,436550
4,075333	0,5	0,421650
4,083667	0,5	0,416550
4,092000	0,5	0,410400
4,100333	0,5	0,404650
4,108667	0,5	0,380500
4,117000	0,5	0,400500
4,125333	0,5	0,382250
4,133667	0,5	0,369650
4,142000	0,5	0,348900
4,150333	0,5	0,359050
4,158667	0,5	0,377950
4,167000	0,5	0,379850
4,175333	0,5	0,368700
4,183667	0,5	0,359250
4,192000	0,5	0,353900
4,200333	0,5	0,344150
4,208667	0,5	0,346150
4,217000	0,5	0,341100
4,225333	0,5	0,344500
4,233667	0,5	0,333350
4,242000	0,5	0,333650
4,250333	0,5	0,328250
4,258667	0,5	0,320000
4,267000	0,5	0,337700
4,275333	0,5	0,320000
4,283667	0,5	0,309750
4,292000	0,5	0,301850
4,300333	0,5	0,313400
4,308667	0,5	0,340500
4,317000	0,5	0,343350
4,325333	0,5	0,337300
4,333667	0,5	0,325200
4,342000	0,5	0,324900
4,350333	0,5	0,317350
4,358667	0,5	0,325200
4,367000	0,5	0,318100
4,375333	0,5	0,308250
4,383667	0,5	0,313250
4,392000	0,5	0,316100
4,400333	0,5	0,333150
4,408667	0,5	0,321750
4,417000	0,5	0,344750
4,425333	0,5	0,326650
4,433667	0,5	0,327300
4,442000	0,5	0,326400
4,450333	0,5	0,357900
4,458667	0,5	0,390850
4,467000	0,5	0,402450
4,475333	0,5	0,402400
4,483667	0,5	0,420250
4,492000	0,5	0,429250
4,500333	0,5	0,443000
4,508667	0,5	0,452500
4,517000	0,5	0,458100
4,525333	0,5	0,467050
4,533667	0,5	0,469200
4,542000	0,5	0,482450
4,550333	0,5	0,473600
4,558667	0,5	0,486950
4,567000	0,5	0,476950
4,575333	0,5	0,459100
4,583667	0,5	0,449600
4,592000	0,5	0,449800
4,600333	0,5	0,462000
4,608667	0,5	0,469100
4,617000	0,5	0,450200
4,625333	0,5	0,448100
4,633667	0,5	0,427750
4,642000	0,5	0,421800
4,650333	0,5	0,412650
4,658667	0,5	0,406000
4,667000	0,5	0,396150
4,675333	0,5	0,391550
4,683667	0,5	0,390700
4,692000	0,5	0,376250
4,700333	0,5	0,372500
4,708667	0,5	0,389100
4,717000	0,5	0,372750
4,725333	0,5	0,370300
4,733667	0,5	0,380150
4,742000	0,5	0,386200
4,750333	0,5	0,414900
4,758667	0,5	0,423700
4,767000	0,5	0,428600
4,775333	0,5	0,422900
4,783667	0,5	0,433350
4,792000	0,5	0,433700
4,800333	0,5	0,440200
4,808667	0,5	0,438250
4,817000	0,5	0,444100
4,825333	0,5	0,447100
4,833667	0,5	0,456050
4,842000	0,5	0,449700
4,850333	0,5	0,460300
4,858667	0,5	0,462600
4,867000	0,5	0,450800
4,875333	0,5	0,441600
4,883667	0,5	0,447400
4,892000	0,5	0,462250
4,900333	0,5	0,475250
4,908667	0,5	0,481250
4,917000	0,5	0,469150
4,925333	0,5	0,481300
4,933667	0,5	0,485100
4,942000	0,5	0,483500
4,950333	0,5	0,487450
4,958667	0,5	0,490400
4,967000	0,5	0,487700
4,975333	0,5	0,492950
4,983667	0,5	0,500300
4,992000	0,5	0,504650
5,000333	0,5	0,518250
5,008667	0,5	0,526850
5,017000	0,5	0,517800
5,025333	0,5	0,522100
5,033667	0,5	0,537300
5,042000	0,5	0,561600
5,050333	0,5	0,575600
5,058667	0,5	0,564700
5,067000	0,5	0,568550
5,075333	0,5	0,577050
5,083667	0,5	0,579000
5,092000	0,5	0,580050
5,100333	0,5	0,584400
5,108667	0,5	0,582550
5,117000	0,5	0,590600
5,125333	0,5	0,594200
5,133667	0,5	0,617750
5,142000	0,5	0,599150
5,150333	0,5	0,629900
5,158667	0,5	0,612800
5,167000	0,5	0,610900
5,175333	0,5	0,603350
5,183667	0,5	0,618950
5,192000	0,5	0,646050
5,200333	0,5	0,657800
5,208667	0,5	0,654200
5,217000	0,5	0,668450
5,225333	0,5	0,683100
5,233667	0,5	0,701300
5,242000	0,5	0,715500
5,250333	0,5	0,736900
5,258667	0,5	0,755450
5,267000	0,5	0,770550
5,275333	0,5	0,796200
5,283667	0,5	0,805050
5,292000	0,5	0,806050
5,300333	0,5	0,830550
5,308667	0,5	0,811950
5,317000	0,5	0,805200
5,325333	0,5	0,796050
5,333667	0,5	0,802650
5,342000	0,5	0,819450
5,350333	0,5	0,797650
5,358667	0,5	0,780100
5,367000	0,5	0,757800
5,375333	0,5	0,758400
5,383667	0,5	0,743450
5,392000	0,5	0,742900
5,400333	0,5	0,738700
5,408667	0,5	0,733850
5,417000	0,5	0,732400
5,425333	0,5	0,731250
5,433667	0,5	0,737700
5,442000	0,5	0,739000
5,450333	0,5	0,752700
5,458667	0,5	0,735800
5,467000	0,5	0,738900
5,475333	0,5	0,741350
5,483667	0,5	0,764250
5,492000	0,5	0,787700
5,500333	0,5	0,789650
5,508667	0,5	0,783150
5,517000	0,5	0,794300
5,525333	0,5	0,791550
5,533667	0,5	0,797200
5,542000	0,5	0,804800
5,550333	0,5	0,809750
5,558667	0,5	0,814600
5,567000	0,5	0,815150
5,575333	0,5	0,817350
5,583667	0,5	0,811400
5,592000	0,5	0,824600
5,600333	0,5	0,829900
5,608667	0,5	0,824850
5,617000	0,5	0,823850
5,625333	0,5	0,834900
5,633667	0,5	0,854800
5,642000	0,5	0,887100
5,650333	0,5	0,883450
5,658667	0,5	0,889400
5,667000	0,5	0,884650
5,675333	0,5	0,892450
5,683667	0,5	0,890250
5,692000	0,5	0,904350
5,700333	0,5	0,901850
5,708667	0,5	0,910550
5,717000	0,5	0,914000
5,725333	0,5	0,907300
5,733667	0,5	0,906100
5,742000	0,5	0,927800
5,750333	0,5	0,927700
5,758667	0,5	0,922000
5,767000	0,5	0,931350
5,775333	0,5	0,947050
5,783667	0,5	0,971950
5,792000	0,5	0,982050
5,800333	0,5	0,983900
5,808667	0,5	0,988400
5,817000	0,5	0,997750
5,825333	0,5	0,994250
5,833667	0,5	1,002600
5,842000	0,5	1,007600
5,850333	0,5	1,013950
5,858667	0,5	1,011050
5,867000	0,5	1,023100
5,875333	0,5	1,015600
5,883667	0,5	1,034050
5,892000	0,5	1,037000
5,900333	0,5	1,041350
5,908667	0,5	1,040400
5,917000	0,5	1,055200
5,925333	0,5	1,077400
5,933667	0,5	1,097300
5,942000	0,5	1,111950
5,950333	0,5	1,112850
5,958667	0,5	1,123800
5,967000	0,5	1,127050
5,975333	0,5	1,131600
5,983667	0,5	1,143800
5,992000	0,5	1,152200
6,000333	0,5	1,152500
6,008667	0,5	1,163650
6,017000	0,5	1,165600
6,025333	0,5	1,166750
6,033667	0,5	1,184500
6,042000	0,5	1,191000
6,050333	0,5	1,188750
6,058667	0,5	1,196800
6,067000	0,5	1,202000
6,075333	0,5	1,234250
6,083667	0,5	1,241450
6,092000	0,5	1,236000
6,100333	0,5	1,240300
6,108667	0,5	1,249600
6,117000	0,5	1,256950
6,125333	0,5	1,262000
6,133667	0,5	1,269900
6,142000	0,5	1,270100
6,150333	0,5	1,280100
6,158667	0,5	1,284400
6,167000	0,5	1,292250
6,175333	0,5	1,281400
6,183667	0,5	1,314950
6,192000	0,5	1,306250
6,200333	0,5	1,309550
6,208667	0,5	1,311750
6,217000	0,5	1,328850
6,225333	0,5	1,363550
6,233667	0,5	1,370100
6,242000	0,5	1,363550
6,250333	0,5	1,382400
6,258667	0,5	1,384750
6,267000	0,5	1,391350
6,275333	0,5	1,395550
6,283667	0,5	1,406300
6,292000	0,5	1,409200
6,300333	0,5	1,418000
6,308667	0,5	1,424800
6,317000	0,5	1,420500
6,325333	0,5	1,425300
6,333667	0,5	1,439850
6,342000	0,5	1,436800
6,350333	0,5	1,446750
6,358667	0,5	1,458500
6,367000	0,5	1,481700
6,375333	0,5	1,511700
6,383667	0,5	1,512600
6,392000	0,5	1,517650
6,400333	0,5	1,525750
6,408667	0,5	1,535750
6,417000	0,5	1,541750
6,425333	0,5	1,554800
6,433667	0,5	1,559700
6,442000	0,5	1,571250
6,450333	0,5	1,581800
6,458667	0,5	1,593000
6,467000	0,5	1,598550
6,475333	0,5	1,610900
6,483667	0,5	1,623400
6,492000	0,5	1,622300
6,500333	0,5	1,629550
6,508667	0,5	1,643350
6,517000	0,5	1,663700
6,525333	0,5	1,688200
6,533667	0,5	1,697950
6,542000	0,5	1,695850
6,550333	0,5	1,703150
6,558667	0,5	1,712500
6,567000	0,5	1,722000
6,575333	0,5	1,726400
6,583667	0,5	1,732000
6,592000	0,5	1,735900
6,600333	0,5	1,746000
6,608667	0,5	1,755050
6,617000	0,5	1,760100
6,625333	0,5	1,770600
6,633667	0,5	1,778000
6,642000	0,5	1,773050
6,650333	0,5	1,782400
6,658667	0,5	1,805900
6,667000	0,5	1,834300
6,675333	0,5	1,851400
6,683667	0,5	1,853600
6,692000	0,5	1,859650
6,700333	0,5	1,866200
6,708667	0,5	1,871550
6,717000	0,5	1,872400
6,725333	0,5	1,883850
6,733667	0,5	1,884700
6,742000	0,5	1,897500
6,750333	0,5	1,904350
6,758667	0,5	1,899850
6,767000	0,5	1,901800
6,775333	0,5	1,924200
6,783667	0,5	1,917850
6,792000	0,5	1,920700
6,800333	0,5	1,926350
6,808667	0,5	1,947150
6,817000	0,5	1,967550
6,825333	0,5	1,976200
6,833667	0,5	1,977550
6,842000	0,5	1,986800
6,850333	0,5	1,987200
6,858667	0,5	1,995650
6,867000	0,5	2,002300
6,875333	0,5	1,997300
6,883667	0,5	1,998700
6,892000	0,5	1,998300
6,900333	0,5	2,005700
6,908667	0,5	1,999300
6,917000	0,5	2,010600
6,925333	0,5	2,016050
6,933667	0,5	2,012350
6,942000	0,5	2,005600
6,950333	0,5	2,011250
6,958667	0,5	2,027100
6,967000	0,5	2,041700
6,975333	0,5	2,045400
6,983667	0,5	2,043100
6,992000	0,5	2,043150
7,000333	0,5	2,040300
7,008667	0,5	2,036900
7,017000	0,5	2,039600
7,025333	0,5	2,038050
7,033667	0,5	2,035350
7,042000	0,5	2,041800
7,050333	0,5	2,038250
7,058667	0,5	2,034300
7,067000	0,5	2,045650
7,075333	0,5	2,040650
7,083667	0,5	2,030300
7,092000	0,5	2,032350
7,100333	0,5	2,033850
7,108667	0,5	2,051600
7,117000	0,5	2,048400
7,125333	0,5	2,040200
7,133667	0,5	2,039850
7,142000	0,5	2,034450
7,150333	0,5	2,034200
7,158667	0,5	2,033050
7,167000	0,5	2,031000
7,175333	0,5	2,032350
7,183667	0,5	2,031350
7,192000	0,5	2,025000
7,200333	0,5	2,034500
7,208667	0,5	2,031350
7,217000	0,5	2,043250
7,225333	0,5	2,037400
7,233667	0,5	2,036850
7,242000	0,5	2,039650
7,250333	0,5	2,057500
7,258667	0,5	2,084800
7,267000	0,5	2,107850
7,275333	0,5	2,120050
7,283667	0,5	2,145200
7,292000	0,5	2,141000
7,300333	0,5	2,139800
7,308667	0,5	2,124000
7,317000	0,5	2,106900
7,325333	0,5	2,080850
7,333667	0,5	2,059650
7,342000	0,5	2,045150
7,350333	0,5	2,028950
7,358667	0,5	2,010250
7,367000	0,5	2,013200
7,375333	0,5	1,995600
7,383667	0,5	1,988500
7,392000	0,5	1,979800
7,400333	0,5	1,979550
7,408667	0,5	1,995000
7,417000	0,5	1,984600
7,425333	0,5	1,981750
7,433667	0,5	1,971050
7,442000	0,5	1,970150
7,450333	0,5	1,966350
7,458667	0,5	1,964550
7,467000	0,5	1,958800
7,475333	0,5	1,959400
7,483667	0,5	1,955650
7,492000	0,5	1,958800
7,500333	0,5	1,953800
7,508667	0,5	1,961100
7,517000	0,5	1,967650
7,525333	0,5	1,968650
7,533667	0,5	1,970850
7,542000	0,5	1,980500
7,550333	0,5	2,000050
7,558667	0,5	2,023000
7,567000	0,5	2,041900
7,575333	0,5	2,052900
7,583667	0,5	2,085350
7,592000	0,5	2,123350
7,600333	0,5	2,170800
7,608667	0,5	2,254450
7,617000	0,5	2,357000
7,625333	0,5	2,479850
7,633667	0,5	2,607650
7,642000	0,5	2,734500
7,650333	0,5	2,845300
7,658667	0,5	2,926250
7,667000	0,5	2,951750
7,675333	0,5	2,943450
7,683667	0,5	2,899950
7,692000	0,5	2,834850
7,700333	0,5	2,772500
7,708667	0,5	2,706600
7,717000	0,5	2,631450
7,725333	0,5	2,566850
7,733667	0,5	2,514750
7,742000	0,5	2,472100
7,750333	0,5	2,437000
7,758667	0,5	2,409350
7,767000	0,5	2,376750
7,775333	0,5	2,348850
7,783667	0,5	2,314150
7,792000	0,5	2,277800
7,800333	0,5	2,252350
7,808667	0,5	2,233650
7,817000	0,5	2,206850
7,825333	0,5	2,180250
7,833667	0,5	2,169100
7,842000	0,5	2,159850
7,850333	0,5	2,154150
7,858667	0,5	2,141200
7,867000	0,5	2,134250
7,875333	0,5	2,127950
7,883667	0,5	2,120000
7,892000	0,5	2,113400
7,900333	0,5	2,109600
7,908667	0,5	2,103300
7,917000	0,5	2,097450
7,925333	0,5	2,092300
7,933667	0,5	2,094900
7,942000	0,5	2,085400
7,950333	0,5	2,097600
7,958667	0,5	2,093500
7,967000	0,5	2,090000
7,975333	0,5	2,092150
7,983667	0,5	2,102800
7,992000	0,5	2,118850
8,000333	0,5	2,133100
8,008667	0,5	2,141500
8,017000	0,5	2,151750
8,025333	0,5	2,151250
8,033667	0,5	2,153350
8,042000	0,5	2,146000
8,050333	0,5	2,137050
8,058667	0,5	2,128000
8,067000	0,5	2,116650
8,075333	0,5	2,103600
8,083667	0,5	2,097750
8,092000	0,5	2,094050
8,100333	0,5	2,095250
8,108667	0,5	2,093600
8,117000	0,5	2,088750
8,125333	0,5	2,086100
8,133667	0,5	2,098350
8,142000	0,5	2,122950
8,150333	0,5	2,144950
8,158667	0,5	2,178950
8,167000	0,5	2,215650
8,175333	0,5	2,246250
8,183667	0,5	2,262050
8,192000	0,5	2,252050
8,200333	0,5	2,213450
8,208667	0,5	2,169300
8,217000	0,5	2,125800
8,225333	0,5	2,097050
8,233667	0,5	2,079800
8,242000	0,5	2,065750
8,250333	0,5	2,070800
8,258667	0,5	2,067450
8,267000	0,5	2,081500
8,275333	0,5	2,108550
8,283667	0,5	2,149450
8,292000	0,5	2,200150
8,300333	0,5	2,230850
8,308667	0,5	2,245400
8,317000	0,5	2,240700
8,325333	0,5	2,217900
8,333667	0,5	2,197350
8,342000	0,5	2,174350
8,350333	0,5	2,158250
8,358667	0,5	2,142250
8,367000	0,5	2,139650
8,375333	0,5	2,134500
8,383667	0,5	2,135000
8,392000	0,5	2,134250
8,400333	0,5	2,140150
8,408667	0,5	2,135750
8,417000	0,5	2,136700
8,425333	0,5	2,148250
8,433667	0,5	2,171800
8,442000	0,5	2,205050
8,450333	0,5	2,240600
8,458667	0,5	2,259400
8,467000	0,5	2,255500
8,475333	0,5	2,214250
8,483667	0,5	2,126550
8,492000	0,5	2,037700
8,500333	0,5	1,955600
8,508667	0,5	1,894300
8,517000	0,5	1,839750
8,525333	0,5	1,801600
8,533667	0,5	1,773700
8,542000	0,5	1,756250
8,550333	0,5	1,740350
8,558667	0,5	1,731100
8,567000	0,5	1,722950
8,575333	0,5	1,719450
8,583667	0,5	1,721650
8,592000	0,5	1,730500
8,600333	0,5	1,734400
8,608667	0,5	1,738050
8,617000	0,5	1,743250
8,625333	0,5	1,750100
8,633667	0,5	1,751650
8,642000	0,5	1,759600
8,650333	0,5	1,760700
8,658667	0,5	1,765800
8,667000	0,5	1,763000
8,675333	0,5	1,759150
8,683667	0,5	1,755450
8,692000	0,5	1,753400
8,700333	0,5	1,755400
8,708667	0,5	1,755100
8,717000	0,5	1,756600
8,725333	0,5	1,763500
8,733667	0,5	1,778350
8,742000	0,5	1,789700
8,750333	0,5	1,797400
8,758667	0,5	1,807200
8,767000	0,5	1,807550
8,775333	0,5	1,808450
8,783667	0,5	1,801450
8,792000	0,5	1,796700
8,800333	0,5	1,792250
8,808667	0,5	1,791850
8,817000	0,5	1,796700
8,825333	0,5	1,800950
8,833667	0,5	1,814850
8,842000	0,5	1,825350
8,850333	0,5	1,837450
8,858667	0,5	1,839750
8,867000	0,5	1,848950
8,875333	0,5	1,859600
8,883667	0,5	1,864750
8,892000	0,5	1,872600
8,900333	0,5	1,881100
8,908667	0,5	1,887300
8,917000	0,5	1,892500
8,925333	0,5	1,899450
8,933667	0,5	1,908550
8,942000	0,5	1,915500
8,950333	0,5	1,918250
8,958667	0,5	1,920400
8,967000	0,5	1,919200
8,975333	0,5	1,916200
8,983667	0,5	1,913900
8,992000	0,5	1,902550
9,000333	0,5	1,896650
9,008667	0,5	1,888050
9,017000	0,5	1,880500
9,025333	0,5	1,878700
9,033667	0,5	1,881650
9,042000	0,5	1,881650
9,050333	0,5	1,884950
9,058667	0,5	1,887600
9,067000	0,5	1,891250
9,075333	0,5	1,896600
9,083667	0,5	1,902300
9,092000	0,5	1,912300
9,100333	0,5	1,921200
9,108667	0,5	1,923500
9,117000	0,5	1,919300
9,125333	0,5	1,903700
9,133667	0,5	1,884750
9,142000	0,5	1,861900
9,150333	0,5	1,841150
9,158667	0,5	1,823250
9,167000	0,5	1,812650
9,175333	0,5	1,810400
9,183667	0,5	1,808550
9,192000	0,5	1,800300
9,200333	0,5	1,789250
9,208667	0,5	1,781500
9,217000	0,5	1,772150
9,225333	0,5	1,767450
9,233667	0,5	1,765400
9,242000	0,5	1,763300
9,250333	0,5	1,761650
9,258667	0,5	1,761300
9,267000	0,5	1,761600
9,275333	0,5	1,758750
9,283667	0,5	1,763850
9,292000	0,5	1,766150
9,300333	0,5	1,761850
9,308667	0,5	1,762250
9,317000	0,5	1,769200
9,325333	0,5	1,772450
9,333667	0,5	1,781650
9,342000	0,5	1,784950
9,350333	0,5	1,790000
9,358667	0,5	1,793050
9,367000	0,5	1,796050
9,375333	0,5	1,800450
9,383667	0,5	1,809150
9,392000	0,5	1,813800
9,400333	0,5	1,818450
9,408667	0,5	1,825800
9,417000	0,5	1,829550
9,425333	0,5	1,822300
9,433667	0,5	1,826500
9,442000	0,5	1,824600
9,450333	0,5	1,812750
9,458667	0,5	1,800700
9,467000	0,5	1,787700
9,475333	0,5	1,777000
9,483667	0,5	1,755250
9,492000	0,5	1,737450
9,500333	0,5	1,721250
9,508667	0,5	1,703300
9,517000	0,5	1,691650
9,525333	0,5	1,678900
9,533667	0,5	1,668150
9,542000	0,5	1,655650
9,550333	0,5	1,645550
9,558667	0,5	1,636250
9,567000	0,5	1,626050
9,575333	0,5	1,607950
9,583667	0,5	1,600850
9,592000	0,5	1,592300
9,600333	0,5	1,579850
9,608667	0,5	1,571050
9,617000	0,5	1,565100
9,625333	0,5	1,557450
9,633667	0,5	1,548350
9,642000	0,5	1,539250
9,650333	0,5	1,534900
9,658667	0,5	1,519900
9,667000	0,5	1,515400
9,675333	0,5	1,507250
9,683667	0,5	1,500650
9,692000	0,5	1,498050
9,700333	0,5	1,482000
9,708667	0,5	1,480300
9,717000	0,5	1,473050
9,725333	0,5	1,465050
9,733667	0,5	1,464900
9,742000	0,5	1,456250
9,750333	0,5	1,450350
9,758667	0,5	1,445700
9,767000	0,5	1,446500
9,775333	0,5	1,446700
9,783667	0,5	1,451850
9,792000	0,5	1,453800
9,800333	0,5	1,456050
9,808667	0,5	1,461300
9,817000	0,5	1,473200
9,825333	0,5	1,484400
9,833667	0,5	1,491250
9,842000	0,5	1,505300
9,850333	0,5	1,524200
9,858667	0,5	1,543150
9,867000	0,5	1,568450
9,875333	0,5	1,614550
9,883667	0,5	1,676550
9,892000	0,5	1,752250
9,900333	0,5	1,850200
9,908667	0,5	1,980150
9,917000	0,5	2,133050
9,925333	0,5	2,299450
9,933667	0,5	2,466800
9,942000	0,5	2,613050
9,950333	0,5	2,727100
9,958667	0,5	2,783700
9,967000	0,5	2,774400
9,975333	0,5	2,695700
9,983667	0,5	2,556250
9,992000	0,5	2,381550
10,000333	0,5	2,207100
10,008667	0,5	2,035950
10,017000	0,5	1,892250
10,025333	0,5	1,780450
10,033667	0,5	1,703150
10,042000	0,5	1,648700
10,050333	0,5	1,614200
10,058667	0,5	1,590800
10,067000	0,5	1,582350
10,075333	0,5	1,580250
10,083667	0,5	1,584100
10,092000	0,5	1,590150
10,100333	0,5	1,598150
10,108667	0,5	1,606750
10,117000	0,5	1,620550
10,125333	0,5	1,632750
10,133667	0,5	1,643250
10,142000	0,5	1,658400
10,150333	0,5	1,674550
10,158667	0,5	1,677750
10,167000	0,5	1,688300
10,175333	0,5	1,700150
10,183667	0,5	1,713300
10,192000	0,5	1,705050
10,200333	0,5	1,697900
10,208667	0,5	1,680450
10,217000	0,5	1,665200
10,225333	0,5	1,643000
10,233667	0,5	1,621850
10,242000	0,5	1,591800
10,250333	0,5	1,570050
10,258667	0,5	1,545000
10,267000	0,5	1,531100
10,275333	0,5	1,512650
10,283667	0,5	1,496150
10,292000	0,5	1,486850
10,300333	0,5	1,477450
10,308667	0,5	1,460400
10,317000	0,5	1,452850
10,325333	0,5	1,446400
10,333667	0,5	1,439500
10,342000	0,5	1,433200
10,350333	0,5	1,431700
10,358667	0,5	1,435600
10,367000	0,5	1,438300
10,375333	0,5	1,450300
10,383667	0,5	1,459600
10,392000	0,5	1,474500
10,400333	0,5	1,488500
10,408667	0,5	1,505500
10,417000	0,5	1,520800
10,425333	0,5	1,543000
10,433667	0,5	1,565400
10,442000	0,5	1,596300
10,450333	0,5	1,622250
10,458667	0,5	1,656450
10,467000	0,5	1,694650
10,475333	0,5	1,728350
10,483667	0,5	1,742700
10,492000	0,5	1,738750
10,500333	0,5	1,721450
10,508667	0,5	1,688150
10,517000	0,5	1,647150
10,525333	0,5	1,600200
10,533667	0,5	1,561450
10,542000	0,5	1,525100
10,550333	0,5	1,501150
10,558667	0,5	1,480850
10,567000	0,5	1,464950
10,575333	0,5	1,451550
10,583667	0,5	1,441800
10,592000	0,5	1,430250
10,600333	0,5	1,418600
10,608667	0,5	1,406050
10,617000	0,5	1,394650
10,625333	0,5	1,387300
10,633667	0,5	1,379200
10,642000	0,5	1,365700
10,650333	0,5	1,360150
10,658667	0,5	1,355300
10,667000	0,5	1,359900
10,675333	0,5	1,356050
10,683667	0,5	1,360800
10,692000	0,5	1,361700
10,700333	0,5	1,372750
10,708667	0,5	1,391600
10,717000	0,5	1,409000
10,725333	0,5	1,439250
10,733667	0,5	1,468800
10,742000	0,5	1,497100
10,750333	0,5	1,504250
10,758667	0,5	1,504450
10,767000	0,5	1,490550
10,775333	0,5	1,450250
10,783667	0,5	1,400600
10,792000	0,5	1,346050
10,800333	0,5	1,298300
10,808667	0,5	1,264750
10,817000	0,5	1,245350
10,825333	0,5	1,230600
10,833667	0,5	1,231800
10,842000	0,5	1,243600
10,850333	0,5	1,264650
10,858667	0,5	1,281600
10,867000	0,5	1,305150
10,875333	0,5	1,329350
10,883667	0,5	1,349850
10,892000	0,5	1,365900
10,900333	0,5	1,376200
10,908667	0,5	1,383750
10,917000	0,5	1,389050
10,925333	0,5	1,379750
10,933667	0,5	1,376900
10,942000	0,5	1,366550
10,950333	0,5	1,365550
10,958667	0,5	1,356250
10,967000	0,5	1,355550
10,975333	0,5	1,348500
10,983667	0,5	1,348150
10,992000	0,5	1,343600
11,000333	0,5	1,345350
11,008667	0,5	1,344800
11,017000	0,5	1,339300
11,025333	0,5	1,336500
11,033667	0,5	1,335800
11,042000	0,5	1,332100
11,050333	0,5	1,334100
11,058667	0,5	1,334200
11,067000	0,5	1,336450
11,075333	0,5	1,335850
11,083667	0,5	1,337100
11,092000	0,5	1,336150
11,100333	0,5	1,338200
11,108667	0,5	1,343150
11,117000	0,5	1,334400
11,125333	0,5	1,337850
11,133667	0,5	1,337000
11,142000	0,5	1,338650
11,150333	0,5	1,338250
11,158667	0,5	1,339450
11,167000	0,5	1,341850
11,175333	0,5	1,338950
11,183667	0,5	1,338150
11,192000	0,5	1,326900
11,200333	0,5	1,328400
11,208667	0,5	1,330450
11,217000	0,5	1,326500
11,225333	0,5	1,318650
11,233667	0,5	1,316400
11,242000	0,5	1,324400
11,250333	0,5	1,331300
11,258667	0,5	1,333500
11,267000	0,5	1,334550
11,275333	0,5	1,341100
11,283667	0,5	1,360650
11,292000	0,5	1,390950
11,300333	0,5	1,434450
11,308667	0,5	1,493650
11,317000	0,5	1,576850
11,325333	0,5	1,655150
11,333667	0,5	1,735900
11,342000	0,5	1,778300
11,350333	0,5	1,810350
11,358667	0,5	1,802550
11,367000	0,5	1,767050
11,375333	0,5	1,712050
11,383667	0,5	1,654300
11,392000	0,5	1,612650
11,400333	0,5	1,577750
11,408667	0,5	1,550600
11,417000	0,5	1,531850
11,425333	0,5	1,516400
11,433667	0,5	1,504000
11,442000	0,5	1,500800
11,450333	0,5	1,500250
11,458667	0,5	1,503750
11,467000	0,5	1,505000
11,475333	0,5	1,522200
11,483667	0,5	1,535600
11,492000	0,5	1,569750
11,500333	0,5	1,623600
11,508667	0,5	1,700350
11,517000	0,5	1,803250
11,525333	0,5	1,963000
11,533667	0,5	2,176300
11,542000	0,5	2,466600
11,550333	0,5	2,801950
11,558667	0,5	3,155950
11,567000	0,5	3,483100
11,575333	0,5	3,749400
11,583667	0,5	3,910950
11,592000	0,5	3,957100
11,600333	0,5	3,897850
11,608667	0,5	3,751850
11,617000	0,5	3,565600
11,625333	0,5	3,377650
11,633667	0,5	3,209500
11,642000	0,5	3,106450
11,650333	0,5	3,077700
11,658667	0,5	3,110500
11,667000	0,5	3,192650
11,675333	0,5	3,293900
11,683667	0,5	3,385100
11,692000	0,5	3,446350
11,700333	0,5	3,448650
11,708667	0,5	3,386300
11,717000	0,5	3,271500
11,725333	0,5	3,116450
11,733667	0,5	2,931650
11,742000	0,5	2,741300
11,750333	0,5	2,549550
11,758667	0,5	2,367250
11,767000	0,5	2,204100
11,775333	0,5	2,063500
11,783667	0,5	1,935700
11,792000	0,5	1,840350
11,800333	0,5	1,753500
11,808667	0,5	1,685550
11,817000	0,5	1,622600
11,825333	0,5	1,573900
11,833667	0,5	1,538300
11,842000	0,5	1,513300
11,850333	0,5	1,489350
11,858667	0,5	1,475050
11,867000	0,5	1,461550
11,875333	0,5	1,450850
11,883667	0,5	1,443750
11,892000	0,5	1,427100
11,900333	0,5	1,421000
11,908667	0,5	1,410300
11,917000	0,5	1,409300
11,925333	0,5	1,397700
11,933667	0,5	1,392100
11,942000	0,5	1,393950
11,950333	0,5	1,390050
11,958667	0,5	1,384750
11,967000	0,5	1,382000
11,975333	0,5	1,379200
11,983667	0,5	1,385450
11,992000	0,5	1,389250
12,000333	0,5	1,389450
12,008667	0,5	1,389950
12,017000	0,5	1,397000
12,025333	0,5	1,400500
12,033667	0,5	1,407650
12,042000	0,5	1,416950
12,050333	0,5	1,429600
12,058667	0,5	1,441250
12,067000	0,5	1,459300
12,075333	0,5	1,462150
12,083667	0,5	1,485950
12,092000	0,5	1,502650
12,100333	0,5	1,515150
12,108667	0,5	1,523600
12,117000	0,5	1,521750
12,125333	0,5	1,527600
12,133667	0,5	1,531700
12,142000	0,5	1,533050
12,150333	0,5	1,532950
12,158667	0,5	1,538900
12,167000	0,5	1,535800
12,175333	0,5	1,539900
12,183667	0,5	1,543100
12,192000	0,5	1,547350
12,200333	0,5	1,556100
12,208667	0,5	1,565900
12,217000	0,5	1,585850
12,225333	0,5	1,595600
12,233667	0,5	1,619850
12,242000	0,5	1,638200
12,250333	0,5	1,663450
12,258667	0,5	1,691050
12,267000	0,5	1,733550
12,275333	0,5	1,799900
12,283667	0,5	1,885300
12,292000	0,5	1,969350
12,300333	0,5	2,051950
12,308667	0,5	2,122400
12,317000	0,5	2,174800
12,325333	0,5	2,220050
12,333667	0,5	2,252550
12,342000	0,5	2,280100
12,350333	0,5	2,311150
12,358667	0,5	2,333450
12,367000	0,5	2,350250
12,375333	0,5	2,343700
12,383667	0,5	2,330700
12,392000	0,5	2,310100
12,400333	0,5	2,282900
12,408667	0,5	2,259450
12,417000	0,5	2,233150
12,425333	0,5	2,230600
12,433667	0,5	2,220050
12,442000	0,5	2,197900
12,450333	0,5	2,168750
12,458667	0,5	2,154850
12,467000	0,5	2,149800
12,475333	0,5	2,169500
12,483667	0,5	2,214450
12,492000	0,5	2,279750
12,500333	0,5	2,367200
12,508667	0,5	2,447300
12,517000	0,5	2,493550
12,525333	0,5	2,517050
12,533667	0,5	2,507650
12,542000	0,5	2,462650
12,550333	0,5	2,378850
12,558667	0,5	2,279550
12,567000	0,5	2,173250
12,575333	0,5	2,075750
12,583667	0,5	1,977400
12,592000	0,5	1,885200
12,600333	0,5	1,803100
12,608667	0,5	1,721250
12,617000	0,5	1,649900
12,625333	0,5	1,590250
12,633667	0,5	1,542850
12,642000	0,5	1,495400
12,650333	0,5	1,457250
12,658667	0,5	1,428050
12,667000	0,5	1,396150
12,675333	0,5	1,374000
12,683667	0,5	1,359200
12,692000	0,5	1,339150
12,700333	0,5	1,317450
12,708667	0,5	1,295750
12,717000	0,5	1,287500
12,725333	0,5	1,282800
12,733667	0,5	1,280000
12,742000	0,5	1,272800
12,750333	0,5	1,266700
12,758667	0,5	1,266250
12,767000	0,5	1,266700
12,775333	0,5	1,267150
12,783667	0,5	1,268500
12,792000	0,5	1,267100
12,800333	0,5	1,256700
12,808667	0,5	1,245900
12,817000	0,5	1,235650
12,825333	0,5	1,233750
12,833667	0,5	1,213600
12,842000	0,5	1,199650
12,850333	0,5	1,167250
12,858667	0,5	1,147150
12,867000	0,5	1,137150
12,875333	0,5	1,148200
12,883667	0,5	1,152600
12,892000	0,5	1,178850
12,900333	0,5	1,214850
12,908667	0,5	1,254200
12,917000	0,5	1,303800
12,925333	0,5	1,342900
12,933667	0,5	1,362350
12,942000	0,5	1,366300
12,950333	0,5	1,324700
12,958667	0,5	1,250650
12,967000	0,5	1,167550
12,975333	0,5	1,083450
12,983667	0,5	1,000350
12,992000	0,5	0,910400
13,000333	0,5	0,819850
13,008667	0,5	0,741800
13,017000	0,5	0,677400
13,025333	0,5	0,572200
13,033667	0,5	0,451200
13,042000	0,5	0,261050
13,050333	0,5	-0,044750
13,058667	0,5	-0,475700
13,067000	0,5	-0,823600
13,075333	0,5	-1,126650
13,083667	0,5	-1,397250
13,092000	0,5	-1,580650
13,100333	0,5	-1,705400
13,108667	0,5	-1,811000
13,117000	0,5	-1,880550
13,125333	0,5	-1,939750
13,133667	0,5	-2,008000
13,142000	0,5	-2,058350
13,150333	0,5	-2,114700
13,158667	0,5	-2,146950
13,167000	0,5	-2,170700
13,175333	0,5	-2,182100
13,183667	0,5	-2,190350
13,192000	0,5	-2,173300
13,200333	0,5	-2,157900
13,208667	0,5	-2,130450
13,217000	0,5	-2,103050
13,225333	0,5	-2,079550
13,233667	0,5	-2,065050
13,242000	0,5	-2,057700
13,250333	0,5	-2,057600
13,258667	0,5	-2,076300
13,267000	0,5	-2,083700
13,275333	0,5	-2,103000
13,283667	0,5	-2,132500
13,292000	0,5	-2,165200
13,300333	0,5	-2,206350
13,308667	0,5	-2,226200
13,317000	0,5	-2,244200
13,325333	0,5	-2,269050
13,333667	0,5	-2,285450
13,342000	0,5	-2,303050
13,350333	0,5	-2,312300
13,358667	0,5	-2,323500
13,367000	0,5	-2,324600
13,375333	0,5	-2,319250
13,383667	0,5	-2,311550
13,392000	0,5	-2,290450
13,400333	0,5	-2,281650
13,408667	0,5	-2,265550
13,417000	0,5	-2,230000
13,425333	0,5	-2,211400
13,433667	0,5	-2,186200
13,442000	0,5	-2,170750
13,450333	0,5	-2,161400
13,458667	0,5	-2,139200
13,467000	0,5	-2,139300
13,475333	0,5	-2,134400
13,483667	0,5	-2,133050
13,492000	0,5	-2,126650
13,500333	0,5	-2,120450
13,508667	0,5	-2,104500
13,517000	0,5	-2,085550
13,525333	0,5	-2,072500
13,533667	0,5	-2,052950
13,542000	0,5	-2,028550
13,550333	0,5	-2,025600
13,558667	0,5	-2,009600
13,567000	0,5	-2,013400
13,575333	0,5	-2,009050
13,583667	0,5	-2,022750
13,592000	0,5	-2,043100
13,600333	0,5	-2,049700
13,608667	0,5	-2,052100
13,617000	0,5	-2,061700
13,625333	0,5	-2,066450
13,633667	0,5	-2,068600
13,642000	0,5	-2,064000
13,650333	0,5	-2,071300
13,658667	0,5	-2,067300
13,667000	0,5	-2,069900
13,675333	0,5	-2,063300
13,683667	0,5	-2,054200
13,692000	0,5	-2,048500
13,700333	0,5	-2,040950
13,708667	0,5	-2,028650
13,717000	0,5	-2,010550
13,725333	0,5	-2,002300
13,733667	0,5	-1,995800
13,742000	0,5	-1,993650
13,750333	0,5	-1,974000
13,758667	0,5	-1,949850
13,767000	0,5	-1,935850
13,775333	0,5	-1,917950
13,783667	0,5	-1,893750
13,792000	0,5	-1,870100
13,800333	0,5	-1,844450
13,808667	0,5	-1,818900
13,817000	0,5	-1,798150
13,825333	0,5	-1,763450
13,833667	0,5	-1,737100
13,842000	0,5	-1,713250
13,850333	0,5	-1,681100
13,858667	0,5	-1,636700
13,867000	0,5	-1,609400
13,875333	0,5	-1,577250
13,883667	0,5	-1,561250
13,892000	0,5	-1,537150
13,900333	0,5	-1,514600
13,908667	0,5	-1,492450
13,917000	0,5	-1,486650
13,925333	0,5	-1,470850
13,933667	0,5	-1,459050
13,942000	0,5	-1,448400
13,950333	0,5	-1,436200
13,958667	0,5	-1,418500
13,967000	0,5	-1,401450
13,975333	0,5	-1,387150
13,983667	0,5	-1,351450
13,992000	0,5	-1,349200
14,000333	0,5	-1,304750
14,008667	0,5	-1,272100
14,017000	0,5	-1,241750
14,025333	0,5	-1,214300
14,033667	0,5	-1,176100
14,042000	0,5	-1,122350
14,050333	0,5	-1,055750
14,058667	0,5	-0,979800
14,067000	0,5	-0,884400
14,075333	0,5	-0,791200
14,083667	0,5	-0,679950
14,092000	0,5	-0,581100
14,100333	0,5	-0,492400
14,108667	0,5	-0,420700
14,117000	0,5	-0,368050
14,125333	0,5	-0,327950
14,133667	0,5	-0,320750
14,142000	0,5	-0,328700
14,150333	0,5	-0,323150
14,158667	0,5	-0,325900
14,167000	0,5	-0,323600
14,175333	0,5	-0,311300
14,183667	0,5	-0,267650
14,192000	0,5	-0,183600
14,200333	0,5	-0,092450
14,208667	0,5	0,006050
14,217000	0,5	0,103100
14,225333	0,5	0,193700
14,233667	0,5	0,243400
14,242000	0,5	0,277100
14,250333	0,5	0,274100
14,258667	0,5	0,260100
14,267000	0,5	0,234350
14,275333	0,5	0,210300
14,283667	0,5	0,175250
14,292000	0,5	0,167750
14,300333	0,5	0,164000
14,308667	0,5	0,170700
14,317000	0,5	0,168700
14,325333	0,5	0,152850
14,333667	0,5	0,151100
14,342000	0,5	0,155250
14,350333	0,5	0,162500
14,358667	0,5	0,159050
14,367000	0,5	0,165550
14,375333	0,5	0,159200
14,383667	0,5	0,167600
14,392000	0,5	0,170600
14,400333	0,5	0,174900
14,408667	0,5	0,176600
14,417000	0,5	0,176900
14,425333	0,5	0,190750
14,433667	0,5	0,184500
14,442000	0,5	0,208400
14,450333	0,5	0,229350
14,458667	0,5	0,247000
14,467000	0,5	0,263200
14,475333	0,5	0,256950
14,483667	0,5	0,264050
14,492000	0,5	0,272750
14,500333	0,5	0,254850
14,508667	0,5	0,246500
14,517000	0,5	0,230500
14,525333	0,5	0,214250
14,533667	0,5	0,190150
14,542000	0,5	0,187650
14,550333	0,5	0,173900
14,558667	0,5	0,161900
14,567000	0,5	0,155150
14,575333	0,5	0,150850
14,583667	0,5	0,129600
14,592000	0,5	0,146900
14,600333	0,5	0,143300
14,608667	0,5	0,153450
14,617000	0,5	0,136500
14,625333	0,5	0,124900
14,633667	0,5	0,134150
14,642000	0,5	0,149500
14,650333	0,5	0,159700
14,658667	0,5	0,185650
14,667000	0,5	0,248700
14,675333	0,5	0,325950
14,683667	0,5	0,435300
14,692000	0,5	0,553850
14,700333	0,5	0,667450
14,708667	0,5	0,740000
14,717000	0,5	0,765650
14,725333	0,5	0,722750
14,733667	0,5	0,652100
14,742000	0,5	0,577400
14,750333	0,5	0,511100
14,758667	0,5	0,464950
14,767000	0,5	0,447600
14,775333	0,5	0,482950
14,783667	0,5	0,543450
14,792000	0,5	0,620500
14,800333	0,5	0,676850
14,808667	0,5	0,695150
14,817000	0,5	0,671600
14,825333	0,5	0,610750
14,833667	0,5	0,538400
14,842000	0,5	0,468700
14,850333	0,5	0,391500
14,858667	0,5	0,351550
14,867000	0,5	0,311900
14,875333	0,5	0,270350
14,883667	0,5	0,253150
14,892000	0,5	0,240350
14,900333	0,5	0,225550
14,908667	0,5	0,214000
14,917000	0,5	0,199350
14,925333	0,5	0,207750
14,933667	0,5	0,223750
14,942000	0,5	0,235050
14,950333	0,5	0,241150
14,958667	0,5	0,249600
14,967000	0,5	0,245500
14,975333	0,5	0,235050
14,983667	0,5	0,227600
14,992000	0,5	0,212300
15,000333	0,5	0,208750
15,008667	0,5	0,204400
15,017000	0,5	0,201550
15,025333	0,5	0,180700
15,033667	0,5	0,173650
15,042000	0,5	0,161250
15,050333	0,5	0,143150
15,058667	0,5	0,108750
15,067000	0,5	0,087900
15,075333	0,5	0,074500
15,083667	0,5	0,074750
15,092000	0,5	0,060200
15,100333	0,5	0,058500
15,108667	0,5	0,050550
15,117000	0,5	0,048250
15,125333	0,5	0,039100
15,133667	0,5	0,030050
15,142000	0,5	0,019750
15,150333	0,5	0,017050
15,158667	0,5	0,035100
15,167000	0,5	0,041100
15,175333	0,5	0,080000
15,183667	0,5	0,140200
15,192000	0,5	0,227650
15,200333	0,5	0,341700
15,208667	0,5	0,464600
15,217000	0,5	0,574400
15,225333	0,5	0,645650
15,233667	0,5	0,636400
15,242000	0,5	0,588250
15,250333	0,5	0,510350
15,258667	0,5	0,459950
15,267000	0,5	0,432650
15,275333	0,5	0,464050
15,283667	0,5	0,517150
15,292000	0,5	0,566450
15,300333	0,5	0,604300
15,308667	0,5	0,607650
15,317000	0,5	0,532750
15,325333	0,5	0,469750
15,333667	0,5	0,386650
15,342000	0,5	0,309300
15,350333	0,5	0,247850
15,358667	0,5	0,196550
15,367000	0,5	0,190850
15,375333	0,5	0,186000
15,383667	0,5	0,181800
15,392000	0,5	0,164050
15,400333	0,5	0,154750
15,408667	0,5	0,135300
15,417000	0,5	0,124900
15,425333	0,5	0,110150
15,433667	0,5	0,106300
15,442000	0,5	0,107800
15,450333	0,5	0,113000
15,458667	0,5	0,115500
15,467000	0,5	0,106950
15,475333	0,5	0,111850
15,483667	0,5	0,094250
15,492000	0,5	0,065650
15,500333	0,5	0,031450
15,508667	0,5	-0,001900
15,517000	0,5	-0,023900
15,525333	0,5	-0,034900
15,533667	0,5	-0,060050
15,542000	0,5	-0,072900
15,550333	0,5	-0,090500
15,558667	0,5	-0,101650
15,567000	0,5	-0,112200
15,575333	0,5	-0,122650
15,583667	0,5	-0,135250
15,592000	0,5	-0,139250
15,600333	0,5	-0,145750
15,608667	0,5	-0,142200
15,617000	0,5	-0,126900
15,625333	0,5	-0,072150
15,633667	0,5	-0,006150
15,642000	0,5	0,095150
15,650333	0,5	0,220400
15,658667	0,5	0,346000
15,667000	0,5	0,473250
15,675333	0,5	0,527350
15,683667	0,5	0,531500
15,692000	0,5	0,484300
15,700333	0,5	0,441050
15,708667	0,5	0,429500
15,717000	0,5	0,443100
15,725333	0,5	0,485500
15,733667	0,5	0,509500
15,742000	0,5	0,496950
15,750333	0,5	0,453100
15,758667	0,5	0,361100
15,767000	0,5	0,281650
15,775333	0,5	0,205400
15,783667	0,5	0,125050
15,792000	0,5	0,054050
15,800333	0,5	-0,014000
15,808667	0,5	-0,045300
15,817000	0,5	-0,051600
15,825333	0,5	-0,065050
15,833667	0,5	-0,066300
15,842000	0,5	-0,054250
15,850333	0,5	-0,053400
15,858667	0,5	-0,047000
15,867000	0,5	-0,053150
15,875333	0,5	-0,053250
15,883667	0,5	-0,072550
15,892000	0,5	-0,083550
15,900333	0,5	-0,130500
15,908667	0,5	-0,154900
15,917000	0,5	-0,172650
15,925333	0,5	-0,189300
15,933667	0,5	-0,219300
15,942000	0,5	-0,252400
15,950333	0,5	-0,274100
15,958667	0,5	-0,286000
15,967000	0,5	-0,289650
15,975333	0,5	-0,297500
15,983667	0,5	-0,306650
15,992000	0,5	-0,304400
16,000333	0,5	-0,312950
16,008667	0,5	-0,306350
16,017000	0,5	-0,282300
16,025333	0,5	-0,238250
16,033667	0,5	-0,154700
16,042000	0,5	-0,038550
16,050333	0,5	0,095050
16,058667	0,5	0,236100
16,067000	0,5	0,350000
16,075333	0,5	0,393000
16,083667	0,5	0,398600
16,092000	0,5	0,357950
16,100333	0,5	0,353150
16,108667	0,5	0,362450
16,117000	0,5	0,379750
16,125333	0,5	0,370850
16,133667	0,5	0,329300
16,142000	0,5	0,253800
16,150333	0,5	0,158050
16,158667	0,5	0,072450
16,167000	0,5	-0,006450
16,175333	0,5	-0,059250
16,183667	0,5	-0,096750
16,192000	0,5	-0,107900
16,200333	0,5	-0,135400
16,208667	0,5	-0,121500
16,217000	0,5	-0,105500
16,225333	0,5	-0,106400
16,233667	0,5	-0,113050
16,242000	0,5	-0,122400
16,250333	0,5	-0,117150
16,258667	0,5	-0,121850
16,267000	0,5	-0,148350
16,275333	0,5	-0,168250
16,283667	0,5	-0,194750
16,292000	0,5	-0,214400
16,300333	0,5	-0,246100
16,308667	0,5	-0,272900
16,317000	0,5	-0,297450
16,325333	0,5	-0,325550
16,333667	0,5	-0,329450
16,342000	0,5	-0,353750
16,350333	0,5	-0,372050
16,358667	0,5	-0,378200
16,367000	0,5	-0,375100
16,375333	0,5	-0,379800
16,383667	0,5	-0,370500
16,392000	0,5	-0,346650
16,400333	0,5	-0,254700
16,408667	0,5	-0,146650
16,417000	0,5	-0,000650
16,425333	0,5	0,130950
16,433667	0,5	0,244150
16,442000	0,5	0,301800
16,450333	0,5	0,325350
16,458667	0,5	0,316400
16,467000	0,5	0,296700
16,475333	0,5	0,280150
16,483667	0,5	0,273300
16,492000	0,5	0,217350
16,500333	0,5	0,163150
16,508667	0,5	0,092800
16,517000	0,5	0,022750
16,525333	0,5	-0,035550
16,533667	0,5	-0,090850
16,542000	0,5	-0,095250
16,550333	0,5	-0,088800
16,558667	0,5	-0,061950
16,567000	0,5	-0,045050
16,575333	0,5	-0,017650
16,583667	0,5	-0,002350
16,592000	0,5	0,021200
16,600333	0,5	0,032000
16,608667	0,5	0,032250
16,617000	0,5	0,024550
16,625333	0,5	-0,000850
16,633667	0,5	-0,007350
16,642000	0,5	-0,032700
16,650333	0,5	-0,034400
16,658667	0,5	-0,045050
16,667000	0,5	-0,052550
16,675333	0,5	-0,072600
16,683667	0,5	-0,100150
16,692000	0,5	-0,114850
16,700333	0,5	-0,115100
16,708667	0,5	-0,146500
16,717000	0,5	-0,154450
16,725333	0,5	-0,146350
16,733667	0,5	-0,104750
16,742000	0,5	-0,037150
16,750333	0,5	0,060800
16,758667	0,5	0,151600
16,767000	0,5	0,232000
16,775333	0,5	0,277850
16,783667	0,5	0,284850
16,792000	0,5	0,267400
16,800333	0,5	0,258700
16,808667	0,5	0,226000
16,817000	0,5	0,171600
16,825333	0,5	0,091850
16,833667	0,5	0,012300
16,842000	0,5	-0,050950
16,850333	0,5	-0,108350
16,858667	0,5	-0,152300
16,867000	0,5	-0,181300
16,875333	0,5	-0,200150
16,883667	0,5	-0,221050
16,892000	0,5	-0,220350
16,900333	0,5	-0,232300
16,908667	0,5	-0,238750
16,917000	0,5	-0,248050
16,925333	0,5	-0,240800
16,933667	0,5	-0,272200
16,942000	0,5	-0,279150
16,950333	0,5	-0,291500
16,958667	0,5	-0,315150
16,967000	0,5	-0,339500
16,975333	0,5	-0,377100
16,983667	0,5	-0,386550
16,992000	0,5	-0,389900
17,000333	0,5	-0,377700
17,008667	0,5	-0,366050
17,017000	0,5	-0,333750
17,025333	0,5	-0,284850
17,033667	0,5	-0,206800
17,042000	0,5	-0,103500
17,050333	0,5	0,022800
17,058667	0,5	0,172000
17,067000	0,5	0,314200
17,075333	0,5	0,428200
17,083667	0,5	0,533900
17,092000	0,5	0,663500
17,100333	0,5	0,794150
17,108667	0,5	0,924150
17,117000	0,5	1,064450
17,125333	0,5	1,200550
17,133667	0,5	1,373200
17,142000	0,5	1,552300
17,150333	0,5	1,722400
17,158667	0,5	1,884400
17,167000	0,5	2,028000
17,175333	0,5	2,155300
17,183667	0,5	2,260750
17,192000	0,5	2,342550
17,200333	0,5	2,389350
17,208667	0,5	2,404100
17,217000	0,5	2,383450
17,225333	0,5	2,280100
17,233667	0,5	2,150000
17,242000	0,5	1,978100
17,250333	0,5	1,772350
17,258667	0,5	1,549200
17,267000	0,5	1,302100
17,275333	0,5	1,101700
17,283667	0,5	0,925800
17,292000	0,5	0,785350
17,300333	0,5	0,674550
17,308667	0,5	0,619200
17,317000	0,5	0,605750
17,325333	0,5	0,608800
17,333667	0,5	0,636050
17,342000	0,5	0,657050
17,350333	0,5	0,648500
17,358667	0,5	0,629300
17,367000	0,5	0,609750
17,375333	0,5	0,541900
17,383667	0,5	0,508400
17,392000	0,5	0,453150
17,400333	0,5	0,418350
17,408667	0,5	0,382350
17,417000	0,5	0,361150
17,425333	0,5	0,361900
17,433667	0,5	0,401950
17,442000	0,5	0,432850
17,450333	0,5	0,464650
17,458667	0,5	0,484500
17,467000	0,5	0,501050
17,475333	0,5	0,503400
17,483667	0,5	0,492200
17,492000	0,5	0,479500
17,500333	0,5	0,438050
17,508667	0,5	0,413100
17,517000	0,5	0,353350
17,525333	0,5	0,272300
17,533667	0,5	0,214150
17,542000	0,5	0,161950
17,550333	0,5	0,124550
17,558667	0,5	0,111600
17,567000	0,5	0,098450
17,575333	0,5	0,143250
17,583667	0,5	0,170600
17,592000	0,5	0,187350
17,600333	0,5	0,175350
17,608667	0,5	0,155800
17,617000	0,5	0,102150
17,625333	0,5	0,042400
17,633667	0,5	-0,020800
17,642000	0,5	-0,088250
17,650333	0,5	-0,138300
17,658667	0,5	-0,182400
17,667000	0,5	-0,215300
17,675333	0,5	-0,257200
17,683667	0,5	-0,276400
17,692000	0,5	-0,306500
17,700333	0,5	-0,334300
17,708667	0,5	-0,380100
17,717000	0,5	-0,380200
17,725333	0,5	-0,431800
17,733667	0,5	-0,436650
17,742000	0,5	-0,447600
17,750333	0,5	-0,447400
17,758667	0,5	-0,451850
17,767000	0,5	-0,442600
17,775333	0,5	-0,425600
17,783667	0,5	-0,387600
17,792000	0,5	-0,344050
17,800333	0,5	-0,282350
17,808667	0,5	-0,222550
17,817000	0,5	-0,179500
17,825333	0,5	-0,152000
17,833667	0,5	-0,150750
17,842000	0,5	-0,165950
17,850333	0,5	-0,214800
17,858667	0,5	-0,272250
17,867000	0,5	-0,327150
17,875333	0,5	-0,348200
17,883667	0,5	-0,378900
17,892000	0,5	-0,395850
17,900333	0,5	-0,424850
17,908667	0,5	-0,446650
17,917000	0,5	-0,464100
17,925333	0,5	-0,475450
17,933667	0,5	-0,493000
17,942000	0,5	-0,503350
17,950333	0,5	-0,488300
17,958667	0,5	-0,489800
17,967000	0,5	-0,491950
17,975333	0,5	-0,466000
17,983667	0,5	-0,439100
17,992000	0,5	-0,398000
18,000333	0,5	-0,366950
18,008667	0,5	-0,318450
18,017000	0,5	-0,256800
18,025333	0,5	-0,215300
18,033667	0,5	-0,212400
18,042000	0,5	-0,225150
18,050333	0,5	-0,251350
18,058667	0,5	-0,287150
18,067000	0,5	-0,317350
18,075333	0,5	-0,356100
18,083667	0,5	-0,379700
18,092000	0,5	-0,408150
18,100333	0,5	-0,423200
18,108667	0,5	-0,464800
18,117000	0,5	-0,467400
18,125333	0,5	-0,476550
18,133667	0,5	-0,492950
18,142000	0,5	-0,512100
18,150333	0,5	-0,535650
18,158667	0,5	-0,523850
18,167000	0,5	-0,497300
18,175333	0,5	-0,454250
18,183667	0,5	-0,406800
18,192000	0,5	-0,356600
18,200333	0,5	-0,320800
18,208667	0,5	-0,297150
18,217000	0,5	-0,294650
18,225333	0,5	-0,310600
18,233667	0,5	-0,356300
18,242000	0,5	-0,388850
18,250333	0,5	-0,424800
18,258667	0,5	-0,454500
18,267000	0,5	-0,465250
18,275333	0,5	-0,474100
18,283667	0,5	-0,493050
18,292000	0,5	-0,513150
18,300333	0,5	-0,540800
18,308667	0,5	-0,535800
18,317000	0,5	-0,525500
18,325333	0,5	-0,524050
18,333667	0,5	-0,508300
18,342000	0,5	-0,495450
18,350333	0,5	-0,466150
18,358667	0,5	-0,438200
18,367000	0,5	-0,396850
18,375333	0,5	-0,390250
18,383667	0,5	-0,388300
18,392000	0,5	-0,400300
18,400333	0,5	-0,426250
18,408667	0,5	-0,459750
18,417000	0,5	-0,466350
18,425333	0,5	-0,492750
18,433667	0,5	-0,510350
18,442000	0,5	-0,552300
18,450333	0,5	-0,573200
18,458667	0,5	-0,562400
18,467000	0,5	-0,566550
18,475333	0,5	-0,574350
18,483667	0,5	-0,574000
18,492000	0,5	-0,565850
18,500333	0,5	-0,558400
18,508667	0,5	-0,545250
18,517000	0,5	-0,533250
18,525333	0,5	-0,517800
18,533667	0,5	-0,502600
18,542000	0,5	-0,473400
18,550333	0,5	-0,500850
18,558667	0,5	-0,500050
18,567000	0,5	-0,519450
18,575333	0,5	-0,537800
18,583667	0,5	-0,582700
18,592000	0,5	-0,626300
18,600333	0,5	-0,640100
18,608667	0,5	-0,641450
18,617000	0,5	-0,648950
18,625333	0,5	-0,657900
18,633667	0,5	-0,667600
18,642000	0,5	-0,681550
18,650333	0,5	-0,693150
18,658667	0,5	-0,688250
18,667000	0,5	-0,664250
18,675333	0,5	-0,644450
18,683667	0,5	-0,616050
18,692000	0,5	-0,595350
18,700333	0,5	-0,589550
18,708667	0,5	-0,586900
18,717000	0,5	-0,595800
18,725333	0,5	-0,611450
18,733667	0,5	-0,618650
18,742000	0,5	-0,642500
18,750333	0,5	-0,633550
18,758667	0,5	-0,614950
18,767000	0,5	-0,600300
18,775333	0,5	-0,586500
18,783667	0,5	-0,565950
18,792000	0,5	-0,542650
18,800333	0,5	-0,514500
18,808667	0,5	-0,482600
18,817000	0,5	-0,466750
18,825333	0,5	-0,451750
18,833667	0,5	-0,458100
18,842000	0,5	-0,466450
18,850333	0,5	-0,493350
18,858667	0,5	-0,495750
18,867000	0,5	-0,522850
18,875333	0,5	-0,549350
18,883667	0,5	-0,588500
18,892000	0,5	-0,604000
18,900333	0,5	-0,598400
18,908667	0,5	-0,581600
18,917000	0,5	-0,579450
18,925333	0,5	-0,560050
18,933667	0,5	-0,554000
18,942000	0,5	-0,541950
18,950333	0,5	-0,547500
18,958667	0,5	-0,559250
18,967000	0,5	-0,568700
18,975333	0,5	-0,592950
18,983667	0,5	-0,610400
18,992000	0,5	-0,655200
19,000333	0,5	-0,672350
19,008667	0,5	-0,683750
19,017000	0,5	-0,699450
19,025333	0,5	-0,728550
19,033667	0,5	-0,755950
19,042000	0,5	-0,763650
19,050333	0,5	-0,762650
19,058667	0,5	-0,763100
19,067000	0,5	-0,755200
19,075333	0,5	-0,764800
19,083667	0,5	-0,769600
19,092000	0,5	-0,784750
19,100333	0,5	-0,794100
19,108667	0,5	-0,807900
19,117000	0,5	-0,832150
19,125333	0,5	-0,832550
19,133667	0,5	-0,853950
19,142000	0,5	-0,879500
19,150333	0,5	-0,882300
19,158667	0,5	-0,890100
19,167000	0,5	-0,908250
19,175333	0,5	-0,932350
19,183667	0,5	-0,964450
19,192000	0,5	-0,967350
19,200333	0,5	-0,985050
19,208667	0,5	-0,998650
19,217000	0,5	-1,021950
19,225333	0,5	-1,028950
19,233667	0,5	-1,057000
19,242000	0,5	-1,061850
19,250333	0,5	-1,064950
19,258667	0,5	-1,080400
19,267000	0,5	-1,065550
19,275333	0,5	-1,061100
19,283667	0,5	-1,086150
19,292000	0,5	-1,087600
19,300333	0,5	-1,093400
19,308667	0,5	-1,108250
19,317000	0,5	-1,124100
19,325333	0,5	-1,164700
19,333667	0,5	-1,162150
19,342000	0,5	-1,160850
19,350333	0,5	-1,154050
19,358667	0,5	-1,178750
19,367000	0,5	-1,183100
19,375333	0,5	-1,195150
19,383667	0,5	-1,197400
19,392000	0,5	-1,206100
19,400333	0,5	-1,209750
19,408667	0,5	-1,220000
19,417000	0,5	-1,220300
19,425333	0,5	-1,212750
19,433667	0,5	-1,231650
19,442000	0,5	-1,219150
19,450333	0,5	-1,220200
19,458667	0,5	-1,225050
19,467000	0,5	-1,237150
19,475333	0,5	-1,268700
19,483667	0,5	-1,265900
19,492000	0,5	-1,261100
19,500333	0,5	-1,272300
19,508667	0,5	-1,266700
19,517000	0,5	-1,277950
19,525333	0,5	-1,289350
19,533667	0,5	-1,300150
19,542000	0,5	-1,315000
19,550333	0,5	-1,335950
19,558667	0,5	-1,360600
19,567000	0,5	-1,356450
19,575333	0,5	-1,365700
19,583667	0,5	-1,379750
19,592000	0,5	-1,380450
19,600333	0,5	-1,392500
19,608667	0,5	-1,419650
19,617000	0,5	-1,452350
19,625333	0,5	-1,479450
19,633667	0,5	-1,467800
19,642000	0,5	-1,480750
19,650333	0,5	-1,481200
19,658667	0,5	-1,490100
19,667000	0,5	-1,500100
19,675333	0,5	-1,513850
19,683667	0,5	-1,513900
19,692000	0,5	-1,515050
19,700333	0,5	-1,522400
19,708667	0,5	-1,532900
19,717000	0,5	-1,527050
19,725333	0,5	-1,550350
19,733667	0,5	-1,561050
19,742000	0,5	-1,569500
19,750333	0,5	-1,587000
19,758667	0,5	-1,612500
19,767000	0,5	-1,659350
19,775333	0,5	-1,668000
19,783667	0,5	-1,678200
19,792000	0,5	-1,682700
19,800333	0,5	-1,703650
19,808667	0,5	-1,718500
19,817000	0,5	-1,731500
19,825333	0,5	-1,738450
19,833667	0,5	-1,742550
19,842000	0,5	-1,761750
19,850333	0,5	-1,777700
19,858667	0,5	-1,770700
19,867000	0,5	-1,780150
19,875333	0,5	-1,788900
19,883667	0,5	-1,783250
19,892000	0,5	-1,791600
19,900333	0,5	-1,803650
19,908667	0,5	-1,833050
19,917000	0,5	-1,855150
19,925333	0,5	-1,858000
19,933667	0,5	-1,849750
19,942000	0,5	-1,851450
19,950333	0,5	-1,863250
19,958667	0,5	-1,872000
19,967000	0,5	-1,883450
19,975333	0,5	-1,896450
19,983667	0,5	-1,892000
19,992000	0,5	-1,904300
20,000333	0,5	-1,910150
20,008667	0,5	-1,906250
20,017000	0,5	-1,933200
20,025333	0,5	-1,945750
20,033667	0,5	-1,951350
20,042000	0,5	-1,972950
20,050333	0,5	-1,991000
20,058667	0,5	-2,039250
20,067000	0,5	-2,060750
20,075333	0,5	-2,071250
20,083667	0,5	-2,076600
20,092000	0,5	-2,091650
20,100333	0,5	-2,092250
20,108667	0,5	-2,106300
20,117000	0,5	-2,123850
20,125333	0,5	-2,119550
20,133667	0,5	-2,137250
20,142000	0,5	-2,145750
20,150333	0,5	-2,146050
20,158667	0,5	-2,146250
20,167000	0,5	-2,177550
20,175333	0,5	-2,177200
20,183667	0,5	-2,172750
20,192000	0,5	-2,177500
20,200333	0,5	-2,194050
20,208667	0,5	-2,212900
20,217000	0,5	-2,208750
20,225333	0,5	-2,204500
20,233667	0,5	-2,214200
20,242000	0,5	-2,218950
20,250333	0,5	-2,232500
20,258667	0,5	-2,254500
20,267000	0,5	-2,273150
20,275333	0,5	-2,303700
20,283667	0,5	-2,320450
20,292000	0,5	-2,342450
20,300333	0,5	-2,339250
20,308667	0,5	-2,368800
20,317000	0,5	-2,380350
20,325333	0,5	-2,395250
20,333667	0,5	-2,409200
20,342000	0,5	-2,453600
20,350333	0,5	-2,495100
20,358667	0,5	-2,529400
20,367000	0,5	-2,544050
20,375333	0,5	-2,573700
20,383667	0,5	-2,596650
20,392000	0,5	-2,619450
20,400333	0,5	-2,647350
20,408667	0,5	-2,675400
20,417000	0,5	-2,699450
20,425333	0,5	-2,719550
20,433667	0,5	-2,749250
20,442000	0,5	-2,765850
20,450333	0,5	-2,775900
20,458667	0,5	-2,808300
20,467000	0,5	-2,824250
20,475333	0,5	-2,854500
20,483667	0,5	-2,880850
20,492000	0,5	-2,912950
20,500333	0,5	-2,976800
20,508667	0,5	-2,992250
20,517000	0,5	-3,012000
20,525333	0,5	-3,029550
20,533667	0,5	-3,042050
20,542000	0,5	-3,042900
20,550333	0,5	-3,054400
20,558667	0,5	-3,067050
20,567000	0,5	-3,082450
20,575333	0,5	-3,122100
20,583667	0,5	-3,172800
20,592000	0,5	-3,193400
20,600333	0,5	-3,227150
20,608667	0,5	-3,290400
20,617000	0,5	-3,323850
20,625333	0,5	-3,366650
20,633667	0,5	-3,411100
20,642000	0,5	-3,481350
20,650333	0,5	-3,535400
20,658667	0,5	-3,565400
20,667000	0,5	-3,590200
20,675333	0,5	-3,627450
20,683667	0,5	-3,666050
20,692000	0,5	-3,689000
20,700333	0,5	-3,704900
20,708667	0,5	-3,705350
20,717000	0,5	-3,706050
20,725333	0,5	-3,695350
20,733667	0,5	-3,687500
20,742000	0,5	-3,668550
20,750333	0,5	-3,696750
20,758667	0,5	-3,745600
20,767000	0,5	-3,813700
20,775333	0,5	-3,877450
20,783667	0,5	-3,978050
20,792000	0,5	-4,046750
20,800333	0,5	-4,108400
20,808667	0,5	-4,151500
20,817000	0,5	-4,193750
20,825333	0,5	-4,236750
20,833667	0,5	-4,284200
20,842000	0,5	-4,319700
20,850333	0,5	-4,359700
20,858667	0,5	-4,393650
20,867000	0,5	-4,426250
20,875333	0,5	-4,466900
20,883667	0,5	-4,466050
20,892000	0,5	-4,479050
20,900333	0,5	-4,511250
20,908667	0,5	-4,532100
20,917000	0,5	-4,564900
20,925333	0,5	-4,616350
20,933667	0,5	-4,678650
20,942000	0,5	-4,749400
20,950333	0,5	-4,786350
20,958667	0,5	-4,821850
20,967000	0,5	-4,855950
20,975333	0,5	-4,889800
20,983667	0,5	-4,928000
20,992000	0,5	-4,967800
21,000333	0,5	-4,993400
21,008667	0,5	-5,015350
21,017000	0,5	-5,053900
21,025333	0,5	-5,060500
21,033667	0,5	-5,069000
21,042000	0,5	-5,083200
21,050333	0,5	-5,114300
21,058667	0,5	-5,141750
21,067000	0,5	-5,186550
21,075333	0,5	-5,211350
21,083667	0,5	-5,278100
21,092000	0,5	-5,311900
21,100333	0,5	-5,338450
21,108667	0,5	-5,360800
21,117000	0,5	-5,394800
21,125333	0,5	-5,417450
21,133667	0,5	-5,453100
21,142000	0,5	-5,480700
21,150333	0,5	-5,508400
21,158667	0,5	-5,536500
21,167000	0,5	-5,562900
21,175333	0,5	-5,564250
21,183667	0,5	-5,564500
21,192000	0,5	-5,592350
21,200333	0,5	-5,619450
21,208667	0,5	-5,647400
21,217000	0,5	-5,678500
21,225333	0,5	-5,731300
21,233667	0,5	-5,764000
21,242000	0,5	-5,777200
21,250333	0,5	-5,786200
21,258667	0,5	-5,810650
21,267000	0,5	-5,827100
21,275333	0,5	-5,840450
21,283667	0,5	-5,846300
21,292000	0,5	-5,849150
21,300333	0,5	-5,854850
21,308667	0,5	-5,869300
21,317000	0,5	-5,891050
21,325333	0,5	-5,874250
21,333667	0,5	-5,892650
21,342000	0,5	-5,926350
21,350333	0,5	-5,955250
21,358667	0,5	-5,995350
21,367000	0,5	-6,033650
21,375333	0,5	-6,090450
21,383667	0,5	-6,105750
21,392000	0,5	-6,116300
21,400333	0,5	-6,153600
21,408667	0,5	-6,168650
21,417000	0,5	-6,182750
21,425333	0,5	-6,201600
21,433667	0,5	-6,219400
21,442000	0,5	-6,230600
21,450333	0,5	-6,242450
21,458667	0,5	-6,263300
21,467000	0,5	-6,252400
21,475333	0,5	-6,250750
21,483667	0,5	-6,270400
21,492000	0,5	-6,296200
21,500333	0,5	-6,311750
21,508667	0,5	-6,335200
21,517000	0,5	-6,359800
21,525333	0,5	-6,404850
21,533667	0,5	-6,402850
21,542000	0,5	-6,409600
21,550333	0,5	-6,424550
21,558667	0,5	-6,441800
21,567000	0,5	-6,453550
21,575333	0,5	-6,472650
21,583667	0,5	-6,470400
21,592000	0,5	-6,477000
21,600333	0,5	-6,502350
21,608667	0,5	-6,500650
21,617000	0,5	-6,465150
21,625333	0,5	-6,462400
21,633667	0,5	-6,471750
21,642000	0,5	-6,457850
21,650333	0,5	-6,462900
21,658667	0,5	-6,465250
21,667000	0,5	-6,477800
21,675333	0,5	-6,482400
21,683667	0,5	-6,477050
21,692000	0,5	-6,483200
21,700333	0,5	-6,506750
21,708667	0,5	-6,528950
21,717000	0,5	-6,552500
21,725333	0,5	-6,565100
21,733667	0,5	-6,566750
21,742000	0,5	-6,583450
21,750333	0,5	-6,588800
21,758667	0,5	-6,598300
21,767000	0,5	-6,600500
21,775333	0,5	-6,628150
21,783667	0,5	-6,642100
21,792000	0,5	-6,670000
21,800333	0,5	-6,695050
21,808667	0,5	-6,746250
21,817000	0,5	-6,767600
21,825333	0,5	-6,777250
21,833667	0,5	-6,770100
21,842000	0,5	-6,789800
21,850333	0,5	-6,808450
21,858667	0,5	-6,809050
21,867000	0,5	-6,826550
21,875333	0,5	-6,854700
21,883667	0,5	-6,868950
21,892000	0,5	-6,880650
21,900333	0,5	-6,907100
21,908667	0,5	-6,894600
21,917000	0,5	-6,916250
21,925333	0,5	-6,902350
21,933667	0,5	-6,860450
21,942000	0,5	-6,835050
21,950333	0,5	-6,831650
21,958667	0,5	-6,856850
21,967000	0,5	-6,895050
21,975333	0,5	-6,932250
21,983667	0,5	-6,977400
21,992000	0,5	-7,013400
22,000333	0,5	-7,049800
22,008667	0,5	-7,086900
22,017000	0,5	-7,122450
22,025333	0,5	-7,141200
22,033667	0,5	-7,170950
22,042000	0,5	-7,204200
22,050333	0,5	-7,221000
22,058667	0,5	-7,254400
22,067000	0,5	-7,276800
22,075333	0,5	-7,294600
22,083667	0,5	-7,305550
22,092000	0,5	-7,333800
22,100333	0,5	-7,366950
22,108667	0,5	-7,398850
22,117000	0,5	-7,416250
22,125333	0,5	-7,428750
22,133667	0,5	-7,437450
22,142000	0,5	-7,454600
22,150333	0,5	-7,459500
22,158667	0,5	-7,479400
22,167000	0,5	-7,492450
22,175333	0,5	-7,507600
22,183667	0,5	-7,523700
22,192000	0,5	-7,535900
22,200333	0,5	-7,556550
22,208667	0,5	-7,579150
22,217000	0,5	-7,583500
22,225333	0,5	-7,573250
22,233667	0,5	-7,583150
22,242000	0,5	-7,582800
22,250333	0,5	-7,607900
22,258667	0,5	-7,612900
22,267000	0,5	-7,603050
22,275333	0,5	-7,596300
22,283667	0,5	-7,589900
22,292000	0,5	-7,581550
22,300333	0,5	-7,575400
22,308667	0,5	-7,565450
22,317000	0,5	-7,570350
22,325333	0,5	-7,554350
22,333667	0,5	-7,544600
22,342000	0,5	-7,551900
22,350333	0,5	-7,532700
22,358667	0,5	-7,504200
22,367000	0,5	-7,407150
22,375333	0,5	-7,327750
22,383667	0,5	-7,289450
22,392000	0,5	-7,296000
22,400333	0,5	-7,358000
22,408667	0,5	-7,393250
22,417000	0,5	-7,446750
22,425333	0,5	-7,484400
22,433667	0,5	-7,517000
22,442000	0,5	-7,537450
22,450333	0,5	-7,558000
22,458667	0,5	-7,566800
22,467000	0,5	-7,590500
22,475333	0,5	-7,590050
22,483667	0,5	-7,613550
22,492000	0,5	-7,647900
22,500333	0,5	-7,666100
22,508667	0,5	-7,635050
22,517000	0,5	-7,623850
22,525333	0,5	-7,604800
22,533667	0,5	-7,612650
22,542000	0,5	-7,616800
22,550333	0,5	-7,606600
22,558667	0,5	-7,566400
22,567000	0,5	-7,533900
22,575333	0,5	-7,503350
22,583667	0,5	-7,476850
22,592000	0,5	-7,459000
22,600333	0,5	-7,442200
22,608667	0,5	-7,450000
22,617000	0,5	-7,443550
22,625333	0,5	-7,446700
22,633667	0,5	-7,492450
22,642000	0,5	-7,520300
22,650333	0,5	-7,516350
22,658667	0,5	-7,498000
22,667000	0,5	-7,499150
22,675333	0,5	-7,516000
22,683667	0,5	-7,540150
22,692000	0,5	-7,582050
22,700333	0,5	-7,591250
22,708667	0,5	-7,609900
22,717000	0,5	-7,625350
22,725333	0,5	-7,650450
22,733667	0,5	-7,653150
22,742000	0,5	-7,676850
22,750333	0,5	-7,690900
22,758667	0,5	-7,705550
22,767000	0,5	-7,709000
22,775333	0,5	-7,724450
22,783667	0,5	-7,824800
22,792000	0,5	-7,802700
22,800333	0,5	-7,807400
22,808667	0,5	-7,799800
22,817000	0,5	-7,812300
22,825333	0,5	-7,833750
22,833667	0,5	-7,848050
22,842000	0,5	-7,868200
22,850333	0,5	-7,891200
22,858667	0,5	-7,907350
22,867000	0,5	-7,911400
22,875333	0,5	-7,921000
22,883667	0,5	-7,929700
22,892000	0,5	-7,925200
22,900333	0,5	-7,927150
22,908667	0,5	-7,908700
22,917000	0,5	-7,891150
22,925333	0,5	-7,851250
22,933667	0,5	-7,869850
22,942000	0,5	-7,838750
22,950333	0,5	-7,812450
22,958667	0,5	-7,826550
22,967000	0,5	-7,805450
22,975333	0,5	-7,759750
22,983667	0,5	-7,725350
22,992000	0,5	-7,702800
23,000333	0,5	-7,679350
23,008667	0,5	-7,639700
23,017000	0,5	-7,592750
23,025333	0,5	-7,536350
23,033667	0,5	-7,485150
23,042000	0,5	-7,418900
23,050333	0,5	-7,355100
23,058667	0,5	-7,283900
23,067000	0,5	-7,197500
23,075333	0,5	-7,083850
23,083667	0,5	-7,015650
23,092000	0,5	-6,941950
23,100333	0,5	-6,906800
23,108667	0,5	-6,853250
23,117000	0,5	-6,757650
23,125333	0,5	-6,684600
23,133667	0,5	-6,601300
23,142000	0,5	-6,547200
23,150333	0,5	-6,469150
23,158667	0,5	-6,399200
23,167000	0,5	-6,318400
23,175333	0,5	-6,244850
23,183667	0,5	-6,150300
23,192000	0,5	-6,065100
23,200333	0,5	-5,977700
23,208667	0,5	-5,882150
23,217000	0,5	-5,765300
23,225333	0,5	-5,703050
23,233667	0,5	-5,583600
23,242000	0,5	-5,478250
23,250333	0,5	-5,435450
23,258667	0,5	-5,354450
23,267000	0,5	-5,284150
23,275333	0,5	-5,185650
23,283667	0,5	-5,122900
23,292000	0,5	-5,054250
23,300333	0,5	-4,994900
23,308667	0,5	-4,919800
23,317000	0,5	-4,851650
23,325333	0,5	-4,780800
23,333667	0,5	-4,712450
23,342000	0,5	-4,637200
23,350333	0,5	-4,569650
23,358667	0,5	-4,491750
23,367000	0,5	-4,421550
23,375333	0,5	-4,370750
23,383667	0,5	-4,276000
23,392000	0,5	-4,185850
23,400333	0,5	-4,139450
23,408667	0,5	-4,084000
23,417000	0,5	-4,019450
23,425333	0,5	-3,956650
23,433667	0,5	-3,912750
23,442000	0,5	-3,876550
23,450333	0,5	-3,829450
23,458667	0,5	-3,786300
23,467000	0,5	-3,739850
23,475333	0,5	-3,698000
23,483667	0,5	-3,649000
23,492000	0,5	-3,607550
23,500333	0,5	-3,559700
23,508667	0,5	-3,521000
23,517000	0,5	-3,606750
23,525333	0,5	-3,537350
23,533667	0,5	-3,460550
23,542000	0,5	-3,384400
23,550333	0,5	-3,346150
23,558667	0,5	-3,301800
23,567000	0,5	-3,273100
23,575333	0,5	-3,239300
23,583667	0,5	-3,217150
23,592000	0,5	-3,179950
23,600333	0,5	-3,155600
23,608667	0,5	-3,120800
23,617000	0,5	-3,090000
23,625333	0,5	-3,063850
23,633667	0,5	-3,029950
23,642000	0,5	-3,002200
23,650333	0,5	-2,968700
23,658667	0,5	-2,978700
23,667000	0,5	-3,087850
23,675333	0,5	-3,034800
23,683667	0,5	-2,946200
23,692000	0,5	-2,896450
23,700333	0,5	-2,859950
23,708667	0,5	-2,830350
23,717000	0,5	-2,809950
23,725333	0,5	-2,803100
23,733667	0,5	-2,772250
23,742000	0,5	-2,745700
23,750333	0,5	-2,726150
23,758667	0,5	-2,701800
23,767000	0,5	-2,674650
23,775333	0,5	-2,649900
23,783667	0,5	-2,616050
23,792000	0,5	-2,594750
23,800333	0,5	-2,566700
23,808667	0,5	-2,692500
23,817000	0,5	-2,699700
23,825333	0,5	-2,647600
23,833667	0,5	-2,563250
23,842000	0,5	-2,502700
23,850333	0,5	-2,472500
23,858667	0,5	-2,449400
23,867000	0,5	-2,431000
23,875333	0,5	-2,410300
23,883667	0,5	-2,383900
23,892000	0,5	-2,358400
23,900333	0,5	-2,331200
23,908667	0,5	-2,309250
23,917000	0,5	-2,285100
23,925333	0,5	-2,270400
23,933667	0,5	-2,242500
23,942000	0,5	-2,214050
23,950333	0,5	-2,190450
23,958667	0,5	-2,361050
23,967000	0,5	-2,319150
23,975333	0,5	-2,267250
23,983667	0,5	-2,187400
23,992000	0,5	-2,139000
24,000333	0,5	-2,102000
24,008667	0,5	-2,089850
24,017000	0,5	-2,073900
24,025333	0,5	-2,054050
24,033667	0,5	-2,018200
24,042000	0,5	-1,992850
24,050333	0,5	-1,958050
24,058667	0,5	-1,930850
24,067000	0,5	-1,904350
24,075333	0,5	-1,879650
24,083667	0,5	-1,848750
24,092000	0,5	-1,821650
24,100333	0,5	-1,869550
24,108667	0,5	-1,931800
24,117000	0,5	-1,908750
24,125333	0,5	-1,851150
24,133667	0,5	-1,795500
24,142000	0,5	-1,758150
24,150333	0,5	-1,731950
24,158667	0,5	-1,725200
24,167000	0,5	-1,710550
24,175333	0,5	-1,682600
24,183667	0,5	-1,662900
24,192000	0,5	-1,636550
24,200333	0,5	-1,618500
24,208667	0,5	-1,583300
24,217000	0,5	-1,567700
24,225333	0,5	-1,545100
24,233667	0,5	-1,510000
24,242000	0,5	-1,499000
24,250333	0,5	-1,578000
24,258667	0,5	-1,578450
24,267000	0,5	-1,545300
24,275333	0,5	-1,488800
24,283667	0,5	-1,439350
24,292000	0,5	-1,421200
24,300333	0,5	-1,398800
24,308667	0,5	-1,392950
24,317000	0,5	-1,366500
24,325333	0,5	-1,350950
24,333667	0,5	-1,331250
24,342000	0,5	-1,314250
24,350333	0,5	-1,287450
24,358667	0,5	-1,275850
24,367000	0,5	-1,256550
24,375333	0,5	-1,236900
24,383667	0,5	-1,218450
24,392000	0,5	-1,213950
24,400333	0,5	-1,295500
24,408667	0,5	-1,264100
24,417000	0,5	-1,243450
24,425333	0,5	-1,194400
24,433667	0,5	-1,164750
24,442000	0,5	-1,148200
24,450333	0,5	-1,138150
24,458667	0,5	-1,133650
24,467000	0,5	-1,114050
24,475333	0,5	-1,086900
24,483667	0,5	-1,074850
24,492000	0,5	-1,049950
24,500333	0,5	-1,037900
24,508667	0,5	-1,017700
24,517000	0,5	-1,006300
24,525333	0,5	-0,994200
24,533667	0,5	-0,977850
24,542000	0,5	-1,017550
24,550333	0,5	-1,022400
24,558667	0,5	-1,012450
24,567000	0,5	-0,981050
24,575333	0,5	-0,958750
24,583667	0,5	-0,939800
24,592000	0,5	-0,931650
24,600333	0,5	-0,928150
24,608667	0,5	-0,923150
24,617000	0,5	-0,901150
24,625333	0,5	-0,897150
24,633667	0,5	-0,887900
24,642000	0,5	-0,881200
24,650333	0,5	-0,869500
24,658667	0,5	-0,856050
24,667000	0,5	-0,841800
24,675333	0,5	-0,827100
24,683667	0,5	-0,819100
24,692000	0,5	-0,859650
24,700333	0,5	-0,843000
24,708667	0,5	-0,830300
24,717000	0,5	-0,796750
24,725333	0,5	-0,784700
24,733667	0,5	-0,771750
24,742000	0,5	-0,764450
24,750333	0,5	-0,767150
24,758667	0,5	-0,758400
24,767000	0,5	-0,751950
24,775333	0,5	-0,743000
24,783667	0,5	-0,741100
24,792000	0,5	-0,729850
24,800333	0,5	-0,729150
24,808667	0,5	-0,719850
24,817000	0,5	-0,713800
24,825333	0,5	-0,708200
24,833667	0,5	-0,710350
24,842000	0,5	-0,734500
24,850333	0,5	-0,720200
24,858667	0,5	-0,708550
24,867000	0,5	-0,696300
24,875333	0,5	-0,677950
24,883667	0,5	-0,673250
24,892000	0,5	-0,666050
24,900333	0,5	-0,663650
24,908667	0,5	-0,657650
24,917000	0,5	-0,648900
24,925333	0,5	-0,639450
24,933667	0,5	-0,637150
24,942000	0,5	-0,628050
24,950333	0,5	-0,622600
24,958667	0,5	-0,616150
24,967000	0,5	-0,611100
24,975333	0,5	-0,605100
24,983667	0,5	-0,620850
24,992000	0,5	-0,619050
25,000333	0,5	-0,612700
25,008667	0,5	-0,609200
25,017000	0,5	-0,603850
25,025333	0,5	-0,601350
25,033667	0,5	-0,598000
25,042000	0,5	-0,599800
25,050333	0,5	-0,598900
25,058667	0,5	-0,593150
25,067000	0,5	-0,588400
25,075333	0,5	-0,585700
25,083667	0,5	-0,578700
25,092000	0,5	-0,575750
25,100333	0,5	-0,567450
25,108667	0,5	-0,556700
25,117000	0,5	-0,557700
25,125333	0,5	-0,553800
25,133667	0,5	-0,559150
25,142000	0,5	-0,550200
25,150333	0,5	-0,547550
25,158667	0,5	-0,544600
25,167000	0,5	-0,545000
25,175333	0,5	-0,544100
25,183667	0,5	-0,544400
25,192000	0,5	-0,544550
25,200333	0,5	-0,547200
25,208667	0,5	-0,544000
25,217000	0,5	-0,544000
25,225333	0,5	-0,542000
25,233667	0,5	-0,542450
25,242000	0,5	-0,545100
25,250333	0,5	-0,539550
25,258667	0,5	-0,538050
25,267000	0,5	-0,532050
25,275333	0,5	-0,531300
25,283667	0,5	-0,525250
25,292000	0,5	-0,518750
25,300333	0,5	-0,513000
25,308667	0,5	-0,515050
25,317000	0,5	-0,513900
25,325333	0,5	-0,515400
25,333667	0,5	-0,512400
25,342000	0,5	-0,509450
25,350333	0,5	-0,510500
25,358667	0,5	-0,508250
25,367000	0,5	-0,511500
25,375333	0,5	-0,513650
25,383667	0,5	-0,511900
25,392000	0,5	-0,513800
25,400333	0,5	-0,514150
25,408667	0,5	-0,512450
25,417000	0,5	-0,511750
25,425333	0,5	-0,510350
25,433667	0,5	-0,498450
25,442000	0,5	-0,499650
25,450333	0,5	-0,499250
25,458667	0,5	-0,501450
25,467000	0,5	-0,500350
25,475333	0,5	-0,498950
25,483667	0,5	-0,496250
25,492000	0,5	-0,493050
25,500333	0,5	-0,495350
25,508667	0,5	-0,494750
25,517000	0,5	-0,495850
25,525333	0,5	-0,492900
25,533667	0,5	-0,494700
25,542000	0,5	-0,490650
25,550333	0,5	-0,491350
25,558667	0,5	-0,489200
25,567000	0,5	-0,488550
25,575333	0,5	-0,478750
25,583667	0,5	-0,478250
25,592000	0,5	-0,471850
25,600333	0,5	-0,486100
25,608667	0,5	-0,485800
25,617000	0,5	-0,484750
25,625333	0,5	-0,483200
25,633667	0,5	-0,474400
25,642000	0,5	-0,474700
25,650333	0,5	-0,481250
25,658667	0,5	-0,481850
25,667000	0,5	-0,483250
25,675333	0,5	-0,476200
25,683667	0,5	-0,475550
25,692000	0,5	-0,471750
25,700333	0,5	-0,473300
25,708667	0,5	-0,468350
25,717000	0,5	-0,468450
25,725333	0,5	-0,447950
25,733667	0,5	-0,451750
25,742000	0,5	-0,450400
25,750333	0,5	-0,464150
25,758667	0,5	-0,461050
25,767000	0,5	-0,460800
25,775333	0,5	-0,456250
25,783667	0,5	-0,443200
25,792000	0,5	-0,447750
25,800333	0,5	-0,447800
25,808667	0,5	-0,447150
25,817000	0,5	-0,453700
25,825333	0,5	-0,450100
25,833667	0,5	-0,449700
25,842000	0,5	-0,445300
25,850333	0,5	-0,443100
25,858667	0,5	-0,439750
25,867000	0,5	-0,433500
25,875333	0,5	-0,426200
25,883667	0,5	-0,413600
25,892000	0,5	-0,420350
25,900333	0,5	-0,424700
25,908667	0,5	-0,423350
25,917000	0,5	-0,417150
25,925333	0,5	-0,404100
25,933667	0,5	-0,395550
25,942000	0,5	-0,383650
25,950333	0,5	-0,394050
25,958667	0,5	-0,393050
25,967000	0,5	-0,389450
25,975333	0,5	-0,386150
25,983667	0,5	-0,382250
25,992000	0,5	-0,384150
26,000333	0,5	-0,374050
