File Path	chrom://chromeleon01/ikbm_chromeleon/2022/ICS-5000/ED1/Esteban/20220427_Cell_Amandas_mutants.seq/897.smp/ED_1.channel/ED_1.chm
Channel	ED_1

Injection Information:
Data Vault	ikbm_chromeleon
Injection	T24h_Avi_CelS2
Injection Number	7
Position	RA3
Comment	
Processing Method	Stop sequence after Cell Death
Instrument Method	ICS5000_PA200_FullNative_Ox_26min_ED1
Type	Unknown
Status	Finished
Injection Date	27.04.2022
Injection Time	14:54:29
Injection Volume (µl)	5,0
Dilution Factor	1,0000
Weight	1,0000

Chromatogram Data Information:
Time Min. (min)	0,000333
Time Max. (min)	26,000333
Data Points	3121
Detector	EDet1
Generating Data System	Chromeleon 7.2.9.11323
Exporting Data System	Chromeleon 7.2.9.0
Operator	Instrument Controller
Signal Quantity	
Signal Unit	nC
Signal Min.	-4,175300
Signal Max.	78,840601
Channel	ED_1
Driver Name	DC-5000
Channel Type	Evaluation
Min. Step (s)	0,5
Max. Step (s)	0,5
Average Step (s)	0,5

Signal Parameter Information:
Signal Info	

Chromatogram Data:
Time (min)	Step (s)	Value (nC)
0,000333	n.a.	-0,078450
0,008667	0,5	-0,094900
0,017000	0,5	-0,090550
0,025333	0,5	-0,074050
0,033667	0,5	-0,059500
0,042000	0,5	-0,040500
0,050333	0,5	-0,063550
0,058667	0,5	-0,057800
0,067000	0,5	-0,034050
0,075333	0,5	-0,060450
0,083667	0,5	-0,061600
0,092000	0,5	-0,040500
0,100333	0,5	-0,014250
0,108667	0,5	0,026550
0,117000	0,5	0,008650
0,125333	0,5	0,007900
0,133667	0,5	-0,001850
0,142000	0,5	-0,004200
0,150333	0,5	-0,008700
0,158667	0,5	-0,008000
0,167000	0,5	-0,011000
0,175333	0,5	-0,020400
0,183667	0,5	-0,013750
0,192000	0,5	-0,021650
0,200333	0,5	-0,017350
0,208667	0,5	-0,003900
0,217000	0,5	-0,014850
0,225333	0,5	-0,043200
0,233667	0,5	-0,033200
0,242000	0,5	-0,041000
0,250333	0,5	-0,005550
0,258667	0,5	0,004600
0,267000	0,5	0,011050
0,275333	0,5	-0,007300
0,283667	0,5	-0,000950
0,292000	0,5	-0,007500
0,300333	0,5	0,014500
0,308667	0,5	0,029700
0,317000	0,5	0,001150
0,325333	0,5	-0,025650
0,333667	0,5	-0,033800
0,342000	0,5	-0,037650
0,350333	0,5	-0,038300
0,358667	0,5	-0,014100
0,367000	0,5	-0,034700
0,375333	0,5	-0,053900
0,383667	0,5	-0,057050
0,392000	0,5	-0,030250
0,400333	0,5	0,004150
0,408667	0,5	0,011700
0,417000	0,5	-0,014750
0,425333	0,5	-0,009350
0,433667	0,5	-0,021300
0,442000	0,5	-0,022050
0,450333	0,5	-0,027700
0,458667	0,5	-0,023300
0,467000	0,5	-0,040450
0,475333	0,5	-0,033050
0,483667	0,5	-0,032900
0,492000	0,5	-0,050650
0,500333	0,5	-0,050100
0,508667	0,5	-0,023800
0,517000	0,5	-0,049450
0,525333	0,5	-0,062450
0,533667	0,5	-0,057900
0,542000	0,5	-0,042650
0,550333	0,5	-0,004450
0,558667	0,5	-0,041200
0,567000	0,5	-0,033850
0,575333	0,5	-0,043900
0,583667	0,5	-0,033250
0,592000	0,5	-0,038850
0,600333	0,5	-0,021150
0,608667	0,5	-0,039950
0,617000	0,5	-0,045300
0,625333	0,5	-0,045300
0,633667	0,5	-0,044350
0,642000	0,5	-0,070500
0,650333	0,5	-0,044200
0,658667	0,5	-0,048950
0,667000	0,5	-0,060900
0,675333	0,5	-0,060850
0,683667	0,5	-0,067650
0,692000	0,5	-0,031600
0,700333	0,5	-0,013800
0,708667	0,5	-0,032350
0,717000	0,5	-0,042250
0,725333	0,5	-0,038600
0,733667	0,5	-0,048750
0,742000	0,5	-0,053750
0,750333	0,5	-0,056050
0,758667	0,5	-0,052900
0,767000	0,5	-0,066350
0,775333	0,5	-0,052300
0,783667	0,5	-0,058500
0,792000	0,5	-0,072400
0,800333	0,5	-0,040250
0,808667	0,5	-0,059950
0,817000	0,5	-0,073100
0,825333	0,5	-0,078850
0,833667	0,5	-0,069250
0,842000	0,5	-0,027400
0,850333	0,5	-0,032500
0,858667	0,5	-0,052300
0,867000	0,5	-0,062800
0,875333	0,5	-0,053600
0,883667	0,5	-0,059300
0,892000	0,5	-0,059300
0,900333	0,5	-0,048450
0,908667	0,5	-0,064400
0,917000	0,5	-0,064150
0,925333	0,5	-0,067900
0,933667	0,5	-0,047950
0,942000	0,5	-0,075200
0,950333	0,5	-0,044050
0,958667	0,5	-0,083850
0,967000	0,5	-0,083850
0,975333	0,5	-0,089700
0,983667	0,5	-0,067450
0,992000	0,5	-0,035800
1,000333	0,5	-0,031250
1,008667	0,5	-0,047850
1,017000	0,5	-0,044200
1,025333	0,5	-0,054750
1,033667	0,5	-0,054050
1,042000	0,5	-0,059650
1,050333	0,5	-0,062450
1,058667	0,5	-0,068050
1,067000	0,5	-0,069400
1,075333	0,5	-0,066150
1,083667	0,5	-0,081400
1,092000	0,5	-0,072100
1,100333	0,5	-0,061250
1,108667	0,5	-0,085900
1,117000	0,5	-0,090400
1,125333	0,5	-0,087150
1,133667	0,5	-0,064050
1,142000	0,5	-0,028800
1,150333	0,5	-0,055150
1,158667	0,5	-0,047100
1,167000	0,5	-0,063650
1,175333	0,5	-0,056150
1,183667	0,5	-0,072550
1,192000	0,5	-0,063350
1,200333	0,5	-0,066250
1,208667	0,5	-0,071750
1,217000	0,5	-0,068050
1,225333	0,5	-0,084650
1,233667	0,5	-0,082300
1,242000	0,5	-0,061600
1,250333	0,5	-0,082450
1,258667	0,5	-0,094550
1,267000	0,5	-0,092600
1,275333	0,5	-0,096800
1,283667	0,5	-0,055100
1,292000	0,5	-0,053100
1,300333	0,5	-0,049000
1,308667	0,5	-0,065750
1,317000	0,5	-0,059650
1,325333	0,5	-0,079500
1,333667	0,5	-0,072250
1,342000	0,5	-0,083800
1,350333	0,5	-0,081800
1,358667	0,5	-0,084850
1,367000	0,5	-0,082650
1,375333	0,5	-0,081900
1,383667	0,5	-0,079900
1,392000	0,5	-0,059750
1,400333	0,5	-0,075550
1,408667	0,5	-0,094450
1,417000	0,5	-0,095400
1,425333	0,5	-0,081150
1,433667	0,5	-0,051600
1,442000	0,5	-0,056600
1,450333	0,5	-0,069650
1,458667	0,5	-0,063600
1,467000	0,5	-0,071850
1,475333	0,5	-0,076100
1,483667	0,5	-0,083550
1,492000	0,5	-0,073450
1,500333	0,5	-0,079300
1,508667	0,5	-0,074200
1,517000	0,5	-0,071750
1,525333	0,5	-0,076400
1,533667	0,5	-0,078050
1,542000	0,5	-0,057050
1,550333	0,5	-0,082050
1,558667	0,5	-0,089500
1,567000	0,5	-0,119150
1,575333	0,5	-0,264350
1,583667	0,5	-0,773150
1,592000	0,5	-1,826000
1,600333	0,5	-2,689750
1,608667	0,5	-2,339950
1,617000	0,5	-0,457350
1,625333	0,5	2,240450
1,633667	0,5	6,605500
1,642000	0,5	13,757100
1,650333	0,5	21,329500
1,658667	0,5	24,652650
1,667000	0,5	22,677000
1,675333	0,5	18,485500
1,683667	0,5	14,742050
1,692000	0,5	11,904250
1,700333	0,5	9,804550
1,708667	0,5	8,190400
1,717000	0,5	6,980200
1,725333	0,5	6,155750
1,733667	0,5	5,703400
1,742000	0,5	5,403050
1,750333	0,5	4,990850
1,758667	0,5	4,357150
1,767000	0,5	3,671250
1,775333	0,5	3,116550
1,783667	0,5	2,742700
1,792000	0,5	2,566750
1,800333	0,5	2,557700
1,808667	0,5	2,666950
1,817000	0,5	2,746400
1,825333	0,5	2,756600
1,833667	0,5	2,723100
1,842000	0,5	2,588500
1,850333	0,5	2,431400
1,858667	0,5	2,280500
1,867000	0,5	2,140000
1,875333	0,5	2,056650
1,883667	0,5	1,947750
1,892000	0,5	1,855100
1,900333	0,5	1,785150
1,908667	0,5	1,751750
1,917000	0,5	1,713000
1,925333	0,5	1,681850
1,933667	0,5	1,646000
1,942000	0,5	1,611500
1,950333	0,5	1,595300
1,958667	0,5	1,590450
1,967000	0,5	1,599300
1,975333	0,5	1,576650
1,983667	0,5	1,546150
1,992000	0,5	1,500600
2,000333	0,5	1,565850
2,008667	0,5	1,795500
2,017000	0,5	2,342600
2,025333	0,5	3,357200
2,033667	0,5	5,182550
2,042000	0,5	8,310200
2,050333	0,5	12,517400
2,058667	0,5	16,193800
2,067000	0,5	18,221800
2,075333	0,5	19,221500
2,083667	0,5	19,819900
2,092000	0,5	19,653150
2,100333	0,5	18,632200
2,108667	0,5	17,235000
2,117000	0,5	15,910600
2,125333	0,5	14,841300
2,133667	0,5	13,978900
2,142000	0,5	13,287800
2,150333	0,5	12,813250
2,158667	0,5	12,597200
2,167000	0,5	12,704600
2,175333	0,5	12,958800
2,183667	0,5	12,970350
2,192000	0,5	12,634100
2,200333	0,5	12,155650
2,208667	0,5	11,809650
2,217000	0,5	11,557800
2,225333	0,5	11,282450
2,233667	0,5	10,902300
2,242000	0,5	10,523300
2,250333	0,5	10,184550
2,258667	0,5	9,873250
2,267000	0,5	9,647950
2,275333	0,5	9,533750
2,283667	0,5	9,449750
2,292000	0,5	9,423300
2,300333	0,5	9,456200
2,308667	0,5	9,515250
2,317000	0,5	9,613000
2,325333	0,5	9,665250
2,333667	0,5	9,714050
2,342000	0,5	9,769250
2,350333	0,5	9,885000
2,358667	0,5	10,036500
2,367000	0,5	10,230250
2,375333	0,5	10,349050
2,383667	0,5	10,392050
2,392000	0,5	10,364650
2,400333	0,5	10,339100
2,408667	0,5	10,289800
2,417000	0,5	10,300500
2,425333	0,5	10,344900
2,433667	0,5	10,384500
2,442000	0,5	10,447200
2,450333	0,5	10,546300
2,458667	0,5	10,669550
2,467000	0,5	10,816150
2,475333	0,5	10,935050
2,483667	0,5	11,062800
2,492000	0,5	11,221450
2,500333	0,5	11,358300
2,508667	0,5	11,465750
2,517000	0,5	11,527550
2,525333	0,5	11,562100
2,533667	0,5	11,574200
2,542000	0,5	11,646850
2,550333	0,5	11,760300
2,558667	0,5	11,862600
2,567000	0,5	11,918350
2,575333	0,5	11,894650
2,583667	0,5	11,771500
2,592000	0,5	11,632550
2,600333	0,5	11,497400
2,608667	0,5	11,400850
2,617000	0,5	11,323050
2,625333	0,5	11,254700
2,633667	0,5	11,249700
2,642000	0,5	11,340750
2,650333	0,5	11,542650
2,658667	0,5	11,862500
2,667000	0,5	12,232500
2,675333	0,5	12,503000
2,683667	0,5	12,597600
2,692000	0,5	12,511100
2,700333	0,5	12,316850
2,708667	0,5	12,053550
2,717000	0,5	11,851450
2,725333	0,5	11,659100
2,733667	0,5	11,517700
2,742000	0,5	11,418550
2,750333	0,5	11,401600
2,758667	0,5	11,474150
2,767000	0,5	11,660000
2,775333	0,5	11,985000
2,783667	0,5	12,577750
2,792000	0,5	13,483500
2,800333	0,5	14,769450
2,808667	0,5	16,423050
2,817000	0,5	18,317650
2,825333	0,5	20,253500
2,833667	0,5	22,152150
2,842000	0,5	24,128500
2,850333	0,5	26,086300
2,858667	0,5	27,592800
2,867000	0,5	27,996200
2,875333	0,5	26,896400
2,883667	0,5	24,659900
2,892000	0,5	22,032100
2,900333	0,5	19,725650
2,908667	0,5	18,156250
2,917000	0,5	17,346800
2,925333	0,5	17,148900
2,933667	0,5	17,112900
2,942000	0,5	16,804000
2,950333	0,5	15,945600
2,958667	0,5	14,650600
2,967000	0,5	13,180700
2,975333	0,5	11,797300
2,983667	0,5	10,630700
2,992000	0,5	9,697450
3,000333	0,5	8,956650
3,008667	0,5	8,373100
3,017000	0,5	7,894600
3,025333	0,5	7,465750
3,033667	0,5	7,109800
3,042000	0,5	6,792000
3,050333	0,5	6,532150
3,058667	0,5	6,282550
3,067000	0,5	6,051650
3,075333	0,5	5,818150
3,083667	0,5	5,621100
3,092000	0,5	5,423600
3,100333	0,5	5,258700
3,108667	0,5	5,091300
3,117000	0,5	4,950100
3,125333	0,5	4,814000
3,133667	0,5	4,697600
3,142000	0,5	4,564850
3,150333	0,5	4,416300
3,158667	0,5	4,269600
3,167000	0,5	4,096250
3,175333	0,5	3,909200
3,183667	0,5	3,743550
3,192000	0,5	3,600750
3,200333	0,5	3,508950
3,208667	0,5	3,412750
3,217000	0,5	3,304850
3,225333	0,5	3,226550
3,233667	0,5	3,147550
3,242000	0,5	3,086250
3,250333	0,5	3,038100
3,258667	0,5	3,034150
3,267000	0,5	3,079050
3,275333	0,5	3,233100
3,283667	0,5	3,500550
3,292000	0,5	3,861900
3,300333	0,5	4,240750
3,308667	0,5	4,565800
3,317000	0,5	4,649650
3,325333	0,5	4,502650
3,333667	0,5	4,178650
3,342000	0,5	3,762600
3,350333	0,5	3,365550
3,358667	0,5	2,980400
3,367000	0,5	2,668500
3,375333	0,5	2,432950
3,383667	0,5	2,241900
3,392000	0,5	2,077400
3,400333	0,5	1,952250
3,408667	0,5	1,831850
3,417000	0,5	1,729500
3,425333	0,5	1,627300
3,433667	0,5	1,554700
3,442000	0,5	1,466400
3,450333	0,5	1,411000
3,458667	0,5	1,367550
3,467000	0,5	1,299250
3,475333	0,5	1,242900
3,483667	0,5	1,209050
3,492000	0,5	1,194000
3,500333	0,5	1,215500
3,508667	0,5	1,207050
3,517000	0,5	1,201300
3,525333	0,5	1,190600
3,533667	0,5	1,172950
3,542000	0,5	1,139700
3,550333	0,5	1,091450
3,558667	0,5	1,031900
3,567000	0,5	0,959450
3,575333	0,5	0,903300
3,583667	0,5	0,844300
3,592000	0,5	0,785400
3,600333	0,5	0,743550
3,608667	0,5	0,704450
3,617000	0,5	0,648500
3,625333	0,5	0,609450
3,633667	0,5	0,580650
3,642000	0,5	0,575800
3,650333	0,5	0,561600
3,658667	0,5	0,529650
3,667000	0,5	0,501150
3,675333	0,5	0,489250
3,683667	0,5	0,468350
3,692000	0,5	0,458550
3,700333	0,5	0,453100
3,708667	0,5	0,440200
3,717000	0,5	0,428500
3,725333	0,5	0,417450
3,733667	0,5	0,413850
3,742000	0,5	0,390150
3,750333	0,5	0,404500
3,758667	0,5	0,390100
3,767000	0,5	0,385400
3,775333	0,5	0,385950
3,783667	0,5	0,417550
3,792000	0,5	0,452650
3,800333	0,5	0,478400
3,808667	0,5	0,484750
3,817000	0,5	0,507800
3,825333	0,5	0,511150
3,833667	0,5	0,535600
3,842000	0,5	0,565450
3,850333	0,5	0,630250
3,858667	0,5	0,724300
3,867000	0,5	0,865800
3,875333	0,5	1,042500
3,883667	0,5	1,235650
3,892000	0,5	1,416150
3,900333	0,5	1,572000
3,908667	0,5	1,614150
3,917000	0,5	1,588650
3,925333	0,5	1,482850
3,933667	0,5	1,342400
3,942000	0,5	1,185650
3,950333	0,5	1,006100
3,958667	0,5	0,841800
3,967000	0,5	0,700000
3,975333	0,5	0,597850
3,983667	0,5	0,503450
3,992000	0,5	0,446250
4,000333	0,5	0,386150
4,008667	0,5	0,336400
4,017000	0,5	0,304100
4,025333	0,5	0,280250
4,033667	0,5	0,244750
4,042000	0,5	0,240450
4,050333	0,5	0,225150
4,058667	0,5	0,203850
4,067000	0,5	0,195150
4,075333	0,5	0,193750
4,083667	0,5	0,214450
4,092000	0,5	0,224850
4,100333	0,5	0,233600
4,108667	0,5	0,225100
4,117000	0,5	0,231150
4,125333	0,5	0,215600
4,133667	0,5	0,204900
4,142000	0,5	0,179450
4,150333	0,5	0,153650
4,158667	0,5	0,125050
4,167000	0,5	0,098700
4,175333	0,5	0,078450
4,183667	0,5	0,061250
4,192000	0,5	0,061050
4,200333	0,5	0,036000
4,208667	0,5	0,007800
4,217000	0,5	0,011450
4,225333	0,5	0,009400
4,233667	0,5	0,038350
4,242000	0,5	0,043750
4,250333	0,5	0,028300
4,258667	0,5	0,028850
4,267000	0,5	0,027350
4,275333	0,5	0,022200
4,283667	0,5	0,011200
4,292000	0,5	0,013950
4,300333	0,5	0,001150
4,308667	0,5	0,002500
4,317000	0,5	0,005500
4,325333	0,5	0,000550
4,333667	0,5	-0,017600
4,342000	0,5	0,009500
4,350333	0,5	-0,009750
4,358667	0,5	-0,012150
4,367000	0,5	-0,014400
4,375333	0,5	0,005950
4,383667	0,5	0,032800
4,392000	0,5	0,022700
4,400333	0,5	0,019100
4,408667	0,5	0,028900
4,417000	0,5	0,041100
4,425333	0,5	0,056350
4,433667	0,5	0,063250
4,442000	0,5	0,077200
4,450333	0,5	0,093300
4,458667	0,5	0,123000
4,467000	0,5	0,162150
4,475333	0,5	0,191500
4,483667	0,5	0,254550
4,492000	0,5	0,334500
4,500333	0,5	0,394800
4,508667	0,5	0,475750
4,517000	0,5	0,585850
4,525333	0,5	0,726650
4,533667	0,5	0,886750
4,542000	0,5	1,038700
4,550333	0,5	1,255350
4,558667	0,5	1,535700
4,567000	0,5	1,909850
4,575333	0,5	2,397500
4,583667	0,5	3,059050
4,592000	0,5	3,907900
4,600333	0,5	4,961750
4,608667	0,5	6,217800
4,617000	0,5	7,629950
4,625333	0,5	9,106750
4,633667	0,5	10,548350
4,642000	0,5	11,783350
4,650333	0,5	12,696000
4,658667	0,5	13,208150
4,667000	0,5	13,268100
4,675333	0,5	12,914100
4,683667	0,5	12,157450
4,692000	0,5	11,103750
4,700333	0,5	9,866200
4,708667	0,5	8,594050
4,717000	0,5	7,338550
4,725333	0,5	6,199200
4,733667	0,5	5,178400
4,742000	0,5	4,317200
4,750333	0,5	3,598250
4,758667	0,5	3,010000
4,767000	0,5	2,552950
4,775333	0,5	2,161650
4,783667	0,5	1,873350
4,792000	0,5	1,617000
4,800333	0,5	1,416300
4,808667	0,5	1,250000
4,817000	0,5	1,128100
4,825333	0,5	1,051050
4,833667	0,5	0,962850
4,842000	0,5	0,867500
4,850333	0,5	0,802750
4,858667	0,5	0,728800
4,867000	0,5	0,670950
4,875333	0,5	0,612750
4,883667	0,5	0,572600
4,892000	0,5	0,520400
4,900333	0,5	0,494200
4,908667	0,5	0,466400
4,917000	0,5	0,443450
4,925333	0,5	0,421750
4,933667	0,5	0,425700
4,942000	0,5	0,395750
4,950333	0,5	0,384450
4,958667	0,5	0,367500
4,967000	0,5	0,371800
4,975333	0,5	0,373600
4,983667	0,5	0,350150
4,992000	0,5	0,320550
5,000333	0,5	0,293400
5,008667	0,5	0,265850
5,017000	0,5	0,227250
5,025333	0,5	0,210050
5,033667	0,5	0,190550
5,042000	0,5	0,169650
5,050333	0,5	0,147450
5,058667	0,5	0,128250
5,067000	0,5	0,099200
5,075333	0,5	0,098950
5,083667	0,5	0,084800
5,092000	0,5	0,065900
5,100333	0,5	0,060500
5,108667	0,5	0,056600
5,117000	0,5	0,076950
5,125333	0,5	0,081600
5,133667	0,5	0,086000
5,142000	0,5	0,088950
5,150333	0,5	0,089100
5,158667	0,5	0,084650
5,167000	0,5	0,087750
5,175333	0,5	0,091750
5,183667	0,5	0,096500
5,192000	0,5	0,095600
5,200333	0,5	0,107600
5,208667	0,5	0,101900
5,217000	0,5	0,103100
5,225333	0,5	0,126800
5,233667	0,5	0,133650
5,242000	0,5	0,135600
5,250333	0,5	0,153250
5,258667	0,5	0,174400
5,267000	0,5	0,240250
5,275333	0,5	0,264350
5,283667	0,5	0,295300
5,292000	0,5	0,324650
5,300333	0,5	0,361450
5,308667	0,5	0,392000
5,317000	0,5	0,418550
5,325333	0,5	0,435500
5,333667	0,5	0,445500
5,342000	0,5	0,449950
5,350333	0,5	0,442000
5,358667	0,5	0,426000
5,367000	0,5	0,395050
5,375333	0,5	0,387150
5,383667	0,5	0,342950
5,392000	0,5	0,311250
5,400333	0,5	0,287950
5,408667	0,5	0,278650
5,417000	0,5	0,280450
5,425333	0,5	0,257900
5,433667	0,5	0,230350
5,442000	0,5	0,231450
5,450333	0,5	0,217850
5,458667	0,5	0,217850
5,467000	0,5	0,212100
5,475333	0,5	0,211150
5,483667	0,5	0,197700
5,492000	0,5	0,193300
5,500333	0,5	0,198450
5,508667	0,5	0,189600
5,517000	0,5	0,203250
5,525333	0,5	0,210600
5,533667	0,5	0,195850
5,542000	0,5	0,193650
5,550333	0,5	0,205150
5,558667	0,5	0,221450
5,567000	0,5	0,246300
5,575333	0,5	0,226400
5,583667	0,5	0,230750
5,592000	0,5	0,229800
5,600333	0,5	0,233150
5,608667	0,5	0,227500
5,617000	0,5	0,229700
5,625333	0,5	0,222100
5,633667	0,5	0,230750
5,642000	0,5	0,232650
5,650333	0,5	0,244550
5,658667	0,5	0,232850
5,667000	0,5	0,253900
5,675333	0,5	0,252950
5,683667	0,5	0,255450
5,692000	0,5	0,260600
5,700333	0,5	0,270700
5,708667	0,5	0,302100
5,717000	0,5	0,306750
5,725333	0,5	0,307650
5,733667	0,5	0,297500
5,742000	0,5	0,295750
5,750333	0,5	0,297800
5,758667	0,5	0,303950
5,767000	0,5	0,297900
5,775333	0,5	0,293750
5,783667	0,5	0,286850
5,792000	0,5	0,297950
5,800333	0,5	0,295650
5,808667	0,5	0,300450
5,817000	0,5	0,314100
5,825333	0,5	0,310800
5,833667	0,5	0,311100
5,842000	0,5	0,323250
5,850333	0,5	0,352500
5,858667	0,5	0,381950
5,867000	0,5	0,393350
5,875333	0,5	0,383150
5,883667	0,5	0,396350
5,892000	0,5	0,391700
5,900333	0,5	0,390050
5,908667	0,5	0,381150
5,917000	0,5	0,379500
5,925333	0,5	0,374500
5,933667	0,5	0,376300
5,942000	0,5	0,375700
5,950333	0,5	0,376200
5,958667	0,5	0,383200
5,967000	0,5	0,391050
5,975333	0,5	0,373400
5,983667	0,5	0,372700
5,992000	0,5	0,372600
6,000333	0,5	0,398800
6,008667	0,5	0,414300
6,017000	0,5	0,421600
6,025333	0,5	0,420100
6,033667	0,5	0,428550
6,042000	0,5	0,433350
6,050333	0,5	0,436850
6,058667	0,5	0,455300
6,067000	0,5	0,456850
6,075333	0,5	0,466300
6,083667	0,5	0,478300
6,092000	0,5	0,488850
6,100333	0,5	0,481800
6,108667	0,5	0,508450
6,117000	0,5	0,506800
6,125333	0,5	0,502200
6,133667	0,5	0,506150
6,142000	0,5	0,515600
6,150333	0,5	0,535000
6,158667	0,5	0,544050
6,167000	0,5	0,535150
6,175333	0,5	0,537700
6,183667	0,5	0,532950
6,192000	0,5	0,535700
6,200333	0,5	0,530250
6,208667	0,5	0,535350
6,217000	0,5	0,532950
6,225333	0,5	0,532500
6,233667	0,5	0,544750
6,242000	0,5	0,544100
6,250333	0,5	0,554000
6,258667	0,5	0,585100
6,267000	0,5	0,581700
6,275333	0,5	0,578350
6,283667	0,5	0,589800
6,292000	0,5	0,603350
6,300333	0,5	0,640600
6,308667	0,5	0,634950
6,317000	0,5	0,645500
6,325333	0,5	0,640700
6,333667	0,5	0,646100
6,342000	0,5	0,637600
6,350333	0,5	0,637100
6,358667	0,5	0,627350
6,367000	0,5	0,631600
6,375333	0,5	0,626650
6,383667	0,5	0,623800
6,392000	0,5	0,620200
6,400333	0,5	0,621400
6,408667	0,5	0,625700
6,417000	0,5	0,611000
6,425333	0,5	0,605950
6,433667	0,5	0,606200
6,442000	0,5	0,622450
6,450333	0,5	0,639750
6,458667	0,5	0,639750
6,467000	0,5	0,634700
6,475333	0,5	0,656350
6,483667	0,5	0,654150
6,492000	0,5	0,662200
6,500333	0,5	0,664000
6,508667	0,5	0,675900
6,517000	0,5	0,675050
6,525333	0,5	0,677600
6,533667	0,5	0,686200
6,542000	0,5	0,677000
6,550333	0,5	0,683050
6,558667	0,5	0,686750
6,567000	0,5	0,676050
6,575333	0,5	0,676650
6,583667	0,5	0,683650
6,592000	0,5	0,698450
6,600333	0,5	0,716200
6,608667	0,5	0,708950
6,617000	0,5	0,713700
6,625333	0,5	0,717750
6,633667	0,5	0,725400
6,642000	0,5	0,732800
6,650333	0,5	0,745000
6,658667	0,5	0,743950
6,667000	0,5	0,754950
6,675333	0,5	0,768700
6,683667	0,5	0,779400
6,692000	0,5	0,777900
6,700333	0,5	0,801450
6,708667	0,5	0,795000
6,717000	0,5	0,802000
6,725333	0,5	0,802900
6,733667	0,5	0,822600
6,742000	0,5	0,850000
6,750333	0,5	0,863350
6,758667	0,5	0,869850
6,767000	0,5	0,870600
6,775333	0,5	0,888450
6,783667	0,5	0,891050
6,792000	0,5	0,901000
6,800333	0,5	0,908700
6,808667	0,5	0,916500
6,817000	0,5	0,929650
6,825333	0,5	0,944750
6,833667	0,5	0,953150
6,842000	0,5	0,975150
6,850333	0,5	0,995700
6,858667	0,5	1,007500
6,867000	0,5	1,019650
6,875333	0,5	1,049600
6,883667	0,5	1,084050
6,892000	0,5	1,132350
6,900333	0,5	1,163100
6,908667	0,5	1,189000
6,917000	0,5	1,222250
6,925333	0,5	1,248850
6,933667	0,5	1,274650
6,942000	0,5	1,298150
6,950333	0,5	1,316700
6,958667	0,5	1,325900
6,967000	0,5	1,336700
6,975333	0,5	1,343050
6,983667	0,5	1,347850
6,992000	0,5	1,347650
7,000333	0,5	1,340200
7,008667	0,5	1,314800
7,017000	0,5	1,305200
7,025333	0,5	1,297600
7,033667	0,5	1,309750
7,042000	0,5	1,318700
7,050333	0,5	1,315600
7,058667	0,5	1,310100
7,067000	0,5	1,312900
7,075333	0,5	1,304600
7,083667	0,5	1,309650
7,092000	0,5	1,310350
7,100333	0,5	1,306900
7,108667	0,5	1,309150
7,117000	0,5	1,309400
7,125333	0,5	1,318850
7,133667	0,5	1,318450
7,142000	0,5	1,339100
7,150333	0,5	1,328050
7,158667	0,5	1,327650
7,167000	0,5	1,327350
7,175333	0,5	1,336550
7,183667	0,5	1,362000
7,192000	0,5	1,362250
7,200333	0,5	1,362650
7,208667	0,5	1,366250
7,217000	0,5	1,368300
7,225333	0,5	1,377200
7,233667	0,5	1,379000
7,242000	0,5	1,391350
7,250333	0,5	1,397350
7,258667	0,5	1,400850
7,267000	0,5	1,407100
7,275333	0,5	1,405950
7,283667	0,5	1,407000
7,292000	0,5	1,432850
7,300333	0,5	1,426000
7,308667	0,5	1,423650
7,317000	0,5	1,428700
7,325333	0,5	1,439600
7,333667	0,5	1,465400
7,342000	0,5	1,463900
7,350333	0,5	1,472800
7,358667	0,5	1,470950
7,367000	0,5	1,479750
7,375333	0,5	1,474000
7,383667	0,5	1,480300
7,392000	0,5	1,480500
7,400333	0,5	1,481000
7,408667	0,5	1,483100
7,417000	0,5	1,490150
7,425333	0,5	1,485850
7,433667	0,5	1,490000
7,442000	0,5	1,492950
7,450333	0,5	1,496150
7,458667	0,5	1,503800
7,467000	0,5	1,520450
7,475333	0,5	1,541800
7,483667	0,5	1,580800
7,492000	0,5	1,603150
7,500333	0,5	1,624150
7,508667	0,5	1,665900
7,517000	0,5	1,709450
7,525333	0,5	1,768650
7,533667	0,5	1,831650
7,542000	0,5	1,913350
7,550333	0,5	1,988800
7,558667	0,5	2,088550
7,567000	0,5	2,178000
7,575333	0,5	2,274750
7,583667	0,5	2,380650
7,592000	0,5	2,503450
7,600333	0,5	2,663450
7,608667	0,5	2,911850
7,617000	0,5	3,298800
7,625333	0,5	3,911950
7,633667	0,5	4,828450
7,642000	0,5	6,115300
7,650333	0,5	7,765850
7,658667	0,5	9,637700
7,667000	0,5	11,413900
7,675333	0,5	12,720650
7,683667	0,5	13,270150
7,692000	0,5	12,939050
7,700333	0,5	11,876100
7,708667	0,5	10,353350
7,717000	0,5	8,706050
7,725333	0,5	7,175500
7,733667	0,5	5,931100
7,742000	0,5	4,957650
7,750333	0,5	4,252150
7,758667	0,5	3,742600
7,767000	0,5	3,391100
7,775333	0,5	3,135750
7,783667	0,5	2,951000
7,792000	0,5	2,799500
7,800333	0,5	2,703250
7,808667	0,5	2,640450
7,817000	0,5	2,609750
7,825333	0,5	2,616350
7,833667	0,5	2,640200
7,842000	0,5	2,669200
7,850333	0,5	2,679250
7,858667	0,5	2,651650
7,867000	0,5	2,594150
7,875333	0,5	2,518950
7,883667	0,5	2,442250
7,892000	0,5	2,349250
7,900333	0,5	2,264750
7,908667	0,5	2,187800
7,917000	0,5	2,116500
7,925333	0,5	2,053050
7,933667	0,5	1,998850
7,942000	0,5	1,955200
7,950333	0,5	1,924600
7,958667	0,5	1,905750
7,967000	0,5	1,894150
7,975333	0,5	1,890950
7,983667	0,5	1,885850
7,992000	0,5	1,879800
8,000333	0,5	1,876350
8,008667	0,5	1,884300
8,017000	0,5	1,893950
8,025333	0,5	1,927950
8,033667	0,5	1,965400
8,042000	0,5	2,001850
8,050333	0,5	2,018050
8,058667	0,5	2,020150
8,067000	0,5	2,014050
8,075333	0,5	1,983200
8,083667	0,5	1,958800
8,092000	0,5	1,951850
8,100333	0,5	1,977350
8,108667	0,5	2,002000
8,117000	0,5	2,026100
8,125333	0,5	2,030850
8,133667	0,5	2,036050
8,142000	0,5	2,054000
8,150333	0,5	2,093050
8,158667	0,5	2,165950
8,167000	0,5	2,245750
8,175333	0,5	2,340850
8,183667	0,5	2,413450
8,192000	0,5	2,478900
8,200333	0,5	2,532200
8,208667	0,5	2,603750
8,217000	0,5	2,697100
8,225333	0,5	2,810350
8,233667	0,5	2,956850
8,242000	0,5	3,142200
8,250333	0,5	3,375650
8,258667	0,5	3,663900
8,267000	0,5	4,019250
8,275333	0,5	4,518200
8,283667	0,5	5,263300
8,292000	0,5	6,461150
8,300333	0,5	8,401000
8,308667	0,5	11,359900
8,317000	0,5	15,403050
8,325333	0,5	20,160150
8,333667	0,5	24,682850
8,342000	0,5	27,866450
8,350333	0,5	28,841750
8,358667	0,5	27,418900
8,367000	0,5	24,129900
8,375333	0,5	19,877250
8,383667	0,5	15,626750
8,392000	0,5	11,986150
8,400333	0,5	9,192750
8,408667	0,5	7,211650
8,417000	0,5	5,874400
8,425333	0,5	4,978650
8,433667	0,5	4,377950
8,442000	0,5	3,958050
8,450333	0,5	3,643950
8,458667	0,5	3,401300
8,467000	0,5	3,239600
8,475333	0,5	3,164750
8,483667	0,5	3,160700
8,492000	0,5	3,209100
8,500333	0,5	3,250650
8,508667	0,5	3,243150
8,517000	0,5	3,155400
8,525333	0,5	2,991050
8,533667	0,5	2,808550
8,542000	0,5	2,653000
8,550333	0,5	2,546400
8,558667	0,5	2,509150
8,567000	0,5	2,528050
8,575333	0,5	2,595350
8,583667	0,5	2,658500
8,592000	0,5	2,695450
8,600333	0,5	2,681650
8,608667	0,5	2,631150
8,617000	0,5	2,594550
8,625333	0,5	2,569950
8,633667	0,5	2,550600
8,642000	0,5	2,527200
8,650333	0,5	2,506900
8,658667	0,5	2,525550
8,667000	0,5	2,594400
8,675333	0,5	2,708050
8,683667	0,5	2,835850
8,692000	0,5	2,946500
8,700333	0,5	3,028450
8,708667	0,5	3,075650
8,717000	0,5	3,115750
8,725333	0,5	3,165500
8,733667	0,5	3,277900
8,742000	0,5	3,531550
8,750333	0,5	4,054200
8,758667	0,5	5,001600
8,767000	0,5	6,424600
8,775333	0,5	8,118350
8,783667	0,5	9,652650
8,792000	0,5	10,535350
8,800333	0,5	10,516000
8,808667	0,5	9,716300
8,817000	0,5	8,484250
8,825333	0,5	7,195450
8,833667	0,5	6,081200
8,842000	0,5	5,192550
8,850333	0,5	4,503750
8,858667	0,5	3,978900
8,867000	0,5	3,571200
8,875333	0,5	3,252850
8,883667	0,5	3,019100
8,892000	0,5	2,860200
8,900333	0,5	2,760250
8,908667	0,5	2,732000
8,917000	0,5	2,753050
8,925333	0,5	2,791550
8,933667	0,5	2,809750
8,942000	0,5	2,784000
8,950333	0,5	2,705100
8,958667	0,5	2,585950
8,967000	0,5	2,451900
8,975333	0,5	2,334800
8,983667	0,5	2,248100
8,992000	0,5	2,208450
9,000333	0,5	2,211900
9,008667	0,5	2,253650
9,017000	0,5	2,313300
9,025333	0,5	2,362400
9,033667	0,5	2,372250
9,042000	0,5	2,349350
9,050333	0,5	2,304950
9,058667	0,5	2,280950
9,067000	0,5	2,264150
9,075333	0,5	2,257600
9,083667	0,5	2,238700
9,092000	0,5	2,201400
9,100333	0,5	2,145250
9,108667	0,5	2,070200
9,117000	0,5	1,994200
9,125333	0,5	1,933100
9,133667	0,5	1,888550
9,142000	0,5	1,858800
9,150333	0,5	1,850450
9,158667	0,5	1,853500
9,167000	0,5	1,861200
9,175333	0,5	1,882300
9,183667	0,5	1,910900
9,192000	0,5	1,932100
9,200333	0,5	1,942200
9,208667	0,5	1,933200
9,217000	0,5	1,919550
9,225333	0,5	1,907900
9,233667	0,5	1,903200
9,242000	0,5	1,907400
9,250333	0,5	1,923750
9,258667	0,5	1,939150
9,267000	0,5	1,949500
9,275333	0,5	1,963650
9,283667	0,5	1,991650
9,292000	0,5	2,023600
9,300333	0,5	2,085250
9,308667	0,5	2,166200
9,317000	0,5	2,270450
9,325333	0,5	2,395550
9,333667	0,5	2,536100
9,342000	0,5	2,681350
9,350333	0,5	2,793050
9,358667	0,5	2,855350
9,367000	0,5	2,848600
9,375333	0,5	2,790450
9,383667	0,5	2,717300
9,392000	0,5	2,637850
9,400333	0,5	2,558300
9,408667	0,5	2,468800
9,417000	0,5	2,398450
9,425333	0,5	2,369000
9,433667	0,5	2,408050
9,442000	0,5	2,528400
9,450333	0,5	2,763850
9,458667	0,5	3,100250
9,467000	0,5	3,553350
9,475333	0,5	4,095500
9,483667	0,5	4,705400
9,492000	0,5	5,374200
9,500333	0,5	6,153300
9,508667	0,5	7,152650
9,517000	0,5	8,618850
9,525333	0,5	10,967200
9,533667	0,5	14,731150
9,542000	0,5	20,366500
9,550333	0,5	27,787350
9,558667	0,5	35,966151
9,567000	0,5	43,081701
9,575333	0,5	47,242151
9,583667	0,5	47,375951
9,592000	0,5	43,694001
9,600333	0,5	37,452501
9,608667	0,5	30,294450
9,617000	0,5	23,573250
9,625333	0,5	18,024100
9,633667	0,5	13,793950
9,642000	0,5	10,700200
9,650333	0,5	8,482650
9,658667	0,5	6,904400
9,667000	0,5	5,772650
9,675333	0,5	4,968850
9,683667	0,5	4,390550
9,692000	0,5	3,965550
9,700333	0,5	3,650100
9,708667	0,5	3,409650
9,717000	0,5	3,240050
9,725333	0,5	3,125700
9,733667	0,5	3,041600
9,742000	0,5	2,977250
9,750333	0,5	2,912450
9,758667	0,5	2,827900
9,767000	0,5	2,727950
9,775333	0,5	2,601350
9,783667	0,5	2,475100
9,792000	0,5	2,356700
9,800333	0,5	2,258300
9,808667	0,5	2,178100
9,817000	0,5	2,103750
9,825333	0,5	2,052600
9,833667	0,5	2,002050
9,842000	0,5	1,961800
9,850333	0,5	1,931950
9,858667	0,5	1,895050
9,867000	0,5	1,862650
9,875333	0,5	1,838950
9,883667	0,5	1,807900
9,892000	0,5	1,783000
9,900333	0,5	1,756350
9,908667	0,5	1,739750
9,917000	0,5	1,711500
9,925333	0,5	1,692150
9,933667	0,5	1,672600
9,942000	0,5	1,652100
9,950333	0,5	1,644350
9,958667	0,5	1,627750
9,967000	0,5	1,615700
9,975333	0,5	1,612650
9,983667	0,5	1,611650
9,992000	0,5	1,619150
10,000333	0,5	1,632150
10,008667	0,5	1,655500
10,017000	0,5	1,683150
10,025333	0,5	1,716300
10,033667	0,5	1,753600
10,042000	0,5	1,780250
10,050333	0,5	1,796400
10,058667	0,5	1,791500
10,067000	0,5	1,765800
10,075333	0,5	1,729000
10,083667	0,5	1,695100
10,092000	0,5	1,665700
10,100333	0,5	1,641450
10,108667	0,5	1,616300
10,117000	0,5	1,598200
10,125333	0,5	1,585200
10,133667	0,5	1,580100
10,142000	0,5	1,577600
10,150333	0,5	1,570450
10,158667	0,5	1,565450
10,167000	0,5	1,557750
10,175333	0,5	1,554350
10,183667	0,5	1,551600
10,192000	0,5	1,550150
10,200333	0,5	1,549600
10,208667	0,5	1,551050
10,217000	0,5	1,546500
10,225333	0,5	1,548400
10,233667	0,5	1,553850
10,242000	0,5	1,579900
10,250333	0,5	1,623150
10,258667	0,5	1,683450
10,267000	0,5	1,757750
10,275333	0,5	1,835650
10,283667	0,5	1,900350
10,292000	0,5	1,936800
10,300333	0,5	1,933650
10,308667	0,5	1,912650
10,317000	0,5	1,877900
10,325333	0,5	1,846650
10,333667	0,5	1,818350
10,342000	0,5	1,798900
10,350333	0,5	1,796300
10,358667	0,5	1,798300
10,367000	0,5	1,796800
10,375333	0,5	1,795000
10,383667	0,5	1,782400
10,392000	0,5	1,767750
10,400333	0,5	1,746150
10,408667	0,5	1,722250
10,417000	0,5	1,685850
10,425333	0,5	1,657400
10,433667	0,5	1,631200
10,442000	0,5	1,621050
10,450333	0,5	1,637800
10,458667	0,5	1,705850
10,467000	0,5	1,855300
10,475333	0,5	2,119400
10,483667	0,5	2,508550
10,492000	0,5	3,032700
10,500333	0,5	3,687650
10,508667	0,5	4,461700
10,517000	0,5	5,376850
10,525333	0,5	6,464650
10,533667	0,5	7,911600
10,542000	0,5	10,057200
10,550333	0,5	13,451100
10,558667	0,5	18,809550
10,567000	0,5	26,757450
10,575333	0,5	37,261501
10,583667	0,5	49,251201
10,592000	0,5	60,661251
10,600333	0,5	69,150301
10,608667	0,5	72,925801
10,617000	0,5	71,395901
10,625333	0,5	65,215951
10,633667	0,5	55,947801
10,642000	0,5	45,450501
10,650333	0,5	35,347101
10,658667	0,5	26,674300
10,667000	0,5	19,855650
10,675333	0,5	14,812050
10,683667	0,5	11,250150
10,692000	0,5	8,775550
10,700333	0,5	7,052450
10,708667	0,5	5,838950
10,717000	0,5	4,969450
10,725333	0,5	4,331050
10,733667	0,5	3,856900
10,742000	0,5	3,491100
10,750333	0,5	3,202000
10,758667	0,5	2,971800
10,767000	0,5	2,783950
10,775333	0,5	2,629400
10,783667	0,5	2,495600
10,792000	0,5	2,382300
10,800333	0,5	2,282900
10,808667	0,5	2,195900
10,817000	0,5	2,117150
10,825333	0,5	2,051650
10,833667	0,5	1,996500
10,842000	0,5	1,956400
10,850333	0,5	1,920900
10,858667	0,5	1,906450
10,867000	0,5	1,892100
10,875333	0,5	1,903250
10,883667	0,5	1,913700
10,892000	0,5	1,928100
10,900333	0,5	1,937450
10,908667	0,5	1,945300
10,917000	0,5	1,942300
10,925333	0,5	1,926000
10,933667	0,5	1,898400
10,942000	0,5	1,855300
10,950333	0,5	1,801850
10,958667	0,5	1,737750
10,967000	0,5	1,661900
10,975333	0,5	1,581300
10,983667	0,5	1,512950
10,992000	0,5	1,446400
11,000333	0,5	1,390100
11,008667	0,5	1,340500
11,017000	0,5	1,311750
11,025333	0,5	1,290750
11,033667	0,5	1,283050
11,042000	0,5	1,283750
11,050333	0,5	1,290650
11,058667	0,5	1,297900
11,067000	0,5	1,307050
11,075333	0,5	1,308250
11,083667	0,5	1,312650
11,092000	0,5	1,315100
11,100333	0,5	1,317200
11,108667	0,5	1,323400
11,117000	0,5	1,327800
11,125333	0,5	1,331750
11,133667	0,5	1,338500
11,142000	0,5	1,339550
11,150333	0,5	1,331000
11,158667	0,5	1,315050
11,167000	0,5	1,303550
11,175333	0,5	1,290550
11,183667	0,5	1,278500
11,192000	0,5	1,262800
11,200333	0,5	1,253500
11,208667	0,5	1,248550
11,217000	0,5	1,236800
11,225333	0,5	1,238850
11,233667	0,5	1,230200
11,242000	0,5	1,230750
11,250333	0,5	1,232600
11,258667	0,5	1,242350
11,267000	0,5	1,242650
11,275333	0,5	1,253700
11,283667	0,5	1,263550
11,292000	0,5	1,264450
11,300333	0,5	1,266650
11,308667	0,5	1,245450
11,317000	0,5	1,233750
11,325333	0,5	1,219650
11,333667	0,5	1,206650
11,342000	0,5	1,204450
11,350333	0,5	1,230350
11,358667	0,5	1,287650
11,367000	0,5	1,399750
11,375333	0,5	1,560900
11,383667	0,5	1,791100
11,392000	0,5	2,088800
11,400333	0,5	2,452150
11,408667	0,5	2,881300
11,417000	0,5	3,386500
11,425333	0,5	4,010300
11,433667	0,5	4,847100
11,442000	0,5	6,078850
11,450333	0,5	8,001900
11,458667	0,5	10,982600
11,467000	0,5	15,314950
11,475333	0,5	21,010150
11,483667	0,5	27,534650
11,492000	0,5	33,819301
11,500333	0,5	38,558951
11,508667	0,5	40,701301
11,517000	0,5	39,865451
11,525333	0,5	36,392651
11,533667	0,5	31,194300
11,542000	0,5	25,334400
11,550333	0,5	19,724400
11,558667	0,5	14,947850
11,567000	0,5	11,212050
11,575333	0,5	8,490500
11,583667	0,5	6,580400
11,592000	0,5	5,273150
11,600333	0,5	4,376500
11,608667	0,5	3,754800
11,617000	0,5	3,309200
11,625333	0,5	2,970050
11,633667	0,5	2,696450
11,642000	0,5	2,479000
11,650333	0,5	2,297550
11,658667	0,5	2,160950
11,667000	0,5	2,052250
11,675333	0,5	1,970300
11,683667	0,5	1,913550
11,692000	0,5	1,871100
11,700333	0,5	1,850950
11,708667	0,5	1,844050
11,717000	0,5	1,865050
11,725333	0,5	1,913500
11,733667	0,5	1,997200
11,742000	0,5	2,109100
11,750333	0,5	2,260750
11,758667	0,5	2,460050
11,767000	0,5	2,689350
11,775333	0,5	2,936700
11,783667	0,5	3,201700
11,792000	0,5	3,446950
11,800333	0,5	3,657750
11,808667	0,5	3,804550
11,817000	0,5	3,868400
11,825333	0,5	3,834400
11,833667	0,5	3,713450
11,842000	0,5	3,536250
11,850333	0,5	3,309550
11,858667	0,5	3,060050
11,867000	0,5	2,831050
11,875333	0,5	2,616950
11,883667	0,5	2,429500
11,892000	0,5	2,256700
11,900333	0,5	2,106750
11,908667	0,5	1,992550
11,917000	0,5	1,891550
11,925333	0,5	1,805800
11,933667	0,5	1,727600
11,942000	0,5	1,662000
11,950333	0,5	1,605500
11,958667	0,5	1,561800
11,967000	0,5	1,535700
11,975333	0,5	1,520400
11,983667	0,5	1,516050
11,992000	0,5	1,523850
12,000333	0,5	1,522450
12,008667	0,5	1,523350
12,017000	0,5	1,520350
12,025333	0,5	1,509550
12,033667	0,5	1,494600
12,042000	0,5	1,496500
12,050333	0,5	1,531000
12,058667	0,5	1,639350
12,067000	0,5	1,833350
12,075333	0,5	2,156650
12,083667	0,5	2,622850
12,092000	0,5	3,233600
12,100333	0,5	3,981350
12,108667	0,5	4,847800
12,117000	0,5	5,863550
12,125333	0,5	7,093900
12,133667	0,5	8,746000
12,142000	0,5	11,217150
12,150333	0,5	15,141700
12,158667	0,5	21,338350
12,167000	0,5	30,409000
12,175333	0,5	42,224651
12,183667	0,5	55,378501
12,192000	0,5	67,451101
12,200333	0,5	75,847001
12,208667	0,5	78,840601
12,217000	0,5	76,190651
12,225333	0,5	68,935701
12,233667	0,5	58,848101
12,242000	0,5	47,806901
12,250333	0,5	37,346001
12,258667	0,5	28,402250
12,267000	0,5	21,339550
12,275333	0,5	16,083500
12,283667	0,5	12,326000
12,292000	0,5	9,684450
12,300333	0,5	7,820550
12,308667	0,5	6,505750
12,317000	0,5	5,545350
12,325333	0,5	4,846500
12,333667	0,5	4,309250
12,342000	0,5	3,899400
12,350333	0,5	3,579650
12,358667	0,5	3,332650
12,367000	0,5	3,125850
12,375333	0,5	2,953650
12,383667	0,5	2,806050
12,392000	0,5	2,677900
12,400333	0,5	2,565900
12,408667	0,5	2,465400
12,417000	0,5	2,378650
12,425333	0,5	2,305150
12,433667	0,5	2,236900
12,442000	0,5	2,178750
12,450333	0,5	2,118450
12,458667	0,5	2,076550
12,467000	0,5	2,035700
12,475333	0,5	1,993350
12,483667	0,5	1,956850
12,492000	0,5	1,924950
12,500333	0,5	1,914250
12,508667	0,5	1,907950
12,517000	0,5	1,901600
12,525333	0,5	1,902150
12,533667	0,5	1,909100
12,542000	0,5	1,904150
12,550333	0,5	1,885800
12,558667	0,5	1,853050
12,567000	0,5	1,821250
12,575333	0,5	1,788500
12,583667	0,5	1,755900
12,592000	0,5	1,735200
12,600333	0,5	1,713100
12,608667	0,5	1,707750
12,617000	0,5	1,698950
12,625333	0,5	1,700400
12,633667	0,5	1,698150
12,642000	0,5	1,706500
12,650333	0,5	1,729150
12,658667	0,5	1,750100
12,667000	0,5	1,785750
12,675333	0,5	1,828100
12,683667	0,5	1,893200
12,692000	0,5	1,979400
12,700333	0,5	2,100600
12,708667	0,5	2,245550
12,717000	0,5	2,430600
12,725333	0,5	2,683300
12,733667	0,5	3,014050
12,742000	0,5	3,449300
12,750333	0,5	4,038800
12,758667	0,5	4,757600
12,767000	0,5	5,522950
12,775333	0,5	6,207900
12,783667	0,5	6,639600
12,792000	0,5	6,703650
12,800333	0,5	6,385150
12,808667	0,5	5,758850
12,817000	0,5	5,002400
12,825333	0,5	4,250600
12,833667	0,5	3,604800
12,842000	0,5	3,105100
12,850333	0,5	2,742000
12,858667	0,5	2,475850
12,867000	0,5	2,281700
12,875333	0,5	2,135850
12,883667	0,5	2,010400
12,892000	0,5	1,906900
12,900333	0,5	1,814800
12,908667	0,5	1,729600
12,917000	0,5	1,655350
12,925333	0,5	1,585850
12,933667	0,5	1,525200
12,942000	0,5	1,487950
12,950333	0,5	1,451500
12,958667	0,5	1,412250
12,967000	0,5	1,374800
12,975333	0,5	1,338150
12,983667	0,5	1,296400
12,992000	0,5	1,259150
13,000333	0,5	1,219000
13,008667	0,5	1,189400
13,017000	0,5	1,159700
13,025333	0,5	1,141300
13,033667	0,5	1,120350
13,042000	0,5	1,109850
13,050333	0,5	1,107450
13,058667	0,5	1,094250
13,067000	0,5	1,095150
13,075333	0,5	1,091250
13,083667	0,5	1,096250
13,092000	0,5	1,107450
13,100333	0,5	1,114650
13,108667	0,5	1,112950
13,117000	0,5	1,108250
13,125333	0,5	1,093750
13,133667	0,5	1,073550
13,142000	0,5	1,047150
13,150333	0,5	1,025850
13,158667	0,5	1,007100
13,167000	0,5	0,992650
13,175333	0,5	0,986400
13,183667	0,5	0,970800
13,192000	0,5	0,969200
13,200333	0,5	0,956350
13,208667	0,5	0,940350
13,217000	0,5	0,924650
13,225333	0,5	0,906350
13,233667	0,5	0,903300
13,242000	0,5	0,915600
13,250333	0,5	0,927900
13,258667	0,5	0,949500
13,267000	0,5	0,962300
13,275333	0,5	0,973400
13,283667	0,5	0,973400
13,292000	0,5	0,964950
13,300333	0,5	0,959850
13,308667	0,5	0,948350
13,317000	0,5	0,949750
13,325333	0,5	0,959750
13,333667	0,5	0,960800
13,342000	0,5	0,974150
13,350333	0,5	0,974350
13,358667	0,5	0,973200
13,367000	0,5	0,964300
13,375333	0,5	0,948350
13,383667	0,5	0,950700
13,392000	0,5	0,953200
13,400333	0,5	0,943150
13,408667	0,5	0,929850
13,417000	0,5	0,914450
13,425333	0,5	0,888650
13,433667	0,5	0,861450
13,442000	0,5	0,846250
13,450333	0,5	0,841200
13,458667	0,5	0,851150
13,467000	0,5	0,859000
13,475333	0,5	0,834300
13,483667	0,5	0,805300
13,492000	0,5	0,773900
13,500333	0,5	0,731200
13,508667	0,5	0,689550
13,517000	0,5	0,649300
13,525333	0,5	0,621550
13,533667	0,5	0,610650
13,542000	0,5	0,620150
13,550333	0,5	0,626000
13,558667	0,5	0,622900
13,567000	0,5	0,579550
13,575333	0,5	0,440150
13,583667	0,5	0,179200
13,592000	0,5	-0,219500
13,600333	0,5	-0,540100
13,608667	0,5	-0,728250
13,617000	0,5	-0,851150
13,625333	0,5	-0,944950
13,633667	0,5	-1,021900
13,642000	0,5	-1,078800
13,650333	0,5	-1,134200
13,658667	0,5	-1,173800
13,667000	0,5	-1,215500
13,675333	0,5	-1,235550
13,683667	0,5	-1,246000
13,692000	0,5	-1,252150
13,700333	0,5	-1,260500
13,708667	0,5	-1,266650
13,717000	0,5	-1,273050
13,725333	0,5	-1,278600
13,733667	0,5	-1,278800
13,742000	0,5	-1,278950
13,750333	0,5	-1,265700
13,758667	0,5	-1,244300
13,767000	0,5	-1,226600
13,775333	0,5	-1,220200
13,783667	0,5	-1,199500
13,792000	0,5	-1,198200
13,800333	0,5	-1,204100
13,808667	0,5	-1,222500
13,817000	0,5	-1,245400
13,825333	0,5	-1,258500
13,833667	0,5	-1,271350
13,842000	0,5	-1,294250
13,850333	0,5	-1,304800
13,858667	0,5	-1,309900
13,867000	0,5	-1,307450
13,875333	0,5	-1,296300
13,883667	0,5	-1,284800
13,892000	0,5	-1,268400
13,900333	0,5	-1,252850
13,908667	0,5	-1,222100
13,917000	0,5	-1,201200
13,925333	0,5	-1,183500
13,933667	0,5	-1,154500
13,942000	0,5	-1,132600
13,950333	0,5	-1,119700
13,958667	0,5	-1,106850
13,967000	0,5	-1,096100
13,975333	0,5	-1,065950
13,983667	0,5	-1,048300
13,992000	0,5	-1,030500
14,000333	0,5	-1,005900
14,008667	0,5	-0,979050
14,017000	0,5	-0,959300
14,025333	0,5	-0,924300
14,033667	0,5	-0,889050
14,042000	0,5	-0,863500
14,050333	0,5	-0,836150
14,058667	0,5	-0,801900
14,067000	0,5	-0,792700
14,075333	0,5	-0,763650
14,083667	0,5	-0,744650
14,092000	0,5	-0,730800
14,100333	0,5	-0,719700
14,108667	0,5	-0,715350
14,117000	0,5	-0,687100
14,125333	0,5	-0,662100
14,133667	0,5	-0,633700
14,142000	0,5	-0,611800
14,150333	0,5	-0,581800
14,158667	0,5	-0,544950
14,167000	0,5	-0,503450
14,175333	0,5	-0,459500
14,183667	0,5	-0,408000
14,192000	0,5	-0,357500
14,200333	0,5	-0,313550
14,208667	0,5	-0,275450
14,217000	0,5	-0,262200
14,225333	0,5	-0,242200
14,233667	0,5	-0,231900
14,242000	0,5	-0,224300
14,250333	0,5	-0,222200
14,258667	0,5	-0,212550
14,267000	0,5	-0,183600
14,275333	0,5	-0,158700
14,283667	0,5	-0,137450
14,292000	0,5	-0,124750
14,300333	0,5	-0,109050
14,308667	0,5	-0,081850
14,317000	0,5	-0,058750
14,325333	0,5	-0,026350
14,333667	0,5	0,011650
14,342000	0,5	0,071950
14,350333	0,5	0,155900
14,358667	0,5	0,261150
14,367000	0,5	0,385450
14,375333	0,5	0,525800
14,383667	0,5	0,625250
14,392000	0,5	0,682300
14,400333	0,5	0,676250
14,408667	0,5	0,626150
14,417000	0,5	0,567350
14,425333	0,5	0,491200
14,433667	0,5	0,429550
14,442000	0,5	0,382600
14,450333	0,5	0,359000
14,458667	0,5	0,354600
14,467000	0,5	0,382500
14,475333	0,5	0,422650
14,483667	0,5	0,465300
14,492000	0,5	0,500900
14,500333	0,5	0,526800
14,508667	0,5	0,514800
14,517000	0,5	0,501150
14,525333	0,5	0,480800
14,533667	0,5	0,456850
14,542000	0,5	0,436750
14,550333	0,5	0,412150
14,558667	0,5	0,394550
14,567000	0,5	0,383400
14,575333	0,5	0,369350
14,583667	0,5	0,351300
14,592000	0,5	0,336000
14,600333	0,5	0,321350
14,608667	0,5	0,311150
14,617000	0,5	0,297250
14,625333	0,5	0,275900
14,633667	0,5	0,256800
14,642000	0,5	0,252450
14,650333	0,5	0,239750
14,658667	0,5	0,221200
14,667000	0,5	0,213100
14,675333	0,5	0,211650
14,683667	0,5	0,204400
14,692000	0,5	0,188300
14,700333	0,5	0,174900
14,708667	0,5	0,174650
14,717000	0,5	0,177600
14,725333	0,5	0,193200
14,733667	0,5	0,206650
14,742000	0,5	0,222150
14,750333	0,5	0,235500
14,758667	0,5	0,231800
14,767000	0,5	0,218450
14,775333	0,5	0,198950
14,783667	0,5	0,191800
14,792000	0,5	0,179100
14,800333	0,5	0,160200
14,808667	0,5	0,149250
14,817000	0,5	0,143300
14,825333	0,5	0,133250
14,833667	0,5	0,130800
14,842000	0,5	0,114100
14,850333	0,5	0,112850
14,858667	0,5	0,114900
14,867000	0,5	0,121200
14,875333	0,5	0,118800
14,883667	0,5	0,122350
14,892000	0,5	0,121800
14,900333	0,5	0,135900
14,908667	0,5	0,145750
14,917000	0,5	0,177050
14,925333	0,5	0,234700
14,933667	0,5	0,315550
14,942000	0,5	0,439750
14,950333	0,5	0,552600
14,958667	0,5	0,665100
14,967000	0,5	0,721950
14,975333	0,5	0,718500
14,983667	0,5	0,649200
14,992000	0,5	0,553550
15,000333	0,5	0,464650
15,008667	0,5	0,398250
15,017000	0,5	0,356000
15,025333	0,5	0,346400
15,033667	0,5	0,361200
15,042000	0,5	0,390050
15,050333	0,5	0,414800
15,058667	0,5	0,423300
15,067000	0,5	0,409800
15,075333	0,5	0,368200
15,083667	0,5	0,337550
15,092000	0,5	0,297400
15,100333	0,5	0,247000
15,108667	0,5	0,227450
15,117000	0,5	0,205550
15,125333	0,5	0,188600
15,133667	0,5	0,171550
15,142000	0,5	0,142050
15,150333	0,5	0,153100
15,158667	0,5	0,147900
15,167000	0,5	0,153850
15,175333	0,5	0,135950
15,183667	0,5	0,140750
15,192000	0,5	0,131950
15,200333	0,5	0,141150
15,208667	0,5	0,146800
15,217000	0,5	0,143850
15,225333	0,5	0,141850
15,233667	0,5	0,138900
15,242000	0,5	0,125200
15,250333	0,5	0,114500
15,258667	0,5	0,109000
15,267000	0,5	0,096550
15,275333	0,5	0,080150
15,283667	0,5	0,060900
15,292000	0,5	0,038950
15,300333	0,5	0,028100
15,308667	0,5	0,026050
15,317000	0,5	0,017700
15,325333	0,5	0,013200
15,333667	0,5	0,010300
15,342000	0,5	0,010000
15,350333	0,5	0,010100
15,358667	0,5	0,013050
15,367000	0,5	0,007750
15,375333	0,5	-0,000800
15,383667	0,5	-0,003150
15,392000	0,5	-0,005650
15,400333	0,5	0,002000
15,408667	0,5	0,025200
15,417000	0,5	0,040900
15,425333	0,5	0,065350
15,433667	0,5	0,111400
15,442000	0,5	0,199000
15,450333	0,5	0,321700
15,458667	0,5	0,444000
15,467000	0,5	0,547150
15,475333	0,5	0,592900
15,483667	0,5	0,571450
15,492000	0,5	0,507400
15,500333	0,5	0,426850
15,508667	0,5	0,355450
15,517000	0,5	0,320950
15,525333	0,5	0,313300
15,533667	0,5	0,337650
15,542000	0,5	0,346150
15,550333	0,5	0,368050
15,558667	0,5	0,359500
15,567000	0,5	0,326000
15,575333	0,5	0,277150
15,583667	0,5	0,216250
15,592000	0,5	0,185900
15,600333	0,5	0,164300
15,608667	0,5	0,147350
15,617000	0,5	0,130550
15,625333	0,5	0,131000
15,633667	0,5	0,127750
15,642000	0,5	0,131900
15,650333	0,5	0,125200
15,658667	0,5	0,117650
15,667000	0,5	0,088800
15,675333	0,5	0,083300
15,683667	0,5	0,052650
15,692000	0,5	0,047850
15,700333	0,5	0,047700
15,708667	0,5	0,048400
15,717000	0,5	0,031150
15,725333	0,5	0,005500
15,733667	0,5	-0,011450
15,742000	0,5	-0,026950
15,750333	0,5	-0,041600
15,758667	0,5	-0,065850
15,767000	0,5	-0,085350
15,775333	0,5	-0,104300
15,783667	0,5	-0,125100
15,792000	0,5	-0,142100
15,800333	0,5	-0,148600
15,808667	0,5	-0,158600
15,817000	0,5	-0,168250
15,825333	0,5	-0,172450
15,833667	0,5	-0,186100
15,842000	0,5	-0,169250
15,850333	0,5	-0,154050
15,858667	0,5	-0,141950
15,867000	0,5	-0,115000
15,875333	0,5	-0,089550
15,883667	0,5	-0,002500
15,892000	0,5	0,106950
15,900333	0,5	0,234550
15,908667	0,5	0,358400
15,917000	0,5	0,443050
15,925333	0,5	0,465700
15,933667	0,5	0,434600
15,942000	0,5	0,368100
15,950333	0,5	0,300500
15,958667	0,5	0,261050
15,967000	0,5	0,235500
15,975333	0,5	0,239250
15,983667	0,5	0,206800
15,992000	0,5	0,207250
16,000333	0,5	0,165450
16,008667	0,5	0,123200
16,017000	0,5	0,076700
16,025333	0,5	0,026600
16,033667	0,5	0,011950
16,042000	0,5	-0,005000
16,050333	0,5	-0,027050
16,058667	0,5	-0,027850
16,067000	0,5	-0,039250
16,075333	0,5	-0,038900
16,083667	0,5	-0,036150
16,092000	0,5	-0,030150
16,100333	0,5	-0,036750
16,108667	0,5	-0,047750
16,117000	0,5	-0,048850
16,125333	0,5	-0,066100
16,133667	0,5	-0,097750
16,142000	0,5	-0,111200
16,150333	0,5	-0,139000
16,158667	0,5	-0,166800
16,167000	0,5	-0,196400
16,175333	0,5	-0,230450
16,183667	0,5	-0,239800
16,192000	0,5	-0,255500
16,200333	0,5	-0,265300
16,208667	0,5	-0,269100
16,217000	0,5	-0,262900
16,225333	0,5	-0,270650
16,233667	0,5	-0,261750
16,242000	0,5	-0,252450
16,250333	0,5	-0,242600
16,258667	0,5	-0,217250
16,267000	0,5	-0,186500
16,275333	0,5	-0,136700
16,283667	0,5	-0,050600
16,292000	0,5	0,075350
16,300333	0,5	0,203100
16,308667	0,5	0,313850
16,317000	0,5	0,373950
16,325333	0,5	0,388400
16,333667	0,5	0,352500
16,342000	0,5	0,305000
16,350333	0,5	0,242250
16,358667	0,5	0,213400
16,367000	0,5	0,184300
16,375333	0,5	0,160200
16,383667	0,5	0,112700
16,392000	0,5	0,057050
16,400333	0,5	-0,015200
16,408667	0,5	-0,059850
16,417000	0,5	-0,108500
16,425333	0,5	-0,141600
16,433667	0,5	-0,160200
16,442000	0,5	-0,163300
16,450333	0,5	-0,171150
16,458667	0,5	-0,177400
16,467000	0,5	-0,180750
16,475333	0,5	-0,184250
16,483667	0,5	-0,167100
16,492000	0,5	-0,172100
16,500333	0,5	-0,171250
16,508667	0,5	-0,192100
16,517000	0,5	-0,203750
16,525333	0,5	-0,224700
16,533667	0,5	-0,241400
16,542000	0,5	-0,263700
16,550333	0,5	-0,281000
16,558667	0,5	-0,288600
16,567000	0,5	-0,307650
16,575333	0,5	-0,311900
16,583667	0,5	-0,304850
16,592000	0,5	-0,305050
16,600333	0,5	-0,294500
16,608667	0,5	-0,310250
16,617000	0,5	-0,281150
16,625333	0,5	-0,229500
16,633667	0,5	-0,167150
16,642000	0,5	-0,082150
16,650333	0,5	0,038800
16,658667	0,5	0,179300
16,667000	0,5	0,304150
16,675333	0,5	0,407250
16,683667	0,5	0,461850
16,692000	0,5	0,480600
16,700333	0,5	0,473100
16,708667	0,5	0,463100
16,717000	0,5	0,417450
16,725333	0,5	0,416800
16,733667	0,5	0,395400
16,742000	0,5	0,373100
16,750333	0,5	0,332050
16,758667	0,5	0,283300
16,767000	0,5	0,270600
16,775333	0,5	0,260800
16,783667	0,5	0,252550
16,792000	0,5	0,239450
16,800333	0,5	0,226700
16,808667	0,5	0,194300
16,817000	0,5	0,158450
16,825333	0,5	0,118750
16,833667	0,5	0,080300
16,842000	0,5	0,038000
16,850333	0,5	-0,002800
16,858667	0,5	-0,050550
16,867000	0,5	-0,099550
16,875333	0,5	-0,130950
16,883667	0,5	-0,158900
16,892000	0,5	-0,186550
16,900333	0,5	-0,215000
16,908667	0,5	-0,259800
16,917000	0,5	-0,270400
16,925333	0,5	-0,278850
16,933667	0,5	-0,282550
16,942000	0,5	-0,286000
16,950333	0,5	-0,283350
16,958667	0,5	-0,263250
16,967000	0,5	-0,217950
16,975333	0,5	-0,131200
16,983667	0,5	-0,028350
16,992000	0,5	0,080500
17,000333	0,5	0,167600
17,008667	0,5	0,211950
17,017000	0,5	0,202850
17,025333	0,5	0,185150
17,033667	0,5	0,141700
17,042000	0,5	0,090400
17,050333	0,5	0,030900
17,058667	0,5	-0,016650
17,067000	0,5	-0,054750
17,075333	0,5	-0,086650
17,083667	0,5	-0,115250
17,092000	0,5	-0,121650
17,100333	0,5	-0,134650
17,108667	0,5	-0,130750
17,117000	0,5	-0,117200
17,125333	0,5	-0,104300
17,133667	0,5	-0,090050
17,142000	0,5	-0,074000
17,150333	0,5	-0,052450
17,158667	0,5	-0,047700
17,167000	0,5	-0,016050
17,175333	0,5	0,014950
17,183667	0,5	0,058200
17,192000	0,5	0,110300
17,200333	0,5	0,195750
17,208667	0,5	0,319550
17,217000	0,5	0,506050
17,225333	0,5	0,710250
17,233667	0,5	0,981150
17,242000	0,5	1,283600
17,250333	0,5	1,623250
17,258667	0,5	1,973400
17,267000	0,5	2,352800
17,275333	0,5	2,704000
17,283667	0,5	3,008150
17,292000	0,5	3,247950
17,300333	0,5	3,365850
17,308667	0,5	3,371350
17,317000	0,5	3,279950
17,325333	0,5	3,276350
17,333667	0,5	2,830550
17,342000	0,5	2,528500
17,350333	0,5	2,200500
17,358667	0,5	1,897900
17,367000	0,5	1,604550
17,375333	0,5	1,357300
17,383667	0,5	1,136200
17,392000	0,5	0,956700
17,400333	0,5	0,804950
17,408667	0,5	0,696100
17,417000	0,5	0,597800
17,425333	0,5	0,504900
17,433667	0,5	0,435600
17,442000	0,5	0,380050
17,450333	0,5	0,313900
17,458667	0,5	0,276250
17,467000	0,5	0,237900
17,475333	0,5	0,206850
17,483667	0,5	0,184200
17,492000	0,5	0,149600
17,500333	0,5	0,156550
17,508667	0,5	0,178550
17,517000	0,5	0,222050
17,525333	0,5	0,273850
17,533667	0,5	0,359300
17,542000	0,5	0,445650
17,550333	0,5	0,542200
17,558667	0,5	0,616900
17,567000	0,5	0,650750
17,575333	0,5	0,639050
17,583667	0,5	0,600550
17,592000	0,5	0,548150
17,600333	0,5	0,459250
17,608667	0,5	0,392200
17,617000	0,5	0,312950
17,625333	0,5	0,236150
17,633667	0,5	0,150100
17,642000	0,5	0,089650
17,650333	0,5	0,052550
17,658667	0,5	0,021500
17,667000	0,5	-0,024650
17,675333	0,5	-0,055450
17,683667	0,5	-0,089300
17,692000	0,5	-0,113250
17,700333	0,5	-0,144500
17,708667	0,5	-0,166150
17,717000	0,5	-0,197850
17,725333	0,5	-0,222150
17,733667	0,5	-0,238450
17,742000	0,5	-0,255150
17,750333	0,5	-0,266550
17,758667	0,5	-0,249600
17,767000	0,5	-0,233200
17,775333	0,5	-0,209450
17,783667	0,5	-0,168400
17,792000	0,5	-0,127000
17,800333	0,5	-0,057000
17,808667	0,5	-0,021950
17,817000	0,5	-0,006500
17,825333	0,5	-0,018300
17,833667	0,5	-0,043850
17,842000	0,5	-0,096850
17,850333	0,5	-0,131100
17,858667	0,5	-0,169500
17,867000	0,5	-0,208200
17,875333	0,5	-0,229050
17,883667	0,5	-0,241500
17,892000	0,5	-0,276550
17,900333	0,5	-0,278550
17,908667	0,5	-0,292700
17,917000	0,5	-0,308050
17,925333	0,5	-0,333300
17,933667	0,5	-0,373100
17,942000	0,5	-0,382700
17,950333	0,5	-0,382900
17,958667	0,5	-0,376050
17,967000	0,5	-0,378900
17,975333	0,5	-0,369450
17,983667	0,5	-0,348850
17,992000	0,5	-0,327650
18,000333	0,5	-0,285950
18,008667	0,5	-0,232600
18,017000	0,5	-0,183500
18,025333	0,5	-0,146450
18,033667	0,5	-0,137700
18,042000	0,5	-0,163200
18,050333	0,5	-0,181700
18,058667	0,5	-0,219000
18,067000	0,5	-0,263350
18,075333	0,5	-0,307550
18,083667	0,5	-0,354350
18,092000	0,5	-0,371150
18,100333	0,5	-0,380750
18,108667	0,5	-0,402250
18,117000	0,5	-0,419950
18,125333	0,5	-0,431300
18,133667	0,5	-0,439150
18,142000	0,5	-0,448000
18,150333	0,5	-0,446850
18,158667	0,5	-0,452650
18,167000	0,5	-0,445000
18,175333	0,5	-0,432700
18,183667	0,5	-0,419300
18,192000	0,5	-0,401550
18,200333	0,5	-0,347600
18,208667	0,5	-0,302300
18,217000	0,5	-0,257500
18,225333	0,5	-0,263350
18,233667	0,5	-0,273250
18,242000	0,5	-0,298200
18,250333	0,5	-0,326550
18,258667	0,5	-0,362700
18,267000	0,5	-0,383000
18,275333	0,5	-0,409300
18,283667	0,5	-0,428300
18,292000	0,5	-0,446250
18,300333	0,5	-0,454550
18,308667	0,5	-0,464000
18,317000	0,5	-0,465000
18,325333	0,5	-0,464650
18,333667	0,5	-0,470450
18,342000	0,5	-0,467400
18,350333	0,5	-0,465800
18,358667	0,5	-0,464800
18,367000	0,5	-0,455650
18,375333	0,5	-0,434700
18,383667	0,5	-0,393650
18,392000	0,5	-0,345750
18,400333	0,5	-0,317500
18,408667	0,5	-0,305950
18,417000	0,5	-0,322300
18,425333	0,5	-0,345050
18,433667	0,5	-0,378050
18,442000	0,5	-0,405950
18,450333	0,5	-0,428500
18,458667	0,5	-0,451400
18,467000	0,5	-0,441750
18,475333	0,5	-0,450100
18,483667	0,5	-0,463300
18,492000	0,5	-0,456850
18,500333	0,5	-0,460600
18,508667	0,5	-0,467000
18,517000	0,5	-0,476200
18,525333	0,5	-0,488550
18,533667	0,5	-0,463600
18,542000	0,5	-0,441150
18,550333	0,5	-0,411350
18,558667	0,5	-0,390550
18,567000	0,5	-0,362950
18,575333	0,5	-0,365100
18,583667	0,5	-0,377200
18,592000	0,5	-0,395500
18,600333	0,5	-0,421600
18,608667	0,5	-0,438150
18,617000	0,5	-0,445800
18,625333	0,5	-0,472400
18,633667	0,5	-0,476100
18,642000	0,5	-0,480300
18,650333	0,5	-0,485400
18,658667	0,5	-0,497200
18,667000	0,5	-0,529000
18,675333	0,5	-0,521950
18,683667	0,5	-0,511300
18,692000	0,5	-0,496450
18,700333	0,5	-0,491700
18,708667	0,5	-0,469900
18,717000	0,5	-0,450100
18,725333	0,5	-0,441350
18,733667	0,5	-0,443000
18,742000	0,5	-0,442000
18,750333	0,5	-0,455150
18,758667	0,5	-0,474750
18,767000	0,5	-0,479850
18,775333	0,5	-0,510300
18,783667	0,5	-0,495550
18,792000	0,5	-0,500300
18,800333	0,5	-0,492450
18,808667	0,5	-0,498950
18,817000	0,5	-0,508300
18,825333	0,5	-0,483100
18,833667	0,5	-0,448300
18,842000	0,5	-0,420400
18,850333	0,5	-0,362150
18,858667	0,5	-0,310350
18,867000	0,5	-0,269500
18,875333	0,5	-0,250000
18,883667	0,5	-0,235050
18,892000	0,5	-0,251700
18,900333	0,5	-0,278700
18,908667	0,5	-0,291350
18,917000	0,5	-0,317400
18,925333	0,5	-0,367300
18,933667	0,5	-0,386800
18,942000	0,5	-0,415200
18,950333	0,5	-0,442150
18,958667	0,5	-0,464950
18,967000	0,5	-0,488700
18,975333	0,5	-0,463150
18,983667	0,5	-0,452750
18,992000	0,5	-0,451800
19,000333	0,5	-0,470450
19,008667	0,5	-0,476400
19,017000	0,5	-0,513950
19,025333	0,5	-0,530650
19,033667	0,5	-0,557200
19,042000	0,5	-0,574450
19,050333	0,5	-0,583300
19,058667	0,5	-0,582300
19,067000	0,5	-0,577650
19,075333	0,5	-0,578000
19,083667	0,5	-0,566700
19,092000	0,5	-0,558450
19,100333	0,5	-0,557750
19,108667	0,5	-0,577750
19,117000	0,5	-0,594950
19,125333	0,5	-0,600150
19,133667	0,5	-0,612750
19,142000	0,5	-0,633550
19,150333	0,5	-0,632200
19,158667	0,5	-0,636700
19,167000	0,5	-0,632900
19,175333	0,5	-0,631850
19,183667	0,5	-0,614250
19,192000	0,5	-0,619900
19,200333	0,5	-0,593100
19,208667	0,5	-0,591200
19,217000	0,5	-0,607250
19,225333	0,5	-0,618750
19,233667	0,5	-0,630450
19,242000	0,5	-0,649200
19,250333	0,5	-0,680550
19,258667	0,5	-0,708650
19,267000	0,5	-0,731400
19,275333	0,5	-0,744400
19,283667	0,5	-0,750850
19,292000	0,5	-0,744900
19,300333	0,5	-0,747150
19,308667	0,5	-0,746350
19,317000	0,5	-0,751150
19,325333	0,5	-0,751550
19,333667	0,5	-0,771300
19,342000	0,5	-0,780200
19,350333	0,5	-0,785050
19,358667	0,5	-0,798300
19,367000	0,5	-0,816950
19,375333	0,5	-0,817200
19,383667	0,5	-0,821250
19,392000	0,5	-0,824500
19,400333	0,5	-0,851600
19,408667	0,5	-0,865750
19,417000	0,5	-0,862200
19,425333	0,5	-0,868000
19,433667	0,5	-0,884450
19,442000	0,5	-0,894600
19,450333	0,5	-0,890700
19,458667	0,5	-0,901050
19,467000	0,5	-0,893100
19,475333	0,5	-0,900500
19,483667	0,5	-0,905350
19,492000	0,5	-0,912250
19,500333	0,5	-0,903550
19,508667	0,5	-0,937150
19,517000	0,5	-0,929700
19,525333	0,5	-0,937000
19,533667	0,5	-0,931550
19,542000	0,5	-0,942200
19,550333	0,5	-0,967150
19,558667	0,5	-0,969900
19,567000	0,5	-0,967200
19,575333	0,5	-0,975700
19,583667	0,5	-0,985500
19,592000	0,5	-0,987000
19,600333	0,5	-0,996850
19,608667	0,5	-1,001600
19,617000	0,5	-1,008050
19,625333	0,5	-1,019800
19,633667	0,5	-1,031300
19,642000	0,5	-1,021800
19,650333	0,5	-1,034550
19,658667	0,5	-1,064550
19,667000	0,5	-1,062150
19,675333	0,5	-1,067000
19,683667	0,5	-1,087400
19,692000	0,5	-1,096600
19,700333	0,5	-1,116350
19,708667	0,5	-1,096150
19,717000	0,5	-1,100700
19,725333	0,5	-1,108650
19,733667	0,5	-1,120100
19,742000	0,5	-1,127050
19,750333	0,5	-1,133300
19,758667	0,5	-1,142300
19,767000	0,5	-1,152100
19,775333	0,5	-1,157650
19,783667	0,5	-1,174900
19,792000	0,5	-1,181800
19,800333	0,5	-1,192750
19,808667	0,5	-1,209200
19,817000	0,5	-1,205800
19,825333	0,5	-1,217600
19,833667	0,5	-1,240500
19,842000	0,5	-1,273250
19,850333	0,5	-1,286150
19,858667	0,5	-1,287500
19,867000	0,5	-1,295300
19,875333	0,5	-1,312350
19,883667	0,5	-1,320550
19,892000	0,5	-1,333300
19,900333	0,5	-1,343300
19,908667	0,5	-1,341100
19,917000	0,5	-1,357200
19,925333	0,5	-1,367800
19,933667	0,5	-1,368600
19,942000	0,5	-1,361100
19,950333	0,5	-1,381650
19,958667	0,5	-1,378200
19,967000	0,5	-1,381850
19,975333	0,5	-1,385750
19,983667	0,5	-1,415050
19,992000	0,5	-1,441400
20,000333	0,5	-1,446500
20,008667	0,5	-1,433950
20,017000	0,5	-1,440850
20,025333	0,5	-1,444800
20,033667	0,5	-1,460000
20,042000	0,5	-1,469450
20,050333	0,5	-1,487650
20,058667	0,5	-1,502350
20,067000	0,5	-1,506350
20,075333	0,5	-1,521250
20,083667	0,5	-1,510900
20,092000	0,5	-1,512600
20,100333	0,5	-1,538500
20,108667	0,5	-1,537300
20,117000	0,5	-1,550100
20,125333	0,5	-1,566750
20,133667	0,5	-1,588750
20,142000	0,5	-1,626750
20,150333	0,5	-1,624150
20,158667	0,5	-1,637250
20,167000	0,5	-1,640250
20,175333	0,5	-1,658200
20,183667	0,5	-1,658750
20,192000	0,5	-1,673100
20,200333	0,5	-1,688200
20,208667	0,5	-1,681600
20,217000	0,5	-1,699100
20,225333	0,5	-1,687950
20,233667	0,5	-1,690000
20,242000	0,5	-1,707350
20,250333	0,5	-1,717300
20,258667	0,5	-1,722650
20,267000	0,5	-1,739900
20,275333	0,5	-1,757750
20,283667	0,5	-1,803900
20,292000	0,5	-1,812900
20,300333	0,5	-1,834700
20,308667	0,5	-1,833700
20,317000	0,5	-1,854350
20,325333	0,5	-1,851050
20,333667	0,5	-1,866000
20,342000	0,5	-1,869250
20,350333	0,5	-1,875650
20,358667	0,5	-1,890800
20,367000	0,5	-1,902850
20,375333	0,5	-1,897000
20,383667	0,5	-1,904550
20,392000	0,5	-1,924800
20,400333	0,5	-1,941900
20,408667	0,5	-1,961200
20,417000	0,5	-1,984500
20,425333	0,5	-2,011100
20,433667	0,5	-2,042350
20,442000	0,5	-2,057450
20,450333	0,5	-2,062900
20,458667	0,5	-2,078800
20,467000	0,5	-2,089950
20,475333	0,5	-2,115750
20,483667	0,5	-2,128000
20,492000	0,5	-2,141450
20,500333	0,5	-2,138600
20,508667	0,5	-2,163750
20,517000	0,5	-2,161250
20,525333	0,5	-2,154150
20,533667	0,5	-2,165850
20,542000	0,5	-2,188400
20,550333	0,5	-2,202050
20,558667	0,5	-2,217100
20,567000	0,5	-2,237450
20,575333	0,5	-2,282150
20,583667	0,5	-2,298400
20,592000	0,5	-2,298550
20,600333	0,5	-2,335900
20,608667	0,5	-2,359050
20,617000	0,5	-2,390350
20,625333	0,5	-2,407700
20,633667	0,5	-2,434850
20,642000	0,5	-2,447400
20,650333	0,5	-2,471200
20,658667	0,5	-2,490200
20,667000	0,5	-2,485650
20,675333	0,5	-2,489450
20,683667	0,5	-2,514450
20,692000	0,5	-2,533550
20,700333	0,5	-2,561200
20,708667	0,5	-2,590000
20,717000	0,5	-2,631650
20,725333	0,5	-2,682350
20,733667	0,5	-2,670350
20,742000	0,5	-2,672450
20,750333	0,5	-2,677200
20,758667	0,5	-2,684300
20,767000	0,5	-2,691600
20,775333	0,5	-2,717650
20,783667	0,5	-2,732800
20,792000	0,5	-2,765850
20,800333	0,5	-2,798800
20,808667	0,5	-2,838900
20,817000	0,5	-2,837450
20,825333	0,5	-2,861200
20,833667	0,5	-2,896250
20,842000	0,5	-2,923500
20,850333	0,5	-2,956450
20,858667	0,5	-2,985300
20,867000	0,5	-3,037650
20,875333	0,5	-3,071350
20,883667	0,5	-3,097950
20,892000	0,5	-3,103150
20,900333	0,5	-3,136000
20,908667	0,5	-3,150500
20,917000	0,5	-3,173200
20,925333	0,5	-3,183350
20,933667	0,5	-3,189950
20,942000	0,5	-3,205650
20,950333	0,5	-3,224800
20,958667	0,5	-3,235850
20,967000	0,5	-3,238300
20,975333	0,5	-3,255100
20,983667	0,5	-3,293350
20,992000	0,5	-3,318050
21,000333	0,5	-3,347500
21,008667	0,5	-3,397600
21,017000	0,5	-3,435800
21,025333	0,5	-3,470900
21,033667	0,5	-3,472550
21,042000	0,5	-3,495450
21,050333	0,5	-3,511950
21,058667	0,5	-3,529000
21,067000	0,5	-3,542150
21,075333	0,5	-3,564100
21,083667	0,5	-3,570250
21,092000	0,5	-3,601450
21,100333	0,5	-3,623200
21,108667	0,5	-3,611400
21,117000	0,5	-3,603450
21,125333	0,5	-3,625200
21,133667	0,5	-3,645100
21,142000	0,5	-3,672000
21,150333	0,5	-3,700650
21,158667	0,5	-3,742000
21,167000	0,5	-3,776100
21,175333	0,5	-3,786700
21,183667	0,5	-3,810700
21,192000	0,5	-3,831050
21,200333	0,5	-3,848350
21,208667	0,5	-3,850200
21,217000	0,5	-3,871000
21,225333	0,5	-3,881800
21,233667	0,5	-3,898550
21,242000	0,5	-3,901350
21,250333	0,5	-3,895200
21,258667	0,5	-3,876550
21,267000	0,5	-3,869550
21,275333	0,5	-3,881300
21,283667	0,5	-3,898300
21,292000	0,5	-3,916600
21,300333	0,5	-3,927200
21,308667	0,5	-3,964200
21,317000	0,5	-3,957900
21,325333	0,5	-3,948450
21,333667	0,5	-3,951300
21,342000	0,5	-3,954900
21,350333	0,5	-3,947250
21,358667	0,5	-3,960350
21,367000	0,5	-3,983150
21,375333	0,5	-3,997900
21,383667	0,5	-4,018100
21,392000	0,5	-4,037800
21,400333	0,5	-4,017400
21,408667	0,5	-4,006600
21,417000	0,5	-4,014200
21,425333	0,5	-4,028850
21,433667	0,5	-4,043550
21,442000	0,5	-4,070650
21,450333	0,5	-4,101900
21,458667	0,5	-4,116650
21,467000	0,5	-4,114950
21,475333	0,5	-4,112800
21,483667	0,5	-4,122700
21,492000	0,5	-4,121950
21,500333	0,5	-4,125100
21,508667	0,5	-4,111350
21,517000	0,5	-4,098350
21,525333	0,5	-4,068450
21,533667	0,5	-4,042700
21,542000	0,5	-4,040950
21,550333	0,5	-4,019350
21,558667	0,5	-4,024100
21,567000	0,5	-4,059150
21,575333	0,5	-4,088800
21,583667	0,5	-4,114450
21,592000	0,5	-4,139950
21,600333	0,5	-4,170050
21,608667	0,5	-4,175300
21,617000	0,5	-4,166600
21,625333	0,5	-4,163250
21,633667	0,5	-4,150700
21,642000	0,5	-4,143200
21,650333	0,5	-4,135650
21,658667	0,5	-4,119200
21,667000	0,5	-4,087350
21,675333	0,5	-4,066900
21,683667	0,5	-4,045650
21,692000	0,5	-4,006850
21,700333	0,5	-3,979600
21,708667	0,5	-4,001650
21,717000	0,5	-4,019650
21,725333	0,5	-4,031400
21,733667	0,5	-4,044850
21,742000	0,5	-4,062200
21,750333	0,5	-4,086550
21,758667	0,5	-4,057850
21,767000	0,5	-4,039800
21,775333	0,5	-4,025650
21,783667	0,5	-4,016250
21,792000	0,5	-3,997850
21,800333	0,5	-3,997150
21,808667	0,5	-3,982450
21,817000	0,5	-3,966900
21,825333	0,5	-3,946700
21,833667	0,5	-3,923150
21,842000	0,5	-3,871900
21,850333	0,5	-3,835550
21,858667	0,5	-3,818500
21,867000	0,5	-3,780700
21,875333	0,5	-3,763100
21,883667	0,5	-3,767850
21,892000	0,5	-3,778650
21,900333	0,5	-3,776000
21,908667	0,5	-3,766000
21,917000	0,5	-3,750050
21,925333	0,5	-3,748000
21,933667	0,5	-3,733400
21,942000	0,5	-3,716350
21,950333	0,5	-3,700050
21,958667	0,5	-3,682000
21,967000	0,5	-3,646550
21,975333	0,5	-3,629300
21,983667	0,5	-3,607200
21,992000	0,5	-3,607150
22,000333	0,5	-3,623200
22,008667	0,5	-3,631350
22,017000	0,5	-3,639200
22,025333	0,5	-3,660550
22,033667	0,5	-3,684450
22,042000	0,5	-3,716450
22,050333	0,5	-3,730400
22,058667	0,5	-3,735050
22,067000	0,5	-3,743100
22,075333	0,5	-3,747000
22,083667	0,5	-3,756200
22,092000	0,5	-3,758050
22,100333	0,5	-3,767450
22,108667	0,5	-3,751200
22,117000	0,5	-3,760800
22,125333	0,5	-3,759850
22,133667	0,5	-3,745750
22,142000	0,5	-3,745250
22,150333	0,5	-3,735400
22,158667	0,5	-3,725500
22,167000	0,5	-3,732250
22,175333	0,5	-3,725800
22,183667	0,5	-3,739000
22,192000	0,5	-3,723050
22,200333	0,5	-3,712350
22,208667	0,5	-3,701850
22,217000	0,5	-3,679550
22,225333	0,5	-3,668050
22,233667	0,5	-3,655500
22,242000	0,5	-3,653450
22,250333	0,5	-3,621700
22,258667	0,5	-3,609300
22,267000	0,5	-3,601750
22,275333	0,5	-3,556100
22,283667	0,5	-3,537100
22,292000	0,5	-3,521300
22,300333	0,5	-3,469350
22,308667	0,5	-3,426300
22,317000	0,5	-3,401350
22,325333	0,5	-3,372450
22,333667	0,5	-3,357250
22,342000	0,5	-3,302050
22,350333	0,5	-3,260200
22,358667	0,5	-3,223050
22,367000	0,5	-3,191400
22,375333	0,5	-3,145800
22,383667	0,5	-3,079700
22,392000	0,5	-3,005950
22,400333	0,5	-2,950250
22,408667	0,5	-2,895050
22,417000	0,5	-2,881500
22,425333	0,5	-2,887850
22,433667	0,5	-2,900350
22,442000	0,5	-2,868400
22,450333	0,5	-2,844700
22,458667	0,5	-2,803250
22,467000	0,5	-2,793250
22,475333	0,5	-2,789350
22,483667	0,5	-2,747200
22,492000	0,5	-2,712150
22,500333	0,5	-2,668200
22,508667	0,5	-2,623000
22,517000	0,5	-2,589900
22,525333	0,5	-2,558250
22,533667	0,5	-2,499300
22,542000	0,5	-2,453950
22,550333	0,5	-2,401150
22,558667	0,5	-2,363050
22,567000	0,5	-2,336950
22,575333	0,5	-2,286200
22,583667	0,5	-2,221150
22,592000	0,5	-2,115800
22,600333	0,5	-2,040800
22,608667	0,5	-1,955600
22,617000	0,5	-1,884700
22,625333	0,5	-1,810050
22,633667	0,5	-1,722250
22,642000	0,5	-1,630000
22,650333	0,5	-1,559600
22,658667	0,5	-1,499500
22,667000	0,5	-1,430700
22,675333	0,5	-1,379600
22,683667	0,5	-1,326900
22,692000	0,5	-1,264100
22,700333	0,5	-1,227700
22,708667	0,5	-1,174700
22,717000	0,5	-1,184300
22,725333	0,5	-1,122900
22,733667	0,5	-1,064400
22,742000	0,5	-0,998200
22,750333	0,5	-0,967700
22,758667	0,5	-0,944750
22,767000	0,5	-0,933650
22,775333	0,5	-0,935950
22,783667	0,5	-0,888500
22,792000	0,5	-0,874900
22,800333	0,5	-0,867800
22,808667	0,5	-0,864850
22,817000	0,5	-0,857000
22,825333	0,5	-0,863600
22,833667	0,5	-0,872550
22,842000	0,5	-0,902450
22,850333	0,5	-0,933500
22,858667	0,5	-1,007800
22,867000	0,5	-1,081300
22,875333	0,5	-1,135350
22,883667	0,5	-1,166350
22,892000	0,5	-1,228250
22,900333	0,5	-1,306250
22,908667	0,5	-1,381450
22,917000	0,5	-1,471500
22,925333	0,5	-1,557200
22,933667	0,5	-1,648900
22,942000	0,5	-1,741900
22,950333	0,5	-1,828550
22,958667	0,5	-1,932400
22,967000	0,5	-2,020150
22,975333	0,5	-2,119650
22,983667	0,5	-2,212700
22,992000	0,5	-2,329300
23,000333	0,5	-2,388100
23,008667	0,5	-2,466550
23,017000	0,5	-2,556550
23,025333	0,5	-2,620300
23,033667	0,5	-2,722900
23,042000	0,5	-2,799450
23,050333	0,5	-2,875350
23,058667	0,5	-2,925300
23,067000	0,5	-2,996150
23,075333	0,5	-3,052700
23,083667	0,5	-3,139300
23,092000	0,5	-3,184200
23,100333	0,5	-3,243450
23,108667	0,5	-3,284650
23,117000	0,5	-3,321150
23,125333	0,5	-3,343950
23,133667	0,5	-3,370300
23,142000	0,5	-3,374950
23,150333	0,5	-3,363900
23,158667	0,5	-3,354450
23,167000	0,5	-3,355350
23,175333	0,5	-3,384250
23,183667	0,5	-3,399300
23,192000	0,5	-3,386650
23,200333	0,5	-3,370650
23,208667	0,5	-3,339500
23,217000	0,5	-3,332550
23,225333	0,5	-3,321950
23,233667	0,5	-3,302350
23,242000	0,5	-3,285500
23,250333	0,5	-3,258150
23,258667	0,5	-3,235100
23,267000	0,5	-3,201150
23,275333	0,5	-3,167550
23,283667	0,5	-3,128100
23,292000	0,5	-3,093050
23,300333	0,5	-3,011700
23,308667	0,5	-2,961750
23,317000	0,5	-2,910000
23,325333	0,5	-2,897550
23,333667	0,5	-2,870250
23,342000	0,5	-2,818800
23,350333	0,5	-2,763050
23,358667	0,5	-2,711650
23,367000	0,5	-2,685300
23,375333	0,5	-2,636650
23,383667	0,5	-2,596950
23,392000	0,5	-2,562900
23,400333	0,5	-2,525450
23,408667	0,5	-2,480500
23,417000	0,5	-2,447300
23,425333	0,5	-2,402350
23,433667	0,5	-2,356000
23,442000	0,5	-2,299950
23,450333	0,5	-2,300050
23,458667	0,5	-2,236850
23,467000	0,5	-2,144150
23,475333	0,5	-2,118750
23,483667	0,5	-2,086500
23,492000	0,5	-2,042200
23,500333	0,5	-1,998550
23,508667	0,5	-1,955050
23,517000	0,5	-1,928300
23,525333	0,5	-1,898850
23,533667	0,5	-1,869550
23,542000	0,5	-1,834350
23,550333	0,5	-1,812350
23,558667	0,5	-1,783350
23,567000	0,5	-1,751500
23,575333	0,5	-1,730100
23,583667	0,5	-1,702100
23,592000	0,5	-1,692400
23,600333	0,5	-1,749800
23,608667	0,5	-1,677450
23,617000	0,5	-1,613250
23,625333	0,5	-1,587750
23,633667	0,5	-1,567750
23,642000	0,5	-1,536050
23,650333	0,5	-1,505550
23,658667	0,5	-1,488200
23,667000	0,5	-1,473350
23,675333	0,5	-1,455150
23,683667	0,5	-1,432200
23,692000	0,5	-1,413050
23,700333	0,5	-1,399600
23,708667	0,5	-1,380650
23,717000	0,5	-1,362550
23,725333	0,5	-1,338950
23,733667	0,5	-1,320300
23,742000	0,5	-1,452350
23,750333	0,5	-1,413650
23,758667	0,5	-1,367800
23,767000	0,5	-1,301050
23,775333	0,5	-1,271600
23,783667	0,5	-1,251300
23,792000	0,5	-1,231700
23,800333	0,5	-1,225750
23,808667	0,5	-1,211200
23,817000	0,5	-1,191000
23,825333	0,5	-1,178200
23,833667	0,5	-1,166000
23,842000	0,5	-1,147150
23,850333	0,5	-1,132600
23,858667	0,5	-1,115400
23,867000	0,5	-1,096950
23,875333	0,5	-1,083350
23,883667	0,5	-1,091000
23,892000	0,5	-1,241750
23,900333	0,5	-1,194500
23,908667	0,5	-1,126600
23,917000	0,5	-1,060650
23,925333	0,5	-1,029750
23,933667	0,5	-1,000000
23,942000	0,5	-0,985450
23,950333	0,5	-0,979500
23,958667	0,5	-0,955950
23,967000	0,5	-0,939150
23,975333	0,5	-0,921300
23,983667	0,5	-0,909600
23,992000	0,5	-0,892100
24,000333	0,5	-0,880150
24,008667	0,5	-0,857700
24,017000	0,5	-0,838700
24,025333	0,5	-0,820950
24,033667	0,5	-0,905900
24,042000	0,5	-0,969050
24,050333	0,5	-0,945350
24,058667	0,5	-0,865550
24,067000	0,5	-0,814900
24,075333	0,5	-0,780150
24,083667	0,5	-0,761750
24,092000	0,5	-0,755900
24,100333	0,5	-0,736600
24,108667	0,5	-0,711350
24,117000	0,5	-0,684550
24,125333	0,5	-0,670900
24,133667	0,5	-0,646600
24,142000	0,5	-0,629450
24,150333	0,5	-0,606550
24,158667	0,5	-0,587450
24,167000	0,5	-0,565700
24,175333	0,5	-0,556450
24,183667	0,5	-0,703850
24,192000	0,5	-0,680150
24,200333	0,5	-0,642700
24,208667	0,5	-0,588550
24,217000	0,5	-0,546600
24,225333	0,5	-0,524850
24,233667	0,5	-0,509650
24,242000	0,5	-0,513200
24,250333	0,5	-0,485300
24,258667	0,5	-0,461150
24,267000	0,5	-0,444800
24,275333	0,5	-0,430000
24,283667	0,5	-0,425650
24,292000	0,5	-0,404350
24,300333	0,5	-0,393800
24,308667	0,5	-0,369250
24,317000	0,5	-0,352450
24,325333	0,5	-0,362400
24,333667	0,5	-0,461600
24,342000	0,5	-0,432650
24,350333	0,5	-0,394550
24,358667	0,5	-0,342400
24,367000	0,5	-0,314350
24,375333	0,5	-0,294200
24,383667	0,5	-0,298400
24,392000	0,5	-0,291650
24,400333	0,5	-0,264850
24,408667	0,5	-0,252150
24,417000	0,5	-0,249300
24,425333	0,5	-0,235900
24,433667	0,5	-0,220050
24,442000	0,5	-0,211050
24,450333	0,5	-0,198150
24,458667	0,5	-0,184950
24,467000	0,5	-0,170550
24,475333	0,5	-0,249400
24,483667	0,5	-0,261650
24,492000	0,5	-0,255900
24,500333	0,5	-0,207300
24,508667	0,5	-0,183100
24,517000	0,5	-0,155650
24,525333	0,5	-0,151700
24,533667	0,5	-0,154500
24,542000	0,5	-0,139800
24,550333	0,5	-0,121650
24,558667	0,5	-0,107850
24,567000	0,5	-0,102750
24,575333	0,5	-0,093450
24,583667	0,5	-0,083950
24,592000	0,5	-0,078250
24,600333	0,5	-0,071250
24,608667	0,5	-0,055950
24,617000	0,5	-0,055350
24,625333	0,5	-0,126100
24,633667	0,5	-0,108400
24,642000	0,5	-0,092450
24,650333	0,5	-0,067900
24,658667	0,5	-0,054500
24,667000	0,5	-0,042350
24,675333	0,5	-0,040200
24,683667	0,5	-0,049900
24,692000	0,5	-0,041850
24,700333	0,5	-0,036850
24,708667	0,5	-0,027800
24,717000	0,5	-0,022050
24,725333	0,5	-0,011650
24,733667	0,5	-0,008750
24,742000	0,5	-0,000450
24,750333	0,5	0,010050
24,758667	0,5	0,015800
24,767000	0,5	0,013350
24,775333	0,5	-0,033100
24,783667	0,5	-0,018850
24,792000	0,5	-0,009200
24,800333	0,5	0,017250
24,808667	0,5	0,025300
24,817000	0,5	0,033250
24,825333	0,5	0,032400
24,833667	0,5	0,034300
24,842000	0,5	0,030200
24,850333	0,5	0,039850
24,858667	0,5	0,041950
24,867000	0,5	0,045350
24,875333	0,5	0,042150
24,883667	0,5	0,050200
24,892000	0,5	0,045250
24,900333	0,5	0,052700
24,908667	0,5	0,051700
24,917000	0,5	0,028400
24,925333	0,5	0,029400
24,933667	0,5	0,034800
24,942000	0,5	0,050900
24,950333	0,5	0,057750
24,958667	0,5	0,060200
24,967000	0,5	0,070100
24,975333	0,5	0,068550
24,983667	0,5	0,067550
24,992000	0,5	0,076250
25,000333	0,5	0,076550
25,008667	0,5	0,076550
25,017000	0,5	0,083300
25,025333	0,5	0,082450
25,033667	0,5	0,081100
25,042000	0,5	0,082700
25,050333	0,5	0,082150
25,058667	0,5	0,082150
25,067000	0,5	0,062100
25,075333	0,5	0,065050
25,083667	0,5	0,064700
25,092000	0,5	0,067400
25,100333	0,5	0,075250
25,108667	0,5	0,078600
25,117000	0,5	0,079100
25,125333	0,5	0,074100
25,133667	0,5	0,075700
25,142000	0,5	0,079750
25,150333	0,5	0,083050
25,158667	0,5	0,080900
25,167000	0,5	0,085100
25,175333	0,5	0,087650
25,183667	0,5	0,092200
25,192000	0,5	0,089600
25,200333	0,5	0,090350
25,208667	0,5	0,086500
25,217000	0,5	0,086100
25,225333	0,5	0,082650
25,233667	0,5	0,084550
25,242000	0,5	0,087150
25,250333	0,5	0,082600
25,258667	0,5	0,080150
25,267000	0,5	0,076850
25,275333	0,5	0,078200
25,283667	0,5	0,079200
25,292000	0,5	0,074600
25,300333	0,5	0,073100
25,308667	0,5	0,071150
25,317000	0,5	0,077500
25,325333	0,5	0,078200
25,333667	0,5	0,079050
25,342000	0,5	0,077700
25,350333	0,5	0,077350
25,358667	0,5	0,079050
25,367000	0,5	0,081700
25,375333	0,5	0,083750
25,383667	0,5	0,086700
25,392000	0,5	0,081550
25,400333	0,5	0,077700
25,408667	0,5	0,079600
25,417000	0,5	0,078800
25,425333	0,5	0,074400
25,433667	0,5	0,069750
25,442000	0,5	0,069900
25,450333	0,5	0,068300
25,458667	0,5	0,063800
25,467000	0,5	0,060300
25,475333	0,5	0,060100
25,483667	0,5	0,064500
25,492000	0,5	0,059950
25,500333	0,5	0,063100
25,508667	0,5	0,067250
25,517000	0,5	0,061600
25,525333	0,5	0,068750
25,533667	0,5	0,061350
25,542000	0,5	0,061450
25,550333	0,5	0,062350
25,558667	0,5	0,062600
25,567000	0,5	0,060250
25,575333	0,5	0,062700
25,583667	0,5	0,059350
25,592000	0,5	0,054100
25,600333	0,5	0,050400
25,608667	0,5	0,049750
25,617000	0,5	0,047850
25,625333	0,5	0,044750
25,633667	0,5	0,044700
25,642000	0,5	0,045800
25,650333	0,5	0,045950
25,658667	0,5	0,052400
25,667000	0,5	0,051900
25,675333	0,5	0,050800
25,683667	0,5	0,040650
25,692000	0,5	0,038100
25,700333	0,5	0,040900
25,708667	0,5	0,041100
25,717000	0,5	0,045600
25,725333	0,5	0,042400
25,733667	0,5	0,042150
25,742000	0,5	0,040850
25,750333	0,5	0,039950
25,758667	0,5	0,039200
25,767000	0,5	0,038350
25,775333	0,5	0,042200
25,783667	0,5	0,038950
25,792000	0,5	0,042000
25,800333	0,5	0,046350
25,808667	0,5	0,050400
25,817000	0,5	0,051650
25,825333	0,5	0,043250
25,833667	0,5	0,036000
25,842000	0,5	0,038750
25,850333	0,5	0,029900
25,858667	0,5	0,043050
25,867000	0,5	0,043450
25,875333	0,5	0,042800
25,883667	0,5	0,041250
25,892000	0,5	0,039900
25,900333	0,5	0,041550
25,908667	0,5	0,044000
25,917000	0,5	0,041250
25,925333	0,5	0,043250
25,933667	0,5	0,042200
25,942000	0,5	0,046100
25,950333	0,5	0,052200
25,958667	0,5	0,056500
25,967000	0,5	0,057500
25,975333	0,5	0,049200
25,983667	0,5	0,047000
25,992000	0,5	0,046100
26,000333	0,5	0,051750
