File Path	chrom://chromeleon01/ikbm_chromeleon/2022/ICS-5000/ED1/Esteban/20220427_Cell_Amandas_mutants.seq/624.smp/ED_1.channel/ED_1.chm
Channel	ED_1

Injection Information:
Data Vault	ikbm_chromeleon
Injection	T24h_BMCC_2b
Injection Number	43
Position	RE3
Comment	
Processing Method	Stop sequence after Cell Death
Instrument Method	ICS5000_PA200_FullNative_Ox_26min_ED1
Type	Unknown
Status	Finished
Injection Date	28.04.2022
Injection Time	08:59:30
Injection Volume (µl)	5,0
Dilution Factor	1,0000
Weight	1,0000

Chromatogram Data Information:
Time Min. (min)	0,000333
Time Max. (min)	26,000333
Data Points	3121
Detector	EDet1
Generating Data System	Chromeleon 7.2.9.11323
Exporting Data System	Chromeleon 7.2.9.0
Operator	Instrument Controller
Signal Quantity	
Signal Unit	nC
Signal Min.	-7,959200
Signal Max.	42,787001
Channel	ED_1
Driver Name	DC-5000
Channel Type	Evaluation
Min. Step (s)	0,5
Max. Step (s)	0,5
Average Step (s)	0,5

Signal Parameter Information:
Signal Info	

Chromatogram Data:
Time (min)	Step (s)	Value (nC)
0,000333	n.a.	-0,080950
0,008667	0,5	-0,083700
0,017000	0,5	-0,073850
0,025333	0,5	-0,050350
0,033667	0,5	-0,064300
0,042000	0,5	-0,061700
0,050333	0,5	-0,053400
0,058667	0,5	0,000900
0,067000	0,5	0,031050
0,075333	0,5	0,038750
0,083667	0,5	0,014150
0,092000	0,5	0,025700
0,100333	0,5	0,010550
0,108667	0,5	0,010200
0,117000	0,5	0,001750
0,125333	0,5	0,012200
0,133667	0,5	-0,001650
0,142000	0,5	0,010450
0,150333	0,5	0,009450
0,158667	0,5	0,015800
0,167000	0,5	0,029650
0,175333	0,5	0,018100
0,183667	0,5	-0,008400
0,192000	0,5	-0,008150
0,200333	0,5	-0,006300
0,208667	0,5	0,024900
0,217000	0,5	0,047200
0,225333	0,5	0,028500
0,233667	0,5	0,023600
0,242000	0,5	0,019300
0,250333	0,5	0,017400
0,258667	0,5	0,014200
0,267000	0,5	0,021950
0,275333	0,5	-0,003550
0,283667	0,5	0,003950
0,292000	0,5	0,011950
0,300333	0,5	0,069750
0,308667	0,5	0,055200
0,317000	0,5	0,029400
0,325333	0,5	-0,019550
0,333667	0,5	-0,031150
0,342000	0,5	-0,037950
0,350333	0,5	-0,030700
0,358667	0,5	0,011250
0,367000	0,5	0,004200
0,375333	0,5	-0,004700
0,383667	0,5	-0,006250
0,392000	0,5	-0,007050
0,400333	0,5	-0,016300
0,408667	0,5	-0,014400
0,417000	0,5	-0,017500
0,425333	0,5	-0,023300
0,433667	0,5	-0,025750
0,442000	0,5	-0,010850
0,450333	0,5	-0,023400
0,458667	0,5	-0,011950
0,467000	0,5	0,002050
0,475333	0,5	-0,021750
0,483667	0,5	-0,048650
0,492000	0,5	-0,041300
0,500333	0,5	-0,030700
0,508667	0,5	0,010000
0,517000	0,5	-0,013650
0,525333	0,5	-0,007900
0,533667	0,5	-0,012400
0,542000	0,5	-0,012500
0,550333	0,5	-0,024350
0,558667	0,5	-0,013900
0,567000	0,5	-0,017550
0,575333	0,5	-0,025500
0,583667	0,5	-0,016850
0,592000	0,5	-0,024250
0,600333	0,5	-0,035700
0,608667	0,5	-0,026750
0,617000	0,5	-0,011500
0,625333	0,5	-0,036450
0,633667	0,5	-0,038800
0,642000	0,5	-0,032700
0,650333	0,5	0,003000
0,658667	0,5	0,024100
0,667000	0,5	-0,000250
0,675333	0,5	-0,011150
0,683667	0,5	-0,005900
0,692000	0,5	-0,010950
0,700333	0,5	-0,009150
0,708667	0,5	-0,011650
0,717000	0,5	-0,010600
0,725333	0,5	-0,015050
0,733667	0,5	-0,011600
0,742000	0,5	-0,001650
0,750333	0,5	-0,026200
0,758667	0,5	0,008650
0,767000	0,5	-0,011150
0,775333	0,5	-0,020050
0,783667	0,5	-0,028050
0,792000	0,5	-0,007050
0,800333	0,5	0,025500
0,808667	0,5	0,044650
0,817000	0,5	0,025150
0,825333	0,5	0,028050
0,833667	0,5	0,023950
0,842000	0,5	0,024050
0,850333	0,5	0,019300
0,858667	0,5	0,037500
0,867000	0,5	0,026650
0,875333	0,5	0,032150
0,883667	0,5	0,030100
0,892000	0,5	0,016700
0,900333	0,5	0,011050
0,908667	0,5	0,043050
0,917000	0,5	0,024500
0,925333	0,5	0,025200
0,933667	0,5	0,018150
0,942000	0,5	0,042950
0,950333	0,5	0,090000
0,958667	0,5	0,091000
0,967000	0,5	0,086950
0,975333	0,5	0,073500
0,983667	0,5	0,082800
0,992000	0,5	0,065700
1,000333	0,5	0,080150
1,008667	0,5	0,070200
1,017000	0,5	0,073050
1,025333	0,5	0,072250
1,033667	0,5	0,075500
1,042000	0,5	0,071250
1,050333	0,5	0,082000
1,058667	0,5	0,095400
1,067000	0,5	0,068950
1,075333	0,5	0,070100
1,083667	0,5	0,071300
1,092000	0,5	0,102600
1,100333	0,5	0,138050
1,108667	0,5	0,152300
1,117000	0,5	0,133150
1,125333	0,5	0,134850
1,133667	0,5	0,125400
1,142000	0,5	0,124850
1,150333	0,5	0,128800
1,158667	0,5	0,136250
1,167000	0,5	0,123500
1,175333	0,5	0,132250
1,183667	0,5	0,128650
1,192000	0,5	0,137550
1,200333	0,5	0,151350
1,208667	0,5	0,146050
1,217000	0,5	0,131050
1,225333	0,5	0,135400
1,233667	0,5	0,144850
1,242000	0,5	0,188400
1,250333	0,5	0,212800
1,258667	0,5	0,203650
1,267000	0,5	0,203450
1,275333	0,5	0,201250
1,283667	0,5	0,197800
1,292000	0,5	0,203400
1,300333	0,5	0,208000
1,308667	0,5	0,204650
1,317000	0,5	0,209750
1,325333	0,5	0,215450
1,333667	0,5	0,208350
1,342000	0,5	0,204900
1,350333	0,5	0,250300
1,358667	0,5	0,234600
1,367000	0,5	0,235000
1,375333	0,5	0,234950
1,383667	0,5	0,263750
1,392000	0,5	0,298250
1,400333	0,5	0,303600
1,408667	0,5	0,301150
1,417000	0,5	0,313100
1,425333	0,5	0,310350
1,433667	0,5	0,316300
1,442000	0,5	0,323750
1,450333	0,5	0,331200
1,458667	0,5	0,336900
1,467000	0,5	0,343550
1,475333	0,5	0,358800
1,483667	0,5	0,338000
1,492000	0,5	0,353800
1,500333	0,5	0,371650
1,508667	0,5	0,363700
1,517000	0,5	0,355350
1,525333	0,5	0,373150
1,533667	0,5	0,402250
1,542000	0,5	0,446600
1,550333	0,5	0,446250
1,558667	0,5	0,460000
1,567000	0,5	0,414350
1,575333	0,5	0,221300
1,583667	0,5	-0,448300
1,592000	0,5	-1,275300
1,600333	0,5	-0,973000
1,608667	0,5	0,835250
1,617000	0,5	3,063350
1,625333	0,5	5,510650
1,633667	0,5	8,498750
1,642000	0,5	11,357500
1,650333	0,5	12,880000
1,658667	0,5	12,907050
1,667000	0,5	12,137700
1,675333	0,5	11,123600
1,683667	0,5	10,100900
1,692000	0,5	9,098550
1,700333	0,5	8,208650
1,708667	0,5	7,459250
1,717000	0,5	6,895600
1,725333	0,5	6,429500
1,733667	0,5	5,992650
1,742000	0,5	5,497400
1,750333	0,5	5,016700
1,758667	0,5	4,624150
1,767000	0,5	4,432950
1,775333	0,5	4,627750
1,783667	0,5	5,574600
1,792000	0,5	7,668100
1,800333	0,5	10,264250
1,808667	0,5	12,150100
1,817000	0,5	12,803800
1,825333	0,5	12,401650
1,833667	0,5	11,269300
1,842000	0,5	9,923150
1,850333	0,5	8,744600
1,858667	0,5	7,842700
1,867000	0,5	7,129550
1,875333	0,5	6,572600
1,883667	0,5	6,119250
1,892000	0,5	5,742950
1,900333	0,5	5,394550
1,908667	0,5	5,113050
1,917000	0,5	4,869150
1,925333	0,5	4,646150
1,933667	0,5	4,456800
1,942000	0,5	4,344800
1,950333	0,5	4,221500
1,958667	0,5	4,147950
1,967000	0,5	4,086000
1,975333	0,5	4,074500
1,983667	0,5	4,109300
1,992000	0,5	4,100750
2,000333	0,5	4,099950
2,008667	0,5	4,118750
2,017000	0,5	4,196850
2,025333	0,5	4,363650
2,033667	0,5	4,771500
2,042000	0,5	5,405800
2,050333	0,5	6,093000
2,058667	0,5	6,705750
2,067000	0,5	7,462100
2,075333	0,5	8,406400
2,083667	0,5	9,321800
2,092000	0,5	9,945150
2,100333	0,5	10,262500
2,108667	0,5	10,404400
2,117000	0,5	10,460650
2,125333	0,5	10,572700
2,133667	0,5	10,817600
2,142000	0,5	11,191050
2,150333	0,5	11,776500
2,158667	0,5	12,537500
2,167000	0,5	13,012450
2,175333	0,5	12,744900
2,183667	0,5	11,927850
2,192000	0,5	11,111050
2,200333	0,5	10,516900
2,208667	0,5	10,143350
2,217000	0,5	9,872100
2,225333	0,5	9,705950
2,233667	0,5	9,629200
2,242000	0,5	9,601850
2,250333	0,5	9,573500
2,258667	0,5	9,549700
2,267000	0,5	9,524150
2,275333	0,5	9,525950
2,283667	0,5	9,528900
2,292000	0,5	9,522800
2,300333	0,5	9,520150
2,308667	0,5	9,539200
2,317000	0,5	9,558650
2,325333	0,5	9,604350
2,333667	0,5	9,647200
2,342000	0,5	9,707500
2,350333	0,5	9,773150
2,358667	0,5	9,826100
2,367000	0,5	9,894850
2,375333	0,5	9,957700
2,383667	0,5	10,047250
2,392000	0,5	10,111950
2,400333	0,5	10,201800
2,408667	0,5	10,263400
2,417000	0,5	10,206200
2,425333	0,5	10,058900
2,433667	0,5	9,964650
2,442000	0,5	9,964350
2,450333	0,5	10,034650
2,458667	0,5	10,092100
2,467000	0,5	10,174000
2,475333	0,5	10,244250
2,483667	0,5	10,312700
2,492000	0,5	10,373850
2,500333	0,5	10,440300
2,508667	0,5	10,512850
2,517000	0,5	10,573700
2,525333	0,5	10,672950
2,533667	0,5	10,802350
2,542000	0,5	10,971350
2,550333	0,5	11,239350
2,558667	0,5	11,689100
2,567000	0,5	12,361100
2,575333	0,5	13,244200
2,583667	0,5	14,221600
2,592000	0,5	15,177350
2,600333	0,5	15,918800
2,608667	0,5	16,416050
2,617000	0,5	16,676350
2,625333	0,5	16,865750
2,633667	0,5	17,035800
2,642000	0,5	17,223000
2,650333	0,5	17,393850
2,658667	0,5	17,457900
2,667000	0,5	17,431200
2,675333	0,5	17,462550
2,683667	0,5	17,684750
2,692000	0,5	18,424500
2,700333	0,5	19,956150
2,708667	0,5	22,400950
2,717000	0,5	25,571050
2,725333	0,5	28,977550
2,733667	0,5	32,186750
2,742000	0,5	34,857351
2,750333	0,5	36,750551
2,758667	0,5	37,637101
2,767000	0,5	37,532151
2,775333	0,5	36,619151
2,783667	0,5	35,219301
2,792000	0,5	33,575351
2,800333	0,5	31,859050
2,808667	0,5	30,255500
2,817000	0,5	29,182650
2,825333	0,5	29,311250
2,833667	0,5	31,178750
2,842000	0,5	34,793801
2,850333	0,5	39,055801
2,858667	0,5	42,179301
2,867000	0,5	42,787001
2,875333	0,5	40,656701
2,883667	0,5	36,748101
2,892000	0,5	32,388000
2,900333	0,5	28,477150
2,908667	0,5	25,319750
2,917000	0,5	22,784500
2,925333	0,5	20,632300
2,933667	0,5	18,662700
2,942000	0,5	16,860150
2,950333	0,5	15,201100
2,958667	0,5	13,723750
2,967000	0,5	12,451150
2,975333	0,5	11,410400
2,983667	0,5	10,497100
2,992000	0,5	9,744600
3,000333	0,5	9,107350
3,008667	0,5	8,584850
3,017000	0,5	8,142500
3,025333	0,5	7,718500
3,033667	0,5	7,348350
3,042000	0,5	7,022450
3,050333	0,5	6,724600
3,058667	0,5	6,452400
3,067000	0,5	6,202850
3,075333	0,5	5,957750
3,083667	0,5	5,735750
3,092000	0,5	5,515100
3,100333	0,5	5,316550
3,108667	0,5	5,115000
3,117000	0,5	4,944950
3,125333	0,5	4,800900
3,133667	0,5	4,670800
3,142000	0,5	4,580850
3,150333	0,5	4,542450
3,158667	0,5	4,553600
3,167000	0,5	4,619350
3,175333	0,5	4,715400
3,183667	0,5	4,919850
3,192000	0,5	5,285600
3,200333	0,5	5,939650
3,208667	0,5	7,036450
3,217000	0,5	8,711500
3,225333	0,5	10,943550
3,233667	0,5	13,481500
3,242000	0,5	15,852500
3,250333	0,5	17,528150
3,258667	0,5	18,231650
3,267000	0,5	17,910650
3,275333	0,5	16,735250
3,283667	0,5	14,996650
3,292000	0,5	13,049350
3,300333	0,5	11,133850
3,308667	0,5	9,421200
3,317000	0,5	7,957000
3,325333	0,5	6,761900
3,333667	0,5	5,807000
3,342000	0,5	5,074800
3,350333	0,5	4,488950
3,358667	0,5	4,036450
3,367000	0,5	3,668000
3,375333	0,5	3,362050
3,383667	0,5	3,119300
3,392000	0,5	2,924100
3,400333	0,5	2,742650
3,408667	0,5	2,606700
3,417000	0,5	2,504000
3,425333	0,5	2,398800
3,433667	0,5	2,323200
3,442000	0,5	2,260900
3,450333	0,5	2,225850
3,458667	0,5	2,158150
3,467000	0,5	2,083000
3,475333	0,5	1,984750
3,483667	0,5	1,900800
3,492000	0,5	1,803950
3,500333	0,5	1,729650
3,508667	0,5	1,652200
3,517000	0,5	1,581650
3,525333	0,5	1,511550
3,533667	0,5	1,458650
3,542000	0,5	1,413600
3,550333	0,5	1,361350
3,558667	0,5	1,336500
3,567000	0,5	1,296150
3,575333	0,5	1,246750
3,583667	0,5	1,199250
3,592000	0,5	1,175900
3,600333	0,5	1,168800
3,608667	0,5	1,145150
3,617000	0,5	1,099350
3,625333	0,5	1,070650
3,633667	0,5	1,039100
3,642000	0,5	1,008950
3,650333	0,5	0,981200
3,658667	0,5	0,958500
3,667000	0,5	0,919400
3,675333	0,5	0,900450
3,683667	0,5	0,875300
3,692000	0,5	0,848350
3,700333	0,5	0,808700
3,708667	0,5	0,811100
3,717000	0,5	0,773450
3,725333	0,5	0,750100
3,733667	0,5	0,730950
3,742000	0,5	0,728250
3,750333	0,5	0,746550
3,758667	0,5	0,728000
3,767000	0,5	0,712000
3,775333	0,5	0,703600
3,783667	0,5	0,702300
3,792000	0,5	0,691200
3,800333	0,5	0,689100
3,808667	0,5	0,672300
3,817000	0,5	0,660200
3,825333	0,5	0,642950
3,833667	0,5	0,635100
3,842000	0,5	0,619200
3,850333	0,5	0,604250
3,858667	0,5	0,607000
3,867000	0,5	0,572100
3,875333	0,5	0,553900
3,883667	0,5	0,549250
3,892000	0,5	0,537000
3,900333	0,5	0,558050
3,908667	0,5	0,533850
3,917000	0,5	0,524100
3,925333	0,5	0,513750
3,933667	0,5	0,501700
3,942000	0,5	0,488150
3,950333	0,5	0,482600
3,958667	0,5	0,475900
3,967000	0,5	0,467400
3,975333	0,5	0,461200
3,983667	0,5	0,457850
3,992000	0,5	0,457700
4,000333	0,5	0,443650
4,008667	0,5	0,446450
4,017000	0,5	0,421400
4,025333	0,5	0,412700
4,033667	0,5	0,402600
4,042000	0,5	0,420200
4,050333	0,5	0,445150
4,058667	0,5	0,431650
4,067000	0,5	0,412500
4,075333	0,5	0,407950
4,083667	0,5	0,401250
4,092000	0,5	0,392000
4,100333	0,5	0,387500
4,108667	0,5	0,375050
4,117000	0,5	0,372150
4,125333	0,5	0,362200
4,133667	0,5	0,368050
4,142000	0,5	0,349900
4,150333	0,5	0,368950
4,158667	0,5	0,357450
4,167000	0,5	0,341400
4,175333	0,5	0,332800
4,183667	0,5	0,339200
4,192000	0,5	0,349250
4,200333	0,5	0,365600
4,208667	0,5	0,356350
4,217000	0,5	0,351150
4,225333	0,5	0,341150
4,233667	0,5	0,336700
4,242000	0,5	0,331400
4,250333	0,5	0,336400
4,258667	0,5	0,331550
4,267000	0,5	0,324250
4,275333	0,5	0,327400
4,283667	0,5	0,313750
4,292000	0,5	0,313200
4,300333	0,5	0,325550
4,308667	0,5	0,313650
4,317000	0,5	0,302600
4,325333	0,5	0,315000
4,333667	0,5	0,324950
4,342000	0,5	0,351450
4,350333	0,5	0,357400
4,358667	0,5	0,360750
4,367000	0,5	0,352950
4,375333	0,5	0,355150
4,383667	0,5	0,346200
4,392000	0,5	0,355450
4,400333	0,5	0,358450
4,408667	0,5	0,367600
4,417000	0,5	0,379800
4,425333	0,5	0,393600
4,433667	0,5	0,404300
4,442000	0,5	0,430000
4,450333	0,5	0,443950
4,458667	0,5	0,450900
4,467000	0,5	0,445350
4,475333	0,5	0,445300
4,483667	0,5	0,467250
4,492000	0,5	0,476700
4,500333	0,5	0,480300
4,508667	0,5	0,468350
4,517000	0,5	0,472350
4,525333	0,5	0,470700
4,533667	0,5	0,473250
4,542000	0,5	0,471000
4,550333	0,5	0,464950
4,558667	0,5	0,456850
4,567000	0,5	0,454600
4,575333	0,5	0,450400
4,583667	0,5	0,444550
4,592000	0,5	0,454950
4,600333	0,5	0,430800
4,608667	0,5	0,411000
4,617000	0,5	0,398800
4,625333	0,5	0,394000
4,633667	0,5	0,419750
4,642000	0,5	0,423450
4,650333	0,5	0,408000
4,658667	0,5	0,411750
4,667000	0,5	0,407600
4,675333	0,5	0,400000
4,683667	0,5	0,393500
4,692000	0,5	0,399700
4,700333	0,5	0,398150
4,708667	0,5	0,400650
4,717000	0,5	0,397250
4,725333	0,5	0,408750
4,733667	0,5	0,399250
4,742000	0,5	0,435750
4,750333	0,5	0,421550
4,758667	0,5	0,428050
4,767000	0,5	0,431150
4,775333	0,5	0,449600
4,783667	0,5	0,483150
4,792000	0,5	0,470250
4,800333	0,5	0,465900
4,808667	0,5	0,468300
4,817000	0,5	0,466850
4,825333	0,5	0,466900
4,833667	0,5	0,467600
4,842000	0,5	0,469350
4,850333	0,5	0,465350
4,858667	0,5	0,468350
4,867000	0,5	0,477700
4,875333	0,5	0,465500
4,883667	0,5	0,472250
4,892000	0,5	0,483250
4,900333	0,5	0,473800
4,908667	0,5	0,471800
4,917000	0,5	0,479200
4,925333	0,5	0,492050
4,933667	0,5	0,525150
4,942000	0,5	0,512300
4,950333	0,5	0,518550
4,958667	0,5	0,526900
4,967000	0,5	0,531050
4,975333	0,5	0,528400
4,983667	0,5	0,533550
4,992000	0,5	0,534900
5,000333	0,5	0,538900
5,008667	0,5	0,549550
5,017000	0,5	0,561100
5,025333	0,5	0,559750
5,033667	0,5	0,563550
5,042000	0,5	0,574450
5,050333	0,5	0,563900
5,058667	0,5	0,567600
5,067000	0,5	0,577900
5,075333	0,5	0,597800
5,083667	0,5	0,616250
5,092000	0,5	0,616800
5,100333	0,5	0,613650
5,108667	0,5	0,620750
5,117000	0,5	0,616850
5,125333	0,5	0,622950
5,133667	0,5	0,623450
5,142000	0,5	0,625850
5,150333	0,5	0,628600
5,158667	0,5	0,634900
5,167000	0,5	0,652050
5,175333	0,5	0,641250
5,183667	0,5	0,663350
5,192000	0,5	0,661750
5,200333	0,5	0,667850
5,208667	0,5	0,683500
5,217000	0,5	0,709600
5,225333	0,5	0,747350
5,233667	0,5	0,778650
5,242000	0,5	0,780350
5,250333	0,5	0,798800
5,258667	0,5	0,804450
5,267000	0,5	0,814400
5,275333	0,5	0,811700
5,283667	0,5	0,813300
5,292000	0,5	0,801350
5,300333	0,5	0,795600
5,308667	0,5	0,786450
5,317000	0,5	0,766700
5,325333	0,5	0,755400
5,333667	0,5	0,765450
5,342000	0,5	0,745800
5,350333	0,5	0,738300
5,358667	0,5	0,738300
5,367000	0,5	0,759700
5,375333	0,5	0,782350
5,383667	0,5	0,783400
5,392000	0,5	0,779950
5,400333	0,5	0,779550
5,408667	0,5	0,780900
5,417000	0,5	0,778700
5,425333	0,5	0,782150
5,433667	0,5	0,778600
5,442000	0,5	0,788700
5,450333	0,5	0,790000
5,458667	0,5	0,791300
5,467000	0,5	0,788900
5,475333	0,5	0,808050
5,483667	0,5	0,809100
5,492000	0,5	0,811250
5,500333	0,5	0,812400
5,508667	0,5	0,819200
5,517000	0,5	0,842100
5,525333	0,5	0,865450
5,533667	0,5	0,865950
5,542000	0,5	0,864850
5,550333	0,5	0,871800
5,558667	0,5	0,869100
5,567000	0,5	0,884250
5,575333	0,5	0,888100
5,583667	0,5	0,890300
5,592000	0,5	0,891050
5,600333	0,5	0,901700
5,608667	0,5	0,904050
5,617000	0,5	0,909950
5,625333	0,5	0,929100
5,633667	0,5	0,925300
5,642000	0,5	0,913100
5,650333	0,5	0,917400
5,658667	0,5	0,925300
5,667000	0,5	0,968950
5,675333	0,5	0,977950
5,683667	0,5	0,981450
5,692000	0,5	0,982450
5,700333	0,5	0,987800
5,708667	0,5	0,992900
5,717000	0,5	0,991950
5,725333	0,5	0,993550
5,733667	0,5	0,999500
5,742000	0,5	1,007200
5,750333	0,5	1,008550
5,758667	0,5	1,009900
5,767000	0,5	1,008650
5,775333	0,5	1,039200
5,783667	0,5	1,034250
5,792000	0,5	1,030700
5,800333	0,5	1,034650
5,808667	0,5	1,053150
5,817000	0,5	1,081050
5,825333	0,5	1,079050
5,833667	0,5	1,076200
5,842000	0,5	1,090050
5,850333	0,5	1,091750
5,858667	0,5	1,100750
5,867000	0,5	1,110100
5,875333	0,5	1,125300
5,883667	0,5	1,130450
5,892000	0,5	1,139000
5,900333	0,5	1,147050
5,908667	0,5	1,142100
5,917000	0,5	1,148350
5,925333	0,5	1,164450
5,933667	0,5	1,167550
5,942000	0,5	1,173400
5,950333	0,5	1,190550
5,958667	0,5	1,201750
5,967000	0,5	1,233150
5,975333	0,5	1,233400
5,983667	0,5	1,241700
5,992000	0,5	1,241750
6,000333	0,5	1,245800
6,008667	0,5	1,241900
6,017000	0,5	1,254800
6,025333	0,5	1,252700
6,033667	0,5	1,256850
6,042000	0,5	1,265200
6,050333	0,5	1,264650
6,058667	0,5	1,259250
6,067000	0,5	1,276700
6,075333	0,5	1,287000
6,083667	0,5	1,278150
6,092000	0,5	1,284150
6,100333	0,5	1,294900
6,108667	0,5	1,325450
6,117000	0,5	1,338400
6,125333	0,5	1,337900
6,133667	0,5	1,337900
6,142000	0,5	1,348950
6,150333	0,5	1,348150
6,158667	0,5	1,357200
6,167000	0,5	1,359900
6,175333	0,5	1,371500
6,183667	0,5	1,375750
6,192000	0,5	1,378950
6,200333	0,5	1,383550
6,208667	0,5	1,383600
6,217000	0,5	1,402450
6,225333	0,5	1,398100
6,233667	0,5	1,399050
6,242000	0,5	1,404000
6,250333	0,5	1,417900
6,258667	0,5	1,445850
6,267000	0,5	1,461800
6,275333	0,5	1,461500
6,283667	0,5	1,474600
6,292000	0,5	1,475900
6,300333	0,5	1,488300
6,308667	0,5	1,488400
6,317000	0,5	1,498350
6,325333	0,5	1,499150
6,333667	0,5	1,505700
6,342000	0,5	1,513850
6,350333	0,5	1,516150
6,358667	0,5	1,523100
6,367000	0,5	1,539450
6,375333	0,5	1,543200
6,383667	0,5	1,549050
6,392000	0,5	1,558750
6,400333	0,5	1,583250
6,408667	0,5	1,615950
6,417000	0,5	1,621750
6,425333	0,5	1,630800
6,433667	0,5	1,642800
6,442000	0,5	1,644100
6,450333	0,5	1,649850
6,458667	0,5	1,659050
6,467000	0,5	1,665100
6,475333	0,5	1,669300
6,483667	0,5	1,678800
6,492000	0,5	1,678950
6,500333	0,5	1,672350
6,508667	0,5	1,680800
6,517000	0,5	1,684600
6,525333	0,5	1,684350
6,533667	0,5	1,688950
6,542000	0,5	1,702000
6,550333	0,5	1,724550
6,558667	0,5	1,742900
6,567000	0,5	1,743750
6,575333	0,5	1,750850
6,583667	0,5	1,765050
6,592000	0,5	1,769250
6,600333	0,5	1,778200
6,608667	0,5	1,785200
6,617000	0,5	1,795550
6,625333	0,5	1,793550
6,633667	0,5	1,808300
6,642000	0,5	1,809450
6,650333	0,5	1,806900
6,658667	0,5	1,828000
6,667000	0,5	1,833050
6,675333	0,5	1,831150
6,683667	0,5	1,848150
6,692000	0,5	1,854000
6,700333	0,5	1,878550
6,708667	0,5	1,891400
6,717000	0,5	1,902500
6,725333	0,5	1,903800
6,733667	0,5	1,919050
6,742000	0,5	1,917950
6,750333	0,5	1,925950
6,758667	0,5	1,932050
6,767000	0,5	1,936100
6,775333	0,5	1,941650
6,783667	0,5	1,949850
6,792000	0,5	1,948950
6,800333	0,5	1,952800
6,808667	0,5	1,967000
6,817000	0,5	1,960650
6,825333	0,5	1,961750
6,833667	0,5	1,967800
6,842000	0,5	1,984850
6,850333	0,5	1,996850
6,858667	0,5	2,000950
6,867000	0,5	2,000750
6,875333	0,5	2,004800
6,883667	0,5	2,004450
6,892000	0,5	2,006900
6,900333	0,5	2,005700
6,908667	0,5	2,007400
6,917000	0,5	2,006050
6,925333	0,5	2,007750
6,933667	0,5	2,013950
6,942000	0,5	2,003900
6,950333	0,5	2,003050
6,958667	0,5	2,012650
6,967000	0,5	2,007250
6,975333	0,5	2,005650
6,983667	0,5	2,009450
6,992000	0,5	2,020700
7,000333	0,5	2,033850
7,008667	0,5	2,027400
7,017000	0,5	2,024950
7,025333	0,5	2,026250
7,033667	0,5	2,025000
7,042000	0,5	2,024650
7,050333	0,5	2,025500
7,058667	0,5	2,024600
7,067000	0,5	2,019000
7,075333	0,5	2,018750
7,083667	0,5	2,017200
7,092000	0,5	2,003850
7,100333	0,5	2,010000
7,108667	0,5	2,007000
7,117000	0,5	2,005200
7,125333	0,5	2,000800
7,133667	0,5	2,008800
7,142000	0,5	2,025150
7,150333	0,5	2,035500
7,158667	0,5	2,032200
7,167000	0,5	2,035200
7,175333	0,5	2,046550
7,183667	0,5	2,062650
7,192000	0,5	2,086800
7,200333	0,5	2,107650
7,208667	0,5	2,123650
7,217000	0,5	2,136850
7,225333	0,5	2,146000
7,233667	0,5	2,132050
7,242000	0,5	2,102750
7,250333	0,5	2,079250
7,258667	0,5	2,051350
7,267000	0,5	2,029800
7,275333	0,5	2,014800
7,283667	0,5	2,007200
7,292000	0,5	2,015500
7,300333	0,5	2,014200
7,308667	0,5	2,006550
7,317000	0,5	1,995600
7,325333	0,5	1,998550
7,333667	0,5	1,991450
7,342000	0,5	1,986600
7,350333	0,5	1,984550
7,358667	0,5	1,976450
7,367000	0,5	1,970350
7,375333	0,5	1,968950
7,383667	0,5	1,964550
7,392000	0,5	1,963800
7,400333	0,5	1,973150
7,408667	0,5	1,956600
7,417000	0,5	1,959550
7,425333	0,5	1,957150
7,433667	0,5	1,971400
7,442000	0,5	1,977800
7,450333	0,5	1,984050
7,458667	0,5	1,988300
7,467000	0,5	1,996950
7,475333	0,5	2,001350
7,483667	0,5	2,009700
7,492000	0,5	2,013850
7,500333	0,5	2,022150
7,508667	0,5	2,038350
7,517000	0,5	2,050200
7,525333	0,5	2,070300
7,533667	0,5	2,089300
7,542000	0,5	2,134200
7,550333	0,5	2,188900
7,558667	0,5	2,269500
7,567000	0,5	2,370700
7,575333	0,5	2,494900
7,583667	0,5	2,630300
7,592000	0,5	2,766550
7,600333	0,5	2,858500
7,608667	0,5	2,925100
7,617000	0,5	2,945050
7,625333	0,5	2,930000
7,633667	0,5	2,879350
7,642000	0,5	2,812000
7,650333	0,5	2,742850
7,658667	0,5	2,666400
7,667000	0,5	2,610300
7,675333	0,5	2,558700
7,683667	0,5	2,513750
7,692000	0,5	2,478700
7,700333	0,5	2,437400
7,708667	0,5	2,387350
7,717000	0,5	2,336600
7,725333	0,5	2,299250
7,733667	0,5	2,272600
7,742000	0,5	2,247100
7,750333	0,5	2,221900
7,758667	0,5	2,199500
7,767000	0,5	2,175650
7,775333	0,5	2,152200
7,783667	0,5	2,135750
7,792000	0,5	2,121950
7,800333	0,5	2,105700
7,808667	0,5	2,096150
7,817000	0,5	2,089000
7,825333	0,5	2,075750
7,833667	0,5	2,069700
7,842000	0,5	2,068050
7,850333	0,5	2,054850
7,858667	0,5	2,043400
7,867000	0,5	2,043250
7,875333	0,5	2,051200
7,883667	0,5	2,059950
7,892000	0,5	2,060700
7,900333	0,5	2,065700
7,908667	0,5	2,069650
7,917000	0,5	2,072950
7,925333	0,5	2,075550
7,933667	0,5	2,076550
7,942000	0,5	2,080350
7,950333	0,5	2,079350
7,958667	0,5	2,079700
7,967000	0,5	2,071250
7,975333	0,5	2,059850
7,983667	0,5	2,047150
7,992000	0,5	2,038350
8,000333	0,5	2,022100
8,008667	0,5	2,013950
8,017000	0,5	2,008350
8,025333	0,5	2,014100
8,033667	0,5	2,015950
8,042000	0,5	2,015300
8,050333	0,5	2,017850
8,058667	0,5	2,028650
8,067000	0,5	2,042800
8,075333	0,5	2,075250
8,083667	0,5	2,114300
8,092000	0,5	2,150050
8,100333	0,5	2,178550
8,108667	0,5	2,186950
8,117000	0,5	2,158900
8,125333	0,5	2,124300
8,133667	0,5	2,086800
8,142000	0,5	2,053700
8,150333	0,5	2,026000
8,158667	0,5	2,012900
8,167000	0,5	2,014600
8,175333	0,5	2,031400
8,183667	0,5	2,043600
8,192000	0,5	2,065300
8,200333	0,5	2,100800
8,208667	0,5	2,147850
8,217000	0,5	2,191100
8,225333	0,5	2,221050
8,233667	0,5	2,232650
8,242000	0,5	2,218000
8,250333	0,5	2,197600
8,258667	0,5	2,171350
8,267000	0,5	2,149000
8,275333	0,5	2,134050
8,283667	0,5	2,125900
8,292000	0,5	2,121500
8,300333	0,5	2,116650
8,308667	0,5	2,114850
8,317000	0,5	2,126850
8,325333	0,5	2,146650
8,333667	0,5	2,158000
8,342000	0,5	2,177450
8,350333	0,5	2,207400
8,358667	0,5	2,251550
8,367000	0,5	2,279600
8,375333	0,5	2,272100
8,383667	0,5	2,213300
8,392000	0,5	2,107100
8,400333	0,5	2,002850
8,408667	0,5	1,903750
8,417000	0,5	1,840500
8,425333	0,5	1,788200
8,433667	0,5	1,760350
8,442000	0,5	1,726000
8,450333	0,5	1,706700
8,458667	0,5	1,694150
8,467000	0,5	1,690000
8,475333	0,5	1,686900
8,483667	0,5	1,686100
8,492000	0,5	1,676250
8,500333	0,5	1,677000
8,508667	0,5	1,671250
8,517000	0,5	1,673800
8,525333	0,5	1,667750
8,533667	0,5	1,675900
8,542000	0,5	1,671100
8,550333	0,5	1,682500
8,558667	0,5	1,687600
8,567000	0,5	1,691250
8,575333	0,5	1,695900
8,583667	0,5	1,694850
8,592000	0,5	1,690600
8,600333	0,5	1,684100
8,608667	0,5	1,685850
8,617000	0,5	1,686500
8,625333	0,5	1,688200
8,633667	0,5	1,692400
8,642000	0,5	1,695200
8,650333	0,5	1,701950
8,658667	0,5	1,708400
8,667000	0,5	1,709650
8,675333	0,5	1,718450
8,683667	0,5	1,720850
8,692000	0,5	1,724200
8,700333	0,5	1,719600
8,708667	0,5	1,713600
8,717000	0,5	1,705750
8,725333	0,5	1,701500
8,733667	0,5	1,703200
8,742000	0,5	1,701950
8,750333	0,5	1,703850
8,758667	0,5	1,713150
8,767000	0,5	1,735650
8,775333	0,5	1,749750
8,783667	0,5	1,765500
8,792000	0,5	1,779600
8,800333	0,5	1,789450
8,808667	0,5	1,793550
8,817000	0,5	1,806450
8,825333	0,5	1,816700
8,833667	0,5	1,826200
8,842000	0,5	1,834300
8,850333	0,5	1,848600
8,858667	0,5	1,852600
8,867000	0,5	1,860850
8,875333	0,5	1,875100
8,883667	0,5	1,882050
8,892000	0,5	1,880650
8,900333	0,5	1,882200
8,908667	0,5	1,886300
8,917000	0,5	1,885850
8,925333	0,5	1,884050
8,933667	0,5	1,876600
8,942000	0,5	1,873650
8,950333	0,5	1,871100
8,958667	0,5	1,868100
8,967000	0,5	1,871850
8,975333	0,5	1,875000
8,983667	0,5	1,874500
8,992000	0,5	1,879100
9,000333	0,5	1,888900
9,008667	0,5	1,899850
9,017000	0,5	1,908950
9,025333	0,5	1,919200
9,033667	0,5	1,922150
9,042000	0,5	1,912050
9,050333	0,5	1,897050
9,058667	0,5	1,874550
9,067000	0,5	1,846850
9,075333	0,5	1,823200
9,083667	0,5	1,804850
9,092000	0,5	1,798950
9,100333	0,5	1,792200
9,108667	0,5	1,786700
9,117000	0,5	1,782500
9,125333	0,5	1,778450
9,133667	0,5	1,767550
9,142000	0,5	1,759700
9,150333	0,5	1,744850
9,158667	0,5	1,735200
9,167000	0,5	1,726450
9,175333	0,5	1,716950
9,183667	0,5	1,715200
9,192000	0,5	1,706400
9,200333	0,5	1,704150
9,208667	0,5	1,701800
9,217000	0,5	1,701000
9,225333	0,5	1,699500
9,233667	0,5	1,697750
9,242000	0,5	1,693550
9,250333	0,5	1,689850
9,258667	0,5	1,692500
9,267000	0,5	1,691400
9,275333	0,5	1,692000
9,283667	0,5	1,693550
9,292000	0,5	1,690600
9,300333	0,5	1,695450
9,308667	0,5	1,692600
9,317000	0,5	1,698100
9,325333	0,5	1,702100
9,333667	0,5	1,704850
9,342000	0,5	1,709450
9,350333	0,5	1,718250
9,358667	0,5	1,725550
9,367000	0,5	1,733900
9,375333	0,5	1,736000
9,383667	0,5	1,737500
9,392000	0,5	1,735900
9,400333	0,5	1,730150
9,408667	0,5	1,721400
9,417000	0,5	1,712550
9,425333	0,5	1,698350
9,433667	0,5	1,683650
9,442000	0,5	1,663800
9,450333	0,5	1,645300
9,458667	0,5	1,630850
9,467000	0,5	1,622450
9,475333	0,5	1,607450
9,483667	0,5	1,593800
9,492000	0,5	1,587700
9,500333	0,5	1,582250
9,508667	0,5	1,581450
9,517000	0,5	1,575500
9,525333	0,5	1,571350
9,533667	0,5	1,567650
9,542000	0,5	1,563950
9,550333	0,5	1,557200
9,558667	0,5	1,549600
9,567000	0,5	1,544950
9,575333	0,5	1,536250
9,583667	0,5	1,523250
9,592000	0,5	1,517600
9,600333	0,5	1,507150
9,608667	0,5	1,502300
9,617000	0,5	1,498650
9,625333	0,5	1,485650
9,633667	0,5	1,477100
9,642000	0,5	1,473300
9,650333	0,5	1,473800
9,658667	0,5	1,477050
9,667000	0,5	1,471000
9,675333	0,5	1,464000
9,683667	0,5	1,458000
9,692000	0,5	1,452950
9,700333	0,5	1,451800
9,708667	0,5	1,447750
9,717000	0,5	1,444200
9,725333	0,5	1,443850
9,733667	0,5	1,442800
9,742000	0,5	1,443150
9,750333	0,5	1,442150
9,758667	0,5	1,447300
9,767000	0,5	1,456750
9,775333	0,5	1,461100
9,783667	0,5	1,470700
9,792000	0,5	1,480050
9,800333	0,5	1,495500
9,808667	0,5	1,515350
9,817000	0,5	1,536000
9,825333	0,5	1,573800
9,833667	0,5	1,616300
9,842000	0,5	1,682400
9,850333	0,5	1,763800
9,858667	0,5	1,867700
9,867000	0,5	1,991250
9,875333	0,5	2,134400
9,883667	0,5	2,281100
9,892000	0,5	2,407000
9,900333	0,5	2,512150
9,908667	0,5	2,575650
9,917000	0,5	2,575150
9,925333	0,5	2,513200
9,933667	0,5	2,403000
9,942000	0,5	2,257400
9,950333	0,5	2,099500
9,958667	0,5	1,955100
9,967000	0,5	1,825300
9,975333	0,5	1,725800
9,983667	0,5	1,651450
9,992000	0,5	1,601250
10,000333	0,5	1,567650
10,008667	0,5	1,551050
10,017000	0,5	1,532900
10,025333	0,5	1,533350
10,033667	0,5	1,533200
10,042000	0,5	1,538350
10,050333	0,5	1,543950
10,058667	0,5	1,555450
10,067000	0,5	1,561650
10,075333	0,5	1,567400
10,083667	0,5	1,581800
10,092000	0,5	1,593300
10,100333	0,5	1,608150
10,108667	0,5	1,627850
10,117000	0,5	1,637600
10,125333	0,5	1,656350
10,133667	0,5	1,662650
10,142000	0,5	1,676850
10,150333	0,5	1,673200
10,158667	0,5	1,664650
10,167000	0,5	1,642350
10,175333	0,5	1,615800
10,183667	0,5	1,588300
10,192000	0,5	1,558100
10,200333	0,5	1,528100
10,208667	0,5	1,509350
10,217000	0,5	1,477250
10,225333	0,5	1,448250
10,233667	0,5	1,431100
10,242000	0,5	1,421300
10,250333	0,5	1,407500
10,258667	0,5	1,400050
10,267000	0,5	1,388700
10,275333	0,5	1,381200
10,283667	0,5	1,378350
10,292000	0,5	1,368350
10,300333	0,5	1,372950
10,308667	0,5	1,368300
10,317000	0,5	1,371550
10,325333	0,5	1,371850
10,333667	0,5	1,386500
10,342000	0,5	1,395000
10,350333	0,5	1,413500
10,358667	0,5	1,427150
10,367000	0,5	1,452700
10,375333	0,5	1,470200
10,383667	0,5	1,495350
10,392000	0,5	1,529550
10,400333	0,5	1,572200
10,408667	0,5	1,619950
10,417000	0,5	1,661750
10,425333	0,5	1,697650
10,433667	0,5	1,726600
10,442000	0,5	1,734900
10,450333	0,5	1,720250
10,458667	0,5	1,683550
10,467000	0,5	1,628400
10,475333	0,5	1,580900
10,483667	0,5	1,539950
10,492000	0,5	1,500450
10,500333	0,5	1,472900
10,508667	0,5	1,448350
10,517000	0,5	1,431800
10,525333	0,5	1,412200
10,533667	0,5	1,402100
10,542000	0,5	1,387900
10,550333	0,5	1,387050
10,558667	0,5	1,381850
10,567000	0,5	1,372100
10,575333	0,5	1,367200
10,583667	0,5	1,364150
10,592000	0,5	1,353850
10,600333	0,5	1,348900
10,608667	0,5	1,345750
10,617000	0,5	1,344350
10,625333	0,5	1,340500
10,633667	0,5	1,339400
10,642000	0,5	1,344450
10,650333	0,5	1,356100
10,658667	0,5	1,363800
10,667000	0,5	1,381100
10,675333	0,5	1,398200
10,683667	0,5	1,431650
10,692000	0,5	1,469700
10,700333	0,5	1,509500
10,708667	0,5	1,522500
10,717000	0,5	1,541000
10,725333	0,5	1,530700
10,733667	0,5	1,500650
10,742000	0,5	1,450650
10,750333	0,5	1,399950
10,758667	0,5	1,343900
10,767000	0,5	1,296500
10,775333	0,5	1,259800
10,783667	0,5	1,233400
10,792000	0,5	1,225100
10,800333	0,5	1,236300
10,808667	0,5	1,249300
10,817000	0,5	1,267750
10,825333	0,5	1,288650
10,833667	0,5	1,315800
10,842000	0,5	1,338600
10,850333	0,5	1,370850
10,858667	0,5	1,389700
10,867000	0,5	1,401000
10,875333	0,5	1,408550
10,883667	0,5	1,412050
10,892000	0,5	1,412800
10,900333	0,5	1,401150
10,908667	0,5	1,390450
10,917000	0,5	1,384300
10,925333	0,5	1,375100
10,933667	0,5	1,364700
10,942000	0,5	1,360350
10,950333	0,5	1,357300
10,958667	0,5	1,354500
10,967000	0,5	1,349300
10,975333	0,5	1,342450
10,983667	0,5	1,349150
10,992000	0,5	1,349550
11,000333	0,5	1,350550
11,008667	0,5	1,346750
11,017000	0,5	1,355250
11,025333	0,5	1,355950
11,033667	0,5	1,352600
11,042000	0,5	1,353050
11,050333	0,5	1,352350
11,058667	0,5	1,355250
11,067000	0,5	1,357650
11,075333	0,5	1,351650
11,083667	0,5	1,354150
11,092000	0,5	1,353450
11,100333	0,5	1,358250
11,108667	0,5	1,350250
11,117000	0,5	1,348700
11,125333	0,5	1,354650
11,133667	0,5	1,357650
11,142000	0,5	1,355150
11,150333	0,5	1,354250
11,158667	0,5	1,349850
11,167000	0,5	1,349250
11,175333	0,5	1,349900
11,183667	0,5	1,345100
11,192000	0,5	1,349950
11,200333	0,5	1,355450
11,208667	0,5	1,359150
11,217000	0,5	1,361500
11,225333	0,5	1,361600
11,233667	0,5	1,367700
11,242000	0,5	1,382100
11,250333	0,5	1,403600
11,258667	0,5	1,436250
11,267000	0,5	1,477350
11,275333	0,5	1,542350
11,283667	0,5	1,623400
11,292000	0,5	1,697550
11,300333	0,5	1,760750
11,308667	0,5	1,795950
11,317000	0,5	1,799550
11,325333	0,5	1,776750
11,333667	0,5	1,734650
11,342000	0,5	1,681650
11,350333	0,5	1,636950
11,358667	0,5	1,589500
11,367000	0,5	1,560000
11,375333	0,5	1,529050
11,383667	0,5	1,520450
11,392000	0,5	1,505500
11,400333	0,5	1,495800
11,408667	0,5	1,476900
11,417000	0,5	1,468100
11,425333	0,5	1,474700
11,433667	0,5	1,474400
11,442000	0,5	1,483200
11,450333	0,5	1,495950
11,458667	0,5	1,528500
11,467000	0,5	1,564400
11,475333	0,5	1,633300
11,483667	0,5	1,730350
11,492000	0,5	1,870950
11,500333	0,5	2,059550
11,508667	0,5	2,309900
11,517000	0,5	2,599900
11,525333	0,5	2,909300
11,533667	0,5	3,213500
11,542000	0,5	3,466150
11,550333	0,5	3,627700
11,558667	0,5	3,692950
11,567000	0,5	3,665000
11,575333	0,5	3,558400
11,583667	0,5	3,405400
11,592000	0,5	3,229850
11,600333	0,5	3,070750
11,608667	0,5	2,952950
11,617000	0,5	2,885050
11,625333	0,5	2,895250
11,633667	0,5	2,954750
11,642000	0,5	3,046200
11,650333	0,5	3,150800
11,658667	0,5	3,226800
11,667000	0,5	3,254000
11,675333	0,5	3,233650
11,683667	0,5	3,150550
11,692000	0,5	3,018750
11,700333	0,5	2,855350
11,708667	0,5	2,672300
11,717000	0,5	2,491000
11,725333	0,5	2,315850
11,733667	0,5	2,155950
11,742000	0,5	2,000750
11,750333	0,5	1,880650
11,758667	0,5	1,774850
11,767000	0,5	1,695650
11,775333	0,5	1,627350
11,783667	0,5	1,571200
11,792000	0,5	1,521450
11,800333	0,5	1,491150
11,808667	0,5	1,469800
11,817000	0,5	1,432550
11,825333	0,5	1,426200
11,833667	0,5	1,405650
11,842000	0,5	1,385600
11,850333	0,5	1,370850
11,858667	0,5	1,365950
11,867000	0,5	1,359900
11,875333	0,5	1,358000
11,883667	0,5	1,355100
11,892000	0,5	1,347750
11,900333	0,5	1,348600
11,908667	0,5	1,349900
11,917000	0,5	1,347650
11,925333	0,5	1,352400
11,933667	0,5	1,349200
11,942000	0,5	1,348300
11,950333	0,5	1,350400
11,958667	0,5	1,346700
11,967000	0,5	1,349100
11,975333	0,5	1,359400
11,983667	0,5	1,361400
11,992000	0,5	1,368250
12,000333	0,5	1,369950
12,008667	0,5	1,376250
12,017000	0,5	1,397450
12,025333	0,5	1,407150
12,033667	0,5	1,424850
12,042000	0,5	1,440150
12,050333	0,5	1,458600
12,058667	0,5	1,466000
12,067000	0,5	1,482450
12,075333	0,5	1,486950
12,083667	0,5	1,487350
12,092000	0,5	1,488000
12,100333	0,5	1,488900
12,108667	0,5	1,473450
12,117000	0,5	1,476250
12,125333	0,5	1,475300
12,133667	0,5	1,478550
12,142000	0,5	1,478850
12,150333	0,5	1,474650
12,158667	0,5	1,488800
12,167000	0,5	1,503150
12,175333	0,5	1,520900
12,183667	0,5	1,534350
12,192000	0,5	1,553250
12,200333	0,5	1,581700
12,208667	0,5	1,619350
12,217000	0,5	1,681050
12,225333	0,5	1,744950
12,233667	0,5	1,828450
12,242000	0,5	1,895600
12,250333	0,5	1,962000
12,258667	0,5	2,004450
12,267000	0,5	2,045400
12,275333	0,5	2,069550
12,283667	0,5	2,092850
12,292000	0,5	2,118950
12,300333	0,5	2,146050
12,308667	0,5	2,189300
12,317000	0,5	2,229400
12,325333	0,5	2,261850
12,333667	0,5	2,277150
12,342000	0,5	2,287200
12,350333	0,5	2,285850
12,358667	0,5	2,281000
12,367000	0,5	2,271500
12,375333	0,5	2,233900
12,383667	0,5	2,194650
12,392000	0,5	2,140200
12,400333	0,5	2,080100
12,408667	0,5	2,016600
12,417000	0,5	1,988300
12,425333	0,5	1,972050
12,433667	0,5	1,993300
12,442000	0,5	2,029300
12,450333	0,5	2,079400
12,458667	0,5	2,151100
12,467000	0,5	2,216850
12,475333	0,5	2,265000
12,483667	0,5	2,294000
12,492000	0,5	2,288850
12,500333	0,5	2,264250
12,508667	0,5	2,215350
12,517000	0,5	2,149850
12,525333	0,5	2,075100
12,533667	0,5	1,988500
12,542000	0,5	1,906750
12,550333	0,5	1,816400
12,558667	0,5	1,730050
12,567000	0,5	1,655500
12,575333	0,5	1,597200
12,583667	0,5	1,534600
12,592000	0,5	1,476500
12,600333	0,5	1,429850
12,608667	0,5	1,399950
12,617000	0,5	1,370100
12,625333	0,5	1,345450
12,633667	0,5	1,319850
12,642000	0,5	1,301850
12,650333	0,5	1,283050
12,658667	0,5	1,271900
12,667000	0,5	1,256250
12,675333	0,5	1,244750
12,683667	0,5	1,242150
12,692000	0,5	1,238400
12,700333	0,5	1,229750
12,708667	0,5	1,232800
12,717000	0,5	1,228050
12,725333	0,5	1,224150
12,733667	0,5	1,215600
12,742000	0,5	1,207450
12,750333	0,5	1,191900
12,758667	0,5	1,195700
12,767000	0,5	1,201850
12,775333	0,5	1,189300
12,783667	0,5	1,186950
12,792000	0,5	1,183550
12,800333	0,5	1,200700
12,808667	0,5	1,233750
12,817000	0,5	1,274050
12,825333	0,5	1,322100
12,833667	0,5	1,367350
12,842000	0,5	1,391800
12,850333	0,5	1,385100
12,858667	0,5	1,354400
12,867000	0,5	1,287600
12,875333	0,5	1,191550
12,883667	0,5	1,101500
12,892000	0,5	1,014500
12,900333	0,5	0,932350
12,908667	0,5	0,866350
12,917000	0,5	0,796600
12,925333	0,5	0,747500
12,933667	0,5	0,648000
12,942000	0,5	0,524250
12,950333	0,5	0,348850
12,958667	0,5	0,080450
12,967000	0,5	-0,319350
12,975333	0,5	-0,685450
12,983667	0,5	-0,951500
12,992000	0,5	-1,205600
13,000333	0,5	-1,441300
13,008667	0,5	-1,606950
13,017000	0,5	-1,734000
13,025333	0,5	-1,833650
13,033667	0,5	-1,918200
13,042000	0,5	-1,984600
13,050333	0,5	-2,034750
13,058667	0,5	-2,085950
13,067000	0,5	-2,122200
13,075333	0,5	-2,166400
13,083667	0,5	-2,190500
13,092000	0,5	-2,214500
13,100333	0,5	-2,226200
13,108667	0,5	-2,237200
13,117000	0,5	-2,239550
13,125333	0,5	-2,238150
13,133667	0,5	-2,237200
13,142000	0,5	-2,247500
13,150333	0,5	-2,241500
13,158667	0,5	-2,243450
13,167000	0,5	-2,238950
13,175333	0,5	-2,236300
13,183667	0,5	-2,243850
13,192000	0,5	-2,228550
13,200333	0,5	-2,228850
13,208667	0,5	-2,228800
13,217000	0,5	-2,241150
13,225333	0,5	-2,255550
13,233667	0,5	-2,275050
13,242000	0,5	-2,297200
13,250333	0,5	-2,320000
13,258667	0,5	-2,340000
13,267000	0,5	-2,363750
13,275333	0,5	-2,365950
13,283667	0,5	-2,380300
13,292000	0,5	-2,394200
13,300333	0,5	-2,389500
13,308667	0,5	-2,390000
13,317000	0,5	-2,398400
13,325333	0,5	-2,391150
13,333667	0,5	-2,397850
13,342000	0,5	-2,386000
13,350333	0,5	-2,373550
13,358667	0,5	-2,363550
13,367000	0,5	-2,340000
13,375333	0,5	-2,313850
13,383667	0,5	-2,276000
13,392000	0,5	-2,238650
13,400333	0,5	-2,192600
13,408667	0,5	-2,148850
13,417000	0,5	-2,109250
13,425333	0,5	-2,076400
13,433667	0,5	-2,054050
13,442000	0,5	-2,041350
13,450333	0,5	-2,033250
13,458667	0,5	-2,050850
13,467000	0,5	-2,069600
13,475333	0,5	-2,092600
13,483667	0,5	-2,111200
13,492000	0,5	-2,121500
13,500333	0,5	-2,142900
13,508667	0,5	-2,160300
13,517000	0,5	-2,175900
13,525333	0,5	-2,188750
13,533667	0,5	-2,195850
13,542000	0,5	-2,204900
13,550333	0,5	-2,212200
13,558667	0,5	-2,215500
13,567000	0,5	-2,221450
13,575333	0,5	-2,208300
13,583667	0,5	-2,217000
13,592000	0,5	-2,196900
13,600333	0,5	-2,196450
13,608667	0,5	-2,188000
13,617000	0,5	-2,189850
13,625333	0,5	-2,185850
13,633667	0,5	-2,173700
13,642000	0,5	-2,156200
13,650333	0,5	-2,143350
13,658667	0,5	-2,136450
13,667000	0,5	-2,120250
13,675333	0,5	-2,093750
13,683667	0,5	-2,085650
13,692000	0,5	-2,058650
13,700333	0,5	-2,038500
13,708667	0,5	-2,026050
13,717000	0,5	-2,001300
13,725333	0,5	-1,983350
13,733667	0,5	-1,971250
13,742000	0,5	-1,952450
13,750333	0,5	-1,925500
13,758667	0,5	-1,917350
13,767000	0,5	-1,901300
13,775333	0,5	-1,891550
13,783667	0,5	-1,866650
13,792000	0,5	-1,844250
13,800333	0,5	-1,812950
13,808667	0,5	-1,787650
13,817000	0,5	-1,759750
13,825333	0,5	-1,731200
13,833667	0,5	-1,700800
13,842000	0,5	-1,671350
13,850333	0,5	-1,644000
13,858667	0,5	-1,616150
13,867000	0,5	-1,591850
13,875333	0,5	-1,573650
13,883667	0,5	-1,550700
13,892000	0,5	-1,533200
13,900333	0,5	-1,519900
13,908667	0,5	-1,507300
13,917000	0,5	-1,510350
13,925333	0,5	-1,491850
13,933667	0,5	-1,477400
13,942000	0,5	-1,449500
13,950333	0,5	-1,431850
13,958667	0,5	-1,404750
13,967000	0,5	-1,382000
13,975333	0,5	-1,351250
13,983667	0,5	-1,319400
13,992000	0,5	-1,285650
14,000333	0,5	-1,249250
14,008667	0,5	-1,204500
14,017000	0,5	-1,148050
14,025333	0,5	-1,095500
14,033667	0,5	-1,020400
14,042000	0,5	-0,923050
14,050333	0,5	-0,837800
14,058667	0,5	-0,759900
14,067000	0,5	-0,699100
14,075333	0,5	-0,632000
14,083667	0,5	-0,561750
14,092000	0,5	-0,510100
14,100333	0,5	-0,470750
14,108667	0,5	-0,438050
14,117000	0,5	-0,423300
14,125333	0,5	-0,419650
14,133667	0,5	-0,417650
14,142000	0,5	-0,416700
14,150333	0,5	-0,400600
14,158667	0,5	-0,357050
14,167000	0,5	-0,298600
14,175333	0,5	-0,235500
14,183667	0,5	-0,142150
14,192000	0,5	-0,049150
14,200333	0,5	0,034000
14,208667	0,5	0,084150
14,217000	0,5	0,124900
14,225333	0,5	0,156650
14,233667	0,5	0,159200
14,242000	0,5	0,142850
14,250333	0,5	0,122800
14,258667	0,5	0,110550
14,267000	0,5	0,089300
14,275333	0,5	0,089100
14,283667	0,5	0,095750
14,292000	0,5	0,102650
14,300333	0,5	0,113500
14,308667	0,5	0,128100
14,317000	0,5	0,123000
14,325333	0,5	0,137400
14,333667	0,5	0,147850
14,342000	0,5	0,150500
14,350333	0,5	0,150850
14,358667	0,5	0,144850
14,367000	0,5	0,150100
14,375333	0,5	0,163050
14,383667	0,5	0,175500
14,392000	0,5	0,175350
14,400333	0,5	0,185450
14,408667	0,5	0,189400
14,417000	0,5	0,205700
14,425333	0,5	0,224450
14,433667	0,5	0,245100
14,442000	0,5	0,258850
14,450333	0,5	0,279050
14,458667	0,5	0,285000
14,467000	0,5	0,275800
14,475333	0,5	0,267600
14,483667	0,5	0,265450
14,492000	0,5	0,242200
14,500333	0,5	0,221750
14,508667	0,5	0,196300
14,517000	0,5	0,180750
14,525333	0,5	0,173400
14,533667	0,5	0,165950
14,542000	0,5	0,165950
14,550333	0,5	0,159900
14,558667	0,5	0,149450
14,567000	0,5	0,146100
14,575333	0,5	0,150850
14,583667	0,5	0,147400
14,592000	0,5	0,146400
14,600333	0,5	0,145750
14,608667	0,5	0,157400
14,617000	0,5	0,149200
14,625333	0,5	0,178650
14,633667	0,5	0,209450
14,642000	0,5	0,264600
14,650333	0,5	0,334550
14,658667	0,5	0,434100
14,667000	0,5	0,557450
14,675333	0,5	0,651850
14,683667	0,5	0,704000
14,692000	0,5	0,719450
14,700333	0,5	0,675650
14,708667	0,5	0,601800
14,717000	0,5	0,536200
14,725333	0,5	0,490450
14,733667	0,5	0,466000
14,742000	0,5	0,491700
14,750333	0,5	0,561850
14,758667	0,5	0,627750
14,767000	0,5	0,699950
14,775333	0,5	0,736100
14,783667	0,5	0,723350
14,792000	0,5	0,674000
14,800333	0,5	0,578100
14,808667	0,5	0,483500
14,817000	0,5	0,417600
14,825333	0,5	0,349950
14,833667	0,5	0,314950
14,842000	0,5	0,269350
14,850333	0,5	0,247550
14,858667	0,5	0,229500
14,867000	0,5	0,217750
14,875333	0,5	0,207050
14,883667	0,5	0,202300
14,892000	0,5	0,216300
14,900333	0,5	0,225700
14,908667	0,5	0,224550
14,917000	0,5	0,235650
14,925333	0,5	0,238650
14,933667	0,5	0,225850
14,942000	0,5	0,204250
14,950333	0,5	0,182600
14,958667	0,5	0,173000
14,967000	0,5	0,179500
14,975333	0,5	0,181850
14,983667	0,5	0,174150
14,992000	0,5	0,161950
15,000333	0,5	0,137550
15,008667	0,5	0,127700
15,017000	0,5	0,109900
15,025333	0,5	0,094850
15,033667	0,5	0,085250
15,042000	0,5	0,067800
15,050333	0,5	0,051550
15,058667	0,5	0,039900
15,067000	0,5	0,041850
15,075333	0,5	0,038450
15,083667	0,5	0,025000
15,092000	0,5	-0,006700
15,100333	0,5	-0,011550
15,108667	0,5	-0,009300
15,117000	0,5	-0,008500
15,125333	0,5	0,000150
15,133667	0,5	0,031150
15,142000	0,5	0,074300
15,150333	0,5	0,150900
15,158667	0,5	0,261250
15,167000	0,5	0,385000
15,175333	0,5	0,496600
15,183667	0,5	0,571150
15,192000	0,5	0,602750
15,200333	0,5	0,559850
15,208667	0,5	0,508000
15,217000	0,5	0,454450
15,225333	0,5	0,427250
15,233667	0,5	0,434750
15,242000	0,5	0,471000
15,250333	0,5	0,528050
15,258667	0,5	0,598000
15,267000	0,5	0,614050
15,275333	0,5	0,587550
15,283667	0,5	0,507650
15,292000	0,5	0,424250
15,300333	0,5	0,335950
15,308667	0,5	0,270250
15,317000	0,5	0,219200
15,325333	0,5	0,194800
15,333667	0,5	0,180300
15,342000	0,5	0,163600
15,350333	0,5	0,133550
15,358667	0,5	0,129700
15,367000	0,5	0,108550
15,375333	0,5	0,091800
15,383667	0,5	0,067650
15,392000	0,5	0,036400
15,400333	0,5	0,048450
15,408667	0,5	0,063100
15,417000	0,5	0,060000
15,425333	0,5	0,065500
15,433667	0,5	0,065500
15,442000	0,5	0,054300
15,450333	0,5	0,046500
15,458667	0,5	0,026750
15,467000	0,5	0,006700
15,475333	0,5	-0,026650
15,483667	0,5	-0,039250
15,492000	0,5	-0,076250
15,500333	0,5	-0,094900
15,508667	0,5	-0,095350
15,517000	0,5	-0,108500
15,525333	0,5	-0,125300
15,533667	0,5	-0,143200
15,542000	0,5	-0,163800
15,550333	0,5	-0,159050
15,558667	0,5	-0,157600
15,567000	0,5	-0,159400
15,575333	0,5	-0,154200
15,583667	0,5	-0,136800
15,592000	0,5	-0,118500
15,600333	0,5	-0,064150
15,608667	0,5	0,033550
15,617000	0,5	0,141450
15,625333	0,5	0,266000
15,633667	0,5	0,381900
15,642000	0,5	0,450750
15,650333	0,5	0,474900
15,658667	0,5	0,458350
15,667000	0,5	0,418550
15,675333	0,5	0,394700
15,683667	0,5	0,391250
15,692000	0,5	0,428850
15,700333	0,5	0,486950
15,708667	0,5	0,511850
15,717000	0,5	0,494050
15,725333	0,5	0,445100
15,733667	0,5	0,376500
15,742000	0,5	0,280400
15,750333	0,5	0,195650
15,758667	0,5	0,123900
15,767000	0,5	0,058800
15,775333	0,5	0,010050
15,783667	0,5	-0,007750
15,792000	0,5	-0,046350
15,800333	0,5	-0,043850
15,808667	0,5	-0,041700
15,817000	0,5	-0,036850
15,825333	0,5	-0,041700
15,833667	0,5	-0,047750
15,842000	0,5	-0,048650
15,850333	0,5	-0,046100
15,858667	0,5	-0,055450
15,867000	0,5	-0,068500
15,875333	0,5	-0,082850
15,883667	0,5	-0,111700
15,892000	0,5	-0,140850
15,900333	0,5	-0,172150
15,908667	0,5	-0,193750
15,917000	0,5	-0,219800
15,925333	0,5	-0,225450
15,933667	0,5	-0,249100
15,942000	0,5	-0,257100
15,950333	0,5	-0,257250
15,958667	0,5	-0,269450
15,967000	0,5	-0,287850
15,975333	0,5	-0,303200
15,983667	0,5	-0,321600
15,992000	0,5	-0,296700
16,000333	0,5	-0,283350
16,008667	0,5	-0,222250
16,017000	0,5	-0,126750
16,025333	0,5	-0,001600
16,033667	0,5	0,136550
16,042000	0,5	0,257850
16,050333	0,5	0,343650
16,058667	0,5	0,375500
16,067000	0,5	0,373800
16,075333	0,5	0,375550
16,083667	0,5	0,372550
16,092000	0,5	0,408650
16,100333	0,5	0,431800
16,108667	0,5	0,414050
16,117000	0,5	0,363250
16,125333	0,5	0,255000
16,133667	0,5	0,159800
16,142000	0,5	0,074150
16,150333	0,5	0,014550
16,158667	0,5	-0,042350
16,167000	0,5	-0,064050
16,175333	0,5	-0,089300
16,183667	0,5	-0,085600
16,192000	0,5	-0,084800
16,200333	0,5	-0,090800
16,208667	0,5	-0,086300
16,217000	0,5	-0,091650
16,225333	0,5	-0,090750
16,233667	0,5	-0,115950
16,242000	0,5	-0,122200
16,250333	0,5	-0,137500
16,258667	0,5	-0,176600
16,267000	0,5	-0,207650
16,275333	0,5	-0,255350
16,283667	0,5	-0,283650
16,292000	0,5	-0,301200
16,300333	0,5	-0,333100
16,308667	0,5	-0,350850
16,317000	0,5	-0,372300
16,325333	0,5	-0,385800
16,333667	0,5	-0,400250
16,342000	0,5	-0,404100
16,350333	0,5	-0,404850
16,358667	0,5	-0,386600
16,367000	0,5	-0,339900
16,375333	0,5	-0,288050
16,383667	0,5	-0,185150
16,392000	0,5	-0,044600
16,400333	0,5	0,095700
16,408667	0,5	0,183800
16,417000	0,5	0,241450
16,425333	0,5	0,251750
16,433667	0,5	0,271450
16,442000	0,5	0,264650
16,450333	0,5	0,267950
16,458667	0,5	0,246400
16,467000	0,5	0,205500
16,475333	0,5	0,141350
16,483667	0,5	0,058000
16,492000	0,5	-0,011750
16,500333	0,5	-0,076450
16,508667	0,5	-0,113700
16,517000	0,5	-0,124600
16,525333	0,5	-0,138750
16,533667	0,5	-0,111650
16,542000	0,5	-0,092150
16,550333	0,5	-0,073500
16,558667	0,5	-0,066100
16,567000	0,5	-0,076800
16,575333	0,5	-0,053350
16,583667	0,5	-0,058650
16,592000	0,5	-0,056450
16,600333	0,5	-0,086000
16,608667	0,5	-0,103500
16,617000	0,5	-0,131800
16,625333	0,5	-0,144500
16,633667	0,5	-0,153350
16,642000	0,5	-0,154950
16,650333	0,5	-0,172800
16,658667	0,5	-0,170250
16,667000	0,5	-0,169250
16,675333	0,5	-0,190700
16,683667	0,5	-0,180200
16,692000	0,5	-0,177250
16,700333	0,5	-0,168750
16,708667	0,5	-0,130800
16,717000	0,5	-0,070550
16,725333	0,5	0,026650
16,733667	0,5	0,131100
16,742000	0,5	0,190850
16,750333	0,5	0,223350
16,758667	0,5	0,233600
16,767000	0,5	0,225600
16,775333	0,5	0,209650
16,783667	0,5	0,201800
16,792000	0,5	0,151200
16,800333	0,5	0,081300
16,808667	0,5	0,003250
16,817000	0,5	-0,064350
16,825333	0,5	-0,129600
16,833667	0,5	-0,162650
16,842000	0,5	-0,189250
16,850333	0,5	-0,216700
16,858667	0,5	-0,247400
16,867000	0,5	-0,275050
16,875333	0,5	-0,263950
16,883667	0,5	-0,265150
16,892000	0,5	-0,276700
16,900333	0,5	-0,287250
16,908667	0,5	-0,294050
16,917000	0,5	-0,325750
16,925333	0,5	-0,330800
16,933667	0,5	-0,352250
16,942000	0,5	-0,364800
16,950333	0,5	-0,384050
16,958667	0,5	-0,387950
16,967000	0,5	-0,409000
16,975333	0,5	-0,400450
16,983667	0,5	-0,381250
16,992000	0,5	-0,359800
17,000333	0,5	-0,317700
17,008667	0,5	-0,271650
17,017000	0,5	-0,182800
17,025333	0,5	-0,055950
17,033667	0,5	0,064000
17,042000	0,5	0,183000
17,050333	0,5	0,276300
17,058667	0,5	0,365400
17,067000	0,5	0,458000
17,075333	0,5	0,553200
17,083667	0,5	0,652750
17,092000	0,5	0,745350
17,100333	0,5	0,870900
17,108667	0,5	0,979500
17,117000	0,5	1,102550
17,125333	0,5	1,249900
17,133667	0,5	1,379100
17,142000	0,5	1,495350
17,150333	0,5	1,594350
17,158667	0,5	1,664550
17,167000	0,5	1,745650
17,175333	0,5	1,811250
17,183667	0,5	1,857900
17,192000	0,5	1,878550
17,200333	0,5	1,859950
17,208667	0,5	1,803400
17,217000	0,5	1,694950
17,225333	0,5	1,557750
17,233667	0,5	1,390950
17,242000	0,5	1,204550
17,250333	0,5	1,035000
17,258667	0,5	0,849300
17,267000	0,5	0,717450
17,275333	0,5	0,626800
17,283667	0,5	0,559250
17,292000	0,5	0,538400
17,300333	0,5	0,511450
17,308667	0,5	0,529050
17,317000	0,5	0,524950
17,325333	0,5	0,516650
17,333667	0,5	0,494650
17,342000	0,5	0,472100
17,350333	0,5	0,422150
17,358667	0,5	0,367200
17,367000	0,5	0,312000
17,375333	0,5	0,262950
17,383667	0,5	0,245750
17,392000	0,5	0,234650
17,400333	0,5	0,254850
17,408667	0,5	0,249100
17,417000	0,5	0,297550
17,425333	0,5	0,331700
17,433667	0,5	0,369750
17,442000	0,5	0,379500
17,450333	0,5	0,382950
17,458667	0,5	0,400350
17,467000	0,5	0,417250
17,475333	0,5	0,409200
17,483667	0,5	0,396850
17,492000	0,5	0,356100
17,500333	0,5	0,313450
17,508667	0,5	0,253900
17,517000	0,5	0,204150
17,525333	0,5	0,152250
17,533667	0,5	0,130250
17,542000	0,5	0,144600
17,550333	0,5	0,155100
17,558667	0,5	0,165450
17,567000	0,5	0,175100
17,575333	0,5	0,161400
17,583667	0,5	0,125650
17,592000	0,5	0,070500
17,600333	0,5	-0,006650
17,608667	0,5	-0,059700
17,617000	0,5	-0,130700
17,625333	0,5	-0,192400
17,633667	0,5	-0,242650
17,642000	0,5	-0,272300
17,650333	0,5	-0,314800
17,658667	0,5	-0,343300
17,667000	0,5	-0,362150
17,675333	0,5	-0,387750
17,683667	0,5	-0,415850
17,692000	0,5	-0,426800
17,700333	0,5	-0,459250
17,708667	0,5	-0,471950
17,717000	0,5	-0,472850
17,725333	0,5	-0,494650
17,733667	0,5	-0,500500
17,742000	0,5	-0,520550
17,750333	0,5	-0,508300
17,758667	0,5	-0,466950
17,767000	0,5	-0,415800
17,775333	0,5	-0,359200
17,783667	0,5	-0,298550
17,792000	0,5	-0,260650
17,800333	0,5	-0,232450
17,808667	0,5	-0,226150
17,817000	0,5	-0,235450
17,825333	0,5	-0,272600
17,833667	0,5	-0,321450
17,842000	0,5	-0,352200
17,850333	0,5	-0,405350
17,858667	0,5	-0,423200
17,867000	0,5	-0,437300
17,875333	0,5	-0,465250
17,883667	0,5	-0,495300
17,892000	0,5	-0,535050
17,900333	0,5	-0,555000
17,908667	0,5	-0,551900
17,917000	0,5	-0,562750
17,925333	0,5	-0,567100
17,933667	0,5	-0,574250
17,942000	0,5	-0,558400
17,950333	0,5	-0,545250
17,958667	0,5	-0,518100
17,967000	0,5	-0,487650
17,975333	0,5	-0,433650
17,983667	0,5	-0,363650
17,992000	0,5	-0,305850
18,000333	0,5	-0,273800
18,008667	0,5	-0,244950
18,017000	0,5	-0,248850
18,025333	0,5	-0,268800
18,033667	0,5	-0,331050
18,042000	0,5	-0,375950
18,050333	0,5	-0,389600
18,058667	0,5	-0,417600
18,067000	0,5	-0,441950
18,075333	0,5	-0,457900
18,083667	0,5	-0,480250
18,092000	0,5	-0,501150
18,100333	0,5	-0,513400
18,108667	0,5	-0,521450
18,117000	0,5	-0,526800
18,125333	0,5	-0,524650
18,133667	0,5	-0,517200
18,142000	0,5	-0,521300
18,150333	0,5	-0,479450
18,158667	0,5	-0,433250
18,167000	0,5	-0,394300
18,175333	0,5	-0,359150
18,183667	0,5	-0,340900
18,192000	0,5	-0,335700
18,200333	0,5	-0,339350
18,208667	0,5	-0,357150
18,217000	0,5	-0,397900
18,225333	0,5	-0,422750
18,233667	0,5	-0,464850
18,242000	0,5	-0,483400
18,250333	0,5	-0,497200
18,258667	0,5	-0,508100
18,267000	0,5	-0,525550
18,275333	0,5	-0,516100
18,283667	0,5	-0,528100
18,292000	0,5	-0,546150
18,300333	0,5	-0,544600
18,308667	0,5	-0,536550
18,317000	0,5	-0,528500
18,325333	0,5	-0,520650
18,333667	0,5	-0,512150
18,342000	0,5	-0,484000
18,350333	0,5	-0,454250
18,358667	0,5	-0,438350
18,367000	0,5	-0,445000
18,375333	0,5	-0,468100
18,383667	0,5	-0,496650
18,392000	0,5	-0,526950
18,400333	0,5	-0,542500
18,408667	0,5	-0,564650
18,417000	0,5	-0,578100
18,425333	0,5	-0,583100
18,433667	0,5	-0,604950
18,442000	0,5	-0,631950
18,450333	0,5	-0,626000
18,458667	0,5	-0,626950
18,467000	0,5	-0,630450
18,475333	0,5	-0,655300
18,483667	0,5	-0,642050
18,492000	0,5	-0,616200
18,500333	0,5	-0,595800
18,508667	0,5	-0,582850
18,517000	0,5	-0,571400
18,525333	0,5	-0,568700
18,533667	0,5	-0,585050
18,542000	0,5	-0,596600
18,550333	0,5	-0,623000
18,558667	0,5	-0,648000
18,567000	0,5	-0,666850
18,575333	0,5	-0,674450
18,583667	0,5	-0,714000
18,592000	0,5	-0,712800
18,600333	0,5	-0,724650
18,608667	0,5	-0,733850
18,617000	0,5	-0,762150
18,625333	0,5	-0,796900
18,633667	0,5	-0,784350
18,642000	0,5	-0,781200
18,650333	0,5	-0,775100
18,658667	0,5	-0,750300
18,667000	0,5	-0,723250
18,675333	0,5	-0,707050
18,683667	0,5	-0,708600
18,692000	0,5	-0,719400
18,700333	0,5	-0,727400
18,708667	0,5	-0,750100
18,717000	0,5	-0,729800
18,725333	0,5	-0,728500
18,733667	0,5	-0,744600
18,742000	0,5	-0,727500
18,750333	0,5	-0,726750
18,758667	0,5	-0,723450
18,767000	0,5	-0,715550
18,775333	0,5	-0,708400
18,783667	0,5	-0,671050
18,792000	0,5	-0,648000
18,800333	0,5	-0,622750
18,808667	0,5	-0,611600
18,817000	0,5	-0,605200
18,825333	0,5	-0,624200
18,833667	0,5	-0,642950
18,842000	0,5	-0,668250
18,850333	0,5	-0,699900
18,858667	0,5	-0,709800
18,867000	0,5	-0,711750
18,875333	0,5	-0,719900
18,883667	0,5	-0,718300
18,892000	0,5	-0,706650
18,900333	0,5	-0,698800
18,908667	0,5	-0,697450
18,917000	0,5	-0,720200
18,925333	0,5	-0,722150
18,933667	0,5	-0,715350
18,942000	0,5	-0,719950
18,950333	0,5	-0,746750
18,958667	0,5	-0,760700
18,967000	0,5	-0,795050
18,975333	0,5	-0,823400
18,983667	0,5	-0,843750
18,992000	0,5	-0,854350
19,000333	0,5	-0,865050
19,008667	0,5	-0,870300
19,017000	0,5	-0,881050
19,025333	0,5	-0,888600
19,033667	0,5	-0,877300
19,042000	0,5	-0,878500
19,050333	0,5	-0,887100
19,058667	0,5	-0,915950
19,067000	0,5	-0,941200
19,075333	0,5	-0,955000
19,083667	0,5	-0,954700
19,092000	0,5	-0,974000
19,100333	0,5	-0,969300
19,108667	0,5	-0,989950
19,117000	0,5	-0,995100
19,125333	0,5	-1,014600
19,133667	0,5	-1,018950
19,142000	0,5	-1,025850
19,150333	0,5	-1,042600
19,158667	0,5	-1,022300
19,167000	0,5	-1,048550
19,175333	0,5	-1,074050
19,183667	0,5	-1,092150
19,192000	0,5	-1,107450
19,200333	0,5	-1,135900
19,208667	0,5	-1,174300
19,217000	0,5	-1,194600
19,225333	0,5	-1,201600
19,233667	0,5	-1,199250
19,242000	0,5	-1,197350
19,250333	0,5	-1,206150
19,258667	0,5	-1,212950
19,267000	0,5	-1,225400
19,275333	0,5	-1,232950
19,283667	0,5	-1,248800
19,292000	0,5	-1,258250
19,300333	0,5	-1,251950
19,308667	0,5	-1,239450
19,317000	0,5	-1,263000
19,325333	0,5	-1,257750
19,333667	0,5	-1,264250
19,342000	0,5	-1,278000
19,350333	0,5	-1,302450
19,358667	0,5	-1,344000
19,367000	0,5	-1,348500
19,375333	0,5	-1,360900
19,383667	0,5	-1,353200
19,392000	0,5	-1,372500
19,400333	0,5	-1,364300
19,408667	0,5	-1,379400
19,417000	0,5	-1,391200
19,425333	0,5	-1,393050
19,433667	0,5	-1,392550
19,442000	0,5	-1,395950
19,450333	0,5	-1,388600
19,458667	0,5	-1,400350
19,467000	0,5	-1,421600
19,475333	0,5	-1,423950
19,483667	0,5	-1,418200
19,492000	0,5	-1,431550
19,500333	0,5	-1,456000
19,508667	0,5	-1,482400
19,517000	0,5	-1,479500
19,525333	0,5	-1,487950
19,533667	0,5	-1,501000
19,542000	0,5	-1,513900
19,550333	0,5	-1,523550
19,558667	0,5	-1,540000
19,567000	0,5	-1,543650
19,575333	0,5	-1,546350
19,583667	0,5	-1,570550
19,592000	0,5	-1,576950
19,600333	0,5	-1,576750
19,608667	0,5	-1,584600
19,617000	0,5	-1,597500
19,625333	0,5	-1,593750
19,633667	0,5	-1,609400
19,642000	0,5	-1,619350
19,650333	0,5	-1,636800
19,658667	0,5	-1,663900
19,667000	0,5	-1,648750
19,675333	0,5	-1,656800
19,683667	0,5	-1,658150
19,692000	0,5	-1,658250
19,700333	0,5	-1,671750
19,708667	0,5	-1,685650
19,717000	0,5	-1,687900
19,725333	0,5	-1,695400
19,733667	0,5	-1,715250
19,742000	0,5	-1,715350
19,750333	0,5	-1,716300
19,758667	0,5	-1,746250
19,767000	0,5	-1,741850
19,775333	0,5	-1,769900
19,783667	0,5	-1,779800
19,792000	0,5	-1,819350
19,800333	0,5	-1,860200
19,808667	0,5	-1,860450
19,817000	0,5	-1,869600
19,825333	0,5	-1,875100
19,833667	0,5	-1,888550
19,842000	0,5	-1,897900
19,850333	0,5	-1,906650
19,858667	0,5	-1,921350
19,867000	0,5	-1,930450
19,875333	0,5	-1,928750
19,883667	0,5	-1,941450
19,892000	0,5	-1,927950
19,900333	0,5	-1,936250
19,908667	0,5	-1,958750
19,917000	0,5	-1,955300
19,925333	0,5	-1,959950
19,933667	0,5	-1,978400
19,942000	0,5	-1,999200
19,950333	0,5	-2,028350
19,958667	0,5	-2,031000
19,967000	0,5	-2,034650
19,975333	0,5	-2,043400
19,983667	0,5	-2,047350
19,992000	0,5	-2,056000
20,000333	0,5	-2,072550
20,008667	0,5	-2,086650
20,017000	0,5	-2,100150
20,025333	0,5	-2,121700
20,033667	0,5	-2,134850
20,042000	0,5	-2,141600
20,050333	0,5	-2,155850
20,058667	0,5	-2,179700
20,067000	0,5	-2,195300
20,075333	0,5	-2,214950
20,083667	0,5	-2,232700
20,092000	0,5	-2,271600
20,100333	0,5	-2,300500
20,108667	0,5	-2,293600
20,117000	0,5	-2,306000
20,125333	0,5	-2,312250
20,133667	0,5	-2,322750
20,142000	0,5	-2,327350
20,150333	0,5	-2,340950
20,158667	0,5	-2,350150
20,167000	0,5	-2,364400
20,175333	0,5	-2,361500
20,183667	0,5	-2,350750
20,192000	0,5	-2,343650
20,200333	0,5	-2,348350
20,208667	0,5	-2,342750
20,217000	0,5	-2,349850
20,225333	0,5	-2,360350
20,233667	0,5	-2,399550
20,242000	0,5	-2,417700
20,250333	0,5	-2,437900
20,258667	0,5	-2,442950
20,267000	0,5	-2,478000
20,275333	0,5	-2,496300
20,283667	0,5	-2,504500
20,292000	0,5	-2,525250
20,300333	0,5	-2,538150
20,308667	0,5	-2,557850
20,317000	0,5	-2,578200
20,325333	0,5	-2,587600
20,333667	0,5	-2,594300
20,342000	0,5	-2,629200
20,350333	0,5	-2,646800
20,358667	0,5	-2,665000
20,367000	0,5	-2,692700
20,375333	0,5	-2,724100
20,383667	0,5	-2,770500
20,392000	0,5	-2,787800
20,400333	0,5	-2,816650
20,408667	0,5	-2,840600
20,417000	0,5	-2,862100
20,425333	0,5	-2,877700
20,433667	0,5	-2,893500
20,442000	0,5	-2,923050
20,450333	0,5	-2,950300
20,458667	0,5	-2,970350
20,467000	0,5	-2,998750
20,475333	0,5	-3,004350
20,483667	0,5	-3,014500
20,492000	0,5	-3,043300
20,500333	0,5	-3,064400
20,508667	0,5	-3,084050
20,517000	0,5	-3,108250
20,525333	0,5	-3,115000
20,533667	0,5	-3,141000
20,542000	0,5	-3,131000
20,550333	0,5	-3,125050
20,558667	0,5	-3,147950
20,567000	0,5	-3,186450
20,575333	0,5	-3,244200
20,583667	0,5	-3,293250
20,592000	0,5	-3,333250
20,600333	0,5	-3,374900
20,608667	0,5	-3,423800
20,617000	0,5	-3,458250
20,625333	0,5	-3,479250
20,633667	0,5	-3,504650
20,642000	0,5	-3,542550
20,650333	0,5	-3,585200
20,658667	0,5	-3,619150
20,667000	0,5	-3,661200
20,675333	0,5	-3,732950
20,683667	0,5	-3,756150
20,692000	0,5	-3,758650
20,700333	0,5	-3,754500
20,708667	0,5	-3,744900
20,717000	0,5	-3,727200
20,725333	0,5	-3,712950
20,733667	0,5	-3,717650
20,742000	0,5	-3,747800
20,750333	0,5	-3,812950
20,758667	0,5	-3,888450
20,767000	0,5	-3,937800
20,775333	0,5	-3,989700
20,783667	0,5	-4,061300
20,792000	0,5	-4,117450
20,800333	0,5	-4,179300
20,808667	0,5	-4,233800
20,817000	0,5	-4,299800
20,825333	0,5	-4,370650
20,833667	0,5	-4,414250
20,842000	0,5	-4,438750
20,850333	0,5	-4,477350
20,858667	0,5	-4,520350
20,867000	0,5	-4,563400
20,875333	0,5	-4,585450
20,883667	0,5	-4,619200
20,892000	0,5	-4,640800
20,900333	0,5	-4,667550
20,908667	0,5	-4,708750
20,917000	0,5	-4,712950
20,925333	0,5	-4,741950
20,933667	0,5	-4,796850
20,942000	0,5	-4,851800
20,950333	0,5	-4,896300
20,958667	0,5	-4,942300
20,967000	0,5	-4,990950
20,975333	0,5	-5,055700
20,983667	0,5	-5,080450
20,992000	0,5	-5,109700
21,000333	0,5	-5,136350
21,008667	0,5	-5,169500
21,017000	0,5	-5,190600
21,025333	0,5	-5,228350
21,033667	0,5	-5,249050
21,042000	0,5	-5,274300
21,050333	0,5	-5,307900
21,058667	0,5	-5,326450
21,067000	0,5	-5,316150
21,075333	0,5	-5,336350
21,083667	0,5	-5,370750
21,092000	0,5	-5,395300
21,100333	0,5	-5,437200
21,108667	0,5	-5,483450
21,117000	0,5	-5,550450
21,125333	0,5	-5,584350
21,133667	0,5	-5,611050
21,142000	0,5	-5,629850
21,150333	0,5	-5,669850
21,158667	0,5	-5,686350
21,167000	0,5	-5,715400
21,175333	0,5	-5,733700
21,183667	0,5	-5,772350
21,192000	0,5	-5,793550
21,200333	0,5	-5,814700
21,208667	0,5	-5,809000
21,217000	0,5	-5,807850
21,225333	0,5	-5,816350
21,233667	0,5	-5,844100
21,242000	0,5	-5,871900
21,250333	0,5	-5,903450
21,258667	0,5	-5,954900
21,267000	0,5	-5,975950
21,275333	0,5	-5,991650
21,283667	0,5	-5,984800
21,292000	0,5	-6,008950
21,300333	0,5	-6,017600
21,308667	0,5	-6,033950
21,317000	0,5	-6,053500
21,325333	0,5	-6,076550
21,333667	0,5	-6,115400
21,342000	0,5	-6,137400
21,350333	0,5	-6,157400
21,358667	0,5	-6,143900
21,367000	0,5	-6,160250
21,375333	0,5	-6,174800
21,383667	0,5	-6,205050
21,392000	0,5	-6,234400
21,400333	0,5	-6,265500
21,408667	0,5	-6,303150
21,417000	0,5	-6,333000
21,425333	0,5	-6,341600
21,433667	0,5	-6,362150
21,442000	0,5	-6,373300
21,450333	0,5	-6,389200
21,458667	0,5	-6,402700
21,467000	0,5	-6,430500
21,475333	0,5	-6,444700
21,483667	0,5	-6,468150
21,492000	0,5	-6,492350
21,500333	0,5	-6,478150
21,508667	0,5	-6,462150
21,517000	0,5	-6,480350
21,525333	0,5	-6,500050
21,533667	0,5	-6,510050
21,542000	0,5	-6,547200
21,550333	0,5	-6,583150
21,558667	0,5	-6,617600
21,567000	0,5	-6,626250
21,575333	0,5	-6,634000
21,583667	0,5	-6,645550
21,592000	0,5	-6,660350
21,600333	0,5	-6,663300
21,608667	0,5	-6,673400
21,617000	0,5	-6,671750
21,625333	0,5	-6,664350
21,633667	0,5	-6,675850
21,642000	0,5	-6,665050
21,650333	0,5	-6,623200
21,658667	0,5	-6,601750
21,667000	0,5	-6,604150
21,675333	0,5	-6,596150
21,683667	0,5	-6,624250
21,692000	0,5	-6,653150
21,700333	0,5	-6,713650
21,708667	0,5	-6,723500
21,717000	0,5	-6,716850
21,725333	0,5	-6,727300
21,733667	0,5	-6,742000
21,742000	0,5	-6,754500
21,750333	0,5	-6,765300
21,758667	0,5	-6,780750
21,767000	0,5	-6,790150
21,775333	0,5	-6,819050
21,783667	0,5	-6,827350
21,792000	0,5	-6,825650
21,800333	0,5	-6,817350
21,808667	0,5	-6,847300
21,817000	0,5	-6,840750
21,825333	0,5	-6,870100
21,833667	0,5	-6,876500
21,842000	0,5	-6,910700
21,850333	0,5	-6,938400
21,858667	0,5	-6,938800
21,867000	0,5	-6,942350
21,875333	0,5	-6,961400
21,883667	0,5	-6,969850
21,892000	0,5	-7,005050
21,900333	0,5	-7,014350
21,908667	0,5	-7,026850
21,917000	0,5	-6,999300
21,925333	0,5	-6,956800
21,933667	0,5	-6,924850
21,942000	0,5	-6,865050
21,950333	0,5	-6,875450
21,958667	0,5	-6,900850
21,967000	0,5	-6,943100
21,975333	0,5	-6,995550
21,983667	0,5	-7,061250
21,992000	0,5	-7,114050
22,000333	0,5	-7,163350
22,008667	0,5	-7,183500
22,017000	0,5	-7,224150
22,025333	0,5	-7,248550
22,033667	0,5	-7,286950
22,042000	0,5	-7,310300
22,050333	0,5	-7,339400
22,058667	0,5	-7,355800
22,067000	0,5	-7,390500
22,075333	0,5	-7,421600
22,083667	0,5	-7,422200
22,092000	0,5	-7,444100
22,100333	0,5	-7,462400
22,108667	0,5	-7,472850
22,117000	0,5	-7,490500
22,125333	0,5	-7,526850
22,133667	0,5	-7,547100
22,142000	0,5	-7,578650
22,150333	0,5	-7,601000
22,158667	0,5	-7,609400
22,167000	0,5	-7,621450
22,175333	0,5	-7,635250
22,183667	0,5	-7,640050
22,192000	0,5	-7,647050
22,200333	0,5	-7,653100
22,208667	0,5	-7,671200
22,217000	0,5	-7,682850
22,225333	0,5	-7,694100
22,233667	0,5	-7,700700
22,242000	0,5	-7,699750
22,250333	0,5	-7,684600
22,258667	0,5	-7,677750
22,267000	0,5	-7,679550
22,275333	0,5	-7,676100
22,283667	0,5	-7,689000
22,292000	0,5	-7,693050
22,300333	0,5	-7,679850
22,308667	0,5	-7,663150
22,317000	0,5	-7,653600
22,325333	0,5	-7,626950
22,333667	0,5	-7,622800
22,342000	0,5	-7,591450
22,350333	0,5	-7,548800
22,358667	0,5	-7,484400
22,367000	0,5	-7,390550
22,375333	0,5	-7,340600
22,383667	0,5	-7,330150
22,392000	0,5	-7,359650
22,400333	0,5	-7,389500
22,408667	0,5	-7,453550
22,417000	0,5	-7,499200
22,425333	0,5	-7,533800
22,433667	0,5	-7,570300
22,442000	0,5	-7,600650
22,450333	0,5	-7,607950
22,458667	0,5	-7,614800
22,467000	0,5	-7,625650
22,475333	0,5	-7,629500
22,483667	0,5	-7,634850
22,492000	0,5	-7,637850
22,500333	0,5	-7,632150
22,508667	0,5	-7,621400
22,517000	0,5	-7,628550
22,525333	0,5	-7,641450
22,533667	0,5	-7,637200
22,542000	0,5	-7,572350
22,550333	0,5	-7,547050
22,558667	0,5	-7,506300
22,567000	0,5	-7,475500
22,575333	0,5	-7,465100
22,583667	0,5	-7,447550
22,592000	0,5	-7,434800
22,600333	0,5	-7,419300
22,608667	0,5	-7,416400
22,617000	0,5	-7,405950
22,625333	0,5	-7,387550
22,633667	0,5	-7,426900
22,642000	0,5	-7,408650
22,650333	0,5	-7,407450
22,658667	0,5	-7,400800
22,667000	0,5	-7,444400
22,675333	0,5	-7,469150
22,683667	0,5	-7,457950
22,692000	0,5	-7,431700
22,700333	0,5	-7,444550
22,708667	0,5	-7,467600
22,717000	0,5	-7,466850
22,725333	0,5	-7,525550
22,733667	0,5	-7,507850
22,742000	0,5	-7,539450
22,750333	0,5	-7,524300
22,758667	0,5	-7,546850
22,767000	0,5	-7,562300
22,775333	0,5	-7,575350
22,783667	0,5	-7,585750
22,792000	0,5	-7,588400
22,800333	0,5	-7,595950
22,808667	0,5	-7,625600
22,817000	0,5	-7,721150
22,825333	0,5	-7,730750
22,833667	0,5	-7,738200
22,842000	0,5	-7,722900
22,850333	0,5	-7,774500
22,858667	0,5	-7,800450
22,867000	0,5	-7,825450
22,875333	0,5	-7,851050
22,883667	0,5	-7,873550
22,892000	0,5	-7,922350
22,900333	0,5	-7,910850
22,908667	0,5	-7,924500
22,917000	0,5	-7,923950
22,925333	0,5	-7,947250
22,933667	0,5	-7,959200
22,942000	0,5	-7,948450
22,950333	0,5	-7,936900
22,958667	0,5	-7,905350
22,967000	0,5	-7,895000
22,975333	0,5	-7,882000
22,983667	0,5	-7,879450
22,992000	0,5	-7,884600
23,000333	0,5	-7,881600
23,008667	0,5	-7,833050
23,017000	0,5	-7,808800
23,025333	0,5	-7,791300
23,033667	0,5	-7,773150
23,042000	0,5	-7,738600
23,050333	0,5	-7,676800
23,058667	0,5	-7,632150
23,067000	0,5	-7,580850
23,075333	0,5	-7,516050
23,083667	0,5	-7,452750
23,092000	0,5	-7,377300
23,100333	0,5	-7,292450
23,108667	0,5	-7,180750
23,117000	0,5	-7,108350
23,125333	0,5	-7,034200
23,133667	0,5	-7,004700
23,142000	0,5	-6,946300
23,150333	0,5	-6,856350
23,158667	0,5	-6,762800
23,167000	0,5	-6,685550
23,175333	0,5	-6,635750
23,183667	0,5	-6,550100
23,192000	0,5	-6,486200
23,200333	0,5	-6,398800
23,208667	0,5	-6,299900
23,217000	0,5	-6,218700
23,225333	0,5	-6,129400
23,233667	0,5	-6,038050
23,242000	0,5	-5,941600
23,250333	0,5	-5,827450
23,258667	0,5	-5,755850
23,267000	0,5	-5,623400
23,275333	0,5	-5,542350
23,283667	0,5	-5,504300
23,292000	0,5	-5,409800
23,300333	0,5	-5,340550
23,308667	0,5	-5,233500
23,317000	0,5	-5,169550
23,325333	0,5	-5,106900
23,333667	0,5	-5,045850
23,342000	0,5	-4,971850
23,350333	0,5	-4,913150
23,358667	0,5	-4,824050
23,367000	0,5	-4,757300
23,375333	0,5	-4,672250
23,383667	0,5	-4,608150
23,392000	0,5	-4,518000
23,400333	0,5	-4,450100
23,408667	0,5	-4,425300
23,417000	0,5	-4,302850
23,425333	0,5	-4,215800
23,433667	0,5	-4,170800
23,442000	0,5	-4,109000
23,450333	0,5	-4,042050
23,458667	0,5	-3,977400
23,467000	0,5	-3,928050
23,475333	0,5	-3,891550
23,483667	0,5	-3,836600
23,492000	0,5	-3,801600
23,500333	0,5	-3,741450
23,508667	0,5	-3,695600
23,517000	0,5	-3,659300
23,525333	0,5	-3,614300
23,533667	0,5	-3,567450
23,542000	0,5	-3,523900
23,550333	0,5	-3,580200
23,558667	0,5	-3,516700
23,567000	0,5	-3,418000
23,575333	0,5	-3,362750
23,583667	0,5	-3,326400
23,592000	0,5	-3,287400
23,600333	0,5	-3,246150
23,608667	0,5	-3,213550
23,617000	0,5	-3,182300
23,625333	0,5	-3,154900
23,633667	0,5	-3,126300
23,642000	0,5	-3,097000
23,650333	0,5	-3,066150
23,658667	0,5	-3,034400
23,667000	0,5	-3,006200
23,675333	0,5	-2,977700
23,683667	0,5	-2,947800
23,692000	0,5	-2,964000
23,700333	0,5	-3,034250
23,708667	0,5	-3,016900
23,717000	0,5	-2,916300
23,725333	0,5	-2,868800
23,733667	0,5	-2,827900
23,742000	0,5	-2,801950
23,750333	0,5	-2,786250
23,758667	0,5	-2,766050
23,767000	0,5	-2,743950
23,775333	0,5	-2,717250
23,783667	0,5	-2,692450
23,792000	0,5	-2,669050
23,800333	0,5	-2,645500
23,808667	0,5	-2,619650
23,817000	0,5	-2,596450
23,825333	0,5	-2,562300
23,833667	0,5	-2,538550
23,842000	0,5	-2,667500
23,850333	0,5	-2,647500
23,858667	0,5	-2,596250
23,867000	0,5	-2,509250
23,875333	0,5	-2,462600
23,883667	0,5	-2,427100
23,892000	0,5	-2,396600
23,900333	0,5	-2,397200
23,908667	0,5	-2,365300
23,917000	0,5	-2,344050
23,925333	0,5	-2,318700
23,933667	0,5	-2,293100
23,942000	0,5	-2,275150
23,950333	0,5	-2,253550
23,958667	0,5	-2,231550
23,967000	0,5	-2,202200
23,975333	0,5	-2,183150
23,983667	0,5	-2,172400
23,992000	0,5	-2,326400
24,000333	0,5	-2,264300
24,008667	0,5	-2,231000
24,017000	0,5	-2,156950
24,025333	0,5	-2,112750
24,033667	0,5	-2,077300
24,042000	0,5	-2,060450
24,050333	0,5	-2,048500
24,058667	0,5	-2,012100
24,067000	0,5	-1,983350
24,075333	0,5	-1,960050
24,083667	0,5	-1,927750
24,092000	0,5	-1,901350
24,100333	0,5	-1,872200
24,108667	0,5	-1,852000
24,117000	0,5	-1,827900
24,125333	0,5	-1,799900
24,133667	0,5	-1,870000
24,142000	0,5	-1,910300
24,150333	0,5	-1,875600
24,158667	0,5	-1,818950
24,167000	0,5	-1,763400
24,175333	0,5	-1,729750
24,183667	0,5	-1,709000
24,192000	0,5	-1,702600
24,200333	0,5	-1,699350
24,208667	0,5	-1,663200
24,217000	0,5	-1,652650
24,225333	0,5	-1,623000
24,233667	0,5	-1,605550
24,242000	0,5	-1,569950
24,250333	0,5	-1,553250
24,258667	0,5	-1,521850
24,267000	0,5	-1,493750
24,275333	0,5	-1,478050
24,283667	0,5	-1,568550
24,292000	0,5	-1,550000
24,300333	0,5	-1,512700
24,308667	0,5	-1,456300
24,317000	0,5	-1,422650
24,325333	0,5	-1,394500
24,333667	0,5	-1,375700
24,342000	0,5	-1,381600
24,350333	0,5	-1,358300
24,358667	0,5	-1,338900
24,367000	0,5	-1,315450
24,375333	0,5	-1,301200
24,383667	0,5	-1,281450
24,392000	0,5	-1,265550
24,400333	0,5	-1,252600
24,408667	0,5	-1,235250
24,417000	0,5	-1,217750
24,425333	0,5	-1,220150
24,433667	0,5	-1,293000
24,442000	0,5	-1,269150
24,450333	0,5	-1,235100
24,458667	0,5	-1,192200
24,467000	0,5	-1,162550
24,475333	0,5	-1,140700
24,483667	0,5	-1,137550
24,492000	0,5	-1,126800
24,500333	0,5	-1,120900
24,508667	0,5	-1,091900
24,517000	0,5	-1,090000
24,525333	0,5	-1,064850
24,533667	0,5	-1,047700
24,542000	0,5	-1,026450
24,550333	0,5	-1,014650
24,558667	0,5	-0,992950
24,567000	0,5	-0,979150
24,575333	0,5	-1,008900
24,583667	0,5	-1,017200
24,592000	0,5	-1,008700
24,600333	0,5	-0,976700
24,608667	0,5	-0,953300
24,617000	0,5	-0,939900
24,625333	0,5	-0,934700
24,633667	0,5	-0,939700
24,642000	0,5	-0,932350
24,650333	0,5	-0,915600
24,658667	0,5	-0,903550
24,667000	0,5	-0,892350
24,675333	0,5	-0,885500
24,683667	0,5	-0,873750
24,692000	0,5	-0,863550
24,700333	0,5	-0,841900
24,708667	0,5	-0,836050
24,717000	0,5	-0,826150
24,725333	0,5	-0,863400
24,733667	0,5	-0,847950
24,742000	0,5	-0,834450
24,750333	0,5	-0,803450
24,758667	0,5	-0,786000
24,767000	0,5	-0,774650
24,775333	0,5	-0,766400
24,783667	0,5	-0,771850
24,792000	0,5	-0,753350
24,800333	0,5	-0,749550
24,808667	0,5	-0,746300
24,817000	0,5	-0,751850
24,825333	0,5	-0,736000
24,833667	0,5	-0,739650
24,842000	0,5	-0,731700
24,850333	0,5	-0,721250
24,858667	0,5	-0,717350
24,867000	0,5	-0,721200
24,875333	0,5	-0,738900
24,883667	0,5	-0,732500
24,892000	0,5	-0,715700
24,900333	0,5	-0,700400
24,908667	0,5	-0,687450
24,917000	0,5	-0,687800
24,925333	0,5	-0,685900
24,933667	0,5	-0,682350
24,942000	0,5	-0,669400
24,950333	0,5	-0,659800
24,958667	0,5	-0,654550
24,967000	0,5	-0,649800
24,975333	0,5	-0,639700
24,983667	0,5	-0,633900
24,992000	0,5	-0,634650
25,000333	0,5	-0,629700
25,008667	0,5	-0,631650
25,017000	0,5	-0,644000
25,025333	0,5	-0,641100
25,033667	0,5	-0,638600
25,042000	0,5	-0,635200
25,050333	0,5	-0,630250
25,058667	0,5	-0,627800
25,067000	0,5	-0,620500
25,075333	0,5	-0,624350
25,083667	0,5	-0,623300
25,092000	0,5	-0,612200
25,100333	0,5	-0,607300
25,108667	0,5	-0,608950
25,117000	0,5	-0,599300
25,125333	0,5	-0,599300
25,133667	0,5	-0,594450
25,142000	0,5	-0,588700
25,150333	0,5	-0,584450
25,158667	0,5	-0,581900
25,167000	0,5	-0,590100
25,175333	0,5	-0,584300
25,183667	0,5	-0,579300
25,192000	0,5	-0,576650
25,200333	0,5	-0,574700
25,208667	0,5	-0,576300
25,217000	0,5	-0,577350
25,225333	0,5	-0,584100
25,233667	0,5	-0,583850
25,242000	0,5	-0,584650
25,250333	0,5	-0,584950
25,258667	0,5	-0,584700
25,267000	0,5	-0,580300
25,275333	0,5	-0,576850
25,283667	0,5	-0,574500
25,292000	0,5	-0,566100
25,300333	0,5	-0,564250
25,308667	0,5	-0,565000
25,317000	0,5	-0,555300
25,325333	0,5	-0,548750
25,333667	0,5	-0,551900
25,342000	0,5	-0,549250
25,350333	0,5	-0,549350
25,358667	0,5	-0,545950
25,367000	0,5	-0,543550
25,375333	0,5	-0,542150
25,383667	0,5	-0,544500
25,392000	0,5	-0,543400
25,400333	0,5	-0,547300
25,408667	0,5	-0,546100
25,417000	0,5	-0,542250
25,425333	0,5	-0,548750
25,433667	0,5	-0,549100
25,442000	0,5	-0,546800
25,450333	0,5	-0,547900
25,458667	0,5	-0,547200
25,467000	0,5	-0,540650
25,475333	0,5	-0,540250
25,483667	0,5	-0,537750
25,492000	0,5	-0,539100
25,500333	0,5	-0,536450
25,508667	0,5	-0,539000
25,517000	0,5	-0,530050
25,525333	0,5	-0,525000
25,533667	0,5	-0,521450
25,542000	0,5	-0,525450
25,550333	0,5	-0,524200
25,558667	0,5	-0,523200
25,567000	0,5	-0,523800
25,575333	0,5	-0,524900
25,583667	0,5	-0,524300
25,592000	0,5	-0,526800
25,600333	0,5	-0,520550
25,608667	0,5	-0,517300
25,617000	0,5	-0,512900
25,625333	0,5	-0,504650
25,633667	0,5	-0,517650
25,642000	0,5	-0,521550
25,650333	0,5	-0,528050
25,658667	0,5	-0,523450
25,667000	0,5	-0,513550
25,675333	0,5	-0,512100
25,683667	0,5	-0,514450
25,692000	0,5	-0,513850
25,700333	0,5	-0,513850
25,708667	0,5	-0,508850
25,717000	0,5	-0,502950
25,725333	0,5	-0,504650
25,733667	0,5	-0,505100
25,742000	0,5	-0,503250
25,750333	0,5	-0,501300
25,758667	0,5	-0,490700
25,767000	0,5	-0,490150
25,775333	0,5	-0,483750
25,783667	0,5	-0,491850
25,792000	0,5	-0,492850
25,800333	0,5	-0,491750
25,808667	0,5	-0,484650
25,817000	0,5	-0,479750
25,825333	0,5	-0,480550
25,833667	0,5	-0,480750
25,842000	0,5	-0,482100
25,850333	0,5	-0,476650
25,858667	0,5	-0,481100
25,867000	0,5	-0,474900
25,875333	0,5	-0,476350
25,883667	0,5	-0,468800
25,892000	0,5	-0,470200
25,900333	0,5	-0,459300
25,908667	0,5	-0,458900
25,917000	0,5	-0,440700
25,925333	0,5	-0,446900
25,933667	0,5	-0,451000
25,942000	0,5	-0,448400
25,950333	0,5	-0,443950
25,958667	0,5	-0,432900
25,967000	0,5	-0,423250
25,975333	0,5	-0,431750
25,983667	0,5	-0,430150
25,992000	0,5	-0,426750
26,000333	0,5	-0,431050
