File Path	chrom://chromeleon01/ikbm_chromeleon/2022/ICS-5000/ED1/Esteban/20220427_Cell_Amandas_mutants.seq/478.smp/ED_1.channel/ED_1.chm
Channel	ED_1

Injection Information:
Data Vault	ikbm_chromeleon
Injection	T24h_Avi_2a
Injection Number	33
Position	RD3
Comment	
Processing Method	Stop sequence after Cell Death
Instrument Method	ICS5000_PA200_FullNative_Ox_26min_ED1
Type	Unknown
Status	Finished
Injection Date	28.04.2022
Injection Time	04:11:47
Injection Volume (µl)	5,0
Dilution Factor	1,0000
Weight	1,0000

Chromatogram Data Information:
Time Min. (min)	0,000167
Time Max. (min)	26,000167
Data Points	3121
Detector	EDet1
Generating Data System	Chromeleon 7.2.9.11323
Exporting Data System	Chromeleon 7.2.9.0
Operator	Instrument Controller
Signal Quantity	
Signal Unit	nC
Signal Min.	-7,923150
Signal Max.	35,566651
Channel	ED_1
Driver Name	DC-5000
Channel Type	Evaluation
Min. Step (s)	0,5
Max. Step (s)	0,5
Average Step (s)	0,5

Signal Parameter Information:
Signal Info	

Chromatogram Data:
Time (min)	Step (s)	Value (nC)
0,000167	n.a.	-0,050450
0,008500	0,5	-0,071650
0,016833	0,5	-0,069100
0,025167	0,5	-0,041500
0,033500	0,5	-0,055050
0,041833	0,5	-0,052400
0,050167	0,5	-0,050850
0,058500	0,5	-0,016350
0,066833	0,5	0,023900
0,075167	0,5	0,037800
0,083500	0,5	0,016000
0,091833	0,5	0,020200
0,100167	0,5	0,006700
0,108500	0,5	0,010600
0,116833	0,5	-0,001500
0,125167	0,5	0,007900
0,133500	0,5	-0,006850
0,141833	0,5	-0,006400
0,150167	0,5	0,023900
0,158500	0,5	0,040400
0,166833	0,5	0,033750
0,175167	0,5	0,040500
0,183500	0,5	0,003450
0,191833	0,5	-0,000950
0,200167	0,5	-0,007600
0,208500	0,5	0,022050
0,216833	0,5	0,060400
0,225167	0,5	0,040200
0,233500	0,5	0,038000
0,241833	0,5	0,019850
0,250167	0,5	0,040400
0,258500	0,5	0,019800
0,266833	0,5	0,024900
0,275167	0,5	0,012400
0,283500	0,5	0,010200
0,291833	0,5	0,007250
0,300167	0,5	0,038000
0,308500	0,5	0,078150
0,316833	0,5	0,077150
0,325167	0,5	0,011250
0,333500	0,5	-0,017750
0,341833	0,5	-0,024200
0,350167	0,5	-0,012150
0,358500	0,5	0,021850
0,366833	0,5	0,031800
0,375167	0,5	0,021950
0,383500	0,5	0,003850
0,391833	0,5	0,014100
0,400167	0,5	-0,000050
0,408500	0,5	0,001400
0,416833	0,5	-0,008400
0,425167	0,5	-0,012650
0,433500	0,5	-0,019900
0,441833	0,5	-0,009900
0,450167	0,5	0,004650
0,458500	0,5	0,009400
0,466833	0,5	0,024100
0,475167	0,5	-0,002000
0,483500	0,5	-0,029800
0,491833	0,5	-0,023800
0,500167	0,5	-0,018400
0,508500	0,5	0,018450
0,516833	0,5	0,017600
0,525167	0,5	-0,003550
0,533500	0,5	-0,002700
0,541833	0,5	-0,006450
0,550167	0,5	-0,003750
0,558500	0,5	-0,010250
0,566833	0,5	-0,006850
0,575167	0,5	-0,020550
0,583500	0,5	-0,014050
0,591833	0,5	-0,011900
0,600167	0,5	-0,009400
0,608500	0,5	-0,017700
0,616833	0,5	0,012500
0,625167	0,5	-0,024000
0,633500	0,5	-0,025950
0,641833	0,5	-0,024700
0,650167	0,5	0,002400
0,658500	0,5	0,023200
0,666833	0,5	0,004250
0,675167	0,5	-0,009200
0,683500	0,5	-0,005400
0,691833	0,5	-0,006550
0,700167	0,5	-0,010150
0,708500	0,5	-0,008700
0,716833	0,5	-0,008950
0,725167	0,5	-0,016900
0,733500	0,5	-0,013950
0,741833	0,5	-0,001850
0,750167	0,5	-0,018800
0,758500	0,5	0,010250
0,766833	0,5	-0,003600
0,775167	0,5	-0,016800
0,783500	0,5	-0,029500
0,791833	0,5	-0,011750
0,800167	0,5	0,013600
0,808500	0,5	0,040350
0,816833	0,5	0,007950
0,825167	0,5	0,015950
0,833500	0,5	0,017550
0,841833	0,5	0,013550
0,850167	0,5	0,016000
0,858500	0,5	0,014300
0,866833	0,5	0,010250
0,875167	0,5	0,008300
0,883500	0,5	0,020400
0,891833	0,5	0,008250
0,900167	0,5	-0,001100
0,908500	0,5	0,021650
0,916833	0,5	0,009350
0,925167	0,5	0,006150
0,933500	0,5	0,006750
0,941833	0,5	0,020300
0,950167	0,5	0,077950
0,958500	0,5	0,071250
0,966833	0,5	0,060350
0,975167	0,5	0,046700
0,983500	0,5	0,058700
0,991833	0,5	0,046650
1,000167	0,5	0,058750
1,008500	0,5	0,055300
1,016833	0,5	0,055600
1,025167	0,5	0,048850
1,033500	0,5	0,056700
1,041833	0,5	0,068300
1,050167	0,5	0,062900
1,058500	0,5	0,078550
1,066833	0,5	0,054900
1,075167	0,5	0,051900
1,083500	0,5	0,049550
1,091833	0,5	0,073600
1,100167	0,5	0,108400
1,108500	0,5	0,117100
1,116833	0,5	0,098900
1,125167	0,5	0,113250
1,133500	0,5	0,104950
1,141833	0,5	0,103450
1,150167	0,5	0,101700
1,158500	0,5	0,112850
1,166833	0,5	0,104350
1,175167	0,5	0,109400
1,183500	0,5	0,110650
1,191833	0,5	0,105800
1,200167	0,5	0,102650
1,208500	0,5	0,128050
1,216833	0,5	0,098350
1,225167	0,5	0,105000
1,233500	0,5	0,108500
1,241833	0,5	0,146250
1,250167	0,5	0,190600
1,258500	0,5	0,176600
1,266833	0,5	0,170800
1,275167	0,5	0,170200
1,283500	0,5	0,171900
1,291833	0,5	0,166850
1,300167	0,5	0,180250
1,308500	0,5	0,178900
1,316833	0,5	0,182800
1,325167	0,5	0,183100
1,333500	0,5	0,176350
1,341833	0,5	0,167550
1,350167	0,5	0,202750
1,358500	0,5	0,199350
1,366833	0,5	0,188150
1,375167	0,5	0,194350
1,383500	0,5	0,211950
1,391833	0,5	0,248150
1,400167	0,5	0,273500
1,408500	0,5	0,273350
1,416833	0,5	0,275750
1,425167	0,5	0,274100
1,433500	0,5	0,276600
1,441833	0,5	0,292650
1,450167	0,5	0,296050
1,458500	0,5	0,294300
1,466833	0,5	0,291200
1,475167	0,5	0,309400
1,483500	0,5	0,292650
1,491833	0,5	0,301650
1,500167	0,5	0,336300
1,508500	0,5	0,330550
1,516833	0,5	0,316350
1,525167	0,5	0,331300
1,533500	0,5	0,350300
1,541833	0,5	0,395900
1,550167	0,5	0,405050
1,558500	0,5	0,403900
1,566833	0,5	0,365350
1,575167	0,5	0,197100
1,583500	0,5	-0,413250
1,591833	0,5	-1,505550
1,600167	0,5	-2,101100
1,608500	0,5	-0,999850
1,616833	0,5	1,165050
1,625167	0,5	3,061100
1,633500	0,5	4,841150
1,641833	0,5	6,770800
1,650167	0,5	8,375400
1,658500	0,5	9,033500
1,666833	0,5	8,866800
1,675167	0,5	8,302850
1,683500	0,5	7,646750
1,691833	0,5	6,982200
1,700167	0,5	6,351300
1,708500	0,5	5,799700
1,716833	0,5	5,376600
1,725167	0,5	5,072750
1,733500	0,5	4,872950
1,741833	0,5	4,602900
1,750167	0,5	4,215000
1,758500	0,5	3,808550
1,766833	0,5	3,520100
1,775167	0,5	3,457050
1,783500	0,5	3,784650
1,791833	0,5	4,986350
1,800167	0,5	7,232700
1,808500	0,5	9,795350
1,816833	0,5	11,589500
1,825167	0,5	12,261250
1,833500	0,5	11,691250
1,841833	0,5	10,207950
1,850167	0,5	8,571200
1,858500	0,5	7,293000
1,866833	0,5	6,346200
1,875167	0,5	5,684600
1,883500	0,5	5,190450
1,891833	0,5	4,818300
1,900167	0,5	4,506500
1,908500	0,5	4,255600
1,916833	0,5	4,040500
1,925167	0,5	3,832150
1,933500	0,5	3,659100
1,941833	0,5	3,618200
1,950167	0,5	3,608050
1,958500	0,5	3,659250
1,966833	0,5	3,666700
1,975167	0,5	3,623450
1,983500	0,5	3,598500
1,991833	0,5	3,569750
2,000167	0,5	3,601700
2,008500	0,5	3,671050
2,016833	0,5	3,814350
2,025167	0,5	4,018450
2,033500	0,5	4,410400
2,041833	0,5	5,094500
2,050167	0,5	6,038950
2,058500	0,5	7,087550
2,066833	0,5	8,311100
2,075167	0,5	9,537300
2,083500	0,5	10,233800
2,091833	0,5	10,187650
2,100167	0,5	9,729600
2,108500	0,5	9,309800
2,116833	0,5	9,044100
2,125167	0,5	8,976950
2,133500	0,5	9,088150
2,141833	0,5	9,403600
2,150167	0,5	10,099550
2,158500	0,5	11,486300
2,166833	0,5	13,180750
2,175167	0,5	13,998100
2,183500	0,5	13,370350
2,191833	0,5	12,019700
2,200167	0,5	10,774950
2,208500	0,5	9,885200
2,216833	0,5	9,224600
2,225167	0,5	8,726000
2,233500	0,5	8,370100
2,241833	0,5	8,155450
2,250167	0,5	7,983850
2,258500	0,5	7,905650
2,266833	0,5	7,880150
2,275167	0,5	7,919450
2,283500	0,5	7,982250
2,291833	0,5	8,018500
2,300167	0,5	8,049650
2,308500	0,5	8,077150
2,316833	0,5	8,105550
2,325167	0,5	8,137700
2,333500	0,5	8,186050
2,341833	0,5	8,224200
2,350167	0,5	8,269950
2,358500	0,5	8,303900
2,366833	0,5	8,343900
2,375167	0,5	8,382400
2,383500	0,5	8,466750
2,391833	0,5	8,523400
2,400167	0,5	8,587850
2,408500	0,5	8,676350
2,416833	0,5	8,803550
2,425167	0,5	8,982400
2,433500	0,5	9,193650
2,441833	0,5	9,423700
2,450167	0,5	9,655050
2,458500	0,5	9,836800
2,466833	0,5	9,946050
2,475167	0,5	9,902950
2,483500	0,5	9,775800
2,491833	0,5	9,674000
2,500167	0,5	9,628650
2,508500	0,5	9,620700
2,516833	0,5	9,592400
2,525167	0,5	9,595900
2,533500	0,5	9,601050
2,541833	0,5	9,577400
2,550167	0,5	9,553650
2,558500	0,5	9,561400
2,566833	0,5	9,563150
2,575167	0,5	9,742550
2,583500	0,5	9,923950
2,591833	0,5	10,247100
2,600167	0,5	10,808450
2,608500	0,5	11,827500
2,616833	0,5	13,591000
2,625167	0,5	16,307350
2,633500	0,5	19,712100
2,641833	0,5	23,058900
2,650167	0,5	25,465900
2,658500	0,5	26,420450
2,666833	0,5	25,942500
2,675167	0,5	24,425700
2,683500	0,5	22,365600
2,691833	0,5	20,245050
2,700167	0,5	18,382600
2,708500	0,5	16,945900
2,716833	0,5	16,006400
2,725167	0,5	15,586400
2,733500	0,5	15,827150
2,741833	0,5	16,885200
2,750167	0,5	18,876650
2,758500	0,5	21,745700
2,766833	0,5	25,406050
2,775167	0,5	29,508200
2,783500	0,5	33,284800
2,791833	0,5	35,566651
2,800167	0,5	35,540901
2,808500	0,5	33,295550
2,816833	0,5	29,676450
2,825167	0,5	25,819350
2,833500	0,5	22,400950
2,841833	0,5	19,839800
2,850167	0,5	18,290600
2,858500	0,5	17,961900
2,866833	0,5	19,114600
2,875167	0,5	21,658700
2,883500	0,5	24,786800
2,891833	0,5	27,115250
2,900167	0,5	27,463800
2,908500	0,5	25,744250
2,916833	0,5	22,721350
2,925167	0,5	19,422000
2,933500	0,5	16,437600
2,941833	0,5	14,037300
2,950167	0,5	12,180550
2,958500	0,5	10,755700
2,966833	0,5	9,652000
2,975167	0,5	8,833150
2,983500	0,5	8,135050
2,991833	0,5	7,582050
3,000167	0,5	7,123500
3,008500	0,5	6,744750
3,016833	0,5	6,436500
3,025167	0,5	6,128250
3,033500	0,5	5,851250
3,041833	0,5	5,616050
3,050167	0,5	5,411050
3,058500	0,5	5,216550
3,066833	0,5	5,063850
3,075167	0,5	4,917700
3,083500	0,5	4,798300
3,091833	0,5	4,688450
3,100167	0,5	4,595700
3,108500	0,5	4,487600
3,116833	0,5	4,387700
3,125167	0,5	4,272150
3,133500	0,5	4,121200
3,141833	0,5	3,974000
3,150167	0,5	3,841050
3,158500	0,5	3,745050
3,166833	0,5	3,696300
3,175167	0,5	3,653900
3,183500	0,5	3,654300
3,191833	0,5	3,709750
3,200167	0,5	3,843150
3,208500	0,5	4,128300
3,216833	0,5	4,671750
3,225167	0,5	5,584650
3,233500	0,5	6,897550
3,241833	0,5	8,499200
3,250167	0,5	9,989950
3,258500	0,5	10,969900
3,266833	0,5	11,164450
3,275167	0,5	10,551450
3,283500	0,5	9,344200
3,291833	0,5	7,934750
3,300167	0,5	6,590400
3,308500	0,5	5,493800
3,316833	0,5	4,642500
3,325167	0,5	3,984950
3,333500	0,5	3,492900
3,341833	0,5	3,129500
3,350167	0,5	2,837150
3,358500	0,5	2,602300
3,366833	0,5	2,411950
3,375167	0,5	2,245650
3,383500	0,5	2,116550
3,391833	0,5	1,998950
3,400167	0,5	1,900600
3,408500	0,5	1,817100
3,416833	0,5	1,771650
3,425167	0,5	1,693750
3,433500	0,5	1,634250
3,441833	0,5	1,582650
3,450167	0,5	1,552400
3,458500	0,5	1,513550
3,466833	0,5	1,464400
3,475167	0,5	1,397800
3,483500	0,5	1,351200
3,491833	0,5	1,295800
3,500167	0,5	1,253300
3,508500	0,5	1,208950
3,516833	0,5	1,168900
3,525167	0,5	1,125050
3,533500	0,5	1,092100
3,541833	0,5	1,066200
3,550167	0,5	1,026050
3,558500	0,5	1,008850
3,566833	0,5	0,992450
3,575167	0,5	0,953050
3,583500	0,5	0,918900
3,591833	0,5	0,899700
3,600167	0,5	0,903700
3,608500	0,5	0,904350
3,616833	0,5	0,870050
3,625167	0,5	0,855150
3,633500	0,5	0,826050
3,641833	0,5	0,810800
3,650167	0,5	0,788150
3,658500	0,5	0,777550
3,666833	0,5	0,755800
3,675167	0,5	0,739350
3,683500	0,5	0,720650
3,691833	0,5	0,713500
3,700167	0,5	0,687200
3,708500	0,5	0,696600
3,716833	0,5	0,673900
3,725167	0,5	0,651550
3,733500	0,5	0,631700
3,741833	0,5	0,628050
3,750167	0,5	0,655050
3,758500	0,5	0,641900
3,766833	0,5	0,631800
3,775167	0,5	0,615150
3,783500	0,5	0,617700
3,791833	0,5	0,611000
3,800167	0,5	0,611750
3,808500	0,5	0,603700
3,816833	0,5	0,594750
3,825167	0,5	0,584850
3,833500	0,5	0,579750
3,841833	0,5	0,578650
3,850167	0,5	0,561200
3,858500	0,5	0,578550
3,866833	0,5	0,554350
3,875167	0,5	0,530250
3,883500	0,5	0,518350
3,891833	0,5	0,519000
3,900167	0,5	0,543600
3,908500	0,5	0,534300
3,916833	0,5	0,513900
3,925167	0,5	0,516300
3,933500	0,5	0,506800
3,941833	0,5	0,506150
3,950167	0,5	0,501500
3,958500	0,5	0,503850
3,966833	0,5	0,489100
3,975167	0,5	0,497750
3,983500	0,5	0,496550
3,991833	0,5	0,499500
4,000167	0,5	0,480400
4,008500	0,5	0,510000
4,016833	0,5	0,478750
4,025167	0,5	0,481650
4,033500	0,5	0,481900
4,041833	0,5	0,500500
4,050167	0,5	0,529050
4,058500	0,5	0,522500
4,066833	0,5	0,508300
4,075167	0,5	0,507900
4,083500	0,5	0,505650
4,091833	0,5	0,503850
4,100167	0,5	0,507900
4,108500	0,5	0,498250
4,116833	0,5	0,499600
4,125167	0,5	0,501550
4,133500	0,5	0,508300
4,141833	0,5	0,497100
4,150167	0,5	0,506950
4,158500	0,5	0,519450
4,166833	0,5	0,500800
4,175167	0,5	0,503050
4,183500	0,5	0,510050
4,191833	0,5	0,525700
4,200167	0,5	0,545150
4,208500	0,5	0,534650
4,216833	0,5	0,536300
4,225167	0,5	0,537850
4,233500	0,5	0,540350
4,241833	0,5	0,537400
4,250167	0,5	0,550350
4,258500	0,5	0,563400
4,266833	0,5	0,573300
4,275167	0,5	0,595400
4,283500	0,5	0,612150
4,291833	0,5	0,639200
4,300167	0,5	0,690600
4,308500	0,5	0,733050
4,316833	0,5	0,766550
4,325167	0,5	0,825900
4,333500	0,5	0,887600
4,341833	0,5	0,976800
4,350167	0,5	1,041000
4,358500	0,5	1,104150
4,366833	0,5	1,153700
4,375167	0,5	1,217800
4,383500	0,5	1,282800
4,391833	0,5	1,360300
4,400167	0,5	1,435700
4,408500	0,5	1,518100
4,416833	0,5	1,587250
4,425167	0,5	1,631100
4,433500	0,5	1,657450
4,441833	0,5	1,633700
4,450167	0,5	1,587200
4,458500	0,5	1,506150
4,466833	0,5	1,407500
4,475167	0,5	1,307200
4,483500	0,5	1,229050
4,491833	0,5	1,158200
4,500167	0,5	1,094600
4,508500	0,5	1,020600
4,516833	0,5	0,975500
4,525167	0,5	0,929300
4,533500	0,5	0,902150
4,541833	0,5	0,873650
4,550167	0,5	0,856000
4,558500	0,5	0,834250
4,566833	0,5	0,822650
4,575167	0,5	0,816850
4,583500	0,5	0,800050
4,591833	0,5	0,805450
4,600167	0,5	0,807600
4,608500	0,5	0,788700
4,616833	0,5	0,784050
4,625167	0,5	0,790500
4,633500	0,5	0,814750
4,641833	0,5	0,836400
4,650167	0,5	0,828750
4,658500	0,5	0,834750
4,666833	0,5	0,837000
4,675167	0,5	0,841500
4,683500	0,5	0,840850
4,691833	0,5	0,850200
4,700167	0,5	0,859500
4,708500	0,5	0,864200
4,716833	0,5	0,868100
4,725167	0,5	0,874500
4,733500	0,5	0,860500
4,741833	0,5	0,889650
4,750167	0,5	0,878400
4,758500	0,5	0,874450
4,766833	0,5	0,872050
4,775167	0,5	0,882300
4,783500	0,5	0,908800
4,791833	0,5	0,906000
4,800167	0,5	0,901450
4,808500	0,5	0,899900
4,816833	0,5	0,905850
4,825167	0,5	0,912850
4,833500	0,5	0,920050
4,841833	0,5	0,923450
4,850167	0,5	0,926450
4,858500	0,5	0,926850
4,866833	0,5	0,948250
4,875167	0,5	0,942800
4,883500	0,5	0,946750
4,891833	0,5	0,971900
4,900167	0,5	0,963650
4,908500	0,5	0,966200
4,916833	0,5	0,973400
4,925167	0,5	0,984700
4,933500	0,5	1,023750
4,941833	0,5	1,024900
4,950167	0,5	1,027800
4,958500	0,5	1,034500
4,966833	0,5	1,043850
4,975167	0,5	1,053500
4,983500	0,5	1,056750
4,991833	0,5	1,066450
5,000167	0,5	1,069100
5,008500	0,5	1,082750
5,016833	0,5	1,084100
5,025167	0,5	1,093150
5,033500	0,5	1,095750
5,041833	0,5	1,118600
5,050167	0,5	1,108250
5,058500	0,5	1,116500
5,066833	0,5	1,130400
5,075167	0,5	1,155650
5,083500	0,5	1,188450
5,091833	0,5	1,188700
5,100167	0,5	1,193900
5,108500	0,5	1,218000
5,116833	0,5	1,237000
5,125167	0,5	1,268350
5,133500	0,5	1,296100
5,141833	0,5	1,327100
5,150167	0,5	1,355100
5,158500	0,5	1,382350
5,166833	0,5	1,408800
5,175167	0,5	1,407500
5,183500	0,5	1,415300
5,191833	0,5	1,416550
5,200167	0,5	1,398650
5,208500	0,5	1,383850
5,216833	0,5	1,379550
5,225167	0,5	1,382800
5,233500	0,5	1,388850
5,241833	0,5	1,372150
5,250167	0,5	1,362650
5,258500	0,5	1,354450
5,266833	0,5	1,354450
5,275167	0,5	1,351650
5,283500	0,5	1,354200
5,291833	0,5	1,348250
5,300167	0,5	1,355350
5,308500	0,5	1,360350
5,316833	0,5	1,347350
5,325167	0,5	1,348250
5,333500	0,5	1,361200
5,341833	0,5	1,358900
5,350167	0,5	1,355200
5,358500	0,5	1,359900
5,366833	0,5	1,373150
5,375167	0,5	1,406200
5,383500	0,5	1,403400
5,391833	0,5	1,411600
5,400167	0,5	1,400450
5,408500	0,5	1,404100
5,416833	0,5	1,397150
5,425167	0,5	1,396150
5,433500	0,5	1,399600
5,441833	0,5	1,400000
5,450167	0,5	1,395600
5,458500	0,5	1,395200
5,466833	0,5	1,379350
5,475167	0,5	1,385500
5,483500	0,5	1,389450
5,491833	0,5	1,385100
5,500167	0,5	1,380050
5,508500	0,5	1,381650
5,516833	0,5	1,399850
5,525167	0,5	1,412600
5,533500	0,5	1,419100
5,541833	0,5	1,408200
5,550167	0,5	1,411150
5,558500	0,5	1,404800
5,566833	0,5	1,406800
5,575167	0,5	1,403250
5,583500	0,5	1,410800
5,591833	0,5	1,400800
5,600167	0,5	1,401450
5,608500	0,5	1,400500
5,616833	0,5	1,387950
5,625167	0,5	1,396500
5,633500	0,5	1,397150
5,641833	0,5	1,384050
5,650167	0,5	1,378050
5,658500	0,5	1,374750
5,666833	0,5	1,391350
5,675167	0,5	1,394150
5,683500	0,5	1,390700
5,691833	0,5	1,382850
5,700167	0,5	1,378600
5,708500	0,5	1,367450
5,716833	0,5	1,354350
5,725167	0,5	1,349600
5,733500	0,5	1,340000
5,741833	0,5	1,332400
5,750167	0,5	1,327450
5,758500	0,5	1,314800
5,766833	0,5	1,296550
5,775167	0,5	1,305350
5,783500	0,5	1,288650
5,791833	0,5	1,277950
5,800167	0,5	1,266900
5,808500	0,5	1,267900
5,816833	0,5	1,282500
5,825167	0,5	1,268200
5,833500	0,5	1,256650
5,841833	0,5	1,249900
5,850167	0,5	1,240550
5,858500	0,5	1,232100
5,866833	0,5	1,228150
5,875167	0,5	1,223500
5,883500	0,5	1,227450
5,891833	0,5	1,219900
5,900167	0,5	1,227800
5,908500	0,5	1,225200
5,916833	0,5	1,236800
5,925167	0,5	1,273200
5,933500	0,5	1,298650
5,941833	0,5	1,327900
5,950167	0,5	1,367950
5,958500	0,5	1,405450
5,966833	0,5	1,447900
5,975167	0,5	1,440900
5,983500	0,5	1,432600
5,991833	0,5	1,401900
6,000167	0,5	1,361150
6,008500	0,5	1,307100
6,016833	0,5	1,261900
6,025167	0,5	1,215350
6,033500	0,5	1,178400
6,041833	0,5	1,146350
6,050167	0,5	1,125800
6,058500	0,5	1,104450
6,066833	0,5	1,085650
6,075167	0,5	1,083350
6,083500	0,5	1,065450
6,091833	0,5	1,053000
6,100167	0,5	1,038950
6,108500	0,5	1,050100
6,116833	0,5	1,052500
6,125167	0,5	1,043050
6,133500	0,5	1,026400
6,141833	0,5	1,022500
6,150167	0,5	1,010550
6,158500	0,5	1,007200
6,166833	0,5	1,002400
6,175167	0,5	0,998050
6,183500	0,5	0,994100
6,191833	0,5	0,993200
6,200167	0,5	0,989700
6,208500	0,5	0,975850
6,216833	0,5	0,976250
6,225167	0,5	0,970850
6,233500	0,5	0,964800
6,241833	0,5	0,958400
6,250167	0,5	0,966200
6,258500	0,5	0,975400
6,266833	0,5	0,985900
6,275167	0,5	0,978900
6,283500	0,5	0,977750
6,291833	0,5	0,978000
6,300167	0,5	0,981800
6,308500	0,5	0,973750
6,316833	0,5	0,973250
6,325167	0,5	0,969950
6,333500	0,5	0,968050
6,341833	0,5	0,967700
6,350167	0,5	0,957350
6,358500	0,5	0,951000
6,366833	0,5	0,963000
6,375167	0,5	0,958750
6,383500	0,5	0,954300
6,391833	0,5	0,960850
6,400167	0,5	0,972450
6,408500	0,5	0,998350
6,416833	0,5	0,998950
6,425167	0,5	1,001750
6,433500	0,5	0,999100
6,441833	0,5	1,005550
6,450167	0,5	1,003500
6,458500	0,5	1,011350
6,466833	0,5	1,017300
6,475167	0,5	1,021500
6,483500	0,5	1,023000
6,491833	0,5	1,029000
6,500167	0,5	1,031650
6,508500	0,5	1,040050
6,516833	0,5	1,050150
6,525167	0,5	1,052150
6,533500	0,5	1,057850
6,541833	0,5	1,071650
6,550167	0,5	1,092750
6,558500	0,5	1,117400
6,566833	0,5	1,129500
6,575167	0,5	1,141450
6,583500	0,5	1,149650
6,591833	0,5	1,168950
6,600167	0,5	1,183600
6,608500	0,5	1,199950
6,616833	0,5	1,220200
6,625167	0,5	1,232300
6,633500	0,5	1,255500
6,641833	0,5	1,272550
6,650167	0,5	1,298350
6,658500	0,5	1,338950
6,666833	0,5	1,378350
6,675167	0,5	1,426200
6,683500	0,5	1,494450
6,691833	0,5	1,594200
6,700167	0,5	1,724450
6,708500	0,5	1,856350
6,716833	0,5	1,982700
6,725167	0,5	2,101250
6,733500	0,5	2,191550
6,741833	0,5	2,235750
6,750167	0,5	2,236700
6,758500	0,5	2,196900
6,766833	0,5	2,121850
6,775167	0,5	2,020800
6,783500	0,5	1,921250
6,791833	0,5	1,829300
6,800167	0,5	1,746650
6,808500	0,5	1,697250
6,816833	0,5	1,631200
6,825167	0,5	1,594950
6,833500	0,5	1,568300
6,841833	0,5	1,555800
6,850167	0,5	1,561300
6,858500	0,5	1,558950
6,866833	0,5	1,549800
6,875167	0,5	1,551650
6,883500	0,5	1,553300
6,891833	0,5	1,554650
6,900167	0,5	1,564700
6,908500	0,5	1,568200
6,916833	0,5	1,570800
6,925167	0,5	1,573950
6,933500	0,5	1,583850
6,941833	0,5	1,583200
6,950167	0,5	1,585900
6,958500	0,5	1,597450
6,966833	0,5	1,595500
6,975167	0,5	1,592250
6,983500	0,5	1,598150
6,991833	0,5	1,605450
7,000167	0,5	1,630900
7,008500	0,5	1,623550
7,016833	0,5	1,634850
7,025167	0,5	1,635250
7,033500	0,5	1,648350
7,041833	0,5	1,650000
7,050167	0,5	1,663150
7,058500	0,5	1,661450
7,066833	0,5	1,658550
7,075167	0,5	1,672500
7,083500	0,5	1,677150
7,091833	0,5	1,676700
7,100167	0,5	1,703300
7,108500	0,5	1,731900
7,116833	0,5	1,760500
7,125167	0,5	1,805050
7,133500	0,5	1,863000
7,141833	0,5	1,934900
7,150167	0,5	1,990450
7,158500	0,5	2,018300
7,166833	0,5	2,015450
7,175167	0,5	2,007350
7,183500	0,5	1,980200
7,191833	0,5	1,951350
7,200167	0,5	1,931850
7,208500	0,5	1,927300
7,216833	0,5	1,934000
7,225167	0,5	1,966000
7,233500	0,5	2,013800
7,241833	0,5	2,078150
7,250167	0,5	2,170100
7,258500	0,5	2,267150
7,266833	0,5	2,366350
7,275167	0,5	2,464000
7,283500	0,5	2,552000
7,291833	0,5	2,619000
7,300167	0,5	2,653500
7,308500	0,5	2,644300
7,316833	0,5	2,618600
7,325167	0,5	2,566450
7,333500	0,5	2,507150
7,341833	0,5	2,439600
7,350167	0,5	2,375300
7,358500	0,5	2,312050
7,366833	0,5	2,261850
7,375167	0,5	2,213550
7,383500	0,5	2,164150
7,391833	0,5	2,130950
7,400167	0,5	2,107000
7,408500	0,5	2,074200
7,416833	0,5	2,042850
7,425167	0,5	2,016050
7,433500	0,5	2,000900
7,441833	0,5	1,988200
7,450167	0,5	1,972200
7,458500	0,5	1,954300
7,466833	0,5	1,933600
7,475167	0,5	1,920700
7,483500	0,5	1,915200
7,491833	0,5	1,905450
7,500167	0,5	1,899200
7,508500	0,5	1,895650
7,516833	0,5	1,891650
7,525167	0,5	1,887400
7,533500	0,5	1,873300
7,541833	0,5	1,865300
7,550167	0,5	1,863050
7,558500	0,5	1,845150
7,566833	0,5	1,832650
7,575167	0,5	1,823450
7,583500	0,5	1,825900
7,591833	0,5	1,824950
7,600167	0,5	1,823100
7,608500	0,5	1,827800
7,616833	0,5	1,833150
7,625167	0,5	1,837350
7,633500	0,5	1,845300
7,641833	0,5	1,849200
7,650167	0,5	1,849300
7,658500	0,5	1,845400
7,666833	0,5	1,841900
7,675167	0,5	1,827650
7,683500	0,5	1,821350
7,691833	0,5	1,828500
7,700167	0,5	1,824800
7,708500	0,5	1,823050
7,716833	0,5	1,823950
7,725167	0,5	1,835450
7,733500	0,5	1,870150
7,741833	0,5	1,901050
7,750167	0,5	1,947950
7,758500	0,5	1,999750
7,766833	0,5	2,057550
7,775167	0,5	2,081750
7,783500	0,5	2,075100
7,791833	0,5	2,041750
7,800167	0,5	1,997600
7,808500	0,5	1,955850
7,816833	0,5	1,920200
7,825167	0,5	1,889500
7,833500	0,5	1,875800
7,841833	0,5	1,877950
7,850167	0,5	1,871750
7,858500	0,5	1,874200
7,866833	0,5	1,874650
7,875167	0,5	1,891550
7,883500	0,5	1,924600
7,891833	0,5	1,963700
7,900167	0,5	2,001850
7,908500	0,5	2,042700
7,916833	0,5	2,076100
7,925167	0,5	2,087950
7,933500	0,5	2,085650
7,941833	0,5	2,065500
7,950167	0,5	2,042950
7,958500	0,5	2,023700
7,966833	0,5	2,025150
7,975167	0,5	2,049750
7,983500	0,5	2,114900
7,991833	0,5	2,235250
8,000167	0,5	2,380600
8,008500	0,5	2,536350
8,016833	0,5	2,667950
8,025167	0,5	2,724350
8,033500	0,5	2,711650
8,041833	0,5	2,628100
8,050167	0,5	2,530300
8,058500	0,5	2,446750
8,066833	0,5	2,392200
8,075167	0,5	2,357500
8,083500	0,5	2,331200
8,091833	0,5	2,302250
8,100167	0,5	2,267350
8,108500	0,5	2,231450
8,116833	0,5	2,200600
8,125167	0,5	2,166350
8,133500	0,5	2,148000
8,141833	0,5	2,127150
8,150167	0,5	2,102750
8,158500	0,5	2,081300
8,166833	0,5	2,062150
8,175167	0,5	2,050350
8,183500	0,5	2,042300
8,191833	0,5	2,033450
8,200167	0,5	2,033300
8,208500	0,5	2,053050
8,216833	0,5	2,089850
8,225167	0,5	2,133050
8,233500	0,5	2,147550
8,241833	0,5	2,127050
8,250167	0,5	2,053950
8,258500	0,5	1,968050
8,266833	0,5	1,882950
8,275167	0,5	1,819700
8,283500	0,5	1,789600
8,291833	0,5	1,787100
8,300167	0,5	1,808400
8,308500	0,5	1,837100
8,316833	0,5	1,864400
8,325167	0,5	1,874600
8,333500	0,5	1,853100
8,341833	0,5	1,809350
8,350167	0,5	1,763850
8,358500	0,5	1,723800
8,366833	0,5	1,686450
8,375167	0,5	1,660650
8,383500	0,5	1,646050
8,391833	0,5	1,635300
8,400167	0,5	1,631250
8,408500	0,5	1,627200
8,416833	0,5	1,623850
8,425167	0,5	1,624200
8,433500	0,5	1,626550
8,441833	0,5	1,615800
8,450167	0,5	1,609050
8,458500	0,5	1,598900
8,466833	0,5	1,597100
8,475167	0,5	1,598900
8,483500	0,5	1,598550
8,491833	0,5	1,598750
8,500167	0,5	1,596200
8,508500	0,5	1,597050
8,516833	0,5	1,592950
8,525167	0,5	1,595700
8,533500	0,5	1,596950
8,541833	0,5	1,598200
8,550167	0,5	1,601900
8,558500	0,5	1,606000
8,566833	0,5	1,606750
8,575167	0,5	1,607500
8,583500	0,5	1,608900
8,591833	0,5	1,618050
8,600167	0,5	1,623200
8,608500	0,5	1,625250
8,616833	0,5	1,639000
8,625167	0,5	1,651500
8,633500	0,5	1,665500
8,641833	0,5	1,675950
8,650167	0,5	1,688700
8,658500	0,5	1,698150
8,666833	0,5	1,706050
8,675167	0,5	1,715200
8,683500	0,5	1,721900
8,691833	0,5	1,719350
8,700167	0,5	1,723200
8,708500	0,5	1,720200
8,716833	0,5	1,715700
8,725167	0,5	1,724150
8,733500	0,5	1,732350
8,741833	0,5	1,755550
8,750167	0,5	1,781950
8,758500	0,5	1,800200
8,766833	0,5	1,809100
8,775167	0,5	1,795950
8,783500	0,5	1,772350
8,791833	0,5	1,743700
8,800167	0,5	1,720700
8,808500	0,5	1,708550
8,816833	0,5	1,695000
8,825167	0,5	1,689000
8,833500	0,5	1,686700
8,841833	0,5	1,689550
8,850167	0,5	1,690600
8,858500	0,5	1,694450
8,866833	0,5	1,695250
8,875167	0,5	1,700200
8,883500	0,5	1,695000
8,891833	0,5	1,687450
8,900167	0,5	1,672550
8,908500	0,5	1,656900
8,916833	0,5	1,646900
8,925167	0,5	1,642000
8,933500	0,5	1,641900
8,941833	0,5	1,646650
8,950167	0,5	1,652650
8,958500	0,5	1,665350
8,966833	0,5	1,674450
8,975167	0,5	1,697650
8,983500	0,5	1,734150
8,991833	0,5	1,783800
9,000167	0,5	1,843200
9,008500	0,5	1,896250
9,016833	0,5	1,930450
9,025167	0,5	1,938450
9,033500	0,5	1,906600
9,041833	0,5	1,856150
9,050167	0,5	1,794150
9,058500	0,5	1,746650
9,066833	0,5	1,706550
9,075167	0,5	1,673250
9,083500	0,5	1,659700
9,091833	0,5	1,648950
9,100167	0,5	1,643650
9,108500	0,5	1,643400
9,116833	0,5	1,642550
9,125167	0,5	1,648350
9,133500	0,5	1,665750
9,141833	0,5	1,678450
9,150167	0,5	1,707100
9,158500	0,5	1,733900
9,166833	0,5	1,747900
9,175167	0,5	1,752500
9,183500	0,5	1,745400
9,191833	0,5	1,728750
9,200167	0,5	1,711900
9,208500	0,5	1,701300
9,216833	0,5	1,696550
9,225167	0,5	1,690100
9,233500	0,5	1,695850
9,241833	0,5	1,692650
9,250167	0,5	1,697200
9,258500	0,5	1,694050
9,266833	0,5	1,685350
9,275167	0,5	1,672100
9,283500	0,5	1,653200
9,291833	0,5	1,638950
9,300167	0,5	1,623400
9,308500	0,5	1,599900
9,316833	0,5	1,587300
9,325167	0,5	1,577700
9,333500	0,5	1,567200
9,341833	0,5	1,559400
9,350167	0,5	1,551700
9,358500	0,5	1,547650
9,366833	0,5	1,549100
9,375167	0,5	1,541200
9,383500	0,5	1,533450
9,391833	0,5	1,527550
9,400167	0,5	1,523800
9,408500	0,5	1,512700
9,416833	0,5	1,509850
9,425167	0,5	1,503800
9,433500	0,5	1,503600
9,441833	0,5	1,504100
9,450167	0,5	1,506600
9,458500	0,5	1,513200
9,466833	0,5	1,517200
9,475167	0,5	1,515150
9,483500	0,5	1,515650
9,491833	0,5	1,512000
9,500167	0,5	1,519250
9,508500	0,5	1,529100
9,516833	0,5	1,535650
9,525167	0,5	1,539000
9,533500	0,5	1,531500
9,541833	0,5	1,517750
9,550167	0,5	1,499150
9,558500	0,5	1,475650
9,566833	0,5	1,450900
9,575167	0,5	1,435150
9,583500	0,5	1,417700
9,591833	0,5	1,405850
9,600167	0,5	1,398300
9,608500	0,5	1,393150
9,616833	0,5	1,388850
9,625167	0,5	1,389300
9,633500	0,5	1,387900
9,641833	0,5	1,388150
9,650167	0,5	1,394400
9,658500	0,5	1,407450
9,666833	0,5	1,417700
9,675167	0,5	1,431250
9,683500	0,5	1,442800
9,691833	0,5	1,462550
9,700167	0,5	1,496100
9,708500	0,5	1,537400
9,716833	0,5	1,586150
9,725167	0,5	1,657100
9,733500	0,5	1,743000
9,741833	0,5	1,843550
9,750167	0,5	1,949400
9,758500	0,5	2,066950
9,766833	0,5	2,176200
9,775167	0,5	2,260250
9,783500	0,5	2,314050
9,791833	0,5	2,322500
9,800167	0,5	2,295150
9,808500	0,5	2,230450
9,816833	0,5	2,140750
9,825167	0,5	2,046250
9,833500	0,5	1,957550
9,841833	0,5	1,872550
9,850167	0,5	1,794750
9,858500	0,5	1,727200
9,866833	0,5	1,664400
9,875167	0,5	1,601650
9,883500	0,5	1,547950
9,891833	0,5	1,508300
9,900167	0,5	1,475700
9,908500	0,5	1,460100
9,916833	0,5	1,448150
9,925167	0,5	1,443050
9,933500	0,5	1,451400
9,941833	0,5	1,460750
9,950167	0,5	1,479000
9,958500	0,5	1,502750
9,966833	0,5	1,533700
9,975167	0,5	1,564250
9,983500	0,5	1,596200
9,991833	0,5	1,626250
10,000167	0,5	1,648450
10,008500	0,5	1,659800
10,016833	0,5	1,651550
10,025167	0,5	1,636900
10,033500	0,5	1,607400
10,041833	0,5	1,587600
10,050167	0,5	1,559350
10,058500	0,5	1,549450
10,066833	0,5	1,542950
10,075167	0,5	1,543600
10,083500	0,5	1,547750
10,091833	0,5	1,560850
10,100167	0,5	1,571600
10,108500	0,5	1,571750
10,116833	0,5	1,559050
10,125167	0,5	1,539300
10,133500	0,5	1,509650
10,141833	0,5	1,468650
10,150167	0,5	1,428100
10,158500	0,5	1,396850
10,166833	0,5	1,367300
10,175167	0,5	1,348050
10,183500	0,5	1,334900
10,191833	0,5	1,328050
10,200167	0,5	1,317000
10,208500	0,5	1,316300
10,216833	0,5	1,310300
10,225167	0,5	1,306900
10,233500	0,5	1,310500
10,241833	0,5	1,319850
10,250167	0,5	1,339400
10,258500	0,5	1,357200
10,266833	0,5	1,378600
10,275167	0,5	1,393050
10,283500	0,5	1,405950
10,291833	0,5	1,412250
10,300167	0,5	1,413150
10,308500	0,5	1,407000
10,316833	0,5	1,407100
10,325167	0,5	1,404550
10,333500	0,5	1,402550
10,341833	0,5	1,407200
10,350167	0,5	1,413950
10,358500	0,5	1,436300
10,366833	0,5	1,465550
10,375167	0,5	1,505050
10,383500	0,5	1,551750
10,391833	0,5	1,597100
10,400167	0,5	1,634450
10,408500	0,5	1,649350
10,416833	0,5	1,642200
10,425167	0,5	1,620050
10,433500	0,5	1,589900
10,441833	0,5	1,548300
10,450167	0,5	1,506350
10,458500	0,5	1,467900
10,466833	0,5	1,435850
10,475167	0,5	1,401450
10,483500	0,5	1,376250
10,491833	0,5	1,354450
10,500167	0,5	1,338750
10,508500	0,5	1,326400
10,516833	0,5	1,320050
10,525167	0,5	1,317350
10,533500	0,5	1,308800
10,541833	0,5	1,310100
10,550167	0,5	1,306450
10,558500	0,5	1,302700
10,566833	0,5	1,295000
10,575167	0,5	1,305450
10,583500	0,5	1,315500
10,591833	0,5	1,328550
10,600167	0,5	1,352200
10,608500	0,5	1,365300
10,616833	0,5	1,373950
10,625167	0,5	1,366500
10,633500	0,5	1,346600
10,641833	0,5	1,310500
10,650167	0,5	1,265450
10,658500	0,5	1,214450
10,666833	0,5	1,168700
10,675167	0,5	1,133800
10,683500	0,5	1,109000
10,691833	0,5	1,105550
10,700167	0,5	1,115450
10,708500	0,5	1,131550
10,716833	0,5	1,164250
10,725167	0,5	1,184050
10,733500	0,5	1,208600
10,741833	0,5	1,228600
10,750167	0,5	1,243900
10,758500	0,5	1,250000
10,766833	0,5	1,252200
10,775167	0,5	1,254300
10,783500	0,5	1,252650
10,791833	0,5	1,251700
10,800167	0,5	1,250600
10,808500	0,5	1,243150
10,816833	0,5	1,230750
10,825167	0,5	1,210300
10,833500	0,5	1,196450
10,841833	0,5	1,188700
10,850167	0,5	1,169800
10,858500	0,5	1,155600
10,866833	0,5	1,148650
10,875167	0,5	1,135250
10,883500	0,5	1,132300
10,891833	0,5	1,127100
10,900167	0,5	1,123400
10,908500	0,5	1,128550
10,916833	0,5	1,131400
10,925167	0,5	1,137200
10,933500	0,5	1,138850
10,941833	0,5	1,147700
10,950167	0,5	1,151550
10,958500	0,5	1,147600
10,966833	0,5	1,152600
10,975167	0,5	1,158300
10,983500	0,5	1,170750
10,991833	0,5	1,187350
11,000167	0,5	1,215050
11,008500	0,5	1,234550
11,016833	0,5	1,265700
11,025167	0,5	1,287050
11,033500	0,5	1,293450
11,041833	0,5	1,293150
11,050167	0,5	1,276400
11,058500	0,5	1,255750
11,066833	0,5	1,233300
11,075167	0,5	1,222550
11,083500	0,5	1,202650
11,091833	0,5	1,201050
11,100167	0,5	1,196150
11,108500	0,5	1,196050
11,116833	0,5	1,194850
11,125167	0,5	1,195750
11,133500	0,5	1,187400
11,141833	0,5	1,186500
11,150167	0,5	1,172550
11,158500	0,5	1,152450
11,166833	0,5	1,139200
11,175167	0,5	1,130300
11,183500	0,5	1,119100
11,191833	0,5	1,121300
11,200167	0,5	1,118100
11,208500	0,5	1,123200
11,216833	0,5	1,130350
11,225167	0,5	1,141050
11,233500	0,5	1,154150
11,241833	0,5	1,179600
11,250167	0,5	1,218500
11,258500	0,5	1,268300
11,266833	0,5	1,339150
11,275167	0,5	1,424100
11,283500	0,5	1,526250
11,291833	0,5	1,608900
11,300167	0,5	1,667900
11,308500	0,5	1,692850
11,316833	0,5	1,682050
11,325167	0,5	1,634200
11,333500	0,5	1,578150
11,341833	0,5	1,516700
11,350167	0,5	1,461450
11,358500	0,5	1,420150
11,366833	0,5	1,393050
11,375167	0,5	1,375050
11,383500	0,5	1,372950
11,391833	0,5	1,373750
11,400167	0,5	1,374950
11,408500	0,5	1,377850
11,416833	0,5	1,388300
11,425167	0,5	1,417100
11,433500	0,5	1,471300
11,441833	0,5	1,548150
11,450167	0,5	1,650800
11,458500	0,5	1,776250
11,466833	0,5	1,916250
11,475167	0,5	2,078350
11,483500	0,5	2,222600
11,491833	0,5	2,340750
11,500167	0,5	2,430600
11,508500	0,5	2,482400
11,516833	0,5	2,501100
11,525167	0,5	2,476950
11,533500	0,5	2,436550
11,541833	0,5	2,361200
11,550167	0,5	2,280800
11,558500	0,5	2,197800
11,566833	0,5	2,126850
11,575167	0,5	2,084100
11,583500	0,5	2,067550
11,591833	0,5	2,060950
11,600167	0,5	2,054100
11,608500	0,5	2,040200
11,616833	0,5	2,007200
11,625167	0,5	1,955800
11,633500	0,5	1,885200
11,641833	0,5	1,799550
11,650167	0,5	1,711550
11,658500	0,5	1,622800
11,666833	0,5	1,534400
11,675167	0,5	1,459400
11,683500	0,5	1,408500
11,691833	0,5	1,368650
11,700167	0,5	1,341750
11,708500	0,5	1,323150
11,716833	0,5	1,320450
11,725167	0,5	1,325600
11,733500	0,5	1,335100
11,741833	0,5	1,336150
11,750167	0,5	1,329500
11,758500	0,5	1,308300
11,766833	0,5	1,276700
11,775167	0,5	1,250600
11,783500	0,5	1,215800
11,791833	0,5	1,189850
11,800167	0,5	1,164700
11,808500	0,5	1,143800
11,816833	0,5	1,123300
11,825167	0,5	1,118750
11,833500	0,5	1,109850
11,841833	0,5	1,106550
11,850167	0,5	1,102550
11,858500	0,5	1,099450
11,866833	0,5	1,101350
11,875167	0,5	1,114800
11,883500	0,5	1,115550
11,891833	0,5	1,123400
11,900167	0,5	1,133250
11,908500	0,5	1,146500
11,916833	0,5	1,152450
11,925167	0,5	1,163100
11,933500	0,5	1,170200
11,941833	0,5	1,169800
11,950167	0,5	1,171750
11,958500	0,5	1,168350
11,966833	0,5	1,156050
11,975167	0,5	1,163400
11,983500	0,5	1,161950
11,991833	0,5	1,168700
12,000167	0,5	1,174200
12,008500	0,5	1,176250
12,016833	0,5	1,196500
12,025167	0,5	1,208050
12,033500	0,5	1,221950
12,041833	0,5	1,233550
12,050167	0,5	1,248200
12,058500	0,5	1,255550
12,066833	0,5	1,268050
12,075167	0,5	1,271400
12,083500	0,5	1,276600
12,091833	0,5	1,280650
12,100167	0,5	1,289900
12,108500	0,5	1,281900
12,116833	0,5	1,277900
12,125167	0,5	1,279650
12,133500	0,5	1,279300
12,141833	0,5	1,273600
12,150167	0,5	1,274150
12,158500	0,5	1,285900
12,166833	0,5	1,306750
12,175167	0,5	1,321100
12,183500	0,5	1,341250
12,191833	0,5	1,359100
12,200167	0,5	1,385950
12,208500	0,5	1,416900
12,216833	0,5	1,447450
12,225167	0,5	1,502350
12,233500	0,5	1,568600
12,241833	0,5	1,657000
12,250167	0,5	1,763600
12,258500	0,5	1,882150
12,266833	0,5	1,985250
12,275167	0,5	2,081000
12,283500	0,5	2,139300
12,291833	0,5	2,169350
12,300167	0,5	2,162100
12,308500	0,5	2,144250
12,316833	0,5	2,100800
12,325167	0,5	2,039500
12,333500	0,5	1,963900
12,341833	0,5	1,898800
12,350167	0,5	1,842500
12,358500	0,5	1,796150
12,366833	0,5	1,766650
12,375167	0,5	1,757700
12,383500	0,5	1,764100
12,391833	0,5	1,784950
12,400167	0,5	1,812800
12,408500	0,5	1,823550
12,416833	0,5	1,840800
12,425167	0,5	1,837600
12,433500	0,5	1,832950
12,441833	0,5	1,818500
12,450167	0,5	1,800350
12,458500	0,5	1,787850
12,466833	0,5	1,764600
12,475167	0,5	1,729600
12,483500	0,5	1,685700
12,491833	0,5	1,640000
12,500167	0,5	1,589200
12,508500	0,5	1,530600
12,516833	0,5	1,468800
12,525167	0,5	1,413350
12,533500	0,5	1,355250
12,541833	0,5	1,311900
12,550167	0,5	1,264300
12,558500	0,5	1,221450
12,566833	0,5	1,189600
12,575167	0,5	1,158100
12,583500	0,5	1,131850
12,591833	0,5	1,104650
12,600167	0,5	1,083300
12,608500	0,5	1,078050
12,616833	0,5	1,063100
12,625167	0,5	1,050950
12,633500	0,5	1,040450
12,641833	0,5	1,037200
12,650167	0,5	1,023550
12,658500	0,5	1,015650
12,666833	0,5	1,009400
12,675167	0,5	1,003200
12,683500	0,5	0,998850
12,691833	0,5	0,992000
12,700167	0,5	0,984800
12,708500	0,5	0,980600
12,716833	0,5	0,978000
12,725167	0,5	0,972400
12,733500	0,5	0,970900
12,741833	0,5	0,958950
12,750167	0,5	0,967350
12,758500	0,5	0,968800
12,766833	0,5	0,969050
12,775167	0,5	0,965150
12,783500	0,5	0,951600
12,791833	0,5	0,942200
12,800167	0,5	0,934600
12,808500	0,5	0,921650
12,816833	0,5	0,905550
12,825167	0,5	0,894800
12,833500	0,5	0,890350
12,841833	0,5	0,889450
12,850167	0,5	0,889650
12,858500	0,5	0,915000
12,866833	0,5	0,941500
12,875167	0,5	0,968900
12,883500	0,5	1,003650
12,891833	0,5	1,054550
12,900167	0,5	1,102950
12,908500	0,5	1,133700
12,916833	0,5	1,109250
12,925167	0,5	1,066250
12,933500	0,5	0,991500
12,941833	0,5	0,920450
12,950167	0,5	0,838400
12,958500	0,5	0,760650
12,966833	0,5	0,678050
12,975167	0,5	0,616250
12,983500	0,5	0,525400
12,991833	0,5	0,390300
13,000167	0,5	0,218950
13,008500	0,5	-0,033050
13,016833	0,5	-0,427050
13,025167	0,5	-0,834900
13,033500	0,5	-1,162150
13,041833	0,5	-1,460000
13,050167	0,5	-1,693350
13,058500	0,5	-1,864900
13,066833	0,5	-1,980200
13,075167	0,5	-2,078900
13,083500	0,5	-2,157750
13,091833	0,5	-2,238600
13,100167	0,5	-2,299400
13,108500	0,5	-2,362150
13,116833	0,5	-2,421200
13,125167	0,5	-2,468250
13,133500	0,5	-2,509100
13,141833	0,5	-2,557300
13,150167	0,5	-2,577900
13,158500	0,5	-2,601250
13,166833	0,5	-2,613100
13,175167	0,5	-2,619100
13,183500	0,5	-2,632600
13,191833	0,5	-2,615600
13,200167	0,5	-2,590550
13,208500	0,5	-2,561450
13,216833	0,5	-2,539250
13,225167	0,5	-2,507900
13,233500	0,5	-2,484300
13,241833	0,5	-2,466250
13,250167	0,5	-2,449800
13,258500	0,5	-2,440350
13,266833	0,5	-2,445300
13,275167	0,5	-2,452800
13,283500	0,5	-2,455750
13,291833	0,5	-2,482850
13,300167	0,5	-2,490900
13,308500	0,5	-2,509300
13,316833	0,5	-2,524650
13,325167	0,5	-2,544500
13,333500	0,5	-2,569550
13,341833	0,5	-2,571750
13,350167	0,5	-2,565950
13,358500	0,5	-2,563800
13,366833	0,5	-2,559450
13,375167	0,5	-2,546350
13,383500	0,5	-2,532200
13,391833	0,5	-2,516550
13,400167	0,5	-2,481800
13,408500	0,5	-2,451100
13,416833	0,5	-2,407350
13,425167	0,5	-2,362650
13,433500	0,5	-2,317450
13,441833	0,5	-2,284650
13,450167	0,5	-2,245250
13,458500	0,5	-2,222400
13,466833	0,5	-2,207450
13,475167	0,5	-2,206300
13,483500	0,5	-2,207750
13,491833	0,5	-2,206500
13,500167	0,5	-2,209250
13,508500	0,5	-2,214200
13,516833	0,5	-2,216550
13,525167	0,5	-2,229800
13,533500	0,5	-2,247000
13,541833	0,5	-2,253250
13,550167	0,5	-2,258550
13,558500	0,5	-2,259450
13,566833	0,5	-2,264800
13,575167	0,5	-2,255400
13,583500	0,5	-2,261950
13,591833	0,5	-2,259300
13,600167	0,5	-2,258350
13,608500	0,5	-2,250850
13,616833	0,5	-2,257150
13,625167	0,5	-2,258600
13,633500	0,5	-2,254250
13,641833	0,5	-2,240100
13,650167	0,5	-2,228750
13,658500	0,5	-2,212650
13,666833	0,5	-2,201850
13,675167	0,5	-2,175150
13,683500	0,5	-2,157050
13,691833	0,5	-2,125600
13,700167	0,5	-2,091150
13,708500	0,5	-2,061300
13,716833	0,5	-2,016400
13,725167	0,5	-1,988150
13,733500	0,5	-1,971950
13,741833	0,5	-1,949300
13,750167	0,5	-1,923500
13,758500	0,5	-1,914250
13,766833	0,5	-1,907450
13,775167	0,5	-1,906250
13,783500	0,5	-1,885900
13,791833	0,5	-1,868000
13,800167	0,5	-1,837950
13,808500	0,5	-1,813400
13,816833	0,5	-1,778600
13,825167	0,5	-1,744750
13,833500	0,5	-1,715200
13,841833	0,5	-1,684250
13,850167	0,5	-1,658050
13,858500	0,5	-1,627450
13,866833	0,5	-1,597050
13,875167	0,5	-1,576150
13,883500	0,5	-1,562200
13,891833	0,5	-1,539400
13,900167	0,5	-1,532100
13,908500	0,5	-1,524200
13,916833	0,5	-1,521400
13,925167	0,5	-1,509350
13,933500	0,5	-1,489000
13,941833	0,5	-1,467850
13,950167	0,5	-1,453750
13,958500	0,5	-1,426050
13,966833	0,5	-1,409500
13,975167	0,5	-1,380700
13,983500	0,5	-1,357800
13,991833	0,5	-1,325000
14,000167	0,5	-1,302400
14,008500	0,5	-1,268500
14,016833	0,5	-1,222750
14,025167	0,5	-1,189950
14,033500	0,5	-1,130000
14,041833	0,5	-1,056550
14,050167	0,5	-0,982350
14,058500	0,5	-0,890600
14,066833	0,5	-0,804650
14,075167	0,5	-0,702150
14,083500	0,5	-0,595600
14,091833	0,5	-0,518450
14,100167	0,5	-0,459700
14,108500	0,5	-0,413750
14,116833	0,5	-0,382500
14,125167	0,5	-0,376950
14,133500	0,5	-0,367850
14,141833	0,5	-0,375150
14,150167	0,5	-0,380300
14,158500	0,5	-0,356700
14,166833	0,5	-0,329350
14,175167	0,5	-0,299150
14,183500	0,5	-0,219400
14,191833	0,5	-0,132100
14,200167	0,5	-0,046700
14,208500	0,5	0,037750
14,216833	0,5	0,092250
14,225167	0,5	0,142800
14,233500	0,5	0,162250
14,241833	0,5	0,156100
14,250167	0,5	0,127550
14,258500	0,5	0,104150
14,266833	0,5	0,070600
14,275167	0,5	0,055900
14,283500	0,5	0,041100
14,291833	0,5	0,037900
14,300167	0,5	0,024000
14,308500	0,5	0,028600
14,316833	0,5	0,019450
14,325167	0,5	0,010200
14,333500	0,5	0,019650
14,341833	0,5	0,019800
14,350167	0,5	0,012550
14,358500	0,5	0,005200
14,366833	0,5	0,001800
14,375167	0,5	0,016050
14,383500	0,5	0,025000
14,391833	0,5	0,023900
14,400167	0,5	0,028500
14,408500	0,5	0,025500
14,416833	0,5	0,036350
14,425167	0,5	0,044800
14,433500	0,5	0,066350
14,441833	0,5	0,075800
14,450167	0,5	0,095750
14,458500	0,5	0,116950
14,466833	0,5	0,126450
14,475167	0,5	0,125450
14,483500	0,5	0,132350
14,491833	0,5	0,115100
14,500167	0,5	0,092800
14,508500	0,5	0,057450
14,516833	0,5	0,040550
14,525167	0,5	0,032800
14,533500	0,5	0,021100
14,541833	0,5	0,014600
14,550167	0,5	0,003700
14,558500	0,5	-0,000150
14,566833	0,5	-0,008800
14,575167	0,5	-0,009550
14,583500	0,5	-0,009350
14,591833	0,5	-0,007050
14,600167	0,5	-0,009000
14,608500	0,5	-0,003000
14,616833	0,5	-0,013050
14,625167	0,5	0,005350
14,633500	0,5	0,015900
14,641833	0,5	0,037450
14,650167	0,5	0,065800
14,658500	0,5	0,130100
14,666833	0,5	0,222700
14,675167	0,5	0,352150
14,683500	0,5	0,459800
14,691833	0,5	0,545750
14,700167	0,5	0,581500
14,708500	0,5	0,559200
14,716833	0,5	0,506300
14,725167	0,5	0,434300
14,733500	0,5	0,366400
14,741833	0,5	0,315500
14,750167	0,5	0,318650
14,758500	0,5	0,345250
14,766833	0,5	0,390950
14,775167	0,5	0,468900
14,783500	0,5	0,535450
14,791833	0,5	0,563450
14,800167	0,5	0,531900
14,808500	0,5	0,467050
14,816833	0,5	0,404350
14,825167	0,5	0,329250
14,833500	0,5	0,260450
14,841833	0,5	0,202600
14,850167	0,5	0,157200
14,858500	0,5	0,116250
14,866833	0,5	0,093350
14,875167	0,5	0,077050
14,883500	0,5	0,068100
14,891833	0,5	0,060350
14,900167	0,5	0,063750
14,908500	0,5	0,051800
14,916833	0,5	0,063500
14,925167	0,5	0,082150
14,933500	0,5	0,089450
14,941833	0,5	0,090700
14,950167	0,5	0,069750
14,958500	0,5	0,059750
14,966833	0,5	0,050400
14,975167	0,5	0,046850
14,983500	0,5	0,039450
14,991833	0,5	0,042300
15,000167	0,5	0,038950
15,008500	0,5	0,028000
15,016833	0,5	0,013950
15,025167	0,5	0,004650
15,033500	0,5	-0,016300
15,041833	0,5	-0,032150
15,050167	0,5	-0,046050
15,058500	0,5	-0,073650
15,066833	0,5	-0,073400
15,075167	0,5	-0,072050
15,083500	0,5	-0,077650
15,091833	0,5	-0,095350
15,100167	0,5	-0,118650
15,108500	0,5	-0,128850
15,116833	0,5	-0,119850
15,125167	0,5	-0,135300
15,133500	0,5	-0,132450
15,141833	0,5	-0,132550
15,150167	0,5	-0,115650
15,158500	0,5	-0,099050
15,166833	0,5	-0,043050
15,175167	0,5	0,026600
15,183500	0,5	0,132100
15,191833	0,5	0,271550
15,200167	0,5	0,392100
15,208500	0,5	0,470550
15,216833	0,5	0,514550
15,225167	0,5	0,492400
15,233500	0,5	0,432250
15,241833	0,5	0,353100
15,250167	0,5	0,299350
15,258500	0,5	0,313700
15,266833	0,5	0,351350
15,275167	0,5	0,415150
15,283500	0,5	0,476850
15,291833	0,5	0,505400
15,300167	0,5	0,484600
15,308500	0,5	0,427750
15,316833	0,5	0,347450
15,325167	0,5	0,266350
15,333500	0,5	0,192300
15,341833	0,5	0,160750
15,350167	0,5	0,111350
15,358500	0,5	0,111500
15,366833	0,5	0,105050
15,375167	0,5	0,099250
15,383500	0,5	0,080800
15,391833	0,5	0,051650
15,400167	0,5	0,045800
15,408500	0,5	0,038750
15,416833	0,5	0,032850
15,425167	0,5	0,031100
15,433500	0,5	0,025400
15,441833	0,5	0,032150
15,450167	0,5	0,032950
15,458500	0,5	0,032100
15,466833	0,5	0,022150
15,475167	0,5	-0,009700
15,483500	0,5	-0,027450
15,491833	0,5	-0,050500
15,500167	0,5	-0,084400
15,508500	0,5	-0,104650
15,516833	0,5	-0,134050
15,525167	0,5	-0,152150
15,533500	0,5	-0,179850
15,541833	0,5	-0,213350
15,550167	0,5	-0,227100
15,558500	0,5	-0,226900
15,566833	0,5	-0,234600
15,575167	0,5	-0,247550
15,583500	0,5	-0,251900
15,591833	0,5	-0,253600
15,600167	0,5	-0,248800
15,608500	0,5	-0,234600
15,616833	0,5	-0,218450
15,625167	0,5	-0,156350
15,633500	0,5	-0,066550
15,641833	0,5	0,059550
15,650167	0,5	0,190000
15,658500	0,5	0,327350
15,666833	0,5	0,393350
15,675167	0,5	0,405050
15,683500	0,5	0,363600
15,691833	0,5	0,320850
15,700167	0,5	0,297600
15,708500	0,5	0,317600
15,716833	0,5	0,335050
15,725167	0,5	0,375250
15,733500	0,5	0,392850
15,741833	0,5	0,363750
15,750167	0,5	0,302850
15,758500	0,5	0,215750
15,766833	0,5	0,126900
15,775167	0,5	0,038100
15,783500	0,5	-0,016200
15,791833	0,5	-0,086800
15,800167	0,5	-0,119300
15,808500	0,5	-0,139000
15,816833	0,5	-0,157100
15,825167	0,5	-0,172200
15,833500	0,5	-0,180150
15,841833	0,5	-0,178950
15,850167	0,5	-0,162450
15,858500	0,5	-0,164400
15,866833	0,5	-0,162100
15,875167	0,5	-0,176300
15,883500	0,5	-0,187350
15,891833	0,5	-0,211200
15,900167	0,5	-0,234100
15,908500	0,5	-0,264450
15,916833	0,5	-0,301500
15,925167	0,5	-0,306650
15,933500	0,5	-0,333400
15,941833	0,5	-0,359450
15,950167	0,5	-0,365000
15,958500	0,5	-0,375750
15,966833	0,5	-0,390050
15,975167	0,5	-0,409400
15,983500	0,5	-0,429750
15,991833	0,5	-0,426400
16,000167	0,5	-0,419400
16,008500	0,5	-0,404550
16,016833	0,5	-0,388850
16,025167	0,5	-0,319250
16,033500	0,5	-0,232950
16,041833	0,5	-0,106850
16,050167	0,5	0,040950
16,058500	0,5	0,165250
16,066833	0,5	0,257250
16,075167	0,5	0,306300
16,083500	0,5	0,294550
16,091833	0,5	0,288450
16,100167	0,5	0,298200
16,108500	0,5	0,316600
16,116833	0,5	0,320500
16,125167	0,5	0,283450
16,133500	0,5	0,233750
16,141833	0,5	0,155050
16,150167	0,5	0,072250
16,158500	0,5	-0,022250
16,166833	0,5	-0,089800
16,175167	0,5	-0,145450
16,183500	0,5	-0,169150
16,191833	0,5	-0,190150
16,200167	0,5	-0,196950
16,208500	0,5	-0,194550
16,216833	0,5	-0,200750
16,225167	0,5	-0,187700
16,233500	0,5	-0,210250
16,241833	0,5	-0,201500
16,250167	0,5	-0,209050
16,258500	0,5	-0,225600
16,266833	0,5	-0,265600
16,275167	0,5	-0,311350
16,283500	0,5	-0,336200
16,291833	0,5	-0,355650
16,300167	0,5	-0,385150
16,308500	0,5	-0,408850
16,316833	0,5	-0,438650
16,325167	0,5	-0,457150
16,333500	0,5	-0,485250
16,341833	0,5	-0,496400
16,350167	0,5	-0,502900
16,358500	0,5	-0,517350
16,366833	0,5	-0,511300
16,375167	0,5	-0,489650
16,383500	0,5	-0,481850
16,391833	0,5	-0,395950
16,400167	0,5	-0,290500
16,408500	0,5	-0,164400
16,416833	0,5	-0,030100
16,425167	0,5	0,064400
16,433500	0,5	0,154500
16,441833	0,5	0,182450
16,450167	0,5	0,194350
16,458500	0,5	0,177300
16,466833	0,5	0,172500
16,475167	0,5	0,151100
16,483500	0,5	0,115350
16,491833	0,5	0,053700
16,500167	0,5	-0,024650
16,508500	0,5	-0,100500
16,516833	0,5	-0,151900
16,525167	0,5	-0,194650
16,533500	0,5	-0,203150
16,541833	0,5	-0,188450
16,550167	0,5	-0,168600
16,558500	0,5	-0,154800
16,566833	0,5	-0,145900
16,575167	0,5	-0,142500
16,583500	0,5	-0,121350
16,591833	0,5	-0,111750
16,600167	0,5	-0,112550
16,608500	0,5	-0,119850
16,616833	0,5	-0,137350
16,625167	0,5	-0,165450
16,633500	0,5	-0,174400
16,641833	0,5	-0,186250
16,650167	0,5	-0,201950
16,658500	0,5	-0,210850
16,666833	0,5	-0,229800
16,675167	0,5	-0,242150
16,683500	0,5	-0,262200
16,691833	0,5	-0,274350
16,700167	0,5	-0,298550
16,708500	0,5	-0,309500
16,716833	0,5	-0,310350
16,725167	0,5	-0,285650
16,733500	0,5	-0,193850
16,741833	0,5	-0,092350
16,750167	0,5	0,002100
16,758500	0,5	0,086550
16,766833	0,5	0,131050
16,775167	0,5	0,139000
16,783500	0,5	0,133900
16,791833	0,5	0,117700
16,800167	0,5	0,092850
16,808500	0,5	0,052700
16,816833	0,5	-0,008000
16,825167	0,5	-0,094300
16,833500	0,5	-0,144350
16,841833	0,5	-0,206000
16,850167	0,5	-0,255700
16,858500	0,5	-0,312400
16,866833	0,5	-0,341650
16,875167	0,5	-0,348500
16,883500	0,5	-0,346250
16,891833	0,5	-0,359000
16,900167	0,5	-0,362450
16,908500	0,5	-0,368150
16,916833	0,5	-0,378300
16,925167	0,5	-0,391100
16,933500	0,5	-0,404550
16,941833	0,5	-0,423850
16,950167	0,5	-0,433800
16,958500	0,5	-0,435450
16,966833	0,5	-0,467050
16,975167	0,5	-0,478100
16,983500	0,5	-0,481350
16,991833	0,5	-0,477900
17,000167	0,5	-0,472700
17,008500	0,5	-0,471100
17,016833	0,5	-0,431050
17,025167	0,5	-0,356400
17,033500	0,5	-0,267350
17,041833	0,5	-0,139600
17,050167	0,5	-0,001250
17,058500	0,5	0,150750
17,066833	0,5	0,279950
17,075167	0,5	0,410850
17,083500	0,5	0,543050
17,091833	0,5	0,678200
17,100167	0,5	0,833400
17,108500	0,5	0,983900
17,116833	0,5	1,123550
17,125167	0,5	1,281450
17,133500	0,5	1,433500
17,141833	0,5	1,568700
17,150167	0,5	1,695550
17,158500	0,5	1,789150
17,166833	0,5	1,894500
17,175167	0,5	1,977600
17,183500	0,5	2,044150
17,191833	0,5	2,059750
17,200167	0,5	2,068650
17,208500	0,5	2,019850
17,216833	0,5	1,940100
17,225167	0,5	1,809150
17,233500	0,5	1,651800
17,241833	0,5	1,467750
17,250167	0,5	1,282150
17,258500	0,5	1,085900
17,266833	0,5	0,894950
17,275167	0,5	0,748000
17,283500	0,5	0,621550
17,291833	0,5	0,521450
17,300167	0,5	0,443200
17,308500	0,5	0,413450
17,316833	0,5	0,437400
17,325167	0,5	0,472150
17,333500	0,5	0,499150
17,341833	0,5	0,522200
17,350167	0,5	0,517400
17,358500	0,5	0,505050
17,366833	0,5	0,477800
17,375167	0,5	0,440950
17,383500	0,5	0,393800
17,391833	0,5	0,352050
17,400167	0,5	0,337100
17,408500	0,5	0,315750
17,416833	0,5	0,326400
17,425167	0,5	0,355500
17,433500	0,5	0,377700
17,441833	0,5	0,398650
17,450167	0,5	0,406550
17,458500	0,5	0,409950
17,466833	0,5	0,431800
17,475167	0,5	0,420050
17,483500	0,5	0,398500
17,491833	0,5	0,362700
17,500167	0,5	0,315600
17,508500	0,5	0,249000
17,516833	0,5	0,192800
17,525167	0,5	0,119050
17,533500	0,5	0,051200
17,541833	0,5	0,027100
17,550167	0,5	0,024000
17,558500	0,5	0,025200
17,566833	0,5	0,064400
17,575167	0,5	0,090350
17,583500	0,5	0,103000
17,591833	0,5	0,083500
17,600167	0,5	0,036050
17,608500	0,5	0,000450
17,616833	0,5	-0,058150
17,625167	0,5	-0,123750
17,633500	0,5	-0,201250
17,641833	0,5	-0,258100
17,650167	0,5	-0,305400
17,658500	0,5	-0,339000
17,666833	0,5	-0,369850
17,675167	0,5	-0,397400
17,683500	0,5	-0,425850
17,691833	0,5	-0,437200
17,700167	0,5	-0,468200
17,708500	0,5	-0,493300
17,716833	0,5	-0,501000
17,725167	0,5	-0,520950
17,733500	0,5	-0,541650
17,741833	0,5	-0,563350
17,750167	0,5	-0,570350
17,758500	0,5	-0,558200
17,766833	0,5	-0,518900
17,775167	0,5	-0,482500
17,783500	0,5	-0,422650
17,791833	0,5	-0,364650
17,800167	0,5	-0,303900
17,808500	0,5	-0,269750
17,816833	0,5	-0,251000
17,825167	0,5	-0,262900
17,833500	0,5	-0,289350
17,841833	0,5	-0,321550
17,850167	0,5	-0,366000
17,858500	0,5	-0,405900
17,866833	0,5	-0,428250
17,875167	0,5	-0,461250
17,883500	0,5	-0,497100
17,891833	0,5	-0,531450
17,900167	0,5	-0,558750
17,908500	0,5	-0,570800
17,916833	0,5	-0,581050
17,925167	0,5	-0,589400
17,933500	0,5	-0,598350
17,941833	0,5	-0,589450
17,950167	0,5	-0,588300
17,958500	0,5	-0,572850
17,966833	0,5	-0,559850
17,975167	0,5	-0,529450
17,983500	0,5	-0,479500
17,991833	0,5	-0,416550
18,000167	0,5	-0,379100
18,008500	0,5	-0,326150
18,016833	0,5	-0,299650
18,025167	0,5	-0,308250
18,033500	0,5	-0,354200
18,041833	0,5	-0,403750
18,050167	0,5	-0,427150
18,058500	0,5	-0,454600
18,066833	0,5	-0,486100
18,075167	0,5	-0,505500
18,083500	0,5	-0,526650
18,091833	0,5	-0,543150
18,100167	0,5	-0,558200
18,108500	0,5	-0,570300
18,116833	0,5	-0,577400
18,125167	0,5	-0,577700
18,133500	0,5	-0,575200
18,141833	0,5	-0,587700
18,150167	0,5	-0,575000
18,158500	0,5	-0,550000
18,166833	0,5	-0,510750
18,175167	0,5	-0,479700
18,183500	0,5	-0,445300
18,191833	0,5	-0,415650
18,200167	0,5	-0,381300
18,208500	0,5	-0,370850
18,216833	0,5	-0,395800
18,225167	0,5	-0,424950
18,233500	0,5	-0,470550
18,241833	0,5	-0,509750
18,250167	0,5	-0,541250
18,258500	0,5	-0,554250
18,266833	0,5	-0,582150
18,275167	0,5	-0,587350
18,283500	0,5	-0,594000
18,291833	0,5	-0,625600
18,300167	0,5	-0,623500
18,308500	0,5	-0,625150
18,316833	0,5	-0,627100
18,325167	0,5	-0,623500
18,333500	0,5	-0,637350
18,341833	0,5	-0,617550
18,350167	0,5	-0,581700
18,358500	0,5	-0,553050
18,366833	0,5	-0,531450
18,375167	0,5	-0,511250
18,383500	0,5	-0,517450
18,391833	0,5	-0,545050
18,400167	0,5	-0,562650
18,408500	0,5	-0,597000
18,416833	0,5	-0,620100
18,425167	0,5	-0,644750
18,433500	0,5	-0,653000
18,441833	0,5	-0,705650
18,450167	0,5	-0,693200
18,458500	0,5	-0,708000
18,466833	0,5	-0,713200
18,475167	0,5	-0,746250
18,483500	0,5	-0,758950
18,491833	0,5	-0,742550
18,500167	0,5	-0,732550
18,508500	0,5	-0,733150
18,516833	0,5	-0,719950
18,525167	0,5	-0,711200
18,533500	0,5	-0,700550
18,541833	0,5	-0,703150
18,550167	0,5	-0,700800
18,558500	0,5	-0,712400
18,566833	0,5	-0,743750
18,575167	0,5	-0,748550
18,583500	0,5	-0,777800
18,591833	0,5	-0,799900
18,600167	0,5	-0,808300
18,608500	0,5	-0,815050
18,616833	0,5	-0,830200
18,625167	0,5	-0,854950
18,633500	0,5	-0,879550
18,641833	0,5	-0,884300
18,650167	0,5	-0,889300
18,658500	0,5	-0,880800
18,666833	0,5	-0,862350
18,675167	0,5	-0,839750
18,683500	0,5	-0,813000
18,691833	0,5	-0,782500
18,700167	0,5	-0,773750
18,708500	0,5	-0,775450
18,716833	0,5	-0,764900
18,725167	0,5	-0,768250
18,733500	0,5	-0,782000
18,741833	0,5	-0,770450
18,750167	0,5	-0,762950
18,758500	0,5	-0,748900
18,766833	0,5	-0,761750
18,775167	0,5	-0,766200
18,783500	0,5	-0,748200
18,791833	0,5	-0,727250
18,800167	0,5	-0,693850
18,808500	0,5	-0,663350
18,816833	0,5	-0,631650
18,825167	0,5	-0,618850
18,833500	0,5	-0,607000
18,841833	0,5	-0,620800
18,850167	0,5	-0,630300
18,858500	0,5	-0,647400
18,866833	0,5	-0,652150
18,875167	0,5	-0,673600
18,883500	0,5	-0,697250
18,891833	0,5	-0,701900
18,900167	0,5	-0,697050
18,908500	0,5	-0,696400
18,916833	0,5	-0,713400
18,925167	0,5	-0,708900
18,933500	0,5	-0,701850
18,941833	0,5	-0,685950
18,950167	0,5	-0,700100
18,958500	0,5	-0,694650
18,966833	0,5	-0,716150
18,975167	0,5	-0,739250
18,983500	0,5	-0,773950
18,991833	0,5	-0,796350
19,000167	0,5	-0,826150
19,008500	0,5	-0,836500
19,016833	0,5	-0,843450
19,025167	0,5	-0,861950
19,033500	0,5	-0,864200
19,041833	0,5	-0,860950
19,050167	0,5	-0,874700
19,058500	0,5	-0,875700
19,066833	0,5	-0,899250
19,075167	0,5	-0,912750
19,083500	0,5	-0,909550
19,091833	0,5	-0,926300
19,100167	0,5	-0,930850
19,108500	0,5	-0,956000
19,116833	0,5	-0,968250
19,125167	0,5	-0,987400
19,133500	0,5	-0,994550
19,141833	0,5	-1,019400
19,150167	0,5	-1,037800
19,158500	0,5	-1,031150
19,166833	0,5	-1,034700
19,175167	0,5	-1,061600
19,183500	0,5	-1,065950
19,191833	0,5	-1,083650
19,200167	0,5	-1,105350
19,208500	0,5	-1,133350
19,216833	0,5	-1,133450
19,225167	0,5	-1,174000
19,233500	0,5	-1,190200
19,241833	0,5	-1,193250
19,250167	0,5	-1,212200
19,258500	0,5	-1,207500
19,266833	0,5	-1,225800
19,275167	0,5	-1,228150
19,283500	0,5	-1,242600
19,291833	0,5	-1,253000
19,300167	0,5	-1,265800
19,308500	0,5	-1,265350
19,316833	0,5	-1,290350
19,325167	0,5	-1,287350
19,333500	0,5	-1,289900
19,341833	0,5	-1,288550
19,350167	0,5	-1,313600
19,358500	0,5	-1,343650
19,366833	0,5	-1,351400
19,375167	0,5	-1,353600
19,383500	0,5	-1,356000
19,391833	0,5	-1,366950
19,400167	0,5	-1,369150
19,408500	0,5	-1,377950
19,416833	0,5	-1,381400
19,425167	0,5	-1,388000
19,433500	0,5	-1,384600
19,441833	0,5	-1,393200
19,450167	0,5	-1,401400
19,458500	0,5	-1,402400
19,466833	0,5	-1,421150
19,475167	0,5	-1,416950
19,483500	0,5	-1,418800
19,491833	0,5	-1,431450
19,500167	0,5	-1,441550
19,508500	0,5	-1,473500
19,516833	0,5	-1,473500
19,525167	0,5	-1,470600
19,533500	0,5	-1,483000
19,541833	0,5	-1,496800
19,550167	0,5	-1,515250
19,558500	0,5	-1,527600
19,566833	0,5	-1,539650
19,575167	0,5	-1,533400
19,583500	0,5	-1,543200
19,591833	0,5	-1,555700
19,600167	0,5	-1,566350
19,608500	0,5	-1,565450
19,616833	0,5	-1,587700
19,625167	0,5	-1,571950
19,633500	0,5	-1,580250
19,641833	0,5	-1,577800
19,650167	0,5	-1,605400
19,658500	0,5	-1,630700
19,666833	0,5	-1,613400
19,675167	0,5	-1,614450
19,683500	0,5	-1,613800
19,691833	0,5	-1,614250
19,700167	0,5	-1,615400
19,708500	0,5	-1,628850
19,716833	0,5	-1,641050
19,725167	0,5	-1,654450
19,733500	0,5	-1,666550
19,741833	0,5	-1,673350
19,750167	0,5	-1,676650
19,758500	0,5	-1,699600
19,766833	0,5	-1,709550
19,775167	0,5	-1,719800
19,783500	0,5	-1,739250
19,791833	0,5	-1,771450
19,800167	0,5	-1,803000
19,808500	0,5	-1,827500
19,816833	0,5	-1,831050
19,825167	0,5	-1,842850
19,833500	0,5	-1,858050
19,841833	0,5	-1,865350
19,850167	0,5	-1,873750
19,858500	0,5	-1,896950
19,866833	0,5	-1,905950
19,875167	0,5	-1,905250
19,883500	0,5	-1,923950
19,891833	0,5	-1,917450
19,900167	0,5	-1,922200
19,908500	0,5	-1,941650
19,916833	0,5	-1,942400
19,925167	0,5	-1,948850
19,933500	0,5	-1,970100
19,941833	0,5	-1,991650
19,950167	0,5	-2,020450
19,958500	0,5	-2,043550
19,966833	0,5	-2,037050
19,975167	0,5	-2,035200
19,983500	0,5	-2,045000
19,991833	0,5	-2,045350
20,000167	0,5	-2,066400
20,008500	0,5	-2,078950
20,016833	0,5	-2,091800
20,025167	0,5	-2,110100
20,033500	0,5	-2,121800
20,041833	0,5	-2,134550
20,050167	0,5	-2,155600
20,058500	0,5	-2,179600
20,066833	0,5	-2,180750
20,075167	0,5	-2,200450
20,083500	0,5	-2,216750
20,091833	0,5	-2,273100
20,100167	0,5	-2,282650
20,108500	0,5	-2,292000
20,116833	0,5	-2,299450
20,125167	0,5	-2,319800
20,133500	0,5	-2,328750
20,141833	0,5	-2,334250
20,150167	0,5	-2,350750
20,158500	0,5	-2,369400
20,166833	0,5	-2,381500
20,175167	0,5	-2,388050
20,183500	0,5	-2,389450
20,191833	0,5	-2,384050
20,200167	0,5	-2,417150
20,208500	0,5	-2,407600
20,216833	0,5	-2,416650
20,225167	0,5	-2,421650
20,233500	0,5	-2,453150
20,241833	0,5	-2,482750
20,250167	0,5	-2,493600
20,258500	0,5	-2,504500
20,266833	0,5	-2,528300
20,275167	0,5	-2,536800
20,283500	0,5	-2,556250
20,291833	0,5	-2,561050
20,300167	0,5	-2,580250
20,308500	0,5	-2,589300
20,316833	0,5	-2,603700
20,325167	0,5	-2,627950
20,333500	0,5	-2,632500
20,341833	0,5	-2,648600
20,350167	0,5	-2,691800
20,358500	0,5	-2,711600
20,366833	0,5	-2,728400
20,375167	0,5	-2,754200
20,383500	0,5	-2,790300
20,391833	0,5	-2,829550
20,400167	0,5	-2,839950
20,408500	0,5	-2,868600
20,416833	0,5	-2,881700
20,425167	0,5	-2,906650
20,433500	0,5	-2,920500
20,441833	0,5	-2,948900
20,450167	0,5	-2,972700
20,458500	0,5	-2,993800
20,466833	0,5	-3,021200
20,475167	0,5	-3,032100
20,483500	0,5	-3,028500
20,491833	0,5	-3,056150
20,500167	0,5	-3,080700
20,508500	0,5	-3,102150
20,516833	0,5	-3,127500
20,525167	0,5	-3,152300
20,533500	0,5	-3,189650
20,541833	0,5	-3,179550
20,550167	0,5	-3,178150
20,558500	0,5	-3,179050
20,566833	0,5	-3,215250
20,575167	0,5	-3,233150
20,583500	0,5	-3,285800
20,591833	0,5	-3,328750
20,600167	0,5	-3,367000
20,608500	0,5	-3,410950
20,616833	0,5	-3,456500
20,625167	0,5	-3,476900
20,633500	0,5	-3,497000
20,641833	0,5	-3,539300
20,650167	0,5	-3,570000
20,658500	0,5	-3,612700
20,666833	0,5	-3,657650
20,675167	0,5	-3,713000
20,683500	0,5	-3,762900
20,691833	0,5	-3,780200
20,700167	0,5	-3,775850
20,708500	0,5	-3,784550
20,716833	0,5	-3,772350
20,725167	0,5	-3,762100
20,733500	0,5	-3,750800
20,741833	0,5	-3,764500
20,750167	0,5	-3,791700
20,758500	0,5	-3,858950
20,766833	0,5	-3,925750
20,775167	0,5	-3,956500
20,783500	0,5	-4,015800
20,791833	0,5	-4,085450
20,800167	0,5	-4,136950
20,808500	0,5	-4,203400
20,816833	0,5	-4,267650
20,825167	0,5	-4,329200
20,833500	0,5	-4,388950
20,841833	0,5	-4,413750
20,850167	0,5	-4,456850
20,858500	0,5	-4,492050
20,866833	0,5	-4,534450
20,875167	0,5	-4,562300
20,883500	0,5	-4,595500
20,891833	0,5	-4,616750
20,900167	0,5	-4,640050
20,908500	0,5	-4,665050
20,916833	0,5	-4,674600
20,925167	0,5	-4,699250
20,933500	0,5	-4,744500
20,941833	0,5	-4,796400
20,950167	0,5	-4,840250
20,958500	0,5	-4,887500
20,966833	0,5	-4,947050
20,975167	0,5	-5,011950
20,983500	0,5	-5,035000
20,991833	0,5	-5,079250
21,000167	0,5	-5,094700
21,008500	0,5	-5,125000
21,016833	0,5	-5,138600
21,025167	0,5	-5,167800
21,033500	0,5	-5,177200
21,041833	0,5	-5,200800
21,050167	0,5	-5,228100
21,058500	0,5	-5,257600
21,066833	0,5	-5,265250
21,075167	0,5	-5,297950
21,083500	0,5	-5,344150
21,091833	0,5	-5,377100
21,100167	0,5	-5,424100
21,108500	0,5	-5,465750
21,116833	0,5	-5,541900
21,125167	0,5	-5,576750
21,133500	0,5	-5,609250
21,141833	0,5	-5,632050
21,150167	0,5	-5,665950
21,158500	0,5	-5,689200
21,166833	0,5	-5,719700
21,175167	0,5	-5,751650
21,183500	0,5	-5,774250
21,191833	0,5	-5,792150
21,200167	0,5	-5,824650
21,208500	0,5	-5,819050
21,216833	0,5	-5,813600
21,225167	0,5	-5,829700
21,233500	0,5	-5,852000
21,241833	0,5	-5,874400
21,250167	0,5	-5,900900
21,258500	0,5	-5,933400
21,266833	0,5	-5,970600
21,275167	0,5	-5,989850
21,283500	0,5	-5,975800
21,291833	0,5	-5,988650
21,300167	0,5	-5,980250
21,308500	0,5	-6,005800
21,316833	0,5	-6,018150
21,325167	0,5	-6,055350
21,333500	0,5	-6,070550
21,341833	0,5	-6,099750
21,350167	0,5	-6,134550
21,358500	0,5	-6,115300
21,366833	0,5	-6,115050
21,375167	0,5	-6,143100
21,383500	0,5	-6,172750
21,391833	0,5	-6,191900
21,400167	0,5	-6,223450
21,408500	0,5	-6,255200
21,416833	0,5	-6,302850
21,425167	0,5	-6,291700
21,433500	0,5	-6,305750
21,441833	0,5	-6,317350
21,450167	0,5	-6,331500
21,458500	0,5	-6,341250
21,466833	0,5	-6,358650
21,475167	0,5	-6,375100
21,483500	0,5	-6,401950
21,491833	0,5	-6,414600
21,500167	0,5	-6,397050
21,508500	0,5	-6,381450
21,516833	0,5	-6,386850
21,525167	0,5	-6,401950
21,533500	0,5	-6,427250
21,541833	0,5	-6,443950
21,550167	0,5	-6,481100
21,558500	0,5	-6,524050
21,566833	0,5	-6,535750
21,575167	0,5	-6,546300
21,583500	0,5	-6,547250
21,591833	0,5	-6,567450
21,600167	0,5	-6,564200
21,608500	0,5	-6,582050
21,616833	0,5	-6,574100
21,625167	0,5	-6,570850
21,633500	0,5	-6,569400
21,641833	0,5	-6,566600
21,650167	0,5	-6,520500
21,658500	0,5	-6,495200
21,666833	0,5	-6,489950
21,675167	0,5	-6,478800
21,683500	0,5	-6,503950
21,691833	0,5	-6,523800
21,700167	0,5	-6,572400
21,708500	0,5	-6,610250
21,716833	0,5	-6,638500
21,725167	0,5	-6,631900
21,733500	0,5	-6,641000
21,741833	0,5	-6,627700
21,750167	0,5	-6,639300
21,758500	0,5	-6,654600
21,766833	0,5	-6,680200
21,775167	0,5	-6,703450
21,783500	0,5	-6,735750
21,791833	0,5	-6,762150
21,800167	0,5	-6,749650
21,808500	0,5	-6,773900
21,816833	0,5	-6,791000
21,825167	0,5	-6,808250
21,833500	0,5	-6,825250
21,841833	0,5	-6,854600
21,850167	0,5	-6,876100
21,858500	0,5	-6,899750
21,866833	0,5	-6,899800
21,875167	0,5	-6,918850
21,883500	0,5	-6,935200
21,891833	0,5	-6,951450
21,900167	0,5	-6,962550
21,908500	0,5	-6,974700
21,916833	0,5	-6,969550
21,925167	0,5	-6,953800
21,933500	0,5	-6,916400
21,941833	0,5	-6,860150
21,950167	0,5	-6,834700
21,958500	0,5	-6,847000
21,966833	0,5	-6,870050
21,975167	0,5	-6,907500
21,983500	0,5	-6,971550
21,991833	0,5	-7,047550
22,000167	0,5	-7,083000
22,008500	0,5	-7,104700
22,016833	0,5	-7,137700
22,025167	0,5	-7,162800
22,033500	0,5	-7,191450
22,041833	0,5	-7,211600
22,050167	0,5	-7,246950
22,058500	0,5	-7,260850
22,066833	0,5	-7,284650
22,075167	0,5	-7,307550
22,083500	0,5	-7,327700
22,091833	0,5	-7,346550
22,100167	0,5	-7,378700
22,108500	0,5	-7,378600
22,116833	0,5	-7,394500
22,125167	0,5	-7,423750
22,133500	0,5	-7,442450
22,141833	0,5	-7,486100
22,150167	0,5	-7,493300
22,158500	0,5	-7,513050
22,166833	0,5	-7,508800
22,175167	0,5	-7,525250
22,183500	0,5	-7,537000
22,191833	0,5	-7,560800
22,200167	0,5	-7,565350
22,208500	0,5	-7,567400
22,216833	0,5	-7,579750
22,225167	0,5	-7,581300
22,233500	0,5	-7,609900
22,241833	0,5	-7,627300
22,250167	0,5	-7,610150
22,258500	0,5	-7,600400
22,266833	0,5	-7,588950
22,275167	0,5	-7,596500
22,283500	0,5	-7,606950
22,291833	0,5	-7,609850
22,300167	0,5	-7,590500
22,308500	0,5	-7,573650
22,316833	0,5	-7,566500
22,325167	0,5	-7,547850
22,333500	0,5	-7,549000
22,341833	0,5	-7,529900
22,350167	0,5	-7,510650
22,358500	0,5	-7,462050
22,366833	0,5	-7,395150
22,375167	0,5	-7,335650
22,383500	0,5	-7,286750
22,391833	0,5	-7,309100
22,400167	0,5	-7,296050
22,408500	0,5	-7,353150
22,416833	0,5	-7,391800
22,425167	0,5	-7,444800
22,433500	0,5	-7,507550
22,441833	0,5	-7,524100
22,450167	0,5	-7,524700
22,458500	0,5	-7,546400
22,466833	0,5	-7,553700
22,475167	0,5	-7,564150
22,483500	0,5	-7,565750
22,491833	0,5	-7,581000
22,500167	0,5	-7,568250
22,508500	0,5	-7,568300
22,516833	0,5	-7,564600
22,525167	0,5	-7,590050
22,533500	0,5	-7,589200
22,541833	0,5	-7,565100
22,550167	0,5	-7,520450
22,558500	0,5	-7,503750
22,566833	0,5	-7,484850
22,575167	0,5	-7,472150
22,583500	0,5	-7,471250
22,591833	0,5	-7,426300
22,600167	0,5	-7,415250
22,608500	0,5	-7,400950
22,616833	0,5	-7,392800
22,625167	0,5	-7,379400
22,633500	0,5	-7,392500
22,641833	0,5	-7,375750
22,650167	0,5	-7,376000
22,658500	0,5	-7,380600
22,666833	0,5	-7,412950
22,675167	0,5	-7,454800
22,683500	0,5	-7,441800
22,691833	0,5	-7,420500
22,700167	0,5	-7,413050
22,708500	0,5	-7,429050
22,716833	0,5	-7,449300
22,725167	0,5	-7,481700
22,733500	0,5	-7,494600
22,741833	0,5	-7,511850
22,750167	0,5	-7,523150
22,758500	0,5	-7,535200
22,766833	0,5	-7,542050
22,775167	0,5	-7,548300
22,783500	0,5	-7,564450
22,791833	0,5	-7,574400
22,800167	0,5	-7,594500
22,808500	0,5	-7,600900
22,816833	0,5	-7,689050
22,825167	0,5	-7,703300
22,833500	0,5	-7,701550
22,841833	0,5	-7,698100
22,850167	0,5	-7,725050
22,858500	0,5	-7,753250
22,866833	0,5	-7,775700
22,875167	0,5	-7,812450
22,883500	0,5	-7,836450
22,891833	0,5	-7,864350
22,900167	0,5	-7,888350
22,908500	0,5	-7,904250
22,916833	0,5	-7,912450
22,925167	0,5	-7,922950
22,933500	0,5	-7,921750
22,941833	0,5	-7,923150
22,950167	0,5	-7,913200
22,958500	0,5	-7,894350
22,966833	0,5	-7,900250
22,975167	0,5	-7,881250
22,983500	0,5	-7,869100
22,991833	0,5	-7,882750
23,000167	0,5	-7,864250
23,008500	0,5	-7,842300
23,016833	0,5	-7,806300
23,025167	0,5	-7,788900
23,033500	0,5	-7,773550
23,041833	0,5	-7,733950
23,050167	0,5	-7,693150
23,058500	0,5	-7,649550
23,066833	0,5	-7,597300
23,075167	0,5	-7,526500
23,083500	0,5	-7,470950
23,091833	0,5	-7,404350
23,100167	0,5	-7,332300
23,108500	0,5	-7,208950
23,116833	0,5	-7,150200
23,125167	0,5	-7,066600
23,133500	0,5	-7,036300
23,141833	0,5	-6,990800
23,150167	0,5	-6,897050
23,158500	0,5	-6,823500
23,166833	0,5	-6,739100
23,175167	0,5	-6,681200
23,183500	0,5	-6,604450
23,191833	0,5	-6,532900
23,200167	0,5	-6,456950
23,208500	0,5	-6,383200
23,216833	0,5	-6,288250
23,225167	0,5	-6,207450
23,233500	0,5	-6,116750
23,241833	0,5	-6,022850
23,250167	0,5	-5,923100
23,258500	0,5	-5,835350
23,266833	0,5	-5,723650
23,275167	0,5	-5,619750
23,283500	0,5	-5,567150
23,291833	0,5	-5,498200
23,300167	0,5	-5,420750
23,308500	0,5	-5,337050
23,316833	0,5	-5,262700
23,325167	0,5	-5,203000
23,333500	0,5	-5,141000
23,341833	0,5	-5,066800
23,350167	0,5	-4,996350
23,358500	0,5	-4,920050
23,366833	0,5	-4,844100
23,375167	0,5	-4,775600
23,383500	0,5	-4,709450
23,391833	0,5	-4,625900
23,400167	0,5	-4,546000
23,408500	0,5	-4,534850
23,416833	0,5	-4,427250
23,425167	0,5	-4,326600
23,433500	0,5	-4,278450
23,441833	0,5	-4,229900
23,450167	0,5	-4,156800
23,458500	0,5	-4,091150
23,466833	0,5	-4,048650
23,475167	0,5	-4,007900
23,483500	0,5	-3,956050
23,491833	0,5	-3,919250
23,500167	0,5	-3,879000
23,508500	0,5	-3,832550
23,516833	0,5	-3,784300
23,525167	0,5	-3,746700
23,533500	0,5	-3,700050
23,541833	0,5	-3,659800
23,550167	0,5	-3,728800
23,558500	0,5	-3,659050
23,566833	0,5	-3,602750
23,575167	0,5	-3,514500
23,583500	0,5	-3,473600
23,591833	0,5	-3,443800
23,600167	0,5	-3,407500
23,608500	0,5	-3,380400
23,616833	0,5	-3,348650
23,625167	0,5	-3,319900
23,633500	0,5	-3,290950
23,641833	0,5	-3,258200
23,650167	0,5	-3,231550
23,658500	0,5	-3,201000
23,666833	0,5	-3,174200
23,675167	0,5	-3,141300
23,683500	0,5	-3,112600
23,691833	0,5	-3,101850
23,700167	0,5	-3,238300
23,708500	0,5	-3,175700
23,716833	0,5	-3,099350
23,725167	0,5	-3,033050
23,733500	0,5	-2,996450
23,741833	0,5	-2,968450
23,750167	0,5	-2,949000
23,758500	0,5	-2,933900
23,766833	0,5	-2,914050
23,775167	0,5	-2,890900
23,783500	0,5	-2,867250
23,791833	0,5	-2,843200
23,800167	0,5	-2,815850
23,808500	0,5	-2,787900
23,816833	0,5	-2,759400
23,825167	0,5	-2,730700
23,833500	0,5	-2,702750
23,841833	0,5	-2,780300
23,850167	0,5	-2,847900
23,858500	0,5	-2,776200
23,866833	0,5	-2,694050
23,875167	0,5	-2,630700
23,883500	0,5	-2,595450
23,891833	0,5	-2,567850
23,900167	0,5	-2,554550
23,908500	0,5	-2,536950
23,916833	0,5	-2,509550
23,925167	0,5	-2,476100
23,933500	0,5	-2,459100
23,941833	0,5	-2,428400
23,950167	0,5	-2,405750
23,958500	0,5	-2,381700
23,966833	0,5	-2,362150
23,975167	0,5	-2,335150
23,983500	0,5	-2,309850
23,991833	0,5	-2,473850
24,000167	0,5	-2,442950
24,008500	0,5	-2,390700
24,016833	0,5	-2,309850
24,025167	0,5	-2,256700
24,033500	0,5	-2,219350
24,041833	0,5	-2,196150
24,050167	0,5	-2,178550
24,058500	0,5	-2,157750
24,066833	0,5	-2,117550
24,075167	0,5	-2,094750
24,083500	0,5	-2,067750
24,091833	0,5	-2,040650
24,100167	0,5	-2,012400
24,108500	0,5	-1,985350
24,116833	0,5	-1,952450
24,125167	0,5	-1,922350
24,133500	0,5	-1,938500
24,141833	0,5	-2,037600
24,150167	0,5	-2,017350
24,158500	0,5	-1,952700
24,166833	0,5	-1,897700
24,175167	0,5	-1,856250
24,183500	0,5	-1,832750
24,191833	0,5	-1,839650
24,200167	0,5	-1,829200
24,208500	0,5	-1,792100
24,216833	0,5	-1,770000
24,225167	0,5	-1,739600
24,233500	0,5	-1,718100
24,241833	0,5	-1,690350
24,250167	0,5	-1,669400
24,258500	0,5	-1,638950
24,266833	0,5	-1,620500
24,275167	0,5	-1,601050
24,283500	0,5	-1,677850
24,291833	0,5	-1,687700
24,300167	0,5	-1,659250
24,308500	0,5	-1,600500
24,316833	0,5	-1,554850
24,325167	0,5	-1,523950
24,333500	0,5	-1,498250
24,341833	0,5	-1,500200
24,350167	0,5	-1,470850
24,358500	0,5	-1,449900
24,366833	0,5	-1,427600
24,375167	0,5	-1,415500
24,383500	0,5	-1,388800
24,391833	0,5	-1,383850
24,400167	0,5	-1,366000
24,408500	0,5	-1,348050
24,416833	0,5	-1,325250
24,425167	0,5	-1,311150
24,433500	0,5	-1,406450
24,441833	0,5	-1,381500
24,450167	0,5	-1,357550
24,458500	0,5	-1,308600
24,466833	0,5	-1,276750
24,475167	0,5	-1,258900
24,483500	0,5	-1,243900
24,491833	0,5	-1,255150
24,500167	0,5	-1,229050
24,508500	0,5	-1,202600
24,516833	0,5	-1,186900
24,525167	0,5	-1,168750
24,533500	0,5	-1,151550
24,541833	0,5	-1,133200
24,550167	0,5	-1,119000
24,558500	0,5	-1,103850
24,566833	0,5	-1,091550
24,575167	0,5	-1,105650
24,583500	0,5	-1,141200
24,591833	0,5	-1,123450
24,600167	0,5	-1,101950
24,608500	0,5	-1,074300
24,616833	0,5	-1,055350
24,625167	0,5	-1,043200
24,633500	0,5	-1,042800
24,641833	0,5	-1,043450
24,650167	0,5	-1,026550
24,658500	0,5	-1,016350
24,666833	0,5	-1,003100
24,675167	0,5	-0,992250
24,683500	0,5	-0,982050
24,691833	0,5	-0,980800
24,700167	0,5	-0,965100
24,708500	0,5	-0,952800
24,716833	0,5	-0,939900
24,725167	0,5	-0,981250
24,733500	0,5	-0,960000
24,741833	0,5	-0,949800
24,750167	0,5	-0,921900
24,758500	0,5	-0,902850
24,766833	0,5	-0,888800
24,775167	0,5	-0,885100
24,783500	0,5	-0,881900
24,791833	0,5	-0,879450
24,800167	0,5	-0,871700
24,808500	0,5	-0,861650
24,816833	0,5	-0,856050
24,825167	0,5	-0,851750
24,833500	0,5	-0,842550
24,841833	0,5	-0,838750
24,850167	0,5	-0,831650
24,858500	0,5	-0,825350
24,866833	0,5	-0,824050
24,875167	0,5	-0,852000
24,883500	0,5	-0,840650
24,891833	0,5	-0,827450
24,900167	0,5	-0,817400
24,908500	0,5	-0,802200
24,916833	0,5	-0,792150
24,925167	0,5	-0,787650
24,933500	0,5	-0,788150
24,941833	0,5	-0,778400
24,950167	0,5	-0,771200
24,958500	0,5	-0,759300
24,966833	0,5	-0,753300
24,975167	0,5	-0,748950
24,983500	0,5	-0,740700
24,991833	0,5	-0,741100
25,000167	0,5	-0,735200
25,008500	0,5	-0,735000
25,016833	0,5	-0,734500
25,025167	0,5	-0,748400
25,033500	0,5	-0,743850
25,041833	0,5	-0,739000
25,050167	0,5	-0,733100
25,058500	0,5	-0,726350
25,066833	0,5	-0,725350
25,075167	0,5	-0,726350
25,083500	0,5	-0,725600
25,091833	0,5	-0,723900
25,100167	0,5	-0,716950
25,108500	0,5	-0,712950
25,116833	0,5	-0,706100
25,125167	0,5	-0,701400
25,133500	0,5	-0,696000
25,141833	0,5	-0,691100
25,150167	0,5	-0,681100
25,158500	0,5	-0,677550
25,166833	0,5	-0,683900
25,175167	0,5	-0,679700
25,183500	0,5	-0,676950
25,191833	0,5	-0,668100
25,200167	0,5	-0,670600
25,208500	0,5	-0,670500
25,216833	0,5	-0,670500
25,225167	0,5	-0,673450
25,233500	0,5	-0,674700
25,241833	0,5	-0,670900
25,250167	0,5	-0,674400
25,258500	0,5	-0,672100
25,266833	0,5	-0,671900
25,275167	0,5	-0,667100
25,283500	0,5	-0,666050
25,291833	0,5	-0,662700
25,300167	0,5	-0,660750
25,308500	0,5	-0,654800
25,316833	0,5	-0,653600
25,325167	0,5	-0,645650
25,333500	0,5	-0,640800
25,341833	0,5	-0,642400
25,350167	0,5	-0,635800
25,358500	0,5	-0,636150
25,366833	0,5	-0,635300
25,375167	0,5	-0,636650
25,383500	0,5	-0,632650
25,391833	0,5	-0,633150
25,400167	0,5	-0,635300
25,408500	0,5	-0,634050
25,416833	0,5	-0,637500
25,425167	0,5	-0,633400
25,433500	0,5	-0,636950
25,441833	0,5	-0,636100
25,450167	0,5	-0,636250
25,458500	0,5	-0,635500
25,466833	0,5	-0,628000
25,475167	0,5	-0,624000
25,483500	0,5	-0,622300
25,491833	0,5	-0,626300
25,500167	0,5	-0,628300
25,508500	0,5	-0,623100
25,516833	0,5	-0,624100
25,525167	0,5	-0,614650
25,533500	0,5	-0,617550
25,541833	0,5	-0,617100
25,550167	0,5	-0,615650
25,558500	0,5	-0,611850
25,566833	0,5	-0,616550
25,575167	0,5	-0,613050
25,583500	0,5	-0,616450
25,591833	0,5	-0,612100
25,600167	0,5	-0,611400
25,608500	0,5	-0,606800
25,616833	0,5	-0,599650
25,625167	0,5	-0,602450
25,633500	0,5	-0,603750
25,641833	0,5	-0,615150
25,650167	0,5	-0,611600
25,658500	0,5	-0,609950
25,666833	0,5	-0,604100
25,675167	0,5	-0,597450
25,683500	0,5	-0,605700
25,691833	0,5	-0,606450
25,700167	0,5	-0,600350
25,708500	0,5	-0,602550
25,716833	0,5	-0,599950
25,725167	0,5	-0,595000
25,733500	0,5	-0,597250
25,741833	0,5	-0,598950
25,750167	0,5	-0,591950
25,758500	0,5	-0,578350
25,766833	0,5	-0,582800
25,775167	0,5	-0,570000
25,783500	0,5	-0,582450
25,791833	0,5	-0,583300
25,800167	0,5	-0,581400
25,808500	0,5	-0,573750
25,816833	0,5	-0,571650
25,825167	0,5	-0,568800
25,833500	0,5	-0,574100
25,841833	0,5	-0,570800
25,850167	0,5	-0,569750
25,858500	0,5	-0,571050
25,866833	0,5	-0,566450
25,875167	0,5	-0,569750
25,883500	0,5	-0,567600
25,891833	0,5	-0,560500
25,900167	0,5	-0,549850
25,908500	0,5	-0,543850
25,916833	0,5	-0,539650
25,925167	0,5	-0,541500
25,933500	0,5	-0,544550
25,941833	0,5	-0,541950
25,950167	0,5	-0,541000
25,958500	0,5	-0,532900
25,966833	0,5	-0,516050
25,975167	0,5	-0,520400
25,983500	0,5	-0,513900
25,991833	0,5	-0,519500
26,000167	0,5	-0,517100
