File Path	chrom://chromeleon01/ikbm_chromeleon/2022/ICS-5000/ED1/Esteban/20220427_Cell_Amandas_mutants.seq/131.smp/ED_1.channel/ED_1.chm
Channel	ED_1

Injection Information:
Data Vault	ikbm_chromeleon
Injection	T24h_PASC_3a
Injection Number	48
Position	RE8
Comment	
Processing Method	Stop sequence after Cell Death
Instrument Method	ICS5000_PA200_FullNative_Ox_26min_ED1
Type	Unknown
Status	Finished
Injection Date	28.04.2022
Injection Time	11:23:22
Injection Volume (µl)	5,0
Dilution Factor	1,0000
Weight	1,0000

Chromatogram Data Information:
Time Min. (min)	0,000167
Time Max. (min)	26,000167
Data Points	3121
Detector	EDet1
Generating Data System	Chromeleon 7.2.9.11323
Exporting Data System	Chromeleon 7.2.9.0
Operator	Instrument Controller
Signal Quantity	
Signal Unit	nC
Signal Min.	-8,179600
Signal Max.	45,880201
Channel	ED_1
Driver Name	DC-5000
Channel Type	Evaluation
Min. Step (s)	0,5
Max. Step (s)	0,5
Average Step (s)	0,5

Signal Parameter Information:
Signal Info	

Chromatogram Data:
Time (min)	Step (s)	Value (nC)
0,000167	n.a.	-0,071400
0,008500	0,5	-0,111850
0,016833	0,5	-0,103400
0,025167	0,5	-0,092700
0,033500	0,5	-0,075550
0,041833	0,5	-0,070800
0,050167	0,5	-0,050600
0,058500	0,5	-0,052700
0,066833	0,5	-0,042350
0,075167	0,5	-0,025800
0,083500	0,5	-0,036300
0,091833	0,5	-0,015100
0,100167	0,5	-0,043900
0,108500	0,5	-0,055950
0,116833	0,5	-0,052300
0,125167	0,5	-0,021750
0,133500	0,5	0,011250
0,141833	0,5	0,022750
0,150167	0,5	0,011150
0,158500	0,5	0,020000
0,166833	0,5	-0,000150
0,175167	0,5	-0,000300
0,183500	0,5	-0,009650
0,191833	0,5	0,000250
0,200167	0,5	-0,012950
0,208500	0,5	-0,003900
0,216833	0,5	-0,010700
0,225167	0,5	-0,026750
0,233500	0,5	-0,034300
0,241833	0,5	-0,012800
0,250167	0,5	-0,033700
0,258500	0,5	-0,032300
0,266833	0,5	-0,030900
0,275167	0,5	0,001450
0,283500	0,5	0,028300
0,291833	0,5	0,025550
0,300167	0,5	0,057300
0,308500	0,5	0,099150
0,316833	0,5	0,076350
0,325167	0,5	0,007600
0,333500	0,5	-0,014800
0,341833	0,5	-0,020100
0,350167	0,5	-0,015500
0,358500	0,5	-0,013700
0,366833	0,5	-0,023250
0,375167	0,5	-0,043650
0,383500	0,5	-0,015100
0,391833	0,5	-0,029850
0,400167	0,5	-0,040450
0,408500	0,5	-0,040100
0,416833	0,5	-0,030850
0,425167	0,5	0,003900
0,433500	0,5	0,016650
0,441833	0,5	0,016500
0,450167	0,5	0,016300
0,458500	0,5	0,010450
0,466833	0,5	-0,002050
0,475167	0,5	-0,004500
0,483500	0,5	-0,005550
0,491833	0,5	-0,006300
0,500167	0,5	-0,015000
0,508500	0,5	-0,009400
0,516833	0,5	-0,033400
0,525167	0,5	-0,033700
0,533500	0,5	-0,004900
0,541833	0,5	-0,018850
0,550167	0,5	-0,030100
0,558500	0,5	-0,008350
0,566833	0,5	-0,007900
0,575167	0,5	0,042350
0,583500	0,5	0,029050
0,591833	0,5	0,023850
0,600167	0,5	0,013800
0,608500	0,5	0,021100
0,616833	0,5	0,009150
0,625167	0,5	0,005850
0,633500	0,5	0,005200
0,641833	0,5	0,002150
0,650167	0,5	0,010150
0,658500	0,5	0,010100
0,666833	0,5	0,011750
0,675167	0,5	0,012800
0,683500	0,5	0,040600
0,691833	0,5	0,010300
0,700167	0,5	-0,000450
0,708500	0,5	0,002800
0,716833	0,5	0,023950
0,725167	0,5	0,059750
0,733500	0,5	0,045450
0,741833	0,5	0,031250
0,750167	0,5	0,050950
0,758500	0,5	0,044750
0,766833	0,5	0,047750
0,775167	0,5	0,045950
0,783500	0,5	0,049900
0,791833	0,5	0,039500
0,800167	0,5	0,041000
0,808500	0,5	0,046600
0,816833	0,5	0,028100
0,825167	0,5	0,044150
0,833500	0,5	0,044150
0,841833	0,5	0,035300
0,850167	0,5	0,033500
0,858500	0,5	0,062800
0,866833	0,5	0,084900
0,875167	0,5	0,111400
0,883500	0,5	0,085750
0,891833	0,5	0,088750
0,900167	0,5	0,084700
0,908500	0,5	0,087700
0,916833	0,5	0,081400
0,925167	0,5	0,092200
0,933500	0,5	0,084250
0,941833	0,5	0,087850
0,950167	0,5	0,097950
0,958500	0,5	0,093250
0,966833	0,5	0,068700
0,975167	0,5	0,102350
0,983500	0,5	0,090000
0,991833	0,5	0,089400
1,000167	0,5	0,088750
1,008500	0,5	0,108100
1,016833	0,5	0,145350
1,025167	0,5	0,143650
1,033500	0,5	0,143700
1,041833	0,5	0,135250
1,050167	0,5	0,155900
1,058500	0,5	0,153300
1,066833	0,5	0,162000
1,075167	0,5	0,152300
1,083500	0,5	0,155100
1,091833	0,5	0,156450
1,100167	0,5	0,168500
1,108500	0,5	0,155550
1,116833	0,5	0,157050
1,125167	0,5	0,185100
1,133500	0,5	0,166350
1,141833	0,5	0,164750
1,150167	0,5	0,178300
1,158500	0,5	0,205200
1,166833	0,5	0,248950
1,175167	0,5	0,253500
1,183500	0,5	0,240550
1,191833	0,5	0,247650
1,200167	0,5	0,244550
1,208500	0,5	0,248000
1,216833	0,5	0,248050
1,225167	0,5	0,258950
1,233500	0,5	0,253000
1,241833	0,5	0,269650
1,250167	0,5	0,281400
1,258500	0,5	0,289200
1,266833	0,5	0,291750
1,275167	0,5	0,314200
1,283500	0,5	0,291250
1,291833	0,5	0,304700
1,300167	0,5	0,309400
1,308500	0,5	0,349500
1,316833	0,5	0,378900
1,325167	0,5	0,376900
1,333500	0,5	0,378200
1,341833	0,5	0,396800
1,350167	0,5	0,397600
1,358500	0,5	0,416450
1,366833	0,5	0,425300
1,375167	0,5	0,420550
1,383500	0,5	0,432400
1,391833	0,5	0,437550
1,400167	0,5	0,449100
1,408500	0,5	0,442500
1,416833	0,5	0,476550
1,425167	0,5	0,470800
1,433500	0,5	0,464700
1,441833	0,5	0,477100
1,450167	0,5	0,499700
1,458500	0,5	0,546050
1,466833	0,5	0,562650
1,475167	0,5	0,559650
1,483500	0,5	0,572500
1,491833	0,5	0,573750
1,500167	0,5	0,578750
1,508500	0,5	0,579000
1,516833	0,5	0,593300
1,525167	0,5	0,592500
1,533500	0,5	0,603100
1,541833	0,5	0,622500
1,550167	0,5	0,596200
1,558500	0,5	0,606500
1,566833	0,5	0,637150
1,575167	0,5	0,567650
1,583500	0,5	0,170600
1,591833	0,5	-0,862850
1,600167	0,5	-1,681150
1,608500	0,5	-0,803050
1,616833	0,5	1,268150
1,625167	0,5	3,275100
1,633500	0,5	5,323700
1,641833	0,5	7,507850
1,650167	0,5	9,020750
1,658500	0,5	9,345500
1,666833	0,5	8,823450
1,675167	0,5	8,023200
1,683500	0,5	7,232900
1,691833	0,5	6,524150
1,700167	0,5	5,958250
1,708500	0,5	5,671500
1,716833	0,5	5,874050
1,725167	0,5	6,682100
1,733500	0,5	7,480850
1,741833	0,5	7,366300
1,750167	0,5	6,413550
1,758500	0,5	5,351400
1,766833	0,5	4,629500
1,775167	0,5	4,446550
1,783500	0,5	5,208400
1,791833	0,5	7,522300
1,800167	0,5	11,334450
1,808500	0,5	14,913050
1,816833	0,5	16,862300
1,825167	0,5	16,850050
1,833500	0,5	15,093550
1,841833	0,5	12,621250
1,850167	0,5	10,429000
1,858500	0,5	8,857650
1,866833	0,5	7,719850
1,875167	0,5	6,903650
1,883500	0,5	6,291300
1,891833	0,5	5,811800
1,900167	0,5	5,429100
1,908500	0,5	5,106950
1,916833	0,5	4,806150
1,925167	0,5	4,593500
1,933500	0,5	4,438950
1,941833	0,5	4,341950
1,950167	0,5	4,297300
1,958500	0,5	4,283900
1,966833	0,5	4,245200
1,975167	0,5	4,240300
1,983500	0,5	4,280100
1,991833	0,5	4,335250
2,000167	0,5	4,386750
2,008500	0,5	4,516050
2,016833	0,5	4,624550
2,025167	0,5	4,866600
2,033500	0,5	5,362100
2,041833	0,5	6,152400
2,050167	0,5	6,991950
2,058500	0,5	7,700350
2,066833	0,5	8,411800
2,075167	0,5	9,066400
2,083500	0,5	9,455350
2,091833	0,5	9,552950
2,100167	0,5	9,530900
2,108500	0,5	9,499100
2,116833	0,5	9,538350
2,125167	0,5	9,754200
2,133500	0,5	10,230800
2,141833	0,5	11,120100
2,150167	0,5	12,799050
2,158500	0,5	14,887850
2,166833	0,5	15,836300
2,175167	0,5	14,949050
2,183500	0,5	13,156550
2,191833	0,5	11,596650
2,200167	0,5	10,547950
2,208500	0,5	9,819000
2,216833	0,5	9,301000
2,225167	0,5	8,932500
2,233500	0,5	8,672350
2,241833	0,5	8,482100
2,250167	0,5	8,363650
2,258500	0,5	8,288250
2,266833	0,5	8,223050
2,275167	0,5	8,208300
2,283500	0,5	8,181300
2,291833	0,5	8,172800
2,300167	0,5	8,183850
2,308500	0,5	8,207700
2,316833	0,5	8,214900
2,325167	0,5	8,256300
2,333500	0,5	8,299600
2,341833	0,5	8,378400
2,350167	0,5	8,455400
2,358500	0,5	8,517700
2,366833	0,5	8,569750
2,375167	0,5	8,648300
2,383500	0,5	8,714550
2,391833	0,5	8,802300
2,400167	0,5	8,907700
2,408500	0,5	9,052500
2,416833	0,5	9,235150
2,425167	0,5	9,416000
2,433500	0,5	9,482750
2,441833	0,5	9,414000
2,450167	0,5	9,395450
2,458500	0,5	9,417700
2,466833	0,5	9,473750
2,475167	0,5	9,541700
2,483500	0,5	9,604100
2,491833	0,5	9,667150
2,500167	0,5	9,711350
2,508500	0,5	9,719550
2,516833	0,5	9,735000
2,525167	0,5	9,738500
2,533500	0,5	9,766650
2,541833	0,5	9,814500
2,550167	0,5	9,923850
2,558500	0,5	10,119200
2,566833	0,5	10,453200
2,575167	0,5	11,025000
2,583500	0,5	12,010750
2,591833	0,5	13,738850
2,600167	0,5	16,457550
2,608500	0,5	20,014100
2,616833	0,5	23,853900
2,625167	0,5	27,189950
2,633500	0,5	29,417850
2,641833	0,5	30,287200
2,650167	0,5	29,759900
2,658500	0,5	28,119200
2,666833	0,5	25,785750
2,675167	0,5	23,321800
2,683500	0,5	21,157800
2,691833	0,5	19,544950
2,700167	0,5	18,619300
2,708500	0,5	18,538150
2,716833	0,5	19,497700
2,725167	0,5	21,665250
2,733500	0,5	25,072900
2,741833	0,5	29,663100
2,750167	0,5	35,063501
2,758500	0,5	40,420551
2,766833	0,5	44,403601
2,775167	0,5	45,880201
2,783500	0,5	44,538351
2,791833	0,5	40,924551
2,800167	0,5	36,130051
2,808500	0,5	31,228500
2,816833	0,5	27,052300
2,825167	0,5	24,056050
2,833500	0,5	22,578100
2,841833	0,5	22,850850
2,850167	0,5	24,784200
2,858500	0,5	27,513000
2,866833	0,5	29,592650
2,875167	0,5	29,834150
2,883500	0,5	28,055550
2,891833	0,5	25,026100
2,900167	0,5	21,622550
2,908500	0,5	18,518600
2,916833	0,5	15,951050
2,925167	0,5	13,914750
2,933500	0,5	12,347750
2,941833	0,5	11,104000
2,950167	0,5	10,107500
2,958500	0,5	9,329800
2,966833	0,5	8,700050
2,975167	0,5	8,161700
2,983500	0,5	7,708000
2,991833	0,5	7,319400
3,000167	0,5	6,968500
3,008500	0,5	6,663850
3,016833	0,5	6,387700
3,025167	0,5	6,144200
3,033500	0,5	5,904050
3,041833	0,5	5,726150
3,050167	0,5	5,509300
3,058500	0,5	5,333700
3,066833	0,5	5,154350
3,075167	0,5	4,996200
3,083500	0,5	4,849100
3,091833	0,5	4,672850
3,100167	0,5	4,513850
3,108500	0,5	4,378250
3,116833	0,5	4,258500
3,125167	0,5	4,154350
3,133500	0,5	4,082450
3,141833	0,5	4,035000
3,150167	0,5	4,017750
3,158500	0,5	4,043200
3,166833	0,5	4,125150
3,175167	0,5	4,247450
3,183500	0,5	4,533450
3,191833	0,5	5,074900
3,200167	0,5	5,963250
3,208500	0,5	7,318800
3,216833	0,5	9,000200
3,225167	0,5	10,679400
3,233500	0,5	11,909500
3,241833	0,5	12,281900
3,250167	0,5	11,782550
3,258500	0,5	10,589850
3,266833	0,5	9,078700
3,275167	0,5	7,558950
3,283500	0,5	6,270850
3,291833	0,5	5,265700
3,300167	0,5	4,519350
3,308500	0,5	3,975150
3,316833	0,5	3,559950
3,325167	0,5	3,242600
3,333500	0,5	2,993350
3,341833	0,5	2,785000
3,350167	0,5	2,600050
3,358500	0,5	2,459750
3,366833	0,5	2,344300
3,375167	0,5	2,263900
3,383500	0,5	2,177300
3,391833	0,5	2,082550
3,400167	0,5	1,999500
3,408500	0,5	1,932350
3,416833	0,5	1,859300
3,425167	0,5	1,806150
3,433500	0,5	1,740900
3,441833	0,5	1,686350
3,450167	0,5	1,626550
3,458500	0,5	1,579700
3,466833	0,5	1,543600
3,475167	0,5	1,493050
3,483500	0,5	1,467200
3,491833	0,5	1,414650
3,500167	0,5	1,367100
3,508500	0,5	1,332450
3,516833	0,5	1,314850
3,525167	0,5	1,304150
3,533500	0,5	1,291950
3,541833	0,5	1,248200
3,550167	0,5	1,223350
3,558500	0,5	1,189600
3,566833	0,5	1,169200
3,575167	0,5	1,132200
3,583500	0,5	1,109650
3,591833	0,5	1,079950
3,600167	0,5	1,053850
3,608500	0,5	1,029800
3,616833	0,5	0,998150
3,625167	0,5	0,983500
3,633500	0,5	0,978200
3,641833	0,5	0,937400
3,650167	0,5	0,916700
3,658500	0,5	0,897550
3,666833	0,5	0,907800
3,675167	0,5	0,910750
3,683500	0,5	0,886100
3,691833	0,5	0,864850
3,700167	0,5	0,846300
3,708500	0,5	0,833250
3,716833	0,5	0,815200
3,725167	0,5	0,809750
3,733500	0,5	0,795550
3,741833	0,5	0,790850
3,750167	0,5	0,779150
3,758500	0,5	0,772500
3,766833	0,5	0,754400
3,775167	0,5	0,784000
3,783500	0,5	0,767200
3,791833	0,5	0,758450
3,800167	0,5	0,744350
3,808500	0,5	0,738400
3,816833	0,5	0,753050
3,825167	0,5	0,750400
3,833500	0,5	0,734550
3,841833	0,5	0,719450
3,850167	0,5	0,712150
3,858500	0,5	0,699100
3,866833	0,5	0,698250
3,875167	0,5	0,697550
3,883500	0,5	0,697300
3,891833	0,5	0,672300
3,900167	0,5	0,673600
3,908500	0,5	0,666850
3,916833	0,5	0,659850
3,925167	0,5	0,670800
3,933500	0,5	0,649300
3,941833	0,5	0,637100
3,950167	0,5	0,631250
3,958500	0,5	0,635100
3,966833	0,5	0,661350
3,975167	0,5	0,656600
3,983500	0,5	0,644000
3,991833	0,5	0,638450
4,000167	0,5	0,637150
4,008500	0,5	0,622500
4,016833	0,5	0,622700
4,025167	0,5	0,624200
4,033500	0,5	0,611950
4,041833	0,5	0,614000
4,050167	0,5	0,609400
4,058500	0,5	0,617100
4,066833	0,5	0,600900
4,075167	0,5	0,628550
4,083500	0,5	0,603400
4,091833	0,5	0,601000
4,100167	0,5	0,598750
4,108500	0,5	0,616350
4,116833	0,5	0,636350
4,125167	0,5	0,623900
4,133500	0,5	0,612250
4,141833	0,5	0,621100
4,150167	0,5	0,616200
4,158500	0,5	0,613700
4,166833	0,5	0,610750
4,175167	0,5	0,613950
4,183500	0,5	0,612900
4,191833	0,5	0,610450
4,200167	0,5	0,625150
4,208500	0,5	0,615700
4,216833	0,5	0,622200
4,225167	0,5	0,631900
4,233500	0,5	0,619400
4,241833	0,5	0,617050
4,250167	0,5	0,632450
4,258500	0,5	0,648850
4,266833	0,5	0,677350
4,275167	0,5	0,674600
4,283500	0,5	0,689800
4,291833	0,5	0,683400
4,300167	0,5	0,687400
4,308500	0,5	0,688700
4,316833	0,5	0,697700
4,325167	0,5	0,698350
4,333500	0,5	0,708500
4,341833	0,5	0,720800
4,350167	0,5	0,723200
4,358500	0,5	0,730100
4,366833	0,5	0,754300
4,375167	0,5	0,753150
4,383500	0,5	0,757050
4,391833	0,5	0,767350
4,400167	0,5	0,786000
4,408500	0,5	0,818300
4,416833	0,5	0,835850
4,425167	0,5	0,845750
4,433500	0,5	0,853950
4,441833	0,5	0,882000
4,450167	0,5	0,888700
4,458500	0,5	0,914950
4,466833	0,5	0,934300
4,475167	0,5	0,940900
4,483500	0,5	0,945550
4,491833	0,5	0,946750
4,500167	0,5	0,937850
4,508500	0,5	0,929000
4,516833	0,5	0,928950
4,525167	0,5	0,907450
4,533500	0,5	0,895950
4,541833	0,5	0,886200
4,550167	0,5	0,897400
4,558500	0,5	0,911500
4,566833	0,5	0,920950
4,575167	0,5	0,910400
4,583500	0,5	0,919850
4,591833	0,5	0,919600
4,600167	0,5	0,923600
4,608500	0,5	0,922950
4,616833	0,5	0,927800
4,625167	0,5	0,929000
4,633500	0,5	0,937200
4,641833	0,5	0,944750
4,650167	0,5	0,953250
4,658500	0,5	0,967750
4,666833	0,5	0,978650
4,675167	0,5	0,975400
4,683500	0,5	0,981450
4,691833	0,5	0,991900
4,700167	0,5	1,019400
4,708500	0,5	1,038250
4,716833	0,5	1,034800
4,725167	0,5	1,044500
4,733500	0,5	1,044800
4,741833	0,5	1,048050
4,750167	0,5	1,053000
4,758500	0,5	1,062950
4,766833	0,5	1,064200
4,775167	0,5	1,071750
4,783500	0,5	1,081550
4,791833	0,5	1,095050
4,800167	0,5	1,091600
4,808500	0,5	1,129250
4,816833	0,5	1,120450
4,825167	0,5	1,123550
4,833500	0,5	1,127350
4,841833	0,5	1,140550
4,850167	0,5	1,167100
4,858500	0,5	1,176850
4,866833	0,5	1,181350
4,875167	0,5	1,195450
4,883500	0,5	1,206050
4,891833	0,5	1,221300
4,900167	0,5	1,228300
4,908500	0,5	1,235700
4,916833	0,5	1,243550
4,925167	0,5	1,248950
4,933500	0,5	1,267650
4,941833	0,5	1,269850
4,950167	0,5	1,282850
4,958500	0,5	1,309800
4,966833	0,5	1,302000
4,975167	0,5	1,304600
4,983500	0,5	1,308150
4,991833	0,5	1,333100
5,000167	0,5	1,371350
5,008500	0,5	1,364050
5,016833	0,5	1,370900
5,025167	0,5	1,375500
5,033500	0,5	1,383750
5,041833	0,5	1,387100
5,050167	0,5	1,401450
5,058500	0,5	1,414050
5,066833	0,5	1,428300
5,075167	0,5	1,452700
5,083500	0,5	1,477100
5,091833	0,5	1,511750
5,100167	0,5	1,539100
5,108500	0,5	1,565250
5,116833	0,5	1,566000
5,125167	0,5	1,572700
5,133500	0,5	1,569700
5,141833	0,5	1,582050
5,150167	0,5	1,586650
5,158500	0,5	1,570050
5,166833	0,5	1,550950
5,175167	0,5	1,545050
5,183500	0,5	1,527800
5,191833	0,5	1,523800
5,200167	0,5	1,513750
5,208500	0,5	1,508900
5,216833	0,5	1,495000
5,225167	0,5	1,487650
5,233500	0,5	1,504850
5,241833	0,5	1,498300
5,250167	0,5	1,503050
5,258500	0,5	1,506600
5,266833	0,5	1,499550
5,275167	0,5	1,496750
5,283500	0,5	1,506900
5,291833	0,5	1,522100
5,300167	0,5	1,545600
5,308500	0,5	1,532700
5,316833	0,5	1,537950
5,325167	0,5	1,528750
5,333500	0,5	1,535450
5,341833	0,5	1,525700
5,350167	0,5	1,529350
5,358500	0,5	1,528100
5,366833	0,5	1,528450
5,375167	0,5	1,531700
5,383500	0,5	1,533950
5,391833	0,5	1,525500
5,400167	0,5	1,549050
5,408500	0,5	1,532800
5,416833	0,5	1,524000
5,425167	0,5	1,526400
5,433500	0,5	1,532850
5,441833	0,5	1,556050
5,450167	0,5	1,557400
5,458500	0,5	1,551050
5,466833	0,5	1,539950
5,475167	0,5	1,543800
5,483500	0,5	1,540350
5,491833	0,5	1,539900
5,500167	0,5	1,536100
5,508500	0,5	1,532900
5,516833	0,5	1,528750
5,525167	0,5	1,529800
5,533500	0,5	1,525350
5,541833	0,5	1,529850
5,550167	0,5	1,530000
5,558500	0,5	1,514850
5,566833	0,5	1,505300
5,575167	0,5	1,501350
5,583500	0,5	1,509100
5,591833	0,5	1,519300
5,600167	0,5	1,530050
5,608500	0,5	1,518950
5,616833	0,5	1,514850
5,625167	0,5	1,507150
5,633500	0,5	1,497450
5,641833	0,5	1,496000
5,650167	0,5	1,489500
5,658500	0,5	1,476700
5,666833	0,5	1,470350
5,675167	0,5	1,468100
5,683500	0,5	1,468150
5,691833	0,5	1,470300
5,700167	0,5	1,461900
5,708500	0,5	1,436200
5,716833	0,5	1,428150
5,725167	0,5	1,419050
5,733500	0,5	1,430250
5,741833	0,5	1,433750
5,750167	0,5	1,423250
5,758500	0,5	1,407050
5,766833	0,5	1,401150
5,775167	0,5	1,384050
5,783500	0,5	1,373700
5,791833	0,5	1,367850
5,800167	0,5	1,355800
5,808500	0,5	1,349350
5,816833	0,5	1,338900
5,825167	0,5	1,330400
5,833500	0,5	1,318600
5,841833	0,5	1,328600
5,850167	0,5	1,309500
5,858500	0,5	1,298450
5,866833	0,5	1,287250
5,875167	0,5	1,283100
5,883500	0,5	1,291500
5,891833	0,5	1,284300
5,900167	0,5	1,270150
5,908500	0,5	1,261100
5,916833	0,5	1,250700
5,925167	0,5	1,249550
5,933500	0,5	1,233500
5,941833	0,5	1,227300
5,950167	0,5	1,211500
5,958500	0,5	1,198850
5,966833	0,5	1,196800
5,975167	0,5	1,176400
5,983500	0,5	1,172000
5,991833	0,5	1,173550
6,000167	0,5	1,158300
6,008500	0,5	1,144750
6,016833	0,5	1,140750
6,025167	0,5	1,141250
6,033500	0,5	1,151600
6,041833	0,5	1,138200
6,050167	0,5	1,129200
6,058500	0,5	1,121550
6,066833	0,5	1,112100
6,075167	0,5	1,101800
6,083500	0,5	1,094150
6,091833	0,5	1,083900
6,100167	0,5	1,074750
6,108500	0,5	1,076200
6,116833	0,5	1,074500
6,125167	0,5	1,062850
6,133500	0,5	1,060050
6,141833	0,5	1,056150
6,150167	0,5	1,040250
6,158500	0,5	1,032400
6,166833	0,5	1,029800
6,175167	0,5	1,040500
6,183500	0,5	1,039400
6,191833	0,5	1,027000
6,200167	0,5	1,017000
6,208500	0,5	1,018900
6,216833	0,5	1,012900
6,225167	0,5	1,012350
6,233500	0,5	1,009900
6,241833	0,5	1,004500
6,250167	0,5	0,998400
6,258500	0,5	0,996300
6,266833	0,5	0,996050
6,275167	0,5	0,985550
6,283500	0,5	0,993700
6,291833	0,5	0,987400
6,300167	0,5	0,978750
6,308500	0,5	0,975050
6,316833	0,5	0,986450
6,325167	0,5	1,004600
6,333500	0,5	1,013250
6,341833	0,5	1,002800
6,350167	0,5	1,007300
6,358500	0,5	1,005250
6,366833	0,5	1,009800
6,375167	0,5	1,007000
6,383500	0,5	1,011200
6,391833	0,5	1,013350
6,400167	0,5	1,019150
6,408500	0,5	1,023450
6,416833	0,5	1,027650
6,425167	0,5	1,026850
6,433500	0,5	1,041750
6,441833	0,5	1,033450
6,450167	0,5	1,040800
6,458500	0,5	1,043300
6,466833	0,5	1,059950
6,475167	0,5	1,084750
6,483500	0,5	1,087600
6,491833	0,5	1,096200
6,500167	0,5	1,101750
6,508500	0,5	1,111050
6,516833	0,5	1,116800
6,525167	0,5	1,129400
6,533500	0,5	1,135500
6,541833	0,5	1,140400
6,550167	0,5	1,147950
6,558500	0,5	1,150150
6,566833	0,5	1,149150
6,575167	0,5	1,160600
6,583500	0,5	1,179050
6,591833	0,5	1,183400
6,600167	0,5	1,191650
6,608500	0,5	1,205500
6,616833	0,5	1,228900
6,625167	0,5	1,255600
6,633500	0,5	1,265100
6,641833	0,5	1,273650
6,650167	0,5	1,283200
6,658500	0,5	1,286700
6,666833	0,5	1,291950
6,675167	0,5	1,302750
6,683500	0,5	1,309850
6,691833	0,5	1,316300
6,700167	0,5	1,326050
6,708500	0,5	1,330400
6,716833	0,5	1,339900
6,725167	0,5	1,355100
6,733500	0,5	1,361350
6,741833	0,5	1,361250
6,750167	0,5	1,371700
6,758500	0,5	1,387700
6,766833	0,5	1,417450
6,775167	0,5	1,436100
6,783500	0,5	1,448150
6,791833	0,5	1,456200
6,800167	0,5	1,462750
6,808500	0,5	1,467600
6,816833	0,5	1,477300
6,825167	0,5	1,488800
6,833500	0,5	1,497600
6,841833	0,5	1,502650
6,850167	0,5	1,513100
6,858500	0,5	1,515050
6,866833	0,5	1,517050
6,875167	0,5	1,535850
6,883500	0,5	1,535850
6,891833	0,5	1,532300
6,900167	0,5	1,541100
6,908500	0,5	1,549150
6,916833	0,5	1,564800
6,925167	0,5	1,576450
6,933500	0,5	1,578150
6,941833	0,5	1,589150
6,950167	0,5	1,585400
6,958500	0,5	1,592800
6,966833	0,5	1,597700
6,975167	0,5	1,602450
6,983500	0,5	1,607550
6,991833	0,5	1,611200
7,000167	0,5	1,613850
7,008500	0,5	1,607600
7,016833	0,5	1,613450
7,025167	0,5	1,628550
7,033500	0,5	1,629150
7,041833	0,5	1,636250
7,050167	0,5	1,648850
7,058500	0,5	1,672400
7,066833	0,5	1,698650
7,075167	0,5	1,702350
7,083500	0,5	1,723300
7,091833	0,5	1,736150
7,100167	0,5	1,756200
7,108500	0,5	1,775600
7,116833	0,5	1,805800
7,125167	0,5	1,845750
7,133500	0,5	1,907950
7,141833	0,5	1,986550
7,150167	0,5	2,089050
7,158500	0,5	2,210450
7,166833	0,5	2,372500
7,175167	0,5	2,532000
7,183500	0,5	2,689700
7,191833	0,5	2,828200
7,200167	0,5	2,935600
7,208500	0,5	3,014100
7,216833	0,5	3,029500
7,225167	0,5	2,995700
7,233500	0,5	2,937350
7,241833	0,5	2,846300
7,250167	0,5	2,753500
7,258500	0,5	2,658550
7,266833	0,5	2,569250
7,275167	0,5	2,487800
7,283500	0,5	2,411650
7,291833	0,5	2,348500
7,300167	0,5	2,289950
7,308500	0,5	2,231050
7,316833	0,5	2,189200
7,325167	0,5	2,143300
7,333500	0,5	2,102700
7,341833	0,5	2,066900
7,350167	0,5	2,043200
7,358500	0,5	2,030950
7,366833	0,5	2,009000
7,375167	0,5	1,991150
7,383500	0,5	1,974600
7,391833	0,5	1,959750
7,400167	0,5	1,942950
7,408500	0,5	1,928500
7,416833	0,5	1,916650
7,425167	0,5	1,907450
7,433500	0,5	1,901550
7,441833	0,5	1,891800
7,450167	0,5	1,888300
7,458500	0,5	1,875150
7,466833	0,5	1,877050
7,475167	0,5	1,860700
7,483500	0,5	1,855800
7,491833	0,5	1,851250
7,500167	0,5	1,855850
7,508500	0,5	1,867550
7,516833	0,5	1,867200
7,525167	0,5	1,860250
7,533500	0,5	1,865250
7,541833	0,5	1,865300
7,550167	0,5	1,867200
7,558500	0,5	1,868450
7,566833	0,5	1,867750
7,575167	0,5	1,869750
7,583500	0,5	1,867750
7,591833	0,5	1,866500
7,600167	0,5	1,862500
7,608500	0,5	1,859500
7,616833	0,5	1,856650
7,625167	0,5	1,849450
7,633500	0,5	1,848400
7,641833	0,5	1,847000
7,650167	0,5	1,854600
7,658500	0,5	1,864650
7,666833	0,5	1,866300
7,675167	0,5	1,867350
7,683500	0,5	1,863350
7,691833	0,5	1,860300
7,700167	0,5	1,856900
7,708500	0,5	1,856350
7,716833	0,5	1,854950
7,725167	0,5	1,852700
7,733500	0,5	1,856500
7,741833	0,5	1,859400
7,750167	0,5	1,859000
7,758500	0,5	1,869950
7,766833	0,5	1,875400
7,775167	0,5	1,885350
7,783500	0,5	1,911850
7,791833	0,5	1,945350
7,800167	0,5	1,983000
7,808500	0,5	2,004300
7,816833	0,5	2,007900
7,825167	0,5	1,987750
7,833500	0,5	1,966000
7,841833	0,5	1,930900
7,850167	0,5	1,904100
7,858500	0,5	1,882050
7,866833	0,5	1,871050
7,875167	0,5	1,870750
7,883500	0,5	1,875800
7,891833	0,5	1,884600
7,900167	0,5	1,888650
7,908500	0,5	1,898900
7,916833	0,5	1,903450
7,925167	0,5	1,908050
7,933500	0,5	1,921950
7,941833	0,5	1,956900
7,950167	0,5	1,998900
7,958500	0,5	2,037300
7,966833	0,5	2,067950
7,975167	0,5	2,089400
7,983500	0,5	2,093800
7,991833	0,5	2,087200
8,000167	0,5	2,070000
8,008500	0,5	2,060000
8,016833	0,5	2,046600
8,025167	0,5	2,038600
8,033500	0,5	2,032650
8,041833	0,5	2,021400
8,050167	0,5	2,018150
8,058500	0,5	2,011350
8,066833	0,5	2,007650
8,075167	0,5	2,009250
8,083500	0,5	2,025900
8,091833	0,5	2,061850
8,100167	0,5	2,108700
8,108500	0,5	2,123100
8,116833	0,5	2,094000
8,125167	0,5	2,003650
8,133500	0,5	1,899600
8,141833	0,5	1,807650
8,150167	0,5	1,745000
8,158500	0,5	1,704200
8,166833	0,5	1,678450
8,175167	0,5	1,658350
8,183500	0,5	1,644700
8,191833	0,5	1,631600
8,200167	0,5	1,628150
8,208500	0,5	1,619950
8,216833	0,5	1,611400
8,225167	0,5	1,610050
8,233500	0,5	1,612700
8,241833	0,5	1,621000
8,250167	0,5	1,627550
8,258500	0,5	1,633900
8,266833	0,5	1,640600
8,275167	0,5	1,657400
8,283500	0,5	1,672400
8,291833	0,5	1,685550
8,300167	0,5	1,696000
8,308500	0,5	1,694200
8,316833	0,5	1,693800
8,325167	0,5	1,685600
8,333500	0,5	1,681700
8,341833	0,5	1,669900
8,350167	0,5	1,668550
8,358500	0,5	1,659050
8,366833	0,5	1,646750
8,375167	0,5	1,633800
8,383500	0,5	1,624050
8,391833	0,5	1,613950
8,400167	0,5	1,605600
8,408500	0,5	1,595800
8,416833	0,5	1,589600
8,425167	0,5	1,584350
8,433500	0,5	1,584650
8,441833	0,5	1,580000
8,450167	0,5	1,581400
8,458500	0,5	1,584450
8,466833	0,5	1,589300
8,475167	0,5	1,598650
8,483500	0,5	1,610650
8,491833	0,5	1,621400
8,500167	0,5	1,642400
8,508500	0,5	1,655150
8,516833	0,5	1,667350
8,525167	0,5	1,677300
8,533500	0,5	1,695600
8,541833	0,5	1,716900
8,550167	0,5	1,729700
8,558500	0,5	1,734750
8,566833	0,5	1,744750
8,575167	0,5	1,746650
8,583500	0,5	1,746700
8,591833	0,5	1,739050
8,600167	0,5	1,728200
8,608500	0,5	1,714450
8,616833	0,5	1,699650
8,625167	0,5	1,687200
8,633500	0,5	1,666200
8,641833	0,5	1,651850
8,650167	0,5	1,643200
8,658500	0,5	1,638700
8,666833	0,5	1,636400
8,675167	0,5	1,643600
8,683500	0,5	1,654350
8,691833	0,5	1,672700
8,700167	0,5	1,683200
8,708500	0,5	1,698150
8,716833	0,5	1,699450
8,725167	0,5	1,688150
8,733500	0,5	1,656950
8,741833	0,5	1,620900
8,750167	0,5	1,588500
8,758500	0,5	1,559850
8,766833	0,5	1,544400
8,775167	0,5	1,533000
8,783500	0,5	1,526050
8,791833	0,5	1,524700
8,800167	0,5	1,524000
8,808500	0,5	1,520800
8,816833	0,5	1,525650
8,825167	0,5	1,528700
8,833500	0,5	1,536750
8,841833	0,5	1,544700
8,850167	0,5	1,550500
8,858500	0,5	1,554250
8,866833	0,5	1,559150
8,875167	0,5	1,557050
8,883500	0,5	1,559150
8,891833	0,5	1,561300
8,900167	0,5	1,562350
8,908500	0,5	1,560850
8,916833	0,5	1,560850
8,925167	0,5	1,559850
8,933500	0,5	1,554300
8,941833	0,5	1,559150
8,950167	0,5	1,554350
8,958500	0,5	1,554300
8,966833	0,5	1,552300
8,975167	0,5	1,564000
8,983500	0,5	1,565100
8,991833	0,5	1,577650
9,000167	0,5	1,584650
9,008500	0,5	1,589700
9,016833	0,5	1,598450
9,025167	0,5	1,605300
9,033500	0,5	1,613200
9,041833	0,5	1,619900
9,050167	0,5	1,628550
9,058500	0,5	1,625650
9,066833	0,5	1,626950
9,075167	0,5	1,624200
9,083500	0,5	1,624850
9,091833	0,5	1,621350
9,100167	0,5	1,621600
9,108500	0,5	1,618950
9,116833	0,5	1,613350
9,125167	0,5	1,617250
9,133500	0,5	1,620250
9,141833	0,5	1,617200
9,150167	0,5	1,614400
9,158500	0,5	1,609700
9,166833	0,5	1,601950
9,175167	0,5	1,590700
9,183500	0,5	1,574100
9,191833	0,5	1,560300
9,200167	0,5	1,551300
9,208500	0,5	1,540550
9,216833	0,5	1,532100
9,225167	0,5	1,519550
9,233500	0,5	1,511600
9,241833	0,5	1,506700
9,250167	0,5	1,494450
9,258500	0,5	1,486700
9,266833	0,5	1,480450
9,275167	0,5	1,477800
9,283500	0,5	1,477400
9,291833	0,5	1,471850
9,300167	0,5	1,462800
9,308500	0,5	1,458450
9,316833	0,5	1,445350
9,325167	0,5	1,440850
9,333500	0,5	1,436800
9,341833	0,5	1,426400
9,350167	0,5	1,421350
9,358500	0,5	1,410650
9,366833	0,5	1,406800
9,375167	0,5	1,398050
9,383500	0,5	1,393850
9,391833	0,5	1,387300
9,400167	0,5	1,378600
9,408500	0,5	1,365050
9,416833	0,5	1,358900
9,425167	0,5	1,351700
9,433500	0,5	1,347000
9,441833	0,5	1,341250
9,450167	0,5	1,334900
9,458500	0,5	1,333150
9,466833	0,5	1,326400
9,475167	0,5	1,322600
9,483500	0,5	1,316000
9,491833	0,5	1,316200
9,500167	0,5	1,315000
9,508500	0,5	1,316950
9,516833	0,5	1,318000
9,525167	0,5	1,321450
9,533500	0,5	1,328850
9,541833	0,5	1,335750
9,550167	0,5	1,342500
9,558500	0,5	1,355250
9,566833	0,5	1,376250
9,575167	0,5	1,407350
9,583500	0,5	1,446400
9,591833	0,5	1,498050
9,600167	0,5	1,563600
9,608500	0,5	1,649300
9,616833	0,5	1,755850
9,625167	0,5	1,883800
9,633500	0,5	2,022450
9,641833	0,5	2,165250
9,650167	0,5	2,303800
9,658500	0,5	2,416400
9,666833	0,5	2,484000
9,675167	0,5	2,496050
9,683500	0,5	2,456600
9,691833	0,5	2,354250
9,700167	0,5	2,214250
9,708500	0,5	2,050000
9,716833	0,5	1,883750
9,725167	0,5	1,734950
9,733500	0,5	1,611700
9,741833	0,5	1,509050
9,750167	0,5	1,436850
9,758500	0,5	1,385850
9,766833	0,5	1,352550
9,775167	0,5	1,328800
9,783500	0,5	1,316000
9,791833	0,5	1,303900
9,800167	0,5	1,304750
9,808500	0,5	1,309850
9,816833	0,5	1,315550
9,825167	0,5	1,329300
9,833500	0,5	1,350550
9,841833	0,5	1,367600
9,850167	0,5	1,399550
9,858500	0,5	1,413750
9,866833	0,5	1,433400
9,875167	0,5	1,453700
9,883500	0,5	1,462600
9,891833	0,5	1,466400
9,900167	0,5	1,469550
9,908500	0,5	1,480250
9,916833	0,5	1,486700
9,925167	0,5	1,508200
9,933500	0,5	1,527250
9,941833	0,5	1,547600
9,950167	0,5	1,557500
9,958500	0,5	1,550550
9,966833	0,5	1,531700
9,975167	0,5	1,507350
9,983500	0,5	1,468800
9,991833	0,5	1,432800
10,000167	0,5	1,398700
10,008500	0,5	1,361050
10,016833	0,5	1,333150
10,025167	0,5	1,309150
10,033500	0,5	1,290150
10,041833	0,5	1,273600
10,050167	0,5	1,261500
10,058500	0,5	1,248950
10,066833	0,5	1,244950
10,075167	0,5	1,232700
10,083500	0,5	1,228550
10,091833	0,5	1,225700
10,100167	0,5	1,223750
10,108500	0,5	1,223100
10,116833	0,5	1,225000
10,125167	0,5	1,236350
10,133500	0,5	1,249800
10,141833	0,5	1,267500
10,150167	0,5	1,280200
10,158500	0,5	1,297700
10,166833	0,5	1,318850
10,175167	0,5	1,327100
10,183500	0,5	1,335100
10,191833	0,5	1,353800
10,200167	0,5	1,372400
10,208500	0,5	1,394350
10,216833	0,5	1,435800
10,225167	0,5	1,484800
10,233500	0,5	1,532650
10,241833	0,5	1,583250
10,250167	0,5	1,615000
10,258500	0,5	1,614950
10,266833	0,5	1,588950
10,275167	0,5	1,542600
10,283500	0,5	1,478700
10,291833	0,5	1,421700
10,300167	0,5	1,368750
10,308500	0,5	1,325000
10,316833	0,5	1,298200
10,325167	0,5	1,284400
10,333500	0,5	1,266250
10,341833	0,5	1,258500
10,350167	0,5	1,250750
10,358500	0,5	1,241750
10,366833	0,5	1,238100
10,375167	0,5	1,232750
10,383500	0,5	1,219500
10,391833	0,5	1,216700
10,400167	0,5	1,207950
10,408500	0,5	1,196100
10,416833	0,5	1,199850
10,425167	0,5	1,196100
10,433500	0,5	1,203400
10,441833	0,5	1,214950
10,450167	0,5	1,227300
10,458500	0,5	1,259800
10,466833	0,5	1,300000
10,475167	0,5	1,342250
10,483500	0,5	1,379700
10,491833	0,5	1,406250
10,500167	0,5	1,411550
10,508500	0,5	1,394800
10,516833	0,5	1,353350
10,525167	0,5	1,294000
10,533500	0,5	1,219400
10,541833	0,5	1,147700
10,550167	0,5	1,082200
10,558500	0,5	1,027500
10,566833	0,5	1,001800
10,575167	0,5	0,993950
10,583500	0,5	0,991800
10,591833	0,5	1,007800
10,600167	0,5	1,030650
10,608500	0,5	1,066600
10,616833	0,5	1,111250
10,625167	0,5	1,139950
10,633500	0,5	1,172050
10,641833	0,5	1,206050
10,650167	0,5	1,225650
10,658500	0,5	1,238450
10,666833	0,5	1,244050
10,675167	0,5	1,236550
10,683500	0,5	1,224350
10,691833	0,5	1,205550
10,700167	0,5	1,189450
10,708500	0,5	1,174350
10,716833	0,5	1,162800
10,725167	0,5	1,143900
10,733500	0,5	1,142750
10,741833	0,5	1,130300
10,750167	0,5	1,127000
10,758500	0,5	1,127400
10,766833	0,5	1,126700
10,775167	0,5	1,123450
10,783500	0,5	1,124000
10,791833	0,5	1,117000
10,800167	0,5	1,120000
10,808500	0,5	1,115050
10,816833	0,5	1,117050
10,825167	0,5	1,116850
10,833500	0,5	1,112900
10,841833	0,5	1,117450
10,850167	0,5	1,116200
10,858500	0,5	1,114450
10,866833	0,5	1,122300
10,875167	0,5	1,116450
10,883500	0,5	1,111350
10,891833	0,5	1,105800
10,900167	0,5	1,105250
10,908500	0,5	1,111550
10,916833	0,5	1,115900
10,925167	0,5	1,119550
10,933500	0,5	1,119750
10,941833	0,5	1,128000
10,950167	0,5	1,133650
10,958500	0,5	1,136100
10,966833	0,5	1,140650
10,975167	0,5	1,148050
10,983500	0,5	1,154650
10,991833	0,5	1,150850
11,000167	0,5	1,143600
11,008500	0,5	1,148450
11,016833	0,5	1,146900
11,025167	0,5	1,144100
11,033500	0,5	1,135950
11,041833	0,5	1,132050
11,050167	0,5	1,135150
11,058500	0,5	1,142700
11,066833	0,5	1,158250
11,075167	0,5	1,187250
11,083500	0,5	1,223200
11,091833	0,5	1,275800
11,100167	0,5	1,349150
11,108500	0,5	1,423350
11,116833	0,5	1,498150
11,125167	0,5	1,552300
11,133500	0,5	1,585200
11,141833	0,5	1,577400
11,150167	0,5	1,548700
11,158500	0,5	1,504050
11,166833	0,5	1,450250
11,175167	0,5	1,394200
11,183500	0,5	1,355700
11,191833	0,5	1,321550
11,200167	0,5	1,301850
11,208500	0,5	1,294150
11,216833	0,5	1,282550
11,225167	0,5	1,271050
11,233500	0,5	1,261350
11,241833	0,5	1,252900
11,250167	0,5	1,245800
11,258500	0,5	1,237300
11,266833	0,5	1,239800
11,275167	0,5	1,253650
11,283500	0,5	1,277350
11,291833	0,5	1,309450
11,300167	0,5	1,368100
11,308500	0,5	1,463400
11,316833	0,5	1,585550
11,325167	0,5	1,739100
11,333500	0,5	1,916600
11,341833	0,5	2,114950
11,350167	0,5	2,298900
11,358500	0,5	2,449250
11,366833	0,5	2,537800
11,375167	0,5	2,573000
11,383500	0,5	2,533700
11,391833	0,5	2,454600
11,400167	0,5	2,337350
11,408500	0,5	2,209000
11,416833	0,5	2,086650
11,425167	0,5	1,980600
11,433500	0,5	1,908900
11,441833	0,5	1,853950
11,450167	0,5	1,853000
11,458500	0,5	1,863350
11,466833	0,5	1,889750
11,475167	0,5	1,906900
11,483500	0,5	1,916900
11,491833	0,5	1,908550
11,500167	0,5	1,876950
11,508500	0,5	1,814100
11,516833	0,5	1,738850
11,525167	0,5	1,655750
11,533500	0,5	1,569950
11,541833	0,5	1,488250
11,550167	0,5	1,409350
11,558500	0,5	1,342150
11,566833	0,5	1,282800
11,575167	0,5	1,240000
11,583500	0,5	1,201950
11,591833	0,5	1,167450
11,600167	0,5	1,151250
11,608500	0,5	1,130500
11,616833	0,5	1,114200
11,625167	0,5	1,098050
11,633500	0,5	1,089100
11,641833	0,5	1,089900
11,650167	0,5	1,081400
11,658500	0,5	1,083300
11,666833	0,5	1,080000
11,675167	0,5	1,079950
11,683500	0,5	1,084550
11,691833	0,5	1,079700
11,700167	0,5	1,083050
11,708500	0,5	1,080350
11,716833	0,5	1,081650
11,725167	0,5	1,087050
11,733500	0,5	1,089850
11,741833	0,5	1,084450
11,750167	0,5	1,095450
11,758500	0,5	1,093600
11,766833	0,5	1,095300
11,775167	0,5	1,091550
11,783500	0,5	1,095750
11,791833	0,5	1,112500
11,800167	0,5	1,121550
11,808500	0,5	1,127400
11,816833	0,5	1,150800
11,825167	0,5	1,169700
11,833500	0,5	1,192700
11,841833	0,5	1,215450
11,850167	0,5	1,244750
11,858500	0,5	1,259250
11,866833	0,5	1,281350
11,875167	0,5	1,289100
11,883500	0,5	1,286000
11,891833	0,5	1,284200
11,900167	0,5	1,278900
11,908500	0,5	1,265800
11,916833	0,5	1,251800
11,925167	0,5	1,238450
11,933500	0,5	1,232750
11,941833	0,5	1,239450
11,950167	0,5	1,236350
11,958500	0,5	1,244050
11,966833	0,5	1,251000
11,975167	0,5	1,272100
11,983500	0,5	1,301400
11,991833	0,5	1,343900
12,000167	0,5	1,392400
12,008500	0,5	1,454650
12,016833	0,5	1,529350
12,025167	0,5	1,598150
12,033500	0,5	1,649850
12,041833	0,5	1,704250
12,050167	0,5	1,747250
12,058500	0,5	1,793800
12,066833	0,5	1,848400
12,075167	0,5	1,917750
12,083500	0,5	2,007650
12,091833	0,5	2,105200
12,100167	0,5	2,202200
12,108500	0,5	2,286400
12,116833	0,5	2,343450
12,125167	0,5	2,373100
12,133500	0,5	2,373700
12,141833	0,5	2,332950
12,150167	0,5	2,254150
12,158500	0,5	2,147850
12,166833	0,5	2,046350
12,175167	0,5	1,934100
12,183500	0,5	1,839200
12,191833	0,5	1,769650
12,200167	0,5	1,717900
12,208500	0,5	1,681700
12,216833	0,5	1,658200
12,225167	0,5	1,656250
12,233500	0,5	1,668900
12,241833	0,5	1,680650
12,250167	0,5	1,703350
12,258500	0,5	1,726000
12,266833	0,5	1,742550
12,275167	0,5	1,763150
12,283500	0,5	1,776300
12,291833	0,5	1,784650
12,300167	0,5	1,775800
12,308500	0,5	1,760150
12,316833	0,5	1,726100
12,325167	0,5	1,673600
12,333500	0,5	1,628150
12,341833	0,5	1,567450
12,350167	0,5	1,508500
12,358500	0,5	1,448800
12,366833	0,5	1,386400
12,375167	0,5	1,344050
12,383500	0,5	1,319400
12,391833	0,5	1,295000
12,400167	0,5	1,267050
12,408500	0,5	1,250100
12,416833	0,5	1,239700
12,425167	0,5	1,230700
12,433500	0,5	1,229800
12,441833	0,5	1,226600
12,450167	0,5	1,235200
12,458500	0,5	1,243100
12,466833	0,5	1,268850
12,475167	0,5	1,268300
12,483500	0,5	1,270450
12,491833	0,5	1,267900
12,500167	0,5	1,256950
12,508500	0,5	1,227850
12,516833	0,5	1,176500
12,525167	0,5	1,128000
12,533500	0,5	1,091850
12,541833	0,5	1,019000
12,550167	0,5	0,851100
12,558500	0,5	0,589050
12,566833	0,5	0,211500
12,575167	0,5	-0,236800
12,583500	0,5	-0,608550
12,591833	0,5	-0,885250
12,600167	0,5	-1,108400
12,608500	0,5	-1,299700
12,616833	0,5	-1,497500
12,625167	0,5	-1,704350
12,633500	0,5	-1,910600
12,641833	0,5	-2,082400
12,650167	0,5	-2,213100
12,658500	0,5	-2,317150
12,666833	0,5	-2,397100
12,675167	0,5	-2,460000
12,683500	0,5	-2,517150
12,691833	0,5	-2,571000
12,700167	0,5	-2,620950
12,708500	0,5	-2,660700
12,716833	0,5	-2,695050
12,725167	0,5	-2,731350
12,733500	0,5	-2,758800
12,741833	0,5	-2,787050
12,750167	0,5	-2,808400
12,758500	0,5	-2,825250
12,766833	0,5	-2,856800
12,775167	0,5	-2,872050
12,783500	0,5	-2,880850
12,791833	0,5	-2,898400
12,800167	0,5	-2,917000
12,808500	0,5	-2,938000
12,816833	0,5	-2,943500
12,825167	0,5	-2,954850
12,833500	0,5	-2,956150
12,841833	0,5	-2,965300
12,850167	0,5	-2,966250
12,858500	0,5	-2,973600
12,866833	0,5	-2,980750
12,875167	0,5	-2,980200
12,883500	0,5	-2,988000
12,891833	0,5	-2,990550
12,900167	0,5	-2,988600
12,908500	0,5	-2,989150
12,916833	0,5	-2,988950
12,925167	0,5	-2,979450
12,933500	0,5	-2,972350
12,941833	0,5	-2,961200
12,950167	0,5	-2,959600
12,958500	0,5	-2,951150
12,966833	0,5	-2,930950
12,975167	0,5	-2,905650
12,983500	0,5	-2,893800
12,991833	0,5	-2,867650
13,000167	0,5	-2,848450
13,008500	0,5	-2,834650
13,016833	0,5	-2,823100
13,025167	0,5	-2,807900
13,033500	0,5	-2,807550
13,041833	0,5	-2,797000
13,050167	0,5	-2,786150
13,058500	0,5	-2,786050
13,066833	0,5	-2,785450
13,075167	0,5	-2,774950
13,083500	0,5	-2,770050
13,091833	0,5	-2,764600
13,100167	0,5	-2,761800
13,108500	0,5	-2,755150
13,116833	0,5	-2,740600
13,125167	0,5	-2,729650
13,133500	0,5	-2,722950
13,141833	0,5	-2,718650
13,150167	0,5	-2,716800
13,158500	0,5	-2,725150
13,166833	0,5	-2,734550
13,175167	0,5	-2,747200
13,183500	0,5	-2,758350
13,191833	0,5	-2,766950
13,200167	0,5	-2,766450
13,208500	0,5	-2,785150
13,216833	0,5	-2,785700
13,225167	0,5	-2,785100
13,233500	0,5	-2,794000
13,241833	0,5	-2,792150
13,250167	0,5	-2,798000
13,258500	0,5	-2,789950
13,266833	0,5	-2,774050
13,275167	0,5	-2,761550
13,283500	0,5	-2,753750
13,291833	0,5	-2,731750
13,300167	0,5	-2,711050
13,308500	0,5	-2,679650
13,316833	0,5	-2,652400
13,325167	0,5	-2,617300
13,333500	0,5	-2,596400
13,341833	0,5	-2,552900
13,350167	0,5	-2,525800
13,358500	0,5	-2,514450
13,366833	0,5	-2,497300
13,375167	0,5	-2,488850
13,383500	0,5	-2,498050
13,391833	0,5	-2,500500
13,400167	0,5	-2,514000
13,408500	0,5	-2,512450
13,416833	0,5	-2,515300
13,425167	0,5	-2,514600
13,433500	0,5	-2,516500
13,441833	0,5	-2,510100
13,450167	0,5	-2,500950
13,458500	0,5	-2,495500
13,466833	0,5	-2,482900
13,475167	0,5	-2,482200
13,483500	0,5	-2,464000
13,491833	0,5	-2,449500
13,500167	0,5	-2,442650
13,508500	0,5	-2,436950
13,516833	0,5	-2,420700
13,525167	0,5	-2,406000
13,533500	0,5	-2,397750
13,541833	0,5	-2,395550
13,550167	0,5	-2,375750
13,558500	0,5	-2,357800
13,566833	0,5	-2,335950
13,575167	0,5	-2,324600
13,583500	0,5	-2,298450
13,591833	0,5	-2,279250
13,600167	0,5	-2,262700
13,608500	0,5	-2,237200
13,616833	0,5	-2,218400
13,625167	0,5	-2,196100
13,633500	0,5	-2,173950
13,641833	0,5	-2,144750
13,650167	0,5	-2,138400
13,658500	0,5	-2,112300
13,666833	0,5	-2,095050
13,675167	0,5	-2,075400
13,683500	0,5	-2,061950
13,691833	0,5	-2,054650
13,700167	0,5	-2,029800
13,708500	0,5	-2,005150
13,716833	0,5	-1,989950
13,725167	0,5	-1,964900
13,733500	0,5	-1,950550
13,741833	0,5	-1,935200
13,750167	0,5	-1,911950
13,758500	0,5	-1,890650
13,766833	0,5	-1,876000
13,775167	0,5	-1,861550
13,783500	0,5	-1,842700
13,791833	0,5	-1,819950
13,800167	0,5	-1,812550
13,808500	0,5	-1,789950
13,816833	0,5	-1,771300
13,825167	0,5	-1,755800
13,833500	0,5	-1,744200
13,841833	0,5	-1,747150
13,850167	0,5	-1,727300
13,858500	0,5	-1,706200
13,866833	0,5	-1,687150
13,875167	0,5	-1,672950
13,883500	0,5	-1,645450
13,891833	0,5	-1,629150
13,900167	0,5	-1,602600
13,908500	0,5	-1,569500
13,916833	0,5	-1,530550
13,925167	0,5	-1,479000
13,933500	0,5	-1,415400
13,941833	0,5	-1,357300
13,950167	0,5	-1,291850
13,958500	0,5	-1,217850
13,966833	0,5	-1,158000
13,975167	0,5	-1,120050
13,983500	0,5	-1,111400
13,991833	0,5	-1,100100
14,000167	0,5	-1,084050
14,008500	0,5	-1,050900
14,016833	0,5	-1,016900
14,025167	0,5	-0,956700
14,033500	0,5	-0,892150
14,041833	0,5	-0,825350
14,050167	0,5	-0,770700
14,058500	0,5	-0,719400
14,066833	0,5	-0,681900
14,075167	0,5	-0,640500
14,083500	0,5	-0,597200
14,091833	0,5	-0,549850
14,100167	0,5	-0,493100
14,108500	0,5	-0,429000
14,116833	0,5	-0,381350
14,125167	0,5	-0,339250
14,133500	0,5	-0,311300
14,141833	0,5	-0,273450
14,150167	0,5	-0,225100
14,158500	0,5	-0,174000
14,166833	0,5	-0,134850
14,175167	0,5	-0,109000
14,183500	0,5	-0,100050
14,191833	0,5	-0,104600
14,200167	0,5	-0,101150
14,208500	0,5	-0,109700
14,216833	0,5	-0,116150
14,225167	0,5	-0,104600
14,233500	0,5	-0,102550
14,241833	0,5	-0,108950
14,250167	0,5	-0,100350
14,258500	0,5	-0,087050
14,266833	0,5	-0,085000
14,275167	0,5	-0,085750
14,283500	0,5	-0,088350
14,291833	0,5	-0,077000
14,300167	0,5	-0,068500
14,308500	0,5	-0,057800
14,316833	0,5	-0,056000
14,325167	0,5	-0,045800
14,333500	0,5	-0,045650
14,341833	0,5	-0,030100
14,350167	0,5	-0,024550
14,358500	0,5	-0,007100
14,366833	0,5	0,013350
14,375167	0,5	0,038300
14,383500	0,5	0,046950
14,391833	0,5	0,061850
14,400167	0,5	0,077700
14,408500	0,5	0,082350
14,416833	0,5	0,073800
14,425167	0,5	0,049300
14,433500	0,5	0,030500
14,441833	0,5	0,028450
14,450167	0,5	0,008600
14,458500	0,5	-0,009900
14,466833	0,5	-0,009400
14,475167	0,5	-0,017150
14,483500	0,5	-0,020600
14,491833	0,5	-0,029100
14,500167	0,5	-0,024400
14,508500	0,5	-0,034850
14,516833	0,5	-0,028900
14,525167	0,5	-0,028300
14,533500	0,5	-0,033750
14,541833	0,5	-0,027600
14,550167	0,5	-0,024150
14,558500	0,5	-0,022050
14,566833	0,5	-0,014550
14,575167	0,5	-0,007800
14,583500	0,5	0,042900
14,591833	0,5	0,112650
14,600167	0,5	0,196100
14,608500	0,5	0,282550
14,616833	0,5	0,365900
14,625167	0,5	0,428900
14,633500	0,5	0,464150
14,641833	0,5	0,467800
14,650167	0,5	0,438600
14,658500	0,5	0,397050
14,666833	0,5	0,341850
14,675167	0,5	0,311550
14,683500	0,5	0,286700
14,691833	0,5	0,322050
14,700167	0,5	0,363850
14,708500	0,5	0,423350
14,716833	0,5	0,480350
14,725167	0,5	0,505300
14,733500	0,5	0,526350
14,741833	0,5	0,514900
14,750167	0,5	0,456600
14,758500	0,5	0,389850
14,766833	0,5	0,317850
14,775167	0,5	0,255100
14,783500	0,5	0,205800
14,791833	0,5	0,164400
14,800167	0,5	0,131500
14,808500	0,5	0,100050
14,816833	0,5	0,095800
14,825167	0,5	0,082000
14,833500	0,5	0,062900
14,841833	0,5	0,068600
14,850167	0,5	0,068550
14,858500	0,5	0,063150
14,866833	0,5	0,065750
14,875167	0,5	0,060650
14,883500	0,5	0,073150
14,891833	0,5	0,066250
14,900167	0,5	0,051850
14,908500	0,5	0,041500
14,916833	0,5	0,028600
14,925167	0,5	0,018000
14,933500	0,5	0,013800
14,941833	0,5	0,008400
14,950167	0,5	-0,004250
14,958500	0,5	-0,013500
14,966833	0,5	-0,026900
14,975167	0,5	-0,051250
14,983500	0,5	-0,066450
14,991833	0,5	-0,080250
15,000167	0,5	-0,092350
15,008500	0,5	-0,116350
15,016833	0,5	-0,138800
15,025167	0,5	-0,142250
15,033500	0,5	-0,140300
15,041833	0,5	-0,137950
15,050167	0,5	-0,149600
15,058500	0,5	-0,147200
15,066833	0,5	-0,157000
15,075167	0,5	-0,151800
15,083500	0,5	-0,145150
15,091833	0,5	-0,136150
15,100167	0,5	-0,114400
15,108500	0,5	-0,069700
15,116833	0,5	-0,001700
15,125167	0,5	0,084000
15,133500	0,5	0,201050
15,141833	0,5	0,316350
15,150167	0,5	0,402900
15,158500	0,5	0,431750
15,166833	0,5	0,413850
15,175167	0,5	0,371450
15,183500	0,5	0,327200
15,191833	0,5	0,288900
15,200167	0,5	0,287550
15,208500	0,5	0,315200
15,216833	0,5	0,381150
15,225167	0,5	0,443750
15,233500	0,5	0,490800
15,241833	0,5	0,486700
15,250167	0,5	0,440900
15,258500	0,5	0,370650
15,266833	0,5	0,273850
15,275167	0,5	0,189850
15,283500	0,5	0,140250
15,291833	0,5	0,096950
15,300167	0,5	0,075700
15,308500	0,5	0,040000
15,316833	0,5	0,026400
15,325167	0,5	0,019800
15,333500	0,5	0,005900
15,341833	0,5	-0,014400
15,350167	0,5	-0,028050
15,358500	0,5	-0,042200
15,366833	0,5	-0,056400
15,375167	0,5	-0,055050
15,383500	0,5	-0,052200
15,391833	0,5	-0,052300
15,400167	0,5	-0,049400
15,408500	0,5	-0,043750
15,416833	0,5	-0,074100
15,425167	0,5	-0,079950
15,433500	0,5	-0,098550
15,441833	0,5	-0,122600
15,450167	0,5	-0,154250
15,458500	0,5	-0,192300
15,466833	0,5	-0,215100
15,475167	0,5	-0,226450
15,483500	0,5	-0,230800
15,491833	0,5	-0,240100
15,500167	0,5	-0,247500
15,508500	0,5	-0,257700
15,516833	0,5	-0,267300
15,525167	0,5	-0,276550
15,533500	0,5	-0,275050
15,541833	0,5	-0,284450
15,550167	0,5	-0,264600
15,558500	0,5	-0,244750
15,566833	0,5	-0,221800
15,575167	0,5	-0,148700
15,583500	0,5	-0,056900
15,591833	0,5	0,055650
15,600167	0,5	0,172500
15,608500	0,5	0,260300
15,616833	0,5	0,316900
15,625167	0,5	0,326450
15,633500	0,5	0,293600
15,641833	0,5	0,273150
15,650167	0,5	0,260550
15,658500	0,5	0,289250
15,666833	0,5	0,339550
15,675167	0,5	0,378300
15,683500	0,5	0,388750
15,691833	0,5	0,359750
15,700167	0,5	0,290750
15,708500	0,5	0,198450
15,716833	0,5	0,107650
15,725167	0,5	0,033600
15,733500	0,5	-0,025300
15,741833	0,5	-0,084550
15,750167	0,5	-0,135500
15,758500	0,5	-0,169000
15,766833	0,5	-0,167700
15,775167	0,5	-0,173100
15,783500	0,5	-0,172950
15,791833	0,5	-0,160200
15,800167	0,5	-0,152600
15,808500	0,5	-0,153750
15,816833	0,5	-0,149200
15,825167	0,5	-0,165100
15,833500	0,5	-0,180000
15,841833	0,5	-0,206500
15,850167	0,5	-0,217700
15,858500	0,5	-0,263100
15,866833	0,5	-0,275250
15,875167	0,5	-0,302000
15,883500	0,5	-0,323600
15,891833	0,5	-0,352400
15,900167	0,5	-0,378500
15,908500	0,5	-0,386000
15,916833	0,5	-0,383600
15,925167	0,5	-0,395150
15,933500	0,5	-0,391350
15,941833	0,5	-0,403450
15,950167	0,5	-0,399950
15,958500	0,5	-0,392250
15,966833	0,5	-0,374000
15,975167	0,5	-0,327500
15,983500	0,5	-0,254950
15,991833	0,5	-0,132950
16,000167	0,5	0,006500
16,008500	0,5	0,122200
16,016833	0,5	0,230100
16,025167	0,5	0,288350
16,033500	0,5	0,298700
16,041833	0,5	0,287050
16,050167	0,5	0,267850
16,058500	0,5	0,304650
16,066833	0,5	0,332650
16,075167	0,5	0,340500
16,083500	0,5	0,295000
16,091833	0,5	0,222650
16,100167	0,5	0,121900
16,108500	0,5	0,024050
16,116833	0,5	-0,063500
16,125167	0,5	-0,129000
16,133500	0,5	-0,181500
16,141833	0,5	-0,202100
16,150167	0,5	-0,227050
16,158500	0,5	-0,240800
16,166833	0,5	-0,231100
16,175167	0,5	-0,243550
16,183500	0,5	-0,256550
16,191833	0,5	-0,285450
16,200167	0,5	-0,297150
16,208500	0,5	-0,311050
16,216833	0,5	-0,312950
16,225167	0,5	-0,350100
16,233500	0,5	-0,366250
16,241833	0,5	-0,394150
16,250167	0,5	-0,417550
16,258500	0,5	-0,441750
16,266833	0,5	-0,458800
16,275167	0,5	-0,478850
16,283500	0,5	-0,494950
16,291833	0,5	-0,501450
16,300167	0,5	-0,518950
16,308500	0,5	-0,533500
16,316833	0,5	-0,527550
16,325167	0,5	-0,530850
16,333500	0,5	-0,522700
16,341833	0,5	-0,500350
16,350167	0,5	-0,435250
16,358500	0,5	-0,314550
16,366833	0,5	-0,194800
16,375167	0,5	-0,057550
16,383500	0,5	0,046550
16,391833	0,5	0,118950
16,400167	0,5	0,148500
16,408500	0,5	0,165200
16,416833	0,5	0,166300
16,425167	0,5	0,174350
16,433500	0,5	0,183600
16,441833	0,5	0,159600
16,450167	0,5	0,100350
16,458500	0,5	0,038800
16,466833	0,5	-0,022150
16,475167	0,5	-0,078400
16,483500	0,5	-0,132700
16,491833	0,5	-0,160450
16,500167	0,5	-0,146050
16,508500	0,5	-0,140200
16,516833	0,5	-0,136850
16,525167	0,5	-0,131650
16,533500	0,5	-0,128200
16,541833	0,5	-0,144850
16,550167	0,5	-0,157850
16,558500	0,5	-0,179450
16,566833	0,5	-0,200600
16,575167	0,5	-0,214750
16,583500	0,5	-0,226500
16,591833	0,5	-0,256900
16,600167	0,5	-0,248850
16,608500	0,5	-0,249200
16,616833	0,5	-0,248000
16,625167	0,5	-0,253400
16,633500	0,5	-0,279600
16,641833	0,5	-0,287400
16,650167	0,5	-0,295200
16,658500	0,5	-0,307550
16,666833	0,5	-0,312900
16,675167	0,5	-0,308400
16,683500	0,5	-0,277850
16,691833	0,5	-0,215050
16,700167	0,5	-0,126400
16,708500	0,5	-0,023200
16,716833	0,5	0,055300
16,725167	0,5	0,125150
16,733500	0,5	0,155200
16,741833	0,5	0,145700
16,750167	0,5	0,155450
16,758500	0,5	0,149150
16,766833	0,5	0,117500
16,775167	0,5	0,064800
16,783500	0,5	-0,030950
16,791833	0,5	-0,103000
16,800167	0,5	-0,172750
16,808500	0,5	-0,215650
16,816833	0,5	-0,256250
16,825167	0,5	-0,280450
16,833500	0,5	-0,299700
16,841833	0,5	-0,313000
16,850167	0,5	-0,320450
16,858500	0,5	-0,335300
16,866833	0,5	-0,343150
16,875167	0,5	-0,352100
16,883500	0,5	-0,358250
16,891833	0,5	-0,394350
16,900167	0,5	-0,390350
16,908500	0,5	-0,412800
16,916833	0,5	-0,429950
16,925167	0,5	-0,454150
16,933500	0,5	-0,485300
16,941833	0,5	-0,476750
16,950167	0,5	-0,471550
16,958500	0,5	-0,460850
16,966833	0,5	-0,435600
16,975167	0,5	-0,386800
16,983500	0,5	-0,324450
16,991833	0,5	-0,225500
17,000167	0,5	-0,091650
17,008500	0,5	0,068600
17,016833	0,5	0,229700
17,025167	0,5	0,391200
17,033500	0,5	0,531050
17,041833	0,5	0,683150
17,050167	0,5	0,832800
17,058500	0,5	0,963750
17,066833	0,5	1,058250
17,075167	0,5	1,130550
17,083500	0,5	1,170550
17,091833	0,5	1,219350
17,100167	0,5	1,231650
17,108500	0,5	1,260300
17,116833	0,5	1,274850
17,125167	0,5	1,306250
17,133500	0,5	1,337400
17,141833	0,5	1,382050
17,150167	0,5	1,425100
17,158500	0,5	1,448350
17,166833	0,5	1,464150
17,175167	0,5	1,438800
17,183500	0,5	1,365800
17,191833	0,5	1,282400
17,200167	0,5	1,155900
17,208500	0,5	1,007200
17,216833	0,5	0,846500
17,225167	0,5	0,681700
17,233500	0,5	0,552850
17,241833	0,5	0,449000
17,250167	0,5	0,385400
17,258500	0,5	0,344350
17,266833	0,5	0,347200
17,275167	0,5	0,364850
17,283500	0,5	0,402850
17,291833	0,5	0,426000
17,300167	0,5	0,434050
17,308500	0,5	0,428350
17,316833	0,5	0,418200
17,325167	0,5	0,392750
17,333500	0,5	0,349150
17,341833	0,5	0,324800
17,350167	0,5	0,292000
17,358500	0,5	0,268250
17,366833	0,5	0,240650
17,375167	0,5	0,240350
17,383500	0,5	0,261600
17,391833	0,5	0,291450
17,400167	0,5	0,294800
17,408500	0,5	0,309900
17,416833	0,5	0,311150
17,425167	0,5	0,314900
17,433500	0,5	0,309450
17,441833	0,5	0,296900
17,450167	0,5	0,267750
17,458500	0,5	0,236550
17,466833	0,5	0,195750
17,475167	0,5	0,132900
17,483500	0,5	0,099850
17,491833	0,5	0,063900
17,500167	0,5	0,038150
17,508500	0,5	0,027400
17,516833	0,5	0,030850
17,525167	0,5	0,052200
17,533500	0,5	0,093950
17,541833	0,5	0,097950
17,550167	0,5	0,089750
17,558500	0,5	0,069000
17,566833	0,5	0,028400
17,575167	0,5	-0,032750
17,583500	0,5	-0,087250
17,591833	0,5	-0,150300
17,600167	0,5	-0,206400
17,608500	0,5	-0,248950
17,616833	0,5	-0,269650
17,625167	0,5	-0,306000
17,633500	0,5	-0,303750
17,641833	0,5	-0,322550
17,650167	0,5	-0,346300
17,658500	0,5	-0,371350
17,666833	0,5	-0,398550
17,675167	0,5	-0,390550
17,683500	0,5	-0,397000
17,691833	0,5	-0,392850
17,700167	0,5	-0,397100
17,708500	0,5	-0,393450
17,716833	0,5	-0,378650
17,725167	0,5	-0,340450
17,733500	0,5	-0,293900
17,741833	0,5	-0,224700
17,750167	0,5	-0,175600
17,758500	0,5	-0,115000
17,766833	0,5	-0,089500
17,775167	0,5	-0,059500
17,783500	0,5	-0,058600
17,791833	0,5	-0,075700
17,800167	0,5	-0,116550
17,808500	0,5	-0,185800
17,816833	0,5	-0,222150
17,825167	0,5	-0,244050
17,833500	0,5	-0,263750
17,841833	0,5	-0,292250
17,850167	0,5	-0,308250
17,858500	0,5	-0,329950
17,866833	0,5	-0,347450
17,875167	0,5	-0,366500
17,883500	0,5	-0,371500
17,891833	0,5	-0,396300
17,900167	0,5	-0,406650
17,908500	0,5	-0,403250
17,916833	0,5	-0,422100
17,925167	0,5	-0,386000
17,933500	0,5	-0,362000
17,941833	0,5	-0,326250
17,950167	0,5	-0,279550
17,958500	0,5	-0,255750
17,966833	0,5	-0,216950
17,975167	0,5	-0,182600
17,983500	0,5	-0,189450
17,991833	0,5	-0,209300
18,000167	0,5	-0,238450
18,008500	0,5	-0,283950
18,016833	0,5	-0,340550
18,025167	0,5	-0,368350
18,033500	0,5	-0,403700
18,041833	0,5	-0,430450
18,050167	0,5	-0,463150
18,058500	0,5	-0,471050
18,066833	0,5	-0,509300
18,075167	0,5	-0,510850
18,083500	0,5	-0,529450
18,091833	0,5	-0,543100
18,100167	0,5	-0,564450
18,108500	0,5	-0,588750
18,116833	0,5	-0,572850
18,125167	0,5	-0,548300
18,133500	0,5	-0,515850
18,141833	0,5	-0,467750
18,150167	0,5	-0,425350
18,158500	0,5	-0,405800
18,166833	0,5	-0,403750
18,175167	0,5	-0,426200
18,183500	0,5	-0,450850
18,191833	0,5	-0,504450
18,200167	0,5	-0,533750
18,208500	0,5	-0,582300
18,216833	0,5	-0,628700
18,225167	0,5	-0,639000
18,233500	0,5	-0,659100
18,241833	0,5	-0,687050
18,250167	0,5	-0,720350
18,258500	0,5	-0,749850
18,266833	0,5	-0,749600
18,275167	0,5	-0,756950
18,283500	0,5	-0,754450
18,291833	0,5	-0,740950
18,300167	0,5	-0,721300
18,308500	0,5	-0,702950
18,316833	0,5	-0,683500
18,325167	0,5	-0,662400
18,333500	0,5	-0,665400
18,341833	0,5	-0,659800
18,350167	0,5	-0,681300
18,358500	0,5	-0,716150
18,366833	0,5	-0,745250
18,375167	0,5	-0,762700
18,383500	0,5	-0,796300
18,391833	0,5	-0,822250
18,400167	0,5	-0,857750
18,408500	0,5	-0,874100
18,416833	0,5	-0,888850
18,425167	0,5	-0,897500
18,433500	0,5	-0,904300
18,441833	0,5	-0,899750
18,450167	0,5	-0,897300
18,458500	0,5	-0,894850
18,466833	0,5	-0,881650
18,475167	0,5	-0,876150
18,483500	0,5	-0,864100
18,491833	0,5	-0,859200
18,500167	0,5	-0,860900
18,508500	0,5	-0,876000
18,516833	0,5	-0,885950
18,525167	0,5	-0,911200
18,533500	0,5	-0,929050
18,541833	0,5	-0,976150
18,550167	0,5	-1,000250
18,558500	0,5	-1,012050
18,566833	0,5	-1,008050
18,575167	0,5	-1,022250
18,583500	0,5	-1,021450
18,591833	0,5	-1,027150
18,600167	0,5	-1,035900
18,608500	0,5	-1,036000
18,616833	0,5	-1,026200
18,625167	0,5	-1,020150
18,633500	0,5	-0,997300
18,641833	0,5	-0,942450
18,650167	0,5	-0,952100
18,658500	0,5	-0,938700
18,666833	0,5	-0,933200
18,675167	0,5	-0,949850
18,683500	0,5	-0,964550
18,691833	0,5	-0,983150
18,700167	0,5	-0,985400
18,708500	0,5	-0,965600
18,716833	0,5	-0,959250
18,725167	0,5	-0,945400
18,733500	0,5	-0,930600
18,741833	0,5	-0,909300
18,750167	0,5	-0,881950
18,758500	0,5	-0,850050
18,766833	0,5	-0,807800
18,775167	0,5	-0,777250
18,783500	0,5	-0,753900
18,791833	0,5	-0,736750
18,800167	0,5	-0,755500
18,808500	0,5	-0,744350
18,816833	0,5	-0,754700
18,825167	0,5	-0,779000
18,833500	0,5	-0,799100
18,841833	0,5	-0,827550
18,850167	0,5	-0,812950
18,858500	0,5	-0,813700
18,866833	0,5	-0,802700
18,875167	0,5	-0,802250
18,883500	0,5	-0,784150
18,891833	0,5	-0,787000
18,900167	0,5	-0,771600
18,908500	0,5	-0,771250
18,916833	0,5	-0,794250
18,925167	0,5	-0,823900
18,933500	0,5	-0,849200
18,941833	0,5	-0,885950
18,950167	0,5	-0,918600
18,958500	0,5	-0,924900
18,966833	0,5	-0,941300
18,975167	0,5	-0,964250
18,983500	0,5	-0,997250
18,991833	0,5	-1,017250
19,000167	0,5	-1,014400
19,008500	0,5	-1,012900
19,016833	0,5	-1,023850
19,025167	0,5	-1,014650
19,033500	0,5	-1,034700
19,041833	0,5	-1,046500
19,050167	0,5	-1,051450
19,058500	0,5	-1,074300
19,066833	0,5	-1,077500
19,075167	0,5	-1,092100
19,083500	0,5	-1,096950
19,091833	0,5	-1,123250
19,100167	0,5	-1,129750
19,108500	0,5	-1,137900
19,116833	0,5	-1,149350
19,125167	0,5	-1,171750
19,133500	0,5	-1,213550
19,141833	0,5	-1,226700
19,150167	0,5	-1,220950
19,158500	0,5	-1,250850
19,166833	0,5	-1,262550
19,175167	0,5	-1,279550
19,183500	0,5	-1,290850
19,191833	0,5	-1,307650
19,200167	0,5	-1,313950
19,208500	0,5	-1,325650
19,216833	0,5	-1,331800
19,225167	0,5	-1,325300
19,233500	0,5	-1,330750
19,241833	0,5	-1,360900
19,250167	0,5	-1,356450
19,258500	0,5	-1,372550
19,266833	0,5	-1,380550
19,275167	0,5	-1,402650
19,283500	0,5	-1,433450
19,291833	0,5	-1,422750
19,300167	0,5	-1,432300
19,308500	0,5	-1,430100
19,316833	0,5	-1,436250
19,325167	0,5	-1,443150
19,333500	0,5	-1,463400
19,341833	0,5	-1,469600
19,350167	0,5	-1,474650
19,358500	0,5	-1,485000
19,366833	0,5	-1,488950
19,375167	0,5	-1,481250
19,383500	0,5	-1,500550
19,391833	0,5	-1,503750
19,400167	0,5	-1,494850
19,408500	0,5	-1,504050
19,416833	0,5	-1,516400
19,425167	0,5	-1,543850
19,433500	0,5	-1,565150
19,441833	0,5	-1,576400
19,450167	0,5	-1,571300
19,458500	0,5	-1,579100
19,466833	0,5	-1,577550
19,475167	0,5	-1,584750
19,483500	0,5	-1,588850
19,491833	0,5	-1,602650
19,500167	0,5	-1,608700
19,508500	0,5	-1,632550
19,516833	0,5	-1,638450
19,525167	0,5	-1,659100
19,533500	0,5	-1,664250
19,541833	0,5	-1,672750
19,550167	0,5	-1,668300
19,558500	0,5	-1,693850
19,566833	0,5	-1,713900
19,575167	0,5	-1,750100
19,583500	0,5	-1,749300
19,591833	0,5	-1,745900
19,600167	0,5	-1,751250
19,608500	0,5	-1,761000
19,616833	0,5	-1,760050
19,625167	0,5	-1,758050
19,633500	0,5	-1,766600
19,641833	0,5	-1,772350
19,650167	0,5	-1,781400
19,658500	0,5	-1,784250
19,666833	0,5	-1,787500
19,675167	0,5	-1,799650
19,683500	0,5	-1,812050
19,691833	0,5	-1,810350
19,700167	0,5	-1,834150
19,708500	0,5	-1,849650
19,716833	0,5	-1,889400
19,725167	0,5	-1,918450
19,733500	0,5	-1,921700
19,741833	0,5	-1,943850
19,750167	0,5	-1,959700
19,758500	0,5	-1,978450
19,766833	0,5	-1,994500
19,775167	0,5	-2,013550
19,783500	0,5	-2,024150
19,791833	0,5	-2,038300
19,800167	0,5	-2,050300
19,808500	0,5	-2,065550
19,816833	0,5	-2,069350
19,825167	0,5	-2,110550
19,833500	0,5	-2,094050
19,841833	0,5	-2,118600
19,850167	0,5	-2,132700
19,858500	0,5	-2,153250
19,866833	0,5	-2,185000
19,875167	0,5	-2,176950
19,883500	0,5	-2,181650
19,891833	0,5	-2,193200
19,900167	0,5	-2,201150
19,908500	0,5	-2,206800
19,916833	0,5	-2,216450
19,925167	0,5	-2,219300
19,933500	0,5	-2,222250
19,941833	0,5	-2,235300
19,950167	0,5	-2,249200
19,958500	0,5	-2,239300
19,966833	0,5	-2,256650
19,975167	0,5	-2,272800
19,983500	0,5	-2,270300
19,991833	0,5	-2,282100
20,000167	0,5	-2,307750
20,008500	0,5	-2,331200
20,016833	0,5	-2,369200
20,025167	0,5	-2,369900
20,033500	0,5	-2,381400
20,041833	0,5	-2,398050
20,050167	0,5	-2,415450
20,058500	0,5	-2,428650
20,066833	0,5	-2,436950
20,075167	0,5	-2,450100
20,083500	0,5	-2,456500
20,091833	0,5	-2,474450
20,100167	0,5	-2,483400
20,108500	0,5	-2,492100
20,116833	0,5	-2,504050
20,125167	0,5	-2,513600
20,133500	0,5	-2,524600
20,141833	0,5	-2,529450
20,150167	0,5	-2,547050
20,158500	0,5	-2,572700
20,166833	0,5	-2,575150
20,175167	0,5	-2,567600
20,183500	0,5	-2,562450
20,191833	0,5	-2,563400
20,200167	0,5	-2,567300
20,208500	0,5	-2,580350
20,216833	0,5	-2,586000
20,225167	0,5	-2,598450
20,233500	0,5	-2,612150
20,241833	0,5	-2,622600
20,250167	0,5	-2,648100
20,258500	0,5	-2,647450
20,266833	0,5	-2,668500
20,275167	0,5	-2,665800
20,283500	0,5	-2,684650
20,291833	0,5	-2,690750
20,300167	0,5	-2,723400
20,308500	0,5	-2,760750
20,316833	0,5	-2,776150
20,325167	0,5	-2,789600
20,333500	0,5	-2,808250
20,341833	0,5	-2,819950
20,350167	0,5	-2,847850
20,358500	0,5	-2,880050
20,366833	0,5	-2,895150
20,375167	0,5	-2,914600
20,383500	0,5	-2,935750
20,391833	0,5	-2,961300
20,400167	0,5	-2,957550
20,408500	0,5	-2,980050
20,416833	0,5	-3,008000
20,425167	0,5	-3,020650
20,433500	0,5	-3,043050
20,441833	0,5	-3,075200
20,450167	0,5	-3,106950
20,458500	0,5	-3,159050
20,466833	0,5	-3,165700
20,475167	0,5	-3,181200
20,483500	0,5	-3,201400
20,491833	0,5	-3,220850
20,500167	0,5	-3,224500
20,508500	0,5	-3,236900
20,516833	0,5	-3,233500
20,525167	0,5	-3,224200
20,533500	0,5	-3,224150
20,541833	0,5	-3,208800
20,550167	0,5	-3,217400
20,558500	0,5	-3,255900
20,566833	0,5	-3,307850
20,575167	0,5	-3,342000
20,583500	0,5	-3,403850
20,591833	0,5	-3,449950
20,600167	0,5	-3,518950
20,608500	0,5	-3,560000
20,616833	0,5	-3,593800
20,625167	0,5	-3,621850
20,633500	0,5	-3,655300
20,641833	0,5	-3,678600
20,650167	0,5	-3,713500
20,658500	0,5	-3,754200
20,666833	0,5	-3,764650
20,675167	0,5	-3,792900
20,683500	0,5	-3,805450
20,691833	0,5	-3,769900
20,700167	0,5	-3,743800
20,708500	0,5	-3,726700
20,716833	0,5	-3,705550
20,725167	0,5	-3,719000
20,733500	0,5	-3,758400
20,741833	0,5	-3,847900
20,750167	0,5	-3,913200
20,758500	0,5	-3,992650
20,766833	0,5	-4,064150
20,775167	0,5	-4,127100
20,783500	0,5	-4,179750
20,791833	0,5	-4,236300
20,800167	0,5	-4,293050
20,808500	0,5	-4,347050
20,816833	0,5	-4,392900
20,825167	0,5	-4,429750
20,833500	0,5	-4,456250
20,841833	0,5	-4,480200
20,850167	0,5	-4,512450
20,858500	0,5	-4,554250
20,866833	0,5	-4,594450
20,875167	0,5	-4,624500
20,883500	0,5	-4,672100
20,891833	0,5	-4,730650
20,900167	0,5	-4,759450
20,908500	0,5	-4,789250
20,916833	0,5	-4,842900
20,925167	0,5	-4,893450
20,933500	0,5	-4,941350
20,941833	0,5	-4,984750
20,950167	0,5	-5,031600
20,958500	0,5	-5,074950
20,966833	0,5	-5,114300
20,975167	0,5	-5,161500
20,983500	0,5	-5,162300
20,991833	0,5	-5,172200
21,000167	0,5	-5,205150
21,008500	0,5	-5,234500
21,016833	0,5	-5,267050
21,025167	0,5	-5,305850
21,033500	0,5	-5,349650
21,041833	0,5	-5,400200
21,050167	0,5	-5,418200
21,058500	0,5	-5,467800
21,066833	0,5	-5,512950
21,075167	0,5	-5,554250
21,083500	0,5	-5,585400
21,091833	0,5	-5,631100
21,100167	0,5	-5,668650
21,108500	0,5	-5,710100
21,116833	0,5	-5,741250
21,125167	0,5	-5,761150
21,133500	0,5	-5,766600
21,141833	0,5	-5,777200
21,150167	0,5	-5,803400
21,158500	0,5	-5,844100
21,166833	0,5	-5,882200
21,175167	0,5	-5,936350
21,183500	0,5	-5,978500
21,191833	0,5	-5,995500
21,200167	0,5	-6,013100
21,208500	0,5	-6,032900
21,216833	0,5	-6,055800
21,225167	0,5	-6,070850
21,233500	0,5	-6,096800
21,241833	0,5	-6,110600
21,250167	0,5	-6,123700
21,258500	0,5	-6,140100
21,266833	0,5	-6,152650
21,275167	0,5	-6,131300
21,283500	0,5	-6,118900
21,291833	0,5	-6,120250
21,300167	0,5	-6,137200
21,308500	0,5	-6,174150
21,316833	0,5	-6,208450
21,325167	0,5	-6,260000
21,333500	0,5	-6,308750
21,341833	0,5	-6,334450
21,350167	0,5	-6,338950
21,358500	0,5	-6,370450
21,366833	0,5	-6,383800
21,375167	0,5	-6,407950
21,383500	0,5	-6,431300
21,391833	0,5	-6,443700
21,400167	0,5	-6,449600
21,408500	0,5	-6,475350
21,416833	0,5	-6,487950
21,425167	0,5	-6,468500
21,433500	0,5	-6,464850
21,441833	0,5	-6,484800
21,450167	0,5	-6,506700
21,458500	0,5	-6,536950
21,466833	0,5	-6,582650
21,475167	0,5	-6,616300
21,483500	0,5	-6,654850
21,491833	0,5	-6,658950
21,500167	0,5	-6,683650
21,508500	0,5	-6,694500
21,516833	0,5	-6,711800
21,525167	0,5	-6,726300
21,533500	0,5	-6,745650
21,541833	0,5	-6,759850
21,550167	0,5	-6,779250
21,558500	0,5	-6,800000
21,566833	0,5	-6,786000
21,575167	0,5	-6,771550
21,583500	0,5	-6,783100
21,591833	0,5	-6,812550
21,600167	0,5	-6,823300
21,608500	0,5	-6,848000
21,616833	0,5	-6,872950
21,625167	0,5	-6,894000
21,633500	0,5	-6,894750
21,641833	0,5	-6,896450
21,650167	0,5	-6,885300
21,658500	0,5	-6,865100
21,666833	0,5	-6,862400
21,675167	0,5	-6,878300
21,683500	0,5	-6,896600
21,691833	0,5	-6,926200
21,700167	0,5	-6,954750
21,708500	0,5	-6,959150
21,716833	0,5	-6,945650
21,725167	0,5	-6,939900
21,733500	0,5	-6,944900
21,741833	0,5	-6,955550
21,750167	0,5	-6,981750
21,758500	0,5	-7,003650
21,766833	0,5	-7,056400
21,775167	0,5	-7,070700
21,783500	0,5	-7,079650
21,791833	0,5	-7,094000
21,800167	0,5	-7,107600
21,808500	0,5	-7,094600
21,816833	0,5	-7,101500
21,825167	0,5	-7,102800
21,833500	0,5	-7,102400
21,841833	0,5	-7,106900
21,850167	0,5	-7,107000
21,858500	0,5	-7,089550
21,866833	0,5	-7,071400
21,875167	0,5	-7,086150
21,883500	0,5	-7,086550
21,891833	0,5	-7,105100
21,900167	0,5	-7,113600
21,908500	0,5	-7,114700
21,916833	0,5	-7,096950
21,925167	0,5	-7,039600
21,933500	0,5	-6,977050
21,941833	0,5	-6,961150
21,950167	0,5	-6,959500
21,958500	0,5	-6,996250
21,966833	0,5	-7,042350
21,975167	0,5	-7,098000
21,983500	0,5	-7,147800
21,991833	0,5	-7,193900
22,000167	0,5	-7,242750
22,008500	0,5	-7,248600
22,016833	0,5	-7,286600
22,025167	0,5	-7,332550
22,033500	0,5	-7,361250
22,041833	0,5	-7,381250
22,050167	0,5	-7,428500
22,058500	0,5	-7,480000
22,066833	0,5	-7,497100
22,075167	0,5	-7,505850
22,083500	0,5	-7,542600
22,091833	0,5	-7,564950
22,100167	0,5	-7,578250
22,108500	0,5	-7,600850
22,116833	0,5	-7,629700
22,125167	0,5	-7,643650
22,133500	0,5	-7,661100
22,141833	0,5	-7,688750
22,150167	0,5	-7,691450
22,158500	0,5	-7,696100
22,166833	0,5	-7,738300
22,175167	0,5	-7,737750
22,183500	0,5	-7,742350
22,191833	0,5	-7,766250
22,200167	0,5	-7,790400
22,208500	0,5	-7,822900
22,216833	0,5	-7,811750
22,225167	0,5	-7,811450
22,233500	0,5	-7,811350
22,241833	0,5	-7,827950
22,250167	0,5	-7,817050
22,258500	0,5	-7,823000
22,266833	0,5	-7,824950
22,275167	0,5	-7,815650
22,283500	0,5	-7,822050
22,291833	0,5	-7,809650
22,300167	0,5	-7,829200
22,308500	0,5	-7,822700
22,316833	0,5	-7,807850
22,325167	0,5	-7,784500
22,333500	0,5	-7,775100
22,341833	0,5	-7,750200
22,350167	0,5	-7,708350
22,358500	0,5	-7,637650
22,366833	0,5	-7,538500
22,375167	0,5	-7,452100
22,383500	0,5	-7,443950
22,391833	0,5	-7,465100
22,400167	0,5	-7,537800
22,408500	0,5	-7,595900
22,416833	0,5	-7,635350
22,425167	0,5	-7,674100
22,433500	0,5	-7,699850
22,441833	0,5	-7,750400
22,450167	0,5	-7,766850
22,458500	0,5	-7,789700
22,466833	0,5	-7,776000
22,475167	0,5	-7,776550
22,483500	0,5	-7,777100
22,491833	0,5	-7,795400
22,500167	0,5	-7,808850
22,508500	0,5	-7,800550
22,516833	0,5	-7,778900
22,525167	0,5	-7,774100
22,533500	0,5	-7,748400
22,541833	0,5	-7,729350
22,550167	0,5	-7,703550
22,558500	0,5	-7,676800
22,566833	0,5	-7,645450
22,575167	0,5	-7,631700
22,583500	0,5	-7,622350
22,591833	0,5	-7,641700
22,600167	0,5	-7,650500
22,608500	0,5	-7,620750
22,616833	0,5	-7,599600
22,625167	0,5	-7,590500
22,633500	0,5	-7,599800
22,641833	0,5	-7,605950
22,650167	0,5	-7,619050
22,658500	0,5	-7,601800
22,666833	0,5	-7,610850
22,675167	0,5	-7,600800
22,683500	0,5	-7,611250
22,691833	0,5	-7,607550
22,700167	0,5	-7,618250
22,708500	0,5	-7,614250
22,716833	0,5	-7,610300
22,725167	0,5	-7,622850
22,733500	0,5	-7,652400
22,741833	0,5	-7,688900
22,750167	0,5	-7,677300
22,758500	0,5	-7,660550
22,766833	0,5	-7,657050
22,775167	0,5	-7,678250
22,783500	0,5	-7,687900
22,791833	0,5	-7,727700
22,800167	0,5	-7,746650
22,808500	0,5	-7,756400
22,816833	0,5	-7,754600
22,825167	0,5	-7,781500
22,833500	0,5	-7,797100
22,841833	0,5	-7,816100
22,850167	0,5	-7,837800
22,858500	0,5	-7,860000
22,866833	0,5	-7,876000
22,875167	0,5	-7,905900
22,883500	0,5	-7,986200
22,891833	0,5	-8,011150
22,900167	0,5	-8,013950
22,908500	0,5	-8,022800
22,916833	0,5	-8,054250
22,925167	0,5	-8,079650
22,933500	0,5	-8,094250
22,941833	0,5	-8,122600
22,950167	0,5	-8,151350
22,958500	0,5	-8,171050
22,966833	0,5	-8,173450
22,975167	0,5	-8,179600
22,983500	0,5	-8,171900
22,991833	0,5	-8,174800
23,000167	0,5	-8,151950
23,008500	0,5	-8,147250
23,016833	0,5	-8,125150
23,025167	0,5	-8,071200
23,033500	0,5	-8,062650
23,041833	0,5	-8,036350
23,050167	0,5	-8,028200
23,058500	0,5	-8,015100
23,066833	0,5	-7,994200
23,075167	0,5	-7,955700
23,083500	0,5	-7,891300
23,091833	0,5	-7,870550
23,100167	0,5	-7,832000
23,108500	0,5	-7,781900
23,116833	0,5	-7,724550
23,125167	0,5	-7,662700
23,133500	0,5	-7,602300
23,141833	0,5	-7,526950
23,150167	0,5	-7,455200
23,158500	0,5	-7,369400
23,166833	0,5	-7,292450
23,175167	0,5	-7,175150
23,183500	0,5	-7,088350
23,191833	0,5	-7,017600
23,200167	0,5	-6,973100
23,208500	0,5	-6,913150
23,216833	0,5	-6,823600
23,225167	0,5	-6,750500
23,233500	0,5	-6,651350
23,241833	0,5	-6,600700
23,250167	0,5	-6,518550
23,258500	0,5	-6,435850
23,266833	0,5	-6,357200
23,275167	0,5	-6,273250
23,283500	0,5	-6,174750
23,291833	0,5	-6,094000
23,300167	0,5	-5,999950
23,308500	0,5	-5,901600
23,316833	0,5	-5,795000
23,325167	0,5	-5,722650
23,333500	0,5	-5,597250
23,341833	0,5	-5,504300
23,350167	0,5	-5,467650
23,358500	0,5	-5,386250
23,366833	0,5	-5,314050
23,375167	0,5	-5,225450
23,383500	0,5	-5,156350
23,391833	0,5	-5,085550
23,400167	0,5	-5,029200
23,408500	0,5	-4,955700
23,416833	0,5	-4,894600
23,425167	0,5	-4,810050
23,433500	0,5	-4,746950
23,441833	0,5	-4,670400
23,450167	0,5	-4,604050
23,458500	0,5	-4,526600
23,466833	0,5	-4,456950
23,475167	0,5	-4,430600
23,483500	0,5	-4,315700
23,491833	0,5	-4,242050
23,500167	0,5	-4,189300
23,508500	0,5	-4,138850
23,516833	0,5	-4,072100
23,525167	0,5	-4,018500
23,533500	0,5	-3,967500
23,541833	0,5	-3,929250
23,550167	0,5	-3,889700
23,558500	0,5	-3,849550
23,566833	0,5	-3,809100
23,575167	0,5	-3,762650
23,583500	0,5	-3,717800
23,591833	0,5	-3,674900
23,600167	0,5	-3,624550
23,608500	0,5	-3,582550
23,616833	0,5	-3,664250
23,625167	0,5	-3,590000
23,633500	0,5	-3,515850
23,641833	0,5	-3,449850
23,650167	0,5	-3,414550
23,658500	0,5	-3,386450
23,666833	0,5	-3,351150
23,675167	0,5	-3,322950
23,683500	0,5	-3,293050
23,691833	0,5	-3,263950
23,700167	0,5	-3,233450
23,708500	0,5	-3,214900
23,716833	0,5	-3,183900
23,725167	0,5	-3,152300
23,733500	0,5	-3,125050
23,741833	0,5	-3,090850
23,750167	0,5	-3,061600
23,758500	0,5	-3,062200
23,766833	0,5	-3,159900
23,775167	0,5	-3,131150
23,783500	0,5	-3,030600
23,791833	0,5	-2,976950
23,800167	0,5	-2,948750
23,808500	0,5	-2,927100
23,816833	0,5	-2,910250
23,825167	0,5	-2,897950
23,833500	0,5	-2,874700
23,841833	0,5	-2,852200
23,850167	0,5	-2,828250
23,858500	0,5	-2,805900
23,866833	0,5	-2,778350
23,875167	0,5	-2,753000
23,883500	0,5	-2,726100
23,891833	0,5	-2,693200
23,900167	0,5	-2,670800
23,908500	0,5	-2,787800
23,916833	0,5	-2,801000
23,925167	0,5	-2,745450
23,933500	0,5	-2,660750
23,941833	0,5	-2,604250
23,950167	0,5	-2,568700
23,958500	0,5	-2,543650
23,966833	0,5	-2,536150
23,975167	0,5	-2,503500
23,983500	0,5	-2,473150
23,991833	0,5	-2,444950
24,000167	0,5	-2,427600
24,008500	0,5	-2,407350
24,016833	0,5	-2,385600
24,025167	0,5	-2,365200
24,033500	0,5	-2,337550
24,041833	0,5	-2,315850
24,050167	0,5	-2,300300
24,058500	0,5	-2,456500
24,066833	0,5	-2,412500
24,075167	0,5	-2,363900
24,083500	0,5	-2,287950
24,091833	0,5	-2,245200
24,100167	0,5	-2,210350
24,108500	0,5	-2,198650
24,116833	0,5	-2,191050
24,125167	0,5	-2,154150
24,133500	0,5	-2,118850
24,141833	0,5	-2,092750
24,150167	0,5	-2,061600
24,158500	0,5	-2,036650
24,166833	0,5	-2,007150
24,175167	0,5	-1,980850
24,183500	0,5	-1,951700
24,191833	0,5	-1,923700
24,200167	0,5	-1,988200
24,208500	0,5	-2,038250
24,216833	0,5	-2,011050
24,225167	0,5	-1,949000
24,233500	0,5	-1,896100
24,241833	0,5	-1,861100
24,250167	0,5	-1,845450
24,258500	0,5	-1,840450
24,266833	0,5	-1,825750
24,275167	0,5	-1,787800
24,283500	0,5	-1,770900
24,291833	0,5	-1,741500
24,300167	0,5	-1,720950
24,308500	0,5	-1,699500
24,316833	0,5	-1,682350
24,325167	0,5	-1,650600
24,333500	0,5	-1,626200
24,341833	0,5	-1,600250
24,350167	0,5	-1,691050
24,358500	0,5	-1,669750
24,366833	0,5	-1,645000
24,375167	0,5	-1,583150
24,383500	0,5	-1,549350
24,391833	0,5	-1,513100
24,400167	0,5	-1,497100
24,408500	0,5	-1,511150
24,416833	0,5	-1,483650
24,425167	0,5	-1,460250
24,433500	0,5	-1,429300
24,441833	0,5	-1,420050
24,450167	0,5	-1,400500
24,458500	0,5	-1,383900
24,466833	0,5	-1,359300
24,475167	0,5	-1,340300
24,483500	0,5	-1,323250
24,491833	0,5	-1,317750
24,500167	0,5	-1,397500
24,508500	0,5	-1,376500
24,516833	0,5	-1,341150
24,525167	0,5	-1,294100
24,533500	0,5	-1,265850
24,541833	0,5	-1,247200
24,550167	0,5	-1,242850
24,558500	0,5	-1,242900
24,566833	0,5	-1,227650
24,575167	0,5	-1,202800
24,583500	0,5	-1,187850
24,591833	0,5	-1,167000
24,600167	0,5	-1,146600
24,608500	0,5	-1,132300
24,616833	0,5	-1,123250
24,625167	0,5	-1,096500
24,633500	0,5	-1,078950
24,641833	0,5	-1,105600
24,650167	0,5	-1,120650
24,658500	0,5	-1,094600
24,666833	0,5	-1,071550
24,675167	0,5	-1,039550
24,683500	0,5	-1,032650
24,691833	0,5	-1,019950
24,700167	0,5	-1,018400
24,708500	0,5	-1,021600
24,716833	0,5	-1,005750
24,725167	0,5	-0,993550
24,733500	0,5	-0,980200
24,741833	0,5	-0,969000
24,750167	0,5	-0,957050
24,758500	0,5	-0,946450
24,766833	0,5	-0,927850
24,775167	0,5	-0,917300
24,783500	0,5	-0,903050
24,791833	0,5	-0,939850
24,800167	0,5	-0,920800
24,808500	0,5	-0,909700
24,816833	0,5	-0,880650
24,825167	0,5	-0,860950
24,833500	0,5	-0,844950
24,841833	0,5	-0,838750
24,850167	0,5	-0,840550
24,858500	0,5	-0,828650
24,866833	0,5	-0,820000
24,875167	0,5	-0,818650
24,883500	0,5	-0,803500
24,891833	0,5	-0,802700
24,900167	0,5	-0,793650
24,908500	0,5	-0,787900
24,916833	0,5	-0,784050
24,925167	0,5	-0,777700
24,933500	0,5	-0,778700
24,941833	0,5	-0,792400
24,950167	0,5	-0,791050
24,958500	0,5	-0,770050
24,966833	0,5	-0,762650
24,975167	0,5	-0,744200
24,983500	0,5	-0,736900
24,991833	0,5	-0,736850
25,000167	0,5	-0,732500
25,008500	0,5	-0,722250
25,016833	0,5	-0,719400
25,025167	0,5	-0,709750
25,033500	0,5	-0,696850
25,041833	0,5	-0,692600
25,050167	0,5	-0,686950
25,058500	0,5	-0,676900
25,066833	0,5	-0,669300
25,075167	0,5	-0,663550
25,083500	0,5	-0,675400
25,091833	0,5	-0,675150
25,100167	0,5	-0,675750
25,108500	0,5	-0,666600
25,116833	0,5	-0,667100
25,125167	0,5	-0,659400
25,133500	0,5	-0,657550
25,141833	0,5	-0,663950
25,150167	0,5	-0,656400
25,158500	0,5	-0,654400
25,166833	0,5	-0,646900
25,175167	0,5	-0,642800
25,183500	0,5	-0,636750
25,191833	0,5	-0,633650
25,200167	0,5	-0,627500
25,208500	0,5	-0,616600
25,216833	0,5	-0,617900
25,225167	0,5	-0,612600
25,233500	0,5	-0,612900
25,241833	0,5	-0,605100
25,250167	0,5	-0,602800
25,258500	0,5	-0,597700
25,266833	0,5	-0,595650
25,275167	0,5	-0,597600
25,283500	0,5	-0,596150
25,291833	0,5	-0,593750
25,300167	0,5	-0,593350
25,308500	0,5	-0,596050
25,316833	0,5	-0,597550
25,325167	0,5	-0,600150
25,333500	0,5	-0,599300
25,341833	0,5	-0,597300
25,350167	0,5	-0,597150
25,358500	0,5	-0,593350
25,366833	0,5	-0,591050
25,375167	0,5	-0,587700
25,383500	0,5	-0,582100
25,391833	0,5	-0,577700
25,400167	0,5	-0,576250
25,408500	0,5	-0,572050
25,416833	0,5	-0,574650
25,425167	0,5	-0,567950
25,433500	0,5	-0,567650
25,441833	0,5	-0,564700
25,450167	0,5	-0,566050
25,458500	0,5	-0,565750
25,466833	0,5	-0,566950
25,475167	0,5	-0,569250
25,483500	0,5	-0,570050
25,491833	0,5	-0,574350
25,500167	0,5	-0,569400
25,508500	0,5	-0,572050
25,516833	0,5	-0,576600
25,525167	0,5	-0,573250
25,533500	0,5	-0,569100
25,541833	0,5	-0,564000
25,550167	0,5	-0,571350
25,558500	0,5	-0,574300
25,566833	0,5	-0,569850
25,575167	0,5	-0,570600
25,583500	0,5	-0,570700
25,591833	0,5	-0,561600
25,600167	0,5	-0,560150
25,608500	0,5	-0,563250
25,616833	0,5	-0,563150
25,625167	0,5	-0,564350
25,633500	0,5	-0,564950
25,641833	0,5	-0,564650
25,650167	0,5	-0,563600
25,658500	0,5	-0,560050
25,666833	0,5	-0,560900
25,675167	0,5	-0,554200
25,683500	0,5	-0,552300
25,691833	0,5	-0,552400
25,700167	0,5	-0,561050
25,708500	0,5	-0,562100
25,716833	0,5	-0,558400
25,725167	0,5	-0,561000
25,733500	0,5	-0,549000
25,741833	0,5	-0,542950
25,750167	0,5	-0,553850
25,758500	0,5	-0,555150
25,766833	0,5	-0,553300
25,775167	0,5	-0,550300
25,783500	0,5	-0,551800
25,791833	0,5	-0,546300
25,800167	0,5	-0,547100
25,808500	0,5	-0,545700
25,816833	0,5	-0,538700
25,825167	0,5	-0,525600
25,833500	0,5	-0,524100
25,841833	0,5	-0,520900
25,850167	0,5	-0,530400
25,858500	0,5	-0,529750
25,866833	0,5	-0,529400
25,875167	0,5	-0,523200
25,883500	0,5	-0,515050
25,891833	0,5	-0,517300
25,900167	0,5	-0,513750
25,908500	0,5	-0,516150
25,916833	0,5	-0,519850
25,925167	0,5	-0,516550
25,933500	0,5	-0,510300
25,941833	0,5	-0,509700
25,950167	0,5	-0,504500
25,958500	0,5	-0,504400
25,966833	0,5	-0,497350
25,975167	0,5	-0,492750
25,983500	0,5	-0,474400
25,991833	0,5	-0,484700
26,000167	0,5	-0,481000
