File Path	chrom://chromeleon01/ikbm_chromeleon/2022/ICS-5000/ED1/Esteban/20220427_Cell_Amandas_mutants.seq/307.smp/ED_1.channel/ED_1.chm
Channel	ED_1

Injection Information:
Data Vault	ikbm_chromeleon
Injection	T24h_Avi_2b
Injection Number	41
Position	RE1
Comment	
Processing Method	Stop sequence after Cell Death
Instrument Method	ICS5000_PA200_FullNative_Ox_26min_ED1
Type	Unknown
Status	Finished
Injection Date	28.04.2022
Injection Time	08:01:59
Injection Volume (µl)	5,0
Dilution Factor	1,0000
Weight	1,0000

Chromatogram Data Information:
Time Min. (min)	0,000333
Time Max. (min)	26,000333
Data Points	3121
Detector	EDet1
Generating Data System	Chromeleon 7.2.9.11323
Exporting Data System	Chromeleon 7.2.9.0
Operator	Instrument Controller
Signal Quantity	
Signal Unit	nC
Signal Min.	-7,771500
Signal Max.	40,289751
Channel	ED_1
Driver Name	DC-5000
Channel Type	Evaluation
Min. Step (s)	0,5
Max. Step (s)	0,5
Average Step (s)	0,5

Signal Parameter Information:
Signal Info	

Chromatogram Data:
Time (min)	Step (s)	Value (nC)
0,000333	n.a.	-0,012550
0,008667	0,5	-0,069700
0,017000	0,5	-0,081450
0,025333	0,5	-0,080700
0,033667	0,5	-0,081150
0,042000	0,5	-0,058800
0,050333	0,5	-0,010950
0,058667	0,5	0,009150
0,067000	0,5	0,001450
0,075333	0,5	-0,012400
0,083667	0,5	-0,004050
0,092000	0,5	-0,019400
0,100333	0,5	-0,009750
0,108667	0,5	-0,013150
0,117000	0,5	-0,003500
0,125333	0,5	-0,004250
0,133667	0,5	0,005850
0,142000	0,5	0,029150
0,150333	0,5	0,012900
0,158667	0,5	0,037650
0,167000	0,5	0,010950
0,175333	0,5	-0,004650
0,183667	0,5	-0,010650
0,192000	0,5	-0,005100
0,200333	0,5	0,041950
0,208667	0,5	0,033750
0,217000	0,5	0,015350
0,225333	0,5	0,025200
0,233667	0,5	0,014650
0,242000	0,5	0,012100
0,250333	0,5	0,006350
0,258667	0,5	0,012800
0,267000	0,5	-0,004900
0,275333	0,5	-0,000300
0,283667	0,5	-0,001600
0,292000	0,5	0,024700
0,300333	0,5	0,005250
0,308667	0,5	0,083600
0,317000	0,5	0,072400
0,325333	0,5	0,033550
0,333667	0,5	-0,013800
0,342000	0,5	-0,009000
0,350333	0,5	0,022250
0,358667	0,5	0,013450
0,367000	0,5	0,005450
0,375333	0,5	0,008700
0,383667	0,5	-0,000050
0,392000	0,5	-0,000300
0,400333	0,5	0,002000
0,408667	0,5	-0,006800
0,417000	0,5	-0,004250
0,425333	0,5	-0,009100
0,433667	0,5	-0,000250
0,442000	0,5	-0,017650
0,450333	0,5	-0,016300
0,458667	0,5	-0,011550
0,467000	0,5	-0,029200
0,475333	0,5	-0,035000
0,483667	0,5	-0,027750
0,492000	0,5	-0,005450
0,500333	0,5	0,026650
0,508667	0,5	0,011400
0,517000	0,5	0,003100
0,525333	0,5	0,004600
0,533667	0,5	-0,000400
0,542000	0,5	-0,003700
0,550333	0,5	-0,006550
0,558667	0,5	-0,012000
0,567000	0,5	-0,022500
0,575333	0,5	-0,013400
0,583667	0,5	-0,013650
0,592000	0,5	-0,009750
0,600333	0,5	0,011100
0,608667	0,5	-0,006850
0,617000	0,5	-0,034150
0,625333	0,5	-0,020000
0,633667	0,5	-0,021750
0,642000	0,5	0,013200
0,650333	0,5	0,021600
0,658667	0,5	0,028100
0,667000	0,5	0,005900
0,675333	0,5	0,016750
0,683667	0,5	-0,002200
0,692000	0,5	0,000150
0,700333	0,5	-0,006900
0,708667	0,5	-0,017150
0,717000	0,5	-0,012150
0,725333	0,5	-0,008200
0,733667	0,5	0,004250
0,742000	0,5	0,006550
0,750333	0,5	0,022500
0,758667	0,5	-0,002600
0,767000	0,5	-0,021950
0,775333	0,5	-0,015650
0,783667	0,5	0,004500
0,792000	0,5	0,034650
0,800333	0,5	0,036200
0,808667	0,5	0,012200
0,817000	0,5	0,023400
0,825333	0,5	0,018450
0,833667	0,5	0,021450
0,842000	0,5	0,010950
0,850333	0,5	0,013350
0,858667	0,5	0,008400
0,867000	0,5	0,021150
0,875333	0,5	0,024050
0,883667	0,5	0,016250
0,892000	0,5	0,027400
0,900333	0,5	0,037050
0,908667	0,5	0,016650
0,917000	0,5	0,016000
0,925333	0,5	0,027000
0,933667	0,5	0,041400
0,942000	0,5	0,064900
0,950333	0,5	0,043550
0,958667	0,5	0,048900
0,967000	0,5	0,047750
0,975333	0,5	0,050850
0,983667	0,5	0,044550
0,992000	0,5	0,054450
1,000333	0,5	0,041850
1,008667	0,5	0,042750
1,017000	0,5	0,049650
1,025333	0,5	0,062850
1,033667	0,5	0,040350
1,042000	0,5	0,087150
1,050333	0,5	0,062400
1,058667	0,5	0,057250
1,067000	0,5	0,048800
1,075333	0,5	0,065150
1,083667	0,5	0,107050
1,092000	0,5	0,104200
1,100333	0,5	0,094700
1,108667	0,5	0,088050
1,117000	0,5	0,108550
1,125333	0,5	0,090350
1,133667	0,5	0,087850
1,142000	0,5	0,090350
1,150333	0,5	0,096250
1,158667	0,5	0,098400
1,167000	0,5	0,104600
1,175333	0,5	0,114150
1,183667	0,5	0,105950
1,192000	0,5	0,131600
1,200333	0,5	0,110150
1,208667	0,5	0,107750
1,217000	0,5	0,107750
1,225333	0,5	0,125350
1,233667	0,5	0,170500
1,242000	0,5	0,157600
1,250333	0,5	0,148150
1,258667	0,5	0,149400
1,267000	0,5	0,158900
1,275333	0,5	0,159100
1,283667	0,5	0,164350
1,292000	0,5	0,169100
1,300333	0,5	0,164800
1,308667	0,5	0,173700
1,317000	0,5	0,183650
1,325333	0,5	0,203250
1,333667	0,5	0,182000
1,342000	0,5	0,215450
1,350333	0,5	0,190500
1,358667	0,5	0,195450
1,367000	0,5	0,195600
1,375333	0,5	0,222600
1,383667	0,5	0,262450
1,392000	0,5	0,263700
1,400333	0,5	0,261300
1,408667	0,5	0,268850
1,417000	0,5	0,273050
1,425333	0,5	0,275450
1,433667	0,5	0,279900
1,442000	0,5	0,284300
1,450333	0,5	0,289200
1,458667	0,5	0,296600
1,467000	0,5	0,308750
1,475333	0,5	0,298650
1,483667	0,5	0,320100
1,492000	0,5	0,331300
1,500333	0,5	0,314750
1,508667	0,5	0,318450
1,517000	0,5	0,349350
1,525333	0,5	0,375200
1,533667	0,5	0,410550
1,542000	0,5	0,401400
1,550333	0,5	0,409100
1,558667	0,5	0,404650
1,567000	0,5	0,413850
1,575333	0,5	0,372050
1,583667	0,5	0,184450
1,592000	0,5	-0,490950
1,600333	0,5	-1,566700
1,608667	0,5	-1,802600
1,617000	0,5	-0,224300
1,625333	0,5	2,207250
1,633667	0,5	4,711900
1,642000	0,5	7,732300
1,650333	0,5	11,060500
1,658667	0,5	13,346850
1,667000	0,5	13,811350
1,675333	0,5	13,089100
1,683667	0,5	11,941550
1,692000	0,5	10,754600
1,700333	0,5	9,635450
1,708667	0,5	8,666050
1,717000	0,5	7,808750
1,725333	0,5	7,095650
1,733667	0,5	6,502200
1,742000	0,5	6,001650
1,750333	0,5	5,503850
1,758667	0,5	4,997950
1,767000	0,5	4,563850
1,775333	0,5	4,303200
1,783667	0,5	4,348550
1,792000	0,5	5,014100
1,800333	0,5	6,911750
1,808667	0,5	10,152200
1,817000	0,5	13,485950
1,825333	0,5	15,535350
1,833667	0,5	15,993250
1,842000	0,5	14,806350
1,850333	0,5	12,699350
1,858667	0,5	10,622350
1,867000	0,5	9,041750
1,875333	0,5	7,903050
1,883667	0,5	7,101050
1,892000	0,5	6,494950
1,900333	0,5	6,036300
1,908667	0,5	5,663100
1,917000	0,5	5,344500
1,925333	0,5	5,077800
1,933667	0,5	4,817550
1,942000	0,5	4,607300
1,950333	0,5	4,492550
1,958667	0,5	4,478400
1,967000	0,5	4,541650
1,975333	0,5	4,539250
1,983667	0,5	4,457850
1,992000	0,5	4,406050
2,000333	0,5	4,412350
2,008667	0,5	4,456400
2,017000	0,5	4,534100
2,025333	0,5	4,656900
2,033667	0,5	4,801300
2,042000	0,5	5,079500
2,050333	0,5	5,631400
2,058667	0,5	6,517600
2,067000	0,5	7,635500
2,075333	0,5	9,088250
2,083667	0,5	10,545550
2,092000	0,5	11,435950
2,100333	0,5	11,426800
2,108667	0,5	10,967900
2,117000	0,5	10,516300
2,125333	0,5	10,144050
2,133667	0,5	9,919400
2,142000	0,5	9,888000
2,150333	0,5	10,145300
2,158667	0,5	10,901950
2,167000	0,5	12,506000
2,175333	0,5	14,646800
2,183667	0,5	15,870800
2,192000	0,5	15,221450
2,200333	0,5	13,471300
2,208667	0,5	11,775500
2,217000	0,5	10,563100
2,225333	0,5	9,750050
2,233667	0,5	9,124750
2,242000	0,5	8,679450
2,250333	0,5	8,370100
2,258667	0,5	8,159800
2,267000	0,5	8,060050
2,275333	0,5	7,964150
2,283667	0,5	7,920350
2,292000	0,5	7,905350
2,300333	0,5	7,920100
2,308667	0,5	7,927050
2,317000	0,5	7,942550
2,325333	0,5	7,937400
2,333667	0,5	7,927450
2,342000	0,5	7,944850
2,350333	0,5	7,968650
2,358667	0,5	8,000550
2,367000	0,5	8,004150
2,375333	0,5	8,033000
2,383667	0,5	8,028200
2,392000	0,5	8,054400
2,400333	0,5	8,104250
2,408667	0,5	8,183300
2,417000	0,5	8,275950
2,425333	0,5	8,336550
2,433667	0,5	8,417650
2,442000	0,5	8,541600
2,450333	0,5	8,660250
2,458667	0,5	8,789150
2,467000	0,5	8,910300
2,475333	0,5	9,036300
2,483667	0,5	9,093700
2,492000	0,5	9,032200
2,500333	0,5	8,915150
2,508667	0,5	8,830900
2,517000	0,5	8,828450
2,525333	0,5	8,816950
2,533667	0,5	8,808350
2,542000	0,5	8,807800
2,550333	0,5	8,828650
2,558667	0,5	8,854100
2,567000	0,5	8,892600
2,575333	0,5	8,908050
2,583667	0,5	8,997650
2,592000	0,5	9,151950
2,600333	0,5	9,438900
2,608667	0,5	9,914850
2,617000	0,5	10,747100
2,625333	0,5	12,194250
2,633667	0,5	14,642750
2,642000	0,5	18,187950
2,650333	0,5	22,350100
2,658667	0,5	26,138100
2,667000	0,5	28,643600
2,675333	0,5	29,380900
2,683667	0,5	28,519200
2,692000	0,5	26,543300
2,700333	0,5	24,042800
2,708667	0,5	21,552800
2,717000	0,5	19,370600
2,725333	0,5	17,679200
2,733667	0,5	16,531950
2,742000	0,5	15,999800
2,750333	0,5	16,200400
2,758667	0,5	17,328400
2,767000	0,5	19,482700
2,775333	0,5	22,667300
2,783667	0,5	26,770050
2,792000	0,5	31,521650
2,800333	0,5	36,156401
2,808667	0,5	39,460451
2,817000	0,5	40,289751
2,825333	0,5	38,413701
2,833667	0,5	34,626751
2,842000	0,5	30,109500
2,850333	0,5	25,874000
2,858667	0,5	22,454900
2,867000	0,5	20,079200
2,875333	0,5	18,890850
2,883667	0,5	19,180850
2,892000	0,5	21,167950
2,900333	0,5	24,588150
2,908667	0,5	28,229850
2,917000	0,5	30,448150
2,925333	0,5	30,228950
2,933667	0,5	27,816800
2,942000	0,5	24,218800
2,950333	0,5	20,480850
2,958667	0,5	17,223600
2,967000	0,5	14,591300
2,975333	0,5	12,547150
2,983667	0,5	10,993450
2,992000	0,5	9,806450
3,000333	0,5	8,911400
3,008667	0,5	8,179100
3,017000	0,5	7,578400
3,025333	0,5	7,076350
3,033667	0,5	6,658750
3,042000	0,5	6,284550
3,050333	0,5	5,969100
3,058667	0,5	5,691650
3,067000	0,5	5,436750
3,075333	0,5	5,213600
3,083667	0,5	5,015250
3,092000	0,5	4,850200
3,100333	0,5	4,680650
3,108667	0,5	4,575650
3,117000	0,5	4,419000
3,125333	0,5	4,289550
3,133667	0,5	4,179350
3,142000	0,5	4,094750
3,150333	0,5	4,025350
3,158667	0,5	3,925200
3,167000	0,5	3,808100
3,175333	0,5	3,698800
3,183667	0,5	3,588100
3,192000	0,5	3,500500
3,200333	0,5	3,451250
3,208667	0,5	3,445850
3,217000	0,5	3,485550
3,225333	0,5	3,572450
3,233667	0,5	3,769750
3,242000	0,5	4,120750
3,250333	0,5	4,772550
3,258667	0,5	5,878600
3,267000	0,5	7,411200
3,275333	0,5	9,272150
3,283667	0,5	11,051300
3,292000	0,5	12,282750
3,300333	0,5	12,644450
3,308667	0,5	12,035750
3,317000	0,5	10,742200
3,325333	0,5	9,122350
3,333667	0,5	7,540350
3,342000	0,5	6,171450
3,350333	0,5	5,118050
3,358667	0,5	4,321100
3,367000	0,5	3,734000
3,375333	0,5	3,296850
3,383667	0,5	2,964650
3,392000	0,5	2,693550
3,400333	0,5	2,483000
3,408667	0,5	2,307350
3,417000	0,5	2,143650
3,425333	0,5	2,016050
3,433667	0,5	1,915400
3,442000	0,5	1,856400
3,450333	0,5	1,805200
3,458667	0,5	1,742150
3,467000	0,5	1,678900
3,475333	0,5	1,627950
3,483667	0,5	1,558750
3,492000	0,5	1,500900
3,500333	0,5	1,436200
3,508667	0,5	1,381650
3,517000	0,5	1,320300
3,525333	0,5	1,266000
3,533667	0,5	1,215250
3,542000	0,5	1,166200
3,550333	0,5	1,135650
3,558667	0,5	1,092800
3,567000	0,5	1,048050
3,575333	0,5	1,014550
3,583667	0,5	0,990800
3,592000	0,5	0,981750
3,600333	0,5	0,970400
3,608667	0,5	0,932200
3,617000	0,5	0,912800
3,625333	0,5	0,878400
3,633667	0,5	0,853000
3,642000	0,5	0,830450
3,650333	0,5	0,812950
3,658667	0,5	0,783950
3,667000	0,5	0,768550
3,675333	0,5	0,746650
3,683667	0,5	0,723700
3,692000	0,5	0,690850
3,700333	0,5	0,691050
3,708667	0,5	0,661100
3,717000	0,5	0,647050
3,725333	0,5	0,632850
3,733667	0,5	0,645350
3,742000	0,5	0,653350
3,750333	0,5	0,643900
3,758667	0,5	0,633550
3,767000	0,5	0,620150
3,775333	0,5	0,604050
3,783667	0,5	0,592200
3,792000	0,5	0,587800
3,800333	0,5	0,573700
3,808667	0,5	0,567350
3,817000	0,5	0,567950
3,825333	0,5	0,563250
3,833667	0,5	0,541900
3,842000	0,5	0,551400
3,850333	0,5	0,555100
3,858667	0,5	0,543500
3,867000	0,5	0,537050
3,875333	0,5	0,536350
3,883667	0,5	0,557750
3,892000	0,5	0,563600
3,900333	0,5	0,544500
3,908667	0,5	0,524850
3,917000	0,5	0,507550
3,925333	0,5	0,489550
3,933667	0,5	0,470100
3,942000	0,5	0,456000
3,950333	0,5	0,443150
3,958667	0,5	0,427700
3,967000	0,5	0,429900
3,975333	0,5	0,405750
3,983667	0,5	0,393400
3,992000	0,5	0,397950
4,000333	0,5	0,389100
4,008667	0,5	0,371050
4,017000	0,5	0,374000
4,025333	0,5	0,376450
4,033667	0,5	0,398550
4,042000	0,5	0,389550
4,050333	0,5	0,382500
4,058667	0,5	0,375550
4,067000	0,5	0,381050
4,075333	0,5	0,371650
4,083667	0,5	0,374600
4,092000	0,5	0,365550
4,100333	0,5	0,361250
4,108667	0,5	0,355950
4,117000	0,5	0,355850
4,125333	0,5	0,352950
4,133667	0,5	0,341400
4,142000	0,5	0,360100
4,150333	0,5	0,332200
4,158667	0,5	0,319150
4,167000	0,5	0,312550
4,175333	0,5	0,324000
4,183667	0,5	0,347350
4,192000	0,5	0,345850
4,200333	0,5	0,329250
4,208667	0,5	0,337800
4,217000	0,5	0,336500
4,225333	0,5	0,334450
4,233667	0,5	0,327350
4,242000	0,5	0,319800
4,250333	0,5	0,313550
4,258667	0,5	0,307250
4,267000	0,5	0,307450
4,275333	0,5	0,282050
4,283667	0,5	0,278500
4,292000	0,5	0,287900
4,300333	0,5	0,270050
4,308667	0,5	0,270750
4,317000	0,5	0,288750
4,325333	0,5	0,299700
4,333667	0,5	0,318500
4,342000	0,5	0,305900
4,350333	0,5	0,312750
4,358667	0,5	0,313500
4,367000	0,5	0,331050
4,375333	0,5	0,333400
4,383667	0,5	0,355600
4,392000	0,5	0,366400
4,400333	0,5	0,393100
4,408667	0,5	0,426050
4,417000	0,5	0,457400
4,425333	0,5	0,479000
4,433667	0,5	0,534150
4,442000	0,5	0,581850
4,450333	0,5	0,633750
4,458667	0,5	0,696450
4,467000	0,5	0,772350
4,475333	0,5	0,867850
4,483667	0,5	0,959300
4,492000	0,5	1,050650
4,500333	0,5	1,144100
4,508667	0,5	1,247400
4,517000	0,5	1,326000
4,525333	0,5	1,399550
4,533667	0,5	1,429500
4,542000	0,5	1,435050
4,550333	0,5	1,405300
4,558667	0,5	1,352650
4,567000	0,5	1,264850
4,575333	0,5	1,156400
4,583667	0,5	1,063200
4,592000	0,5	0,951450
4,600333	0,5	0,846950
4,608667	0,5	0,761250
4,617000	0,5	0,698350
4,625333	0,5	0,672350
4,633667	0,5	0,630550
4,642000	0,5	0,576250
4,650333	0,5	0,540350
4,658667	0,5	0,515050
4,667000	0,5	0,491950
4,675333	0,5	0,476450
4,683667	0,5	0,469350
4,692000	0,5	0,457550
4,700333	0,5	0,452900
4,708667	0,5	0,447750
4,717000	0,5	0,441750
4,725333	0,5	0,441250
4,733667	0,5	0,452800
4,742000	0,5	0,435450
4,750333	0,5	0,435500
4,758667	0,5	0,431800
4,767000	0,5	0,454050
4,775333	0,5	0,479450
4,783667	0,5	0,487450
4,792000	0,5	0,490450
4,800333	0,5	0,502800
4,808667	0,5	0,503800
4,817000	0,5	0,508000
4,825333	0,5	0,519300
4,833667	0,5	0,514550
4,842000	0,5	0,514750
4,850333	0,5	0,508400
4,858667	0,5	0,504100
4,867000	0,5	0,486450
4,875333	0,5	0,492700
4,883667	0,5	0,492900
4,892000	0,5	0,478050
4,900333	0,5	0,470300
4,908667	0,5	0,474750
4,917000	0,5	0,492400
4,925333	0,5	0,522000
4,933667	0,5	0,511300
4,942000	0,5	0,511800
4,950333	0,5	0,504450
4,958667	0,5	0,506150
4,967000	0,5	0,500500
4,975333	0,5	0,508450
4,983667	0,5	0,507900
4,992000	0,5	0,510900
5,000333	0,5	0,518800
5,008667	0,5	0,512450
5,017000	0,5	0,514850
5,025333	0,5	0,537350
5,033667	0,5	0,534400
5,042000	0,5	0,525200
5,050333	0,5	0,532750
5,058667	0,5	0,536100
5,067000	0,5	0,573550
5,075333	0,5	0,570550
5,083667	0,5	0,574250
5,092000	0,5	0,569450
5,100333	0,5	0,582450
5,108667	0,5	0,579500
5,117000	0,5	0,587100
5,125333	0,5	0,590550
5,133667	0,5	0,595300
5,142000	0,5	0,592100
5,150333	0,5	0,597050
5,158667	0,5	0,598600
5,167000	0,5	0,605400
5,175333	0,5	0,629500
5,183667	0,5	0,621650
5,192000	0,5	0,616500
5,200333	0,5	0,627650
5,208667	0,5	0,642600
5,217000	0,5	0,674200
5,225333	0,5	0,686900
5,233667	0,5	0,697100
5,242000	0,5	0,719350
5,250333	0,5	0,731200
5,258667	0,5	0,755350
5,267000	0,5	0,771400
5,275333	0,5	0,791050
5,283667	0,5	0,801100
5,292000	0,5	0,817350
5,300333	0,5	0,827450
5,308667	0,5	0,818800
5,317000	0,5	0,822250
5,325333	0,5	0,824050
5,333667	0,5	0,805250
5,342000	0,5	0,793350
5,350333	0,5	0,788050
5,358667	0,5	0,797900
5,367000	0,5	0,801750
5,375333	0,5	0,782350
5,383667	0,5	0,783250
5,392000	0,5	0,775450
5,400333	0,5	0,774800
5,408667	0,5	0,774550
5,417000	0,5	0,782550
5,425333	0,5	0,774550
5,433667	0,5	0,784450
5,442000	0,5	0,787900
5,450333	0,5	0,787400
5,458667	0,5	0,773400
5,467000	0,5	0,794000
5,475333	0,5	0,793750
5,483667	0,5	0,789500
5,492000	0,5	0,789950
5,500333	0,5	0,805300
5,508667	0,5	0,831400
5,517000	0,5	0,839950
5,525333	0,5	0,834200
5,533667	0,5	0,844000
5,542000	0,5	0,857550
5,550333	0,5	0,855650
5,558667	0,5	0,864800
5,567000	0,5	0,866450
5,575333	0,5	0,874000
5,583667	0,5	0,872200
5,592000	0,5	0,885600
5,600333	0,5	0,873750
5,608667	0,5	0,870600
5,617000	0,5	0,887250
5,625333	0,5	0,888600
5,633667	0,5	0,892950
5,642000	0,5	0,901650
5,650333	0,5	0,915400
5,658667	0,5	0,945150
5,667000	0,5	0,948850
5,675333	0,5	0,949250
5,683667	0,5	0,944950
5,692000	0,5	0,952100
5,700333	0,5	0,955200
5,708667	0,5	0,963850
5,717000	0,5	0,968450
5,725333	0,5	0,970350
5,733667	0,5	0,983300
5,742000	0,5	0,992550
5,750333	0,5	0,992750
5,758667	0,5	0,996950
5,767000	0,5	1,011750
5,775333	0,5	0,999950
5,783667	0,5	1,007150
5,792000	0,5	1,012600
5,800333	0,5	1,041000
5,808667	0,5	1,058800
5,817000	0,5	1,066050
5,825333	0,5	1,064350
5,833667	0,5	1,081850
5,842000	0,5	1,084750
5,850333	0,5	1,086300
5,858667	0,5	1,095750
5,867000	0,5	1,099500
5,875333	0,5	1,104800
5,883667	0,5	1,109800
5,892000	0,5	1,119350
5,900333	0,5	1,119400
5,908667	0,5	1,136350
5,917000	0,5	1,142450
5,925333	0,5	1,140000
5,933667	0,5	1,147900
5,942000	0,5	1,165500
5,950333	0,5	1,190050
5,958667	0,5	1,214400
5,967000	0,5	1,211850
5,975333	0,5	1,222050
5,983667	0,5	1,222450
5,992000	0,5	1,228700
6,000333	0,5	1,229000
6,008667	0,5	1,237950
6,017000	0,5	1,237500
6,025333	0,5	1,251900
6,033667	0,5	1,258200
6,042000	0,5	1,254000
6,050333	0,5	1,251050
6,058667	0,5	1,267800
6,067000	0,5	1,270950
6,075333	0,5	1,264600
6,083667	0,5	1,280700
6,092000	0,5	1,288300
6,100333	0,5	1,317550
6,108667	0,5	1,316700
6,117000	0,5	1,326200
6,125333	0,5	1,325650
6,133667	0,5	1,334300
6,142000	0,5	1,338550
6,150333	0,5	1,346150
6,158667	0,5	1,346550
6,167000	0,5	1,350200
6,175333	0,5	1,347300
6,183667	0,5	1,354900
6,192000	0,5	1,348000
6,200333	0,5	1,363750
6,208667	0,5	1,374700
6,217000	0,5	1,375400
6,225333	0,5	1,372750
6,233667	0,5	1,382850
6,242000	0,5	1,407500
6,250333	0,5	1,426450
6,258667	0,5	1,431150
6,267000	0,5	1,426900
6,275333	0,5	1,436500
6,283667	0,5	1,438550
6,292000	0,5	1,446000
6,300333	0,5	1,448000
6,308667	0,5	1,453550
6,317000	0,5	1,457150
6,325333	0,5	1,469700
6,333667	0,5	1,477750
6,342000	0,5	1,484800
6,350333	0,5	1,501150
6,358667	0,5	1,509350
6,367000	0,5	1,507900
6,375333	0,5	1,509900
6,383667	0,5	1,515400
6,392000	0,5	1,548950
6,400333	0,5	1,560150
6,408667	0,5	1,564400
6,417000	0,5	1,566900
6,425333	0,5	1,580600
6,433667	0,5	1,585350
6,442000	0,5	1,596700
6,450333	0,5	1,615400
6,458667	0,5	1,625150
6,467000	0,5	1,636850
6,475333	0,5	1,648200
6,483667	0,5	1,675800
6,492000	0,5	1,678600
6,500333	0,5	1,719750
6,508667	0,5	1,745450
6,517000	0,5	1,777050
6,525333	0,5	1,807950
6,533667	0,5	1,853900
6,542000	0,5	1,903900
6,550333	0,5	1,936700
6,558667	0,5	1,947300
6,567000	0,5	1,965900
6,575333	0,5	1,966550
6,583667	0,5	1,962400
6,592000	0,5	1,948400
6,600333	0,5	1,938000
6,608667	0,5	1,919700
6,617000	0,5	1,905800
6,625333	0,5	1,898250
6,633667	0,5	1,876050
6,642000	0,5	1,866150
6,650333	0,5	1,881250
6,658667	0,5	1,868650
6,667000	0,5	1,865650
6,675333	0,5	1,869450
6,683667	0,5	1,878550
6,692000	0,5	1,906600
6,700333	0,5	1,911900
6,708667	0,5	1,917350
6,717000	0,5	1,920050
6,725333	0,5	1,924350
6,733667	0,5	1,928500
6,742000	0,5	1,936100
6,750333	0,5	1,945300
6,758667	0,5	1,946350
6,767000	0,5	1,957250
6,775333	0,5	1,959400
6,783667	0,5	1,958600
6,792000	0,5	1,965950
6,800333	0,5	1,973800
6,808667	0,5	1,972150
6,817000	0,5	1,978950
6,825333	0,5	1,988900
6,833667	0,5	2,004300
6,842000	0,5	2,020850
6,850333	0,5	2,035500
6,858667	0,5	2,031700
6,867000	0,5	2,040000
6,875333	0,5	2,039400
6,883667	0,5	2,043700
6,892000	0,5	2,043300
6,900333	0,5	2,046700
6,908667	0,5	2,047050
6,917000	0,5	2,046350
6,925333	0,5	2,044650
6,933667	0,5	2,044100
6,942000	0,5	2,047150
6,950333	0,5	2,055050
6,958667	0,5	2,045100
6,967000	0,5	2,047000
6,975333	0,5	2,044750
6,983667	0,5	2,061250
6,992000	0,5	2,074650
7,000333	0,5	2,067800
7,008667	0,5	2,067950
7,017000	0,5	2,058950
7,025333	0,5	2,058100
7,033667	0,5	2,051750
7,042000	0,5	2,047800
7,050333	0,5	2,042150
7,058667	0,5	2,044000
7,067000	0,5	2,039700
7,075333	0,5	2,030950
7,083667	0,5	2,023650
7,092000	0,5	2,032650
7,100333	0,5	2,024650
7,108667	0,5	2,019750
7,117000	0,5	2,021950
7,125333	0,5	2,031750
7,133667	0,5	2,051150
7,142000	0,5	2,051600
7,150333	0,5	2,055950
7,158667	0,5	2,063950
7,167000	0,5	2,071700
7,175333	0,5	2,078700
7,183667	0,5	2,086850
7,192000	0,5	2,095750
7,200333	0,5	2,112250
7,208667	0,5	2,126600
7,217000	0,5	2,152900
7,225333	0,5	2,176250
7,233667	0,5	2,248500
7,242000	0,5	2,346450
7,250333	0,5	2,486050
7,258667	0,5	2,673100
7,267000	0,5	2,901750
7,275333	0,5	3,125100
7,283667	0,5	3,298200
7,292000	0,5	3,361800
7,300333	0,5	3,321550
7,308667	0,5	3,193550
7,317000	0,5	3,015750
7,325333	0,5	2,829100
7,333667	0,5	2,661750
7,342000	0,5	2,525000
7,350333	0,5	2,417300
7,358667	0,5	2,349800
7,367000	0,5	2,292000
7,375333	0,5	2,250650
7,383667	0,5	2,229150
7,392000	0,5	2,211350
7,400333	0,5	2,192000
7,408667	0,5	2,180200
7,417000	0,5	2,180250
7,425333	0,5	2,195150
7,433667	0,5	2,199500
7,442000	0,5	2,196400
7,450333	0,5	2,188500
7,458667	0,5	2,187950
7,467000	0,5	2,172000
7,475333	0,5	2,160700
7,483667	0,5	2,149750
7,492000	0,5	2,138500
7,500333	0,5	2,130350
7,508667	0,5	2,131450
7,517000	0,5	2,137150
7,525333	0,5	2,138100
7,533667	0,5	2,155250
7,542000	0,5	2,165300
7,550333	0,5	2,178450
7,558667	0,5	2,201200
7,567000	0,5	2,242150
7,575333	0,5	2,310600
7,583667	0,5	2,384900
7,592000	0,5	2,497400
7,600333	0,5	2,621500
7,608667	0,5	2,744250
7,617000	0,5	2,853300
7,625333	0,5	2,944050
7,633667	0,5	3,044600
7,642000	0,5	3,141050
7,650333	0,5	3,227900
7,658667	0,5	3,295100
7,667000	0,5	3,320450
7,675333	0,5	3,291700
7,683667	0,5	3,243950
7,692000	0,5	3,163050
7,700333	0,5	3,060250
7,708667	0,5	2,967200
7,717000	0,5	2,880800
7,725333	0,5	2,823700
7,733667	0,5	2,762300
7,742000	0,5	2,709200
7,750333	0,5	2,657100
7,758667	0,5	2,605250
7,767000	0,5	2,550150
7,775333	0,5	2,503200
7,783667	0,5	2,454250
7,792000	0,5	2,417000
7,800333	0,5	2,385850
7,808667	0,5	2,355100
7,817000	0,5	2,322800
7,825333	0,5	2,293700
7,833667	0,5	2,281700
7,842000	0,5	2,261550
7,850333	0,5	2,249250
7,858667	0,5	2,248300
7,867000	0,5	2,255200
7,875333	0,5	2,258050
7,883667	0,5	2,250400
7,892000	0,5	2,235700
7,900333	0,5	2,220850
7,908667	0,5	2,204100
7,917000	0,5	2,186300
7,925333	0,5	2,182800
7,933667	0,5	2,189850
7,942000	0,5	2,195900
7,950333	0,5	2,206450
7,958667	0,5	2,213750
7,967000	0,5	2,202700
7,975333	0,5	2,189700
7,983667	0,5	2,177250
7,992000	0,5	2,160500
8,000333	0,5	2,159100
8,008667	0,5	2,159400
8,017000	0,5	2,166350
8,025333	0,5	2,169400
8,033667	0,5	2,167150
8,042000	0,5	2,165300
8,050333	0,5	2,178850
8,058667	0,5	2,218600
8,067000	0,5	2,277450
8,075333	0,5	2,349150
8,083667	0,5	2,396150
8,092000	0,5	2,404550
8,100333	0,5	2,374650
8,108667	0,5	2,319800
8,117000	0,5	2,274200
8,125333	0,5	2,250250
8,133667	0,5	2,253450
8,142000	0,5	2,268750
8,150333	0,5	2,298000
8,158667	0,5	2,318350
8,167000	0,5	2,325450
8,175333	0,5	2,306750
8,183667	0,5	2,283900
8,192000	0,5	2,260600
8,200333	0,5	2,243900
8,208667	0,5	2,238400
8,217000	0,5	2,241200
8,225333	0,5	2,253750
8,233667	0,5	2,273050
8,242000	0,5	2,318700
8,250333	0,5	2,410450
8,258667	0,5	2,573650
8,267000	0,5	2,816950
8,275333	0,5	3,081350
8,283667	0,5	3,273100
8,292000	0,5	3,323200
8,300333	0,5	3,211850
8,308667	0,5	3,023250
8,317000	0,5	2,821650
8,325333	0,5	2,665550
8,333667	0,5	2,555750
8,342000	0,5	2,484050
8,350333	0,5	2,440000
8,358667	0,5	2,410100
8,367000	0,5	2,390650
8,375333	0,5	2,384550
8,383667	0,5	2,390750
8,392000	0,5	2,398350
8,400333	0,5	2,423250
8,408667	0,5	2,452900
8,417000	0,5	2,490500
8,425333	0,5	2,502550
8,433667	0,5	2,467350
8,442000	0,5	2,376050
8,450333	0,5	2,261600
8,458667	0,5	2,154650
8,467000	0,5	2,076150
8,475333	0,5	2,014050
8,483667	0,5	1,981300
8,492000	0,5	1,960950
8,500333	0,5	1,955750
8,508667	0,5	1,979350
8,517000	0,5	2,021550
8,525333	0,5	2,079100
8,533667	0,5	2,141600
8,542000	0,5	2,172700
8,550333	0,5	2,167000
8,558667	0,5	2,124150
8,567000	0,5	2,075650
8,575333	0,5	2,029300
8,583667	0,5	1,988800
8,592000	0,5	1,962700
8,600333	0,5	1,943050
8,608667	0,5	1,933750
8,617000	0,5	1,931650
8,625333	0,5	1,918300
8,633667	0,5	1,912000
8,642000	0,5	1,900650
8,650333	0,5	1,894000
8,658667	0,5	1,883400
8,667000	0,5	1,874300
8,675333	0,5	1,862100
8,683667	0,5	1,855550
8,692000	0,5	1,845900
8,700333	0,5	1,841100
8,708667	0,5	1,838800
8,717000	0,5	1,837600
8,725333	0,5	1,837800
8,733667	0,5	1,838750
8,742000	0,5	1,835800
8,750333	0,5	1,848000
8,758667	0,5	1,863000
8,767000	0,5	1,864800
8,775333	0,5	1,869200
8,783667	0,5	1,872800
8,792000	0,5	1,883550
8,800333	0,5	1,885150
8,808667	0,5	1,891900
8,817000	0,5	1,899100
8,825333	0,5	1,906400
8,833667	0,5	1,909100
8,842000	0,5	1,911800
8,850333	0,5	1,915550
8,858667	0,5	1,919000
8,867000	0,5	1,928750
8,875333	0,5	1,936550
8,883667	0,5	1,947450
8,892000	0,5	1,968850
8,900333	0,5	2,000250
8,908667	0,5	2,048600
8,917000	0,5	2,109300
8,925333	0,5	2,179850
8,933667	0,5	2,241700
8,942000	0,5	2,266800
8,950333	0,5	2,253250
8,958667	0,5	2,208300
8,967000	0,5	2,155450
8,975333	0,5	2,107400
8,983667	0,5	2,069850
8,992000	0,5	2,051050
9,000333	0,5	2,035950
9,008667	0,5	2,028550
9,017000	0,5	2,026850
9,025333	0,5	2,019550
9,033667	0,5	2,012300
9,042000	0,5	2,010300
9,050333	0,5	2,016400
9,058667	0,5	2,026350
9,067000	0,5	2,037300
9,075333	0,5	2,044200
9,083667	0,5	2,052550
9,092000	0,5	2,049750
9,100333	0,5	2,044400
9,108667	0,5	2,025450
9,117000	0,5	2,006500
9,125333	0,5	1,994100
9,133667	0,5	2,006550
9,142000	0,5	2,034350
9,150333	0,5	2,079400
9,158667	0,5	2,150150
9,167000	0,5	2,232100
9,175333	0,5	2,312300
9,183667	0,5	2,374350
9,192000	0,5	2,396100
9,200333	0,5	2,369000
9,208667	0,5	2,302650
9,217000	0,5	2,215250
9,225333	0,5	2,135950
9,233667	0,5	2,075700
9,242000	0,5	2,031650
9,250333	0,5	2,012300
9,258667	0,5	2,008600
9,267000	0,5	2,020800
9,275333	0,5	2,044600
9,283667	0,5	2,079850
9,292000	0,5	2,105400
9,300333	0,5	2,110950
9,308667	0,5	2,095500
9,317000	0,5	2,060700
9,325333	0,5	2,018000
9,333667	0,5	1,978850
9,342000	0,5	1,952550
9,350333	0,5	1,935350
9,358667	0,5	1,926800
9,367000	0,5	1,921850
9,375333	0,5	1,912700
9,383667	0,5	1,911150
9,392000	0,5	1,913900
9,400333	0,5	1,920300
9,408667	0,5	1,929200
9,417000	0,5	1,935200
9,425333	0,5	1,945000
9,433667	0,5	1,954600
9,442000	0,5	1,952700
9,450333	0,5	1,943600
9,458667	0,5	1,934450
9,467000	0,5	1,918950
9,475333	0,5	1,893300
9,483667	0,5	1,864200
9,492000	0,5	1,842450
9,500333	0,5	1,823700
9,508667	0,5	1,803000
9,517000	0,5	1,794050
9,525333	0,5	1,777650
9,533667	0,5	1,772800
9,542000	0,5	1,768100
9,550333	0,5	1,770050
9,558667	0,5	1,774300
9,567000	0,5	1,788650
9,575333	0,5	1,815350
9,583667	0,5	1,846900
9,592000	0,5	1,863750
9,600333	0,5	1,870150
9,608667	0,5	1,854400
9,617000	0,5	1,820800
9,625333	0,5	1,785900
9,633667	0,5	1,743600
9,642000	0,5	1,716400
9,650333	0,5	1,692750
9,658667	0,5	1,663300
9,667000	0,5	1,641200
9,675333	0,5	1,621450
9,683667	0,5	1,595900
9,692000	0,5	1,575700
9,700333	0,5	1,556350
9,708667	0,5	1,543150
9,717000	0,5	1,523350
9,725333	0,5	1,511100
9,733667	0,5	1,502000
9,742000	0,5	1,489400
9,750333	0,5	1,484400
9,758667	0,5	1,478500
9,767000	0,5	1,471250
9,775333	0,5	1,466400
9,783667	0,5	1,468000
9,792000	0,5	1,475500
9,800333	0,5	1,483050
9,808667	0,5	1,489800
9,817000	0,5	1,499050
9,825333	0,5	1,511000
9,833667	0,5	1,527100
9,842000	0,5	1,539100
9,850333	0,5	1,567550
9,858667	0,5	1,606150
9,867000	0,5	1,645150
9,875333	0,5	1,703800
9,883667	0,5	1,767250
9,892000	0,5	1,842600
9,900333	0,5	1,938300
9,908667	0,5	2,056700
9,917000	0,5	2,193150
9,925333	0,5	2,335250
9,933667	0,5	2,473750
9,942000	0,5	2,601750
9,950333	0,5	2,695300
9,958667	0,5	2,756800
9,967000	0,5	2,754750
9,975333	0,5	2,706100
9,983667	0,5	2,604750
9,992000	0,5	2,465150
10,000333	0,5	2,307200
10,008667	0,5	2,140700
10,017000	0,5	1,991750
10,025333	0,5	1,869600
10,033667	0,5	1,780500
10,042000	0,5	1,718050
10,050333	0,5	1,674300
10,058667	0,5	1,649800
10,067000	0,5	1,644700
10,075333	0,5	1,654200
10,083667	0,5	1,678300
10,092000	0,5	1,709650
10,100333	0,5	1,745550
10,108667	0,5	1,782250
10,117000	0,5	1,810300
10,125333	0,5	1,838150
10,133667	0,5	1,859250
10,142000	0,5	1,875750
10,150333	0,5	1,891650
10,158667	0,5	1,900750
10,167000	0,5	1,908100
10,175333	0,5	1,907250
10,183667	0,5	1,901550
10,192000	0,5	1,894700
10,200333	0,5	1,886000
10,208667	0,5	1,874350
10,217000	0,5	1,860350
10,225333	0,5	1,834150
10,233667	0,5	1,809100
10,242000	0,5	1,783050
10,250333	0,5	1,745350
10,258667	0,5	1,701950
10,267000	0,5	1,668200
10,275333	0,5	1,633850
10,283667	0,5	1,602000
10,292000	0,5	1,578300
10,300333	0,5	1,559700
10,308667	0,5	1,545500
10,317000	0,5	1,533100
10,325333	0,5	1,521600
10,333667	0,5	1,513950
10,342000	0,5	1,510750
10,350333	0,5	1,506150
10,358667	0,5	1,500050
10,367000	0,5	1,497400
10,375333	0,5	1,498450
10,383667	0,5	1,512300
10,392000	0,5	1,530500
10,400333	0,5	1,551600
10,408667	0,5	1,585750
10,417000	0,5	1,618750
10,425333	0,5	1,654250
10,433667	0,5	1,693050
10,442000	0,5	1,736350
10,450333	0,5	1,778450
10,458667	0,5	1,826400
10,467000	0,5	1,876700
10,475333	0,5	1,918200
10,483667	0,5	1,951650
10,492000	0,5	1,960350
10,500333	0,5	1,949750
10,508667	0,5	1,915300
10,517000	0,5	1,866650
10,525333	0,5	1,808300
10,533667	0,5	1,749400
10,542000	0,5	1,692200
10,550333	0,5	1,646950
10,558667	0,5	1,606500
10,567000	0,5	1,574600
10,575333	0,5	1,552700
10,583667	0,5	1,534600
10,592000	0,5	1,517850
10,600333	0,5	1,502800
10,608667	0,5	1,493250
10,617000	0,5	1,478000
10,625333	0,5	1,457550
10,633667	0,5	1,454400
10,642000	0,5	1,442800
10,650333	0,5	1,435150
10,658667	0,5	1,430950
10,667000	0,5	1,425350
10,675333	0,5	1,428800
10,683667	0,5	1,431450
10,692000	0,5	1,430900
10,700333	0,5	1,436750
10,708667	0,5	1,444650
10,717000	0,5	1,453450
10,725333	0,5	1,472350
10,733667	0,5	1,501150
10,742000	0,5	1,530950
10,750333	0,5	1,572250
10,758667	0,5	1,607500
10,767000	0,5	1,638000
10,775333	0,5	1,647200
10,783667	0,5	1,640600
10,792000	0,5	1,611750
10,800333	0,5	1,564500
10,808667	0,5	1,493350
10,817000	0,5	1,430500
10,825333	0,5	1,378300
10,833667	0,5	1,347000
10,842000	0,5	1,325150
10,850333	0,5	1,320950
10,858667	0,5	1,335750
10,867000	0,5	1,356150
10,875333	0,5	1,382050
10,883667	0,5	1,404200
10,892000	0,5	1,427850
10,900333	0,5	1,443100
10,908667	0,5	1,456950
10,917000	0,5	1,466600
10,925333	0,5	1,459400
10,933667	0,5	1,466100
10,942000	0,5	1,454300
10,950333	0,5	1,448300
10,958667	0,5	1,434300
10,967000	0,5	1,423450
10,975333	0,5	1,423750
10,983667	0,5	1,426150
10,992000	0,5	1,425100
11,000333	0,5	1,426800
11,008667	0,5	1,428500
11,017000	0,5	1,429650
11,025333	0,5	1,441550
11,033667	0,5	1,441300
11,042000	0,5	1,455050
11,050333	0,5	1,474850
11,058667	0,5	1,502500
11,067000	0,5	1,527150
11,075333	0,5	1,557500
11,083667	0,5	1,580400
11,092000	0,5	1,594500
11,100333	0,5	1,586550
11,108667	0,5	1,566900
11,117000	0,5	1,546100
11,125333	0,5	1,520200
11,133667	0,5	1,502150
11,142000	0,5	1,480050
11,150333	0,5	1,469800
11,158667	0,5	1,463000
11,167000	0,5	1,458850
11,175333	0,5	1,457100
11,183667	0,5	1,452450
11,192000	0,5	1,439100
11,200333	0,5	1,432450
11,208667	0,5	1,416450
11,217000	0,5	1,401150
11,225333	0,5	1,396650
11,233667	0,5	1,395150
11,242000	0,5	1,393250
11,250333	0,5	1,396550
11,258667	0,5	1,395500
11,267000	0,5	1,404400
11,275333	0,5	1,413450
11,283667	0,5	1,428000
11,292000	0,5	1,445900
11,300333	0,5	1,477150
11,308667	0,5	1,521450
11,317000	0,5	1,591800
11,325333	0,5	1,673950
11,333667	0,5	1,762400
11,342000	0,5	1,844250
11,350333	0,5	1,895300
11,358667	0,5	1,916400
11,367000	0,5	1,897250
11,375333	0,5	1,855500
11,383667	0,5	1,794550
11,392000	0,5	1,724600
11,400333	0,5	1,657450
11,408667	0,5	1,606650
11,417000	0,5	1,575900
11,425333	0,5	1,555900
11,433667	0,5	1,532700
11,442000	0,5	1,513150
11,450333	0,5	1,493050
11,458667	0,5	1,476600
11,467000	0,5	1,460250
11,475333	0,5	1,448250
11,483667	0,5	1,443500
11,492000	0,5	1,444100
11,500333	0,5	1,461400
11,508667	0,5	1,472300
11,517000	0,5	1,517700
11,525333	0,5	1,577300
11,533667	0,5	1,665100
11,542000	0,5	1,774950
11,550333	0,5	1,915750
11,558667	0,5	2,085900
11,567000	0,5	2,279400
11,575333	0,5	2,464850
11,583667	0,5	2,635000
11,592000	0,5	2,769250
11,600333	0,5	2,864700
11,608667	0,5	2,906750
11,617000	0,5	2,893800
11,625333	0,5	2,836850
11,633667	0,5	2,732450
11,642000	0,5	2,602050
11,650333	0,5	2,463700
11,658667	0,5	2,319950
11,667000	0,5	2,219100
11,675333	0,5	2,144500
11,683667	0,5	2,105500
11,692000	0,5	2,096950
11,700333	0,5	2,116450
11,708667	0,5	2,169000
11,717000	0,5	2,216700
11,725333	0,5	2,268100
11,733667	0,5	2,286500
11,742000	0,5	2,288650
11,750333	0,5	2,259500
11,758667	0,5	2,211750
11,767000	0,5	2,137750
11,775333	0,5	2,046500
11,783667	0,5	1,938100
11,792000	0,5	1,827200
11,800333	0,5	1,720450
11,808667	0,5	1,618500
11,817000	0,5	1,538950
11,825333	0,5	1,470100
11,833667	0,5	1,416900
11,842000	0,5	1,377150
11,850333	0,5	1,338850
11,858667	0,5	1,327900
11,867000	0,5	1,322350
11,875333	0,5	1,320400
11,883667	0,5	1,322950
11,892000	0,5	1,324450
11,900333	0,5	1,329650
11,908667	0,5	1,336650
11,917000	0,5	1,349350
11,925333	0,5	1,356200
11,933667	0,5	1,368650
11,942000	0,5	1,382350
11,950333	0,5	1,383800
11,958667	0,5	1,383400
11,967000	0,5	1,377050
11,975333	0,5	1,362400
11,983667	0,5	1,342450
11,992000	0,5	1,318250
12,000333	0,5	1,305800
12,008667	0,5	1,303600
12,017000	0,5	1,291900
12,025333	0,5	1,288500
12,033667	0,5	1,286500
12,042000	0,5	1,289650
12,050333	0,5	1,297200
12,058667	0,5	1,311800
12,067000	0,5	1,327000
12,075333	0,5	1,346600
12,083667	0,5	1,374900
12,092000	0,5	1,408500
12,100333	0,5	1,425950
12,108667	0,5	1,457350
12,117000	0,5	1,468850
12,125333	0,5	1,476200
12,133667	0,5	1,474850
12,142000	0,5	1,466150
12,150333	0,5	1,459600
12,158667	0,5	1,457850
12,167000	0,5	1,452900
12,175333	0,5	1,452850
12,183667	0,5	1,449700
12,192000	0,5	1,451100
12,200333	0,5	1,461950
12,208667	0,5	1,475300
12,217000	0,5	1,486500
12,225333	0,5	1,502600
12,233667	0,5	1,529750
12,242000	0,5	1,554700
12,250333	0,5	1,593950
12,258667	0,5	1,659000
12,267000	0,5	1,730950
12,275333	0,5	1,807450
12,283667	0,5	1,889350
12,292000	0,5	1,969200
12,300333	0,5	2,040850
12,308667	0,5	2,087900
12,317000	0,5	2,130350
12,325333	0,5	2,152900
12,333667	0,5	2,182300
12,342000	0,5	2,206300
12,350333	0,5	2,238300
12,358667	0,5	2,271050
12,367000	0,5	2,297750
12,375333	0,5	2,327400
12,383667	0,5	2,345550
12,392000	0,5	2,349250
12,400333	0,5	2,350000
12,408667	0,5	2,344300
12,417000	0,5	2,314950
12,425333	0,5	2,267950
12,433667	0,5	2,197050
12,442000	0,5	2,133700
12,450333	0,5	2,063750
12,458667	0,5	2,014150
12,467000	0,5	1,959100
12,475333	0,5	1,941200
12,483667	0,5	1,939300
12,492000	0,5	1,947200
12,500333	0,5	1,966150
12,508667	0,5	1,987550
12,517000	0,5	1,993850
12,525333	0,5	1,994050
12,533667	0,5	1,990200
12,542000	0,5	1,955950
12,550333	0,5	1,928700
12,558667	0,5	1,888700
12,567000	0,5	1,833950
12,575333	0,5	1,773300
12,583667	0,5	1,711350
12,592000	0,5	1,657000
12,600333	0,5	1,602850
12,608667	0,5	1,550650
12,617000	0,5	1,504250
12,625333	0,5	1,457150
12,633667	0,5	1,418900
12,642000	0,5	1,386950
12,650333	0,5	1,369750
12,658667	0,5	1,350400
12,667000	0,5	1,329400
12,675333	0,5	1,323150
12,683667	0,5	1,312800
12,692000	0,5	1,292150
12,700333	0,5	1,294400
12,708667	0,5	1,286000
12,717000	0,5	1,273700
12,725333	0,5	1,260100
12,733667	0,5	1,247300
12,742000	0,5	1,247650
12,750333	0,5	1,242350
12,758667	0,5	1,240700
12,767000	0,5	1,240500
12,775333	0,5	1,234150
12,783667	0,5	1,232700
12,792000	0,5	1,228350
12,800333	0,5	1,219650
12,808667	0,5	1,214300
12,817000	0,5	1,212150
12,825333	0,5	1,215200
12,833667	0,5	1,228750
12,842000	0,5	1,259900
12,850333	0,5	1,310150
12,858667	0,5	1,371750
12,867000	0,5	1,417200
12,875333	0,5	1,444150
12,883667	0,5	1,445000
12,892000	0,5	1,388500
12,900333	0,5	1,316400
12,908667	0,5	1,218350
12,917000	0,5	1,133150
12,925333	0,5	1,042500
12,933667	0,5	0,962450
12,942000	0,5	0,899800
12,950333	0,5	0,865000
12,958667	0,5	0,761150
12,967000	0,5	0,640550
12,975333	0,5	0,433000
12,983667	0,5	0,077800
12,992000	0,5	-0,350750
13,000333	0,5	-0,694100
13,008667	0,5	-0,965850
13,017000	0,5	-1,229700
13,025333	0,5	-1,496400
13,033667	0,5	-1,684250
13,042000	0,5	-1,804700
13,050333	0,5	-1,903750
13,058667	0,5	-1,985700
13,067000	0,5	-2,055150
13,075333	0,5	-2,113250
13,083667	0,5	-2,170500
13,092000	0,5	-2,217250
13,100333	0,5	-2,263000
13,108667	0,5	-2,301200
13,117000	0,5	-2,336650
13,125333	0,5	-2,363300
13,133667	0,5	-2,393800
13,142000	0,5	-2,399500
13,150333	0,5	-2,415100
13,158667	0,5	-2,424650
13,167000	0,5	-2,444200
13,175333	0,5	-2,453600
13,183667	0,5	-2,449150
13,192000	0,5	-2,441450
13,200333	0,5	-2,437700
13,208667	0,5	-2,424650
13,217000	0,5	-2,408000
13,225333	0,5	-2,400600
13,233667	0,5	-2,386100
13,242000	0,5	-2,370250
13,250333	0,5	-2,361750
13,258667	0,5	-2,357550
13,267000	0,5	-2,359750
13,275333	0,5	-2,372200
13,283667	0,5	-2,384850
13,292000	0,5	-2,395000
13,300333	0,5	-2,408200
13,308667	0,5	-2,424800
13,317000	0,5	-2,442550
13,325333	0,5	-2,465000
13,333667	0,5	-2,461200
13,342000	0,5	-2,463150
13,350333	0,5	-2,458050
13,358667	0,5	-2,454000
13,367000	0,5	-2,448200
13,375333	0,5	-2,440400
13,383667	0,5	-2,428350
13,392000	0,5	-2,409750
13,400333	0,5	-2,392300
13,408667	0,5	-2,361450
13,417000	0,5	-2,325750
13,425333	0,5	-2,283650
13,433667	0,5	-2,235400
13,442000	0,5	-2,178600
13,450333	0,5	-2,131450
13,458667	0,5	-2,089000
13,467000	0,5	-2,071400
13,475333	0,5	-2,052000
13,483667	0,5	-2,044550
13,492000	0,5	-2,049050
13,500333	0,5	-2,071850
13,508667	0,5	-2,087800
13,517000	0,5	-2,116200
13,525333	0,5	-2,135200
13,533667	0,5	-2,164400
13,542000	0,5	-2,184600
13,550333	0,5	-2,192400
13,558667	0,5	-2,207900
13,567000	0,5	-2,210450
13,575333	0,5	-2,217850
13,583667	0,5	-2,205700
13,592000	0,5	-2,197250
13,600333	0,5	-2,192550
13,608667	0,5	-2,192950
13,617000	0,5	-2,193600
13,625333	0,5	-2,185100
13,633667	0,5	-2,174100
13,642000	0,5	-2,172900
13,650333	0,5	-2,157200
13,658667	0,5	-2,150850
13,667000	0,5	-2,135750
13,675333	0,5	-2,124550
13,683667	0,5	-2,106750
13,692000	0,5	-2,085250
13,700333	0,5	-2,062200
13,708667	0,5	-2,027900
13,717000	0,5	-2,000050
13,725333	0,5	-1,962850
13,733667	0,5	-1,925900
13,742000	0,5	-1,894250
13,750333	0,5	-1,875150
13,758667	0,5	-1,868750
13,767000	0,5	-1,854500
13,775333	0,5	-1,835950
13,783667	0,5	-1,826700
13,792000	0,5	-1,816700
13,800333	0,5	-1,804650
13,808667	0,5	-1,789200
13,817000	0,5	-1,770050
13,825333	0,5	-1,737250
13,833667	0,5	-1,705100
13,842000	0,5	-1,672650
13,850333	0,5	-1,630750
13,858667	0,5	-1,592850
13,867000	0,5	-1,572600
13,875333	0,5	-1,537650
13,883667	0,5	-1,517650
13,892000	0,5	-1,497800
13,900333	0,5	-1,476900
13,908667	0,5	-1,478250
13,917000	0,5	-1,456750
13,925333	0,5	-1,443300
13,933667	0,5	-1,423150
13,942000	0,5	-1,410000
13,950333	0,5	-1,391400
13,958667	0,5	-1,375200
13,967000	0,5	-1,353450
13,975333	0,5	-1,336150
13,983667	0,5	-1,316500
13,992000	0,5	-1,300800
14,000333	0,5	-1,270550
14,008667	0,5	-1,243450
14,017000	0,5	-1,233300
14,025333	0,5	-1,196000
14,033667	0,5	-1,165450
14,042000	0,5	-1,137500
14,050333	0,5	-1,102050
14,058667	0,5	-1,059150
14,067000	0,5	-0,987450
14,075333	0,5	-0,904450
14,083667	0,5	-0,815450
14,092000	0,5	-0,728650
14,100333	0,5	-0,652750
14,108667	0,5	-0,582200
14,117000	0,5	-0,524050
14,125333	0,5	-0,466000
14,133667	0,5	-0,421750
14,142000	0,5	-0,384150
14,150333	0,5	-0,354750
14,158667	0,5	-0,335500
14,167000	0,5	-0,331200
14,175333	0,5	-0,322750
14,183667	0,5	-0,318950
14,192000	0,5	-0,307250
14,200333	0,5	-0,283000
14,208667	0,5	-0,238650
14,217000	0,5	-0,164700
14,225333	0,5	-0,076050
14,233667	0,5	0,007300
14,242000	0,5	0,077500
14,250333	0,5	0,139450
14,258667	0,5	0,175550
14,267000	0,5	0,192150
14,275333	0,5	0,195300
14,283667	0,5	0,185000
14,292000	0,5	0,163500
14,300333	0,5	0,155500
14,308667	0,5	0,137750
14,317000	0,5	0,139300
14,325333	0,5	0,146200
14,333667	0,5	0,146600
14,342000	0,5	0,137850
14,350333	0,5	0,139100
14,358667	0,5	0,136350
14,367000	0,5	0,157050
14,375333	0,5	0,152500
14,383667	0,5	0,166300
14,392000	0,5	0,175200
14,400333	0,5	0,187450
14,408667	0,5	0,196650
14,417000	0,5	0,204350
14,425333	0,5	0,209600
14,433667	0,5	0,214150
14,442000	0,5	0,227500
14,450333	0,5	0,232400
14,458667	0,5	0,235250
14,467000	0,5	0,254750
14,475333	0,5	0,279800
14,483667	0,5	0,289800
14,492000	0,5	0,302700
14,500333	0,5	0,304650
14,508667	0,5	0,312600
14,517000	0,5	0,305900
14,525333	0,5	0,303600
14,533667	0,5	0,289850
14,542000	0,5	0,274250
14,550333	0,5	0,257350
14,558667	0,5	0,242900
14,567000	0,5	0,233050
14,575333	0,5	0,217450
14,583667	0,5	0,210850
14,592000	0,5	0,209750
14,600333	0,5	0,196400
14,608667	0,5	0,193450
14,617000	0,5	0,199350
14,625333	0,5	0,201750
14,633667	0,5	0,202900
14,642000	0,5	0,179550
14,650333	0,5	0,191050
14,658667	0,5	0,192000
14,667000	0,5	0,206100
14,675333	0,5	0,224800
14,683667	0,5	0,262050
14,692000	0,5	0,312200
14,700333	0,5	0,396150
14,708667	0,5	0,502550
14,717000	0,5	0,615950
14,725333	0,5	0,704100
14,733667	0,5	0,764800
14,742000	0,5	0,780450
14,750333	0,5	0,733450
14,758667	0,5	0,682700
14,767000	0,5	0,621900
14,775333	0,5	0,565050
14,783667	0,5	0,532250
14,792000	0,5	0,520250
14,800333	0,5	0,570650
14,808667	0,5	0,650450
14,817000	0,5	0,714600
14,825333	0,5	0,774400
14,833667	0,5	0,791550
14,842000	0,5	0,764650
14,850333	0,5	0,694500
14,858667	0,5	0,623350
14,867000	0,5	0,543300
14,875333	0,5	0,472150
14,883667	0,5	0,423000
14,892000	0,5	0,386400
14,900333	0,5	0,329100
14,908667	0,5	0,317250
14,917000	0,5	0,304550
14,925333	0,5	0,284800
14,933667	0,5	0,276200
14,942000	0,5	0,257450
14,950333	0,5	0,275200
14,958667	0,5	0,286350
14,967000	0,5	0,300900
14,975333	0,5	0,304050
14,983667	0,5	0,305900
14,992000	0,5	0,294250
15,000333	0,5	0,285750
15,008667	0,5	0,273200
15,017000	0,5	0,264250
15,025333	0,5	0,259300
15,033667	0,5	0,267350
15,042000	0,5	0,258600
15,050333	0,5	0,239600
15,058667	0,5	0,228400
15,067000	0,5	0,211600
15,075333	0,5	0,179850
15,083667	0,5	0,154500
15,092000	0,5	0,124800
15,100333	0,5	0,120850
15,108667	0,5	0,116800
15,117000	0,5	0,103250
15,125333	0,5	0,096750
15,133667	0,5	0,089300
15,142000	0,5	0,080600
15,150333	0,5	0,067050
15,158667	0,5	0,071750
15,167000	0,5	0,061900
15,175333	0,5	0,068250
15,183667	0,5	0,085200
15,192000	0,5	0,102200
15,200333	0,5	0,138350
15,208667	0,5	0,213800
15,217000	0,5	0,305050
15,225333	0,5	0,416200
15,233667	0,5	0,531000
15,242000	0,5	0,629700
15,250333	0,5	0,692250
15,258667	0,5	0,688950
15,267000	0,5	0,643800
15,275333	0,5	0,582750
15,283667	0,5	0,542450
15,292000	0,5	0,532500
15,300333	0,5	0,570600
15,308667	0,5	0,634400
15,317000	0,5	0,707850
15,325333	0,5	0,746150
15,333667	0,5	0,744500
15,342000	0,5	0,677300
15,350333	0,5	0,612950
15,358667	0,5	0,525950
15,367000	0,5	0,454600
15,375333	0,5	0,384200
15,383667	0,5	0,340050
15,392000	0,5	0,322050
15,400333	0,5	0,312350
15,408667	0,5	0,307350
15,417000	0,5	0,296050
15,425333	0,5	0,280000
15,433667	0,5	0,271650
15,442000	0,5	0,262800
15,450333	0,5	0,246050
15,458667	0,5	0,238200
15,467000	0,5	0,243000
15,475333	0,5	0,253200
15,483667	0,5	0,248300
15,492000	0,5	0,250400
15,500333	0,5	0,244050
15,508667	0,5	0,224200
15,517000	0,5	0,193150
15,525333	0,5	0,138650
15,533667	0,5	0,100250
15,542000	0,5	0,083500
15,550333	0,5	0,060950
15,558667	0,5	0,040200
15,567000	0,5	0,025500
15,575333	0,5	0,012700
15,583667	0,5	-0,004900
15,592000	0,5	-0,015550
15,600333	0,5	-0,028650
15,608667	0,5	-0,044000
15,617000	0,5	-0,040600
15,625333	0,5	-0,044200
15,633667	0,5	-0,049250
15,642000	0,5	-0,020000
15,650333	0,5	0,021500
15,658667	0,5	0,087250
15,667000	0,5	0,188500
15,675333	0,5	0,305100
15,683667	0,5	0,441550
15,692000	0,5	0,542050
15,700333	0,5	0,592150
15,708667	0,5	0,576500
15,717000	0,5	0,552600
15,725333	0,5	0,518900
15,733667	0,5	0,528750
15,742000	0,5	0,558800
15,750333	0,5	0,603900
15,758667	0,5	0,620300
15,767000	0,5	0,615250
15,775333	0,5	0,561550
15,783667	0,5	0,469950
15,792000	0,5	0,379100
15,800333	0,5	0,295150
15,808667	0,5	0,211300
15,817000	0,5	0,135100
15,825333	0,5	0,078900
15,833667	0,5	0,055500
15,842000	0,5	0,047000
15,850333	0,5	0,030850
15,858667	0,5	0,021950
15,867000	0,5	0,033250
15,875333	0,5	0,038950
15,883667	0,5	0,037850
15,892000	0,5	0,038950
15,900333	0,5	0,028600
15,908667	0,5	0,015150
15,917000	0,5	0,004250
15,925333	0,5	-0,023850
15,933667	0,5	-0,055150
15,942000	0,5	-0,071650
15,950333	0,5	-0,096400
15,958667	0,5	-0,131650
15,967000	0,5	-0,164750
15,975333	0,5	-0,177650
15,983667	0,5	-0,174750
15,992000	0,5	-0,191050
16,000333	0,5	-0,194200
16,008667	0,5	-0,204450
16,017000	0,5	-0,200150
16,025333	0,5	-0,203250
16,033667	0,5	-0,190550
16,042000	0,5	-0,179750
16,050333	0,5	-0,127550
16,058667	0,5	-0,049600
16,067000	0,5	0,076300
16,075333	0,5	0,191600
16,083667	0,5	0,337750
16,092000	0,5	0,435550
16,100333	0,5	0,482300
16,108667	0,5	0,482600
16,117000	0,5	0,460600
16,125333	0,5	0,479650
16,133667	0,5	0,507850
16,142000	0,5	0,530050
16,150333	0,5	0,529550
16,158667	0,5	0,483450
16,167000	0,5	0,393200
16,175333	0,5	0,304000
16,183667	0,5	0,209700
16,192000	0,5	0,135500
16,200333	0,5	0,075000
16,208667	0,5	0,048150
16,217000	0,5	0,020400
16,225333	0,5	0,002850
16,233667	0,5	0,008200
16,242000	0,5	0,013400
16,250333	0,5	0,007400
16,258667	0,5	-0,013150
16,267000	0,5	-0,036400
16,275333	0,5	-0,036050
16,283667	0,5	-0,044050
16,292000	0,5	-0,063500
16,300333	0,5	-0,089050
16,308667	0,5	-0,117000
16,317000	0,5	-0,145650
16,325333	0,5	-0,172300
16,333667	0,5	-0,196100
16,342000	0,5	-0,227400
16,350333	0,5	-0,248300
16,358667	0,5	-0,259200
16,367000	0,5	-0,292100
16,375333	0,5	-0,305350
16,383667	0,5	-0,301100
16,392000	0,5	-0,304350
16,400333	0,5	-0,294600
16,408667	0,5	-0,282750
16,417000	0,5	-0,234700
16,425333	0,5	-0,134850
16,433667	0,5	-0,002650
16,442000	0,5	0,130200
16,450333	0,5	0,256550
16,458667	0,5	0,341350
16,467000	0,5	0,371400
16,475333	0,5	0,377000
16,483667	0,5	0,375300
16,492000	0,5	0,382550
16,500333	0,5	0,375350
16,508667	0,5	0,355450
16,517000	0,5	0,282500
16,525333	0,5	0,210250
16,533667	0,5	0,134750
16,542000	0,5	0,060050
16,550333	0,5	0,005600
16,558667	0,5	-0,029150
16,567000	0,5	-0,039650
16,575333	0,5	-0,021300
16,583667	0,5	-0,004250
16,592000	0,5	0,023450
16,600333	0,5	0,046950
16,608667	0,5	0,061700
16,617000	0,5	0,070150
16,625333	0,5	0,075100
16,633667	0,5	0,072750
16,642000	0,5	0,044600
16,650333	0,5	0,040700
16,658667	0,5	0,005850
16,667000	0,5	-0,033300
16,675333	0,5	-0,041000
16,683667	0,5	-0,038950
16,692000	0,5	-0,055800
16,700333	0,5	-0,067900
16,708667	0,5	-0,082150
16,717000	0,5	-0,078350
16,725333	0,5	-0,076950
16,733667	0,5	-0,071400
16,742000	0,5	-0,051600
16,750333	0,5	0,004550
16,758667	0,5	0,083650
16,767000	0,5	0,173650
16,775333	0,5	0,255300
16,783667	0,5	0,309450
16,792000	0,5	0,335750
16,800333	0,5	0,342300
16,808667	0,5	0,316800
16,817000	0,5	0,306650
16,825333	0,5	0,276150
16,833667	0,5	0,220700
16,842000	0,5	0,149400
16,850333	0,5	0,042800
16,858667	0,5	-0,025650
16,867000	0,5	-0,079250
16,875333	0,5	-0,112550
16,883667	0,5	-0,137150
16,892000	0,5	-0,157200
16,900333	0,5	-0,172200
16,908667	0,5	-0,179350
16,917000	0,5	-0,189500
16,925333	0,5	-0,199500
16,933667	0,5	-0,213150
16,942000	0,5	-0,224600
16,950333	0,5	-0,228550
16,958667	0,5	-0,266250
16,967000	0,5	-0,271050
16,975333	0,5	-0,285550
16,983667	0,5	-0,303450
16,992000	0,5	-0,327700
17,000333	0,5	-0,360100
17,008667	0,5	-0,346050
17,017000	0,5	-0,336750
17,025333	0,5	-0,323300
17,033667	0,5	-0,290650
17,042000	0,5	-0,236350
17,050333	0,5	-0,153300
17,058667	0,5	-0,056600
17,067000	0,5	0,065000
17,075333	0,5	0,168000
17,083667	0,5	0,265450
17,092000	0,5	0,360850
17,100333	0,5	0,443900
17,108667	0,5	0,515200
17,117000	0,5	0,618750
17,125333	0,5	0,712400
17,133667	0,5	0,803100
17,142000	0,5	0,899500
17,150333	0,5	1,004650
17,158667	0,5	1,161450
17,167000	0,5	1,298200
17,175333	0,5	1,437600
17,183667	0,5	1,557250
17,192000	0,5	1,675550
17,200333	0,5	1,765550
17,208667	0,5	1,855200
17,217000	0,5	1,928850
17,225333	0,5	1,982600
17,233667	0,5	2,024700
17,242000	0,5	2,029650
17,250333	0,5	1,983250
17,258667	0,5	1,904300
17,267000	0,5	1,778550
17,275333	0,5	1,608950
17,283667	0,5	1,419250
17,292000	0,5	1,221000
17,300333	0,5	1,048200
17,308667	0,5	0,906250
17,317000	0,5	0,797000
17,325333	0,5	0,723250
17,333667	0,5	0,703950
17,342000	0,5	0,698900
17,350333	0,5	0,704750
17,358667	0,5	0,701850
17,367000	0,5	0,685500
17,375333	0,5	0,642650
17,383667	0,5	0,606700
17,392000	0,5	0,561550
17,400333	0,5	0,492700
17,408667	0,5	0,444850
17,417000	0,5	0,394900
17,425333	0,5	0,365100
17,433667	0,5	0,346300
17,442000	0,5	0,340850
17,450333	0,5	0,359550
17,458667	0,5	0,404400
17,467000	0,5	0,433650
17,475333	0,5	0,459800
17,483667	0,5	0,492900
17,492000	0,5	0,518750
17,500333	0,5	0,530200
17,508667	0,5	0,543900
17,517000	0,5	0,540750
17,525333	0,5	0,525550
17,533667	0,5	0,499700
17,542000	0,5	0,450000
17,550333	0,5	0,396300
17,558667	0,5	0,363000
17,567000	0,5	0,327800
17,575333	0,5	0,313700
17,583667	0,5	0,290300
17,592000	0,5	0,289450
17,600333	0,5	0,305250
17,608667	0,5	0,294100
17,617000	0,5	0,269650
17,625333	0,5	0,237900
17,633667	0,5	0,180050
17,642000	0,5	0,106850
17,650333	0,5	0,034400
17,658667	0,5	-0,038300
17,667000	0,5	-0,090500
17,675333	0,5	-0,133350
17,683667	0,5	-0,165450
17,692000	0,5	-0,212500
17,700333	0,5	-0,227800
17,708667	0,5	-0,254300
17,717000	0,5	-0,284750
17,725333	0,5	-0,309100
17,733667	0,5	-0,349500
17,742000	0,5	-0,367300
17,750333	0,5	-0,373250
17,758667	0,5	-0,392200
17,767000	0,5	-0,393700
17,775333	0,5	-0,395950
17,783667	0,5	-0,379450
17,792000	0,5	-0,340300
17,800333	0,5	-0,289250
17,808667	0,5	-0,234800
17,817000	0,5	-0,184650
17,825333	0,5	-0,128550
17,833667	0,5	-0,111200
17,842000	0,5	-0,118800
17,850333	0,5	-0,128000
17,858667	0,5	-0,162900
17,867000	0,5	-0,210000
17,875333	0,5	-0,258650
17,883667	0,5	-0,330600
17,892000	0,5	-0,343450
17,900333	0,5	-0,367100
17,908667	0,5	-0,383400
17,917000	0,5	-0,407100
17,925333	0,5	-0,411150
17,933667	0,5	-0,445150
17,942000	0,5	-0,457850
17,950333	0,5	-0,466700
17,958667	0,5	-0,471200
17,967000	0,5	-0,459600
17,975333	0,5	-0,448700
17,983667	0,5	-0,453550
17,992000	0,5	-0,423550
18,000333	0,5	-0,366900
18,008667	0,5	-0,316750
18,017000	0,5	-0,267050
18,025333	0,5	-0,246700
18,033667	0,5	-0,215700
18,042000	0,5	-0,205550
18,050333	0,5	-0,215650
18,058667	0,5	-0,251700
18,067000	0,5	-0,279000
18,075333	0,5	-0,315500
18,083667	0,5	-0,355850
18,092000	0,5	-0,369600
18,100333	0,5	-0,386850
18,108667	0,5	-0,404350
18,117000	0,5	-0,417100
18,125333	0,5	-0,416650
18,133667	0,5	-0,443600
18,142000	0,5	-0,433150
18,150333	0,5	-0,437450
18,158667	0,5	-0,434400
18,167000	0,5	-0,439900
18,175333	0,5	-0,439150
18,183667	0,5	-0,408000
18,192000	0,5	-0,349500
18,200333	0,5	-0,299800
18,208667	0,5	-0,251850
18,217000	0,5	-0,224450
18,225333	0,5	-0,216350
18,233667	0,5	-0,233250
18,242000	0,5	-0,258850
18,250333	0,5	-0,291850
18,258667	0,5	-0,330000
18,267000	0,5	-0,343300
18,275333	0,5	-0,367200
18,283667	0,5	-0,398150
18,292000	0,5	-0,399100
18,300333	0,5	-0,407650
18,308667	0,5	-0,423700
18,317000	0,5	-0,441350
18,325333	0,5	-0,473300
18,333667	0,5	-0,457900
18,342000	0,5	-0,452700
18,350333	0,5	-0,427200
18,358667	0,5	-0,409100
18,367000	0,5	-0,373100
18,375333	0,5	-0,351850
18,383667	0,5	-0,331100
18,392000	0,5	-0,318600
18,400333	0,5	-0,320300
18,408667	0,5	-0,332050
18,417000	0,5	-0,358950
18,425333	0,5	-0,392150
18,433667	0,5	-0,411500
18,442000	0,5	-0,431650
18,450333	0,5	-0,445850
18,458667	0,5	-0,468450
18,467000	0,5	-0,504850
18,475333	0,5	-0,527700
18,483667	0,5	-0,534500
18,492000	0,5	-0,532350
18,500333	0,5	-0,543000
18,508667	0,5	-0,525850
18,517000	0,5	-0,529400
18,525333	0,5	-0,515500
18,533667	0,5	-0,503200
18,542000	0,5	-0,492850
18,550333	0,5	-0,483100
18,558667	0,5	-0,473800
18,567000	0,5	-0,468250
18,575333	0,5	-0,505400
18,583667	0,5	-0,511300
18,592000	0,5	-0,543200
18,600333	0,5	-0,566450
18,608667	0,5	-0,600650
18,617000	0,5	-0,639950
18,625333	0,5	-0,651850
18,633667	0,5	-0,643200
18,642000	0,5	-0,655000
18,650333	0,5	-0,648950
18,658667	0,5	-0,659750
18,667000	0,5	-0,654850
18,675333	0,5	-0,664300
18,683667	0,5	-0,636550
18,692000	0,5	-0,633900
18,700333	0,5	-0,609300
18,708667	0,5	-0,589150
18,717000	0,5	-0,587450
18,725333	0,5	-0,601950
18,733667	0,5	-0,607700
18,742000	0,5	-0,613450
18,750333	0,5	-0,626250
18,758667	0,5	-0,645500
18,767000	0,5	-0,649400
18,775333	0,5	-0,626950
18,783667	0,5	-0,625050
18,792000	0,5	-0,613150
18,800333	0,5	-0,598000
18,808667	0,5	-0,556000
18,817000	0,5	-0,532550
18,825333	0,5	-0,481650
18,833667	0,5	-0,454550
18,842000	0,5	-0,444500
18,850333	0,5	-0,430750
18,858667	0,5	-0,425450
18,867000	0,5	-0,456200
18,875333	0,5	-0,451500
18,883667	0,5	-0,468000
18,892000	0,5	-0,487950
18,900333	0,5	-0,504750
18,908667	0,5	-0,531100
18,917000	0,5	-0,517150
18,925333	0,5	-0,491850
18,933667	0,5	-0,470900
18,942000	0,5	-0,458850
18,950333	0,5	-0,445200
18,958667	0,5	-0,438600
18,967000	0,5	-0,434850
18,975333	0,5	-0,448800
18,983667	0,5	-0,462700
18,992000	0,5	-0,505500
19,000333	0,5	-0,520850
19,008667	0,5	-0,545950
19,017000	0,5	-0,584750
19,025333	0,5	-0,595700
19,033667	0,5	-0,601050
19,042000	0,5	-0,621050
19,050333	0,5	-0,638900
19,058667	0,5	-0,664650
19,067000	0,5	-0,653850
19,075333	0,5	-0,648050
19,083667	0,5	-0,667300
19,092000	0,5	-0,681950
19,100333	0,5	-0,705100
19,108667	0,5	-0,715950
19,117000	0,5	-0,731250
19,125333	0,5	-0,737250
19,133667	0,5	-0,755900
19,142000	0,5	-0,776650
19,150333	0,5	-0,777450
19,158667	0,5	-0,798600
19,167000	0,5	-0,812250
19,175333	0,5	-0,808600
19,183667	0,5	-0,824000
19,192000	0,5	-0,844400
19,200333	0,5	-0,896750
19,208667	0,5	-0,924950
19,217000	0,5	-0,922800
19,225333	0,5	-0,941350
19,233667	0,5	-0,953600
19,242000	0,5	-0,972650
19,250333	0,5	-0,979850
19,258667	0,5	-0,989350
19,267000	0,5	-0,985750
19,275333	0,5	-1,006550
19,283667	0,5	-1,016250
19,292000	0,5	-1,027800
19,300333	0,5	-1,040650
19,308667	0,5	-1,069350
19,317000	0,5	-1,072950
19,325333	0,5	-1,079100
19,333667	0,5	-1,088350
19,342000	0,5	-1,115250
19,350333	0,5	-1,146600
19,358667	0,5	-1,138000
19,367000	0,5	-1,140650
19,375333	0,5	-1,155350
19,383667	0,5	-1,162550
19,392000	0,5	-1,174400
19,400333	0,5	-1,190300
19,408667	0,5	-1,196850
19,417000	0,5	-1,205050
19,425333	0,5	-1,204300
19,433667	0,5	-1,221100
19,442000	0,5	-1,207450
19,450333	0,5	-1,208900
19,458667	0,5	-1,218450
19,467000	0,5	-1,223100
19,475333	0,5	-1,225550
19,483667	0,5	-1,237550
19,492000	0,5	-1,261300
19,500333	0,5	-1,296200
19,508667	0,5	-1,293250
19,517000	0,5	-1,290050
19,525333	0,5	-1,285150
19,533667	0,5	-1,291050
19,542000	0,5	-1,299800
19,550333	0,5	-1,328550
19,558667	0,5	-1,338450
19,567000	0,5	-1,351100
19,575333	0,5	-1,361150
19,583667	0,5	-1,363750
19,592000	0,5	-1,366400
19,600333	0,5	-1,393750
19,608667	0,5	-1,403300
19,617000	0,5	-1,401900
19,625333	0,5	-1,421100
19,633667	0,5	-1,430000
19,642000	0,5	-1,460600
19,650333	0,5	-1,479000
19,658667	0,5	-1,476350
19,667000	0,5	-1,470150
19,675333	0,5	-1,478850
19,683667	0,5	-1,471500
19,692000	0,5	-1,475650
19,700333	0,5	-1,482550
19,708667	0,5	-1,484400
19,717000	0,5	-1,483900
19,725333	0,5	-1,488500
19,733667	0,5	-1,487300
19,742000	0,5	-1,496450
19,750333	0,5	-1,519950
19,758667	0,5	-1,527250
19,767000	0,5	-1,536450
19,775333	0,5	-1,558150
19,783667	0,5	-1,586150
19,792000	0,5	-1,612200
19,800333	0,5	-1,638100
19,808667	0,5	-1,656700
19,817000	0,5	-1,674300
19,825333	0,5	-1,678900
19,833667	0,5	-1,693700
19,842000	0,5	-1,702150
19,850333	0,5	-1,722050
19,858667	0,5	-1,733900
19,867000	0,5	-1,753100
19,875333	0,5	-1,760700
19,883667	0,5	-1,749600
19,892000	0,5	-1,765200
19,900333	0,5	-1,781800
19,908667	0,5	-1,791050
19,917000	0,5	-1,794500
19,925333	0,5	-1,813100
19,933667	0,5	-1,846600
19,942000	0,5	-1,868600
19,950333	0,5	-1,860700
19,958667	0,5	-1,881500
19,967000	0,5	-1,878950
19,975333	0,5	-1,880700
19,983667	0,5	-1,882850
19,992000	0,5	-1,896350
20,000333	0,5	-1,901250
20,008667	0,5	-1,916350
20,017000	0,5	-1,934150
20,025333	0,5	-1,931700
20,033667	0,5	-1,935450
20,042000	0,5	-1,975250
20,050333	0,5	-1,978850
20,058667	0,5	-1,994250
20,067000	0,5	-2,020750
20,075333	0,5	-2,041500
20,083667	0,5	-2,089950
20,092000	0,5	-2,092700
20,100333	0,5	-2,105000
20,108667	0,5	-2,122500
20,117000	0,5	-2,148250
20,125333	0,5	-2,155550
20,133667	0,5	-2,180400
20,142000	0,5	-2,190750
20,150333	0,5	-2,200950
20,158667	0,5	-2,216050
20,167000	0,5	-2,226700
20,175333	0,5	-2,225450
20,183667	0,5	-2,241250
20,192000	0,5	-2,260700
20,200333	0,5	-2,252050
20,208667	0,5	-2,263050
20,217000	0,5	-2,280350
20,225333	0,5	-2,301200
20,233667	0,5	-2,319500
20,242000	0,5	-2,319600
20,250333	0,5	-2,318250
20,258667	0,5	-2,337700
20,267000	0,5	-2,339600
20,275333	0,5	-2,366550
20,283667	0,5	-2,366750
20,292000	0,5	-2,386550
20,300333	0,5	-2,391300
20,308667	0,5	-2,414850
20,317000	0,5	-2,425100
20,325333	0,5	-2,414650
20,333667	0,5	-2,438200
20,342000	0,5	-2,455350
20,350333	0,5	-2,475250
20,358667	0,5	-2,488200
20,367000	0,5	-2,527800
20,375333	0,5	-2,566500
20,383667	0,5	-2,604750
20,392000	0,5	-2,603350
20,400333	0,5	-2,627200
20,408667	0,5	-2,646500
20,417000	0,5	-2,675650
20,425333	0,5	-2,699450
20,433667	0,5	-2,728600
20,442000	0,5	-2,733700
20,450333	0,5	-2,766950
20,458667	0,5	-2,778050
20,467000	0,5	-2,779450
20,475333	0,5	-2,788700
20,483667	0,5	-2,820250
20,492000	0,5	-2,829350
20,500333	0,5	-2,852900
20,508667	0,5	-2,883850
20,517000	0,5	-2,937800
20,525333	0,5	-2,985400
20,533667	0,5	-2,989600
20,542000	0,5	-3,002950
20,550333	0,5	-3,001850
20,558667	0,5	-3,006250
20,567000	0,5	-2,990250
20,575333	0,5	-3,012300
20,583667	0,5	-3,014400
20,592000	0,5	-3,048350
20,600333	0,5	-3,095050
20,608667	0,5	-3,148700
20,617000	0,5	-3,173700
20,625333	0,5	-3,210100
20,633667	0,5	-3,261400
20,642000	0,5	-3,291700
20,650333	0,5	-3,338550
20,658667	0,5	-3,386000
20,667000	0,5	-3,459150
20,675333	0,5	-3,501200
20,683667	0,5	-3,529550
20,692000	0,5	-3,550600
20,700333	0,5	-3,587600
20,708667	0,5	-3,602250
20,717000	0,5	-3,627850
20,725333	0,5	-3,618250
20,733667	0,5	-3,602250
20,742000	0,5	-3,581800
20,750333	0,5	-3,583300
20,758667	0,5	-3,576550
20,767000	0,5	-3,587200
20,775333	0,5	-3,652700
20,783667	0,5	-3,723000
20,792000	0,5	-3,792350
20,800333	0,5	-3,884000
20,808667	0,5	-3,969250
20,817000	0,5	-4,048100
20,825333	0,5	-4,112500
20,833667	0,5	-4,147750
20,842000	0,5	-4,201650
20,850333	0,5	-4,247100
20,858667	0,5	-4,286100
20,867000	0,5	-4,324800
20,875333	0,5	-4,361100
20,883667	0,5	-4,398700
20,892000	0,5	-4,433800
20,900333	0,5	-4,470350
20,908667	0,5	-4,450600
20,917000	0,5	-4,458450
20,925333	0,5	-4,512400
20,933667	0,5	-4,544050
20,942000	0,5	-4,595500
20,950333	0,5	-4,649800
20,958667	0,5	-4,731750
20,967000	0,5	-4,785800
20,975333	0,5	-4,811400
20,983667	0,5	-4,846550
20,992000	0,5	-4,882000
21,000333	0,5	-4,927100
21,008667	0,5	-4,944750
21,017000	0,5	-4,976150
21,025333	0,5	-5,005700
21,033667	0,5	-5,030000
21,042000	0,5	-5,040100
21,050333	0,5	-5,034650
21,058667	0,5	-5,037150
21,067000	0,5	-5,051650
21,075333	0,5	-5,092700
21,083667	0,5	-5,137850
21,092000	0,5	-5,191900
21,100333	0,5	-5,247200
21,108667	0,5	-5,308700
21,117000	0,5	-5,338350
21,125333	0,5	-5,381600
21,133667	0,5	-5,406750
21,142000	0,5	-5,446300
21,150333	0,5	-5,467050
21,158667	0,5	-5,506350
21,167000	0,5	-5,524400
21,175333	0,5	-5,556750
21,183667	0,5	-5,582350
21,192000	0,5	-5,618250
21,200333	0,5	-5,595650
21,208667	0,5	-5,606250
21,217000	0,5	-5,619050
21,225333	0,5	-5,660000
21,233667	0,5	-5,681050
21,242000	0,5	-5,711000
21,250333	0,5	-5,754400
21,258667	0,5	-5,788750
21,267000	0,5	-5,805500
21,275333	0,5	-5,818500
21,283667	0,5	-5,838450
21,292000	0,5	-5,843650
21,300333	0,5	-5,841100
21,308667	0,5	-5,842550
21,317000	0,5	-5,855700
21,325333	0,5	-5,870950
21,333667	0,5	-5,905650
21,342000	0,5	-5,921850
21,350333	0,5	-5,915700
21,358667	0,5	-5,923350
21,367000	0,5	-5,956250
21,375333	0,5	-5,983200
21,383667	0,5	-6,011750
21,392000	0,5	-6,057350
21,400333	0,5	-6,096800
21,408667	0,5	-6,118550
21,417000	0,5	-6,122350
21,425333	0,5	-6,149100
21,433667	0,5	-6,163900
21,442000	0,5	-6,181100
21,450333	0,5	-6,191950
21,458667	0,5	-6,212900
21,467000	0,5	-6,222900
21,475333	0,5	-6,241700
21,483667	0,5	-6,254750
21,492000	0,5	-6,245650
21,500333	0,5	-6,235650
21,508667	0,5	-6,259650
21,517000	0,5	-6,264250
21,525333	0,5	-6,291300
21,533667	0,5	-6,324850
21,542000	0,5	-6,355300
21,550333	0,5	-6,400500
21,558667	0,5	-6,404150
21,567000	0,5	-6,416150
21,575333	0,5	-6,430950
21,583667	0,5	-6,450950
21,592000	0,5	-6,456800
21,600333	0,5	-6,475600
21,608667	0,5	-6,473000
21,617000	0,5	-6,475650
21,625333	0,5	-6,486650
21,633667	0,5	-6,488150
21,642000	0,5	-6,443600
21,650333	0,5	-6,449300
21,658667	0,5	-6,441000
21,667000	0,5	-6,427400
21,675333	0,5	-6,421300
21,683667	0,5	-6,426850
21,692000	0,5	-6,451600
21,700333	0,5	-6,468000
21,708667	0,5	-6,493950
21,717000	0,5	-6,503700
21,725333	0,5	-6,531600
21,733667	0,5	-6,531450
21,742000	0,5	-6,540700
21,750333	0,5	-6,545300
21,758667	0,5	-6,547400
21,767000	0,5	-6,559650
21,775333	0,5	-6,578600
21,783667	0,5	-6,578550
21,792000	0,5	-6,582350
21,800333	0,5	-6,604750
21,808667	0,5	-6,626050
21,817000	0,5	-6,643650
21,825333	0,5	-6,669150
21,833667	0,5	-6,707850
21,842000	0,5	-6,736800
21,850333	0,5	-6,739850
21,858667	0,5	-6,734900
21,867000	0,5	-6,750600
21,875333	0,5	-6,765300
21,883667	0,5	-6,783100
21,892000	0,5	-6,799850
21,900333	0,5	-6,812350
21,908667	0,5	-6,806550
21,917000	0,5	-6,831550
21,925333	0,5	-6,825750
21,933667	0,5	-6,784700
21,942000	0,5	-6,765150
21,950333	0,5	-6,727400
21,958667	0,5	-6,698050
21,967000	0,5	-6,697300
21,975333	0,5	-6,733150
21,983667	0,5	-6,795850
21,992000	0,5	-6,847700
22,000333	0,5	-6,878250
22,008667	0,5	-6,922700
22,017000	0,5	-6,950550
22,025333	0,5	-6,987700
22,033667	0,5	-7,000700
22,042000	0,5	-7,061100
22,050333	0,5	-7,075500
22,058667	0,5	-7,111450
22,067000	0,5	-7,132300
22,075333	0,5	-7,146700
22,083667	0,5	-7,158600
22,092000	0,5	-7,203600
22,100333	0,5	-7,201300
22,108667	0,5	-7,217450
22,117000	0,5	-7,248750
22,125333	0,5	-7,249200
22,133667	0,5	-7,321700
22,142000	0,5	-7,325700
22,150333	0,5	-7,335950
22,158667	0,5	-7,350250
22,167000	0,5	-7,366850
22,175333	0,5	-7,371750
22,183667	0,5	-7,390850
22,192000	0,5	-7,399700
22,200333	0,5	-7,409800
22,208667	0,5	-7,424800
22,217000	0,5	-7,434400
22,225333	0,5	-7,452900
22,233667	0,5	-7,478700
22,242000	0,5	-7,472650
22,250333	0,5	-7,465400
22,258667	0,5	-7,465100
22,267000	0,5	-7,476750
22,275333	0,5	-7,506250
22,283667	0,5	-7,487100
22,292000	0,5	-7,479600
22,300333	0,5	-7,465000
22,308667	0,5	-7,462200
22,317000	0,5	-7,456550
22,325333	0,5	-7,440100
22,333667	0,5	-7,421800
22,342000	0,5	-7,426400
22,350333	0,5	-7,409700
22,358667	0,5	-7,384450
22,367000	0,5	-7,356500
22,375333	0,5	-7,280800
22,383667	0,5	-7,189400
22,392000	0,5	-7,118250
22,400333	0,5	-7,114500
22,408667	0,5	-7,150950
22,417000	0,5	-7,216500
22,425333	0,5	-7,288450
22,433667	0,5	-7,320150
22,442000	0,5	-7,345150
22,450333	0,5	-7,363650
22,458667	0,5	-7,383900
22,467000	0,5	-7,402300
22,475333	0,5	-7,404450
22,483667	0,5	-7,421950
22,492000	0,5	-7,411450
22,500333	0,5	-7,424550
22,508667	0,5	-7,426950
22,517000	0,5	-7,461800
22,525333	0,5	-7,455250
22,533667	0,5	-7,427350
22,542000	0,5	-7,410150
22,550333	0,5	-7,388250
22,558667	0,5	-7,391050
22,567000	0,5	-7,373000
22,575333	0,5	-7,359650
22,583667	0,5	-7,319200
22,592000	0,5	-7,293300
22,600333	0,5	-7,275100
22,608667	0,5	-7,259300
22,617000	0,5	-7,243550
22,625333	0,5	-7,233500
22,633667	0,5	-7,216800
22,642000	0,5	-7,230300
22,650333	0,5	-7,235050
22,658667	0,5	-7,284150
22,667000	0,5	-7,296800
22,675333	0,5	-7,283650
22,683667	0,5	-7,259150
22,692000	0,5	-7,273200
22,700333	0,5	-7,283500
22,708667	0,5	-7,315550
22,717000	0,5	-7,350050
22,725333	0,5	-7,355000
22,733667	0,5	-7,360300
22,742000	0,5	-7,381300
22,750333	0,5	-7,406200
22,758667	0,5	-7,406950
22,767000	0,5	-7,426000
22,775333	0,5	-7,432150
22,783667	0,5	-7,451400
22,792000	0,5	-7,461400
22,800333	0,5	-7,492250
22,808667	0,5	-7,583900
22,817000	0,5	-7,583950
22,825333	0,5	-7,562950
22,833667	0,5	-7,575700
22,842000	0,5	-7,598050
22,850333	0,5	-7,631650
22,858667	0,5	-7,647650
22,867000	0,5	-7,677750
22,875333	0,5	-7,704100
22,883667	0,5	-7,726100
22,892000	0,5	-7,737850
22,900333	0,5	-7,759900
22,908667	0,5	-7,759400
22,917000	0,5	-7,771500
22,925333	0,5	-7,765650
22,933667	0,5	-7,754800
22,942000	0,5	-7,739050
22,950333	0,5	-7,709400
22,958667	0,5	-7,733700
22,967000	0,5	-7,690550
22,975333	0,5	-7,687850
22,983667	0,5	-7,699300
22,992000	0,5	-7,675850
23,000333	0,5	-7,643000
23,008667	0,5	-7,606750
23,017000	0,5	-7,586350
23,025333	0,5	-7,572300
23,033667	0,5	-7,518250
23,042000	0,5	-7,476400
23,050333	0,5	-7,424350
23,058667	0,5	-7,375000
23,067000	0,5	-7,294650
23,075333	0,5	-7,239550
23,083667	0,5	-7,168500
23,092000	0,5	-7,093150
23,100333	0,5	-6,981450
23,108667	0,5	-6,904800
23,117000	0,5	-6,826950
23,125333	0,5	-6,815400
23,133667	0,5	-6,748850
23,142000	0,5	-6,654800
23,150333	0,5	-6,572250
23,158667	0,5	-6,498550
23,167000	0,5	-6,453100
23,175333	0,5	-6,371450
23,183667	0,5	-6,291350
23,192000	0,5	-6,208700
23,200333	0,5	-6,124850
23,208667	0,5	-6,032200
23,217000	0,5	-5,950100
23,225333	0,5	-5,852450
23,233667	0,5	-5,765700
23,242000	0,5	-5,629350
23,250333	0,5	-5,567050
23,258667	0,5	-5,461450
23,267000	0,5	-5,369950
23,275333	0,5	-5,315150
23,283667	0,5	-5,245450
23,292000	0,5	-5,167850
23,300333	0,5	-5,082500
23,308667	0,5	-5,017950
23,317000	0,5	-4,957250
23,325333	0,5	-4,882800
23,333667	0,5	-4,803250
23,342000	0,5	-4,737850
23,350333	0,5	-4,667350
23,358667	0,5	-4,590400
23,367000	0,5	-4,516500
23,375333	0,5	-4,440200
23,383667	0,5	-4,361250
23,392000	0,5	-4,316300
23,400333	0,5	-4,257350
23,408667	0,5	-4,143050
23,417000	0,5	-4,070950
23,425333	0,5	-4,021650
23,433667	0,5	-3,963250
23,442000	0,5	-3,903400
23,450333	0,5	-3,840400
23,458667	0,5	-3,799500
23,467000	0,5	-3,755550
23,475333	0,5	-3,715750
23,483667	0,5	-3,672850
23,492000	0,5	-3,628100
23,500333	0,5	-3,576400
23,508667	0,5	-3,528450
23,517000	0,5	-3,489150
23,525333	0,5	-3,441700
23,533667	0,5	-3,394050
23,542000	0,5	-3,503100
23,550333	0,5	-3,404000
23,558667	0,5	-3,322850
23,567000	0,5	-3,259050
23,575333	0,5	-3,220850
23,583667	0,5	-3,186250
23,592000	0,5	-3,141050
23,600333	0,5	-3,114450
23,608667	0,5	-3,086700
23,617000	0,5	-3,062150
23,625333	0,5	-3,027300
23,633667	0,5	-3,003200
23,642000	0,5	-2,970900
23,650333	0,5	-2,937850
23,658667	0,5	-2,906000
23,667000	0,5	-2,882200
23,675333	0,5	-2,853600
23,683667	0,5	-2,904800
23,692000	0,5	-2,959800
23,700333	0,5	-2,910700
23,708667	0,5	-2,821000
23,717000	0,5	-2,771250
23,725333	0,5	-2,735250
23,733667	0,5	-2,713050
23,742000	0,5	-2,702450
23,750333	0,5	-2,688150
23,758667	0,5	-2,663000
23,767000	0,5	-2,638300
23,775333	0,5	-2,612850
23,783667	0,5	-2,590750
23,792000	0,5	-2,559050
23,800333	0,5	-2,536950
23,808667	0,5	-2,508850
23,817000	0,5	-2,477450
23,825333	0,5	-2,454050
23,833667	0,5	-2,603450
23,842000	0,5	-2,594100
23,850333	0,5	-2,523900
23,858667	0,5	-2,437300
23,867000	0,5	-2,390100
23,875333	0,5	-2,357850
23,883667	0,5	-2,333600
23,892000	0,5	-2,327000
23,900333	0,5	-2,295450
23,908667	0,5	-2,269350
23,917000	0,5	-2,246300
23,925333	0,5	-2,228300
23,933667	0,5	-2,203450
23,942000	0,5	-2,192250
23,950333	0,5	-2,161750
23,958667	0,5	-2,135000
23,967000	0,5	-2,109500
23,975333	0,5	-2,109950
23,983667	0,5	-2,251950
23,992000	0,5	-2,221750
24,000333	0,5	-2,143650
24,008667	0,5	-2,080150
24,017000	0,5	-2,035850
24,025333	0,5	-2,008700
24,033667	0,5	-1,991700
24,042000	0,5	-1,985650
24,050333	0,5	-1,954950
24,058667	0,5	-1,921800
24,067000	0,5	-1,898700
24,075333	0,5	-1,866850
24,083667	0,5	-1,848700
24,092000	0,5	-1,808700
24,100333	0,5	-1,785300
24,108667	0,5	-1,756050
24,117000	0,5	-1,740750
24,125333	0,5	-1,834750
24,133667	0,5	-1,851050
24,142000	0,5	-1,838750
24,150333	0,5	-1,771550
24,158667	0,5	-1,723050
24,167000	0,5	-1,689600
24,175333	0,5	-1,667750
24,183667	0,5	-1,665550
24,192000	0,5	-1,644500
24,200333	0,5	-1,614000
24,208667	0,5	-1,592600
24,217000	0,5	-1,568600
24,225333	0,5	-1,547300
24,233667	0,5	-1,523400
24,242000	0,5	-1,511200
24,250333	0,5	-1,479500
24,258667	0,5	-1,452550
24,267000	0,5	-1,436600
24,275333	0,5	-1,544600
24,283667	0,5	-1,509600
24,292000	0,5	-1,484200
24,300333	0,5	-1,413900
24,308667	0,5	-1,390900
24,317000	0,5	-1,366700
24,325333	0,5	-1,347800
24,333667	0,5	-1,343500
24,342000	0,5	-1,322950
24,350333	0,5	-1,304000
24,358667	0,5	-1,283650
24,367000	0,5	-1,268900
24,375333	0,5	-1,246250
24,383667	0,5	-1,233550
24,392000	0,5	-1,217600
24,400333	0,5	-1,200850
24,408667	0,5	-1,176900
24,417000	0,5	-1,199900
24,425333	0,5	-1,250600
24,433667	0,5	-1,234500
24,442000	0,5	-1,205250
24,450333	0,5	-1,167850
24,458667	0,5	-1,137500
24,467000	0,5	-1,122900
24,475333	0,5	-1,114050
24,483667	0,5	-1,113400
24,492000	0,5	-1,084900
24,500333	0,5	-1,068750
24,508667	0,5	-1,050750
24,517000	0,5	-1,035950
24,525333	0,5	-1,014800
24,533667	0,5	-0,999250
24,542000	0,5	-0,987050
24,550333	0,5	-0,975800
24,558667	0,5	-0,961000
24,567000	0,5	-1,004050
24,575333	0,5	-1,003350
24,583667	0,5	-0,983650
24,592000	0,5	-0,957000
24,600333	0,5	-0,935650
24,608667	0,5	-0,923900
24,617000	0,5	-0,911750
24,625333	0,5	-0,912750
24,633667	0,5	-0,910300
24,642000	0,5	-0,900550
24,650333	0,5	-0,887200
24,658667	0,5	-0,878650
24,667000	0,5	-0,863200
24,675333	0,5	-0,857500
24,683667	0,5	-0,844500
24,692000	0,5	-0,829800
24,700333	0,5	-0,818650
24,708667	0,5	-0,807300
24,717000	0,5	-0,855350
24,725333	0,5	-0,828650
24,733667	0,5	-0,812700
24,742000	0,5	-0,788900
24,750333	0,5	-0,774600
24,758667	0,5	-0,758850
24,767000	0,5	-0,756350
24,775333	0,5	-0,753800
24,783667	0,5	-0,754400
24,792000	0,5	-0,738750
24,800333	0,5	-0,736250
24,808667	0,5	-0,723550
24,817000	0,5	-0,722350
24,825333	0,5	-0,715500
24,833667	0,5	-0,711750
24,842000	0,5	-0,703850
24,850333	0,5	-0,697550
24,858667	0,5	-0,708600
24,867000	0,5	-0,721050
24,875333	0,5	-0,709100
24,883667	0,5	-0,692300
24,892000	0,5	-0,679750
24,900333	0,5	-0,667450
24,908667	0,5	-0,658100
24,917000	0,5	-0,659600
24,925333	0,5	-0,655900
24,933667	0,5	-0,643650
24,942000	0,5	-0,639350
24,950333	0,5	-0,632050
24,958667	0,5	-0,630400
24,967000	0,5	-0,618850
24,975333	0,5	-0,619800
24,983667	0,5	-0,611500
24,992000	0,5	-0,607150
25,000333	0,5	-0,607050
25,008667	0,5	-0,619450
25,017000	0,5	-0,616250
25,025333	0,5	-0,614350
25,033667	0,5	-0,604100
25,042000	0,5	-0,600400
25,050333	0,5	-0,600450
25,058667	0,5	-0,598150
25,067000	0,5	-0,601700
25,075333	0,5	-0,595300
25,083667	0,5	-0,596100
25,092000	0,5	-0,590650
25,100333	0,5	-0,583000
25,108667	0,5	-0,576950
25,117000	0,5	-0,575250
25,125333	0,5	-0,566150
25,133667	0,5	-0,562850
25,142000	0,5	-0,553200
25,150333	0,5	-0,553650
25,158667	0,5	-0,564350
25,167000	0,5	-0,552850
25,175333	0,5	-0,547050
25,183667	0,5	-0,545300
25,192000	0,5	-0,541400
25,200333	0,5	-0,544000
25,208667	0,5	-0,546150
25,217000	0,5	-0,549950
25,225333	0,5	-0,547500
25,233667	0,5	-0,546700
25,242000	0,5	-0,547400
25,250333	0,5	-0,549450
25,258667	0,5	-0,548950
25,267000	0,5	-0,547800
25,275333	0,5	-0,545050
25,283667	0,5	-0,542150
25,292000	0,5	-0,537200
25,300333	0,5	-0,533550
25,308667	0,5	-0,527500
25,317000	0,5	-0,522050
25,325333	0,5	-0,522100
25,333667	0,5	-0,520550
25,342000	0,5	-0,517650
25,350333	0,5	-0,516800
25,358667	0,5	-0,514700
25,367000	0,5	-0,508950
25,375333	0,5	-0,514200
25,383667	0,5	-0,513100
25,392000	0,5	-0,516900
25,400333	0,5	-0,514350
25,408667	0,5	-0,516350
25,417000	0,5	-0,517300
25,425333	0,5	-0,519250
25,433667	0,5	-0,512200
25,442000	0,5	-0,520050
25,450333	0,5	-0,509600
25,458667	0,5	-0,507000
25,467000	0,5	-0,504700
25,475333	0,5	-0,510500
25,483667	0,5	-0,510400
25,492000	0,5	-0,511700
25,500333	0,5	-0,509050
25,508667	0,5	-0,506700
25,517000	0,5	-0,506400
25,525333	0,5	-0,503550
25,533667	0,5	-0,505950
25,542000	0,5	-0,502750
25,550333	0,5	-0,499600
25,558667	0,5	-0,505250
25,567000	0,5	-0,504400
25,575333	0,5	-0,505500
25,583667	0,5	-0,507500
25,592000	0,5	-0,503050
25,600333	0,5	-0,493350
25,608667	0,5	-0,493000
25,617000	0,5	-0,492850
25,625333	0,5	-0,501100
25,633667	0,5	-0,502500
25,642000	0,5	-0,504350
25,650333	0,5	-0,497950
25,658667	0,5	-0,494050
25,667000	0,5	-0,495650
25,675333	0,5	-0,501250
25,683667	0,5	-0,502950
25,692000	0,5	-0,501900
25,700333	0,5	-0,502100
25,708667	0,5	-0,502900
25,717000	0,5	-0,501250
25,725333	0,5	-0,502650
25,733667	0,5	-0,500150
25,742000	0,5	-0,495250
25,750333	0,5	-0,475100
25,758667	0,5	-0,474300
25,767000	0,5	-0,477400
25,775333	0,5	-0,490350
25,783667	0,5	-0,489100
25,792000	0,5	-0,489400
25,800333	0,5	-0,480650
25,808667	0,5	-0,474850
25,817000	0,5	-0,471300
25,825333	0,5	-0,478300
25,833667	0,5	-0,474650
25,842000	0,5	-0,479100
25,850333	0,5	-0,472350
25,858667	0,5	-0,475050
25,867000	0,5	-0,472500
25,875333	0,5	-0,471500
25,883667	0,5	-0,466800
25,892000	0,5	-0,459250
25,900333	0,5	-0,454650
25,908667	0,5	-0,447050
25,917000	0,5	-0,453200
25,925333	0,5	-0,449000
25,933667	0,5	-0,449650
25,942000	0,5	-0,443700
25,950333	0,5	-0,428450
25,958667	0,5	-0,418500
25,967000	0,5	-0,425450
25,975333	0,5	-0,423100
25,983667	0,5	-0,420850
25,992000	0,5	-0,416100
26,000333	0,5	-0,414200
