File Path	chrom://chromeleon01/ikbm_chromeleon/2022/ICS-5000/ED1/Esteban/20220427_Cell_Amandas_mutants.seq/796.smp/ED_1.channel/ED_1.chm
Channel	ED_1

Injection Information:
Data Vault	ikbm_chromeleon
Injection	T24h_BMCC_CelS2
Injection Number	9
Position	RA5
Comment	
Processing Method	Stop sequence after Cell Death
Instrument Method	ICS5000_PA200_FullNative_Ox_26min_ED1
Type	Unknown
Status	Finished
Injection Date	27.04.2022
Injection Time	15:52:03
Injection Volume (µl)	5,0
Dilution Factor	1,0000
Weight	1,0000

Chromatogram Data Information:
Time Min. (min)	0,000167
Time Max. (min)	26,000167
Data Points	3121
Detector	EDet1
Generating Data System	Chromeleon 7.2.9.11323
Exporting Data System	Chromeleon 7.2.9.0
Operator	Instrument Controller
Signal Quantity	
Signal Unit	nC
Signal Min.	-4,768850
Signal Max.	45,533351
Channel	ED_1
Driver Name	DC-5000
Channel Type	Evaluation
Min. Step (s)	0,5
Max. Step (s)	0,5
Average Step (s)	0,5

Signal Parameter Information:
Signal Info	

Chromatogram Data:
Time (min)	Step (s)	Value (nC)
0,000167	n.a.	-0,068300
0,008500	0,5	-0,089750
0,016833	0,5	-0,089950
0,025167	0,5	-0,080450
0,033500	0,5	-0,069050
0,041833	0,5	-0,043200
0,050167	0,5	-0,059450
0,058500	0,5	-0,027150
0,066833	0,5	-0,015250
0,075167	0,5	-0,041750
0,083500	0,5	-0,052050
0,091833	0,5	-0,039750
0,100167	0,5	-0,013800
0,108500	0,5	0,008500
0,116833	0,5	-0,007450
0,125167	0,5	-0,015600
0,133500	0,5	-0,006350
0,141833	0,5	-0,015800
0,150167	0,5	-0,016100
0,158500	0,5	-0,019700
0,166833	0,5	-0,017550
0,175167	0,5	-0,025850
0,183500	0,5	-0,006350
0,191833	0,5	-0,011000
0,200167	0,5	-0,029500
0,208500	0,5	-0,007350
0,216833	0,5	-0,008300
0,225167	0,5	-0,029800
0,233500	0,5	-0,032400
0,241833	0,5	-0,024400
0,250167	0,5	0,012550
0,258500	0,5	0,013350
0,266833	0,5	-0,015200
0,275167	0,5	-0,019200
0,283500	0,5	-0,005750
0,291833	0,5	-0,005600
0,300167	0,5	-0,000500
0,308500	0,5	0,033800
0,316833	0,5	-0,006150
0,325167	0,5	-0,028950
0,333500	0,5	-0,033500
0,341833	0,5	-0,024300
0,350167	0,5	-0,044900
0,358500	0,5	-0,014050
0,366833	0,5	-0,044900
0,375167	0,5	-0,042800
0,383500	0,5	-0,045200
0,391833	0,5	-0,024950
0,400167	0,5	0,000150
0,408500	0,5	0,003350
0,416833	0,5	-0,018450
0,425167	0,5	-0,004200
0,433500	0,5	-0,014400
0,441833	0,5	-0,017700
0,450167	0,5	-0,018650
0,458500	0,5	-0,023150
0,466833	0,5	-0,030100
0,475167	0,5	-0,032000
0,483500	0,5	-0,016450
0,491833	0,5	-0,043550
0,500167	0,5	-0,046650
0,508500	0,5	-0,028250
0,516833	0,5	-0,058750
0,525167	0,5	-0,057300
0,533500	0,5	-0,047650
0,541833	0,5	-0,029300
0,550167	0,5	0,012300
0,558500	0,5	-0,006800
0,566833	0,5	-0,015400
0,575167	0,5	-0,015300
0,583500	0,5	-0,004650
0,591833	0,5	-0,020050
0,600167	0,5	-0,021400
0,608500	0,5	-0,027100
0,616833	0,5	-0,030800
0,625167	0,5	-0,026500
0,633500	0,5	-0,035450
0,641833	0,5	-0,048350
0,650167	0,5	-0,038250
0,658500	0,5	-0,033750
0,666833	0,5	-0,060700
0,675167	0,5	-0,049000
0,683500	0,5	-0,054150
0,691833	0,5	-0,018000
0,700167	0,5	-0,006750
0,708500	0,5	-0,004150
0,716833	0,5	-0,020350
0,725167	0,5	-0,017500
0,733500	0,5	-0,029200
0,741833	0,5	-0,026150
0,750167	0,5	-0,040300
0,758500	0,5	-0,045600
0,766833	0,5	-0,049250
0,775167	0,5	-0,044450
0,783500	0,5	-0,040300
0,791833	0,5	-0,048900
0,800167	0,5	-0,037450
0,808500	0,5	-0,048000
0,816833	0,5	-0,071600
0,825167	0,5	-0,065800
0,833500	0,5	-0,057800
0,841833	0,5	-0,029250
0,850167	0,5	-0,022550
0,858500	0,5	-0,041100
0,866833	0,5	-0,036800
0,875167	0,5	-0,043700
0,883500	0,5	-0,039450
0,891833	0,5	-0,050800
0,900167	0,5	-0,044550
0,908500	0,5	-0,052000
0,916833	0,5	-0,051750
0,925167	0,5	-0,054200
0,933500	0,5	-0,069050
0,941833	0,5	-0,075950
0,950167	0,5	-0,044100
0,958500	0,5	-0,069000
0,966833	0,5	-0,080350
0,975167	0,5	-0,073000
0,983500	0,5	-0,052250
0,991833	0,5	-0,030000
1,000167	0,5	-0,050300
1,008500	0,5	-0,053900
1,016833	0,5	-0,055100
1,025167	0,5	-0,050100
1,033500	0,5	-0,064850
1,041833	0,5	-0,061050
1,050167	0,5	-0,066600
1,058500	0,5	-0,066900
1,066833	0,5	-0,073700
1,075167	0,5	-0,060750
1,083500	0,5	-0,094400
1,091833	0,5	-0,080450
1,100167	0,5	-0,070600
1,108500	0,5	-0,083700
1,116833	0,5	-0,100000
1,125167	0,5	-0,088300
1,133500	0,5	-0,068600
1,141833	0,5	-0,041100
1,150167	0,5	-0,059200
1,158500	0,5	-0,066400
1,166833	0,5	-0,068050
1,175167	0,5	-0,059700
1,183500	0,5	-0,065300
1,191833	0,5	-0,060150
1,200167	0,5	-0,069250
1,208500	0,5	-0,074150
1,216833	0,5	-0,071350
1,225167	0,5	-0,074050
1,233500	0,5	-0,088950
1,241833	0,5	-0,069350
1,250167	0,5	-0,079750
1,258500	0,5	-0,095050
1,266833	0,5	-0,093700
1,275167	0,5	-0,085250
1,283500	0,5	-0,040650
1,291833	0,5	-0,042200
1,300167	0,5	-0,054750
1,308500	0,5	-0,068850
1,316833	0,5	-0,064500
1,325167	0,5	-0,074250
1,333500	0,5	-0,071100
1,341833	0,5	-0,070350
1,350167	0,5	-0,081750
1,358500	0,5	-0,078750
1,366833	0,5	-0,088600
1,375167	0,5	-0,055500
1,383500	0,5	-0,077000
1,391833	0,5	-0,049050
1,400167	0,5	-0,079500
1,408500	0,5	-0,087350
1,416833	0,5	-0,093450
1,425167	0,5	-0,075800
1,433500	0,5	-0,045350
1,441833	0,5	-0,042450
1,450167	0,5	-0,067500
1,458500	0,5	-0,057000
1,466833	0,5	-0,067650
1,475167	0,5	-0,053750
1,483500	0,5	-0,061850
1,491833	0,5	-0,062600
1,500167	0,5	-0,071100
1,508500	0,5	-0,069550
1,516833	0,5	-0,066500
1,525167	0,5	-0,082150
1,533500	0,5	-0,086500
1,541833	0,5	-0,073400
1,550167	0,5	-0,091650
1,558500	0,5	-0,093200
1,566833	0,5	-0,110750
1,575167	0,5	-0,194050
1,583500	0,5	-0,575800
1,591833	0,5	-1,491000
1,600167	0,5	-2,369150
1,608500	0,5	-2,152400
1,616833	0,5	-0,298300
1,625167	0,5	2,805100
1,633500	0,5	8,509650
1,641833	0,5	18,611750
1,650167	0,5	29,960750
1,658500	0,5	35,319701
1,666833	0,5	32,507500
1,675167	0,5	26,173900
1,683500	0,5	20,486900
1,691833	0,5	16,284900
1,700167	0,5	13,209150
1,708500	0,5	10,882900
1,716833	0,5	9,060000
1,725167	0,5	7,663600
1,733500	0,5	6,559650
1,741833	0,5	5,689500
1,750167	0,5	4,924700
1,758500	0,5	4,259500
1,766833	0,5	3,668750
1,775167	0,5	3,228950
1,783500	0,5	2,920850
1,791833	0,5	2,814250
1,800167	0,5	2,914500
1,808500	0,5	3,175350
1,816833	0,5	3,409750
1,825167	0,5	3,543400
1,833500	0,5	3,559800
1,841833	0,5	3,428200
1,850167	0,5	3,221450
1,858500	0,5	3,015750
1,866833	0,5	2,820300
1,875167	0,5	2,671000
1,883500	0,5	2,502600
1,891833	0,5	2,335950
1,900167	0,5	2,205750
1,908500	0,5	2,086050
1,916833	0,5	1,980550
1,925167	0,5	1,893000
1,933500	0,5	1,830550
1,941833	0,5	1,774750
1,950167	0,5	1,752150
1,958500	0,5	1,727900
1,966833	0,5	1,712200
1,975167	0,5	1,691650
1,983500	0,5	1,672350
1,991833	0,5	1,594850
2,000167	0,5	1,565000
2,008500	0,5	1,584500
2,016833	0,5	1,686400
2,025167	0,5	1,892700
2,033500	0,5	2,218550
2,041833	0,5	2,854950
2,050167	0,5	3,922200
2,058500	0,5	5,339750
2,066833	0,5	6,979400
2,075167	0,5	8,933050
2,083500	0,5	11,128200
2,091833	0,5	13,042050
2,100167	0,5	14,235650
2,108500	0,5	14,733450
2,116833	0,5	14,740000
2,125167	0,5	14,544400
2,133500	0,5	14,207350
2,141833	0,5	13,815550
2,150167	0,5	13,443250
2,158500	0,5	13,145950
2,166833	0,5	12,975800
2,175167	0,5	12,896900
2,183500	0,5	12,739450
2,191833	0,5	12,428500
2,200167	0,5	12,006550
2,208500	0,5	11,643850
2,216833	0,5	11,366600
2,225167	0,5	11,120800
2,233500	0,5	10,835850
2,241833	0,5	10,554300
2,250167	0,5	10,330800
2,258500	0,5	10,161650
2,266833	0,5	10,028150
2,275167	0,5	9,955050
2,283500	0,5	9,875750
2,291833	0,5	9,811500
2,300167	0,5	9,777600
2,308500	0,5	9,771000
2,316833	0,5	9,801800
2,325167	0,5	9,797300
2,333500	0,5	9,800100
2,341833	0,5	9,803350
2,350167	0,5	9,832850
2,358500	0,5	9,852550
2,366833	0,5	9,890750
2,375167	0,5	9,913250
2,383500	0,5	9,933200
2,391833	0,5	9,959850
2,400167	0,5	9,990150
2,408500	0,5	10,032900
2,416833	0,5	10,065400
2,425167	0,5	10,133550
2,433500	0,5	10,165400
2,441833	0,5	10,220500
2,450167	0,5	10,269200
2,458500	0,5	10,355700
2,466833	0,5	10,452950
2,475167	0,5	10,537100
2,483500	0,5	10,591500
2,491833	0,5	10,655600
2,500167	0,5	10,643050
2,508500	0,5	10,605000
2,516833	0,5	10,575200
2,525167	0,5	10,617050
2,533500	0,5	10,653800
2,541833	0,5	10,704500
2,550167	0,5	10,720900
2,558500	0,5	10,716450
2,566833	0,5	10,702050
2,575167	0,5	10,686650
2,583500	0,5	10,637450
2,591833	0,5	10,604200
2,600167	0,5	10,581050
2,608500	0,5	10,582700
2,616833	0,5	10,598350
2,625167	0,5	10,612550
2,633500	0,5	10,669650
2,641833	0,5	10,772750
2,650167	0,5	10,887800
2,658500	0,5	10,983900
2,666833	0,5	11,059900
2,675167	0,5	11,072400
2,683500	0,5	11,054400
2,691833	0,5	11,009500
2,700167	0,5	10,939900
2,708500	0,5	10,859750
2,716833	0,5	10,810300
2,725167	0,5	10,739500
2,733500	0,5	10,684300
2,741833	0,5	10,668350
2,750167	0,5	10,696200
2,758500	0,5	10,818600
2,766833	0,5	11,009900
2,775167	0,5	11,322250
2,783500	0,5	11,827350
2,791833	0,5	12,623700
2,800167	0,5	13,709150
2,808500	0,5	15,000750
2,816833	0,5	16,293050
2,825167	0,5	17,429200
2,833500	0,5	18,378650
2,841833	0,5	19,163250
2,850167	0,5	19,649400
2,858500	0,5	19,649500
2,866833	0,5	19,026150
2,875167	0,5	17,820850
2,883500	0,5	16,362600
2,891833	0,5	15,021200
2,900167	0,5	13,990500
2,908500	0,5	13,376600
2,916833	0,5	13,040900
2,925167	0,5	12,892400
2,933500	0,5	12,721750
2,941833	0,5	12,363650
2,950167	0,5	11,754000
2,958500	0,5	10,988600
2,966833	0,5	10,193450
2,975167	0,5	9,445800
2,983500	0,5	8,805350
2,991833	0,5	8,249500
3,000167	0,5	7,779250
3,008500	0,5	7,376950
3,016833	0,5	7,041250
3,025167	0,5	6,706550
3,033500	0,5	6,419850
3,041833	0,5	6,163700
3,050167	0,5	5,939900
3,058500	0,5	5,723950
3,066833	0,5	5,506650
3,075167	0,5	5,297200
3,083500	0,5	5,118650
3,091833	0,5	4,933900
3,100167	0,5	4,766450
3,108500	0,5	4,605200
3,116833	0,5	4,450450
3,125167	0,5	4,299400
3,133500	0,5	4,148900
3,141833	0,5	4,013500
3,150167	0,5	3,856550
3,158500	0,5	3,731100
3,166833	0,5	3,602800
3,175167	0,5	3,464050
3,183500	0,5	3,338450
3,191833	0,5	3,239400
3,200167	0,5	3,147750
3,208500	0,5	3,066800
3,216833	0,5	2,953150
3,225167	0,5	2,866400
3,233500	0,5	2,785250
3,241833	0,5	2,706000
3,250167	0,5	2,634150
3,258500	0,5	2,585400
3,266833	0,5	2,552150
3,275167	0,5	2,569500
3,283500	0,5	2,644900
3,291833	0,5	2,768400
3,300167	0,5	2,922400
3,308500	0,5	3,100200
3,316833	0,5	3,169450
3,325167	0,5	3,134250
3,333500	0,5	2,996700
3,341833	0,5	2,797000
3,350167	0,5	2,586350
3,358500	0,5	2,348200
3,366833	0,5	2,142950
3,375167	0,5	1,956550
3,383500	0,5	1,816650
3,391833	0,5	1,689250
3,400167	0,5	1,587250
3,408500	0,5	1,491600
3,416833	0,5	1,404450
3,425167	0,5	1,329550
3,433500	0,5	1,267000
3,441833	0,5	1,198700
3,450167	0,5	1,149300
3,458500	0,5	1,110500
3,466833	0,5	1,057050
3,475167	0,5	1,014500
3,483500	0,5	0,975550
3,491833	0,5	0,945600
3,500167	0,5	0,929050
3,508500	0,5	0,887450
3,516833	0,5	0,830450
3,525167	0,5	0,793950
3,533500	0,5	0,750100
3,541833	0,5	0,713300
3,550167	0,5	0,672950
3,558500	0,5	0,640800
3,566833	0,5	0,600250
3,575167	0,5	0,582600
3,583500	0,5	0,542950
3,591833	0,5	0,514900
3,600167	0,5	0,498000
3,608500	0,5	0,477250
3,616833	0,5	0,433100
3,625167	0,5	0,411950
3,633500	0,5	0,391750
3,641833	0,5	0,401300
3,650167	0,5	0,394500
3,658500	0,5	0,370100
3,666833	0,5	0,347850
3,675167	0,5	0,343100
3,683500	0,5	0,321850
3,691833	0,5	0,299200
3,700167	0,5	0,287600
3,708500	0,5	0,260050
3,716833	0,5	0,248500
3,725167	0,5	0,230950
3,733500	0,5	0,211450
3,741833	0,5	0,180250
3,750167	0,5	0,187750
3,758500	0,5	0,163850
3,766833	0,5	0,149500
3,775167	0,5	0,145250
3,783500	0,5	0,140650
3,791833	0,5	0,158200
3,800167	0,5	0,143750
3,808500	0,5	0,133650
3,816833	0,5	0,135700
3,825167	0,5	0,131800
3,833500	0,5	0,133050
3,841833	0,5	0,134100
3,850167	0,5	0,143750
3,858500	0,5	0,152950
3,866833	0,5	0,179000
3,875167	0,5	0,230700
3,883500	0,5	0,261400
3,891833	0,5	0,317850
3,900167	0,5	0,386000
3,908500	0,5	0,402550
3,916833	0,5	0,413050
3,925167	0,5	0,408000
3,933500	0,5	0,385000
3,941833	0,5	0,366700
3,950167	0,5	0,295400
3,958500	0,5	0,246650
3,966833	0,5	0,193200
3,975167	0,5	0,162500
3,983500	0,5	0,116050
3,991833	0,5	0,089000
4,000167	0,5	0,064500
4,008500	0,5	0,040600
4,016833	0,5	0,028500
4,025167	0,5	0,019300
4,033500	0,5	0,002500
4,041833	0,5	0,004800
4,050167	0,5	0,001200
4,058500	0,5	-0,021900
4,066833	0,5	-0,031300
4,075167	0,5	-0,026950
4,083500	0,5	-0,003350
4,091833	0,5	0,004650
4,100167	0,5	0,001450
4,108500	0,5	-0,005650
4,116833	0,5	0,010800
4,125167	0,5	0,005100
4,133500	0,5	0,010900
4,141833	0,5	0,001650
4,150167	0,5	-0,005150
4,158500	0,5	-0,022750
4,166833	0,5	-0,032500
4,175167	0,5	-0,034100
4,183500	0,5	-0,061400
4,191833	0,5	-0,061700
4,200167	0,5	-0,077150
4,208500	0,5	-0,097850
4,216833	0,5	-0,112550
4,225167	0,5	-0,112950
4,233500	0,5	-0,099500
4,241833	0,5	-0,088550
4,250167	0,5	-0,104700
4,258500	0,5	-0,108100
4,266833	0,5	-0,113000
4,275167	0,5	-0,112600
4,283500	0,5	-0,123250
4,291833	0,5	-0,117400
4,300167	0,5	-0,134200
4,308500	0,5	-0,134050
4,316833	0,5	-0,133100
4,325167	0,5	-0,138500
4,333500	0,5	-0,154750
4,341833	0,5	-0,133350
4,350167	0,5	-0,149150
4,358500	0,5	-0,147750
4,366833	0,5	-0,157000
4,375167	0,5	-0,142850
4,383500	0,5	-0,107150
4,391833	0,5	-0,110150
4,400167	0,5	-0,111600
4,408500	0,5	-0,121000
4,416833	0,5	-0,114350
4,425167	0,5	-0,118050
4,433500	0,5	-0,108500
4,441833	0,5	-0,105500
4,450167	0,5	-0,099600
4,458500	0,5	-0,090650
4,466833	0,5	-0,078950
4,475167	0,5	-0,083450
4,483500	0,5	-0,049650
4,491833	0,5	-0,027150
4,500167	0,5	-0,019900
4,508500	0,5	0,006100
4,516833	0,5	0,038550
4,525167	0,5	0,092950
4,533500	0,5	0,147750
4,541833	0,5	0,197400
4,550167	0,5	0,252100
4,558500	0,5	0,322250
4,566833	0,5	0,406400
4,575167	0,5	0,516700
4,583500	0,5	0,668700
4,591833	0,5	0,855800
4,600167	0,5	1,084900
4,608500	0,5	1,399600
4,616833	0,5	1,764900
4,625167	0,5	2,208300
4,633500	0,5	2,713350
4,641833	0,5	3,243400
4,650167	0,5	3,745550
4,658500	0,5	4,203850
4,666833	0,5	4,551950
4,675167	0,5	4,789800
4,683500	0,5	4,857150
4,691833	0,5	4,748400
4,700167	0,5	4,480700
4,708500	0,5	4,116000
4,716833	0,5	3,672950
4,725167	0,5	3,209450
4,733500	0,5	2,750650
4,741833	0,5	2,316400
4,750167	0,5	1,929000
4,758500	0,5	1,596000
4,766833	0,5	1,318150
4,775167	0,5	1,076650
4,783500	0,5	0,916050
4,791833	0,5	0,754250
4,800167	0,5	0,629750
4,808500	0,5	0,533050
4,816833	0,5	0,470200
4,825167	0,5	0,434900
4,833500	0,5	0,382050
4,841833	0,5	0,335150
4,850167	0,5	0,307750
4,858500	0,5	0,277700
4,866833	0,5	0,254600
4,875167	0,5	0,232550
4,883500	0,5	0,212650
4,891833	0,5	0,197450
4,900167	0,5	0,178000
4,908500	0,5	0,165600
4,916833	0,5	0,141500
4,925167	0,5	0,126750
4,933500	0,5	0,140400
4,941833	0,5	0,120150
4,950167	0,5	0,107300
4,958500	0,5	0,109500
4,966833	0,5	0,119000
4,975167	0,5	0,144250
4,983500	0,5	0,117550
4,991833	0,5	0,120950
5,000167	0,5	0,098650
5,008500	0,5	0,097800
5,016833	0,5	0,073400
5,025167	0,5	0,058300
5,033500	0,5	0,040150
5,041833	0,5	0,024050
5,050167	0,5	0,011950
5,058500	0,5	0,006850
5,066833	0,5	-0,014450
5,075167	0,5	-0,008650
5,083500	0,5	-0,018650
5,091833	0,5	-0,028200
5,100167	0,5	-0,031850
5,108500	0,5	-0,032900
5,116833	0,5	-0,015150
5,125167	0,5	-0,006700
5,133500	0,5	-0,016000
5,141833	0,5	-0,022950
5,150167	0,5	-0,017800
5,158500	0,5	-0,026350
5,166833	0,5	-0,018100
5,175167	0,5	-0,013400
5,183500	0,5	-0,009200
5,191833	0,5	-0,013300
5,200167	0,5	0,004400
5,208500	0,5	0,016300
5,216833	0,5	0,006400
5,225167	0,5	0,026550
5,233500	0,5	0,022350
5,241833	0,5	0,021400
5,250167	0,5	0,026600
5,258500	0,5	0,050300
5,266833	0,5	0,090600
5,275167	0,5	0,125400
5,283500	0,5	0,143100
5,291833	0,5	0,182400
5,300167	0,5	0,225500
5,308500	0,5	0,259700
5,316833	0,5	0,288400
5,325167	0,5	0,326100
5,333500	0,5	0,344900
5,341833	0,5	0,364300
5,350167	0,5	0,370950
5,358500	0,5	0,362550
5,366833	0,5	0,346400
5,375167	0,5	0,340500
5,383500	0,5	0,297900
5,391833	0,5	0,270150
5,400167	0,5	0,242350
5,408500	0,5	0,236050
5,416833	0,5	0,227600
5,425167	0,5	0,201000
5,433500	0,5	0,179200
5,441833	0,5	0,161850
5,450167	0,5	0,149800
5,458500	0,5	0,138800
5,466833	0,5	0,129100
5,475167	0,5	0,123400
5,483500	0,5	0,116600
5,491833	0,5	0,114500
5,500167	0,5	0,122200
5,508500	0,5	0,107400
5,516833	0,5	0,114100
5,525167	0,5	0,112200
5,533500	0,5	0,105100
5,541833	0,5	0,104950
5,550167	0,5	0,107850
5,558500	0,5	0,123550
5,566833	0,5	0,143550
5,575167	0,5	0,143200
5,583500	0,5	0,149050
5,591833	0,5	0,148750
5,600167	0,5	0,153550
5,608500	0,5	0,151350
5,616833	0,5	0,152400
5,625167	0,5	0,151800
5,633500	0,5	0,146450
5,641833	0,5	0,150000
5,650167	0,5	0,141400
5,658500	0,5	0,142350
5,666833	0,5	0,163900
5,675167	0,5	0,158950
5,683500	0,5	0,149750
5,691833	0,5	0,154250
5,700167	0,5	0,160250
5,708500	0,5	0,196500
5,716833	0,5	0,198150
5,725167	0,5	0,199600
5,733500	0,5	0,198300
5,741833	0,5	0,204650
5,750167	0,5	0,197650
5,758500	0,5	0,204500
5,766833	0,5	0,205500
5,775167	0,5	0,210400
5,783500	0,5	0,212150
5,791833	0,5	0,216550
5,800167	0,5	0,218500
5,808500	0,5	0,221300
5,816833	0,5	0,247850
5,825167	0,5	0,239800
5,833500	0,5	0,230850
5,841833	0,5	0,234200
5,850167	0,5	0,248050
5,858500	0,5	0,271250
5,866833	0,5	0,276400
5,875167	0,5	0,267600
5,883500	0,5	0,277850
5,891833	0,5	0,281450
5,900167	0,5	0,287250
5,908500	0,5	0,294450
5,916833	0,5	0,302600
5,925167	0,5	0,294900
5,933500	0,5	0,300900
5,941833	0,5	0,301950
5,950167	0,5	0,298150
5,958500	0,5	0,298650
5,966833	0,5	0,321200
5,975167	0,5	0,308800
5,983500	0,5	0,308400
5,991833	0,5	0,312600
6,000167	0,5	0,324750
6,008500	0,5	0,357250
6,016833	0,5	0,345250
6,025167	0,5	0,348700
6,033500	0,5	0,350750
6,041833	0,5	0,357450
6,050167	0,5	0,353600
6,058500	0,5	0,362150
6,066833	0,5	0,360800
6,075167	0,5	0,366200
6,083500	0,5	0,368950
6,091833	0,5	0,368450
6,100167	0,5	0,361150
6,108500	0,5	0,377650
6,116833	0,5	0,380500
6,125167	0,5	0,378700
6,133500	0,5	0,374250
6,141833	0,5	0,387650
6,150167	0,5	0,408250
6,158500	0,5	0,426400
6,166833	0,5	0,422300
6,175167	0,5	0,413700
6,183500	0,5	0,424650
6,191833	0,5	0,424100
6,200167	0,5	0,428500
6,208500	0,5	0,427700
6,216833	0,5	0,439750
6,225167	0,5	0,431550
6,233500	0,5	0,443600
6,241833	0,5	0,437700
6,250167	0,5	0,435000
6,258500	0,5	0,447600
6,266833	0,5	0,447000
6,275167	0,5	0,440800
6,283500	0,5	0,445400
6,291833	0,5	0,445700
6,300167	0,5	0,474300
6,308500	0,5	0,484850
6,316833	0,5	0,487500
6,325167	0,5	0,485950
6,333500	0,5	0,491850
6,341833	0,5	0,489050
6,350167	0,5	0,495550
6,358500	0,5	0,495150
6,366833	0,5	0,493250
6,375167	0,5	0,505400
6,383500	0,5	0,504950
6,391833	0,5	0,511450
6,400167	0,5	0,507250
6,408500	0,5	0,516650
6,416833	0,5	0,511600
6,425167	0,5	0,517250
6,433500	0,5	0,516050
6,441833	0,5	0,539100
6,450167	0,5	0,558900
6,458500	0,5	0,561250
6,466833	0,5	0,558550
6,475167	0,5	0,567650
6,483500	0,5	0,564800
6,491833	0,5	0,571700
6,500167	0,5	0,578750
6,508500	0,5	0,582000
6,516833	0,5	0,583650
6,525167	0,5	0,590400
6,533500	0,5	0,599900
6,541833	0,5	0,593700
6,550167	0,5	0,606950
6,558500	0,5	0,606600
6,566833	0,5	0,606800
6,575167	0,5	0,606800
6,583500	0,5	0,618400
6,591833	0,5	0,640750
6,600167	0,5	0,662000
6,608500	0,5	0,658650
6,616833	0,5	0,668900
6,625167	0,5	0,676900
6,633500	0,5	0,684950
6,641833	0,5	0,688850
6,650167	0,5	0,693350
6,658500	0,5	0,696300
6,666833	0,5	0,700100
6,675167	0,5	0,708850
6,683500	0,5	0,701050
6,691833	0,5	0,700700
6,700167	0,5	0,723700
6,708500	0,5	0,720500
6,716833	0,5	0,721500
6,725167	0,5	0,733200
6,733500	0,5	0,746200
6,741833	0,5	0,776000
6,750167	0,5	0,779700
6,758500	0,5	0,790200
6,766833	0,5	0,784650
6,775167	0,5	0,797950
6,783500	0,5	0,801250
6,791833	0,5	0,815550
6,800167	0,5	0,812350
6,808500	0,5	0,820250
6,816833	0,5	0,828900
6,825167	0,5	0,846500
6,833500	0,5	0,844600
6,841833	0,5	0,851800
6,850167	0,5	0,870900
6,858500	0,5	0,869250
6,866833	0,5	0,872700
6,875167	0,5	0,883300
6,883500	0,5	0,905050
6,891833	0,5	0,930350
6,900167	0,5	0,932550
6,908500	0,5	0,929500
6,916833	0,5	0,944900
6,925167	0,5	0,957600
6,933500	0,5	0,972450
6,941833	0,5	0,981000
6,950167	0,5	0,986800
6,958500	0,5	0,987100
6,966833	0,5	0,998550
6,975167	0,5	1,010950
6,983500	0,5	1,015400
6,991833	0,5	1,021150
7,000167	0,5	1,042800
7,008500	0,5	1,037650
7,016833	0,5	1,042550
7,025167	0,5	1,056650
7,033500	0,5	1,087750
7,041833	0,5	1,110550
7,050167	0,5	1,108750
7,058500	0,5	1,116400
7,066833	0,5	1,128300
7,075167	0,5	1,136800
7,083500	0,5	1,147450
7,091833	0,5	1,155850
7,100167	0,5	1,156150
7,108500	0,5	1,167000
7,116833	0,5	1,174450
7,125167	0,5	1,186400
7,133500	0,5	1,185200
7,141833	0,5	1,203400
7,150167	0,5	1,202500
7,158500	0,5	1,206250
7,166833	0,5	1,209050
7,175167	0,5	1,220600
7,183500	0,5	1,246300
7,191833	0,5	1,259250
7,200167	0,5	1,260250
7,208500	0,5	1,267200
7,216833	0,5	1,272800
7,225167	0,5	1,278350
7,233500	0,5	1,287800
7,241833	0,5	1,295500
7,250167	0,5	1,300600
7,258500	0,5	1,304100
7,266833	0,5	1,317950
7,275167	0,5	1,309500
7,283500	0,5	1,310050
7,291833	0,5	1,320600
7,300167	0,5	1,320150
7,308500	0,5	1,321250
7,316833	0,5	1,322700
7,325167	0,5	1,335300
7,333500	0,5	1,354000
7,341833	0,5	1,366550
7,350167	0,5	1,372150
7,358500	0,5	1,376500
7,366833	0,5	1,380500
7,375167	0,5	1,377200
7,383500	0,5	1,385900
7,391833	0,5	1,382100
7,400167	0,5	1,384350
7,408500	0,5	1,390150
7,416833	0,5	1,389250
7,425167	0,5	1,389700
7,433500	0,5	1,391850
7,441833	0,5	1,403650
7,450167	0,5	1,397350
7,458500	0,5	1,400450
7,466833	0,5	1,396750
7,475167	0,5	1,416700
7,483500	0,5	1,432500
7,491833	0,5	1,444000
7,500167	0,5	1,438650
7,508500	0,5	1,450450
7,516833	0,5	1,449450
7,525167	0,5	1,459050
7,533500	0,5	1,462300
7,541833	0,5	1,472500
7,550167	0,5	1,481250
7,558500	0,5	1,496150
7,566833	0,5	1,513000
7,575167	0,5	1,530100
7,583500	0,5	1,560400
7,591833	0,5	1,604250
7,600167	0,5	1,636600
7,608500	0,5	1,680750
7,616833	0,5	1,729000
7,625167	0,5	1,805550
7,633500	0,5	1,882550
7,641833	0,5	1,983850
7,650167	0,5	2,138100
7,658500	0,5	2,362450
7,666833	0,5	2,711350
7,675167	0,5	3,199050
7,683500	0,5	3,824050
7,691833	0,5	4,528950
7,700167	0,5	5,209500
7,708500	0,5	5,732450
7,716833	0,5	5,972800
7,725167	0,5	5,888150
7,733500	0,5	5,542250
7,741833	0,5	4,989150
7,750167	0,5	4,383750
7,758500	0,5	3,812250
7,766833	0,5	3,339550
7,775167	0,5	2,979550
7,783500	0,5	2,704700
7,791833	0,5	2,511600
7,800167	0,5	2,382150
7,808500	0,5	2,295700
7,816833	0,5	2,233400
7,825167	0,5	2,193300
7,833500	0,5	2,168750
7,841833	0,5	2,158000
7,850167	0,5	2,168500
7,858500	0,5	2,206200
7,866833	0,5	2,241450
7,875167	0,5	2,298350
7,883500	0,5	2,342200
7,891833	0,5	2,350550
7,900167	0,5	2,335400
7,908500	0,5	2,299100
7,916833	0,5	2,254900
7,925167	0,5	2,210900
7,933500	0,5	2,156000
7,941833	0,5	2,097450
7,950167	0,5	2,052400
7,958500	0,5	2,004850
7,966833	0,5	1,960800
7,975167	0,5	1,926250
7,983500	0,5	1,890900
7,991833	0,5	1,851950
8,000167	0,5	1,820750
8,008500	0,5	1,807200
8,016833	0,5	1,788200
8,025167	0,5	1,768100
8,033500	0,5	1,761000
8,041833	0,5	1,740100
8,050167	0,5	1,726550
8,058500	0,5	1,718950
8,066833	0,5	1,719450
8,075167	0,5	1,715800
8,083500	0,5	1,711550
8,091833	0,5	1,704500
8,100167	0,5	1,701750
8,108500	0,5	1,700000
8,116833	0,5	1,698900
8,125167	0,5	1,703600
8,133500	0,5	1,702750
8,141833	0,5	1,696700
8,150167	0,5	1,705450
8,158500	0,5	1,719000
8,166833	0,5	1,716000
8,175167	0,5	1,723900
8,183500	0,5	1,730300
8,191833	0,5	1,741450
8,200167	0,5	1,752750
8,208500	0,5	1,777600
8,216833	0,5	1,806550
8,225167	0,5	1,833300
8,233500	0,5	1,848400
8,241833	0,5	1,874550
8,250167	0,5	1,901800
8,258500	0,5	1,950800
8,266833	0,5	2,014300
8,275167	0,5	2,091750
8,283500	0,5	2,175950
8,291833	0,5	2,272100
8,300167	0,5	2,386550
8,308500	0,5	2,526450
8,316833	0,5	2,737500
8,325167	0,5	3,070700
8,333500	0,5	3,612500
8,341833	0,5	4,472750
8,350167	0,5	5,733100
8,358500	0,5	7,366150
8,366833	0,5	9,161200
8,375167	0,5	10,712700
8,383500	0,5	11,611650
8,391833	0,5	11,612000
8,400167	0,5	10,751600
8,408500	0,5	9,316700
8,416833	0,5	7,682150
8,425167	0,5	6,156800
8,433500	0,5	4,913600
8,441833	0,5	3,984450
8,450167	0,5	3,330600
8,458500	0,5	2,888000
8,466833	0,5	2,598800
8,475167	0,5	2,404900
8,483500	0,5	2,267800
8,491833	0,5	2,168350
8,500167	0,5	2,102200
8,508500	0,5	2,058850
8,516833	0,5	2,023300
8,525167	0,5	1,993650
8,533500	0,5	1,961650
8,541833	0,5	1,942350
8,550167	0,5	1,929500
8,558500	0,5	1,923200
8,566833	0,5	1,925050
8,575167	0,5	1,935600
8,583500	0,5	1,945650
8,591833	0,5	1,959750
8,600167	0,5	1,958550
8,608500	0,5	1,938400
8,616833	0,5	1,908500
8,625167	0,5	1,872850
8,633500	0,5	1,835250
8,641833	0,5	1,814200
8,650167	0,5	1,790350
8,658500	0,5	1,781550
8,666833	0,5	1,780550
8,675167	0,5	1,773550
8,683500	0,5	1,764700
8,691833	0,5	1,774400
8,700167	0,5	1,780400
8,708500	0,5	1,799700
8,716833	0,5	1,828100
8,725167	0,5	1,864650
8,733500	0,5	1,916600
8,741833	0,5	1,977550
8,750167	0,5	2,043600
8,758500	0,5	2,115350
8,766833	0,5	2,227400
8,775167	0,5	2,417500
8,783500	0,5	2,747000
8,791833	0,5	3,282050
8,800167	0,5	4,016800
8,808500	0,5	4,821550
8,816833	0,5	5,450650
8,825167	0,5	5,713700
8,833500	0,5	5,549200
8,841833	0,5	5,063800
8,850167	0,5	4,449700
8,858500	0,5	3,873450
8,866833	0,5	3,424100
8,875167	0,5	3,094250
8,883500	0,5	2,863250
8,891833	0,5	2,703450
8,900167	0,5	2,582750
8,908500	0,5	2,499350
8,916833	0,5	2,436100
8,925167	0,5	2,379200
8,933500	0,5	2,323900
8,941833	0,5	2,279200
8,950167	0,5	2,243200
8,958500	0,5	2,213600
8,966833	0,5	2,166850
8,975167	0,5	2,113650
8,983500	0,5	2,049650
8,991833	0,5	1,997050
9,000167	0,5	1,946550
9,008500	0,5	1,905600
9,016833	0,5	1,869300
9,025167	0,5	1,841550
9,033500	0,5	1,825100
9,041833	0,5	1,808900
9,050167	0,5	1,801550
9,058500	0,5	1,806450
9,066833	0,5	1,819850
9,075167	0,5	1,849050
9,083500	0,5	1,889050
9,091833	0,5	1,946950
9,100167	0,5	2,005850
9,108500	0,5	2,057750
9,116833	0,5	2,067800
9,125167	0,5	2,038400
9,133500	0,5	1,987100
9,141833	0,5	1,911900
9,150167	0,5	1,843950
9,158500	0,5	1,793150
9,166833	0,5	1,751500
9,175167	0,5	1,727000
9,183500	0,5	1,703650
9,191833	0,5	1,696100
9,200167	0,5	1,688200
9,208500	0,5	1,683650
9,216833	0,5	1,684150
9,225167	0,5	1,679300
9,233500	0,5	1,678400
9,241833	0,5	1,679300
9,250167	0,5	1,685800
9,258500	0,5	1,698350
9,266833	0,5	1,700250
9,275167	0,5	1,706250
9,283500	0,5	1,716400
9,291833	0,5	1,722400
9,300167	0,5	1,727800
9,308500	0,5	1,736000
9,316833	0,5	1,742650
9,325167	0,5	1,745250
9,333500	0,5	1,751100
9,341833	0,5	1,760650
9,350167	0,5	1,762950
9,358500	0,5	1,777250
9,366833	0,5	1,781200
9,375167	0,5	1,781150
9,383500	0,5	1,776100
9,391833	0,5	1,766700
9,400167	0,5	1,753600
9,408500	0,5	1,734100
9,416833	0,5	1,724050
9,425167	0,5	1,709200
9,433500	0,5	1,708700
9,441833	0,5	1,708600
9,450167	0,5	1,716750
9,458500	0,5	1,735650
9,466833	0,5	1,765200
9,475167	0,5	1,811200
9,483500	0,5	1,868950
9,491833	0,5	1,942450
9,500167	0,5	2,042500
9,508500	0,5	2,167550
9,516833	0,5	2,315750
9,525167	0,5	2,475650
9,533500	0,5	2,687800
9,541833	0,5	2,982450
9,550167	0,5	3,441650
9,558500	0,5	4,192200
9,566833	0,5	5,397750
9,575167	0,5	7,194250
9,583500	0,5	9,554350
9,591833	0,5	12,184200
9,600167	0,5	14,543250
9,608500	0,5	16,018300
9,616833	0,5	16,266300
9,625167	0,5	15,332650
9,633500	0,5	13,635600
9,641833	0,5	11,688100
9,650167	0,5	9,877400
9,658500	0,5	8,342950
9,666833	0,5	7,045000
9,675167	0,5	5,944450
9,683500	0,5	5,017250
9,691833	0,5	4,277700
9,700167	0,5	3,726900
9,708500	0,5	3,339850
9,716833	0,5	3,338900
9,725167	0,5	2,867200
9,733500	0,5	2,711250
9,741833	0,5	2,583650
9,750167	0,5	2,488350
9,758500	0,5	2,429500
9,766833	0,5	2,406250
9,775167	0,5	2,406200
9,783500	0,5	2,408150
9,791833	0,5	2,392450
9,800167	0,5	2,343650
9,808500	0,5	2,266300
9,816833	0,5	2,171750
9,825167	0,5	2,078950
9,833500	0,5	2,001450
9,841833	0,5	1,947300
9,850167	0,5	1,900400
9,858500	0,5	1,865700
9,866833	0,5	1,834050
9,875167	0,5	1,807250
9,883500	0,5	1,789550
9,891833	0,5	1,765300
9,900167	0,5	1,749050
9,908500	0,5	1,736050
9,916833	0,5	1,720050
9,925167	0,5	1,707400
9,933500	0,5	1,688400
9,941833	0,5	1,679300
9,950167	0,5	1,666600
9,958500	0,5	1,654250
9,966833	0,5	1,641150
9,975167	0,5	1,627100
9,983500	0,5	1,618300
9,991833	0,5	1,612550
10,000167	0,5	1,605700
10,008500	0,5	1,598550
10,016833	0,5	1,589750
10,025167	0,5	1,590150
10,033500	0,5	1,592500
10,041833	0,5	1,600650
10,050167	0,5	1,614550
10,058500	0,5	1,630400
10,066833	0,5	1,647300
10,075167	0,5	1,655750
10,083500	0,5	1,655350
10,091833	0,5	1,643750
10,100167	0,5	1,617900
10,108500	0,5	1,589350
10,116833	0,5	1,556400
10,125167	0,5	1,528900
10,133500	0,5	1,511550
10,141833	0,5	1,493950
10,150167	0,5	1,481250
10,158500	0,5	1,473250
10,166833	0,5	1,463200
10,175167	0,5	1,459800
10,183500	0,5	1,451700
10,191833	0,5	1,446000
10,200167	0,5	1,439100
10,208500	0,5	1,436750
10,216833	0,5	1,430350
10,225167	0,5	1,426700
10,233500	0,5	1,422300
10,241833	0,5	1,408900
10,250167	0,5	1,401850
10,258500	0,5	1,384850
10,266833	0,5	1,375550
10,275167	0,5	1,360700
10,283500	0,5	1,358100
10,291833	0,5	1,353600
10,300167	0,5	1,363450
10,308500	0,5	1,367400
10,316833	0,5	1,376550
10,325167	0,5	1,373500
10,333500	0,5	1,380100
10,341833	0,5	1,372100
10,350167	0,5	1,370550
10,358500	0,5	1,371500
10,366833	0,5	1,378900
10,375167	0,5	1,398700
10,383500	0,5	1,427850
10,391833	0,5	1,464350
10,400167	0,5	1,493650
10,408500	0,5	1,504450
10,416833	0,5	1,496200
10,425167	0,5	1,475950
10,433500	0,5	1,458750
10,441833	0,5	1,437300
10,450167	0,5	1,421950
10,458500	0,5	1,412350
10,466833	0,5	1,412450
10,475167	0,5	1,429150
10,483500	0,5	1,446100
10,491833	0,5	1,479900
10,500167	0,5	1,536050
10,508500	0,5	1,634250
10,516833	0,5	1,778150
10,525167	0,5	1,972150
10,533500	0,5	2,214900
10,541833	0,5	2,513100
10,550167	0,5	2,846200
10,558500	0,5	3,235800
10,566833	0,5	3,725950
10,575167	0,5	4,396450
10,583500	0,5	5,433350
10,591833	0,5	7,066500
10,600167	0,5	9,573750
10,608500	0,5	13,145800
10,616833	0,5	17,668950
10,625167	0,5	22,603100
10,633500	0,5	27,062300
10,641833	0,5	30,063700
10,650167	0,5	30,948450
10,658500	0,5	29,594450
10,666833	0,5	26,418750
10,675167	0,5	22,198850
10,683500	0,5	17,764650
10,691833	0,5	13,726050
10,700167	0,5	10,424850
10,708500	0,5	7,930500
10,716833	0,5	6,145700
10,725167	0,5	4,911500
10,733500	0,5	4,059750
10,741833	0,5	3,466850
10,750167	0,5	3,044200
10,758500	0,5	2,737750
10,766833	0,5	2,512750
10,775167	0,5	2,344050
10,783500	0,5	2,213050
10,791833	0,5	2,107450
10,800167	0,5	2,021350
10,808500	0,5	1,954200
10,816833	0,5	1,899250
10,825167	0,5	1,849150
10,833500	0,5	1,810400
10,841833	0,5	1,782550
10,850167	0,5	1,753200
10,858500	0,5	1,728750
10,866833	0,5	1,710550
10,875167	0,5	1,710200
10,883500	0,5	1,716450
10,891833	0,5	1,727500
10,900167	0,5	1,757650
10,908500	0,5	1,793200
10,916833	0,5	1,831900
10,925167	0,5	1,870350
10,933500	0,5	1,898650
10,941833	0,5	1,904200
10,950167	0,5	1,885100
10,958500	0,5	1,850050
10,966833	0,5	1,799950
10,975167	0,5	1,744650
10,983500	0,5	1,702950
10,991833	0,5	1,651150
11,000167	0,5	1,603900
11,008500	0,5	1,556800
11,016833	0,5	1,509100
11,025167	0,5	1,467300
11,033500	0,5	1,424750
11,041833	0,5	1,389100
11,050167	0,5	1,357950
11,058500	0,5	1,333750
11,066833	0,5	1,323050
11,075167	0,5	1,312100
11,083500	0,5	1,310800
11,091833	0,5	1,311350
11,100167	0,5	1,310400
11,108500	0,5	1,314300
11,116833	0,5	1,313800
11,125167	0,5	1,316450
11,133500	0,5	1,321150
11,141833	0,5	1,323850
11,150167	0,5	1,328050
11,158500	0,5	1,329750
11,166833	0,5	1,328950
11,175167	0,5	1,331350
11,183500	0,5	1,327700
11,191833	0,5	1,326900
11,200167	0,5	1,313900
11,208500	0,5	1,314600
11,216833	0,5	1,299000
11,225167	0,5	1,292600
11,233500	0,5	1,285750
11,241833	0,5	1,281300
11,250167	0,5	1,276700
11,258500	0,5	1,274950
11,266833	0,5	1,267400
11,275167	0,5	1,263450
11,283500	0,5	1,262400
11,291833	0,5	1,259900
11,300167	0,5	1,250400
11,308500	0,5	1,242400
11,316833	0,5	1,236000
11,325167	0,5	1,233350
11,333500	0,5	1,231300
11,341833	0,5	1,229400
11,350167	0,5	1,234400
11,358500	0,5	1,234150
11,366833	0,5	1,248100
11,375167	0,5	1,260750
11,383500	0,5	1,287500
11,391833	0,5	1,330850
11,400167	0,5	1,397500
11,408500	0,5	1,490900
11,416833	0,5	1,599500
11,425167	0,5	1,743500
11,433500	0,5	1,915900
11,441833	0,5	2,106100
11,450167	0,5	2,356250
11,458500	0,5	2,693800
11,466833	0,5	3,213700
11,475167	0,5	4,022800
11,483500	0,5	5,256150
11,491833	0,5	7,027900
11,500167	0,5	9,309950
11,508500	0,5	11,872350
11,516833	0,5	14,281850
11,525167	0,5	16,015150
11,533500	0,5	16,666700
11,541833	0,5	16,105150
11,550167	0,5	14,522500
11,558500	0,5	12,328400
11,566833	0,5	9,962900
11,575167	0,5	7,810150
11,583500	0,5	6,044650
11,591833	0,5	4,713050
11,600167	0,5	3,770450
11,608500	0,5	3,125900
11,616833	0,5	2,694400
11,625167	0,5	2,395600
11,633500	0,5	2,184300
11,641833	0,5	2,024550
11,650167	0,5	1,904350
11,658500	0,5	1,809200
11,666833	0,5	1,733700
11,675167	0,5	1,678000
11,683500	0,5	1,638100
11,691833	0,5	1,611400
11,700167	0,5	1,604950
11,708500	0,5	1,599950
11,716833	0,5	1,611250
11,725167	0,5	1,646450
11,733500	0,5	1,694550
11,741833	0,5	1,757650
11,750167	0,5	1,865400
11,758500	0,5	2,001650
11,766833	0,5	2,182000
11,775167	0,5	2,399500
11,783500	0,5	2,659250
11,791833	0,5	2,974150
11,800167	0,5	3,342800
11,808500	0,5	3,747950
11,816833	0,5	4,151500
11,825167	0,5	4,520700
11,833500	0,5	4,791250
11,841833	0,5	4,934900
11,850167	0,5	4,923150
11,858500	0,5	4,775600
11,866833	0,5	4,524400
11,875167	0,5	4,197650
11,883500	0,5	3,834150
11,891833	0,5	3,471350
11,900167	0,5	3,119800
11,908500	0,5	2,816700
11,916833	0,5	2,563750
11,925167	0,5	2,359850
11,933500	0,5	2,183450
11,941833	0,5	2,045100
11,950167	0,5	1,931550
11,958500	0,5	1,847900
11,966833	0,5	1,778450
11,975167	0,5	1,724900
11,983500	0,5	1,688900
11,991833	0,5	1,664250
12,000167	0,5	1,654200
12,008500	0,5	1,634700
12,016833	0,5	1,625550
12,025167	0,5	1,603150
12,033500	0,5	1,580150
12,041833	0,5	1,552600
12,050167	0,5	1,523450
12,058500	0,5	1,520100
12,066833	0,5	1,536500
12,075167	0,5	1,570750
12,083500	0,5	1,660300
12,091833	0,5	1,813950
12,100167	0,5	2,037050
12,108500	0,5	2,340850
12,116833	0,5	2,709150
12,125167	0,5	3,155200
12,133500	0,5	3,673100
12,141833	0,5	4,311300
12,150167	0,5	5,139400
12,158500	0,5	6,360950
12,166833	0,5	8,276100
12,175167	0,5	11,267450
12,183500	0,5	15,742450
12,191833	0,5	21,813400
12,200167	0,5	29,067950
12,208500	0,5	36,407751
12,216833	0,5	42,335251
12,225167	0,5	45,533351
12,233500	0,5	45,357801
12,241833	0,5	42,068051
12,250167	0,5	36,575701
12,258500	0,5	30,086950
12,266833	0,5	23,684850
12,275167	0,5	18,113950
12,283500	0,5	13,675900
12,291833	0,5	10,366450
12,300167	0,5	8,003200
12,308500	0,5	6,361350
12,316833	0,5	5,219500
12,325167	0,5	4,410850
12,333500	0,5	3,826700
12,341833	0,5	3,395750
12,350167	0,5	3,082900
12,358500	0,5	2,837550
12,366833	0,5	2,650600
12,375167	0,5	2,502950
12,383500	0,5	2,385850
12,391833	0,5	2,291850
12,400167	0,5	2,206700
12,408500	0,5	2,140050
12,416833	0,5	2,080900
12,425167	0,5	2,031500
12,433500	0,5	1,991100
12,441833	0,5	1,954050
12,450167	0,5	1,919900
12,458500	0,5	1,891050
12,466833	0,5	1,870500
12,475167	0,5	1,846200
12,483500	0,5	1,825950
12,491833	0,5	1,807950
12,500167	0,5	1,794850
12,508500	0,5	1,791550
12,516833	0,5	1,778250
12,525167	0,5	1,775600
12,533500	0,5	1,766900
12,541833	0,5	1,754050
12,550167	0,5	1,747850
12,558500	0,5	1,740400
12,566833	0,5	1,732650
12,575167	0,5	1,720400
12,583500	0,5	1,717950
12,591833	0,5	1,706950
12,600167	0,5	1,696600
12,608500	0,5	1,703200
12,616833	0,5	1,706750
12,625167	0,5	1,712900
12,633500	0,5	1,726300
12,641833	0,5	1,754300
12,650167	0,5	1,804950
12,658500	0,5	1,867800
12,666833	0,5	1,956350
12,675167	0,5	2,069500
12,683500	0,5	2,213850
12,691833	0,5	2,385050
12,700167	0,5	2,586050
12,708500	0,5	2,840850
12,716833	0,5	3,171900
12,725167	0,5	3,648400
12,733500	0,5	4,366200
12,741833	0,5	5,451100
12,750167	0,5	7,055050
12,758500	0,5	9,176950
12,766833	0,5	11,647700
12,775167	0,5	14,014400
12,783500	0,5	15,712550
12,791833	0,5	16,302500
12,800167	0,5	15,617050
12,808500	0,5	13,905300
12,816833	0,5	11,662800
12,825167	0,5	9,386750
12,833500	0,5	7,420050
12,841833	0,5	5,902200
12,850167	0,5	4,802950
12,858500	0,5	4,036800
12,866833	0,5	3,499600
12,875167	0,5	3,110650
12,883500	0,5	2,813700
12,891833	0,5	2,566950
12,900167	0,5	2,373900
12,908500	0,5	2,210800
12,916833	0,5	2,075550
12,925167	0,5	1,964450
12,933500	0,5	1,872150
12,941833	0,5	1,808100
12,950167	0,5	1,753650
12,958500	0,5	1,705050
12,966833	0,5	1,652900
12,975167	0,5	1,608350
12,983500	0,5	1,561750
12,991833	0,5	1,516600
13,000167	0,5	1,473650
13,008500	0,5	1,432200
13,016833	0,5	1,400250
13,025167	0,5	1,366800
13,033500	0,5	1,343100
13,041833	0,5	1,318600
13,050167	0,5	1,312650
13,058500	0,5	1,296400
13,066833	0,5	1,285100
13,075167	0,5	1,277000
13,083500	0,5	1,277600
13,091833	0,5	1,289050
13,100167	0,5	1,297750
13,108500	0,5	1,295600
13,116833	0,5	1,287750
13,125167	0,5	1,275750
13,133500	0,5	1,258700
13,141833	0,5	1,249250
13,150167	0,5	1,248050
13,158500	0,5	1,257650
13,166833	0,5	1,286900
13,175167	0,5	1,345850
13,183500	0,5	1,434300
13,191833	0,5	1,573150
13,200167	0,5	1,754250
13,208500	0,5	1,933000
13,216833	0,5	2,082250
13,225167	0,5	2,144400
13,233500	0,5	2,119400
13,241833	0,5	2,010700
13,250167	0,5	1,849300
13,258500	0,5	1,687250
13,266833	0,5	1,537300
13,275167	0,5	1,424700
13,283500	0,5	1,337700
13,291833	0,5	1,280400
13,300167	0,5	1,240800
13,308500	0,5	1,211350
13,316833	0,5	1,195000
13,325167	0,5	1,182300
13,333500	0,5	1,163750
13,341833	0,5	1,157750
13,350167	0,5	1,142800
13,358500	0,5	1,123050
13,366833	0,5	1,107750
13,375167	0,5	1,081850
13,383500	0,5	1,073900
13,391833	0,5	1,058050
13,400167	0,5	1,051100
13,408500	0,5	1,033450
13,416833	0,5	1,013850
13,425167	0,5	0,972800
13,433500	0,5	0,933650
13,441833	0,5	0,896550
13,450167	0,5	0,852100
13,458500	0,5	0,809950
13,466833	0,5	0,772200
13,475167	0,5	0,732050
13,483500	0,5	0,698300
13,491833	0,5	0,666850
13,500167	0,5	0,601350
13,508500	0,5	0,527750
13,516833	0,5	0,373150
13,525167	0,5	0,145400
13,533500	0,5	-0,232050
13,541833	0,5	-0,588100
13,550167	0,5	-0,787950
13,558500	0,5	-0,889400
13,566833	0,5	-0,953650
13,575167	0,5	-0,987350
13,583500	0,5	-1,017400
13,591833	0,5	-1,034600
13,600167	0,5	-1,045200
13,608500	0,5	-1,051750
13,616833	0,5	-1,050450
13,625167	0,5	-1,065100
13,633500	0,5	-1,077650
13,641833	0,5	-1,101200
13,650167	0,5	-1,139350
13,658500	0,5	-1,186650
13,666833	0,5	-1,236350
13,675167	0,5	-1,280350
13,683500	0,5	-1,308250
13,691833	0,5	-1,331000
13,700167	0,5	-1,347650
13,708500	0,5	-1,352150
13,716833	0,5	-1,352000
13,725167	0,5	-1,354800
13,733500	0,5	-1,345600
13,741833	0,5	-1,335300
13,750167	0,5	-1,326600
13,758500	0,5	-1,313350
13,766833	0,5	-1,286000
13,775167	0,5	-1,280250
13,783500	0,5	-1,255400
13,791833	0,5	-1,244650
13,800167	0,5	-1,235650
13,808500	0,5	-1,244750
13,816833	0,5	-1,256350
13,825167	0,5	-1,259150
13,833500	0,5	-1,267000
13,841833	0,5	-1,276800
13,850167	0,5	-1,283450
13,858500	0,5	-1,285900
13,866833	0,5	-1,283900
13,875167	0,5	-1,272300
13,883500	0,5	-1,264650
13,891833	0,5	-1,257000
13,900167	0,5	-1,236800
13,908500	0,5	-1,213350
13,916833	0,5	-1,191600
13,925167	0,5	-1,171350
13,933500	0,5	-1,141800
13,941833	0,5	-1,121100
13,950167	0,5	-1,101800
13,958500	0,5	-1,095600
13,966833	0,5	-1,084950
13,975167	0,5	-1,060100
13,983500	0,5	-1,048750
13,991833	0,5	-1,034150
14,000167	0,5	-1,012800
14,008500	0,5	-0,991050
14,016833	0,5	-0,972700
14,025167	0,5	-0,956800
14,033500	0,5	-0,933350
14,041833	0,5	-0,909900
14,050167	0,5	-0,879900
14,058500	0,5	-0,861450
14,066833	0,5	-0,838950
14,075167	0,5	-0,824300
14,083500	0,5	-0,800000
14,091833	0,5	-0,793000
14,100167	0,5	-0,784250
14,108500	0,5	-0,782450
14,116833	0,5	-0,773900
14,125167	0,5	-0,759350
14,133500	0,5	-0,740850
14,141833	0,5	-0,721500
14,150167	0,5	-0,698050
14,158500	0,5	-0,667050
14,166833	0,5	-0,629350
14,175167	0,5	-0,586700
14,183500	0,5	-0,537550
14,191833	0,5	-0,482500
14,200167	0,5	-0,433600
14,208500	0,5	-0,376700
14,216833	0,5	-0,340650
14,225167	0,5	-0,298350
14,233500	0,5	-0,275400
14,241833	0,5	-0,259800
14,250167	0,5	-0,249350
14,258500	0,5	-0,236450
14,266833	0,5	-0,212350
14,275167	0,5	-0,178900
14,283500	0,5	-0,155750
14,291833	0,5	-0,123600
14,300167	0,5	-0,104600
14,308500	0,5	-0,076300
14,316833	0,5	-0,048800
14,325167	0,5	-0,013900
14,333500	0,5	0,018700
14,341833	0,5	0,062450
14,350167	0,5	0,122750
14,358500	0,5	0,188850
14,366833	0,5	0,282300
14,375167	0,5	0,404550
14,383500	0,5	0,543600
14,391833	0,5	0,659800
14,400167	0,5	0,735400
14,408500	0,5	0,774300
14,416833	0,5	0,781550
14,425167	0,5	0,736200
14,433500	0,5	0,676100
14,441833	0,5	0,607000
14,450167	0,5	0,551500
14,458500	0,5	0,514200
14,466833	0,5	0,501400
14,475167	0,5	0,509050
14,483500	0,5	0,540700
14,491833	0,5	0,593650
14,500167	0,5	0,646150
14,508500	0,5	0,665400
14,516833	0,5	0,691500
14,525167	0,5	0,686900
14,533500	0,5	0,666850
14,541833	0,5	0,640650
14,550167	0,5	0,601750
14,558500	0,5	0,588400
14,566833	0,5	0,580400
14,575167	0,5	0,573000
14,583500	0,5	0,562500
14,591833	0,5	0,554950
14,600167	0,5	0,541650
14,608500	0,5	0,531650
14,616833	0,5	0,516800
14,625167	0,5	0,507850
14,633500	0,5	0,485450
14,641833	0,5	0,468850
14,650167	0,5	0,451750
14,658500	0,5	0,423550
14,666833	0,5	0,422150
14,675167	0,5	0,414150
14,683500	0,5	0,408350
14,691833	0,5	0,394500
14,700167	0,5	0,371050
14,708500	0,5	0,362700
14,716833	0,5	0,368550
14,725167	0,5	0,366800
14,733500	0,5	0,371700
14,741833	0,5	0,389450
14,750167	0,5	0,397750
14,758500	0,5	0,410150
14,766833	0,5	0,416200
14,775167	0,5	0,410050
14,783500	0,5	0,400000
14,791833	0,5	0,378850
14,800167	0,5	0,367850
14,808500	0,5	0,343000
14,816833	0,5	0,345900
14,825167	0,5	0,332100
14,833500	0,5	0,323000
14,841833	0,5	0,310550
14,850167	0,5	0,287400
14,858500	0,5	0,291050
14,866833	0,5	0,296350
14,875167	0,5	0,296050
14,883500	0,5	0,298450
14,891833	0,5	0,301500
14,900167	0,5	0,307100
14,908500	0,5	0,321900
14,916833	0,5	0,331100
14,925167	0,5	0,364750
14,933500	0,5	0,418400
14,941833	0,5	0,505500
14,950167	0,5	0,602200
14,958500	0,5	0,719250
14,966833	0,5	0,823900
14,975167	0,5	0,868800
14,983500	0,5	0,851550
14,991833	0,5	0,778950
15,000167	0,5	0,684450
15,008500	0,5	0,610000
15,016833	0,5	0,540350
15,025167	0,5	0,513250
15,033500	0,5	0,512500
15,041833	0,5	0,538350
15,050167	0,5	0,572450
15,058500	0,5	0,605250
15,066833	0,5	0,619250
15,075167	0,5	0,595300
15,083500	0,5	0,561550
15,091833	0,5	0,511100
15,100167	0,5	0,453500
15,108500	0,5	0,422850
15,116833	0,5	0,395100
15,125167	0,5	0,365500
15,133500	0,5	0,341350
15,141833	0,5	0,315100
15,150167	0,5	0,307350
15,158500	0,5	0,301400
15,166833	0,5	0,301050
15,175167	0,5	0,295250
15,183500	0,5	0,294750
15,191833	0,5	0,300650
15,200167	0,5	0,301000
15,208500	0,5	0,304350
15,216833	0,5	0,304350
15,225167	0,5	0,304800
15,233500	0,5	0,300500
15,241833	0,5	0,284200
15,250167	0,5	0,284200
15,258500	0,5	0,277100
15,266833	0,5	0,266000
15,275167	0,5	0,252600
15,283500	0,5	0,224550
15,291833	0,5	0,210400
15,300167	0,5	0,198400
15,308500	0,5	0,200200
15,316833	0,5	0,178750
15,325167	0,5	0,169750
15,333500	0,5	0,162000
15,341833	0,5	0,156100
15,350167	0,5	0,157550
15,358500	0,5	0,153250
15,366833	0,5	0,149350
15,375167	0,5	0,147350
15,383500	0,5	0,155450
15,391833	0,5	0,139150
15,400167	0,5	0,150150
15,408500	0,5	0,164150
15,416833	0,5	0,176000
15,425167	0,5	0,196700
15,433500	0,5	0,231350
15,441833	0,5	0,315050
15,450167	0,5	0,435800
15,458500	0,5	0,553050
15,466833	0,5	0,663150
15,475167	0,5	0,715000
15,483500	0,5	0,715750
15,491833	0,5	0,657900
15,500167	0,5	0,584150
15,508500	0,5	0,505000
15,516833	0,5	0,454250
15,525167	0,5	0,447950
15,533500	0,5	0,473650
15,541833	0,5	0,481900
15,550167	0,5	0,511550
15,558500	0,5	0,511800
15,566833	0,5	0,476800
15,575167	0,5	0,427350
15,583500	0,5	0,358700
15,591833	0,5	0,338350
15,600167	0,5	0,302200
15,608500	0,5	0,286150
15,616833	0,5	0,271100
15,625167	0,5	0,268400
15,633500	0,5	0,258250
15,641833	0,5	0,264650
15,650167	0,5	0,266000
15,658500	0,5	0,251900
15,666833	0,5	0,233950
15,675167	0,5	0,222500
15,683500	0,5	0,203450
15,691833	0,5	0,182550
15,700167	0,5	0,179700
15,708500	0,5	0,180650
15,716833	0,5	0,166350
15,725167	0,5	0,137500
15,733500	0,5	0,112050
15,741833	0,5	0,103250
15,750167	0,5	0,089000
15,758500	0,5	0,069000
15,766833	0,5	0,051550
15,775167	0,5	0,033850
15,783500	0,5	0,020000
15,791833	0,5	0,007400
15,800167	0,5	-0,005550
15,808500	0,5	-0,016200
15,816833	0,5	-0,033200
15,825167	0,5	-0,029650
15,833500	0,5	-0,037950
15,841833	0,5	-0,039150
15,850167	0,5	-0,019200
15,858500	0,5	-0,012300
15,866833	0,5	0,007100
15,875167	0,5	0,032450
15,883500	0,5	0,090750
15,891833	0,5	0,196450
15,900167	0,5	0,322100
15,908500	0,5	0,446250
15,916833	0,5	0,542250
15,925167	0,5	0,584050
15,933500	0,5	0,561850
15,941833	0,5	0,507250
15,950167	0,5	0,445400
15,958500	0,5	0,401850
15,966833	0,5	0,382650
15,975167	0,5	0,383450
15,983500	0,5	0,368900
15,991833	0,5	0,365550
16,000167	0,5	0,331450
16,008500	0,5	0,289300
16,016833	0,5	0,229450
16,025167	0,5	0,174700
16,033500	0,5	0,145550
16,041833	0,5	0,120400
16,050167	0,5	0,107050
16,058500	0,5	0,079800
16,066833	0,5	0,074800
16,075167	0,5	0,067900
16,083500	0,5	0,061050
16,091833	0,5	0,069300
16,100167	0,5	0,074950
16,108500	0,5	0,070950
16,116833	0,5	0,072600
16,125167	0,5	0,059000
16,133500	0,5	0,044800
16,141833	0,5	0,028050
16,150167	0,5	0,014250
16,158500	0,5	-0,004850
16,166833	0,5	-0,041200
16,175167	0,5	-0,075150
16,183500	0,5	-0,086050
16,191833	0,5	-0,098500
16,200167	0,5	-0,109050
16,208500	0,5	-0,117800
16,216833	0,5	-0,121050
16,225167	0,5	-0,127350
16,233500	0,5	-0,130450
16,241833	0,5	-0,122050
16,250167	0,5	-0,122100
16,258500	0,5	-0,106300
16,266833	0,5	-0,088400
16,275167	0,5	-0,065950
16,283500	0,5	0,000100
16,291833	0,5	0,101950
16,300167	0,5	0,223250
16,308500	0,5	0,346750
16,316833	0,5	0,429550
16,325167	0,5	0,488400
16,333500	0,5	0,490950
16,341833	0,5	0,462350
16,350167	0,5	0,403700
16,358500	0,5	0,371700
16,366833	0,5	0,352250
16,375167	0,5	0,335300
16,383500	0,5	0,308400
16,391833	0,5	0,265900
16,400167	0,5	0,202650
16,408500	0,5	0,139950
16,416833	0,5	0,085800
16,425167	0,5	0,024900
16,433500	0,5	0,008550
16,441833	0,5	0,001900
16,450167	0,5	-0,012500
16,458500	0,5	-0,024650
16,466833	0,5	-0,032400
16,475167	0,5	-0,017500
16,483500	0,5	-0,007450
16,491833	0,5	-0,009800
16,500167	0,5	-0,009050
16,508500	0,5	-0,020100
16,516833	0,5	-0,030450
16,525167	0,5	-0,046550
16,533500	0,5	-0,060700
16,541833	0,5	-0,084050
16,550167	0,5	-0,109500
16,558500	0,5	-0,110550
16,566833	0,5	-0,131100
16,575167	0,5	-0,145650
16,583500	0,5	-0,143950
16,591833	0,5	-0,143650
16,600167	0,5	-0,158800
16,608500	0,5	-0,162750
16,616833	0,5	-0,161600
16,625167	0,5	-0,128500
16,633500	0,5	-0,095900
16,641833	0,5	-0,039300
16,650167	0,5	0,038700
16,658500	0,5	0,159500
16,666833	0,5	0,286300
16,675167	0,5	0,423950
16,683500	0,5	0,520850
16,691833	0,5	0,566850
16,700167	0,5	0,583500
16,708500	0,5	0,584700
16,716833	0,5	0,559850
16,725167	0,5	0,558100
16,733500	0,5	0,541250
16,741833	0,5	0,514950
16,750167	0,5	0,469800
16,758500	0,5	0,409600
16,766833	0,5	0,384600
16,775167	0,5	0,369400
16,783500	0,5	0,363550
16,791833	0,5	0,352000
16,800167	0,5	0,352850
16,808500	0,5	0,339300
16,816833	0,5	0,320600
16,825167	0,5	0,291250
16,833500	0,5	0,257150
16,841833	0,5	0,210350
16,850167	0,5	0,173650
16,858500	0,5	0,117800
16,866833	0,5	0,059650
16,875167	0,5	0,027900
16,883500	0,5	-0,015350
16,891833	0,5	-0,051400
16,900167	0,5	-0,091750
16,908500	0,5	-0,129150
16,916833	0,5	-0,149850
16,925167	0,5	-0,154400
16,933500	0,5	-0,168100
16,941833	0,5	-0,167400
16,950167	0,5	-0,172800
16,958500	0,5	-0,168550
16,966833	0,5	-0,144900
16,975167	0,5	-0,075600
16,983500	0,5	0,011250
16,991833	0,5	0,124650
17,000167	0,5	0,236800
17,008500	0,5	0,314400
17,016833	0,5	0,337500
17,025167	0,5	0,337400
17,033500	0,5	0,296400
17,041833	0,5	0,251950
17,050167	0,5	0,194400
17,058500	0,5	0,132500
17,066833	0,5	0,095900
17,075167	0,5	0,054150
17,083500	0,5	0,022550
17,091833	0,5	-0,008100
17,100167	0,5	-0,015850
17,108500	0,5	-0,024550
17,116833	0,5	-0,009450
17,125167	0,5	-0,003400
17,133500	0,5	0,013600
17,141833	0,5	0,031100
17,150167	0,5	0,048700
17,158500	0,5	0,044550
17,166833	0,5	0,065750
17,175167	0,5	0,089000
17,183500	0,5	0,112900
17,191833	0,5	0,155250
17,200167	0,5	0,200900
17,208500	0,5	0,292650
17,216833	0,5	0,424650
17,225167	0,5	0,582200
17,233500	0,5	0,790350
17,241833	0,5	1,043750
17,250167	0,5	1,341300
17,258500	0,5	1,664550
17,266833	0,5	2,008900
17,275167	0,5	2,372050
17,283500	0,5	2,709700
17,291833	0,5	3,026650
17,300167	0,5	3,251850
17,308500	0,5	3,375650
17,316833	0,5	3,408050
17,325167	0,5	3,350750
17,333500	0,5	3,195600
17,341833	0,5	2,968600
17,350167	0,5	2,676200
17,358500	0,5	2,384950
17,366833	0,5	2,078100
17,375167	0,5	1,785050
17,383500	0,5	1,527800
17,391833	0,5	1,309100
17,400167	0,5	1,121100
17,408500	0,5	0,966700
17,416833	0,5	0,841800
17,425167	0,5	0,743850
17,433500	0,5	0,648700
17,441833	0,5	0,579850
17,450167	0,5	0,505750
17,458500	0,5	0,447750
17,466833	0,5	0,405000
17,475167	0,5	0,364300
17,483500	0,5	0,333200
17,491833	0,5	0,295450
17,500167	0,5	0,302300
17,508500	0,5	0,321350
17,516833	0,5	0,366200
17,525167	0,5	0,422000
17,533500	0,5	0,508750
17,541833	0,5	0,605500
17,550167	0,5	0,704000
17,558500	0,5	0,783800
17,566833	0,5	0,811850
17,575167	0,5	0,806150
17,583500	0,5	0,771650
17,591833	0,5	0,729600
17,600167	0,5	0,638300
17,608500	0,5	0,568400
17,616833	0,5	0,491550
17,625167	0,5	0,410200
17,633500	0,5	0,330450
17,641833	0,5	0,249200
17,650167	0,5	0,196550
17,658500	0,5	0,160850
17,666833	0,5	0,109950
17,675167	0,5	0,072200
17,683500	0,5	0,031700
17,691833	0,5	-0,001700
17,700167	0,5	-0,042200
17,708500	0,5	-0,070050
17,716833	0,5	-0,092000
17,725167	0,5	-0,115450
17,733500	0,5	-0,119550
17,741833	0,5	-0,124700
17,750167	0,5	-0,136700
17,758500	0,5	-0,121750
17,766833	0,5	-0,093900
17,775167	0,5	-0,057300
17,783500	0,5	-0,013750
17,791833	0,5	0,020000
17,800167	0,5	0,072000
17,808500	0,5	0,083450
17,816833	0,5	0,074350
17,825167	0,5	0,041200
17,833500	0,5	0,009600
17,841833	0,5	-0,033200
17,850167	0,5	-0,069300
17,858500	0,5	-0,109400
17,866833	0,5	-0,136350
17,875167	0,5	-0,154450
17,883500	0,5	-0,164300
17,891833	0,5	-0,192950
17,900167	0,5	-0,208500
17,908500	0,5	-0,218350
17,916833	0,5	-0,235800
17,925167	0,5	-0,250000
17,933500	0,5	-0,281900
17,941833	0,5	-0,298850
17,950167	0,5	-0,302350
17,958500	0,5	-0,290950
17,966833	0,5	-0,290200
17,975167	0,5	-0,265350
17,983500	0,5	-0,249250
17,991833	0,5	-0,207100
18,000167	0,5	-0,148300
18,008500	0,5	-0,092300
18,016833	0,5	-0,062000
18,025167	0,5	-0,042500
18,033500	0,5	-0,046350
18,041833	0,5	-0,081550
18,050167	0,5	-0,118700
18,058500	0,5	-0,148700
18,066833	0,5	-0,191850
18,075167	0,5	-0,235100
18,083500	0,5	-0,282300
18,091833	0,5	-0,302750
18,100167	0,5	-0,307500
18,108500	0,5	-0,322150
18,116833	0,5	-0,331800
18,125167	0,5	-0,339550
18,133500	0,5	-0,342200
18,141833	0,5	-0,345950
18,150167	0,5	-0,341300
18,158500	0,5	-0,344850
18,166833	0,5	-0,333200
18,175167	0,5	-0,322400
18,183500	0,5	-0,305400
18,191833	0,5	-0,276650
18,200167	0,5	-0,221100
18,208500	0,5	-0,175200
18,216833	0,5	-0,140100
18,225167	0,5	-0,149050
18,233500	0,5	-0,173250
18,241833	0,5	-0,194200
18,250167	0,5	-0,227000
18,258500	0,5	-0,261850
18,266833	0,5	-0,287000
18,275167	0,5	-0,310050
18,283500	0,5	-0,329850
18,291833	0,5	-0,349350
18,300167	0,5	-0,356250
18,308500	0,5	-0,360850
18,316833	0,5	-0,360900
18,325167	0,5	-0,351200
18,333500	0,5	-0,372550
18,341833	0,5	-0,359150
18,350167	0,5	-0,352050
18,358500	0,5	-0,336400
18,366833	0,5	-0,320150
18,375167	0,5	-0,305750
18,383500	0,5	-0,255700
18,391833	0,5	-0,217850
18,400167	0,5	-0,201950
18,408500	0,5	-0,211600
18,416833	0,5	-0,231950
18,425167	0,5	-0,267150
18,433500	0,5	-0,291250
18,441833	0,5	-0,320050
18,450167	0,5	-0,333350
18,458500	0,5	-0,346500
18,466833	0,5	-0,341700
18,475167	0,5	-0,348800
18,483500	0,5	-0,376700
18,491833	0,5	-0,373600
18,500167	0,5	-0,374300
18,508500	0,5	-0,381700
18,516833	0,5	-0,377200
18,525167	0,5	-0,392800
18,533500	0,5	-0,357150
18,541833	0,5	-0,322500
18,550167	0,5	-0,296600
18,558500	0,5	-0,284800
18,566833	0,5	-0,275250
18,575167	0,5	-0,279500
18,583500	0,5	-0,307550
18,591833	0,5	-0,329200
18,600167	0,5	-0,370900
18,608500	0,5	-0,385900
18,616833	0,5	-0,397000
18,625167	0,5	-0,393600
18,633500	0,5	-0,419200
18,641833	0,5	-0,408500
18,650167	0,5	-0,425050
18,658500	0,5	-0,421400
18,666833	0,5	-0,438450
18,675167	0,5	-0,448600
18,683500	0,5	-0,431050
18,691833	0,5	-0,412100
18,700167	0,5	-0,417600
18,708500	0,5	-0,391850
18,716833	0,5	-0,377250
18,725167	0,5	-0,378250
18,733500	0,5	-0,382550
18,741833	0,5	-0,395250
18,750167	0,5	-0,408450
18,758500	0,5	-0,421250
18,766833	0,5	-0,421350
18,775167	0,5	-0,437350
18,783500	0,5	-0,435800
18,791833	0,5	-0,434300
18,800167	0,5	-0,432200
18,808500	0,5	-0,448100
18,816833	0,5	-0,449150
18,825167	0,5	-0,437200
18,833500	0,5	-0,395850
18,841833	0,5	-0,353000
18,850167	0,5	-0,307350
18,858500	0,5	-0,257600
18,866833	0,5	-0,218700
18,875167	0,5	-0,207300
18,883500	0,5	-0,198750
18,891833	0,5	-0,212400
18,900167	0,5	-0,241200
18,908500	0,5	-0,249300
18,916833	0,5	-0,280700
18,925167	0,5	-0,318350
18,933500	0,5	-0,332700
18,941833	0,5	-0,358650
18,950167	0,5	-0,384150
18,958500	0,5	-0,402600
18,966833	0,5	-0,410950
18,975167	0,5	-0,406450
18,983500	0,5	-0,396250
18,991833	0,5	-0,400750
19,000167	0,5	-0,416050
19,008500	0,5	-0,434600
19,016833	0,5	-0,472500
19,025167	0,5	-0,488800
19,033500	0,5	-0,511750
19,041833	0,5	-0,529400
19,050167	0,5	-0,547950
19,058500	0,5	-0,544900
19,066833	0,5	-0,547150
19,075167	0,5	-0,540650
19,083500	0,5	-0,527950
19,091833	0,5	-0,526250
19,100167	0,5	-0,520500
19,108500	0,5	-0,552100
19,116833	0,5	-0,559950
19,125167	0,5	-0,575450
19,133500	0,5	-0,579150
19,141833	0,5	-0,609250
19,150167	0,5	-0,610450
19,158500	0,5	-0,615200
19,166833	0,5	-0,604250
19,175167	0,5	-0,600300
19,183500	0,5	-0,590850
19,191833	0,5	-0,583900
19,200167	0,5	-0,577450
19,208500	0,5	-0,570450
19,216833	0,5	-0,596050
19,225167	0,5	-0,585550
19,233500	0,5	-0,591950
19,241833	0,5	-0,608350
19,250167	0,5	-0,635600
19,258500	0,5	-0,672150
19,266833	0,5	-0,677900
19,275167	0,5	-0,678200
19,283500	0,5	-0,695750
19,291833	0,5	-0,696950
19,300167	0,5	-0,708750
19,308500	0,5	-0,705750
19,316833	0,5	-0,720900
19,325167	0,5	-0,722250
19,333500	0,5	-0,734200
19,341833	0,5	-0,747000
19,350167	0,5	-0,746650
19,358500	0,5	-0,760650
19,366833	0,5	-0,785650
19,375167	0,5	-0,781700
19,383500	0,5	-0,782300
19,391833	0,5	-0,794400
19,400167	0,5	-0,804800
19,408500	0,5	-0,818900
19,416833	0,5	-0,818150
19,425167	0,5	-0,836300
19,433500	0,5	-0,843050
19,441833	0,5	-0,858900
19,450167	0,5	-0,861750
19,458500	0,5	-0,872300
19,466833	0,5	-0,867500
19,475167	0,5	-0,867000
19,483500	0,5	-0,866800
19,491833	0,5	-0,872300
19,500167	0,5	-0,872450
19,508500	0,5	-0,904350
19,516833	0,5	-0,906300
19,525167	0,5	-0,907000
19,533500	0,5	-0,908650
19,541833	0,5	-0,916400
19,550167	0,5	-0,942500
19,558500	0,5	-0,944050
19,566833	0,5	-0,942350
19,575167	0,5	-0,935150
19,583500	0,5	-0,952450
19,591833	0,5	-0,952100
19,600167	0,5	-0,966700
19,608500	0,5	-0,973500
19,616833	0,5	-0,993500
19,625167	0,5	-1,001100
19,633500	0,5	-1,018000
19,641833	0,5	-1,017900
19,650167	0,5	-1,016200
19,658500	0,5	-1,038300
19,666833	0,5	-1,045100
19,675167	0,5	-1,047500
19,683500	0,5	-1,056350
19,691833	0,5	-1,073800
19,700167	0,5	-1,100250
19,708500	0,5	-1,100100
19,716833	0,5	-1,092150
19,725167	0,5	-1,107900
19,733500	0,5	-1,116600
19,741833	0,5	-1,120450
19,750167	0,5	-1,125950
19,758500	0,5	-1,137400
19,766833	0,5	-1,131800
19,775167	0,5	-1,153500
19,783500	0,5	-1,163600
19,791833	0,5	-1,160800
19,800167	0,5	-1,170350
19,808500	0,5	-1,184050
19,816833	0,5	-1,186750
19,825167	0,5	-1,214650
19,833500	0,5	-1,229400
19,841833	0,5	-1,259600
19,850167	0,5	-1,282500
19,858500	0,5	-1,282600
19,866833	0,5	-1,291100
19,875167	0,5	-1,294250
19,883500	0,5	-1,302550
19,891833	0,5	-1,307400
19,900167	0,5	-1,322700
19,908500	0,5	-1,320550
19,916833	0,5	-1,332800
19,925167	0,5	-1,337400
19,933500	0,5	-1,345350
19,941833	0,5	-1,335850
19,950167	0,5	-1,353950
19,958500	0,5	-1,358150
19,966833	0,5	-1,359000
19,975167	0,5	-1,365150
19,983500	0,5	-1,388150
19,991833	0,5	-1,424100
20,000167	0,5	-1,429100
20,008500	0,5	-1,432750
20,016833	0,5	-1,442500
20,025167	0,5	-1,453150
20,033500	0,5	-1,465800
20,041833	0,5	-1,477050
20,050167	0,5	-1,486100
20,058500	0,5	-1,495050
20,066833	0,5	-1,508700
20,075167	0,5	-1,533650
20,083500	0,5	-1,523550
20,091833	0,5	-1,536200
20,100167	0,5	-1,554350
20,108500	0,5	-1,564150
20,116833	0,5	-1,565150
20,125167	0,5	-1,586600
20,133500	0,5	-1,621300
20,141833	0,5	-1,653100
20,150167	0,5	-1,653350
20,158500	0,5	-1,656550
20,166833	0,5	-1,662350
20,175167	0,5	-1,677250
20,183500	0,5	-1,691550
20,191833	0,5	-1,706450
20,200167	0,5	-1,703850
20,208500	0,5	-1,708950
20,216833	0,5	-1,719450
20,225167	0,5	-1,714400
20,233500	0,5	-1,710850
20,241833	0,5	-1,747250
20,250167	0,5	-1,754150
20,258500	0,5	-1,752250
20,266833	0,5	-1,775350
20,275167	0,5	-1,789300
20,283500	0,5	-1,832000
20,291833	0,5	-1,840000
20,300167	0,5	-1,845950
20,308500	0,5	-1,856650
20,316833	0,5	-1,873700
20,325167	0,5	-1,884650
20,333500	0,5	-1,892350
20,341833	0,5	-1,912800
20,350167	0,5	-1,916350
20,358500	0,5	-1,928850
20,366833	0,5	-1,942250
20,375167	0,5	-1,942400
20,383500	0,5	-1,940750
20,391833	0,5	-1,974350
20,400167	0,5	-1,974000
20,408500	0,5	-1,998550
20,416833	0,5	-2,013300
20,425167	0,5	-2,044500
20,433500	0,5	-2,083700
20,441833	0,5	-2,096000
20,450167	0,5	-2,101450
20,458500	0,5	-2,128600
20,466833	0,5	-2,139300
20,475167	0,5	-2,154200
20,483500	0,5	-2,165000
20,491833	0,5	-2,184200
20,500167	0,5	-2,200000
20,508500	0,5	-2,209500
20,516833	0,5	-2,217050
20,525167	0,5	-2,204050
20,533500	0,5	-2,215300
20,541833	0,5	-2,231350
20,550167	0,5	-2,256500
20,558500	0,5	-2,270500
20,566833	0,5	-2,294550
20,575167	0,5	-2,318550
20,583500	0,5	-2,352650
20,591833	0,5	-2,350600
20,600167	0,5	-2,370000
20,608500	0,5	-2,390350
20,616833	0,5	-2,423300
20,625167	0,5	-2,444600
20,633500	0,5	-2,468350
20,641833	0,5	-2,494600
20,650167	0,5	-2,516500
20,658500	0,5	-2,550600
20,666833	0,5	-2,549150
20,675167	0,5	-2,549750
20,683500	0,5	-2,565150
20,691833	0,5	-2,592200
20,700167	0,5	-2,608300
20,708500	0,5	-2,637300
20,716833	0,5	-2,670200
20,725167	0,5	-2,715050
20,733500	0,5	-2,726050
20,741833	0,5	-2,745000
20,750167	0,5	-2,743900
20,758500	0,5	-2,747500
20,766833	0,5	-2,741750
20,775167	0,5	-2,760500
20,783500	0,5	-2,782650
20,791833	0,5	-2,809800
20,800167	0,5	-2,854200
20,808500	0,5	-2,883700
20,816833	0,5	-2,912000
20,825167	0,5	-2,929900
20,833500	0,5	-2,964350
20,841833	0,5	-2,986050
20,850167	0,5	-3,027300
20,858500	0,5	-3,064300
20,866833	0,5	-3,128650
20,875167	0,5	-3,158200
20,883500	0,5	-3,180000
20,891833	0,5	-3,189700
20,900167	0,5	-3,223850
20,908500	0,5	-3,239400
20,916833	0,5	-3,267100
20,925167	0,5	-3,272750
20,933500	0,5	-3,293650
20,941833	0,5	-3,306650
20,950167	0,5	-3,326050
20,958500	0,5	-3,348800
20,966833	0,5	-3,344300
20,975167	0,5	-3,368200
20,983500	0,5	-3,407750
20,991833	0,5	-3,438700
21,000167	0,5	-3,471600
21,008500	0,5	-3,501500
21,016833	0,5	-3,549600
21,025167	0,5	-3,593050
21,033500	0,5	-3,604350
21,041833	0,5	-3,629450
21,050167	0,5	-3,644600
21,058500	0,5	-3,661100
21,066833	0,5	-3,689300
21,075167	0,5	-3,716700
21,083500	0,5	-3,730950
21,091833	0,5	-3,751050
21,100167	0,5	-3,780550
21,108500	0,5	-3,765050
21,116833	0,5	-3,760600
21,125167	0,5	-3,782300
21,133500	0,5	-3,805300
21,141833	0,5	-3,827200
21,150167	0,5	-3,881250
21,158500	0,5	-3,914350
21,166833	0,5	-3,968350
21,175167	0,5	-3,967350
21,183500	0,5	-3,997800
21,191833	0,5	-4,000300
21,200167	0,5	-4,032750
21,208500	0,5	-4,035550
21,216833	0,5	-4,060850
21,225167	0,5	-4,063700
21,233500	0,5	-4,071000
21,241833	0,5	-4,095950
21,250167	0,5	-4,096250
21,258500	0,5	-4,080800
21,266833	0,5	-4,078200
21,275167	0,5	-4,103050
21,283500	0,5	-4,114800
21,291833	0,5	-4,124150
21,300167	0,5	-4,146450
21,308500	0,5	-4,185600
21,316833	0,5	-4,179350
21,325167	0,5	-4,172800
21,333500	0,5	-4,157750
21,341833	0,5	-4,183850
21,350167	0,5	-4,183450
21,358500	0,5	-4,200100
21,366833	0,5	-4,222800
21,375167	0,5	-4,241650
21,383500	0,5	-4,267000
21,391833	0,5	-4,280200
21,400167	0,5	-4,261650
21,408500	0,5	-4,258250
21,416833	0,5	-4,268700
21,425167	0,5	-4,277750
21,433500	0,5	-4,298250
21,441833	0,5	-4,311550
21,450167	0,5	-4,344200
21,458500	0,5	-4,373000
21,466833	0,5	-4,364250
21,475167	0,5	-4,361350
21,483500	0,5	-4,373350
21,491833	0,5	-4,372900
21,500167	0,5	-4,366300
21,508500	0,5	-4,348800
21,516833	0,5	-4,320550
21,525167	0,5	-4,275850
21,533500	0,5	-4,256450
21,541833	0,5	-4,246400
21,550167	0,5	-4,220050
21,558500	0,5	-4,239050
21,566833	0,5	-4,280950
21,575167	0,5	-4,325900
21,583500	0,5	-4,375500
21,591833	0,5	-4,414950
21,600167	0,5	-4,432250
21,608500	0,5	-4,450000
21,616833	0,5	-4,443400
21,625167	0,5	-4,443400
21,633500	0,5	-4,440400
21,641833	0,5	-4,442700
21,650167	0,5	-4,428650
21,658500	0,5	-4,412000
21,666833	0,5	-4,391500
21,675167	0,5	-4,359000
21,683500	0,5	-4,350700
21,691833	0,5	-4,319100
21,700167	0,5	-4,302350
21,708500	0,5	-4,309550
21,716833	0,5	-4,319150
21,725167	0,5	-4,331300
21,733500	0,5	-4,348300
21,741833	0,5	-4,370050
21,750167	0,5	-4,381200
21,758500	0,5	-4,360150
21,766833	0,5	-4,348900
21,775167	0,5	-4,329150
21,783500	0,5	-4,326850
21,791833	0,5	-4,318050
21,800167	0,5	-4,315450
21,808500	0,5	-4,292350
21,816833	0,5	-4,283700
21,825167	0,5	-4,271300
21,833500	0,5	-4,245450
21,841833	0,5	-4,199800
21,850167	0,5	-4,173950
21,858500	0,5	-4,149750
21,866833	0,5	-4,125200
21,875167	0,5	-4,114850
21,883500	0,5	-4,122950
21,891833	0,5	-4,162200
21,900167	0,5	-4,163350
21,908500	0,5	-4,159300
21,916833	0,5	-4,140300
21,925167	0,5	-4,147350
21,933500	0,5	-4,137400
21,941833	0,5	-4,134500
21,950167	0,5	-4,121850
21,958500	0,5	-4,092450
21,966833	0,5	-4,077900
21,975167	0,5	-4,068250
21,983500	0,5	-4,054850
21,991833	0,5	-4,057150
22,000167	0,5	-4,091900
22,008500	0,5	-4,096500
22,016833	0,5	-4,106850
22,025167	0,5	-4,125050
22,033500	0,5	-4,154050
22,041833	0,5	-4,178800
22,050167	0,5	-4,196750
22,058500	0,5	-4,205350
22,066833	0,5	-4,223650
22,075167	0,5	-4,227200
22,083500	0,5	-4,239700
22,091833	0,5	-4,247850
22,100167	0,5	-4,253200
22,108500	0,5	-4,251800
22,116833	0,5	-4,249350
22,125167	0,5	-4,259300
22,133500	0,5	-4,236600
22,141833	0,5	-4,256400
22,150167	0,5	-4,252600
22,158500	0,5	-4,239900
22,166833	0,5	-4,232950
22,175167	0,5	-4,247750
22,183500	0,5	-4,261600
22,191833	0,5	-4,267350
22,200167	0,5	-4,246850
22,208500	0,5	-4,236050
22,216833	0,5	-4,234750
22,225167	0,5	-4,218350
22,233500	0,5	-4,206100
22,241833	0,5	-4,200100
22,250167	0,5	-4,185600
22,258500	0,5	-4,170700
22,266833	0,5	-4,165700
22,275167	0,5	-4,147250
22,283500	0,5	-4,116550
22,291833	0,5	-4,116550
22,300167	0,5	-4,068750
22,308500	0,5	-4,039750
22,316833	0,5	-4,011050
22,325167	0,5	-3,975350
22,333500	0,5	-3,968050
22,341833	0,5	-3,920000
22,350167	0,5	-3,890100
22,358500	0,5	-3,855350
22,366833	0,5	-3,832950
22,375167	0,5	-3,784450
22,383500	0,5	-3,733100
22,391833	0,5	-3,667150
22,400167	0,5	-3,608300
22,408500	0,5	-3,561350
22,416833	0,5	-3,524650
22,425167	0,5	-3,563450
22,433500	0,5	-3,560200
22,441833	0,5	-3,546050
22,450167	0,5	-3,507950
22,458500	0,5	-3,507500
22,466833	0,5	-3,487100
22,475167	0,5	-3,472600
22,483500	0,5	-3,452750
22,491833	0,5	-3,420500
22,500167	0,5	-3,387950
22,508500	0,5	-3,366100
22,516833	0,5	-3,325650
22,525167	0,5	-3,294200
22,533500	0,5	-3,246050
22,541833	0,5	-3,201500
22,550167	0,5	-3,168100
22,558500	0,5	-3,112000
22,566833	0,5	-3,098800
22,575167	0,5	-3,059700
22,583500	0,5	-2,986950
22,591833	0,5	-2,893400
22,600167	0,5	-2,823650
22,608500	0,5	-2,754150
22,616833	0,5	-2,681150
22,625167	0,5	-2,618700
22,633500	0,5	-2,552250
22,641833	0,5	-2,461200
22,650167	0,5	-2,407100
22,658500	0,5	-2,355850
22,666833	0,5	-2,304700
22,675167	0,5	-2,253150
22,683500	0,5	-2,201700
22,691833	0,5	-2,150700
22,700167	0,5	-2,126900
22,708500	0,5	-2,097100
22,716833	0,5	-2,111500
22,725167	0,5	-2,078850
22,733500	0,5	-2,010850
22,741833	0,5	-1,976250
22,750167	0,5	-1,939800
22,758500	0,5	-1,922700
22,766833	0,5	-1,910400
22,775167	0,5	-1,915050
22,783500	0,5	-1,906750
22,791833	0,5	-1,903800
22,800167	0,5	-1,903800
22,808500	0,5	-1,916600
22,816833	0,5	-1,910500
22,825167	0,5	-1,945000
22,833500	0,5	-1,963500
22,841833	0,5	-1,994400
22,850167	0,5	-2,038900
22,858500	0,5	-2,117400
22,866833	0,5	-2,227000
22,875167	0,5	-2,276450
22,883500	0,5	-2,309850
22,891833	0,5	-2,388450
22,900167	0,5	-2,475850
22,908500	0,5	-2,575650
22,916833	0,5	-2,677850
22,925167	0,5	-2,776950
22,933500	0,5	-2,880950
22,941833	0,5	-2,994900
22,950167	0,5	-3,094450
22,958500	0,5	-3,212250
22,966833	0,5	-3,310800
22,975167	0,5	-3,416450
22,983500	0,5	-3,508300
22,991833	0,5	-3,608350
23,000167	0,5	-3,704450
23,008500	0,5	-3,798450
23,016833	0,5	-3,910850
23,025167	0,5	-3,962000
23,033500	0,5	-4,060900
23,041833	0,5	-4,160150
23,050167	0,5	-4,244950
23,058500	0,5	-4,291950
23,066833	0,5	-4,367150
23,075167	0,5	-4,457400
23,083500	0,5	-4,522850
23,091833	0,5	-4,571800
23,100167	0,5	-4,628150
23,108500	0,5	-4,659500
23,116833	0,5	-4,702950
23,125167	0,5	-4,734150
23,133500	0,5	-4,758550
23,141833	0,5	-4,767150
23,150167	0,5	-4,739350
23,158500	0,5	-4,744150
23,166833	0,5	-4,725100
23,175167	0,5	-4,757700
23,183500	0,5	-4,768800
23,191833	0,5	-4,768850
23,200167	0,5	-4,731550
23,208500	0,5	-4,702800
23,216833	0,5	-4,691100
23,225167	0,5	-4,694450
23,233500	0,5	-4,654000
23,241833	0,5	-4,639300
23,250167	0,5	-4,606850
23,258500	0,5	-4,580000
23,266833	0,5	-4,527150
23,275167	0,5	-4,494300
23,283500	0,5	-4,445400
23,291833	0,5	-4,406100
23,300167	0,5	-4,318300
23,308500	0,5	-4,282750
23,316833	0,5	-4,202650
23,325167	0,5	-4,167850
23,333500	0,5	-4,133750
23,341833	0,5	-4,089300
23,350167	0,5	-4,031250
23,358500	0,5	-3,955750
23,366833	0,5	-3,925700
23,375167	0,5	-3,869950
23,383500	0,5	-3,836050
23,391833	0,5	-3,776350
23,400167	0,5	-3,734400
23,408500	0,5	-3,673100
23,416833	0,5	-3,629250
23,425167	0,5	-3,582450
23,433500	0,5	-3,526850
23,441833	0,5	-3,460600
23,450167	0,5	-3,459800
23,458500	0,5	-3,377750
23,466833	0,5	-3,278450
23,475167	0,5	-3,238700
23,483500	0,5	-3,204200
23,491833	0,5	-3,152800
23,500167	0,5	-3,096850
23,508500	0,5	-3,026600
23,516833	0,5	-3,002800
23,525167	0,5	-2,978600
23,533500	0,5	-2,932200
23,541833	0,5	-2,901700
23,550167	0,5	-2,859950
23,558500	0,5	-2,823150
23,566833	0,5	-2,782150
23,575167	0,5	-2,754750
23,583500	0,5	-2,709900
23,591833	0,5	-2,688200
23,600167	0,5	-2,756250
23,608500	0,5	-2,674900
23,616833	0,5	-2,601900
23,625167	0,5	-2,566600
23,633500	0,5	-2,535300
23,641833	0,5	-2,503700
23,650167	0,5	-2,472500
23,658500	0,5	-2,444400
23,666833	0,5	-2,421350
23,675167	0,5	-2,395850
23,683500	0,5	-2,370100
23,691833	0,5	-2,342200
23,700167	0,5	-2,315000
23,708500	0,5	-2,290900
23,716833	0,5	-2,268150
23,725167	0,5	-2,239950
23,733500	0,5	-2,215200
23,741833	0,5	-2,334850
23,750167	0,5	-2,300750
23,758500	0,5	-2,248450
23,766833	0,5	-2,165950
23,775167	0,5	-2,128150
23,783500	0,5	-2,086650
23,791833	0,5	-2,069750
23,800167	0,5	-2,049600
23,808500	0,5	-2,036150
23,816833	0,5	-2,004050
23,825167	0,5	-1,989450
23,833500	0,5	-1,970600
23,841833	0,5	-1,950250
23,850167	0,5	-1,928550
23,858500	0,5	-1,909000
23,866833	0,5	-1,888550
23,875167	0,5	-1,855700
23,883500	0,5	-1,855300
23,891833	0,5	-2,001850
23,900167	0,5	-1,975550
23,908500	0,5	-1,877450
23,916833	0,5	-1,825100
23,925167	0,5	-1,781700
23,933500	0,5	-1,752250
23,941833	0,5	-1,728800
23,950167	0,5	-1,710200
23,958500	0,5	-1,676050
23,966833	0,5	-1,659850
23,975167	0,5	-1,634450
23,983500	0,5	-1,611050
23,991833	0,5	-1,592250
24,000167	0,5	-1,580450
24,008500	0,5	-1,554400
24,016833	0,5	-1,533600
24,025167	0,5	-1,518850
24,033500	0,5	-1,586000
24,041833	0,5	-1,658100
24,050167	0,5	-1,633300
24,058500	0,5	-1,547400
24,066833	0,5	-1,490550
24,075167	0,5	-1,454000
24,083500	0,5	-1,424150
24,091833	0,5	-1,403400
24,100167	0,5	-1,387650
24,108500	0,5	-1,361900
24,116833	0,5	-1,339550
24,125167	0,5	-1,318950
24,133500	0,5	-1,287500
24,141833	0,5	-1,267300
24,150167	0,5	-1,244300
24,158500	0,5	-1,218150
24,166833	0,5	-1,192350
24,175167	0,5	-1,176950
24,183500	0,5	-1,339200
24,191833	0,5	-1,299100
24,200167	0,5	-1,271550
24,208500	0,5	-1,193700
24,216833	0,5	-1,165400
24,225167	0,5	-1,138150
24,233500	0,5	-1,122250
24,241833	0,5	-1,122600
24,250167	0,5	-1,096400
24,258500	0,5	-1,063650
24,266833	0,5	-1,050650
24,275167	0,5	-1,027150
24,283500	0,5	-1,005000
24,291833	0,5	-0,990450
24,300167	0,5	-0,969700
24,308500	0,5	-0,945800
24,316833	0,5	-0,935250
24,325167	0,5	-0,947850
24,333500	0,5	-1,039850
24,341833	0,5	-1,005900
24,350167	0,5	-0,972700
24,358500	0,5	-0,906450
24,366833	0,5	-0,884700
24,375167	0,5	-0,860250
24,383500	0,5	-0,848250
24,391833	0,5	-0,849200
24,400167	0,5	-0,818300
24,408500	0,5	-0,799400
24,416833	0,5	-0,790800
24,425167	0,5	-0,782750
24,433500	0,5	-0,761150
24,441833	0,5	-0,737250
24,450167	0,5	-0,729300
24,458500	0,5	-0,716650
24,466833	0,5	-0,705300
24,475167	0,5	-0,767400
24,483500	0,5	-0,788300
24,491833	0,5	-0,754600
24,500167	0,5	-0,707550
24,508500	0,5	-0,683600
24,516833	0,5	-0,663600
24,525167	0,5	-0,659150
24,533500	0,5	-0,651800
24,541833	0,5	-0,643500
24,550167	0,5	-0,634350
24,558500	0,5	-0,612500
24,566833	0,5	-0,600600
24,575167	0,5	-0,585100
24,583500	0,5	-0,568650
24,591833	0,5	-0,554000
24,600167	0,5	-0,546350
24,608500	0,5	-0,527650
24,616833	0,5	-0,531200
24,625167	0,5	-0,601300
24,633500	0,5	-0,590550
24,641833	0,5	-0,572700
24,650167	0,5	-0,535750
24,658500	0,5	-0,514200
24,666833	0,5	-0,503000
24,675167	0,5	-0,495550
24,683500	0,5	-0,499650
24,691833	0,5	-0,495150
24,700167	0,5	-0,482700
24,708500	0,5	-0,471300
24,716833	0,5	-0,459000
24,725167	0,5	-0,452500
24,733500	0,5	-0,445550
24,741833	0,5	-0,436350
24,750167	0,5	-0,424050
24,758500	0,5	-0,417450
24,766833	0,5	-0,416250
24,775167	0,5	-0,464050
24,783500	0,5	-0,450450
24,791833	0,5	-0,428750
24,800167	0,5	-0,400000
24,808500	0,5	-0,389000
24,816833	0,5	-0,385850
24,825167	0,5	-0,395450
24,833500	0,5	-0,393350
24,841833	0,5	-0,386000
24,850167	0,5	-0,377250
24,858500	0,5	-0,372750
24,866833	0,5	-0,369750
24,875167	0,5	-0,362350
24,883500	0,5	-0,358400
24,891833	0,5	-0,351400
24,900167	0,5	-0,348700
24,908500	0,5	-0,347150
24,916833	0,5	-0,380100
24,925167	0,5	-0,374350
24,933500	0,5	-0,374700
24,941833	0,5	-0,352250
24,950167	0,5	-0,339500
24,958500	0,5	-0,328650
24,966833	0,5	-0,323850
24,975167	0,5	-0,330750
24,983500	0,5	-0,316950
24,991833	0,5	-0,313350
25,000167	0,5	-0,311750
25,008500	0,5	-0,301000
25,016833	0,5	-0,303950
25,025167	0,5	-0,302550
25,033500	0,5	-0,304300
25,041833	0,5	-0,294250
25,050167	0,5	-0,296900
25,058500	0,5	-0,298850
25,066833	0,5	-0,318000
25,075167	0,5	-0,316700
25,083500	0,5	-0,309550
25,091833	0,5	-0,306250
25,100167	0,5	-0,297200
25,108500	0,5	-0,298100
25,116833	0,5	-0,301900
25,125167	0,5	-0,305100
25,133500	0,5	-0,294350
25,141833	0,5	-0,288150
25,150167	0,5	-0,285200
25,158500	0,5	-0,278600
25,166833	0,5	-0,278100
25,175167	0,5	-0,278200
25,183500	0,5	-0,273850
25,191833	0,5	-0,275700
25,200167	0,5	-0,271900
25,208500	0,5	-0,278150
25,216833	0,5	-0,285450
25,225167	0,5	-0,282750
25,233500	0,5	-0,279100
25,241833	0,5	-0,276500
25,250167	0,5	-0,283000
25,258500	0,5	-0,281050
25,266833	0,5	-0,281300
25,275167	0,5	-0,285800
25,283500	0,5	-0,282100
25,291833	0,5	-0,282700
25,300167	0,5	-0,283450
25,308500	0,5	-0,283500
25,316833	0,5	-0,282000
25,325167	0,5	-0,277300
25,333500	0,5	-0,277050
25,341833	0,5	-0,279250
25,350167	0,5	-0,272900
25,358500	0,5	-0,284700
25,366833	0,5	-0,266200
25,375167	0,5	-0,273250
25,383500	0,5	-0,272550
25,391833	0,5	-0,275050
25,400167	0,5	-0,273950
25,408500	0,5	-0,274250
25,416833	0,5	-0,274700
25,425167	0,5	-0,278550
25,433500	0,5	-0,279750
25,441833	0,5	-0,279550
25,450167	0,5	-0,283000
25,458500	0,5	-0,286300
25,466833	0,5	-0,288400
25,475167	0,5	-0,285300
25,483500	0,5	-0,290400
25,491833	0,5	-0,290700
25,500167	0,5	-0,287950
25,508500	0,5	-0,285850
25,516833	0,5	-0,283450
25,525167	0,5	-0,279300
25,533500	0,5	-0,282550
25,541833	0,5	-0,287100
25,550167	0,5	-0,276350
25,558500	0,5	-0,284500
25,566833	0,5	-0,280850
25,575167	0,5	-0,280950
25,583500	0,5	-0,284650
25,591833	0,5	-0,282200
25,600167	0,5	-0,288700
25,608500	0,5	-0,287950
25,616833	0,5	-0,291450
25,625167	0,5	-0,296500
25,633500	0,5	-0,300150
25,641833	0,5	-0,297950
25,650167	0,5	-0,295950
25,658500	0,5	-0,292200
25,666833	0,5	-0,291300
25,675167	0,5	-0,294450
25,683500	0,5	-0,298850
25,691833	0,5	-0,305450
25,700167	0,5	-0,300200
25,708500	0,5	-0,299400
25,716833	0,5	-0,296850
25,725167	0,5	-0,293050
25,733500	0,5	-0,294900
25,741833	0,5	-0,299400
25,750167	0,5	-0,300600
25,758500	0,5	-0,301750
25,766833	0,5	-0,303850
25,775167	0,5	-0,304150
25,783500	0,5	-0,303950
25,791833	0,5	-0,303900
25,800167	0,5	-0,296650
25,808500	0,5	-0,293050
25,816833	0,5	-0,292800
25,825167	0,5	-0,298050
25,833500	0,5	-0,306800
25,841833	0,5	-0,304900
25,850167	0,5	-0,306150
25,858500	0,5	-0,298100
25,866833	0,5	-0,298600
25,875167	0,5	-0,295600
25,883500	0,5	-0,298200
25,891833	0,5	-0,291800
25,900167	0,5	-0,299800
25,908500	0,5	-0,297650
25,916833	0,5	-0,298950
25,925167	0,5	-0,295600
25,933500	0,5	-0,290550
25,941833	0,5	-0,290200
25,950167	0,5	-0,279350
25,958500	0,5	-0,280800
25,966833	0,5	-0,270700
25,975167	0,5	-0,281350
25,983500	0,5	-0,282000
25,991833	0,5	-0,289700
26,000167	0,5	-0,283450
