File Path	chrom://chromeleon01/ikbm_chromeleon/2022/ICS-5000/ED1/Esteban/20220427_Cell_Amandas_mutants.seq/248.smp/ED_1.channel/ED_1.chm
Channel	ED_1

Injection Information:
Data Vault	ikbm_chromeleon
Injection	T24h_PASC_WT
Injection Number	16
Position	RB2
Comment	
Processing Method	Stop sequence after Cell Death
Instrument Method	ICS5000_PA200_FullNative_Ox_26min_ED1
Type	Unknown
Status	Finished
Injection Date	27.04.2022
Injection Time	20:02:42
Injection Volume (µl)	5,0
Dilution Factor	1,0000
Weight	1,0000

Chromatogram Data Information:
Time Min. (min)	0,000333
Time Max. (min)	26,000333
Data Points	3121
Detector	EDet1
Generating Data System	Chromeleon 7.2.9.11323
Exporting Data System	Chromeleon 7.2.9.0
Operator	Instrument Controller
Signal Quantity	
Signal Unit	nC
Signal Min.	-6,933750
Signal Max.	38,983601
Channel	ED_1
Driver Name	DC-5000
Channel Type	Evaluation
Min. Step (s)	0,5
Max. Step (s)	0,5
Average Step (s)	0,5

Signal Parameter Information:
Signal Info	

Chromatogram Data:
Time (min)	Step (s)	Value (nC)
0,000333	n.a.	-0,088400
0,008667	0,5	-0,101100
0,017000	0,5	-0,099350
0,025333	0,5	-0,085850
0,033667	0,5	-0,066850
0,042000	0,5	-0,050600
0,050333	0,5	-0,064500
0,058667	0,5	-0,000100
0,067000	0,5	-0,040850
0,075333	0,5	-0,038800
0,083667	0,5	-0,036800
0,092000	0,5	-0,026600
0,100333	0,5	0,018900
0,108667	0,5	0,004450
0,117000	0,5	-0,000450
0,125333	0,5	-0,007400
0,133667	0,5	-0,005350
0,142000	0,5	-0,011600
0,150333	0,5	-0,007650
0,158667	0,5	-0,003100
0,167000	0,5	-0,007000
0,175333	0,5	-0,002200
0,183667	0,5	0,000000
0,192000	0,5	-0,032700
0,200333	0,5	-0,026500
0,208667	0,5	-0,000550
0,217000	0,5	-0,026050
0,225333	0,5	-0,038900
0,233667	0,5	-0,020450
0,242000	0,5	-0,009300
0,250333	0,5	0,038550
0,258667	0,5	0,003250
0,267000	0,5	-0,003700
0,275333	0,5	0,008600
0,283667	0,5	0,006750
0,292000	0,5	0,001650
0,300333	0,5	0,048350
0,308667	0,5	0,079650
0,317000	0,5	0,027750
0,325333	0,5	-0,012850
0,333667	0,5	-0,025900
0,342000	0,5	-0,028350
0,350333	0,5	-0,017050
0,358667	0,5	-0,008650
0,367000	0,5	-0,037950
0,375333	0,5	-0,033750
0,383667	0,5	-0,030400
0,392000	0,5	0,000000
0,400333	0,5	0,021000
0,408667	0,5	0,003400
0,417000	0,5	-0,017300
0,425333	0,5	-0,009200
0,433667	0,5	-0,022300
0,442000	0,5	-0,015000
0,450333	0,5	-0,013050
0,458667	0,5	-0,025900
0,467000	0,5	-0,026350
0,475333	0,5	-0,013950
0,483667	0,5	-0,014800
0,492000	0,5	-0,043900
0,500333	0,5	-0,020600
0,508667	0,5	-0,039250
0,517000	0,5	-0,049650
0,525333	0,5	-0,053400
0,533667	0,5	-0,025550
0,542000	0,5	0,004150
0,550333	0,5	0,018700
0,558667	0,5	-0,009500
0,567000	0,5	0,001600
0,575333	0,5	-0,000850
0,583667	0,5	0,002050
0,592000	0,5	-0,011300
0,600333	0,5	-0,005900
0,608667	0,5	-0,021050
0,617000	0,5	-0,022950
0,625333	0,5	-0,020450
0,633667	0,5	-0,036600
0,642000	0,5	-0,041750
0,650333	0,5	-0,020050
0,658667	0,5	-0,041700
0,667000	0,5	-0,050450
0,675333	0,5	-0,037050
0,683667	0,5	-0,017150
0,692000	0,5	0,020200
0,700333	0,5	0,009850
0,708667	0,5	0,007800
0,717000	0,5	0,002100
0,725333	0,5	0,007300
0,733667	0,5	-0,009700
0,742000	0,5	-0,005750
0,750333	0,5	-0,017300
0,758667	0,5	-0,018550
0,767000	0,5	-0,014050
0,775333	0,5	-0,010000
0,783667	0,5	-0,033850
0,792000	0,5	-0,019600
0,800333	0,5	-0,023100
0,808667	0,5	-0,043200
0,817000	0,5	-0,045600
0,825333	0,5	-0,036000
0,833667	0,5	-0,002000
0,842000	0,5	0,014700
0,850333	0,5	0,014400
0,858667	0,5	0,001750
0,867000	0,5	0,005600
0,875333	0,5	0,002450
0,883667	0,5	-0,001100
0,892000	0,5	-0,009050
0,900333	0,5	-0,007100
0,908667	0,5	-0,023450
0,917000	0,5	-0,008400
0,925333	0,5	-0,018600
0,933667	0,5	-0,024100
0,942000	0,5	0,009850
0,950333	0,5	-0,007900
0,958667	0,5	-0,026800
0,967000	0,5	-0,019800
0,975333	0,5	-0,010950
0,983667	0,5	0,023400
0,992000	0,5	0,013650
1,000333	0,5	0,008000
1,008667	0,5	0,003300
1,017000	0,5	0,010100
1,025333	0,5	0,001000
1,033667	0,5	-0,002750
1,042000	0,5	-0,001300
1,050333	0,5	-0,013950
1,058667	0,5	-0,013100
1,067000	0,5	-0,007600
1,075333	0,5	0,014000
1,083667	0,5	-0,009100
1,092000	0,5	0,029250
1,100333	0,5	-0,009200
1,108667	0,5	-0,020200
1,117000	0,5	-0,022100
1,125333	0,5	-0,002400
1,133667	0,5	0,030750
1,142000	0,5	0,017000
1,150333	0,5	0,000500
1,158667	0,5	0,008250
1,167000	0,5	0,010550
1,175333	0,5	0,012700
1,183667	0,5	0,005950
1,192000	0,5	0,007150
1,200333	0,5	0,001600
1,208667	0,5	0,004000
1,217000	0,5	0,015150
1,225333	0,5	-0,005000
1,233667	0,5	-0,000150
1,242000	0,5	0,020250
1,250333	0,5	-0,002150
1,258667	0,5	-0,011600
1,267000	0,5	0,009600
1,275333	0,5	0,021300
1,283667	0,5	0,054450
1,292000	0,5	0,015550
1,300333	0,5	0,023350
1,308667	0,5	0,023600
1,317000	0,5	0,033200
1,325333	0,5	0,023550
1,333667	0,5	0,027150
1,342000	0,5	0,019200
1,350333	0,5	0,015650
1,358667	0,5	0,023350
1,367000	0,5	0,033250
1,375333	0,5	0,018300
1,383667	0,5	0,034350
1,392000	0,5	0,037950
1,400333	0,5	0,018950
1,408667	0,5	0,020550
1,417000	0,5	0,031750
1,425333	0,5	0,068000
1,433667	0,5	0,076050
1,442000	0,5	0,073200
1,450333	0,5	0,058750
1,458667	0,5	0,067750
1,467000	0,5	0,063350
1,475333	0,5	0,070200
1,483667	0,5	0,069700
1,492000	0,5	0,067600
1,500333	0,5	0,067300
1,508667	0,5	0,074350
1,517000	0,5	0,082700
1,525333	0,5	0,069350
1,533667	0,5	0,090700
1,542000	0,5	0,075650
1,550333	0,5	0,064550
1,558667	0,5	0,064250
1,567000	0,5	0,090150
1,575333	0,5	0,050150
1,583667	0,5	-0,271250
1,592000	0,5	-1,150250
1,600333	0,5	-1,879550
1,608667	0,5	-1,215950
1,617000	0,5	0,788850
1,625333	0,5	2,792500
1,633667	0,5	4,611050
1,642000	0,5	6,488800
1,650333	0,5	8,070250
1,658667	0,5	8,744250
1,667000	0,5	8,557950
1,675333	0,5	7,934650
1,683667	0,5	7,234950
1,692000	0,5	6,502500
1,700333	0,5	5,882000
1,708667	0,5	5,437700
1,717000	0,5	5,375600
1,725333	0,5	6,004050
1,733667	0,5	7,266650
1,742000	0,5	8,229650
1,750333	0,5	7,917200
1,758667	0,5	6,664500
1,767000	0,5	5,398100
1,775333	0,5	4,616350
1,783667	0,5	4,534150
1,792000	0,5	5,559700
1,800333	0,5	7,951600
1,808667	0,5	10,941000
1,817000	0,5	13,051350
1,825333	0,5	13,857500
1,833667	0,5	13,246300
1,842000	0,5	11,559200
1,850333	0,5	9,658650
1,858667	0,5	8,098550
1,867000	0,5	6,981750
1,875333	0,5	6,161800
1,883667	0,5	5,530450
1,892000	0,5	5,038150
1,900333	0,5	4,635350
1,908667	0,5	4,300850
1,917000	0,5	4,030850
1,925333	0,5	3,822900
1,933667	0,5	3,659200
1,942000	0,5	3,538200
1,950333	0,5	3,497850
1,958667	0,5	3,482100
1,967000	0,5	3,500950
1,975333	0,5	3,528000
1,983667	0,5	3,507950
1,992000	0,5	3,512350
2,000333	0,5	3,545350
2,008667	0,5	3,591050
2,017000	0,5	3,700850
2,025333	0,5	3,788600
2,033667	0,5	3,941750
2,042000	0,5	4,285900
2,050333	0,5	4,950200
2,058667	0,5	5,809000
2,067000	0,5	6,689600
2,075333	0,5	7,446100
2,083667	0,5	7,974250
2,092000	0,5	8,226150
2,100333	0,5	8,275500
2,108667	0,5	8,257950
2,117000	0,5	8,218650
2,125333	0,5	8,278650
2,133667	0,5	8,392250
2,142000	0,5	8,698500
2,150333	0,5	9,281750
2,158667	0,5	10,395000
2,167000	0,5	12,007300
2,175333	0,5	13,206300
2,183667	0,5	13,069650
2,192000	0,5	11,935350
2,200333	0,5	10,695350
2,208667	0,5	9,809600
2,217000	0,5	9,189100
2,225333	0,5	8,736150
2,233667	0,5	8,402350
2,242000	0,5	8,185100
2,250333	0,5	8,067150
2,258667	0,5	7,981100
2,267000	0,5	7,952250
2,275333	0,5	7,954000
2,283667	0,5	7,950350
2,292000	0,5	7,983000
2,300333	0,5	8,034250
2,308667	0,5	8,091600
2,317000	0,5	8,170150
2,325333	0,5	8,194650
2,333667	0,5	8,265000
2,342000	0,5	8,324400
2,350333	0,5	8,396550
2,358667	0,5	8,458300
2,367000	0,5	8,532400
2,375333	0,5	8,589400
2,383667	0,5	8,653300
2,392000	0,5	8,720250
2,400333	0,5	8,778450
2,408667	0,5	8,826300
2,417000	0,5	8,915100
2,425333	0,5	8,980350
2,433667	0,5	9,057150
2,442000	0,5	9,156550
2,450333	0,5	9,317650
2,458667	0,5	9,542750
2,467000	0,5	9,752600
2,475333	0,5	9,901200
2,483667	0,5	9,948400
2,492000	0,5	9,967650
2,500333	0,5	9,962250
2,508667	0,5	9,984900
2,517000	0,5	10,001600
2,525333	0,5	10,020250
2,533667	0,5	10,025650
2,542000	0,5	10,025850
2,550333	0,5	10,006250
2,558667	0,5	10,009450
2,567000	0,5	10,038350
2,575333	0,5	10,091650
2,583667	0,5	10,217650
2,592000	0,5	10,467800
2,600333	0,5	10,923750
2,608667	0,5	11,732300
2,617000	0,5	13,138500
2,625333	0,5	15,415000
2,633667	0,5	18,566650
2,642000	0,5	22,007900
2,650333	0,5	24,875200
2,658667	0,5	26,553600
2,667000	0,5	26,852900
2,675333	0,5	25,968450
2,683667	0,5	24,283750
2,692000	0,5	22,197050
2,700333	0,5	20,110500
2,708667	0,5	18,285950
2,717000	0,5	16,856600
2,725333	0,5	15,821450
2,733667	0,5	15,284500
2,742000	0,5	15,299000
2,750333	0,5	16,065000
2,758667	0,5	17,724600
2,767000	0,5	20,332750
2,775333	0,5	23,899700
2,783667	0,5	28,311400
2,792000	0,5	33,032250
2,800333	0,5	36,999751
2,808667	0,5	38,983601
2,817000	0,5	38,370751
2,825333	0,5	35,530951
2,833667	0,5	31,436500
2,842000	0,5	27,096150
2,850333	0,5	23,209050
2,858667	0,5	20,170350
2,867000	0,5	17,942550
2,875333	0,5	16,603150
2,883667	0,5	16,261950
2,892000	0,5	17,094300
2,900333	0,5	19,118100
2,908667	0,5	21,725100
2,917000	0,5	23,799100
2,925333	0,5	24,377250
2,933667	0,5	23,184400
2,942000	0,5	20,786400
2,950333	0,5	17,970500
2,958667	0,5	15,351050
2,967000	0,5	13,161850
2,975333	0,5	11,441700
2,983667	0,5	10,129250
2,992000	0,5	9,105300
3,000333	0,5	8,312850
3,008667	0,5	7,707650
3,017000	0,5	7,178300
3,025333	0,5	6,737750
3,033667	0,5	6,377150
3,042000	0,5	6,061200
3,050333	0,5	5,809500
3,058667	0,5	5,546150
3,067000	0,5	5,311250
3,075333	0,5	5,091700
3,083667	0,5	4,902500
3,092000	0,5	4,715650
3,100333	0,5	4,558950
3,108667	0,5	4,395150
3,117000	0,5	4,245600
3,125333	0,5	4,099350
3,133667	0,5	3,961400
3,142000	0,5	3,829750
3,150333	0,5	3,693900
3,158667	0,5	3,596650
3,167000	0,5	3,452750
3,175333	0,5	3,351900
3,183667	0,5	3,273350
3,192000	0,5	3,226050
3,200333	0,5	3,201350
3,208667	0,5	3,159350
3,217000	0,5	3,137900
3,225333	0,5	3,158900
3,233667	0,5	3,199850
3,242000	0,5	3,322000
3,250333	0,5	3,573300
3,258667	0,5	4,061500
3,267000	0,5	4,848350
3,275333	0,5	5,994800
3,283667	0,5	7,367000
3,292000	0,5	8,661900
3,300333	0,5	9,541350
3,308667	0,5	9,751450
3,317000	0,5	9,227350
3,325333	0,5	8,203000
3,333667	0,5	6,972950
3,342000	0,5	5,789950
3,350333	0,5	4,787650
3,358667	0,5	3,982900
3,367000	0,5	3,399450
3,375333	0,5	2,963050
3,383667	0,5	2,639950
3,392000	0,5	2,382200
3,400333	0,5	2,183450
3,408667	0,5	2,007750
3,417000	0,5	1,866850
3,425333	0,5	1,750950
3,433667	0,5	1,655500
3,442000	0,5	1,550500
3,450333	0,5	1,496100
3,458667	0,5	1,417950
3,467000	0,5	1,348250
3,475333	0,5	1,283350
3,483667	0,5	1,239600
3,492000	0,5	1,210000
3,500333	0,5	1,168050
3,508667	0,5	1,114300
3,517000	0,5	1,066550
3,525333	0,5	1,028600
3,533667	0,5	0,978050
3,542000	0,5	0,947500
3,550333	0,5	0,909150
3,558667	0,5	0,883500
3,567000	0,5	0,848950
3,575333	0,5	0,822000
3,583667	0,5	0,775500
3,592000	0,5	0,756100
3,600333	0,5	0,739100
3,608667	0,5	0,704850
3,617000	0,5	0,678700
3,625333	0,5	0,659450
3,633667	0,5	0,655650
3,642000	0,5	0,667750
3,650333	0,5	0,650900
3,658667	0,5	0,633400
3,667000	0,5	0,615000
3,675333	0,5	0,594800
3,683667	0,5	0,568450
3,692000	0,5	0,557850
3,700333	0,5	0,535150
3,708667	0,5	0,507550
3,717000	0,5	0,498800
3,725333	0,5	0,470500
3,733667	0,5	0,447250
3,742000	0,5	0,446600
3,750333	0,5	0,438450
3,758667	0,5	0,409400
3,767000	0,5	0,401150
3,775333	0,5	0,380700
3,783667	0,5	0,405500
3,792000	0,5	0,403800
3,800333	0,5	0,394300
3,808667	0,5	0,370950
3,817000	0,5	0,361950
3,825333	0,5	0,346500
3,833667	0,5	0,339500
3,842000	0,5	0,329400
3,850333	0,5	0,313250
3,858667	0,5	0,312800
3,867000	0,5	0,309200
3,875333	0,5	0,309850
3,883667	0,5	0,301100
3,892000	0,5	0,320050
3,900333	0,5	0,299900
3,908667	0,5	0,284600
3,917000	0,5	0,275950
3,925333	0,5	0,280600
3,933667	0,5	0,303700
3,942000	0,5	0,302300
3,950333	0,5	0,277950
3,958667	0,5	0,285500
3,967000	0,5	0,273250
3,975333	0,5	0,273350
3,983667	0,5	0,268050
3,992000	0,5	0,263800
4,000333	0,5	0,247450
4,008667	0,5	0,238200
4,017000	0,5	0,235150
4,025333	0,5	0,214950
4,033667	0,5	0,205950
4,042000	0,5	0,224650
4,050333	0,5	0,197750
4,058667	0,5	0,185850
4,067000	0,5	0,191200
4,075333	0,5	0,193750
4,083667	0,5	0,221450
4,092000	0,5	0,190100
4,100333	0,5	0,184800
4,108667	0,5	0,172050
4,117000	0,5	0,172800
4,125333	0,5	0,168400
4,133667	0,5	0,166300
4,142000	0,5	0,146500
4,150333	0,5	0,143250
4,158667	0,5	0,137900
4,167000	0,5	0,147050
4,175333	0,5	0,133200
4,183667	0,5	0,134350
4,192000	0,5	0,137350
4,200333	0,5	0,115300
4,208667	0,5	0,107700
4,217000	0,5	0,108500
4,225333	0,5	0,121400
4,233667	0,5	0,135300
4,242000	0,5	0,124600
4,250333	0,5	0,115100
4,258667	0,5	0,118950
4,267000	0,5	0,125500
4,275333	0,5	0,119950
4,283667	0,5	0,112150
4,292000	0,5	0,110400
4,300333	0,5	0,099000
4,308667	0,5	0,102800
4,317000	0,5	0,108550
4,325333	0,5	0,104950
4,333667	0,5	0,104700
4,342000	0,5	0,102350
4,350333	0,5	0,089100
4,358667	0,5	0,089000
4,367000	0,5	0,107950
4,375333	0,5	0,121900
4,383667	0,5	0,129700
4,392000	0,5	0,111650
4,400333	0,5	0,115550
4,408667	0,5	0,113850
4,417000	0,5	0,113700
4,425333	0,5	0,107600
4,433667	0,5	0,117050
4,442000	0,5	0,106850
4,450333	0,5	0,108950
4,458667	0,5	0,110800
4,467000	0,5	0,129000
4,475333	0,5	0,113500
4,483667	0,5	0,136650
4,492000	0,5	0,117200
4,500333	0,5	0,117150
4,508667	0,5	0,129600
4,517000	0,5	0,155650
4,525333	0,5	0,192700
4,533667	0,5	0,215900
4,542000	0,5	0,232150
4,550333	0,5	0,258300
4,558667	0,5	0,277550
4,567000	0,5	0,302250
4,575333	0,5	0,314550
4,583667	0,5	0,312500
4,592000	0,5	0,316050
4,600333	0,5	0,313000
4,608667	0,5	0,315000
4,617000	0,5	0,289300
4,625333	0,5	0,280650
4,633667	0,5	0,276000
4,642000	0,5	0,249400
4,650333	0,5	0,229800
4,658667	0,5	0,223850
4,667000	0,5	0,233250
4,675333	0,5	0,246500
4,683667	0,5	0,226800
4,692000	0,5	0,212250
4,700333	0,5	0,193550
4,708667	0,5	0,187950
4,717000	0,5	0,176200
4,725333	0,5	0,172200
4,733667	0,5	0,170500
4,742000	0,5	0,159700
4,750333	0,5	0,167700
4,758667	0,5	0,157700
4,767000	0,5	0,162350
4,775333	0,5	0,183650
4,783667	0,5	0,177250
4,792000	0,5	0,158400
4,800333	0,5	0,164200
4,808667	0,5	0,167250
4,817000	0,5	0,193350
4,825333	0,5	0,196600
4,833667	0,5	0,203300
4,842000	0,5	0,195200
4,850333	0,5	0,206150
4,858667	0,5	0,194250
4,867000	0,5	0,198350
4,875333	0,5	0,199250
4,883667	0,5	0,193700
4,892000	0,5	0,192850
4,900333	0,5	0,194150
4,908667	0,5	0,203000
4,917000	0,5	0,196950
4,925333	0,5	0,227750
4,933667	0,5	0,211900
4,942000	0,5	0,200200
4,950333	0,5	0,204150
4,958667	0,5	0,215550
4,967000	0,5	0,238900
4,975333	0,5	0,249750
4,983667	0,5	0,237100
4,992000	0,5	0,252650
5,000333	0,5	0,243500
5,008667	0,5	0,251650
5,017000	0,5	0,249500
5,025333	0,5	0,256400
5,033667	0,5	0,253300
5,042000	0,5	0,263050
5,050333	0,5	0,266200
5,058667	0,5	0,255450
5,067000	0,5	0,261450
5,075333	0,5	0,300450
5,083667	0,5	0,279850
5,092000	0,5	0,276500
5,100333	0,5	0,281600
5,108667	0,5	0,299300
5,117000	0,5	0,331350
5,125333	0,5	0,316600
5,133667	0,5	0,322600
5,142000	0,5	0,318750
5,150333	0,5	0,330950
5,158667	0,5	0,333850
5,167000	0,5	0,342300
5,175333	0,5	0,348150
5,183667	0,5	0,353650
5,192000	0,5	0,358250
5,200333	0,5	0,374450
5,208667	0,5	0,365500
5,217000	0,5	0,390300
5,225333	0,5	0,404500
5,233667	0,5	0,408500
5,242000	0,5	0,421950
5,250333	0,5	0,447650
5,258667	0,5	0,491450
5,267000	0,5	0,530450
5,275333	0,5	0,559100
5,283667	0,5	0,573400
5,292000	0,5	0,595000
5,300333	0,5	0,595350
5,308667	0,5	0,603000
5,317000	0,5	0,600300
5,325333	0,5	0,591650
5,333667	0,5	0,567150
5,342000	0,5	0,556250
5,350333	0,5	0,540450
5,358667	0,5	0,520300
5,367000	0,5	0,511100
5,375333	0,5	0,491500
5,383667	0,5	0,465100
5,392000	0,5	0,452600
5,400333	0,5	0,448100
5,408667	0,5	0,470200
5,417000	0,5	0,467100
5,425333	0,5	0,452400
5,433667	0,5	0,447200
5,442000	0,5	0,446400
5,450333	0,5	0,443750
5,458667	0,5	0,441650
5,467000	0,5	0,441800
5,475333	0,5	0,436700
5,483667	0,5	0,445600
5,492000	0,5	0,441900
5,500333	0,5	0,444550
5,508667	0,5	0,437600
5,517000	0,5	0,454250
5,525333	0,5	0,438050
5,533667	0,5	0,441050
5,542000	0,5	0,437200
5,550333	0,5	0,456700
5,558667	0,5	0,482550
5,567000	0,5	0,489900
5,575333	0,5	0,484050
5,583667	0,5	0,498350
5,592000	0,5	0,488900
5,600333	0,5	0,499900
5,608667	0,5	0,498950
5,617000	0,5	0,505250
5,625333	0,5	0,506350
5,633667	0,5	0,509650
5,642000	0,5	0,512050
5,650333	0,5	0,497550
5,658667	0,5	0,505850
5,667000	0,5	0,505650
5,675333	0,5	0,502250
5,683667	0,5	0,503000
5,692000	0,5	0,511650
5,700333	0,5	0,541800
5,708667	0,5	0,559250
5,717000	0,5	0,551000
5,725333	0,5	0,554150
5,733667	0,5	0,551250
5,742000	0,5	0,551200
5,750333	0,5	0,548950
5,758667	0,5	0,557850
5,767000	0,5	0,557500
5,775333	0,5	0,555400
5,783667	0,5	0,565500
5,792000	0,5	0,558800
5,800333	0,5	0,551950
5,808667	0,5	0,579200
5,817000	0,5	0,568400
5,825333	0,5	0,562300
5,833667	0,5	0,566750
5,842000	0,5	0,567900
5,850333	0,5	0,597900
5,858667	0,5	0,601250
5,867000	0,5	0,603200
5,875333	0,5	0,597200
5,883667	0,5	0,616750
5,892000	0,5	0,607600
5,900333	0,5	0,616050
5,908667	0,5	0,617500
5,917000	0,5	0,617200
5,925333	0,5	0,611950
5,933667	0,5	0,621850
5,942000	0,5	0,621800
5,950333	0,5	0,620000
5,958667	0,5	0,642000
5,967000	0,5	0,632900
5,975333	0,5	0,621150
5,983667	0,5	0,632150
5,992000	0,5	0,647850
6,000333	0,5	0,677800
6,008667	0,5	0,676850
6,017000	0,5	0,665350
6,025333	0,5	0,672350
6,033667	0,5	0,673950
6,042000	0,5	0,677950
6,050333	0,5	0,682500
6,058667	0,5	0,684650
6,067000	0,5	0,681000
6,075333	0,5	0,688650
6,083667	0,5	0,701900
6,092000	0,5	0,695700
6,100333	0,5	0,695950
6,108667	0,5	0,716100
6,117000	0,5	0,706550
6,125333	0,5	0,704800
6,133667	0,5	0,720800
6,142000	0,5	0,737200
6,150333	0,5	0,759700
6,158667	0,5	0,742450
6,167000	0,5	0,745850
6,175333	0,5	0,752000
6,183667	0,5	0,761450
6,192000	0,5	0,762550
6,200333	0,5	0,765000
6,208667	0,5	0,762600
6,217000	0,5	0,764450
6,225333	0,5	0,766950
6,233667	0,5	0,770600
6,242000	0,5	0,754650
6,250333	0,5	0,770300
6,258667	0,5	0,773100
6,267000	0,5	0,767950
6,275333	0,5	0,770450
6,283667	0,5	0,784250
6,292000	0,5	0,812200
6,300333	0,5	0,822750
6,308667	0,5	0,817850
6,317000	0,5	0,822250
6,325333	0,5	0,827150
6,333667	0,5	0,828600
6,342000	0,5	0,831200
6,350333	0,5	0,839450
6,358667	0,5	0,843800
6,367000	0,5	0,842700
6,375333	0,5	0,857200
6,383667	0,5	0,857450
6,392000	0,5	0,861300
6,400333	0,5	0,873750
6,408667	0,5	0,871150
6,417000	0,5	0,867550
6,425333	0,5	0,878250
6,433667	0,5	0,896000
6,442000	0,5	0,925550
6,450333	0,5	0,934000
6,458667	0,5	0,938950
6,467000	0,5	0,938800
6,475333	0,5	0,944400
6,483667	0,5	0,954900
6,492000	0,5	0,962600
6,500333	0,5	0,963500
6,508667	0,5	0,964200
6,517000	0,5	0,972000
6,525333	0,5	0,974250
6,533667	0,5	0,988250
6,542000	0,5	0,995350
6,550333	0,5	1,006950
6,558667	0,5	1,000050
6,567000	0,5	1,006100
6,575333	0,5	1,007200
6,583667	0,5	1,031550
6,592000	0,5	1,063100
6,600333	0,5	1,074900
6,608667	0,5	1,073200
6,617000	0,5	1,086700
6,625333	0,5	1,087950
6,633667	0,5	1,097550
6,642000	0,5	1,102950
6,650333	0,5	1,113900
6,658667	0,5	1,117900
6,667000	0,5	1,127700
6,675333	0,5	1,129650
6,683667	0,5	1,129200
6,692000	0,5	1,147150
6,700333	0,5	1,157000
6,708667	0,5	1,153650
6,717000	0,5	1,156500
6,725333	0,5	1,177450
6,733667	0,5	1,200800
6,742000	0,5	1,227300
6,750333	0,5	1,232500
6,758667	0,5	1,243700
6,767000	0,5	1,247900
6,775333	0,5	1,262750
6,783667	0,5	1,264650
6,792000	0,5	1,287400
6,800333	0,5	1,291350
6,808667	0,5	1,298750
6,817000	0,5	1,311150
6,825333	0,5	1,315950
6,833667	0,5	1,309900
6,842000	0,5	1,336800
6,850333	0,5	1,342450
6,858667	0,5	1,337200
6,867000	0,5	1,350800
6,875333	0,5	1,360450
6,883667	0,5	1,390600
6,892000	0,5	1,397900
6,900333	0,5	1,406300
6,908667	0,5	1,406250
6,917000	0,5	1,418650
6,925333	0,5	1,420900
6,933667	0,5	1,431400
6,942000	0,5	1,436400
6,950333	0,5	1,438900
6,958667	0,5	1,439350
6,967000	0,5	1,454800
6,975333	0,5	1,447300
6,983667	0,5	1,454250
6,992000	0,5	1,477400
7,000333	0,5	1,471400
7,008667	0,5	1,465850
7,017000	0,5	1,474100
7,025333	0,5	1,486900
7,033667	0,5	1,516050
7,042000	0,5	1,517050
7,050333	0,5	1,519900
7,058667	0,5	1,520350
7,067000	0,5	1,522950
7,075333	0,5	1,525500
7,083667	0,5	1,529200
7,092000	0,5	1,541800
7,100333	0,5	1,538800
7,108667	0,5	1,543200
7,117000	0,5	1,544550
7,125333	0,5	1,541800
7,133667	0,5	1,546250
7,142000	0,5	1,560450
7,150333	0,5	1,547050
7,158667	0,5	1,545450
7,167000	0,5	1,553300
7,175333	0,5	1,569700
7,183667	0,5	1,586550
7,192000	0,5	1,576850
7,200333	0,5	1,580150
7,208667	0,5	1,587400
7,217000	0,5	1,583150
7,225333	0,5	1,586850
7,233667	0,5	1,593850
7,242000	0,5	1,591450
7,250333	0,5	1,592100
7,258667	0,5	1,592100
7,267000	0,5	1,593300
7,275333	0,5	1,583350
7,283667	0,5	1,595400
7,292000	0,5	1,591550
7,300333	0,5	1,595050
7,308667	0,5	1,585750
7,317000	0,5	1,602900
7,325333	0,5	1,622950
7,333667	0,5	1,634750
7,342000	0,5	1,626200
7,350333	0,5	1,627000
7,358667	0,5	1,628350
7,367000	0,5	1,628850
7,375333	0,5	1,625900
7,383667	0,5	1,628250
7,392000	0,5	1,626550
7,400333	0,5	1,628350
7,408667	0,5	1,634100
7,417000	0,5	1,621400
7,425333	0,5	1,608600
7,433667	0,5	1,620200
7,442000	0,5	1,614500
7,450333	0,5	1,608450
7,458667	0,5	1,611050
7,467000	0,5	1,619250
7,475333	0,5	1,635000
7,483667	0,5	1,634350
7,492000	0,5	1,633700
7,500333	0,5	1,632050
7,508667	0,5	1,639400
7,517000	0,5	1,637850
7,525333	0,5	1,642900
7,533667	0,5	1,639700
7,542000	0,5	1,642750
7,550333	0,5	1,642050
7,558667	0,5	1,636650
7,567000	0,5	1,627500
7,575333	0,5	1,625600
7,583667	0,5	1,624050
7,592000	0,5	1,616050
7,600333	0,5	1,614700
7,608667	0,5	1,618250
7,617000	0,5	1,633350
7,625333	0,5	1,642550
7,633667	0,5	1,650850
7,642000	0,5	1,648300
7,650333	0,5	1,659700
7,658667	0,5	1,663550
7,667000	0,5	1,670300
7,675333	0,5	1,682450
7,683667	0,5	1,692400
7,692000	0,5	1,702050
7,700333	0,5	1,720950
7,708667	0,5	1,733050
7,717000	0,5	1,758800
7,725333	0,5	1,794000
7,733667	0,5	1,849350
7,742000	0,5	1,910800
7,750333	0,5	2,009700
7,758667	0,5	2,137450
7,767000	0,5	2,304400
7,775333	0,5	2,481100
7,783667	0,5	2,638400
7,792000	0,5	2,781200
7,800333	0,5	2,875150
7,808667	0,5	2,912600
7,817000	0,5	2,905500
7,825333	0,5	2,853200
7,833667	0,5	2,763750
7,842000	0,5	2,657400
7,850333	0,5	2,555050
7,858667	0,5	2,454100
7,867000	0,5	2,350750
7,875333	0,5	2,288350
7,883667	0,5	2,220750
7,892000	0,5	2,160450
7,900333	0,5	2,109350
7,908667	0,5	2,079900
7,917000	0,5	2,056950
7,925333	0,5	2,030350
7,933667	0,5	2,014900
7,942000	0,5	2,000850
7,950333	0,5	1,994850
7,958667	0,5	1,981300
7,967000	0,5	1,970050
7,975333	0,5	1,947000
7,983667	0,5	1,919800
7,992000	0,5	1,896100
8,000333	0,5	1,881250
8,008667	0,5	1,868250
8,017000	0,5	1,856250
8,025333	0,5	1,844650
8,033667	0,5	1,829450
8,042000	0,5	1,816000
8,050333	0,5	1,812350
8,058667	0,5	1,810350
8,067000	0,5	1,819500
8,075333	0,5	1,811850
8,083667	0,5	1,805000
8,092000	0,5	1,800700
8,100333	0,5	1,805050
8,108667	0,5	1,809450
8,117000	0,5	1,808950
8,125333	0,5	1,819450
8,133667	0,5	1,840350
8,142000	0,5	1,868250
8,150333	0,5	1,893450
8,158667	0,5	1,899150
8,167000	0,5	1,899000
8,175333	0,5	1,893100
8,183667	0,5	1,870250
8,192000	0,5	1,859200
8,200333	0,5	1,844550
8,208667	0,5	1,852850
8,217000	0,5	1,863800
8,225333	0,5	1,858600
8,233667	0,5	1,859050
8,242000	0,5	1,855350
8,250333	0,5	1,852750
8,258667	0,5	1,849350
8,267000	0,5	1,849550
8,275333	0,5	1,855900
8,283667	0,5	1,872600
8,292000	0,5	1,904050
8,300333	0,5	1,947850
8,308667	0,5	1,986050
8,317000	0,5	2,024800
8,325333	0,5	2,034750
8,333667	0,5	2,015550
8,342000	0,5	1,975150
8,350333	0,5	1,935750
8,358667	0,5	1,898750
8,367000	0,5	1,878200
8,375333	0,5	1,857400
8,383667	0,5	1,840550
8,392000	0,5	1,835950
8,400333	0,5	1,837050
8,408667	0,5	1,837950
8,417000	0,5	1,857150
8,425333	0,5	1,874750
8,433667	0,5	1,900500
8,442000	0,5	1,917300
8,450333	0,5	1,920800
8,458667	0,5	1,920050
8,467000	0,5	1,913100
8,475333	0,5	1,897950
8,483667	0,5	1,878950
8,492000	0,5	1,869850
8,500333	0,5	1,870800
8,508667	0,5	1,884550
8,517000	0,5	1,891950
8,525333	0,5	1,901350
8,533667	0,5	1,914250
8,542000	0,5	1,931100
8,550333	0,5	1,955000
8,558667	0,5	1,995650
8,567000	0,5	2,026450
8,575333	0,5	2,046500
8,583667	0,5	2,036150
8,592000	0,5	1,982850
8,600333	0,5	1,904550
8,608667	0,5	1,840950
8,617000	0,5	1,786400
8,625333	0,5	1,735250
8,633667	0,5	1,695000
8,642000	0,5	1,667500
8,650333	0,5	1,654900
8,658667	0,5	1,647100
8,667000	0,5	1,636800
8,675333	0,5	1,625400
8,683667	0,5	1,620900
8,692000	0,5	1,613450
8,700333	0,5	1,615650
8,708667	0,5	1,607650
8,717000	0,5	1,607350
8,725333	0,5	1,608300
8,733667	0,5	1,607850
8,742000	0,5	1,608300
8,750333	0,5	1,611250
8,758667	0,5	1,617600
8,767000	0,5	1,622700
8,775333	0,5	1,623800
8,783667	0,5	1,627100
8,792000	0,5	1,638600
8,800333	0,5	1,661750
8,808667	0,5	1,661750
8,817000	0,5	1,688150
8,825333	0,5	1,695100
8,833667	0,5	1,698800
8,842000	0,5	1,699100
8,850333	0,5	1,694700
8,858667	0,5	1,698550
8,867000	0,5	1,692100
8,875333	0,5	1,689300
8,883667	0,5	1,684800
8,892000	0,5	1,684250
8,900333	0,5	1,677150
8,908667	0,5	1,675600
8,917000	0,5	1,669100
8,925333	0,5	1,671600
8,933667	0,5	1,667500
8,942000	0,5	1,667100
8,950333	0,5	1,675250
8,958667	0,5	1,678300
8,967000	0,5	1,680650
8,975333	0,5	1,694600
8,983667	0,5	1,705950
8,992000	0,5	1,716800
9,000333	0,5	1,726300
9,008667	0,5	1,734300
9,017000	0,5	1,732550
9,025333	0,5	1,722300
9,033667	0,5	1,716100
9,042000	0,5	1,713650
9,050333	0,5	1,714000
9,058667	0,5	1,725500
9,067000	0,5	1,741300
9,075333	0,5	1,756250
9,083667	0,5	1,768000
9,092000	0,5	1,780350
9,100333	0,5	1,793900
9,108667	0,5	1,791950
9,117000	0,5	1,787350
9,125333	0,5	1,775750
9,133667	0,5	1,760800
9,142000	0,5	1,744300
9,150333	0,5	1,731100
9,158667	0,5	1,719950
9,167000	0,5	1,715650
9,175333	0,5	1,714150
9,183667	0,5	1,716500
9,192000	0,5	1,708400
9,200333	0,5	1,704900
9,208667	0,5	1,672000
9,217000	0,5	1,638050
9,225333	0,5	1,610500
9,233667	0,5	1,586950
9,242000	0,5	1,572800
9,250333	0,5	1,564250
9,258667	0,5	1,559650
9,267000	0,5	1,549250
9,275333	0,5	1,545300
9,283667	0,5	1,537050
9,292000	0,5	1,537950
9,300333	0,5	1,531400
9,308667	0,5	1,532200
9,317000	0,5	1,530000
9,325333	0,5	1,534050
9,333667	0,5	1,538350
9,342000	0,5	1,542600
9,350333	0,5	1,548200
9,358667	0,5	1,556800
9,367000	0,5	1,570000
9,375333	0,5	1,584400
9,383667	0,5	1,601750
9,392000	0,5	1,622100
9,400333	0,5	1,642950
9,408667	0,5	1,651750
9,417000	0,5	1,660500
9,425333	0,5	1,667050
9,433667	0,5	1,667150
9,442000	0,5	1,671550
9,450333	0,5	1,678800
9,458667	0,5	1,678800
9,467000	0,5	1,683600
9,475333	0,5	1,688300
9,483667	0,5	1,695100
9,492000	0,5	1,693250
9,500333	0,5	1,697500
9,508667	0,5	1,698400
9,517000	0,5	1,690950
9,525333	0,5	1,692300
9,533667	0,5	1,699650
9,542000	0,5	1,699450
9,550333	0,5	1,695800
9,558667	0,5	1,692600
9,567000	0,5	1,680300
9,575333	0,5	1,668700
9,583667	0,5	1,653650
9,592000	0,5	1,642650
9,600333	0,5	1,629800
9,608667	0,5	1,621150
9,617000	0,5	1,615000
9,625333	0,5	1,613650
9,633667	0,5	1,602200
9,642000	0,5	1,594850
9,650333	0,5	1,591550
9,658667	0,5	1,587850
9,667000	0,5	1,584450
9,675333	0,5	1,581750
9,683667	0,5	1,580850
9,692000	0,5	1,580950
9,700333	0,5	1,574450
9,708667	0,5	1,570350
9,717000	0,5	1,557950
9,725333	0,5	1,552850
9,733667	0,5	1,547800
9,742000	0,5	1,543250
9,750333	0,5	1,535950
9,758667	0,5	1,531400
9,767000	0,5	1,529900
9,775333	0,5	1,523200
9,783667	0,5	1,518400
9,792000	0,5	1,516050
9,800333	0,5	1,510650
9,808667	0,5	1,504350
9,817000	0,5	1,499700
9,825333	0,5	1,493750
9,833667	0,5	1,495250
9,842000	0,5	1,495400
9,850333	0,5	1,494850
9,858667	0,5	1,491300
9,867000	0,5	1,488150
9,875333	0,5	1,486550
9,883667	0,5	1,485100
9,892000	0,5	1,479750
9,900333	0,5	1,480050
9,908667	0,5	1,472400
9,917000	0,5	1,466150
9,925333	0,5	1,469750
9,933667	0,5	1,469200
9,942000	0,5	1,474800
9,950333	0,5	1,476050
9,958667	0,5	1,478000
9,967000	0,5	1,484200
9,975333	0,5	1,491750
9,983667	0,5	1,502950
9,992000	0,5	1,514500
10,000333	0,5	1,534800
10,008667	0,5	1,553100
10,017000	0,5	1,579600
10,025333	0,5	1,618450
10,033667	0,5	1,674250
10,042000	0,5	1,753200
10,050333	0,5	1,841450
10,058667	0,5	1,952400
10,067000	0,5	2,069700
10,075333	0,5	2,177400
10,083667	0,5	2,271900
10,092000	0,5	2,335850
10,100333	0,5	2,353850
10,108667	0,5	2,332500
10,117000	0,5	2,255550
10,125333	0,5	2,156150
10,133667	0,5	2,032350
10,142000	0,5	1,913200
10,150333	0,5	1,812300
10,158667	0,5	1,728100
10,167000	0,5	1,660100
10,175333	0,5	1,623700
10,183667	0,5	1,592100
10,192000	0,5	1,568250
10,200333	0,5	1,557000
10,208667	0,5	1,552100
10,217000	0,5	1,547000
10,225333	0,5	1,551650
10,233667	0,5	1,560000
10,242000	0,5	1,577250
10,250333	0,5	1,591900
10,258667	0,5	1,603400
10,267000	0,5	1,615700
10,275333	0,5	1,627250
10,283667	0,5	1,638100
10,292000	0,5	1,639900
10,300333	0,5	1,636300
10,308667	0,5	1,630350
10,317000	0,5	1,622250
10,325333	0,5	1,615150
10,333667	0,5	1,614350
10,342000	0,5	1,613650
10,350333	0,5	1,614850
10,358667	0,5	1,627100
10,367000	0,5	1,649250
10,375333	0,5	1,674050
10,383667	0,5	1,710400
10,392000	0,5	1,748700
10,400333	0,5	1,785150
10,408667	0,5	1,808750
10,417000	0,5	1,809550
10,425333	0,5	1,801300
10,433667	0,5	1,775250
10,442000	0,5	1,741750
10,450333	0,5	1,702950
10,458667	0,5	1,664100
10,467000	0,5	1,632200
10,475333	0,5	1,603900
10,483667	0,5	1,583450
10,492000	0,5	1,564450
10,500333	0,5	1,549300
10,508667	0,5	1,532550
10,517000	0,5	1,526900
10,525333	0,5	1,519700
10,533667	0,5	1,518200
10,542000	0,5	1,521350
10,550333	0,5	1,526750
10,558667	0,5	1,532450
10,567000	0,5	1,539300
10,575333	0,5	1,543150
10,583667	0,5	1,537850
10,592000	0,5	1,535200
10,600333	0,5	1,520750
10,608667	0,5	1,515350
10,617000	0,5	1,507150
10,625333	0,5	1,503900
10,633667	0,5	1,520500
10,642000	0,5	1,544650
10,650333	0,5	1,578700
10,658667	0,5	1,618600
10,667000	0,5	1,662450
10,675333	0,5	1,694700
10,683667	0,5	1,715800
10,692000	0,5	1,712050
10,700333	0,5	1,694700
10,708667	0,5	1,664000
10,717000	0,5	1,627700
10,725333	0,5	1,598350
10,733667	0,5	1,572900
10,742000	0,5	1,547250
10,750333	0,5	1,532250
10,758667	0,5	1,530600
10,767000	0,5	1,529350
10,775333	0,5	1,548050
10,783667	0,5	1,571250
10,792000	0,5	1,616100
10,800333	0,5	1,664700
10,808667	0,5	1,725850
10,817000	0,5	1,786100
10,825333	0,5	1,835750
10,833667	0,5	1,855550
10,842000	0,5	1,843300
10,850333	0,5	1,799600
10,858667	0,5	1,728200
10,867000	0,5	1,650750
10,875333	0,5	1,563750
10,883667	0,5	1,490200
10,892000	0,5	1,430950
10,900333	0,5	1,390600
10,908667	0,5	1,372750
10,917000	0,5	1,373700
10,925333	0,5	1,385900
10,933667	0,5	1,403200
10,942000	0,5	1,424900
10,950333	0,5	1,457300
10,958667	0,5	1,484100
10,967000	0,5	1,507400
10,975333	0,5	1,530600
10,983667	0,5	1,538300
10,992000	0,5	1,544150
11,000333	0,5	1,538300
11,008667	0,5	1,532150
11,017000	0,5	1,531550
11,025333	0,5	1,519250
11,033667	0,5	1,511400
11,042000	0,5	1,499200
11,050333	0,5	1,496900
11,058667	0,5	1,492900
11,067000	0,5	1,495750
11,075333	0,5	1,487550
11,083667	0,5	1,486250
11,092000	0,5	1,483150
11,100333	0,5	1,484350
11,108667	0,5	1,476500
11,117000	0,5	1,473250
11,125333	0,5	1,469850
11,133667	0,5	1,464150
11,142000	0,5	1,465650
11,150333	0,5	1,462800
11,158667	0,5	1,455300
11,167000	0,5	1,458550
11,175333	0,5	1,462250
11,183667	0,5	1,457250
11,192000	0,5	1,459650
11,200333	0,5	1,457850
11,208667	0,5	1,455250
11,217000	0,5	1,454150
11,225333	0,5	1,450050
11,233667	0,5	1,441900
11,242000	0,5	1,436950
11,250333	0,5	1,438650
11,258667	0,5	1,441450
11,267000	0,5	1,436350
11,275333	0,5	1,443150
11,283667	0,5	1,440200
11,292000	0,5	1,440550
11,300333	0,5	1,441650
11,308667	0,5	1,443050
11,317000	0,5	1,448350
11,325333	0,5	1,445750
11,333667	0,5	1,446200
11,342000	0,5	1,439200
11,350333	0,5	1,434350
11,358667	0,5	1,424350
11,367000	0,5	1,414450
11,375333	0,5	1,405650
11,383667	0,5	1,394950
11,392000	0,5	1,386050
11,400333	0,5	1,376100
11,408667	0,5	1,364150
11,417000	0,5	1,360150
11,425333	0,5	1,363550
11,433667	0,5	1,355850
11,442000	0,5	1,358800
11,450333	0,5	1,363150
11,458667	0,5	1,379400
11,467000	0,5	1,409650
11,475333	0,5	1,457200
11,483667	0,5	1,518850
11,492000	0,5	1,591250
11,500333	0,5	1,670350
11,508667	0,5	1,735950
11,517000	0,5	1,781650
11,525333	0,5	1,801600
11,533667	0,5	1,789950
11,542000	0,5	1,749150
11,550333	0,5	1,700800
11,558667	0,5	1,648350
11,567000	0,5	1,607800
11,575333	0,5	1,575600
11,583667	0,5	1,556150
11,592000	0,5	1,538450
11,600333	0,5	1,532800
11,608667	0,5	1,534250
11,617000	0,5	1,546950
11,625333	0,5	1,564500
11,633667	0,5	1,602000
11,642000	0,5	1,655950
11,650333	0,5	1,730550
11,658667	0,5	1,829000
11,667000	0,5	1,953050
11,675333	0,5	2,087950
11,683667	0,5	2,232400
11,692000	0,5	2,362400
11,700333	0,5	2,479450
11,708667	0,5	2,525950
11,717000	0,5	2,538400
11,725333	0,5	2,499300
11,733667	0,5	2,429700
11,742000	0,5	2,323350
11,750333	0,5	2,245700
11,758667	0,5	2,173500
11,767000	0,5	2,128100
11,775333	0,5	2,106300
11,783667	0,5	2,093200
11,792000	0,5	2,089900
11,800333	0,5	2,082650
11,808667	0,5	2,059800
11,817000	0,5	2,013200
11,825333	0,5	1,946700
11,833667	0,5	1,868300
11,842000	0,5	1,790450
11,850333	0,5	1,694800
11,858667	0,5	1,616200
11,867000	0,5	1,547600
11,875333	0,5	1,482300
11,883667	0,5	1,430700
11,892000	0,5	1,383850
11,900333	0,5	1,354300
11,908667	0,5	1,330850
11,917000	0,5	1,306850
11,925333	0,5	1,295000
11,933667	0,5	1,281850
11,942000	0,5	1,270200
11,950333	0,5	1,268450
11,958667	0,5	1,256350
11,967000	0,5	1,251800
11,975333	0,5	1,246450
11,983667	0,5	1,244500
11,992000	0,5	1,239750
12,000333	0,5	1,229050
12,008667	0,5	1,234700
12,017000	0,5	1,231700
12,025333	0,5	1,232450
12,033667	0,5	1,229950
12,042000	0,5	1,219700
12,050333	0,5	1,224450
12,058667	0,5	1,225950
12,067000	0,5	1,228300
12,075333	0,5	1,232300
12,083667	0,5	1,231950
12,092000	0,5	1,237400
12,100333	0,5	1,238650
12,108667	0,5	1,246050
12,117000	0,5	1,251150
12,125333	0,5	1,250500
12,133667	0,5	1,250900
12,142000	0,5	1,257300
12,150333	0,5	1,264900
12,158667	0,5	1,281150
12,167000	0,5	1,293300
12,175333	0,5	1,312150
12,183667	0,5	1,326400
12,192000	0,5	1,341400
12,200333	0,5	1,364000
12,208667	0,5	1,381700
12,217000	0,5	1,391500
12,225333	0,5	1,400300
12,233667	0,5	1,402950
12,242000	0,5	1,407250
12,250333	0,5	1,410800
12,258667	0,5	1,410650
12,267000	0,5	1,416900
12,275333	0,5	1,424550
12,283667	0,5	1,439450
12,292000	0,5	1,449350
12,300333	0,5	1,463800
12,308667	0,5	1,489550
12,317000	0,5	1,510850
12,325333	0,5	1,537400
12,333667	0,5	1,566150
12,342000	0,5	1,606000
12,350333	0,5	1,671000
12,358667	0,5	1,730350
12,367000	0,5	1,806500
12,375333	0,5	1,872550
12,383667	0,5	1,940950
12,392000	0,5	1,997400
12,400333	0,5	2,062800
12,408667	0,5	2,134650
12,417000	0,5	2,227200
12,425333	0,5	2,341100
12,433667	0,5	2,448900
12,442000	0,5	2,555700
12,450333	0,5	2,633400
12,458667	0,5	2,676350
12,467000	0,5	2,679600
12,475333	0,5	2,650850
12,483667	0,5	2,590200
12,492000	0,5	2,511800
12,500333	0,5	2,440100
12,508667	0,5	2,376850
12,517000	0,5	2,317450
12,525333	0,5	2,277100
12,533667	0,5	2,249350
12,542000	0,5	2,233750
12,550333	0,5	2,217400
12,558667	0,5	2,198650
12,567000	0,5	2,183350
12,575333	0,5	2,177100
12,583667	0,5	2,169400
12,592000	0,5	2,158150
12,600333	0,5	2,147400
12,608667	0,5	2,118850
12,617000	0,5	2,076500
12,625333	0,5	2,019150
12,633667	0,5	1,954350
12,642000	0,5	1,896500
12,650333	0,5	1,834500
12,658667	0,5	1,770850
12,667000	0,5	1,717350
12,675333	0,5	1,669650
12,683667	0,5	1,632100
12,692000	0,5	1,605550
12,700333	0,5	1,587150
12,708667	0,5	1,586400
12,717000	0,5	1,578250
12,725333	0,5	1,552600
12,733667	0,5	1,506950
12,742000	0,5	1,458450
12,750333	0,5	1,409700
12,758667	0,5	1,348550
12,767000	0,5	1,303100
12,775333	0,5	1,270300
12,783667	0,5	1,292050
12,792000	0,5	1,284250
12,800333	0,5	1,111050
12,808667	0,5	0,752300
12,817000	0,5	0,278500
12,825333	0,5	-0,106900
12,833667	0,5	-0,390900
12,842000	0,5	-0,623050
12,850333	0,5	-0,845350
12,858667	0,5	-1,085150
12,867000	0,5	-1,325200
12,875333	0,5	-1,497900
12,883667	0,5	-1,642450
12,892000	0,5	-1,741200
12,900333	0,5	-1,829500
12,908667	0,5	-1,903800
12,917000	0,5	-1,970150
12,925333	0,5	-2,038950
12,933667	0,5	-2,084900
12,942000	0,5	-2,132750
12,950333	0,5	-2,182000
12,958667	0,5	-2,222750
12,967000	0,5	-2,256650
12,975333	0,5	-2,291550
12,983667	0,5	-2,322400
12,992000	0,5	-2,347450
13,000333	0,5	-2,371700
13,008667	0,5	-2,395500
13,017000	0,5	-2,404250
13,025333	0,5	-2,422700
13,033667	0,5	-2,438900
13,042000	0,5	-2,446100
13,050333	0,5	-2,455650
13,058667	0,5	-2,470250
13,067000	0,5	-2,479450
13,075333	0,5	-2,492300
13,083667	0,5	-2,496000
13,092000	0,5	-2,501200
13,100333	0,5	-2,497550
13,108667	0,5	-2,503300
13,117000	0,5	-2,501850
13,125333	0,5	-2,511750
13,133667	0,5	-2,508900
13,142000	0,5	-2,509250
13,150333	0,5	-2,512200
13,158667	0,5	-2,514400
13,167000	0,5	-2,516150
13,175333	0,5	-2,514500
13,183667	0,5	-2,520000
13,192000	0,5	-2,514450
13,200333	0,5	-2,510400
13,208667	0,5	-2,511450
13,217000	0,5	-2,515800
13,225333	0,5	-2,516250
13,233667	0,5	-2,510550
13,242000	0,5	-2,500550
13,250333	0,5	-2,492500
13,258667	0,5	-2,480850
13,267000	0,5	-2,466200
13,275333	0,5	-2,452950
13,283667	0,5	-2,435400
13,292000	0,5	-2,416200
13,300333	0,5	-2,394700
13,308667	0,5	-2,371200
13,317000	0,5	-2,345500
13,325333	0,5	-2,330050
13,333667	0,5	-2,312100
13,342000	0,5	-2,288500
13,350333	0,5	-2,270700
13,358667	0,5	-2,267600
13,367000	0,5	-2,264850
13,375333	0,5	-2,268600
13,383667	0,5	-2,260750
13,392000	0,5	-2,264200
13,400333	0,5	-2,276200
13,408667	0,5	-2,286600
13,417000	0,5	-2,285250
13,425333	0,5	-2,297500
13,433667	0,5	-2,298650
13,442000	0,5	-2,302950
13,450333	0,5	-2,294050
13,458667	0,5	-2,275150
13,467000	0,5	-2,259150
13,475333	0,5	-2,241550
13,483667	0,5	-2,206400
13,492000	0,5	-2,184200
13,500333	0,5	-2,159150
13,508667	0,5	-2,140300
13,517000	0,5	-2,133350
13,525333	0,5	-2,121850
13,533667	0,5	-2,126850
13,542000	0,5	-2,125200
13,550333	0,5	-2,128300
13,558667	0,5	-2,131750
13,567000	0,5	-2,138850
13,575333	0,5	-2,134150
13,583667	0,5	-2,131650
13,592000	0,5	-2,130400
13,600333	0,5	-2,125950
13,608667	0,5	-2,115200
13,617000	0,5	-2,114950
13,625333	0,5	-2,104300
13,633667	0,5	-2,086150
13,642000	0,5	-2,065650
13,650333	0,5	-2,047050
13,658667	0,5	-2,026250
13,667000	0,5	-1,996800
13,675333	0,5	-1,963950
13,683667	0,5	-1,928400
13,692000	0,5	-1,905800
13,700333	0,5	-1,889350
13,708667	0,5	-1,880800
13,717000	0,5	-1,881150
13,725333	0,5	-1,875550
13,733667	0,5	-1,877000
13,742000	0,5	-1,879400
13,750333	0,5	-1,869550
13,758667	0,5	-1,865300
13,767000	0,5	-1,859350
13,775333	0,5	-1,841750
13,783667	0,5	-1,826750
13,792000	0,5	-1,810250
13,800333	0,5	-1,801100
13,808667	0,5	-1,790700
13,817000	0,5	-1,771250
13,825333	0,5	-1,746550
13,833667	0,5	-1,730300
13,842000	0,5	-1,707700
13,850333	0,5	-1,689050
13,858667	0,5	-1,671150
13,867000	0,5	-1,655300
13,875333	0,5	-1,626700
13,883667	0,5	-1,609900
13,892000	0,5	-1,585500
13,900333	0,5	-1,574000
13,908667	0,5	-1,544250
13,917000	0,5	-1,536400
13,925333	0,5	-1,504600
13,933667	0,5	-1,484750
13,942000	0,5	-1,458950
13,950333	0,5	-1,443050
13,958667	0,5	-1,430550
13,967000	0,5	-1,396800
13,975333	0,5	-1,367350
13,983667	0,5	-1,341150
13,992000	0,5	-1,313800
14,000333	0,5	-1,281500
14,008667	0,5	-1,254550
14,017000	0,5	-1,216950
14,025333	0,5	-1,185150
14,033667	0,5	-1,147650
14,042000	0,5	-1,114150
14,050333	0,5	-1,074400
14,058667	0,5	-1,042650
14,067000	0,5	-1,007100
14,075333	0,5	-0,969050
14,083667	0,5	-0,933500
14,092000	0,5	-0,901950
14,100333	0,5	-0,881650
14,108667	0,5	-0,864000
14,117000	0,5	-0,827050
14,125333	0,5	-0,798550
14,133667	0,5	-0,775650
14,142000	0,5	-0,762750
14,150333	0,5	-0,741950
14,158667	0,5	-0,721100
14,167000	0,5	-0,699000
14,175333	0,5	-0,671050
14,183667	0,5	-0,642400
14,192000	0,5	-0,611500
14,200333	0,5	-0,567800
14,208667	0,5	-0,540000
14,217000	0,5	-0,485000
14,225333	0,5	-0,425600
14,233667	0,5	-0,353150
14,242000	0,5	-0,272950
14,250333	0,5	-0,198450
14,258667	0,5	-0,112700
14,267000	0,5	-0,030850
14,275333	0,5	0,039850
14,283667	0,5	0,090200
14,292000	0,5	0,136500
14,300333	0,5	0,189700
14,308667	0,5	0,238100
14,317000	0,5	0,277850
14,325333	0,5	0,301850
14,333667	0,5	0,313450
14,342000	0,5	0,315750
14,350333	0,5	0,321650
14,358667	0,5	0,324900
14,367000	0,5	0,366900
14,375333	0,5	0,405250
14,383667	0,5	0,440950
14,392000	0,5	0,466750
14,400333	0,5	0,487800
14,408667	0,5	0,505400
14,417000	0,5	0,525950
14,425333	0,5	0,521250
14,433667	0,5	0,503350
14,442000	0,5	0,480450
14,450333	0,5	0,455500
14,458667	0,5	0,431600
14,467000	0,5	0,404750
14,475333	0,5	0,380350
14,483667	0,5	0,367800
14,492000	0,5	0,362100
14,500333	0,5	0,354700
14,508667	0,5	0,345700
14,517000	0,5	0,337850
14,525333	0,5	0,332700
14,533667	0,5	0,334700
14,542000	0,5	0,325150
14,550333	0,5	0,321550
14,558667	0,5	0,326050
14,567000	0,5	0,329050
14,575333	0,5	0,327850
14,583667	0,5	0,322850
14,592000	0,5	0,332800
14,600333	0,5	0,334400
14,608667	0,5	0,335750
14,617000	0,5	0,340450
14,625333	0,5	0,347400
14,633667	0,5	0,361450
14,642000	0,5	0,393500
14,650333	0,5	0,385500
14,658667	0,5	0,409200
14,667000	0,5	0,413950
14,675333	0,5	0,407250
14,683667	0,5	0,390550
14,692000	0,5	0,361650
14,700333	0,5	0,353050
14,708667	0,5	0,333800
14,717000	0,5	0,323450
14,725333	0,5	0,305150
14,733667	0,5	0,303200
14,742000	0,5	0,294250
14,750333	0,5	0,293600
14,758667	0,5	0,286300
14,767000	0,5	0,291100
14,775333	0,5	0,286450
14,783667	0,5	0,290500
14,792000	0,5	0,291500
14,800333	0,5	0,289150
14,808667	0,5	0,303750
14,817000	0,5	0,317950
14,825333	0,5	0,332900
14,833667	0,5	0,372950
14,842000	0,5	0,420850
14,850333	0,5	0,510750
14,858667	0,5	0,607950
14,867000	0,5	0,703700
14,875333	0,5	0,776350
14,883667	0,5	0,807050
14,892000	0,5	0,798150
14,900333	0,5	0,750500
14,908667	0,5	0,697900
14,917000	0,5	0,630100
14,925333	0,5	0,583600
14,933667	0,5	0,561850
14,942000	0,5	0,566150
14,950333	0,5	0,589850
14,958667	0,5	0,645750
14,967000	0,5	0,677850
14,975333	0,5	0,688250
14,983667	0,5	0,662550
14,992000	0,5	0,616450
15,000333	0,5	0,578150
15,008667	0,5	0,527350
15,017000	0,5	0,480100
15,025333	0,5	0,440700
15,033667	0,5	0,406650
15,042000	0,5	0,387800
15,050333	0,5	0,372750
15,058667	0,5	0,354900
15,067000	0,5	0,350400
15,075333	0,5	0,333850
15,083667	0,5	0,345250
15,092000	0,5	0,322750
15,100333	0,5	0,349300
15,108667	0,5	0,353750
15,117000	0,5	0,368650
15,125333	0,5	0,362850
15,133667	0,5	0,348600
15,142000	0,5	0,347300
15,150333	0,5	0,348800
15,158667	0,5	0,336400
15,167000	0,5	0,324900
15,175333	0,5	0,316700
15,183667	0,5	0,298450
15,192000	0,5	0,290550
15,200333	0,5	0,275200
15,208667	0,5	0,258300
15,217000	0,5	0,239100
15,225333	0,5	0,228200
15,233667	0,5	0,208850
15,242000	0,5	0,188850
15,250333	0,5	0,196450
15,258667	0,5	0,183750
15,267000	0,5	0,180050
15,275333	0,5	0,168350
15,283667	0,5	0,151600
15,292000	0,5	0,159700
15,300333	0,5	0,156200
15,308667	0,5	0,161750
15,317000	0,5	0,158750
15,325333	0,5	0,173850
15,333667	0,5	0,187500
15,342000	0,5	0,220650
15,350333	0,5	0,278600
15,358667	0,5	0,354950
15,367000	0,5	0,464700
15,375333	0,5	0,579250
15,383667	0,5	0,683250
15,392000	0,5	0,739200
15,400333	0,5	0,755400
15,408667	0,5	0,714700
15,417000	0,5	0,653650
15,425333	0,5	0,581850
15,433667	0,5	0,542150
15,442000	0,5	0,539200
15,450333	0,5	0,575050
15,458667	0,5	0,607400
15,467000	0,5	0,636800
15,475333	0,5	0,624700
15,483667	0,5	0,588650
15,492000	0,5	0,534050
15,500333	0,5	0,475900
15,508667	0,5	0,420850
15,517000	0,5	0,372550
15,525333	0,5	0,357000
15,533667	0,5	0,336450
15,542000	0,5	0,333550
15,550333	0,5	0,340900
15,558667	0,5	0,342900
15,567000	0,5	0,328500
15,575333	0,5	0,313250
15,583667	0,5	0,290100
15,592000	0,5	0,290050
15,600333	0,5	0,275800
15,608667	0,5	0,268000
15,617000	0,5	0,263500
15,625333	0,5	0,259950
15,633667	0,5	0,248000
15,642000	0,5	0,240050
15,650333	0,5	0,225400
15,658667	0,5	0,208450
15,667000	0,5	0,187950
15,675333	0,5	0,166000
15,683667	0,5	0,142800
15,692000	0,5	0,139750
15,700333	0,5	0,124250
15,708667	0,5	0,109750
15,717000	0,5	0,083450
15,725333	0,5	0,062300
15,733667	0,5	0,066450
15,742000	0,5	0,057350
15,750333	0,5	0,049300
15,758667	0,5	0,048750
15,767000	0,5	0,053200
15,775333	0,5	0,055600
15,783667	0,5	0,074300
15,792000	0,5	0,099950
15,800333	0,5	0,150850
15,808667	0,5	0,215750
15,817000	0,5	0,341750
15,825333	0,5	0,442350
15,833667	0,5	0,554800
15,842000	0,5	0,630600
15,850333	0,5	0,644550
15,858667	0,5	0,604700
15,867000	0,5	0,550000
15,875333	0,5	0,514100
15,883667	0,5	0,502900
15,892000	0,5	0,520050
15,900333	0,5	0,527350
15,908667	0,5	0,520300
15,917000	0,5	0,485650
15,925333	0,5	0,441650
15,933667	0,5	0,383250
15,942000	0,5	0,328600
15,950333	0,5	0,269600
15,958667	0,5	0,222000
15,967000	0,5	0,190200
15,975333	0,5	0,166800
15,983667	0,5	0,155950
15,992000	0,5	0,149050
16,000333	0,5	0,148950
16,008667	0,5	0,148250
16,017000	0,5	0,130600
16,025333	0,5	0,137550
16,033667	0,5	0,147900
16,042000	0,5	0,137600
16,050333	0,5	0,125400
16,058667	0,5	0,103700
16,067000	0,5	0,090850
16,075333	0,5	0,073350
16,083667	0,5	0,054500
16,092000	0,5	0,018300
16,100333	0,5	0,000800
16,108667	0,5	-0,023150
16,117000	0,5	-0,029600
16,125333	0,5	-0,061000
16,133667	0,5	-0,050550
16,142000	0,5	-0,055450
16,150333	0,5	-0,067450
16,158667	0,5	-0,081300
16,167000	0,5	-0,098100
16,175333	0,5	-0,080000
16,183667	0,5	-0,063650
16,192000	0,5	-0,041600
16,200333	0,5	0,007350
16,208667	0,5	0,078650
16,217000	0,5	0,177900
16,225333	0,5	0,302650
16,233667	0,5	0,416350
16,242000	0,5	0,506900
16,250333	0,5	0,548350
16,258667	0,5	0,552450
16,267000	0,5	0,519000
16,275333	0,5	0,503500
16,283667	0,5	0,500900
16,292000	0,5	0,498200
16,300333	0,5	0,479750
16,308667	0,5	0,427550
16,317000	0,5	0,364700
16,325333	0,5	0,297050
16,333667	0,5	0,227100
16,342000	0,5	0,167900
16,350333	0,5	0,125950
16,358667	0,5	0,098500
16,367000	0,5	0,071700
16,375333	0,5	0,062600
16,383667	0,5	0,062800
16,392000	0,5	0,057400
16,400333	0,5	0,064650
16,408667	0,5	0,064250
16,417000	0,5	0,055000
16,425333	0,5	0,062100
16,433667	0,5	0,057450
16,442000	0,5	0,043050
16,450333	0,5	0,021150
16,458667	0,5	-0,014750
16,467000	0,5	-0,039350
16,475333	0,5	-0,059000
16,483667	0,5	-0,064700
16,492000	0,5	-0,088700
16,500333	0,5	-0,100300
16,508667	0,5	-0,119050
16,517000	0,5	-0,129500
16,525333	0,5	-0,141400
16,533667	0,5	-0,148100
16,542000	0,5	-0,150750
16,550333	0,5	-0,139850
16,558667	0,5	-0,122900
16,567000	0,5	-0,096100
16,575333	0,5	-0,014150
16,583667	0,5	0,086100
16,592000	0,5	0,209450
16,600333	0,5	0,324900
16,608667	0,5	0,431100
16,617000	0,5	0,498850
16,625333	0,5	0,538900
16,633667	0,5	0,538750
16,642000	0,5	0,532900
16,650333	0,5	0,527750
16,658667	0,5	0,515850
16,667000	0,5	0,485000
16,675333	0,5	0,445550
16,683667	0,5	0,396650
16,692000	0,5	0,351300
16,700333	0,5	0,320600
16,708667	0,5	0,272650
16,717000	0,5	0,264150
16,725333	0,5	0,246300
16,733667	0,5	0,243950
16,742000	0,5	0,232150
16,750333	0,5	0,215150
16,758667	0,5	0,213850
16,767000	0,5	0,236450
16,775333	0,5	0,239750
16,783667	0,5	0,246600
16,792000	0,5	0,245750
16,800333	0,5	0,242000
16,808667	0,5	0,218200
16,817000	0,5	0,195400
16,825333	0,5	0,159400
16,833667	0,5	0,115050
16,842000	0,5	0,080100
16,850333	0,5	0,046600
16,858667	0,5	-0,017850
16,867000	0,5	-0,030650
16,875333	0,5	-0,048600
16,883667	0,5	-0,059600
16,892000	0,5	-0,052450
16,900333	0,5	-0,030850
16,908667	0,5	0,060500
16,917000	0,5	0,155400
16,925333	0,5	0,273750
16,933667	0,5	0,366000
16,942000	0,5	0,426150
16,950333	0,5	0,432950
16,958667	0,5	0,427450
16,967000	0,5	0,399150
16,975333	0,5	0,364250
16,983667	0,5	0,319550
16,992000	0,5	0,273800
17,000333	0,5	0,219150
17,008667	0,5	0,152050
17,017000	0,5	0,121950
17,025333	0,5	0,087800
17,033667	0,5	0,068000
17,042000	0,5	0,041050
17,050333	0,5	0,025850
17,058667	0,5	0,036500
17,067000	0,5	0,037150
17,075333	0,5	0,033300
17,083667	0,5	0,028700
17,092000	0,5	0,014700
17,100333	0,5	0,012250
17,108667	0,5	-0,000150
17,117000	0,5	0,000400
17,125333	0,5	-0,007300
17,133667	0,5	-0,003150
17,142000	0,5	0,007850
17,150333	0,5	0,027350
17,158667	0,5	0,070050
17,167000	0,5	0,148750
17,175333	0,5	0,240150
17,183667	0,5	0,352700
17,192000	0,5	0,506150
17,200333	0,5	0,708250
17,208667	0,5	0,970500
17,217000	0,5	1,240050
17,225333	0,5	1,491000
17,233667	0,5	1,710500
17,242000	0,5	1,877600
17,250333	0,5	1,997950
17,258667	0,5	2,083850
17,267000	0,5	2,136400
17,275333	0,5	2,175750
17,283667	0,5	2,208500
17,292000	0,5	2,262750
17,300333	0,5	2,295200
17,308667	0,5	2,349400
17,317000	0,5	2,379200
17,325333	0,5	2,367100
17,333667	0,5	2,301150
17,342000	0,5	2,161350
17,350333	0,5	2,006600
17,358667	0,5	1,810800
17,367000	0,5	1,602000
17,375333	0,5	1,402500
17,383667	0,5	1,206100
17,392000	0,5	1,029150
17,400333	0,5	0,896650
17,408667	0,5	0,776150
17,417000	0,5	0,680900
17,425333	0,5	0,603250
17,433667	0,5	0,560150
17,442000	0,5	0,520650
17,450333	0,5	0,502150
17,458667	0,5	0,516250
17,467000	0,5	0,547550
17,475333	0,5	0,607800
17,483667	0,5	0,663400
17,492000	0,5	0,723400
17,500333	0,5	0,783300
17,508667	0,5	0,826550
17,517000	0,5	0,840150
17,525333	0,5	0,833550
17,533667	0,5	0,820650
17,542000	0,5	0,792400
17,550333	0,5	0,762350
17,558667	0,5	0,727100
17,567000	0,5	0,690600
17,575333	0,5	0,684200
17,583667	0,5	0,668450
17,592000	0,5	0,626250
17,600333	0,5	0,590550
17,608667	0,5	0,555500
17,617000	0,5	0,494950
17,625333	0,5	0,428300
17,633667	0,5	0,338750
17,642000	0,5	0,276150
17,650333	0,5	0,230700
17,658667	0,5	0,185200
17,667000	0,5	0,143600
17,675333	0,5	0,102100
17,683667	0,5	0,080450
17,692000	0,5	0,070350
17,700333	0,5	0,076050
17,708667	0,5	0,089700
17,717000	0,5	0,130350
17,725333	0,5	0,192100
17,733667	0,5	0,243550
17,742000	0,5	0,259950
17,750333	0,5	0,282250
17,758667	0,5	0,264750
17,767000	0,5	0,234850
17,775333	0,5	0,173300
17,783667	0,5	0,117250
17,792000	0,5	0,071750
17,800333	0,5	0,036150
17,808667	0,5	-0,007400
17,817000	0,5	-0,021750
17,825333	0,5	-0,038900
17,833667	0,5	-0,058800
17,842000	0,5	-0,073100
17,850333	0,5	-0,094200
17,858667	0,5	-0,109750
17,867000	0,5	-0,128300
17,875333	0,5	-0,120000
17,883667	0,5	-0,135950
17,892000	0,5	-0,133150
17,900333	0,5	-0,143800
17,908667	0,5	-0,136150
17,917000	0,5	-0,131650
17,925333	0,5	-0,119150
17,933667	0,5	-0,067350
17,942000	0,5	0,009450
17,950333	0,5	0,067350
17,958667	0,5	0,116400
17,967000	0,5	0,135300
17,975333	0,5	0,138300
17,983667	0,5	0,113400
17,992000	0,5	0,087600
18,000333	0,5	0,042950
18,008667	0,5	0,003350
18,017000	0,5	-0,016750
18,025333	0,5	-0,028400
18,033667	0,5	-0,060450
18,042000	0,5	-0,064150
18,050333	0,5	-0,072300
18,058667	0,5	-0,079300
18,067000	0,5	-0,088250
18,075333	0,5	-0,118950
18,083667	0,5	-0,112800
18,092000	0,5	-0,107650
18,100333	0,5	-0,095850
18,108667	0,5	-0,096450
18,117000	0,5	-0,068300
18,125333	0,5	-0,042650
18,133667	0,5	0,008400
18,142000	0,5	0,064600
18,150333	0,5	0,113050
18,158667	0,5	0,148750
18,167000	0,5	0,161300
18,175333	0,5	0,156400
18,183667	0,5	0,119950
18,192000	0,5	0,101300
18,200333	0,5	0,069550
18,208667	0,5	0,034200
18,217000	0,5	-0,006750
18,225333	0,5	-0,037300
18,233667	0,5	-0,046250
18,242000	0,5	-0,044000
18,250333	0,5	-0,060700
18,258667	0,5	-0,058900
18,267000	0,5	-0,066250
18,275333	0,5	-0,067650
18,283667	0,5	-0,068000
18,292000	0,5	-0,067200
18,300333	0,5	-0,060000
18,308667	0,5	-0,041000
18,317000	0,5	0,003700
18,325333	0,5	0,039600
18,333667	0,5	0,080250
18,342000	0,5	0,108450
18,350333	0,5	0,104700
18,358667	0,5	0,073250
18,367000	0,5	0,035600
18,375333	0,5	-0,019950
18,383667	0,5	-0,039350
18,392000	0,5	-0,070800
18,400333	0,5	-0,089150
18,408667	0,5	-0,106600
18,417000	0,5	-0,123000
18,425333	0,5	-0,136250
18,433667	0,5	-0,134600
18,442000	0,5	-0,149400
18,450333	0,5	-0,158900
18,458667	0,5	-0,148050
18,467000	0,5	-0,130000
18,475333	0,5	-0,142500
18,483667	0,5	-0,121000
18,492000	0,5	-0,096900
18,500333	0,5	-0,077000
18,508667	0,5	-0,074300
18,517000	0,5	-0,098150
18,525333	0,5	-0,108100
18,533667	0,5	-0,132950
18,542000	0,5	-0,153350
18,550333	0,5	-0,182550
18,558667	0,5	-0,197150
18,567000	0,5	-0,216100
18,575333	0,5	-0,230150
18,583667	0,5	-0,244550
18,592000	0,5	-0,252200
18,600333	0,5	-0,264200
18,608667	0,5	-0,251850
18,617000	0,5	-0,267050
18,625333	0,5	-0,272900
18,633667	0,5	-0,267700
18,642000	0,5	-0,256900
18,650333	0,5	-0,256300
18,658667	0,5	-0,263450
18,667000	0,5	-0,262600
18,675333	0,5	-0,254700
18,683667	0,5	-0,258350
18,692000	0,5	-0,266950
18,700333	0,5	-0,279900
18,708667	0,5	-0,312150
18,717000	0,5	-0,333900
18,725333	0,5	-0,359500
18,733667	0,5	-0,360350
18,742000	0,5	-0,376450
18,750333	0,5	-0,372250
18,758667	0,5	-0,375100
18,767000	0,5	-0,400650
18,775333	0,5	-0,392900
18,783667	0,5	-0,376050
18,792000	0,5	-0,361500
18,800333	0,5	-0,347200
18,808667	0,5	-0,336800
18,817000	0,5	-0,313350
18,825333	0,5	-0,298150
18,833667	0,5	-0,295700
18,842000	0,5	-0,282000
18,850333	0,5	-0,278050
18,858667	0,5	-0,276250
18,867000	0,5	-0,260850
18,875333	0,5	-0,247800
18,883667	0,5	-0,240200
18,892000	0,5	-0,238350
18,900333	0,5	-0,231750
18,908667	0,5	-0,204200
18,917000	0,5	-0,213250
18,925333	0,5	-0,178100
18,933667	0,5	-0,162250
18,942000	0,5	-0,144900
18,950333	0,5	-0,157550
18,958667	0,5	-0,182200
18,967000	0,5	-0,183750
18,975333	0,5	-0,197750
18,983667	0,5	-0,205700
18,992000	0,5	-0,216500
19,000333	0,5	-0,233100
19,008667	0,5	-0,245650
19,017000	0,5	-0,238550
19,025333	0,5	-0,217000
19,033667	0,5	-0,219500
19,042000	0,5	-0,211450
19,050333	0,5	-0,181400
19,058667	0,5	-0,191750
19,067000	0,5	-0,211750
19,075333	0,5	-0,215150
19,083667	0,5	-0,239800
19,092000	0,5	-0,283450
19,100333	0,5	-0,321900
19,108667	0,5	-0,352700
19,117000	0,5	-0,353200
19,125333	0,5	-0,367550
19,133667	0,5	-0,381450
19,142000	0,5	-0,386150
19,150333	0,5	-0,381950
19,158667	0,5	-0,382600
19,167000	0,5	-0,375750
19,175333	0,5	-0,375350
19,183667	0,5	-0,390500
19,192000	0,5	-0,400700
19,200333	0,5	-0,414600
19,208667	0,5	-0,434400
19,217000	0,5	-0,450950
19,225333	0,5	-0,465450
19,233667	0,5	-0,483200
19,242000	0,5	-0,511400
19,250333	0,5	-0,548950
19,258667	0,5	-0,554050
19,267000	0,5	-0,554200
19,275333	0,5	-0,554450
19,283667	0,5	-0,577450
19,292000	0,5	-0,587150
19,300333	0,5	-0,602200
19,308667	0,5	-0,624300
19,317000	0,5	-0,643950
19,325333	0,5	-0,657400
19,333667	0,5	-0,671250
19,342000	0,5	-0,673400
19,350333	0,5	-0,674650
19,358667	0,5	-0,684850
19,367000	0,5	-0,673700
19,375333	0,5	-0,682650
19,383667	0,5	-0,699900
19,392000	0,5	-0,736950
19,400333	0,5	-0,756600
19,408667	0,5	-0,771900
19,417000	0,5	-0,765050
19,425333	0,5	-0,780050
19,433667	0,5	-0,774300
19,442000	0,5	-0,794950
19,450333	0,5	-0,800000
19,458667	0,5	-0,805850
19,467000	0,5	-0,808300
19,475333	0,5	-0,816950
19,483667	0,5	-0,823750
19,492000	0,5	-0,810450
19,500333	0,5	-0,821450
19,508667	0,5	-0,820100
19,517000	0,5	-0,826650
19,525333	0,5	-0,830700
19,533667	0,5	-0,841350
19,542000	0,5	-0,873400
19,550333	0,5	-0,878450
19,558667	0,5	-0,873200
19,567000	0,5	-0,883050
19,575333	0,5	-0,882600
19,583667	0,5	-0,891650
19,592000	0,5	-0,898200
19,600333	0,5	-0,907300
19,608667	0,5	-0,900600
19,617000	0,5	-0,914200
19,625333	0,5	-0,942000
19,633667	0,5	-0,942700
19,642000	0,5	-0,941950
19,650333	0,5	-0,977400
19,658667	0,5	-0,969950
19,667000	0,5	-0,969800
19,675333	0,5	-0,984650
19,683667	0,5	-0,997950
19,692000	0,5	-1,038050
19,700333	0,5	-1,028950
19,708667	0,5	-1,041050
19,717000	0,5	-1,034900
19,725333	0,5	-1,043100
19,733667	0,5	-1,036750
19,742000	0,5	-1,041100
19,750333	0,5	-1,049500
19,758667	0,5	-1,053250
19,767000	0,5	-1,057950
19,775333	0,5	-1,053950
19,783667	0,5	-1,055600
19,792000	0,5	-1,076500
19,800333	0,5	-1,090150
19,808667	0,5	-1,093300
19,817000	0,5	-1,105100
19,825333	0,5	-1,118150
19,833667	0,5	-1,158850
19,842000	0,5	-1,166950
19,850333	0,5	-1,185800
19,858667	0,5	-1,196050
19,867000	0,5	-1,216350
19,875333	0,5	-1,220950
19,883667	0,5	-1,236350
19,892000	0,5	-1,247300
19,900333	0,5	-1,257850
19,908667	0,5	-1,261900
19,917000	0,5	-1,280400
19,925333	0,5	-1,297200
19,933667	0,5	-1,288650
19,942000	0,5	-1,320800
19,950333	0,5	-1,313100
19,958667	0,5	-1,328650
19,967000	0,5	-1,339450
19,975333	0,5	-1,355550
19,983667	0,5	-1,399800
19,992000	0,5	-1,403600
20,000333	0,5	-1,396500
20,008667	0,5	-1,403800
20,017000	0,5	-1,411550
20,025333	0,5	-1,416150
20,033667	0,5	-1,425100
20,042000	0,5	-1,440450
20,050333	0,5	-1,443150
20,058667	0,5	-1,469550
20,067000	0,5	-1,485800
20,075333	0,5	-1,482650
20,083667	0,5	-1,489400
20,092000	0,5	-1,520800
20,100333	0,5	-1,524850
20,108667	0,5	-1,539100
20,117000	0,5	-1,559500
20,125333	0,5	-1,581400
20,133667	0,5	-1,630250
20,142000	0,5	-1,631500
20,150333	0,5	-1,639400
20,158667	0,5	-1,651100
20,167000	0,5	-1,678550
20,175333	0,5	-1,677800
20,183667	0,5	-1,695900
20,192000	0,5	-1,705800
20,200333	0,5	-1,714550
20,208667	0,5	-1,730600
20,217000	0,5	-1,738200
20,225333	0,5	-1,735400
20,233667	0,5	-1,746300
20,242000	0,5	-1,764850
20,250333	0,5	-1,766450
20,258667	0,5	-1,772100
20,267000	0,5	-1,794750
20,275333	0,5	-1,836350
20,283667	0,5	-1,861900
20,292000	0,5	-1,869050
20,300333	0,5	-1,878100
20,308667	0,5	-1,891700
20,317000	0,5	-1,899050
20,325333	0,5	-1,909650
20,333667	0,5	-1,920700
20,342000	0,5	-1,936750
20,350333	0,5	-1,949950
20,358667	0,5	-1,966500
20,367000	0,5	-1,964950
20,375333	0,5	-1,976500
20,383667	0,5	-1,992100
20,392000	0,5	-2,004700
20,400333	0,5	-2,022750
20,408667	0,5	-2,048350
20,417000	0,5	-2,086700
20,425333	0,5	-2,120550
20,433667	0,5	-2,151350
20,442000	0,5	-2,155100
20,450333	0,5	-2,177800
20,458667	0,5	-2,190600
20,467000	0,5	-2,218700
20,475333	0,5	-2,242450
20,483667	0,5	-2,258600
20,492000	0,5	-2,270700
20,500333	0,5	-2,287700
20,508667	0,5	-2,306550
20,517000	0,5	-2,304050
20,525333	0,5	-2,312150
20,533667	0,5	-2,340650
20,542000	0,5	-2,345250
20,550333	0,5	-2,370750
20,558667	0,5	-2,403350
20,567000	0,5	-2,448950
20,575333	0,5	-2,486550
20,583667	0,5	-2,483750
20,592000	0,5	-2,492500
20,600333	0,5	-2,504050
20,608667	0,5	-2,522500
20,617000	0,5	-2,540700
20,625333	0,5	-2,581850
20,633667	0,5	-2,607050
20,642000	0,5	-2,657800
20,650333	0,5	-2,688050
20,658667	0,5	-2,699500
20,667000	0,5	-2,719950
20,675333	0,5	-2,764000
20,683667	0,5	-2,787500
20,692000	0,5	-2,819550
20,700333	0,5	-2,854850
20,708667	0,5	-2,901050
20,717000	0,5	-2,955050
20,725333	0,5	-2,972950
20,733667	0,5	-2,995050
20,742000	0,5	-3,014850
20,750333	0,5	-3,037700
20,758667	0,5	-3,042100
20,767000	0,5	-3,048500
20,775333	0,5	-3,049600
20,783667	0,5	-3,060950
20,792000	0,5	-3,081650
20,800333	0,5	-3,112750
20,808667	0,5	-3,128550
20,817000	0,5	-3,169000
20,825333	0,5	-3,224250
20,833667	0,5	-3,264150
20,842000	0,5	-3,304800
20,850333	0,5	-3,368150
20,858667	0,5	-3,427600
20,867000	0,5	-3,476500
20,875333	0,5	-3,492950
20,883667	0,5	-3,533500
20,892000	0,5	-3,573450
20,900333	0,5	-3,596800
20,908667	0,5	-3,630100
20,917000	0,5	-3,651700
20,925333	0,5	-3,668600
20,933667	0,5	-3,685500
20,942000	0,5	-3,717450
20,950333	0,5	-3,727950
20,958667	0,5	-3,728950
20,967000	0,5	-3,743550
20,975333	0,5	-3,794700
20,983667	0,5	-3,829150
20,992000	0,5	-3,870750
21,000333	0,5	-3,925300
21,008667	0,5	-3,985900
21,017000	0,5	-4,012600
21,025333	0,5	-4,036800
21,033667	0,5	-4,063150
21,042000	0,5	-4,083650
21,050333	0,5	-4,105550
21,058667	0,5	-4,125150
21,067000	0,5	-4,147400
21,075333	0,5	-4,154450
21,083667	0,5	-4,186050
21,092000	0,5	-4,225200
21,100333	0,5	-4,221500
21,108667	0,5	-4,236200
21,117000	0,5	-4,267500
21,125333	0,5	-4,294450
21,133667	0,5	-4,334650
21,142000	0,5	-4,369700
21,150333	0,5	-4,424050
21,158667	0,5	-4,477150
21,167000	0,5	-4,485900
21,175333	0,5	-4,520850
21,183667	0,5	-4,548650
21,192000	0,5	-4,580100
21,200333	0,5	-4,601050
21,208667	0,5	-4,631400
21,217000	0,5	-4,628150
21,225333	0,5	-4,654550
21,233667	0,5	-4,671400
21,242000	0,5	-4,693850
21,250333	0,5	-4,672600
21,258667	0,5	-4,675500
21,267000	0,5	-4,701550
21,275333	0,5	-4,720400
21,283667	0,5	-4,740600
21,292000	0,5	-4,779050
21,300333	0,5	-4,833450
21,308667	0,5	-4,857700
21,317000	0,5	-4,862950
21,325333	0,5	-4,864050
21,333667	0,5	-4,874700
21,342000	0,5	-4,873600
21,350333	0,5	-4,882050
21,358667	0,5	-4,902800
21,367000	0,5	-4,931650
21,375333	0,5	-4,956850
21,383667	0,5	-4,992550
21,392000	0,5	-4,979300
21,400333	0,5	-4,972150
21,408667	0,5	-4,998150
21,417000	0,5	-5,023250
21,425333	0,5	-5,047350
21,433667	0,5	-5,080500
21,442000	0,5	-5,127250
21,450333	0,5	-5,159550
21,458667	0,5	-5,190350
21,467000	0,5	-5,193600
21,475333	0,5	-5,219400
21,483667	0,5	-5,228750
21,492000	0,5	-5,247300
21,500333	0,5	-5,260950
21,508667	0,5	-5,287300
21,517000	0,5	-5,300150
21,525333	0,5	-5,318900
21,533667	0,5	-5,323300
21,542000	0,5	-5,302100
21,550333	0,5	-5,306050
21,558667	0,5	-5,318450
21,567000	0,5	-5,334850
21,575333	0,5	-5,372600
21,583667	0,5	-5,395750
21,592000	0,5	-5,439850
21,600333	0,5	-5,453950
21,608667	0,5	-5,470050
21,617000	0,5	-5,497650
21,625333	0,5	-5,518500
21,633667	0,5	-5,516750
21,642000	0,5	-5,519550
21,650333	0,5	-5,543700
21,658667	0,5	-5,532250
21,667000	0,5	-5,551000
21,675333	0,5	-5,550800
21,683667	0,5	-5,525050
21,692000	0,5	-5,491000
21,700333	0,5	-5,494100
21,708667	0,5	-5,494350
21,717000	0,5	-5,511350
21,725333	0,5	-5,548100
21,733667	0,5	-5,588800
21,742000	0,5	-5,642200
21,750333	0,5	-5,649000
21,758667	0,5	-5,654450
21,767000	0,5	-5,671050
21,775333	0,5	-5,678200
21,783667	0,5	-5,687850
21,792000	0,5	-5,712500
21,800333	0,5	-5,730300
21,808667	0,5	-5,755300
21,817000	0,5	-5,773250
21,825333	0,5	-5,791350
21,833667	0,5	-5,766750
21,842000	0,5	-5,774150
21,850333	0,5	-5,786350
21,858667	0,5	-5,784950
21,867000	0,5	-5,786600
21,875333	0,5	-5,810200
21,883667	0,5	-5,828200
21,892000	0,5	-5,817400
21,900333	0,5	-5,819600
21,908667	0,5	-5,819800
21,917000	0,5	-5,820000
21,925333	0,5	-5,830200
21,933667	0,5	-5,825850
21,942000	0,5	-5,811650
21,950333	0,5	-5,789050
21,958667	0,5	-5,756800
21,967000	0,5	-5,730700
21,975333	0,5	-5,679050
21,983667	0,5	-5,652200
21,992000	0,5	-5,672900
22,000333	0,5	-5,685800
22,008667	0,5	-5,697800
22,017000	0,5	-5,727550
22,025333	0,5	-5,760650
22,033667	0,5	-5,790850
22,042000	0,5	-5,796550
22,050333	0,5	-5,799000
22,058667	0,5	-5,808200
22,067000	0,5	-5,815500
22,075333	0,5	-5,837650
22,083667	0,5	-5,851550
22,092000	0,5	-5,870050
22,100333	0,5	-5,884500
22,108667	0,5	-5,905900
22,117000	0,5	-5,920650
22,125333	0,5	-5,944750
22,133667	0,5	-5,957950
22,142000	0,5	-5,984500
22,150333	0,5	-5,979700
22,158667	0,5	-6,020700
22,167000	0,5	-6,049500
22,175333	0,5	-6,087000
22,183667	0,5	-6,111600
22,192000	0,5	-6,128000
22,200333	0,5	-6,149850
22,208667	0,5	-6,170500
22,217000	0,5	-6,185700
22,225333	0,5	-6,200250
22,233667	0,5	-6,227250
22,242000	0,5	-6,224050
22,250333	0,5	-6,243800
22,258667	0,5	-6,266050
22,267000	0,5	-6,284050
22,275333	0,5	-6,292500
22,283667	0,5	-6,307800
22,292000	0,5	-6,301350
22,300333	0,5	-6,298500
22,308667	0,5	-6,310800
22,317000	0,5	-6,320950
22,325333	0,5	-6,322900
22,333667	0,5	-6,323850
22,342000	0,5	-6,304600
22,350333	0,5	-6,284650
22,358667	0,5	-6,283000
22,367000	0,5	-6,269000
22,375333	0,5	-6,265050
22,383667	0,5	-6,221350
22,392000	0,5	-6,180000
22,400333	0,5	-6,130050
22,408667	0,5	-6,133750
22,417000	0,5	-6,157300
22,425333	0,5	-6,202500
22,433667	0,5	-6,227850
22,442000	0,5	-6,259900
22,450333	0,5	-6,293500
22,458667	0,5	-6,316200
22,467000	0,5	-6,372150
22,475333	0,5	-6,392600
22,483667	0,5	-6,399650
22,492000	0,5	-6,402500
22,500333	0,5	-6,417200
22,508667	0,5	-6,430400
22,517000	0,5	-6,435750
22,525333	0,5	-6,446400
22,533667	0,5	-6,456400
22,542000	0,5	-6,458750
22,550333	0,5	-6,465100
22,558667	0,5	-6,479250
22,567000	0,5	-6,500800
22,575333	0,5	-6,508400
22,583667	0,5	-6,482300
22,592000	0,5	-6,470400
22,600333	0,5	-6,455500
22,608667	0,5	-6,441000
22,617000	0,5	-6,453950
22,625333	0,5	-6,428500
22,633667	0,5	-6,399700
22,642000	0,5	-6,370800
22,650333	0,5	-6,351250
22,658667	0,5	-6,330400
22,667000	0,5	-6,322650
22,675333	0,5	-6,316050
22,683667	0,5	-6,317150
22,692000	0,5	-6,322350
22,700333	0,5	-6,336650
22,708667	0,5	-6,401500
22,717000	0,5	-6,411500
22,725333	0,5	-6,412300
22,733667	0,5	-6,393100
22,742000	0,5	-6,432700
22,750333	0,5	-6,450500
22,758667	0,5	-6,479250
22,767000	0,5	-6,515800
22,775333	0,5	-6,513600
22,783667	0,5	-6,528400
22,792000	0,5	-6,543750
22,800333	0,5	-6,561700
22,808667	0,5	-6,560900
22,817000	0,5	-6,582200
22,825333	0,5	-6,583550
22,833667	0,5	-6,598650
22,842000	0,5	-6,605300
22,850333	0,5	-6,658350
22,858667	0,5	-6,693000
22,867000	0,5	-6,718400
22,875333	0,5	-6,690350
22,883667	0,5	-6,716900
22,892000	0,5	-6,748650
22,900333	0,5	-6,771100
22,908667	0,5	-6,790100
22,917000	0,5	-6,822700
22,925333	0,5	-6,853050
22,933667	0,5	-6,878600
22,942000	0,5	-6,896000
22,950333	0,5	-6,908350
22,958667	0,5	-6,916300
22,967000	0,5	-6,933750
22,975333	0,5	-6,923700
22,983667	0,5	-6,920250
22,992000	0,5	-6,895950
23,000333	0,5	-6,887450
23,008667	0,5	-6,875250
23,017000	0,5	-6,858650
23,025333	0,5	-6,870050
23,033667	0,5	-6,863900
23,042000	0,5	-6,818550
23,050333	0,5	-6,799500
23,058667	0,5	-6,771000
23,067000	0,5	-6,762050
23,075333	0,5	-6,732050
23,083667	0,5	-6,701050
23,092000	0,5	-6,666000
23,100333	0,5	-6,616100
23,108667	0,5	-6,562400
23,117000	0,5	-6,510950
23,125333	0,5	-6,454550
23,133667	0,5	-6,380500
23,142000	0,5	-6,284550
23,150333	0,5	-6,209400
23,158667	0,5	-6,135350
23,167000	0,5	-6,102450
23,175333	0,5	-6,059750
23,183667	0,5	-5,980000
23,192000	0,5	-5,911050
23,200333	0,5	-5,829600
23,208667	0,5	-5,759000
23,217000	0,5	-5,697200
23,225333	0,5	-5,641600
23,233667	0,5	-5,561450
23,242000	0,5	-5,491100
23,250333	0,5	-5,413550
23,258667	0,5	-5,342750
23,267000	0,5	-5,271000
23,275333	0,5	-5,173000
23,283667	0,5	-5,100400
23,292000	0,5	-4,964150
23,300333	0,5	-4,895250
23,308667	0,5	-4,789950
23,317000	0,5	-4,746550
23,325333	0,5	-4,689450
23,333667	0,5	-4,621550
23,342000	0,5	-4,523400
23,350333	0,5	-4,447750
23,358667	0,5	-4,381700
23,367000	0,5	-4,328100
23,375333	0,5	-4,257200
23,383667	0,5	-4,200850
23,392000	0,5	-4,132050
23,400333	0,5	-4,069400
23,408667	0,5	-3,992950
23,417000	0,5	-3,935600
23,425333	0,5	-3,869100
23,433667	0,5	-3,783200
23,442000	0,5	-3,763650
23,450333	0,5	-3,686000
23,458667	0,5	-3,569950
23,467000	0,5	-3,519850
23,475333	0,5	-3,477400
23,483667	0,5	-3,416100
23,492000	0,5	-3,355250
23,500333	0,5	-3,297650
23,508667	0,5	-3,260900
23,517000	0,5	-3,219000
23,525333	0,5	-3,176050
23,533667	0,5	-3,131300
23,542000	0,5	-3,089850
23,550333	0,5	-3,042900
23,558667	0,5	-3,006500
23,567000	0,5	-2,962500
23,575333	0,5	-2,920150
23,583667	0,5	-2,889700
23,592000	0,5	-2,932950
23,600333	0,5	-2,878150
23,608667	0,5	-2,779900
23,617000	0,5	-2,745450
23,625333	0,5	-2,700100
23,633667	0,5	-2,670600
23,642000	0,5	-2,630550
23,650333	0,5	-2,601900
23,658667	0,5	-2,574450
23,667000	0,5	-2,546000
23,675333	0,5	-2,514850
23,683667	0,5	-2,491700
23,692000	0,5	-2,461100
23,700333	0,5	-2,430850
23,708667	0,5	-2,397600
23,717000	0,5	-2,371350
23,725333	0,5	-2,339850
23,733667	0,5	-2,462200
23,742000	0,5	-2,419650
23,750333	0,5	-2,378200
23,758667	0,5	-2,292550
23,767000	0,5	-2,245250
23,775333	0,5	-2,214600
23,783667	0,5	-2,189000
23,792000	0,5	-2,173050
23,800333	0,5	-2,150600
23,808667	0,5	-2,124050
23,817000	0,5	-2,100250
23,825333	0,5	-2,078800
23,833667	0,5	-2,053700
23,842000	0,5	-2,030900
23,850333	0,5	-2,008500
23,858667	0,5	-1,982950
23,867000	0,5	-1,955800
23,875333	0,5	-1,948750
23,883667	0,5	-2,099450
23,892000	0,5	-2,034650
23,900333	0,5	-1,980650
23,908667	0,5	-1,895700
23,917000	0,5	-1,853750
23,925333	0,5	-1,824700
23,933667	0,5	-1,807300
23,942000	0,5	-1,796950
23,950333	0,5	-1,759450
23,958667	0,5	-1,737150
23,967000	0,5	-1,714650
23,975333	0,5	-1,695300
23,983667	0,5	-1,672050
23,992000	0,5	-1,649250
24,000333	0,5	-1,624500
24,008667	0,5	-1,604350
24,017000	0,5	-1,578150
24,025333	0,5	-1,688650
24,033667	0,5	-1,709750
24,042000	0,5	-1,680800
24,050333	0,5	-1,602400
24,058667	0,5	-1,552850
24,067000	0,5	-1,512700
24,075333	0,5	-1,490650
24,083667	0,5	-1,474450
24,092000	0,5	-1,455100
24,100333	0,5	-1,421750
24,108667	0,5	-1,393150
24,117000	0,5	-1,364900
24,125333	0,5	-1,335800
24,133667	0,5	-1,311600
24,142000	0,5	-1,285550
24,150333	0,5	-1,258250
24,158667	0,5	-1,236650
24,167000	0,5	-1,229150
24,175333	0,5	-1,357100
24,183667	0,5	-1,341950
24,192000	0,5	-1,290450
24,200333	0,5	-1,223800
24,208667	0,5	-1,178250
24,217000	0,5	-1,157300
24,225333	0,5	-1,139900
24,233667	0,5	-1,134100
24,242000	0,5	-1,117900
24,250333	0,5	-1,091900
24,258667	0,5	-1,073100
24,267000	0,5	-1,058450
24,275333	0,5	-1,027750
24,283667	0,5	-1,003150
24,292000	0,5	-0,985400
24,300333	0,5	-0,956650
24,308667	0,5	-0,935000
24,317000	0,5	-0,930650
24,325333	0,5	-1,032200
24,333667	0,5	-0,998000
24,342000	0,5	-0,959050
24,350333	0,5	-0,897250
24,358667	0,5	-0,871600
24,367000	0,5	-0,851400
24,375333	0,5	-0,853650
24,383667	0,5	-0,839900
24,392000	0,5	-0,819050
24,400333	0,5	-0,796550
24,408667	0,5	-0,782900
24,417000	0,5	-0,766400
24,425333	0,5	-0,749500
24,433667	0,5	-0,736200
24,442000	0,5	-0,715100
24,450333	0,5	-0,696350
24,458667	0,5	-0,688350
24,467000	0,5	-0,770100
24,475333	0,5	-0,759050
24,483667	0,5	-0,752400
24,492000	0,5	-0,699800
24,500333	0,5	-0,669700
24,508667	0,5	-0,643600
24,517000	0,5	-0,629350
24,525333	0,5	-0,630350
24,533667	0,5	-0,619700
24,542000	0,5	-0,595250
24,550333	0,5	-0,587550
24,558667	0,5	-0,568000
24,567000	0,5	-0,562900
24,575333	0,5	-0,549950
24,583667	0,5	-0,537050
24,592000	0,5	-0,520100
24,600333	0,5	-0,500950
24,608667	0,5	-0,491850
24,617000	0,5	-0,553450
24,625333	0,5	-0,544550
24,633667	0,5	-0,536400
24,642000	0,5	-0,501800
24,650333	0,5	-0,482650
24,658667	0,5	-0,476700
24,667000	0,5	-0,473550
24,675333	0,5	-0,484000
24,683667	0,5	-0,453700
24,692000	0,5	-0,451750
24,700333	0,5	-0,438500
24,708667	0,5	-0,434100
24,717000	0,5	-0,421200
24,725333	0,5	-0,417250
24,733667	0,5	-0,403850
24,742000	0,5	-0,395100
24,750333	0,5	-0,385250
24,758667	0,5	-0,398250
24,767000	0,5	-0,426800
24,775333	0,5	-0,415650
24,783667	0,5	-0,394800
24,792000	0,5	-0,368900
24,800333	0,5	-0,357700
24,808667	0,5	-0,348600
24,817000	0,5	-0,347100
24,825333	0,5	-0,344250
24,833667	0,5	-0,340700
24,842000	0,5	-0,329350
24,850333	0,5	-0,331000
24,858667	0,5	-0,323650
24,867000	0,5	-0,322950
24,875333	0,5	-0,323100
24,883667	0,5	-0,316000
24,892000	0,5	-0,307900
24,900333	0,5	-0,309400
24,908667	0,5	-0,331100
24,917000	0,5	-0,329500
24,925333	0,5	-0,319200
24,933667	0,5	-0,305000
24,942000	0,5	-0,291050
24,950333	0,5	-0,283500
24,958667	0,5	-0,280150
24,967000	0,5	-0,283500
24,975333	0,5	-0,284700
24,983667	0,5	-0,269200
24,992000	0,5	-0,266300
25,000333	0,5	-0,260900
25,008667	0,5	-0,257750
25,017000	0,5	-0,255450
25,025333	0,5	-0,251600
25,033667	0,5	-0,250450
25,042000	0,5	-0,249400
25,050333	0,5	-0,248300
25,058667	0,5	-0,271450
25,067000	0,5	-0,260000
25,075333	0,5	-0,266300
25,083667	0,5	-0,257400
25,092000	0,5	-0,247850
25,100333	0,5	-0,246450
25,108667	0,5	-0,245950
25,117000	0,5	-0,248700
25,125333	0,5	-0,251750
25,133667	0,5	-0,248950
25,142000	0,5	-0,244150
25,150333	0,5	-0,235950
25,158667	0,5	-0,236200
25,167000	0,5	-0,230850
25,175333	0,5	-0,224400
25,183667	0,5	-0,226000
25,192000	0,5	-0,222300
25,200333	0,5	-0,226750
25,208667	0,5	-0,230000
25,217000	0,5	-0,225500
25,225333	0,5	-0,223950
25,233667	0,5	-0,223400
25,242000	0,5	-0,224200
25,250333	0,5	-0,222650
25,258667	0,5	-0,232400
25,267000	0,5	-0,232150
25,275333	0,5	-0,233300
25,283667	0,5	-0,234300
25,292000	0,5	-0,233350
25,300333	0,5	-0,232300
25,308667	0,5	-0,230050
25,317000	0,5	-0,228450
25,325333	0,5	-0,229050
25,333667	0,5	-0,226750
25,342000	0,5	-0,227300
25,350333	0,5	-0,229250
25,358667	0,5	-0,221750
25,367000	0,5	-0,218200
25,375333	0,5	-0,219100
25,383667	0,5	-0,218350
25,392000	0,5	-0,217700
25,400333	0,5	-0,214250
25,408667	0,5	-0,215800
25,417000	0,5	-0,220350
25,425333	0,5	-0,221150
25,433667	0,5	-0,222150
25,442000	0,5	-0,226250
25,450333	0,5	-0,229100
25,458667	0,5	-0,229100
25,467000	0,5	-0,232700
25,475333	0,5	-0,233100
25,483667	0,5	-0,234000
25,492000	0,5	-0,230950
25,500333	0,5	-0,226900
25,508667	0,5	-0,223800
25,517000	0,5	-0,217100
25,525333	0,5	-0,228800
25,533667	0,5	-0,227250
25,542000	0,5	-0,228300
25,550333	0,5	-0,224550
25,558667	0,5	-0,220450
25,567000	0,5	-0,222600
25,575333	0,5	-0,225400
25,583667	0,5	-0,222550
25,592000	0,5	-0,226400
25,600333	0,5	-0,227300
25,608667	0,5	-0,230100
25,617000	0,5	-0,232850
25,625333	0,5	-0,233850
25,633667	0,5	-0,231400
25,642000	0,5	-0,235000
25,650333	0,5	-0,229850
25,658667	0,5	-0,229850
25,667000	0,5	-0,227650
25,675333	0,5	-0,237100
25,683667	0,5	-0,238450
25,692000	0,5	-0,236050
25,700333	0,5	-0,229300
25,708667	0,5	-0,226600
25,717000	0,5	-0,235950
25,725333	0,5	-0,234050
25,733667	0,5	-0,235650
25,742000	0,5	-0,235000
25,750333	0,5	-0,234000
25,758667	0,5	-0,234950
25,767000	0,5	-0,240500
25,775333	0,5	-0,237400
25,783667	0,5	-0,233200
25,792000	0,5	-0,222600
25,800333	0,5	-0,227400
25,808667	0,5	-0,220900
25,817000	0,5	-0,230950
25,825333	0,5	-0,237300
25,833667	0,5	-0,234800
25,842000	0,5	-0,233650
25,850333	0,5	-0,224750
25,858667	0,5	-0,228450
25,867000	0,5	-0,228600
25,875333	0,5	-0,231700
25,883667	0,5	-0,232900
25,892000	0,5	-0,228850
25,900333	0,5	-0,226850
25,908667	0,5	-0,229600
25,917000	0,5	-0,226850
25,925333	0,5	-0,226950
25,933667	0,5	-0,223050
25,942000	0,5	-0,211600
25,950333	0,5	-0,220700
25,958667	0,5	-0,211650
25,967000	0,5	-0,222750
25,975333	0,5	-0,222550
25,983667	0,5	-0,218150
25,992000	0,5	-0,207650
26,000333	0,5	-0,195850
