File Path	chrom://chromeleon01/ikbm_chromeleon/2022/ICS-5000/ED1/Esteban/20220427_Cell_Amandas_mutants.seq/967.smp/ED_1.channel/ED_1.chm
Channel	ED_1

Injection Information:
Data Vault	ikbm_chromeleon
Injection	T24h_PASC_3b
Injection Number	54
Position	GA6
Comment	
Processing Method	Stop sequence after Cell Death
Instrument Method	ICS5000_PA200_FullNative_Ox_26min_ED1
Type	Unknown
Status	Finished
Injection Date	28.04.2022
Injection Time	14:16:06
Injection Volume (µl)	5,0
Dilution Factor	1,0000
Weight	1,0000

Chromatogram Data Information:
Time Min. (min)	0,000167
Time Max. (min)	26,000167
Data Points	3121
Detector	EDet1
Generating Data System	Chromeleon 7.2.9.11323
Exporting Data System	Chromeleon 7.2.9.0
Operator	Instrument Controller
Signal Quantity	
Signal Unit	nC
Signal Min.	-8,305500
Signal Max.	39,310451
Channel	ED_1
Driver Name	DC-5000
Channel Type	Evaluation
Min. Step (s)	0,5
Max. Step (s)	0,5
Average Step (s)	0,5

Signal Parameter Information:
Signal Info	

Chromatogram Data:
Time (min)	Step (s)	Value (nC)
0,000167	n.a.	-0,055000
0,008500	0,5	-0,104100
0,016833	0,5	-0,096950
0,025167	0,5	-0,049600
0,033500	0,5	-0,051500
0,041833	0,5	-0,039500
0,050167	0,5	-0,034050
0,058500	0,5	-0,023750
0,066833	0,5	-0,014850
0,075167	0,5	-0,007700
0,083500	0,5	-0,020650
0,091833	0,5	-0,014800
0,100167	0,5	-0,012250
0,108500	0,5	0,003750
0,116833	0,5	-0,035500
0,125167	0,5	-0,015000
0,133500	0,5	-0,009800
0,141833	0,5	-0,029750
0,150167	0,5	-0,034200
0,158500	0,5	-0,011100
0,166833	0,5	0,016100
0,175167	0,5	0,044900
0,183500	0,5	0,028800
0,191833	0,5	0,031350
0,200167	0,5	0,033200
0,208500	0,5	0,023400
0,216833	0,5	0,015950
0,225167	0,5	0,012450
0,233500	0,5	0,015400
0,241833	0,5	0,005550
0,250167	0,5	0,015000
0,258500	0,5	0,006900
0,266833	0,5	0,000750
0,275167	0,5	0,004550
0,283500	0,5	-0,001800
0,291833	0,5	-0,012150
0,300167	0,5	0,024400
0,308500	0,5	0,097650
0,316833	0,5	0,113300
0,325167	0,5	0,052700
0,333500	0,5	0,018000
0,341833	0,5	0,003450
0,350167	0,5	0,016550
0,358500	0,5	0,005900
0,366833	0,5	0,009300
0,375167	0,5	0,003050
0,383500	0,5	-0,003650
0,391833	0,5	0,002000
0,400167	0,5	0,002350
0,408500	0,5	0,006300
0,416833	0,5	-0,013900
0,425167	0,5	0,005500
0,433500	0,5	-0,022100
0,441833	0,5	-0,021450
0,450167	0,5	-0,033450
0,458500	0,5	-0,006600
0,466833	0,5	0,017000
0,475167	0,5	0,026400
0,483500	0,5	0,005000
0,491833	0,5	0,025750
0,500167	0,5	0,008200
0,508500	0,5	0,003950
0,516833	0,5	-0,005450
0,525167	0,5	-0,004350
0,533500	0,5	-0,010200
0,541833	0,5	-0,005600
0,550167	0,5	-0,006050
0,558500	0,5	-0,025250
0,566833	0,5	-0,015000
0,575167	0,5	-0,005150
0,583500	0,5	-0,027400
0,591833	0,5	-0,021450
0,600167	0,5	-0,008200
0,608500	0,5	0,020450
0,616833	0,5	0,047200
0,625167	0,5	0,030350
0,633500	0,5	0,037650
0,641833	0,5	0,026050
0,650167	0,5	0,030050
0,658500	0,5	0,021200
0,666833	0,5	0,020350
0,675167	0,5	0,010350
0,683500	0,5	0,010100
0,691833	0,5	0,021550
0,700167	0,5	0,014650
0,708500	0,5	0,002650
0,716833	0,5	0,044250
0,725167	0,5	0,020100
0,733500	0,5	0,009850
0,741833	0,5	0,014650
0,750167	0,5	0,021950
0,758500	0,5	0,063800
0,766833	0,5	0,055250
0,775167	0,5	0,058200
0,783500	0,5	0,049950
0,791833	0,5	0,071150
0,800167	0,5	0,055000
0,808500	0,5	0,059400
0,816833	0,5	0,052500
0,825167	0,5	0,053350
0,833500	0,5	0,055100
0,841833	0,5	0,059950
0,850167	0,5	0,060400
0,858500	0,5	0,065600
0,866833	0,5	0,097600
0,875167	0,5	0,071250
0,883500	0,5	0,058600
0,891833	0,5	0,075850
0,900167	0,5	0,089250
0,908500	0,5	0,127600
0,916833	0,5	0,122650
0,925167	0,5	0,115000
0,933500	0,5	0,115500
0,941833	0,5	0,113650
0,950167	0,5	0,108850
0,958500	0,5	0,108000
0,966833	0,5	0,113900
0,975167	0,5	0,109400
0,983500	0,5	0,118300
0,991833	0,5	0,128500
1,000167	0,5	0,128200
1,008500	0,5	0,122750
1,016833	0,5	0,159350
1,025167	0,5	0,129950
1,033500	0,5	0,127450
1,041833	0,5	0,133250
1,050167	0,5	0,161450
1,058500	0,5	0,189000
1,066833	0,5	0,166750
1,075167	0,5	0,166000
1,083500	0,5	0,173300
1,091833	0,5	0,183150
1,100167	0,5	0,192550
1,108500	0,5	0,194250
1,116833	0,5	0,195050
1,125167	0,5	0,197050
1,133500	0,5	0,194750
1,141833	0,5	0,208200
1,150167	0,5	0,189200
1,158500	0,5	0,219400
1,166833	0,5	0,215650
1,175167	0,5	0,210350
1,183500	0,5	0,203800
1,191833	0,5	0,235250
1,200167	0,5	0,272800
1,208500	0,5	0,299800
1,216833	0,5	0,283700
1,225167	0,5	0,288050
1,233500	0,5	0,293800
1,241833	0,5	0,298200
1,250167	0,5	0,296850
1,258500	0,5	0,302850
1,266833	0,5	0,302500
1,275167	0,5	0,308100
1,283500	0,5	0,323850
1,291833	0,5	0,316350
1,300167	0,5	0,318050
1,308500	0,5	0,349900
1,316833	0,5	0,341250
1,325167	0,5	0,341000
1,333500	0,5	0,351650
1,341833	0,5	0,375350
1,350167	0,5	0,424400
1,358500	0,5	0,431700
1,366833	0,5	0,434550
1,375167	0,5	0,431200
1,383500	0,5	0,448450
1,391833	0,5	0,450150
1,400167	0,5	0,472100
1,408500	0,5	0,477250
1,416833	0,5	0,477350
1,425167	0,5	0,487600
1,433500	0,5	0,496850
1,441833	0,5	0,493350
1,450167	0,5	0,500700
1,458500	0,5	0,523900
1,466833	0,5	0,512150
1,475167	0,5	0,523250
1,483500	0,5	0,528950
1,491833	0,5	0,572200
1,500167	0,5	0,608550
1,508500	0,5	0,625200
1,516833	0,5	0,618550
1,525167	0,5	0,633550
1,533500	0,5	0,626350
1,541833	0,5	0,635900
1,550167	0,5	0,641650
1,558500	0,5	0,653450
1,566833	0,5	0,651300
1,575167	0,5	0,613550
1,583500	0,5	0,317400
1,591833	0,5	-0,609300
1,600167	0,5	-1,585700
1,608500	0,5	-1,090600
1,616833	0,5	0,910500
1,625167	0,5	2,934600
1,633500	0,5	4,686800
1,641833	0,5	6,424300
1,650167	0,5	7,766900
1,658500	0,5	8,245500
1,666833	0,5	8,017600
1,675167	0,5	7,438600
1,683500	0,5	6,795850
1,691833	0,5	6,166750
1,700167	0,5	5,607250
1,708500	0,5	5,090150
1,716833	0,5	4,675650
1,725167	0,5	4,332700
1,733500	0,5	4,031400
1,741833	0,5	3,734800
1,750167	0,5	3,466350
1,758500	0,5	3,196800
1,766833	0,5	3,031550
1,775167	0,5	3,105950
1,783500	0,5	3,695600
1,791833	0,5	5,373000
1,800167	0,5	8,292400
1,808500	0,5	11,401250
1,816833	0,5	13,341800
1,825167	0,5	13,760150
1,833500	0,5	12,692950
1,841833	0,5	10,816700
1,850167	0,5	9,003550
1,858500	0,5	7,628300
1,866833	0,5	6,646000
1,875167	0,5	5,965600
1,883500	0,5	5,441050
1,891833	0,5	5,049250
1,900167	0,5	4,720500
1,908500	0,5	4,392950
1,916833	0,5	4,132350
1,925167	0,5	3,945650
1,933500	0,5	3,809100
1,941833	0,5	3,725300
1,950167	0,5	3,646350
1,958500	0,5	3,600450
1,966833	0,5	3,574650
1,975167	0,5	3,570150
1,983500	0,5	3,590350
1,991833	0,5	3,640200
2,000167	0,5	3,695750
2,008500	0,5	3,733700
2,016833	0,5	3,791300
2,025167	0,5	3,892500
2,033500	0,5	4,177600
2,041833	0,5	4,745500
2,050167	0,5	5,415000
2,058500	0,5	5,956250
2,066833	0,5	6,514500
2,075167	0,5	7,098850
2,083500	0,5	7,562750
2,091833	0,5	7,800450
2,100167	0,5	7,858750
2,108500	0,5	7,877700
2,116833	0,5	7,942900
2,125167	0,5	8,114250
2,133500	0,5	8,490300
2,141833	0,5	9,191550
2,150167	0,5	10,474050
2,158500	0,5	12,242350
2,166833	0,5	13,429650
2,175167	0,5	13,090300
2,183500	0,5	11,663250
2,191833	0,5	10,301900
2,200167	0,5	9,334950
2,208500	0,5	8,715650
2,216833	0,5	8,308300
2,225167	0,5	8,046200
2,233500	0,5	7,892800
2,241833	0,5	7,787700
2,250167	0,5	7,700350
2,258500	0,5	7,679150
2,266833	0,5	7,664400
2,275167	0,5	7,681900
2,283500	0,5	7,710250
2,291833	0,5	7,754150
2,300167	0,5	7,795300
2,308500	0,5	7,848100
2,316833	0,5	7,919300
2,325167	0,5	7,984150
2,333500	0,5	8,058850
2,341833	0,5	8,168650
2,350167	0,5	8,233900
2,358500	0,5	8,323200
2,366833	0,5	8,422500
2,375167	0,5	8,538100
2,383500	0,5	8,669650
2,391833	0,5	8,768200
2,400167	0,5	8,874250
2,408500	0,5	8,963750
2,416833	0,5	9,087400
2,425167	0,5	9,188900
2,433500	0,5	9,242300
2,441833	0,5	9,207200
2,450167	0,5	9,172100
2,458500	0,5	9,206500
2,466833	0,5	9,286500
2,475167	0,5	9,375500
2,483500	0,5	9,463300
2,491833	0,5	9,564300
2,500167	0,5	9,612400
2,508500	0,5	9,674450
2,516833	0,5	9,727050
2,525167	0,5	9,797650
2,533500	0,5	9,869600
2,541833	0,5	9,947500
2,550167	0,5	10,035500
2,558500	0,5	10,192850
2,566833	0,5	10,430050
2,575167	0,5	10,817350
2,583500	0,5	11,473900
2,591833	0,5	12,622400
2,600167	0,5	14,522300
2,608500	0,5	17,311900
2,616833	0,5	20,683500
2,625167	0,5	23,972050
2,633500	0,5	26,463150
2,641833	0,5	27,751050
2,650167	0,5	27,711950
2,658500	0,5	26,556900
2,666833	0,5	24,643800
2,675167	0,5	22,481950
2,683500	0,5	20,469850
2,691833	0,5	18,856000
2,700167	0,5	17,779350
2,708500	0,5	17,348200
2,716833	0,5	17,724300
2,725167	0,5	19,056350
2,733500	0,5	21,437600
2,741833	0,5	24,815400
2,750167	0,5	29,010900
2,758500	0,5	33,496300
2,766833	0,5	37,304801
2,775167	0,5	39,310451
2,783500	0,5	38,966151
2,791833	0,5	36,450951
2,800167	0,5	32,635000
2,808500	0,5	28,489700
2,816833	0,5	24,781200
2,825167	0,5	21,951850
2,833500	0,5	20,262400
2,841833	0,5	19,941750
2,850167	0,5	21,080550
2,858500	0,5	23,234600
2,866833	0,5	25,344800
2,875167	0,5	26,237800
2,883500	0,5	25,369750
2,891833	0,5	23,123250
2,900167	0,5	20,272100
2,908500	0,5	17,511600
2,916833	0,5	15,131200
2,925167	0,5	13,250000
2,933500	0,5	11,777500
2,941833	0,5	10,605800
2,950167	0,5	9,688350
2,958500	0,5	8,975550
2,966833	0,5	8,400450
2,975167	0,5	7,931900
2,983500	0,5	7,494300
2,991833	0,5	7,136750
3,000167	0,5	6,806050
3,008500	0,5	6,515400
3,016833	0,5	6,239650
3,025167	0,5	6,003300
3,033500	0,5	5,782100
3,041833	0,5	5,573250
3,050167	0,5	5,393850
3,058500	0,5	5,214950
3,066833	0,5	5,037550
3,075167	0,5	4,874050
3,083500	0,5	4,704200
3,091833	0,5	4,533350
3,100167	0,5	4,377700
3,108500	0,5	4,230450
3,116833	0,5	4,130850
3,125167	0,5	4,019100
3,133500	0,5	3,920900
3,141833	0,5	3,846400
3,150167	0,5	3,811700
3,158500	0,5	3,789200
3,166833	0,5	3,810850
3,175167	0,5	3,879850
3,183500	0,5	4,038250
3,191833	0,5	4,368150
3,200167	0,5	4,972800
3,208500	0,5	5,938450
3,216833	0,5	7,219850
3,225167	0,5	8,655050
3,233500	0,5	9,811600
3,241833	0,5	10,390900
3,250167	0,5	10,222900
3,258500	0,5	9,411550
3,266833	0,5	8,234600
3,275167	0,5	6,937750
3,283500	0,5	5,756900
3,291833	0,5	4,839900
3,300167	0,5	4,132500
3,308500	0,5	3,611100
3,316833	0,5	3,214900
3,325167	0,5	2,915100
3,333500	0,5	2,670100
3,341833	0,5	2,471950
3,350167	0,5	2,309250
3,358500	0,5	2,163950
3,366833	0,5	2,031900
3,375167	0,5	1,956900
3,383500	0,5	1,839400
3,391833	0,5	1,757450
3,400167	0,5	1,691100
3,408500	0,5	1,641050
3,416833	0,5	1,610900
3,425167	0,5	1,538250
3,433500	0,5	1,480850
3,441833	0,5	1,420350
3,450167	0,5	1,374600
3,458500	0,5	1,316400
3,466833	0,5	1,276100
3,475167	0,5	1,229950
3,483500	0,5	1,187550
3,491833	0,5	1,147750
3,500167	0,5	1,114000
3,508500	0,5	1,061250
3,516833	0,5	1,029300
3,525167	0,5	1,004050
3,533500	0,5	0,966050
3,541833	0,5	0,933400
3,550167	0,5	0,914350
3,558500	0,5	0,904900
3,566833	0,5	0,897100
3,575167	0,5	0,875250
3,583500	0,5	0,842850
3,591833	0,5	0,823050
3,600167	0,5	0,801050
3,608500	0,5	0,779700
3,616833	0,5	0,754500
3,625167	0,5	0,728250
3,633500	0,5	0,702150
3,641833	0,5	0,685150
3,650167	0,5	0,654700
3,658500	0,5	0,636350
3,666833	0,5	0,626800
3,675167	0,5	0,607800
3,683500	0,5	0,574350
3,691833	0,5	0,564850
3,700167	0,5	0,570250
3,708500	0,5	0,586950
3,716833	0,5	0,585550
3,725167	0,5	0,568550
3,733500	0,5	0,555100
3,741833	0,5	0,547750
3,750167	0,5	0,528100
3,758500	0,5	0,524800
3,766833	0,5	0,520450
3,775167	0,5	0,509400
3,783500	0,5	0,510100
3,791833	0,5	0,503850
3,800167	0,5	0,492000
3,808500	0,5	0,482250
3,816833	0,5	0,489600
3,825167	0,5	0,466550
3,833500	0,5	0,453350
3,841833	0,5	0,443250
3,850167	0,5	0,450550
3,858500	0,5	0,463150
3,866833	0,5	0,466900
3,875167	0,5	0,449750
3,883500	0,5	0,455200
3,891833	0,5	0,450050
3,900167	0,5	0,452350
3,908500	0,5	0,449850
3,916833	0,5	0,443950
3,925167	0,5	0,431800
3,933500	0,5	0,430150
3,941833	0,5	0,431050
3,950167	0,5	0,411800
3,958500	0,5	0,416450
3,966833	0,5	0,414400
3,975167	0,5	0,406400
3,983500	0,5	0,399050
3,991833	0,5	0,409800
4,000167	0,5	0,434550
4,008500	0,5	0,445000
4,016833	0,5	0,436550
4,025167	0,5	0,437050
4,033500	0,5	0,430150
4,041833	0,5	0,432650
4,050167	0,5	0,419750
4,058500	0,5	0,423900
4,066833	0,5	0,419150
4,075167	0,5	0,418950
4,083500	0,5	0,424650
4,091833	0,5	0,423150
4,100167	0,5	0,412450
4,108500	0,5	0,437750
4,116833	0,5	0,426500
4,125167	0,5	0,420700
4,133500	0,5	0,426800
4,141833	0,5	0,428450
4,150167	0,5	0,458200
4,158500	0,5	0,453950
4,166833	0,5	0,454100
4,175167	0,5	0,450800
4,183500	0,5	0,462350
4,191833	0,5	0,457450
4,200167	0,5	0,463300
4,208500	0,5	0,465950
4,216833	0,5	0,466450
4,225167	0,5	0,471200
4,233500	0,5	0,472650
4,241833	0,5	0,479900
4,250167	0,5	0,475150
4,258500	0,5	0,502950
4,266833	0,5	0,493750
4,275167	0,5	0,494600
4,283500	0,5	0,498150
4,291833	0,5	0,510350
4,300167	0,5	0,543800
4,308500	0,5	0,556750
4,316833	0,5	0,549550
4,325167	0,5	0,567350
4,333500	0,5	0,567550
4,341833	0,5	0,583750
4,350167	0,5	0,586850
4,358500	0,5	0,602400
4,366833	0,5	0,609450
4,375167	0,5	0,622250
4,383500	0,5	0,630250
4,391833	0,5	0,636650
4,400167	0,5	0,635000
4,408500	0,5	0,666100
4,416833	0,5	0,648450
4,425167	0,5	0,659900
4,433500	0,5	0,673300
4,441833	0,5	0,706100
4,450167	0,5	0,752800
4,458500	0,5	0,766100
4,466833	0,5	0,775050
4,475167	0,5	0,790600
4,483500	0,5	0,804200
4,491833	0,5	0,801050
4,500167	0,5	0,809550
4,508500	0,5	0,804050
4,516833	0,5	0,801000
4,525167	0,5	0,790800
4,533500	0,5	0,784200
4,541833	0,5	0,766600
4,550167	0,5	0,774100
4,558500	0,5	0,772950
4,566833	0,5	0,756850
4,575167	0,5	0,763950
4,583500	0,5	0,773150
4,591833	0,5	0,792200
4,600167	0,5	0,813950
4,608500	0,5	0,824400
4,616833	0,5	0,832150
4,625167	0,5	0,837300
4,633500	0,5	0,843000
4,641833	0,5	0,847500
4,650167	0,5	0,856250
4,658500	0,5	0,859050
4,666833	0,5	0,863600
4,675167	0,5	0,877500
4,683500	0,5	0,876600
4,691833	0,5	0,884050
4,700167	0,5	0,903050
4,708500	0,5	0,902550
4,716833	0,5	0,895650
4,725167	0,5	0,904450
4,733500	0,5	0,916650
4,741833	0,5	0,956650
4,750167	0,5	0,972050
4,758500	0,5	0,977350
4,766833	0,5	0,972850
4,775167	0,5	0,982450
4,783500	0,5	0,978250
4,791833	0,5	0,991550
4,800167	0,5	0,995100
4,808500	0,5	0,997350
4,816833	0,5	1,017700
4,825167	0,5	1,024200
4,833500	0,5	1,031800
4,841833	0,5	1,037100
4,850167	0,5	1,048400
4,858500	0,5	1,047200
4,866833	0,5	1,046300
4,875167	0,5	1,056700
4,883500	0,5	1,088400
4,891833	0,5	1,105850
4,900167	0,5	1,123050
4,908500	0,5	1,119550
4,916833	0,5	1,145750
4,925167	0,5	1,146600
4,933500	0,5	1,153300
4,941833	0,5	1,163650
4,950167	0,5	1,174250
4,958500	0,5	1,176900
4,966833	0,5	1,179050
4,975167	0,5	1,189400
4,983500	0,5	1,193500
4,991833	0,5	1,211950
5,000167	0,5	1,216850
5,008500	0,5	1,216550
5,016833	0,5	1,220800
5,025167	0,5	1,243250
5,033500	0,5	1,267500
5,041833	0,5	1,289000
5,050167	0,5	1,292200
5,058500	0,5	1,307600
5,066833	0,5	1,317800
5,075167	0,5	1,333850
5,083500	0,5	1,347950
5,091833	0,5	1,369850
5,100167	0,5	1,385750
5,108500	0,5	1,411350
5,116833	0,5	1,435650
5,125167	0,5	1,443500
5,133500	0,5	1,432900
5,141833	0,5	1,459550
5,150167	0,5	1,446550
5,158500	0,5	1,441000
5,166833	0,5	1,436350
5,175167	0,5	1,430900
5,183500	0,5	1,451650
5,191833	0,5	1,443900
5,200167	0,5	1,433250
5,208500	0,5	1,423300
5,216833	0,5	1,423800
5,225167	0,5	1,427800
5,233500	0,5	1,424950
5,241833	0,5	1,430500
5,250167	0,5	1,426350
5,258500	0,5	1,424850
5,266833	0,5	1,431800
5,275167	0,5	1,426100
5,283500	0,5	1,424250
5,291833	0,5	1,440300
5,300167	0,5	1,430500
5,308500	0,5	1,430150
5,316833	0,5	1,435450
5,325167	0,5	1,456050
5,333500	0,5	1,474400
5,341833	0,5	1,473050
5,350167	0,5	1,463600
5,358500	0,5	1,471250
5,366833	0,5	1,467850
5,375167	0,5	1,466300
5,383500	0,5	1,465600
5,391833	0,5	1,464800
5,400167	0,5	1,460300
5,408500	0,5	1,463900
5,416833	0,5	1,463650
5,425167	0,5	1,471950
5,433500	0,5	1,470900
5,441833	0,5	1,476550
5,450167	0,5	1,455200
5,458500	0,5	1,456550
5,466833	0,5	1,449750
5,475167	0,5	1,471500
5,483500	0,5	1,483100
5,491833	0,5	1,472300
5,500167	0,5	1,462350
5,508500	0,5	1,467700
5,516833	0,5	1,462800
5,525167	0,5	1,457800
5,533500	0,5	1,459400
5,541833	0,5	1,451450
5,550167	0,5	1,448750
5,558500	0,5	1,445850
5,566833	0,5	1,446500
5,575167	0,5	1,431500
5,583500	0,5	1,436250
5,591833	0,5	1,428850
5,600167	0,5	1,421650
5,608500	0,5	1,417400
5,616833	0,5	1,419500
5,625167	0,5	1,435700
5,633500	0,5	1,446200
5,641833	0,5	1,429050
5,650167	0,5	1,426150
5,658500	0,5	1,420250
5,666833	0,5	1,416050
5,675167	0,5	1,403950
5,683500	0,5	1,400900
5,691833	0,5	1,389800
5,700167	0,5	1,381650
5,708500	0,5	1,376050
5,716833	0,5	1,360650
5,725167	0,5	1,341350
5,733500	0,5	1,346750
5,741833	0,5	1,329300
5,750167	0,5	1,316100
5,758500	0,5	1,311450
5,766833	0,5	1,308500
5,775167	0,5	1,324350
5,783500	0,5	1,319450
5,791833	0,5	1,315300
5,800167	0,5	1,298500
5,808500	0,5	1,295950
5,816833	0,5	1,278050
5,825167	0,5	1,271700
5,833500	0,5	1,267150
5,841833	0,5	1,253700
5,850167	0,5	1,247400
5,858500	0,5	1,234250
5,866833	0,5	1,220250
5,875167	0,5	1,212800
5,883500	0,5	1,210550
5,891833	0,5	1,193500
5,900167	0,5	1,180300
5,908500	0,5	1,173200
5,916833	0,5	1,179050
5,925167	0,5	1,181050
5,933500	0,5	1,183900
5,941833	0,5	1,173300
5,950167	0,5	1,164250
5,958500	0,5	1,151550
5,966833	0,5	1,145900
5,975167	0,5	1,135000
5,983500	0,5	1,127300
5,991833	0,5	1,115850
6,000167	0,5	1,110000
6,008500	0,5	1,097950
6,016833	0,5	1,091950
6,025167	0,5	1,090650
6,033500	0,5	1,089600
6,041833	0,5	1,074450
6,050167	0,5	1,068650
6,058500	0,5	1,061350
6,066833	0,5	1,077100
6,075167	0,5	1,079150
6,083500	0,5	1,071150
6,091833	0,5	1,067650
6,100167	0,5	1,053050
6,108500	0,5	1,052850
6,116833	0,5	1,040400
6,125167	0,5	1,035050
6,133500	0,5	1,025000
6,141833	0,5	1,021100
6,150167	0,5	1,018350
6,158500	0,5	1,008050
6,166833	0,5	0,993300
6,175167	0,5	1,005950
6,183500	0,5	0,992550
6,191833	0,5	0,987500
6,200167	0,5	0,982100
6,208500	0,5	0,985500
6,216833	0,5	1,001150
6,225167	0,5	0,995200
6,233500	0,5	0,993100
6,241833	0,5	0,994200
6,250167	0,5	0,987900
6,258500	0,5	0,983950
6,266833	0,5	0,983850
6,275167	0,5	0,984450
6,283500	0,5	0,977350
6,291833	0,5	0,980950
6,300167	0,5	0,977200
6,308500	0,5	0,970800
6,316833	0,5	0,968850
6,325167	0,5	0,980150
6,333500	0,5	0,970100
6,341833	0,5	0,966850
6,350167	0,5	0,974650
6,358500	0,5	0,980450
6,366833	0,5	1,001950
6,375167	0,5	0,997750
6,383500	0,5	0,999800
6,391833	0,5	1,010300
6,400167	0,5	1,011350
6,408500	0,5	1,012700
6,416833	0,5	1,011700
6,425167	0,5	1,016750
6,433500	0,5	1,017800
6,441833	0,5	1,031000
6,450167	0,5	1,033750
6,458500	0,5	1,042900
6,466833	0,5	1,051900
6,475167	0,5	1,057650
6,483500	0,5	1,054850
6,491833	0,5	1,062250
6,500167	0,5	1,067250
6,508500	0,5	1,088900
6,516833	0,5	1,105550
6,525167	0,5	1,107500
6,533500	0,5	1,109850
6,541833	0,5	1,122600
6,550167	0,5	1,128200
6,558500	0,5	1,138700
6,566833	0,5	1,144700
6,575167	0,5	1,155700
6,583500	0,5	1,162500
6,591833	0,5	1,170600
6,600167	0,5	1,187600
6,608500	0,5	1,188000
6,616833	0,5	1,201150
6,625167	0,5	1,210250
6,633500	0,5	1,211300
6,641833	0,5	1,217000
6,650167	0,5	1,234300
6,658500	0,5	1,252550
6,666833	0,5	1,273100
6,675167	0,5	1,275800
6,683500	0,5	1,284200
6,691833	0,5	1,289150
6,700167	0,5	1,301500
6,708500	0,5	1,308150
6,716833	0,5	1,317600
6,725167	0,5	1,324000
6,733500	0,5	1,330800
6,741833	0,5	1,343600
6,750167	0,5	1,346100
6,758500	0,5	1,354350
6,766833	0,5	1,376350
6,775167	0,5	1,374700
6,783500	0,5	1,385100
6,791833	0,5	1,392000
6,800167	0,5	1,416200
6,808500	0,5	1,442100
6,816833	0,5	1,449750
6,825167	0,5	1,459950
6,833500	0,5	1,465750
6,841833	0,5	1,475350
6,850167	0,5	1,483400
6,858500	0,5	1,488650
6,866833	0,5	1,489250
6,875167	0,5	1,497250
6,883500	0,5	1,503550
6,891833	0,5	1,507250
6,900167	0,5	1,507950
6,908500	0,5	1,515200
6,916833	0,5	1,518050
6,925167	0,5	1,513000
6,933500	0,5	1,514050
6,941833	0,5	1,522250
6,950167	0,5	1,542750
6,958500	0,5	1,557400
6,966833	0,5	1,569000
6,975167	0,5	1,564000
6,983500	0,5	1,567300
6,991833	0,5	1,569450
7,000167	0,5	1,574350
7,008500	0,5	1,576350
7,016833	0,5	1,585400
7,025167	0,5	1,581500
7,033500	0,5	1,590250
7,041833	0,5	1,592650
7,050167	0,5	1,603700
7,058500	0,5	1,622300
7,066833	0,5	1,633400
7,075167	0,5	1,632150
7,083500	0,5	1,645450
7,091833	0,5	1,664450
7,100167	0,5	1,697100
7,108500	0,5	1,731750
7,116833	0,5	1,768150
7,125167	0,5	1,822550
7,133500	0,5	1,898200
7,141833	0,5	1,995050
7,150167	0,5	2,114200
7,158500	0,5	2,250050
7,166833	0,5	2,403000
7,175167	0,5	2,556050
7,183500	0,5	2,690750
7,191833	0,5	2,792150
7,200167	0,5	2,853650
7,208500	0,5	2,879650
7,216833	0,5	2,845900
7,225167	0,5	2,786700
7,233500	0,5	2,709850
7,241833	0,5	2,629250
7,250167	0,5	2,557500
7,258500	0,5	2,468400
7,266833	0,5	2,388650
7,275167	0,5	2,318150
7,283500	0,5	2,250600
7,291833	0,5	2,192950
7,300167	0,5	2,136800
7,308500	0,5	2,093550
7,316833	0,5	2,054450
7,325167	0,5	2,021650
7,333500	0,5	1,992200
7,341833	0,5	1,961350
7,350167	0,5	1,941450
7,358500	0,5	1,932550
7,366833	0,5	1,911000
7,375167	0,5	1,897000
7,383500	0,5	1,889100
7,391833	0,5	1,884950
7,400167	0,5	1,883450
7,408500	0,5	1,871700
7,416833	0,5	1,868600
7,425167	0,5	1,860250
7,433500	0,5	1,852300
7,441833	0,5	1,848400
7,450167	0,5	1,841500
7,458500	0,5	1,837000
7,466833	0,5	1,832250
7,475167	0,5	1,830350
7,483500	0,5	1,823700
7,491833	0,5	1,823250
7,500167	0,5	1,823400
7,508500	0,5	1,823050
7,516833	0,5	1,815750
7,525167	0,5	1,813200
7,533500	0,5	1,818600
7,541833	0,5	1,828300
7,550167	0,5	1,825900
7,558500	0,5	1,829250
7,566833	0,5	1,832400
7,575167	0,5	1,829700
7,583500	0,5	1,828000
7,591833	0,5	1,828900
7,600167	0,5	1,826700
7,608500	0,5	1,826400
7,616833	0,5	1,824450
7,625167	0,5	1,820800
7,633500	0,5	1,817600
7,641833	0,5	1,810350
7,650167	0,5	1,812400
7,658500	0,5	1,804950
7,666833	0,5	1,801600
7,675167	0,5	1,797500
7,683500	0,5	1,794500
7,691833	0,5	1,797650
7,700167	0,5	1,800200
7,708500	0,5	1,793500
7,716833	0,5	1,790600
7,725167	0,5	1,789350
7,733500	0,5	1,789700
7,741833	0,5	1,788550
7,750167	0,5	1,783900
7,758500	0,5	1,790050
7,766833	0,5	1,800450
7,775167	0,5	1,819300
7,783500	0,5	1,844900
7,791833	0,5	1,863550
7,800167	0,5	1,888800
7,808500	0,5	1,891000
7,816833	0,5	1,883800
7,825167	0,5	1,859450
7,833500	0,5	1,834400
7,841833	0,5	1,817250
7,850167	0,5	1,801050
7,858500	0,5	1,791350
7,866833	0,5	1,786050
7,875167	0,5	1,790650
7,883500	0,5	1,792900
7,891833	0,5	1,799200
7,900167	0,5	1,809350
7,908500	0,5	1,810400
7,916833	0,5	1,812400
7,925167	0,5	1,818450
7,933500	0,5	1,831900
7,941833	0,5	1,861000
7,950167	0,5	1,897000
7,958500	0,5	1,924150
7,966833	0,5	1,950650
7,975167	0,5	1,971950
7,983500	0,5	1,977750
7,991833	0,5	1,977100
8,000167	0,5	1,966500
8,008500	0,5	1,957450
8,016833	0,5	1,947950
8,025167	0,5	1,943950
8,033500	0,5	1,932550
8,041833	0,5	1,921850
8,050167	0,5	1,912300
8,058500	0,5	1,902150
8,066833	0,5	1,897600
8,075167	0,5	1,893400
8,083500	0,5	1,901050
8,091833	0,5	1,930550
8,100167	0,5	1,975850
8,108500	0,5	1,999600
8,116833	0,5	1,990500
8,125167	0,5	1,935100
8,133500	0,5	1,833400
8,141833	0,5	1,744450
8,150167	0,5	1,667450
8,158500	0,5	1,612850
8,166833	0,5	1,582900
8,175167	0,5	1,564100
8,183500	0,5	1,549350
8,191833	0,5	1,534050
8,200167	0,5	1,526200
8,208500	0,5	1,516600
8,216833	0,5	1,511300
8,225167	0,5	1,507300
8,233500	0,5	1,507150
8,241833	0,5	1,510000
8,250167	0,5	1,515700
8,258500	0,5	1,522900
8,266833	0,5	1,533000
8,275167	0,5	1,550350
8,283500	0,5	1,568500
8,291833	0,5	1,575550
8,300167	0,5	1,576750
8,308500	0,5	1,571500
8,316833	0,5	1,569550
8,325167	0,5	1,558050
8,333500	0,5	1,551450
8,341833	0,5	1,548000
8,350167	0,5	1,534100
8,358500	0,5	1,524000
8,366833	0,5	1,517150
8,375167	0,5	1,504400
8,383500	0,5	1,492250
8,391833	0,5	1,492100
8,400167	0,5	1,484750
8,408500	0,5	1,477300
8,416833	0,5	1,476050
8,425167	0,5	1,487350
8,433500	0,5	1,492900
8,441833	0,5	1,497150
8,450167	0,5	1,504600
8,458500	0,5	1,511450
8,466833	0,5	1,528750
8,475167	0,5	1,542750
8,483500	0,5	1,562050
8,491833	0,5	1,579150
8,500167	0,5	1,595850
8,508500	0,5	1,615350
8,516833	0,5	1,625200
8,525167	0,5	1,635950
8,533500	0,5	1,651450
8,541833	0,5	1,659600
8,550167	0,5	1,671650
8,558500	0,5	1,685500
8,566833	0,5	1,691850
8,575167	0,5	1,706950
8,583500	0,5	1,713150
8,591833	0,5	1,708600
8,600167	0,5	1,701750
8,608500	0,5	1,696150
8,616833	0,5	1,683400
8,625167	0,5	1,672100
8,633500	0,5	1,658300
8,641833	0,5	1,653550
8,650167	0,5	1,642100
8,658500	0,5	1,638250
8,666833	0,5	1,636900
8,675167	0,5	1,639200
8,683500	0,5	1,651700
8,691833	0,5	1,658850
8,700167	0,5	1,670700
8,708500	0,5	1,688000
8,716833	0,5	1,692400
8,725167	0,5	1,701000
8,733500	0,5	1,689050
8,741833	0,5	1,656600
8,750167	0,5	1,621700
8,758500	0,5	1,595800
8,766833	0,5	1,576550
8,775167	0,5	1,564700
8,783500	0,5	1,556600
8,791833	0,5	1,547800
8,800167	0,5	1,543800
8,808500	0,5	1,543200
8,816833	0,5	1,545650
8,825167	0,5	1,542950
8,833500	0,5	1,547300
8,841833	0,5	1,545600
8,850167	0,5	1,540550
8,858500	0,5	1,539600
8,866833	0,5	1,542300
8,875167	0,5	1,546450
8,883500	0,5	1,552500
8,891833	0,5	1,547050
8,900167	0,5	1,548750
8,908500	0,5	1,545900
8,916833	0,5	1,543550
8,925167	0,5	1,537250
8,933500	0,5	1,532600
8,941833	0,5	1,531900
8,950167	0,5	1,530050
8,958500	0,5	1,525400
8,966833	0,5	1,526250
8,975167	0,5	1,527250
8,983500	0,5	1,525750
8,991833	0,5	1,524350
9,000167	0,5	1,526350
9,008500	0,5	1,532200
9,016833	0,5	1,546950
9,025167	0,5	1,555350
9,033500	0,5	1,560700
9,041833	0,5	1,569250
9,050167	0,5	1,570900
9,058500	0,5	1,567650
9,066833	0,5	1,560900
9,075167	0,5	1,558500
9,083500	0,5	1,553600
9,091833	0,5	1,548100
9,100167	0,5	1,538700
9,108500	0,5	1,533300
9,116833	0,5	1,528650
9,125167	0,5	1,529550
9,133500	0,5	1,524100
9,141833	0,5	1,523350
9,150167	0,5	1,512950
9,158500	0,5	1,505200
9,166833	0,5	1,499900
9,175167	0,5	1,483950
9,183500	0,5	1,473100
9,191833	0,5	1,454550
9,200167	0,5	1,445150
9,208500	0,5	1,432400
9,216833	0,5	1,421800
9,225167	0,5	1,412850
9,233500	0,5	1,402400
9,241833	0,5	1,394700
9,250167	0,5	1,390900
9,258500	0,5	1,378650
9,266833	0,5	1,367800
9,275167	0,5	1,367950
9,283500	0,5	1,361100
9,291833	0,5	1,349450
9,300167	0,5	1,341200
9,308500	0,5	1,341750
9,316833	0,5	1,338750
9,325167	0,5	1,331350
9,333500	0,5	1,328900
9,341833	0,5	1,318850
9,350167	0,5	1,312450
9,358500	0,5	1,305800
9,366833	0,5	1,298000
9,375167	0,5	1,292050
9,383500	0,5	1,286700
9,391833	0,5	1,279950
9,400167	0,5	1,270050
9,408500	0,5	1,261400
9,416833	0,5	1,250400
9,425167	0,5	1,250000
9,433500	0,5	1,242800
9,441833	0,5	1,239700
9,450167	0,5	1,239800
9,458500	0,5	1,240000
9,466833	0,5	1,236750
9,475167	0,5	1,234650
9,483500	0,5	1,239550
9,491833	0,5	1,232800
9,500167	0,5	1,238500
9,508500	0,5	1,240150
9,516833	0,5	1,242950
9,525167	0,5	1,247450
9,533500	0,5	1,251050
9,541833	0,5	1,261600
9,550167	0,5	1,268050
9,558500	0,5	1,279950
9,566833	0,5	1,293800
9,575167	0,5	1,312350
9,583500	0,5	1,344450
9,591833	0,5	1,381500
9,600167	0,5	1,434900
9,608500	0,5	1,505100
9,616833	0,5	1,593300
9,625167	0,5	1,700950
9,633500	0,5	1,809900
9,641833	0,5	1,928750
9,650167	0,5	2,039250
9,658500	0,5	2,128100
9,666833	0,5	2,190650
9,675167	0,5	2,204100
9,683500	0,5	2,175250
9,691833	0,5	2,101850
9,700167	0,5	1,988650
9,708500	0,5	1,862250
9,716833	0,5	1,733300
9,725167	0,5	1,615050
9,733500	0,5	1,515800
9,741833	0,5	1,437500
9,750167	0,5	1,381150
9,758500	0,5	1,342350
9,766833	0,5	1,314050
9,775167	0,5	1,301350
9,783500	0,5	1,288800
9,791833	0,5	1,281500
9,800167	0,5	1,277050
9,808500	0,5	1,282000
9,816833	0,5	1,294750
9,825167	0,5	1,306150
9,833500	0,5	1,318150
9,841833	0,5	1,341550
9,850167	0,5	1,366750
9,858500	0,5	1,385000
9,866833	0,5	1,403950
9,875167	0,5	1,420700
9,883500	0,5	1,425750
9,891833	0,5	1,429900
9,900167	0,5	1,429350
9,908500	0,5	1,432000
9,916833	0,5	1,441950
9,925167	0,5	1,455500
9,933500	0,5	1,472050
9,941833	0,5	1,490300
9,950167	0,5	1,498950
9,958500	0,5	1,495450
9,966833	0,5	1,480650
9,975167	0,5	1,456600
9,983500	0,5	1,418800
9,991833	0,5	1,382250
10,000167	0,5	1,346550
10,008500	0,5	1,314950
10,016833	0,5	1,286650
10,025167	0,5	1,259700
10,033500	0,5	1,240500
10,041833	0,5	1,220250
10,050167	0,5	1,204950
10,058500	0,5	1,204050
10,066833	0,5	1,196300
10,075167	0,5	1,193000
10,083500	0,5	1,186200
10,091833	0,5	1,182650
10,100167	0,5	1,178850
10,108500	0,5	1,185200
10,116833	0,5	1,189050
10,125167	0,5	1,197600
10,133500	0,5	1,208700
10,141833	0,5	1,232150
10,150167	0,5	1,245700
10,158500	0,5	1,265950
10,166833	0,5	1,285850
10,175167	0,5	1,300300
10,183500	0,5	1,312100
10,191833	0,5	1,324400
10,200167	0,5	1,337700
10,208500	0,5	1,366250
10,216833	0,5	1,402050
10,225167	0,5	1,452200
10,233500	0,5	1,498450
10,241833	0,5	1,557800
10,250167	0,5	1,594900
10,258500	0,5	1,609150
10,266833	0,5	1,596850
10,275167	0,5	1,555550
10,283500	0,5	1,500250
10,291833	0,5	1,440250
10,300167	0,5	1,375850
10,308500	0,5	1,333450
10,316833	0,5	1,301850
10,325167	0,5	1,265450
10,333500	0,5	1,250150
10,341833	0,5	1,230600
10,350167	0,5	1,226900
10,358500	0,5	1,219850
10,366833	0,5	1,213000
10,375167	0,5	1,200200
10,383500	0,5	1,190350
10,391833	0,5	1,178750
10,400167	0,5	1,169900
10,408500	0,5	1,161900
10,416833	0,5	1,151650
10,425167	0,5	1,146300
10,433500	0,5	1,146050
10,441833	0,5	1,148100
10,450167	0,5	1,149750
10,458500	0,5	1,172150
10,466833	0,5	1,193900
10,475167	0,5	1,221900
10,483500	0,5	1,257300
10,491833	0,5	1,292350
10,500167	0,5	1,316450
10,508500	0,5	1,321700
10,516833	0,5	1,304750
10,525167	0,5	1,261800
10,533500	0,5	1,203150
10,541833	0,5	1,133850
10,550167	0,5	1,059150
10,558500	0,5	0,997000
10,566833	0,5	0,948900
10,575167	0,5	0,920500
10,583500	0,5	0,912800
10,591833	0,5	0,912350
10,600167	0,5	0,932700
10,608500	0,5	0,959600
10,616833	0,5	0,991650
10,625167	0,5	1,026350
10,633500	0,5	1,065350
10,641833	0,5	1,100650
10,650167	0,5	1,134300
10,658500	0,5	1,153400
10,666833	0,5	1,169200
10,675167	0,5	1,170150
10,683500	0,5	1,167900
10,691833	0,5	1,155850
10,700167	0,5	1,141250
10,708500	0,5	1,120600
10,716833	0,5	1,109000
10,725167	0,5	1,098450
10,733500	0,5	1,091050
10,741833	0,5	1,075950
10,750167	0,5	1,078400
10,758500	0,5	1,074450
10,766833	0,5	1,068850
10,775167	0,5	1,067600
10,783500	0,5	1,060800
10,791833	0,5	1,065650
10,800167	0,5	1,061500
10,808500	0,5	1,059750
10,816833	0,5	1,061200
10,825167	0,5	1,063150
10,833500	0,5	1,063950
10,841833	0,5	1,065950
10,850167	0,5	1,067500
10,858500	0,5	1,068600
10,866833	0,5	1,069100
10,875167	0,5	1,067150
10,883500	0,5	1,067750
10,891833	0,5	1,064150
10,900167	0,5	1,068200
10,908500	0,5	1,066400
10,916833	0,5	1,065550
10,925167	0,5	1,069750
10,933500	0,5	1,070050
10,941833	0,5	1,073300
10,950167	0,5	1,081950
10,958500	0,5	1,086850
10,966833	0,5	1,092650
10,975167	0,5	1,096350
10,983500	0,5	1,100800
10,991833	0,5	1,101200
11,000167	0,5	1,109100
11,008500	0,5	1,103300
11,016833	0,5	1,103200
11,025167	0,5	1,105600
11,033500	0,5	1,106800
11,041833	0,5	1,102800
11,050167	0,5	1,103950
11,058500	0,5	1,109950
11,066833	0,5	1,120500
11,075167	0,5	1,144900
11,083500	0,5	1,178750
11,091833	0,5	1,244100
11,100167	0,5	1,315200
11,108500	0,5	1,393800
11,116833	0,5	1,457550
11,125167	0,5	1,509800
11,133500	0,5	1,537750
11,141833	0,5	1,524550
11,150167	0,5	1,485350
11,158500	0,5	1,438200
11,166833	0,5	1,384000
11,175167	0,5	1,340300
11,183500	0,5	1,299150
11,191833	0,5	1,271550
11,200167	0,5	1,254800
11,208500	0,5	1,235700
11,216833	0,5	1,215500
11,225167	0,5	1,198300
11,233500	0,5	1,182550
11,241833	0,5	1,182200
11,250167	0,5	1,163650
11,258500	0,5	1,163450
11,266833	0,5	1,164550
11,275167	0,5	1,172150
11,283500	0,5	1,191450
11,291833	0,5	1,222650
11,300167	0,5	1,277400
11,308500	0,5	1,355700
11,316833	0,5	1,461650
11,325167	0,5	1,599850
11,333500	0,5	1,756900
11,341833	0,5	1,930700
11,350167	0,5	2,088950
11,358500	0,5	2,211450
11,366833	0,5	2,291150
11,375167	0,5	2,317300
11,383500	0,5	2,306000
11,391833	0,5	2,245750
11,400167	0,5	2,152500
11,408500	0,5	2,045300
11,416833	0,5	1,929850
11,425167	0,5	1,824950
11,433500	0,5	1,744650
11,441833	0,5	1,689600
11,450167	0,5	1,666500
11,458500	0,5	1,665800
11,466833	0,5	1,682750
11,475167	0,5	1,702650
11,483500	0,5	1,724100
11,491833	0,5	1,733450
11,500167	0,5	1,713100
11,508500	0,5	1,675450
11,516833	0,5	1,615150
11,525167	0,5	1,543250
11,533500	0,5	1,475200
11,541833	0,5	1,406250
11,550167	0,5	1,334350
11,558500	0,5	1,273950
11,566833	0,5	1,218650
11,575167	0,5	1,169350
11,583500	0,5	1,137500
11,591833	0,5	1,105900
11,600167	0,5	1,081800
11,608500	0,5	1,062500
11,616833	0,5	1,052500
11,625167	0,5	1,029200
11,633500	0,5	1,029550
11,641833	0,5	1,025800
11,650167	0,5	1,019600
11,658500	0,5	1,010850
11,666833	0,5	1,001350
11,675167	0,5	1,000050
11,683500	0,5	1,003150
11,691833	0,5	0,998950
11,700167	0,5	1,001400
11,708500	0,5	0,998850
11,716833	0,5	0,997750
11,725167	0,5	0,998850
11,733500	0,5	1,002100
11,741833	0,5	1,006400
11,750167	0,5	1,007150
11,758500	0,5	1,010700
11,766833	0,5	1,008150
11,775167	0,5	1,004100
11,783500	0,5	1,015450
11,791833	0,5	1,017250
11,800167	0,5	1,018350
11,808500	0,5	1,024600
11,816833	0,5	1,033300
11,825167	0,5	1,050700
11,833500	0,5	1,070150
11,841833	0,5	1,095350
11,850167	0,5	1,121850
11,858500	0,5	1,142750
11,866833	0,5	1,156550
11,875167	0,5	1,170200
11,883500	0,5	1,169000
11,891833	0,5	1,175850
11,900167	0,5	1,172300
11,908500	0,5	1,165150
11,916833	0,5	1,156400
11,925167	0,5	1,140450
11,933500	0,5	1,143500
11,941833	0,5	1,137950
11,950167	0,5	1,139200
11,958500	0,5	1,139400
11,966833	0,5	1,140450
11,975167	0,5	1,149650
11,983500	0,5	1,171900
11,991833	0,5	1,202050
12,000167	0,5	1,240750
12,008500	0,5	1,297750
12,016833	0,5	1,365350
12,025167	0,5	1,432650
12,033500	0,5	1,499550
12,041833	0,5	1,555700
12,050167	0,5	1,604850
12,058500	0,5	1,644200
12,066833	0,5	1,686950
12,075167	0,5	1,734000
12,083500	0,5	1,796100
12,091833	0,5	1,865850
12,100167	0,5	1,944050
12,108500	0,5	2,023250
12,116833	0,5	2,098050
12,125167	0,5	2,167500
12,133500	0,5	2,210250
12,141833	0,5	2,229700
12,150167	0,5	2,219200
12,158500	0,5	2,175600
12,166833	0,5	2,099350
12,175167	0,5	2,010550
12,183500	0,5	1,910300
12,191833	0,5	1,816300
12,200167	0,5	1,733950
12,208500	0,5	1,661400
12,216833	0,5	1,614200
12,225167	0,5	1,591800
12,233500	0,5	1,579800
12,241833	0,5	1,580900
12,250167	0,5	1,590250
12,258500	0,5	1,602700
12,266833	0,5	1,621300
12,275167	0,5	1,645100
12,283500	0,5	1,664000
12,291833	0,5	1,678750
12,300167	0,5	1,687150
12,308500	0,5	1,686000
12,316833	0,5	1,671600
12,325167	0,5	1,651200
12,333500	0,5	1,614000
12,341833	0,5	1,566400
12,350167	0,5	1,522250
12,358500	0,5	1,468950
12,366833	0,5	1,407700
12,375167	0,5	1,362100
12,383500	0,5	1,311900
12,391833	0,5	1,264450
12,400167	0,5	1,225800
12,408500	0,5	1,191650
12,416833	0,5	1,173400
12,425167	0,5	1,157500
12,433500	0,5	1,140900
12,441833	0,5	1,130550
12,450167	0,5	1,135800
12,458500	0,5	1,126150
12,466833	0,5	1,128850
12,475167	0,5	1,124950
12,483500	0,5	1,126250
12,491833	0,5	1,133900
12,500167	0,5	1,145650
12,508500	0,5	1,160050
12,516833	0,5	1,190900
12,525167	0,5	1,209400
12,533500	0,5	1,204000
12,541833	0,5	1,193550
12,550167	0,5	1,164550
12,558500	0,5	1,123050
12,566833	0,5	1,061100
12,575167	0,5	1,001700
12,583500	0,5	0,951700
12,591833	0,5	0,860250
12,600167	0,5	0,687900
12,608500	0,5	0,417350
12,616833	0,5	0,034450
12,625167	0,5	-0,411500
12,633500	0,5	-0,767950
12,641833	0,5	-1,032400
12,650167	0,5	-1,248850
12,658500	0,5	-1,456400
12,666833	0,5	-1,646800
12,675167	0,5	-1,874800
12,683500	0,5	-2,078500
12,691833	0,5	-2,228050
12,700167	0,5	-2,346900
12,708500	0,5	-2,434550
12,716833	0,5	-2,509500
12,725167	0,5	-2,582700
12,733500	0,5	-2,635700
12,741833	0,5	-2,696800
12,750167	0,5	-2,735450
12,758500	0,5	-2,779900
12,766833	0,5	-2,812400
12,775167	0,5	-2,850750
12,783500	0,5	-2,886400
12,791833	0,5	-2,909350
12,800167	0,5	-2,936350
12,808500	0,5	-2,967800
12,816833	0,5	-2,984650
12,825167	0,5	-3,003800
12,833500	0,5	-3,030150
12,841833	0,5	-3,052100
12,850167	0,5	-3,077200
12,858500	0,5	-3,075400
12,866833	0,5	-3,084900
12,875167	0,5	-3,092250
12,883500	0,5	-3,101650
12,891833	0,5	-3,103800
12,900167	0,5	-3,111450
12,908500	0,5	-3,108700
12,916833	0,5	-3,111350
12,925167	0,5	-3,111750
12,933500	0,5	-3,112400
12,941833	0,5	-3,104800
12,950167	0,5	-3,109750
12,958500	0,5	-3,108750
12,966833	0,5	-3,098350
12,975167	0,5	-3,094050
12,983500	0,5	-3,090900
12,991833	0,5	-3,088900
13,000167	0,5	-3,083050
13,008500	0,5	-3,064450
13,016833	0,5	-3,041300
13,025167	0,5	-3,021750
13,033500	0,5	-2,995100
13,041833	0,5	-2,974500
13,050167	0,5	-2,950200
13,058500	0,5	-2,925350
13,066833	0,5	-2,896250
13,075167	0,5	-2,871800
13,083500	0,5	-2,840550
13,091833	0,5	-2,812500
13,100167	0,5	-2,801150
13,108500	0,5	-2,785300
13,116833	0,5	-2,774150
13,125167	0,5	-2,772300
13,133500	0,5	-2,788550
13,141833	0,5	-2,813050
13,150167	0,5	-2,833700
13,158500	0,5	-2,842550
13,166833	0,5	-2,859300
13,175167	0,5	-2,879250
13,183500	0,5	-2,892150
13,191833	0,5	-2,906450
13,200167	0,5	-2,921450
13,208500	0,5	-2,925550
13,216833	0,5	-2,933050
13,225167	0,5	-2,932700
13,233500	0,5	-2,932200
13,241833	0,5	-2,932600
13,250167	0,5	-2,934750
13,258500	0,5	-2,920150
13,266833	0,5	-2,916150
13,275167	0,5	-2,901050
13,283500	0,5	-2,897450
13,291833	0,5	-2,879150
13,300167	0,5	-2,849750
13,308500	0,5	-2,813200
13,316833	0,5	-2,782000
13,325167	0,5	-2,743200
13,333500	0,5	-2,710800
13,341833	0,5	-2,680500
13,350167	0,5	-2,663000
13,358500	0,5	-2,647000
13,366833	0,5	-2,645100
13,375167	0,5	-2,645650
13,383500	0,5	-2,636900
13,391833	0,5	-2,651150
13,400167	0,5	-2,651800
13,408500	0,5	-2,655350
13,416833	0,5	-2,651050
13,425167	0,5	-2,658150
13,433500	0,5	-2,663300
13,441833	0,5	-2,659500
13,450167	0,5	-2,651950
13,458500	0,5	-2,648000
13,466833	0,5	-2,634750
13,475167	0,5	-2,625650
13,483500	0,5	-2,611150
13,491833	0,5	-2,602150
13,500167	0,5	-2,585450
13,508500	0,5	-2,573800
13,516833	0,5	-2,567750
13,525167	0,5	-2,552650
13,533500	0,5	-2,534450
13,541833	0,5	-2,534250
13,550167	0,5	-2,511850
13,558500	0,5	-2,496450
13,566833	0,5	-2,482050
13,575167	0,5	-2,472150
13,583500	0,5	-2,471600
13,591833	0,5	-2,443450
13,600167	0,5	-2,427000
13,608500	0,5	-2,407250
13,616833	0,5	-2,386150
13,625167	0,5	-2,363800
13,633500	0,5	-2,350950
13,641833	0,5	-2,322100
13,650167	0,5	-2,301800
13,658500	0,5	-2,279150
13,666833	0,5	-2,257700
13,675167	0,5	-2,229950
13,683500	0,5	-2,208650
13,691833	0,5	-2,189950
13,700167	0,5	-2,156000
13,708500	0,5	-2,128750
13,716833	0,5	-2,106300
13,725167	0,5	-2,087150
13,733500	0,5	-2,068600
13,741833	0,5	-2,041650
13,750167	0,5	-2,015400
13,758500	0,5	-1,996300
13,766833	0,5	-1,980050
13,775167	0,5	-1,963950
13,783500	0,5	-1,943750
13,791833	0,5	-1,928950
13,800167	0,5	-1,903550
13,808500	0,5	-1,895650
13,816833	0,5	-1,881350
13,825167	0,5	-1,860300
13,833500	0,5	-1,849550
13,841833	0,5	-1,846800
13,850167	0,5	-1,826550
13,858500	0,5	-1,820100
13,866833	0,5	-1,807050
13,875167	0,5	-1,792850
13,883500	0,5	-1,780950
13,891833	0,5	-1,741400
13,900167	0,5	-1,706500
13,908500	0,5	-1,671050
13,916833	0,5	-1,620000
13,925167	0,5	-1,551900
13,933500	0,5	-1,492700
13,941833	0,5	-1,420900
13,950167	0,5	-1,355300
13,958500	0,5	-1,304650
13,966833	0,5	-1,257050
13,975167	0,5	-1,230300
13,983500	0,5	-1,220150
13,991833	0,5	-1,198700
14,000167	0,5	-1,165650
14,008500	0,5	-1,117250
14,016833	0,5	-1,067300
14,025167	0,5	-1,017350
14,033500	0,5	-0,953900
14,041833	0,5	-0,903650
14,050167	0,5	-0,865450
14,058500	0,5	-0,837700
14,066833	0,5	-0,794450
14,075167	0,5	-0,745400
14,083500	0,5	-0,689100
14,091833	0,5	-0,619800
14,100167	0,5	-0,552800
14,108500	0,5	-0,498450
14,116833	0,5	-0,439900
14,125167	0,5	-0,392750
14,133500	0,5	-0,359850
14,141833	0,5	-0,303950
14,150167	0,5	-0,263900
14,158500	0,5	-0,240400
14,166833	0,5	-0,233550
14,175167	0,5	-0,238900
14,183500	0,5	-0,237050
14,191833	0,5	-0,238100
14,200167	0,5	-0,235950
14,208500	0,5	-0,238250
14,216833	0,5	-0,222600
14,225167	0,5	-0,216500
14,233500	0,5	-0,203000
14,241833	0,5	-0,187200
14,250167	0,5	-0,183950
14,258500	0,5	-0,167150
14,266833	0,5	-0,166200
14,275167	0,5	-0,149250
14,283500	0,5	-0,146700
14,291833	0,5	-0,129650
14,300167	0,5	-0,129700
14,308500	0,5	-0,118700
14,316833	0,5	-0,126400
14,325167	0,5	-0,128050
14,333500	0,5	-0,112850
14,341833	0,5	-0,090800
14,350167	0,5	-0,075250
14,358500	0,5	-0,054000
14,366833	0,5	-0,040100
14,375167	0,5	-0,025000
14,383500	0,5	-0,004400
14,391833	0,5	-0,007750
14,400167	0,5	-0,006700
14,408500	0,5	-0,021050
14,416833	0,5	-0,028450
14,425167	0,5	-0,051700
14,433500	0,5	-0,059900
14,441833	0,5	-0,072350
14,450167	0,5	-0,081450
14,458500	0,5	-0,094200
14,466833	0,5	-0,119000
14,475167	0,5	-0,130450
14,483500	0,5	-0,120250
14,491833	0,5	-0,122700
14,500167	0,5	-0,122650
14,508500	0,5	-0,115850
14,516833	0,5	-0,114050
14,525167	0,5	-0,111800
14,533500	0,5	-0,110650
14,541833	0,5	-0,101400
14,550167	0,5	-0,092650
14,558500	0,5	-0,066250
14,566833	0,5	-0,035400
14,575167	0,5	0,007950
14,583500	0,5	0,095850
14,591833	0,5	0,188700
14,600167	0,5	0,274050
14,608500	0,5	0,339550
14,616833	0,5	0,373350
14,625167	0,5	0,391450
14,633500	0,5	0,367350
14,641833	0,5	0,332700
14,650167	0,5	0,280300
14,658500	0,5	0,248650
14,666833	0,5	0,221850
14,675167	0,5	0,236900
14,683500	0,5	0,290900
14,691833	0,5	0,350350
14,700167	0,5	0,416400
14,708500	0,5	0,476750
14,716833	0,5	0,480550
14,725167	0,5	0,466700
14,733500	0,5	0,424000
14,741833	0,5	0,356400
14,750167	0,5	0,278400
14,758500	0,5	0,193100
14,766833	0,5	0,140150
14,775167	0,5	0,098900
14,783500	0,5	0,071800
14,791833	0,5	0,042100
14,800167	0,5	0,033200
14,808500	0,5	0,015750
14,816833	0,5	0,012850
14,825167	0,5	0,009800
14,833500	0,5	0,018650
14,841833	0,5	0,021700
14,850167	0,5	0,023500
14,858500	0,5	0,030750
14,866833	0,5	0,015050
14,875167	0,5	0,015900
14,883500	0,5	0,014550
14,891833	0,5	-0,004850
14,900167	0,5	-0,019150
14,908500	0,5	-0,051250
14,916833	0,5	-0,058050
14,925167	0,5	-0,052200
14,933500	0,5	-0,072850
14,941833	0,5	-0,081800
14,950167	0,5	-0,102250
14,958500	0,5	-0,117300
14,966833	0,5	-0,141550
14,975167	0,5	-0,158300
14,983500	0,5	-0,171650
14,991833	0,5	-0,187600
15,000167	0,5	-0,193850
15,008500	0,5	-0,195100
15,016833	0,5	-0,213700
15,025167	0,5	-0,205250
15,033500	0,5	-0,214650
15,041833	0,5	-0,220300
15,050167	0,5	-0,236750
15,058500	0,5	-0,251950
15,066833	0,5	-0,231250
15,075167	0,5	-0,221450
15,083500	0,5	-0,192400
15,091833	0,5	-0,150450
15,100167	0,5	-0,085700
15,108500	0,5	0,001350
15,116833	0,5	0,119800
15,125167	0,5	0,228600
15,133500	0,5	0,318200
15,141833	0,5	0,361000
15,150167	0,5	0,363000
15,158500	0,5	0,312350
15,166833	0,5	0,258450
15,175167	0,5	0,218000
15,183500	0,5	0,217350
15,191833	0,5	0,248800
15,200167	0,5	0,308000
15,208500	0,5	0,370250
15,216833	0,5	0,417100
15,225167	0,5	0,420500
15,233500	0,5	0,385000
15,241833	0,5	0,312350
15,250167	0,5	0,225600
15,258500	0,5	0,146300
15,266833	0,5	0,084350
15,275167	0,5	0,039100
15,283500	0,5	0,012200
15,291833	0,5	0,006100
15,300167	0,5	-0,007800
15,308500	0,5	-0,025300
15,316833	0,5	-0,040800
15,325167	0,5	-0,054150
15,333500	0,5	-0,079700
15,341833	0,5	-0,099550
15,350167	0,5	-0,122600
15,358500	0,5	-0,130350
15,366833	0,5	-0,111500
15,375167	0,5	-0,117500
15,383500	0,5	-0,117150
15,391833	0,5	-0,115400
15,400167	0,5	-0,121750
15,408500	0,5	-0,137050
15,416833	0,5	-0,155150
15,425167	0,5	-0,185250
15,433500	0,5	-0,203450
15,441833	0,5	-0,229650
15,450167	0,5	-0,249050
15,458500	0,5	-0,267850
15,466833	0,5	-0,271100
15,475167	0,5	-0,284000
15,483500	0,5	-0,299850
15,491833	0,5	-0,325800
15,500167	0,5	-0,341300
15,508500	0,5	-0,345900
15,516833	0,5	-0,338950
15,525167	0,5	-0,341800
15,533500	0,5	-0,340150
15,541833	0,5	-0,316550
15,550167	0,5	-0,284400
15,558500	0,5	-0,222350
15,566833	0,5	-0,125250
15,575167	0,5	-0,007200
15,583500	0,5	0,103100
15,591833	0,5	0,221700
15,600167	0,5	0,260600
15,608500	0,5	0,274150
15,616833	0,5	0,259800
15,625167	0,5	0,225100
15,633500	0,5	0,214150
15,641833	0,5	0,230500
15,650167	0,5	0,276550
15,658500	0,5	0,330900
15,666833	0,5	0,347850
15,675167	0,5	0,323200
15,683500	0,5	0,250800
15,691833	0,5	0,163550
15,700167	0,5	0,068050
15,708500	0,5	-0,015750
15,716833	0,5	-0,089850
15,725167	0,5	-0,140100
15,733500	0,5	-0,175800
15,741833	0,5	-0,193850
15,750167	0,5	-0,228150
15,758500	0,5	-0,217350
15,766833	0,5	-0,210350
15,775167	0,5	-0,205900
15,783500	0,5	-0,206550
15,791833	0,5	-0,228650
15,800167	0,5	-0,215600
15,808500	0,5	-0,226050
15,816833	0,5	-0,246500
15,825167	0,5	-0,270350
15,833500	0,5	-0,287150
15,841833	0,5	-0,310050
15,850167	0,5	-0,338750
15,858500	0,5	-0,362300
15,866833	0,5	-0,385200
15,875167	0,5	-0,404850
15,883500	0,5	-0,425450
15,891833	0,5	-0,436200
15,900167	0,5	-0,455350
15,908500	0,5	-0,445000
15,916833	0,5	-0,453250
15,925167	0,5	-0,458500
15,933500	0,5	-0,474200
15,941833	0,5	-0,478450
15,950167	0,5	-0,441800
15,958500	0,5	-0,392900
15,966833	0,5	-0,317000
15,975167	0,5	-0,191450
15,983500	0,5	-0,069300
15,991833	0,5	0,062450
16,000167	0,5	0,154050
16,008500	0,5	0,211550
16,016833	0,5	0,220400
16,025167	0,5	0,226300
16,033500	0,5	0,246800
16,041833	0,5	0,272950
16,050167	0,5	0,295800
16,058500	0,5	0,298900
16,066833	0,5	0,256600
16,075167	0,5	0,165050
16,083500	0,5	0,051400
16,091833	0,5	-0,058050
16,100167	0,5	-0,126650
16,108500	0,5	-0,195500
16,116833	0,5	-0,236850
16,125167	0,5	-0,263450
16,133500	0,5	-0,280750
16,141833	0,5	-0,292900
16,150167	0,5	-0,292700
16,158500	0,5	-0,298250
16,166833	0,5	-0,299050
16,175167	0,5	-0,306550
16,183500	0,5	-0,314350
16,191833	0,5	-0,350500
16,200167	0,5	-0,359200
16,208500	0,5	-0,382000
16,216833	0,5	-0,410950
16,225167	0,5	-0,453350
16,233500	0,5	-0,496250
16,241833	0,5	-0,515450
16,250167	0,5	-0,534200
16,258500	0,5	-0,552450
16,266833	0,5	-0,566300
16,275167	0,5	-0,580800
16,283500	0,5	-0,589100
16,291833	0,5	-0,601500
16,300167	0,5	-0,605200
16,308500	0,5	-0,593350
16,316833	0,5	-0,568600
16,325167	0,5	-0,516950
16,333500	0,5	-0,435400
16,341833	0,5	-0,326150
16,350167	0,5	-0,187950
16,358500	0,5	-0,060800
16,366833	0,5	0,027050
16,375167	0,5	0,063450
16,383500	0,5	0,069550
16,391833	0,5	0,069850
16,400167	0,5	0,087900
16,408500	0,5	0,091000
16,416833	0,5	0,085450
16,425167	0,5	0,044400
16,433500	0,5	-0,019050
16,441833	0,5	-0,095400
16,450167	0,5	-0,153000
16,458500	0,5	-0,205900
16,466833	0,5	-0,227200
16,475167	0,5	-0,238850
16,483500	0,5	-0,237150
16,491833	0,5	-0,230550
16,500167	0,5	-0,211100
16,508500	0,5	-0,218950
16,516833	0,5	-0,212700
16,525167	0,5	-0,242600
16,533500	0,5	-0,255700
16,541833	0,5	-0,271850
16,550167	0,5	-0,286300
16,558500	0,5	-0,316400
16,566833	0,5	-0,327600
16,575167	0,5	-0,351250
16,583500	0,5	-0,367550
16,591833	0,5	-0,365100
16,600167	0,5	-0,369600
16,608500	0,5	-0,360100
16,616833	0,5	-0,374450
16,625167	0,5	-0,369250
16,633500	0,5	-0,389200
16,641833	0,5	-0,380100
16,650167	0,5	-0,373800
16,658500	0,5	-0,353200
16,666833	0,5	-0,319050
16,675167	0,5	-0,258750
16,683500	0,5	-0,160250
16,691833	0,5	-0,064500
16,700167	0,5	0,000950
16,708500	0,5	0,050350
16,716833	0,5	0,068750
16,725167	0,5	0,072650
16,733500	0,5	0,075450
16,741833	0,5	0,062400
16,750167	0,5	0,031900
16,758500	0,5	-0,030200
16,766833	0,5	-0,095650
16,775167	0,5	-0,181750
16,783500	0,5	-0,250100
16,791833	0,5	-0,293250
16,800167	0,5	-0,325000
16,808500	0,5	-0,354450
16,816833	0,5	-0,381750
16,825167	0,5	-0,402700
16,833500	0,5	-0,398200
16,841833	0,5	-0,408100
16,850167	0,5	-0,411400
16,858500	0,5	-0,430650
16,866833	0,5	-0,437350
16,875167	0,5	-0,449900
16,883500	0,5	-0,465300
16,891833	0,5	-0,480200
16,900167	0,5	-0,507500
16,908500	0,5	-0,528100
16,916833	0,5	-0,537350
16,925167	0,5	-0,565400
16,933500	0,5	-0,554600
16,941833	0,5	-0,542100
16,950167	0,5	-0,527300
16,958500	0,5	-0,493300
16,966833	0,5	-0,457300
16,975167	0,5	-0,359250
16,983500	0,5	-0,241350
16,991833	0,5	-0,100250
17,000167	0,5	0,020950
17,008500	0,5	0,159600
17,016833	0,5	0,281550
17,025167	0,5	0,407400
17,033500	0,5	0,536200
17,041833	0,5	0,656150
17,050167	0,5	0,763750
17,058500	0,5	0,847250
17,066833	0,5	0,924100
17,075167	0,5	0,965500
17,083500	0,5	1,030700
17,091833	0,5	1,066000
17,100167	0,5	1,091700
17,108500	0,5	1,095850
17,116833	0,5	1,112600
17,125167	0,5	1,165200
17,133500	0,5	1,209900
17,141833	0,5	1,238950
17,150167	0,5	1,265500
17,158500	0,5	1,269700
17,166833	0,5	1,250350
17,175167	0,5	1,192200
17,183500	0,5	1,104400
17,191833	0,5	0,985350
17,200167	0,5	0,850500
17,208500	0,5	0,711250
17,216833	0,5	0,583350
17,225167	0,5	0,457700
17,233500	0,5	0,371750
17,241833	0,5	0,300350
17,250167	0,5	0,266500
17,258500	0,5	0,254900
17,266833	0,5	0,265200
17,275167	0,5	0,304900
17,283500	0,5	0,316900
17,291833	0,5	0,328200
17,300167	0,5	0,317250
17,308500	0,5	0,300200
17,316833	0,5	0,260500
17,325167	0,5	0,233850
17,333500	0,5	0,187150
17,341833	0,5	0,148850
17,350167	0,5	0,133650
17,358500	0,5	0,141500
17,366833	0,5	0,142950
17,375167	0,5	0,178650
17,383500	0,5	0,203150
17,391833	0,5	0,218450
17,400167	0,5	0,222950
17,408500	0,5	0,203800
17,416833	0,5	0,208700
17,425167	0,5	0,211250
17,433500	0,5	0,215950
17,441833	0,5	0,200250
17,450167	0,5	0,182500
17,458500	0,5	0,146050
17,466833	0,5	0,109700
17,475167	0,5	0,058950
17,483500	0,5	0,018150
17,491833	0,5	-0,007200
17,500167	0,5	-0,008750
17,508500	0,5	-0,009300
17,516833	0,5	0,009700
17,525167	0,5	0,034900
17,533500	0,5	0,052850
17,541833	0,5	0,038350
17,550167	0,5	0,006950
17,558500	0,5	-0,045350
17,566833	0,5	-0,109250
17,575167	0,5	-0,165100
17,583500	0,5	-0,232050
17,591833	0,5	-0,276600
17,600167	0,5	-0,327050
17,608500	0,5	-0,358700
17,616833	0,5	-0,388200
17,625167	0,5	-0,399200
17,633500	0,5	-0,425300
17,641833	0,5	-0,447750
17,650167	0,5	-0,456400
17,658500	0,5	-0,477300
17,666833	0,5	-0,485700
17,675167	0,5	-0,480800
17,683500	0,5	-0,491250
17,691833	0,5	-0,495150
17,700167	0,5	-0,510000
17,708500	0,5	-0,497400
17,716833	0,5	-0,466500
17,725167	0,5	-0,409250
17,733500	0,5	-0,353700
17,741833	0,5	-0,284100
17,750167	0,5	-0,225150
17,758500	0,5	-0,190850
17,766833	0,5	-0,158750
17,775167	0,5	-0,163650
17,783500	0,5	-0,184600
17,791833	0,5	-0,219000
17,800167	0,5	-0,255050
17,808500	0,5	-0,311950
17,816833	0,5	-0,335850
17,825167	0,5	-0,355900
17,833500	0,5	-0,382050
17,841833	0,5	-0,405400
17,850167	0,5	-0,441650
17,858500	0,5	-0,446350
17,866833	0,5	-0,458700
17,875167	0,5	-0,471800
17,883500	0,5	-0,484900
17,891833	0,5	-0,482450
17,900167	0,5	-0,481300
17,908500	0,5	-0,470700
17,916833	0,5	-0,464400
17,925167	0,5	-0,429700
17,933500	0,5	-0,391400
17,941833	0,5	-0,335150
17,950167	0,5	-0,292500
17,958500	0,5	-0,263650
17,966833	0,5	-0,244750
17,975167	0,5	-0,247300
17,983500	0,5	-0,286650
17,991833	0,5	-0,332200
18,000167	0,5	-0,387950
18,008500	0,5	-0,419300
18,016833	0,5	-0,458150
18,025167	0,5	-0,487300
18,033500	0,5	-0,507900
18,041833	0,5	-0,533350
18,050167	0,5	-0,555800
18,058500	0,5	-0,575850
18,066833	0,5	-0,582450
18,075167	0,5	-0,604650
18,083500	0,5	-0,614800
18,091833	0,5	-0,618200
18,100167	0,5	-0,630600
18,108500	0,5	-0,614300
18,116833	0,5	-0,576500
18,125167	0,5	-0,547650
18,133500	0,5	-0,512100
18,141833	0,5	-0,506700
18,150167	0,5	-0,494650
18,158500	0,5	-0,490250
18,166833	0,5	-0,503300
18,175167	0,5	-0,546650
18,183500	0,5	-0,587450
18,191833	0,5	-0,637500
18,200167	0,5	-0,670900
18,208500	0,5	-0,686200
18,216833	0,5	-0,724250
18,225167	0,5	-0,748900
18,233500	0,5	-0,765600
18,241833	0,5	-0,770200
18,250167	0,5	-0,799500
18,258500	0,5	-0,797200
18,266833	0,5	-0,801600
18,275167	0,5	-0,796750
18,283500	0,5	-0,803100
18,291833	0,5	-0,804100
18,300167	0,5	-0,782000
18,308500	0,5	-0,753950
18,316833	0,5	-0,740150
18,325167	0,5	-0,732200
18,333500	0,5	-0,740550
18,341833	0,5	-0,755850
18,350167	0,5	-0,789750
18,358500	0,5	-0,813300
18,366833	0,5	-0,842100
18,375167	0,5	-0,867050
18,383500	0,5	-0,876750
18,391833	0,5	-0,891350
18,400167	0,5	-0,915850
18,408500	0,5	-0,921500
18,416833	0,5	-0,930300
18,425167	0,5	-0,950600
18,433500	0,5	-0,969900
18,441833	0,5	-0,990500
18,450167	0,5	-0,974650
18,458500	0,5	-0,969000
18,466833	0,5	-0,949700
18,475167	0,5	-0,936850
18,483500	0,5	-0,924400
18,491833	0,5	-0,925050
18,500167	0,5	-0,926200
18,508500	0,5	-0,941050
18,516833	0,5	-0,958250
18,525167	0,5	-0,985950
18,533500	0,5	-0,999100
18,541833	0,5	-1,036350
18,550167	0,5	-1,046250
18,558500	0,5	-1,052450
18,566833	0,5	-1,059650
18,575167	0,5	-1,071500
18,583500	0,5	-1,106900
18,591833	0,5	-1,110950
18,600167	0,5	-1,116200
18,608500	0,5	-1,099300
18,616833	0,5	-1,094050
18,625167	0,5	-1,072300
18,633500	0,5	-1,056650
18,641833	0,5	-1,023200
18,650167	0,5	-1,021800
18,658500	0,5	-1,014550
18,666833	0,5	-1,038100
18,675167	0,5	-1,038850
18,683500	0,5	-1,045100
18,691833	0,5	-1,056150
18,700167	0,5	-1,042600
18,708500	0,5	-1,030900
18,716833	0,5	-1,031800
18,725167	0,5	-1,046400
18,733500	0,5	-1,047500
18,741833	0,5	-1,026300
18,750167	0,5	-0,990700
18,758500	0,5	-0,961550
18,766833	0,5	-0,921550
18,775167	0,5	-0,896200
18,783500	0,5	-0,879750
18,791833	0,5	-0,880350
18,800167	0,5	-0,877500
18,808500	0,5	-0,887700
18,816833	0,5	-0,901850
18,825167	0,5	-0,913450
18,833500	0,5	-0,945700
18,841833	0,5	-0,946650
18,850167	0,5	-0,934750
18,858500	0,5	-0,940000
18,866833	0,5	-0,932950
18,875167	0,5	-0,949000
18,883500	0,5	-0,938950
18,891833	0,5	-0,915850
18,900167	0,5	-0,913800
18,908500	0,5	-0,923900
18,916833	0,5	-0,940100
18,925167	0,5	-0,952200
18,933500	0,5	-0,997500
18,941833	0,5	-1,015300
18,950167	0,5	-1,044500
18,958500	0,5	-1,068700
18,966833	0,5	-1,074250
18,975167	0,5	-1,079650
18,983500	0,5	-1,113500
18,991833	0,5	-1,101700
19,000167	0,5	-1,110100
19,008500	0,5	-1,111050
19,016833	0,5	-1,114900
19,025167	0,5	-1,145150
19,033500	0,5	-1,151400
19,041833	0,5	-1,164300
19,050167	0,5	-1,167400
19,058500	0,5	-1,178800
19,066833	0,5	-1,190150
19,075167	0,5	-1,203350
19,083500	0,5	-1,216450
19,091833	0,5	-1,232500
19,100167	0,5	-1,233300
19,108500	0,5	-1,253100
19,116833	0,5	-1,256450
19,125167	0,5	-1,256900
19,133500	0,5	-1,284600
19,141833	0,5	-1,283300
19,150167	0,5	-1,297000
19,158500	0,5	-1,324400
19,166833	0,5	-1,348900
19,175167	0,5	-1,379400
19,183500	0,5	-1,384300
19,191833	0,5	-1,392350
19,200167	0,5	-1,398950
19,208500	0,5	-1,399750
19,216833	0,5	-1,402700
19,225167	0,5	-1,414850
19,233500	0,5	-1,421400
19,241833	0,5	-1,444800
19,250167	0,5	-1,457350
19,258500	0,5	-1,465600
19,266833	0,5	-1,474150
19,275167	0,5	-1,481800
19,283500	0,5	-1,491000
19,291833	0,5	-1,492550
19,300167	0,5	-1,492700
19,308500	0,5	-1,510950
19,316833	0,5	-1,546000
19,325167	0,5	-1,556150
19,333500	0,5	-1,558350
19,341833	0,5	-1,577600
19,350167	0,5	-1,582650
19,358500	0,5	-1,580150
19,366833	0,5	-1,583850
19,375167	0,5	-1,600350
19,383500	0,5	-1,591900
19,391833	0,5	-1,603050
19,400167	0,5	-1,601000
19,408500	0,5	-1,602250
19,416833	0,5	-1,595450
19,425167	0,5	-1,617900
19,433500	0,5	-1,618800
19,441833	0,5	-1,635550
19,450167	0,5	-1,644150
19,458500	0,5	-1,667400
19,466833	0,5	-1,693250
19,475167	0,5	-1,697150
19,483500	0,5	-1,693650
19,491833	0,5	-1,713000
19,500167	0,5	-1,721400
19,508500	0,5	-1,731950
19,516833	0,5	-1,752500
19,525167	0,5	-1,755150
19,533500	0,5	-1,770850
19,541833	0,5	-1,773800
19,550167	0,5	-1,787400
19,558500	0,5	-1,775400
19,566833	0,5	-1,797550
19,575167	0,5	-1,810350
19,583500	0,5	-1,809800
19,591833	0,5	-1,820100
19,600167	0,5	-1,825500
19,608500	0,5	-1,845800
19,616833	0,5	-1,869700
19,625167	0,5	-1,866300
19,633500	0,5	-1,872900
19,641833	0,5	-1,866500
19,650167	0,5	-1,874850
19,658500	0,5	-1,878850
19,666833	0,5	-1,880900
19,675167	0,5	-1,885350
19,683500	0,5	-1,888750
19,691833	0,5	-1,912500
19,700167	0,5	-1,903900
19,708500	0,5	-1,917250
19,716833	0,5	-1,938050
19,725167	0,5	-1,954150
19,733500	0,5	-1,958650
19,741833	0,5	-1,981400
19,750167	0,5	-2,011250
19,758500	0,5	-2,052450
19,766833	0,5	-2,066250
19,775167	0,5	-2,079400
19,783500	0,5	-2,081000
19,791833	0,5	-2,102850
19,800167	0,5	-2,111700
19,808500	0,5	-2,127650
19,816833	0,5	-2,137850
19,825167	0,5	-2,145000
19,833500	0,5	-2,156650
19,841833	0,5	-2,162400
19,850167	0,5	-2,166700
19,858500	0,5	-2,176850
19,866833	0,5	-2,198750
19,875167	0,5	-2,195050
19,883500	0,5	-2,204950
19,891833	0,5	-2,218800
19,900167	0,5	-2,252050
19,908500	0,5	-2,265000
19,916833	0,5	-2,272500
19,925167	0,5	-2,264650
19,933500	0,5	-2,275100
19,941833	0,5	-2,271650
19,950167	0,5	-2,291600
19,958500	0,5	-2,296050
19,966833	0,5	-2,303400
19,975167	0,5	-2,304050
19,983500	0,5	-2,318950
19,991833	0,5	-2,344100
20,000167	0,5	-2,348750
20,008500	0,5	-2,381900
20,016833	0,5	-2,389850
20,025167	0,5	-2,403450
20,033500	0,5	-2,418600
20,041833	0,5	-2,447500
20,050167	0,5	-2,494700
20,058500	0,5	-2,505900
20,066833	0,5	-2,503250
20,075167	0,5	-2,526900
20,083500	0,5	-2,531300
20,091833	0,5	-2,550400
20,100167	0,5	-2,559750
20,108500	0,5	-2,577300
20,116833	0,5	-2,581300
20,125167	0,5	-2,596700
20,133500	0,5	-2,613550
20,141833	0,5	-2,611000
20,150167	0,5	-2,613450
20,158500	0,5	-2,640750
20,166833	0,5	-2,622750
20,175167	0,5	-2,622100
20,183500	0,5	-2,631950
20,191833	0,5	-2,645450
20,200167	0,5	-2,685750
20,208500	0,5	-2,669650
20,216833	0,5	-2,681800
20,225167	0,5	-2,685450
20,233500	0,5	-2,711900
20,241833	0,5	-2,719100
20,250167	0,5	-2,735900
20,258500	0,5	-2,760500
20,266833	0,5	-2,768150
20,275167	0,5	-2,789850
20,283500	0,5	-2,801500
20,291833	0,5	-2,806600
20,300167	0,5	-2,813150
20,308500	0,5	-2,842400
20,316833	0,5	-2,852700
20,325167	0,5	-2,873200
20,333500	0,5	-2,902800
20,341833	0,5	-2,945000
20,350167	0,5	-2,975800
20,358500	0,5	-3,004700
20,366833	0,5	-3,010650
20,375167	0,5	-3,044750
20,383500	0,5	-3,054100
20,391833	0,5	-3,084750
20,400167	0,5	-3,100750
20,408500	0,5	-3,116500
20,416833	0,5	-3,134900
20,425167	0,5	-3,161150
20,433500	0,5	-3,171950
20,441833	0,5	-3,175100
20,450167	0,5	-3,193300
20,458500	0,5	-3,210550
20,466833	0,5	-3,228850
20,475167	0,5	-3,256150
20,483500	0,5	-3,299600
20,491833	0,5	-3,332750
20,500167	0,5	-3,347350
20,508500	0,5	-3,329750
20,516833	0,5	-3,331700
20,525167	0,5	-3,315750
20,533500	0,5	-3,302500
20,541833	0,5	-3,302950
20,550167	0,5	-3,332850
20,558500	0,5	-3,369400
20,566833	0,5	-3,427550
20,575167	0,5	-3,473450
20,583500	0,5	-3,493050
20,591833	0,5	-3,529750
20,600167	0,5	-3,577500
20,608500	0,5	-3,603500
20,616833	0,5	-3,644350
20,625167	0,5	-3,683800
20,633500	0,5	-3,736300
20,641833	0,5	-3,798200
20,650167	0,5	-3,822200
20,658500	0,5	-3,851150
20,666833	0,5	-3,888150
20,675167	0,5	-3,900800
20,683500	0,5	-3,890300
20,691833	0,5	-3,880350
20,700167	0,5	-3,849200
20,708500	0,5	-3,825950
20,716833	0,5	-3,817650
20,725167	0,5	-3,820850
20,733500	0,5	-3,836750
20,741833	0,5	-3,899800
20,750167	0,5	-3,974850
20,758500	0,5	-4,055300
20,766833	0,5	-4,139400
20,775167	0,5	-4,215350
20,783500	0,5	-4,305450
20,791833	0,5	-4,363350
20,800167	0,5	-4,420150
20,808500	0,5	-4,466700
20,816833	0,5	-4,512250
20,825167	0,5	-4,546700
20,833500	0,5	-4,602250
20,841833	0,5	-4,636200
20,850167	0,5	-4,681700
20,858500	0,5	-4,713100
20,866833	0,5	-4,760150
20,875167	0,5	-4,759000
20,883500	0,5	-4,769850
20,891833	0,5	-4,803100
20,900167	0,5	-4,850750
20,908500	0,5	-4,891400
20,916833	0,5	-4,961850
20,925167	0,5	-5,035150
20,933500	0,5	-5,085250
20,941833	0,5	-5,133000
20,950167	0,5	-5,166550
20,958500	0,5	-5,214500
20,966833	0,5	-5,254000
20,975167	0,5	-5,302200
20,983500	0,5	-5,328600
20,991833	0,5	-5,356200
21,000167	0,5	-5,382050
21,008500	0,5	-5,417050
21,016833	0,5	-5,435400
21,025167	0,5	-5,428750
21,033500	0,5	-5,445800
21,041833	0,5	-5,475550
21,050167	0,5	-5,514600
21,058500	0,5	-5,560700
21,066833	0,5	-5,602550
21,075167	0,5	-5,686400
21,083500	0,5	-5,721750
21,091833	0,5	-5,745000
21,100167	0,5	-5,783550
21,108500	0,5	-5,821300
21,116833	0,5	-5,863750
21,125167	0,5	-5,884800
21,133500	0,5	-5,922950
21,141833	0,5	-5,947450
21,150167	0,5	-5,978550
21,158500	0,5	-6,001850
21,166833	0,5	-5,999400
21,175167	0,5	-6,007500
21,183500	0,5	-6,042100
21,191833	0,5	-6,057000
21,200167	0,5	-6,083600
21,208500	0,5	-6,122550
21,216833	0,5	-6,154600
21,225167	0,5	-6,203000
21,233500	0,5	-6,208950
21,241833	0,5	-6,236650
21,250167	0,5	-6,245250
21,258500	0,5	-6,264200
21,266833	0,5	-6,264900
21,275167	0,5	-6,288350
21,283500	0,5	-6,290900
21,291833	0,5	-6,303100
21,300167	0,5	-6,320250
21,308500	0,5	-6,346100
21,316833	0,5	-6,338700
21,325167	0,5	-6,347000
21,333500	0,5	-6,381300
21,341833	0,5	-6,404450
21,350167	0,5	-6,433850
21,358500	0,5	-6,468100
21,366833	0,5	-6,515350
21,375167	0,5	-6,535300
21,383500	0,5	-6,562400
21,391833	0,5	-6,564250
21,400167	0,5	-6,585900
21,408500	0,5	-6,605450
21,416833	0,5	-6,611650
21,425167	0,5	-6,636950
21,433500	0,5	-6,650400
21,441833	0,5	-6,662200
21,450167	0,5	-6,683600
21,458500	0,5	-6,680950
21,466833	0,5	-6,680550
21,475167	0,5	-6,700700
21,483500	0,5	-6,721850
21,491833	0,5	-6,745350
21,500167	0,5	-6,767550
21,508500	0,5	-6,802000
21,516833	0,5	-6,845350
21,525167	0,5	-6,863550
21,533500	0,5	-6,862100
21,541833	0,5	-6,887600
21,550167	0,5	-6,893900
21,558500	0,5	-6,907800
21,566833	0,5	-6,922800
21,575167	0,5	-6,945000
21,583500	0,5	-6,951750
21,591833	0,5	-6,966550
21,600167	0,5	-6,972250
21,608500	0,5	-6,935750
21,616833	0,5	-6,929250
21,625167	0,5	-6,930050
21,633500	0,5	-6,931850
21,641833	0,5	-6,942700
21,650167	0,5	-6,937750
21,658500	0,5	-6,940050
21,666833	0,5	-6,956400
21,675167	0,5	-6,950950
21,683500	0,5	-6,982100
21,691833	0,5	-7,004900
21,700167	0,5	-7,025650
21,708500	0,5	-7,028900
21,716833	0,5	-7,043500
21,725167	0,5	-7,039700
21,733500	0,5	-7,052250
21,741833	0,5	-7,064950
21,750167	0,5	-7,065200
21,758500	0,5	-7,067200
21,766833	0,5	-7,097950
21,775167	0,5	-7,119650
21,783500	0,5	-7,131900
21,791833	0,5	-7,171950
21,800167	0,5	-7,200550
21,808500	0,5	-7,235100
21,816833	0,5	-7,235850
21,825167	0,5	-7,250200
21,833500	0,5	-7,256650
21,841833	0,5	-7,266750
21,850167	0,5	-7,276850
21,858500	0,5	-7,280700
21,866833	0,5	-7,293200
21,875167	0,5	-7,306700
21,883500	0,5	-7,328450
21,891833	0,5	-7,339350
21,900167	0,5	-7,309750
21,908500	0,5	-7,303350
21,916833	0,5	-7,262100
21,925167	0,5	-7,200850
21,933500	0,5	-7,156850
21,941833	0,5	-7,149100
21,950167	0,5	-7,198950
21,958500	0,5	-7,240800
21,966833	0,5	-7,302900
21,975167	0,5	-7,344200
21,983500	0,5	-7,394800
21,991833	0,5	-7,436450
22,000167	0,5	-7,478200
22,008500	0,5	-7,517000
22,016833	0,5	-7,546600
22,025167	0,5	-7,576150
22,033500	0,5	-7,612700
22,041833	0,5	-7,630500
22,050167	0,5	-7,659600
22,058500	0,5	-7,701100
22,066833	0,5	-7,711550
22,075167	0,5	-7,727750
22,083500	0,5	-7,751850
22,091833	0,5	-7,794650
22,100167	0,5	-7,827600
22,108500	0,5	-7,836050
22,116833	0,5	-7,844550
22,125167	0,5	-7,870200
22,133500	0,5	-7,877900
22,141833	0,5	-7,889450
22,150167	0,5	-7,907100
22,158500	0,5	-7,926750
22,166833	0,5	-7,934600
22,175167	0,5	-7,952900
22,183500	0,5	-7,958200
22,191833	0,5	-7,970050
22,200167	0,5	-8,004850
22,208500	0,5	-8,002050
22,216833	0,5	-7,994850
22,225167	0,5	-7,996100
22,233500	0,5	-8,014550
22,241833	0,5	-8,024100
22,250167	0,5	-8,043100
22,258500	0,5	-8,012350
22,266833	0,5	-8,019350
22,275167	0,5	-8,005250
22,283500	0,5	-8,006400
22,291833	0,5	-7,997500
22,300167	0,5	-7,994600
22,308500	0,5	-7,980500
22,316833	0,5	-7,967400
22,325167	0,5	-7,960100
22,333500	0,5	-7,956350
22,341833	0,5	-7,922500
22,350167	0,5	-7,872750
22,358500	0,5	-7,753500
22,366833	0,5	-7,652300
22,375167	0,5	-7,584450
22,383500	0,5	-7,582700
22,391833	0,5	-7,662100
22,400167	0,5	-7,706650
22,408500	0,5	-7,769750
22,416833	0,5	-7,805100
22,425167	0,5	-7,850600
22,433500	0,5	-7,875700
22,441833	0,5	-7,901900
22,450167	0,5	-7,912850
22,458500	0,5	-7,925150
22,466833	0,5	-7,939850
22,475167	0,5	-7,942400
22,483500	0,5	-7,994950
22,491833	0,5	-7,982200
22,500167	0,5	-7,971550
22,508500	0,5	-7,947050
22,516833	0,5	-7,933650
22,525167	0,5	-7,921300
22,533500	0,5	-7,922350
22,541833	0,5	-7,911650
22,550167	0,5	-7,886350
22,558500	0,5	-7,850050
22,566833	0,5	-7,834900
22,575167	0,5	-7,810950
22,583500	0,5	-7,803800
22,591833	0,5	-7,802800
22,600167	0,5	-7,805300
22,608500	0,5	-7,796450
22,616833	0,5	-7,805950
22,625167	0,5	-7,835850
22,633500	0,5	-7,851150
22,641833	0,5	-7,841900
22,650167	0,5	-7,820000
22,658500	0,5	-7,828950
22,666833	0,5	-7,833250
22,675167	0,5	-7,854900
22,683500	0,5	-7,881250
22,691833	0,5	-7,903200
22,700167	0,5	-7,900900
22,708500	0,5	-7,922050
22,716833	0,5	-7,926650
22,725167	0,5	-7,944600
22,733500	0,5	-7,947050
22,741833	0,5	-7,971800
22,750167	0,5	-7,977800
22,758500	0,5	-7,985400
22,766833	0,5	-8,006850
22,775167	0,5	-8,092950
22,783500	0,5	-8,099200
22,791833	0,5	-8,097300
22,800167	0,5	-8,096700
22,808500	0,5	-8,111700
22,816833	0,5	-8,140100
22,825167	0,5	-8,165950
22,833500	0,5	-8,196100
22,841833	0,5	-8,215000
22,850167	0,5	-8,237450
22,858500	0,5	-8,254350
22,866833	0,5	-8,270900
22,875167	0,5	-8,289900
22,883500	0,5	-8,283750
22,891833	0,5	-8,296100
22,900167	0,5	-8,298400
22,908500	0,5	-8,296200
22,916833	0,5	-8,279200
22,925167	0,5	-8,305500
22,933500	0,5	-8,289550
22,941833	0,5	-8,279700
22,950167	0,5	-8,296350
22,958500	0,5	-8,279300
22,966833	0,5	-8,254050
22,975167	0,5	-8,240150
22,983500	0,5	-8,235900
22,991833	0,5	-8,217600
23,000167	0,5	-8,201500
23,008500	0,5	-8,161850
23,016833	0,5	-8,125000
23,025167	0,5	-8,066900
23,033500	0,5	-8,017200
23,041833	0,5	-7,957900
23,050167	0,5	-7,902850
23,058500	0,5	-7,840850
23,066833	0,5	-7,727250
23,075167	0,5	-7,677200
23,083500	0,5	-7,610000
23,091833	0,5	-7,586450
23,100167	0,5	-7,534000
23,108500	0,5	-7,459450
23,116833	0,5	-7,378950
23,125167	0,5	-7,311800
23,133500	0,5	-7,249650
23,141833	0,5	-7,183300
23,150167	0,5	-7,094800
23,158500	0,5	-7,030450
23,166833	0,5	-6,937500
23,175167	0,5	-6,855200
23,183500	0,5	-6,756750
23,191833	0,5	-6,680500
23,200167	0,5	-6,571600
23,208500	0,5	-6,460050
23,216833	0,5	-6,388350
23,225167	0,5	-6,272700
23,233500	0,5	-6,174250
23,241833	0,5	-6,134800
23,250167	0,5	-6,060150
23,258500	0,5	-5,976550
23,266833	0,5	-5,880400
23,275167	0,5	-5,808950
23,283500	0,5	-5,755800
23,291833	0,5	-5,665650
23,300167	0,5	-5,598400
23,308500	0,5	-5,512900
23,316833	0,5	-5,434050
23,325167	0,5	-5,348600
23,333500	0,5	-5,276150
23,341833	0,5	-5,185200
23,350167	0,5	-5,099600
23,358500	0,5	-5,018700
23,366833	0,5	-4,957400
23,375167	0,5	-4,856700
23,383500	0,5	-4,760150
23,391833	0,5	-4,711450
23,400167	0,5	-4,649250
23,408500	0,5	-4,581550
23,416833	0,5	-4,510350
23,425167	0,5	-4,471150
23,433500	0,5	-4,417450
23,441833	0,5	-4,359950
23,450167	0,5	-4,302400
23,458500	0,5	-4,258000
23,466833	0,5	-4,197250
23,475167	0,5	-4,151700
23,483500	0,5	-4,097200
23,491833	0,5	-4,042600
23,500167	0,5	-3,979450
23,508500	0,5	-4,044000
23,516833	0,5	-3,964200
23,525167	0,5	-3,862750
23,533500	0,5	-3,805400
23,541833	0,5	-3,756550
23,550167	0,5	-3,717800
23,558500	0,5	-3,669750
23,566833	0,5	-3,632750
23,575167	0,5	-3,598900
23,583500	0,5	-3,568550
23,591833	0,5	-3,539800
23,600167	0,5	-3,505950
23,608500	0,5	-3,479400
23,616833	0,5	-3,445950
23,625167	0,5	-3,412050
23,633500	0,5	-3,383300
23,641833	0,5	-3,347950
23,650167	0,5	-3,345500
23,658500	0,5	-3,449100
23,666833	0,5	-3,371400
23,675167	0,5	-3,305450
23,683500	0,5	-3,247150
23,691833	0,5	-3,225950
23,700167	0,5	-3,201700
23,708500	0,5	-3,182550
23,716833	0,5	-3,167400
23,725167	0,5	-3,143350
23,733500	0,5	-3,114700
23,741833	0,5	-3,095550
23,750167	0,5	-3,069050
23,758500	0,5	-3,042850
23,766833	0,5	-3,015150
23,775167	0,5	-2,989850
23,783500	0,5	-2,956450
23,791833	0,5	-2,931800
23,800167	0,5	-3,073800
23,808500	0,5	-3,052300
23,816833	0,5	-2,992250
23,825167	0,5	-2,913250
23,833500	0,5	-2,864700
23,841833	0,5	-2,836850
23,850167	0,5	-2,819600
23,858500	0,5	-2,806600
23,866833	0,5	-2,790400
23,875167	0,5	-2,759100
23,883500	0,5	-2,747150
23,891833	0,5	-2,719500
23,900167	0,5	-2,702000
23,908500	0,5	-2,677600
23,916833	0,5	-2,654350
23,925167	0,5	-2,628500
23,933500	0,5	-2,601000
23,941833	0,5	-2,591650
23,950167	0,5	-2,738200
23,958500	0,5	-2,709800
23,966833	0,5	-2,635600
23,975167	0,5	-2,562050
23,983500	0,5	-2,516850
23,991833	0,5	-2,487850
24,000167	0,5	-2,476900
24,008500	0,5	-2,461300
24,016833	0,5	-2,417850
24,025167	0,5	-2,392350
24,033500	0,5	-2,361850
24,041833	0,5	-2,337900
24,050167	0,5	-2,301000
24,058500	0,5	-2,282450
24,066833	0,5	-2,249300
24,075167	0,5	-2,223250
24,083500	0,5	-2,199750
24,091833	0,5	-2,252250
24,100167	0,5	-2,324400
24,108500	0,5	-2,299100
24,116833	0,5	-2,221750
24,125167	0,5	-2,166650
24,133500	0,5	-2,133100
24,141833	0,5	-2,104300
24,150167	0,5	-2,096750
24,158500	0,5	-2,074850
24,166833	0,5	-2,047750
24,175167	0,5	-2,018350
24,183500	0,5	-1,995650
24,191833	0,5	-1,962800
24,200167	0,5	-1,940700
24,208500	0,5	-1,906600
24,216833	0,5	-1,877850
24,225167	0,5	-1,844350
24,233500	0,5	-1,823450
24,241833	0,5	-1,924500
24,250167	0,5	-1,900700
24,258500	0,5	-1,869750
24,266833	0,5	-1,805400
24,275167	0,5	-1,763450
24,283500	0,5	-1,734150
24,291833	0,5	-1,717400
24,300167	0,5	-1,725000
24,308500	0,5	-1,697500
24,316833	0,5	-1,664150
24,325167	0,5	-1,651550
24,333500	0,5	-1,625800
24,341833	0,5	-1,603350
24,350167	0,5	-1,582050
24,358500	0,5	-1,564250
24,366833	0,5	-1,536100
24,375167	0,5	-1,516250
24,383500	0,5	-1,515600
24,391833	0,5	-1,588600
24,400167	0,5	-1,555150
24,408500	0,5	-1,530200
24,416833	0,5	-1,479900
24,425167	0,5	-1,447000
24,433500	0,5	-1,420750
24,441833	0,5	-1,408200
24,450167	0,5	-1,402250
24,458500	0,5	-1,372700
24,466833	0,5	-1,350400
24,475167	0,5	-1,331900
24,483500	0,5	-1,315500
24,491833	0,5	-1,295600
24,500167	0,5	-1,280750
24,508500	0,5	-1,259450
24,516833	0,5	-1,239850
24,525167	0,5	-1,218950
24,533500	0,5	-1,260950
24,541833	0,5	-1,268150
24,550167	0,5	-1,254800
24,558500	0,5	-1,222750
24,566833	0,5	-1,191550
24,575167	0,5	-1,170300
24,583500	0,5	-1,153450
24,591833	0,5	-1,159350
24,600167	0,5	-1,153050
24,608500	0,5	-1,135750
24,616833	0,5	-1,122450
24,625167	0,5	-1,102950
24,633500	0,5	-1,090100
24,641833	0,5	-1,072200
24,650167	0,5	-1,055550
24,658500	0,5	-1,041850
24,666833	0,5	-1,021800
24,675167	0,5	-1,010550
24,683500	0,5	-1,049200
24,691833	0,5	-1,033550
24,700167	0,5	-1,012400
24,708500	0,5	-0,989750
24,716833	0,5	-0,965850
24,725167	0,5	-0,953400
24,733500	0,5	-0,941800
24,741833	0,5	-0,946100
24,750167	0,5	-0,936800
24,758500	0,5	-0,925850
24,766833	0,5	-0,916450
24,775167	0,5	-0,905950
24,783500	0,5	-0,899250
24,791833	0,5	-0,892000
24,800167	0,5	-0,884250
24,808500	0,5	-0,876150
24,816833	0,5	-0,870600
24,825167	0,5	-0,861700
24,833500	0,5	-0,888850
24,841833	0,5	-0,871900
24,850167	0,5	-0,856000
24,858500	0,5	-0,835050
24,866833	0,5	-0,817200
24,875167	0,5	-0,804350
24,883500	0,5	-0,808500
24,891833	0,5	-0,800700
24,900167	0,5	-0,788450
24,908500	0,5	-0,778250
24,916833	0,5	-0,775550
24,925167	0,5	-0,763400
24,933500	0,5	-0,761250
24,941833	0,5	-0,751750
24,950167	0,5	-0,745250
24,958500	0,5	-0,739700
24,966833	0,5	-0,734100
24,975167	0,5	-0,746950
24,983500	0,5	-0,746500
24,991833	0,5	-0,743050
25,000167	0,5	-0,732100
25,008500	0,5	-0,725350
25,016833	0,5	-0,722500
25,025167	0,5	-0,718450
25,033500	0,5	-0,716700
25,041833	0,5	-0,711250
25,050167	0,5	-0,704700
25,058500	0,5	-0,694600
25,066833	0,5	-0,690700
25,075167	0,5	-0,683950
25,083500	0,5	-0,679250
25,091833	0,5	-0,674900
25,100167	0,5	-0,664850
25,108500	0,5	-0,656650
25,116833	0,5	-0,652350
25,125167	0,5	-0,658550
25,133500	0,5	-0,654100
25,141833	0,5	-0,647150
25,150167	0,5	-0,644750
25,158500	0,5	-0,646400
25,166833	0,5	-0,642550
25,175167	0,5	-0,641400
25,183500	0,5	-0,643600
25,191833	0,5	-0,642050
25,200167	0,5	-0,640900
25,208500	0,5	-0,640900
25,216833	0,5	-0,641350
25,225167	0,5	-0,637050
25,233500	0,5	-0,637800
25,241833	0,5	-0,633650
25,250167	0,5	-0,624600
25,258500	0,5	-0,616000
25,266833	0,5	-0,615300
25,275167	0,5	-0,613200
25,283500	0,5	-0,602600
25,291833	0,5	-0,597650
25,300167	0,5	-0,596700
25,308500	0,5	-0,594850
25,316833	0,5	-0,594400
25,325167	0,5	-0,592550
25,333500	0,5	-0,588550
25,341833	0,5	-0,589900
25,350167	0,5	-0,590650
25,358500	0,5	-0,589900
25,366833	0,5	-0,591150
25,375167	0,5	-0,591350
25,383500	0,5	-0,592700
25,391833	0,5	-0,593650
25,400167	0,5	-0,594100
25,408500	0,5	-0,589600
25,416833	0,5	-0,586450
25,425167	0,5	-0,579400
25,433500	0,5	-0,575700
25,441833	0,5	-0,574550
25,450167	0,5	-0,579950
25,458500	0,5	-0,578150
25,466833	0,5	-0,572050
25,475167	0,5	-0,571700
25,483500	0,5	-0,568800
25,491833	0,5	-0,567650
25,500167	0,5	-0,561900
25,508500	0,5	-0,565650
25,516833	0,5	-0,566250
25,525167	0,5	-0,566150
25,533500	0,5	-0,565500
25,541833	0,5	-0,564000
25,550167	0,5	-0,568700
25,558500	0,5	-0,567550
25,566833	0,5	-0,554750
25,575167	0,5	-0,561400
25,583500	0,5	-0,553250
25,591833	0,5	-0,566700
25,600167	0,5	-0,564700
25,608500	0,5	-0,567200
25,616833	0,5	-0,563950
25,625167	0,5	-0,555750
25,633500	0,5	-0,560050
25,641833	0,5	-0,559850
25,650167	0,5	-0,559300
25,658500	0,5	-0,557050
25,666833	0,5	-0,560550
25,675167	0,5	-0,556200
25,683500	0,5	-0,558300
25,691833	0,5	-0,553250
25,700167	0,5	-0,553150
25,708500	0,5	-0,547600
25,716833	0,5	-0,530500
25,725167	0,5	-0,527550
25,733500	0,5	-0,531300
25,741833	0,5	-0,540050
25,750167	0,5	-0,542100
25,758500	0,5	-0,539900
25,766833	0,5	-0,542650
25,775167	0,5	-0,528750
25,783500	0,5	-0,530950
25,791833	0,5	-0,529800
25,800167	0,5	-0,535150
25,808500	0,5	-0,531050
25,816833	0,5	-0,530500
25,825167	0,5	-0,528700
25,833500	0,5	-0,524350
25,841833	0,5	-0,526700
25,850167	0,5	-0,522250
25,858500	0,5	-0,516100
25,866833	0,5	-0,504750
25,875167	0,5	-0,499750
25,883500	0,5	-0,502000
25,891833	0,5	-0,505950
25,900167	0,5	-0,501100
25,908500	0,5	-0,500650
25,916833	0,5	-0,483000
25,925167	0,5	-0,473400
25,933500	0,5	-0,471350
25,941833	0,5	-0,472700
25,950167	0,5	-0,468950
25,958500	0,5	-0,469400
25,966833	0,5	-0,469800
25,975167	0,5	-0,468200
25,983500	0,5	-0,463650
25,991833	0,5	-0,456900
26,000167	0,5	-0,452700
