File Path	chrom://chromeleon01/ikbm_chromeleon/2022/ICS-5000/ED1/Esteban/20220427_Cell_Amandas_mutants.seq/604.smp/ED_1.channel/ED_1.chm
Channel	ED_1

Injection Information:
Data Vault	ikbm_chromeleon
Injection	T24h_PASC_2a
Injection Number	34
Position	RD4
Comment	
Processing Method	Stop sequence after Cell Death
Instrument Method	ICS5000_PA200_FullNative_Ox_26min_ED1
Type	Unknown
Status	Finished
Injection Date	28.04.2022
Injection Time	04:40:34
Injection Volume (µl)	5,0
Dilution Factor	1,0000
Weight	1,0000

Chromatogram Data Information:
Time Min. (min)	0,000167
Time Max. (min)	26,000167
Data Points	3121
Detector	EDet1
Generating Data System	Chromeleon 7.2.9.11323
Exporting Data System	Chromeleon 7.2.9.0
Operator	Instrument Controller
Signal Quantity	
Signal Unit	nC
Signal Min.	-7,940350
Signal Max.	35,967101
Channel	ED_1
Driver Name	DC-5000
Channel Type	Evaluation
Min. Step (s)	0,5
Max. Step (s)	0,5
Average Step (s)	0,5

Signal Parameter Information:
Signal Info	

Chromatogram Data:
Time (min)	Step (s)	Value (nC)
0,000167	n.a.	-0,136500
0,008500	0,5	-0,136050
0,016833	0,5	-0,122200
0,025167	0,5	-0,105250
0,033500	0,5	-0,082700
0,041833	0,5	-0,079700
0,050167	0,5	-0,074850
0,058500	0,5	-0,061950
0,066833	0,5	-0,055700
0,075167	0,5	-0,073100
0,083500	0,5	-0,064100
0,091833	0,5	-0,051900
0,100167	0,5	-0,080950
0,108500	0,5	-0,070800
0,116833	0,5	-0,054700
0,125167	0,5	-0,018550
0,133500	0,5	0,004050
0,141833	0,5	-0,002600
0,150167	0,5	-0,027300
0,158500	0,5	-0,012250
0,166833	0,5	-0,021250
0,175167	0,5	-0,020150
0,183500	0,5	-0,026650
0,191833	0,5	-0,028450
0,200167	0,5	-0,040200
0,208500	0,5	-0,038400
0,216833	0,5	-0,029350
0,225167	0,5	-0,035550
0,233500	0,5	-0,024200
0,241833	0,5	-0,036100
0,250167	0,5	-0,053950
0,258500	0,5	-0,054900
0,266833	0,5	-0,041500
0,275167	0,5	-0,010900
0,283500	0,5	0,013900
0,291833	0,5	0,000050
0,300167	0,5	0,047000
0,308500	0,5	0,071450
0,316833	0,5	0,018450
0,325167	0,5	-0,031100
0,333500	0,5	-0,038600
0,341833	0,5	-0,048300
0,350167	0,5	-0,041450
0,358500	0,5	-0,039500
0,366833	0,5	-0,052150
0,375167	0,5	-0,059750
0,383500	0,5	-0,044600
0,391833	0,5	-0,064700
0,400167	0,5	-0,074800
0,408500	0,5	-0,077650
0,416833	0,5	-0,041100
0,425167	0,5	-0,002250
0,433500	0,5	-0,015800
0,441833	0,5	-0,029000
0,450167	0,5	-0,028000
0,458500	0,5	-0,026150
0,466833	0,5	-0,032700
0,475167	0,5	-0,028900
0,483500	0,5	-0,042300
0,491833	0,5	-0,044350
0,500167	0,5	-0,046600
0,508500	0,5	-0,050350
0,516833	0,5	-0,079450
0,525167	0,5	-0,053400
0,533500	0,5	-0,055800
0,541833	0,5	-0,062250
0,550167	0,5	-0,070650
0,558500	0,5	-0,053150
0,566833	0,5	-0,018100
0,575167	0,5	-0,005100
0,583500	0,5	-0,012550
0,591833	0,5	-0,020850
0,600167	0,5	-0,019250
0,608500	0,5	-0,019350
0,616833	0,5	-0,020950
0,625167	0,5	-0,021200
0,633500	0,5	-0,025500
0,641833	0,5	-0,037950
0,650167	0,5	-0,023550
0,658500	0,5	-0,037600
0,666833	0,5	-0,048150
0,675167	0,5	-0,022400
0,683500	0,5	-0,030400
0,691833	0,5	-0,043450
0,700167	0,5	-0,040200
0,708500	0,5	-0,041050
0,716833	0,5	0,022950
0,725167	0,5	0,012350
0,733500	0,5	0,011450
0,741833	0,5	-0,002250
0,750167	0,5	-0,000050
0,758500	0,5	-0,010800
0,766833	0,5	-0,007650
0,775167	0,5	-0,006450
0,783500	0,5	-0,010150
0,791833	0,5	-0,006800
0,800167	0,5	-0,008400
0,808500	0,5	-0,003500
0,816833	0,5	-0,011400
0,825167	0,5	0,028500
0,833500	0,5	-0,002550
0,841833	0,5	-0,009800
0,850167	0,5	-0,004950
0,858500	0,5	0,014500
0,866833	0,5	0,052400
0,875167	0,5	0,035650
0,883500	0,5	0,025450
0,891833	0,5	0,036150
0,900167	0,5	0,025650
0,908500	0,5	0,038250
0,916833	0,5	0,034200
0,925167	0,5	0,040400
0,933500	0,5	0,035150
0,941833	0,5	0,036800
0,950167	0,5	0,045400
0,958500	0,5	0,028400
0,966833	0,5	0,032100
0,975167	0,5	0,062550
0,983500	0,5	0,039100
0,991833	0,5	0,035250
1,000167	0,5	0,044000
1,008500	0,5	0,060100
1,016833	0,5	0,113050
1,025167	0,5	0,086800
1,033500	0,5	0,088300
1,041833	0,5	0,082650
1,050167	0,5	0,090200
1,058500	0,5	0,082000
1,066833	0,5	0,096900
1,075167	0,5	0,091200
1,083500	0,5	0,088200
1,091833	0,5	0,098500
1,100167	0,5	0,095700
1,108500	0,5	0,077050
1,116833	0,5	0,104750
1,125167	0,5	0,104900
1,133500	0,5	0,094150
1,141833	0,5	0,097350
1,150167	0,5	0,110550
1,158500	0,5	0,143900
1,166833	0,5	0,160800
1,175167	0,5	0,161250
1,183500	0,5	0,152650
1,191833	0,5	0,164600
1,200167	0,5	0,153900
1,208500	0,5	0,160500
1,216833	0,5	0,173800
1,225167	0,5	0,176050
1,233500	0,5	0,170600
1,241833	0,5	0,173600
1,250167	0,5	0,172100
1,258500	0,5	0,173050
1,266833	0,5	0,195200
1,275167	0,5	0,193100
1,283500	0,5	0,180300
1,291833	0,5	0,182050
1,300167	0,5	0,203600
1,308500	0,5	0,252700
1,316833	0,5	0,282950
1,325167	0,5	0,269150
1,333500	0,5	0,272200
1,341833	0,5	0,270000
1,350167	0,5	0,270200
1,358500	0,5	0,272950
1,366833	0,5	0,280700
1,375167	0,5	0,275050
1,383500	0,5	0,290500
1,391833	0,5	0,292050
1,400167	0,5	0,303500
1,408500	0,5	0,309250
1,416833	0,5	0,344950
1,425167	0,5	0,315500
1,433500	0,5	0,313400
1,441833	0,5	0,314800
1,450167	0,5	0,347850
1,458500	0,5	0,381250
1,466833	0,5	0,388300
1,475167	0,5	0,385950
1,483500	0,5	0,391750
1,491833	0,5	0,389700
1,500167	0,5	0,399950
1,508500	0,5	0,412750
1,516833	0,5	0,422800
1,525167	0,5	0,421700
1,533500	0,5	0,419600
1,541833	0,5	0,422150
1,550167	0,5	0,412250
1,558500	0,5	0,447450
1,566833	0,5	0,427700
1,575167	0,5	0,286550
1,583500	0,5	-0,276650
1,591833	0,5	-1,370900
1,600167	0,5	-1,845350
1,608500	0,5	-0,563600
1,616833	0,5	1,553950
1,625167	0,5	3,438350
1,633500	0,5	5,350500
1,641833	0,5	7,327200
1,650167	0,5	8,720800
1,658500	0,5	9,141750
1,666833	0,5	8,815150
1,675167	0,5	8,160100
1,683500	0,5	7,441300
1,691833	0,5	6,762100
1,700167	0,5	6,254350
1,708500	0,5	6,137400
1,716833	0,5	6,695600
1,725167	0,5	8,193300
1,733500	0,5	9,649200
1,741833	0,5	9,619600
1,750167	0,5	8,254200
1,758500	0,5	6,620550
1,766833	0,5	5,478950
1,775167	0,5	4,950450
1,783500	0,5	5,298150
1,791833	0,5	6,908450
1,800167	0,5	9,663000
1,808500	0,5	12,214500
1,816833	0,5	13,508100
1,825167	0,5	13,423400
1,833500	0,5	12,107650
1,841833	0,5	10,264200
1,850167	0,5	8,606850
1,858500	0,5	7,395450
1,866833	0,5	6,481600
1,875167	0,5	5,821500
1,883500	0,5	5,336900
1,891833	0,5	4,944600
1,900167	0,5	4,624800
1,908500	0,5	4,329300
1,916833	0,5	4,070400
1,925167	0,5	3,884350
1,933500	0,5	3,733700
1,941833	0,5	3,652550
1,950167	0,5	3,619650
1,958500	0,5	3,611400
1,966833	0,5	3,560750
1,975167	0,5	3,528500
1,983500	0,5	3,525550
1,991833	0,5	3,531550
2,000167	0,5	3,570200
2,008500	0,5	3,648500
2,016833	0,5	3,700950
2,025167	0,5	3,835850
2,033500	0,5	4,166550
2,041833	0,5	4,812450
2,050167	0,5	5,591100
2,058500	0,5	6,231050
2,066833	0,5	6,842600
2,075167	0,5	7,434300
2,083500	0,5	7,833000
2,091833	0,5	7,983900
2,100167	0,5	8,019950
2,108500	0,5	8,031200
2,116833	0,5	8,094150
2,125167	0,5	8,277800
2,133500	0,5	8,630700
2,141833	0,5	9,159150
2,150167	0,5	10,123850
2,158500	0,5	11,588300
2,166833	0,5	12,954400
2,175167	0,5	13,143150
2,183500	0,5	12,176450
2,191833	0,5	10,930100
2,200167	0,5	9,928600
2,208500	0,5	9,223350
2,216833	0,5	8,701250
2,225167	0,5	8,338950
2,233500	0,5	8,091700
2,241833	0,5	7,946250
2,250167	0,5	7,858050
2,258500	0,5	7,809700
2,266833	0,5	7,781700
2,275167	0,5	7,789600
2,283500	0,5	7,814250
2,291833	0,5	7,856600
2,300167	0,5	7,912700
2,308500	0,5	7,961600
2,316833	0,5	8,009800
2,325167	0,5	8,072400
2,333500	0,5	8,154850
2,341833	0,5	8,270950
2,350167	0,5	8,362250
2,358500	0,5	8,447550
2,366833	0,5	8,540600
2,375167	0,5	8,633000
2,383500	0,5	8,734550
2,391833	0,5	8,838650
2,400167	0,5	8,956150
2,408500	0,5	9,092700
2,416833	0,5	9,269450
2,425167	0,5	9,494600
2,433500	0,5	9,767600
2,441833	0,5	10,007400
2,450167	0,5	10,126750
2,458500	0,5	10,060600
2,466833	0,5	9,988050
2,475167	0,5	9,977950
2,483500	0,5	10,048200
2,491833	0,5	10,110400
2,500167	0,5	10,146950
2,508500	0,5	10,163400
2,516833	0,5	10,175950
2,525167	0,5	10,164050
2,533500	0,5	10,158750
2,541833	0,5	10,159850
2,550167	0,5	10,169750
2,558500	0,5	10,200900
2,566833	0,5	10,279350
2,575167	0,5	10,435950
2,583500	0,5	10,700850
2,591833	0,5	11,202300
2,600167	0,5	12,051950
2,608500	0,5	13,525850
2,616833	0,5	15,796600
2,625167	0,5	18,744350
2,633500	0,5	21,822900
2,641833	0,5	24,344450
2,650167	0,5	25,834850
2,658500	0,5	26,210500
2,666833	0,5	25,523150
2,675167	0,5	24,041350
2,683500	0,5	22,118550
2,691833	0,5	20,167550
2,700167	0,5	18,450750
2,708500	0,5	17,142000
2,716833	0,5	16,309100
2,725167	0,5	16,021550
2,733500	0,5	16,419900
2,741833	0,5	17,690650
2,750167	0,5	19,794000
2,758500	0,5	22,737900
2,766833	0,5	26,397000
2,775167	0,5	30,391200
2,783500	0,5	33,941301
2,791833	0,5	35,967101
2,800167	0,5	35,882751
2,808500	0,5	33,780951
2,816833	0,5	30,403950
2,825167	0,5	26,606200
2,833500	0,5	23,126700
2,841833	0,5	20,326750
2,850167	0,5	18,416850
2,858500	0,5	17,539850
2,866833	0,5	17,877200
2,875167	0,5	19,415800
2,883500	0,5	21,689200
2,891833	0,5	23,641100
2,900167	0,5	24,248500
2,908500	0,5	23,213500
2,916833	0,5	21,001450
2,925167	0,5	18,357450
2,933500	0,5	15,856100
2,941833	0,5	13,711550
2,950167	0,5	12,000300
2,958500	0,5	10,676150
2,966833	0,5	9,628400
2,975167	0,5	8,810400
2,983500	0,5	8,155900
2,991833	0,5	7,624350
3,000167	0,5	7,170000
3,008500	0,5	6,794300
3,016833	0,5	6,463400
3,025167	0,5	6,166450
3,033500	0,5	5,907600
3,041833	0,5	5,663450
3,050167	0,5	5,427400
3,058500	0,5	5,217200
3,066833	0,5	5,034750
3,075167	0,5	4,888800
3,083500	0,5	4,736050
3,091833	0,5	4,554400
3,100167	0,5	4,404300
3,108500	0,5	4,255950
3,116833	0,5	4,103000
3,125167	0,5	3,960450
3,133500	0,5	3,826350
3,141833	0,5	3,698750
3,150167	0,5	3,596550
3,158500	0,5	3,504400
3,166833	0,5	3,445750
3,175167	0,5	3,371250
3,183500	0,5	3,371300
3,191833	0,5	3,347200
3,200167	0,5	3,379550
3,208500	0,5	3,465300
3,216833	0,5	3,671500
3,225167	0,5	4,065250
3,233500	0,5	4,709550
3,241833	0,5	5,683550
3,250167	0,5	6,935450
3,258500	0,5	8,215200
3,266833	0,5	9,195400
3,275167	0,5	9,593100
3,283500	0,5	9,297350
3,291833	0,5	8,441450
3,300167	0,5	7,285000
3,308500	0,5	6,115250
3,316833	0,5	5,065000
3,325167	0,5	4,242050
3,333500	0,5	3,640150
3,341833	0,5	3,166400
3,350167	0,5	2,818100
3,358500	0,5	2,551100
3,366833	0,5	2,349050
3,375167	0,5	2,205100
3,383500	0,5	2,053450
3,391833	0,5	1,923200
3,400167	0,5	1,806800
3,408500	0,5	1,726050
3,416833	0,5	1,632950
3,425167	0,5	1,557350
3,433500	0,5	1,489900
3,441833	0,5	1,425550
3,450167	0,5	1,377100
3,458500	0,5	1,319450
3,466833	0,5	1,275300
3,475167	0,5	1,228600
3,483500	0,5	1,181700
3,491833	0,5	1,115750
3,500167	0,5	1,080400
3,508500	0,5	1,046550
3,516833	0,5	1,038200
3,525167	0,5	1,021500
3,533500	0,5	0,990850
3,541833	0,5	0,953600
3,550167	0,5	0,935150
3,558500	0,5	0,897350
3,566833	0,5	0,874950
3,575167	0,5	0,848850
3,583500	0,5	0,822700
3,591833	0,5	0,791600
3,600167	0,5	0,771450
3,608500	0,5	0,757850
3,616833	0,5	0,728700
3,625167	0,5	0,717050
3,633500	0,5	0,683500
3,641833	0,5	0,647550
3,650167	0,5	0,626550
3,658500	0,5	0,619000
3,666833	0,5	0,614450
3,675167	0,5	0,607650
3,683500	0,5	0,570800
3,691833	0,5	0,560400
3,700167	0,5	0,537850
3,708500	0,5	0,525100
3,716833	0,5	0,503450
3,725167	0,5	0,491400
3,733500	0,5	0,464950
3,741833	0,5	0,450800
3,750167	0,5	0,445300
3,758500	0,5	0,424700
3,766833	0,5	0,413050
3,775167	0,5	0,424450
3,783500	0,5	0,399300
3,791833	0,5	0,377900
3,800167	0,5	0,376150
3,808500	0,5	0,389300
3,816833	0,5	0,413600
3,825167	0,5	0,399500
3,833500	0,5	0,399450
3,841833	0,5	0,394150
3,850167	0,5	0,395300
3,858500	0,5	0,378850
3,866833	0,5	0,377300
3,875167	0,5	0,366450
3,883500	0,5	0,360700
3,891833	0,5	0,351500
3,900167	0,5	0,338950
3,908500	0,5	0,316200
3,916833	0,5	0,322900
3,925167	0,5	0,312200
3,933500	0,5	0,297500
3,941833	0,5	0,279650
3,950167	0,5	0,288350
3,958500	0,5	0,298250
3,966833	0,5	0,302850
3,975167	0,5	0,285850
3,983500	0,5	0,277000
3,991833	0,5	0,271300
4,000167	0,5	0,261100
4,008500	0,5	0,262950
4,016833	0,5	0,250800
4,025167	0,5	0,241000
4,033500	0,5	0,228000
4,041833	0,5	0,230800
4,050167	0,5	0,222800
4,058500	0,5	0,207300
4,066833	0,5	0,220350
4,075167	0,5	0,209950
4,083500	0,5	0,194100
4,091833	0,5	0,184500
4,100167	0,5	0,187450
4,108500	0,5	0,213550
4,116833	0,5	0,211850
4,125167	0,5	0,193550
4,133500	0,5	0,184950
4,141833	0,5	0,183700
4,150167	0,5	0,171250
4,158500	0,5	0,171600
4,166833	0,5	0,168000
4,175167	0,5	0,167450
4,183500	0,5	0,164350
4,191833	0,5	0,163600
4,200167	0,5	0,162650
4,208500	0,5	0,143500
4,216833	0,5	0,171150
4,225167	0,5	0,141800
4,233500	0,5	0,136100
4,241833	0,5	0,129050
4,250167	0,5	0,142300
4,258500	0,5	0,164350
4,266833	0,5	0,159150
4,275167	0,5	0,148800
4,283500	0,5	0,151200
4,291833	0,5	0,147300
4,300167	0,5	0,150150
4,308500	0,5	0,146100
4,316833	0,5	0,153950
4,325167	0,5	0,151800
4,333500	0,5	0,143950
4,341833	0,5	0,145500
4,350167	0,5	0,131400
4,358500	0,5	0,128700
4,366833	0,5	0,150200
4,375167	0,5	0,131450
4,383500	0,5	0,135000
4,391833	0,5	0,139200
4,400167	0,5	0,151150
4,408500	0,5	0,181250
4,416833	0,5	0,182350
4,425167	0,5	0,184150
4,433500	0,5	0,176200
4,441833	0,5	0,185900
4,450167	0,5	0,186300
4,458500	0,5	0,201150
4,466833	0,5	0,204000
4,475167	0,5	0,214850
4,483500	0,5	0,238750
4,491833	0,5	0,252400
4,500167	0,5	0,262550
4,508500	0,5	0,288100
4,516833	0,5	0,312800
4,525167	0,5	0,312450
4,533500	0,5	0,319300
4,541833	0,5	0,323900
4,550167	0,5	0,353700
4,558500	0,5	0,363300
4,566833	0,5	0,350100
4,575167	0,5	0,330850
4,583500	0,5	0,321200
4,591833	0,5	0,298600
4,600167	0,5	0,288600
4,608500	0,5	0,273850
4,616833	0,5	0,273100
4,625167	0,5	0,255050
4,633500	0,5	0,245600
4,641833	0,5	0,240750
4,650167	0,5	0,239600
4,658500	0,5	0,247250
4,666833	0,5	0,239050
4,675167	0,5	0,220800
4,683500	0,5	0,227150
4,691833	0,5	0,237300
4,700167	0,5	0,255400
4,708500	0,5	0,264750
4,716833	0,5	0,261500
4,725167	0,5	0,271800
4,733500	0,5	0,269450
4,741833	0,5	0,271800
4,750167	0,5	0,271850
4,758500	0,5	0,280200
4,766833	0,5	0,274050
4,775167	0,5	0,283250
4,783500	0,5	0,283550
4,791833	0,5	0,283300
4,800167	0,5	0,286150
4,808500	0,5	0,300950
4,816833	0,5	0,293700
4,825167	0,5	0,293300
4,833500	0,5	0,294050
4,841833	0,5	0,317850
4,850167	0,5	0,333600
4,858500	0,5	0,335400
4,866833	0,5	0,335150
4,875167	0,5	0,331950
4,883500	0,5	0,337600
4,891833	0,5	0,337150
4,900167	0,5	0,347300
4,908500	0,5	0,343600
4,916833	0,5	0,350800
4,925167	0,5	0,357900
4,933500	0,5	0,362550
4,941833	0,5	0,344850
4,950167	0,5	0,367050
4,958500	0,5	0,368100
4,966833	0,5	0,371850
4,975167	0,5	0,367350
4,983500	0,5	0,386750
4,991833	0,5	0,414100
5,000167	0,5	0,422150
5,008500	0,5	0,418150
5,016833	0,5	0,427150
5,025167	0,5	0,434150
5,033500	0,5	0,434250
5,041833	0,5	0,439600
5,050167	0,5	0,444350
5,058500	0,5	0,445950
5,066833	0,5	0,443800
5,075167	0,5	0,450950
5,083500	0,5	0,454100
5,091833	0,5	0,451250
5,100167	0,5	0,471250
5,108500	0,5	0,470700
5,116833	0,5	0,462700
5,125167	0,5	0,476050
5,133500	0,5	0,483200
5,141833	0,5	0,523300
5,150167	0,5	0,516500
5,158500	0,5	0,519550
5,166833	0,5	0,520650
5,175167	0,5	0,539500
5,183500	0,5	0,545150
5,191833	0,5	0,558550
5,200167	0,5	0,572200
5,208500	0,5	0,589350
5,216833	0,5	0,608950
5,225167	0,5	0,639300
5,233500	0,5	0,661300
5,241833	0,5	0,663200
5,250167	0,5	0,694150
5,258500	0,5	0,678050
5,266833	0,5	0,676450
5,275167	0,5	0,670550
5,283500	0,5	0,678000
5,291833	0,5	0,692500
5,300167	0,5	0,676750
5,308500	0,5	0,651350
5,316833	0,5	0,646100
5,325167	0,5	0,638950
5,333500	0,5	0,630700
5,341833	0,5	0,623550
5,350167	0,5	0,618350
5,358500	0,5	0,610100
5,366833	0,5	0,611600
5,375167	0,5	0,612800
5,383500	0,5	0,603650
5,391833	0,5	0,600100
5,400167	0,5	0,614500
5,408500	0,5	0,604050
5,416833	0,5	0,608100
5,425167	0,5	0,621250
5,433500	0,5	0,639900
5,441833	0,5	0,663150
5,450167	0,5	0,658200
5,458500	0,5	0,664650
5,466833	0,5	0,659200
5,475167	0,5	0,671300
5,483500	0,5	0,673850
5,491833	0,5	0,681750
5,500167	0,5	0,682100
5,508500	0,5	0,688300
5,516833	0,5	0,694250
5,525167	0,5	0,697050
5,533500	0,5	0,695100
5,541833	0,5	0,714350
5,550167	0,5	0,709200
5,558500	0,5	0,706250
5,566833	0,5	0,709500
5,575167	0,5	0,718800
5,583500	0,5	0,747800
5,591833	0,5	0,759350
5,600167	0,5	0,761650
5,608500	0,5	0,763950
5,616833	0,5	0,768050
5,625167	0,5	0,767900
5,633500	0,5	0,773900
5,641833	0,5	0,775650
5,650167	0,5	0,780200
5,658500	0,5	0,784800
5,666833	0,5	0,788200
5,675167	0,5	0,782900
5,683500	0,5	0,786850
5,691833	0,5	0,801000
5,700167	0,5	0,803800
5,708500	0,5	0,800150
5,716833	0,5	0,808850
5,725167	0,5	0,826500
5,733500	0,5	0,858450
5,741833	0,5	0,868450
5,750167	0,5	0,869100
5,758500	0,5	0,872550
5,766833	0,5	0,876650
5,775167	0,5	0,878950
5,783500	0,5	0,883000
5,791833	0,5	0,892700
5,800167	0,5	0,886800
5,808500	0,5	0,902500
5,816833	0,5	0,904300
5,825167	0,5	0,907450
5,833500	0,5	0,920450
5,841833	0,5	0,934150
5,850167	0,5	0,922900
5,858500	0,5	0,925050
5,866833	0,5	0,930800
5,875167	0,5	0,955950
5,883500	0,5	0,975300
5,891833	0,5	0,983650
5,900167	0,5	0,989000
5,908500	0,5	0,997050
5,916833	0,5	0,998050
5,925167	0,5	1,002900
5,933500	0,5	1,016300
5,941833	0,5	1,021300
5,950167	0,5	1,024100
5,958500	0,5	1,028900
5,966833	0,5	1,034050
5,975167	0,5	1,024450
5,983500	0,5	1,049900
5,991833	0,5	1,047300
6,000167	0,5	1,047650
6,008500	0,5	1,043950
6,016833	0,5	1,063250
6,025167	0,5	1,086700
6,033500	0,5	1,101850
6,041833	0,5	1,098000
6,050167	0,5	1,100650
6,058500	0,5	1,103200
6,066833	0,5	1,110050
6,075167	0,5	1,111200
6,083500	0,5	1,119800
6,091833	0,5	1,122250
6,100167	0,5	1,122600
6,108500	0,5	1,133200
6,116833	0,5	1,122650
6,125167	0,5	1,116350
6,133500	0,5	1,152050
6,141833	0,5	1,144450
6,150167	0,5	1,144550
6,158500	0,5	1,155900
6,166833	0,5	1,166700
6,175167	0,5	1,201800
6,183500	0,5	1,199250
6,191833	0,5	1,202650
6,200167	0,5	1,207400
6,208500	0,5	1,217450
6,216833	0,5	1,218550
6,225167	0,5	1,230550
6,233500	0,5	1,235100
6,241833	0,5	1,241800
6,250167	0,5	1,248050
6,258500	0,5	1,259150
6,266833	0,5	1,259100
6,275167	0,5	1,264200
6,283500	0,5	1,284350
6,291833	0,5	1,275150
6,300167	0,5	1,281200
6,308500	0,5	1,291850
6,316833	0,5	1,312750
6,325167	0,5	1,339900
6,333500	0,5	1,352500
6,341833	0,5	1,347400
6,350167	0,5	1,358850
6,358500	0,5	1,357850
6,366833	0,5	1,370150
6,375167	0,5	1,380150
6,383500	0,5	1,389350
6,391833	0,5	1,392450
6,400167	0,5	1,403150
6,408500	0,5	1,413400
6,416833	0,5	1,417350
6,425167	0,5	1,424400
6,433500	0,5	1,439000
6,441833	0,5	1,439050
6,450167	0,5	1,448550
6,458500	0,5	1,459550
6,466833	0,5	1,484200
6,475167	0,5	1,509000
6,483500	0,5	1,509550
6,491833	0,5	1,517800
6,500167	0,5	1,521900
6,508500	0,5	1,534650
6,516833	0,5	1,537650
6,525167	0,5	1,547350
6,533500	0,5	1,549500
6,541833	0,5	1,560050
6,550167	0,5	1,569350
6,558500	0,5	1,578450
6,566833	0,5	1,568300
6,575167	0,5	1,586950
6,583500	0,5	1,588900
6,591833	0,5	1,591400
6,600167	0,5	1,593550
6,608500	0,5	1,612150
6,616833	0,5	1,641150
6,625167	0,5	1,653850
6,633500	0,5	1,658600
6,641833	0,5	1,668750
6,650167	0,5	1,673300
6,658500	0,5	1,678250
6,666833	0,5	1,681300
6,675167	0,5	1,693500
6,683500	0,5	1,698150
6,691833	0,5	1,700950
6,700167	0,5	1,712200
6,708500	0,5	1,702050
6,716833	0,5	1,707500
6,725167	0,5	1,718500
6,733500	0,5	1,718100
6,741833	0,5	1,725400
6,750167	0,5	1,736850
6,758500	0,5	1,753050
6,766833	0,5	1,771300
6,775167	0,5	1,780950
6,783500	0,5	1,787250
6,791833	0,5	1,788900
6,800167	0,5	1,796950
6,808500	0,5	1,796550
6,816833	0,5	1,801550
6,825167	0,5	1,804300
6,833500	0,5	1,805800
6,841833	0,5	1,808750
6,850167	0,5	1,813300
6,858500	0,5	1,807000
6,866833	0,5	1,818250
6,875167	0,5	1,822150
6,883500	0,5	1,818800
6,891833	0,5	1,817600
6,900167	0,5	1,817100
6,908500	0,5	1,838900
6,916833	0,5	1,848850
6,925167	0,5	1,855800
6,933500	0,5	1,850600
6,941833	0,5	1,860850
6,950167	0,5	1,861250
6,958500	0,5	1,861550
6,966833	0,5	1,858550
6,975167	0,5	1,859650
6,983500	0,5	1,855700
6,991833	0,5	1,861100
7,000167	0,5	1,859800
7,008500	0,5	1,851050
7,016833	0,5	1,863100
7,025167	0,5	1,861100
7,033500	0,5	1,853750
7,041833	0,5	1,852550
7,050167	0,5	1,861500
7,058500	0,5	1,880850
7,066833	0,5	1,883650
7,075167	0,5	1,874450
7,083500	0,5	1,874600
7,091833	0,5	1,877250
7,100167	0,5	1,878050
7,108500	0,5	1,871800
7,116833	0,5	1,877550
7,125167	0,5	1,871550
7,133500	0,5	1,871800
7,141833	0,5	1,872950
7,150167	0,5	1,869550
7,158500	0,5	1,865150
7,166833	0,5	1,876900
7,175167	0,5	1,862150
7,183500	0,5	1,863600
7,191833	0,5	1,858050
7,200167	0,5	1,865650
7,208500	0,5	1,883400
7,216833	0,5	1,875850
7,225167	0,5	1,882750
7,233500	0,5	1,884400
7,241833	0,5	1,887200
7,250167	0,5	1,886300
7,258500	0,5	1,890200
7,266833	0,5	1,887450
7,275167	0,5	1,881850
7,283500	0,5	1,880900
7,291833	0,5	1,873200
7,300167	0,5	1,858300
7,308500	0,5	1,857200
7,316833	0,5	1,856250
7,325167	0,5	1,850050
7,333500	0,5	1,839100
7,341833	0,5	1,843100
7,350167	0,5	1,854100
7,358500	0,5	1,861800
7,366833	0,5	1,856200
7,375167	0,5	1,850250
7,383500	0,5	1,851550
7,391833	0,5	1,844700
7,400167	0,5	1,842400
7,408500	0,5	1,840050
7,416833	0,5	1,838950
7,425167	0,5	1,836050
7,433500	0,5	1,835450
7,441833	0,5	1,834150
7,450167	0,5	1,831550
7,458500	0,5	1,829950
7,466833	0,5	1,835100
7,475167	0,5	1,839450
7,483500	0,5	1,845850
7,491833	0,5	1,855050
7,500167	0,5	1,872200
7,508500	0,5	1,894850
7,516833	0,5	1,909800
7,525167	0,5	1,920850
7,533500	0,5	1,944900
7,541833	0,5	1,969850
7,550167	0,5	2,009550
7,558500	0,5	2,078300
7,566833	0,5	2,160800
7,575167	0,5	2,275450
7,583500	0,5	2,419200
7,591833	0,5	2,580150
7,600167	0,5	2,737750
7,608500	0,5	2,890300
7,616833	0,5	2,994950
7,625167	0,5	3,048800
7,633500	0,5	3,049350
7,641833	0,5	3,006450
7,650167	0,5	2,938800
7,658500	0,5	2,843400
7,666833	0,5	2,742700
7,675167	0,5	2,642700
7,683500	0,5	2,549950
7,691833	0,5	2,476000
7,700167	0,5	2,414550
7,708500	0,5	2,372350
7,716833	0,5	2,330250
7,725167	0,5	2,298200
7,733500	0,5	2,261300
7,741833	0,5	2,216850
7,750167	0,5	2,168500
7,758500	0,5	2,132550
7,766833	0,5	2,101600
7,775167	0,5	2,070900
7,783500	0,5	2,053250
7,791833	0,5	2,041800
7,800167	0,5	2,034150
7,808500	0,5	2,020850
7,816833	0,5	2,013550
7,825167	0,5	2,006200
7,833500	0,5	1,993650
7,841833	0,5	1,980900
7,850167	0,5	1,979850
7,858500	0,5	1,968000
7,866833	0,5	1,963250
7,875167	0,5	1,957950
7,883500	0,5	1,951350
7,891833	0,5	1,936100
7,900167	0,5	1,938350
7,908500	0,5	1,944250
7,916833	0,5	1,942300
7,925167	0,5	1,948250
7,933500	0,5	1,955750
7,941833	0,5	1,971450
7,950167	0,5	1,979000
7,958500	0,5	1,992500
7,966833	0,5	1,994850
7,975167	0,5	2,001450
7,983500	0,5	2,001600
7,991833	0,5	2,001200
8,000167	0,5	2,001900
8,008500	0,5	1,997050
8,016833	0,5	1,984300
8,025167	0,5	1,981100
8,033500	0,5	1,969450
8,041833	0,5	1,958650
8,050167	0,5	1,963700
8,058500	0,5	1,962200
8,066833	0,5	1,961200
8,075167	0,5	1,964800
8,083500	0,5	1,971150
8,091833	0,5	1,990100
8,100167	0,5	2,008800
8,108500	0,5	2,033500
8,116833	0,5	2,070950
8,125167	0,5	2,114500
8,133500	0,5	2,151550
8,141833	0,5	2,171900
8,150167	0,5	2,170500
8,158500	0,5	2,138050
8,166833	0,5	2,098600
8,175167	0,5	2,055650
8,183500	0,5	2,017350
8,191833	0,5	1,991500
8,200167	0,5	1,982450
8,208500	0,5	1,977250
8,216833	0,5	1,974150
8,225167	0,5	1,974350
8,233500	0,5	1,989300
8,241833	0,5	2,019200
8,250167	0,5	2,049950
8,258500	0,5	2,079100
8,266833	0,5	2,104400
8,275167	0,5	2,116050
8,283500	0,5	2,120500
8,291833	0,5	2,109800
8,300167	0,5	2,099650
8,308500	0,5	2,089650
8,316833	0,5	2,081650
8,325167	0,5	2,081450
8,333500	0,5	2,080050
8,341833	0,5	2,081950
8,350167	0,5	2,086200
8,358500	0,5	2,093500
8,366833	0,5	2,104750
8,375167	0,5	2,111650
8,383500	0,5	2,135600
8,391833	0,5	2,166600
8,400167	0,5	2,201550
8,408500	0,5	2,236950
8,416833	0,5	2,261850
8,425167	0,5	2,242300
8,433500	0,5	2,181650
8,441833	0,5	2,082500
8,450167	0,5	1,976550
8,458500	0,5	1,892300
8,466833	0,5	1,834600
8,475167	0,5	1,791300
8,483500	0,5	1,754650
8,491833	0,5	1,733600
8,500167	0,5	1,722300
8,508500	0,5	1,707150
8,516833	0,5	1,696450
8,525167	0,5	1,690100
8,533500	0,5	1,695600
8,541833	0,5	1,692400
8,550167	0,5	1,694000
8,558500	0,5	1,697950
8,566833	0,5	1,704100
8,575167	0,5	1,713300
8,583500	0,5	1,720100
8,591833	0,5	1,725650
8,600167	0,5	1,729850
8,608500	0,5	1,722600
8,616833	0,5	1,716200
8,625167	0,5	1,710450
8,633500	0,5	1,705800
8,641833	0,5	1,704100
8,650167	0,5	1,701650
8,658500	0,5	1,695500
8,666833	0,5	1,700300
8,675167	0,5	1,707050
8,683500	0,5	1,720000
8,691833	0,5	1,730900
8,700167	0,5	1,735700
8,708500	0,5	1,737850
8,716833	0,5	1,738450
8,725167	0,5	1,733400
8,733500	0,5	1,724700
8,741833	0,5	1,714650
8,750167	0,5	1,708100
8,758500	0,5	1,704600
8,766833	0,5	1,707350
8,775167	0,5	1,713050
8,783500	0,5	1,718100
8,791833	0,5	1,724100
8,800167	0,5	1,733450
8,808500	0,5	1,738300
8,816833	0,5	1,743000
8,825167	0,5	1,754250
8,833500	0,5	1,764100
8,841833	0,5	1,775050
8,850167	0,5	1,779850
8,858500	0,5	1,793950
8,866833	0,5	1,806750
8,875167	0,5	1,820400
8,883500	0,5	1,833550
8,891833	0,5	1,844400
8,900167	0,5	1,848200
8,908500	0,5	1,849450
8,916833	0,5	1,844500
8,925167	0,5	1,831850
8,933500	0,5	1,822850
8,941833	0,5	1,809200
8,950167	0,5	1,797350
8,958500	0,5	1,780450
8,966833	0,5	1,772800
8,975167	0,5	1,771500
8,983500	0,5	1,772500
8,991833	0,5	1,781750
9,000167	0,5	1,796200
9,008500	0,5	1,812450
9,016833	0,5	1,820600
9,025167	0,5	1,827750
9,033500	0,5	1,822450
9,041833	0,5	1,795800
9,050167	0,5	1,758000
9,058500	0,5	1,718500
9,066833	0,5	1,686350
9,075167	0,5	1,666800
9,083500	0,5	1,661650
9,091833	0,5	1,659300
9,100167	0,5	1,655350
9,108500	0,5	1,652600
9,116833	0,5	1,655400
9,125167	0,5	1,656200
9,133500	0,5	1,660800
9,141833	0,5	1,657450
9,150167	0,5	1,653750
9,158500	0,5	1,653050
9,166833	0,5	1,644350
9,175167	0,5	1,646500
9,183500	0,5	1,638450
9,191833	0,5	1,640700
9,200167	0,5	1,634650
9,208500	0,5	1,639800
9,216833	0,5	1,639150
9,225167	0,5	1,642650
9,233500	0,5	1,647850
9,241833	0,5	1,651750
9,250167	0,5	1,650450
9,258500	0,5	1,656700
9,266833	0,5	1,661550
9,275167	0,5	1,674800
9,283500	0,5	1,680500
9,291833	0,5	1,687400
9,300167	0,5	1,691750
9,308500	0,5	1,695400
9,316833	0,5	1,698900
9,325167	0,5	1,696450
9,333500	0,5	1,697800
9,341833	0,5	1,698800
9,350167	0,5	1,697450
9,358500	0,5	1,699950
9,366833	0,5	1,707450
9,375167	0,5	1,708700
9,383500	0,5	1,714550
9,391833	0,5	1,709700
9,400167	0,5	1,695400
9,408500	0,5	1,680100
9,416833	0,5	1,666200
9,425167	0,5	1,647650
9,433500	0,5	1,633750
9,441833	0,5	1,613300
9,450167	0,5	1,603550
9,458500	0,5	1,593550
9,466833	0,5	1,580100
9,475167	0,5	1,572100
9,483500	0,5	1,562100
9,491833	0,5	1,555850
9,500167	0,5	1,542200
9,508500	0,5	1,540000
9,516833	0,5	1,533200
9,525167	0,5	1,525550
9,533500	0,5	1,520250
9,541833	0,5	1,512750
9,550167	0,5	1,500400
9,558500	0,5	1,493350
9,566833	0,5	1,488650
9,575167	0,5	1,473450
9,583500	0,5	1,473350
9,591833	0,5	1,456300
9,600167	0,5	1,450550
9,608500	0,5	1,436500
9,616833	0,5	1,427250
9,625167	0,5	1,421250
9,633500	0,5	1,411800
9,641833	0,5	1,403850
9,650167	0,5	1,396300
9,658500	0,5	1,389150
9,666833	0,5	1,381950
9,675167	0,5	1,374350
9,683500	0,5	1,369100
9,691833	0,5	1,359350
9,700167	0,5	1,347650
9,708500	0,5	1,341750
9,716833	0,5	1,339350
9,725167	0,5	1,336950
9,733500	0,5	1,335400
9,741833	0,5	1,333050
9,750167	0,5	1,331850
9,758500	0,5	1,326650
9,766833	0,5	1,329850
9,775167	0,5	1,330850
9,783500	0,5	1,334500
9,791833	0,5	1,339650
9,800167	0,5	1,351100
9,808500	0,5	1,359150
9,816833	0,5	1,367650
9,825167	0,5	1,392100
9,833500	0,5	1,419500
9,841833	0,5	1,458700
9,850167	0,5	1,513500
9,858500	0,5	1,593900
9,866833	0,5	1,691550
9,875167	0,5	1,801050
9,883500	0,5	1,915900
9,891833	0,5	2,023250
9,900167	0,5	2,098400
9,908500	0,5	2,143300
9,916833	0,5	2,138250
9,925167	0,5	2,088950
9,933500	0,5	1,998750
9,941833	0,5	1,884000
9,950167	0,5	1,762600
9,958500	0,5	1,649000
9,966833	0,5	1,550300
9,975167	0,5	1,473950
9,983500	0,5	1,423550
9,991833	0,5	1,386800
10,000167	0,5	1,361450
10,008500	0,5	1,349500
10,016833	0,5	1,351050
10,025167	0,5	1,357800
10,033500	0,5	1,367550
10,041833	0,5	1,377850
10,050167	0,5	1,396300
10,058500	0,5	1,416400
10,066833	0,5	1,439600
10,075167	0,5	1,459100
10,083500	0,5	1,487550
10,091833	0,5	1,515100
10,100167	0,5	1,548650
10,108500	0,5	1,574950
10,116833	0,5	1,605800
10,125167	0,5	1,621300
10,133500	0,5	1,630600
10,141833	0,5	1,621300
10,150167	0,5	1,597950
10,158500	0,5	1,567450
10,166833	0,5	1,528700
10,175167	0,5	1,488900
10,183500	0,5	1,446950
10,191833	0,5	1,411700
10,200167	0,5	1,379400
10,208500	0,5	1,350100
10,216833	0,5	1,331400
10,225167	0,5	1,307300
10,233500	0,5	1,290800
10,241833	0,5	1,277850
10,250167	0,5	1,263850
10,258500	0,5	1,255450
10,266833	0,5	1,245300
10,275167	0,5	1,241750
10,283500	0,5	1,234300
10,291833	0,5	1,233950
10,300167	0,5	1,232650
10,308500	0,5	1,233200
10,316833	0,5	1,242100
10,325167	0,5	1,246200
10,333500	0,5	1,262600
10,341833	0,5	1,279600
10,350167	0,5	1,305200
10,358500	0,5	1,330250
10,366833	0,5	1,364150
10,375167	0,5	1,398450
10,383500	0,5	1,448200
10,391833	0,5	1,502650
10,400167	0,5	1,562300
10,408500	0,5	1,623200
10,416833	0,5	1,664200
10,425167	0,5	1,691500
10,433500	0,5	1,687600
10,441833	0,5	1,651400
10,450167	0,5	1,601700
10,458500	0,5	1,537850
10,466833	0,5	1,484750
10,475167	0,5	1,427100
10,483500	0,5	1,387150
10,491833	0,5	1,354250
10,500167	0,5	1,333600
10,508500	0,5	1,313800
10,516833	0,5	1,302800
10,525167	0,5	1,288550
10,533500	0,5	1,277750
10,541833	0,5	1,276400
10,550167	0,5	1,264650
10,558500	0,5	1,250900
10,566833	0,5	1,248850
10,575167	0,5	1,238750
10,583500	0,5	1,231900
10,591833	0,5	1,227600
10,600167	0,5	1,218750
10,608500	0,5	1,220200
10,616833	0,5	1,222550
10,625167	0,5	1,224750
10,633500	0,5	1,223550
10,641833	0,5	1,233250
10,650167	0,5	1,247150
10,658500	0,5	1,264250
10,666833	0,5	1,302850
10,675167	0,5	1,339100
10,683500	0,5	1,387250
10,691833	0,5	1,428400
10,700167	0,5	1,451600
10,708500	0,5	1,463850
10,716833	0,5	1,441000
10,725167	0,5	1,393850
10,733500	0,5	1,323050
10,741833	0,5	1,244150
10,750167	0,5	1,168100
10,758500	0,5	1,107700
10,766833	0,5	1,060050
10,775167	0,5	1,032850
10,783500	0,5	1,024300
10,791833	0,5	1,024950
10,800167	0,5	1,046050
10,808500	0,5	1,074800
10,816833	0,5	1,105400
10,825167	0,5	1,135700
10,833500	0,5	1,166950
10,841833	0,5	1,193400
10,850167	0,5	1,213600
10,858500	0,5	1,235700
10,866833	0,5	1,241400
10,875167	0,5	1,241750
10,883500	0,5	1,231550
10,891833	0,5	1,218750
10,900167	0,5	1,213200
10,908500	0,5	1,208350
10,916833	0,5	1,198200
10,925167	0,5	1,188550
10,933500	0,5	1,178050
10,941833	0,5	1,174300
10,950167	0,5	1,167000
10,958500	0,5	1,166250
10,966833	0,5	1,160300
10,975167	0,5	1,158100
10,983500	0,5	1,158400
10,991833	0,5	1,148350
11,000167	0,5	1,147100
11,008500	0,5	1,154900
11,016833	0,5	1,155150
11,025167	0,5	1,154200
11,033500	0,5	1,148600
11,041833	0,5	1,153450
11,050167	0,5	1,159700
11,058500	0,5	1,161800
11,066833	0,5	1,163150
11,075167	0,5	1,161750
11,083500	0,5	1,167500
11,091833	0,5	1,164750
11,100167	0,5	1,172200
11,108500	0,5	1,171650
11,116833	0,5	1,171850
11,125167	0,5	1,168300
11,133500	0,5	1,165850
11,141833	0,5	1,152550
11,150167	0,5	1,160200
11,158500	0,5	1,161200
11,166833	0,5	1,168800
11,175167	0,5	1,171100
11,183500	0,5	1,170800
11,191833	0,5	1,175750
11,200167	0,5	1,187200
11,208500	0,5	1,198700
11,216833	0,5	1,219300
11,225167	0,5	1,244200
11,233500	0,5	1,273750
11,241833	0,5	1,325900
11,250167	0,5	1,397750
11,258500	0,5	1,479600
11,266833	0,5	1,559750
11,275167	0,5	1,627200
11,283500	0,5	1,663250
11,291833	0,5	1,661750
11,300167	0,5	1,639400
11,308500	0,5	1,595200
11,316833	0,5	1,533250
11,325167	0,5	1,475300
11,333500	0,5	1,426400
11,341833	0,5	1,392300
11,350167	0,5	1,366000
11,358500	0,5	1,349350
11,366833	0,5	1,328000
11,375167	0,5	1,305250
11,383500	0,5	1,287550
11,391833	0,5	1,272850
11,400167	0,5	1,260200
11,408500	0,5	1,257000
11,416833	0,5	1,254600
11,425167	0,5	1,255200
11,433500	0,5	1,268200
11,441833	0,5	1,285400
11,450167	0,5	1,329400
11,458500	0,5	1,379800
11,466833	0,5	1,449000
11,475167	0,5	1,537200
11,483500	0,5	1,632050
11,491833	0,5	1,743700
11,500167	0,5	1,850050
11,508500	0,5	1,950100
11,516833	0,5	2,048150
11,525167	0,5	2,144100
11,533500	0,5	2,225700
11,541833	0,5	2,289450
11,550167	0,5	2,326750
11,558500	0,5	2,321300
11,566833	0,5	2,269200
11,575167	0,5	2,186900
11,583500	0,5	2,075900
11,591833	0,5	1,962450
11,600167	0,5	1,861850
11,608500	0,5	1,785550
11,616833	0,5	1,730000
11,625167	0,5	1,708150
11,633500	0,5	1,719300
11,641833	0,5	1,755050
11,650167	0,5	1,778900
11,658500	0,5	1,800700
11,666833	0,5	1,800500
11,675167	0,5	1,775850
11,683500	0,5	1,726500
11,691833	0,5	1,655800
11,700167	0,5	1,577400
11,708500	0,5	1,492500
11,716833	0,5	1,417450
11,725167	0,5	1,349750
11,733500	0,5	1,277350
11,741833	0,5	1,231400
11,750167	0,5	1,193800
11,758500	0,5	1,159000
11,766833	0,5	1,125650
11,775167	0,5	1,100250
11,783500	0,5	1,088700
11,791833	0,5	1,075100
11,800167	0,5	1,070400
11,808500	0,5	1,064350
11,816833	0,5	1,058250
11,825167	0,5	1,051850
11,833500	0,5	1,047600
11,841833	0,5	1,046950
11,850167	0,5	1,047200
11,858500	0,5	1,044450
11,866833	0,5	1,042650
11,875167	0,5	1,039000
11,883500	0,5	1,037450
11,891833	0,5	1,038000
11,900167	0,5	1,042300
11,908500	0,5	1,039850
11,916833	0,5	1,034650
11,925167	0,5	1,038000
11,933500	0,5	1,041350
11,941833	0,5	1,057000
11,950167	0,5	1,054700
11,958500	0,5	1,069450
11,966833	0,5	1,082200
11,975167	0,5	1,092100
11,983500	0,5	1,110150
11,991833	0,5	1,128000
12,000167	0,5	1,140550
12,008500	0,5	1,167000
12,016833	0,5	1,190050
12,025167	0,5	1,208300
12,033500	0,5	1,224800
12,041833	0,5	1,243050
12,050167	0,5	1,258900
12,058500	0,5	1,265050
12,066833	0,5	1,271850
12,075167	0,5	1,274450
12,083500	0,5	1,296450
12,091833	0,5	1,307000
12,100167	0,5	1,316800
12,108500	0,5	1,332150
12,116833	0,5	1,353400
12,125167	0,5	1,378800
12,133500	0,5	1,423450
12,141833	0,5	1,472000
12,150167	0,5	1,529900
12,158500	0,5	1,603800
12,166833	0,5	1,674750
12,175167	0,5	1,719800
12,183500	0,5	1,760550
12,191833	0,5	1,785450
12,200167	0,5	1,797050
12,208500	0,5	1,815950
12,216833	0,5	1,833950
12,225167	0,5	1,880250
12,233500	0,5	1,943650
12,241833	0,5	2,023750
12,250167	0,5	2,124600
12,258500	0,5	2,233100
12,266833	0,5	2,339100
12,275167	0,5	2,435050
12,283500	0,5	2,503200
12,291833	0,5	2,523150
12,300167	0,5	2,488450
12,308500	0,5	2,426000
12,316833	0,5	2,324400
12,325167	0,5	2,218950
12,333500	0,5	2,112900
12,341833	0,5	2,034750
12,350167	0,5	1,967750
12,358500	0,5	1,932850
12,366833	0,5	1,907050
12,375167	0,5	1,899050
12,383500	0,5	1,889100
12,391833	0,5	1,870250
12,400167	0,5	1,847650
12,408500	0,5	1,821850
12,416833	0,5	1,794350
12,425167	0,5	1,775250
12,433500	0,5	1,763300
12,441833	0,5	1,756100
12,450167	0,5	1,752250
12,458500	0,5	1,748050
12,466833	0,5	1,734550
12,475167	0,5	1,719450
12,483500	0,5	1,697550
12,491833	0,5	1,656200
12,500167	0,5	1,596250
12,508500	0,5	1,541150
12,516833	0,5	1,478750
12,525167	0,5	1,437400
12,533500	0,5	1,393200
12,541833	0,5	1,351950
12,550167	0,5	1,324250
12,558500	0,5	1,293000
12,566833	0,5	1,280050
12,575167	0,5	1,264850
12,583500	0,5	1,253500
12,591833	0,5	1,251150
12,600167	0,5	1,237350
12,608500	0,5	1,246850
12,616833	0,5	1,238350
12,625167	0,5	1,253500
12,633500	0,5	1,270400
12,641833	0,5	1,302350
12,650167	0,5	1,322050
12,658500	0,5	1,329100
12,666833	0,5	1,335800
12,675167	0,5	1,324050
12,683500	0,5	1,276850
12,691833	0,5	1,211050
12,700167	0,5	1,127600
12,708500	0,5	1,064450
12,716833	0,5	1,007050
12,725167	0,5	0,886400
12,733500	0,5	0,667550
12,741833	0,5	0,325750
12,750167	0,5	-0,127600
12,758500	0,5	-0,539750
12,766833	0,5	-0,848000
12,775167	0,5	-1,090200
12,783500	0,5	-1,305200
12,791833	0,5	-1,520300
12,800167	0,5	-1,763400
12,808500	0,5	-1,973450
12,816833	0,5	-2,110050
12,825167	0,5	-2,218950
12,833500	0,5	-2,306400
12,841833	0,5	-2,379400
12,850167	0,5	-2,436750
12,858500	0,5	-2,493500
12,866833	0,5	-2,541150
12,875167	0,5	-2,585450
12,883500	0,5	-2,620150
12,891833	0,5	-2,648750
12,900167	0,5	-2,676750
12,908500	0,5	-2,710400
12,916833	0,5	-2,733400
12,925167	0,5	-2,745850
12,933500	0,5	-2,765600
12,941833	0,5	-2,790100
12,950167	0,5	-2,815250
12,958500	0,5	-2,832400
12,966833	0,5	-2,848700
12,975167	0,5	-2,858900
12,983500	0,5	-2,875250
12,991833	0,5	-2,884350
13,000167	0,5	-2,895000
13,008500	0,5	-2,906750
13,016833	0,5	-2,913900
13,025167	0,5	-2,918000
13,033500	0,5	-2,921550
13,041833	0,5	-2,920650
13,050167	0,5	-2,923750
13,058500	0,5	-2,931100
13,066833	0,5	-2,932750
13,075167	0,5	-2,929400
13,083500	0,5	-2,932450
13,091833	0,5	-2,946350
13,100167	0,5	-2,952400
13,108500	0,5	-2,960750
13,116833	0,5	-2,948100
13,125167	0,5	-2,945400
13,133500	0,5	-2,939650
13,141833	0,5	-2,926550
13,150167	0,5	-2,909850
13,158500	0,5	-2,883750
13,166833	0,5	-2,855550
13,175167	0,5	-2,818700
13,183500	0,5	-2,780700
13,191833	0,5	-2,727600
13,200167	0,5	-2,686550
13,208500	0,5	-2,655600
13,216833	0,5	-2,615500
13,225167	0,5	-2,588650
13,233500	0,5	-2,576600
13,241833	0,5	-2,584900
13,250167	0,5	-2,593750
13,258500	0,5	-2,608000
13,266833	0,5	-2,622500
13,275167	0,5	-2,645650
13,283500	0,5	-2,665200
13,291833	0,5	-2,691700
13,300167	0,5	-2,709250
13,308500	0,5	-2,727050
13,316833	0,5	-2,744800
13,325167	0,5	-2,754800
13,333500	0,5	-2,769150
13,341833	0,5	-2,761600
13,350167	0,5	-2,774300
13,358500	0,5	-2,768750
13,366833	0,5	-2,760300
13,375167	0,5	-2,752900
13,383500	0,5	-2,741650
13,391833	0,5	-2,732000
13,400167	0,5	-2,707850
13,408500	0,5	-2,675550
13,416833	0,5	-2,651250
13,425167	0,5	-2,625150
13,433500	0,5	-2,602250
13,441833	0,5	-2,590450
13,450167	0,5	-2,588550
13,458500	0,5	-2,592850
13,466833	0,5	-2,592700
13,475167	0,5	-2,599500
13,483500	0,5	-2,598650
13,491833	0,5	-2,602200
13,500167	0,5	-2,606600
13,508500	0,5	-2,595300
13,516833	0,5	-2,586650
13,525167	0,5	-2,579950
13,533500	0,5	-2,572800
13,541833	0,5	-2,577050
13,550167	0,5	-2,556100
13,558500	0,5	-2,549200
13,566833	0,5	-2,535100
13,575167	0,5	-2,526500
13,583500	0,5	-2,508300
13,591833	0,5	-2,500750
13,600167	0,5	-2,491100
13,608500	0,5	-2,475950
13,616833	0,5	-2,473650
13,625167	0,5	-2,459300
13,633500	0,5	-2,444650
13,641833	0,5	-2,418450
13,650167	0,5	-2,418950
13,658500	0,5	-2,388900
13,666833	0,5	-2,372350
13,675167	0,5	-2,353250
13,683500	0,5	-2,343850
13,691833	0,5	-2,329500
13,700167	0,5	-2,308750
13,708500	0,5	-2,283900
13,716833	0,5	-2,271400
13,725167	0,5	-2,250750
13,733500	0,5	-2,231200
13,741833	0,5	-2,210650
13,750167	0,5	-2,191350
13,758500	0,5	-2,168550
13,766833	0,5	-2,146450
13,775167	0,5	-2,125000
13,783500	0,5	-2,096800
13,791833	0,5	-2,075100
13,800167	0,5	-2,044750
13,808500	0,5	-2,013200
13,816833	0,5	-1,991400
13,825167	0,5	-1,962050
13,833500	0,5	-1,934300
13,841833	0,5	-1,907400
13,850167	0,5	-1,862300
13,858500	0,5	-1,831500
13,866833	0,5	-1,800800
13,875167	0,5	-1,768700
13,883500	0,5	-1,731550
13,891833	0,5	-1,706150
13,900167	0,5	-1,685850
13,908500	0,5	-1,662950
13,916833	0,5	-1,648200
13,925167	0,5	-1,622900
13,933500	0,5	-1,601450
13,941833	0,5	-1,594100
13,950167	0,5	-1,575250
13,958500	0,5	-1,547800
13,966833	0,5	-1,538700
13,975167	0,5	-1,514700
13,983500	0,5	-1,508750
13,991833	0,5	-1,479100
14,000167	0,5	-1,440600
14,008500	0,5	-1,392250
14,016833	0,5	-1,341600
14,025167	0,5	-1,277900
14,033500	0,5	-1,202750
14,041833	0,5	-1,125150
14,050167	0,5	-1,061150
14,058500	0,5	-1,003450
14,066833	0,5	-0,966750
14,075167	0,5	-0,930750
14,083500	0,5	-0,901400
14,091833	0,5	-0,868000
14,100167	0,5	-0,815300
14,108500	0,5	-0,755900
14,116833	0,5	-0,707650
14,125167	0,5	-0,677000
14,133500	0,5	-0,655050
14,141833	0,5	-0,641950
14,150167	0,5	-0,614950
14,158500	0,5	-0,591500
14,166833	0,5	-0,541500
14,175167	0,5	-0,486800
14,183500	0,5	-0,418200
14,191833	0,5	-0,350050
14,200167	0,5	-0,284800
14,208500	0,5	-0,231400
14,216833	0,5	-0,183000
14,225167	0,5	-0,143450
14,233500	0,5	-0,110550
14,241833	0,5	-0,090750
14,250167	0,5	-0,078300
14,258500	0,5	-0,079850
14,266833	0,5	-0,091950
14,275167	0,5	-0,115550
14,283500	0,5	-0,119650
14,291833	0,5	-0,118600
14,300167	0,5	-0,105850
14,308500	0,5	-0,104550
14,316833	0,5	-0,096750
14,325167	0,5	-0,081400
14,333500	0,5	-0,078900
14,341833	0,5	-0,061850
14,350167	0,5	-0,063300
14,358500	0,5	-0,053150
14,366833	0,5	-0,043500
14,375167	0,5	-0,030450
14,383500	0,5	-0,042350
14,391833	0,5	-0,029000
14,400167	0,5	-0,020900
14,408500	0,5	-0,016800
14,416833	0,5	-0,015050
14,425167	0,5	-0,020000
14,433500	0,5	0,003350
14,441833	0,5	0,027600
14,450167	0,5	0,049150
14,458500	0,5	0,063600
14,466833	0,5	0,077700
14,475167	0,5	0,082400
14,483500	0,5	0,074050
14,491833	0,5	0,066550
14,500167	0,5	0,056650
14,508500	0,5	0,032650
14,516833	0,5	0,019700
14,525167	0,5	0,004450
14,533500	0,5	-0,015350
14,541833	0,5	-0,013800
14,550167	0,5	-0,018350
14,558500	0,5	-0,029050
14,566833	0,5	-0,032300
14,575167	0,5	-0,052000
14,583500	0,5	-0,034650
14,591833	0,5	-0,037100
14,600167	0,5	-0,035450
14,608500	0,5	-0,025650
14,616833	0,5	-0,014850
14,625167	0,5	-0,018150
14,633500	0,5	-0,005550
14,641833	0,5	0,023150
14,650167	0,5	0,063300
14,658500	0,5	0,130650
14,666833	0,5	0,210800
14,675167	0,5	0,311400
14,683500	0,5	0,407200
14,691833	0,5	0,504450
14,700167	0,5	0,548500
14,708500	0,5	0,548800
14,716833	0,5	0,494750
14,725167	0,5	0,427050
14,733500	0,5	0,378600
14,741833	0,5	0,334100
14,750167	0,5	0,310900
14,758500	0,5	0,328050
14,766833	0,5	0,372950
14,775167	0,5	0,433700
14,783500	0,5	0,495850
14,791833	0,5	0,538300
14,800167	0,5	0,547200
14,808500	0,5	0,512200
14,816833	0,5	0,462100
14,825167	0,5	0,372200
14,833500	0,5	0,310300
14,841833	0,5	0,256000
14,850167	0,5	0,206350
14,858500	0,5	0,158000
14,866833	0,5	0,118550
14,875167	0,5	0,100600
14,883500	0,5	0,097650
14,891833	0,5	0,086700
14,900167	0,5	0,089500
14,908500	0,5	0,085050
14,916833	0,5	0,095500
14,925167	0,5	0,093600
14,933500	0,5	0,117100
14,941833	0,5	0,123950
14,950167	0,5	0,114650
14,958500	0,5	0,113850
14,966833	0,5	0,100700
14,975167	0,5	0,079900
14,983500	0,5	0,078350
14,991833	0,5	0,071050
15,000167	0,5	0,055850
15,008500	0,5	0,035700
15,016833	0,5	0,006250
15,025167	0,5	-0,010900
15,033500	0,5	-0,033700
15,041833	0,5	-0,045500
15,050167	0,5	-0,064400
15,058500	0,5	-0,078100
15,066833	0,5	-0,090200
15,075167	0,5	-0,101900
15,083500	0,5	-0,110200
15,091833	0,5	-0,112350
15,100167	0,5	-0,121650
15,108500	0,5	-0,119800
15,116833	0,5	-0,134550
15,125167	0,5	-0,137950
15,133500	0,5	-0,134850
15,141833	0,5	-0,129900
15,150167	0,5	-0,121700
15,158500	0,5	-0,117350
15,166833	0,5	-0,090750
15,175167	0,5	-0,023100
15,183500	0,5	0,077300
15,191833	0,5	0,198900
15,200167	0,5	0,331050
15,208500	0,5	0,432150
15,216833	0,5	0,496300
15,225167	0,5	0,494400
15,233500	0,5	0,455650
15,241833	0,5	0,389700
15,250167	0,5	0,334950
15,258500	0,5	0,315050
15,266833	0,5	0,332250
15,275167	0,5	0,393450
15,283500	0,5	0,467600
15,291833	0,5	0,504850
15,300167	0,5	0,500950
15,308500	0,5	0,439300
15,316833	0,5	0,359900
15,325167	0,5	0,280750
15,333500	0,5	0,202050
15,341833	0,5	0,146850
15,350167	0,5	0,117600
15,358500	0,5	0,098850
15,366833	0,5	0,086900
15,375167	0,5	0,079000
15,383500	0,5	0,066450
15,391833	0,5	0,047050
15,400167	0,5	0,034500
15,408500	0,5	0,017450
15,416833	0,5	-0,008700
15,425167	0,5	-0,000500
15,433500	0,5	-0,003400
15,441833	0,5	-0,008200
15,450167	0,5	-0,019250
15,458500	0,5	-0,024350
15,466833	0,5	-0,022550
15,475167	0,5	-0,031450
15,483500	0,5	-0,052600
15,491833	0,5	-0,075650
15,500167	0,5	-0,099350
15,508500	0,5	-0,126350
15,516833	0,5	-0,143150
15,525167	0,5	-0,163050
15,533500	0,5	-0,183250
15,541833	0,5	-0,201400
15,550167	0,5	-0,199450
15,558500	0,5	-0,228250
15,566833	0,5	-0,232650
15,575167	0,5	-0,239200
15,583500	0,5	-0,242500
15,591833	0,5	-0,252700
15,600167	0,5	-0,264900
15,608500	0,5	-0,253250
15,616833	0,5	-0,206300
15,625167	0,5	-0,149750
15,633500	0,5	-0,058600
15,641833	0,5	0,072450
15,650167	0,5	0,209550
15,658500	0,5	0,324100
15,666833	0,5	0,386300
15,675167	0,5	0,390600
15,683500	0,5	0,354200
15,691833	0,5	0,320450
15,700167	0,5	0,308900
15,708500	0,5	0,317150
15,716833	0,5	0,359950
15,725167	0,5	0,399100
15,733500	0,5	0,389950
15,741833	0,5	0,342050
15,750167	0,5	0,249300
15,758500	0,5	0,168900
15,766833	0,5	0,086700
15,775167	0,5	0,013450
15,783500	0,5	-0,045900
15,791833	0,5	-0,092000
15,800167	0,5	-0,130050
15,808500	0,5	-0,151800
15,816833	0,5	-0,162700
15,825167	0,5	-0,168250
15,833500	0,5	-0,168800
15,841833	0,5	-0,160550
15,850167	0,5	-0,143150
15,858500	0,5	-0,162550
15,866833	0,5	-0,148500
15,875167	0,5	-0,161850
15,883500	0,5	-0,185600
15,891833	0,5	-0,221900
15,900167	0,5	-0,255000
15,908500	0,5	-0,278250
15,916833	0,5	-0,297800
15,925167	0,5	-0,325150
15,933500	0,5	-0,345650
15,941833	0,5	-0,364450
15,950167	0,5	-0,374600
15,958500	0,5	-0,388650
15,966833	0,5	-0,389950
15,975167	0,5	-0,398100
15,983500	0,5	-0,409850
15,991833	0,5	-0,400550
16,000167	0,5	-0,407950
16,008500	0,5	-0,396200
16,016833	0,5	-0,343550
16,025167	0,5	-0,279500
16,033500	0,5	-0,188900
16,041833	0,5	-0,068050
16,050167	0,5	0,069100
16,058500	0,5	0,195250
16,066833	0,5	0,268400
16,075167	0,5	0,303400
16,083500	0,5	0,302300
16,091833	0,5	0,302100
16,100167	0,5	0,307800
16,108500	0,5	0,336500
16,116833	0,5	0,339200
16,125167	0,5	0,310850
16,133500	0,5	0,255750
16,141833	0,5	0,167050
16,150167	0,5	0,063400
16,158500	0,5	-0,018450
16,166833	0,5	-0,078750
16,175167	0,5	-0,129900
16,183500	0,5	-0,172350
16,191833	0,5	-0,209650
16,200167	0,5	-0,221750
16,208500	0,5	-0,224150
16,216833	0,5	-0,211500
16,225167	0,5	-0,215450
16,233500	0,5	-0,218550
16,241833	0,5	-0,242050
16,250167	0,5	-0,247350
16,258500	0,5	-0,262400
16,266833	0,5	-0,278250
16,275167	0,5	-0,312300
16,283500	0,5	-0,325850
16,291833	0,5	-0,364200
16,300167	0,5	-0,390650
16,308500	0,5	-0,405900
16,316833	0,5	-0,428150
16,325167	0,5	-0,444150
16,333500	0,5	-0,480950
16,341833	0,5	-0,512100
16,350167	0,5	-0,519300
16,358500	0,5	-0,506150
16,366833	0,5	-0,510250
16,375167	0,5	-0,490300
16,383500	0,5	-0,460500
16,391833	0,5	-0,389950
16,400167	0,5	-0,296100
16,408500	0,5	-0,160450
16,416833	0,5	-0,026050
16,425167	0,5	0,106750
16,433500	0,5	0,195300
16,441833	0,5	0,208150
16,450167	0,5	0,213000
16,458500	0,5	0,224700
16,466833	0,5	0,217100
16,475167	0,5	0,206850
16,483500	0,5	0,149150
16,491833	0,5	0,097850
16,500167	0,5	0,042900
16,508500	0,5	-0,021850
16,516833	0,5	-0,077200
16,525167	0,5	-0,111800
16,533500	0,5	-0,120950
16,541833	0,5	-0,127400
16,550167	0,5	-0,108900
16,558500	0,5	-0,092650
16,566833	0,5	-0,079800
16,575167	0,5	-0,074850
16,583500	0,5	-0,066000
16,591833	0,5	-0,098600
16,600167	0,5	-0,103650
16,608500	0,5	-0,119900
16,616833	0,5	-0,155500
16,625167	0,5	-0,186250
16,633500	0,5	-0,225550
16,641833	0,5	-0,239900
16,650167	0,5	-0,244700
16,658500	0,5	-0,245300
16,666833	0,5	-0,240050
16,675167	0,5	-0,238250
16,683500	0,5	-0,242900
16,691833	0,5	-0,252100
16,700167	0,5	-0,262050
16,708500	0,5	-0,255600
16,716833	0,5	-0,244600
16,725167	0,5	-0,185800
16,733500	0,5	-0,112550
16,741833	0,5	-0,028950
16,750167	0,5	0,075350
16,758500	0,5	0,148050
16,766833	0,5	0,166200
16,775167	0,5	0,167200
16,783500	0,5	0,139950
16,791833	0,5	0,136250
16,800167	0,5	0,109200
16,808500	0,5	0,065550
16,816833	0,5	-0,005650
16,825167	0,5	-0,076350
16,833500	0,5	-0,142950
16,841833	0,5	-0,207850
16,850167	0,5	-0,248350
16,858500	0,5	-0,282450
16,866833	0,5	-0,291550
16,875167	0,5	-0,302950
16,883500	0,5	-0,316900
16,891833	0,5	-0,315150
16,900167	0,5	-0,318700
16,908500	0,5	-0,327950
16,916833	0,5	-0,348400
16,925167	0,5	-0,377350
16,933500	0,5	-0,392100
16,941833	0,5	-0,410900
16,950167	0,5	-0,421800
16,958500	0,5	-0,447950
16,966833	0,5	-0,454900
16,975167	0,5	-0,469800
16,983500	0,5	-0,468850
16,991833	0,5	-0,460950
17,000167	0,5	-0,445200
17,008500	0,5	-0,411250
17,016833	0,5	-0,364750
17,025167	0,5	-0,272150
17,033500	0,5	-0,174900
17,041833	0,5	-0,023800
17,050167	0,5	0,112000
17,058500	0,5	0,251050
17,066833	0,5	0,373250
17,075167	0,5	0,485650
17,083500	0,5	0,616100
17,091833	0,5	0,760500
17,100167	0,5	0,903500
17,108500	0,5	1,041650
17,116833	0,5	1,159150
17,125167	0,5	1,282300
17,133500	0,5	1,372350
17,141833	0,5	1,456100
17,150167	0,5	1,521350
17,158500	0,5	1,580950
17,166833	0,5	1,650800
17,175167	0,5	1,715350
17,183500	0,5	1,769600
17,191833	0,5	1,839900
17,200167	0,5	1,890500
17,208500	0,5	1,908700
17,216833	0,5	1,884550
17,225167	0,5	1,800850
17,233500	0,5	1,703600
17,241833	0,5	1,549700
17,250167	0,5	1,370450
17,258500	0,5	1,183700
17,266833	0,5	1,002100
17,275167	0,5	0,828650
17,283500	0,5	0,696500
17,291833	0,5	0,588400
17,300167	0,5	0,528750
17,308500	0,5	0,507800
17,316833	0,5	0,524200
17,325167	0,5	0,538200
17,333500	0,5	0,566050
17,341833	0,5	0,582250
17,350167	0,5	0,552650
17,358500	0,5	0,526300
17,366833	0,5	0,481200
17,375167	0,5	0,442100
17,383500	0,5	0,393050
17,391833	0,5	0,358800
17,400167	0,5	0,327850
17,408500	0,5	0,331450
17,416833	0,5	0,333650
17,425167	0,5	0,358100
17,433500	0,5	0,371550
17,441833	0,5	0,388850
17,450167	0,5	0,390900
17,458500	0,5	0,401700
17,466833	0,5	0,401150
17,475167	0,5	0,391750
17,483500	0,5	0,393850
17,491833	0,5	0,381550
17,500167	0,5	0,340600
17,508500	0,5	0,281200
17,516833	0,5	0,219450
17,525167	0,5	0,159450
17,533500	0,5	0,121200
17,541833	0,5	0,083950
17,550167	0,5	0,069750
17,558500	0,5	0,076550
17,566833	0,5	0,101850
17,575167	0,5	0,123500
17,583500	0,5	0,135300
17,591833	0,5	0,121900
17,600167	0,5	0,091800
17,608500	0,5	0,048100
17,616833	0,5	-0,018600
17,625167	0,5	-0,096750
17,633500	0,5	-0,153850
17,641833	0,5	-0,213850
17,650167	0,5	-0,269000
17,658500	0,5	-0,333300
17,666833	0,5	-0,359150
17,675167	0,5	-0,373250
17,683500	0,5	-0,403850
17,691833	0,5	-0,422950
17,700167	0,5	-0,449250
17,708500	0,5	-0,455650
17,716833	0,5	-0,479800
17,725167	0,5	-0,486400
17,733500	0,5	-0,501850
17,741833	0,5	-0,511400
17,750167	0,5	-0,500500
17,758500	0,5	-0,479200
17,766833	0,5	-0,478850
17,775167	0,5	-0,408000
17,783500	0,5	-0,346750
17,791833	0,5	-0,287200
17,800167	0,5	-0,242250
17,808500	0,5	-0,236150
17,816833	0,5	-0,214600
17,825167	0,5	-0,222650
17,833500	0,5	-0,249350
17,841833	0,5	-0,289200
17,850167	0,5	-0,324850
17,858500	0,5	-0,371950
17,866833	0,5	-0,398450
17,875167	0,5	-0,421450
17,883500	0,5	-0,448500
17,891833	0,5	-0,467550
17,900167	0,5	-0,472950
17,908500	0,5	-0,490750
17,916833	0,5	-0,509150
17,925167	0,5	-0,503000
17,933500	0,5	-0,501500
17,941833	0,5	-0,501100
17,950167	0,5	-0,503500
17,958500	0,5	-0,516200
17,966833	0,5	-0,479700
17,975167	0,5	-0,426400
17,983500	0,5	-0,370000
17,991833	0,5	-0,312600
18,000167	0,5	-0,257500
18,008500	0,5	-0,228350
18,016833	0,5	-0,220200
18,025167	0,5	-0,225400
18,033500	0,5	-0,255000
18,041833	0,5	-0,289000
18,050167	0,5	-0,320750
18,058500	0,5	-0,364150
18,066833	0,5	-0,394950
18,075167	0,5	-0,395900
18,083500	0,5	-0,420500
18,091833	0,5	-0,440000
18,100167	0,5	-0,475800
18,108500	0,5	-0,497350
18,116833	0,5	-0,492950
18,125167	0,5	-0,492900
18,133500	0,5	-0,497150
18,141833	0,5	-0,483850
18,150167	0,5	-0,477100
18,158500	0,5	-0,452100
18,166833	0,5	-0,408200
18,175167	0,5	-0,370150
18,183500	0,5	-0,325650
18,191833	0,5	-0,290800
18,200167	0,5	-0,273000
18,208500	0,5	-0,298500
18,216833	0,5	-0,319400
18,225167	0,5	-0,355100
18,233500	0,5	-0,400450
18,241833	0,5	-0,452350
18,250167	0,5	-0,498900
18,258500	0,5	-0,525400
18,266833	0,5	-0,540400
18,275167	0,5	-0,554300
18,283500	0,5	-0,559800
18,291833	0,5	-0,574300
18,300167	0,5	-0,585200
18,308500	0,5	-0,586350
18,316833	0,5	-0,586800
18,325167	0,5	-0,574900
18,333500	0,5	-0,555050
18,341833	0,5	-0,525850
18,350167	0,5	-0,501550
18,358500	0,5	-0,483000
18,366833	0,5	-0,469250
18,375167	0,5	-0,470050
18,383500	0,5	-0,498400
18,391833	0,5	-0,546300
18,400167	0,5	-0,586350
18,408500	0,5	-0,611650
18,416833	0,5	-0,638500
18,425167	0,5	-0,651300
18,433500	0,5	-0,671350
18,441833	0,5	-0,682300
18,450167	0,5	-0,694750
18,458500	0,5	-0,707150
18,466833	0,5	-0,709850
18,475167	0,5	-0,717350
18,483500	0,5	-0,705850
18,491833	0,5	-0,698200
18,500167	0,5	-0,707700
18,508500	0,5	-0,687750
18,516833	0,5	-0,666700
18,525167	0,5	-0,662600
18,533500	0,5	-0,661300
18,541833	0,5	-0,704650
18,550167	0,5	-0,707500
18,558500	0,5	-0,735550
18,566833	0,5	-0,753450
18,575167	0,5	-0,780900
18,583500	0,5	-0,788250
18,591833	0,5	-0,809000
18,600167	0,5	-0,817500
18,608500	0,5	-0,823650
18,616833	0,5	-0,828200
18,625167	0,5	-0,838150
18,633500	0,5	-0,834350
18,641833	0,5	-0,836200
18,650167	0,5	-0,844250
18,658500	0,5	-0,824400
18,666833	0,5	-0,801050
18,675167	0,5	-0,784200
18,683500	0,5	-0,776550
18,691833	0,5	-0,783800
18,700167	0,5	-0,782700
18,708500	0,5	-0,783200
18,716833	0,5	-0,802300
18,725167	0,5	-0,798550
18,733500	0,5	-0,798550
18,741833	0,5	-0,785800
18,750167	0,5	-0,787750
18,758500	0,5	-0,766850
18,766833	0,5	-0,770400
18,775167	0,5	-0,756100
18,783500	0,5	-0,720950
18,791833	0,5	-0,694650
18,800167	0,5	-0,668500
18,808500	0,5	-0,638200
18,816833	0,5	-0,609650
18,825167	0,5	-0,621200
18,833500	0,5	-0,643050
18,841833	0,5	-0,669350
18,850167	0,5	-0,670300
18,858500	0,5	-0,694800
18,866833	0,5	-0,710950
18,875167	0,5	-0,730200
18,883500	0,5	-0,722000
18,891833	0,5	-0,728300
18,900167	0,5	-0,709650
18,908500	0,5	-0,706200
18,916833	0,5	-0,690650
18,925167	0,5	-0,668500
18,933500	0,5	-0,644200
18,941833	0,5	-0,660150
18,950167	0,5	-0,654650
18,958500	0,5	-0,672300
18,966833	0,5	-0,703800
18,975167	0,5	-0,753350
18,983500	0,5	-0,801050
18,991833	0,5	-0,808450
19,000167	0,5	-0,820500
19,008500	0,5	-0,831350
19,016833	0,5	-0,848900
19,025167	0,5	-0,847100
19,033500	0,5	-0,856100
19,041833	0,5	-0,849350
19,050167	0,5	-0,856600
19,058500	0,5	-0,854500
19,066833	0,5	-0,876700
19,075167	0,5	-0,885450
19,083500	0,5	-0,890200
19,091833	0,5	-0,911800
19,100167	0,5	-0,914200
19,108500	0,5	-0,927550
19,116833	0,5	-0,946500
19,125167	0,5	-0,978300
19,133500	0,5	-1,013950
19,141833	0,5	-1,022200
19,150167	0,5	-1,022650
19,158500	0,5	-1,033150
19,166833	0,5	-1,042750
19,175167	0,5	-1,060600
19,183500	0,5	-1,070550
19,191833	0,5	-1,094000
19,200167	0,5	-1,102200
19,208500	0,5	-1,127550
19,216833	0,5	-1,142000
19,225167	0,5	-1,140800
19,233500	0,5	-1,149650
19,241833	0,5	-1,157600
19,250167	0,5	-1,154050
19,258500	0,5	-1,164750
19,266833	0,5	-1,180450
19,275167	0,5	-1,216300
19,283500	0,5	-1,242900
19,291833	0,5	-1,245550
19,300167	0,5	-1,250650
19,308500	0,5	-1,258450
19,316833	0,5	-1,259250
19,325167	0,5	-1,261700
19,333500	0,5	-1,270900
19,341833	0,5	-1,271750
19,350167	0,5	-1,281700
19,358500	0,5	-1,290850
19,366833	0,5	-1,290600
19,375167	0,5	-1,296600
19,383500	0,5	-1,319750
19,391833	0,5	-1,316850
19,400167	0,5	-1,320050
19,408500	0,5	-1,329650
19,416833	0,5	-1,350050
19,425167	0,5	-1,372150
19,433500	0,5	-1,373300
19,441833	0,5	-1,367100
19,450167	0,5	-1,370300
19,458500	0,5	-1,373300
19,466833	0,5	-1,377100
19,475167	0,5	-1,397750
19,483500	0,5	-1,397400
19,491833	0,5	-1,400750
19,500167	0,5	-1,402250
19,508500	0,5	-1,409550
19,516833	0,5	-1,402700
19,525167	0,5	-1,426950
19,533500	0,5	-1,444050
19,541833	0,5	-1,448500
19,550167	0,5	-1,458600
19,558500	0,5	-1,477200
19,566833	0,5	-1,510800
19,575167	0,5	-1,536400
19,583500	0,5	-1,542250
19,591833	0,5	-1,542500
19,600167	0,5	-1,553900
19,608500	0,5	-1,561600
19,616833	0,5	-1,564350
19,625167	0,5	-1,576350
19,633500	0,5	-1,581350
19,641833	0,5	-1,586700
19,650167	0,5	-1,592850
19,658500	0,5	-1,585100
19,666833	0,5	-1,578050
19,675167	0,5	-1,600600
19,683500	0,5	-1,597450
19,691833	0,5	-1,592400
19,700167	0,5	-1,606100
19,708500	0,5	-1,619550
19,716833	0,5	-1,664500
19,725167	0,5	-1,672250
19,733500	0,5	-1,685950
19,741833	0,5	-1,687100
19,750167	0,5	-1,701000
19,758500	0,5	-1,711400
19,766833	0,5	-1,727350
19,775167	0,5	-1,754250
19,783500	0,5	-1,762550
19,791833	0,5	-1,787250
19,800167	0,5	-1,794800
19,808500	0,5	-1,813750
19,816833	0,5	-1,819100
19,825167	0,5	-1,854050
19,833500	0,5	-1,847950
19,841833	0,5	-1,861150
19,850167	0,5	-1,875100
19,858500	0,5	-1,907100
19,866833	0,5	-1,943150
19,875167	0,5	-1,941150
19,883500	0,5	-1,944350
19,891833	0,5	-1,958800
19,900167	0,5	-1,960800
19,908500	0,5	-1,975550
19,916833	0,5	-1,981250
19,925167	0,5	-1,991300
19,933500	0,5	-2,007100
19,941833	0,5	-2,010000
19,950167	0,5	-2,012550
19,958500	0,5	-2,000050
19,966833	0,5	-2,010250
19,975167	0,5	-2,022550
19,983500	0,5	-2,034600
19,991833	0,5	-2,043000
20,000167	0,5	-2,068750
20,008500	0,5	-2,103650
20,016833	0,5	-2,125450
20,025167	0,5	-2,130100
20,033500	0,5	-2,146200
20,041833	0,5	-2,155500
20,050167	0,5	-2,178350
20,058500	0,5	-2,188400
20,066833	0,5	-2,208050
20,075167	0,5	-2,214350
20,083500	0,5	-2,237200
20,091833	0,5	-2,254200
20,100167	0,5	-2,251550
20,108500	0,5	-2,257700
20,116833	0,5	-2,283200
20,125167	0,5	-2,289250
20,133500	0,5	-2,295950
20,141833	0,5	-2,317350
20,150167	0,5	-2,334650
20,158500	0,5	-2,374500
20,166833	0,5	-2,375550
20,175167	0,5	-2,381000
20,183500	0,5	-2,389900
20,191833	0,5	-2,393100
20,200167	0,5	-2,387600
20,208500	0,5	-2,395050
20,216833	0,5	-2,398250
20,225167	0,5	-2,405450
20,233500	0,5	-2,417350
20,241833	0,5	-2,425550
20,250167	0,5	-2,428000
20,258500	0,5	-2,443600
20,266833	0,5	-2,464050
20,275167	0,5	-2,462500
20,283500	0,5	-2,485250
20,291833	0,5	-2,505700
20,300167	0,5	-2,536700
20,308500	0,5	-2,559000
20,316833	0,5	-2,575200
20,325167	0,5	-2,574950
20,333500	0,5	-2,598150
20,341833	0,5	-2,609950
20,350167	0,5	-2,627700
20,358500	0,5	-2,652850
20,366833	0,5	-2,672950
20,375167	0,5	-2,690200
20,383500	0,5	-2,718600
20,391833	0,5	-2,736400
20,400167	0,5	-2,735700
20,408500	0,5	-2,761350
20,416833	0,5	-2,779450
20,425167	0,5	-2,800550
20,433500	0,5	-2,822250
20,441833	0,5	-2,852450
20,450167	0,5	-2,896150
20,458500	0,5	-2,924400
20,466833	0,5	-2,929850
20,475167	0,5	-2,956150
20,483500	0,5	-2,974750
20,491833	0,5	-3,000100
20,500167	0,5	-3,016950
20,508500	0,5	-3,038150
20,516833	0,5	-3,049650
20,525167	0,5	-3,063000
20,533500	0,5	-3,079200
20,541833	0,5	-3,046850
20,550167	0,5	-3,041300
20,558500	0,5	-3,059100
20,566833	0,5	-3,079200
20,575167	0,5	-3,115450
20,583500	0,5	-3,182150
20,591833	0,5	-3,254150
20,600167	0,5	-3,311850
20,608500	0,5	-3,344000
20,616833	0,5	-3,382950
20,625167	0,5	-3,411500
20,633500	0,5	-3,453750
20,641833	0,5	-3,474150
20,650167	0,5	-3,519100
20,658500	0,5	-3,552850
20,666833	0,5	-3,588500
20,675167	0,5	-3,620350
20,683500	0,5	-3,639500
20,691833	0,5	-3,640050
20,700167	0,5	-3,655950
20,708500	0,5	-3,650900
20,716833	0,5	-3,644350
20,725167	0,5	-3,638300
20,733500	0,5	-3,641800
20,741833	0,5	-3,688850
20,750167	0,5	-3,718900
20,758500	0,5	-3,782950
20,766833	0,5	-3,839250
20,775167	0,5	-3,914550
20,783500	0,5	-3,968900
20,791833	0,5	-4,044500
20,800167	0,5	-4,097100
20,808500	0,5	-4,140750
20,816833	0,5	-4,192650
20,825167	0,5	-4,238500
20,833500	0,5	-4,258050
20,841833	0,5	-4,279850
20,850167	0,5	-4,329450
20,858500	0,5	-4,369700
20,866833	0,5	-4,412850
20,875167	0,5	-4,450200
20,883500	0,5	-4,497850
20,891833	0,5	-4,553600
20,900167	0,5	-4,573200
20,908500	0,5	-4,586850
20,916833	0,5	-4,637000
20,925167	0,5	-4,660250
20,933500	0,5	-4,720550
20,941833	0,5	-4,756200
20,950167	0,5	-4,808050
20,958500	0,5	-4,842800
20,966833	0,5	-4,892450
20,975167	0,5	-4,929350
20,983500	0,5	-4,929100
20,991833	0,5	-4,943450
21,000167	0,5	-4,993500
21,008500	0,5	-5,025050
21,016833	0,5	-5,054150
21,025167	0,5	-5,091800
21,033500	0,5	-5,138350
21,041833	0,5	-5,175100
21,050167	0,5	-5,185550
21,058500	0,5	-5,220150
21,066833	0,5	-5,257750
21,075167	0,5	-5,293400
21,083500	0,5	-5,327950
21,091833	0,5	-5,368650
21,100167	0,5	-5,408000
21,108500	0,5	-5,443550
21,116833	0,5	-5,473500
21,125167	0,5	-5,486650
21,133500	0,5	-5,489150
21,141833	0,5	-5,521650
21,150167	0,5	-5,555550
21,158500	0,5	-5,584500
21,166833	0,5	-5,618300
21,175167	0,5	-5,667750
21,183500	0,5	-5,719750
21,191833	0,5	-5,735500
21,200167	0,5	-5,770950
21,208500	0,5	-5,778000
21,216833	0,5	-5,804500
21,225167	0,5	-5,811150
21,233500	0,5	-5,836800
21,241833	0,5	-5,847850
21,250167	0,5	-5,869800
21,258500	0,5	-5,894750
21,266833	0,5	-5,909350
21,275167	0,5	-5,881500
21,283500	0,5	-5,873600
21,291833	0,5	-5,877050
21,300167	0,5	-5,883400
21,308500	0,5	-5,911700
21,316833	0,5	-5,935650
21,325167	0,5	-5,992600
21,333500	0,5	-6,042700
21,341833	0,5	-6,080050
21,350167	0,5	-6,092300
21,358500	0,5	-6,110350
21,366833	0,5	-6,125750
21,375167	0,5	-6,152950
21,383500	0,5	-6,178400
21,391833	0,5	-6,190750
21,400167	0,5	-6,204450
21,408500	0,5	-6,230900
21,416833	0,5	-6,223100
21,425167	0,5	-6,213350
21,433500	0,5	-6,223300
21,441833	0,5	-6,237750
21,450167	0,5	-6,259800
21,458500	0,5	-6,279900
21,466833	0,5	-6,333650
21,475167	0,5	-6,369850
21,483500	0,5	-6,397250
21,491833	0,5	-6,409950
21,500167	0,5	-6,435000
21,508500	0,5	-6,446900
21,516833	0,5	-6,462050
21,525167	0,5	-6,468400
21,533500	0,5	-6,489650
21,541833	0,5	-6,496100
21,550167	0,5	-6,516600
21,558500	0,5	-6,531150
21,566833	0,5	-6,522600
21,575167	0,5	-6,514250
21,583500	0,5	-6,544650
21,591833	0,5	-6,555400
21,600167	0,5	-6,572400
21,608500	0,5	-6,610550
21,616833	0,5	-6,637350
21,625167	0,5	-6,650950
21,633500	0,5	-6,648900
21,641833	0,5	-6,650050
21,650167	0,5	-6,632850
21,658500	0,5	-6,632950
21,666833	0,5	-6,612550
21,675167	0,5	-6,616350
21,683500	0,5	-6,619400
21,691833	0,5	-6,639200
21,700167	0,5	-6,669850
21,708500	0,5	-6,676200
21,716833	0,5	-6,673450
21,725167	0,5	-6,680900
21,733500	0,5	-6,680950
21,741833	0,5	-6,682000
21,750167	0,5	-6,707050
21,758500	0,5	-6,722300
21,766833	0,5	-6,780050
21,775167	0,5	-6,770100
21,783500	0,5	-6,795050
21,791833	0,5	-6,802300
21,800167	0,5	-6,821450
21,808500	0,5	-6,823450
21,816833	0,5	-6,832950
21,825167	0,5	-6,835950
21,833500	0,5	-6,831050
21,841833	0,5	-6,830050
21,850167	0,5	-6,831950
21,858500	0,5	-6,802850
21,866833	0,5	-6,810750
21,875167	0,5	-6,822350
21,883500	0,5	-6,836000
21,891833	0,5	-6,843950
21,900167	0,5	-6,865450
21,908500	0,5	-6,899650
21,916833	0,5	-6,897800
21,925167	0,5	-6,858300
21,933500	0,5	-6,809250
21,941833	0,5	-6,776650
21,950167	0,5	-6,756900
21,958500	0,5	-6,773050
21,966833	0,5	-6,801150
21,975167	0,5	-6,855700
21,983500	0,5	-6,894600
21,991833	0,5	-6,948950
22,000167	0,5	-6,978750
22,008500	0,5	-6,992950
22,016833	0,5	-7,055550
22,025167	0,5	-7,074200
22,033500	0,5	-7,104500
22,041833	0,5	-7,141600
22,050167	0,5	-7,181650
22,058500	0,5	-7,226850
22,066833	0,5	-7,242750
22,075167	0,5	-7,247250
22,083500	0,5	-7,283050
22,091833	0,5	-7,299800
22,100167	0,5	-7,315700
22,108500	0,5	-7,335400
22,116833	0,5	-7,366150
22,125167	0,5	-7,373450
22,133500	0,5	-7,398850
22,141833	0,5	-7,412850
22,150167	0,5	-7,421800
22,158500	0,5	-7,447650
22,166833	0,5	-7,466800
22,175167	0,5	-7,462550
22,183500	0,5	-7,484200
22,191833	0,5	-7,515150
22,200167	0,5	-7,529600
22,208500	0,5	-7,553650
22,216833	0,5	-7,551950
22,225167	0,5	-7,562950
22,233500	0,5	-7,556900
22,241833	0,5	-7,563750
22,250167	0,5	-7,558600
22,258500	0,5	-7,573250
22,266833	0,5	-7,560700
22,275167	0,5	-7,559650
22,283500	0,5	-7,562200
22,291833	0,5	-7,567600
22,300167	0,5	-7,575250
22,308500	0,5	-7,571250
22,316833	0,5	-7,541550
22,325167	0,5	-7,521350
22,333500	0,5	-7,514450
22,341833	0,5	-7,506450
22,350167	0,5	-7,500150
22,358500	0,5	-7,437950
22,366833	0,5	-7,365450
22,375167	0,5	-7,272550
22,383500	0,5	-7,230900
22,391833	0,5	-7,230450
22,400167	0,5	-7,276200
22,408500	0,5	-7,328950
22,416833	0,5	-7,388950
22,425167	0,5	-7,432300
22,433500	0,5	-7,464300
22,441833	0,5	-7,513250
22,450167	0,5	-7,541550
22,458500	0,5	-7,535650
22,466833	0,5	-7,532200
22,475167	0,5	-7,548450
22,483500	0,5	-7,548450
22,491833	0,5	-7,571450
22,500167	0,5	-7,576400
22,508500	0,5	-7,579550
22,516833	0,5	-7,562000
22,525167	0,5	-7,570000
22,533500	0,5	-7,539900
22,541833	0,5	-7,533350
22,550167	0,5	-7,512600
22,558500	0,5	-7,494600
22,566833	0,5	-7,457550
22,575167	0,5	-7,434400
22,583500	0,5	-7,432300
22,591833	0,5	-7,436000
22,600167	0,5	-7,413800
22,608500	0,5	-7,377950
22,616833	0,5	-7,360100
22,625167	0,5	-7,362900
22,633500	0,5	-7,366450
22,641833	0,5	-7,385550
22,650167	0,5	-7,391900
22,658500	0,5	-7,381800
22,666833	0,5	-7,382500
22,675167	0,5	-7,382600
22,683500	0,5	-7,382350
22,691833	0,5	-7,382250
22,700167	0,5	-7,390500
22,708500	0,5	-7,392350
22,716833	0,5	-7,394100
22,725167	0,5	-7,408850
22,733500	0,5	-7,471100
22,741833	0,5	-7,487650
22,750167	0,5	-7,461050
22,758500	0,5	-7,453250
22,766833	0,5	-7,446950
22,775167	0,5	-7,465850
22,783500	0,5	-7,495100
22,791833	0,5	-7,517900
22,800167	0,5	-7,510150
22,808500	0,5	-7,521150
22,816833	0,5	-7,533400
22,825167	0,5	-7,555550
22,833500	0,5	-7,566850
22,841833	0,5	-7,589700
22,850167	0,5	-7,613450
22,858500	0,5	-7,622100
22,866833	0,5	-7,640300
22,875167	0,5	-7,664050
22,883500	0,5	-7,756450
22,891833	0,5	-7,781650
22,900167	0,5	-7,762500
22,908500	0,5	-7,786550
22,916833	0,5	-7,811250
22,925167	0,5	-7,840050
22,933500	0,5	-7,842050
22,941833	0,5	-7,877800
22,950167	0,5	-7,902350
22,958500	0,5	-7,925300
22,966833	0,5	-7,920850
22,975167	0,5	-7,940350
22,983500	0,5	-7,934850
22,991833	0,5	-7,930250
23,000167	0,5	-7,915300
23,008500	0,5	-7,884850
23,016833	0,5	-7,857250
23,025167	0,5	-7,825450
23,033500	0,5	-7,814250
23,041833	0,5	-7,775650
23,050167	0,5	-7,780800
23,058500	0,5	-7,764750
23,066833	0,5	-7,719100
23,075167	0,5	-7,680400
23,083500	0,5	-7,631950
23,091833	0,5	-7,609450
23,100167	0,5	-7,577000
23,108500	0,5	-7,518500
23,116833	0,5	-7,464750
23,125167	0,5	-7,403950
23,133500	0,5	-7,338000
23,141833	0,5	-7,263000
23,150167	0,5	-7,202550
23,158500	0,5	-7,116700
23,166833	0,5	-7,022200
23,175167	0,5	-6,935250
23,183500	0,5	-6,842750
23,191833	0,5	-6,771450
23,200167	0,5	-6,736050
23,208500	0,5	-6,655850
23,216833	0,5	-6,574650
23,225167	0,5	-6,497350
23,233500	0,5	-6,420050
23,241833	0,5	-6,374650
23,250167	0,5	-6,287250
23,258500	0,5	-6,215950
23,266833	0,5	-6,133750
23,275167	0,5	-6,057400
23,283500	0,5	-5,962350
23,291833	0,5	-5,887850
23,300167	0,5	-5,790600
23,308500	0,5	-5,697200
23,316833	0,5	-5,585200
23,325167	0,5	-5,523450
23,333500	0,5	-5,410850
23,341833	0,5	-5,322800
23,350167	0,5	-5,266300
23,358500	0,5	-5,197250
23,366833	0,5	-5,108850
23,375167	0,5	-5,028850
23,383500	0,5	-4,964450
23,391833	0,5	-4,897950
23,400167	0,5	-4,822350
23,408500	0,5	-4,769450
23,416833	0,5	-4,704550
23,425167	0,5	-4,629900
23,433500	0,5	-4,561450
23,441833	0,5	-4,500550
23,450167	0,5	-4,425150
23,458500	0,5	-4,350600
23,466833	0,5	-4,338250
23,475167	0,5	-4,252600
23,483500	0,5	-4,133750
23,491833	0,5	-4,069800
23,500167	0,5	-4,024450
23,508500	0,5	-3,967950
23,516833	0,5	-3,905100
23,525167	0,5	-3,847850
23,533500	0,5	-3,813300
23,541833	0,5	-3,778250
23,550167	0,5	-3,730700
23,558500	0,5	-3,691400
23,566833	0,5	-3,648100
23,575167	0,5	-3,614000
23,583500	0,5	-3,569350
23,591833	0,5	-3,531900
23,600167	0,5	-3,488350
23,608500	0,5	-3,453550
23,616833	0,5	-3,555950
23,625167	0,5	-3,473550
23,633500	0,5	-3,381200
23,641833	0,5	-3,329000
23,650167	0,5	-3,292700
23,658500	0,5	-3,257500
23,666833	0,5	-3,221800
23,675167	0,5	-3,197600
23,683500	0,5	-3,165800
23,691833	0,5	-3,144100
23,700167	0,5	-3,114300
23,708500	0,5	-3,088850
23,716833	0,5	-3,061700
23,725167	0,5	-3,031600
23,733500	0,5	-3,031300
23,741833	0,5	-2,974150
23,750167	0,5	-2,946300
23,758500	0,5	-3,041450
23,766833	0,5	-3,037600
23,775167	0,5	-2,998850
23,783500	0,5	-2,905450
23,791833	0,5	-2,863300
23,800167	0,5	-2,834750
23,808500	0,5	-2,810400
23,816833	0,5	-2,801700
23,825167	0,5	-2,780050
23,833500	0,5	-2,757100
23,841833	0,5	-2,734000
23,850167	0,5	-2,715450
23,858500	0,5	-2,689350
23,866833	0,5	-2,666100
23,875167	0,5	-2,641250
23,883500	0,5	-2,612750
23,891833	0,5	-2,585850
23,900167	0,5	-2,572000
23,908500	0,5	-2,722150
23,916833	0,5	-2,707100
23,925167	0,5	-2,628900
23,933500	0,5	-2,556600
23,941833	0,5	-2,501750
23,950167	0,5	-2,470050
23,958500	0,5	-2,447350
23,966833	0,5	-2,446150
23,975167	0,5	-2,407450
23,983500	0,5	-2,386650
23,991833	0,5	-2,356350
24,000167	0,5	-2,340250
24,008500	0,5	-2,315700
24,016833	0,5	-2,298850
24,025167	0,5	-2,274800
24,033500	0,5	-2,250250
24,041833	0,5	-2,230050
24,050167	0,5	-2,291200
24,058500	0,5	-2,377250
24,066833	0,5	-2,345250
24,075167	0,5	-2,262300
24,083500	0,5	-2,205950
24,091833	0,5	-2,161550
24,100167	0,5	-2,134950
24,108500	0,5	-2,124000
24,116833	0,5	-2,102350
24,125167	0,5	-2,071750
24,133500	0,5	-2,033350
24,141833	0,5	-2,011450
24,150167	0,5	-1,977900
24,158500	0,5	-1,951350
24,166833	0,5	-1,921750
24,175167	0,5	-1,896000
24,183500	0,5	-1,868750
24,191833	0,5	-1,845900
24,200167	0,5	-1,975400
24,208500	0,5	-1,943600
24,216833	0,5	-1,928650
24,225167	0,5	-1,857650
24,233500	0,5	-1,812600
24,241833	0,5	-1,777500
24,250167	0,5	-1,761250
24,258500	0,5	-1,756100
24,266833	0,5	-1,736400
24,275167	0,5	-1,706100
24,283500	0,5	-1,687700
24,291833	0,5	-1,657800
24,300167	0,5	-1,636650
24,308500	0,5	-1,606800
24,316833	0,5	-1,592950
24,325167	0,5	-1,562350
24,333500	0,5	-1,537550
24,341833	0,5	-1,529050
24,350167	0,5	-1,637750
24,358500	0,5	-1,592800
24,366833	0,5	-1,560300
24,375167	0,5	-1,495350
24,383500	0,5	-1,464600
24,391833	0,5	-1,433050
24,400167	0,5	-1,423050
24,408500	0,5	-1,421500
24,416833	0,5	-1,399900
24,425167	0,5	-1,382850
24,433500	0,5	-1,357000
24,441833	0,5	-1,335850
24,450167	0,5	-1,311100
24,458500	0,5	-1,298950
24,466833	0,5	-1,279650
24,475167	0,5	-1,259300
24,483500	0,5	-1,239750
24,491833	0,5	-1,281000
24,500167	0,5	-1,314000
24,508500	0,5	-1,286950
24,516833	0,5	-1,252250
24,525167	0,5	-1,216900
24,533500	0,5	-1,187800
24,541833	0,5	-1,176150
24,550167	0,5	-1,167650
24,558500	0,5	-1,163500
24,566833	0,5	-1,138400
24,575167	0,5	-1,120850
24,583500	0,5	-1,102000
24,591833	0,5	-1,083000
24,600167	0,5	-1,064900
24,608500	0,5	-1,047000
24,616833	0,5	-1,025550
24,625167	0,5	-1,009450
24,633500	0,5	-0,995550
24,641833	0,5	-1,050100
24,650167	0,5	-1,045250
24,658500	0,5	-1,018950
24,666833	0,5	-0,992950
24,675167	0,5	-0,963000
24,683500	0,5	-0,949250
24,691833	0,5	-0,938400
24,700167	0,5	-0,943300
24,708500	0,5	-0,933000
24,716833	0,5	-0,924850
24,725167	0,5	-0,911950
24,733500	0,5	-0,904000
24,741833	0,5	-0,890300
24,750167	0,5	-0,878300
24,758500	0,5	-0,866850
24,766833	0,5	-0,850550
24,775167	0,5	-0,839100
24,783500	0,5	-0,830550
24,791833	0,5	-0,873100
24,800167	0,5	-0,850150
24,808500	0,5	-0,826000
24,816833	0,5	-0,804000
24,825167	0,5	-0,785600
24,833500	0,5	-0,772750
24,841833	0,5	-0,772300
24,850167	0,5	-0,767100
24,858500	0,5	-0,755850
24,866833	0,5	-0,742550
24,875167	0,5	-0,738100
24,883500	0,5	-0,725600
24,891833	0,5	-0,723100
24,900167	0,5	-0,719750
24,908500	0,5	-0,713550
24,916833	0,5	-0,708150
24,925167	0,5	-0,705350
24,933500	0,5	-0,723400
24,941833	0,5	-0,719950
24,950167	0,5	-0,722550
24,958500	0,5	-0,699800
24,966833	0,5	-0,688000
24,975167	0,5	-0,672800
24,983500	0,5	-0,665700
24,991833	0,5	-0,665100
25,000167	0,5	-0,657000
25,008500	0,5	-0,644900
25,016833	0,5	-0,641050
25,025167	0,5	-0,632550
25,033500	0,5	-0,628000
25,041833	0,5	-0,618400
25,050167	0,5	-0,612600
25,058500	0,5	-0,608350
25,066833	0,5	-0,601400
25,075167	0,5	-0,606350
25,083500	0,5	-0,618550
25,091833	0,5	-0,605650
25,100167	0,5	-0,605150
25,108500	0,5	-0,602050
25,116833	0,5	-0,599550
25,125167	0,5	-0,597650
25,133500	0,5	-0,594500
25,141833	0,5	-0,600650
25,150167	0,5	-0,590200
25,158500	0,5	-0,590100
25,166833	0,5	-0,584650
25,175167	0,5	-0,585900
25,183500	0,5	-0,570550
25,191833	0,5	-0,569100
25,200167	0,5	-0,561600
25,208500	0,5	-0,556400
25,216833	0,5	-0,550350
25,225167	0,5	-0,547300
25,233500	0,5	-0,549200
25,241833	0,5	-0,546050
25,250167	0,5	-0,538900
25,258500	0,5	-0,533950
25,266833	0,5	-0,532150
25,275167	0,5	-0,530100
25,283500	0,5	-0,530050
25,291833	0,5	-0,536850
25,300167	0,5	-0,534050
25,308500	0,5	-0,532550
25,316833	0,5	-0,533950
25,325167	0,5	-0,534850
25,333500	0,5	-0,533000
25,341833	0,5	-0,534550
25,350167	0,5	-0,532300
25,358500	0,5	-0,528950
25,366833	0,5	-0,526050
25,375167	0,5	-0,523500
25,383500	0,5	-0,489750
25,391833	0,5	-0,505950
25,400167	0,5	-0,502550
25,408500	0,5	-0,501350
25,416833	0,5	-0,500000
25,425167	0,5	-0,495150
25,433500	0,5	-0,495450
25,441833	0,5	-0,492150
25,450167	0,5	-0,491850
25,458500	0,5	-0,491600
25,466833	0,5	-0,491400
25,475167	0,5	-0,491850
25,483500	0,5	-0,493450
25,491833	0,5	-0,491900
25,500167	0,5	-0,491000
25,508500	0,5	-0,493550
25,516833	0,5	-0,493350
25,525167	0,5	-0,484100
25,533500	0,5	-0,485400
25,541833	0,5	-0,484350
25,550167	0,5	-0,495750
25,558500	0,5	-0,492200
25,566833	0,5	-0,491350
25,575167	0,5	-0,489200
25,583500	0,5	-0,483650
25,591833	0,5	-0,480600
25,600167	0,5	-0,482100
25,608500	0,5	-0,481450
25,616833	0,5	-0,481850
25,625167	0,5	-0,481000
25,633500	0,5	-0,479350
25,641833	0,5	-0,479900
25,650167	0,5	-0,479600
25,658500	0,5	-0,475550
25,666833	0,5	-0,474950
25,675167	0,5	-0,467350
25,683500	0,5	-0,461950
25,691833	0,5	-0,463300
25,700167	0,5	-0,473400
25,708500	0,5	-0,474700
25,716833	0,5	-0,475400
25,725167	0,5	-0,471700
25,733500	0,5	-0,467950
25,741833	0,5	-0,466050
25,750167	0,5	-0,469550
25,758500	0,5	-0,468850
25,766833	0,5	-0,468850
25,775167	0,5	-0,470150
25,783500	0,5	-0,469450
25,791833	0,5	-0,464700
25,800167	0,5	-0,460300
25,808500	0,5	-0,456400
25,816833	0,5	-0,451700
25,825167	0,5	-0,439700
25,833500	0,5	-0,431600
25,841833	0,5	-0,441750
25,850167	0,5	-0,451350
25,858500	0,5	-0,448850
25,866833	0,5	-0,446750
25,875167	0,5	-0,439450
25,883500	0,5	-0,431300
25,891833	0,5	-0,433900
25,900167	0,5	-0,435250
25,908500	0,5	-0,436250
25,916833	0,5	-0,439050
25,925167	0,5	-0,434000
25,933500	0,5	-0,429950
25,941833	0,5	-0,429550
25,950167	0,5	-0,422450
25,958500	0,5	-0,422600
25,966833	0,5	-0,410850
25,975167	0,5	-0,414750
25,983500	0,5	-0,391650
25,991833	0,5	-0,398800
26,000167	0,5	-0,403250
