File Path	chrom://chromeleon01/ikbm_chromeleon/2022/ICS-5000/ED1/Esteban/20220427_Cell_Amandas_mutants.seq/429.smp/ED_1.channel/ED_1.chm
Channel	ED_1

Injection Information:
Data Vault	ikbm_chromeleon
Injection	T24h_PASC_4a
Injection Number	22
Position	RB8
Comment	
Processing Method	Stop sequence after Cell Death
Instrument Method	ICS5000_PA200_FullNative_Ox_26min_ED1
Type	Unknown
Status	Finished
Injection Date	27.04.2022
Injection Time	22:55:20
Injection Volume (µl)	5,0
Dilution Factor	1,0000
Weight	1,0000

Chromatogram Data Information:
Time Min. (min)	0,000333
Time Max. (min)	26,000333
Data Points	3121
Detector	EDet1
Generating Data System	Chromeleon 7.2.9.11323
Exporting Data System	Chromeleon 7.2.9.0
Operator	Instrument Controller
Signal Quantity	
Signal Unit	nC
Signal Min.	-6,967400
Signal Max.	42,070801
Channel	ED_1
Driver Name	DC-5000
Channel Type	Evaluation
Min. Step (s)	0,5
Max. Step (s)	0,5
Average Step (s)	0,5

Signal Parameter Information:
Signal Info	

Chromatogram Data:
Time (min)	Step (s)	Value (nC)
0,000333	n.a.	-0,095500
0,008667	0,5	-0,099450
0,017000	0,5	-0,087650
0,025333	0,5	-0,077450
0,033667	0,5	-0,062600
0,042000	0,5	-0,045450
0,050333	0,5	-0,059150
0,058667	0,5	-0,062250
0,067000	0,5	-0,007100
0,075333	0,5	-0,047400
0,083667	0,5	-0,049650
0,092000	0,5	-0,027700
0,100333	0,5	-0,022950
0,108667	0,5	0,027900
0,117000	0,5	-0,004650
0,125333	0,5	-0,003350
0,133667	0,5	-0,015700
0,142000	0,5	-0,004400
0,150333	0,5	-0,011050
0,158667	0,5	-0,005050
0,167000	0,5	-0,017950
0,175333	0,5	-0,023000
0,183667	0,5	-0,023050
0,192000	0,5	-0,009050
0,200333	0,5	-0,043300
0,208667	0,5	-0,036950
0,217000	0,5	-0,028850
0,225333	0,5	-0,050400
0,233667	0,5	-0,051250
0,242000	0,5	-0,041150
0,250333	0,5	-0,015650
0,258667	0,5	0,018550
0,267000	0,5	0,008000
0,275333	0,5	-0,009300
0,283667	0,5	-0,007050
0,292000	0,5	-0,001850
0,300333	0,5	0,049950
0,308667	0,5	0,062450
0,317000	0,5	0,008550
0,325333	0,5	-0,033950
0,333667	0,5	-0,040550
0,342000	0,5	-0,046600
0,350333	0,5	-0,052050
0,358667	0,5	-0,045500
0,367000	0,5	-0,041400
0,375333	0,5	-0,065050
0,383667	0,5	-0,063100
0,392000	0,5	-0,038550
0,400333	0,5	-0,008700
0,408667	0,5	0,008250
0,417000	0,5	-0,017400
0,425333	0,5	-0,020600
0,433667	0,5	-0,017500
0,442000	0,5	-0,020800
0,450333	0,5	-0,030750
0,458667	0,5	-0,025050
0,467000	0,5	-0,040950
0,475333	0,5	-0,037900
0,483667	0,5	-0,040150
0,492000	0,5	-0,035950
0,500333	0,5	-0,045200
0,508667	0,5	-0,019150
0,517000	0,5	-0,044450
0,525333	0,5	-0,050400
0,533667	0,5	-0,051300
0,542000	0,5	-0,025300
0,550333	0,5	0,004650
0,558667	0,5	0,012150
0,567000	0,5	-0,002100
0,575333	0,5	0,000500
0,583667	0,5	-0,003050
0,592000	0,5	0,000950
0,600333	0,5	0,003800
0,608667	0,5	0,002400
0,617000	0,5	-0,005200
0,625333	0,5	-0,005850
0,633667	0,5	-0,001600
0,642000	0,5	-0,025400
0,650333	0,5	-0,011750
0,658667	0,5	-0,011350
0,667000	0,5	-0,025050
0,675333	0,5	-0,030650
0,683667	0,5	-0,017300
0,692000	0,5	0,024100
0,700333	0,5	0,045700
0,708667	0,5	0,031950
0,717000	0,5	0,035350
0,725333	0,5	0,029300
0,733667	0,5	0,032150
0,742000	0,5	0,024950
0,750333	0,5	0,030950
0,758667	0,5	0,024150
0,767000	0,5	0,019550
0,775333	0,5	0,024400
0,783667	0,5	0,013100
0,792000	0,5	0,015300
0,800333	0,5	0,048200
0,808667	0,5	0,036800
0,817000	0,5	0,018500
0,825333	0,5	0,020950
0,833667	0,5	0,025450
0,842000	0,5	0,069400
0,850333	0,5	0,060700
0,858667	0,5	0,056750
0,867000	0,5	0,045700
0,875333	0,5	0,058600
0,883667	0,5	0,048650
0,892000	0,5	0,065950
0,900333	0,5	0,061000
0,908667	0,5	0,061850
0,917000	0,5	0,058600
0,925333	0,5	0,068250
0,933667	0,5	0,066400
0,942000	0,5	0,052900
0,950333	0,5	0,094800
0,958667	0,5	0,064700
0,967000	0,5	0,053100
0,975333	0,5	0,056050
0,983667	0,5	0,070950
0,992000	0,5	0,117500
1,000333	0,5	0,115900
1,008667	0,5	0,094800
1,017000	0,5	0,100350
1,025333	0,5	0,095850
1,033667	0,5	0,099100
1,042000	0,5	0,096050
1,050333	0,5	0,100800
1,058667	0,5	0,096550
1,067000	0,5	0,098450
1,075333	0,5	0,108450
1,083667	0,5	0,101700
1,092000	0,5	0,101250
1,100333	0,5	0,141600
1,108667	0,5	0,113350
1,117000	0,5	0,112400
1,125333	0,5	0,116600
1,133667	0,5	0,141000
1,142000	0,5	0,174100
1,150333	0,5	0,153250
1,158667	0,5	0,152900
1,167000	0,5	0,152600
1,175333	0,5	0,155850
1,183667	0,5	0,156750
1,192000	0,5	0,179400
1,200333	0,5	0,181000
1,208667	0,5	0,173300
1,217000	0,5	0,176150
1,225333	0,5	0,187000
1,233667	0,5	0,175450
1,242000	0,5	0,194150
1,250333	0,5	0,200150
1,258667	0,5	0,189600
1,267000	0,5	0,186350
1,275333	0,5	0,204350
1,283667	0,5	0,239900
1,292000	0,5	0,282050
1,300333	0,5	0,272900
1,308667	0,5	0,270950
1,317000	0,5	0,273200
1,325333	0,5	0,270000
1,333667	0,5	0,270550
1,342000	0,5	0,276250
1,350333	0,5	0,285700
1,358667	0,5	0,281050
1,367000	0,5	0,297450
1,375333	0,5	0,296300
1,383667	0,5	0,297900
1,392000	0,5	0,328300
1,400333	0,5	0,329100
1,408667	0,5	0,311400
1,417000	0,5	0,324250
1,425333	0,5	0,338000
1,433667	0,5	0,378200
1,442000	0,5	0,392300
1,450333	0,5	0,382100
1,458667	0,5	0,378550
1,467000	0,5	0,388700
1,475333	0,5	0,387550
1,483667	0,5	0,398500
1,492000	0,5	0,407200
1,500333	0,5	0,403800
1,508667	0,5	0,410800
1,517000	0,5	0,406600
1,525333	0,5	0,419000
1,533667	0,5	0,415050
1,542000	0,5	0,438050
1,550333	0,5	0,416950
1,558667	0,5	0,415250
1,567000	0,5	0,385500
1,575333	0,5	0,245000
1,583667	0,5	-0,354750
1,592000	0,5	-1,344400
1,600333	0,5	-1,579200
1,608667	0,5	-0,181200
1,617000	0,5	1,742750
1,625333	0,5	3,334200
1,633667	0,5	4,844100
1,642000	0,5	6,291800
1,650333	0,5	7,256050
1,658667	0,5	7,497900
1,667000	0,5	7,208700
1,675333	0,5	6,664300
1,683667	0,5	6,097050
1,692000	0,5	5,550350
1,700333	0,5	5,065950
1,708667	0,5	4,764450
1,717000	0,5	4,775000
1,725333	0,5	5,070550
1,733667	0,5	5,250400
1,742000	0,5	4,915300
1,750333	0,5	4,308000
1,758667	0,5	3,748150
1,767000	0,5	3,475950
1,775333	0,5	3,664200
1,783667	0,5	4,741000
1,792000	0,5	7,026050
1,800333	0,5	9,875300
1,808667	0,5	12,042450
1,817000	0,5	12,886000
1,825333	0,5	12,231900
1,833667	0,5	10,571050
1,842000	0,5	8,728650
1,850333	0,5	7,270150
1,858667	0,5	6,229450
1,867000	0,5	5,502500
1,875333	0,5	5,000550
1,883667	0,5	4,566050
1,892000	0,5	4,220400
1,900333	0,5	3,916100
1,908667	0,5	3,685100
1,917000	0,5	3,491050
1,925333	0,5	3,351700
1,933667	0,5	3,253700
1,942000	0,5	3,213350
1,950333	0,5	3,190500
1,958667	0,5	3,184450
1,967000	0,5	3,183800
1,975333	0,5	3,210850
1,983667	0,5	3,267050
1,992000	0,5	3,284400
2,000333	0,5	3,331250
2,008667	0,5	3,408600
2,017000	0,5	3,582800
2,025333	0,5	4,001350
2,033667	0,5	4,654050
2,042000	0,5	5,362500
2,050333	0,5	6,014950
2,058667	0,5	6,615550
2,067000	0,5	7,115650
2,075333	0,5	7,400550
2,083667	0,5	7,521700
2,092000	0,5	7,573700
2,100333	0,5	7,646200
2,108667	0,5	7,779650
2,117000	0,5	8,021400
2,125333	0,5	8,438800
2,133667	0,5	9,222300
2,142000	0,5	10,514500
2,150333	0,5	12,016450
2,158667	0,5	12,650850
2,167000	0,5	12,031800
2,175333	0,5	10,865350
2,183667	0,5	9,830850
2,192000	0,5	9,163950
2,200333	0,5	8,756450
2,208667	0,5	8,490250
2,217000	0,5	8,326900
2,225333	0,5	8,240200
2,233667	0,5	8,189450
2,242000	0,5	8,183150
2,250333	0,5	8,198150
2,258667	0,5	8,255500
2,267000	0,5	8,279000
2,275333	0,5	8,352400
2,283667	0,5	8,397500
2,292000	0,5	8,445050
2,300333	0,5	8,505600
2,308667	0,5	8,589600
2,317000	0,5	8,685200
2,325333	0,5	8,781150
2,333667	0,5	8,845400
2,342000	0,5	8,931600
2,350333	0,5	9,013450
2,358667	0,5	9,093150
2,367000	0,5	9,179850
2,375333	0,5	9,270550
2,383667	0,5	9,358650
2,392000	0,5	9,451050
2,400333	0,5	9,558350
2,408667	0,5	9,663950
2,417000	0,5	9,826250
2,425333	0,5	10,034300
2,433667	0,5	10,197150
2,442000	0,5	10,300200
2,450333	0,5	10,343750
2,458667	0,5	10,395250
2,467000	0,5	10,494500
2,475333	0,5	10,577600
2,483667	0,5	10,645800
2,492000	0,5	10,690750
2,500333	0,5	10,722600
2,508667	0,5	10,727350
2,517000	0,5	10,742800
2,525333	0,5	10,754050
2,533667	0,5	10,791450
2,542000	0,5	10,877400
2,550333	0,5	11,035000
2,558667	0,5	11,309400
2,567000	0,5	11,802000
2,575333	0,5	12,675550
2,583667	0,5	14,174950
2,592000	0,5	16,545950
2,600333	0,5	19,664900
2,608667	0,5	22,961050
2,617000	0,5	25,635650
2,625333	0,5	27,147350
2,633667	0,5	27,304450
2,642000	0,5	26,316950
2,650333	0,5	24,522750
2,658667	0,5	22,432350
2,667000	0,5	20,457650
2,675333	0,5	20,449000
2,683667	0,5	17,677450
2,692000	0,5	17,139500
2,700333	0,5	17,280100
2,708667	0,5	18,270550
2,717000	0,5	20,316300
2,725333	0,5	23,438300
2,733667	0,5	27,589400
2,742000	0,5	32,540050
2,750333	0,5	37,454251
2,758667	0,5	41,030801
2,767000	0,5	42,070801
2,775333	0,5	40,310901
2,783667	0,5	36,546101
2,792000	0,5	31,922550
2,800333	0,5	27,491100
2,808667	0,5	23,845800
2,817000	0,5	21,294000
2,825333	0,5	19,937650
2,833667	0,5	19,951800
2,842000	0,5	21,312250
2,850333	0,5	23,475600
2,858667	0,5	25,340600
2,867000	0,5	25,891500
2,875333	0,5	24,710250
2,883667	0,5	22,337700
2,892000	0,5	19,555850
2,900333	0,5	16,939950
2,908667	0,5	14,764500
2,917000	0,5	13,000050
2,925333	0,5	11,636650
2,933667	0,5	10,580750
2,942000	0,5	9,752800
2,950333	0,5	9,080900
2,958667	0,5	8,541350
2,967000	0,5	8,078350
2,975333	0,5	7,680900
2,983667	0,5	7,328150
2,992000	0,5	7,024450
3,000333	0,5	6,751450
3,008667	0,5	6,504350
3,017000	0,5	6,284050
3,025333	0,5	6,045750
3,033667	0,5	5,835550
3,042000	0,5	5,660600
3,050333	0,5	5,491850
3,058667	0,5	5,356400
3,067000	0,5	5,180750
3,075333	0,5	5,009850
3,083667	0,5	4,857600
3,092000	0,5	4,709400
3,100333	0,5	4,564250
3,108667	0,5	4,433150
3,117000	0,5	4,313650
3,125333	0,5	4,217850
3,133667	0,5	4,144400
3,142000	0,5	4,103500
3,150333	0,5	4,087150
3,158667	0,5	4,110000
3,167000	0,5	4,190800
3,175333	0,5	4,343600
3,183667	0,5	4,695050
3,192000	0,5	5,341150
3,200333	0,5	6,374900
3,208667	0,5	7,687600
3,217000	0,5	9,015800
3,225333	0,5	10,040500
3,233667	0,5	10,441950
3,242000	0,5	10,100050
3,250333	0,5	9,166300
3,258667	0,5	7,936350
3,267000	0,5	6,681700
3,275333	0,5	5,602550
3,283667	0,5	4,761950
3,292000	0,5	4,149900
3,300333	0,5	3,673800
3,308667	0,5	3,336900
3,317000	0,5	3,036750
3,325333	0,5	2,806500
3,333667	0,5	2,612500
3,342000	0,5	2,465450
3,350333	0,5	2,356150
3,358667	0,5	2,254750
3,367000	0,5	2,136850
3,375333	0,5	2,058500
3,383667	0,5	1,979700
3,392000	0,5	1,906200
3,400333	0,5	1,839300
3,408667	0,5	1,783650
3,417000	0,5	1,712000
3,425333	0,5	1,648800
3,433667	0,5	1,593050
3,442000	0,5	1,528950
3,450333	0,5	1,480000
3,458667	0,5	1,433950
3,467000	0,5	1,370550
3,475333	0,5	1,321950
3,483667	0,5	1,284650
3,492000	0,5	1,259450
3,500333	0,5	1,251950
3,508667	0,5	1,208950
3,517000	0,5	1,166250
3,525333	0,5	1,124350
3,533667	0,5	1,096500
3,542000	0,5	1,060600
3,550333	0,5	1,033000
3,558667	0,5	1,001750
3,567000	0,5	0,977200
3,575333	0,5	0,950000
3,583667	0,5	0,929150
3,592000	0,5	0,902900
3,600333	0,5	0,896800
3,608667	0,5	0,875200
3,617000	0,5	0,831550
3,625333	0,5	0,810650
3,633667	0,5	0,783250
3,642000	0,5	0,790200
3,650333	0,5	0,783100
3,658667	0,5	0,763500
3,667000	0,5	0,735250
3,675333	0,5	0,716850
3,683667	0,5	0,693800
3,692000	0,5	0,677650
3,700333	0,5	0,665700
3,708667	0,5	0,649750
3,717000	0,5	0,625800
3,725333	0,5	0,616150
3,733667	0,5	0,609300
3,742000	0,5	0,599350
3,750333	0,5	0,604150
3,758667	0,5	0,581100
3,767000	0,5	0,555600
3,775333	0,5	0,550250
3,783667	0,5	0,543650
3,792000	0,5	0,565350
3,800333	0,5	0,559350
3,808667	0,5	0,541250
3,817000	0,5	0,527650
3,825333	0,5	0,511550
3,833667	0,5	0,498850
3,842000	0,5	0,484000
3,850333	0,5	0,482900
3,858667	0,5	0,465750
3,867000	0,5	0,464050
3,875333	0,5	0,460600
3,883667	0,5	0,460600
3,892000	0,5	0,447900
3,900333	0,5	0,467050
3,908667	0,5	0,443550
3,917000	0,5	0,430700
3,925333	0,5	0,426100
3,933667	0,5	0,429550
3,942000	0,5	0,444650
3,950333	0,5	0,423350
3,958667	0,5	0,411300
3,967000	0,5	0,406500
3,975333	0,5	0,397150
3,983667	0,5	0,386700
3,992000	0,5	0,389350
4,000333	0,5	0,376300
4,008667	0,5	0,371300
4,017000	0,5	0,366100
4,025333	0,5	0,364600
4,033667	0,5	0,340450
4,042000	0,5	0,349950
4,050333	0,5	0,341750
4,058667	0,5	0,325500
4,067000	0,5	0,308700
4,075333	0,5	0,310150
4,083667	0,5	0,312300
4,092000	0,5	0,334450
4,100333	0,5	0,314550
4,108667	0,5	0,313050
4,117000	0,5	0,309900
4,125333	0,5	0,300300
4,133667	0,5	0,294000
4,142000	0,5	0,290700
4,150333	0,5	0,281500
4,158667	0,5	0,280450
4,167000	0,5	0,284200
4,175333	0,5	0,288350
4,183667	0,5	0,277450
4,192000	0,5	0,281350
4,200333	0,5	0,273200
4,208667	0,5	0,259650
4,217000	0,5	0,264200
4,225333	0,5	0,264650
4,233667	0,5	0,292000
4,242000	0,5	0,287550
4,250333	0,5	0,284550
4,258667	0,5	0,276750
4,267000	0,5	0,280300
4,275333	0,5	0,273400
4,283667	0,5	0,275000
4,292000	0,5	0,275500
4,300333	0,5	0,270750
4,308667	0,5	0,273950
4,317000	0,5	0,281250
4,325333	0,5	0,290100
4,333667	0,5	0,285300
4,342000	0,5	0,302350
4,350333	0,5	0,294200
4,358667	0,5	0,292000
4,367000	0,5	0,291150
4,375333	0,5	0,310800
4,383667	0,5	0,336600
4,392000	0,5	0,353000
4,400333	0,5	0,352650
4,408667	0,5	0,373950
4,417000	0,5	0,382550
4,425333	0,5	0,403850
4,433667	0,5	0,411100
4,442000	0,5	0,434700
4,450333	0,5	0,447950
4,458667	0,5	0,467600
4,467000	0,5	0,476150
4,475333	0,5	0,467000
4,483667	0,5	0,457900
4,492000	0,5	0,459600
4,500333	0,5	0,430700
4,508667	0,5	0,409000
4,517000	0,5	0,403000
4,525333	0,5	0,400750
4,533667	0,5	0,412100
4,542000	0,5	0,392400
4,550333	0,5	0,377750
4,558667	0,5	0,356650
4,567000	0,5	0,349600
4,575333	0,5	0,333250
4,583667	0,5	0,329000
4,592000	0,5	0,316700
4,600333	0,5	0,314800
4,608667	0,5	0,307850
4,617000	0,5	0,303900
4,625333	0,5	0,287250
4,633667	0,5	0,307900
4,642000	0,5	0,299850
4,650333	0,5	0,285950
4,658667	0,5	0,291450
4,667000	0,5	0,300200
4,675333	0,5	0,326500
4,683667	0,5	0,338800
4,692000	0,5	0,348050
4,700333	0,5	0,338600
4,708667	0,5	0,343100
4,717000	0,5	0,339800
4,725333	0,5	0,345700
4,733667	0,5	0,344200
4,742000	0,5	0,340150
4,750333	0,5	0,338150
4,758667	0,5	0,340850
4,767000	0,5	0,325400
4,775333	0,5	0,330450
4,783667	0,5	0,349100
4,792000	0,5	0,339050
4,800333	0,5	0,327750
4,808667	0,5	0,335150
4,817000	0,5	0,344350
4,825333	0,5	0,386400
4,833667	0,5	0,388150
4,842000	0,5	0,380850
4,850333	0,5	0,378650
4,858667	0,5	0,380000
4,867000	0,5	0,383800
4,875333	0,5	0,377100
4,883667	0,5	0,389100
4,892000	0,5	0,385300
4,900333	0,5	0,396100
4,908667	0,5	0,395300
4,917000	0,5	0,398550
4,925333	0,5	0,397650
4,933667	0,5	0,425750
4,942000	0,5	0,409900
4,950333	0,5	0,408400
4,958667	0,5	0,413450
4,967000	0,5	0,430900
4,975333	0,5	0,452700
4,983667	0,5	0,446600
4,992000	0,5	0,443450
5,000333	0,5	0,454550
5,008667	0,5	0,453200
5,017000	0,5	0,470800
5,025333	0,5	0,482700
5,033667	0,5	0,484300
5,042000	0,5	0,482850
5,050333	0,5	0,483400
5,058667	0,5	0,498650
5,067000	0,5	0,486550
5,075333	0,5	0,504750
5,083667	0,5	0,517100
5,092000	0,5	0,516550
5,100333	0,5	0,520350
5,108667	0,5	0,544700
5,117000	0,5	0,584650
5,125333	0,5	0,620500
5,133667	0,5	0,631550
5,142000	0,5	0,659850
5,150333	0,5	0,675100
5,158667	0,5	0,702350
5,167000	0,5	0,716900
5,175333	0,5	0,722750
5,183667	0,5	0,721850
5,192000	0,5	0,712750
5,200333	0,5	0,715800
5,208667	0,5	0,688800
5,217000	0,5	0,657200
5,225333	0,5	0,657950
5,233667	0,5	0,644050
5,242000	0,5	0,612400
5,250333	0,5	0,604550
5,258667	0,5	0,606750
5,267000	0,5	0,623750
5,275333	0,5	0,616800
5,283667	0,5	0,604250
5,292000	0,5	0,595350
5,300333	0,5	0,601550
5,308667	0,5	0,593500
5,317000	0,5	0,596650
5,325333	0,5	0,596350
5,333667	0,5	0,598500
5,342000	0,5	0,599400
5,350333	0,5	0,600350
5,358667	0,5	0,599450
5,367000	0,5	0,597600
5,375333	0,5	0,610300
5,383667	0,5	0,605450
5,392000	0,5	0,603800
5,400333	0,5	0,613450
5,408667	0,5	0,629400
5,417000	0,5	0,652900
5,425333	0,5	0,661650
5,433667	0,5	0,666450
5,442000	0,5	0,676350
5,450333	0,5	0,671400
5,458667	0,5	0,678050
5,467000	0,5	0,669050
5,475333	0,5	0,674350
5,483667	0,5	0,669850
5,492000	0,5	0,680550
5,500333	0,5	0,681550
5,508667	0,5	0,673050
5,517000	0,5	0,675350
5,525333	0,5	0,687200
5,533667	0,5	0,679050
5,542000	0,5	0,684450
5,550333	0,5	0,694550
5,558667	0,5	0,722850
5,567000	0,5	0,743100
5,575333	0,5	0,739100
5,583667	0,5	0,740400
5,592000	0,5	0,747200
5,600333	0,5	0,750550
5,608667	0,5	0,754550
5,617000	0,5	0,760200
5,625333	0,5	0,760500
5,633667	0,5	0,769200
5,642000	0,5	0,776000
5,650333	0,5	0,767050
5,658667	0,5	0,757350
5,667000	0,5	0,775800
5,675333	0,5	0,776600
5,683667	0,5	0,774350
5,692000	0,5	0,783600
5,700333	0,5	0,791950
5,708667	0,5	0,822550
5,717000	0,5	0,831800
5,725333	0,5	0,838750
5,733667	0,5	0,836700
5,742000	0,5	0,856050
5,750333	0,5	0,854750
5,758667	0,5	0,862250
5,767000	0,5	0,861650
5,775333	0,5	0,867700
5,783667	0,5	0,870500
5,792000	0,5	0,878800
5,800333	0,5	0,870350
5,808667	0,5	0,873300
5,817000	0,5	0,891850
5,825333	0,5	0,891600
5,833667	0,5	0,889950
5,842000	0,5	0,904850
5,850333	0,5	0,920950
5,858667	0,5	0,950700
5,867000	0,5	0,953600
5,875333	0,5	0,962450
5,883667	0,5	0,963550
5,892000	0,5	0,969050
5,900333	0,5	0,966550
5,908667	0,5	0,975300
5,917000	0,5	0,978150
5,925333	0,5	0,978950
5,933667	0,5	0,984750
5,942000	0,5	0,986750
5,950333	0,5	0,989100
5,958667	0,5	0,993150
5,967000	0,5	1,005200
5,975333	0,5	0,999600
5,983667	0,5	1,001250
5,992000	0,5	1,010150
6,000333	0,5	1,031600
6,008667	0,5	1,046200
6,017000	0,5	1,044750
6,025333	0,5	1,041800
6,033667	0,5	1,054050
6,042000	0,5	1,051100
6,050333	0,5	1,070750
6,058667	0,5	1,069850
6,067000	0,5	1,080100
6,075333	0,5	1,078650
6,083667	0,5	1,089000
6,092000	0,5	1,095700
6,100333	0,5	1,088900
6,108667	0,5	1,109250
6,117000	0,5	1,111450
6,125333	0,5	1,110300
6,133667	0,5	1,106150
6,142000	0,5	1,119450
6,150333	0,5	1,148950
6,158667	0,5	1,166150
6,167000	0,5	1,159950
6,175333	0,5	1,167800
6,183667	0,5	1,171000
6,192000	0,5	1,176300
6,200333	0,5	1,178150
6,208667	0,5	1,190050
6,217000	0,5	1,187450
6,225333	0,5	1,192100
6,233667	0,5	1,204800
6,242000	0,5	1,201400
6,250333	0,5	1,196300
6,258667	0,5	1,226050
6,267000	0,5	1,221550
6,275333	0,5	1,222500
6,283667	0,5	1,231500
6,292000	0,5	1,244300
6,300333	0,5	1,274150
6,308667	0,5	1,274600
6,317000	0,5	1,278950
6,325333	0,5	1,278600
6,333667	0,5	1,287200
6,342000	0,5	1,292350
6,350333	0,5	1,304400
6,358667	0,5	1,313050
6,367000	0,5	1,321200
6,375333	0,5	1,320950
6,383667	0,5	1,330950
6,392000	0,5	1,339150
6,400333	0,5	1,343700
6,408667	0,5	1,354850
6,417000	0,5	1,345800
6,425333	0,5	1,354250
6,433667	0,5	1,359650
6,442000	0,5	1,373450
6,450333	0,5	1,395950
6,458667	0,5	1,405500
6,467000	0,5	1,404900
6,475333	0,5	1,411850
6,483667	0,5	1,407900
6,492000	0,5	1,412450
6,500333	0,5	1,409500
6,508667	0,5	1,417300
6,517000	0,5	1,417400
6,525333	0,5	1,427750
6,533667	0,5	1,429050
6,542000	0,5	1,434350
6,550333	0,5	1,446000
6,558667	0,5	1,457450
6,567000	0,5	1,450200
6,575333	0,5	1,451750
6,583667	0,5	1,457250
6,592000	0,5	1,482100
6,600333	0,5	1,500550
6,608667	0,5	1,503650
6,617000	0,5	1,503100
6,625333	0,5	1,508300
6,633667	0,5	1,512850
6,642000	0,5	1,517950
6,650333	0,5	1,522750
6,658667	0,5	1,529350
6,667000	0,5	1,536700
6,675333	0,5	1,539450
6,683667	0,5	1,535150
6,692000	0,5	1,534450
6,700333	0,5	1,552050
6,708667	0,5	1,546400
6,717000	0,5	1,548200
6,725333	0,5	1,551150
6,733667	0,5	1,561500
6,742000	0,5	1,573500
6,750333	0,5	1,586650
6,758667	0,5	1,588600
6,767000	0,5	1,596300
6,775333	0,5	1,598250
6,783667	0,5	1,602850
6,792000	0,5	1,607050
6,800333	0,5	1,607000
6,808667	0,5	1,609750
6,817000	0,5	1,608650
6,825333	0,5	1,614650
6,833667	0,5	1,609750
6,842000	0,5	1,609700
6,850333	0,5	1,624700
6,858667	0,5	1,624350
6,867000	0,5	1,621900
6,875333	0,5	1,630850
6,883667	0,5	1,645550
6,892000	0,5	1,666000
6,900333	0,5	1,663450
6,908667	0,5	1,674400
6,917000	0,5	1,669000
6,925333	0,5	1,676250
6,933667	0,5	1,674350
6,942000	0,5	1,677300
6,950333	0,5	1,678850
6,958667	0,5	1,677950
6,967000	0,5	1,684050
6,975333	0,5	1,691550
6,983667	0,5	1,688950
6,992000	0,5	1,695250
7,000333	0,5	1,702900
7,008667	0,5	1,696800
7,017000	0,5	1,695200
7,025333	0,5	1,699950
7,033667	0,5	1,716800
7,042000	0,5	1,721150
7,050333	0,5	1,717950
7,058667	0,5	1,716850
7,067000	0,5	1,720700
7,075333	0,5	1,725900
7,083667	0,5	1,728750
7,092000	0,5	1,725100
7,100333	0,5	1,728300
7,108667	0,5	1,731800
7,117000	0,5	1,735350
7,125333	0,5	1,740150
7,133667	0,5	1,738400
7,142000	0,5	1,746400
7,150333	0,5	1,749450
7,158667	0,5	1,743500
7,167000	0,5	1,742250
7,175333	0,5	1,750800
7,183667	0,5	1,766500
7,192000	0,5	1,770200
7,200333	0,5	1,760950
7,208667	0,5	1,760950
7,217000	0,5	1,758800
7,225333	0,5	1,759400
7,233667	0,5	1,751900
7,242000	0,5	1,754700
7,250333	0,5	1,753300
7,258667	0,5	1,748900
7,267000	0,5	1,748500
7,275333	0,5	1,749250
7,283667	0,5	1,738850
7,292000	0,5	1,750400
7,300333	0,5	1,739200
7,308667	0,5	1,732800
7,317000	0,5	1,733500
7,325333	0,5	1,740900
7,333667	0,5	1,756750
7,342000	0,5	1,755450
7,350333	0,5	1,762500
7,358667	0,5	1,766700
7,367000	0,5	1,766000
7,375333	0,5	1,774150
7,383667	0,5	1,784000
7,392000	0,5	1,793950
7,400333	0,5	1,802350
7,408667	0,5	1,808400
7,417000	0,5	1,822300
7,425333	0,5	1,829600
7,433667	0,5	1,850050
7,442000	0,5	1,881650
7,450333	0,5	1,910750
7,458667	0,5	1,971950
7,467000	0,5	2,055600
7,475333	0,5	2,170450
7,483667	0,5	2,318600
7,492000	0,5	2,469150
7,500333	0,5	2,622450
7,508667	0,5	2,763550
7,517000	0,5	2,860700
7,525333	0,5	2,915450
7,533667	0,5	2,920800
7,542000	0,5	2,874650
7,550333	0,5	2,793500
7,558667	0,5	2,701350
7,567000	0,5	2,601200
7,575333	0,5	2,498850
7,583667	0,5	2,412350
7,592000	0,5	2,340950
7,600333	0,5	2,263300
7,608667	0,5	2,210050
7,617000	0,5	2,167300
7,625333	0,5	2,141800
7,633667	0,5	2,123150
7,642000	0,5	2,105350
7,650333	0,5	2,087800
7,658667	0,5	2,068650
7,667000	0,5	2,045000
7,675333	0,5	2,021100
7,683667	0,5	1,996450
7,692000	0,5	1,973700
7,700333	0,5	1,950150
7,708667	0,5	1,932350
7,717000	0,5	1,911600
7,725333	0,5	1,894800
7,733667	0,5	1,886200
7,742000	0,5	1,874300
7,750333	0,5	1,860500
7,758667	0,5	1,848200
7,767000	0,5	1,847300
7,775333	0,5	1,844900
7,783667	0,5	1,841700
7,792000	0,5	1,834050
7,800333	0,5	1,832700
7,808667	0,5	1,826700
7,817000	0,5	1,819950
7,825333	0,5	1,819850
7,833667	0,5	1,816200
7,842000	0,5	1,819800
7,850333	0,5	1,825850
7,858667	0,5	1,839550
7,867000	0,5	1,846950
7,875333	0,5	1,853700
7,883667	0,5	1,866300
7,892000	0,5	1,863450
7,900333	0,5	1,858450
7,908667	0,5	1,853150
7,917000	0,5	1,859350
7,925333	0,5	1,867850
7,933667	0,5	1,863100
7,942000	0,5	1,860800
7,950333	0,5	1,858700
7,958667	0,5	1,858600
7,967000	0,5	1,855600
7,975333	0,5	1,853200
7,983667	0,5	1,854950
7,992000	0,5	1,857100
8,000333	0,5	1,866500
8,008667	0,5	1,884900
8,017000	0,5	1,902800
8,025333	0,5	1,941100
8,033667	0,5	1,989000
8,042000	0,5	2,023650
8,050333	0,5	2,046500
8,058667	0,5	2,049650
8,067000	0,5	2,032300
8,075333	0,5	2,002400
8,083667	0,5	1,958650
8,092000	0,5	1,924000
8,100333	0,5	1,907800
8,108667	0,5	1,899400
8,117000	0,5	1,890650
8,125333	0,5	1,892550
8,133667	0,5	1,896950
8,142000	0,5	1,904350
8,150333	0,5	1,921200
8,158667	0,5	1,946100
8,167000	0,5	1,966800
8,175333	0,5	1,993100
8,183667	0,5	2,006400
8,192000	0,5	2,006650
8,200333	0,5	1,998100
8,208667	0,5	1,991200
8,217000	0,5	1,992500
8,225333	0,5	1,989450
8,233667	0,5	1,983950
8,242000	0,5	1,987800
8,250333	0,5	1,995500
8,258667	0,5	2,002100
8,267000	0,5	2,004750
8,275333	0,5	2,011950
8,283667	0,5	2,016800
8,292000	0,5	2,033850
8,300333	0,5	2,046050
8,308667	0,5	2,067400
8,317000	0,5	2,089450
8,325333	0,5	2,102550
8,333667	0,5	2,073450
8,342000	0,5	2,001850
8,350333	0,5	1,912150
8,358667	0,5	1,841600
8,367000	0,5	1,787400
8,375333	0,5	1,739250
8,383667	0,5	1,698700
8,392000	0,5	1,665300
8,400333	0,5	1,638500
8,408667	0,5	1,624800
8,417000	0,5	1,616200
8,425333	0,5	1,606300
8,433667	0,5	1,597300
8,442000	0,5	1,591700
8,450333	0,5	1,590800
8,458667	0,5	1,583200
8,467000	0,5	1,582450
8,475333	0,5	1,584950
8,483667	0,5	1,576650
8,492000	0,5	1,583050
8,500333	0,5	1,587550
8,508667	0,5	1,597200
8,517000	0,5	1,615000
8,525333	0,5	1,621000
8,533667	0,5	1,619300
8,542000	0,5	1,616700
8,550333	0,5	1,614450
8,558667	0,5	1,607250
8,567000	0,5	1,605500
8,575333	0,5	1,603500
8,583667	0,5	1,599450
8,592000	0,5	1,602700
8,600333	0,5	1,598800
8,608667	0,5	1,598100
8,617000	0,5	1,600350
8,625333	0,5	1,607300
8,633667	0,5	1,611700
8,642000	0,5	1,615750
8,650333	0,5	1,625800
8,658667	0,5	1,643500
8,667000	0,5	1,652750
8,675333	0,5	1,655750
8,683667	0,5	1,662150
8,692000	0,5	1,662350
8,700333	0,5	1,660250
8,708667	0,5	1,661250
8,717000	0,5	1,661300
8,725333	0,5	1,667650
8,733667	0,5	1,676050
8,742000	0,5	1,684250
8,750333	0,5	1,690300
8,758667	0,5	1,705000
8,767000	0,5	1,718250
8,775333	0,5	1,733100
8,783667	0,5	1,750550
8,792000	0,5	1,766900
8,800333	0,5	1,782050
8,808667	0,5	1,795950
8,817000	0,5	1,803650
8,825333	0,5	1,801050
8,833667	0,5	1,797650
8,842000	0,5	1,788850
8,850333	0,5	1,777500
8,858667	0,5	1,766750
8,867000	0,5	1,757350
8,875333	0,5	1,752050
8,883667	0,5	1,750500
8,892000	0,5	1,751900
8,900333	0,5	1,762200
8,908667	0,5	1,771650
8,917000	0,5	1,788400
8,925333	0,5	1,786250
8,933667	0,5	1,774300
8,942000	0,5	1,750700
8,950333	0,5	1,723400
8,958667	0,5	1,695200
8,967000	0,5	1,671400
8,975333	0,5	1,654300
8,983667	0,5	1,643100
8,992000	0,5	1,629800
9,000333	0,5	1,628150
9,008667	0,5	1,628800
9,017000	0,5	1,623700
9,025333	0,5	1,625050
9,033667	0,5	1,626700
9,042000	0,5	1,631900
9,050333	0,5	1,630300
9,058667	0,5	1,637150
9,067000	0,5	1,643700
9,075333	0,5	1,657000
9,083667	0,5	1,659050
9,092000	0,5	1,667300
9,100333	0,5	1,673550
9,108667	0,5	1,675650
9,117000	0,5	1,679050
9,125333	0,5	1,679700
9,133667	0,5	1,678950
9,142000	0,5	1,681300
9,150333	0,5	1,681850
9,158667	0,5	1,682300
9,167000	0,5	1,687300
9,175333	0,5	1,685700
9,183667	0,5	1,692350
9,192000	0,5	1,697150
9,200333	0,5	1,703750
9,208667	0,5	1,702450
9,217000	0,5	1,713000
9,225333	0,5	1,709400
9,233667	0,5	1,709550
9,242000	0,5	1,715400
9,250333	0,5	1,717350
9,258667	0,5	1,723350
9,267000	0,5	1,723950
9,275333	0,5	1,724950
9,283667	0,5	1,723250
9,292000	0,5	1,716650
9,300333	0,5	1,711300
9,308667	0,5	1,705650
9,317000	0,5	1,696150
9,325333	0,5	1,680750
9,333667	0,5	1,673700
9,342000	0,5	1,666950
9,350333	0,5	1,656500
9,358667	0,5	1,652100
9,367000	0,5	1,642050
9,375333	0,5	1,632850
9,383667	0,5	1,625400
9,392000	0,5	1,619700
9,400333	0,5	1,609950
9,408667	0,5	1,608800
9,417000	0,5	1,603750
9,425333	0,5	1,596300
9,433667	0,5	1,591350
9,442000	0,5	1,583300
9,450333	0,5	1,579250
9,458667	0,5	1,574850
9,467000	0,5	1,567350
9,475333	0,5	1,565200
9,483667	0,5	1,562750
9,492000	0,5	1,556550
9,500333	0,5	1,552100
9,508667	0,5	1,545300
9,517000	0,5	1,540400
9,525333	0,5	1,534650
9,533667	0,5	1,529850
9,542000	0,5	1,530700
9,550333	0,5	1,527800
9,558667	0,5	1,528250
9,567000	0,5	1,520050
9,575333	0,5	1,520500
9,583667	0,5	1,514600
9,592000	0,5	1,508400
9,600333	0,5	1,505050
9,608667	0,5	1,496350
9,617000	0,5	1,492400
9,625333	0,5	1,486850
9,633667	0,5	1,484800
9,642000	0,5	1,480500
9,650333	0,5	1,483900
9,658667	0,5	1,484500
9,667000	0,5	1,485500
9,675333	0,5	1,487250
9,683667	0,5	1,492000
9,692000	0,5	1,500900
9,700333	0,5	1,511200
9,708667	0,5	1,521650
9,717000	0,5	1,535100
9,725333	0,5	1,551450
9,733667	0,5	1,577450
9,742000	0,5	1,604700
9,750333	0,5	1,653650
9,758667	0,5	1,710750
9,767000	0,5	1,792450
9,775333	0,5	1,901350
9,783667	0,5	2,023100
9,792000	0,5	2,154350
9,800333	0,5	2,285700
9,808667	0,5	2,405800
9,817000	0,5	2,488450
9,825333	0,5	2,522100
9,833667	0,5	2,493550
9,842000	0,5	2,417400
9,850333	0,5	2,302800
9,858667	0,5	2,162450
9,867000	0,5	2,015250
9,875333	0,5	1,882900
9,883667	0,5	1,773850
9,892000	0,5	1,691800
9,900333	0,5	1,628850
9,908667	0,5	1,581650
9,917000	0,5	1,556050
9,925333	0,5	1,535500
9,933667	0,5	1,527050
9,942000	0,5	1,515500
9,950333	0,5	1,529050
9,958667	0,5	1,536300
9,967000	0,5	1,552400
9,975333	0,5	1,567550
9,983667	0,5	1,584300
9,992000	0,5	1,608800
10,000333	0,5	1,627250
10,008667	0,5	1,643800
10,017000	0,5	1,643300
10,025333	0,5	1,641800
10,033667	0,5	1,634000
10,042000	0,5	1,630900
10,050333	0,5	1,634900
10,058667	0,5	1,635250
10,067000	0,5	1,652950
10,075333	0,5	1,682400
10,083667	0,5	1,713500
10,092000	0,5	1,736000
10,100333	0,5	1,761300
10,108667	0,5	1,764300
10,117000	0,5	1,757700
10,125333	0,5	1,736800
10,133667	0,5	1,705700
10,142000	0,5	1,681200
10,150333	0,5	1,646250
10,158667	0,5	1,616450
10,167000	0,5	1,591300
10,175333	0,5	1,572400
10,183667	0,5	1,553150
10,192000	0,5	1,538450
10,200333	0,5	1,525400
10,208667	0,5	1,510800
10,217000	0,5	1,506650
10,225333	0,5	1,500900
10,233667	0,5	1,495950
10,242000	0,5	1,494550
10,250333	0,5	1,500100
10,258667	0,5	1,512800
10,267000	0,5	1,520100
10,275333	0,5	1,535850
10,283667	0,5	1,545550
10,292000	0,5	1,563300
10,300333	0,5	1,573650
10,308667	0,5	1,578100
10,317000	0,5	1,585450
10,325333	0,5	1,584650
10,333667	0,5	1,593850
10,342000	0,5	1,609000
10,350333	0,5	1,636150
10,358667	0,5	1,672450
10,367000	0,5	1,712400
10,375333	0,5	1,744750
10,383667	0,5	1,764450
10,392000	0,5	1,770250
10,400333	0,5	1,749600
10,408667	0,5	1,717350
10,417000	0,5	1,669350
10,425333	0,5	1,627250
10,433667	0,5	1,594350
10,442000	0,5	1,562600
10,450333	0,5	1,539000
10,458667	0,5	1,520350
10,467000	0,5	1,509900
10,475333	0,5	1,504300
10,483667	0,5	1,494200
10,492000	0,5	1,493800
10,500333	0,5	1,491200
10,508667	0,5	1,492550
10,517000	0,5	1,497650
10,525333	0,5	1,513000
10,533667	0,5	1,528200
10,542000	0,5	1,560150
10,550333	0,5	1,598600
10,558667	0,5	1,644450
10,567000	0,5	1,689200
10,575333	0,5	1,724550
10,583667	0,5	1,736250
10,592000	0,5	1,725200
10,600333	0,5	1,672650
10,608667	0,5	1,611000
10,617000	0,5	1,535750
10,625333	0,5	1,461750
10,633667	0,5	1,398550
10,642000	0,5	1,357150
10,650333	0,5	1,329000
10,658667	0,5	1,314100
10,667000	0,5	1,319600
10,675333	0,5	1,320750
10,683667	0,5	1,341250
10,692000	0,5	1,363700
10,700333	0,5	1,385850
10,708667	0,5	1,405600
10,717000	0,5	1,428550
10,725333	0,5	1,438250
10,733667	0,5	1,457750
10,742000	0,5	1,463450
10,750333	0,5	1,473500
10,758667	0,5	1,467850
10,767000	0,5	1,467750
10,775333	0,5	1,457850
10,783667	0,5	1,446900
10,792000	0,5	1,443650
10,800333	0,5	1,434100
10,808667	0,5	1,428250
10,817000	0,5	1,421300
10,825333	0,5	1,413800
10,833667	0,5	1,417050
10,842000	0,5	1,414750
10,850333	0,5	1,409750
10,858667	0,5	1,409300
10,867000	0,5	1,408150
10,875333	0,5	1,411850
10,883667	0,5	1,415500
10,892000	0,5	1,421000
10,900333	0,5	1,420300
10,908667	0,5	1,426450
10,917000	0,5	1,419900
10,925333	0,5	1,426450
10,933667	0,5	1,426750
10,942000	0,5	1,427400
10,950333	0,5	1,425300
10,958667	0,5	1,425950
10,967000	0,5	1,420900
10,975333	0,5	1,420600
10,983667	0,5	1,426750
10,992000	0,5	1,431900
11,000333	0,5	1,430750
11,008667	0,5	1,430200
11,017000	0,5	1,422050
11,025333	0,5	1,425550
11,033667	0,5	1,430850
11,042000	0,5	1,434700
11,050333	0,5	1,439050
11,058667	0,5	1,439600
11,067000	0,5	1,440900
11,075333	0,5	1,434000
11,083667	0,5	1,430000
11,092000	0,5	1,421150
11,100333	0,5	1,407300
11,108667	0,5	1,400000
11,117000	0,5	1,388250
11,125333	0,5	1,375150
11,133667	0,5	1,372350
11,142000	0,5	1,367700
11,150333	0,5	1,364600
11,158667	0,5	1,364400
11,167000	0,5	1,372350
11,175333	0,5	1,401700
11,183667	0,5	1,435700
11,192000	0,5	1,491400
11,200333	0,5	1,557000
11,208667	0,5	1,630450
11,217000	0,5	1,699650
11,225333	0,5	1,756900
11,233667	0,5	1,782400
11,242000	0,5	1,781350
11,250333	0,5	1,744600
11,258667	0,5	1,701800
11,267000	0,5	1,639950
11,275333	0,5	1,588550
11,283667	0,5	1,552850
11,292000	0,5	1,529950
11,300333	0,5	1,503100
11,308667	0,5	1,483950
11,317000	0,5	1,477550
11,325333	0,5	1,478450
11,333667	0,5	1,473300
11,342000	0,5	1,476450
11,350333	0,5	1,478600
11,358667	0,5	1,494650
11,367000	0,5	1,517000
11,375333	0,5	1,557150
11,383667	0,5	1,623250
11,392000	0,5	1,721800
11,400333	0,5	1,853000
11,408667	0,5	2,005400
11,417000	0,5	2,176400
11,425333	0,5	2,340200
11,433667	0,5	2,478550
11,442000	0,5	2,557800
11,450333	0,5	2,577750
11,458667	0,5	2,534250
11,467000	0,5	2,451900
11,475333	0,5	2,342200
11,483667	0,5	2,236650
11,492000	0,5	2,139100
11,500333	0,5	2,072000
11,508667	0,5	2,039200
11,517000	0,5	2,031300
11,525333	0,5	2,042700
11,533667	0,5	2,056650
11,542000	0,5	2,062550
11,550333	0,5	2,055900
11,558667	0,5	2,023850
11,567000	0,5	1,969500
11,575333	0,5	1,907600
11,583667	0,5	1,821950
11,592000	0,5	1,739650
11,600333	0,5	1,656700
11,608667	0,5	1,579700
11,617000	0,5	1,523050
11,625333	0,5	1,474450
11,633667	0,5	1,424350
11,642000	0,5	1,396750
11,650333	0,5	1,362200
11,658667	0,5	1,344050
11,667000	0,5	1,324950
11,675333	0,5	1,310750
11,683667	0,5	1,299200
11,692000	0,5	1,291500
11,700333	0,5	1,291650
11,708667	0,5	1,276950
11,717000	0,5	1,275800
11,725333	0,5	1,277850
11,733667	0,5	1,272400
11,742000	0,5	1,270500
11,750333	0,5	1,258350
11,758667	0,5	1,259700
11,767000	0,5	1,268200
11,775333	0,5	1,262000
11,783667	0,5	1,265050
11,792000	0,5	1,265850
11,800333	0,5	1,266650
11,808667	0,5	1,268600
11,817000	0,5	1,273150
11,825333	0,5	1,269800
11,833667	0,5	1,274950
11,842000	0,5	1,279550
11,850333	0,5	1,279850
11,858667	0,5	1,276900
11,867000	0,5	1,287750
11,875333	0,5	1,293500
11,883667	0,5	1,291200
11,892000	0,5	1,298500
11,900333	0,5	1,304650
11,908667	0,5	1,330950
11,917000	0,5	1,342400
11,925333	0,5	1,368100
11,933667	0,5	1,381050
11,942000	0,5	1,399050
11,950333	0,5	1,407750
11,958667	0,5	1,416100
11,967000	0,5	1,421450
11,975333	0,5	1,414800
11,983667	0,5	1,415450
11,992000	0,5	1,420500
12,000333	0,5	1,413800
12,008667	0,5	1,413250
12,017000	0,5	1,428000
12,025333	0,5	1,436150
12,033667	0,5	1,444200
12,042000	0,5	1,453200
12,050333	0,5	1,467800
12,058667	0,5	1,497750
12,067000	0,5	1,525450
12,075333	0,5	1,564250
12,083667	0,5	1,615200
12,092000	0,5	1,669400
12,100333	0,5	1,738100
12,108667	0,5	1,803950
12,117000	0,5	1,861700
12,125333	0,5	1,911100
12,133667	0,5	1,963150
12,142000	0,5	2,024550
12,150333	0,5	2,086350
12,158667	0,5	2,181300
12,167000	0,5	2,278000
12,175333	0,5	2,378450
12,183667	0,5	2,458100
12,192000	0,5	2,510800
12,200333	0,5	2,543250
12,208667	0,5	2,545650
12,217000	0,5	2,515400
12,225333	0,5	2,458000
12,233667	0,5	2,384000
12,242000	0,5	2,304400
12,250333	0,5	2,231200
12,258667	0,5	2,171250
12,267000	0,5	2,121650
12,275333	0,5	2,083850
12,283667	0,5	2,063100
12,292000	0,5	2,056950
12,300333	0,5	2,046450
12,308667	0,5	2,057450
12,317000	0,5	2,064300
12,325333	0,5	2,075500
12,333667	0,5	2,092200
12,342000	0,5	2,090250
12,350333	0,5	2,093900
12,358667	0,5	2,082400
12,367000	0,5	2,046850
12,375333	0,5	2,000000
12,383667	0,5	1,940650
12,392000	0,5	1,873400
12,400333	0,5	1,817650
12,408667	0,5	1,746850
12,417000	0,5	1,688350
12,425333	0,5	1,638200
12,433667	0,5	1,601250
12,442000	0,5	1,568700
12,450333	0,5	1,532350
12,458667	0,5	1,517650
12,467000	0,5	1,504300
12,475333	0,5	1,499150
12,483667	0,5	1,495150
12,492000	0,5	1,495900
12,500333	0,5	1,508850
12,508667	0,5	1,518150
12,517000	0,5	1,494900
12,525333	0,5	1,455200
12,533667	0,5	1,409000
12,542000	0,5	1,370600
12,550333	0,5	1,346850
12,558667	0,5	1,344100
12,567000	0,5	1,352700
12,575333	0,5	1,379300
12,583667	0,5	1,365800
12,592000	0,5	1,229750
12,600333	0,5	0,963250
12,608667	0,5	0,585400
12,617000	0,5	0,125850
12,625333	0,5	-0,240850
12,633667	0,5	-0,531400
12,642000	0,5	-0,782950
12,650333	0,5	-1,006500
12,658667	0,5	-1,231900
12,667000	0,5	-1,457000
12,675333	0,5	-1,621050
12,683667	0,5	-1,744450
12,692000	0,5	-1,838350
12,700333	0,5	-1,921150
12,708667	0,5	-1,989050
12,717000	0,5	-2,043050
12,725333	0,5	-2,101600
12,733667	0,5	-2,151600
12,742000	0,5	-2,204750
12,750333	0,5	-2,240600
12,758667	0,5	-2,277600
12,767000	0,5	-2,315350
12,775333	0,5	-2,345100
12,783667	0,5	-2,376850
12,792000	0,5	-2,404800
12,800333	0,5	-2,420800
12,808667	0,5	-2,442100
12,817000	0,5	-2,456150
12,825333	0,5	-2,483500
12,833667	0,5	-2,496850
12,842000	0,5	-2,512600
12,850333	0,5	-2,517950
12,858667	0,5	-2,534750
12,867000	0,5	-2,542350
12,875333	0,5	-2,544450
12,883667	0,5	-2,550600
12,892000	0,5	-2,563950
12,900333	0,5	-2,562550
12,908667	0,5	-2,561700
12,917000	0,5	-2,561150
12,925333	0,5	-2,567550
12,933667	0,5	-2,568300
12,942000	0,5	-2,554900
12,950333	0,5	-2,548150
12,958667	0,5	-2,540650
12,967000	0,5	-2,536600
12,975333	0,5	-2,524500
12,983667	0,5	-2,525950
12,992000	0,5	-2,510300
13,000333	0,5	-2,504900
13,008667	0,5	-2,494450
13,017000	0,5	-2,488200
13,025333	0,5	-2,473600
13,033667	0,5	-2,478650
13,042000	0,5	-2,461700
13,050333	0,5	-2,438850
13,058667	0,5	-2,422300
13,067000	0,5	-2,411100
13,075333	0,5	-2,404600
13,083667	0,5	-2,384900
13,092000	0,5	-2,370100
13,100333	0,5	-2,348150
13,108667	0,5	-2,340050
13,117000	0,5	-2,332950
13,125333	0,5	-2,334100
13,133667	0,5	-2,331000
13,142000	0,5	-2,339100
13,150333	0,5	-2,339200
13,158667	0,5	-2,347500
13,167000	0,5	-2,350700
13,175333	0,5	-2,356200
13,183667	0,5	-2,359250
13,192000	0,5	-2,346800
13,200333	0,5	-2,333150
13,208667	0,5	-2,319700
13,217000	0,5	-2,303350
13,225333	0,5	-2,293200
13,233667	0,5	-2,264750
13,242000	0,5	-2,236350
13,250333	0,5	-2,220750
13,258667	0,5	-2,208050
13,267000	0,5	-2,199050
13,275333	0,5	-2,199000
13,283667	0,5	-2,202500
13,292000	0,5	-2,197000
13,300333	0,5	-2,212450
13,308667	0,5	-2,210350
13,317000	0,5	-2,209850
13,325333	0,5	-2,207500
13,333667	0,5	-2,220450
13,342000	0,5	-2,206850
13,350333	0,5	-2,208300
13,358667	0,5	-2,205100
13,367000	0,5	-2,205350
13,375333	0,5	-2,199850
13,383667	0,5	-2,178200
13,392000	0,5	-2,158800
13,400333	0,5	-2,137650
13,408667	0,5	-2,108900
13,417000	0,5	-2,083100
13,425333	0,5	-2,052000
13,433667	0,5	-2,021000
13,442000	0,5	-1,989950
13,450333	0,5	-1,969500
13,458667	0,5	-1,948900
13,467000	0,5	-1,929850
13,475333	0,5	-1,935250
13,483667	0,5	-1,930850
13,492000	0,5	-1,927550
13,500333	0,5	-1,929050
13,508667	0,5	-1,933950
13,517000	0,5	-1,932250
13,525333	0,5	-1,932300
13,533667	0,5	-1,912100
13,542000	0,5	-1,895600
13,550333	0,5	-1,868850
13,558667	0,5	-1,860750
13,567000	0,5	-1,837950
13,575333	0,5	-1,818750
13,583667	0,5	-1,803350
13,592000	0,5	-1,785550
13,600333	0,5	-1,770700
13,608667	0,5	-1,747450
13,617000	0,5	-1,727800
13,625333	0,5	-1,719150
13,633667	0,5	-1,699750
13,642000	0,5	-1,675150
13,650333	0,5	-1,661300
13,658667	0,5	-1,646650
13,667000	0,5	-1,641350
13,675333	0,5	-1,619600
13,683667	0,5	-1,598550
13,692000	0,5	-1,573400
13,700333	0,5	-1,556400
13,708667	0,5	-1,529950
13,717000	0,5	-1,513250
13,725333	0,5	-1,492600
13,733667	0,5	-1,462850
13,742000	0,5	-1,445550
13,750333	0,5	-1,417200
13,758667	0,5	-1,387000
13,767000	0,5	-1,367900
13,775333	0,5	-1,346550
13,783667	0,5	-1,310000
13,792000	0,5	-1,277050
13,800333	0,5	-1,247900
13,808667	0,5	-1,229400
13,817000	0,5	-1,201200
13,825333	0,5	-1,173100
13,833667	0,5	-1,137300
13,842000	0,5	-1,106350
13,850333	0,5	-1,077350
13,858667	0,5	-1,047050
13,867000	0,5	-1,014100
13,875333	0,5	-0,993050
13,883667	0,5	-0,963350
13,892000	0,5	-0,942700
13,900333	0,5	-0,914650
13,908667	0,5	-0,890550
13,917000	0,5	-0,876350
13,925333	0,5	-0,861950
13,933667	0,5	-0,837450
13,942000	0,5	-0,822750
13,950333	0,5	-0,806750
13,958667	0,5	-0,800550
13,967000	0,5	-0,776400
13,975333	0,5	-0,741750
13,983667	0,5	-0,717950
13,992000	0,5	-0,681100
14,000333	0,5	-0,645650
14,008667	0,5	-0,592300
14,017000	0,5	-0,538250
14,025333	0,5	-0,460900
14,033667	0,5	-0,383950
14,042000	0,5	-0,308250
14,050333	0,5	-0,219300
14,058667	0,5	-0,144850
14,067000	0,5	-0,111800
14,075333	0,5	-0,057500
14,083667	0,5	-0,021250
14,092000	0,5	0,017850
14,100333	0,5	0,072450
14,108667	0,5	0,108000
14,117000	0,5	0,167400
14,125333	0,5	0,192250
14,133667	0,5	0,220200
14,142000	0,5	0,225550
14,150333	0,5	0,255100
14,158667	0,5	0,280200
14,167000	0,5	0,328050
14,175333	0,5	0,376200
14,183667	0,5	0,423950
14,192000	0,5	0,458750
14,200333	0,5	0,507500
14,208667	0,5	0,538200
14,217000	0,5	0,546850
14,225333	0,5	0,564600
14,233667	0,5	0,565200
14,242000	0,5	0,541850
14,250333	0,5	0,517250
14,258667	0,5	0,474900
14,267000	0,5	0,463500
14,275333	0,5	0,448400
14,283667	0,5	0,436250
14,292000	0,5	0,423500
14,300333	0,5	0,415250
14,308667	0,5	0,412000
14,317000	0,5	0,403650
14,325333	0,5	0,408050
14,333667	0,5	0,399900
14,342000	0,5	0,401950
14,350333	0,5	0,402550
14,358667	0,5	0,401350
14,367000	0,5	0,396150
14,375333	0,5	0,406900
14,383667	0,5	0,400350
14,392000	0,5	0,390100
14,400333	0,5	0,381100
14,408667	0,5	0,374200
14,417000	0,5	0,387550
14,425333	0,5	0,393150
14,433667	0,5	0,411150
14,442000	0,5	0,431550
14,450333	0,5	0,445550
14,458667	0,5	0,456350
14,467000	0,5	0,463400
14,475333	0,5	0,455700
14,483667	0,5	0,446750
14,492000	0,5	0,434850
14,500333	0,5	0,421550
14,508667	0,5	0,386250
14,517000	0,5	0,389550
14,525333	0,5	0,379200
14,533667	0,5	0,364400
14,542000	0,5	0,346800
14,550333	0,5	0,338800
14,558667	0,5	0,327650
14,567000	0,5	0,332350
14,575333	0,5	0,335000
14,583667	0,5	0,335550
14,592000	0,5	0,349250
14,600333	0,5	0,347150
14,608667	0,5	0,343000
14,617000	0,5	0,351200
14,625333	0,5	0,375050
14,633667	0,5	0,402200
14,642000	0,5	0,459650
14,650333	0,5	0,522050
14,658667	0,5	0,608450
14,667000	0,5	0,712050
14,675333	0,5	0,791900
14,683667	0,5	0,840600
14,692000	0,5	0,841350
14,700333	0,5	0,807200
14,708667	0,5	0,765750
14,717000	0,5	0,709150
14,725333	0,5	0,660200
14,733667	0,5	0,629500
14,742000	0,5	0,632200
14,750333	0,5	0,649400
14,758667	0,5	0,690350
14,767000	0,5	0,743300
14,775333	0,5	0,778150
14,783667	0,5	0,782350
14,792000	0,5	0,766750
14,800333	0,5	0,710700
14,808667	0,5	0,661900
14,817000	0,5	0,607550
14,825333	0,5	0,555400
14,833667	0,5	0,515850
14,842000	0,5	0,464700
14,850333	0,5	0,442450
14,858667	0,5	0,426000
14,867000	0,5	0,419650
14,875333	0,5	0,405050
14,883667	0,5	0,406800
14,892000	0,5	0,401850
14,900333	0,5	0,400700
14,908667	0,5	0,408350
14,917000	0,5	0,409050
14,925333	0,5	0,411500
14,933667	0,5	0,421600
14,942000	0,5	0,423300
14,950333	0,5	0,402050
14,958667	0,5	0,400900
14,967000	0,5	0,395650
14,975333	0,5	0,381000
14,983667	0,5	0,364800
14,992000	0,5	0,336550
15,000333	0,5	0,329450
15,008667	0,5	0,328000
15,017000	0,5	0,302500
15,025333	0,5	0,286300
15,033667	0,5	0,266850
15,042000	0,5	0,261350
15,050333	0,5	0,243300
15,058667	0,5	0,243300
15,067000	0,5	0,232700
15,075333	0,5	0,233500
15,083667	0,5	0,231750
15,092000	0,5	0,225500
15,100333	0,5	0,207550
15,108667	0,5	0,213150
15,117000	0,5	0,213300
15,125333	0,5	0,212350
15,133667	0,5	0,201600
15,142000	0,5	0,201750
15,150333	0,5	0,256000
15,158667	0,5	0,296250
15,167000	0,5	0,368450
15,175333	0,5	0,465750
15,183667	0,5	0,583750
15,192000	0,5	0,676750
15,200333	0,5	0,755950
15,208667	0,5	0,778900
15,217000	0,5	0,757650
15,225333	0,5	0,709650
15,233667	0,5	0,658200
15,242000	0,5	0,598750
15,250333	0,5	0,595550
15,258667	0,5	0,628500
15,267000	0,5	0,672700
15,275333	0,5	0,701400
15,283667	0,5	0,696350
15,292000	0,5	0,678850
15,300333	0,5	0,640100
15,308667	0,5	0,580000
15,317000	0,5	0,517900
15,325333	0,5	0,462800
15,333667	0,5	0,427000
15,342000	0,5	0,393700
15,350333	0,5	0,386050
15,358667	0,5	0,393650
15,367000	0,5	0,386300
15,375333	0,5	0,393450
15,383667	0,5	0,394400
15,392000	0,5	0,372900
15,400333	0,5	0,364600
15,408667	0,5	0,356350
15,417000	0,5	0,334900
15,425333	0,5	0,323400
15,433667	0,5	0,300850
15,442000	0,5	0,295450
15,450333	0,5	0,300700
15,458667	0,5	0,290950
15,467000	0,5	0,278900
15,475333	0,5	0,262050
15,483667	0,5	0,244100
15,492000	0,5	0,224800
15,500333	0,5	0,214150
15,508667	0,5	0,187950
15,517000	0,5	0,171950
15,525333	0,5	0,156800
15,533667	0,5	0,148200
15,542000	0,5	0,130100
15,550333	0,5	0,133250
15,558667	0,5	0,118000
15,567000	0,5	0,108550
15,575333	0,5	0,086200
15,583667	0,5	0,071150
15,592000	0,5	0,085050
15,600333	0,5	0,104750
15,608667	0,5	0,116250
15,617000	0,5	0,160050
15,625333	0,5	0,234650
15,633667	0,5	0,335350
15,642000	0,5	0,456850
15,650333	0,5	0,568750
15,658667	0,5	0,640750
15,667000	0,5	0,673200
15,675333	0,5	0,668100
15,683667	0,5	0,610950
15,692000	0,5	0,576500
15,700333	0,5	0,572900
15,708667	0,5	0,579600
15,717000	0,5	0,594950
15,725333	0,5	0,587000
15,733667	0,5	0,563650
15,742000	0,5	0,528200
15,750333	0,5	0,476200
15,758667	0,5	0,415550
15,767000	0,5	0,352250
15,775333	0,5	0,310900
15,783667	0,5	0,262650
15,792000	0,5	0,231950
15,800333	0,5	0,215400
15,808667	0,5	0,197250
15,817000	0,5	0,201750
15,825333	0,5	0,199050
15,833667	0,5	0,191850
15,842000	0,5	0,206050
15,850333	0,5	0,214550
15,858667	0,5	0,204100
15,867000	0,5	0,186650
15,875333	0,5	0,152500
15,883667	0,5	0,148800
15,892000	0,5	0,129850
15,900333	0,5	0,107650
15,908667	0,5	0,084150
15,917000	0,5	0,072650
15,925333	0,5	0,049850
15,933667	0,5	0,031900
15,942000	0,5	0,020500
15,950333	0,5	0,003600
15,958667	0,5	-0,000300
15,967000	0,5	-0,011600
15,975333	0,5	-0,026350
15,983667	0,5	-0,021800
15,992000	0,5	-0,013450
16,000333	0,5	-0,003200
16,008667	0,5	-0,002500
16,017000	0,5	0,012700
16,025333	0,5	0,058800
16,033667	0,5	0,147150
16,042000	0,5	0,267950
16,050333	0,5	0,388250
16,058667	0,5	0,512450
16,067000	0,5	0,586250
16,075333	0,5	0,612950
16,083667	0,5	0,600450
16,092000	0,5	0,585200
16,100333	0,5	0,571100
16,108667	0,5	0,579400
16,117000	0,5	0,592200
16,125333	0,5	0,563400
16,133667	0,5	0,526300
16,142000	0,5	0,461550
16,150333	0,5	0,380650
16,158667	0,5	0,294400
16,167000	0,5	0,217350
16,175333	0,5	0,159250
16,183667	0,5	0,136800
16,192000	0,5	0,111150
16,200333	0,5	0,109150
16,208667	0,5	0,100950
16,217000	0,5	0,100950
16,225333	0,5	0,099400
16,233667	0,5	0,102600
16,242000	0,5	0,098750
16,250333	0,5	0,087600
16,258667	0,5	0,086450
16,267000	0,5	0,080700
16,275333	0,5	0,038700
16,283667	0,5	0,028700
16,292000	0,5	0,015600
16,300333	0,5	-0,007900
16,308667	0,5	-0,038650
16,317000	0,5	-0,078700
16,325333	0,5	-0,087200
16,333667	0,5	-0,102300
16,342000	0,5	-0,105300
16,350333	0,5	-0,122000
16,358667	0,5	-0,123800
16,367000	0,5	-0,134350
16,375333	0,5	-0,120200
16,383667	0,5	-0,097100
16,392000	0,5	-0,060700
16,400333	0,5	0,015950
16,408667	0,5	0,127500
16,417000	0,5	0,252700
16,425333	0,5	0,374650
16,433667	0,5	0,491900
16,442000	0,5	0,547850
16,450333	0,5	0,566050
16,458667	0,5	0,562700
16,467000	0,5	0,543500
16,475333	0,5	0,548100
16,483667	0,5	0,548500
16,492000	0,5	0,518450
16,500333	0,5	0,481450
16,508667	0,5	0,426950
16,517000	0,5	0,383600
16,525333	0,5	0,347850
16,533667	0,5	0,320650
16,542000	0,5	0,298200
16,550333	0,5	0,281400
16,558667	0,5	0,273450
16,567000	0,5	0,255050
16,575333	0,5	0,249050
16,583667	0,5	0,263400
16,592000	0,5	0,259900
16,600333	0,5	0,248650
16,608667	0,5	0,242800
16,617000	0,5	0,234250
16,625333	0,5	0,246350
16,633667	0,5	0,236050
16,642000	0,5	0,216200
16,650333	0,5	0,195900
16,658667	0,5	0,160500
16,667000	0,5	0,121400
16,675333	0,5	0,083000
16,683667	0,5	0,046000
16,692000	0,5	0,011650
16,700333	0,5	-0,007750
16,708667	0,5	-0,016500
16,717000	0,5	-0,018300
16,725333	0,5	0,035250
16,733667	0,5	0,103050
16,742000	0,5	0,196400
16,750333	0,5	0,287500
16,758667	0,5	0,369750
16,767000	0,5	0,436100
16,775333	0,5	0,466100
16,783667	0,5	0,463300
16,792000	0,5	0,445650
16,800333	0,5	0,425600
16,808667	0,5	0,377750
16,817000	0,5	0,327400
16,825333	0,5	0,270000
16,833667	0,5	0,214450
16,842000	0,5	0,159000
16,850333	0,5	0,130550
16,858667	0,5	0,087700
16,867000	0,5	0,074900
16,875333	0,5	0,074150
16,883667	0,5	0,074300
16,892000	0,5	0,065750
16,900333	0,5	0,036050
16,908667	0,5	0,028350
16,917000	0,5	0,028350
16,925333	0,5	0,020950
16,933667	0,5	0,011850
16,942000	0,5	-0,005200
16,950333	0,5	-0,009350
16,958667	0,5	-0,015700
16,967000	0,5	-0,011300
16,975333	0,5	-0,002900
16,983667	0,5	0,008950
16,992000	0,5	0,059250
17,000333	0,5	0,120600
17,008667	0,5	0,194550
17,017000	0,5	0,316300
17,025333	0,5	0,489900
17,033667	0,5	0,696300
17,042000	0,5	0,936100
17,050333	0,5	1,161950
17,058667	0,5	1,407500
17,067000	0,5	1,615800
17,075333	0,5	1,782700
17,083667	0,5	1,902000
17,092000	0,5	1,994600
17,100333	0,5	2,035850
17,108667	0,5	2,062100
17,117000	0,5	2,084400
17,125333	0,5	2,094700
17,133667	0,5	2,127250
17,142000	0,5	2,167250
17,150333	0,5	2,207400
17,158667	0,5	2,205550
17,167000	0,5	2,203650
17,175333	0,5	2,127800
17,183667	0,5	2,018100
17,192000	0,5	1,846300
17,200333	0,5	1,658800
17,208667	0,5	1,480750
17,217000	0,5	1,299650
17,225333	0,5	1,119700
17,233667	0,5	0,968250
17,242000	0,5	0,844200
17,250333	0,5	0,739150
17,258667	0,5	0,651550
17,267000	0,5	0,589600
17,275333	0,5	0,540700
17,283667	0,5	0,508900
17,292000	0,5	0,521350
17,300333	0,5	0,544750
17,308667	0,5	0,597950
17,317000	0,5	0,676800
17,325333	0,5	0,745700
17,333667	0,5	0,786100
17,342000	0,5	0,806800
17,350333	0,5	0,812950
17,358667	0,5	0,838150
17,367000	0,5	0,823750
17,375333	0,5	0,805450
17,383667	0,5	0,771500
17,392000	0,5	0,752950
17,400333	0,5	0,719300
17,408667	0,5	0,704750
17,417000	0,5	0,693000
17,425333	0,5	0,675700
17,433667	0,5	0,658450
17,442000	0,5	0,637450
17,450333	0,5	0,591100
17,458667	0,5	0,549600
17,467000	0,5	0,485350
17,475333	0,5	0,415900
17,483667	0,5	0,341350
17,492000	0,5	0,263150
17,500333	0,5	0,210750
17,508667	0,5	0,165850
17,517000	0,5	0,134200
17,525333	0,5	0,109200
17,533667	0,5	0,107850
17,542000	0,5	0,094400
17,550333	0,5	0,127850
17,558667	0,5	0,171650
17,567000	0,5	0,221850
17,575333	0,5	0,263700
17,583667	0,5	0,298550
17,592000	0,5	0,296900
17,600333	0,5	0,278750
17,608667	0,5	0,255450
17,617000	0,5	0,216400
17,625333	0,5	0,169450
17,633667	0,5	0,100550
17,642000	0,5	0,044050
17,650333	0,5	0,005650
17,658667	0,5	0,002800
17,667000	0,5	-0,018350
17,675333	0,5	-0,030200
17,683667	0,5	-0,045550
17,692000	0,5	-0,054700
17,700333	0,5	-0,070050
17,708667	0,5	-0,082350
17,717000	0,5	-0,102050
17,725333	0,5	-0,097300
17,733667	0,5	-0,094050
17,742000	0,5	-0,103900
17,750333	0,5	-0,106850
17,758667	0,5	-0,086250
17,767000	0,5	-0,055400
17,775333	0,5	-0,021500
17,783667	0,5	0,008800
17,792000	0,5	0,061700
17,800333	0,5	0,135000
17,808667	0,5	0,181050
17,817000	0,5	0,207950
17,825333	0,5	0,207350
17,833667	0,5	0,197200
17,842000	0,5	0,158850
17,850333	0,5	0,120500
17,858667	0,5	0,081350
17,867000	0,5	0,054500
17,875333	0,5	0,037900
17,883667	0,5	0,025050
17,892000	0,5	-0,015250
17,900333	0,5	-0,014250
17,908667	0,5	-0,023050
17,917000	0,5	-0,031300
17,925333	0,5	-0,050200
17,933667	0,5	-0,067550
17,942000	0,5	-0,058350
17,950333	0,5	-0,051850
17,958667	0,5	-0,050300
17,967000	0,5	-0,042050
17,975333	0,5	-0,011550
17,983667	0,5	0,011200
17,992000	0,5	0,059950
18,000333	0,5	0,110300
18,008667	0,5	0,161750
18,017000	0,5	0,176300
18,025333	0,5	0,190350
18,033667	0,5	0,164650
18,042000	0,5	0,134750
18,050333	0,5	0,109550
18,058667	0,5	0,078600
18,067000	0,5	0,037800
18,075333	0,5	-0,001000
18,083667	0,5	-0,035300
18,092000	0,5	-0,048150
18,100333	0,5	-0,054400
18,108667	0,5	-0,067550
18,117000	0,5	-0,073650
18,125333	0,5	-0,083650
18,133667	0,5	-0,088850
18,142000	0,5	-0,096850
18,150333	0,5	-0,096050
18,158667	0,5	-0,093750
18,167000	0,5	-0,079400
18,175333	0,5	-0,044850
18,183667	0,5	-0,022450
18,192000	0,5	0,027450
18,200333	0,5	0,059850
18,208667	0,5	0,064150
18,217000	0,5	0,041650
18,225333	0,5	-0,004450
18,233667	0,5	-0,038250
18,242000	0,5	-0,066400
18,250333	0,5	-0,095000
18,258667	0,5	-0,122350
18,267000	0,5	-0,139950
18,275333	0,5	-0,165900
18,283667	0,5	-0,179350
18,292000	0,5	-0,184150
18,300333	0,5	-0,200000
18,308667	0,5	-0,208050
18,317000	0,5	-0,217850
18,325333	0,5	-0,206250
18,333667	0,5	-0,221000
18,342000	0,5	-0,187200
18,350333	0,5	-0,179500
18,358667	0,5	-0,150250
18,367000	0,5	-0,150000
18,375333	0,5	-0,163150
18,383667	0,5	-0,159600
18,392000	0,5	-0,164350
18,400333	0,5	-0,187000
18,408667	0,5	-0,212300
18,417000	0,5	-0,241050
18,425333	0,5	-0,265800
18,433667	0,5	-0,283350
18,442000	0,5	-0,300300
18,450333	0,5	-0,323250
18,458667	0,5	-0,345500
18,467000	0,5	-0,336750
18,475333	0,5	-0,345900
18,483667	0,5	-0,359800
18,492000	0,5	-0,347600
18,500333	0,5	-0,354150
18,508667	0,5	-0,360550
18,517000	0,5	-0,366800
18,525333	0,5	-0,372150
18,533667	0,5	-0,347100
18,542000	0,5	-0,345500
18,550333	0,5	-0,340700
18,558667	0,5	-0,358750
18,567000	0,5	-0,372100
18,575333	0,5	-0,394900
18,583667	0,5	-0,416050
18,592000	0,5	-0,436150
18,600333	0,5	-0,448550
18,608667	0,5	-0,449250
18,617000	0,5	-0,447150
18,625333	0,5	-0,472400
18,633667	0,5	-0,471850
18,642000	0,5	-0,461150
18,650333	0,5	-0,468350
18,658667	0,5	-0,461450
18,667000	0,5	-0,459800
18,675333	0,5	-0,427750
18,683667	0,5	-0,393000
18,692000	0,5	-0,360600
18,700333	0,5	-0,356650
18,708667	0,5	-0,338050
18,717000	0,5	-0,346600
18,725333	0,5	-0,329200
18,733667	0,5	-0,323850
18,742000	0,5	-0,314850
18,750333	0,5	-0,309700
18,758667	0,5	-0,300100
18,767000	0,5	-0,307250
18,775333	0,5	-0,311850
18,783667	0,5	-0,289900
18,792000	0,5	-0,271400
18,800333	0,5	-0,256250
18,808667	0,5	-0,257550
18,817000	0,5	-0,244850
18,825333	0,5	-0,244300
18,833667	0,5	-0,230150
18,842000	0,5	-0,245850
18,850333	0,5	-0,252900
18,858667	0,5	-0,280850
18,867000	0,5	-0,294150
18,875333	0,5	-0,318850
18,883667	0,5	-0,328900
18,892000	0,5	-0,332750
18,900333	0,5	-0,346100
18,908667	0,5	-0,324000
18,917000	0,5	-0,338750
18,925333	0,5	-0,327550
18,933667	0,5	-0,319250
18,942000	0,5	-0,322600
18,950333	0,5	-0,344500
18,958667	0,5	-0,384850
18,967000	0,5	-0,410000
18,975333	0,5	-0,420600
18,983667	0,5	-0,460900
18,992000	0,5	-0,473700
19,000333	0,5	-0,490050
19,008667	0,5	-0,505550
19,017000	0,5	-0,515650
19,025333	0,5	-0,510000
19,033667	0,5	-0,514450
19,042000	0,5	-0,520050
19,050333	0,5	-0,497150
19,058667	0,5	-0,484450
19,067000	0,5	-0,518150
19,075333	0,5	-0,515300
19,083667	0,5	-0,528050
19,092000	0,5	-0,545750
19,100333	0,5	-0,575250
19,108667	0,5	-0,638450
19,117000	0,5	-0,636300
19,125333	0,5	-0,651600
19,133667	0,5	-0,656300
19,142000	0,5	-0,665950
19,150333	0,5	-0,667700
19,158667	0,5	-0,681550
19,167000	0,5	-0,682400
19,175333	0,5	-0,690000
19,183667	0,5	-0,706700
19,192000	0,5	-0,723150
19,200333	0,5	-0,723800
19,208667	0,5	-0,747350
19,217000	0,5	-0,770250
19,225333	0,5	-0,774000
19,233667	0,5	-0,776050
19,242000	0,5	-0,790550
19,250333	0,5	-0,803350
19,258667	0,5	-0,813400
19,267000	0,5	-0,803600
19,275333	0,5	-0,804150
19,283667	0,5	-0,824200
19,292000	0,5	-0,826500
19,300333	0,5	-0,844350
19,308667	0,5	-0,856900
19,317000	0,5	-0,875600
19,325333	0,5	-0,875400
19,333667	0,5	-0,877350
19,342000	0,5	-0,874400
19,350333	0,5	-0,868150
19,358667	0,5	-0,879100
19,367000	0,5	-0,879100
19,375333	0,5	-0,878950
19,383667	0,5	-0,890800
19,392000	0,5	-0,896700
19,400333	0,5	-0,927250
19,408667	0,5	-0,938950
19,417000	0,5	-0,922100
19,425333	0,5	-0,938700
19,433667	0,5	-0,939800
19,442000	0,5	-0,935100
19,450333	0,5	-0,934550
19,458667	0,5	-0,941600
19,467000	0,5	-0,952050
19,475333	0,5	-0,968300
19,483667	0,5	-0,978550
19,492000	0,5	-0,978750
19,500333	0,5	-0,975650
19,508667	0,5	-1,000100
19,517000	0,5	-0,994650
19,525333	0,5	-1,013600
19,533667	0,5	-1,025250
19,542000	0,5	-1,063850
19,550333	0,5	-1,091150
19,558667	0,5	-1,087850
19,567000	0,5	-1,094250
19,575333	0,5	-1,095750
19,583667	0,5	-1,104800
19,592000	0,5	-1,105950
19,600333	0,5	-1,124100
19,608667	0,5	-1,130850
19,617000	0,5	-1,136100
19,625333	0,5	-1,134700
19,633667	0,5	-1,149300
19,642000	0,5	-1,131200
19,650333	0,5	-1,152750
19,658667	0,5	-1,153700
19,667000	0,5	-1,155050
19,675333	0,5	-1,167000
19,683667	0,5	-1,179400
19,692000	0,5	-1,214000
19,700333	0,5	-1,238900
19,708667	0,5	-1,248400
19,717000	0,5	-1,253050
19,725333	0,5	-1,266100
19,733667	0,5	-1,275550
19,742000	0,5	-1,292500
19,750333	0,5	-1,298000
19,758667	0,5	-1,309050
19,767000	0,5	-1,320900
19,775333	0,5	-1,338950
19,783667	0,5	-1,337850
19,792000	0,5	-1,354100
19,800333	0,5	-1,375650
19,808667	0,5	-1,376650
19,817000	0,5	-1,379600
19,825333	0,5	-1,393000
19,833667	0,5	-1,403800
19,842000	0,5	-1,448550
19,850333	0,5	-1,454150
19,858667	0,5	-1,457650
19,867000	0,5	-1,460250
19,875333	0,5	-1,471800
19,883667	0,5	-1,474250
19,892000	0,5	-1,486200
19,900333	0,5	-1,494100
19,908667	0,5	-1,492300
19,917000	0,5	-1,498300
19,925333	0,5	-1,506450
19,933667	0,5	-1,501100
19,942000	0,5	-1,514500
19,950333	0,5	-1,535800
19,958667	0,5	-1,529850
19,967000	0,5	-1,541700
19,975333	0,5	-1,560000
19,983667	0,5	-1,602750
19,992000	0,5	-1,616550
20,000333	0,5	-1,619750
20,008667	0,5	-1,629400
20,017000	0,5	-1,649350
20,025333	0,5	-1,664200
20,033667	0,5	-1,678250
20,042000	0,5	-1,699300
20,050333	0,5	-1,711100
20,058667	0,5	-1,719500
20,067000	0,5	-1,733850
20,075333	0,5	-1,743100
20,083667	0,5	-1,740050
20,092000	0,5	-1,769100
20,100333	0,5	-1,775700
20,108667	0,5	-1,783650
20,117000	0,5	-1,795550
20,125333	0,5	-1,819150
20,133667	0,5	-1,862100
20,142000	0,5	-1,863150
20,150333	0,5	-1,860750
20,158667	0,5	-1,880100
20,167000	0,5	-1,878750
20,175333	0,5	-1,893400
20,183667	0,5	-1,894350
20,192000	0,5	-1,907400
20,200333	0,5	-1,909700
20,208667	0,5	-1,923000
20,217000	0,5	-1,943150
20,225333	0,5	-1,942600
20,233667	0,5	-1,947400
20,242000	0,5	-1,979050
20,250333	0,5	-1,979100
20,258667	0,5	-1,996900
20,267000	0,5	-2,023000
20,275333	0,5	-2,037650
20,283667	0,5	-2,078850
20,292000	0,5	-2,076300
20,300333	0,5	-2,085900
20,308667	0,5	-2,101300
20,317000	0,5	-2,125000
20,325333	0,5	-2,143150
20,333667	0,5	-2,163550
20,342000	0,5	-2,175250
20,350333	0,5	-2,191600
20,358667	0,5	-2,223150
20,367000	0,5	-2,244000
20,375333	0,5	-2,241250
20,383667	0,5	-2,266350
20,392000	0,5	-2,291450
20,400333	0,5	-2,295200
20,408667	0,5	-2,317600
20,417000	0,5	-2,338350
20,425333	0,5	-2,382750
20,433667	0,5	-2,413800
20,442000	0,5	-2,420100
20,450333	0,5	-2,418750
20,458667	0,5	-2,453200
20,467000	0,5	-2,471800
20,475333	0,5	-2,492100
20,483667	0,5	-2,507200
20,492000	0,5	-2,517550
20,500333	0,5	-2,537750
20,508667	0,5	-2,542350
20,517000	0,5	-2,534000
20,525333	0,5	-2,526100
20,533667	0,5	-2,548350
20,542000	0,5	-2,566450
20,550333	0,5	-2,597400
20,558667	0,5	-2,633500
20,567000	0,5	-2,687100
20,575333	0,5	-2,755750
20,583667	0,5	-2,791350
20,592000	0,5	-2,812550
20,600333	0,5	-2,852650
20,608667	0,5	-2,867150
20,617000	0,5	-2,898050
20,625333	0,5	-2,922800
20,633667	0,5	-2,960500
20,642000	0,5	-2,988700
20,650333	0,5	-3,017650
20,658667	0,5	-3,040750
20,667000	0,5	-3,036100
20,675333	0,5	-3,041450
20,683667	0,5	-3,055800
20,692000	0,5	-3,054550
20,700333	0,5	-3,042050
20,708667	0,5	-3,059700
20,717000	0,5	-3,088650
20,725333	0,5	-3,136850
20,733667	0,5	-3,172650
20,742000	0,5	-3,232050
20,750333	0,5	-3,280500
20,758667	0,5	-3,330600
20,767000	0,5	-3,370000
20,775333	0,5	-3,419600
20,783667	0,5	-3,459050
20,792000	0,5	-3,497700
20,800333	0,5	-3,542550
20,808667	0,5	-3,557550
20,817000	0,5	-3,567800
20,825333	0,5	-3,607450
20,833667	0,5	-3,645450
20,842000	0,5	-3,664250
20,850333	0,5	-3,707400
20,858667	0,5	-3,744900
20,867000	0,5	-3,802900
20,875333	0,5	-3,812600
20,883667	0,5	-3,840450
20,892000	0,5	-3,865200
20,900333	0,5	-3,895550
20,908667	0,5	-3,921050
20,917000	0,5	-3,971150
20,925333	0,5	-4,005500
20,933667	0,5	-4,044800
20,942000	0,5	-4,079850
20,950333	0,5	-4,114600
20,958667	0,5	-4,108300
20,967000	0,5	-4,121100
20,975333	0,5	-4,154350
20,983667	0,5	-4,187400
20,992000	0,5	-4,225150
21,000333	0,5	-4,255850
21,008667	0,5	-4,301250
21,017000	0,5	-4,321750
21,025333	0,5	-4,348950
21,033667	0,5	-4,366900
21,042000	0,5	-4,410600
21,050333	0,5	-4,438000
21,058667	0,5	-4,476950
21,067000	0,5	-4,502350
21,075333	0,5	-4,540250
21,083667	0,5	-4,561100
21,092000	0,5	-4,590100
21,100333	0,5	-4,612000
21,108667	0,5	-4,609100
21,117000	0,5	-4,622250
21,125333	0,5	-4,659750
21,133667	0,5	-4,688400
21,142000	0,5	-4,715650
21,150333	0,5	-4,760700
21,158667	0,5	-4,808700
21,167000	0,5	-4,824100
21,175333	0,5	-4,831800
21,183667	0,5	-4,857350
21,192000	0,5	-4,873100
21,200333	0,5	-4,897050
21,208667	0,5	-4,914600
21,217000	0,5	-4,949250
21,225333	0,5	-4,956650
21,233667	0,5	-4,974150
21,242000	0,5	-4,994600
21,250333	0,5	-4,976000
21,258667	0,5	-4,956500
21,267000	0,5	-4,974550
21,275333	0,5	-4,977800
21,283667	0,5	-4,983950
21,292000	0,5	-5,013600
21,300333	0,5	-5,046450
21,308667	0,5	-5,107750
21,317000	0,5	-5,121200
21,325333	0,5	-5,143600
21,333667	0,5	-5,161050
21,342000	0,5	-5,189500
21,350333	0,5	-5,205000
21,358667	0,5	-5,235950
21,367000	0,5	-5,253700
21,375333	0,5	-5,266150
21,383667	0,5	-5,288550
21,392000	0,5	-5,290800
21,400333	0,5	-5,277350
21,408667	0,5	-5,279850
21,417000	0,5	-5,308800
21,425333	0,5	-5,322850
21,433667	0,5	-5,351200
21,442000	0,5	-5,384000
21,450333	0,5	-5,428900
21,458667	0,5	-5,453150
21,467000	0,5	-5,470750
21,475333	0,5	-5,475850
21,483667	0,5	-5,502150
21,492000	0,5	-5,510600
21,500333	0,5	-5,533700
21,508667	0,5	-5,536550
21,517000	0,5	-5,557400
21,525333	0,5	-5,584750
21,533667	0,5	-5,589900
21,542000	0,5	-5,573150
21,550333	0,5	-5,567800
21,558667	0,5	-5,596000
21,567000	0,5	-5,603350
21,575333	0,5	-5,626450
21,583667	0,5	-5,651500
21,592000	0,5	-5,691800
21,600333	0,5	-5,718200
21,608667	0,5	-5,722550
21,617000	0,5	-5,721700
21,625333	0,5	-5,740600
21,633667	0,5	-5,717000
21,642000	0,5	-5,716550
21,650333	0,5	-5,709150
21,658667	0,5	-5,700000
21,667000	0,5	-5,701050
21,675333	0,5	-5,714950
21,683667	0,5	-5,726450
21,692000	0,5	-5,726850
21,700333	0,5	-5,742600
21,708667	0,5	-5,767300
21,717000	0,5	-5,775450
21,725333	0,5	-5,791800
21,733667	0,5	-5,817700
21,742000	0,5	-5,850900
21,750333	0,5	-5,866000
21,758667	0,5	-5,874350
21,767000	0,5	-5,892250
21,775333	0,5	-5,892600
21,783667	0,5	-5,907300
21,792000	0,5	-5,898750
21,800333	0,5	-5,916250
21,808667	0,5	-5,911150
21,817000	0,5	-5,910800
21,825333	0,5	-5,904550
21,833667	0,5	-5,883050
21,842000	0,5	-5,862850
21,850333	0,5	-5,859400
21,858667	0,5	-5,859450
21,867000	0,5	-5,854250
21,875333	0,5	-5,869100
21,883667	0,5	-5,885950
21,892000	0,5	-5,904400
21,900333	0,5	-5,891450
21,908667	0,5	-5,884900
21,917000	0,5	-5,851600
21,925333	0,5	-5,816550
21,933667	0,5	-5,780150
21,942000	0,5	-5,783150
21,950333	0,5	-5,782350
21,958667	0,5	-5,802700
21,967000	0,5	-5,845450
21,975333	0,5	-5,871600
21,983667	0,5	-5,877550
21,992000	0,5	-5,919100
22,000333	0,5	-5,936300
22,008667	0,5	-5,967150
22,017000	0,5	-5,999250
22,025333	0,5	-6,038450
22,033667	0,5	-6,096500
22,042000	0,5	-6,101150
22,050333	0,5	-6,131500
22,058667	0,5	-6,139850
22,067000	0,5	-6,172050
22,075333	0,5	-6,187800
22,083667	0,5	-6,218700
22,092000	0,5	-6,229600
22,100333	0,5	-6,252300
22,108667	0,5	-6,271950
22,117000	0,5	-6,293600
22,125333	0,5	-6,319250
22,133667	0,5	-6,328800
22,142000	0,5	-6,364300
22,150333	0,5	-6,365850
22,158667	0,5	-6,385750
22,167000	0,5	-6,395900
22,175333	0,5	-6,445300
22,183667	0,5	-6,470150
22,192000	0,5	-6,468800
22,200333	0,5	-6,475050
22,208667	0,5	-6,491700
22,217000	0,5	-6,483000
22,225333	0,5	-6,507900
22,233667	0,5	-6,516700
22,242000	0,5	-6,516400
22,250333	0,5	-6,517950
22,258667	0,5	-6,524700
22,267000	0,5	-6,530050
22,275333	0,5	-6,512400
22,283667	0,5	-6,531950
22,292000	0,5	-6,513500
22,300333	0,5	-6,493400
22,308667	0,5	-6,492200
22,317000	0,5	-6,502550
22,325333	0,5	-6,507600
22,333667	0,5	-6,502600
22,342000	0,5	-6,472000
22,350333	0,5	-6,455900
22,358667	0,5	-6,402100
22,367000	0,5	-6,338650
22,375333	0,5	-6,296650
22,383667	0,5	-6,295500
22,392000	0,5	-6,315000
22,400333	0,5	-6,354650
22,408667	0,5	-6,408200
22,417000	0,5	-6,454200
22,425333	0,5	-6,501350
22,433667	0,5	-6,509450
22,442000	0,5	-6,501600
22,450333	0,5	-6,522000
22,458667	0,5	-6,535300
22,467000	0,5	-6,558650
22,475333	0,5	-6,571600
22,483667	0,5	-6,566900
22,492000	0,5	-6,565150
22,500333	0,5	-6,551850
22,508667	0,5	-6,554350
22,517000	0,5	-6,544800
22,525333	0,5	-6,539850
22,533667	0,5	-6,526850
22,542000	0,5	-6,517350
22,550333	0,5	-6,509550
22,558667	0,5	-6,486500
22,567000	0,5	-6,513550
22,575333	0,5	-6,465550
22,583667	0,5	-6,423050
22,592000	0,5	-6,380350
22,600333	0,5	-6,374100
22,608667	0,5	-6,346650
22,617000	0,5	-6,369600
22,625333	0,5	-6,361200
22,633667	0,5	-6,354300
22,642000	0,5	-6,350300
22,650333	0,5	-6,354700
22,658667	0,5	-6,347850
22,667000	0,5	-6,346700
22,675333	0,5	-6,341000
22,683667	0,5	-6,350700
22,692000	0,5	-6,350100
22,700333	0,5	-6,347300
22,708667	0,5	-6,404950
22,717000	0,5	-6,417700
22,725333	0,5	-6,412250
22,733667	0,5	-6,386800
22,742000	0,5	-6,384600
22,750333	0,5	-6,392650
22,758667	0,5	-6,418550
22,767000	0,5	-6,431900
22,775333	0,5	-6,435000
22,783667	0,5	-6,440000
22,792000	0,5	-6,442450
22,800333	0,5	-6,445850
22,808667	0,5	-6,465850
22,817000	0,5	-6,486300
22,825333	0,5	-6,506450
22,833667	0,5	-6,517950
22,842000	0,5	-6,538000
22,850333	0,5	-6,572050
22,858667	0,5	-6,664750
22,867000	0,5	-6,699450
22,875333	0,5	-6,687050
22,883667	0,5	-6,708350
22,892000	0,5	-6,730500
22,900333	0,5	-6,762550
22,908667	0,5	-6,800600
22,917000	0,5	-6,825450
22,925333	0,5	-6,874850
22,933667	0,5	-6,894050
22,942000	0,5	-6,930050
22,950333	0,5	-6,936600
22,958667	0,5	-6,959500
22,967000	0,5	-6,962400
22,975333	0,5	-6,967400
22,983667	0,5	-6,961250
22,992000	0,5	-6,966500
23,000333	0,5	-6,933950
23,008667	0,5	-6,956100
23,017000	0,5	-6,929900
23,025333	0,5	-6,934850
23,033667	0,5	-6,949450
23,042000	0,5	-6,924950
23,050333	0,5	-6,913550
23,058667	0,5	-6,874600
23,067000	0,5	-6,879450
23,075333	0,5	-6,838850
23,083667	0,5	-6,823950
23,092000	0,5	-6,779300
23,100333	0,5	-6,740950
23,108667	0,5	-6,673850
23,117000	0,5	-6,630650
23,125333	0,5	-6,568850
23,133667	0,5	-6,506600
23,142000	0,5	-6,430300
23,150333	0,5	-6,338350
23,158667	0,5	-6,258950
23,167000	0,5	-6,206500
23,175333	0,5	-6,181950
23,183667	0,5	-6,114000
23,192000	0,5	-6,045950
23,200333	0,5	-5,958800
23,208667	0,5	-5,889200
23,217000	0,5	-5,829400
23,225333	0,5	-5,771350
23,233667	0,5	-5,689400
23,242000	0,5	-5,624950
23,250333	0,5	-5,534850
23,258667	0,5	-5,459200
23,267000	0,5	-5,381400
23,275333	0,5	-5,293300
23,283667	0,5	-5,190550
23,292000	0,5	-5,078250
23,300333	0,5	-5,015750
23,308667	0,5	-4,896600
23,317000	0,5	-4,819800
23,325333	0,5	-4,780600
23,333667	0,5	-4,718050
23,342000	0,5	-4,618850
23,350333	0,5	-4,535300
23,358667	0,5	-4,462750
23,367000	0,5	-4,423250
23,375333	0,5	-4,349250
23,383667	0,5	-4,283600
23,392000	0,5	-4,205350
23,400333	0,5	-4,141300
23,408667	0,5	-4,062300
23,417000	0,5	-4,010300
23,425333	0,5	-3,928650
23,433667	0,5	-3,855700
23,442000	0,5	-3,802450
23,450333	0,5	-3,736250
23,458667	0,5	-3,630850
23,467000	0,5	-3,561800
23,475333	0,5	-3,506700
23,483667	0,5	-3,450900
23,492000	0,5	-3,388600
23,500333	0,5	-3,327700
23,508667	0,5	-3,284900
23,517000	0,5	-3,245550
23,525333	0,5	-3,206150
23,533667	0,5	-3,159500
23,542000	0,5	-3,112900
23,550333	0,5	-3,066600
23,558667	0,5	-3,028700
23,567000	0,5	-2,985150
23,575333	0,5	-2,942350
23,583667	0,5	-2,889250
23,592000	0,5	-2,986100
23,600333	0,5	-2,910100
23,608667	0,5	-2,812750
23,617000	0,5	-2,756550
23,625333	0,5	-2,715850
23,633667	0,5	-2,681550
23,642000	0,5	-2,640300
23,650333	0,5	-2,613050
23,658667	0,5	-2,579350
23,667000	0,5	-2,553200
23,675333	0,5	-2,522900
23,683667	0,5	-2,489750
23,692000	0,5	-2,461700
23,700333	0,5	-2,435250
23,708667	0,5	-2,402800
23,717000	0,5	-2,371200
23,725333	0,5	-2,336000
23,733667	0,5	-2,370150
23,742000	0,5	-2,443100
23,750333	0,5	-2,382700
23,758667	0,5	-2,292650
23,767000	0,5	-2,240400
23,775333	0,5	-2,214700
23,783667	0,5	-2,184150
23,792000	0,5	-2,176150
23,800333	0,5	-2,153000
23,808667	0,5	-2,125450
23,817000	0,5	-2,095000
23,825333	0,5	-2,073750
23,833667	0,5	-2,051300
23,842000	0,5	-2,019200
23,850333	0,5	-1,992500
23,858667	0,5	-1,962650
23,867000	0,5	-1,931850
23,875333	0,5	-1,904500
23,883667	0,5	-2,063750
23,892000	0,5	-2,025400
23,900333	0,5	-1,990500
23,908667	0,5	-1,890400
23,917000	0,5	-1,844250
23,925333	0,5	-1,804900
23,933667	0,5	-1,781750
23,942000	0,5	-1,766300
23,950333	0,5	-1,738750
23,958667	0,5	-1,706500
23,967000	0,5	-1,689550
23,975333	0,5	-1,660800
23,983667	0,5	-1,634000
23,992000	0,5	-1,613350
24,000333	0,5	-1,585250
24,008667	0,5	-1,568150
24,017000	0,5	-1,539850
24,025333	0,5	-1,555400
24,033667	0,5	-1,670100
24,042000	0,5	-1,650950
24,050333	0,5	-1,575250
24,058667	0,5	-1,511650
24,067000	0,5	-1,459800
24,075333	0,5	-1,439150
24,083667	0,5	-1,419300
24,092000	0,5	-1,406150
24,100333	0,5	-1,358900
24,108667	0,5	-1,340950
24,117000	0,5	-1,303850
24,125333	0,5	-1,281950
24,133667	0,5	-1,246700
24,142000	0,5	-1,225850
24,150333	0,5	-1,199200
24,158667	0,5	-1,173000
24,167000	0,5	-1,155700
24,175333	0,5	-1,262350
24,183667	0,5	-1,282400
24,192000	0,5	-1,246950
24,200333	0,5	-1,174750
24,208667	0,5	-1,131800
24,217000	0,5	-1,102850
24,225333	0,5	-1,072450
24,233667	0,5	-1,072500
24,242000	0,5	-1,047350
24,250333	0,5	-1,023200
24,258667	0,5	-0,993950
24,267000	0,5	-0,980050
24,275333	0,5	-0,949600
24,283667	0,5	-0,929000
24,292000	0,5	-0,904400
24,300333	0,5	-0,875200
24,308667	0,5	-0,854050
24,317000	0,5	-0,846250
24,325333	0,5	-0,966500
24,333667	0,5	-0,922250
24,342000	0,5	-0,889350
24,350333	0,5	-0,830800
24,358667	0,5	-0,797000
24,367000	0,5	-0,762100
24,375333	0,5	-0,755850
24,383667	0,5	-0,754850
24,392000	0,5	-0,737450
24,400333	0,5	-0,706900
24,408667	0,5	-0,693700
24,417000	0,5	-0,676200
24,425333	0,5	-0,663800
24,433667	0,5	-0,642900
24,442000	0,5	-0,631950
24,450333	0,5	-0,607100
24,458667	0,5	-0,594300
24,467000	0,5	-0,611050
24,475333	0,5	-0,673450
24,483667	0,5	-0,645950
24,492000	0,5	-0,615500
24,500333	0,5	-0,564350
24,508667	0,5	-0,545850
24,517000	0,5	-0,529550
24,525333	0,5	-0,529550
24,533667	0,5	-0,529000
24,542000	0,5	-0,502750
24,550333	0,5	-0,487600
24,558667	0,5	-0,468000
24,567000	0,5	-0,454750
24,575333	0,5	-0,436750
24,583667	0,5	-0,424300
24,592000	0,5	-0,408100
24,600333	0,5	-0,395850
24,608667	0,5	-0,378150
24,617000	0,5	-0,430750
24,625333	0,5	-0,441000
24,633667	0,5	-0,431300
24,642000	0,5	-0,399150
24,650333	0,5	-0,372900
24,658667	0,5	-0,355650
24,667000	0,5	-0,348100
24,675333	0,5	-0,354450
24,683667	0,5	-0,351200
24,692000	0,5	-0,339600
24,700333	0,5	-0,322300
24,708667	0,5	-0,315650
24,717000	0,5	-0,303500
24,725333	0,5	-0,299650
24,733667	0,5	-0,288150
24,742000	0,5	-0,276400
24,750333	0,5	-0,260000
24,758667	0,5	-0,251450
24,767000	0,5	-0,289750
24,775333	0,5	-0,284050
24,783667	0,5	-0,269450
24,792000	0,5	-0,247750
24,800333	0,5	-0,223950
24,808667	0,5	-0,220000
24,817000	0,5	-0,216050
24,825333	0,5	-0,221250
24,833667	0,5	-0,215050
24,842000	0,5	-0,208200
24,850333	0,5	-0,200450
24,858667	0,5	-0,195950
24,867000	0,5	-0,191000
24,875333	0,5	-0,184000
24,883667	0,5	-0,186800
24,892000	0,5	-0,175000
24,900333	0,5	-0,171650
24,908667	0,5	-0,175950
24,917000	0,5	-0,195200
24,925333	0,5	-0,187100
24,933667	0,5	-0,175850
24,942000	0,5	-0,159550
24,950333	0,5	-0,142300
24,958667	0,5	-0,133000
24,967000	0,5	-0,134900
24,975333	0,5	-0,132850
24,983667	0,5	-0,119250
24,992000	0,5	-0,111000
25,000333	0,5	-0,111750
25,008667	0,5	-0,105000
25,017000	0,5	-0,104150
25,025333	0,5	-0,096400
25,033667	0,5	-0,095600
25,042000	0,5	-0,093150
25,050333	0,5	-0,090700
25,058667	0,5	-0,110000
25,067000	0,5	-0,106200
25,075333	0,5	-0,110000
25,083667	0,5	-0,097500
25,092000	0,5	-0,095650
25,100333	0,5	-0,088300
25,108667	0,5	-0,089600
25,117000	0,5	-0,094150
25,125333	0,5	-0,086750
25,133667	0,5	-0,079950
25,142000	0,5	-0,079050
25,150333	0,5	-0,074150
25,158667	0,5	-0,070450
25,167000	0,5	-0,063250
25,175333	0,5	-0,061200
25,183667	0,5	-0,057850
25,192000	0,5	-0,052300
25,200333	0,5	-0,049600
25,208667	0,5	-0,057950
25,217000	0,5	-0,053400
25,225333	0,5	-0,052050
25,233667	0,5	-0,052950
25,242000	0,5	-0,054650
25,250333	0,5	-0,056250
25,258667	0,5	-0,057350
25,267000	0,5	-0,058900
25,275333	0,5	-0,055450
25,283667	0,5	-0,060450
25,292000	0,5	-0,056650
25,300333	0,5	-0,059000
25,308667	0,5	-0,052850
25,317000	0,5	-0,053400
25,325333	0,5	-0,048200
25,333667	0,5	-0,047850
25,342000	0,5	-0,038850
25,350333	0,5	-0,041750
25,358667	0,5	-0,034650
25,367000	0,5	-0,033000
25,375333	0,5	-0,029050
25,383667	0,5	-0,029550
25,392000	0,5	-0,027800
25,400333	0,5	-0,026400
25,408667	0,5	-0,031450
25,417000	0,5	-0,032950
25,425333	0,5	-0,033800
25,433667	0,5	-0,035550
25,442000	0,5	-0,035900
25,450333	0,5	-0,036050
25,458667	0,5	-0,042550
25,467000	0,5	-0,044550
25,475333	0,5	-0,039950
25,483667	0,5	-0,040150
25,492000	0,5	-0,042750
25,500333	0,5	-0,036800
25,508667	0,5	-0,032600
25,517000	0,5	-0,028000
25,525333	0,5	-0,031550
25,533667	0,5	-0,034400
25,542000	0,5	-0,030250
25,550333	0,5	-0,029100
25,558667	0,5	-0,026050
25,567000	0,5	-0,021100
25,575333	0,5	-0,027450
25,583667	0,5	-0,029150
25,592000	0,5	-0,027950
25,600333	0,5	-0,026800
25,608667	0,5	-0,031100
25,617000	0,5	-0,030000
25,625333	0,5	-0,030650
25,633667	0,5	-0,030750
25,642000	0,5	-0,034350
25,650333	0,5	-0,024300
25,658667	0,5	-0,027900
25,667000	0,5	-0,022550
25,675333	0,5	-0,030700
25,683667	0,5	-0,034000
25,692000	0,5	-0,036000
25,700333	0,5	-0,031350
25,708667	0,5	-0,026550
25,717000	0,5	-0,032150
25,725333	0,5	-0,027750
25,733667	0,5	-0,028450
25,742000	0,5	-0,028250
25,750333	0,5	-0,027450
25,758667	0,5	-0,033000
25,767000	0,5	-0,029000
25,775333	0,5	-0,028900
25,783667	0,5	-0,029000
25,792000	0,5	-0,027300
25,800333	0,5	-0,020150
25,808667	0,5	-0,017150
25,817000	0,5	-0,021650
25,825333	0,5	-0,028500
25,833667	0,5	-0,030000
25,842000	0,5	-0,031300
25,850333	0,5	-0,023400
25,858667	0,5	-0,016100
25,867000	0,5	-0,018400
25,875333	0,5	-0,022550
25,883667	0,5	-0,024400
25,892000	0,5	-0,020550
25,900333	0,5	-0,021900
25,908667	0,5	-0,020650
25,917000	0,5	-0,021450
25,925333	0,5	-0,021600
25,933667	0,5	-0,013100
25,942000	0,5	-0,006950
25,950333	0,5	-0,003000
25,958667	0,5	0,006500
25,967000	0,5	0,006400
25,975333	0,5	-0,003800
25,983667	0,5	-0,001050
25,992000	0,5	-0,002000
26,000333	0,5	0,013400
