File Path	chrom://chromeleon01/ikbm_chromeleon/2022/Rezex/Esteban/220612_chitin_4_7.seq/134.smp/UV_VIS_1.channel/UV_VIS_1.chm
Channel	UV_VIS_1

Injection Information:
Data Vault	ikbm_chromeleon
Injection	4_00.5h-EGS_2
Injection Number	104
Position	BA7
Comment	
Processing Method	New ProcMethod
Instrument Method	Short_Rezex_6min_194nm
Type	Unknown
Status	Finished
Injection Date	13.06.2022
Injection Time	04:21:09
Injection Volume (µl)	8,000
Dilution Factor	1,0000
Weight	1,0000

Chromatogram Data Information:
Time Min. (min)	0,000833
Time Max. (min)	6,000833
Data Points	3601
Detector	UV
Generating Data System	Chromeleon 7.2.9.11323
Exporting Data System	Chromeleon 7.2.9.0
Operator	Instrument Controller
Signal Quantity	Absorbance
Signal Unit	mAU
Signal Min.	-0,089751
Signal Max.	120,203459
Channel	UV_VIS_1
Driver Name	VWD3000.dll
Channel Type	Evaluation
Min. Step (s)	0,1
Max. Step (s)	0,1
Average Step (s)	0,1

Signal Parameter Information:
Signal Info	WVL:194 nm

Chromatogram Data:
Time (min)	Step (s)	Value (mAU)
0,000833	n.a.	-0,013200
0,002500	0,1	-0,047054
0,004167	0,1	-0,036423
0,005833	0,1	-0,034664
0,007500	0,1	-0,016598
0,009167	0,1	0,031766
0,010833	0,1	-0,014330
0,012500	0,1	-0,015562
0,014167	0,1	-0,056097
0,015833	0,1	-0,025441
0,017500	0,1	-0,008818
0,019167	0,1	0,001100
0,020833	0,1	-0,045083
0,022500	0,1	-0,049213
0,024167	0,1	-0,043479
0,025833	0,1	-0,003319
0,027500	0,1	-0,054890
0,029167	0,1	-0,056333
0,030833	0,1	-0,046485
0,032500	0,1	-0,076690
0,034167	0,1	-0,070030
0,035833	0,1	-0,077707
0,037500	0,1	-0,048309
0,039167	0,1	-0,045139
0,040833	0,1	-0,087574
0,042500	0,1	-0,087497
0,044167	0,1	-0,058574
0,045833	0,1	-0,070798
0,047500	0,1	-0,089751
0,049167	0,1	-0,081314
0,050833	0,1	-0,050981
0,052500	0,1	-0,028936
0,054167	0,1	-0,080806
0,055833	0,1	-0,054312
0,057500	0,1	-0,041871
0,059167	0,1	-0,009277
0,060833	0,1	-0,034822
0,062500	0,1	-0,001764
0,064167	0,1	-0,048561
0,065833	0,1	-0,019769
0,067500	0,1	-0,036046
0,069167	0,1	-0,046707
0,070833	0,1	-0,007788
0,072500	0,1	-0,027148
0,074167	0,1	-0,032014
0,075833	0,1	-0,023325
0,077500	0,1	-0,005092
0,079167	0,1	-0,027230
0,080833	0,1	-0,056864
0,082500	0,1	-0,014307
0,084167	0,1	-0,011341
0,085833	0,1	-0,020796
0,087500	0,1	-0,038076
0,089167	0,1	-0,032905
0,090833	0,1	0,019282
0,092500	0,1	-0,016071
0,094167	0,1	0,030130
0,095833	0,1	-0,039470
0,097500	0,1	-0,024567
0,099167	0,1	-0,000497
0,100833	0,1	-0,001879
0,102500	0,1	-0,002106
0,104167	0,1	-0,040014
0,105833	0,1	-0,020700
0,107500	0,1	-0,048648
0,109167	0,1	-0,026246
0,110833	0,1	-0,056284
0,112500	0,1	-0,025318
0,114167	0,1	-0,055808
0,115833	0,1	-0,055009
0,117500	0,1	-0,055791
0,119167	0,1	-0,030614
0,120833	0,1	-0,035057
0,122500	0,1	-0,073604
0,124167	0,1	-0,023725
0,125833	0,1	-0,064787
0,127500	0,1	-0,024199
0,129167	0,1	-0,041408
0,130833	0,1	-0,058545
0,132500	0,1	-0,072389
0,134167	0,1	-0,049178
0,135833	0,1	-0,019582
0,137500	0,1	-0,023323
0,139167	0,1	-0,022288
0,140833	0,1	-0,028123
0,142500	0,1	0,000060
0,144167	0,1	0,012856
0,145833	0,1	-0,035791
0,147500	0,1	-0,022538
0,149167	0,1	-0,044367
0,150833	0,1	-0,047783
0,152500	0,1	0,023357
0,154167	0,1	-0,040155
0,155833	0,1	0,033208
0,157500	0,1	-0,029910
0,159167	0,1	-0,013557
0,160833	0,1	0,008880
0,162500	0,1	-0,021886
0,164167	0,1	-0,022102
0,165833	0,1	0,003684
0,167500	0,1	-0,026980
0,169167	0,1	-0,055438
0,170833	0,1	0,008557
0,172500	0,1	-0,036663
0,174167	0,1	-0,024362
0,175833	0,1	-0,018002
0,177500	0,1	-0,020942
0,179167	0,1	-0,046950
0,180833	0,1	-0,022706
0,182500	0,1	-0,030583
0,184167	0,1	-0,038720
0,185833	0,1	-0,033917
0,187500	0,1	-0,026057
0,189167	0,1	-0,003996
0,190833	0,1	-0,021536
0,192500	0,1	0,002773
0,194167	0,1	-0,028737
0,195833	0,1	0,011483
0,197500	0,1	0,002387
0,199167	0,1	-0,033869
0,200833	0,1	0,004261
0,202500	0,1	-0,027475
0,204167	0,1	-0,027876
0,205833	0,1	-0,008195
0,207500	0,1	-0,038547
0,209167	0,1	-0,028229
0,210833	0,1	-0,002921
0,212500	0,1	-0,016324
0,214167	0,1	-0,025038
0,215833	0,1	0,018230
0,217500	0,1	-0,007772
0,219167	0,1	-0,009805
0,220833	0,1	-0,042749
0,222500	0,1	-0,028499
0,224167	0,1	0,009952
0,225833	0,1	-0,033246
0,227500	0,1	-0,029882
0,229167	0,1	-0,018977
0,230833	0,1	-0,019739
0,232500	0,1	-0,015334
0,234167	0,1	-0,028121
0,235833	0,1	-0,005217
0,237500	0,1	-0,041939
0,239167	0,1	-0,007433
0,240833	0,1	0,011612
0,242500	0,1	-0,005744
0,244167	0,1	0,015688
0,245833	0,1	0,015011
0,247500	0,1	-0,022464
0,249167	0,1	-0,032136
0,250833	0,1	0,007778
0,252500	0,1	0,006691
0,254167	0,1	-0,008829
0,255833	0,1	0,017943
0,257500	0,1	0,003443
0,259167	0,1	-0,054476
0,260833	0,1	-0,003650
0,262500	0,1	-0,021289
0,264167	0,1	-0,000539
0,265833	0,1	-0,014024
0,267500	0,1	-0,005255
0,269167	0,1	0,002340
0,270833	0,1	-0,009700
0,272500	0,1	-0,044920
0,274167	0,1	0,033724
0,275833	0,1	-0,007561
0,277500	0,1	0,011943
0,279167	0,1	-0,010132
0,280833	0,1	0,015004
0,282500	0,1	-0,009365
0,284167	0,1	0,012770
0,285833	0,1	0,035021
0,287500	0,1	-0,000836
0,289167	0,1	-0,006265
0,290833	0,1	-0,037078
0,292500	0,1	0,005230
0,294167	0,1	0,023245
0,295833	0,1	-0,001127
0,297500	0,1	-0,010551
0,299167	0,1	0,030152
0,300833	0,1	0,019567
0,302500	0,1	-0,047397
0,304167	0,1	0,011001
0,305833	0,1	-0,017604
0,307500	0,1	-0,000557
0,309167	0,1	0,026306
0,310833	0,1	-0,000404
0,312500	0,1	0,023368
0,314167	0,1	-0,010337
0,315833	0,1	0,009563
0,317500	0,1	-0,005996
0,319167	0,1	0,008405
0,320833	0,1	0,016459
0,322500	0,1	-0,007525
0,324167	0,1	0,005569
0,325833	0,1	-0,021578
0,327500	0,1	-0,021376
0,329167	0,1	0,003229
0,330833	0,1	0,022685
0,332500	0,1	-0,014536
0,334167	0,1	0,010761
0,335833	0,1	-0,000365
0,337500	0,1	0,002778
0,339167	0,1	-0,011894
0,340833	0,1	-0,002855
0,342500	0,1	-0,015143
0,344167	0,1	0,035780
0,345833	0,1	0,012347
0,347500	0,1	0,001436
0,349167	0,1	-0,002623
0,350833	0,1	0,012047
0,352500	0,1	0,035953
0,354167	0,1	-0,035971
0,355833	0,1	-0,009109
0,357500	0,1	-0,009952
0,359167	0,1	0,012687
0,360833	0,1	0,014140
0,362500	0,1	0,022461
0,364167	0,1	0,013129
0,365833	0,1	0,047210
0,367500	0,1	0,010776
0,369167	0,1	0,020805
0,370833	0,1	0,010562
0,372500	0,1	0,027632
0,374167	0,1	-0,008349
0,375833	0,1	0,020924
0,377500	0,1	0,025877
0,379167	0,1	0,039226
0,380833	0,1	0,007030
0,382500	0,1	0,049588
0,384167	0,1	0,007033
0,385833	0,1	0,034648
0,387500	0,1	0,001792
0,389167	0,1	0,025810
0,390833	0,1	0,005245
0,392500	0,1	-0,023520
0,394167	0,1	0,054362
0,395833	0,1	-0,010785
0,397500	0,1	-0,017318
0,399167	0,1	0,014216
0,400833	0,1	0,008555
0,402500	0,1	0,026888
0,404167	0,1	0,065486
0,405833	0,1	0,014815
0,407500	0,1	0,011326
0,409167	0,1	0,017845
0,410833	0,1	-0,021987
0,412500	0,1	0,027562
0,414167	0,1	0,012221
0,415833	0,1	0,038208
0,417500	0,1	-0,040831
0,419167	0,1	0,037243
0,420833	0,1	0,034014
0,422500	0,1	-0,026247
0,424167	0,1	0,029715
0,425833	0,1	0,037551
0,427500	0,1	0,024019
0,429167	0,1	0,023953
0,430833	0,1	0,034299
0,432500	0,1	0,050838
0,434167	0,1	-0,005406
0,435833	0,1	0,029968
0,437500	0,1	-0,002678
0,439167	0,1	0,021152
0,440833	0,1	0,006403
0,442500	0,1	0,056769
0,444167	0,1	0,031493
0,445833	0,1	-0,020763
0,447500	0,1	0,072308
0,449167	0,1	0,032429
0,450833	0,1	0,051892
0,452500	0,1	0,042688
0,454167	0,1	0,022818
0,455833	0,1	0,033658
0,457500	0,1	0,026665
0,459167	0,1	0,045249
0,460833	0,1	0,010031
0,462500	0,1	-0,008353
0,464167	0,1	0,001471
0,465833	0,1	0,063786
0,467500	0,1	0,040786
0,469167	0,1	-0,000710
0,470833	0,1	0,019166
0,472500	0,1	0,009486
0,474167	0,1	0,029972
0,475833	0,1	0,029211
0,477500	0,1	0,055121
0,479167	0,1	0,006640
0,480833	0,1	0,040174
0,482500	0,1	0,054005
0,484167	0,1	0,059949
0,485833	0,1	0,030377
0,487500	0,1	0,004357
0,489167	0,1	0,016892
0,490833	0,1	0,046840
0,492500	0,1	0,035919
0,494167	0,1	0,004027
0,495833	0,1	0,032681
0,497500	0,1	0,062468
0,499167	0,1	0,031268
0,500833	0,1	0,025921
0,502500	0,1	0,005577
0,504167	0,1	0,006318
0,505833	0,1	0,054389
0,507500	0,1	0,053802
0,509167	0,1	0,040951
0,510833	0,1	0,062676
0,512500	0,1	0,012890
0,514167	0,1	0,070679
0,515833	0,1	0,014797
0,517500	0,1	0,021695
0,519167	0,1	0,071965
0,520833	0,1	0,059125
0,522500	0,1	0,074644
0,524167	0,1	0,012500
0,525833	0,1	0,045203
0,527500	0,1	0,056097
0,529167	0,1	0,040722
0,530833	0,1	0,059821
0,532500	0,1	0,038075
0,534167	0,1	0,050384
0,535833	0,1	0,038384
0,537500	0,1	0,021472
0,539167	0,1	0,065136
0,540833	0,1	0,077604
0,542500	0,1	0,066102
0,544167	0,1	0,024398
0,545833	0,1	0,069088
0,547500	0,1	0,048362
0,549167	0,1	0,070150
0,550833	0,1	0,033793
0,552500	0,1	0,075960
0,554167	0,1	0,059663
0,555833	0,1	0,074706
0,557500	0,1	0,077152
0,559167	0,1	0,052338
0,560833	0,1	0,081308
0,562500	0,1	0,078457
0,564167	0,1	0,064341
0,565833	0,1	0,061585
0,567500	0,1	0,022224
0,569167	0,1	0,033431
0,570833	0,1	0,059800
0,572500	0,1	0,045669
0,574167	0,1	0,052517
0,575833	0,1	0,049788
0,577500	0,1	0,049539
0,579167	0,1	0,067316
0,580833	0,1	0,078539
0,582500	0,1	0,052420
0,584167	0,1	0,061956
0,585833	0,1	0,092835
0,587500	0,1	0,062649
0,589167	0,1	0,083502
0,590833	0,1	0,054679
0,592500	0,1	0,065245
0,594167	0,1	0,093314
0,595833	0,1	0,073969
0,597500	0,1	0,097291
0,599167	0,1	0,080323
0,600833	0,1	0,101181
0,602500	0,1	0,060186
0,604167	0,1	0,062373
0,605833	0,1	0,062704
0,607500	0,1	0,070050
0,609167	0,1	0,085699
0,610833	0,1	0,116622
0,612500	0,1	0,124329
0,614167	0,1	0,082130
0,615833	0,1	0,114038
0,617500	0,1	0,135259
0,619167	0,1	0,075740
0,620833	0,1	0,078105
0,622500	0,1	0,082516
0,624167	0,1	0,104226
0,625833	0,1	0,079725
0,627500	0,1	0,084709
0,629167	0,1	0,099735
0,630833	0,1	0,116813
0,632500	0,1	0,097239
0,634167	0,1	0,104025
0,635833	0,1	0,078338
0,637500	0,1	0,109420
0,639167	0,1	0,063128
0,640833	0,1	0,102234
0,642500	0,1	0,095019
0,644167	0,1	0,120662
0,645833	0,1	0,082566
0,647500	0,1	0,097911
0,649167	0,1	0,140867
0,650833	0,1	0,096891
0,652500	0,1	0,108908
0,654167	0,1	0,088878
0,655833	0,1	0,112323
0,657500	0,1	0,112449
0,659167	0,1	0,085938
0,660833	0,1	0,087690
0,662500	0,1	0,116776
0,664167	0,1	0,121496
0,665833	0,1	0,139339
0,667500	0,1	0,145078
0,669167	0,1	0,124733
0,670833	0,1	0,137336
0,672500	0,1	0,151269
0,674167	0,1	0,173042
0,675833	0,1	0,113956
0,677500	0,1	0,144821
0,679167	0,1	0,117220
0,680833	0,1	0,159167
0,682500	0,1	0,157628
0,684167	0,1	0,120410
0,685833	0,1	0,130089
0,687500	0,1	0,133588
0,689167	0,1	0,186563
0,690833	0,1	0,147515
0,692500	0,1	0,144563
0,694167	0,1	0,157397
0,695833	0,1	0,120636
0,697500	0,1	0,181238
0,699167	0,1	0,179766
0,700833	0,1	0,203197
0,702500	0,1	0,145133
0,704167	0,1	0,154329
0,705833	0,1	0,185384
0,707500	0,1	0,186841
0,709167	0,1	0,180712
0,710833	0,1	0,203462
0,712500	0,1	0,203140
0,714167	0,1	0,190593
0,715833	0,1	0,193220
0,717500	0,1	0,192618
0,719167	0,1	0,201666
0,720833	0,1	0,184880
0,722500	0,1	0,208597
0,724167	0,1	0,218128
0,725833	0,1	0,234428
0,727500	0,1	0,222614
0,729167	0,1	0,270888
0,730833	0,1	0,221478
0,732500	0,1	0,238759
0,734167	0,1	0,249359
0,735833	0,1	0,247500
0,737500	0,1	0,247562
0,739167	0,1	0,251123
0,740833	0,1	0,264413
0,742500	0,1	0,257773
0,744167	0,1	0,218481
0,745833	0,1	0,257597
0,747500	0,1	0,243801
0,749167	0,1	0,244742
0,750833	0,1	0,251374
0,752500	0,1	0,275904
0,754167	0,1	0,253409
0,755833	0,1	0,219989
0,757500	0,1	0,206893
0,759167	0,1	0,240591
0,760833	0,1	0,220955
0,762500	0,1	0,217099
0,764167	0,1	0,225091
0,765833	0,1	0,231952
0,767500	0,1	0,259501
0,769167	0,1	0,194583
0,770833	0,1	0,240135
0,772500	0,1	0,256294
0,774167	0,1	0,230424
0,775833	0,1	0,225898
0,777500	0,1	0,245947
0,779167	0,1	0,232295
0,780833	0,1	0,227119
0,782500	0,1	0,260430
0,784167	0,1	0,269010
0,785833	0,1	0,225844
0,787500	0,1	0,231838
0,789167	0,1	0,259375
0,790833	0,1	0,238426
0,792500	0,1	0,256329
0,794167	0,1	0,203719
0,795833	0,1	0,248166
0,797500	0,1	0,210915
0,799167	0,1	0,202375
0,800833	0,1	0,223678
0,802500	0,1	0,259209
0,804167	0,1	0,242367
0,805833	0,1	0,220829
0,807500	0,1	0,239752
0,809167	0,1	0,212863
0,810833	0,1	0,228299
0,812500	0,1	0,200579
0,814167	0,1	0,197526
0,815833	0,1	0,228004
0,817500	0,1	0,224137
0,819167	0,1	0,262607
0,820833	0,1	0,223464
0,822500	0,1	0,223845
0,824167	0,1	0,256957
0,825833	0,1	0,241950
0,827500	0,1	0,187998
0,829167	0,1	0,240839
0,830833	0,1	0,252065
0,832500	0,1	0,222115
0,834167	0,1	0,213023
0,835833	0,1	0,201429
0,837500	0,1	0,244492
0,839167	0,1	0,239733
0,840833	0,1	0,221119
0,842500	0,1	0,236192
0,844167	0,1	0,238763
0,845833	0,1	0,214185
0,847500	0,1	0,234276
0,849167	0,1	0,203022
0,850833	0,1	0,233557
0,852500	0,1	0,226567
0,854167	0,1	0,248435
0,855833	0,1	0,225902
0,857500	0,1	0,252275
0,859167	0,1	0,262010
0,860833	0,1	0,232198
0,862500	0,1	0,234167
0,864167	0,1	0,271217
0,865833	0,1	0,244106
0,867500	0,1	0,275839
0,869167	0,1	0,241502
0,870833	0,1	0,263670
0,872500	0,1	0,232690
0,874167	0,1	0,270954
0,875833	0,1	0,225619
0,877500	0,1	0,254653
0,879167	0,1	0,227604
0,880833	0,1	0,283474
0,882500	0,1	0,266574
0,884167	0,1	0,261913
0,885833	0,1	0,221212
0,887500	0,1	0,237739
0,889167	0,1	0,237027
0,890833	0,1	0,258570
0,892500	0,1	0,273727
0,894167	0,1	0,279887
0,895833	0,1	0,234895
0,897500	0,1	0,252277
0,899167	0,1	0,240539
0,900833	0,1	0,274618
0,902500	0,1	0,272149
0,904167	0,1	0,258543
0,905833	0,1	0,257130
0,907500	0,1	0,283355
0,909167	0,1	0,285730
0,910833	0,1	0,267494
0,912500	0,1	0,234667
0,914167	0,1	0,290122
0,915833	0,1	0,270073
0,917500	0,1	0,284417
0,919167	0,1	0,289455
0,920833	0,1	0,283805
0,922500	0,1	0,338279
0,924167	0,1	0,268601
0,925833	0,1	0,279535
0,927500	0,1	0,299698
0,929167	0,1	0,255691
0,930833	0,1	0,263484
0,932500	0,1	0,304729
0,934167	0,1	0,278032
0,935833	0,1	0,293368
0,937500	0,1	0,297451
0,939167	0,1	0,309041
0,940833	0,1	0,303937
0,942500	0,1	0,283293
0,944167	0,1	0,302394
0,945833	0,1	0,285671
0,947500	0,1	0,297800
0,949167	0,1	0,280408
0,950833	0,1	0,267983
0,952500	0,1	0,340553
0,954167	0,1	0,306095
0,955833	0,1	0,324513
0,957500	0,1	0,317067
0,959167	0,1	0,311993
0,960833	0,1	0,322166
0,962500	0,1	0,338703
0,964167	0,1	0,327569
0,965833	0,1	0,303291
0,967500	0,1	0,322071
0,969167	0,1	0,308975
0,970833	0,1	0,320239
0,972500	0,1	0,336135
0,974167	0,1	0,327378
0,975833	0,1	0,327305
0,977500	0,1	0,327078
0,979167	0,1	0,362394
0,980833	0,1	0,336809
0,982500	0,1	0,333735
0,984167	0,1	0,320153
0,985833	0,1	0,379248
0,987500	0,1	0,383142
0,989167	0,1	0,352935
0,990833	0,1	0,357455
0,992500	0,1	0,359031
0,994167	0,1	0,423173
0,995833	0,1	0,394901
0,997500	0,1	0,378746
0,999167	0,1	0,422731
1,000833	0,1	0,420329
1,002500	0,1	0,377819
1,004167	0,1	0,420446
1,005833	0,1	0,418242
1,007500	0,1	0,445115
1,009167	0,1	0,469619
1,010833	0,1	0,461983
1,012500	0,1	0,435941
1,014167	0,1	0,479892
1,015833	0,1	0,466062
1,017500	0,1	0,532014
1,019167	0,1	0,498667
1,020833	0,1	0,545830
1,022500	0,1	0,541444
1,024167	0,1	0,559620
1,025833	0,1	0,540001
1,027500	0,1	0,548123
1,029167	0,1	0,585118
1,030833	0,1	0,554907
1,032500	0,1	0,573367
1,034167	0,1	0,566758
1,035833	0,1	0,599904
1,037500	0,1	0,579256
1,039167	0,1	0,632600
1,040833	0,1	0,612185
1,042500	0,1	0,640156
1,044167	0,1	0,652953
1,045833	0,1	0,680706
1,047500	0,1	0,649744
1,049167	0,1	0,727925
1,050833	0,1	0,727666
1,052500	0,1	0,787995
1,054167	0,1	0,822043
1,055833	0,1	0,863003
1,057500	0,1	0,950306
1,059167	0,1	1,030277
1,060833	0,1	1,162106
1,062500	0,1	1,277534
1,064167	0,1	1,533001
1,065833	0,1	1,809454
1,067500	0,1	2,179134
1,069167	0,1	2,544286
1,070833	0,1	3,167760
1,072500	0,1	3,887739
1,074167	0,1	4,694365
1,075833	0,1	5,632449
1,077500	0,1	6,872505
1,079167	0,1	8,215908
1,080833	0,1	9,801544
1,082500	0,1	11,582322
1,084167	0,1	13,550741
1,085833	0,1	15,719008
1,087500	0,1	18,076035
1,089167	0,1	20,562815
1,090833	0,1	23,158612
1,092500	0,1	25,911941
1,094167	0,1	28,723017
1,095833	0,1	31,568667
1,097500	0,1	34,363328
1,099167	0,1	37,100004
1,100833	0,1	39,675514
1,102500	0,1	42,123601
1,104167	0,1	44,457625
1,105833	0,1	46,594898
1,107500	0,1	48,487148
1,109167	0,1	50,107093
1,110833	0,1	51,475969
1,112500	0,1	52,672040
1,114167	0,1	53,597893
1,115833	0,1	54,314840
1,117500	0,1	54,766304
1,119167	0,1	55,023158
1,120833	0,1	55,068330
1,122500	0,1	54,921691
1,124167	0,1	54,679137
1,125833	0,1	54,254858
1,127500	0,1	53,737114
1,129167	0,1	53,167708
1,130833	0,1	52,467951
1,132500	0,1	51,734968
1,134167	0,1	51,001113
1,135833	0,1	50,194191
1,137500	0,1	49,471472
1,139167	0,1	48,684572
1,140833	0,1	47,990103
1,142500	0,1	47,315159
1,144167	0,1	46,693430
1,145833	0,1	46,169714
1,147500	0,1	45,701502
1,149167	0,1	45,259383
1,150833	0,1	45,011712
1,152500	0,1	44,774422
1,154167	0,1	44,614849
1,155833	0,1	44,623659
1,157500	0,1	44,633515
1,159167	0,1	44,780769
1,160833	0,1	44,930748
1,162500	0,1	45,181659
1,164167	0,1	45,414982
1,165833	0,1	45,763285
1,167500	0,1	46,118009
1,169167	0,1	46,493066
1,170833	0,1	46,848361
1,172500	0,1	47,256233
1,174167	0,1	47,597770
1,175833	0,1	47,896934
1,177500	0,1	48,195788
1,179167	0,1	48,411093
1,180833	0,1	48,716305
1,182500	0,1	48,879538
1,184167	0,1	48,986481
1,185833	0,1	49,143610
1,187500	0,1	49,242812
1,189167	0,1	49,275087
1,190833	0,1	49,378952
1,192500	0,1	49,412382
1,194167	0,1	49,520381
1,195833	0,1	49,628771
1,197500	0,1	49,804293
1,199167	0,1	50,040081
1,200833	0,1	50,412140
1,202500	0,1	50,926405
1,204167	0,1	51,574700
1,205833	0,1	52,366365
1,207500	0,1	53,401819
1,209167	0,1	54,647463
1,210833	0,1	56,058157
1,212500	0,1	57,732758
1,214167	0,1	59,670722
1,215833	0,1	61,845969
1,217500	0,1	64,229518
1,219167	0,1	66,874408
1,220833	0,1	69,687962
1,222500	0,1	72,688520
1,224167	0,1	75,834124
1,225833	0,1	79,067589
1,227500	0,1	82,362683
1,229167	0,1	85,729575
1,230833	0,1	89,087016
1,232500	0,1	92,413537
1,234167	0,1	95,698756
1,235833	0,1	98,894434
1,237500	0,1	101,812007
1,239167	0,1	104,663087
1,240833	0,1	107,315808
1,242500	0,1	109,773194
1,244167	0,1	111,916356
1,245833	0,1	113,887723
1,247500	0,1	115,555994
1,249167	0,1	117,049460
1,250833	0,1	118,223814
1,252500	0,1	119,121633
1,254167	0,1	119,760403
1,255833	0,1	120,133442
1,257500	0,1	120,203459
1,259167	0,1	120,112710
1,260833	0,1	119,742309
1,262500	0,1	119,138032
1,264167	0,1	118,254723
1,265833	0,1	117,165284
1,267500	0,1	115,950279
1,269167	0,1	114,451579
1,270833	0,1	112,774593
1,272500	0,1	111,018103
1,274167	0,1	109,092353
1,275833	0,1	106,972747
1,277500	0,1	104,758473
1,279167	0,1	102,441636
1,280833	0,1	100,081825
1,282500	0,1	97,637998
1,284167	0,1	95,133326
1,285833	0,1	92,619059
1,287500	0,1	90,020180
1,289167	0,1	87,437990
1,290833	0,1	84,884060
1,292500	0,1	82,336321
1,294167	0,1	79,831620
1,295833	0,1	77,339712
1,297500	0,1	74,869601
1,299167	0,1	72,537927
1,300833	0,1	70,217238
1,302500	0,1	67,970087
1,304167	0,1	65,784055
1,305833	0,1	63,611161
1,307500	0,1	61,600652
1,309167	0,1	59,652356
1,310833	0,1	57,755592
1,312500	0,1	55,919929
1,314167	0,1	54,196746
1,315833	0,1	52,499033
1,317500	0,1	50,887180
1,319167	0,1	49,370612
1,320833	0,1	47,888546
1,322500	0,1	46,490170
1,324167	0,1	45,204100
1,325833	0,1	43,855733
1,327500	0,1	42,660903
1,329167	0,1	41,491344
1,330833	0,1	40,326717
1,332500	0,1	39,253339
1,334167	0,1	38,185426
1,335833	0,1	37,166376
1,337500	0,1	36,210521
1,339167	0,1	35,296420
1,340833	0,1	34,347459
1,342500	0,1	33,522401
1,344167	0,1	32,644111
1,345833	0,1	31,872340
1,347500	0,1	31,057035
1,349167	0,1	30,321178
1,350833	0,1	29,566937
1,352500	0,1	28,857053
1,354167	0,1	28,149596
1,355833	0,1	27,537591
1,357500	0,1	26,807801
1,359167	0,1	26,179876
1,360833	0,1	25,545764
1,362500	0,1	24,935009
1,364167	0,1	24,373682
1,365833	0,1	23,792714
1,367500	0,1	23,194393
1,369167	0,1	22,647566
1,370833	0,1	22,121319
1,372500	0,1	21,639567
1,374167	0,1	21,107009
1,375833	0,1	20,684987
1,377500	0,1	20,154664
1,379167	0,1	19,677703
1,380833	0,1	19,257835
1,382500	0,1	18,742999
1,384167	0,1	18,367615
1,385833	0,1	17,933274
1,387500	0,1	17,530225
1,389167	0,1	17,155775
1,390833	0,1	16,749259
1,392500	0,1	16,433778
1,394167	0,1	16,070622
1,395833	0,1	15,707905
1,397500	0,1	15,373531
1,399167	0,1	15,051791
1,400833	0,1	14,769149
1,402500	0,1	14,458046
1,404167	0,1	14,180304
1,405833	0,1	13,890925
1,407500	0,1	13,623294
1,409167	0,1	13,350604
1,410833	0,1	13,163641
1,412500	0,1	12,899940
1,414167	0,1	12,687900
1,415833	0,1	12,406502
1,417500	0,1	12,225150
1,419167	0,1	12,005562
1,420833	0,1	11,842848
1,422500	0,1	11,618390
1,424167	0,1	11,428489
1,425833	0,1	11,243730
1,427500	0,1	11,095255
1,429167	0,1	10,891433
1,430833	0,1	10,740065
1,432500	0,1	10,604978
1,434167	0,1	10,450497
1,435833	0,1	10,300605
1,437500	0,1	10,133491
1,439167	0,1	9,992850
1,440833	0,1	9,834419
1,442500	0,1	9,719904
1,444167	0,1	9,563160
1,445833	0,1	9,447544
1,447500	0,1	9,347813
1,449167	0,1	9,214964
1,450833	0,1	9,071735
1,452500	0,1	8,973388
1,454167	0,1	8,839745
1,455833	0,1	8,779707
1,457500	0,1	8,660098
1,459167	0,1	8,556009
1,460833	0,1	8,474381
1,462500	0,1	8,339332
1,464167	0,1	8,269771
1,465833	0,1	8,167773
1,467500	0,1	8,109513
1,469167	0,1	8,010934
1,470833	0,1	7,964863
1,472500	0,1	7,914339
1,474167	0,1	7,840442
1,475833	0,1	7,767916
1,477500	0,1	7,724789
1,479167	0,1	7,649509
1,480833	0,1	7,627486
1,482500	0,1	7,591576
1,484167	0,1	7,540376
1,485833	0,1	7,524906
1,487500	0,1	7,467548
1,489167	0,1	7,496139
1,490833	0,1	7,381132
1,492500	0,1	7,419305
1,494167	0,1	7,407206
1,495833	0,1	7,449510
1,497500	0,1	7,357715
1,499167	0,1	7,387533
1,500833	0,1	7,357431
1,502500	0,1	7,376334
1,504167	0,1	7,443543
1,505833	0,1	7,366212
1,507500	0,1	7,383324
1,509167	0,1	7,416885
1,510833	0,1	7,387631
1,512500	0,1	7,382036
1,514167	0,1	7,419038
1,515833	0,1	7,380627
1,517500	0,1	7,394799
1,519167	0,1	7,390230
1,520833	0,1	7,391155
1,522500	0,1	7,382590
1,524167	0,1	7,427331
1,525833	0,1	7,361446
1,527500	0,1	7,357694
1,529167	0,1	7,363197
1,530833	0,1	7,398425
1,532500	0,1	7,385016
1,534167	0,1	7,399921
1,535833	0,1	7,365894
1,537500	0,1	7,363567
1,539167	0,1	7,281463
1,540833	0,1	7,287028
1,542500	0,1	7,299225
1,544167	0,1	7,283122
1,545833	0,1	7,261394
1,547500	0,1	7,231579
1,549167	0,1	7,187129
1,550833	0,1	7,142777
1,552500	0,1	7,187758
1,554167	0,1	7,114731
1,555833	0,1	7,089100
1,557500	0,1	7,018028
1,559167	0,1	7,065323
1,560833	0,1	6,978814
1,562500	0,1	6,967897
1,564167	0,1	6,931205
1,565833	0,1	6,927010
1,567500	0,1	6,894323
1,569167	0,1	6,848321
1,570833	0,1	6,810796
1,572500	0,1	6,779228
1,574167	0,1	6,717430
1,575833	0,1	6,636441
1,577500	0,1	6,657649
1,579167	0,1	6,618588
1,580833	0,1	6,599863
1,582500	0,1	6,542822
1,584167	0,1	6,491269
1,585833	0,1	6,533127
1,587500	0,1	6,470264
1,589167	0,1	6,391060
1,590833	0,1	6,383616
1,592500	0,1	6,385108
1,594167	0,1	6,287292
1,595833	0,1	6,272390
1,597500	0,1	6,198672
1,599167	0,1	6,205722
1,600833	0,1	6,197299
1,602500	0,1	6,157687
1,604167	0,1	6,093628
1,605833	0,1	6,070268
1,607500	0,1	6,056719
1,609167	0,1	5,984802
1,610833	0,1	5,944239
1,612500	0,1	5,906159
1,614167	0,1	5,903358
1,615833	0,1	5,838528
1,617500	0,1	5,823559
1,619167	0,1	5,813085
1,620833	0,1	5,789221
1,622500	0,1	5,747401
1,624167	0,1	5,628890
1,625833	0,1	5,652968
1,627500	0,1	5,631293
1,629167	0,1	5,552557
1,630833	0,1	5,566505
1,632500	0,1	5,527222
1,634167	0,1	5,494080
1,635833	0,1	5,508171
1,637500	0,1	5,454474
1,639167	0,1	5,442722
1,640833	0,1	5,417323
1,642500	0,1	5,354601
1,644167	0,1	5,368982
1,645833	0,1	5,332766
1,647500	0,1	5,344754
1,649167	0,1	5,306552
1,650833	0,1	5,232865
1,652500	0,1	5,289985
1,654167	0,1	5,233230
1,655833	0,1	5,222520
1,657500	0,1	5,255142
1,659167	0,1	5,209789
1,660833	0,1	5,221301
1,662500	0,1	5,220537
1,664167	0,1	5,197308
1,665833	0,1	5,205323
1,667500	0,1	5,217738
1,669167	0,1	5,263301
1,670833	0,1	5,273247
1,672500	0,1	5,308433
1,674167	0,1	5,334308
1,675833	0,1	5,348147
1,677500	0,1	5,399531
1,679167	0,1	5,446176
1,680833	0,1	5,520374
1,682500	0,1	5,616269
1,684167	0,1	5,630373
1,685833	0,1	5,703727
1,687500	0,1	5,770027
1,689167	0,1	5,842117
1,690833	0,1	5,929690
1,692500	0,1	5,996803
1,694167	0,1	6,132240
1,695833	0,1	6,275897
1,697500	0,1	6,358111
1,699167	0,1	6,465377
1,700833	0,1	6,598146
1,702500	0,1	6,711234
1,704167	0,1	6,875004
1,705833	0,1	7,037252
1,707500	0,1	7,108358
1,709167	0,1	7,237415
1,710833	0,1	7,414233
1,712500	0,1	7,513111
1,714167	0,1	7,641615
1,715833	0,1	7,766102
1,717500	0,1	7,941908
1,719167	0,1	8,080669
1,720833	0,1	8,204468
1,722500	0,1	8,351056
1,724167	0,1	8,473788
1,725833	0,1	8,599724
1,727500	0,1	8,658972
1,729167	0,1	8,771533
1,730833	0,1	8,880405
1,732500	0,1	9,045802
1,734167	0,1	9,125242
1,735833	0,1	9,219637
1,737500	0,1	9,282773
1,739167	0,1	9,344356
1,740833	0,1	9,436212
1,742500	0,1	9,485949
1,744167	0,1	9,573859
1,745833	0,1	9,572582
1,747500	0,1	9,578274
1,749167	0,1	9,663010
1,750833	0,1	9,676229
1,752500	0,1	9,707360
1,754167	0,1	9,732658
1,755833	0,1	9,677962
1,757500	0,1	9,675981
1,759167	0,1	9,674563
1,760833	0,1	9,634633
1,762500	0,1	9,609963
1,764167	0,1	9,567923
1,765833	0,1	9,525014
1,767500	0,1	9,484212
1,769167	0,1	9,441693
1,770833	0,1	9,401939
1,772500	0,1	9,323241
1,774167	0,1	9,249997
1,775833	0,1	9,200558
1,777500	0,1	9,088904
1,779167	0,1	8,978733
1,780833	0,1	8,954766
1,782500	0,1	8,862903
1,784167	0,1	8,754361
1,785833	0,1	8,678819
1,787500	0,1	8,556667
1,789167	0,1	8,502364
1,790833	0,1	8,347840
1,792500	0,1	8,304723
1,794167	0,1	8,232443
1,795833	0,1	8,066118
1,797500	0,1	8,003772
1,799167	0,1	7,855293
1,800833	0,1	7,804273
1,802500	0,1	7,663720
1,804167	0,1	7,574247
1,805833	0,1	7,503806
1,807500	0,1	7,344490
1,809167	0,1	7,241102
1,810833	0,1	7,137478
1,812500	0,1	7,020272
1,814167	0,1	6,956269
1,815833	0,1	6,789318
1,817500	0,1	6,715662
1,819167	0,1	6,623431
1,820833	0,1	6,498911
1,822500	0,1	6,416861
1,824167	0,1	6,295008
1,825833	0,1	6,217345
1,827500	0,1	6,151747
1,829167	0,1	6,034109
1,830833	0,1	5,920190
1,832500	0,1	5,830134
1,834167	0,1	5,779845
1,835833	0,1	5,657017
1,837500	0,1	5,610352
1,839167	0,1	5,558030
1,840833	0,1	5,469512
1,842500	0,1	5,389964
1,844167	0,1	5,295928
1,845833	0,1	5,298527
1,847500	0,1	5,280175
1,849167	0,1	5,228374
1,850833	0,1	5,176706
1,852500	0,1	5,185331
1,854167	0,1	5,152960
1,855833	0,1	5,129695
1,857500	0,1	5,161780
1,859167	0,1	5,160461
1,860833	0,1	5,179739
1,862500	0,1	5,159561
1,864167	0,1	5,188853
1,865833	0,1	5,244721
1,867500	0,1	5,225571
1,869167	0,1	5,291675
1,870833	0,1	5,318656
1,872500	0,1	5,340290
1,874167	0,1	5,420851
1,875833	0,1	5,427671
1,877500	0,1	5,413705
1,879167	0,1	5,470144
1,880833	0,1	5,522198
1,882500	0,1	5,493602
1,884167	0,1	5,558478
1,885833	0,1	5,579849
1,887500	0,1	5,597050
1,889167	0,1	5,620295
1,890833	0,1	5,607396
1,892500	0,1	5,673759
1,894167	0,1	5,649280
1,895833	0,1	5,679104
1,897500	0,1	5,739120
1,899167	0,1	5,754297
1,900833	0,1	5,780740
1,902500	0,1	5,765284
1,904167	0,1	5,789281
1,905833	0,1	5,872240
1,907500	0,1	5,814167
1,909167	0,1	5,888027
1,910833	0,1	5,881470
1,912500	0,1	5,942223
1,914167	0,1	5,905773
1,915833	0,1	5,944268
1,917500	0,1	5,900348
1,919167	0,1	5,976204
1,920833	0,1	5,980687
1,922500	0,1	5,947755
1,924167	0,1	5,965323
1,925833	0,1	5,987824
1,927500	0,1	5,970062
1,929167	0,1	5,982474
1,930833	0,1	6,015425
1,932500	0,1	6,010584
1,934167	0,1	5,990243
1,935833	0,1	5,988080
1,937500	0,1	5,979802
1,939167	0,1	5,995425
1,940833	0,1	6,007994
1,942500	0,1	5,993140
1,944167	0,1	6,015752
1,945833	0,1	6,002868
1,947500	0,1	6,025836
1,949167	0,1	6,020565
1,950833	0,1	6,022280
1,952500	0,1	6,016249
1,954167	0,1	6,030675
1,955833	0,1	6,035216
1,957500	0,1	6,050193
1,959167	0,1	6,045082
1,960833	0,1	6,029365
1,962500	0,1	6,076018
1,964167	0,1	6,074154
1,965833	0,1	6,106158
1,967500	0,1	6,057632
1,969167	0,1	6,076265
1,970833	0,1	6,129170
1,972500	0,1	6,130956
1,974167	0,1	6,106579
1,975833	0,1	6,173624
1,977500	0,1	6,142131
1,979167	0,1	6,217062
1,980833	0,1	6,171585
1,982500	0,1	6,230969
1,984167	0,1	6,206660
1,985833	0,1	6,270046
1,987500	0,1	6,300920
1,989167	0,1	6,332922
1,990833	0,1	6,332659
1,992500	0,1	6,364344
1,994167	0,1	6,409107
1,995833	0,1	6,420647
1,997500	0,1	6,410966
1,999167	0,1	6,488533
2,000833	0,1	6,455626
2,002500	0,1	6,514317
2,004167	0,1	6,536480
2,005833	0,1	6,600501
2,007500	0,1	6,638001
2,009167	0,1	6,674763
2,010833	0,1	6,669759
2,012500	0,1	6,716931
2,014167	0,1	6,734905
2,015833	0,1	6,836372
2,017500	0,1	6,813118
2,019167	0,1	6,857618
2,020833	0,1	6,888814
2,022500	0,1	6,950090
2,024167	0,1	6,992010
2,025833	0,1	7,072021
2,027500	0,1	7,073064
2,029167	0,1	7,072418
2,030833	0,1	7,131565
2,032500	0,1	7,154871
2,034167	0,1	7,198202
2,035833	0,1	7,264641
2,037500	0,1	7,287317
2,039167	0,1	7,351531
2,040833	0,1	7,372603
2,042500	0,1	7,449972
2,044167	0,1	7,464172
2,045833	0,1	7,542007
2,047500	0,1	7,523298
2,049167	0,1	7,610962
2,050833	0,1	7,640449
2,052500	0,1	7,672264
2,054167	0,1	7,714135
2,055833	0,1	7,792981
2,057500	0,1	7,845527
2,059167	0,1	7,877729
2,060833	0,1	7,912386
2,062500	0,1	7,979709
2,064167	0,1	8,047695
2,065833	0,1	8,010120
2,067500	0,1	8,046344
2,069167	0,1	8,108796
2,070833	0,1	8,121131
2,072500	0,1	8,154369
2,074167	0,1	8,207915
2,075833	0,1	8,236417
2,077500	0,1	8,257306
2,079167	0,1	8,324020
2,080833	0,1	8,309691
2,082500	0,1	8,364855
2,084167	0,1	8,390372
2,085833	0,1	8,426370
2,087500	0,1	8,436644
2,089167	0,1	8,501436
2,090833	0,1	8,514202
2,092500	0,1	8,511234
2,094167	0,1	8,578470
2,095833	0,1	8,555413
2,097500	0,1	8,624984
2,099167	0,1	8,640229
2,100833	0,1	8,638924
2,102500	0,1	8,648662
2,104167	0,1	8,706504
2,105833	0,1	8,702340
2,107500	0,1	8,725221
2,109167	0,1	8,714960
2,110833	0,1	8,733002
2,112500	0,1	8,777515
2,114167	0,1	8,785731
2,115833	0,1	8,829242
2,117500	0,1	8,799620
2,119167	0,1	8,816329
2,120833	0,1	8,794684
2,122500	0,1	8,804719
2,124167	0,1	8,802407
2,125833	0,1	8,839546
2,127500	0,1	8,809164
2,129167	0,1	8,804223
2,130833	0,1	8,812880
2,132500	0,1	8,857952
2,134167	0,1	8,845773
2,135833	0,1	8,813565
2,137500	0,1	8,845588
2,139167	0,1	8,848738
2,140833	0,1	8,815787
2,142500	0,1	8,815806
2,144167	0,1	8,800547
2,145833	0,1	8,777228
2,147500	0,1	8,849959
2,149167	0,1	8,786154
2,150833	0,1	8,738958
2,152500	0,1	8,763771
2,154167	0,1	8,729615
2,155833	0,1	8,710854
2,157500	0,1	8,717899
2,159167	0,1	8,674756
2,160833	0,1	8,662463
2,162500	0,1	8,640037
2,164167	0,1	8,626591
2,165833	0,1	8,619063
2,167500	0,1	8,607410
2,169167	0,1	8,576225
2,170833	0,1	8,571061
2,172500	0,1	8,551962
2,174167	0,1	8,537311
2,175833	0,1	8,480718
2,177500	0,1	8,479872
2,179167	0,1	8,413191
2,180833	0,1	8,450332
2,182500	0,1	8,453400
2,184167	0,1	8,361917
2,185833	0,1	8,368156
2,187500	0,1	8,361817
2,189167	0,1	8,315111
2,190833	0,1	8,275847
2,192500	0,1	8,308809
2,194167	0,1	8,278878
2,195833	0,1	8,271740
2,197500	0,1	8,202381
2,199167	0,1	8,231087
2,200833	0,1	8,133759
2,202500	0,1	8,151005
2,204167	0,1	8,116093
2,205833	0,1	8,114679
2,207500	0,1	8,062789
2,209167	0,1	8,051766
2,210833	0,1	8,038023
2,212500	0,1	8,017322
2,214167	0,1	8,034111
2,215833	0,1	7,985207
2,217500	0,1	7,991436
2,219167	0,1	7,921823
2,220833	0,1	7,943350
2,222500	0,1	7,923285
2,224167	0,1	7,883082
2,225833	0,1	7,890510
2,227500	0,1	7,872596
2,229167	0,1	7,860222
2,230833	0,1	7,818596
2,232500	0,1	7,858682
2,234167	0,1	7,826117
2,235833	0,1	7,814256
2,237500	0,1	7,817641
2,239167	0,1	7,801884
2,240833	0,1	7,807091
2,242500	0,1	7,756806
2,244167	0,1	7,779191
2,245833	0,1	7,801111
2,247500	0,1	7,774243
2,249167	0,1	7,793891
2,250833	0,1	7,751118
2,252500	0,1	7,751944
2,254167	0,1	7,754084
2,255833	0,1	7,757169
2,257500	0,1	7,701933
2,259167	0,1	7,695571
2,260833	0,1	7,714613
2,262500	0,1	7,715451
2,264167	0,1	7,710144
2,265833	0,1	7,673021
2,267500	0,1	7,677763
2,269167	0,1	7,679338
2,270833	0,1	7,654176
2,272500	0,1	7,623293
2,274167	0,1	7,659278
2,275833	0,1	7,634930
2,277500	0,1	7,618719
2,279167	0,1	7,581686
2,280833	0,1	7,596691
2,282500	0,1	7,561534
2,284167	0,1	7,578036
2,285833	0,1	7,527780
2,287500	0,1	7,539794
2,289167	0,1	7,558605
2,290833	0,1	7,529549
2,292500	0,1	7,493448
2,294167	0,1	7,472827
2,295833	0,1	7,478430
2,297500	0,1	7,453171
2,299167	0,1	7,429102
2,300833	0,1	7,449510
2,302500	0,1	7,416236
2,304167	0,1	7,375146
2,305833	0,1	7,416966
2,307500	0,1	7,342706
2,309167	0,1	7,353958
2,310833	0,1	7,309503
2,312500	0,1	7,261870
2,314167	0,1	7,266607
2,315833	0,1	7,292140
2,317500	0,1	7,217049
2,319167	0,1	7,232597
2,320833	0,1	7,232782
2,322500	0,1	7,182376
2,324167	0,1	7,196242
2,325833	0,1	7,168666
2,327500	0,1	7,135316
2,329167	0,1	7,125612
2,330833	0,1	7,107544
2,332500	0,1	7,100457
2,334167	0,1	7,082945
2,335833	0,1	7,065521
2,337500	0,1	7,056111
2,339167	0,1	7,025469
2,340833	0,1	7,017171
2,342500	0,1	6,978429
2,344167	0,1	6,961844
2,345833	0,1	6,969011
2,347500	0,1	6,989686
2,349167	0,1	6,905047
2,350833	0,1	6,937989
2,352500	0,1	6,939393
2,354167	0,1	6,900006
2,355833	0,1	6,917411
2,357500	0,1	6,867693
2,359167	0,1	6,857349
2,360833	0,1	6,837053
2,362500	0,1	6,838540
2,364167	0,1	6,828397
2,365833	0,1	6,813213
2,367500	0,1	6,819172
2,369167	0,1	6,828855
2,370833	0,1	6,816005
2,372500	0,1	6,802969
2,374167	0,1	6,806885
2,375833	0,1	6,839278
2,377500	0,1	6,782221
2,379167	0,1	6,793843
2,380833	0,1	6,773463
2,382500	0,1	6,840666
2,384167	0,1	6,853525
2,385833	0,1	6,872428
2,387500	0,1	6,862287
2,389167	0,1	6,917121
2,390833	0,1	6,892554
2,392500	0,1	6,946740
2,394167	0,1	6,962581
2,395833	0,1	7,010639
2,397500	0,1	7,086741
2,399167	0,1	7,146101
2,400833	0,1	7,189433
2,402500	0,1	7,264358
2,404167	0,1	7,303796
2,405833	0,1	7,395321
2,407500	0,1	7,515781
2,409167	0,1	7,575396
2,410833	0,1	7,708248
2,412500	0,1	7,803851
2,414167	0,1	7,867447
2,415833	0,1	8,019914
2,417500	0,1	8,119345
2,419167	0,1	8,267997
2,420833	0,1	8,438070
2,422500	0,1	8,612676
2,424167	0,1	8,737231
2,425833	0,1	8,867303
2,427500	0,1	9,103543
2,429167	0,1	9,261256
2,430833	0,1	9,460755
2,432500	0,1	9,603640
2,434167	0,1	9,872910
2,435833	0,1	10,019531
2,437500	0,1	10,284373
2,439167	0,1	10,435746
2,440833	0,1	10,616956
2,442500	0,1	10,855898
2,444167	0,1	11,070702
2,445833	0,1	11,297756
2,447500	0,1	11,491160
2,449167	0,1	11,698623
2,450833	0,1	11,883352
2,452500	0,1	12,091531
2,454167	0,1	12,294895
2,455833	0,1	12,481615
2,457500	0,1	12,635202
2,459167	0,1	12,866418
2,460833	0,1	13,036045
2,462500	0,1	13,196833
2,464167	0,1	13,388284
2,465833	0,1	13,489215
2,467500	0,1	13,663252
2,469167	0,1	13,771826
2,470833	0,1	13,947746
2,472500	0,1	14,084483
2,474167	0,1	14,199284
2,475833	0,1	14,341515
2,477500	0,1	14,404396
2,479167	0,1	14,534159
2,480833	0,1	14,638978
2,482500	0,1	14,787397
2,484167	0,1	14,889366
2,485833	0,1	14,957401
2,487500	0,1	15,033226
2,489167	0,1	15,153852
2,490833	0,1	15,238648
2,492500	0,1	15,367047
2,494167	0,1	15,446831
2,495833	0,1	15,603620
2,497500	0,1	15,614022
2,499167	0,1	15,780963
2,500833	0,1	15,888910
2,502500	0,1	16,050383
2,504167	0,1	16,099161
2,505833	0,1	16,237921
2,507500	0,1	16,376886
2,509167	0,1	16,500049
2,510833	0,1	16,683847
2,512500	0,1	16,818021
2,514167	0,1	16,999189
2,515833	0,1	17,159791
2,517500	0,1	17,375954
2,519167	0,1	17,568593
2,520833	0,1	17,736874
2,522500	0,1	17,943773
2,524167	0,1	18,171582
2,525833	0,1	18,394307
2,527500	0,1	18,698726
2,529167	0,1	18,896500
2,530833	0,1	19,180056
2,532500	0,1	19,434288
2,534167	0,1	19,704010
2,535833	0,1	19,972572
2,537500	0,1	20,299249
2,539167	0,1	20,564852
2,540833	0,1	20,839210
2,542500	0,1	21,189425
2,544167	0,1	21,484266
2,545833	0,1	21,800591
2,547500	0,1	22,137321
2,549167	0,1	22,460385
2,550833	0,1	22,732089
2,552500	0,1	23,062415
2,554167	0,1	23,369617
2,555833	0,1	23,642495
2,557500	0,1	23,974184
2,559167	0,1	24,281345
2,560833	0,1	24,600170
2,562500	0,1	24,857022
2,564167	0,1	25,114645
2,565833	0,1	25,368665
2,567500	0,1	25,619302
2,569167	0,1	25,911301
2,570833	0,1	26,105222
2,572500	0,1	26,371519
2,574167	0,1	26,565338
2,575833	0,1	26,781899
2,577500	0,1	26,971053
2,579167	0,1	27,164180
2,580833	0,1	27,322987
2,582500	0,1	27,468925
2,584167	0,1	27,591174
2,585833	0,1	27,686544
2,587500	0,1	27,841110
2,589167	0,1	27,922789
2,590833	0,1	27,978222
2,592500	0,1	28,049393
2,594167	0,1	28,104177
2,595833	0,1	28,130329
2,597500	0,1	28,167363
2,599167	0,1	28,187491
2,600833	0,1	28,144130
2,602500	0,1	28,177027
2,604167	0,1	28,130304
2,605833	0,1	28,062697
2,607500	0,1	28,028885
2,609167	0,1	28,003924
2,610833	0,1	27,942098
2,612500	0,1	27,798229
2,614167	0,1	27,751596
2,615833	0,1	27,614244
2,617500	0,1	27,501059
2,619167	0,1	27,353130
2,620833	0,1	27,242870
2,622500	0,1	27,067841
2,624167	0,1	26,982413
2,625833	0,1	26,765634
2,627500	0,1	26,584510
2,629167	0,1	26,427165
2,630833	0,1	26,238201
2,632500	0,1	26,043064
2,634167	0,1	25,813834
2,635833	0,1	25,652648
2,637500	0,1	25,437088
2,639167	0,1	25,190158
2,640833	0,1	24,998720
2,642500	0,1	24,730912
2,644167	0,1	24,499255
2,645833	0,1	24,264089
2,647500	0,1	24,022705
2,649167	0,1	23,793982
2,650833	0,1	23,504184
2,652500	0,1	23,266927
2,654167	0,1	22,998099
2,655833	0,1	22,739834
2,657500	0,1	22,465349
2,659167	0,1	22,201911
2,660833	0,1	21,890289
2,662500	0,1	21,675606
2,664167	0,1	21,352077
2,665833	0,1	21,077652
2,667500	0,1	20,805833
2,669167	0,1	20,516086
2,670833	0,1	20,240228
2,672500	0,1	19,939486
2,674167	0,1	19,641213
2,675833	0,1	19,394828
2,677500	0,1	19,081820
2,679167	0,1	18,803439
2,680833	0,1	18,528408
2,682500	0,1	18,240779
2,684167	0,1	17,991124
2,685833	0,1	17,689435
2,687500	0,1	17,424171
2,689167	0,1	17,154010
2,690833	0,1	16,930054
2,692500	0,1	16,627972
2,694167	0,1	16,341955
2,695833	0,1	16,063017
2,697500	0,1	15,868755
2,699167	0,1	15,581775
2,700833	0,1	15,289502
2,702500	0,1	15,053633
2,704167	0,1	14,798908
2,705833	0,1	14,553336
2,707500	0,1	14,339262
2,709167	0,1	14,073310
2,710833	0,1	13,854635
2,712500	0,1	13,642988
2,714167	0,1	13,405568
2,715833	0,1	13,215409
2,717500	0,1	12,978778
2,719167	0,1	12,748657
2,720833	0,1	12,547085
2,722500	0,1	12,294618
2,724167	0,1	12,151889
2,725833	0,1	11,941315
2,727500	0,1	11,740564
2,729167	0,1	11,538579
2,730833	0,1	11,382777
2,732500	0,1	11,196905
2,734167	0,1	11,005027
2,735833	0,1	10,866461
2,737500	0,1	10,658089
2,739167	0,1	10,526523
2,740833	0,1	10,346298
2,742500	0,1	10,199334
2,744167	0,1	10,021808
2,745833	0,1	9,869942
2,747500	0,1	9,744904
2,749167	0,1	9,631489
2,750833	0,1	9,448350
2,752500	0,1	9,357472
2,754167	0,1	9,238385
2,755833	0,1	9,085472
2,757500	0,1	8,893752
2,759167	0,1	8,805950
2,760833	0,1	8,678830
2,762500	0,1	8,543961
2,764167	0,1	8,421410
2,765833	0,1	8,310071
2,767500	0,1	8,225093
2,769167	0,1	8,123154
2,770833	0,1	8,068100
2,772500	0,1	7,904801
2,774167	0,1	7,835175
2,775833	0,1	7,684419
2,777500	0,1	7,577796
2,779167	0,1	7,510897
2,780833	0,1	7,369004
2,782500	0,1	7,317514
2,784167	0,1	7,237267
2,785833	0,1	7,188427
2,787500	0,1	7,066016
2,789167	0,1	6,961307
2,790833	0,1	6,882974
2,792500	0,1	6,813976
2,794167	0,1	6,738748
2,795833	0,1	6,605559
2,797500	0,1	6,540779
2,799167	0,1	6,461142
2,800833	0,1	6,435634
2,802500	0,1	6,297886
2,804167	0,1	6,318912
2,805833	0,1	6,161798
2,807500	0,1	6,119484
2,809167	0,1	6,044209
2,810833	0,1	5,973654
2,812500	0,1	5,924391
2,814167	0,1	5,834616
2,815833	0,1	5,790211
2,817500	0,1	5,691242
2,819167	0,1	5,660742
2,820833	0,1	5,559037
2,822500	0,1	5,511825
2,824167	0,1	5,499664
2,825833	0,1	5,385292
2,827500	0,1	5,298720
2,829167	0,1	5,269308
2,830833	0,1	5,202087
2,832500	0,1	5,180308
2,834167	0,1	5,117963
2,835833	0,1	5,051660
2,837500	0,1	4,993077
2,839167	0,1	4,969644
2,840833	0,1	4,911756
2,842500	0,1	4,870622
2,844167	0,1	4,779424
2,845833	0,1	4,778788
2,847500	0,1	4,718875
2,849167	0,1	4,662246
2,850833	0,1	4,599474
2,852500	0,1	4,583559
2,854167	0,1	4,473939
2,855833	0,1	4,471848
2,857500	0,1	4,419393
2,859167	0,1	4,366816
2,860833	0,1	4,333675
2,862500	0,1	4,267425
2,864167	0,1	4,300771
2,865833	0,1	4,210615
2,867500	0,1	4,141743
2,869167	0,1	4,167796
2,870833	0,1	4,084821
2,872500	0,1	4,042482
2,874167	0,1	4,039677
2,875833	0,1	3,960333
2,877500	0,1	3,949627
2,879167	0,1	3,850107
2,880833	0,1	3,880171
2,882500	0,1	3,849237
2,884167	0,1	3,806550
2,885833	0,1	3,752546
2,887500	0,1	3,694145
2,889167	0,1	3,687583
2,890833	0,1	3,691201
2,892500	0,1	3,669411
2,894167	0,1	3,591450
2,895833	0,1	3,569364
2,897500	0,1	3,544705
2,899167	0,1	3,532825
2,900833	0,1	3,460217
2,902500	0,1	3,451173
2,904167	0,1	3,438682
2,905833	0,1	3,423832
2,907500	0,1	3,395668
2,909167	0,1	3,318812
2,910833	0,1	3,342064
2,912500	0,1	3,293097
2,914167	0,1	3,257516
2,915833	0,1	3,276272
2,917500	0,1	3,208513
2,919167	0,1	3,213002
2,920833	0,1	3,209598
2,922500	0,1	3,136335
2,924167	0,1	3,102417
2,925833	0,1	3,135930
2,927500	0,1	3,100460
2,929167	0,1	3,019149
2,930833	0,1	3,012341
2,932500	0,1	3,029086
2,934167	0,1	2,976157
2,935833	0,1	2,974836
2,937500	0,1	2,967580
2,939167	0,1	2,934716
2,940833	0,1	2,920637
2,942500	0,1	2,928384
2,944167	0,1	2,903050
2,945833	0,1	2,883310
2,947500	0,1	2,859489
2,949167	0,1	2,849316
2,950833	0,1	2,814373
2,952500	0,1	2,777788
2,954167	0,1	2,765226
2,955833	0,1	2,773531
2,957500	0,1	2,760770
2,959167	0,1	2,725633
2,960833	0,1	2,719074
2,962500	0,1	2,733558
2,964167	0,1	2,698367
2,965833	0,1	2,671313
2,967500	0,1	2,702703
2,969167	0,1	2,639486
2,970833	0,1	2,673733
2,972500	0,1	2,633533
2,974167	0,1	2,651363
2,975833	0,1	2,626696
2,977500	0,1	2,618163
2,979167	0,1	2,647812
2,980833	0,1	2,642674
2,982500	0,1	2,594069
2,984167	0,1	2,567460
2,985833	0,1	2,546594
2,987500	0,1	2,563791
2,989167	0,1	2,552451
2,990833	0,1	2,516471
2,992500	0,1	2,514893
2,994167	0,1	2,495038
2,995833	0,1	2,514162
2,997500	0,1	2,519840
2,999167	0,1	2,517328
3,000833	0,1	2,490875
3,002500	0,1	2,454388
3,004167	0,1	2,471433
3,005833	0,1	2,451231
3,007500	0,1	2,385139
3,009167	0,1	2,441596
3,010833	0,1	2,437098
3,012500	0,1	2,448632
3,014167	0,1	2,406564
3,015833	0,1	2,392081
3,017500	0,1	2,394873
3,019167	0,1	2,343630
3,020833	0,1	2,378238
3,022500	0,1	2,359180
3,024167	0,1	2,391277
3,025833	0,1	2,359108
3,027500	0,1	2,344769
3,029167	0,1	2,344698
3,030833	0,1	2,361179
3,032500	0,1	2,337537
3,034167	0,1	2,348199
3,035833	0,1	2,343332
3,037500	0,1	2,314458
3,039167	0,1	2,298901
3,040833	0,1	2,312224
3,042500	0,1	2,350705
3,044167	0,1	2,274405
3,045833	0,1	2,299533
3,047500	0,1	2,308783
3,049167	0,1	2,270523
3,050833	0,1	2,286491
3,052500	0,1	2,252250
3,054167	0,1	2,252170
3,055833	0,1	2,246723
3,057500	0,1	2,201877
3,059167	0,1	2,259751
3,060833	0,1	2,242068
3,062500	0,1	2,255532
3,064167	0,1	2,222868
3,065833	0,1	2,238334
3,067500	0,1	2,210757
3,069167	0,1	2,214405
3,070833	0,1	2,211899
3,072500	0,1	2,218560
3,074167	0,1	2,188616
3,075833	0,1	2,188395
3,077500	0,1	2,208525
3,079167	0,1	2,174645
3,080833	0,1	2,208737
3,082500	0,1	2,154374
3,084167	0,1	2,168901
3,085833	0,1	2,181585
3,087500	0,1	2,189180
3,089167	0,1	2,177077
3,090833	0,1	2,154581
3,092500	0,1	2,203142
3,094167	0,1	2,166048
3,095833	0,1	2,200209
3,097500	0,1	2,168841
3,099167	0,1	2,167186
3,100833	0,1	2,159020
3,102500	0,1	2,188961
3,104167	0,1	2,173208
3,105833	0,1	2,200927
3,107500	0,1	2,198569
3,109167	0,1	2,178369
3,110833	0,1	2,186315
3,112500	0,1	2,204152
3,114167	0,1	2,179373
3,115833	0,1	2,211172
3,117500	0,1	2,196567
3,119167	0,1	2,229373
3,120833	0,1	2,233535
3,122500	0,1	2,268141
3,124167	0,1	2,252533
3,125833	0,1	2,244789
3,127500	0,1	2,305546
3,129167	0,1	2,269520
3,130833	0,1	2,296235
3,132500	0,1	2,327263
3,134167	0,1	2,346334
3,135833	0,1	2,297619
3,137500	0,1	2,335368
3,139167	0,1	2,359674
3,140833	0,1	2,345274
3,142500	0,1	2,354874
3,144167	0,1	2,416077
3,145833	0,1	2,396596
3,147500	0,1	2,431490
3,149167	0,1	2,408277
3,150833	0,1	2,441102
3,152500	0,1	2,463397
3,154167	0,1	2,489073
3,155833	0,1	2,448592
3,157500	0,1	2,511204
3,159167	0,1	2,519181
3,160833	0,1	2,499986
3,162500	0,1	2,526855
3,164167	0,1	2,561138
3,165833	0,1	2,544789
3,167500	0,1	2,563791
3,169167	0,1	2,585514
3,170833	0,1	2,583648
3,172500	0,1	2,591040
3,174167	0,1	2,601513
3,175833	0,1	2,589967
3,177500	0,1	2,649704
3,179167	0,1	2,603971
3,180833	0,1	2,587965
3,182500	0,1	2,593638
3,184167	0,1	2,635636
3,185833	0,1	2,597799
3,187500	0,1	2,614920
3,189167	0,1	2,629416
3,190833	0,1	2,648117
3,192500	0,1	2,641686
3,194167	0,1	2,612857
3,195833	0,1	2,618795
3,197500	0,1	2,638721
3,199167	0,1	2,667757
3,200833	0,1	2,622256
3,202500	0,1	2,651434
3,204167	0,1	2,632995
3,205833	0,1	2,622967
3,207500	0,1	2,628267
3,209167	0,1	2,606768
3,210833	0,1	2,583736
3,212500	0,1	2,602508
3,214167	0,1	2,585441
3,215833	0,1	2,569819
3,217500	0,1	2,599141
3,219167	0,1	2,530837
3,220833	0,1	2,569521
3,222500	0,1	2,599990
3,224167	0,1	2,515704
3,225833	0,1	2,518842
3,227500	0,1	2,480412
3,229167	0,1	2,517306
3,230833	0,1	2,483060
3,232500	0,1	2,478541
3,234167	0,1	2,529569
3,235833	0,1	2,437264
3,237500	0,1	2,448282
3,239167	0,1	2,428704
3,240833	0,1	2,400045
3,242500	0,1	2,430415
3,244167	0,1	2,414724
3,245833	0,1	2,378965
3,247500	0,1	2,378377
3,249167	0,1	2,328793
3,250833	0,1	2,326059
3,252500	0,1	2,298471
3,254167	0,1	2,323755
3,255833	0,1	2,319540
3,257500	0,1	2,280338
3,259167	0,1	2,258696
3,260833	0,1	2,253887
3,262500	0,1	2,241781
3,264167	0,1	2,208394
3,265833	0,1	2,161968
3,267500	0,1	2,180579
3,269167	0,1	2,163036
3,270833	0,1	2,135812
3,272500	0,1	2,166605
3,274167	0,1	2,138034
3,275833	0,1	2,089897
3,277500	0,1	2,105141
3,279167	0,1	2,057231
3,280833	0,1	2,049054
3,282500	0,1	2,065528
3,284167	0,1	2,008305
3,285833	0,1	2,039593
3,287500	0,1	2,011532
3,289167	0,1	2,001498
3,290833	0,1	1,985741
3,292500	0,1	1,960826
3,294167	0,1	1,938410
3,295833	0,1	1,888649
3,297500	0,1	1,925727
3,299167	0,1	1,916706
3,300833	0,1	1,878546
3,302500	0,1	1,882044
3,304167	0,1	1,837811
3,305833	0,1	1,843037
3,307500	0,1	1,799082
3,309167	0,1	1,825207
3,310833	0,1	1,834302
3,312500	0,1	1,764863
3,314167	0,1	1,751384
3,315833	0,1	1,746304
3,317500	0,1	1,747322
3,319167	0,1	1,764208
3,320833	0,1	1,730791
3,322500	0,1	1,708172
3,324167	0,1	1,715478
3,325833	0,1	1,715618
3,327500	0,1	1,714835
3,329167	0,1	1,675693
3,330833	0,1	1,720047
3,332500	0,1	1,694446
3,334167	0,1	1,623234
3,335833	0,1	1,624483
3,337500	0,1	1,606741
3,339167	0,1	1,604413
3,340833	0,1	1,598250
3,342500	0,1	1,614910
3,344167	0,1	1,606808
3,345833	0,1	1,586800
3,347500	0,1	1,579138
3,349167	0,1	1,587299
3,350833	0,1	1,559618
3,352500	0,1	1,563681
3,354167	0,1	1,589239
3,355833	0,1	1,589095
3,357500	0,1	1,527200
3,359167	0,1	1,537017
3,360833	0,1	1,529969
3,362500	0,1	1,508944
3,364167	0,1	1,516457
3,365833	0,1	1,523265
3,367500	0,1	1,501956
3,369167	0,1	1,517892
3,370833	0,1	1,491218
3,372500	0,1	1,501948
3,374167	0,1	1,509592
3,375833	0,1	1,488284
3,377500	0,1	1,489924
3,379167	0,1	1,450099
3,380833	0,1	1,470754
3,382500	0,1	1,477469
3,384167	0,1	1,470173
3,385833	0,1	1,430978
3,387500	0,1	1,440008
3,389167	0,1	1,469327
3,390833	0,1	1,447507
3,392500	0,1	1,447885
3,394167	0,1	1,436984
3,395833	0,1	1,432628
3,397500	0,1	1,453714
3,399167	0,1	1,425634
3,400833	0,1	1,408745
3,402500	0,1	1,463623
3,404167	0,1	1,405861
3,405833	0,1	1,385049
3,407500	0,1	1,401043
3,409167	0,1	1,408232
3,410833	0,1	1,421830
3,412500	0,1	1,411605
3,414167	0,1	1,397815
3,415833	0,1	1,386487
3,417500	0,1	1,410734
3,419167	0,1	1,394750
3,420833	0,1	1,385789
3,422500	0,1	1,421825
3,424167	0,1	1,384729
3,425833	0,1	1,399521
3,427500	0,1	1,370975
3,429167	0,1	1,353662
3,430833	0,1	1,386779
3,432500	0,1	1,405313
3,434167	0,1	1,387269
3,435833	0,1	1,376202
3,437500	0,1	1,336780
3,439167	0,1	1,364304
3,440833	0,1	1,362565
3,442500	0,1	1,343296
3,444167	0,1	1,360629
3,445833	0,1	1,361821
3,447500	0,1	1,364531
3,449167	0,1	1,379771
3,450833	0,1	1,344587
3,452500	0,1	1,395157
3,454167	0,1	1,367484
3,455833	0,1	1,328905
3,457500	0,1	1,373192
3,459167	0,1	1,362399
3,460833	0,1	1,374252
3,462500	0,1	1,369257
3,464167	0,1	1,356031
3,465833	0,1	1,364037
3,467500	0,1	1,387644
3,469167	0,1	1,387445
3,470833	0,1	1,364741
3,472500	0,1	1,322199
3,474167	0,1	1,382775
3,475833	0,1	1,337389
3,477500	0,1	1,323716
3,479167	0,1	1,342254
3,480833	0,1	1,352672
3,482500	0,1	1,335248
3,484167	0,1	1,340055
3,485833	0,1	1,368622
3,487500	0,1	1,352897
3,489167	0,1	1,315558
3,490833	0,1	1,337087
3,492500	0,1	1,358666
3,494167	0,1	1,357687
3,495833	0,1	1,294817
3,497500	0,1	1,351577
3,499167	0,1	1,350608
3,500833	0,1	1,314422
3,502500	0,1	1,358675
3,504167	0,1	1,310191
3,505833	0,1	1,337017
3,507500	0,1	1,363896
3,509167	0,1	1,338604
3,510833	0,1	1,339073
3,512500	0,1	1,370467
3,514167	0,1	1,379583
3,515833	0,1	1,319340
3,517500	0,1	1,345367
3,519167	0,1	1,376716
3,520833	0,1	1,321727
3,522500	0,1	1,361168
3,524167	0,1	1,305315
3,525833	0,1	1,331904
3,527500	0,1	1,306681
3,529167	0,1	1,313245
3,530833	0,1	1,342641
3,532500	0,1	1,343882
3,534167	0,1	1,370046
3,535833	0,1	1,320928
3,537500	0,1	1,350836
3,539167	0,1	1,357972
3,540833	0,1	1,344818
3,542500	0,1	1,332640
3,544167	0,1	1,349792
3,545833	0,1	1,297745
3,547500	0,1	1,349512
3,549167	0,1	1,322955
3,550833	0,1	1,341864
3,552500	0,1	1,366471
3,554167	0,1	1,295142
3,555833	0,1	1,330512
3,557500	0,1	1,364130
3,559167	0,1	1,301557
3,560833	0,1	1,339300
3,562500	0,1	1,309222
3,564167	0,1	1,313550
3,565833	0,1	1,297989
3,567500	0,1	1,315985
3,569167	0,1	1,304104
3,570833	0,1	1,328295
3,572500	0,1	1,309913
3,574167	0,1	1,293553
3,575833	0,1	1,304504
3,577500	0,1	1,287321
3,579167	0,1	1,273317
3,580833	0,1	1,288246
3,582500	0,1	1,288893
3,584167	0,1	1,287674
3,585833	0,1	1,272368
3,587500	0,1	1,251151
3,589167	0,1	1,242766
3,590833	0,1	1,255766
3,592500	0,1	1,253550
3,594167	0,1	1,258358
3,595833	0,1	1,266012
3,597500	0,1	1,273598
3,599167	0,1	1,254741
3,600833	0,1	1,232033
3,602500	0,1	1,214322
3,604167	0,1	1,223169
3,605833	0,1	1,215415
3,607500	0,1	1,247702
3,609167	0,1	1,224972
3,610833	0,1	1,201944
3,612500	0,1	1,210675
3,614167	0,1	1,198879
3,615833	0,1	1,160973
3,617500	0,1	1,189084
3,619167	0,1	1,198874
3,620833	0,1	1,191628
3,622500	0,1	1,151211
3,624167	0,1	1,208292
3,625833	0,1	1,168139
3,627500	0,1	1,162849
3,629167	0,1	1,169616
3,630833	0,1	1,156686
3,632500	0,1	1,157902
3,634167	0,1	1,147210
3,635833	0,1	1,170121
3,637500	0,1	1,144753
3,639167	0,1	1,195176
3,640833	0,1	1,181681
3,642500	0,1	1,145198
3,644167	0,1	1,160049
3,645833	0,1	1,124459
3,647500	0,1	1,121120
3,649167	0,1	1,115446
3,650833	0,1	1,106750
3,652500	0,1	1,159484
3,654167	0,1	1,122173
3,655833	0,1	1,114669
3,657500	0,1	1,113159
3,659167	0,1	1,145047
3,660833	0,1	1,094758
3,662500	0,1	1,125990
3,664167	0,1	1,113209
3,665833	0,1	1,070094
3,667500	0,1	1,062345
3,669167	0,1	1,077665
3,670833	0,1	1,073412
3,672500	0,1	1,078311
3,674167	0,1	1,074431
3,675833	0,1	1,058354
3,677500	0,1	1,065624
3,679167	0,1	1,023896
3,680833	0,1	1,075350
3,682500	0,1	1,029818
3,684167	0,1	1,071184
3,685833	0,1	1,050017
3,687500	0,1	1,036086
3,689167	0,1	1,041693
3,690833	0,1	1,012959
3,692500	0,1	1,044259
3,694167	0,1	1,036661
3,695833	0,1	1,049343
3,697500	0,1	1,057305
3,699167	0,1	1,036644
3,700833	0,1	1,046128
3,702500	0,1	0,996998
3,704167	0,1	1,018825
3,705833	0,1	1,021979
3,707500	0,1	1,042179
3,709167	0,1	0,993405
3,710833	0,1	0,991398
3,712500	0,1	1,011528
3,714167	0,1	1,044415
3,715833	0,1	1,022161
3,717500	0,1	1,004973
3,719167	0,1	0,988609
3,720833	0,1	1,016695
3,722500	0,1	0,994353
3,724167	0,1	1,014523
3,725833	0,1	0,983821
3,727500	0,1	1,022457
3,729167	0,1	1,035193
3,730833	0,1	0,979482
3,732500	0,1	1,027068
3,734167	0,1	0,998258
3,735833	0,1	0,999848
3,737500	0,1	1,020933
3,739167	0,1	1,031601
3,740833	0,1	0,993204
3,742500	0,1	1,005232
3,744167	0,1	0,987787
3,745833	0,1	1,007893
3,747500	0,1	1,056698
3,749167	0,1	1,028638
3,750833	0,1	1,044043
3,752500	0,1	1,011453
3,754167	0,1	1,014772
3,755833	0,1	1,051866
3,757500	0,1	1,020677
3,759167	0,1	1,034972
3,760833	0,1	1,038634
3,762500	0,1	1,004977
3,764167	0,1	1,030800
3,765833	0,1	0,992117
3,767500	0,1	1,021417
3,769167	0,1	1,037678
3,770833	0,1	1,017725
3,772500	0,1	1,035038
3,774167	0,1	1,039897
3,775833	0,1	1,058412
3,777500	0,1	1,013540
3,779167	0,1	1,058273
3,780833	0,1	1,047219
3,782500	0,1	1,013383
3,784167	0,1	1,049427
3,785833	0,1	1,016620
3,787500	0,1	1,058207
3,789167	0,1	1,082786
3,790833	0,1	1,063790
3,792500	0,1	1,032211
3,794167	0,1	1,002959
3,795833	0,1	1,028782
3,797500	0,1	1,023267
3,799167	0,1	1,041913
3,800833	0,1	1,061295
3,802500	0,1	1,011479
3,804167	0,1	1,046388
3,805833	0,1	1,082407
3,807500	0,1	1,031527
3,809167	0,1	1,002316
3,810833	0,1	1,044634
3,812500	0,1	1,070387
3,814167	0,1	1,055848
3,815833	0,1	1,036777
3,817500	0,1	1,059498
3,819167	0,1	1,050547
3,820833	0,1	1,030389
3,822500	0,1	1,028412
3,824167	0,1	1,079853
3,825833	0,1	1,032082
3,827500	0,1	1,065860
3,829167	0,1	1,051835
3,830833	0,1	1,051542
3,832500	0,1	1,020257
3,834167	0,1	1,066080
3,835833	0,1	1,004208
3,837500	0,1	1,057607
3,839167	0,1	1,031144
3,840833	0,1	1,018767
3,842500	0,1	1,043264
3,844167	0,1	1,035044
3,845833	0,1	1,040783
3,847500	0,1	1,022271
3,849167	0,1	1,060227
3,850833	0,1	1,021413
3,852500	0,1	1,042177
3,854167	0,1	1,040386
3,855833	0,1	1,070740
3,857500	0,1	0,977670
3,859167	0,1	0,983103
3,860833	0,1	1,030329
3,862500	0,1	0,989589
3,864167	0,1	1,008890
3,865833	0,1	0,984931
3,867500	0,1	1,000530
3,869167	0,1	1,009825
3,870833	0,1	1,008785
3,872500	0,1	0,983820
3,874167	0,1	0,990578
3,875833	0,1	0,964263
3,877500	0,1	0,993211
3,879167	0,1	0,958900
3,880833	0,1	0,971393
3,882500	0,1	0,997690
3,884167	0,1	0,973331
3,885833	0,1	0,991638
3,887500	0,1	0,916471
3,889167	0,1	0,934692
3,890833	0,1	0,972188
3,892500	0,1	0,928632
3,894167	0,1	0,942126
3,895833	0,1	0,921404
3,897500	0,1	0,907142
3,899167	0,1	0,964599
3,900833	0,1	0,931537
3,902500	0,1	0,935874
3,904167	0,1	0,944875
3,905833	0,1	0,923818
3,907500	0,1	0,914814
3,909167	0,1	0,947886
3,910833	0,1	0,850046
3,912500	0,1	0,925856
3,914167	0,1	0,900409
3,915833	0,1	0,921501
3,917500	0,1	0,918630
3,919167	0,1	0,925652
3,920833	0,1	0,921977
3,922500	0,1	0,922395
3,924167	0,1	0,879790
3,925833	0,1	0,881866
3,927500	0,1	0,867148
3,929167	0,1	0,907376
3,930833	0,1	0,893179
3,932500	0,1	0,874864
3,934167	0,1	0,904270
3,935833	0,1	0,892311
3,937500	0,1	0,841376
3,939167	0,1	0,852380
3,940833	0,1	0,895671
3,942500	0,1	0,866114
3,944167	0,1	0,843298
3,945833	0,1	0,863438
3,947500	0,1	0,850391
3,949167	0,1	0,818032
3,950833	0,1	0,832530
3,952500	0,1	0,868264
3,954167	0,1	0,866592
3,955833	0,1	0,863378
3,957500	0,1	0,876941
3,959167	0,1	0,861584
3,960833	0,1	0,874830
3,962500	0,1	0,834458
3,964167	0,1	0,791914
3,965833	0,1	0,834151
3,967500	0,1	0,809895
3,969167	0,1	0,852531
3,970833	0,1	0,800681
3,972500	0,1	0,830387
3,974167	0,1	0,817765
3,975833	0,1	0,834537
3,977500	0,1	0,808074
3,979167	0,1	0,823451
3,980833	0,1	0,835797
3,982500	0,1	0,817334
3,984167	0,1	0,851534
3,985833	0,1	0,780444
3,987500	0,1	0,812073
3,989167	0,1	0,846498
3,990833	0,1	0,856462
3,992500	0,1	0,792234
3,994167	0,1	0,826504
3,995833	0,1	0,845268
3,997500	0,1	0,839568
3,999167	0,1	0,852380
4,000833	0,1	0,807173
4,002500	0,1	0,819031
4,004167	0,1	0,850067
4,005833	0,1	0,803644
4,007500	0,1	0,824316
4,009167	0,1	0,820372
4,010833	0,1	0,793866
4,012500	0,1	0,811474
4,014167	0,1	0,835755
4,015833	0,1	0,866058
4,017500	0,1	0,826522
4,019167	0,1	0,834342
4,020833	0,1	0,842070
4,022500	0,1	0,815878
4,024167	0,1	0,851286
4,025833	0,1	0,858143
4,027500	0,1	0,837892
4,029167	0,1	0,874232
4,030833	0,1	0,873443
4,032500	0,1	0,847996
4,034167	0,1	0,862994
4,035833	0,1	0,856570
4,037500	0,1	0,882173
4,039167	0,1	0,857128
4,040833	0,1	0,871023
4,042500	0,1	0,886634
4,044167	0,1	0,889317
4,045833	0,1	0,935600
4,047500	0,1	0,917784
4,049167	0,1	0,934453
4,050833	0,1	0,901475
4,052500	0,1	0,901797
4,054167	0,1	0,930214
4,055833	0,1	0,915171
4,057500	0,1	0,921860
4,059167	0,1	0,942366
4,060833	0,1	0,913022
4,062500	0,1	0,952140
4,064167	0,1	0,933216
4,065833	0,1	0,922992
4,067500	0,1	0,959327
4,069167	0,1	0,948029
4,070833	0,1	0,998948
4,072500	0,1	0,983638
4,074167	0,1	1,018355
4,075833	0,1	1,003001
4,077500	0,1	1,018559
4,079167	0,1	1,023531
4,080833	0,1	1,036413
4,082500	0,1	1,074688
4,084167	0,1	1,050794
4,085833	0,1	1,063759
4,087500	0,1	1,097759
4,089167	0,1	1,084967
4,090833	0,1	1,108207
4,092500	0,1	1,127815
4,094167	0,1	1,123540
4,095833	0,1	1,121301
4,097500	0,1	1,162704
4,099167	0,1	1,176776
4,100833	0,1	1,182483
4,102500	0,1	1,202136
4,104167	0,1	1,208391
4,105833	0,1	1,243062
4,107500	0,1	1,266770
4,109167	0,1	1,276461
4,110833	0,1	1,249340
4,112500	0,1	1,276727
4,114167	0,1	1,316928
4,115833	0,1	1,292828
4,117500	0,1	1,295072
4,119167	0,1	1,336489
4,120833	0,1	1,376258
4,122500	0,1	1,365464
4,124167	0,1	1,344484
4,125833	0,1	1,416227
4,127500	0,1	1,427748
4,129167	0,1	1,424409
4,130833	0,1	1,419396
4,132500	0,1	1,447946
4,134167	0,1	1,448954
4,135833	0,1	1,483627
4,137500	0,1	1,498660
4,139167	0,1	1,524848
4,140833	0,1	1,479771
4,142500	0,1	1,494564
4,144167	0,1	1,509865
4,145833	0,1	1,545770
4,147500	0,1	1,543803
4,149167	0,1	1,577840
4,150833	0,1	1,618985
4,152500	0,1	1,612638
4,154167	0,1	1,636288
4,155833	0,1	1,628221
4,157500	0,1	1,633520
4,159167	0,1	1,648478
4,160833	0,1	1,653772
4,162500	0,1	1,670457
4,164167	0,1	1,685172
4,165833	0,1	1,688406
4,167500	0,1	1,696143
4,169167	0,1	1,673379
4,170833	0,1	1,745293
4,172500	0,1	1,715755
4,174167	0,1	1,713321
4,175833	0,1	1,771989
4,177500	0,1	1,738667
4,179167	0,1	1,757981
4,180833	0,1	1,756116
4,182500	0,1	1,803430
4,184167	0,1	1,735604
4,185833	0,1	1,766423
4,187500	0,1	1,808516
4,189167	0,1	1,781309
4,190833	0,1	1,757705
4,192500	0,1	1,799286
4,194167	0,1	1,829352
4,195833	0,1	1,811752
4,197500	0,1	1,818251
4,199167	0,1	1,815614
4,200833	0,1	1,842962
4,202500	0,1	1,793865
4,204167	0,1	1,855833
4,205833	0,1	1,804804
4,207500	0,1	1,834068
4,209167	0,1	1,824202
4,210833	0,1	1,818626
4,212500	0,1	1,787124
4,214167	0,1	1,785463
4,215833	0,1	1,828775
4,217500	0,1	1,853405
4,219167	0,1	1,778254
4,220833	0,1	1,788332
4,222500	0,1	1,766134
4,224167	0,1	1,806738
4,225833	0,1	1,778088
4,227500	0,1	1,824348
4,229167	0,1	1,806799
4,230833	0,1	1,818398
4,232500	0,1	1,789554
4,234167	0,1	1,767717
4,235833	0,1	1,749382
4,237500	0,1	1,772511
4,239167	0,1	1,782394
4,240833	0,1	1,777888
4,242500	0,1	1,763345
4,244167	0,1	1,736594
4,245833	0,1	1,729347
4,247500	0,1	1,709669
4,249167	0,1	1,732936
4,250833	0,1	1,712184
4,252500	0,1	1,691622
4,254167	0,1	1,698354
4,255833	0,1	1,693075
4,257500	0,1	1,731365
4,259167	0,1	1,699651
4,260833	0,1	1,668525
4,262500	0,1	1,672600
4,264167	0,1	1,683182
4,265833	0,1	1,685788
4,267500	0,1	1,635018
4,269167	0,1	1,645181
4,270833	0,1	1,615920
4,272500	0,1	1,605693
4,274167	0,1	1,600103
4,275833	0,1	1,575912
4,277500	0,1	1,563754
4,279167	0,1	1,570832
4,280833	0,1	1,575915
4,282500	0,1	1,584999
4,284167	0,1	1,541455
4,285833	0,1	1,541076
4,287500	0,1	1,504521
4,289167	0,1	1,569692
4,290833	0,1	1,537784
4,292500	0,1	1,567413
4,294167	0,1	1,510953
4,295833	0,1	1,496297
4,297500	0,1	1,502018
4,299167	0,1	1,460456
4,300833	0,1	1,448627
4,302500	0,1	1,409940
4,304167	0,1	1,442972
4,305833	0,1	1,380471
4,307500	0,1	1,443487
4,309167	0,1	1,429314
4,310833	0,1	1,384193
4,312500	0,1	1,401064
4,314167	0,1	1,391939
4,315833	0,1	1,359033
4,317500	0,1	1,368950
4,319167	0,1	1,349361
4,320833	0,1	1,342853
4,322500	0,1	1,334555
4,324167	0,1	1,329692
4,325833	0,1	1,333212
4,327500	0,1	1,332283
4,329167	0,1	1,310846
4,330833	0,1	1,261640
4,332500	0,1	1,254043
4,334167	0,1	1,247540
4,335833	0,1	1,249688
4,337500	0,1	1,264063
4,339167	0,1	1,231019
4,340833	0,1	1,224951
4,342500	0,1	1,241473
4,344167	0,1	1,211462
4,345833	0,1	1,257418
4,347500	0,1	1,174342
4,349167	0,1	1,190047
4,350833	0,1	1,188612
4,352500	0,1	1,179960
4,354167	0,1	1,166471
4,355833	0,1	1,171324
4,357500	0,1	1,169992
4,359167	0,1	1,175138
4,360833	0,1	1,128790
4,362500	0,1	1,187703
4,364167	0,1	1,142788
4,365833	0,1	1,103674
4,367500	0,1	1,128082
4,369167	0,1	1,132362
4,370833	0,1	1,139245
4,372500	0,1	1,118443
4,374167	0,1	1,131256
4,375833	0,1	1,114229
4,377500	0,1	1,124355
4,379167	0,1	1,059832
4,380833	0,1	1,054826
4,382500	0,1	1,094294
4,384167	0,1	1,074769
4,385833	0,1	1,087625
4,387500	0,1	1,071507
4,389167	0,1	1,057357
4,390833	0,1	1,040035
4,392500	0,1	1,034467
4,394167	0,1	1,045351
4,395833	0,1	1,047726
4,397500	0,1	1,026753
4,399167	0,1	1,037656
4,400833	0,1	1,045264
4,402500	0,1	1,004801
4,404167	0,1	0,989961
4,405833	0,1	0,998913
4,407500	0,1	0,989338
4,409167	0,1	1,000377
4,410833	0,1	0,954666
4,412500	0,1	0,966269
4,414167	0,1	0,973169
4,415833	0,1	0,999685
4,417500	0,1	0,961561
4,419167	0,1	0,949136
4,420833	0,1	0,959731
4,422500	0,1	0,932685
4,424167	0,1	0,952589
4,425833	0,1	0,941533
4,427500	0,1	0,927692
4,429167	0,1	0,906237
4,430833	0,1	0,914870
4,432500	0,1	0,919311
4,434167	0,1	0,914790
4,435833	0,1	0,923697
4,437500	0,1	0,928867
4,439167	0,1	0,888766
4,440833	0,1	0,896405
4,442500	0,1	0,859191
4,444167	0,1	0,911050
4,445833	0,1	0,849422
4,447500	0,1	0,903506
4,449167	0,1	0,902151
4,450833	0,1	0,893375
4,452500	0,1	0,854007
4,454167	0,1	0,885600
4,455833	0,1	0,815863
4,457500	0,1	0,873205
4,459167	0,1	0,867434
4,460833	0,1	0,837645
4,462500	0,1	0,833519
4,464167	0,1	0,821386
4,465833	0,1	0,822918
4,467500	0,1	0,862856
4,469167	0,1	0,819162
4,470833	0,1	0,832845
4,472500	0,1	0,800492
4,474167	0,1	0,797035
4,475833	0,1	0,773137
4,477500	0,1	0,783860
4,479167	0,1	0,798159
4,480833	0,1	0,778699
4,482500	0,1	0,806132
4,484167	0,1	0,785509
4,485833	0,1	0,750868
4,487500	0,1	0,741006
4,489167	0,1	0,790148
4,490833	0,1	0,736508
4,492500	0,1	0,759432
4,494167	0,1	0,717710
4,495833	0,1	0,732635
4,497500	0,1	0,738683
4,499167	0,1	0,770357
4,500833	0,1	0,733933
4,502500	0,1	0,727277
4,504167	0,1	0,733309
4,505833	0,1	0,711882
4,507500	0,1	0,725892
4,509167	0,1	0,761713
4,510833	0,1	0,760752
4,512500	0,1	0,718696
4,514167	0,1	0,710176
4,515833	0,1	0,701439
4,517500	0,1	0,670020
4,519167	0,1	0,679750
4,520833	0,1	0,689194
4,522500	0,1	0,700019
4,524167	0,1	0,685952
4,525833	0,1	0,684728
4,527500	0,1	0,644318
4,529167	0,1	0,675081
4,530833	0,1	0,693265
4,532500	0,1	0,669181
4,534167	0,1	0,665290
4,535833	0,1	0,686968
4,537500	0,1	0,649718
4,539167	0,1	0,625167
4,540833	0,1	0,653233
4,542500	0,1	0,606538
4,544167	0,1	0,611376
4,545833	0,1	0,639992
4,547500	0,1	0,614373
4,549167	0,1	0,605915
4,550833	0,1	0,611884
4,552500	0,1	0,580159
4,554167	0,1	0,613038
4,555833	0,1	0,579679
4,557500	0,1	0,615543
4,559167	0,1	0,633575
4,560833	0,1	0,565969
4,562500	0,1	0,614513
4,564167	0,1	0,624322
4,565833	0,1	0,606984
4,567500	0,1	0,579387
4,569167	0,1	0,620075
4,570833	0,1	0,557712
4,572500	0,1	0,548063
4,574167	0,1	0,598288
4,575833	0,1	0,539401
4,577500	0,1	0,571759
4,579167	0,1	0,569679
4,580833	0,1	0,570995
4,582500	0,1	0,549993
4,584167	0,1	0,583030
4,585833	0,1	0,587664
4,587500	0,1	0,554749
4,589167	0,1	0,564568
4,590833	0,1	0,550889
4,592500	0,1	0,534410
4,594167	0,1	0,556437
4,595833	0,1	0,529339
4,597500	0,1	0,488485
4,599167	0,1	0,545670
4,600833	0,1	0,518803
4,602500	0,1	0,546670
4,604167	0,1	0,544236
4,605833	0,1	0,506441
4,607500	0,1	0,526436
4,609167	0,1	0,511991
4,610833	0,1	0,524511
4,612500	0,1	0,472751
4,614167	0,1	0,524214
4,615833	0,1	0,503513
4,617500	0,1	0,500587
4,619167	0,1	0,487421
4,620833	0,1	0,487161
4,622500	0,1	0,479454
4,624167	0,1	0,469371
4,625833	0,1	0,496050
4,627500	0,1	0,487613
4,629167	0,1	0,503568
4,630833	0,1	0,459838
4,632500	0,1	0,463137
4,634167	0,1	0,481791
4,635833	0,1	0,476787
4,637500	0,1	0,476370
4,639167	0,1	0,459512
4,640833	0,1	0,453084
4,642500	0,1	0,458928
4,644167	0,1	0,459220
4,645833	0,1	0,470872
4,647500	0,1	0,447246
4,649167	0,1	0,447013
4,650833	0,1	0,440627
4,652500	0,1	0,453692
4,654167	0,1	0,431057
4,655833	0,1	0,439467
4,657500	0,1	0,435296
4,659167	0,1	0,419108
4,660833	0,1	0,443572
4,662500	0,1	0,423835
4,664167	0,1	0,432334
4,665833	0,1	0,395800
4,667500	0,1	0,430436
4,669167	0,1	0,417343
4,670833	0,1	0,409188
4,672500	0,1	0,402348
4,674167	0,1	0,404527
4,675833	0,1	0,429570
4,677500	0,1	0,434680
4,679167	0,1	0,414745
4,680833	0,1	0,437568
4,682500	0,1	0,419882
4,684167	0,1	0,395733
4,685833	0,1	0,395345
4,687500	0,1	0,344394
4,689167	0,1	0,409650
4,690833	0,1	0,405589
4,692500	0,1	0,385139
4,694167	0,1	0,407410
4,695833	0,1	0,392005
4,697500	0,1	0,404333
4,699167	0,1	0,400739
4,700833	0,1	0,397627
4,702500	0,1	0,380736
4,704167	0,1	0,397268
4,705833	0,1	0,417016
4,707500	0,1	0,356668
4,709167	0,1	0,389461
4,710833	0,1	0,384684
4,712500	0,1	0,401376
4,714167	0,1	0,364268
4,715833	0,1	0,391712
4,717500	0,1	0,412357
4,719167	0,1	0,379138
4,720833	0,1	0,348989
4,722500	0,1	0,402236
4,724167	0,1	0,394417
4,725833	0,1	0,340957
4,727500	0,1	0,377419
4,729167	0,1	0,381598
4,730833	0,1	0,351035
4,732500	0,1	0,328920
4,734167	0,1	0,334946
4,735833	0,1	0,399601
4,737500	0,1	0,354731
4,739167	0,1	0,327050
4,740833	0,1	0,328906
4,742500	0,1	0,310514
4,744167	0,1	0,365791
4,745833	0,1	0,342468
4,747500	0,1	0,365417
4,749167	0,1	0,367088
4,750833	0,1	0,348500
4,752500	0,1	0,356136
4,754167	0,1	0,361308
4,755833	0,1	0,365579
4,757500	0,1	0,353833
4,759167	0,1	0,335684
4,760833	0,1	0,314122
4,762500	0,1	0,322708
4,764167	0,1	0,347176
4,765833	0,1	0,329207
4,767500	0,1	0,345894
4,769167	0,1	0,317516
4,770833	0,1	0,327818
4,772500	0,1	0,328209
4,774167	0,1	0,310424
4,775833	0,1	0,333240
4,777500	0,1	0,315949
4,779167	0,1	0,319950
4,780833	0,1	0,328170
4,782500	0,1	0,330042
4,784167	0,1	0,361753
4,785833	0,1	0,261988
4,787500	0,1	0,313690
4,789167	0,1	0,328683
4,790833	0,1	0,320569
4,792500	0,1	0,302618
4,794167	0,1	0,274334
4,795833	0,1	0,281098
4,797500	0,1	0,323667
4,799167	0,1	0,292576
4,800833	0,1	0,290064
4,802500	0,1	0,308354
4,804167	0,1	0,282779
4,805833	0,1	0,298631
4,807500	0,1	0,296067
4,809167	0,1	0,286501
4,810833	0,1	0,290350
4,812500	0,1	0,323698
4,814167	0,1	0,312628
4,815833	0,1	0,301595
4,817500	0,1	0,282878
4,819167	0,1	0,283715
4,820833	0,1	0,297158
4,822500	0,1	0,292921
4,824167	0,1	0,270102
4,825833	0,1	0,311441
4,827500	0,1	0,283902
4,829167	0,1	0,243481
4,830833	0,1	0,281164
4,832500	0,1	0,281906
4,834167	0,1	0,295485
4,835833	0,1	0,287633
4,837500	0,1	0,274078
4,839167	0,1	0,293016
4,840833	0,1	0,284676
4,842500	0,1	0,300920
4,844167	0,1	0,277680
4,845833	0,1	0,293684
4,847500	0,1	0,287531
4,849167	0,1	0,287495
4,850833	0,1	0,298442
4,852500	0,1	0,255175
4,854167	0,1	0,259307
4,855833	0,1	0,253303
4,857500	0,1	0,301030
4,859167	0,1	0,279957
4,860833	0,1	0,290703
4,862500	0,1	0,296609
4,864167	0,1	0,259731
4,865833	0,1	0,223778
4,867500	0,1	0,278455
4,869167	0,1	0,275006
4,870833	0,1	0,279435
4,872500	0,1	0,238194
4,874167	0,1	0,283369
4,875833	0,1	0,282005
4,877500	0,1	0,253246
4,879167	0,1	0,294836
4,880833	0,1	0,276268
4,882500	0,1	0,302962
4,884167	0,1	0,281304
4,885833	0,1	0,304635
4,887500	0,1	0,245513
4,889167	0,1	0,288478
4,890833	0,1	0,263166
4,892500	0,1	0,261449
4,894167	0,1	0,309378
4,895833	0,1	0,240505
4,897500	0,1	0,282058
4,899167	0,1	0,287557
4,900833	0,1	0,285379
4,902500	0,1	0,264838
4,904167	0,1	0,265665
4,905833	0,1	0,316990
4,907500	0,1	0,270876
4,909167	0,1	0,284370
4,910833	0,1	0,276003
4,912500	0,1	0,326651
4,914167	0,1	0,289114
4,915833	0,1	0,288488
4,917500	0,1	0,260371
4,919167	0,1	0,257961
4,920833	0,1	0,258287
4,922500	0,1	0,263738
4,924167	0,1	0,265023
4,925833	0,1	0,286105
4,927500	0,1	0,260661
4,929167	0,1	0,262742
4,930833	0,1	0,286041
4,932500	0,1	0,279375
4,934167	0,1	0,289571
4,935833	0,1	0,292349
4,937500	0,1	0,282712
4,939167	0,1	0,265768
4,940833	0,1	0,269163
4,942500	0,1	0,310600
4,944167	0,1	0,226232
4,945833	0,1	0,269759
4,947500	0,1	0,286143
4,949167	0,1	0,244099
4,950833	0,1	0,249223
4,952500	0,1	0,235329
4,954167	0,1	0,237251
4,955833	0,1	0,285367
4,957500	0,1	0,236585
4,959167	0,1	0,258408
4,960833	0,1	0,301130
4,962500	0,1	0,277705
4,964167	0,1	0,305501
4,965833	0,1	0,261343
4,967500	0,1	0,296185
4,969167	0,1	0,289359
4,970833	0,1	0,276997
4,972500	0,1	0,226955
4,974167	0,1	0,297913
4,975833	0,1	0,271475
4,977500	0,1	0,262040
4,979167	0,1	0,243172
4,980833	0,1	0,292202
4,982500	0,1	0,275787
4,984167	0,1	0,276254
4,985833	0,1	0,293143
4,987500	0,1	0,233162
4,989167	0,1	0,292491
4,990833	0,1	0,292603
4,992500	0,1	0,281077
4,994167	0,1	0,278823
4,995833	0,1	0,270386
4,997500	0,1	0,260556
4,999167	0,1	0,296763
5,000833	0,1	0,313246
5,002500	0,1	0,268307
5,004167	0,1	0,259436
5,005833	0,1	0,296311
5,007500	0,1	0,288781
5,009167	0,1	0,270641
5,010833	0,1	0,280430
5,012500	0,1	0,323151
5,014167	0,1	0,279184
5,015833	0,1	0,280937
5,017500	0,1	0,292853
5,019167	0,1	0,325342
5,020833	0,1	0,273155
5,022500	0,1	0,307590
5,024167	0,1	0,288973
5,025833	0,1	0,262297
5,027500	0,1	0,257762
5,029167	0,1	0,267010
5,030833	0,1	0,291857
5,032500	0,1	0,306662
5,034167	0,1	0,238201
5,035833	0,1	0,318875
5,037500	0,1	0,328397
5,039167	0,1	0,292160
5,040833	0,1	0,323154
5,042500	0,1	0,347657
5,044167	0,1	0,318357
5,045833	0,1	0,330357
5,047500	0,1	0,313951
5,049167	0,1	0,309163
5,050833	0,1	0,301015
5,052500	0,1	0,301384
5,054167	0,1	0,271314
5,055833	0,1	0,321350
5,057500	0,1	0,306246
5,059167	0,1	0,325979
5,060833	0,1	0,281916
5,062500	0,1	0,301895
5,064167	0,1	0,331954
5,065833	0,1	0,310316
5,067500	0,1	0,293856
5,069167	0,1	0,290444
5,070833	0,1	0,344115
5,072500	0,1	0,333087
5,074167	0,1	0,331898
5,075833	0,1	0,330643
5,077500	0,1	0,291420
5,079167	0,1	0,325658
5,080833	0,1	0,343806
5,082500	0,1	0,346639
5,084167	0,1	0,340594
5,085833	0,1	0,336684
5,087500	0,1	0,345571
5,089167	0,1	0,333375
5,090833	0,1	0,351602
5,092500	0,1	0,322563
5,094167	0,1	0,332149
5,095833	0,1	0,345570
5,097500	0,1	0,365251
5,099167	0,1	0,397682
5,100833	0,1	0,342573
5,102500	0,1	0,318157
5,104167	0,1	0,353618
5,105833	0,1	0,308657
5,107500	0,1	0,342066
5,109167	0,1	0,350066
5,110833	0,1	0,339183
5,112500	0,1	0,354108
5,114167	0,1	0,333179
5,115833	0,1	0,367683
5,117500	0,1	0,313154
5,119167	0,1	0,367494
5,120833	0,1	0,342334
5,122500	0,1	0,355266
5,124167	0,1	0,330585
5,125833	0,1	0,346438
5,127500	0,1	0,336839
5,129167	0,1	0,361297
5,130833	0,1	0,353662
5,132500	0,1	0,342338
5,134167	0,1	0,342074
5,135833	0,1	0,353784
5,137500	0,1	0,359064
5,139167	0,1	0,358416
5,140833	0,1	0,357677
5,142500	0,1	0,353958
5,144167	0,1	0,327726
5,145833	0,1	0,368167
5,147500	0,1	0,386928
5,149167	0,1	0,389628
5,150833	0,1	0,331135
5,152500	0,1	0,331248
5,154167	0,1	0,365478
5,155833	0,1	0,360247
5,157500	0,1	0,372317
5,159167	0,1	0,304522
5,160833	0,1	0,334522
5,162500	0,1	0,345126
5,164167	0,1	0,343422
5,165833	0,1	0,323647
5,167500	0,1	0,354910
5,169167	0,1	0,326125
5,170833	0,1	0,331698
5,172500	0,1	0,332632
5,174167	0,1	0,360175
5,175833	0,1	0,309943
5,177500	0,1	0,314977
5,179167	0,1	0,362709
5,180833	0,1	0,317874
5,182500	0,1	0,281978
5,184167	0,1	0,301832
5,185833	0,1	0,331954
5,187500	0,1	0,345409
5,189167	0,1	0,334498
5,190833	0,1	0,312703
5,192500	0,1	0,305213
5,194167	0,1	0,284641
5,195833	0,1	0,347936
5,197500	0,1	0,304415
5,199167	0,1	0,264517
5,200833	0,1	0,295544
5,202500	0,1	0,322196
5,204167	0,1	0,335974
5,205833	0,1	0,314629
5,207500	0,1	0,289001
5,209167	0,1	0,302927
5,210833	0,1	0,281105
5,212500	0,1	0,276606
5,214167	0,1	0,316216
5,215833	0,1	0,309615
5,217500	0,1	0,297218
5,219167	0,1	0,283067
5,220833	0,1	0,280648
5,222500	0,1	0,300358
5,224167	0,1	0,300751
5,225833	0,1	0,284026
5,227500	0,1	0,285793
5,229167	0,1	0,265695
5,230833	0,1	0,280555
5,232500	0,1	0,245732
5,234167	0,1	0,292076
5,235833	0,1	0,290895
5,237500	0,1	0,270000
5,239167	0,1	0,260240
5,240833	0,1	0,276538
5,242500	0,1	0,265794
5,244167	0,1	0,250800
5,245833	0,1	0,252849
5,247500	0,1	0,256322
5,249167	0,1	0,251503
5,250833	0,1	0,267360
5,252500	0,1	0,270257
5,254167	0,1	0,226210
5,255833	0,1	0,221041
5,257500	0,1	0,271656
5,259167	0,1	0,260482
5,260833	0,1	0,234174
5,262500	0,1	0,237731
5,264167	0,1	0,268514
5,265833	0,1	0,216783
5,267500	0,1	0,238014
5,269167	0,1	0,238472
5,270833	0,1	0,250190
5,272500	0,1	0,232663
5,274167	0,1	0,245759
5,275833	0,1	0,221787
5,277500	0,1	0,204955
5,279167	0,1	0,243473
5,280833	0,1	0,218187
5,282500	0,1	0,215878
5,284167	0,1	0,224637
5,285833	0,1	0,203735
5,287500	0,1	0,244493
5,289167	0,1	0,191684
5,290833	0,1	0,207428
5,292500	0,1	0,195149
5,294167	0,1	0,254698
5,295833	0,1	0,205254
5,297500	0,1	0,213787
5,299167	0,1	0,215261
5,300833	0,1	0,215916
5,302500	0,1	0,143055
5,304167	0,1	0,181141
5,305833	0,1	0,170719
5,307500	0,1	0,186244
5,309167	0,1	0,202141
5,310833	0,1	0,176711
5,312500	0,1	0,188297
5,314167	0,1	0,244312
5,315833	0,1	0,230169
5,317500	0,1	0,183854
5,319167	0,1	0,180118
5,320833	0,1	0,184775
5,322500	0,1	0,179767
5,324167	0,1	0,187153
5,325833	0,1	0,171197
5,327500	0,1	0,166601
5,329167	0,1	0,162849
5,330833	0,1	0,178125
5,332500	0,1	0,176948
5,334167	0,1	0,157828
5,335833	0,1	0,199567
5,337500	0,1	0,140084
5,339167	0,1	0,187144
5,340833	0,1	0,173929
5,342500	0,1	0,120748
5,344167	0,1	0,160788
5,345833	0,1	0,209485
5,347500	0,1	0,176085
5,349167	0,1	0,146167
5,350833	0,1	0,152226
5,352500	0,1	0,146452
5,354167	0,1	0,156655
5,355833	0,1	0,209547
5,357500	0,1	0,136198
5,359167	0,1	0,145515
5,360833	0,1	0,147217
5,362500	0,1	0,185346
5,364167	0,1	0,152070
5,365833	0,1	0,146223
5,367500	0,1	0,174638
5,369167	0,1	0,150620
5,370833	0,1	0,148502
5,372500	0,1	0,114883
5,374167	0,1	0,116180
5,375833	0,1	0,108622
5,377500	0,1	0,128887
5,379167	0,1	0,094657
5,380833	0,1	0,146892
5,382500	0,1	0,150363
5,384167	0,1	0,131755
5,385833	0,1	0,102545
5,387500	0,1	0,099288
5,389167	0,1	0,103758
5,390833	0,1	0,092147
5,392500	0,1	0,156414
5,394167	0,1	0,087253
5,395833	0,1	0,148649
5,397500	0,1	0,120845
5,399167	0,1	0,116659
5,400833	0,1	0,099663
5,402500	0,1	0,116834
5,404167	0,1	0,150231
5,405833	0,1	0,150630
5,407500	0,1	0,102071
5,409167	0,1	0,086910
5,410833	0,1	0,118427
5,412500	0,1	0,075943
5,414167	0,1	0,112320
5,415833	0,1	0,082875
5,417500	0,1	0,084692
5,419167	0,1	0,114122
5,420833	0,1	0,106884
5,422500	0,1	0,127791
5,424167	0,1	0,110965
5,425833	0,1	0,080701
5,427500	0,1	0,122276
5,429167	0,1	0,092918
5,430833	0,1	0,105595
5,432500	0,1	0,136336
5,434167	0,1	0,133981
5,435833	0,1	0,110159
5,437500	0,1	0,092125
5,439167	0,1	0,112653
5,440833	0,1	0,088980
5,442500	0,1	0,095165
5,444167	0,1	0,103092
5,445833	0,1	0,084260
5,447500	0,1	0,073493
5,449167	0,1	0,100395
5,450833	0,1	0,101584
5,452500	0,1	0,085315
5,454167	0,1	0,094436
5,455833	0,1	0,086825
5,457500	0,1	0,088311
5,459167	0,1	0,058943
5,460833	0,1	0,089154
5,462500	0,1	0,069998
5,464167	0,1	0,060637
5,465833	0,1	0,125128
5,467500	0,1	0,078636
5,469167	0,1	0,065897
5,470833	0,1	0,102984
5,472500	0,1	0,074057
5,474167	0,1	0,106336
5,475833	0,1	0,091982
5,477500	0,1	0,103382
5,479167	0,1	0,054684
5,480833	0,1	0,078949
5,482500	0,1	0,083220
5,484167	0,1	0,066932
5,485833	0,1	0,085556
5,487500	0,1	0,127348
5,489167	0,1	0,084411
5,490833	0,1	0,046483
5,492500	0,1	0,063343
5,494167	0,1	0,073632
5,495833	0,1	0,064033
5,497500	0,1	0,084313
5,499167	0,1	0,060991
5,500833	0,1	0,069680
5,502500	0,1	0,087834
5,504167	0,1	0,073513
5,505833	0,1	0,079533
5,507500	0,1	0,051471
5,509167	0,1	0,077024
5,510833	0,1	0,077734
5,512500	0,1	0,080693
5,514167	0,1	0,056394
5,515833	0,1	0,082282
5,517500	0,1	0,106172
5,519167	0,1	0,043922
5,520833	0,1	0,074123
5,522500	0,1	0,033132
5,524167	0,1	0,024989
5,525833	0,1	0,026561
5,527500	0,1	0,080847
5,529167	0,1	0,061445
5,530833	0,1	0,038717
5,532500	0,1	0,049556
5,534167	0,1	0,063385
5,535833	0,1	0,057241
5,537500	0,1	0,050866
5,539167	0,1	0,020007
5,540833	0,1	0,087885
5,542500	0,1	0,059709
5,544167	0,1	0,067630
5,545833	0,1	0,058319
5,547500	0,1	0,065084
5,549167	0,1	0,052440
5,550833	0,1	0,084123
5,552500	0,1	0,046441
5,554167	0,1	0,061460
5,555833	0,1	0,039565
5,557500	0,1	0,094119
5,559167	0,1	0,023389
5,560833	0,1	0,076188
5,562500	0,1	0,047971
5,564167	0,1	0,069261
5,565833	0,1	0,042320
5,567500	0,1	0,058807
5,569167	0,1	0,045940
5,570833	0,1	0,040327
5,572500	0,1	0,056221
5,574167	0,1	0,081745
5,575833	0,1	0,061963
5,577500	0,1	0,013138
5,579167	0,1	0,039615
5,580833	0,1	0,039746
5,582500	0,1	0,033331
5,584167	0,1	0,030350
5,585833	0,1	0,079608
5,587500	0,1	0,041661
5,589167	0,1	0,014438
5,590833	0,1	0,068032
5,592500	0,1	0,036588
5,594167	0,1	0,092853
5,595833	0,1	0,024217
5,597500	0,1	0,065406
5,599167	0,1	0,043893
5,600833	0,1	0,059325
5,602500	0,1	0,075909
5,604167	0,1	0,020115
5,605833	0,1	0,039555
5,607500	0,1	0,022322
5,609167	0,1	0,051892
5,610833	0,1	0,025409
5,612500	0,1	0,054522
5,614167	0,1	0,048774
5,615833	0,1	0,070649
5,617500	0,1	0,086240
5,619167	0,1	0,047747
5,620833	0,1	0,040203
5,622500	0,1	0,064934
5,624167	0,1	0,079884
5,625833	0,1	0,061052
5,627500	0,1	0,067113
5,629167	0,1	0,059785
5,630833	0,1	0,059578
5,632500	0,1	0,088014
5,634167	0,1	0,069313
5,635833	0,1	0,045590
5,637500	0,1	0,050242
5,639167	0,1	0,082073
5,640833	0,1	0,042509
5,642500	0,1	0,020956
5,644167	0,1	0,088607
5,645833	0,1	0,069126
5,647500	0,1	0,073571
5,649167	0,1	0,045342
5,650833	0,1	0,064458
5,652500	0,1	0,060551
5,654167	0,1	0,054219
5,655833	0,1	0,090148
5,657500	0,1	0,030197
5,659167	0,1	0,051708
5,660833	0,1	0,046931
5,662500	0,1	0,060796
5,664167	0,1	0,046520
5,665833	0,1	0,086852
5,667500	0,1	0,024546
5,669167	0,1	0,100674
5,670833	0,1	0,089039
5,672500	0,1	0,083945
5,674167	0,1	0,068255
5,675833	0,1	0,085535
5,677500	0,1	0,091540
5,679167	0,1	0,104437
5,680833	0,1	0,052491
5,682500	0,1	0,058231
5,684167	0,1	0,056598
5,685833	0,1	0,088824
5,687500	0,1	0,098373
5,689167	0,1	0,063210
5,690833	0,1	0,116434
5,692500	0,1	0,073376
5,694167	0,1	0,085245
5,695833	0,1	0,058157
5,697500	0,1	0,070341
5,699167	0,1	0,089902
5,700833	0,1	0,087403
5,702500	0,1	0,051018
5,704167	0,1	0,094989
5,705833	0,1	0,115512
5,707500	0,1	0,078403
5,709167	0,1	0,079784
5,710833	0,1	0,090692
5,712500	0,1	0,084961
5,714167	0,1	0,082063
5,715833	0,1	0,084237
5,717500	0,1	0,078419
5,719167	0,1	0,121054
5,720833	0,1	0,099890
5,722500	0,1	0,085831
5,724167	0,1	0,057080
5,725833	0,1	0,100374
5,727500	0,1	0,099017
5,729167	0,1	0,121288
5,730833	0,1	0,063652
5,732500	0,1	0,074460
5,734167	0,1	0,076928
5,735833	0,1	0,116108
5,737500	0,1	0,096125
5,739167	0,1	0,105950
5,740833	0,1	0,095543
5,742500	0,1	0,084858
5,744167	0,1	0,112630
5,745833	0,1	0,085629
5,747500	0,1	0,124389
5,749167	0,1	0,082197
5,750833	0,1	0,077735
5,752500	0,1	0,098949
5,754167	0,1	0,135176
5,755833	0,1	0,115935
5,757500	0,1	0,079855
5,759167	0,1	0,103566
5,760833	0,1	0,094838
5,762500	0,1	0,115970
5,764167	0,1	0,094342
5,765833	0,1	0,129174
5,767500	0,1	0,089750
5,769167	0,1	0,113607
5,770833	0,1	0,137787
5,772500	0,1	0,119684
5,774167	0,1	0,110922
5,775833	0,1	0,110694
5,777500	0,1	0,119240
5,779167	0,1	0,095835
5,780833	0,1	0,101105
5,782500	0,1	0,119863
5,784167	0,1	0,090868
5,785833	0,1	0,121307
5,787500	0,1	0,125456
5,789167	0,1	0,112311
5,790833	0,1	0,122966
5,792500	0,1	0,134932
5,794167	0,1	0,134318
5,795833	0,1	0,072801
5,797500	0,1	0,076990
5,799167	0,1	0,145642
5,800833	0,1	0,097311
5,802500	0,1	0,089329
5,804167	0,1	0,094731
5,805833	0,1	0,093758
5,807500	0,1	0,101520
5,809167	0,1	0,096864
5,810833	0,1	0,145897
5,812500	0,1	0,138396
5,814167	0,1	0,128644
5,815833	0,1	0,104241
5,817500	0,1	0,108518
5,819167	0,1	0,119677
5,820833	0,1	0,102560
5,822500	0,1	0,066731
5,824167	0,1	0,098430
5,825833	0,1	0,108454
5,827500	0,1	0,118019
5,829167	0,1	0,150833
5,830833	0,1	0,137342
5,832500	0,1	0,102335
5,834167	0,1	0,132485
5,835833	0,1	0,092897
5,837500	0,1	0,116237
5,839167	0,1	0,087721
5,840833	0,1	0,134823
5,842500	0,1	0,082860
5,844167	0,1	0,120101
5,845833	0,1	0,097097
5,847500	0,1	0,105228
5,849167	0,1	0,098273
5,850833	0,1	0,118204
5,852500	0,1	0,123467
5,854167	0,1	0,091094
5,855833	0,1	0,077449
5,857500	0,1	0,099425
5,859167	0,1	0,102389
5,860833	0,1	0,135797
5,862500	0,1	0,075431
5,864167	0,1	0,060452
5,865833	0,1	0,109087
5,867500	0,1	0,101399
5,869167	0,1	0,115802
5,870833	0,1	0,106329
5,872500	0,1	0,070457
5,874167	0,1	0,093030
5,875833	0,1	0,089640
5,877500	0,1	0,095789
5,879167	0,1	0,100424
5,880833	0,1	0,116796
5,882500	0,1	0,110259
5,884167	0,1	0,121374
5,885833	0,1	0,097035
5,887500	0,1	0,054352
5,889167	0,1	0,035569
5,890833	0,1	0,105457
5,892500	0,1	0,101152
5,894167	0,1	0,095581
5,895833	0,1	0,104875
5,897500	0,1	0,073311
5,899167	0,1	0,062459
5,900833	0,1	0,069514
5,902500	0,1	0,090731
5,904167	0,1	0,069334
5,905833	0,1	0,098514
5,907500	0,1	0,107296
5,909167	0,1	0,097611
5,910833	0,1	0,061698
5,912500	0,1	0,071314
5,914167	0,1	0,091519
5,915833	0,1	0,084216
5,917500	0,1	0,069312
5,919167	0,1	0,059374
5,920833	0,1	0,065954
5,922500	0,1	0,077606
5,924167	0,1	0,043398
5,925833	0,1	0,070088
5,927500	0,1	0,052317
5,929167	0,1	0,080107
5,930833	0,1	0,093651
5,932500	0,1	0,113257
5,934167	0,1	0,081179
5,935833	0,1	0,032637
5,937500	0,1	0,041028
5,939167	0,1	0,087866
5,940833	0,1	0,072689
5,942500	0,1	0,059168
5,944167	0,1	0,069742
5,945833	0,1	0,060058
5,947500	0,1	0,056206
5,949167	0,1	0,042296
5,950833	0,1	0,054235
5,952500	0,1	0,078536
5,954167	0,1	0,076719
5,955833	0,1	0,001303
5,957500	0,1	0,050997
5,959167	0,1	0,054773
5,960833	0,1	0,071312
5,962500	0,1	0,036817
5,964167	0,1	0,052639
5,965833	0,1	0,064918
5,967500	0,1	0,031722
5,969167	0,1	0,059077
5,970833	0,1	0,063263
5,972500	0,1	0,059146
5,974167	0,1	0,055915
5,975833	0,1	0,047036
5,977500	0,1	0,050615
5,979167	0,1	0,078824
5,980833	0,1	0,029925
5,982500	0,1	-0,007191
5,984167	0,1	0,077340
5,985833	0,1	0,060763
5,987500	0,1	0,064069
5,989167	0,1	0,036400
5,990833	0,1	0,067396
5,992500	0,1	0,069245
5,994167	0,1	0,052005
5,995833	0,1	0,061936
5,997500	0,1	0,066574
5,999167	0,1	0,021582
6,000833	0,1	0,010004
