File Path	chrom://chromeleon01/ikbm_chromeleon/2022/Rezex/Esteban/220612_chitin_4_7.seq/538.smp/UV_VIS_1.channel/UV_VIS_1.chm
Channel	UV_VIS_1

Injection Information:
Data Vault	ikbm_chromeleon
Injection	4_00h-EGS_1
Injection Number	114
Position	BB8
Comment	
Processing Method	New ProcMethod
Instrument Method	Short_Rezex_6min_194nm
Type	Unknown
Status	Finished
Injection Date	13.06.2022
Injection Time	05:25:49
Injection Volume (µl)	8,000
Dilution Factor	1,0000
Weight	1,0000

Chromatogram Data Information:
Time Min. (min)	0,000833
Time Max. (min)	6,000833
Data Points	3601
Detector	UV
Generating Data System	Chromeleon 7.2.9.11323
Exporting Data System	Chromeleon 7.2.9.0
Operator	Instrument Controller
Signal Quantity	Absorbance
Signal Unit	mAU
Signal Min.	-0,170669
Signal Max.	105,931836
Channel	UV_VIS_1
Driver Name	VWD3000.dll
Channel Type	Evaluation
Min. Step (s)	0,1
Max. Step (s)	0,1
Average Step (s)	0,1

Signal Parameter Information:
Signal Info	WVL:194 nm

Chromatogram Data:
Time (min)	Step (s)	Value (mAU)
0,000833	n.a.	-0,051451
0,002500	0,1	-0,070525
0,004167	0,1	-0,062849
0,005833	0,1	-0,055716
0,007500	0,1	-0,046779
0,009167	0,1	-0,057864
0,010833	0,1	-0,085198
0,012500	0,1	-0,045688
0,014167	0,1	-0,051328
0,015833	0,1	-0,045848
0,017500	0,1	-0,074065
0,019167	0,1	-0,043349
0,020833	0,1	-0,085439
0,022500	0,1	-0,078381
0,024167	0,1	-0,053750
0,025833	0,1	-0,055880
0,027500	0,1	-0,075779
0,029167	0,1	-0,096165
0,030833	0,1	-0,062382
0,032500	0,1	-0,110514
0,034167	0,1	-0,126008
0,035833	0,1	-0,170669
0,037500	0,1	-0,052017
0,039167	0,1	-0,162666
0,040833	0,1	-0,123135
0,042500	0,1	-0,131568
0,044167	0,1	-0,121723
0,045833	0,1	-0,126607
0,047500	0,1	-0,104806
0,049167	0,1	-0,089515
0,050833	0,1	-0,095192
0,052500	0,1	-0,059219
0,054167	0,1	-0,108987
0,055833	0,1	-0,074369
0,057500	0,1	-0,098394
0,059167	0,1	-0,080278
0,060833	0,1	-0,069293
0,062500	0,1	-0,078041
0,064167	0,1	-0,056589
0,065833	0,1	-0,096558
0,067500	0,1	-0,085408
0,069167	0,1	-0,094488
0,070833	0,1	-0,086049
0,072500	0,1	-0,094885
0,074167	0,1	-0,058700
0,075833	0,1	-0,064860
0,077500	0,1	-0,075641
0,079167	0,1	-0,083340
0,080833	0,1	-0,115514
0,082500	0,1	-0,065745
0,084167	0,1	-0,051624
0,085833	0,1	-0,044609
0,087500	0,1	-0,097074
0,089167	0,1	-0,068032
0,090833	0,1	-0,052097
0,092500	0,1	-0,057576
0,094167	0,1	-0,091978
0,095833	0,1	-0,067083
0,097500	0,1	-0,087185
0,099167	0,1	-0,061371
0,100833	0,1	-0,031326
0,102500	0,1	-0,080886
0,104167	0,1	-0,089526
0,105833	0,1	-0,086611
0,107500	0,1	-0,078168
0,109167	0,1	-0,109877
0,110833	0,1	-0,072921
0,112500	0,1	-0,079325
0,114167	0,1	-0,084868
0,115833	0,1	-0,103588
0,117500	0,1	-0,118402
0,119167	0,1	-0,081029
0,120833	0,1	-0,101175
0,122500	0,1	-0,104036
0,124167	0,1	-0,111091
0,125833	0,1	-0,082388
0,127500	0,1	-0,079907
0,129167	0,1	-0,077770
0,130833	0,1	-0,045765
0,132500	0,1	-0,127977
0,134167	0,1	-0,071368
0,135833	0,1	-0,100470
0,137500	0,1	-0,072749
0,139167	0,1	-0,077873
0,140833	0,1	-0,076927
0,142500	0,1	-0,077585
0,144167	0,1	-0,034264
0,145833	0,1	-0,038286
0,147500	0,1	-0,091501
0,149167	0,1	-0,046683
0,150833	0,1	-0,060659
0,152500	0,1	-0,096453
0,154167	0,1	-0,072398
0,155833	0,1	-0,086606
0,157500	0,1	-0,075358
0,159167	0,1	-0,109571
0,160833	0,1	-0,095763
0,162500	0,1	-0,053494
0,164167	0,1	-0,046901
0,165833	0,1	-0,072156
0,167500	0,1	-0,108274
0,169167	0,1	-0,085455
0,170833	0,1	-0,000379
0,172500	0,1	-0,067093
0,174167	0,1	-0,077749
0,175833	0,1	-0,086821
0,177500	0,1	-0,049446
0,179167	0,1	-0,098100
0,180833	0,1	-0,070230
0,182500	0,1	-0,055534
0,184167	0,1	-0,117842
0,185833	0,1	-0,052137
0,187500	0,1	-0,081410
0,189167	0,1	-0,083632
0,190833	0,1	-0,060333
0,192500	0,1	-0,091489
0,194167	0,1	-0,072733
0,195833	0,1	-0,060129
0,197500	0,1	-0,080954
0,199167	0,1	-0,070165
0,200833	0,1	-0,109509
0,202500	0,1	-0,076829
0,204167	0,1	-0,072394
0,205833	0,1	-0,104609
0,207500	0,1	-0,053662
0,209167	0,1	-0,063637
0,210833	0,1	-0,056390
0,212500	0,1	-0,050476
0,214167	0,1	-0,075868
0,215833	0,1	-0,017772
0,217500	0,1	-0,041885
0,219167	0,1	-0,043541
0,220833	0,1	-0,070963
0,222500	0,1	-0,083233
0,224167	0,1	-0,063309
0,225833	0,1	-0,071029
0,227500	0,1	-0,060269
0,229167	0,1	-0,092758
0,230833	0,1	-0,075939
0,232500	0,1	-0,087890
0,234167	0,1	-0,097390
0,235833	0,1	-0,061864
0,237500	0,1	-0,067639
0,239167	0,1	-0,064573
0,240833	0,1	-0,082133
0,242500	0,1	-0,051293
0,244167	0,1	-0,074784
0,245833	0,1	-0,019758
0,247500	0,1	-0,058499
0,249167	0,1	-0,049882
0,250833	0,1	-0,079791
0,252500	0,1	-0,046021
0,254167	0,1	-0,063318
0,255833	0,1	-0,081674
0,257500	0,1	-0,058575
0,259167	0,1	-0,064921
0,260833	0,1	-0,087704
0,262500	0,1	-0,084062
0,264167	0,1	-0,073127
0,265833	0,1	-0,073095
0,267500	0,1	-0,067551
0,269167	0,1	-0,054143
0,270833	0,1	-0,055195
0,272500	0,1	-0,051805
0,274167	0,1	-0,025797
0,275833	0,1	-0,067753
0,277500	0,1	-0,051762
0,279167	0,1	-0,070921
0,280833	0,1	-0,032400
0,282500	0,1	-0,053187
0,284167	0,1	-0,033678
0,285833	0,1	-0,078307
0,287500	0,1	-0,018828
0,289167	0,1	-0,055215
0,290833	0,1	-0,112240
0,292500	0,1	-0,040336
0,294167	0,1	-0,071452
0,295833	0,1	-0,058496
0,297500	0,1	-0,081764
0,299167	0,1	-0,040863
0,300833	0,1	-0,077804
0,302500	0,1	-0,051014
0,304167	0,1	-0,020439
0,305833	0,1	-0,059766
0,307500	0,1	-0,055759
0,309167	0,1	-0,055866
0,310833	0,1	-0,014253
0,312500	0,1	-0,072484
0,314167	0,1	-0,030065
0,315833	0,1	-0,042802
0,317500	0,1	-0,066322
0,319167	0,1	-0,058967
0,320833	0,1	-0,065318
0,322500	0,1	-0,045913
0,324167	0,1	-0,073439
0,325833	0,1	-0,033333
0,327500	0,1	-0,015058
0,329167	0,1	-0,044038
0,330833	0,1	-0,050152
0,332500	0,1	-0,079899
0,334167	0,1	-0,060209
0,335833	0,1	-0,022945
0,337500	0,1	-0,043672
0,339167	0,1	-0,069302
0,340833	0,1	-0,046782
0,342500	0,1	-0,040136
0,344167	0,1	-0,026954
0,345833	0,1	-0,018325
0,347500	0,1	-0,048053
0,349167	0,1	-0,033661
0,350833	0,1	-0,052776
0,352500	0,1	-0,038809
0,354167	0,1	-0,069802
0,355833	0,1	-0,035836
0,357500	0,1	-0,045492
0,359167	0,1	-0,038914
0,360833	0,1	-0,038376
0,362500	0,1	-0,069161
0,364167	0,1	-0,011172
0,365833	0,1	-0,055747
0,367500	0,1	-0,043695
0,369167	0,1	-0,036867
0,370833	0,1	-0,054701
0,372500	0,1	-0,042624
0,374167	0,1	-0,067450
0,375833	0,1	-0,030521
0,377500	0,1	-0,045490
0,379167	0,1	-0,041998
0,380833	0,1	-0,058259
0,382500	0,1	-0,034367
0,384167	0,1	-0,026619
0,385833	0,1	-0,049979
0,387500	0,1	-0,021994
0,389167	0,1	-0,032020
0,390833	0,1	-0,011225
0,392500	0,1	-0,044142
0,394167	0,1	-0,048685
0,395833	0,1	-0,036516
0,397500	0,1	-0,042180
0,399167	0,1	-0,032193
0,400833	0,1	-0,047249
0,402500	0,1	-0,038669
0,404167	0,1	-0,075177
0,405833	0,1	-0,076652
0,407500	0,1	-0,065033
0,409167	0,1	-0,016698
0,410833	0,1	-0,020596
0,412500	0,1	-0,029349
0,414167	0,1	-0,065815
0,415833	0,1	-0,057212
0,417500	0,1	-0,033301
0,419167	0,1	-0,021030
0,420833	0,1	-0,006364
0,422500	0,1	-0,008469
0,424167	0,1	-0,027606
0,425833	0,1	-0,011831
0,427500	0,1	-0,032324
0,429167	0,1	-0,045598
0,430833	0,1	0,003709
0,432500	0,1	-0,040643
0,434167	0,1	-0,013408
0,435833	0,1	-0,025561
0,437500	0,1	-0,022154
0,439167	0,1	-0,022767
0,440833	0,1	-0,030571
0,442500	0,1	0,006197
0,444167	0,1	-0,048767
0,445833	0,1	-0,007258
0,447500	0,1	-0,013004
0,449167	0,1	-0,060864
0,450833	0,1	-0,003826
0,452500	0,1	-0,039561
0,454167	0,1	-0,042761
0,455833	0,1	-0,061238
0,457500	0,1	-0,041131
0,459167	0,1	-0,017518
0,460833	0,1	-0,031070
0,462500	0,1	-0,024466
0,464167	0,1	-0,014703
0,465833	0,1	-0,013479
0,467500	0,1	-0,061199
0,469167	0,1	-0,008070
0,470833	0,1	-0,007063
0,472500	0,1	-0,006360
0,474167	0,1	-0,046003
0,475833	0,1	-0,024056
0,477500	0,1	-0,020537
0,479167	0,1	-0,043837
0,480833	0,1	0,002346
0,482500	0,1	-0,031646
0,484167	0,1	-0,051018
0,485833	0,1	-0,039986
0,487500	0,1	-0,024011
0,489167	0,1	-0,038998
0,490833	0,1	-0,028740
0,492500	0,1	-0,012675
0,494167	0,1	-0,001188
0,495833	0,1	-0,034107
0,497500	0,1	-0,010215
0,499167	0,1	-0,042174
0,500833	0,1	-0,031217
0,502500	0,1	0,000240
0,504167	0,1	-0,027832
0,505833	0,1	-0,038174
0,507500	0,1	-0,041601
0,509167	0,1	-0,022115
0,510833	0,1	0,020145
0,512500	0,1	-0,011028
0,514167	0,1	0,006633
0,515833	0,1	-0,003211
0,517500	0,1	-0,042903
0,519167	0,1	-0,043296
0,520833	0,1	-0,028072
0,522500	0,1	-0,003265
0,524167	0,1	-0,025893
0,525833	0,1	-0,065371
0,527500	0,1	-0,011981
0,529167	0,1	-0,028187
0,530833	0,1	-0,044726
0,532500	0,1	0,001328
0,534167	0,1	-0,021479
0,535833	0,1	-0,033514
0,537500	0,1	-0,024494
0,539167	0,1	-0,054987
0,540833	0,1	-0,051102
0,542500	0,1	-0,029111
0,544167	0,1	-0,030969
0,545833	0,1	-0,047645
0,547500	0,1	-0,006827
0,549167	0,1	-0,002116
0,550833	0,1	-0,022517
0,552500	0,1	-0,028647
0,554167	0,1	0,006981
0,555833	0,1	-0,057483
0,557500	0,1	0,008361
0,559167	0,1	-0,000830
0,560833	0,1	0,016030
0,562500	0,1	-0,003439
0,564167	0,1	-0,022913
0,565833	0,1	0,011288
0,567500	0,1	-0,022268
0,569167	0,1	-0,043380
0,570833	0,1	0,008734
0,572500	0,1	-0,010619
0,574167	0,1	-0,009525
0,575833	0,1	-0,029040
0,577500	0,1	-0,015241
0,579167	0,1	-0,044143
0,580833	0,1	-0,009472
0,582500	0,1	-0,022792
0,584167	0,1	-0,011741
0,585833	0,1	-0,020779
0,587500	0,1	-0,006901
0,589167	0,1	-0,027176
0,590833	0,1	-0,025960
0,592500	0,1	0,004662
0,594167	0,1	0,024166
0,595833	0,1	0,004963
0,597500	0,1	-0,017614
0,599167	0,1	-0,024491
0,600833	0,1	0,005884
0,602500	0,1	-0,008204
0,604167	0,1	0,004297
0,605833	0,1	0,047278
0,607500	0,1	0,005487
0,609167	0,1	0,007718
0,610833	0,1	-0,006525
0,612500	0,1	0,000054
0,614167	0,1	0,025940
0,615833	0,1	-0,006705
0,617500	0,1	0,020000
0,619167	0,1	0,016631
0,620833	0,1	-0,060338
0,622500	0,1	0,016744
0,624167	0,1	0,042129
0,625833	0,1	0,017077
0,627500	0,1	-0,016556
0,629167	0,1	0,031191
0,630833	0,1	0,012769
0,632500	0,1	-0,003747
0,634167	0,1	0,044772
0,635833	0,1	0,004696
0,637500	0,1	0,037409
0,639167	0,1	-0,030996
0,640833	0,1	0,021980
0,642500	0,1	0,035049
0,644167	0,1	0,002630
0,645833	0,1	0,005372
0,647500	0,1	0,030291
0,649167	0,1	0,012127
0,650833	0,1	0,019985
0,652500	0,1	0,006018
0,654167	0,1	-0,010724
0,655833	0,1	-0,023433
0,657500	0,1	0,016604
0,659167	0,1	0,016323
0,660833	0,1	0,021992
0,662500	0,1	0,015789
0,664167	0,1	0,016614
0,665833	0,1	-0,011470
0,667500	0,1	0,048557
0,669167	0,1	0,041927
0,670833	0,1	0,039754
0,672500	0,1	0,014132
0,674167	0,1	0,048958
0,675833	0,1	0,033711
0,677500	0,1	-0,011466
0,679167	0,1	0,009156
0,680833	0,1	0,025424
0,682500	0,1	0,018022
0,684167	0,1	-0,018568
0,685833	0,1	0,026762
0,687500	0,1	0,043785
0,689167	0,1	0,028721
0,690833	0,1	0,039068
0,692500	0,1	0,001153
0,694167	0,1	0,057558
0,695833	0,1	0,046834
0,697500	0,1	0,016638
0,699167	0,1	0,028448
0,700833	0,1	0,029981
0,702500	0,1	0,041178
0,704167	0,1	0,023799
0,705833	0,1	0,031492
0,707500	0,1	0,044509
0,709167	0,1	0,048694
0,710833	0,1	0,065621
0,712500	0,1	0,061485
0,714167	0,1	0,036386
0,715833	0,1	0,033190
0,717500	0,1	0,070853
0,719167	0,1	0,050580
0,720833	0,1	0,049189
0,722500	0,1	0,079135
0,724167	0,1	0,050397
0,725833	0,1	0,066822
0,727500	0,1	0,073303
0,729167	0,1	0,078932
0,730833	0,1	0,053501
0,732500	0,1	0,081825
0,734167	0,1	0,099445
0,735833	0,1	0,105286
0,737500	0,1	0,132585
0,739167	0,1	0,080809
0,740833	0,1	0,129743
0,742500	0,1	0,096268
0,744167	0,1	0,103317
0,745833	0,1	0,070125
0,747500	0,1	0,099752
0,749167	0,1	0,078132
0,750833	0,1	0,095843
0,752500	0,1	0,101621
0,754167	0,1	0,100420
0,755833	0,1	0,083576
0,757500	0,1	0,110415
0,759167	0,1	0,084882
0,760833	0,1	0,087275
0,762500	0,1	0,114596
0,764167	0,1	0,096720
0,765833	0,1	0,107498
0,767500	0,1	0,105886
0,769167	0,1	0,120810
0,770833	0,1	0,105682
0,772500	0,1	0,127638
0,774167	0,1	0,106161
0,775833	0,1	0,119340
0,777500	0,1	0,125967
0,779167	0,1	0,129009
0,780833	0,1	0,093060
0,782500	0,1	0,092762
0,784167	0,1	0,087506
0,785833	0,1	0,089801
0,787500	0,1	0,094643
0,789167	0,1	0,112900
0,790833	0,1	0,090242
0,792500	0,1	0,084939
0,794167	0,1	0,086695
0,795833	0,1	0,087855
0,797500	0,1	0,077196
0,799167	0,1	0,062523
0,800833	0,1	0,079738
0,802500	0,1	0,070761
0,804167	0,1	0,094766
0,805833	0,1	0,087838
0,807500	0,1	0,073932
0,809167	0,1	0,061672
0,810833	0,1	0,124047
0,812500	0,1	0,099620
0,814167	0,1	0,066646
0,815833	0,1	0,058586
0,817500	0,1	0,086379
0,819167	0,1	0,093691
0,820833	0,1	0,058864
0,822500	0,1	0,090086
0,824167	0,1	0,052510
0,825833	0,1	0,067299
0,827500	0,1	0,054781
0,829167	0,1	0,068230
0,830833	0,1	0,053228
0,832500	0,1	0,058521
0,834167	0,1	0,070094
0,835833	0,1	0,057266
0,837500	0,1	0,121811
0,839167	0,1	0,017132
0,840833	0,1	0,078359
0,842500	0,1	0,017491
0,844167	0,1	0,088253
0,845833	0,1	0,063397
0,847500	0,1	0,045491
0,849167	0,1	0,054152
0,850833	0,1	0,072950
0,852500	0,1	0,008736
0,854167	0,1	0,076394
0,855833	0,1	0,020662
0,857500	0,1	0,031923
0,859167	0,1	0,058022
0,860833	0,1	0,024999
0,862500	0,1	0,052909
0,864167	0,1	0,076384
0,865833	0,1	0,057059
0,867500	0,1	0,052625
0,869167	0,1	0,065807
0,870833	0,1	0,074895
0,872500	0,1	0,089882
0,874167	0,1	0,044128
0,875833	0,1	0,029923
0,877500	0,1	0,032214
0,879167	0,1	0,024727
0,880833	0,1	0,074264
0,882500	0,1	0,082369
0,884167	0,1	0,094084
0,885833	0,1	0,084857
0,887500	0,1	0,054618
0,889167	0,1	0,036525
0,890833	0,1	0,061725
0,892500	0,1	0,017944
0,894167	0,1	0,079395
0,895833	0,1	0,058984
0,897500	0,1	0,055174
0,899167	0,1	0,070982
0,900833	0,1	0,103249
0,902500	0,1	0,076767
0,904167	0,1	0,086260
0,905833	0,1	0,064865
0,907500	0,1	0,104844
0,909167	0,1	0,086828
0,910833	0,1	0,079620
0,912500	0,1	0,078562
0,914167	0,1	0,038394
0,915833	0,1	0,081946
0,917500	0,1	0,058634
0,919167	0,1	0,043356
0,920833	0,1	0,086914
0,922500	0,1	0,058179
0,924167	0,1	0,056124
0,925833	0,1	0,081993
0,927500	0,1	0,089075
0,929167	0,1	0,077985
0,930833	0,1	0,099817
0,932500	0,1	0,096366
0,934167	0,1	0,112962
0,935833	0,1	0,079812
0,937500	0,1	0,114077
0,939167	0,1	0,057006
0,940833	0,1	0,071477
0,942500	0,1	0,088474
0,944167	0,1	0,079744
0,945833	0,1	0,114635
0,947500	0,1	0,109740
0,949167	0,1	0,114125
0,950833	0,1	0,077556
0,952500	0,1	0,145702
0,954167	0,1	0,119576
0,955833	0,1	0,093907
0,957500	0,1	0,154977
0,959167	0,1	0,059396
0,960833	0,1	0,092525
0,962500	0,1	0,133348
0,964167	0,1	0,131082
0,965833	0,1	0,098236
0,967500	0,1	0,104250
0,969167	0,1	0,114889
0,970833	0,1	0,084737
0,972500	0,1	0,132416
0,974167	0,1	0,096745
0,975833	0,1	0,115570
0,977500	0,1	0,171417
0,979167	0,1	0,128730
0,980833	0,1	0,093453
0,982500	0,1	0,137178
0,984167	0,1	0,134973
0,985833	0,1	0,129985
0,987500	0,1	0,164300
0,989167	0,1	0,135126
0,990833	0,1	0,173390
0,992500	0,1	0,117451
0,994167	0,1	0,126711
0,995833	0,1	0,154945
0,997500	0,1	0,146362
0,999167	0,1	0,139033
1,000833	0,1	0,147104
1,002500	0,1	0,200448
1,004167	0,1	0,180070
1,005833	0,1	0,181722
1,007500	0,1	0,234946
1,009167	0,1	0,178173
1,010833	0,1	0,190955
1,012500	0,1	0,167402
1,014167	0,1	0,221239
1,015833	0,1	0,226095
1,017500	0,1	0,229800
1,019167	0,1	0,210486
1,020833	0,1	0,233810
1,022500	0,1	0,260029
1,024167	0,1	0,247613
1,025833	0,1	0,248605
1,027500	0,1	0,282231
1,029167	0,1	0,266168
1,030833	0,1	0,271010
1,032500	0,1	0,281406
1,034167	0,1	0,318197
1,035833	0,1	0,309697
1,037500	0,1	0,341249
1,039167	0,1	0,369313
1,040833	0,1	0,323731
1,042500	0,1	0,319905
1,044167	0,1	0,358735
1,045833	0,1	0,359186
1,047500	0,1	0,364722
1,049167	0,1	0,437173
1,050833	0,1	0,424285
1,052500	0,1	0,458058
1,054167	0,1	0,469327
1,055833	0,1	0,545817
1,057500	0,1	0,582284
1,059167	0,1	0,691204
1,060833	0,1	0,766174
1,062500	0,1	0,907846
1,064167	0,1	1,108229
1,065833	0,1	1,313288
1,067500	0,1	1,642860
1,069167	0,1	2,016770
1,070833	0,1	2,523592
1,072500	0,1	3,119172
1,074167	0,1	3,806715
1,075833	0,1	4,673050
1,077500	0,1	5,687527
1,079167	0,1	6,903657
1,080833	0,1	8,258079
1,082500	0,1	9,758808
1,084167	0,1	11,485500
1,085833	0,1	13,400836
1,087500	0,1	15,438555
1,089167	0,1	17,661005
1,090833	0,1	20,027560
1,092500	0,1	22,411766
1,094167	0,1	24,922726
1,095833	0,1	27,410468
1,097500	0,1	29,954404
1,099167	0,1	32,409545
1,100833	0,1	34,779722
1,102500	0,1	37,100577
1,104167	0,1	39,186897
1,105833	0,1	41,129646
1,107500	0,1	42,905814
1,109167	0,1	44,470969
1,110833	0,1	45,837982
1,112500	0,1	46,905506
1,114167	0,1	47,753850
1,115833	0,1	48,479743
1,117500	0,1	48,938151
1,119167	0,1	49,214566
1,120833	0,1	49,298695
1,122500	0,1	49,214148
1,124167	0,1	49,068798
1,125833	0,1	48,753807
1,127500	0,1	48,353707
1,129167	0,1	47,854593
1,130833	0,1	47,315917
1,132500	0,1	46,765673
1,134167	0,1	46,184230
1,135833	0,1	45,559880
1,137500	0,1	44,922676
1,139167	0,1	44,416886
1,140833	0,1	43,855026
1,142500	0,1	43,396541
1,144167	0,1	42,982945
1,145833	0,1	42,682879
1,147500	0,1	42,418143
1,149167	0,1	42,258239
1,150833	0,1	42,203676
1,152500	0,1	42,224895
1,154167	0,1	42,263017
1,155833	0,1	42,479041
1,157500	0,1	42,747749
1,159167	0,1	43,068184
1,160833	0,1	43,456263
1,162500	0,1	43,930681
1,164167	0,1	44,444263
1,165833	0,1	44,910417
1,167500	0,1	45,520342
1,169167	0,1	46,101578
1,170833	0,1	46,619802
1,172500	0,1	47,145059
1,174167	0,1	47,706717
1,175833	0,1	48,210796
1,177500	0,1	48,623966
1,179167	0,1	49,096005
1,180833	0,1	49,417402
1,182500	0,1	49,705685
1,184167	0,1	49,962886
1,185833	0,1	50,178809
1,187500	0,1	50,322550
1,189167	0,1	50,433130
1,190833	0,1	50,522446
1,192500	0,1	50,596023
1,194167	0,1	50,688599
1,195833	0,1	50,682677
1,197500	0,1	50,856942
1,199167	0,1	50,985783
1,200833	0,1	51,179684
1,202500	0,1	51,512122
1,204167	0,1	51,896299
1,205833	0,1	52,460864
1,207500	0,1	53,170275
1,209167	0,1	54,024571
1,210833	0,1	55,106305
1,212500	0,1	56,312232
1,214167	0,1	57,758822
1,215833	0,1	59,414343
1,217500	0,1	61,273449
1,219167	0,1	63,285077
1,220833	0,1	65,460773
1,222500	0,1	67,813052
1,224167	0,1	70,272571
1,225833	0,1	72,885726
1,227500	0,1	75,440418
1,229167	0,1	78,164948
1,230833	0,1	80,840541
1,232500	0,1	83,500732
1,234167	0,1	86,193161
1,235833	0,1	88,691910
1,237500	0,1	91,148810
1,239167	0,1	93,432913
1,240833	0,1	95,521889
1,242500	0,1	97,548909
1,244167	0,1	99,251516
1,245833	0,1	100,881193
1,247500	0,1	102,283975
1,249167	0,1	103,445865
1,250833	0,1	104,376223
1,252500	0,1	105,099429
1,254167	0,1	105,636573
1,255833	0,1	105,862142
1,257500	0,1	105,931836
1,259167	0,1	105,767934
1,260833	0,1	105,398937
1,262500	0,1	104,792767
1,264167	0,1	104,064481
1,265833	0,1	103,118521
1,267500	0,1	101,977236
1,269167	0,1	100,683309
1,270833	0,1	99,236755
1,272500	0,1	97,631393
1,274167	0,1	95,942548
1,275833	0,1	94,094061
1,277500	0,1	92,164332
1,279167	0,1	90,107367
1,280833	0,1	88,053234
1,282500	0,1	85,931799
1,284167	0,1	83,701780
1,285833	0,1	81,448420
1,287500	0,1	79,264683
1,289167	0,1	76,979756
1,290833	0,1	74,749463
1,292500	0,1	72,530520
1,294167	0,1	70,266252
1,295833	0,1	68,111410
1,297500	0,1	66,007052
1,299167	0,1	63,888052
1,300833	0,1	61,827983
1,302500	0,1	59,845839
1,304167	0,1	57,985942
1,305833	0,1	56,074071
1,307500	0,1	54,333144
1,309167	0,1	52,582650
1,310833	0,1	50,905925
1,312500	0,1	49,354566
1,314167	0,1	47,845949
1,315833	0,1	46,351082
1,317500	0,1	44,983721
1,319167	0,1	43,689066
1,320833	0,1	42,377849
1,322500	0,1	41,147164
1,324167	0,1	39,963130
1,325833	0,1	38,877427
1,327500	0,1	37,752016
1,329167	0,1	36,756301
1,330833	0,1	35,796350
1,332500	0,1	34,812520
1,334167	0,1	33,932389
1,335833	0,1	33,073026
1,337500	0,1	32,184595
1,339167	0,1	31,393619
1,340833	0,1	30,615701
1,342500	0,1	29,865340
1,344167	0,1	29,115162
1,345833	0,1	28,418081
1,347500	0,1	27,704403
1,349167	0,1	27,073880
1,350833	0,1	26,458696
1,352500	0,1	25,830459
1,354167	0,1	25,219720
1,355833	0,1	24,602339
1,357500	0,1	24,006852
1,359167	0,1	23,448148
1,360833	0,1	22,868554
1,362500	0,1	22,375233
1,364167	0,1	21,824654
1,365833	0,1	21,349316
1,367500	0,1	20,827548
1,369167	0,1	20,340831
1,370833	0,1	19,893294
1,372500	0,1	19,441291
1,374167	0,1	18,986408
1,375833	0,1	18,513977
1,377500	0,1	18,107699
1,379167	0,1	17,733619
1,380833	0,1	17,277451
1,382500	0,1	16,856327
1,384167	0,1	16,494108
1,385833	0,1	16,097128
1,387500	0,1	15,730158
1,389167	0,1	15,364550
1,390833	0,1	15,030582
1,392500	0,1	14,710846
1,394167	0,1	14,389220
1,395833	0,1	14,041564
1,397500	0,1	13,771202
1,399167	0,1	13,434393
1,400833	0,1	13,143325
1,402500	0,1	12,838635
1,404167	0,1	12,644994
1,405833	0,1	12,325900
1,407500	0,1	12,076568
1,409167	0,1	11,847177
1,410833	0,1	11,600028
1,412500	0,1	11,350333
1,414167	0,1	11,171556
1,415833	0,1	10,934586
1,417500	0,1	10,759647
1,419167	0,1	10,510800
1,420833	0,1	10,404602
1,422500	0,1	10,151764
1,424167	0,1	10,016449
1,425833	0,1	9,822657
1,427500	0,1	9,635071
1,429167	0,1	9,524282
1,430833	0,1	9,322120
1,432500	0,1	9,197330
1,434167	0,1	9,082426
1,435833	0,1	8,898730
1,437500	0,1	8,773645
1,439167	0,1	8,607273
1,440833	0,1	8,515071
1,442500	0,1	8,364529
1,444167	0,1	8,254866
1,445833	0,1	8,129536
1,447500	0,1	7,959532
1,449167	0,1	7,890692
1,450833	0,1	7,763698
1,452500	0,1	7,661542
1,454167	0,1	7,572819
1,455833	0,1	7,482354
1,457500	0,1	7,384651
1,459167	0,1	7,269543
1,460833	0,1	7,178666
1,462500	0,1	7,105989
1,464167	0,1	7,034627
1,465833	0,1	6,921655
1,467500	0,1	6,865863
1,469167	0,1	6,792500
1,470833	0,1	6,714303
1,472500	0,1	6,652963
1,474167	0,1	6,602435
1,475833	0,1	6,551233
1,477500	0,1	6,530218
1,479167	0,1	6,494970
1,480833	0,1	6,435607
1,482500	0,1	6,395424
1,484167	0,1	6,346350
1,485833	0,1	6,307355
1,487500	0,1	6,281022
1,489167	0,1	6,293494
1,490833	0,1	6,251442
1,492500	0,1	6,221688
1,494167	0,1	6,199011
1,495833	0,1	6,249045
1,497500	0,1	6,199847
1,499167	0,1	6,197616
1,500833	0,1	6,204963
1,502500	0,1	6,192397
1,504167	0,1	6,194067
1,505833	0,1	6,178301
1,507500	0,1	6,183947
1,509167	0,1	6,190823
1,510833	0,1	6,238822
1,512500	0,1	6,215179
1,514167	0,1	6,210886
1,515833	0,1	6,246520
1,517500	0,1	6,178271
1,519167	0,1	6,223816
1,520833	0,1	6,220458
1,522500	0,1	6,196970
1,524167	0,1	6,207093
1,525833	0,1	6,207835
1,527500	0,1	6,196138
1,529167	0,1	6,183847
1,530833	0,1	6,186729
1,532500	0,1	6,183133
1,534167	0,1	6,187023
1,535833	0,1	6,174101
1,537500	0,1	6,115458
1,539167	0,1	6,168775
1,540833	0,1	6,158421
1,542500	0,1	6,106538
1,544167	0,1	6,063121
1,545833	0,1	6,068491
1,547500	0,1	6,043214
1,549167	0,1	6,035066
1,550833	0,1	5,989963
1,552500	0,1	5,977276
1,554167	0,1	5,957731
1,555833	0,1	5,960522
1,557500	0,1	5,896624
1,559167	0,1	5,860531
1,560833	0,1	5,890853
1,562500	0,1	5,809579
1,564167	0,1	5,792812
1,565833	0,1	5,766479
1,567500	0,1	5,728318
1,569167	0,1	5,694125
1,570833	0,1	5,661257
1,572500	0,1	5,660317
1,574167	0,1	5,585374
1,575833	0,1	5,561449
1,577500	0,1	5,525016
1,579167	0,1	5,471336
1,580833	0,1	5,482034
1,582500	0,1	5,435355
1,584167	0,1	5,423900
1,585833	0,1	5,382453
1,587500	0,1	5,326961
1,589167	0,1	5,294397
1,590833	0,1	5,265060
1,592500	0,1	5,239899
1,594167	0,1	5,271509
1,595833	0,1	5,171909
1,597500	0,1	5,147642
1,599167	0,1	5,120772
1,600833	0,1	5,101722
1,602500	0,1	5,038083
1,604167	0,1	5,069506
1,605833	0,1	4,979655
1,607500	0,1	4,951052
1,609167	0,1	4,944006
1,610833	0,1	4,889531
1,612500	0,1	4,890846
1,614167	0,1	4,826433
1,615833	0,1	4,787068
1,617500	0,1	4,765611
1,619167	0,1	4,743590
1,620833	0,1	4,748442
1,622500	0,1	4,711400
1,624167	0,1	4,661796
1,625833	0,1	4,676367
1,627500	0,1	4,584650
1,629167	0,1	4,564571
1,630833	0,1	4,560066
1,632500	0,1	4,475160
1,634167	0,1	4,535898
1,635833	0,1	4,472847
1,637500	0,1	4,397421
1,639167	0,1	4,433972
1,640833	0,1	4,422073
1,642500	0,1	4,388538
1,644167	0,1	4,372251
1,645833	0,1	4,333496
1,647500	0,1	4,340980
1,649167	0,1	4,296846
1,650833	0,1	4,288169
1,652500	0,1	4,272379
1,654167	0,1	4,301931
1,655833	0,1	4,266150
1,657500	0,1	4,258936
1,659167	0,1	4,290311
1,660833	0,1	4,229870
1,662500	0,1	4,280910
1,664167	0,1	4,233026
1,665833	0,1	4,237347
1,667500	0,1	4,233301
1,669167	0,1	4,267103
1,670833	0,1	4,323552
1,672500	0,1	4,305546
1,674167	0,1	4,313723
1,675833	0,1	4,390740
1,677500	0,1	4,436360
1,679167	0,1	4,440382
1,680833	0,1	4,510695
1,682500	0,1	4,544787
1,684167	0,1	4,626704
1,685833	0,1	4,641561
1,687500	0,1	4,735378
1,689167	0,1	4,803977
1,690833	0,1	4,948866
1,692500	0,1	5,009954
1,694167	0,1	5,109989
1,695833	0,1	5,164449
1,697500	0,1	5,327664
1,699167	0,1	5,390897
1,700833	0,1	5,502066
1,702500	0,1	5,631383
1,704167	0,1	5,741527
1,705833	0,1	5,870370
1,707500	0,1	5,982435
1,709167	0,1	6,123675
1,710833	0,1	6,263432
1,712500	0,1	6,364238
1,714167	0,1	6,518839
1,715833	0,1	6,623795
1,717500	0,1	6,805673
1,719167	0,1	6,886511
1,720833	0,1	6,997330
1,722500	0,1	7,100264
1,724167	0,1	7,286701
1,725833	0,1	7,371364
1,727500	0,1	7,473633
1,729167	0,1	7,594782
1,730833	0,1	7,694578
1,732500	0,1	7,779697
1,734167	0,1	7,903290
1,735833	0,1	7,957297
1,737500	0,1	8,021418
1,739167	0,1	8,144088
1,740833	0,1	8,181829
1,742500	0,1	8,237451
1,744167	0,1	8,244769
1,745833	0,1	8,334880
1,747500	0,1	8,356084
1,749167	0,1	8,395740
1,750833	0,1	8,391805
1,752500	0,1	8,416931
1,754167	0,1	8,406356
1,755833	0,1	8,447397
1,757500	0,1	8,410761
1,759167	0,1	8,412637
1,760833	0,1	8,431739
1,762500	0,1	8,370987
1,764167	0,1	8,358450
1,765833	0,1	8,359894
1,767500	0,1	8,303862
1,769167	0,1	8,232689
1,770833	0,1	8,202621
1,772500	0,1	8,112810
1,774167	0,1	8,057100
1,775833	0,1	7,983369
1,777500	0,1	7,960109
1,779167	0,1	7,850839
1,780833	0,1	7,771408
1,782500	0,1	7,705085
1,784167	0,1	7,662799
1,785833	0,1	7,528607
1,787500	0,1	7,475716
1,789167	0,1	7,374114
1,790833	0,1	7,272614
1,792500	0,1	7,142992
1,794167	0,1	7,054567
1,795833	0,1	6,995508
1,797500	0,1	6,879853
1,799167	0,1	6,793350
1,800833	0,1	6,678104
1,802500	0,1	6,561307
1,804167	0,1	6,463719
1,805833	0,1	6,379347
1,807500	0,1	6,255875
1,809167	0,1	6,200169
1,810833	0,1	6,044843
1,812500	0,1	5,976062
1,814167	0,1	5,876348
1,815833	0,1	5,730537
1,817500	0,1	5,660920
1,819167	0,1	5,551504
1,820833	0,1	5,461095
1,822500	0,1	5,360809
1,824167	0,1	5,280654
1,825833	0,1	5,180745
1,827500	0,1	5,110935
1,829167	0,1	5,007795
1,830833	0,1	4,938014
1,832500	0,1	4,847366
1,834167	0,1	4,773725
1,835833	0,1	4,678020
1,837500	0,1	4,639217
1,839167	0,1	4,559599
1,840833	0,1	4,516393
1,842500	0,1	4,493292
1,844167	0,1	4,442704
1,845833	0,1	4,403284
1,847500	0,1	4,339374
1,849167	0,1	4,401719
1,850833	0,1	4,353709
1,852500	0,1	4,299886
1,854167	0,1	4,315340
1,855833	0,1	4,342796
1,857500	0,1	4,344381
1,859167	0,1	4,332315
1,860833	0,1	4,361872
1,862500	0,1	4,376942
1,864167	0,1	4,372005
1,865833	0,1	4,412094
1,867500	0,1	4,437498
1,869167	0,1	4,452446
1,870833	0,1	4,433012
1,872500	0,1	4,480840
1,874167	0,1	4,502808
1,875833	0,1	4,487863
1,877500	0,1	4,560974
1,879167	0,1	4,521220
1,880833	0,1	4,602958
1,882500	0,1	4,606137
1,884167	0,1	4,596660
1,885833	0,1	4,639242
1,887500	0,1	4,627949
1,889167	0,1	4,654809
1,890833	0,1	4,655701
1,892500	0,1	4,701487
1,894167	0,1	4,731007
1,895833	0,1	4,741942
1,897500	0,1	4,730570
1,899167	0,1	4,765961
1,900833	0,1	4,760874
1,902500	0,1	4,798946
1,904167	0,1	4,804475
1,905833	0,1	4,837637
1,907500	0,1	4,828233
1,909167	0,1	4,831572
1,910833	0,1	4,819285
1,912500	0,1	4,872302
1,914167	0,1	4,900440
1,915833	0,1	4,874316
1,917500	0,1	4,894186
1,919167	0,1	4,875015
1,920833	0,1	4,928187
1,922500	0,1	4,936562
1,924167	0,1	4,910037
1,925833	0,1	4,938773
1,927500	0,1	4,909955
1,929167	0,1	4,932004
1,930833	0,1	4,963130
1,932500	0,1	4,916062
1,934167	0,1	4,872857
1,935833	0,1	4,900857
1,937500	0,1	4,916850
1,939167	0,1	4,937876
1,940833	0,1	4,973114
1,942500	0,1	4,927960
1,944167	0,1	4,893568
1,945833	0,1	4,930502
1,947500	0,1	4,981494
1,949167	0,1	4,938907
1,950833	0,1	4,937349
1,952500	0,1	4,991813
1,954167	0,1	4,969767
1,955833	0,1	4,966120
1,957500	0,1	4,957665
1,959167	0,1	5,011819
1,960833	0,1	4,982036
1,962500	0,1	4,997182
1,964167	0,1	4,993346
1,965833	0,1	5,014003
1,967500	0,1	5,039650
1,969167	0,1	4,999729
1,970833	0,1	5,072177
1,972500	0,1	5,101651
1,974167	0,1	5,096891
1,975833	0,1	5,100755
1,977500	0,1	5,150818
1,979167	0,1	5,143182
1,980833	0,1	5,171766
1,982500	0,1	5,173805
1,984167	0,1	5,161331
1,985833	0,1	5,174536
1,987500	0,1	5,244562
1,989167	0,1	5,274162
1,990833	0,1	5,259437
1,992500	0,1	5,284695
1,994167	0,1	5,346642
1,995833	0,1	5,355382
1,997500	0,1	5,420522
1,999167	0,1	5,433124
2,000833	0,1	5,399477
2,002500	0,1	5,505341
2,004167	0,1	5,482997
2,005833	0,1	5,532753
2,007500	0,1	5,586149
2,009167	0,1	5,580964
2,010833	0,1	5,647930
2,012500	0,1	5,665902
2,014167	0,1	5,683062
2,015833	0,1	5,714650
2,017500	0,1	5,727267
2,019167	0,1	5,774398
2,020833	0,1	5,814664
2,022500	0,1	5,852941
2,024167	0,1	5,862544
2,025833	0,1	5,968038
2,027500	0,1	5,974004
2,029167	0,1	5,980861
2,030833	0,1	6,000476
2,032500	0,1	6,080290
2,034167	0,1	6,150209
2,035833	0,1	6,208067
2,037500	0,1	6,230724
2,039167	0,1	6,264108
2,040833	0,1	6,316470
2,042500	0,1	6,343436
2,044167	0,1	6,367772
2,045833	0,1	6,435345
2,047500	0,1	6,501078
2,049167	0,1	6,503806
2,050833	0,1	6,552741
2,052500	0,1	6,566691
2,054167	0,1	6,625691
2,055833	0,1	6,655096
2,057500	0,1	6,698950
2,059167	0,1	6,774235
2,060833	0,1	6,810087
2,062500	0,1	6,830288
2,064167	0,1	6,866037
2,065833	0,1	6,879355
2,067500	0,1	6,901885
2,069167	0,1	7,006923
2,070833	0,1	7,014397
2,072500	0,1	7,096170
2,074167	0,1	7,032952
2,075833	0,1	7,096639
2,077500	0,1	7,154311
2,079167	0,1	7,145290
2,080833	0,1	7,217022
2,082500	0,1	7,219461
2,084167	0,1	7,290265
2,085833	0,1	7,295138
2,087500	0,1	7,344336
2,089167	0,1	7,366909
2,090833	0,1	7,395712
2,092500	0,1	7,393945
2,094167	0,1	7,435428
2,095833	0,1	7,491829
2,097500	0,1	7,481789
2,099167	0,1	7,533322
2,100833	0,1	7,599526
2,102500	0,1	7,568045
2,104167	0,1	7,609891
2,105833	0,1	7,651313
2,107500	0,1	7,586530
2,109167	0,1	7,646659
2,110833	0,1	7,699467
2,112500	0,1	7,672694
2,114167	0,1	7,692447
2,115833	0,1	7,713450
2,117500	0,1	7,722604
2,119167	0,1	7,754889
2,120833	0,1	7,791198
2,122500	0,1	7,812802
2,124167	0,1	7,759281
2,125833	0,1	7,800299
2,127500	0,1	7,799388
2,129167	0,1	7,801272
2,130833	0,1	7,834268
2,132500	0,1	7,790073
2,134167	0,1	7,830530
2,135833	0,1	7,802138
2,137500	0,1	7,834355
2,139167	0,1	7,821890
2,140833	0,1	7,801076
2,142500	0,1	7,823542
2,144167	0,1	7,821878
2,145833	0,1	7,810495
2,147500	0,1	7,792882
2,149167	0,1	7,792408
2,150833	0,1	7,810949
2,152500	0,1	7,788645
2,154167	0,1	7,768609
2,155833	0,1	7,769526
2,157500	0,1	7,743320
2,159167	0,1	7,710006
2,160833	0,1	7,732946
2,162500	0,1	7,727448
2,164167	0,1	7,688483
2,165833	0,1	7,680891
2,167500	0,1	7,703086
2,169167	0,1	7,647722
2,170833	0,1	7,678557
2,172500	0,1	7,644722
2,174167	0,1	7,640501
2,175833	0,1	7,582486
2,177500	0,1	7,580090
2,179167	0,1	7,513027
2,180833	0,1	7,545267
2,182500	0,1	7,477044
2,184167	0,1	7,513932
2,185833	0,1	7,470777
2,187500	0,1	7,434043
2,189167	0,1	7,458260
2,190833	0,1	7,439165
2,192500	0,1	7,378766
2,194167	0,1	7,400367
2,195833	0,1	7,354149
2,197500	0,1	7,288353
2,199167	0,1	7,269323
2,200833	0,1	7,307150
2,202500	0,1	7,259638
2,204167	0,1	7,280679
2,205833	0,1	7,174198
2,207500	0,1	7,207524
2,209167	0,1	7,169707
2,210833	0,1	7,152933
2,212500	0,1	7,143148
2,214167	0,1	7,119205
2,215833	0,1	7,100945
2,217500	0,1	7,024476
2,219167	0,1	7,026040
2,220833	0,1	7,063482
2,222500	0,1	6,993181
2,224167	0,1	7,010483
2,225833	0,1	6,965233
2,227500	0,1	6,969692
2,229167	0,1	6,953769
2,230833	0,1	6,958702
2,232500	0,1	6,934399
2,234167	0,1	6,917447
2,235833	0,1	6,916139
2,237500	0,1	6,892585
2,239167	0,1	6,875730
2,240833	0,1	6,873216
2,242500	0,1	6,865119
2,244167	0,1	6,836442
2,245833	0,1	6,828891
2,247500	0,1	6,843784
2,249167	0,1	6,816143
2,250833	0,1	6,864645
2,252500	0,1	6,784418
2,254167	0,1	6,779743
2,255833	0,1	6,766418
2,257500	0,1	6,792020
2,259167	0,1	6,769881
2,260833	0,1	6,738405
2,262500	0,1	6,707792
2,264167	0,1	6,751335
2,265833	0,1	6,712545
2,267500	0,1	6,704620
2,269167	0,1	6,726115
2,270833	0,1	6,660430
2,272500	0,1	6,643277
2,274167	0,1	6,682079
2,275833	0,1	6,647380
2,277500	0,1	6,621229
2,279167	0,1	6,604387
2,280833	0,1	6,561684
2,282500	0,1	6,571335
2,284167	0,1	6,513844
2,285833	0,1	6,589406
2,287500	0,1	6,499607
2,289167	0,1	6,506410
2,290833	0,1	6,505176
2,292500	0,1	6,517111
2,294167	0,1	6,469195
2,295833	0,1	6,412357
2,297500	0,1	6,415398
2,299167	0,1	6,391715
2,300833	0,1	6,443045
2,302500	0,1	6,358324
2,304167	0,1	6,353276
2,305833	0,1	6,311890
2,307500	0,1	6,329206
2,309167	0,1	6,291577
2,310833	0,1	6,294516
2,312500	0,1	6,300477
2,314167	0,1	6,269982
2,315833	0,1	6,261669
2,317500	0,1	6,248574
2,319167	0,1	6,200230
2,320833	0,1	6,160988
2,322500	0,1	6,211104
2,324167	0,1	6,133771
2,325833	0,1	6,166664
2,327500	0,1	6,140456
2,329167	0,1	6,080011
2,330833	0,1	6,081876
2,332500	0,1	6,098168
2,334167	0,1	6,068411
2,335833	0,1	6,039859
2,337500	0,1	6,020195
2,339167	0,1	6,068498
2,340833	0,1	5,986840
2,342500	0,1	5,973429
2,344167	0,1	5,978084
2,345833	0,1	5,961985
2,347500	0,1	5,937641
2,349167	0,1	5,947037
2,350833	0,1	5,908182
2,352500	0,1	5,922161
2,354167	0,1	5,940933
2,355833	0,1	5,845713
2,357500	0,1	5,898176
2,359167	0,1	5,861288
2,360833	0,1	5,904805
2,362500	0,1	5,822108
2,364167	0,1	5,811230
2,365833	0,1	5,805747
2,367500	0,1	5,817551
2,369167	0,1	5,809348
2,370833	0,1	5,821910
2,372500	0,1	5,781746
2,374167	0,1	5,804244
2,375833	0,1	5,794607
2,377500	0,1	5,812068
2,379167	0,1	5,813973
2,380833	0,1	5,821086
2,382500	0,1	5,817188
2,384167	0,1	5,822175
2,385833	0,1	5,873201
2,387500	0,1	5,857769
2,389167	0,1	5,903874
2,390833	0,1	5,883799
2,392500	0,1	5,938166
2,394167	0,1	5,966297
2,395833	0,1	5,976885
2,397500	0,1	6,014310
2,399167	0,1	6,075917
2,400833	0,1	6,096274
2,402500	0,1	6,172879
2,404167	0,1	6,228867
2,405833	0,1	6,328356
2,407500	0,1	6,343326
2,409167	0,1	6,446630
2,410833	0,1	6,574307
2,412500	0,1	6,617213
2,414167	0,1	6,716878
2,415833	0,1	6,819746
2,417500	0,1	6,926641
2,419167	0,1	7,051164
2,420833	0,1	7,205261
2,422500	0,1	7,317765
2,424167	0,1	7,469329
2,425833	0,1	7,608387
2,427500	0,1	7,735553
2,429167	0,1	7,929734
2,430833	0,1	8,035522
2,432500	0,1	8,269197
2,434167	0,1	8,393737
2,435833	0,1	8,577686
2,437500	0,1	8,778677
2,439167	0,1	8,945762
2,440833	0,1	9,120315
2,442500	0,1	9,317917
2,444167	0,1	9,447397
2,445833	0,1	9,712374
2,447500	0,1	9,854945
2,449167	0,1	10,036346
2,450833	0,1	10,232963
2,452500	0,1	10,397516
2,454167	0,1	10,578136
2,455833	0,1	10,724113
2,457500	0,1	10,893910
2,459167	0,1	11,067087
2,460833	0,1	11,193530
2,462500	0,1	11,350990
2,464167	0,1	11,469624
2,465833	0,1	11,616701
2,467500	0,1	11,782948
2,469167	0,1	11,865063
2,470833	0,1	11,957221
2,472500	0,1	12,075593
2,474167	0,1	12,153022
2,475833	0,1	12,244120
2,477500	0,1	12,349402
2,479167	0,1	12,429482
2,480833	0,1	12,444609
2,482500	0,1	12,529028
2,484167	0,1	12,599801
2,485833	0,1	12,647647
2,487500	0,1	12,670722
2,489167	0,1	12,679041
2,490833	0,1	12,695130
2,492500	0,1	12,712119
2,494167	0,1	12,722573
2,495833	0,1	12,778179
2,497500	0,1	12,731803
2,499167	0,1	12,768849
2,500833	0,1	12,744960
2,502500	0,1	12,698280
2,504167	0,1	12,682791
2,505833	0,1	12,663398
2,507500	0,1	12,634961
2,509167	0,1	12,596065
2,510833	0,1	12,557844
2,512500	0,1	12,501247
2,514167	0,1	12,485778
2,515833	0,1	12,387044
2,517500	0,1	12,350761
2,519167	0,1	12,321561
2,520833	0,1	12,188354
2,522500	0,1	12,184675
2,524167	0,1	12,085189
2,525833	0,1	12,035158
2,527500	0,1	11,980883
2,529167	0,1	11,902656
2,530833	0,1	11,829468
2,532500	0,1	11,768226
2,534167	0,1	11,664323
2,535833	0,1	11,601277
2,537500	0,1	11,483354
2,539167	0,1	11,419831
2,540833	0,1	11,312103
2,542500	0,1	11,236101
2,544167	0,1	11,187312
2,545833	0,1	11,060508
2,547500	0,1	10,976653
2,549167	0,1	10,839168
2,550833	0,1	10,761926
2,552500	0,1	10,682245
2,554167	0,1	10,602963
2,555833	0,1	10,474678
2,557500	0,1	10,375446
2,559167	0,1	10,303273
2,560833	0,1	10,207094
2,562500	0,1	10,106353
2,564167	0,1	9,994459
2,565833	0,1	9,909498
2,567500	0,1	9,802906
2,569167	0,1	9,689817
2,570833	0,1	9,632654
2,572500	0,1	9,492083
2,574167	0,1	9,386339
2,575833	0,1	9,302908
2,577500	0,1	9,209158
2,579167	0,1	9,097698
2,580833	0,1	9,006360
2,582500	0,1	8,903858
2,584167	0,1	8,802469
2,585833	0,1	8,684314
2,587500	0,1	8,597737
2,589167	0,1	8,541334
2,590833	0,1	8,379454
2,592500	0,1	8,324907
2,594167	0,1	8,239329
2,595833	0,1	8,120840
2,597500	0,1	8,020625
2,599167	0,1	7,974505
2,600833	0,1	7,883476
2,602500	0,1	7,811067
2,604167	0,1	7,665365
2,605833	0,1	7,577300
2,607500	0,1	7,519450
2,609167	0,1	7,416356
2,610833	0,1	7,387800
2,612500	0,1	7,216522
2,614167	0,1	7,135153
2,615833	0,1	7,077383
2,617500	0,1	7,023074
2,619167	0,1	6,930785
2,620833	0,1	6,821660
2,622500	0,1	6,791272
2,624167	0,1	6,732748
2,625833	0,1	6,590919
2,627500	0,1	6,565595
2,629167	0,1	6,484553
2,630833	0,1	6,380555
2,632500	0,1	6,315084
2,634167	0,1	6,270240
2,635833	0,1	6,189070
2,637500	0,1	6,141334
2,639167	0,1	6,083606
2,640833	0,1	5,911413
2,642500	0,1	5,863171
2,644167	0,1	5,823786
2,645833	0,1	5,768241
2,647500	0,1	5,706268
2,649167	0,1	5,651577
2,650833	0,1	5,564692
2,652500	0,1	5,496825
2,654167	0,1	5,446647
2,655833	0,1	5,379971
2,657500	0,1	5,288030
2,659167	0,1	5,252833
2,660833	0,1	5,171114
2,662500	0,1	5,093803
2,664167	0,1	5,078689
2,665833	0,1	5,017122
2,667500	0,1	4,942995
2,669167	0,1	4,884706
2,670833	0,1	4,842612
2,672500	0,1	4,739247
2,674167	0,1	4,770255
2,675833	0,1	4,659546
2,677500	0,1	4,587844
2,679167	0,1	4,555095
2,680833	0,1	4,506470
2,682500	0,1	4,420998
2,684167	0,1	4,422840
2,685833	0,1	4,354604
2,687500	0,1	4,298467
2,689167	0,1	4,272301
2,690833	0,1	4,222785
2,692500	0,1	4,173232
2,694167	0,1	4,107071
2,695833	0,1	4,073597
2,697500	0,1	4,041014
2,699167	0,1	3,994188
2,700833	0,1	3,917953
2,702500	0,1	3,895977
2,704167	0,1	3,856541
2,705833	0,1	3,840021
2,707500	0,1	3,759702
2,709167	0,1	3,750468
2,710833	0,1	3,727276
2,712500	0,1	3,631562
2,714167	0,1	3,644864
2,715833	0,1	3,632914
2,717500	0,1	3,570562
2,719167	0,1	3,564832
2,720833	0,1	3,488317
2,722500	0,1	3,518227
2,724167	0,1	3,451815
2,725833	0,1	3,411627
2,727500	0,1	3,384915
2,729167	0,1	3,392436
2,730833	0,1	3,364378
2,732500	0,1	3,328307
2,734167	0,1	3,267128
2,735833	0,1	3,253314
2,737500	0,1	3,262147
2,739167	0,1	3,256105
2,740833	0,1	3,211819
2,742500	0,1	3,164321
2,744167	0,1	3,164023
2,745833	0,1	3,142660
2,747500	0,1	3,103306
2,749167	0,1	3,093532
2,750833	0,1	3,020775
2,752500	0,1	3,014720
2,754167	0,1	3,043696
2,755833	0,1	3,019893
2,757500	0,1	3,019016
2,759167	0,1	2,971211
2,760833	0,1	2,956073
2,762500	0,1	2,928028
2,764167	0,1	2,932379
2,765833	0,1	2,910215
2,767500	0,1	2,905987
2,769167	0,1	2,893904
2,770833	0,1	2,855755
2,772500	0,1	2,868362
2,774167	0,1	2,818027
2,775833	0,1	2,839469
2,777500	0,1	2,806316
2,779167	0,1	2,755115
2,780833	0,1	2,799775
2,782500	0,1	2,774387
2,784167	0,1	2,802987
2,785833	0,1	2,746476
2,787500	0,1	2,694058
2,789167	0,1	2,728451
2,790833	0,1	2,730616
2,792500	0,1	2,726327
2,794167	0,1	2,705654
2,795833	0,1	2,682210
2,797500	0,1	2,662344
2,799167	0,1	2,680624
2,800833	0,1	2,662338
2,802500	0,1	2,648634
2,804167	0,1	2,619524
2,805833	0,1	2,655362
2,807500	0,1	2,601026
2,809167	0,1	2,594061
2,810833	0,1	2,601942
2,812500	0,1	2,565962
2,814167	0,1	2,551326
2,815833	0,1	2,565648
2,817500	0,1	2,523728
2,819167	0,1	2,536191
2,820833	0,1	2,501791
2,822500	0,1	2,526284
2,824167	0,1	2,509594
2,825833	0,1	2,498187
2,827500	0,1	2,500338
2,829167	0,1	2,491083
2,830833	0,1	2,451026
2,832500	0,1	2,454665
2,834167	0,1	2,422342
2,835833	0,1	2,453945
2,837500	0,1	2,406506
2,839167	0,1	2,421474
2,840833	0,1	2,393030
2,842500	0,1	2,376679
2,844167	0,1	2,383698
2,845833	0,1	2,370804
2,847500	0,1	2,330742
2,849167	0,1	2,322852
2,850833	0,1	2,357816
2,852500	0,1	2,344785
2,854167	0,1	2,331668
2,855833	0,1	2,311817
2,857500	0,1	2,300994
2,859167	0,1	2,275629
2,860833	0,1	2,304997
2,862500	0,1	2,219320
2,864167	0,1	2,273533
2,865833	0,1	2,229487
2,867500	0,1	2,233990
2,869167	0,1	2,225322
2,870833	0,1	2,219945
2,872500	0,1	2,195950
2,874167	0,1	2,180330
2,875833	0,1	2,157832
2,877500	0,1	2,130611
2,879167	0,1	2,166421
2,880833	0,1	2,159269
2,882500	0,1	2,164780
2,884167	0,1	2,141144
2,885833	0,1	2,122663
2,887500	0,1	2,088062
2,889167	0,1	2,087990
2,890833	0,1	2,096362
2,892500	0,1	2,100597
2,894167	0,1	2,087632
2,895833	0,1	2,010151
2,897500	0,1	2,078949
2,899167	0,1	2,048169
2,900833	0,1	1,989650
2,902500	0,1	1,987426
2,904167	0,1	2,007479
2,905833	0,1	1,987649
2,907500	0,1	1,962585
2,909167	0,1	1,964301
2,910833	0,1	1,956793
2,912500	0,1	1,915824
2,914167	0,1	1,953131
2,915833	0,1	1,925703
2,917500	0,1	1,880243
2,919167	0,1	1,918537
2,920833	0,1	1,872587
2,922500	0,1	1,852374
2,924167	0,1	1,911729
2,925833	0,1	1,857414
2,927500	0,1	1,846736
2,929167	0,1	1,823816
2,930833	0,1	1,810005
2,932500	0,1	1,812212
2,934167	0,1	1,805571
2,935833	0,1	1,774002
2,937500	0,1	1,751016
2,939167	0,1	1,800038
2,940833	0,1	1,790329
2,942500	0,1	1,774781
2,944167	0,1	1,807296
2,945833	0,1	1,727840
2,947500	0,1	1,765402
2,949167	0,1	1,746388
2,950833	0,1	1,715382
2,952500	0,1	1,731980
2,954167	0,1	1,765481
2,955833	0,1	1,740869
2,957500	0,1	1,674593
2,959167	0,1	1,711005
2,960833	0,1	1,699423
2,962500	0,1	1,681965
2,964167	0,1	1,701140
2,965833	0,1	1,706494
2,967500	0,1	1,655419
2,969167	0,1	1,663202
2,970833	0,1	1,659847
2,972500	0,1	1,669067
2,974167	0,1	1,653052
2,975833	0,1	1,676665
2,977500	0,1	1,626300
2,979167	0,1	1,650042
2,980833	0,1	1,635445
2,982500	0,1	1,645468
2,984167	0,1	1,638895
2,985833	0,1	1,616208
2,987500	0,1	1,626423
2,989167	0,1	1,599591
2,990833	0,1	1,612281
2,992500	0,1	1,605943
2,994167	0,1	1,662120
2,995833	0,1	1,613406
2,997500	0,1	1,627135
2,999167	0,1	1,621644
3,000833	0,1	1,612904
3,002500	0,1	1,599177
3,004167	0,1	1,611623
3,005833	0,1	1,612258
3,007500	0,1	1,606627
3,009167	0,1	1,601956
3,010833	0,1	1,572860
3,012500	0,1	1,581222
3,014167	0,1	1,612895
3,015833	0,1	1,595424
3,017500	0,1	1,593241
3,019167	0,1	1,600471
3,020833	0,1	1,605185
3,022500	0,1	1,602394
3,024167	0,1	1,566000
3,025833	0,1	1,609672
3,027500	0,1	1,561838
3,029167	0,1	1,581645
3,030833	0,1	1,564829
3,032500	0,1	1,550390
3,034167	0,1	1,591147
3,035833	0,1	1,576708
3,037500	0,1	1,606799
3,039167	0,1	1,599023
3,040833	0,1	1,553056
3,042500	0,1	1,566411
3,044167	0,1	1,610110
3,045833	0,1	1,630748
3,047500	0,1	1,563622
3,049167	0,1	1,555321
3,050833	0,1	1,573767
3,052500	0,1	1,579279
3,054167	0,1	1,558460
3,055833	0,1	1,599750
3,057500	0,1	1,516253
3,059167	0,1	1,567115
3,060833	0,1	1,520055
3,062500	0,1	1,573335
3,064167	0,1	1,530765
3,065833	0,1	1,524962
3,067500	0,1	1,529837
3,069167	0,1	1,570995
3,070833	0,1	1,551295
3,072500	0,1	1,576985
3,074167	0,1	1,585237
3,075833	0,1	1,551107
3,077500	0,1	1,543374
3,079167	0,1	1,530280
3,080833	0,1	1,548177
3,082500	0,1	1,555877
3,084167	0,1	1,542553
3,085833	0,1	1,531756
3,087500	0,1	1,525551
3,089167	0,1	1,530549
3,090833	0,1	1,533987
3,092500	0,1	1,554011
3,094167	0,1	1,542951
3,095833	0,1	1,552576
3,097500	0,1	1,533637
3,099167	0,1	1,542274
3,100833	0,1	1,544413
3,102500	0,1	1,582860
3,104167	0,1	1,574336
3,105833	0,1	1,582921
3,107500	0,1	1,611920
3,109167	0,1	1,616776
3,110833	0,1	1,615696
3,112500	0,1	1,605409
3,114167	0,1	1,642104
3,115833	0,1	1,605184
3,117500	0,1	1,647162
3,119167	0,1	1,634468
3,120833	0,1	1,649262
3,122500	0,1	1,633087
3,124167	0,1	1,672717
3,125833	0,1	1,658479
3,127500	0,1	1,697629
3,129167	0,1	1,706663
3,130833	0,1	1,744084
3,132500	0,1	1,702295
3,134167	0,1	1,714668
3,135833	0,1	1,747950
3,137500	0,1	1,776148
3,139167	0,1	1,753455
3,140833	0,1	1,793945
3,142500	0,1	1,791397
3,144167	0,1	1,821025
3,145833	0,1	1,823330
3,147500	0,1	1,832132
3,149167	0,1	1,894679
3,150833	0,1	1,865061
3,152500	0,1	1,862696
3,154167	0,1	1,917684
3,155833	0,1	1,898286
3,157500	0,1	1,942589
3,159167	0,1	1,898705
3,160833	0,1	1,924107
3,162500	0,1	1,945235
3,164167	0,1	1,975250
3,165833	0,1	1,977839
3,167500	0,1	1,999592
3,169167	0,1	1,985714
3,170833	0,1	2,011912
3,172500	0,1	2,000027
3,174167	0,1	1,993076
3,175833	0,1	2,042198
3,177500	0,1	2,040498
3,179167	0,1	2,036625
3,180833	0,1	2,064845
3,182500	0,1	2,077238
3,184167	0,1	2,019452
3,185833	0,1	2,047717
3,187500	0,1	2,099501
3,189167	0,1	2,078318
3,190833	0,1	2,080679
3,192500	0,1	2,083972
3,194167	0,1	2,092061
3,195833	0,1	2,033774
3,197500	0,1	2,086610
3,199167	0,1	2,090993
3,200833	0,1	2,090999
3,202500	0,1	2,080970
3,204167	0,1	2,068787
3,205833	0,1	2,049238
3,207500	0,1	2,101152
3,209167	0,1	2,054402
3,210833	0,1	2,070644
3,212500	0,1	2,061339
3,214167	0,1	2,048310
3,215833	0,1	2,047729
3,217500	0,1	2,044013
3,219167	0,1	2,016503
3,220833	0,1	2,017071
3,222500	0,1	2,032476
3,224167	0,1	2,010349
3,225833	0,1	2,024460
3,227500	0,1	2,002262
3,229167	0,1	1,954620
3,230833	0,1	1,925711
3,232500	0,1	2,000591
3,234167	0,1	1,969675
3,235833	0,1	1,959434
3,237500	0,1	1,984853
3,239167	0,1	1,914472
3,240833	0,1	1,898349
3,242500	0,1	1,929059
3,244167	0,1	1,887121
3,245833	0,1	1,911653
3,247500	0,1	1,877298
3,249167	0,1	1,868931
3,250833	0,1	1,886182
3,252500	0,1	1,853829
3,254167	0,1	1,841087
3,255833	0,1	1,843721
3,257500	0,1	1,810226
3,259167	0,1	1,827105
3,260833	0,1	1,769576
3,262500	0,1	1,750323
3,264167	0,1	1,772353
3,265833	0,1	1,730269
3,267500	0,1	1,745357
3,269167	0,1	1,737714
3,270833	0,1	1,684379
3,272500	0,1	1,629084
3,274167	0,1	1,693827
3,275833	0,1	1,655278
3,277500	0,1	1,666708
3,279167	0,1	1,625654
3,280833	0,1	1,662000
3,282500	0,1	1,622090
3,284167	0,1	1,632462
3,285833	0,1	1,562213
3,287500	0,1	1,592300
3,289167	0,1	1,539070
3,290833	0,1	1,553465
3,292500	0,1	1,524269
3,294167	0,1	1,526852
3,295833	0,1	1,476043
3,297500	0,1	1,537344
3,299167	0,1	1,488425
3,300833	0,1	1,485484
3,302500	0,1	1,505875
3,304167	0,1	1,416625
3,305833	0,1	1,491780
3,307500	0,1	1,420551
3,309167	0,1	1,419973
3,310833	0,1	1,410270
3,312500	0,1	1,419209
3,314167	0,1	1,399380
3,315833	0,1	1,396109
3,317500	0,1	1,333083
3,319167	0,1	1,368981
3,320833	0,1	1,317231
3,322500	0,1	1,333542
3,324167	0,1	1,309060
3,325833	0,1	1,324580
3,327500	0,1	1,317527
3,329167	0,1	1,312004
3,330833	0,1	1,295495
3,332500	0,1	1,290192
3,334167	0,1	1,309644
3,335833	0,1	1,289044
3,337500	0,1	1,279676
3,339167	0,1	1,271109
3,340833	0,1	1,259902
3,342500	0,1	1,245132
3,344167	0,1	1,235058
3,345833	0,1	1,247364
3,347500	0,1	1,222945
3,349167	0,1	1,212250
3,350833	0,1	1,256894
3,352500	0,1	1,215783
3,354167	0,1	1,233851
3,355833	0,1	1,196729
3,357500	0,1	1,165091
3,359167	0,1	1,202502
3,360833	0,1	1,162697
3,362500	0,1	1,180828
3,364167	0,1	1,127167
3,365833	0,1	1,160882
3,367500	0,1	1,136165
3,369167	0,1	1,170178
3,370833	0,1	1,193030
3,372500	0,1	1,183032
3,374167	0,1	1,123551
3,375833	0,1	1,139681
3,377500	0,1	1,157293
3,379167	0,1	1,116251
3,380833	0,1	1,126464
3,382500	0,1	1,134138
3,384167	0,1	1,110901
3,385833	0,1	1,109344
3,387500	0,1	1,098034
3,389167	0,1	1,100471
3,390833	0,1	1,118411
3,392500	0,1	1,107416
3,394167	0,1	1,113334
3,395833	0,1	1,087967
3,397500	0,1	1,095079
3,399167	0,1	1,088186
3,400833	0,1	1,067139
3,402500	0,1	1,099422
3,404167	0,1	1,108919
3,405833	0,1	1,053666
3,407500	0,1	1,112766
3,409167	0,1	1,098036
3,410833	0,1	1,071755
3,412500	0,1	1,078424
3,414167	0,1	1,045322
3,415833	0,1	1,083429
3,417500	0,1	1,078182
3,419167	0,1	1,062682
3,420833	0,1	1,072036
3,422500	0,1	1,040731
3,424167	0,1	1,022990
3,425833	0,1	1,037751
3,427500	0,1	1,064513
3,429167	0,1	1,069241
3,430833	0,1	1,024169
3,432500	0,1	1,022559
3,434167	0,1	1,033603
3,435833	0,1	1,005805
3,437500	0,1	1,071048
3,439167	0,1	1,031333
3,440833	0,1	1,048040
3,442500	0,1	0,993699
3,444167	0,1	1,034018
3,445833	0,1	0,994431
3,447500	0,1	1,040423
3,449167	0,1	1,008493
3,450833	0,1	1,013910
3,452500	0,1	1,002718
3,454167	0,1	1,033113
3,455833	0,1	0,981662
3,457500	0,1	0,985573
3,459167	0,1	0,950480
3,460833	0,1	0,996116
3,462500	0,1	0,988973
3,464167	0,1	0,986613
3,465833	0,1	0,972875
3,467500	0,1	0,982383
3,469167	0,1	0,992358
3,470833	0,1	0,985354
3,472500	0,1	0,968836
3,474167	0,1	0,963713
3,475833	0,1	0,963556
3,477500	0,1	0,966860
3,479167	0,1	0,938196
3,480833	0,1	0,988160
3,482500	0,1	0,932378
3,484167	0,1	0,995452
3,485833	0,1	0,988190
3,487500	0,1	0,949354
3,489167	0,1	0,964812
3,490833	0,1	1,002268
3,492500	0,1	0,927408
3,494167	0,1	0,972679
3,495833	0,1	0,946122
3,497500	0,1	0,972707
3,499167	0,1	0,956472
3,500833	0,1	0,944598
3,502500	0,1	0,925204
3,504167	0,1	0,949141
3,505833	0,1	0,949054
3,507500	0,1	0,912705
3,509167	0,1	0,925486
3,510833	0,1	0,928282
3,512500	0,1	0,940496
3,514167	0,1	0,905698
3,515833	0,1	0,970060
3,517500	0,1	0,949439
3,519167	0,1	0,943203
3,520833	0,1	0,946285
3,522500	0,1	0,949329
3,524167	0,1	0,943780
3,525833	0,1	0,906878
3,527500	0,1	0,949597
3,529167	0,1	0,934677
3,530833	0,1	0,915784
3,532500	0,1	0,893951
3,534167	0,1	0,951508
3,535833	0,1	0,956703
3,537500	0,1	0,919172
3,539167	0,1	0,969092
3,540833	0,1	0,929028
3,542500	0,1	0,884837
3,544167	0,1	0,963445
3,545833	0,1	0,923280
3,547500	0,1	0,929764
3,549167	0,1	0,918772
3,550833	0,1	0,872045
3,552500	0,1	0,882923
3,554167	0,1	0,891634
3,555833	0,1	0,893474
3,557500	0,1	0,918501
3,559167	0,1	0,922719
3,560833	0,1	0,909222
3,562500	0,1	0,907934
3,564167	0,1	0,927504
3,565833	0,1	0,922590
3,567500	0,1	0,953509
3,569167	0,1	0,899810
3,570833	0,1	0,881551
3,572500	0,1	0,922552
3,574167	0,1	0,890452
3,575833	0,1	0,901081
3,577500	0,1	0,888334
3,579167	0,1	0,849935
3,580833	0,1	0,888506
3,582500	0,1	0,913751
3,584167	0,1	0,847491
3,585833	0,1	0,876462
3,587500	0,1	0,900475
3,589167	0,1	0,837113
3,590833	0,1	0,890889
3,592500	0,1	0,924469
3,594167	0,1	0,853278
3,595833	0,1	0,887102
3,597500	0,1	0,849125
3,599167	0,1	0,869170
3,600833	0,1	0,886489
3,602500	0,1	0,842659
3,604167	0,1	0,844456
3,605833	0,1	0,860579
3,607500	0,1	0,832827
3,609167	0,1	0,856498
3,610833	0,1	0,843305
3,612500	0,1	0,862953
3,614167	0,1	0,850917
3,615833	0,1	0,863924
3,617500	0,1	0,847834
3,619167	0,1	0,834455
3,620833	0,1	0,811643
3,622500	0,1	0,806887
3,624167	0,1	0,804121
3,625833	0,1	0,824684
3,627500	0,1	0,822406
3,629167	0,1	0,844432
3,630833	0,1	0,796483
3,632500	0,1	0,811838
3,634167	0,1	0,818390
3,635833	0,1	0,778642
3,637500	0,1	0,786771
3,639167	0,1	0,829783
3,640833	0,1	0,811930
3,642500	0,1	0,810483
3,644167	0,1	0,826892
3,645833	0,1	0,793163
3,647500	0,1	0,814873
3,649167	0,1	0,812121
3,650833	0,1	0,784099
3,652500	0,1	0,780852
3,654167	0,1	0,804236
3,655833	0,1	0,811506
3,657500	0,1	0,790012
3,659167	0,1	0,791394
3,660833	0,1	0,786859
3,662500	0,1	0,780302
3,664167	0,1	0,767934
3,665833	0,1	0,777410
3,667500	0,1	0,794727
3,669167	0,1	0,784997
3,670833	0,1	0,762823
3,672500	0,1	0,768255
3,674167	0,1	0,762596
3,675833	0,1	0,763627
3,677500	0,1	0,769886
3,679167	0,1	0,758899
3,680833	0,1	0,773907
3,682500	0,1	0,752287
3,684167	0,1	0,727741
3,685833	0,1	0,806569
3,687500	0,1	0,737488
3,689167	0,1	0,797835
3,690833	0,1	0,760321
3,692500	0,1	0,709430
3,694167	0,1	0,737817
3,695833	0,1	0,767593
3,697500	0,1	0,736157
3,699167	0,1	0,771967
3,700833	0,1	0,717881
3,702500	0,1	0,695705
3,704167	0,1	0,775040
3,705833	0,1	0,744543
3,707500	0,1	0,719418
3,709167	0,1	0,698882
3,710833	0,1	0,709127
3,712500	0,1	0,737812
3,714167	0,1	0,749615
3,715833	0,1	0,758388
3,717500	0,1	0,753599
3,719167	0,1	0,770461
3,720833	0,1	0,774358
3,722500	0,1	0,727454
3,724167	0,1	0,741865
3,725833	0,1	0,752025
3,727500	0,1	0,746276
3,729167	0,1	0,759826
3,730833	0,1	0,755981
3,732500	0,1	0,763749
3,734167	0,1	0,754848
3,735833	0,1	0,776794
3,737500	0,1	0,751774
3,739167	0,1	0,772678
3,740833	0,1	0,738630
3,742500	0,1	0,722948
3,744167	0,1	0,698947
3,745833	0,1	0,780989
3,747500	0,1	0,731150
3,749167	0,1	0,770008
3,750833	0,1	0,791669
3,752500	0,1	0,733241
3,754167	0,1	0,776854
3,755833	0,1	0,798609
3,757500	0,1	0,774977
3,759167	0,1	0,770698
3,760833	0,1	0,787887
3,762500	0,1	0,795342
3,764167	0,1	0,787755
3,765833	0,1	0,782520
3,767500	0,1	0,794923
3,769167	0,1	0,786217
3,770833	0,1	0,798194
3,772500	0,1	0,799070
3,774167	0,1	0,790969
3,775833	0,1	0,819661
3,777500	0,1	0,778420
3,779167	0,1	0,759226
3,780833	0,1	0,792217
3,782500	0,1	0,799033
3,784167	0,1	0,777352
3,785833	0,1	0,788978
3,787500	0,1	0,785256
3,789167	0,1	0,798424
3,790833	0,1	0,819151
3,792500	0,1	0,815560
3,794167	0,1	0,829055
3,795833	0,1	0,784745
3,797500	0,1	0,848745
3,799167	0,1	0,803358
3,800833	0,1	0,813656
3,802500	0,1	0,800397
3,804167	0,1	0,789106
3,805833	0,1	0,800261
3,807500	0,1	0,833289
3,809167	0,1	0,825073
3,810833	0,1	0,803965
3,812500	0,1	0,822392
3,814167	0,1	0,811193
3,815833	0,1	0,828503
3,817500	0,1	0,806081
3,819167	0,1	0,837789
3,820833	0,1	0,838531
3,822500	0,1	0,820286
3,824167	0,1	0,807776
3,825833	0,1	0,851285
3,827500	0,1	0,790794
3,829167	0,1	0,813466
3,830833	0,1	0,806302
3,832500	0,1	0,804763
3,834167	0,1	0,789788
3,835833	0,1	0,829653
3,837500	0,1	0,840401
3,839167	0,1	0,789154
3,840833	0,1	0,827538
3,842500	0,1	0,785005
3,844167	0,1	0,799357
3,845833	0,1	0,794507
3,847500	0,1	0,851151
3,849167	0,1	0,786938
3,850833	0,1	0,799319
3,852500	0,1	0,827597
3,854167	0,1	0,772574
3,855833	0,1	0,819526
3,857500	0,1	0,805726
3,859167	0,1	0,830850
3,860833	0,1	0,798687
3,862500	0,1	0,835347
3,864167	0,1	0,798371
3,865833	0,1	0,795244
3,867500	0,1	0,816645
3,869167	0,1	0,783877
3,870833	0,1	0,806360
3,872500	0,1	0,795794
3,874167	0,1	0,772529
3,875833	0,1	0,758872
3,877500	0,1	0,760123
3,879167	0,1	0,744097
3,880833	0,1	0,778169
3,882500	0,1	0,806554
3,884167	0,1	0,776711
3,885833	0,1	0,808286
3,887500	0,1	0,786438
3,889167	0,1	0,790231
3,890833	0,1	0,773300
3,892500	0,1	0,782712
3,894167	0,1	0,725145
3,895833	0,1	0,745432
3,897500	0,1	0,755038
3,899167	0,1	0,719195
3,900833	0,1	0,744016
3,902500	0,1	0,753401
3,904167	0,1	0,729376
3,905833	0,1	0,734410
3,907500	0,1	0,741737
3,909167	0,1	0,752084
3,910833	0,1	0,685337
3,912500	0,1	0,738803
3,914167	0,1	0,707658
3,915833	0,1	0,742698
3,917500	0,1	0,720024
3,919167	0,1	0,708744
3,920833	0,1	0,699234
3,922500	0,1	0,751367
3,924167	0,1	0,679103
3,925833	0,1	0,700318
3,927500	0,1	0,709124
3,929167	0,1	0,687990
3,930833	0,1	0,715384
3,932500	0,1	0,705754
3,934167	0,1	0,668846
3,935833	0,1	0,684930
3,937500	0,1	0,705298
3,939167	0,1	0,659370
3,940833	0,1	0,705324
3,942500	0,1	0,692615
3,944167	0,1	0,688179
3,945833	0,1	0,645651
3,947500	0,1	0,702460
3,949167	0,1	0,681277
3,950833	0,1	0,659365
3,952500	0,1	0,634404
3,954167	0,1	0,689609
3,955833	0,1	0,687052
3,957500	0,1	0,672311
3,959167	0,1	0,650176
3,960833	0,1	0,685022
3,962500	0,1	0,683581
3,964167	0,1	0,705394
3,965833	0,1	0,675366
3,967500	0,1	0,678378
3,969167	0,1	0,690940
3,970833	0,1	0,680535
3,972500	0,1	0,677927
3,974167	0,1	0,639706
3,975833	0,1	0,658809
3,977500	0,1	0,685889
3,979167	0,1	0,711529
3,980833	0,1	0,653430
3,982500	0,1	0,645674
3,984167	0,1	0,663082
3,985833	0,1	0,645453
3,987500	0,1	0,670565
3,989167	0,1	0,642564
3,990833	0,1	0,603439
3,992500	0,1	0,649485
3,994167	0,1	0,636327
3,995833	0,1	0,655530
3,997500	0,1	0,626661
3,999167	0,1	0,637736
4,000833	0,1	0,659580
4,002500	0,1	0,650334
4,004167	0,1	0,681068
4,005833	0,1	0,632449
4,007500	0,1	0,660092
4,009167	0,1	0,635013
4,010833	0,1	0,681706
4,012500	0,1	0,691741
4,014167	0,1	0,660364
4,015833	0,1	0,704617
4,017500	0,1	0,668104
4,019167	0,1	0,690453
4,020833	0,1	0,656059
4,022500	0,1	0,677249
4,024167	0,1	0,680435
4,025833	0,1	0,649150
4,027500	0,1	0,670469
4,029167	0,1	0,702018
4,030833	0,1	0,681564
4,032500	0,1	0,692484
4,034167	0,1	0,650600
4,035833	0,1	0,667838
4,037500	0,1	0,728872
4,039167	0,1	0,682087
4,040833	0,1	0,720074
4,042500	0,1	0,680093
4,044167	0,1	0,700735
4,045833	0,1	0,703310
4,047500	0,1	0,747448
4,049167	0,1	0,745920
4,050833	0,1	0,691631
4,052500	0,1	0,716286
4,054167	0,1	0,706655
4,055833	0,1	0,733798
4,057500	0,1	0,766833
4,059167	0,1	0,732686
4,060833	0,1	0,768566
4,062500	0,1	0,756560
4,064167	0,1	0,732654
4,065833	0,1	0,770876
4,067500	0,1	0,749363
4,069167	0,1	0,749682
4,070833	0,1	0,759580
4,072500	0,1	0,763114
4,074167	0,1	0,814354
4,075833	0,1	0,779574
4,077500	0,1	0,799643
4,079167	0,1	0,821822
4,080833	0,1	0,823273
4,082500	0,1	0,819835
4,084167	0,1	0,780700
4,085833	0,1	0,842412
4,087500	0,1	0,811971
4,089167	0,1	0,858327
4,090833	0,1	0,819843
4,092500	0,1	0,841844
4,094167	0,1	0,851526
4,095833	0,1	0,895773
4,097500	0,1	0,874861
4,099167	0,1	0,909985
4,100833	0,1	0,921155
4,102500	0,1	0,913537
4,104167	0,1	0,939732
4,105833	0,1	0,928548
4,107500	0,1	0,959780
4,109167	0,1	0,922374
4,110833	0,1	0,915504
4,112500	0,1	0,963347
4,114167	0,1	0,958123
4,115833	0,1	0,968895
4,117500	0,1	1,033123
4,119167	0,1	0,987267
4,120833	0,1	0,985838
4,122500	0,1	1,009783
4,124167	0,1	1,049651
4,125833	0,1	1,037666
4,127500	0,1	1,063580
4,129167	0,1	1,071303
4,130833	0,1	1,044100
4,132500	0,1	1,072363
4,134167	0,1	1,085186
4,135833	0,1	1,068118
4,137500	0,1	1,066935
4,139167	0,1	1,105852
4,140833	0,1	1,074415
4,142500	0,1	1,132042
4,144167	0,1	1,092783
4,145833	0,1	1,120492
4,147500	0,1	1,162590
4,149167	0,1	1,143350
4,150833	0,1	1,140552
4,152500	0,1	1,151572
4,154167	0,1	1,127403
4,155833	0,1	1,152678
4,157500	0,1	1,158982
4,159167	0,1	1,209127
4,160833	0,1	1,194059
4,162500	0,1	1,191084
4,164167	0,1	1,196185
4,165833	0,1	1,175428
4,167500	0,1	1,213700
4,169167	0,1	1,145558
4,170833	0,1	1,179166
4,172500	0,1	1,198245
4,174167	0,1	1,231140
4,175833	0,1	1,222986
4,177500	0,1	1,215622
4,179167	0,1	1,234052
4,180833	0,1	1,202827
4,182500	0,1	1,220897
4,184167	0,1	1,223493
4,185833	0,1	1,268370
4,187500	0,1	1,222888
4,189167	0,1	1,223917
4,190833	0,1	1,244788
4,192500	0,1	1,257948
4,194167	0,1	1,229406
4,195833	0,1	1,305903
4,197500	0,1	1,258009
4,199167	0,1	1,209533
4,200833	0,1	1,242922
4,202500	0,1	1,243045
4,204167	0,1	1,219754
4,205833	0,1	1,239976
4,207500	0,1	1,254441
4,209167	0,1	1,196645
4,210833	0,1	1,240882
4,212500	0,1	1,235679
4,214167	0,1	1,226003
4,215833	0,1	1,281102
4,217500	0,1	1,229565
4,219167	0,1	1,245923
4,220833	0,1	1,278092
4,222500	0,1	1,217256
4,224167	0,1	1,233229
4,225833	0,1	1,252778
4,227500	0,1	1,212391
4,229167	0,1	1,207124
4,230833	0,1	1,238325
4,232500	0,1	1,207417
4,234167	0,1	1,200360
4,235833	0,1	1,239792
4,237500	0,1	1,169717
4,239167	0,1	1,215695
4,240833	0,1	1,185877
4,242500	0,1	1,195894
4,244167	0,1	1,173209
4,245833	0,1	1,205293
4,247500	0,1	1,150235
4,249167	0,1	1,152550
4,250833	0,1	1,179497
4,252500	0,1	1,171942
4,254167	0,1	1,117384
4,255833	0,1	1,179422
4,257500	0,1	1,167306
4,259167	0,1	1,120864
4,260833	0,1	1,121607
4,262500	0,1	1,124889
4,264167	0,1	1,121388
4,265833	0,1	1,135822
4,267500	0,1	1,105646
4,269167	0,1	1,098743
4,270833	0,1	1,118787
4,272500	0,1	1,055307
4,274167	0,1	1,054494
4,275833	0,1	1,095537
4,277500	0,1	1,063638
4,279167	0,1	1,064699
4,280833	0,1	1,041126
4,282500	0,1	1,016777
4,284167	0,1	1,028410
4,285833	0,1	1,033648
4,287500	0,1	1,031497
4,289167	0,1	1,026617
4,290833	0,1	1,010964
4,292500	0,1	0,977173
4,294167	0,1	1,013572
4,295833	0,1	1,015797
4,297500	0,1	1,011297
4,299167	0,1	0,982118
4,300833	0,1	0,980407
4,302500	0,1	0,981428
4,304167	0,1	0,980117
4,305833	0,1	0,977637
4,307500	0,1	0,929555
4,309167	0,1	0,943330
4,310833	0,1	0,939476
4,312500	0,1	0,907953
4,314167	0,1	0,931623
4,315833	0,1	0,919481
4,317500	0,1	0,886672
4,319167	0,1	0,933809
4,320833	0,1	0,922028
4,322500	0,1	0,910901
4,324167	0,1	0,886761
4,325833	0,1	0,869859
4,327500	0,1	0,868086
4,329167	0,1	0,894725
4,330833	0,1	0,896361
4,332500	0,1	0,884607
4,334167	0,1	0,869651
4,335833	0,1	0,854485
4,337500	0,1	0,863097
4,339167	0,1	0,853840
4,340833	0,1	0,849666
4,342500	0,1	0,864410
4,344167	0,1	0,805130
4,345833	0,1	0,838914
4,347500	0,1	0,812930
4,349167	0,1	0,825394
4,350833	0,1	0,806118
4,352500	0,1	0,872689
4,354167	0,1	0,842695
4,355833	0,1	0,820417
4,357500	0,1	0,845279
4,359167	0,1	0,836614
4,360833	0,1	0,818041
4,362500	0,1	0,840911
4,364167	0,1	0,808077
4,365833	0,1	0,805181
4,367500	0,1	0,803179
4,369167	0,1	0,802276
4,370833	0,1	0,770025
4,372500	0,1	0,777635
4,374167	0,1	0,756822
4,375833	0,1	0,771494
4,377500	0,1	0,768899
4,379167	0,1	0,777345
4,380833	0,1	0,786113
4,382500	0,1	0,749207
4,384167	0,1	0,779911
4,385833	0,1	0,747308
4,387500	0,1	0,749710
4,389167	0,1	0,764909
4,390833	0,1	0,748942
4,392500	0,1	0,744347
4,394167	0,1	0,737307
4,395833	0,1	0,766544
4,397500	0,1	0,736605
4,399167	0,1	0,747492
4,400833	0,1	0,725424
4,402500	0,1	0,730206
4,404167	0,1	0,710384
4,405833	0,1	0,716231
4,407500	0,1	0,703220
4,409167	0,1	0,720758
4,410833	0,1	0,722301
4,412500	0,1	0,695415
4,414167	0,1	0,709510
4,415833	0,1	0,665860
4,417500	0,1	0,683386
4,419167	0,1	0,697847
4,420833	0,1	0,677098
4,422500	0,1	0,722804
4,424167	0,1	0,668239
4,425833	0,1	0,722931
4,427500	0,1	0,658958
4,429167	0,1	0,644583
4,430833	0,1	0,670374
4,432500	0,1	0,660808
4,434167	0,1	0,674391
4,435833	0,1	0,712718
4,437500	0,1	0,590062
4,439167	0,1	0,650412
4,440833	0,1	0,655694
4,442500	0,1	0,654926
4,444167	0,1	0,655601
4,445833	0,1	0,656723
4,447500	0,1	0,616255
4,449167	0,1	0,643417
4,450833	0,1	0,647568
4,452500	0,1	0,629005
4,454167	0,1	0,613006
4,455833	0,1	0,651479
4,457500	0,1	0,654378
4,459167	0,1	0,663116
4,460833	0,1	0,618184
4,462500	0,1	0,606804
4,464167	0,1	0,615087
4,465833	0,1	0,602918
4,467500	0,1	0,581270
4,469167	0,1	0,624395
4,470833	0,1	0,612042
4,472500	0,1	0,645763
4,474167	0,1	0,608835
4,475833	0,1	0,603462
4,477500	0,1	0,586216
4,479167	0,1	0,598189
4,480833	0,1	0,640007
4,482500	0,1	0,590142
4,484167	0,1	0,598031
4,485833	0,1	0,601694
4,487500	0,1	0,593890
4,489167	0,1	0,566753
4,490833	0,1	0,586594
4,492500	0,1	0,595492
4,494167	0,1	0,583034
4,495833	0,1	0,582487
4,497500	0,1	0,549762
4,499167	0,1	0,545578
4,500833	0,1	0,574256
4,502500	0,1	0,603389
4,504167	0,1	0,553719
4,505833	0,1	0,543460
4,507500	0,1	0,558165
4,509167	0,1	0,518930
4,510833	0,1	0,565418
4,512500	0,1	0,575319
4,514167	0,1	0,529333
4,515833	0,1	0,526983
4,517500	0,1	0,546087
4,519167	0,1	0,564559
4,520833	0,1	0,513216
4,522500	0,1	0,551000
4,524167	0,1	0,549016
4,525833	0,1	0,516135
4,527500	0,1	0,501262
4,529167	0,1	0,507421
4,530833	0,1	0,489669
4,532500	0,1	0,524498
4,534167	0,1	0,558709
4,535833	0,1	0,542241
4,537500	0,1	0,515974
4,539167	0,1	0,520268
4,540833	0,1	0,540340
4,542500	0,1	0,539766
4,544167	0,1	0,501941
4,545833	0,1	0,485842
4,547500	0,1	0,518530
4,549167	0,1	0,498371
4,550833	0,1	0,505430
4,552500	0,1	0,497853
4,554167	0,1	0,493838
4,555833	0,1	0,502959
4,557500	0,1	0,506652
4,559167	0,1	0,507458
4,560833	0,1	0,452871
4,562500	0,1	0,486057
4,564167	0,1	0,453190
4,565833	0,1	0,460690
4,567500	0,1	0,462779
4,569167	0,1	0,477358
4,570833	0,1	0,456011
4,572500	0,1	0,452477
4,574167	0,1	0,466990
4,575833	0,1	0,437197
4,577500	0,1	0,442073
4,579167	0,1	0,475108
4,580833	0,1	0,450202
4,582500	0,1	0,507732
4,584167	0,1	0,466650
4,585833	0,1	0,457968
4,587500	0,1	0,475339
4,589167	0,1	0,472457
4,590833	0,1	0,432604
4,592500	0,1	0,432285
4,594167	0,1	0,433561
4,595833	0,1	0,424699
4,597500	0,1	0,441779
4,599167	0,1	0,417224
4,600833	0,1	0,406528
4,602500	0,1	0,448486
4,604167	0,1	0,432064
4,605833	0,1	0,416036
4,607500	0,1	0,438757
4,609167	0,1	0,432603
4,610833	0,1	0,443419
4,612500	0,1	0,413309
4,614167	0,1	0,405986
4,615833	0,1	0,425985
4,617500	0,1	0,363707
4,619167	0,1	0,427512
4,620833	0,1	0,386566
4,622500	0,1	0,407960
4,624167	0,1	0,410669
4,625833	0,1	0,387330
4,627500	0,1	0,428929
4,629167	0,1	0,407202
4,630833	0,1	0,380656
4,632500	0,1	0,364313
4,634167	0,1	0,382499
4,635833	0,1	0,378563
4,637500	0,1	0,350530
4,639167	0,1	0,379422
4,640833	0,1	0,334973
4,642500	0,1	0,367789
4,644167	0,1	0,370239
4,645833	0,1	0,388063
4,647500	0,1	0,355289
4,649167	0,1	0,397535
4,650833	0,1	0,358880
4,652500	0,1	0,344081
4,654167	0,1	0,354927
4,655833	0,1	0,349984
4,657500	0,1	0,377044
4,659167	0,1	0,342964
4,660833	0,1	0,369503
4,662500	0,1	0,370340
4,664167	0,1	0,333486
4,665833	0,1	0,376246
4,667500	0,1	0,342448
4,669167	0,1	0,326077
4,670833	0,1	0,349434
4,672500	0,1	0,366078
4,674167	0,1	0,332438
4,675833	0,1	0,310606
4,677500	0,1	0,322181
4,679167	0,1	0,316557
4,680833	0,1	0,361628
4,682500	0,1	0,346748
4,684167	0,1	0,312625
4,685833	0,1	0,359839
4,687500	0,1	0,340104
4,689167	0,1	0,364918
4,690833	0,1	0,316127
4,692500	0,1	0,350589
4,694167	0,1	0,324708
4,695833	0,1	0,320937
4,697500	0,1	0,329344
4,699167	0,1	0,325269
4,700833	0,1	0,296573
4,702500	0,1	0,303828
4,704167	0,1	0,301891
4,705833	0,1	0,283314
4,707500	0,1	0,310885
4,709167	0,1	0,313043
4,710833	0,1	0,257002
4,712500	0,1	0,330903
4,714167	0,1	0,305372
4,715833	0,1	0,360380
4,717500	0,1	0,302709
4,719167	0,1	0,334829
4,720833	0,1	0,283626
4,722500	0,1	0,268008
4,724167	0,1	0,303342
4,725833	0,1	0,273749
4,727500	0,1	0,286102
4,729167	0,1	0,311779
4,730833	0,1	0,298495
4,732500	0,1	0,312196
4,734167	0,1	0,291309
4,735833	0,1	0,316538
4,737500	0,1	0,311685
4,739167	0,1	0,288490
4,740833	0,1	0,253082
4,742500	0,1	0,277174
4,744167	0,1	0,304968
4,745833	0,1	0,294907
4,747500	0,1	0,311216
4,749167	0,1	0,280497
4,750833	0,1	0,265478
4,752500	0,1	0,282438
4,754167	0,1	0,296702
4,755833	0,1	0,286975
4,757500	0,1	0,298337
4,759167	0,1	0,272402
4,760833	0,1	0,273251
4,762500	0,1	0,245919
4,764167	0,1	0,281437
4,765833	0,1	0,310822
4,767500	0,1	0,271788
4,769167	0,1	0,253041
4,770833	0,1	0,263634
4,772500	0,1	0,294067
4,774167	0,1	0,258649
4,775833	0,1	0,271938
4,777500	0,1	0,300134
4,779167	0,1	0,255840
4,780833	0,1	0,282889
4,782500	0,1	0,265589
4,784167	0,1	0,238795
4,785833	0,1	0,256859
4,787500	0,1	0,296884
4,789167	0,1	0,298340
4,790833	0,1	0,261819
4,792500	0,1	0,240406
4,794167	0,1	0,251170
4,795833	0,1	0,222127
4,797500	0,1	0,247619
4,799167	0,1	0,259265
4,800833	0,1	0,255126
4,802500	0,1	0,268001
4,804167	0,1	0,288126
4,805833	0,1	0,266663
4,807500	0,1	0,223222
4,809167	0,1	0,280063
4,810833	0,1	0,275355
4,812500	0,1	0,252353
4,814167	0,1	0,267898
4,815833	0,1	0,254135
4,817500	0,1	0,234275
4,819167	0,1	0,251685
4,820833	0,1	0,245350
4,822500	0,1	0,245120
4,824167	0,1	0,235869
4,825833	0,1	0,253501
4,827500	0,1	0,231379
4,829167	0,1	0,204420
4,830833	0,1	0,231329
4,832500	0,1	0,278844
4,834167	0,1	0,280076
4,835833	0,1	0,228013
4,837500	0,1	0,253584
4,839167	0,1	0,238188
4,840833	0,1	0,194547
4,842500	0,1	0,234818
4,844167	0,1	0,176602
4,845833	0,1	0,219645
4,847500	0,1	0,241451
4,849167	0,1	0,206910
4,850833	0,1	0,228284
4,852500	0,1	0,245429
4,854167	0,1	0,222330
4,855833	0,1	0,242798
4,857500	0,1	0,194984
4,859167	0,1	0,242832
4,860833	0,1	0,250153
4,862500	0,1	0,254773
4,864167	0,1	0,206455
4,865833	0,1	0,231079
4,867500	0,1	0,246003
4,869167	0,1	0,215045
4,870833	0,1	0,225202
4,872500	0,1	0,231413
4,874167	0,1	0,189331
4,875833	0,1	0,219132
4,877500	0,1	0,249152
4,879167	0,1	0,270254
4,880833	0,1	0,219502
4,882500	0,1	0,195950
4,884167	0,1	0,213646
4,885833	0,1	0,273602
4,887500	0,1	0,211035
4,889167	0,1	0,224663
4,890833	0,1	0,236256
4,892500	0,1	0,234129
4,894167	0,1	0,242409
4,895833	0,1	0,265657
4,897500	0,1	0,240429
4,899167	0,1	0,210097
4,900833	0,1	0,189450
4,902500	0,1	0,269355
4,904167	0,1	0,236000
4,905833	0,1	0,240008
4,907500	0,1	0,208085
4,909167	0,1	0,232902
4,910833	0,1	0,229323
4,912500	0,1	0,233502
4,914167	0,1	0,211254
4,915833	0,1	0,223896
4,917500	0,1	0,225370
4,919167	0,1	0,241618
4,920833	0,1	0,219144
4,922500	0,1	0,239776
4,924167	0,1	0,204134
4,925833	0,1	0,215573
4,927500	0,1	0,199574
4,929167	0,1	0,192948
4,930833	0,1	0,229251
4,932500	0,1	0,176993
4,934167	0,1	0,246763
4,935833	0,1	0,225289
4,937500	0,1	0,216095
4,939167	0,1	0,224085
4,940833	0,1	0,196326
4,942500	0,1	0,232423
4,944167	0,1	0,200594
4,945833	0,1	0,232424
4,947500	0,1	0,254728
4,949167	0,1	0,220056
4,950833	0,1	0,243026
4,952500	0,1	0,212727
4,954167	0,1	0,205824
4,955833	0,1	0,193341
4,957500	0,1	0,218734
4,959167	0,1	0,205763
4,960833	0,1	0,199963
4,962500	0,1	0,208100
4,964167	0,1	0,255693
4,965833	0,1	0,229166
4,967500	0,1	0,202931
4,969167	0,1	0,207913
4,970833	0,1	0,196550
4,972500	0,1	0,227805
4,974167	0,1	0,209594
4,975833	0,1	0,194397
4,977500	0,1	0,214765
4,979167	0,1	0,216939
4,980833	0,1	0,189369
4,982500	0,1	0,235521
4,984167	0,1	0,201316
4,985833	0,1	0,202574
4,987500	0,1	0,230396
4,989167	0,1	0,222242
4,990833	0,1	0,259046
4,992500	0,1	0,226929
4,994167	0,1	0,211002
4,995833	0,1	0,212758
4,997500	0,1	0,239111
4,999167	0,1	0,228457
5,000833	0,1	0,219759
5,002500	0,1	0,243377
5,004167	0,1	0,224420
5,005833	0,1	0,160557
5,007500	0,1	0,243488
5,009167	0,1	0,211461
5,010833	0,1	0,222737
5,012500	0,1	0,252034
5,014167	0,1	0,210287
5,015833	0,1	0,200440
5,017500	0,1	0,206299
5,019167	0,1	0,236110
5,020833	0,1	0,203717
5,022500	0,1	0,200462
5,024167	0,1	0,221285
5,025833	0,1	0,259900
5,027500	0,1	0,193188
5,029167	0,1	0,224283
5,030833	0,1	0,203221
5,032500	0,1	0,208843
5,034167	0,1	0,228284
5,035833	0,1	0,205931
5,037500	0,1	0,219816
5,039167	0,1	0,218223
5,040833	0,1	0,252527
5,042500	0,1	0,217926
5,044167	0,1	0,232591
5,045833	0,1	0,242534
5,047500	0,1	0,228129
5,049167	0,1	0,215807
5,050833	0,1	0,218434
5,052500	0,1	0,256252
5,054167	0,1	0,217035
5,055833	0,1	0,203736
5,057500	0,1	0,246090
5,059167	0,1	0,247133
5,060833	0,1	0,233553
5,062500	0,1	0,262408
5,064167	0,1	0,245688
5,065833	0,1	0,213949
5,067500	0,1	0,195806
5,069167	0,1	0,216088
5,070833	0,1	0,219631
5,072500	0,1	0,242963
5,074167	0,1	0,244994
5,075833	0,1	0,227714
5,077500	0,1	0,292170
5,079167	0,1	0,203463
5,080833	0,1	0,207605
5,082500	0,1	0,206402
5,084167	0,1	0,250270
5,085833	0,1	0,241380
5,087500	0,1	0,248228
5,089167	0,1	0,187514
5,090833	0,1	0,171127
5,092500	0,1	0,260818
5,094167	0,1	0,223329
5,095833	0,1	0,251392
5,097500	0,1	0,252206
5,099167	0,1	0,248566
5,100833	0,1	0,233969
5,102500	0,1	0,196619
5,104167	0,1	0,207332
5,105833	0,1	0,264139
5,107500	0,1	0,241900
5,109167	0,1	0,231855
5,110833	0,1	0,221872
5,112500	0,1	0,243590
5,114167	0,1	0,233655
5,115833	0,1	0,213325
5,117500	0,1	0,219512
5,119167	0,1	0,193924
5,120833	0,1	0,226668
5,122500	0,1	0,229675
5,124167	0,1	0,249985
5,125833	0,1	0,235473
5,127500	0,1	0,263364
5,129167	0,1	0,235601
5,130833	0,1	0,210158
5,132500	0,1	0,232818
5,134167	0,1	0,222930
5,135833	0,1	0,214873
5,137500	0,1	0,242570
5,139167	0,1	0,207632
5,140833	0,1	0,173987
5,142500	0,1	0,235877
5,144167	0,1	0,253524
5,145833	0,1	0,181280
5,147500	0,1	0,216272
5,149167	0,1	0,199119
5,150833	0,1	0,183111
5,152500	0,1	0,196232
5,154167	0,1	0,205282
5,155833	0,1	0,239585
5,157500	0,1	0,254379
5,159167	0,1	0,237672
5,160833	0,1	0,230342
5,162500	0,1	0,239528
5,164167	0,1	0,218995
5,165833	0,1	0,206616
5,167500	0,1	0,197213
5,169167	0,1	0,243004
5,170833	0,1	0,216719
5,172500	0,1	0,211601
5,174167	0,1	0,247867
5,175833	0,1	0,227198
5,177500	0,1	0,221458
5,179167	0,1	0,190157
5,180833	0,1	0,194808
5,182500	0,1	0,198636
5,184167	0,1	0,238841
5,185833	0,1	0,192627
5,187500	0,1	0,247346
5,189167	0,1	0,180000
5,190833	0,1	0,251813
5,192500	0,1	0,208504
5,194167	0,1	0,210918
5,195833	0,1	0,191230
5,197500	0,1	0,209936
5,199167	0,1	0,210378
5,200833	0,1	0,181438
5,202500	0,1	0,188264
5,204167	0,1	0,175886
5,205833	0,1	0,181038
5,207500	0,1	0,196253
5,209167	0,1	0,219109
5,210833	0,1	0,227332
5,212500	0,1	0,162709
5,214167	0,1	0,240116
5,215833	0,1	0,204588
5,217500	0,1	0,188950
5,219167	0,1	0,193893
5,220833	0,1	0,205258
5,222500	0,1	0,197997
5,224167	0,1	0,210541
5,225833	0,1	0,206091
5,227500	0,1	0,214269
5,229167	0,1	0,224288
5,230833	0,1	0,170284
5,232500	0,1	0,175591
5,234167	0,1	0,200126
5,235833	0,1	0,168189
5,237500	0,1	0,201158
5,239167	0,1	0,159495
5,240833	0,1	0,175339
5,242500	0,1	0,146305
5,244167	0,1	0,174718
5,245833	0,1	0,155144
5,247500	0,1	0,218083
5,249167	0,1	0,149481
5,250833	0,1	0,153750
5,252500	0,1	0,171262
5,254167	0,1	0,177330
5,255833	0,1	0,187060
5,257500	0,1	0,157173
5,259167	0,1	0,203556
5,260833	0,1	0,150224
5,262500	0,1	0,169729
5,264167	0,1	0,140755
5,265833	0,1	0,171360
5,267500	0,1	0,138666
5,269167	0,1	0,150745
5,270833	0,1	0,156605
5,272500	0,1	0,138123
5,274167	0,1	0,173472
5,275833	0,1	0,205253
5,277500	0,1	0,169100
5,279167	0,1	0,115050
5,280833	0,1	0,166636
5,282500	0,1	0,159094
5,284167	0,1	0,140215
5,285833	0,1	0,163745
5,287500	0,1	0,128687
5,289167	0,1	0,170303
5,290833	0,1	0,173810
5,292500	0,1	0,144566
5,294167	0,1	0,119307
5,295833	0,1	0,129939
5,297500	0,1	0,160574
5,299167	0,1	0,189394
5,300833	0,1	0,140449
5,302500	0,1	0,149276
5,304167	0,1	0,133237
5,305833	0,1	0,126466
5,307500	0,1	0,137248
5,309167	0,1	0,153043
5,310833	0,1	0,119724
5,312500	0,1	0,177130
5,314167	0,1	0,145477
5,315833	0,1	0,141908
5,317500	0,1	0,124668
5,319167	0,1	0,152749
5,320833	0,1	0,100082
5,322500	0,1	0,158518
5,324167	0,1	0,098655
5,325833	0,1	0,182196
5,327500	0,1	0,136391
5,329167	0,1	0,177612
5,330833	0,1	0,129251
5,332500	0,1	0,150887
5,334167	0,1	0,138164
5,335833	0,1	0,135140
5,337500	0,1	0,143418
5,339167	0,1	0,118708
5,340833	0,1	0,136542
5,342500	0,1	0,133192
5,344167	0,1	0,113758
5,345833	0,1	0,168787
5,347500	0,1	0,141852
5,349167	0,1	0,118810
5,350833	0,1	0,151879
5,352500	0,1	0,099254
5,354167	0,1	0,180147
5,355833	0,1	0,123682
5,357500	0,1	0,151776
5,359167	0,1	0,084539
5,360833	0,1	0,127840
5,362500	0,1	0,126403
5,364167	0,1	0,122801
5,365833	0,1	0,085133
5,367500	0,1	0,111512
5,369167	0,1	0,160943
5,370833	0,1	0,097146
5,372500	0,1	0,141546
5,374167	0,1	0,111464
5,375833	0,1	0,113629
5,377500	0,1	0,086516
5,379167	0,1	0,097563
5,380833	0,1	0,151046
5,382500	0,1	0,090707
5,384167	0,1	0,085746
5,385833	0,1	0,095079
5,387500	0,1	0,131093
5,389167	0,1	0,112909
5,390833	0,1	0,100715
5,392500	0,1	0,104768
5,394167	0,1	0,069940
5,395833	0,1	0,104721
5,397500	0,1	0,120313
5,399167	0,1	0,115928
5,400833	0,1	0,091649
5,402500	0,1	0,052283
5,404167	0,1	0,093125
5,405833	0,1	0,123537
5,407500	0,1	0,101213
5,409167	0,1	0,090012
5,410833	0,1	0,102014
5,412500	0,1	0,089682
5,414167	0,1	0,098310
5,415833	0,1	0,082336
5,417500	0,1	0,084005
5,419167	0,1	0,104991
5,420833	0,1	0,089019
5,422500	0,1	0,077240
5,424167	0,1	0,094932
5,425833	0,1	0,083927
5,427500	0,1	0,088642
5,429167	0,1	0,076454
5,430833	0,1	0,116766
5,432500	0,1	0,102622
5,434167	0,1	0,056300
5,435833	0,1	0,068892
5,437500	0,1	0,080072
5,439167	0,1	0,091393
5,440833	0,1	0,119418
5,442500	0,1	0,091031
5,444167	0,1	0,064266
5,445833	0,1	0,062664
5,447500	0,1	0,072784
5,449167	0,1	0,090484
5,450833	0,1	0,051394
5,452500	0,1	0,104301
5,454167	0,1	0,082935
5,455833	0,1	0,093257
5,457500	0,1	0,092909
5,459167	0,1	0,074260
5,460833	0,1	0,062087
5,462500	0,1	0,105441
5,464167	0,1	0,086514
5,465833	0,1	0,065507
5,467500	0,1	0,090150
5,469167	0,1	0,080263
5,470833	0,1	0,026786
5,472500	0,1	0,057959
5,474167	0,1	0,087972
5,475833	0,1	0,059751
5,477500	0,1	0,072495
5,479167	0,1	0,097621
5,480833	0,1	0,095433
5,482500	0,1	0,078919
5,484167	0,1	0,098698
5,485833	0,1	0,082004
5,487500	0,1	0,116539
5,489167	0,1	0,049723
5,490833	0,1	0,082239
5,492500	0,1	0,096238
5,494167	0,1	0,051622
5,495833	0,1	0,057780
5,497500	0,1	0,094016
5,499167	0,1	0,057666
5,500833	0,1	0,052810
5,502500	0,1	0,037643
5,504167	0,1	0,039193
5,505833	0,1	0,110816
5,507500	0,1	0,111952
5,509167	0,1	0,068097
5,510833	0,1	0,114902
5,512500	0,1	0,080186
5,514167	0,1	0,033632
5,515833	0,1	0,035632
5,517500	0,1	0,022495
5,519167	0,1	0,081509
5,520833	0,1	0,082288
5,522500	0,1	0,030408
5,524167	0,1	0,082523
5,525833	0,1	0,074776
5,527500	0,1	0,088122
5,529167	0,1	0,055304
5,530833	0,1	0,052113
5,532500	0,1	0,066658
5,534167	0,1	0,076616
5,535833	0,1	0,039573
5,537500	0,1	0,057341
5,539167	0,1	0,065894
5,540833	0,1	0,077567
5,542500	0,1	0,085123
5,544167	0,1	0,032087
5,545833	0,1	0,050657
5,547500	0,1	0,060284
5,549167	0,1	0,062811
5,550833	0,1	0,057412
5,552500	0,1	0,019416
5,554167	0,1	0,038486
5,555833	0,1	0,062102
5,557500	0,1	0,061299
5,559167	0,1	0,074067
5,560833	0,1	0,068876
5,562500	0,1	0,054264
5,564167	0,1	0,060637
5,565833	0,1	0,007994
5,567500	0,1	0,069896
5,569167	0,1	0,084457
5,570833	0,1	0,034941
5,572500	0,1	0,041739
5,574167	0,1	0,046416
5,575833	0,1	0,083833
5,577500	0,1	0,061077
5,579167	0,1	0,089588
5,580833	0,1	0,039600
5,582500	0,1	0,083043
5,584167	0,1	0,054580
5,585833	0,1	0,074313
5,587500	0,1	0,049836
5,589167	0,1	0,036815
5,590833	0,1	0,070047
5,592500	0,1	0,045678
5,594167	0,1	0,093539
5,595833	0,1	0,051166
5,597500	0,1	0,049546
5,599167	0,1	0,065021
5,600833	0,1	0,054928
5,602500	0,1	0,054055
5,604167	0,1	0,073176
5,605833	0,1	0,023412
5,607500	0,1	0,069691
5,609167	0,1	0,052549
5,610833	0,1	0,095506
5,612500	0,1	0,048373
5,614167	0,1	0,058355
5,615833	0,1	0,047414
5,617500	0,1	0,069511
5,619167	0,1	0,052216
5,620833	0,1	0,045530
5,622500	0,1	0,090642
5,624167	0,1	0,054972
5,625833	0,1	0,051551
5,627500	0,1	0,036631
5,629167	0,1	0,050640
5,630833	0,1	0,063824
5,632500	0,1	0,044830
5,634167	0,1	0,085425
5,635833	0,1	0,072130
5,637500	0,1	0,062481
5,639167	0,1	0,076368
5,640833	0,1	0,040362
5,642500	0,1	0,052583
5,644167	0,1	0,088967
5,645833	0,1	0,051974
5,647500	0,1	0,083750
5,649167	0,1	0,054871
5,650833	0,1	0,088988
5,652500	0,1	0,098889
5,654167	0,1	0,066854
5,655833	0,1	0,071546
5,657500	0,1	0,051160
5,659167	0,1	0,071728
5,660833	0,1	0,072477
5,662500	0,1	0,066933
5,664167	0,1	0,075704
5,665833	0,1	0,069518
5,667500	0,1	0,090873
5,669167	0,1	0,070681
5,670833	0,1	0,073551
5,672500	0,1	0,087338
5,674167	0,1	0,112424
5,675833	0,1	0,063630
5,677500	0,1	0,116391
5,679167	0,1	0,045356
5,680833	0,1	0,058169
5,682500	0,1	0,079531
5,684167	0,1	0,072788
5,685833	0,1	0,073905
5,687500	0,1	0,055133
5,689167	0,1	0,051280
5,690833	0,1	0,045735
5,692500	0,1	0,074749
5,694167	0,1	0,058323
5,695833	0,1	0,089816
5,697500	0,1	0,096819
5,699167	0,1	0,087154
5,700833	0,1	0,112567
5,702500	0,1	0,095541
5,704167	0,1	0,077221
5,705833	0,1	0,085578
5,707500	0,1	0,102344
5,709167	0,1	0,068509
5,710833	0,1	0,071485
5,712500	0,1	0,124112
5,714167	0,1	0,122180
5,715833	0,1	0,123151
5,717500	0,1	0,067502
5,719167	0,1	0,087438
5,720833	0,1	0,088416
5,722500	0,1	0,058221
5,724167	0,1	0,112541
5,725833	0,1	0,091795
5,727500	0,1	0,077468
5,729167	0,1	0,090710
5,730833	0,1	0,094480
5,732500	0,1	0,101352
5,734167	0,1	0,120498
5,735833	0,1	0,103986
5,737500	0,1	0,097526
5,739167	0,1	0,094273
5,740833	0,1	0,101125
5,742500	0,1	0,071407
5,744167	0,1	0,098510
5,745833	0,1	0,104167
5,747500	0,1	0,095580
5,749167	0,1	0,114038
5,750833	0,1	0,157404
5,752500	0,1	0,096959
5,754167	0,1	0,102945
5,755833	0,1	0,121016
5,757500	0,1	0,088257
5,759167	0,1	0,116397
5,760833	0,1	0,109635
5,762500	0,1	0,139417
5,764167	0,1	0,121211
5,765833	0,1	0,118287
5,767500	0,1	0,112636
5,769167	0,1	0,117479
5,770833	0,1	0,120025
5,772500	0,1	0,098875
5,774167	0,1	0,124720
5,775833	0,1	0,129526
5,777500	0,1	0,105519
5,779167	0,1	0,115159
5,780833	0,1	0,131533
5,782500	0,1	0,091882
5,784167	0,1	0,111223
5,785833	0,1	0,100900
5,787500	0,1	0,132480
5,789167	0,1	0,165750
5,790833	0,1	0,121444
5,792500	0,1	0,084262
5,794167	0,1	0,114140
5,795833	0,1	0,063836
5,797500	0,1	0,115976
5,799167	0,1	0,160839
5,800833	0,1	0,119124
5,802500	0,1	0,112555
5,804167	0,1	0,112346
5,805833	0,1	0,103634
5,807500	0,1	0,150592
5,809167	0,1	0,119701
5,810833	0,1	0,070232
5,812500	0,1	0,104451
5,814167	0,1	0,137221
5,815833	0,1	0,137622
5,817500	0,1	0,101796
5,819167	0,1	0,126561
5,820833	0,1	0,118744
5,822500	0,1	0,079875
5,824167	0,1	0,143176
5,825833	0,1	0,157722
5,827500	0,1	0,114924
5,829167	0,1	0,102826
5,830833	0,1	0,134696
5,832500	0,1	0,097202
5,834167	0,1	0,120311
5,835833	0,1	0,136128
5,837500	0,1	0,107033
5,839167	0,1	0,117354
5,840833	0,1	0,120853
5,842500	0,1	0,128491
5,844167	0,1	0,129320
5,845833	0,1	0,110404
5,847500	0,1	0,071557
5,849167	0,1	0,101513
5,850833	0,1	0,111101
5,852500	0,1	0,118721
5,854167	0,1	0,122675
5,855833	0,1	0,131513
5,857500	0,1	0,085570
5,859167	0,1	0,087731
5,860833	0,1	0,101474
5,862500	0,1	0,117352
5,864167	0,1	0,105972
5,865833	0,1	0,083763
5,867500	0,1	0,106544
5,869167	0,1	0,089518
5,870833	0,1	0,097522
5,872500	0,1	0,107024
5,874167	0,1	0,147716
5,875833	0,1	0,081578
5,877500	0,1	0,111056
5,879167	0,1	0,107545
5,880833	0,1	0,074866
5,882500	0,1	0,099630
5,884167	0,1	0,097879
5,885833	0,1	0,127886
5,887500	0,1	0,066176
5,889167	0,1	0,084085
5,890833	0,1	0,100875
5,892500	0,1	0,101313
5,894167	0,1	0,063153
5,895833	0,1	0,100455
5,897500	0,1	0,118096
5,899167	0,1	0,089065
5,900833	0,1	0,074179
5,902500	0,1	0,118257
5,904167	0,1	0,071824
5,905833	0,1	0,074361
5,907500	0,1	0,063394
5,909167	0,1	0,085739
5,910833	0,1	0,097252
5,912500	0,1	0,091379
5,914167	0,1	0,031526
5,915833	0,1	0,106367
5,917500	0,1	0,112385
5,919167	0,1	0,097094
5,920833	0,1	0,057605
5,922500	0,1	0,076261
5,924167	0,1	0,080509
5,925833	0,1	0,076040
5,927500	0,1	0,051347
5,929167	0,1	0,081474
5,930833	0,1	0,093485
5,932500	0,1	0,084942
5,934167	0,1	0,062051
5,935833	0,1	0,075350
5,937500	0,1	0,114925
5,939167	0,1	0,080933
5,940833	0,1	0,098203
5,942500	0,1	0,098415
5,944167	0,1	0,065656
5,945833	0,1	0,067882
5,947500	0,1	0,078395
5,949167	0,1	0,087420
5,950833	0,1	0,070742
5,952500	0,1	0,113536
5,954167	0,1	0,084202
5,955833	0,1	0,073307
5,957500	0,1	0,073348
5,959167	0,1	0,075539
5,960833	0,1	0,045449
5,962500	0,1	0,058334
5,964167	0,1	0,091887
5,965833	0,1	0,108885
5,967500	0,1	0,117623
5,969167	0,1	0,081761
5,970833	0,1	0,065382
5,972500	0,1	0,087252
5,974167	0,1	0,097026
5,975833	0,1	0,084858
5,977500	0,1	0,105366
5,979167	0,1	0,089372
5,980833	0,1	0,067226
5,982500	0,1	0,058260
5,984167	0,1	0,047291
5,985833	0,1	0,103866
5,987500	0,1	0,051316
5,989167	0,1	0,039591
5,990833	0,1	0,066572
5,992500	0,1	0,078103
5,994167	0,1	0,058884
5,995833	0,1	0,045013
5,997500	0,1	0,095110
5,999167	0,1	0,106010
6,000833	0,1	0,075879
