File Path	chrom://chromeleon01/ikbm_chromeleon/2022/Rezex/Esteban/220612_chitin_4_7.seq/283.smp/UV_VIS_1.channel/UV_VIS_1.chm
Channel	UV_VIS_1

Injection Information:
Data Vault	ikbm_chromeleon
Injection	4_00.5h-EGS_1
Injection Number	103
Position	BA6
Comment	
Processing Method	New ProcMethod
Instrument Method	Short_Rezex_6min_194nm
Type	Unknown
Status	Finished
Injection Date	13.06.2022
Injection Time	04:14:38
Injection Volume (µl)	8,000
Dilution Factor	1,0000
Weight	1,0000

Chromatogram Data Information:
Time Min. (min)	0,000833
Time Max. (min)	6,000833
Data Points	3601
Detector	UV
Generating Data System	Chromeleon 7.2.9.11323
Exporting Data System	Chromeleon 7.2.9.0
Operator	Instrument Controller
Signal Quantity	Absorbance
Signal Unit	mAU
Signal Min.	-0,112218
Signal Max.	120,293014
Channel	UV_VIS_1
Driver Name	VWD3000.dll
Channel Type	Evaluation
Min. Step (s)	0,1
Max. Step (s)	0,1
Average Step (s)	0,1

Signal Parameter Information:
Signal Info	WVL:194 nm

Chromatogram Data:
Time (min)	Step (s)	Value (mAU)
0,000833	n.a.	-0,053158
0,002500	0,1	-0,095302
0,004167	0,1	-0,034402
0,005833	0,1	-0,047055
0,007500	0,1	-0,044345
0,009167	0,1	-0,064787
0,010833	0,1	-0,034004
0,012500	0,1	-0,034035
0,014167	0,1	-0,017628
0,015833	0,1	-0,046427
0,017500	0,1	-0,041882
0,019167	0,1	-0,052600
0,020833	0,1	-0,036420
0,022500	0,1	-0,057750
0,024167	0,1	-0,086843
0,025833	0,1	-0,060887
0,027500	0,1	-0,073025
0,029167	0,1	-0,101309
0,030833	0,1	-0,067632
0,032500	0,1	-0,073711
0,034167	0,1	-0,102346
0,035833	0,1	-0,088946
0,037500	0,1	-0,092334
0,039167	0,1	-0,081617
0,040833	0,1	-0,093473
0,042500	0,1	-0,065810
0,044167	0,1	-0,090343
0,045833	0,1	-0,100592
0,047500	0,1	-0,112218
0,049167	0,1	-0,082596
0,050833	0,1	-0,090847
0,052500	0,1	-0,076881
0,054167	0,1	-0,079054
0,055833	0,1	-0,060614
0,057500	0,1	-0,044409
0,059167	0,1	-0,081544
0,060833	0,1	-0,057514
0,062500	0,1	-0,062454
0,064167	0,1	-0,077787
0,065833	0,1	-0,050063
0,067500	0,1	-0,043766
0,069167	0,1	-0,057214
0,070833	0,1	-0,060485
0,072500	0,1	-0,065432
0,074167	0,1	-0,043954
0,075833	0,1	-0,061230
0,077500	0,1	-0,030340
0,079167	0,1	-0,040825
0,080833	0,1	-0,056818
0,082500	0,1	-0,086554
0,084167	0,1	-0,045592
0,085833	0,1	-0,034826
0,087500	0,1	-0,049682
0,089167	0,1	-0,045546
0,090833	0,1	-0,031663
0,092500	0,1	-0,043761
0,094167	0,1	-0,009416
0,095833	0,1	-0,022342
0,097500	0,1	-0,035586
0,099167	0,1	-0,023920
0,100833	0,1	-0,030375
0,102500	0,1	-0,055787
0,104167	0,1	-0,045881
0,105833	0,1	-0,056968
0,107500	0,1	-0,063465
0,109167	0,1	-0,063052
0,110833	0,1	-0,086521
0,112500	0,1	-0,059809
0,114167	0,1	-0,061312
0,115833	0,1	-0,093575
0,117500	0,1	-0,062233
0,119167	0,1	-0,065970
0,120833	0,1	-0,057860
0,122500	0,1	-0,092826
0,124167	0,1	-0,088591
0,125833	0,1	-0,052155
0,127500	0,1	-0,036444
0,129167	0,1	-0,066149
0,130833	0,1	-0,064028
0,132500	0,1	-0,051675
0,134167	0,1	-0,041551
0,135833	0,1	-0,020673
0,137500	0,1	-0,071072
0,139167	0,1	-0,057178
0,140833	0,1	-0,086036
0,142500	0,1	-0,055283
0,144167	0,1	-0,065431
0,145833	0,1	-0,053020
0,147500	0,1	-0,077222
0,149167	0,1	-0,053953
0,150833	0,1	-0,038282
0,152500	0,1	-0,051748
0,154167	0,1	-0,015832
0,155833	0,1	-0,062979
0,157500	0,1	-0,031685
0,159167	0,1	-0,033399
0,160833	0,1	-0,061121
0,162500	0,1	-0,081467
0,164167	0,1	-0,058007
0,165833	0,1	-0,028871
0,167500	0,1	-0,006599
0,169167	0,1	-0,040380
0,170833	0,1	0,001923
0,172500	0,1	-0,012262
0,174167	0,1	-0,048000
0,175833	0,1	-0,035221
0,177500	0,1	-0,052080
0,179167	0,1	-0,042216
0,180833	0,1	-0,068820
0,182500	0,1	-0,015403
0,184167	0,1	-0,016570
0,185833	0,1	-0,005769
0,187500	0,1	-0,058655
0,189167	0,1	-0,036630
0,190833	0,1	-0,023070
0,192500	0,1	0,028000
0,194167	0,1	-0,020161
0,195833	0,1	-0,049598
0,197500	0,1	-0,013660
0,199167	0,1	-0,058744
0,200833	0,1	-0,034565
0,202500	0,1	-0,031678
0,204167	0,1	-0,020176
0,205833	0,1	-0,023813
0,207500	0,1	-0,059732
0,209167	0,1	0,000720
0,210833	0,1	-0,011041
0,212500	0,1	-0,033350
0,214167	0,1	-0,021768
0,215833	0,1	0,015545
0,217500	0,1	-0,026270
0,219167	0,1	-0,054935
0,220833	0,1	-0,009276
0,222500	0,1	-0,016525
0,224167	0,1	-0,014337
0,225833	0,1	-0,014708
0,227500	0,1	-0,017833
0,229167	0,1	-0,014811
0,230833	0,1	-0,014190
0,232500	0,1	-0,059007
0,234167	0,1	-0,041244
0,235833	0,1	-0,034541
0,237500	0,1	0,008380
0,239167	0,1	-0,016050
0,240833	0,1	-0,005086
0,242500	0,1	-0,019816
0,244167	0,1	-0,011520
0,245833	0,1	-0,002954
0,247500	0,1	-0,059234
0,249167	0,1	-0,015051
0,250833	0,1	-0,025221
0,252500	0,1	-0,043493
0,254167	0,1	-0,002320
0,255833	0,1	0,001456
0,257500	0,1	-0,029272
0,259167	0,1	0,020551
0,260833	0,1	-0,024300
0,262500	0,1	-0,030043
0,264167	0,1	-0,005192
0,265833	0,1	-0,051370
0,267500	0,1	0,011522
0,269167	0,1	-0,032871
0,270833	0,1	-0,006103
0,272500	0,1	0,003153
0,274167	0,1	-0,044110
0,275833	0,1	0,009599
0,277500	0,1	-0,056419
0,279167	0,1	-0,014450
0,280833	0,1	0,001102
0,282500	0,1	-0,036616
0,284167	0,1	-0,046518
0,285833	0,1	-0,012544
0,287500	0,1	-0,048560
0,289167	0,1	-0,021481
0,290833	0,1	-0,003889
0,292500	0,1	-0,023044
0,294167	0,1	-0,070247
0,295833	0,1	-0,059601
0,297500	0,1	-0,005491
0,299167	0,1	-0,037550
0,300833	0,1	-0,010906
0,302500	0,1	-0,002931
0,304167	0,1	0,012237
0,305833	0,1	-0,016149
0,307500	0,1	0,009814
0,309167	0,1	-0,030971
0,310833	0,1	0,003479
0,312500	0,1	-0,009201
0,314167	0,1	-0,012991
0,315833	0,1	0,000541
0,317500	0,1	-0,008560
0,319167	0,1	-0,022365
0,320833	0,1	0,007410
0,322500	0,1	0,017951
0,324167	0,1	-0,025190
0,325833	0,1	0,016040
0,327500	0,1	0,011848
0,329167	0,1	-0,004085
0,330833	0,1	-0,017312
0,332500	0,1	-0,024701
0,334167	0,1	0,034975
0,335833	0,1	0,021869
0,337500	0,1	-0,000566
0,339167	0,1	-0,007937
0,340833	0,1	0,010953
0,342500	0,1	-0,004747
0,344167	0,1	-0,037900
0,345833	0,1	-0,004677
0,347500	0,1	0,041105
0,349167	0,1	0,003226
0,350833	0,1	-0,008662
0,352500	0,1	0,023845
0,354167	0,1	-0,010682
0,355833	0,1	0,028397
0,357500	0,1	0,004609
0,359167	0,1	-0,006055
0,360833	0,1	-0,051124
0,362500	0,1	0,002479
0,364167	0,1	0,009406
0,365833	0,1	0,001830
0,367500	0,1	0,037836
0,369167	0,1	0,004013
0,370833	0,1	0,023249
0,372500	0,1	-0,032744
0,374167	0,1	0,004780
0,375833	0,1	-0,003157
0,377500	0,1	0,073163
0,379167	0,1	-0,020254
0,380833	0,1	0,005074
0,382500	0,1	0,027222
0,384167	0,1	0,001568
0,385833	0,1	0,023890
0,387500	0,1	0,009469
0,389167	0,1	0,019938
0,390833	0,1	0,025094
0,392500	0,1	0,014022
0,394167	0,1	0,017788
0,395833	0,1	0,008455
0,397500	0,1	0,005099
0,399167	0,1	0,027905
0,400833	0,1	-0,008553
0,402500	0,1	0,026866
0,404167	0,1	0,015557
0,405833	0,1	0,016753
0,407500	0,1	0,033516
0,409167	0,1	0,029650
0,410833	0,1	-0,010495
0,412500	0,1	0,004020
0,414167	0,1	-0,001791
0,415833	0,1	0,005326
0,417500	0,1	0,021883
0,419167	0,1	-0,013810
0,420833	0,1	0,019582
0,422500	0,1	0,045188
0,424167	0,1	0,004966
0,425833	0,1	-0,023021
0,427500	0,1	0,019412
0,429167	0,1	0,001566
0,430833	0,1	0,028648
0,432500	0,1	0,075508
0,434167	0,1	0,057143
0,435833	0,1	0,019909
0,437500	0,1	0,027245
0,439167	0,1	0,013942
0,440833	0,1	0,016917
0,442500	0,1	0,027492
0,444167	0,1	-0,004581
0,445833	0,1	0,034007
0,447500	0,1	0,017523
0,449167	0,1	0,039496
0,450833	0,1	0,011379
0,452500	0,1	0,039930
0,454167	0,1	0,045979
0,455833	0,1	-0,002113
0,457500	0,1	0,051412
0,459167	0,1	0,006662
0,460833	0,1	0,058203
0,462500	0,1	0,044203
0,464167	0,1	0,040828
0,465833	0,1	0,023711
0,467500	0,1	0,004979
0,469167	0,1	0,030802
0,470833	0,1	0,021827
0,472500	0,1	0,031820
0,474167	0,1	0,031305
0,475833	0,1	0,067583
0,477500	0,1	-0,017462
0,479167	0,1	0,044826
0,480833	0,1	0,003497
0,482500	0,1	0,014990
0,484167	0,1	0,026645
0,485833	0,1	0,019424
0,487500	0,1	0,018679
0,489167	0,1	0,051211
0,490833	0,1	0,057654
0,492500	0,1	0,025785
0,494167	0,1	0,040594
0,495833	0,1	0,050843
0,497500	0,1	0,011277
0,499167	0,1	0,065510
0,500833	0,1	0,034024
0,502500	0,1	0,008998
0,504167	0,1	0,040178
0,505833	0,1	0,050863
0,507500	0,1	0,065497
0,509167	0,1	0,044019
0,510833	0,1	0,052291
0,512500	0,1	0,062931
0,514167	0,1	0,045509
0,515833	0,1	0,029219
0,517500	0,1	-0,006752
0,519167	0,1	0,036862
0,520833	0,1	0,080829
0,522500	0,1	0,078604
0,524167	0,1	0,051513
0,525833	0,1	0,064960
0,527500	0,1	0,040149
0,529167	0,1	0,037433
0,530833	0,1	0,073192
0,532500	0,1	0,013206
0,534167	0,1	0,044648
0,535833	0,1	0,083813
0,537500	0,1	0,042657
0,539167	0,1	0,047324
0,540833	0,1	0,034950
0,542500	0,1	0,079444
0,544167	0,1	0,065752
0,545833	0,1	0,055216
0,547500	0,1	0,014547
0,549167	0,1	0,047256
0,550833	0,1	0,066966
0,552500	0,1	0,036591
0,554167	0,1	0,033209
0,555833	0,1	0,054338
0,557500	0,1	0,076446
0,559167	0,1	0,075418
0,560833	0,1	0,080488
0,562500	0,1	0,019044
0,564167	0,1	0,082563
0,565833	0,1	0,072728
0,567500	0,1	0,074609
0,569167	0,1	0,065980
0,570833	0,1	0,107472
0,572500	0,1	0,048790
0,574167	0,1	0,006330
0,575833	0,1	0,027864
0,577500	0,1	0,069796
0,579167	0,1	0,079243
0,580833	0,1	0,091414
0,582500	0,1	0,045432
0,584167	0,1	0,084101
0,585833	0,1	0,101247
0,587500	0,1	0,095103
0,589167	0,1	0,075111
0,590833	0,1	0,049299
0,592500	0,1	0,065765
0,594167	0,1	0,056292
0,595833	0,1	0,082840
0,597500	0,1	0,066499
0,599167	0,1	0,099050
0,600833	0,1	0,055761
0,602500	0,1	0,086733
0,604167	0,1	0,112423
0,605833	0,1	0,068824
0,607500	0,1	0,108842
0,609167	0,1	0,078797
0,610833	0,1	0,098430
0,612500	0,1	0,089764
0,614167	0,1	0,065755
0,615833	0,1	0,073635
0,617500	0,1	0,071918
0,619167	0,1	0,090566
0,620833	0,1	0,098228
0,622500	0,1	0,146457
0,624167	0,1	0,071418
0,625833	0,1	0,090399
0,627500	0,1	0,115302
0,629167	0,1	0,092955
0,630833	0,1	0,119919
0,632500	0,1	0,100178
0,634167	0,1	0,129836
0,635833	0,1	0,143419
0,637500	0,1	0,140606
0,639167	0,1	0,084166
0,640833	0,1	0,118550
0,642500	0,1	0,133275
0,644167	0,1	0,131003
0,645833	0,1	0,129594
0,647500	0,1	0,103245
0,649167	0,1	0,117025
0,650833	0,1	0,141657
0,652500	0,1	0,122435
0,654167	0,1	0,136859
0,655833	0,1	0,165035
0,657500	0,1	0,148294
0,659167	0,1	0,177005
0,660833	0,1	0,117123
0,662500	0,1	0,149629
0,664167	0,1	0,125481
0,665833	0,1	0,152614
0,667500	0,1	0,119912
0,669167	0,1	0,180926
0,670833	0,1	0,166369
0,672500	0,1	0,140720
0,674167	0,1	0,152655
0,675833	0,1	0,170047
0,677500	0,1	0,170733
0,679167	0,1	0,151795
0,680833	0,1	0,150921
0,682500	0,1	0,171292
0,684167	0,1	0,146724
0,685833	0,1	0,156491
0,687500	0,1	0,201721
0,689167	0,1	0,229845
0,690833	0,1	0,143843
0,692500	0,1	0,195463
0,694167	0,1	0,180826
0,695833	0,1	0,173450
0,697500	0,1	0,237024
0,699167	0,1	0,172471
0,700833	0,1	0,135862
0,702500	0,1	0,213103
0,704167	0,1	0,232289
0,705833	0,1	0,196817
0,707500	0,1	0,211507
0,709167	0,1	0,230588
0,710833	0,1	0,173565
0,712500	0,1	0,224955
0,714167	0,1	0,193481
0,715833	0,1	0,203390
0,717500	0,1	0,229416
0,719167	0,1	0,192589
0,720833	0,1	0,213368
0,722500	0,1	0,223681
0,724167	0,1	0,256807
0,725833	0,1	0,257607
0,727500	0,1	0,278701
0,729167	0,1	0,268373
0,730833	0,1	0,277420
0,732500	0,1	0,264810
0,734167	0,1	0,254501
0,735833	0,1	0,277831
0,737500	0,1	0,283413
0,739167	0,1	0,278770
0,740833	0,1	0,233675
0,742500	0,1	0,283630
0,744167	0,1	0,244362
0,745833	0,1	0,286236
0,747500	0,1	0,254306
0,749167	0,1	0,291826
0,750833	0,1	0,266149
0,752500	0,1	0,273203
0,754167	0,1	0,280655
0,755833	0,1	0,271383
0,757500	0,1	0,308810
0,759167	0,1	0,288657
0,760833	0,1	0,298190
0,762500	0,1	0,275337
0,764167	0,1	0,272638
0,765833	0,1	0,281198
0,767500	0,1	0,305638
0,769167	0,1	0,280537
0,770833	0,1	0,288612
0,772500	0,1	0,279024
0,774167	0,1	0,307879
0,775833	0,1	0,262340
0,777500	0,1	0,288618
0,779167	0,1	0,312502
0,780833	0,1	0,299027
0,782500	0,1	0,294531
0,784167	0,1	0,280572
0,785833	0,1	0,305375
0,787500	0,1	0,283746
0,789167	0,1	0,268978
0,790833	0,1	0,287715
0,792500	0,1	0,246742
0,794167	0,1	0,280912
0,795833	0,1	0,246149
0,797500	0,1	0,314933
0,799167	0,1	0,294699
0,800833	0,1	0,305189
0,802500	0,1	0,300499
0,804167	0,1	0,272770
0,805833	0,1	0,270322
0,807500	0,1	0,262355
0,809167	0,1	0,271540
0,810833	0,1	0,276099
0,812500	0,1	0,276843
0,814167	0,1	0,278730
0,815833	0,1	0,286209
0,817500	0,1	0,283805
0,819167	0,1	0,290261
0,820833	0,1	0,281718
0,822500	0,1	0,292411
0,824167	0,1	0,272227
0,825833	0,1	0,286495
0,827500	0,1	0,292728
0,829167	0,1	0,287243
0,830833	0,1	0,286751
0,832500	0,1	0,262434
0,834167	0,1	0,314323
0,835833	0,1	0,295881
0,837500	0,1	0,275816
0,839167	0,1	0,267983
0,840833	0,1	0,321872
0,842500	0,1	0,298226
0,844167	0,1	0,252683
0,845833	0,1	0,283445
0,847500	0,1	0,313332
0,849167	0,1	0,280566
0,850833	0,1	0,272866
0,852500	0,1	0,263741
0,854167	0,1	0,287615
0,855833	0,1	0,252290
0,857500	0,1	0,297694
0,859167	0,1	0,285228
0,860833	0,1	0,243130
0,862500	0,1	0,260662
0,864167	0,1	0,314585
0,865833	0,1	0,273163
0,867500	0,1	0,282493
0,869167	0,1	0,323252
0,870833	0,1	0,302691
0,872500	0,1	0,293890
0,874167	0,1	0,302558
0,875833	0,1	0,298383
0,877500	0,1	0,312605
0,879167	0,1	0,260731
0,880833	0,1	0,307650
0,882500	0,1	0,373918
0,884167	0,1	0,306103
0,885833	0,1	0,294939
0,887500	0,1	0,266956
0,889167	0,1	0,320228
0,890833	0,1	0,325964
0,892500	0,1	0,311290
0,894167	0,1	0,322073
0,895833	0,1	0,343450
0,897500	0,1	0,276505
0,899167	0,1	0,338050
0,900833	0,1	0,338482
0,902500	0,1	0,309241
0,904167	0,1	0,333720
0,905833	0,1	0,365063
0,907500	0,1	0,306164
0,909167	0,1	0,304894
0,910833	0,1	0,326412
0,912500	0,1	0,325260
0,914167	0,1	0,329745
0,915833	0,1	0,321245
0,917500	0,1	0,333884
0,919167	0,1	0,331546
0,920833	0,1	0,329810
0,922500	0,1	0,320569
0,924167	0,1	0,347529
0,925833	0,1	0,317173
0,927500	0,1	0,348458
0,929167	0,1	0,361115
0,930833	0,1	0,359609
0,932500	0,1	0,363488
0,934167	0,1	0,353351
0,935833	0,1	0,360377
0,937500	0,1	0,342754
0,939167	0,1	0,362617
0,940833	0,1	0,351779
0,942500	0,1	0,342979
0,944167	0,1	0,359605
0,945833	0,1	0,362819
0,947500	0,1	0,392607
0,949167	0,1	0,365268
0,950833	0,1	0,350205
0,952500	0,1	0,395947
0,954167	0,1	0,386964
0,955833	0,1	0,372195
0,957500	0,1	0,377073
0,959167	0,1	0,360219
0,960833	0,1	0,395399
0,962500	0,1	0,413322
0,964167	0,1	0,403471
0,965833	0,1	0,381857
0,967500	0,1	0,379962
0,969167	0,1	0,379353
0,970833	0,1	0,408090
0,972500	0,1	0,406713
0,974167	0,1	0,403502
0,975833	0,1	0,391488
0,977500	0,1	0,409081
0,979167	0,1	0,419359
0,980833	0,1	0,428993
0,982500	0,1	0,415060
0,984167	0,1	0,442544
0,985833	0,1	0,453498
0,987500	0,1	0,450868
0,989167	0,1	0,415292
0,990833	0,1	0,478117
0,992500	0,1	0,448271
0,994167	0,1	0,484901
0,995833	0,1	0,417932
0,997500	0,1	0,444758
0,999167	0,1	0,433302
1,000833	0,1	0,469709
1,002500	0,1	0,481437
1,004167	0,1	0,500931
1,005833	0,1	0,517633
1,007500	0,1	0,514138
1,009167	0,1	0,518569
1,010833	0,1	0,538672
1,012500	0,1	0,555633
1,014167	0,1	0,558720
1,015833	0,1	0,581169
1,017500	0,1	0,592833
1,019167	0,1	0,557604
1,020833	0,1	0,565687
1,022500	0,1	0,643671
1,024167	0,1	0,582667
1,025833	0,1	0,665619
1,027500	0,1	0,598409
1,029167	0,1	0,633695
1,030833	0,1	0,678508
1,032500	0,1	0,663909
1,034167	0,1	0,666151
1,035833	0,1	0,679766
1,037500	0,1	0,658285
1,039167	0,1	0,670841
1,040833	0,1	0,718390
1,042500	0,1	0,729416
1,044167	0,1	0,745708
1,045833	0,1	0,740346
1,047500	0,1	0,766821
1,049167	0,1	0,789635
1,050833	0,1	0,843914
1,052500	0,1	0,841291
1,054167	0,1	0,898913
1,055833	0,1	0,943282
1,057500	0,1	0,966190
1,059167	0,1	1,074239
1,060833	0,1	1,176569
1,062500	0,1	1,342389
1,064167	0,1	1,527835
1,065833	0,1	1,802989
1,067500	0,1	2,111634
1,069167	0,1	2,482005
1,070833	0,1	3,035411
1,072500	0,1	3,623746
1,074167	0,1	4,423987
1,075833	0,1	5,290708
1,077500	0,1	6,358996
1,079167	0,1	7,670136
1,080833	0,1	9,110505
1,082500	0,1	10,732191
1,084167	0,1	12,615718
1,085833	0,1	14,624090
1,087500	0,1	16,837867
1,089167	0,1	19,175774
1,090833	0,1	21,658383
1,092500	0,1	24,259754
1,094167	0,1	26,960915
1,095833	0,1	29,612870
1,097500	0,1	32,304972
1,099167	0,1	34,912675
1,100833	0,1	37,448128
1,102500	0,1	39,905492
1,104167	0,1	42,101933
1,105833	0,1	44,164302
1,107500	0,1	45,942141
1,109167	0,1	47,568797
1,110833	0,1	48,954027
1,112500	0,1	50,108253
1,114167	0,1	50,971048
1,115833	0,1	51,681537
1,117500	0,1	52,101720
1,119167	0,1	52,404336
1,120833	0,1	52,535540
1,122500	0,1	52,413125
1,124167	0,1	52,194479
1,125833	0,1	51,808487
1,127500	0,1	51,447665
1,129167	0,1	50,860449
1,130833	0,1	50,277332
1,132500	0,1	49,684657
1,134167	0,1	49,067008
1,135833	0,1	48,403228
1,137500	0,1	47,748788
1,139167	0,1	47,115500
1,140833	0,1	46,538564
1,142500	0,1	45,980245
1,144167	0,1	45,560281
1,145833	0,1	45,167970
1,147500	0,1	44,905100
1,149167	0,1	44,615103
1,150833	0,1	44,534196
1,152500	0,1	44,485505
1,154167	0,1	44,589926
1,155833	0,1	44,752438
1,157500	0,1	44,983591
1,159167	0,1	45,287978
1,160833	0,1	45,664849
1,162500	0,1	46,126014
1,164167	0,1	46,633115
1,165833	0,1	47,141517
1,167500	0,1	47,732519
1,169167	0,1	48,325119
1,170833	0,1	48,872888
1,172500	0,1	49,453431
1,174167	0,1	50,073984
1,175833	0,1	50,533365
1,177500	0,1	51,035869
1,179167	0,1	51,430768
1,180833	0,1	51,868826
1,182500	0,1	52,172457
1,184167	0,1	52,487182
1,185833	0,1	52,695267
1,187500	0,1	52,909840
1,189167	0,1	53,048199
1,190833	0,1	53,162557
1,192500	0,1	53,237785
1,194167	0,1	53,378059
1,195833	0,1	53,460503
1,197500	0,1	53,595484
1,199167	0,1	53,759558
1,200833	0,1	54,035352
1,202500	0,1	54,439945
1,204167	0,1	54,980959
1,205833	0,1	55,582179
1,207500	0,1	56,468124
1,209167	0,1	57,547754
1,210833	0,1	58,806979
1,212500	0,1	60,273726
1,214167	0,1	61,940732
1,215833	0,1	63,957726
1,217500	0,1	66,137104
1,219167	0,1	68,572221
1,220833	0,1	71,195778
1,222500	0,1	73,956936
1,224167	0,1	76,932140
1,225833	0,1	80,012164
1,227500	0,1	83,186167
1,229167	0,1	86,401315
1,230833	0,1	89,653189
1,232500	0,1	92,921709
1,234167	0,1	96,083310
1,235833	0,1	99,154637
1,237500	0,1	102,075713
1,239167	0,1	104,910335
1,240833	0,1	107,494816
1,242500	0,1	109,945855
1,244167	0,1	112,057583
1,245833	0,1	113,993557
1,247500	0,1	115,686942
1,249167	0,1	117,080252
1,250833	0,1	118,300783
1,252500	0,1	119,120278
1,254167	0,1	119,836642
1,255833	0,1	120,226075
1,257500	0,1	120,293014
1,259167	0,1	120,191851
1,260833	0,1	119,829792
1,262500	0,1	119,192710
1,264167	0,1	118,317244
1,265833	0,1	117,308312
1,267500	0,1	116,050787
1,269167	0,1	114,558003
1,270833	0,1	112,928982
1,272500	0,1	111,157111
1,274167	0,1	109,208892
1,275833	0,1	107,130605
1,277500	0,1	104,878882
1,279167	0,1	102,611578
1,280833	0,1	100,166834
1,282500	0,1	97,713108
1,284167	0,1	95,216974
1,285833	0,1	92,687014
1,287500	0,1	90,086738
1,289167	0,1	87,483563
1,290833	0,1	84,936602
1,292500	0,1	82,331127
1,294167	0,1	79,794332
1,295833	0,1	77,274591
1,297500	0,1	74,797854
1,299167	0,1	72,396885
1,300833	0,1	70,021462
1,302500	0,1	67,769041
1,304167	0,1	65,546411
1,305833	0,1	63,398187
1,307500	0,1	61,341431
1,309167	0,1	59,326215
1,310833	0,1	57,410241
1,312500	0,1	55,592118
1,314167	0,1	53,786585
1,315833	0,1	52,130332
1,317500	0,1	50,478636
1,319167	0,1	48,972406
1,320833	0,1	47,470131
1,322500	0,1	46,038974
1,324167	0,1	44,654746
1,325833	0,1	43,409789
1,327500	0,1	42,136026
1,329167	0,1	40,952237
1,330833	0,1	39,795087
1,332500	0,1	38,642703
1,334167	0,1	37,602638
1,335833	0,1	36,609108
1,337500	0,1	35,637298
1,339167	0,1	34,708727
1,340833	0,1	33,776539
1,342500	0,1	32,877060
1,344167	0,1	32,070011
1,345833	0,1	31,243974
1,347500	0,1	30,429141
1,349167	0,1	29,649509
1,350833	0,1	28,946570
1,352500	0,1	28,190320
1,354167	0,1	27,539110
1,355833	0,1	26,856530
1,357500	0,1	26,213519
1,359167	0,1	25,524980
1,360833	0,1	24,916090
1,362500	0,1	24,318705
1,364167	0,1	23,755673
1,365833	0,1	23,194665
1,367500	0,1	22,611535
1,369167	0,1	22,046669
1,370833	0,1	21,540932
1,372500	0,1	21,038862
1,374167	0,1	20,566845
1,375833	0,1	20,064035
1,377500	0,1	19,612314
1,379167	0,1	19,163109
1,380833	0,1	18,707110
1,382500	0,1	18,244278
1,384167	0,1	17,858021
1,385833	0,1	17,440246
1,387500	0,1	17,007285
1,389167	0,1	16,690401
1,390833	0,1	16,321865
1,392500	0,1	15,951758
1,394167	0,1	15,578111
1,395833	0,1	15,234794
1,397500	0,1	14,928700
1,399167	0,1	14,657678
1,400833	0,1	14,311818
1,402500	0,1	14,039343
1,404167	0,1	13,704890
1,405833	0,1	13,507771
1,407500	0,1	13,234095
1,409167	0,1	12,992923
1,410833	0,1	12,728539
1,412500	0,1	12,499730
1,414167	0,1	12,282125
1,415833	0,1	12,095563
1,417500	0,1	11,884353
1,419167	0,1	11,685844
1,420833	0,1	11,477869
1,422500	0,1	11,242955
1,424167	0,1	11,105440
1,425833	0,1	10,924715
1,427500	0,1	10,748628
1,429167	0,1	10,593048
1,430833	0,1	10,452918
1,432500	0,1	10,321053
1,434167	0,1	10,139760
1,435833	0,1	10,001470
1,437500	0,1	9,866472
1,439167	0,1	9,731158
1,440833	0,1	9,583800
1,442500	0,1	9,415229
1,444167	0,1	9,311211
1,445833	0,1	9,217135
1,447500	0,1	9,053675
1,449167	0,1	8,963577
1,450833	0,1	8,887658
1,452500	0,1	8,760686
1,454167	0,1	8,637394
1,455833	0,1	8,530491
1,457500	0,1	8,410942
1,459167	0,1	8,340366
1,460833	0,1	8,274329
1,462500	0,1	8,114584
1,464167	0,1	8,097946
1,465833	0,1	7,959348
1,467500	0,1	7,924467
1,469167	0,1	7,841697
1,470833	0,1	7,811077
1,472500	0,1	7,721350
1,474167	0,1	7,672606
1,475833	0,1	7,612368
1,477500	0,1	7,537669
1,479167	0,1	7,543048
1,480833	0,1	7,453733
1,482500	0,1	7,454650
1,484167	0,1	7,424710
1,485833	0,1	7,391722
1,487500	0,1	7,345759
1,489167	0,1	7,349283
1,490833	0,1	7,315553
1,492500	0,1	7,307991
1,494167	0,1	7,264473
1,495833	0,1	7,295584
1,497500	0,1	7,337059
1,499167	0,1	7,330372
1,500833	0,1	7,315450
1,502500	0,1	7,315828
1,504167	0,1	7,366902
1,505833	0,1	7,311176
1,507500	0,1	7,348433
1,509167	0,1	7,379296
1,510833	0,1	7,399434
1,512500	0,1	7,359928
1,514167	0,1	7,367933
1,515833	0,1	7,389182
1,517500	0,1	7,412961
1,519167	0,1	7,399637
1,520833	0,1	7,412691
1,522500	0,1	7,422850
1,524167	0,1	7,427888
1,525833	0,1	7,369437
1,527500	0,1	7,408394
1,529167	0,1	7,373628
1,530833	0,1	7,446229
1,532500	0,1	7,393032
1,534167	0,1	7,367377
1,535833	0,1	7,433924
1,537500	0,1	7,379320
1,539167	0,1	7,334022
1,540833	0,1	7,328414
1,542500	0,1	7,338371
1,544167	0,1	7,294023
1,545833	0,1	7,244531
1,547500	0,1	7,278902
1,549167	0,1	7,272840
1,550833	0,1	7,196912
1,552500	0,1	7,188885
1,554167	0,1	7,140156
1,555833	0,1	7,104745
1,557500	0,1	7,064407
1,559167	0,1	7,074456
1,560833	0,1	7,035338
1,562500	0,1	7,026015
1,564167	0,1	6,974514
1,565833	0,1	6,957461
1,567500	0,1	6,924585
1,569167	0,1	6,853634
1,570833	0,1	6,807536
1,572500	0,1	6,744696
1,574167	0,1	6,756503
1,575833	0,1	6,708760
1,577500	0,1	6,687251
1,579167	0,1	6,640518
1,580833	0,1	6,620246
1,582500	0,1	6,590366
1,584167	0,1	6,535195
1,585833	0,1	6,537772
1,587500	0,1	6,510059
1,589167	0,1	6,442337
1,590833	0,1	6,367355
1,592500	0,1	6,388096
1,594167	0,1	6,312026
1,595833	0,1	6,275639
1,597500	0,1	6,243113
1,599167	0,1	6,236485
1,600833	0,1	6,188355
1,602500	0,1	6,135070
1,604167	0,1	6,095385
1,605833	0,1	6,067657
1,607500	0,1	5,996101
1,609167	0,1	5,983237
1,610833	0,1	5,954857
1,612500	0,1	5,933994
1,614167	0,1	5,865605
1,615833	0,1	5,842287
1,617500	0,1	5,822741
1,619167	0,1	5,811210
1,620833	0,1	5,771428
1,622500	0,1	5,712801
1,624167	0,1	5,676807
1,625833	0,1	5,659686
1,627500	0,1	5,648199
1,629167	0,1	5,631515
1,630833	0,1	5,561099
1,632500	0,1	5,539121
1,634167	0,1	5,484389
1,635833	0,1	5,483837
1,637500	0,1	5,437737
1,639167	0,1	5,447430
1,640833	0,1	5,412263
1,642500	0,1	5,373788
1,644167	0,1	5,336675
1,645833	0,1	5,338895
1,647500	0,1	5,314110
1,649167	0,1	5,278670
1,650833	0,1	5,246931
1,652500	0,1	5,269649
1,654167	0,1	5,244615
1,655833	0,1	5,218324
1,657500	0,1	5,228567
1,659167	0,1	5,230886
1,660833	0,1	5,264445
1,662500	0,1	5,235013
1,664167	0,1	5,220894
1,665833	0,1	5,236898
1,667500	0,1	5,252792
1,669167	0,1	5,239921
1,670833	0,1	5,278619
1,672500	0,1	5,311326
1,674167	0,1	5,372857
1,675833	0,1	5,357677
1,677500	0,1	5,435736
1,679167	0,1	5,498076
1,680833	0,1	5,494062
1,682500	0,1	5,579822
1,684167	0,1	5,637200
1,685833	0,1	5,727572
1,687500	0,1	5,806532
1,689167	0,1	5,900544
1,690833	0,1	5,989557
1,692500	0,1	6,095617
1,694167	0,1	6,210816
1,695833	0,1	6,310940
1,697500	0,1	6,425913
1,699167	0,1	6,572644
1,700833	0,1	6,709371
1,702500	0,1	6,826956
1,704167	0,1	6,955377
1,705833	0,1	7,085142
1,707500	0,1	7,237502
1,709167	0,1	7,406487
1,710833	0,1	7,519153
1,712500	0,1	7,646962
1,714167	0,1	7,812375
1,715833	0,1	7,965078
1,717500	0,1	8,132861
1,719167	0,1	8,310737
1,720833	0,1	8,432926
1,722500	0,1	8,570450
1,724167	0,1	8,681520
1,725833	0,1	8,827578
1,727500	0,1	8,937809
1,729167	0,1	9,081436
1,730833	0,1	9,149076
1,732500	0,1	9,332429
1,734167	0,1	9,394325
1,735833	0,1	9,485013
1,737500	0,1	9,582429
1,739167	0,1	9,651210
1,740833	0,1	9,714473
1,742500	0,1	9,794546
1,744167	0,1	9,852326
1,745833	0,1	9,914702
1,747500	0,1	9,942245
1,749167	0,1	9,960480
1,750833	0,1	9,979137
1,752500	0,1	9,996164
1,754167	0,1	10,033415
1,755833	0,1	10,039348
1,757500	0,1	10,044494
1,759167	0,1	10,031413
1,760833	0,1	9,981229
1,762500	0,1	9,943610
1,764167	0,1	9,945445
1,765833	0,1	9,886550
1,767500	0,1	9,828028
1,769167	0,1	9,795780
1,770833	0,1	9,709892
1,772500	0,1	9,629953
1,774167	0,1	9,614074
1,775833	0,1	9,541119
1,777500	0,1	9,471281
1,779167	0,1	9,371177
1,780833	0,1	9,300300
1,782500	0,1	9,198060
1,784167	0,1	9,086043
1,785833	0,1	9,029042
1,787500	0,1	8,920513
1,789167	0,1	8,814395
1,790833	0,1	8,701916
1,792500	0,1	8,653412
1,794167	0,1	8,543479
1,795833	0,1	8,372324
1,797500	0,1	8,278796
1,799167	0,1	8,156501
1,800833	0,1	8,049794
1,802500	0,1	7,920251
1,804167	0,1	7,834318
1,805833	0,1	7,733579
1,807500	0,1	7,611261
1,809167	0,1	7,509874
1,810833	0,1	7,418583
1,812500	0,1	7,289000
1,814167	0,1	7,177544
1,815833	0,1	7,051757
1,817500	0,1	6,943699
1,819167	0,1	6,821984
1,820833	0,1	6,734278
1,822500	0,1	6,583308
1,824167	0,1	6,546815
1,825833	0,1	6,383853
1,827500	0,1	6,344017
1,829167	0,1	6,203973
1,830833	0,1	6,084609
1,832500	0,1	6,036622
1,834167	0,1	5,954944
1,835833	0,1	5,852043
1,837500	0,1	5,750306
1,839167	0,1	5,657126
1,840833	0,1	5,626319
1,842500	0,1	5,538464
1,844167	0,1	5,477876
1,845833	0,1	5,434574
1,847500	0,1	5,378474
1,849167	0,1	5,339445
1,850833	0,1	5,334043
1,852500	0,1	5,300410
1,854167	0,1	5,298847
1,855833	0,1	5,283410
1,857500	0,1	5,287080
1,859167	0,1	5,283602
1,860833	0,1	5,264037
1,862500	0,1	5,311494
1,864167	0,1	5,312093
1,865833	0,1	5,334712
1,867500	0,1	5,369160
1,869167	0,1	5,391399
1,870833	0,1	5,415092
1,872500	0,1	5,479122
1,874167	0,1	5,458609
1,875833	0,1	5,494678
1,877500	0,1	5,534924
1,879167	0,1	5,570019
1,880833	0,1	5,552701
1,882500	0,1	5,626013
1,884167	0,1	5,595188
1,885833	0,1	5,641707
1,887500	0,1	5,634333
1,889167	0,1	5,685821
1,890833	0,1	5,703360
1,892500	0,1	5,731333
1,894167	0,1	5,706058
1,895833	0,1	5,745439
1,897500	0,1	5,724397
1,899167	0,1	5,761744
1,900833	0,1	5,800407
1,902500	0,1	5,808500
1,904167	0,1	5,786167
1,905833	0,1	5,851421
1,907500	0,1	5,869466
1,909167	0,1	5,864445
1,910833	0,1	5,869684
1,912500	0,1	5,947276
1,914167	0,1	5,916184
1,915833	0,1	5,932169
1,917500	0,1	5,921962
1,919167	0,1	5,948943
1,920833	0,1	5,956503
1,922500	0,1	5,955735
1,924167	0,1	5,973413
1,925833	0,1	5,976509
1,927500	0,1	5,931341
1,929167	0,1	6,010834
1,930833	0,1	5,982797
1,932500	0,1	5,959483
1,934167	0,1	5,992292
1,935833	0,1	6,014751
1,937500	0,1	5,978351
1,939167	0,1	5,980661
1,940833	0,1	5,990625
1,942500	0,1	5,978818
1,944167	0,1	5,962703
1,945833	0,1	5,984294
1,947500	0,1	5,925947
1,949167	0,1	5,960311
1,950833	0,1	5,973592
1,952500	0,1	5,947093
1,954167	0,1	5,963673
1,955833	0,1	5,958089
1,957500	0,1	5,945450
1,959167	0,1	5,956799
1,960833	0,1	5,930934
1,962500	0,1	5,989299
1,964167	0,1	5,983739
1,965833	0,1	5,981684
1,967500	0,1	5,992192
1,969167	0,1	5,985040
1,970833	0,1	5,996732
1,972500	0,1	6,016158
1,974167	0,1	5,953727
1,975833	0,1	6,036607
1,977500	0,1	5,994084
1,979167	0,1	6,044968
1,980833	0,1	6,055375
1,982500	0,1	6,036853
1,984167	0,1	6,100004
1,985833	0,1	6,086981
1,987500	0,1	6,114595
1,989167	0,1	6,127052
1,990833	0,1	6,165634
1,992500	0,1	6,144530
1,994167	0,1	6,180961
1,995833	0,1	6,234608
1,997500	0,1	6,238448
1,999167	0,1	6,263368
2,000833	0,1	6,269388
2,002500	0,1	6,300822
2,004167	0,1	6,374420
2,005833	0,1	6,407908
2,007500	0,1	6,398133
2,009167	0,1	6,450765
2,010833	0,1	6,485583
2,012500	0,1	6,458971
2,014167	0,1	6,541297
2,015833	0,1	6,545028
2,017500	0,1	6,551091
2,019167	0,1	6,576017
2,020833	0,1	6,641250
2,022500	0,1	6,662760
2,024167	0,1	6,694406
2,025833	0,1	6,698965
2,027500	0,1	6,772594
2,029167	0,1	6,805652
2,030833	0,1	6,832378
2,032500	0,1	6,890385
2,034167	0,1	6,926153
2,035833	0,1	6,922344
2,037500	0,1	6,980821
2,039167	0,1	7,008214
2,040833	0,1	7,053485
2,042500	0,1	7,102116
2,044167	0,1	7,163424
2,045833	0,1	7,200241
2,047500	0,1	7,238733
2,049167	0,1	7,303506
2,050833	0,1	7,266159
2,052500	0,1	7,357939
2,054167	0,1	7,342029
2,055833	0,1	7,410993
2,057500	0,1	7,466204
2,059167	0,1	7,485325
2,060833	0,1	7,512184
2,062500	0,1	7,539046
2,064167	0,1	7,586416
2,065833	0,1	7,663281
2,067500	0,1	7,635791
2,069167	0,1	7,717763
2,070833	0,1	7,706234
2,072500	0,1	7,755571
2,074167	0,1	7,785793
2,075833	0,1	7,854281
2,077500	0,1	7,840219
2,079167	0,1	7,887355
2,080833	0,1	7,915833
2,082500	0,1	7,926931
2,084167	0,1	7,972946
2,085833	0,1	8,051860
2,087500	0,1	8,011411
2,089167	0,1	8,059103
2,090833	0,1	8,050553
2,092500	0,1	8,108583
2,094167	0,1	8,172732
2,095833	0,1	8,132552
2,097500	0,1	8,196975
2,099167	0,1	8,183228
2,100833	0,1	8,229200
2,102500	0,1	8,230733
2,104167	0,1	8,227465
2,105833	0,1	8,261801
2,107500	0,1	8,282353
2,109167	0,1	8,286758
2,110833	0,1	8,318678
2,112500	0,1	8,337174
2,114167	0,1	8,321663
2,115833	0,1	8,325246
2,117500	0,1	8,359725
2,119167	0,1	8,397288
2,120833	0,1	8,395136
2,122500	0,1	8,407283
2,124167	0,1	8,379145
2,125833	0,1	8,397492
2,127500	0,1	8,392421
2,129167	0,1	8,404667
2,130833	0,1	8,415688
2,132500	0,1	8,426966
2,134167	0,1	8,373880
2,135833	0,1	8,425215
2,137500	0,1	8,412722
2,139167	0,1	8,368625
2,140833	0,1	8,400282
2,142500	0,1	8,372507
2,144167	0,1	8,410372
2,145833	0,1	8,371398
2,147500	0,1	8,381993
2,149167	0,1	8,345293
2,150833	0,1	8,346573
2,152500	0,1	8,384738
2,154167	0,1	8,297559
2,155833	0,1	8,282719
2,157500	0,1	8,323353
2,159167	0,1	8,289362
2,160833	0,1	8,264411
2,162500	0,1	8,244750
2,164167	0,1	8,228936
2,165833	0,1	8,225030
2,167500	0,1	8,223504
2,169167	0,1	8,179430
2,170833	0,1	8,170233
2,172500	0,1	8,143777
2,174167	0,1	8,124129
2,175833	0,1	8,090237
2,177500	0,1	8,101585
2,179167	0,1	8,032462
2,180833	0,1	8,036254
2,182500	0,1	7,995840
2,184167	0,1	7,986848
2,185833	0,1	7,973584
2,187500	0,1	7,947963
2,189167	0,1	7,923757
2,190833	0,1	7,903150
2,192500	0,1	7,887623
2,194167	0,1	7,838268
2,195833	0,1	7,821008
2,197500	0,1	7,830691
2,199167	0,1	7,812671
2,200833	0,1	7,779856
2,202500	0,1	7,802296
2,204167	0,1	7,723006
2,205833	0,1	7,705658
2,207500	0,1	7,733999
2,209167	0,1	7,651123
2,210833	0,1	7,657525
2,212500	0,1	7,645198
2,214167	0,1	7,637564
2,215833	0,1	7,571245
2,217500	0,1	7,607217
2,219167	0,1	7,561436
2,220833	0,1	7,553141
2,222500	0,1	7,543061
2,224167	0,1	7,543909
2,225833	0,1	7,518438
2,227500	0,1	7,522539
2,229167	0,1	7,522629
2,230833	0,1	7,502874
2,232500	0,1	7,483656
2,234167	0,1	7,433965
2,235833	0,1	7,446542
2,237500	0,1	7,419885
2,239167	0,1	7,465994
2,240833	0,1	7,387734
2,242500	0,1	7,433652
2,244167	0,1	7,410387
2,245833	0,1	7,389291
2,247500	0,1	7,409704
2,249167	0,1	7,377179
2,250833	0,1	7,385565
2,252500	0,1	7,441210
2,254167	0,1	7,354736
2,255833	0,1	7,376236
2,257500	0,1	7,380903
2,259167	0,1	7,388627
2,260833	0,1	7,349588
2,262500	0,1	7,352550
2,264167	0,1	7,367374
2,265833	0,1	7,341186
2,267500	0,1	7,311542
2,269167	0,1	7,280970
2,270833	0,1	7,311150
2,272500	0,1	7,298957
2,274167	0,1	7,292345
2,275833	0,1	7,290655
2,277500	0,1	7,262988
2,279167	0,1	7,209955
2,280833	0,1	7,259506
2,282500	0,1	7,256537
2,284167	0,1	7,206973
2,285833	0,1	7,224665
2,287500	0,1	7,171090
2,289167	0,1	7,148164
2,290833	0,1	7,137260
2,292500	0,1	7,103069
2,294167	0,1	7,121873
2,295833	0,1	7,085647
2,297500	0,1	7,090946
2,299167	0,1	7,078467
2,300833	0,1	7,045400
2,302500	0,1	7,031328
2,304167	0,1	7,053211
2,305833	0,1	7,029466
2,307500	0,1	6,978799
2,309167	0,1	6,963980
2,310833	0,1	6,963975
2,312500	0,1	6,937620
2,314167	0,1	6,911359
2,315833	0,1	6,887330
2,317500	0,1	6,899245
2,319167	0,1	6,859774
2,320833	0,1	6,844587
2,322500	0,1	6,811074
2,324167	0,1	6,821676
2,325833	0,1	6,795429
2,327500	0,1	6,784900
2,329167	0,1	6,752412
2,330833	0,1	6,735562
2,332500	0,1	6,730346
2,334167	0,1	6,663993
2,335833	0,1	6,668991
2,337500	0,1	6,682315
2,339167	0,1	6,677468
2,340833	0,1	6,611022
2,342500	0,1	6,615559
2,344167	0,1	6,607938
2,345833	0,1	6,565884
2,347500	0,1	6,538801
2,349167	0,1	6,527067
2,350833	0,1	6,531909
2,352500	0,1	6,494891
2,354167	0,1	6,544189
2,355833	0,1	6,487105
2,357500	0,1	6,455706
2,359167	0,1	6,452822
2,360833	0,1	6,435813
2,362500	0,1	6,421929
2,364167	0,1	6,413653
2,365833	0,1	6,438861
2,367500	0,1	6,390980
2,369167	0,1	6,389403
2,370833	0,1	6,378600
2,372500	0,1	6,366970
2,374167	0,1	6,380446
2,375833	0,1	6,368724
2,377500	0,1	6,364815
2,379167	0,1	6,376551
2,380833	0,1	6,389374
2,382500	0,1	6,414123
2,384167	0,1	6,368450
2,385833	0,1	6,414037
2,387500	0,1	6,440921
2,389167	0,1	6,431911
2,390833	0,1	6,497480
2,392500	0,1	6,511161
2,394167	0,1	6,510886
2,395833	0,1	6,559726
2,397500	0,1	6,618540
2,399167	0,1	6,659783
2,400833	0,1	6,716650
2,402500	0,1	6,757615
2,404167	0,1	6,863276
2,405833	0,1	6,874843
2,407500	0,1	6,968424
2,409167	0,1	7,067541
2,410833	0,1	7,196022
2,412500	0,1	7,260060
2,414167	0,1	7,377879
2,415833	0,1	7,508969
2,417500	0,1	7,637416
2,419167	0,1	7,744067
2,420833	0,1	7,873964
2,422500	0,1	7,978842
2,424167	0,1	8,181135
2,425833	0,1	8,350476
2,427500	0,1	8,492502
2,429167	0,1	8,702819
2,430833	0,1	8,854260
2,432500	0,1	9,032804
2,434167	0,1	9,219272
2,435833	0,1	9,408346
2,437500	0,1	9,667657
2,439167	0,1	9,830685
2,440833	0,1	10,045255
2,442500	0,1	10,199810
2,444167	0,1	10,426421
2,445833	0,1	10,659474
2,447500	0,1	10,867812
2,449167	0,1	11,031945
2,450833	0,1	11,278122
2,452500	0,1	11,457172
2,454167	0,1	11,649165
2,455833	0,1	11,866907
2,457500	0,1	11,997931
2,459167	0,1	12,189440
2,460833	0,1	12,361584
2,462500	0,1	12,473033
2,464167	0,1	12,684279
2,465833	0,1	12,848757
2,467500	0,1	12,963720
2,469167	0,1	13,128649
2,470833	0,1	13,283699
2,472500	0,1	13,413225
2,474167	0,1	13,562675
2,475833	0,1	13,682346
2,477500	0,1	13,727428
2,479167	0,1	13,838746
2,480833	0,1	13,969650
2,482500	0,1	14,111484
2,484167	0,1	14,193981
2,485833	0,1	14,289310
2,487500	0,1	14,377100
2,489167	0,1	14,467180
2,490833	0,1	14,584578
2,492500	0,1	14,688373
2,494167	0,1	14,746679
2,495833	0,1	14,839856
2,497500	0,1	14,976520
2,499167	0,1	15,084131
2,500833	0,1	15,201861
2,502500	0,1	15,299545
2,504167	0,1	15,410289
2,505833	0,1	15,523854
2,507500	0,1	15,667906
2,509167	0,1	15,777419
2,510833	0,1	15,924749
2,512500	0,1	16,112605
2,514167	0,1	16,299755
2,515833	0,1	16,450872
2,517500	0,1	16,632423
2,519167	0,1	16,801792
2,520833	0,1	17,000336
2,522500	0,1	17,220748
2,524167	0,1	17,403403
2,525833	0,1	17,698123
2,527500	0,1	17,901261
2,529167	0,1	18,153974
2,530833	0,1	18,391523
2,532500	0,1	18,641098
2,534167	0,1	18,921680
2,535833	0,1	19,180073
2,537500	0,1	19,485026
2,539167	0,1	19,774779
2,540833	0,1	20,069006
2,542500	0,1	20,372698
2,544167	0,1	20,653819
2,545833	0,1	20,991977
2,547500	0,1	21,295023
2,549167	0,1	21,594292
2,550833	0,1	21,897596
2,552500	0,1	22,225515
2,554167	0,1	22,498539
2,555833	0,1	22,815902
2,557500	0,1	23,116360
2,559167	0,1	23,421317
2,560833	0,1	23,696009
2,562500	0,1	24,021294
2,564167	0,1	24,283985
2,565833	0,1	24,515164
2,567500	0,1	24,759316
2,569167	0,1	25,069919
2,570833	0,1	25,307210
2,572500	0,1	25,510411
2,574167	0,1	25,723039
2,575833	0,1	25,916536
2,577500	0,1	26,110254
2,579167	0,1	26,311558
2,580833	0,1	26,466359
2,582500	0,1	26,617744
2,584167	0,1	26,757079
2,585833	0,1	26,911555
2,587500	0,1	26,987420
2,589167	0,1	27,148194
2,590833	0,1	27,171450
2,592500	0,1	27,243785
2,594167	0,1	27,288198
2,595833	0,1	27,323856
2,597500	0,1	27,355913
2,599167	0,1	27,397721
2,600833	0,1	27,396609
2,602500	0,1	27,386547
2,604167	0,1	27,361266
2,605833	0,1	27,330399
2,607500	0,1	27,296418
2,609167	0,1	27,238102
2,610833	0,1	27,158247
2,612500	0,1	27,085477
2,614167	0,1	27,005342
2,615833	0,1	26,921917
2,617500	0,1	26,760475
2,619167	0,1	26,664326
2,620833	0,1	26,539132
2,622500	0,1	26,414065
2,624167	0,1	26,270378
2,625833	0,1	26,131985
2,627500	0,1	25,923843
2,629167	0,1	25,724860
2,630833	0,1	25,585017
2,632500	0,1	25,364749
2,634167	0,1	25,188051
2,635833	0,1	25,016212
2,637500	0,1	24,791590
2,639167	0,1	24,598462
2,640833	0,1	24,349943
2,642500	0,1	24,165873
2,644167	0,1	23,912258
2,645833	0,1	23,672753
2,647500	0,1	23,430087
2,649167	0,1	23,156250
2,650833	0,1	22,956464
2,652500	0,1	22,698824
2,654167	0,1	22,432103
2,655833	0,1	22,224924
2,657500	0,1	21,903081
2,659167	0,1	21,623845
2,660833	0,1	21,416875
2,662500	0,1	21,169658
2,664167	0,1	20,847944
2,665833	0,1	20,612382
2,667500	0,1	20,293241
2,669167	0,1	20,026825
2,670833	0,1	19,715725
2,672500	0,1	19,482630
2,674167	0,1	19,195817
2,675833	0,1	18,977680
2,677500	0,1	18,646973
2,679167	0,1	18,370667
2,680833	0,1	18,112950
2,682500	0,1	17,841708
2,684167	0,1	17,551890
2,685833	0,1	17,265445
2,687500	0,1	16,964540
2,689167	0,1	16,729083
2,690833	0,1	16,456841
2,692500	0,1	16,134046
2,694167	0,1	15,923373
2,695833	0,1	15,669332
2,697500	0,1	15,387113
2,699167	0,1	15,148786
2,700833	0,1	14,856282
2,702500	0,1	14,658501
2,704167	0,1	14,419500
2,705833	0,1	14,180087
2,707500	0,1	13,959440
2,709167	0,1	13,661896
2,710833	0,1	13,450388
2,712500	0,1	13,200260
2,714167	0,1	12,982671
2,715833	0,1	12,811709
2,717500	0,1	12,560833
2,719167	0,1	12,368009
2,720833	0,1	12,157552
2,722500	0,1	11,928573
2,724167	0,1	11,764677
2,725833	0,1	11,522383
2,727500	0,1	11,365442
2,729167	0,1	11,191585
2,730833	0,1	10,981046
2,732500	0,1	10,809246
2,734167	0,1	10,676275
2,735833	0,1	10,508304
2,737500	0,1	10,284127
2,739167	0,1	10,154795
2,740833	0,1	9,990299
2,742500	0,1	9,803923
2,744167	0,1	9,669969
2,745833	0,1	9,516796
2,747500	0,1	9,341383
2,749167	0,1	9,246592
2,750833	0,1	9,066997
2,752500	0,1	8,919227
2,754167	0,1	8,834865
2,755833	0,1	8,671867
2,757500	0,1	8,543606
2,759167	0,1	8,467847
2,760833	0,1	8,294192
2,762500	0,1	8,207421
2,764167	0,1	8,091941
2,765833	0,1	7,923068
2,767500	0,1	7,840889
2,769167	0,1	7,705599
2,770833	0,1	7,623868
2,772500	0,1	7,548020
2,774167	0,1	7,404339
2,775833	0,1	7,322370
2,777500	0,1	7,243139
2,779167	0,1	7,115296
2,780833	0,1	7,031903
2,782500	0,1	6,888756
2,784167	0,1	6,857721
2,785833	0,1	6,703940
2,787500	0,1	6,659148
2,789167	0,1	6,609160
2,790833	0,1	6,492965
2,792500	0,1	6,452824
2,794167	0,1	6,375360
2,795833	0,1	6,264141
2,797500	0,1	6,169468
2,799167	0,1	6,129388
2,800833	0,1	6,032524
2,802500	0,1	5,955841
2,804167	0,1	5,921035
2,805833	0,1	5,833689
2,807500	0,1	5,755445
2,809167	0,1	5,681911
2,810833	0,1	5,675132
2,812500	0,1	5,582874
2,814167	0,1	5,501985
2,815833	0,1	5,472280
2,817500	0,1	5,398371
2,819167	0,1	5,323496
2,820833	0,1	5,278980
2,822500	0,1	5,184070
2,824167	0,1	5,130055
2,825833	0,1	5,094738
2,827500	0,1	5,018066
2,829167	0,1	4,953916
2,830833	0,1	4,940336
2,832500	0,1	4,884455
2,834167	0,1	4,811759
2,835833	0,1	4,734313
2,837500	0,1	4,717233
2,839167	0,1	4,649214
2,840833	0,1	4,586558
2,842500	0,1	4,573742
2,844167	0,1	4,532143
2,845833	0,1	4,474917
2,847500	0,1	4,411643
2,849167	0,1	4,400808
2,850833	0,1	4,281472
2,852500	0,1	4,301161
2,854167	0,1	4,225778
2,855833	0,1	4,212848
2,857500	0,1	4,177222
2,859167	0,1	4,076385
2,860833	0,1	4,100407
2,862500	0,1	4,066334
2,864167	0,1	3,997536
2,865833	0,1	3,955635
2,867500	0,1	3,934752
2,869167	0,1	3,897363
2,870833	0,1	3,866869
2,872500	0,1	3,815878
2,874167	0,1	3,805432
2,875833	0,1	3,737330
2,877500	0,1	3,709285
2,879167	0,1	3,659542
2,880833	0,1	3,619163
2,882500	0,1	3,627823
2,884167	0,1	3,589039
2,885833	0,1	3,527822
2,887500	0,1	3,509053
2,889167	0,1	3,481761
2,890833	0,1	3,456665
2,892500	0,1	3,397924
2,894167	0,1	3,439293
2,895833	0,1	3,375554
2,897500	0,1	3,379187
2,899167	0,1	3,307359
2,900833	0,1	3,270749
2,902500	0,1	3,297394
2,904167	0,1	3,265041
2,905833	0,1	3,208336
2,907500	0,1	3,200567
2,909167	0,1	3,173843
2,910833	0,1	3,171156
2,912500	0,1	3,135503
2,914167	0,1	3,083615
2,915833	0,1	3,069960
2,917500	0,1	3,073591
2,919167	0,1	3,003977
2,920833	0,1	2,956478
2,922500	0,1	2,994786
2,924167	0,1	2,967997
2,925833	0,1	2,956922
2,927500	0,1	2,906350
2,929167	0,1	2,899731
2,930833	0,1	2,959307
2,932500	0,1	2,909069
2,934167	0,1	2,844707
2,935833	0,1	2,858960
2,937500	0,1	2,851712
2,939167	0,1	2,814571
2,940833	0,1	2,841246
2,942500	0,1	2,792606
2,944167	0,1	2,768992
2,945833	0,1	2,761897
2,947500	0,1	2,705956
2,949167	0,1	2,757129
2,950833	0,1	2,659307
2,952500	0,1	2,666419
2,954167	0,1	2,683987
2,955833	0,1	2,656522
2,957500	0,1	2,636360
2,959167	0,1	2,585578
2,960833	0,1	2,590025
2,962500	0,1	2,613031
2,964167	0,1	2,545154
2,965833	0,1	2,575950
2,967500	0,1	2,538752
2,969167	0,1	2,559180
2,970833	0,1	2,537233
2,972500	0,1	2,528281
2,974167	0,1	2,489213
2,975833	0,1	2,489838
2,977500	0,1	2,485687
2,979167	0,1	2,483531
2,980833	0,1	2,471974
2,982500	0,1	2,461941
2,984167	0,1	2,472125
2,985833	0,1	2,419372
2,987500	0,1	2,436489
2,989167	0,1	2,446096
2,990833	0,1	2,402888
2,992500	0,1	2,416915
2,994167	0,1	2,374425
2,995833	0,1	2,397635
2,997500	0,1	2,384893
2,999167	0,1	2,386665
3,000833	0,1	2,388898
3,002500	0,1	2,356500
3,004167	0,1	2,340656
3,005833	0,1	2,342515
3,007500	0,1	2,369750
3,009167	0,1	2,333137
3,010833	0,1	2,343232
3,012500	0,1	2,286129
3,014167	0,1	2,310545
3,015833	0,1	2,333408
3,017500	0,1	2,336849
3,019167	0,1	2,319157
3,020833	0,1	2,294791
3,022500	0,1	2,254661
3,024167	0,1	2,322357
3,025833	0,1	2,278379
3,027500	0,1	2,241758
3,029167	0,1	2,289470
3,030833	0,1	2,267127
3,032500	0,1	2,258451
3,034167	0,1	2,244692
3,035833	0,1	2,252856
3,037500	0,1	2,221120
3,039167	0,1	2,243825
3,040833	0,1	2,203065
3,042500	0,1	2,221395
3,044167	0,1	2,188518
3,045833	0,1	2,226694
3,047500	0,1	2,205568
3,049167	0,1	2,198614
3,050833	0,1	2,203270
3,052500	0,1	2,230279
3,054167	0,1	2,192531
3,055833	0,1	2,164443
3,057500	0,1	2,155482
3,059167	0,1	2,151469
3,060833	0,1	2,163429
3,062500	0,1	2,155838
3,064167	0,1	2,142586
3,065833	0,1	2,151821
3,067500	0,1	2,175033
3,069167	0,1	2,182920
3,070833	0,1	2,127552
3,072500	0,1	2,154971
3,074167	0,1	2,105775
3,075833	0,1	2,119581
3,077500	0,1	2,102971
3,079167	0,1	2,147376
3,080833	0,1	2,090370
3,082500	0,1	2,090428
3,084167	0,1	2,069517
3,085833	0,1	2,062849
3,087500	0,1	2,077819
3,089167	0,1	2,091568
3,090833	0,1	2,070661
3,092500	0,1	2,056831
3,094167	0,1	2,095866
3,095833	0,1	2,056984
3,097500	0,1	2,089207
3,099167	0,1	2,069873
3,100833	0,1	2,106901
3,102500	0,1	2,059427
3,104167	0,1	2,106610
3,105833	0,1	2,043380
3,107500	0,1	2,124800
3,109167	0,1	2,106269
3,110833	0,1	2,154967
3,112500	0,1	2,161211
3,114167	0,1	2,116805
3,115833	0,1	2,154683
3,117500	0,1	2,144950
3,119167	0,1	2,156982
3,120833	0,1	2,142446
3,122500	0,1	2,142942
3,124167	0,1	2,124533
3,125833	0,1	2,211848
3,127500	0,1	2,149907
3,129167	0,1	2,206196
3,130833	0,1	2,222827
3,132500	0,1	2,207216
3,134167	0,1	2,270113
3,135833	0,1	2,256227
3,137500	0,1	2,235164
3,139167	0,1	2,233438
3,140833	0,1	2,306374
3,142500	0,1	2,321364
3,144167	0,1	2,304962
3,145833	0,1	2,327458
3,147500	0,1	2,302171
3,149167	0,1	2,286257
3,150833	0,1	2,358627
3,152500	0,1	2,349330
3,154167	0,1	2,356067
3,155833	0,1	2,379638
3,157500	0,1	2,417915
3,159167	0,1	2,394206
3,160833	0,1	2,451098
3,162500	0,1	2,458075
3,164167	0,1	2,468097
3,165833	0,1	2,424041
3,167500	0,1	2,436705
3,169167	0,1	2,458349
3,170833	0,1	2,453915
3,172500	0,1	2,477149
3,174167	0,1	2,502512
3,175833	0,1	2,540166
3,177500	0,1	2,489490
3,179167	0,1	2,494500
3,180833	0,1	2,514064
3,182500	0,1	2,499606
3,184167	0,1	2,561949
3,185833	0,1	2,523264
3,187500	0,1	2,492723
3,189167	0,1	2,506606
3,190833	0,1	2,517018
3,192500	0,1	2,530350
3,194167	0,1	2,534578
3,195833	0,1	2,543465
3,197500	0,1	2,531002
3,199167	0,1	2,505478
3,200833	0,1	2,527189
3,202500	0,1	2,504394
3,204167	0,1	2,504612
3,205833	0,1	2,520530
3,207500	0,1	2,522031
3,209167	0,1	2,491640
3,210833	0,1	2,498292
3,212500	0,1	2,490405
3,214167	0,1	2,478226
3,215833	0,1	2,483242
3,217500	0,1	2,486465
3,219167	0,1	2,484035
3,220833	0,1	2,472984
3,222500	0,1	2,449757
3,224167	0,1	2,431763
3,225833	0,1	2,388476
3,227500	0,1	2,424152
3,229167	0,1	2,422949
3,230833	0,1	2,397575
3,232500	0,1	2,389968
3,234167	0,1	2,340593
3,235833	0,1	2,361575
3,237500	0,1	2,352338
3,239167	0,1	2,340584
3,240833	0,1	2,316935
3,242500	0,1	2,347381
3,244167	0,1	2,287773
3,245833	0,1	2,272283
3,247500	0,1	2,272564
3,249167	0,1	2,267192
3,250833	0,1	2,221125
3,252500	0,1	2,227776
3,254167	0,1	2,218892
3,255833	0,1	2,190093
3,257500	0,1	2,186290
3,259167	0,1	2,201475
3,260833	0,1	2,134291
3,262500	0,1	2,152179
3,264167	0,1	2,134781
3,265833	0,1	2,099320
3,267500	0,1	2,114569
3,269167	0,1	2,077188
3,270833	0,1	2,057411
3,272500	0,1	2,065501
3,274167	0,1	2,018886
3,275833	0,1	2,006271
3,277500	0,1	1,991234
3,279167	0,1	1,980273
3,280833	0,1	1,980915
3,282500	0,1	1,943814
3,284167	0,1	1,981051
3,285833	0,1	1,929441
3,287500	0,1	1,908666
3,289167	0,1	1,896478
3,290833	0,1	1,868350
3,292500	0,1	1,879870
3,294167	0,1	1,877659
3,295833	0,1	1,808730
3,297500	0,1	1,817872
3,299167	0,1	1,801056
3,300833	0,1	1,776637
3,302500	0,1	1,754383
3,304167	0,1	1,773056
3,305833	0,1	1,740492
3,307500	0,1	1,698317
3,309167	0,1	1,742058
3,310833	0,1	1,746587
3,312500	0,1	1,699279
3,314167	0,1	1,717307
3,315833	0,1	1,666292
3,317500	0,1	1,650895
3,319167	0,1	1,646522
3,320833	0,1	1,644728
3,322500	0,1	1,626985
3,324167	0,1	1,606298
3,325833	0,1	1,622550
3,327500	0,1	1,588073
3,329167	0,1	1,570120
3,330833	0,1	1,522001
3,332500	0,1	1,581324
3,334167	0,1	1,529675
3,335833	0,1	1,524593
3,337500	0,1	1,506281
3,339167	0,1	1,517726
3,340833	0,1	1,538202
3,342500	0,1	1,480304
3,344167	0,1	1,500051
3,345833	0,1	1,475802
3,347500	0,1	1,526250
3,349167	0,1	1,484629
3,350833	0,1	1,449477
3,352500	0,1	1,461561
3,354167	0,1	1,516592
3,355833	0,1	1,436765
3,357500	0,1	1,433746
3,359167	0,1	1,416096
3,360833	0,1	1,448833
3,362500	0,1	1,424398
3,364167	0,1	1,408797
3,365833	0,1	1,399821
3,367500	0,1	1,452021
3,369167	0,1	1,411680
3,370833	0,1	1,414147
3,372500	0,1	1,361514
3,374167	0,1	1,400294
3,375833	0,1	1,367946
3,377500	0,1	1,394898
3,379167	0,1	1,329269
3,380833	0,1	1,334096
3,382500	0,1	1,356687
3,384167	0,1	1,331699
3,385833	0,1	1,376938
3,387500	0,1	1,345723
3,389167	0,1	1,340230
3,390833	0,1	1,366016
3,392500	0,1	1,313293
3,394167	0,1	1,373867
3,395833	0,1	1,306642
3,397500	0,1	1,321425
3,399167	0,1	1,341899
3,400833	0,1	1,341447
3,402500	0,1	1,271013
3,404167	0,1	1,317944
3,405833	0,1	1,285583
3,407500	0,1	1,315019
3,409167	0,1	1,322154
3,410833	0,1	1,279285
3,412500	0,1	1,308227
3,414167	0,1	1,280128
3,415833	0,1	1,284644
3,417500	0,1	1,260467
3,419167	0,1	1,316368
3,420833	0,1	1,270106
3,422500	0,1	1,294867
3,424167	0,1	1,300002
3,425833	0,1	1,250380
3,427500	0,1	1,242868
3,429167	0,1	1,260811
3,430833	0,1	1,295576
3,432500	0,1	1,302932
3,434167	0,1	1,249603
3,435833	0,1	1,223262
3,437500	0,1	1,246367
3,439167	0,1	1,269617
3,440833	0,1	1,267338
3,442500	0,1	1,261767
3,444167	0,1	1,241988
3,445833	0,1	1,258476
3,447500	0,1	1,245462
3,449167	0,1	1,266621
3,450833	0,1	1,244245
3,452500	0,1	1,241310
3,454167	0,1	1,251315
3,455833	0,1	1,211077
3,457500	0,1	1,255014
3,459167	0,1	1,224146
3,460833	0,1	1,217466
3,462500	0,1	1,177429
3,464167	0,1	1,237521
3,465833	0,1	1,222855
3,467500	0,1	1,226761
3,469167	0,1	1,278043
3,470833	0,1	1,225340
3,472500	0,1	1,239069
3,474167	0,1	1,228493
3,475833	0,1	1,219636
3,477500	0,1	1,247316
3,479167	0,1	1,264403
3,480833	0,1	1,206320
3,482500	0,1	1,187825
3,484167	0,1	1,195384
3,485833	0,1	1,218850
3,487500	0,1	1,228084
3,489167	0,1	1,228066
3,490833	0,1	1,220317
3,492500	0,1	1,289352
3,494167	0,1	1,204616
3,495833	0,1	1,209069
3,497500	0,1	1,237020
3,499167	0,1	1,209989
3,500833	0,1	1,231211
3,502500	0,1	1,272290
3,504167	0,1	1,216939
3,505833	0,1	1,271289
3,507500	0,1	1,233021
3,509167	0,1	1,254614
3,510833	0,1	1,217578
3,512500	0,1	1,272472
3,514167	0,1	1,284574
3,515833	0,1	1,232313
3,517500	0,1	1,258898
3,519167	0,1	1,201699
3,520833	0,1	1,236069
3,522500	0,1	1,193246
3,524167	0,1	1,212467
3,525833	0,1	1,239729
3,527500	0,1	1,232181
3,529167	0,1	1,193638
3,530833	0,1	1,231581
3,532500	0,1	1,241546
3,534167	0,1	1,229491
3,535833	0,1	1,210698
3,537500	0,1	1,236866
3,539167	0,1	1,233841
3,540833	0,1	1,231371
3,542500	0,1	1,221789
3,544167	0,1	1,208766
3,545833	0,1	1,261803
3,547500	0,1	1,217630
3,549167	0,1	1,246635
3,550833	0,1	1,220506
3,552500	0,1	1,253460
3,554167	0,1	1,216005
3,555833	0,1	1,193125
3,557500	0,1	1,171894
3,559167	0,1	1,210108
3,560833	0,1	1,226573
3,562500	0,1	1,241545
3,564167	0,1	1,212294
3,565833	0,1	1,172858
3,567500	0,1	1,207910
3,569167	0,1	1,185895
3,570833	0,1	1,194001
3,572500	0,1	1,180860
3,574167	0,1	1,210198
3,575833	0,1	1,153937
3,577500	0,1	1,184681
3,579167	0,1	1,182893
3,580833	0,1	1,200041
3,582500	0,1	1,222307
3,584167	0,1	1,201538
3,585833	0,1	1,172740
3,587500	0,1	1,174644
3,589167	0,1	1,156453
3,590833	0,1	1,193842
3,592500	0,1	1,154710
3,594167	0,1	1,178606
3,595833	0,1	1,163309
3,597500	0,1	1,190271
3,599167	0,1	1,136786
3,600833	0,1	1,161463
3,602500	0,1	1,128023
3,604167	0,1	1,151966
3,605833	0,1	1,146733
3,607500	0,1	1,116752
3,609167	0,1	1,134310
3,610833	0,1	1,129389
3,612500	0,1	1,118830
3,614167	0,1	1,103306
3,615833	0,1	1,117980
3,617500	0,1	1,112418
3,619167	0,1	1,098093
3,620833	0,1	1,108955
3,622500	0,1	1,115256
3,624167	0,1	1,083589
3,625833	0,1	1,048702
3,627500	0,1	1,108167
3,629167	0,1	1,119576
3,630833	0,1	1,048554
3,632500	0,1	1,097501
3,634167	0,1	1,055423
3,635833	0,1	1,090228
3,637500	0,1	1,081343
3,639167	0,1	1,081761
3,640833	0,1	1,066751
3,642500	0,1	1,087035
3,644167	0,1	1,053004
3,645833	0,1	1,071135
3,647500	0,1	1,058299
3,649167	0,1	1,057366
3,650833	0,1	1,045235
3,652500	0,1	1,122576
3,654167	0,1	1,027935
3,655833	0,1	1,023254
3,657500	0,1	1,030260
3,659167	0,1	1,018512
3,660833	0,1	1,027910
3,662500	0,1	1,017002
3,664167	0,1	0,999461
3,665833	0,1	1,022583
3,667500	0,1	1,023476
3,669167	0,1	1,029176
3,670833	0,1	1,006848
3,672500	0,1	0,975424
3,674167	0,1	1,022112
3,675833	0,1	1,002237
3,677500	0,1	0,994559
3,679167	0,1	0,997750
3,680833	0,1	0,982433
3,682500	0,1	0,983092
3,684167	0,1	1,023488
3,685833	0,1	1,011659
3,687500	0,1	0,961838
3,689167	0,1	0,982756
3,690833	0,1	0,992650
3,692500	0,1	0,963343
3,694167	0,1	0,964045
3,695833	0,1	0,971117
3,697500	0,1	0,974400
3,699167	0,1	0,950433
3,700833	0,1	0,979825
3,702500	0,1	1,003003
3,704167	0,1	0,985092
3,705833	0,1	1,004866
3,707500	0,1	0,987421
3,709167	0,1	0,993601
3,710833	0,1	0,931174
3,712500	0,1	0,973722
3,714167	0,1	0,950499
3,715833	0,1	0,967521
3,717500	0,1	0,982889
3,719167	0,1	0,970388
3,720833	0,1	0,964491
3,722500	0,1	0,993774
3,724167	0,1	1,021495
3,725833	0,1	0,952553
3,727500	0,1	0,958808
3,729167	0,1	0,975015
3,730833	0,1	0,946509
3,732500	0,1	0,969982
3,734167	0,1	0,982181
3,735833	0,1	0,954340
3,737500	0,1	0,969227
3,739167	0,1	0,943845
3,740833	0,1	0,977337
3,742500	0,1	0,975488
3,744167	0,1	0,958634
3,745833	0,1	0,967498
3,747500	0,1	0,985238
3,749167	0,1	0,995065
3,750833	0,1	1,010631
3,752500	0,1	1,038063
3,754167	0,1	0,995699
3,755833	0,1	1,016641
3,757500	0,1	1,013984
3,759167	0,1	0,984432
3,760833	0,1	1,004091
3,762500	0,1	1,023583
3,764167	0,1	1,020482
3,765833	0,1	1,002212
3,767500	0,1	1,050033
3,769167	0,1	1,023504
3,770833	0,1	1,006204
3,772500	0,1	1,031853
3,774167	0,1	1,038645
3,775833	0,1	1,034188
3,777500	0,1	1,028267
3,779167	0,1	1,058222
3,780833	0,1	1,031379
3,782500	0,1	1,061948
3,784167	0,1	1,042864
3,785833	0,1	1,046961
3,787500	0,1	1,094928
3,789167	0,1	1,048925
3,790833	0,1	1,084859
3,792500	0,1	1,118176
3,794167	0,1	1,127478
3,795833	0,1	1,088340
3,797500	0,1	1,091722
3,799167	0,1	1,113188
3,800833	0,1	1,122064
3,802500	0,1	1,119184
3,804167	0,1	1,133575
3,805833	0,1	1,152141
3,807500	0,1	1,189982
3,809167	0,1	1,183096
3,810833	0,1	1,179945
3,812500	0,1	1,131619
3,814167	0,1	1,155049
3,815833	0,1	1,157849
3,817500	0,1	1,215558
3,819167	0,1	1,213759
3,820833	0,1	1,243081
3,822500	0,1	1,239275
3,824167	0,1	1,247944
3,825833	0,1	1,223723
3,827500	0,1	1,248075
3,829167	0,1	1,251722
3,830833	0,1	1,225125
3,832500	0,1	1,252935
3,834167	0,1	1,298486
3,835833	0,1	1,304796
3,837500	0,1	1,296787
3,839167	0,1	1,290487
3,840833	0,1	1,276823
3,842500	0,1	1,275514
3,844167	0,1	1,283877
3,845833	0,1	1,273688
3,847500	0,1	1,308853
3,849167	0,1	1,333075
3,850833	0,1	1,351757
3,852500	0,1	1,358197
3,854167	0,1	1,359266
3,855833	0,1	1,369563
3,857500	0,1	1,300377
3,859167	0,1	1,391239
3,860833	0,1	1,330300
3,862500	0,1	1,365727
3,864167	0,1	1,341774
3,865833	0,1	1,376008
3,867500	0,1	1,358424
3,869167	0,1	1,372205
3,870833	0,1	1,367703
3,872500	0,1	1,364281
3,874167	0,1	1,361145
3,875833	0,1	1,362567
3,877500	0,1	1,402398
3,879167	0,1	1,352334
3,880833	0,1	1,398095
3,882500	0,1	1,354922
3,884167	0,1	1,386036
3,885833	0,1	1,387874
3,887500	0,1	1,398089
3,889167	0,1	1,329895
3,890833	0,1	1,363035
3,892500	0,1	1,382517
3,894167	0,1	1,364860
3,895833	0,1	1,361063
3,897500	0,1	1,391982
3,899167	0,1	1,385387
3,900833	0,1	1,391494
3,902500	0,1	1,351432
3,904167	0,1	1,328378
3,905833	0,1	1,417413
3,907500	0,1	1,345682
3,909167	0,1	1,344667
3,910833	0,1	1,368119
3,912500	0,1	1,371867
3,914167	0,1	1,388342
3,915833	0,1	1,331146
3,917500	0,1	1,324106
3,919167	0,1	1,317297
3,920833	0,1	1,316431
3,922500	0,1	1,343049
3,924167	0,1	1,316659
3,925833	0,1	1,302073
3,927500	0,1	1,318493
3,929167	0,1	1,250789
3,930833	0,1	1,333264
3,932500	0,1	1,319670
3,934167	0,1	1,281739
3,935833	0,1	1,298561
3,937500	0,1	1,305710
3,939167	0,1	1,271899
3,940833	0,1	1,281052
3,942500	0,1	1,303166
3,944167	0,1	1,259944
3,945833	0,1	1,256515
3,947500	0,1	1,243819
3,949167	0,1	1,214880
3,950833	0,1	1,205481
3,952500	0,1	1,217481
3,954167	0,1	1,203043
3,955833	0,1	1,194832
3,957500	0,1	1,194474
3,959167	0,1	1,206388
3,960833	0,1	1,211692
3,962500	0,1	1,175336
3,964167	0,1	1,203811
3,965833	0,1	1,164226
3,967500	0,1	1,162735
3,969167	0,1	1,161711
3,970833	0,1	1,154252
3,972500	0,1	1,151726
3,974167	0,1	1,158398
3,975833	0,1	1,146158
3,977500	0,1	1,117681
3,979167	0,1	1,126612
3,980833	0,1	1,148744
3,982500	0,1	1,114976
3,984167	0,1	1,127276
3,985833	0,1	1,109492
3,987500	0,1	1,084540
3,989167	0,1	1,093184
3,990833	0,1	1,077905
3,992500	0,1	1,066660
3,994167	0,1	1,073820
3,995833	0,1	1,041027
3,997500	0,1	1,079602
3,999167	0,1	1,080165
4,000833	0,1	1,065441
4,002500	0,1	1,039096
4,004167	0,1	1,075653
4,005833	0,1	1,068722
4,007500	0,1	1,046080
4,009167	0,1	1,041730
4,010833	0,1	1,055187
4,012500	0,1	1,046810
4,014167	0,1	1,032572
4,015833	0,1	1,064763
4,017500	0,1	1,025349
4,019167	0,1	1,043078
4,020833	0,1	1,031242
4,022500	0,1	1,017824
4,024167	0,1	0,961108
4,025833	0,1	1,022221
4,027500	0,1	1,030283
4,029167	0,1	0,990907
4,030833	0,1	1,042693
4,032500	0,1	1,020420
4,034167	0,1	1,022145
4,035833	0,1	1,001283
4,037500	0,1	1,004559
4,039167	0,1	1,002275
4,040833	0,1	1,057749
4,042500	0,1	1,018253
4,044167	0,1	1,003343
4,045833	0,1	1,016577
4,047500	0,1	1,034228
4,049167	0,1	1,025740
4,050833	0,1	1,018578
4,052500	0,1	1,062787
4,054167	0,1	1,049251
4,055833	0,1	1,043238
4,057500	0,1	1,030265
4,059167	0,1	1,052658
4,060833	0,1	1,010911
4,062500	0,1	1,029104
4,064167	0,1	1,075718
4,065833	0,1	1,072537
4,067500	0,1	1,075375
4,069167	0,1	1,093159
4,070833	0,1	1,100569
4,072500	0,1	1,112748
4,074167	0,1	1,102748
4,075833	0,1	1,113124
4,077500	0,1	1,070593
4,079167	0,1	1,156476
4,080833	0,1	1,143987
4,082500	0,1	1,129681
4,084167	0,1	1,147244
4,085833	0,1	1,147865
4,087500	0,1	1,172017
4,089167	0,1	1,151132
4,090833	0,1	1,178209
4,092500	0,1	1,192253
4,094167	0,1	1,205543
4,095833	0,1	1,190666
4,097500	0,1	1,238620
4,099167	0,1	1,225630
4,100833	0,1	1,283968
4,102500	0,1	1,253542
4,104167	0,1	1,281182
4,105833	0,1	1,316847
4,107500	0,1	1,325439
4,109167	0,1	1,328252
4,110833	0,1	1,295709
4,112500	0,1	1,326077
4,114167	0,1	1,362491
4,115833	0,1	1,375098
4,117500	0,1	1,356948
4,119167	0,1	1,410392
4,120833	0,1	1,396383
4,122500	0,1	1,396464
4,124167	0,1	1,389861
4,125833	0,1	1,403375
4,127500	0,1	1,440941
4,129167	0,1	1,461506
4,130833	0,1	1,441160
4,132500	0,1	1,464914
4,134167	0,1	1,496528
4,135833	0,1	1,517054
4,137500	0,1	1,502733
4,139167	0,1	1,566075
4,140833	0,1	1,551259
4,142500	0,1	1,581157
4,144167	0,1	1,590397
4,145833	0,1	1,571453
4,147500	0,1	1,580793
4,149167	0,1	1,602860
4,150833	0,1	1,636058
4,152500	0,1	1,622051
4,154167	0,1	1,622886
4,155833	0,1	1,648862
4,157500	0,1	1,631609
4,159167	0,1	1,684509
4,160833	0,1	1,636068
4,162500	0,1	1,683569
4,164167	0,1	1,652789
4,165833	0,1	1,712126
4,167500	0,1	1,714360
4,169167	0,1	1,697806
4,170833	0,1	1,744191
4,172500	0,1	1,740276
4,174167	0,1	1,741981
4,175833	0,1	1,776562
4,177500	0,1	1,787930
4,179167	0,1	1,769402
4,180833	0,1	1,771981
4,182500	0,1	1,777927
4,184167	0,1	1,811493
4,185833	0,1	1,783934
4,187500	0,1	1,824859
4,189167	0,1	1,771048
4,190833	0,1	1,785787
4,192500	0,1	1,776686
4,194167	0,1	1,803389
4,195833	0,1	1,848503
4,197500	0,1	1,844223
4,199167	0,1	1,808777
4,200833	0,1	1,838261
4,202500	0,1	1,847217
4,204167	0,1	1,827614
4,205833	0,1	1,807911
4,207500	0,1	1,866682
4,209167	0,1	1,814720
4,210833	0,1	1,776693
4,212500	0,1	1,833316
4,214167	0,1	1,811273
4,215833	0,1	1,829957
4,217500	0,1	1,821013
4,219167	0,1	1,803190
4,220833	0,1	1,803396
4,222500	0,1	1,801977
4,224167	0,1	1,780067
4,225833	0,1	1,789787
4,227500	0,1	1,783347
4,229167	0,1	1,761237
4,230833	0,1	1,785784
4,232500	0,1	1,799387
4,234167	0,1	1,810046
4,235833	0,1	1,744915
4,237500	0,1	1,815201
4,239167	0,1	1,801986
4,240833	0,1	1,802256
4,242500	0,1	1,796179
4,244167	0,1	1,764537
4,245833	0,1	1,770840
4,247500	0,1	1,769537
4,249167	0,1	1,747071
4,250833	0,1	1,702846
4,252500	0,1	1,697148
4,254167	0,1	1,720431
4,255833	0,1	1,710341
4,257500	0,1	1,713628
4,259167	0,1	1,708217
4,260833	0,1	1,692255
4,262500	0,1	1,667920
4,264167	0,1	1,689809
4,265833	0,1	1,655237
4,267500	0,1	1,644639
4,269167	0,1	1,664897
4,270833	0,1	1,599063
4,272500	0,1	1,620742
4,274167	0,1	1,562953
4,275833	0,1	1,607501
4,277500	0,1	1,616605
4,279167	0,1	1,566871
4,280833	0,1	1,553765
4,282500	0,1	1,579501
4,284167	0,1	1,588338
4,285833	0,1	1,562140
4,287500	0,1	1,564720
4,289167	0,1	1,514945
4,290833	0,1	1,507772
4,292500	0,1	1,549693
4,294167	0,1	1,496974
4,295833	0,1	1,489181
4,297500	0,1	1,465706
4,299167	0,1	1,493420
4,300833	0,1	1,458341
4,302500	0,1	1,417223
4,304167	0,1	1,445615
4,305833	0,1	1,452413
4,307500	0,1	1,440885
4,309167	0,1	1,412918
4,310833	0,1	1,376722
4,312500	0,1	1,411768
4,314167	0,1	1,387594
4,315833	0,1	1,361544
4,317500	0,1	1,395336
4,319167	0,1	1,339038
4,320833	0,1	1,347272
4,322500	0,1	1,355435
4,324167	0,1	1,360381
4,325833	0,1	1,364294
4,327500	0,1	1,280057
4,329167	0,1	1,315711
4,330833	0,1	1,279367
4,332500	0,1	1,290399
4,334167	0,1	1,255842
4,335833	0,1	1,301365
4,337500	0,1	1,288001
4,339167	0,1	1,269205
4,340833	0,1	1,274328
4,342500	0,1	1,233274
4,344167	0,1	1,180582
4,345833	0,1	1,256936
4,347500	0,1	1,226567
4,349167	0,1	1,214115
4,350833	0,1	1,167597
4,352500	0,1	1,250806
4,354167	0,1	1,163573
4,355833	0,1	1,170493
4,357500	0,1	1,135676
4,359167	0,1	1,164564
4,360833	0,1	1,173932
4,362500	0,1	1,169584
4,364167	0,1	1,177015
4,365833	0,1	1,142880
4,367500	0,1	1,134049
4,369167	0,1	1,157863
4,370833	0,1	1,128773
4,372500	0,1	1,119829
4,374167	0,1	1,101020
4,375833	0,1	1,109886
4,377500	0,1	1,129934
4,379167	0,1	1,087008
4,380833	0,1	1,095467
4,382500	0,1	1,104272
4,384167	0,1	1,085515
4,385833	0,1	1,094846
4,387500	0,1	1,058527
4,389167	0,1	1,056766
4,390833	0,1	1,066012
4,392500	0,1	1,056148
4,394167	0,1	1,041709
4,395833	0,1	1,056009
4,397500	0,1	1,035080
4,399167	0,1	1,020551
4,400833	0,1	1,017158
4,402500	0,1	1,057866
4,404167	0,1	1,002353
4,405833	0,1	0,997420
4,407500	0,1	0,994092
4,409167	0,1	0,996884
4,410833	0,1	1,010254
4,412500	0,1	1,003185
4,414167	0,1	0,968577
4,415833	0,1	0,964418
4,417500	0,1	0,979252
4,419167	0,1	0,990163
4,420833	0,1	0,969705
4,422500	0,1	0,950965
4,424167	0,1	0,949454
4,425833	0,1	0,954020
4,427500	0,1	0,921521
4,429167	0,1	0,946519
4,430833	0,1	0,898717
4,432500	0,1	0,926453
4,434167	0,1	0,927168
4,435833	0,1	0,926971
4,437500	0,1	0,886778
4,439167	0,1	0,902995
4,440833	0,1	0,894890
4,442500	0,1	0,888657
4,444167	0,1	0,855784
4,445833	0,1	0,894483
4,447500	0,1	0,904951
4,449167	0,1	0,883362
4,450833	0,1	0,855769
4,452500	0,1	0,882707
4,454167	0,1	0,877793
4,455833	0,1	0,862903
4,457500	0,1	0,840155
4,459167	0,1	0,850368
4,460833	0,1	0,816790
4,462500	0,1	0,870090
4,464167	0,1	0,843305
4,465833	0,1	0,854670
4,467500	0,1	0,815702
4,469167	0,1	0,808847
4,470833	0,1	0,791323
4,472500	0,1	0,818285
4,474167	0,1	0,809871
4,475833	0,1	0,805081
4,477500	0,1	0,801670
4,479167	0,1	0,776319
4,480833	0,1	0,783603
4,482500	0,1	0,791775
4,484167	0,1	0,760567
4,485833	0,1	0,765515
4,487500	0,1	0,779719
4,489167	0,1	0,762594
4,490833	0,1	0,783916
4,492500	0,1	0,736604
4,494167	0,1	0,790532
4,495833	0,1	0,741391
4,497500	0,1	0,742051
4,499167	0,1	0,746008
4,500833	0,1	0,765903
4,502500	0,1	0,715078
4,504167	0,1	0,726949
4,505833	0,1	0,728423
4,507500	0,1	0,700738
4,509167	0,1	0,700181
4,510833	0,1	0,709856
4,512500	0,1	0,706898
4,514167	0,1	0,677732
4,515833	0,1	0,676823
4,517500	0,1	0,684307
4,519167	0,1	0,665164
4,520833	0,1	0,656579
4,522500	0,1	0,657961
4,524167	0,1	0,652275
4,525833	0,1	0,683081
4,527500	0,1	0,660633
4,529167	0,1	0,674690
4,530833	0,1	0,658957
4,532500	0,1	0,657189
4,534167	0,1	0,650959
4,535833	0,1	0,677811
4,537500	0,1	0,607505
4,539167	0,1	0,623867
4,540833	0,1	0,627370
4,542500	0,1	0,643916
4,544167	0,1	0,597861
4,545833	0,1	0,643784
4,547500	0,1	0,646448
4,549167	0,1	0,576793
4,550833	0,1	0,604717
4,552500	0,1	0,620396
4,554167	0,1	0,607391
4,555833	0,1	0,576684
4,557500	0,1	0,646696
4,559167	0,1	0,573226
4,560833	0,1	0,567332
4,562500	0,1	0,576355
4,564167	0,1	0,586024
4,565833	0,1	0,582525
4,567500	0,1	0,556479
4,569167	0,1	0,576994
4,570833	0,1	0,580372
4,572500	0,1	0,566049
4,574167	0,1	0,550019
4,575833	0,1	0,543047
4,577500	0,1	0,506338
4,579167	0,1	0,544160
4,580833	0,1	0,549114
4,582500	0,1	0,525963
4,584167	0,1	0,506047
4,585833	0,1	0,500614
4,587500	0,1	0,523863
4,589167	0,1	0,499912
4,590833	0,1	0,493261
4,592500	0,1	0,539917
4,594167	0,1	0,508201
4,595833	0,1	0,490725
4,597500	0,1	0,511434
4,599167	0,1	0,518663
4,600833	0,1	0,508615
4,602500	0,1	0,448597
4,604167	0,1	0,531398
4,605833	0,1	0,514912
4,607500	0,1	0,489828
4,609167	0,1	0,470331
4,610833	0,1	0,494474
4,612500	0,1	0,486227
4,614167	0,1	0,475662
4,615833	0,1	0,477716
4,617500	0,1	0,492035
4,619167	0,1	0,465673
4,620833	0,1	0,465670
4,622500	0,1	0,457868
4,624167	0,1	0,457898
4,625833	0,1	0,458249
4,627500	0,1	0,510334
4,629167	0,1	0,418996
4,630833	0,1	0,462576
4,632500	0,1	0,424799
4,634167	0,1	0,483707
4,635833	0,1	0,453700
4,637500	0,1	0,436610
4,639167	0,1	0,456963
4,640833	0,1	0,441202
4,642500	0,1	0,456865
4,644167	0,1	0,469875
4,645833	0,1	0,413658
4,647500	0,1	0,445335
4,649167	0,1	0,395998
4,650833	0,1	0,423272
4,652500	0,1	0,407285
4,654167	0,1	0,439200
4,655833	0,1	0,425723
4,657500	0,1	0,435352
4,659167	0,1	0,411660
4,660833	0,1	0,416021
4,662500	0,1	0,428928
4,664167	0,1	0,372396
4,665833	0,1	0,393506
4,667500	0,1	0,403558
4,669167	0,1	0,390755
4,670833	0,1	0,396430
4,672500	0,1	0,389369
4,674167	0,1	0,372738
4,675833	0,1	0,396653
4,677500	0,1	0,408412
4,679167	0,1	0,376594
4,680833	0,1	0,366702
4,682500	0,1	0,379386
4,684167	0,1	0,393571
4,685833	0,1	0,365422
4,687500	0,1	0,412869
4,689167	0,1	0,382634
4,690833	0,1	0,375113
4,692500	0,1	0,352514
4,694167	0,1	0,384349
4,695833	0,1	0,363784
4,697500	0,1	0,361402
4,699167	0,1	0,346860
4,700833	0,1	0,387819
4,702500	0,1	0,405615
4,704167	0,1	0,377660
4,705833	0,1	0,323626
4,707500	0,1	0,321687
4,709167	0,1	0,370578
4,710833	0,1	0,326120
4,712500	0,1	0,360206
4,714167	0,1	0,379696
4,715833	0,1	0,376460
4,717500	0,1	0,357814
4,719167	0,1	0,369556
4,720833	0,1	0,367442
4,722500	0,1	0,326419
4,724167	0,1	0,339726
4,725833	0,1	0,305996
4,727500	0,1	0,318338
4,729167	0,1	0,342554
4,730833	0,1	0,306124
4,732500	0,1	0,309388
4,734167	0,1	0,288142
4,735833	0,1	0,331371
4,737500	0,1	0,334076
4,739167	0,1	0,364060
4,740833	0,1	0,333886
4,742500	0,1	0,354303
4,744167	0,1	0,318223
4,745833	0,1	0,333405
4,747500	0,1	0,289495
4,749167	0,1	0,324727
4,750833	0,1	0,308396
4,752500	0,1	0,291993
4,754167	0,1	0,317287
4,755833	0,1	0,318413
4,757500	0,1	0,331767
4,759167	0,1	0,317929
4,760833	0,1	0,310096
4,762500	0,1	0,314550
4,764167	0,1	0,297228
4,765833	0,1	0,253036
4,767500	0,1	0,284403
4,769167	0,1	0,307593
4,770833	0,1	0,330129
4,772500	0,1	0,262559
4,774167	0,1	0,256514
4,775833	0,1	0,298789
4,777500	0,1	0,278357
4,779167	0,1	0,296514
4,780833	0,1	0,302422
4,782500	0,1	0,337287
4,784167	0,1	0,306284
4,785833	0,1	0,303067
4,787500	0,1	0,276334
4,789167	0,1	0,275710
4,790833	0,1	0,313909
4,792500	0,1	0,273253
4,794167	0,1	0,297987
4,795833	0,1	0,280373
4,797500	0,1	0,278731
4,799167	0,1	0,280015
4,800833	0,1	0,271092
4,802500	0,1	0,287979
4,804167	0,1	0,259477
4,805833	0,1	0,295128
4,807500	0,1	0,244554
4,809167	0,1	0,245799
4,810833	0,1	0,282564
4,812500	0,1	0,262106
4,814167	0,1	0,271957
4,815833	0,1	0,301070
4,817500	0,1	0,297288
4,819167	0,1	0,245295
4,820833	0,1	0,319201
4,822500	0,1	0,255030
4,824167	0,1	0,308417
4,825833	0,1	0,303105
4,827500	0,1	0,254409
4,829167	0,1	0,241197
4,830833	0,1	0,271573
4,832500	0,1	0,279760
4,834167	0,1	0,257360
4,835833	0,1	0,268431
4,837500	0,1	0,278339
4,839167	0,1	0,200804
4,840833	0,1	0,228836
4,842500	0,1	0,268803
4,844167	0,1	0,239701
4,845833	0,1	0,254846
4,847500	0,1	0,268392
4,849167	0,1	0,270170
4,850833	0,1	0,249104
4,852500	0,1	0,268201
4,854167	0,1	0,274814
4,855833	0,1	0,276390
4,857500	0,1	0,241125
4,859167	0,1	0,234685
4,860833	0,1	0,251852
4,862500	0,1	0,275679
4,864167	0,1	0,239438
4,865833	0,1	0,268251
4,867500	0,1	0,268107
4,869167	0,1	0,249982
4,870833	0,1	0,261909
4,872500	0,1	0,237750
4,874167	0,1	0,247207
4,875833	0,1	0,232863
4,877500	0,1	0,265177
4,879167	0,1	0,239436
4,880833	0,1	0,271436
4,882500	0,1	0,256428
4,884167	0,1	0,238831
4,885833	0,1	0,201023
4,887500	0,1	0,232336
4,889167	0,1	0,228076
4,890833	0,1	0,253686
4,892500	0,1	0,266820
4,894167	0,1	0,241011
4,895833	0,1	0,250102
4,897500	0,1	0,252029
4,899167	0,1	0,268430
4,900833	0,1	0,252702
4,902500	0,1	0,231681
4,904167	0,1	0,244059
4,905833	0,1	0,222240
4,907500	0,1	0,236771
4,909167	0,1	0,234459
4,910833	0,1	0,232318
4,912500	0,1	0,275285
4,914167	0,1	0,220927
4,915833	0,1	0,250891
4,917500	0,1	0,280046
4,919167	0,1	0,232796
4,920833	0,1	0,241291
4,922500	0,1	0,244163
4,924167	0,1	0,258989
4,925833	0,1	0,255355
4,927500	0,1	0,264994
4,929167	0,1	0,235246
4,930833	0,1	0,244036
4,932500	0,1	0,255489
4,934167	0,1	0,240541
4,935833	0,1	0,232472
4,937500	0,1	0,237452
4,939167	0,1	0,269924
4,940833	0,1	0,249041
4,942500	0,1	0,237582
4,944167	0,1	0,229199
4,945833	0,1	0,236608
4,947500	0,1	0,219509
4,949167	0,1	0,232668
4,950833	0,1	0,214764
4,952500	0,1	0,265500
4,954167	0,1	0,303319
4,955833	0,1	0,263458
4,957500	0,1	0,240467
4,959167	0,1	0,234913
4,960833	0,1	0,237578
4,962500	0,1	0,230810
4,964167	0,1	0,256482
4,965833	0,1	0,259697
4,967500	0,1	0,241750
4,969167	0,1	0,227916
4,970833	0,1	0,268649
4,972500	0,1	0,225128
4,974167	0,1	0,236871
4,975833	0,1	0,248076
4,977500	0,1	0,251288
4,979167	0,1	0,247627
4,980833	0,1	0,280712
4,982500	0,1	0,268914
4,984167	0,1	0,242331
4,985833	0,1	0,275803
4,987500	0,1	0,252351
4,989167	0,1	0,243713
4,990833	0,1	0,253980
4,992500	0,1	0,246305
4,994167	0,1	0,243522
4,995833	0,1	0,267849
4,997500	0,1	0,298991
4,999167	0,1	0,282951
5,000833	0,1	0,261980
5,002500	0,1	0,290824
5,004167	0,1	0,297576
5,005833	0,1	0,251741
5,007500	0,1	0,248394
5,009167	0,1	0,273073
5,010833	0,1	0,241087
5,012500	0,1	0,309154
5,014167	0,1	0,274698
5,015833	0,1	0,236053
5,017500	0,1	0,291733
5,019167	0,1	0,270491
5,020833	0,1	0,282492
5,022500	0,1	0,298441
5,024167	0,1	0,272997
5,025833	0,1	0,262257
5,027500	0,1	0,297478
5,029167	0,1	0,247827
5,030833	0,1	0,285886
5,032500	0,1	0,261492
5,034167	0,1	0,270508
5,035833	0,1	0,262520
5,037500	0,1	0,253883
5,039167	0,1	0,308967
5,040833	0,1	0,282112
5,042500	0,1	0,304797
5,044167	0,1	0,279028
5,045833	0,1	0,303351
5,047500	0,1	0,274307
5,049167	0,1	0,280557
5,050833	0,1	0,277801
5,052500	0,1	0,298215
5,054167	0,1	0,277389
5,055833	0,1	0,265026
5,057500	0,1	0,338110
5,059167	0,1	0,313247
5,060833	0,1	0,338827
5,062500	0,1	0,285644
5,064167	0,1	0,273562
5,065833	0,1	0,287190
5,067500	0,1	0,331371
5,069167	0,1	0,305704
5,070833	0,1	0,291234
5,072500	0,1	0,302348
5,074167	0,1	0,262879
5,075833	0,1	0,320063
5,077500	0,1	0,295819
5,079167	0,1	0,327331
5,080833	0,1	0,276329
5,082500	0,1	0,310411
5,084167	0,1	0,317127
5,085833	0,1	0,332155
5,087500	0,1	0,304774
5,089167	0,1	0,265573
5,090833	0,1	0,330661
5,092500	0,1	0,309239
5,094167	0,1	0,300202
5,095833	0,1	0,336193
5,097500	0,1	0,304105
5,099167	0,1	0,299404
5,100833	0,1	0,339656
5,102500	0,1	0,292931
5,104167	0,1	0,321680
5,105833	0,1	0,322717
5,107500	0,1	0,366823
5,109167	0,1	0,311844
5,110833	0,1	0,335165
5,112500	0,1	0,352470
5,114167	0,1	0,320384
5,115833	0,1	0,329263
5,117500	0,1	0,300027
5,119167	0,1	0,312884
5,120833	0,1	0,335971
5,122500	0,1	0,346275
5,124167	0,1	0,332128
5,125833	0,1	0,332124
5,127500	0,1	0,355389
5,129167	0,1	0,345448
5,130833	0,1	0,298709
5,132500	0,1	0,335804
5,134167	0,1	0,343934
5,135833	0,1	0,334404
5,137500	0,1	0,353889
5,139167	0,1	0,328629
5,140833	0,1	0,306598
5,142500	0,1	0,339116
5,144167	0,1	0,355398
5,145833	0,1	0,297718
5,147500	0,1	0,268454
5,149167	0,1	0,366325
5,150833	0,1	0,317719
5,152500	0,1	0,333151
5,154167	0,1	0,307829
5,155833	0,1	0,296486
5,157500	0,1	0,323065
5,159167	0,1	0,315811
5,160833	0,1	0,357680
5,162500	0,1	0,289121
5,164167	0,1	0,343020
5,165833	0,1	0,323718
5,167500	0,1	0,299788
5,169167	0,1	0,308039
5,170833	0,1	0,315943
5,172500	0,1	0,303458
5,174167	0,1	0,301621
5,175833	0,1	0,328237
5,177500	0,1	0,310361
5,179167	0,1	0,308067
5,180833	0,1	0,291235
5,182500	0,1	0,331211
5,184167	0,1	0,294728
5,185833	0,1	0,327973
5,187500	0,1	0,298515
5,189167	0,1	0,305633
5,190833	0,1	0,324415
5,192500	0,1	0,275055
5,194167	0,1	0,291416
5,195833	0,1	0,310994
5,197500	0,1	0,304326
5,199167	0,1	0,288818
5,200833	0,1	0,307240
5,202500	0,1	0,281758
5,204167	0,1	0,286498
5,205833	0,1	0,266702
5,207500	0,1	0,303484
5,209167	0,1	0,270455
5,210833	0,1	0,278767
5,212500	0,1	0,270351
5,214167	0,1	0,287336
5,215833	0,1	0,274467
5,217500	0,1	0,301260
5,219167	0,1	0,281016
5,220833	0,1	0,301435
5,222500	0,1	0,289585
5,224167	0,1	0,248113
5,225833	0,1	0,266728
5,227500	0,1	0,260857
5,229167	0,1	0,311438
5,230833	0,1	0,263849
5,232500	0,1	0,258415
5,234167	0,1	0,267474
5,235833	0,1	0,273151
5,237500	0,1	0,233611
5,239167	0,1	0,257703
5,240833	0,1	0,289322
5,242500	0,1	0,266060
5,244167	0,1	0,245792
5,245833	0,1	0,248078
5,247500	0,1	0,212716
5,249167	0,1	0,204351
5,250833	0,1	0,227014
5,252500	0,1	0,238383
5,254167	0,1	0,233728
5,255833	0,1	0,260243
5,257500	0,1	0,239423
5,259167	0,1	0,250644
5,260833	0,1	0,211106
5,262500	0,1	0,220055
5,264167	0,1	0,238633
5,265833	0,1	0,227349
5,267500	0,1	0,231939
5,269167	0,1	0,267429
5,270833	0,1	0,185110
5,272500	0,1	0,245143
5,274167	0,1	0,213255
5,275833	0,1	0,220760
5,277500	0,1	0,200023
5,279167	0,1	0,206059
5,280833	0,1	0,227077
5,282500	0,1	0,190689
5,284167	0,1	0,201478
5,285833	0,1	0,241233
5,287500	0,1	0,180915
5,289167	0,1	0,187067
5,290833	0,1	0,207591
5,292500	0,1	0,215046
5,294167	0,1	0,204514
5,295833	0,1	0,180415
5,297500	0,1	0,202885
5,299167	0,1	0,229038
5,300833	0,1	0,184121
5,302500	0,1	0,219635
5,304167	0,1	0,173585
5,305833	0,1	0,218700
5,307500	0,1	0,133840
5,309167	0,1	0,193661
5,310833	0,1	0,211168
5,312500	0,1	0,184116
5,314167	0,1	0,190427
5,315833	0,1	0,182374
5,317500	0,1	0,196782
5,319167	0,1	0,173063
5,320833	0,1	0,169826
5,322500	0,1	0,218864
5,324167	0,1	0,195998
5,325833	0,1	0,195892
5,327500	0,1	0,168360
5,329167	0,1	0,183239
5,330833	0,1	0,171854
5,332500	0,1	0,161217
5,334167	0,1	0,178517
5,335833	0,1	0,157306
5,337500	0,1	0,151150
5,339167	0,1	0,179775
5,340833	0,1	0,174483
5,342500	0,1	0,155255
5,344167	0,1	0,119378
5,345833	0,1	0,171385
5,347500	0,1	0,168580
5,349167	0,1	0,147678
5,350833	0,1	0,127593
5,352500	0,1	0,137980
5,354167	0,1	0,192341
5,355833	0,1	0,171653
5,357500	0,1	0,157092
5,359167	0,1	0,122376
5,360833	0,1	0,137751
5,362500	0,1	0,103520
5,364167	0,1	0,160575
5,365833	0,1	0,122956
5,367500	0,1	0,147229
5,369167	0,1	0,164208
5,370833	0,1	0,120640
5,372500	0,1	0,137046
5,374167	0,1	0,158618
5,375833	0,1	0,133371
5,377500	0,1	0,127090
5,379167	0,1	0,126305
5,380833	0,1	0,141518
5,382500	0,1	0,134234
5,384167	0,1	0,136487
5,385833	0,1	0,144954
5,387500	0,1	0,113102
5,389167	0,1	0,149628
5,390833	0,1	0,144732
5,392500	0,1	0,111590
5,394167	0,1	0,138368
5,395833	0,1	0,138209
5,397500	0,1	0,107017
5,399167	0,1	0,111706
5,400833	0,1	0,129510
5,402500	0,1	0,112207
5,404167	0,1	0,156915
5,405833	0,1	0,098472
5,407500	0,1	0,106838
5,409167	0,1	0,105806
5,410833	0,1	0,104627
5,412500	0,1	0,093906
5,414167	0,1	0,102886
5,415833	0,1	0,108992
5,417500	0,1	0,131989
5,419167	0,1	0,078826
5,420833	0,1	0,111990
5,422500	0,1	0,093741
5,424167	0,1	0,105390
5,425833	0,1	0,123671
5,427500	0,1	0,101979
5,429167	0,1	0,090718
5,430833	0,1	0,113235
5,432500	0,1	0,088838
5,434167	0,1	0,098001
5,435833	0,1	0,117332
5,437500	0,1	0,062596
5,439167	0,1	0,087542
5,440833	0,1	0,053607
5,442500	0,1	0,086444
5,444167	0,1	0,078916
5,445833	0,1	0,104186
5,447500	0,1	0,047588
5,449167	0,1	0,078681
5,450833	0,1	0,075107
5,452500	0,1	0,071463
5,454167	0,1	0,113084
5,455833	0,1	0,046969
5,457500	0,1	0,091676
5,459167	0,1	0,050999
5,460833	0,1	0,107780
5,462500	0,1	0,094860
5,464167	0,1	0,082892
5,465833	0,1	0,104559
5,467500	0,1	0,055205
5,469167	0,1	0,071128
5,470833	0,1	0,103106
5,472500	0,1	0,061411
5,474167	0,1	0,076118
5,475833	0,1	0,055260
5,477500	0,1	0,066100
5,479167	0,1	0,088928
5,480833	0,1	0,082125
5,482500	0,1	0,079910
5,484167	0,1	0,069127
5,485833	0,1	0,086964
5,487500	0,1	0,028380
5,489167	0,1	0,032546
5,490833	0,1	0,071869
5,492500	0,1	0,100501
5,494167	0,1	0,072091
5,495833	0,1	0,073718
5,497500	0,1	0,066952
5,499167	0,1	0,037418
5,500833	0,1	0,077726
5,502500	0,1	0,019871
5,504167	0,1	0,044671
5,505833	0,1	0,052127
5,507500	0,1	0,047369
5,509167	0,1	0,025907
5,510833	0,1	0,089583
5,512500	0,1	0,063126
5,514167	0,1	0,054615
5,515833	0,1	0,047017
5,517500	0,1	0,069181
5,519167	0,1	0,013497
5,520833	0,1	0,085232
5,522500	0,1	0,048081
5,524167	0,1	0,045856
5,525833	0,1	0,053761
5,527500	0,1	0,075246
5,529167	0,1	0,043526
5,530833	0,1	0,057941
5,532500	0,1	0,084912
5,534167	0,1	0,064968
5,535833	0,1	0,028436
5,537500	0,1	0,048997
5,539167	0,1	0,036524
5,540833	0,1	0,026009
5,542500	0,1	0,028634
5,544167	0,1	0,043142
5,545833	0,1	0,053203
5,547500	0,1	0,037704
5,549167	0,1	0,037681
5,550833	0,1	0,059720
5,552500	0,1	0,044288
5,554167	0,1	0,054238
5,555833	0,1	0,022701
5,557500	0,1	0,027847
5,559167	0,1	0,084264
5,560833	0,1	0,046032
5,562500	0,1	0,037205
5,564167	0,1	0,053078
5,565833	0,1	0,075183
5,567500	0,1	0,060599
5,569167	0,1	0,020530
5,570833	0,1	0,060069
5,572500	0,1	0,084583
5,574167	0,1	0,033738
5,575833	0,1	0,025965
5,577500	0,1	0,043328
5,579167	0,1	0,057508
5,580833	0,1	0,038553
5,582500	0,1	0,039377
5,584167	0,1	0,046682
5,585833	0,1	0,061977
5,587500	0,1	0,070197
5,589167	0,1	0,056107
5,590833	0,1	0,053950
5,592500	0,1	0,063262
5,594167	0,1	0,042714
5,595833	0,1	0,089315
5,597500	0,1	0,066665
5,599167	0,1	0,025229
5,600833	0,1	0,026357
5,602500	0,1	0,043864
5,604167	0,1	0,059017
5,605833	0,1	0,058504
5,607500	0,1	0,060657
5,609167	0,1	0,043708
5,610833	0,1	0,056658
5,612500	0,1	0,037187
5,614167	0,1	0,072551
5,615833	0,1	0,056232
5,617500	0,1	0,051197
5,619167	0,1	0,073673
5,620833	0,1	0,023223
5,622500	0,1	0,048335
5,624167	0,1	0,051755
5,625833	0,1	0,068063
5,627500	0,1	0,087749
5,629167	0,1	0,061532
5,630833	0,1	0,054406
5,632500	0,1	0,050846
5,634167	0,1	0,064151
5,635833	0,1	0,061196
5,637500	0,1	0,085947
5,639167	0,1	0,024447
5,640833	0,1	0,057399
5,642500	0,1	0,114528
5,644167	0,1	0,038174
5,645833	0,1	0,062659
5,647500	0,1	0,067902
5,649167	0,1	0,068977
5,650833	0,1	0,011405
5,652500	0,1	0,056050
5,654167	0,1	0,051095
5,655833	0,1	0,077438
5,657500	0,1	0,080033
5,659167	0,1	0,011863
5,660833	0,1	0,060748
5,662500	0,1	0,067362
5,664167	0,1	0,114571
5,665833	0,1	0,069299
5,667500	0,1	0,093980
5,669167	0,1	0,087072
5,670833	0,1	0,130037
5,672500	0,1	0,045690
5,674167	0,1	0,052376
5,675833	0,1	0,061399
5,677500	0,1	0,109645
5,679167	0,1	0,038959
5,680833	0,1	0,051504
5,682500	0,1	0,040830
5,684167	0,1	0,105354
5,685833	0,1	0,085752
5,687500	0,1	0,033967
5,689167	0,1	0,065597
5,690833	0,1	0,050807
5,692500	0,1	0,083628
5,694167	0,1	0,119854
5,695833	0,1	0,070191
5,697500	0,1	0,075727
5,699167	0,1	0,083179
5,700833	0,1	0,076991
5,702500	0,1	0,059503
5,704167	0,1	0,095716
5,705833	0,1	0,110256
5,707500	0,1	0,085008
5,709167	0,1	0,083737
5,710833	0,1	0,103258
5,712500	0,1	0,060563
5,714167	0,1	0,083731
5,715833	0,1	0,128900
5,717500	0,1	0,070193
5,719167	0,1	0,129271
5,720833	0,1	0,107635
5,722500	0,1	0,054273
5,724167	0,1	0,091265
5,725833	0,1	0,069005
5,727500	0,1	0,100147
5,729167	0,1	0,068926
5,730833	0,1	0,064611
5,732500	0,1	0,106233
5,734167	0,1	0,120314
5,735833	0,1	0,091551
5,737500	0,1	0,126501
5,739167	0,1	0,117672
5,740833	0,1	0,115911
5,742500	0,1	0,069198
5,744167	0,1	0,086923
5,745833	0,1	0,098705
5,747500	0,1	0,101375
5,749167	0,1	0,105187
5,750833	0,1	0,121621
5,752500	0,1	0,083976
5,754167	0,1	0,121803
5,755833	0,1	0,101880
5,757500	0,1	0,090593
5,759167	0,1	0,123768
5,760833	0,1	0,156251
5,762500	0,1	0,106772
5,764167	0,1	0,102871
5,765833	0,1	0,096511
5,767500	0,1	0,108183
5,769167	0,1	0,117192
5,770833	0,1	0,113924
5,772500	0,1	0,095111
5,774167	0,1	0,164712
5,775833	0,1	0,148232
5,777500	0,1	0,138064
5,779167	0,1	0,118254
5,780833	0,1	0,127774
5,782500	0,1	0,102291
5,784167	0,1	0,134554
5,785833	0,1	0,124358
5,787500	0,1	0,144146
5,789167	0,1	0,148681
5,790833	0,1	0,153236
5,792500	0,1	0,126686
5,794167	0,1	0,097556
5,795833	0,1	0,114332
5,797500	0,1	0,103078
5,799167	0,1	0,070540
5,800833	0,1	0,110767
5,802500	0,1	0,123960
5,804167	0,1	0,094864
5,805833	0,1	0,115098
5,807500	0,1	0,098919
5,809167	0,1	0,103529
5,810833	0,1	0,136229
5,812500	0,1	0,107182
5,814167	0,1	0,124705
5,815833	0,1	0,094017
5,817500	0,1	0,126852
5,819167	0,1	0,108297
5,820833	0,1	0,127084
5,822500	0,1	0,127009
5,824167	0,1	0,130217
5,825833	0,1	0,120673
5,827500	0,1	0,145241
5,829167	0,1	0,104948
5,830833	0,1	0,117934
5,832500	0,1	0,113116
5,834167	0,1	0,130832
5,835833	0,1	0,094718
5,837500	0,1	0,121719
5,839167	0,1	0,106929
5,840833	0,1	0,094405
5,842500	0,1	0,125444
5,844167	0,1	0,114072
5,845833	0,1	0,133853
5,847500	0,1	0,116557
5,849167	0,1	0,130191
5,850833	0,1	0,114545
5,852500	0,1	0,096269
5,854167	0,1	0,111454
5,855833	0,1	0,088235
5,857500	0,1	0,116050
5,859167	0,1	0,100283
5,860833	0,1	0,100092
5,862500	0,1	0,089601
5,864167	0,1	0,116523
5,865833	0,1	0,104071
5,867500	0,1	0,130001
5,869167	0,1	0,094200
5,870833	0,1	0,111601
5,872500	0,1	0,105228
5,874167	0,1	0,102535
5,875833	0,1	0,120979
5,877500	0,1	0,094284
5,879167	0,1	0,134615
5,880833	0,1	0,123161
5,882500	0,1	0,085154
5,884167	0,1	0,114909
5,885833	0,1	0,097405
5,887500	0,1	0,122237
5,889167	0,1	0,077125
5,890833	0,1	0,144894
5,892500	0,1	0,061277
5,894167	0,1	0,123841
5,895833	0,1	0,079754
5,897500	0,1	0,078689
5,899167	0,1	0,077693
5,900833	0,1	0,111324
5,902500	0,1	0,082379
5,904167	0,1	0,086552
5,905833	0,1	0,063767
5,907500	0,1	0,086633
5,909167	0,1	0,151587
5,910833	0,1	0,094268
5,912500	0,1	0,105577
5,914167	0,1	0,113131
5,915833	0,1	0,098132
5,917500	0,1	0,094255
5,919167	0,1	0,076063
5,920833	0,1	0,083447
5,922500	0,1	0,113916
5,924167	0,1	0,062202
5,925833	0,1	0,089176
5,927500	0,1	0,072213
5,929167	0,1	0,090298
5,930833	0,1	0,062174
5,932500	0,1	0,076220
5,934167	0,1	0,106731
5,935833	0,1	0,089704
5,937500	0,1	0,068652
5,939167	0,1	0,092323
5,940833	0,1	0,048951
5,942500	0,1	0,127875
5,944167	0,1	0,084680
5,945833	0,1	0,095951
5,947500	0,1	0,064515
5,949167	0,1	0,055775
5,950833	0,1	0,082221
5,952500	0,1	0,086594
5,954167	0,1	0,097479
5,955833	0,1	0,080140
5,957500	0,1	0,043278
5,959167	0,1	0,084454
5,960833	0,1	0,051289
5,962500	0,1	0,074106
5,964167	0,1	0,054079
5,965833	0,1	0,049066
5,967500	0,1	0,083853
5,969167	0,1	0,090919
5,970833	0,1	0,077470
5,972500	0,1	0,091746
5,974167	0,1	0,125360
5,975833	0,1	0,062536
5,977500	0,1	0,078537
5,979167	0,1	0,041229
5,980833	0,1	0,110175
5,982500	0,1	0,069982
5,984167	0,1	0,083240
5,985833	0,1	0,091916
5,987500	0,1	0,059877
5,989167	0,1	0,061712
5,990833	0,1	0,080318
5,992500	0,1	0,066745
5,994167	0,1	0,043151
5,995833	0,1	0,016822
5,997500	0,1	0,078526
5,999167	0,1	0,045884
6,000833	0,1	0,049270
