File Path	chrom://chromeleon01/ikbm_chromeleon/2022/Rezex/Esteban/220612_chitin_4_7.seq/365.smp/UV_VIS_1.channel/UV_VIS_1.chm
Channel	UV_VIS_1

Injection Information:
Data Vault	ikbm_chromeleon
Injection	4_00h-EGS_NA
Injection Number	117
Position	BC3
Comment	
Processing Method	New ProcMethod
Instrument Method	Short_Rezex_6min_194nm
Type	Unknown
Status	Finished
Injection Date	13.06.2022
Injection Time	05:45:18
Injection Volume (µl)	8,000
Dilution Factor	1,0000
Weight	1,0000

Chromatogram Data Information:
Time Min. (min)	0,000833
Time Max. (min)	6,000833
Data Points	3601
Detector	UV
Generating Data System	Chromeleon 7.2.9.11323
Exporting Data System	Chromeleon 7.2.9.0
Operator	Instrument Controller
Signal Quantity	Absorbance
Signal Unit	mAU
Signal Min.	-0,146362
Signal Max.	47,883390
Channel	UV_VIS_1
Driver Name	VWD3000.dll
Channel Type	Evaluation
Min. Step (s)	0,1
Max. Step (s)	0,1
Average Step (s)	0,1

Signal Parameter Information:
Signal Info	WVL:194 nm

Chromatogram Data:
Time (min)	Step (s)	Value (mAU)
0,000833	n.a.	-0,029342
0,002500	0,1	-0,065539
0,004167	0,1	-0,048639
0,005833	0,1	-0,081228
0,007500	0,1	-0,029731
0,009167	0,1	-0,069342
0,010833	0,1	-0,004620
0,012500	0,1	-0,036770
0,014167	0,1	-0,064669
0,015833	0,1	-0,009981
0,017500	0,1	-0,020706
0,019167	0,1	-0,048708
0,020833	0,1	-0,023450
0,022500	0,1	-0,023275
0,024167	0,1	-0,049270
0,025833	0,1	-0,073837
0,027500	0,1	-0,048702
0,029167	0,1	-0,060639
0,030833	0,1	-0,123962
0,032500	0,1	-0,093206
0,034167	0,1	-0,109814
0,035833	0,1	-0,067851
0,037500	0,1	-0,123827
0,039167	0,1	-0,115350
0,040833	0,1	-0,121090
0,042500	0,1	-0,109835
0,044167	0,1	-0,146362
0,045833	0,1	-0,114775
0,047500	0,1	-0,099755
0,049167	0,1	-0,030308
0,050833	0,1	-0,080232
0,052500	0,1	-0,087790
0,054167	0,1	-0,061766
0,055833	0,1	-0,057039
0,057500	0,1	-0,061924
0,059167	0,1	-0,045265
0,060833	0,1	-0,063741
0,062500	0,1	-0,069122
0,064167	0,1	-0,066251
0,065833	0,1	-0,076407
0,067500	0,1	-0,068895
0,069167	0,1	-0,112266
0,070833	0,1	-0,077228
0,072500	0,1	-0,074546
0,074167	0,1	-0,063060
0,075833	0,1	-0,058049
0,077500	0,1	-0,041292
0,079167	0,1	-0,083503
0,080833	0,1	-0,020558
0,082500	0,1	-0,032029
0,084167	0,1	-0,035221
0,085833	0,1	-0,013348
0,087500	0,1	-0,007860
0,089167	0,1	0,003525
0,090833	0,1	-0,030598
0,092500	0,1	-0,047102
0,094167	0,1	-0,018713
0,095833	0,1	-0,058708
0,097500	0,1	-0,028839
0,099167	0,1	0,005758
0,100833	0,1	-0,018532
0,102500	0,1	-0,052707
0,104167	0,1	-0,038099
0,105833	0,1	-0,045075
0,107500	0,1	-0,081043
0,109167	0,1	-0,091866
0,110833	0,1	-0,046966
0,112500	0,1	-0,063450
0,114167	0,1	-0,103163
0,115833	0,1	-0,069773
0,117500	0,1	-0,101073
0,119167	0,1	-0,053948
0,120833	0,1	-0,080252
0,122500	0,1	-0,059320
0,124167	0,1	-0,099727
0,125833	0,1	-0,056179
0,127500	0,1	-0,086836
0,129167	0,1	-0,077298
0,130833	0,1	-0,067184
0,132500	0,1	-0,070161
0,134167	0,1	-0,032022
0,135833	0,1	-0,078932
0,137500	0,1	-0,087498
0,139167	0,1	-0,049454
0,140833	0,1	-0,054030
0,142500	0,1	-0,057206
0,144167	0,1	-0,066660
0,145833	0,1	-0,041355
0,147500	0,1	-0,059830
0,149167	0,1	-0,049340
0,150833	0,1	-0,030322
0,152500	0,1	-0,065705
0,154167	0,1	-0,033093
0,155833	0,1	-0,048008
0,157500	0,1	-0,038205
0,159167	0,1	-0,049212
0,160833	0,1	-0,023493
0,162500	0,1	-0,073142
0,164167	0,1	-0,009588
0,165833	0,1	-0,050138
0,167500	0,1	-0,030462
0,169167	0,1	-0,003953
0,170833	0,1	-0,036208
0,172500	0,1	-0,002811
0,174167	0,1	-0,060981
0,175833	0,1	-0,010849
0,177500	0,1	-0,036210
0,179167	0,1	-0,038272
0,180833	0,1	-0,024089
0,182500	0,1	-0,055213
0,184167	0,1	-0,036905
0,185833	0,1	-0,045259
0,187500	0,1	-0,012893
0,189167	0,1	-0,033248
0,190833	0,1	-0,031602
0,192500	0,1	-0,050690
0,194167	0,1	-0,021814
0,195833	0,1	-0,033401
0,197500	0,1	-0,047517
0,199167	0,1	-0,023615
0,200833	0,1	-0,041406
0,202500	0,1	-0,033878
0,204167	0,1	-0,029079
0,205833	0,1	-0,046828
0,207500	0,1	-0,038020
0,209167	0,1	-0,018438
0,210833	0,1	-0,081556
0,212500	0,1	-0,036208
0,214167	0,1	-0,035222
0,215833	0,1	-0,032471
0,217500	0,1	-0,012433
0,219167	0,1	-0,046456
0,220833	0,1	-0,073591
0,222500	0,1	-0,012180
0,224167	0,1	-0,003965
0,225833	0,1	-0,064557
0,227500	0,1	-0,023849
0,229167	0,1	-0,029429
0,230833	0,1	-0,033587
0,232500	0,1	-0,045329
0,234167	0,1	-0,014863
0,235833	0,1	0,020000
0,237500	0,1	-0,043962
0,239167	0,1	-0,005528
0,240833	0,1	-0,033765
0,242500	0,1	-0,021794
0,244167	0,1	-0,030070
0,245833	0,1	-0,036214
0,247500	0,1	-0,042904
0,249167	0,1	-0,050788
0,250833	0,1	-0,079945
0,252500	0,1	-0,049330
0,254167	0,1	-0,048970
0,255833	0,1	-0,025709
0,257500	0,1	-0,057015
0,259167	0,1	-0,039824
0,260833	0,1	-0,051840
0,262500	0,1	-0,034830
0,264167	0,1	-0,028349
0,265833	0,1	-0,047454
0,267500	0,1	-0,031464
0,269167	0,1	-0,026301
0,270833	0,1	-0,028224
0,272500	0,1	-0,009312
0,274167	0,1	-0,068266
0,275833	0,1	-0,026582
0,277500	0,1	-0,020298
0,279167	0,1	-0,030315
0,280833	0,1	-0,044889
0,282500	0,1	-0,025996
0,284167	0,1	-0,046444
0,285833	0,1	-0,049672
0,287500	0,1	-0,029804
0,289167	0,1	-0,014999
0,290833	0,1	-0,047301
0,292500	0,1	-0,052177
0,294167	0,1	-0,019706
0,295833	0,1	-0,024127
0,297500	0,1	-0,015604
0,299167	0,1	-0,021929
0,300833	0,1	0,007931
0,302500	0,1	-0,027285
0,304167	0,1	-0,045695
0,305833	0,1	-0,032719
0,307500	0,1	-0,020572
0,309167	0,1	-0,027749
0,310833	0,1	-0,015685
0,312500	0,1	0,021241
0,314167	0,1	0,009990
0,315833	0,1	0,002560
0,317500	0,1	-0,058245
0,319167	0,1	-0,029683
0,320833	0,1	-0,024771
0,322500	0,1	-0,036379
0,324167	0,1	-0,021231
0,325833	0,1	-0,006656
0,327500	0,1	-0,055497
0,329167	0,1	-0,025895
0,330833	0,1	-0,044492
0,332500	0,1	-0,015090
0,334167	0,1	0,004787
0,335833	0,1	-0,045767
0,337500	0,1	-0,011487
0,339167	0,1	-0,026480
0,340833	0,1	-0,014129
0,342500	0,1	-0,023442
0,344167	0,1	-0,034807
0,345833	0,1	-0,021003
0,347500	0,1	-0,061793
0,349167	0,1	-0,009216
0,350833	0,1	-0,018396
0,352500	0,1	-0,056645
0,354167	0,1	-0,011201
0,355833	0,1	-0,002701
0,357500	0,1	0,006591
0,359167	0,1	-0,054134
0,360833	0,1	-0,024320
0,362500	0,1	-0,019180
0,364167	0,1	-0,021457
0,365833	0,1	-0,030869
0,367500	0,1	-0,010534
0,369167	0,1	-0,023149
0,370833	0,1	-0,015331
0,372500	0,1	-0,011998
0,374167	0,1	-0,042088
0,375833	0,1	0,005027
0,377500	0,1	-0,001395
0,379167	0,1	-0,007154
0,380833	0,1	-0,043370
0,382500	0,1	-0,054496
0,384167	0,1	-0,002034
0,385833	0,1	-0,057237
0,387500	0,1	-0,011182
0,389167	0,1	-0,025224
0,390833	0,1	-0,035553
0,392500	0,1	0,017720
0,394167	0,1	0,035406
0,395833	0,1	-0,017594
0,397500	0,1	0,021257
0,399167	0,1	-0,013107
0,400833	0,1	-0,018828
0,402500	0,1	-0,024127
0,404167	0,1	-0,033981
0,405833	0,1	-0,006229
0,407500	0,1	-0,031472
0,409167	0,1	-0,067418
0,410833	0,1	0,012764
0,412500	0,1	-0,017098
0,414167	0,1	-0,010427
0,415833	0,1	0,000860
0,417500	0,1	-0,037852
0,419167	0,1	0,011838
0,420833	0,1	0,006323
0,422500	0,1	0,003343
0,424167	0,1	0,002244
0,425833	0,1	-0,019527
0,427500	0,1	-0,009618
0,429167	0,1	-0,008640
0,430833	0,1	-0,054690
0,432500	0,1	-0,014266
0,434167	0,1	-0,021913
0,435833	0,1	-0,005814
0,437500	0,1	-0,003033
0,439167	0,1	-0,014334
0,440833	0,1	0,013998
0,442500	0,1	-0,024488
0,444167	0,1	-0,009725
0,445833	0,1	0,009007
0,447500	0,1	0,017397
0,449167	0,1	0,027435
0,450833	0,1	-0,024880
0,452500	0,1	-0,056769
0,454167	0,1	-0,018301
0,455833	0,1	-0,016920
0,457500	0,1	0,009647
0,459167	0,1	-0,019629
0,460833	0,1	0,005242
0,462500	0,1	0,022344
0,464167	0,1	0,034185
0,465833	0,1	0,003577
0,467500	0,1	-0,005869
0,469167	0,1	0,010168
0,470833	0,1	-0,015764
0,472500	0,1	0,020784
0,474167	0,1	0,007485
0,475833	0,1	0,014189
0,477500	0,1	-0,004354
0,479167	0,1	-0,005395
0,480833	0,1	0,007478
0,482500	0,1	0,008185
0,484167	0,1	0,002262
0,485833	0,1	-0,001026
0,487500	0,1	0,007129
0,489167	0,1	0,033375
0,490833	0,1	0,013904
0,492500	0,1	0,001877
0,494167	0,1	0,047198
0,495833	0,1	-0,010392
0,497500	0,1	0,006256
0,499167	0,1	0,011807
0,500833	0,1	-0,020209
0,502500	0,1	-0,004362
0,504167	0,1	-0,017815
0,505833	0,1	0,030697
0,507500	0,1	0,006495
0,509167	0,1	0,005453
0,510833	0,1	0,046849
0,512500	0,1	0,005258
0,514167	0,1	0,017870
0,515833	0,1	0,007854
0,517500	0,1	0,024454
0,519167	0,1	0,021329
0,520833	0,1	0,013612
0,522500	0,1	0,010069
0,524167	0,1	0,018698
0,525833	0,1	-0,016850
0,527500	0,1	0,044462
0,529167	0,1	0,024957
0,530833	0,1	-0,005038
0,532500	0,1	0,021033
0,534167	0,1	0,020378
0,535833	0,1	-0,010505
0,537500	0,1	0,023993
0,539167	0,1	0,027025
0,540833	0,1	-0,002841
0,542500	0,1	0,019899
0,544167	0,1	0,023401
0,545833	0,1	0,008065
0,547500	0,1	0,030332
0,549167	0,1	0,015477
0,550833	0,1	0,056826
0,552500	0,1	0,013781
0,554167	0,1	0,026319
0,555833	0,1	-0,003631
0,557500	0,1	0,051377
0,559167	0,1	0,035643
0,560833	0,1	-0,010748
0,562500	0,1	0,014905
0,564167	0,1	0,041015
0,565833	0,1	-0,011035
0,567500	0,1	0,008884
0,569167	0,1	0,026108
0,570833	0,1	0,017919
0,572500	0,1	0,004127
0,574167	0,1	0,020374
0,575833	0,1	0,041737
0,577500	0,1	0,029781
0,579167	0,1	0,029696
0,580833	0,1	0,037539
0,582500	0,1	0,042716
0,584167	0,1	-0,016686
0,585833	0,1	0,053445
0,587500	0,1	-0,001885
0,589167	0,1	0,035648
0,590833	0,1	0,008956
0,592500	0,1	0,029958
0,594167	0,1	0,006865
0,595833	0,1	0,061731
0,597500	0,1	0,034277
0,599167	0,1	0,027168
0,600833	0,1	0,036235
0,602500	0,1	0,035867
0,604167	0,1	0,045985
0,605833	0,1	0,058656
0,607500	0,1	0,052840
0,609167	0,1	0,065344
0,610833	0,1	0,026146
0,612500	0,1	0,042486
0,614167	0,1	0,066272
0,615833	0,1	0,047320
0,617500	0,1	0,063892
0,619167	0,1	0,056611
0,620833	0,1	0,052636
0,622500	0,1	0,085441
0,624167	0,1	0,076859
0,625833	0,1	0,036267
0,627500	0,1	0,066106
0,629167	0,1	0,043302
0,630833	0,1	0,034211
0,632500	0,1	0,065296
0,634167	0,1	0,058184
0,635833	0,1	0,027156
0,637500	0,1	0,056811
0,639167	0,1	0,045410
0,640833	0,1	0,030447
0,642500	0,1	0,057639
0,644167	0,1	0,070332
0,645833	0,1	0,082692
0,647500	0,1	0,032604
0,649167	0,1	0,068296
0,650833	0,1	0,064330
0,652500	0,1	0,089027
0,654167	0,1	0,070982
0,655833	0,1	0,062388
0,657500	0,1	0,062218
0,659167	0,1	0,037959
0,660833	0,1	0,067513
0,662500	0,1	0,075633
0,664167	0,1	0,058145
0,665833	0,1	0,066253
0,667500	0,1	0,039078
0,669167	0,1	0,092788
0,670833	0,1	0,101868
0,672500	0,1	0,083921
0,674167	0,1	0,049372
0,675833	0,1	0,064741
0,677500	0,1	0,066754
0,679167	0,1	0,073853
0,680833	0,1	0,105051
0,682500	0,1	0,094499
0,684167	0,1	0,079552
0,685833	0,1	0,103747
0,687500	0,1	0,091541
0,689167	0,1	0,090522
0,690833	0,1	0,048005
0,692500	0,1	0,085316
0,694167	0,1	0,073132
0,695833	0,1	0,106541
0,697500	0,1	0,127685
0,699167	0,1	0,113034
0,700833	0,1	0,054198
0,702500	0,1	0,090990
0,704167	0,1	0,122982
0,705833	0,1	0,075894
0,707500	0,1	0,096728
0,709167	0,1	0,071790
0,710833	0,1	0,112048
0,712500	0,1	0,085123
0,714167	0,1	0,113685
0,715833	0,1	0,117523
0,717500	0,1	0,121145
0,719167	0,1	0,176819
0,720833	0,1	0,087727
0,722500	0,1	0,100271
0,724167	0,1	0,126027
0,725833	0,1	0,173548
0,727500	0,1	0,133352
0,729167	0,1	0,096887
0,730833	0,1	0,122735
0,732500	0,1	0,175411
0,734167	0,1	0,128303
0,735833	0,1	0,163030
0,737500	0,1	0,127181
0,739167	0,1	0,143321
0,740833	0,1	0,173155
0,742500	0,1	0,156064
0,744167	0,1	0,136786
0,745833	0,1	0,145828
0,747500	0,1	0,168831
0,749167	0,1	0,154592
0,750833	0,1	0,182933
0,752500	0,1	0,200207
0,754167	0,1	0,211929
0,755833	0,1	0,175783
0,757500	0,1	0,174906
0,759167	0,1	0,193145
0,760833	0,1	0,211497
0,762500	0,1	0,162304
0,764167	0,1	0,168960
0,765833	0,1	0,151406
0,767500	0,1	0,182665
0,769167	0,1	0,213937
0,770833	0,1	0,175040
0,772500	0,1	0,215798
0,774167	0,1	0,163589
0,775833	0,1	0,173453
0,777500	0,1	0,205549
0,779167	0,1	0,192056
0,780833	0,1	0,177789
0,782500	0,1	0,190374
0,784167	0,1	0,171326
0,785833	0,1	0,186004
0,787500	0,1	0,180644
0,789167	0,1	0,151511
0,790833	0,1	0,189764
0,792500	0,1	0,173148
0,794167	0,1	0,129688
0,795833	0,1	0,172224
0,797500	0,1	0,178920
0,799167	0,1	0,164887
0,800833	0,1	0,164902
0,802500	0,1	0,148838
0,804167	0,1	0,204526
0,805833	0,1	0,193714
0,807500	0,1	0,174682
0,809167	0,1	0,197825
0,810833	0,1	0,138246
0,812500	0,1	0,126926
0,814167	0,1	0,196593
0,815833	0,1	0,160126
0,817500	0,1	0,163804
0,819167	0,1	0,156932
0,820833	0,1	0,157448
0,822500	0,1	0,202211
0,824167	0,1	0,172571
0,825833	0,1	0,191240
0,827500	0,1	0,157145
0,829167	0,1	0,167426
0,830833	0,1	0,168133
0,832500	0,1	0,170081
0,834167	0,1	0,135361
0,835833	0,1	0,157237
0,837500	0,1	0,168234
0,839167	0,1	0,133766
0,840833	0,1	0,195828
0,842500	0,1	0,166050
0,844167	0,1	0,170824
0,845833	0,1	0,170514
0,847500	0,1	0,141779
0,849167	0,1	0,154877
0,850833	0,1	0,185914
0,852500	0,1	0,130188
0,854167	0,1	0,196427
0,855833	0,1	0,142365
0,857500	0,1	0,143243
0,859167	0,1	0,128999
0,860833	0,1	0,151603
0,862500	0,1	0,174485
0,864167	0,1	0,141718
0,865833	0,1	0,150384
0,867500	0,1	0,131546
0,869167	0,1	0,189988
0,870833	0,1	0,155449
0,872500	0,1	0,191777
0,874167	0,1	0,154536
0,875833	0,1	0,177923
0,877500	0,1	0,140891
0,879167	0,1	0,170779
0,880833	0,1	0,174614
0,882500	0,1	0,151634
0,884167	0,1	0,153946
0,885833	0,1	0,200450
0,887500	0,1	0,209486
0,889167	0,1	0,121438
0,890833	0,1	0,161952
0,892500	0,1	0,188319
0,894167	0,1	0,137062
0,895833	0,1	0,191169
0,897500	0,1	0,196029
0,899167	0,1	0,210418
0,900833	0,1	0,168847
0,902500	0,1	0,204719
0,904167	0,1	0,142718
0,905833	0,1	0,193738
0,907500	0,1	0,198039
0,909167	0,1	0,160916
0,910833	0,1	0,206417
0,912500	0,1	0,181621
0,914167	0,1	0,185590
0,915833	0,1	0,190108
0,917500	0,1	0,215864
0,919167	0,1	0,208831
0,920833	0,1	0,202286
0,922500	0,1	0,203234
0,924167	0,1	0,230732
0,925833	0,1	0,232830
0,927500	0,1	0,228838
0,929167	0,1	0,243122
0,930833	0,1	0,205441
0,932500	0,1	0,235805
0,934167	0,1	0,236251
0,935833	0,1	0,285017
0,937500	0,1	0,233532
0,939167	0,1	0,222582
0,940833	0,1	0,207674
0,942500	0,1	0,225598
0,944167	0,1	0,229478
0,945833	0,1	0,216845
0,947500	0,1	0,243245
0,949167	0,1	0,237311
0,950833	0,1	0,247164
0,952500	0,1	0,227329
0,954167	0,1	0,229563
0,955833	0,1	0,251719
0,957500	0,1	0,206585
0,959167	0,1	0,232229
0,960833	0,1	0,262924
0,962500	0,1	0,245761
0,964167	0,1	0,271335
0,965833	0,1	0,264482
0,967500	0,1	0,272498
0,969167	0,1	0,251415
0,970833	0,1	0,279455
0,972500	0,1	0,295740
0,974167	0,1	0,303133
0,975833	0,1	0,288055
0,977500	0,1	0,318513
0,979167	0,1	0,264956
0,980833	0,1	0,291255
0,982500	0,1	0,301746
0,984167	0,1	0,330389
0,985833	0,1	0,294984
0,987500	0,1	0,325641
0,989167	0,1	0,302145
0,990833	0,1	0,315811
0,992500	0,1	0,332118
0,994167	0,1	0,319670
0,995833	0,1	0,376108
0,997500	0,1	0,303795
0,999167	0,1	0,333399
1,000833	0,1	0,360248
1,002500	0,1	0,374381
1,004167	0,1	0,335858
1,005833	0,1	0,353224
1,007500	0,1	0,357358
1,009167	0,1	0,408389
1,010833	0,1	0,419416
1,012500	0,1	0,396004
1,014167	0,1	0,432025
1,015833	0,1	0,422591
1,017500	0,1	0,446004
1,019167	0,1	0,443083
1,020833	0,1	0,475229
1,022500	0,1	0,472703
1,024167	0,1	0,490363
1,025833	0,1	0,460080
1,027500	0,1	0,524884
1,029167	0,1	0,485972
1,030833	0,1	0,533886
1,032500	0,1	0,516139
1,034167	0,1	0,547127
1,035833	0,1	0,544981
1,037500	0,1	0,539615
1,039167	0,1	0,519735
1,040833	0,1	0,584001
1,042500	0,1	0,575377
1,044167	0,1	0,574955
1,045833	0,1	0,609841
1,047500	0,1	0,574320
1,049167	0,1	0,632811
1,050833	0,1	0,639409
1,052500	0,1	0,648471
1,054167	0,1	0,690469
1,055833	0,1	0,755417
1,057500	0,1	0,805278
1,059167	0,1	0,893425
1,060833	0,1	0,991467
1,062500	0,1	1,118747
1,064167	0,1	1,320402
1,065833	0,1	1,492527
1,067500	0,1	1,765472
1,069167	0,1	2,108960
1,070833	0,1	2,525232
1,072500	0,1	3,071734
1,074167	0,1	3,702731
1,075833	0,1	4,535329
1,077500	0,1	5,527647
1,079167	0,1	6,607528
1,080833	0,1	7,896692
1,082500	0,1	9,366177
1,084167	0,1	10,992311
1,085833	0,1	12,803758
1,087500	0,1	14,857106
1,089167	0,1	16,981872
1,090833	0,1	19,274308
1,092500	0,1	21,693839
1,094167	0,1	24,131020
1,095833	0,1	26,661192
1,097500	0,1	29,168380
1,099167	0,1	31,708660
1,100833	0,1	34,052037
1,102500	0,1	36,334103
1,104167	0,1	38,501308
1,105833	0,1	40,466457
1,107500	0,1	42,194042
1,109167	0,1	43,781950
1,110833	0,1	45,069575
1,112500	0,1	46,114043
1,114167	0,1	46,968446
1,115833	0,1	47,461941
1,117500	0,1	47,840601
1,119167	0,1	47,883390
1,120833	0,1	47,723376
1,122500	0,1	47,403376
1,124167	0,1	46,813481
1,125833	0,1	46,120940
1,127500	0,1	45,255330
1,129167	0,1	44,199360
1,130833	0,1	43,058679
1,132500	0,1	41,866762
1,134167	0,1	40,499642
1,135833	0,1	39,130192
1,137500	0,1	37,645912
1,139167	0,1	36,166177
1,140833	0,1	34,662512
1,142500	0,1	33,183012
1,144167	0,1	31,630644
1,145833	0,1	30,225657
1,147500	0,1	28,716857
1,149167	0,1	27,351434
1,150833	0,1	25,960785
1,152500	0,1	24,630353
1,154167	0,1	23,356779
1,155833	0,1	22,106781
1,157500	0,1	20,947152
1,159167	0,1	19,844733
1,160833	0,1	18,825502
1,162500	0,1	17,763246
1,164167	0,1	16,825076
1,165833	0,1	16,024306
1,167500	0,1	15,137228
1,169167	0,1	14,403203
1,170833	0,1	13,700168
1,172500	0,1	12,975320
1,174167	0,1	12,391267
1,175833	0,1	11,794193
1,177500	0,1	11,226627
1,179167	0,1	10,731768
1,180833	0,1	10,233834
1,182500	0,1	9,811968
1,184167	0,1	9,393861
1,185833	0,1	8,994290
1,187500	0,1	8,614501
1,189167	0,1	8,288248
1,190833	0,1	7,933796
1,192500	0,1	7,681844
1,194167	0,1	7,389228
1,195833	0,1	7,159598
1,197500	0,1	6,876099
1,199167	0,1	6,658462
1,200833	0,1	6,436793
1,202500	0,1	6,256757
1,204167	0,1	6,045224
1,205833	0,1	5,859901
1,207500	0,1	5,688669
1,209167	0,1	5,534940
1,210833	0,1	5,424091
1,212500	0,1	5,268525
1,214167	0,1	5,128267
1,215833	0,1	5,034392
1,217500	0,1	4,969331
1,219167	0,1	4,798372
1,220833	0,1	4,688698
1,222500	0,1	4,624016
1,224167	0,1	4,491991
1,225833	0,1	4,427017
1,227500	0,1	4,370290
1,229167	0,1	4,304140
1,230833	0,1	4,230585
1,232500	0,1	4,160684
1,234167	0,1	4,102736
1,235833	0,1	4,039619
1,237500	0,1	3,985211
1,239167	0,1	3,932310
1,240833	0,1	3,918544
1,242500	0,1	3,817462
1,244167	0,1	3,773398
1,245833	0,1	3,761092
1,247500	0,1	3,713563
1,249167	0,1	3,702729
1,250833	0,1	3,602832
1,252500	0,1	3,605396
1,254167	0,1	3,545960
1,255833	0,1	3,515729
1,257500	0,1	3,458624
1,259167	0,1	3,425006
1,260833	0,1	3,439980
1,262500	0,1	3,406225
1,264167	0,1	3,316003
1,265833	0,1	3,300501
1,267500	0,1	3,265857
1,269167	0,1	3,260981
1,270833	0,1	3,261930
1,272500	0,1	3,202197
1,274167	0,1	3,168558
1,275833	0,1	3,159158
1,277500	0,1	3,124014
1,279167	0,1	3,071068
1,280833	0,1	3,078416
1,282500	0,1	3,060972
1,284167	0,1	3,026366
1,285833	0,1	3,039533
1,287500	0,1	2,980791
1,289167	0,1	2,958242
1,290833	0,1	2,931391
1,292500	0,1	2,916503
1,294167	0,1	2,902016
1,295833	0,1	2,899517
1,297500	0,1	2,857090
1,299167	0,1	2,854296
1,300833	0,1	2,824588
1,302500	0,1	2,814385
1,304167	0,1	2,778572
1,305833	0,1	2,759480
1,307500	0,1	2,764991
1,309167	0,1	2,738668
1,310833	0,1	2,718213
1,312500	0,1	2,703139
1,314167	0,1	2,677754
1,315833	0,1	2,712896
1,317500	0,1	2,696544
1,319167	0,1	2,637666
1,320833	0,1	2,619930
1,322500	0,1	2,620146
1,324167	0,1	2,618920
1,325833	0,1	2,581838
1,327500	0,1	2,552580
1,329167	0,1	2,595603
1,330833	0,1	2,565778
1,332500	0,1	2,509054
1,334167	0,1	2,562950
1,335833	0,1	2,545618
1,337500	0,1	2,517723
1,339167	0,1	2,496276
1,340833	0,1	2,499788
1,342500	0,1	2,444080
1,344167	0,1	2,391668
1,345833	0,1	2,392729
1,347500	0,1	2,414521
1,349167	0,1	2,374387
1,350833	0,1	2,373228
1,352500	0,1	2,395379
1,354167	0,1	2,342270
1,355833	0,1	2,341042
1,357500	0,1	2,342830
1,359167	0,1	2,329284
1,360833	0,1	2,315091
1,362500	0,1	2,333222
1,364167	0,1	2,293879
1,365833	0,1	2,238620
1,367500	0,1	2,276370
1,369167	0,1	2,266347
1,370833	0,1	2,311563
1,372500	0,1	2,256181
1,374167	0,1	2,261112
1,375833	0,1	2,268923
1,377500	0,1	2,212675
1,379167	0,1	2,221188
1,380833	0,1	2,235665
1,382500	0,1	2,228788
1,384167	0,1	2,191530
1,385833	0,1	2,175829
1,387500	0,1	2,213656
1,389167	0,1	2,163227
1,390833	0,1	2,145877
1,392500	0,1	2,200107
1,394167	0,1	2,140656
1,395833	0,1	2,164855
1,397500	0,1	2,136490
1,399167	0,1	2,101379
1,400833	0,1	2,187774
1,402500	0,1	2,161721
1,404167	0,1	2,091077
1,405833	0,1	2,126802
1,407500	0,1	2,150235
1,409167	0,1	2,100672
1,410833	0,1	2,094711
1,412500	0,1	2,090775
1,414167	0,1	2,146148
1,415833	0,1	2,068503
1,417500	0,1	2,099577
1,419167	0,1	2,103522
1,420833	0,1	2,091061
1,422500	0,1	2,069642
1,424167	0,1	2,068985
1,425833	0,1	2,086896
1,427500	0,1	2,099079
1,429167	0,1	2,058688
1,430833	0,1	2,033960
1,432500	0,1	2,053146
1,434167	0,1	2,067560
1,435833	0,1	2,014916
1,437500	0,1	2,042833
1,439167	0,1	2,054160
1,440833	0,1	2,006024
1,442500	0,1	2,044561
1,444167	0,1	2,000015
1,445833	0,1	2,023853
1,447500	0,1	2,017770
1,449167	0,1	2,008096
1,450833	0,1	2,002014
1,452500	0,1	1,982244
1,454167	0,1	1,992340
1,455833	0,1	1,981234
1,457500	0,1	2,011330
1,459167	0,1	1,961974
1,460833	0,1	1,951377
1,462500	0,1	1,986744
1,464167	0,1	2,007166
1,465833	0,1	1,951884
1,467500	0,1	1,992762
1,469167	0,1	1,959539
1,470833	0,1	1,940974
1,472500	0,1	1,964413
1,474167	0,1	1,941921
1,475833	0,1	1,937116
1,477500	0,1	1,941333
1,479167	0,1	1,968261
1,480833	0,1	1,909210
1,482500	0,1	1,934245
1,484167	0,1	1,964604
1,485833	0,1	1,945066
1,487500	0,1	1,945705
1,489167	0,1	1,933832
1,490833	0,1	1,910253
1,492500	0,1	1,930020
1,494167	0,1	1,914118
1,495833	0,1	1,910906
1,497500	0,1	1,931449
1,499167	0,1	1,906470
1,500833	0,1	1,926007
1,502500	0,1	1,962757
1,504167	0,1	1,967770
1,505833	0,1	1,974872
1,507500	0,1	1,924669
1,509167	0,1	1,923784
1,510833	0,1	1,988677
1,512500	0,1	1,893083
1,514167	0,1	1,936670
1,515833	0,1	1,958600
1,517500	0,1	1,961750
1,519167	0,1	1,973434
1,520833	0,1	1,930030
1,522500	0,1	1,937963
1,524167	0,1	2,009158
1,525833	0,1	1,962688
1,527500	0,1	1,989331
1,529167	0,1	2,013175
1,530833	0,1	1,955396
1,532500	0,1	1,968616
1,534167	0,1	1,982958
1,535833	0,1	2,016980
1,537500	0,1	2,015055
1,539167	0,1	1,960123
1,540833	0,1	1,996121
1,542500	0,1	2,010743
1,544167	0,1	1,988399
1,545833	0,1	2,015692
1,547500	0,1	2,013256
1,549167	0,1	1,972064
1,550833	0,1	1,994901
1,552500	0,1	2,007812
1,554167	0,1	1,984249
1,555833	0,1	2,006809
1,557500	0,1	2,042115
1,559167	0,1	1,993569
1,560833	0,1	1,990980
1,562500	0,1	1,986320
1,564167	0,1	2,017757
1,565833	0,1	2,042559
1,567500	0,1	2,004597
1,569167	0,1	1,984178
1,570833	0,1	1,995423
1,572500	0,1	2,035952
1,574167	0,1	1,966569
1,575833	0,1	2,013314
1,577500	0,1	1,988903
1,579167	0,1	1,931889
1,580833	0,1	1,960818
1,582500	0,1	1,973851
1,584167	0,1	1,998921
1,585833	0,1	2,008377
1,587500	0,1	1,974652
1,589167	0,1	1,991764
1,590833	0,1	1,999992
1,592500	0,1	2,005376
1,594167	0,1	1,961609
1,595833	0,1	1,954950
1,597500	0,1	1,995774
1,599167	0,1	1,949381
1,600833	0,1	1,948936
1,602500	0,1	1,983883
1,604167	0,1	1,932106
1,605833	0,1	1,952072
1,607500	0,1	1,937763
1,609167	0,1	1,964183
1,610833	0,1	1,934902
1,612500	0,1	1,905532
1,614167	0,1	1,950348
1,615833	0,1	1,933106
1,617500	0,1	1,930454
1,619167	0,1	1,905102
1,620833	0,1	1,922215
1,622500	0,1	1,935038
1,624167	0,1	1,918566
1,625833	0,1	1,944774
1,627500	0,1	1,888136
1,629167	0,1	1,881818
1,630833	0,1	1,872437
1,632500	0,1	1,922215
1,634167	0,1	1,912189
1,635833	0,1	1,904826
1,637500	0,1	1,890640
1,639167	0,1	1,872299
1,640833	0,1	1,861909
1,642500	0,1	1,881818
1,644167	0,1	1,878726
1,645833	0,1	1,873299
1,647500	0,1	1,876100
1,649167	0,1	1,866925
1,650833	0,1	1,901235
1,652500	0,1	1,834147
1,654167	0,1	1,870912
1,655833	0,1	1,869291
1,657500	0,1	1,849393
1,659167	0,1	1,848947
1,660833	0,1	1,848309
1,662500	0,1	1,881675
1,664167	0,1	1,821684
1,665833	0,1	1,843792
1,667500	0,1	1,854541
1,669167	0,1	1,849406
1,670833	0,1	1,859062
1,672500	0,1	1,851333
1,674167	0,1	1,826403
1,675833	0,1	1,833617
1,677500	0,1	1,869778
1,679167	0,1	1,829838
1,680833	0,1	1,850230
1,682500	0,1	1,853613
1,684167	0,1	1,809513
1,685833	0,1	1,774409
1,687500	0,1	1,810138
1,689167	0,1	1,824826
1,690833	0,1	1,810996
1,692500	0,1	1,836486
1,694167	0,1	1,798191
1,695833	0,1	1,808995
1,697500	0,1	1,790464
1,699167	0,1	1,764622
1,700833	0,1	1,797687
1,702500	0,1	1,802779
1,704167	0,1	1,788164
1,705833	0,1	1,794889
1,707500	0,1	1,764187
1,709167	0,1	1,764238
1,710833	0,1	1,787221
1,712500	0,1	1,727248
1,714167	0,1	1,749412
1,715833	0,1	1,749796
1,717500	0,1	1,746633
1,719167	0,1	1,744295
1,720833	0,1	1,747781
1,722500	0,1	1,723939
1,724167	0,1	1,700249
1,725833	0,1	1,723362
1,727500	0,1	1,696108
1,729167	0,1	1,679263
1,730833	0,1	1,665816
1,732500	0,1	1,695013
1,734167	0,1	1,705693
1,735833	0,1	1,681588
1,737500	0,1	1,644574
1,739167	0,1	1,652237
1,740833	0,1	1,572362
1,742500	0,1	1,599895
1,744167	0,1	1,598081
1,745833	0,1	1,571267
1,747500	0,1	1,540202
1,749167	0,1	1,544374
1,750833	0,1	1,518827
1,752500	0,1	1,537190
1,754167	0,1	1,489551
1,755833	0,1	1,499649
1,757500	0,1	1,435040
1,759167	0,1	1,473598
1,760833	0,1	1,490193
1,762500	0,1	1,417522
1,764167	0,1	1,411576
1,765833	0,1	1,363286
1,767500	0,1	1,365713
1,769167	0,1	1,351487
1,770833	0,1	1,362492
1,772500	0,1	1,318260
1,774167	0,1	1,307175
1,775833	0,1	1,271453
1,777500	0,1	1,267517
1,779167	0,1	1,252716
1,780833	0,1	1,197227
1,782500	0,1	1,180996
1,784167	0,1	1,221677
1,785833	0,1	1,190337
1,787500	0,1	1,153995
1,789167	0,1	1,096007
1,790833	0,1	1,086765
1,792500	0,1	1,089913
1,794167	0,1	1,075186
1,795833	0,1	1,096499
1,797500	0,1	0,979341
1,799167	0,1	0,960886
1,800833	0,1	0,964658
1,802500	0,1	0,957117
1,804167	0,1	0,946761
1,805833	0,1	0,894102
1,807500	0,1	0,856316
1,809167	0,1	0,878717
1,810833	0,1	0,865787
1,812500	0,1	0,834453
1,814167	0,1	0,804720
1,815833	0,1	0,804973
1,817500	0,1	0,746057
1,819167	0,1	0,776027
1,820833	0,1	0,731339
1,822500	0,1	0,687883
1,824167	0,1	0,707794
1,825833	0,1	0,696680
1,827500	0,1	0,617549
1,829167	0,1	0,618494
1,830833	0,1	0,602720
1,832500	0,1	0,609976
1,834167	0,1	0,583221
1,835833	0,1	0,564358
1,837500	0,1	0,564579
1,839167	0,1	0,560339
1,840833	0,1	0,546557
1,842500	0,1	0,569779
1,844167	0,1	0,569814
1,845833	0,1	0,565029
1,847500	0,1	0,563709
1,849167	0,1	0,612827
1,850833	0,1	0,610942
1,852500	0,1	0,642681
1,854167	0,1	0,657824
1,855833	0,1	0,722438
1,857500	0,1	0,699868
1,859167	0,1	0,767343
1,860833	0,1	0,820930
1,862500	0,1	0,833669
1,864167	0,1	0,884076
1,865833	0,1	0,904976
1,867500	0,1	0,937325
1,869167	0,1	1,005849
1,870833	0,1	1,000210
1,872500	0,1	1,059729
1,874167	0,1	1,072407
1,875833	0,1	1,142965
1,877500	0,1	1,176722
1,879167	0,1	1,234852
1,880833	0,1	1,297398
1,882500	0,1	1,327810
1,884167	0,1	1,327801
1,885833	0,1	1,391382
1,887500	0,1	1,432507
1,889167	0,1	1,465705
1,890833	0,1	1,506946
1,892500	0,1	1,554420
1,894167	0,1	1,583023
1,895833	0,1	1,621217
1,897500	0,1	1,665319
1,899167	0,1	1,698026
1,900833	0,1	1,715771
1,902500	0,1	1,815000
1,904167	0,1	1,787354
1,905833	0,1	1,855312
1,907500	0,1	1,875163
1,909167	0,1	1,952715
1,910833	0,1	1,969478
1,912500	0,1	2,018542
1,914167	0,1	2,041253
1,915833	0,1	2,073286
1,917500	0,1	2,109034
1,919167	0,1	2,167213
1,920833	0,1	2,170166
1,922500	0,1	2,255142
1,924167	0,1	2,271646
1,925833	0,1	2,260901
1,927500	0,1	2,292357
1,929167	0,1	2,375573
1,930833	0,1	2,376599
1,932500	0,1	2,402476
1,934167	0,1	2,484279
1,935833	0,1	2,507665
1,937500	0,1	2,491327
1,939167	0,1	2,505237
1,940833	0,1	2,571569
1,942500	0,1	2,601701
1,944167	0,1	2,623434
1,945833	0,1	2,646905
1,947500	0,1	2,681540
1,949167	0,1	2,696847
1,950833	0,1	2,732996
1,952500	0,1	2,759255
1,954167	0,1	2,814666
1,955833	0,1	2,840798
1,957500	0,1	2,884360
1,959167	0,1	2,927870
1,960833	0,1	2,991881
1,962500	0,1	2,989525
1,964167	0,1	3,042576
1,965833	0,1	3,060543
1,967500	0,1	3,070616
1,969167	0,1	3,113913
1,970833	0,1	3,171919
1,972500	0,1	3,205997
1,974167	0,1	3,233647
1,975833	0,1	3,302421
1,977500	0,1	3,331781
1,979167	0,1	3,330724
1,980833	0,1	3,433721
1,982500	0,1	3,474181
1,984167	0,1	3,492038
1,985833	0,1	3,536826
1,987500	0,1	3,564029
1,989167	0,1	3,611830
1,990833	0,1	3,657802
1,992500	0,1	3,693946
1,994167	0,1	3,783673
1,995833	0,1	3,780773
1,997500	0,1	3,805602
1,999167	0,1	3,896834
2,000833	0,1	3,919815
2,002500	0,1	3,950422
2,004167	0,1	4,100343
2,005833	0,1	4,109526
2,007500	0,1	4,074671
2,009167	0,1	4,164781
2,010833	0,1	4,200350
2,012500	0,1	4,223751
2,014167	0,1	4,332817
2,015833	0,1	4,353823
2,017500	0,1	4,397535
2,019167	0,1	4,438254
2,020833	0,1	4,475174
2,022500	0,1	4,493900
2,024167	0,1	4,569758
2,025833	0,1	4,603090
2,027500	0,1	4,675893
2,029167	0,1	4,728066
2,030833	0,1	4,751713
2,032500	0,1	4,808486
2,034167	0,1	4,782883
2,035833	0,1	4,921270
2,037500	0,1	4,924099
2,039167	0,1	4,932900
2,040833	0,1	5,037330
2,042500	0,1	5,067726
2,044167	0,1	5,125821
2,045833	0,1	5,155615
2,047500	0,1	5,171993
2,049167	0,1	5,210335
2,050833	0,1	5,258508
2,052500	0,1	5,324848
2,054167	0,1	5,340144
2,055833	0,1	5,390643
2,057500	0,1	5,419153
2,059167	0,1	5,494830
2,060833	0,1	5,526037
2,062500	0,1	5,527297
2,064167	0,1	5,580350
2,065833	0,1	5,592254
2,067500	0,1	5,632878
2,069167	0,1	5,680271
2,070833	0,1	5,690207
2,072500	0,1	5,655715
2,074167	0,1	5,761362
2,075833	0,1	5,755759
2,077500	0,1	5,805123
2,079167	0,1	5,809599
2,080833	0,1	5,849228
2,082500	0,1	5,904903
2,084167	0,1	5,879185
2,085833	0,1	5,904033
2,087500	0,1	5,941268
2,089167	0,1	5,974835
2,090833	0,1	5,964932
2,092500	0,1	5,995341
2,094167	0,1	6,022656
2,095833	0,1	6,002599
2,097500	0,1	6,041201
2,099167	0,1	6,042569
2,100833	0,1	6,004258
2,102500	0,1	6,093959
2,104167	0,1	6,066831
2,105833	0,1	6,060864
2,107500	0,1	6,095629
2,109167	0,1	6,135993
2,110833	0,1	6,091727
2,112500	0,1	6,111815
2,114167	0,1	6,113505
2,115833	0,1	6,112737
2,117500	0,1	6,112410
2,119167	0,1	6,121415
2,120833	0,1	6,143262
2,122500	0,1	6,116677
2,124167	0,1	6,160269
2,125833	0,1	6,125687
2,127500	0,1	6,114350
2,129167	0,1	6,100403
2,130833	0,1	6,138569
2,132500	0,1	6,102108
2,134167	0,1	6,098373
2,135833	0,1	6,129709
2,137500	0,1	6,064268
2,139167	0,1	6,087747
2,140833	0,1	6,065529
2,142500	0,1	6,086002
2,144167	0,1	6,064152
2,145833	0,1	6,066749
2,147500	0,1	6,045723
2,149167	0,1	5,996261
2,150833	0,1	5,938461
2,152500	0,1	5,968489
2,154167	0,1	5,972119
2,155833	0,1	5,932355
2,157500	0,1	5,911709
2,159167	0,1	5,923885
2,160833	0,1	5,871298
2,162500	0,1	5,893501
2,164167	0,1	5,868214
2,165833	0,1	5,854956
2,167500	0,1	5,818484
2,169167	0,1	5,830742
2,170833	0,1	5,785268
2,172500	0,1	5,753835
2,174167	0,1	5,737011
2,175833	0,1	5,699691
2,177500	0,1	5,727025
2,179167	0,1	5,684998
2,180833	0,1	5,622328
2,182500	0,1	5,622766
2,184167	0,1	5,597375
2,185833	0,1	5,594164
2,187500	0,1	5,586170
2,189167	0,1	5,514466
2,190833	0,1	5,498360
2,192500	0,1	5,522508
2,194167	0,1	5,503279
2,195833	0,1	5,463921
2,197500	0,1	5,411351
2,199167	0,1	5,394079
2,200833	0,1	5,364194
2,202500	0,1	5,347777
2,204167	0,1	5,327272
2,205833	0,1	5,321276
2,207500	0,1	5,267260
2,209167	0,1	5,264792
2,210833	0,1	5,240537
2,212500	0,1	5,204733
2,214167	0,1	5,167686
2,215833	0,1	5,166040
2,217500	0,1	5,136117
2,219167	0,1	5,137919
2,220833	0,1	5,121010
2,222500	0,1	5,070115
2,224167	0,1	5,058339
2,225833	0,1	5,027236
2,227500	0,1	5,053588
2,229167	0,1	4,985978
2,230833	0,1	4,981587
2,232500	0,1	4,945809
2,234167	0,1	4,923539
2,235833	0,1	4,893735
2,237500	0,1	4,890549
2,239167	0,1	4,859172
2,240833	0,1	4,827274
2,242500	0,1	4,850906
2,244167	0,1	4,819254
2,245833	0,1	4,815520
2,247500	0,1	4,791419
2,249167	0,1	4,746139
2,250833	0,1	4,759501
2,252500	0,1	4,727805
2,254167	0,1	4,660513
2,255833	0,1	4,702862
2,257500	0,1	4,689478
2,259167	0,1	4,672990
2,260833	0,1	4,644699
2,262500	0,1	4,614616
2,264167	0,1	4,597667
2,265833	0,1	4,613425
2,267500	0,1	4,572134
2,269167	0,1	4,638664
2,270833	0,1	4,542195
2,272500	0,1	4,565349
2,274167	0,1	4,532207
2,275833	0,1	4,540873
2,277500	0,1	4,501896
2,279167	0,1	4,508696
2,280833	0,1	4,491194
2,282500	0,1	4,516185
2,284167	0,1	4,471422
2,285833	0,1	4,494177
2,287500	0,1	4,476525
2,289167	0,1	4,480728
2,290833	0,1	4,419844
2,292500	0,1	4,474803
2,294167	0,1	4,447022
2,295833	0,1	4,468972
2,297500	0,1	4,437097
2,299167	0,1	4,457102
2,300833	0,1	4,413924
2,302500	0,1	4,423918
2,304167	0,1	4,420519
2,305833	0,1	4,427889
2,307500	0,1	4,434251
2,309167	0,1	4,429837
2,310833	0,1	4,448915
2,312500	0,1	4,418217
2,314167	0,1	4,438300
2,315833	0,1	4,387224
2,317500	0,1	4,420063
2,319167	0,1	4,408649
2,320833	0,1	4,426753
2,322500	0,1	4,472656
2,324167	0,1	4,416924
2,325833	0,1	4,410874
2,327500	0,1	4,427849
2,329167	0,1	4,422950
2,330833	0,1	4,426716
2,332500	0,1	4,425339
2,334167	0,1	4,432509
2,335833	0,1	4,398241
2,337500	0,1	4,420106
2,339167	0,1	4,476177
2,340833	0,1	4,455573
2,342500	0,1	4,430816
2,344167	0,1	4,506692
2,345833	0,1	4,413370
2,347500	0,1	4,476176
2,349167	0,1	4,463149
2,350833	0,1	4,437017
2,352500	0,1	4,477926
2,354167	0,1	4,465253
2,355833	0,1	4,449615
2,357500	0,1	4,516381
2,359167	0,1	4,484631
2,360833	0,1	4,527895
2,362500	0,1	4,524501
2,364167	0,1	4,495164
2,365833	0,1	4,544993
2,367500	0,1	4,512635
2,369167	0,1	4,518947
2,370833	0,1	4,545365
2,372500	0,1	4,541927
2,374167	0,1	4,536867
2,375833	0,1	4,558052
2,377500	0,1	4,547041
2,379167	0,1	4,571349
2,380833	0,1	4,624433
2,382500	0,1	4,591870
2,384167	0,1	4,588100
2,385833	0,1	4,643856
2,387500	0,1	4,612186
2,389167	0,1	4,620115
2,390833	0,1	4,624299
2,392500	0,1	4,666880
2,394167	0,1	4,665532
2,395833	0,1	4,675496
2,397500	0,1	4,644854
2,399167	0,1	4,710749
2,400833	0,1	4,684786
2,402500	0,1	4,689922
2,404167	0,1	4,712020
2,405833	0,1	4,732982
2,407500	0,1	4,721677
2,409167	0,1	4,725850
2,410833	0,1	4,780088
2,412500	0,1	4,751160
2,414167	0,1	4,745799
2,415833	0,1	4,789506
2,417500	0,1	4,763851
2,419167	0,1	4,815376
2,420833	0,1	4,799384
2,422500	0,1	4,788387
2,424167	0,1	4,813883
2,425833	0,1	4,808667
2,427500	0,1	4,820094
2,429167	0,1	4,846612
2,430833	0,1	4,782442
2,432500	0,1	4,812516
2,434167	0,1	4,848640
2,435833	0,1	4,860893
2,437500	0,1	4,849266
2,439167	0,1	4,836722
2,440833	0,1	4,887724
2,442500	0,1	4,860767
2,444167	0,1	4,881574
2,445833	0,1	4,837427
2,447500	0,1	4,852671
2,449167	0,1	4,897793
2,450833	0,1	4,887173
2,452500	0,1	4,867338
2,454167	0,1	4,862393
2,455833	0,1	4,888511
2,457500	0,1	4,881962
2,459167	0,1	4,856775
2,460833	0,1	4,858730
2,462500	0,1	4,848600
2,464167	0,1	4,880673
2,465833	0,1	4,856043
2,467500	0,1	4,889109
2,469167	0,1	4,825386
2,470833	0,1	4,837097
2,472500	0,1	4,846617
2,474167	0,1	4,846734
2,475833	0,1	4,824277
2,477500	0,1	4,826051
2,479167	0,1	4,811747
2,480833	0,1	4,789486
2,482500	0,1	4,772182
2,484167	0,1	4,771700
2,485833	0,1	4,790078
2,487500	0,1	4,767426
2,489167	0,1	4,800207
2,490833	0,1	4,749914
2,492500	0,1	4,804178
2,494167	0,1	4,759079
2,495833	0,1	4,777548
2,497500	0,1	4,756997
2,499167	0,1	4,731895
2,500833	0,1	4,715426
2,502500	0,1	4,700765
2,504167	0,1	4,724548
2,505833	0,1	4,672632
2,507500	0,1	4,688102
2,509167	0,1	4,700593
2,510833	0,1	4,735455
2,512500	0,1	4,699014
2,514167	0,1	4,739251
2,515833	0,1	4,698094
2,517500	0,1	4,692719
2,519167	0,1	4,761385
2,520833	0,1	4,716660
2,522500	0,1	4,719363
2,524167	0,1	4,714527
2,525833	0,1	4,731885
2,527500	0,1	4,711394
2,529167	0,1	4,715883
2,530833	0,1	4,724304
2,532500	0,1	4,783612
2,534167	0,1	4,746620
2,535833	0,1	4,743038
2,537500	0,1	4,729594
2,539167	0,1	4,748070
2,540833	0,1	4,752483
2,542500	0,1	4,773889
2,544167	0,1	4,763682
2,545833	0,1	4,838363
2,547500	0,1	4,747944
2,549167	0,1	4,806971
2,550833	0,1	4,792314
2,552500	0,1	4,809494
2,554167	0,1	4,811660
2,555833	0,1	4,808299
2,557500	0,1	4,810011
2,559167	0,1	4,859735
2,560833	0,1	4,810158
2,562500	0,1	4,805988
2,564167	0,1	4,840336
2,565833	0,1	4,860690
2,567500	0,1	4,826875
2,569167	0,1	4,867008
2,570833	0,1	4,839769
2,572500	0,1	4,859593
2,574167	0,1	4,867665
2,575833	0,1	4,859100
2,577500	0,1	4,849898
2,579167	0,1	4,869342
2,580833	0,1	4,855624
2,582500	0,1	4,850712
2,584167	0,1	4,812651
2,585833	0,1	4,841970
2,587500	0,1	4,816692
2,589167	0,1	4,813558
2,590833	0,1	4,806057
2,592500	0,1	4,767879
2,594167	0,1	4,806825
2,595833	0,1	4,770825
2,597500	0,1	4,794251
2,599167	0,1	4,764771
2,600833	0,1	4,716343
2,602500	0,1	4,728608
2,604167	0,1	4,698612
2,605833	0,1	4,677285
2,607500	0,1	4,651128
2,609167	0,1	4,678725
2,610833	0,1	4,644197
2,612500	0,1	4,562056
2,614167	0,1	4,569571
2,615833	0,1	4,588087
2,617500	0,1	4,578327
2,619167	0,1	4,562646
2,620833	0,1	4,500604
2,622500	0,1	4,475145
2,624167	0,1	4,426974
2,625833	0,1	4,423598
2,627500	0,1	4,411120
2,629167	0,1	4,379482
2,630833	0,1	4,365175
2,632500	0,1	4,306893
2,634167	0,1	4,266703
2,635833	0,1	4,262766
2,637500	0,1	4,237497
2,639167	0,1	4,195702
2,640833	0,1	4,159990
2,642500	0,1	4,182124
2,644167	0,1	4,132820
2,645833	0,1	4,080709
2,647500	0,1	4,064177
2,649167	0,1	4,039303
2,650833	0,1	3,976508
2,652500	0,1	3,954764
2,654167	0,1	3,927819
2,655833	0,1	3,914500
2,657500	0,1	3,862821
2,659167	0,1	3,872013
2,660833	0,1	3,805643
2,662500	0,1	3,789937
2,664167	0,1	3,739896
2,665833	0,1	3,729601
2,667500	0,1	3,663059
2,669167	0,1	3,622750
2,670833	0,1	3,644529
2,672500	0,1	3,607761
2,674167	0,1	3,560997
2,675833	0,1	3,512161
2,677500	0,1	3,503843
2,679167	0,1	3,453632
2,680833	0,1	3,416707
2,682500	0,1	3,371368
2,684167	0,1	3,396795
2,685833	0,1	3,343155
2,687500	0,1	3,293912
2,689167	0,1	3,266920
2,690833	0,1	3,259118
2,692500	0,1	3,220581
2,694167	0,1	3,200020
2,695833	0,1	3,140179
2,697500	0,1	3,145278
2,699167	0,1	3,081740
2,700833	0,1	3,085677
2,702500	0,1	3,070607
2,704167	0,1	3,028515
2,705833	0,1	2,977544
2,707500	0,1	2,965844
2,709167	0,1	2,954785
2,710833	0,1	2,926495
2,712500	0,1	2,917595
2,714167	0,1	2,868781
2,715833	0,1	2,781517
2,717500	0,1	2,779940
2,719167	0,1	2,762082
2,720833	0,1	2,803955
2,722500	0,1	2,701313
2,724167	0,1	2,669083
2,725833	0,1	2,702702
2,727500	0,1	2,686858
2,729167	0,1	2,628040
2,730833	0,1	2,616560
2,732500	0,1	2,602856
2,734167	0,1	2,572872
2,735833	0,1	2,600345
2,737500	0,1	2,476156
2,739167	0,1	2,550541
2,740833	0,1	2,472635
2,742500	0,1	2,489449
2,744167	0,1	2,482006
2,745833	0,1	2,386445
2,747500	0,1	2,452301
2,749167	0,1	2,404502
2,750833	0,1	2,405924
2,752500	0,1	2,387852
2,754167	0,1	2,338184
2,755833	0,1	2,353723
2,757500	0,1	2,361183
2,759167	0,1	2,303847
2,760833	0,1	2,299247
2,762500	0,1	2,279538
2,764167	0,1	2,251586
2,765833	0,1	2,259892
2,767500	0,1	2,229439
2,769167	0,1	2,221765
2,770833	0,1	2,201344
2,772500	0,1	2,171966
2,774167	0,1	2,184638
2,775833	0,1	2,135425
2,777500	0,1	2,149450
2,779167	0,1	2,071295
2,780833	0,1	2,104020
2,782500	0,1	2,063128
2,784167	0,1	2,119633
2,785833	0,1	2,089641
2,787500	0,1	2,059257
2,789167	0,1	2,053590
2,790833	0,1	2,025874
2,792500	0,1	2,055594
2,794167	0,1	2,040408
2,795833	0,1	1,996281
2,797500	0,1	2,030222
2,799167	0,1	2,011688
2,800833	0,1	1,986765
2,802500	0,1	1,988329
2,804167	0,1	1,971999
2,805833	0,1	1,956668
2,807500	0,1	1,956531
2,809167	0,1	1,933183
2,810833	0,1	1,944855
2,812500	0,1	1,934898
2,814167	0,1	1,948363
2,815833	0,1	1,893166
2,817500	0,1	1,860701
2,819167	0,1	1,891498
2,820833	0,1	1,870880
2,822500	0,1	1,829908
2,824167	0,1	1,878029
2,825833	0,1	1,882180
2,827500	0,1	1,845740
2,829167	0,1	1,809504
2,830833	0,1	1,825376
2,832500	0,1	1,839153
2,834167	0,1	1,786953
2,835833	0,1	1,796831
2,837500	0,1	1,774762
2,839167	0,1	1,826681
2,840833	0,1	1,820835
2,842500	0,1	1,782290
2,844167	0,1	1,774977
2,845833	0,1	1,791020
2,847500	0,1	1,757447
2,849167	0,1	1,742088
2,850833	0,1	1,734759
2,852500	0,1	1,709935
2,854167	0,1	1,707836
2,855833	0,1	1,704339
2,857500	0,1	1,694746
2,859167	0,1	1,692732
2,860833	0,1	1,698023
2,862500	0,1	1,700035
2,864167	0,1	1,660024
2,865833	0,1	1,689859
2,867500	0,1	1,673708
2,869167	0,1	1,650643
2,870833	0,1	1,661231
2,872500	0,1	1,658024
2,874167	0,1	1,658174
2,875833	0,1	1,606518
2,877500	0,1	1,615482
2,879167	0,1	1,637474
2,880833	0,1	1,599241
2,882500	0,1	1,627235
2,884167	0,1	1,611786
2,885833	0,1	1,593176
2,887500	0,1	1,609860
2,889167	0,1	1,611138
2,890833	0,1	1,552049
2,892500	0,1	1,543774
2,894167	0,1	1,565486
2,895833	0,1	1,536791
2,897500	0,1	1,561401
2,899167	0,1	1,530940
2,900833	0,1	1,553893
2,902500	0,1	1,523911
2,904167	0,1	1,525123
2,905833	0,1	1,512904
2,907500	0,1	1,521053
2,909167	0,1	1,465605
2,910833	0,1	1,503135
2,912500	0,1	1,502091
2,914167	0,1	1,494062
2,915833	0,1	1,484570
2,917500	0,1	1,461801
2,919167	0,1	1,446735
2,920833	0,1	1,463148
2,922500	0,1	1,463319
2,924167	0,1	1,405218
2,925833	0,1	1,439048
2,927500	0,1	1,469516
2,929167	0,1	1,447109
2,930833	0,1	1,452425
2,932500	0,1	1,446308
2,934167	0,1	1,431401
2,935833	0,1	1,425014
2,937500	0,1	1,426875
2,939167	0,1	1,410377
2,940833	0,1	1,392554
2,942500	0,1	1,388466
2,944167	0,1	1,371377
2,945833	0,1	1,395643
2,947500	0,1	1,372614
2,949167	0,1	1,374234
2,950833	0,1	1,344004
2,952500	0,1	1,368740
2,954167	0,1	1,354944
2,955833	0,1	1,370233
2,957500	0,1	1,380823
2,959167	0,1	1,379927
2,960833	0,1	1,359960
2,962500	0,1	1,341018
2,964167	0,1	1,318525
2,965833	0,1	1,390176
2,967500	0,1	1,329493
2,969167	0,1	1,329021
2,970833	0,1	1,370550
2,972500	0,1	1,332229
2,974167	0,1	1,303806
2,975833	0,1	1,356164
2,977500	0,1	1,334549
2,979167	0,1	1,293321
2,980833	0,1	1,329470
2,982500	0,1	1,300840
2,984167	0,1	1,326830
2,985833	0,1	1,315964
2,987500	0,1	1,345632
2,989167	0,1	1,261542
2,990833	0,1	1,327023
2,992500	0,1	1,283146
2,994167	0,1	1,321506
2,995833	0,1	1,341637
2,997500	0,1	1,300948
2,999167	0,1	1,262645
3,000833	0,1	1,262455
3,002500	0,1	1,307007
3,004167	0,1	1,276449
3,005833	0,1	1,290434
3,007500	0,1	1,311855
3,009167	0,1	1,284295
3,010833	0,1	1,289216
3,012500	0,1	1,286067
3,014167	0,1	1,331418
3,015833	0,1	1,287432
3,017500	0,1	1,273619
3,019167	0,1	1,283826
3,020833	0,1	1,246374
3,022500	0,1	1,298570
3,024167	0,1	1,278769
3,025833	0,1	1,282002
3,027500	0,1	1,299731
3,029167	0,1	1,276620
3,030833	0,1	1,280695
3,032500	0,1	1,289043
3,034167	0,1	1,257735
3,035833	0,1	1,260234
3,037500	0,1	1,260744
3,039167	0,1	1,289632
3,040833	0,1	1,285135
3,042500	0,1	1,263545
3,044167	0,1	1,239734
3,045833	0,1	1,260759
3,047500	0,1	1,230591
3,049167	0,1	1,233203
3,050833	0,1	1,267680
3,052500	0,1	1,279320
3,054167	0,1	1,245595
3,055833	0,1	1,280198
3,057500	0,1	1,245556
3,059167	0,1	1,252088
3,060833	0,1	1,268463
3,062500	0,1	1,262725
3,064167	0,1	1,236120
3,065833	0,1	1,254727
3,067500	0,1	1,235783
3,069167	0,1	1,237266
3,070833	0,1	1,238352
3,072500	0,1	1,245497
3,074167	0,1	1,250869
3,075833	0,1	1,246366
3,077500	0,1	1,254306
3,079167	0,1	1,220676
3,080833	0,1	1,233356
3,082500	0,1	1,221891
3,084167	0,1	1,264001
3,085833	0,1	1,243707
3,087500	0,1	1,256150
3,089167	0,1	1,247835
3,090833	0,1	1,273033
3,092500	0,1	1,270197
3,094167	0,1	1,273644
3,095833	0,1	1,288600
3,097500	0,1	1,286606
3,099167	0,1	1,248592
3,100833	0,1	1,272507
3,102500	0,1	1,277745
3,104167	0,1	1,303334
3,105833	0,1	1,309180
3,107500	0,1	1,310236
3,109167	0,1	1,328524
3,110833	0,1	1,312595
3,112500	0,1	1,288984
3,114167	0,1	1,338411
3,115833	0,1	1,354293
3,117500	0,1	1,343404
3,119167	0,1	1,371415
3,120833	0,1	1,387971
3,122500	0,1	1,351492
3,124167	0,1	1,381530
3,125833	0,1	1,349068
3,127500	0,1	1,443200
3,129167	0,1	1,440480
3,130833	0,1	1,498707
3,132500	0,1	1,448712
3,134167	0,1	1,498133
3,135833	0,1	1,500568
3,137500	0,1	1,476884
3,139167	0,1	1,523181
3,140833	0,1	1,495712
3,142500	0,1	1,509512
3,144167	0,1	1,511707
3,145833	0,1	1,580274
3,147500	0,1	1,549165
3,149167	0,1	1,580652
3,150833	0,1	1,620504
3,152500	0,1	1,594180
3,154167	0,1	1,611409
3,155833	0,1	1,628319
3,157500	0,1	1,705331
3,159167	0,1	1,690790
3,160833	0,1	1,657157
3,162500	0,1	1,703396
3,164167	0,1	1,747347
3,165833	0,1	1,740122
3,167500	0,1	1,704912
3,169167	0,1	1,738398
3,170833	0,1	1,707268
3,172500	0,1	1,802471
3,174167	0,1	1,735042
3,175833	0,1	1,735035
3,177500	0,1	1,813646
3,179167	0,1	1,782160
3,180833	0,1	1,759158
3,182500	0,1	1,791305
3,184167	0,1	1,770320
3,185833	0,1	1,837267
3,187500	0,1	1,802711
3,189167	0,1	1,784427
3,190833	0,1	1,794522
3,192500	0,1	1,808046
3,194167	0,1	1,815562
3,195833	0,1	1,836626
3,197500	0,1	1,826741
3,199167	0,1	1,800044
3,200833	0,1	1,834262
3,202500	0,1	1,842437
3,204167	0,1	1,813376
3,205833	0,1	1,806762
3,207500	0,1	1,813238
3,209167	0,1	1,803339
3,210833	0,1	1,843867
3,212500	0,1	1,804287
3,214167	0,1	1,833409
3,215833	0,1	1,823386
3,217500	0,1	1,789527
3,219167	0,1	1,792817
3,220833	0,1	1,807123
3,222500	0,1	1,778274
3,224167	0,1	1,747354
3,225833	0,1	1,755712
3,227500	0,1	1,775188
3,229167	0,1	1,744629
3,230833	0,1	1,761587
3,232500	0,1	1,731396
3,234167	0,1	1,745352
3,235833	0,1	1,712700
3,237500	0,1	1,709195
3,239167	0,1	1,754423
3,240833	0,1	1,694541
3,242500	0,1	1,676469
3,244167	0,1	1,675545
3,245833	0,1	1,715281
3,247500	0,1	1,681650
3,249167	0,1	1,627474
3,250833	0,1	1,661157
3,252500	0,1	1,597833
3,254167	0,1	1,610548
3,255833	0,1	1,621799
3,257500	0,1	1,550435
3,259167	0,1	1,593588
3,260833	0,1	1,572074
3,262500	0,1	1,542709
3,264167	0,1	1,513894
3,265833	0,1	1,551874
3,267500	0,1	1,487789
3,269167	0,1	1,504799
3,270833	0,1	1,495926
3,272500	0,1	1,500938
3,274167	0,1	1,415662
3,275833	0,1	1,464309
3,277500	0,1	1,428731
3,279167	0,1	1,431737
3,280833	0,1	1,385664
3,282500	0,1	1,413839
3,284167	0,1	1,415877
3,285833	0,1	1,333682
3,287500	0,1	1,364976
3,289167	0,1	1,346998
3,290833	0,1	1,339831
3,292500	0,1	1,313559
3,294167	0,1	1,307885
3,295833	0,1	1,273472
3,297500	0,1	1,285842
3,299167	0,1	1,299378
3,300833	0,1	1,285321
3,302500	0,1	1,255765
3,304167	0,1	1,237177
3,305833	0,1	1,251998
3,307500	0,1	1,179166
3,309167	0,1	1,242199
3,310833	0,1	1,190769
3,312500	0,1	1,174848
3,314167	0,1	1,164198
3,315833	0,1	1,196556
3,317500	0,1	1,181573
3,319167	0,1	1,114511
3,320833	0,1	1,158614
3,322500	0,1	1,140969
3,324167	0,1	1,128853
3,325833	0,1	1,122640
3,327500	0,1	1,119622
3,329167	0,1	1,133507
3,330833	0,1	1,067412
3,332500	0,1	1,040674
3,334167	0,1	1,093474
3,335833	0,1	1,044959
3,337500	0,1	1,025480
3,339167	0,1	1,078743
3,340833	0,1	1,021094
3,342500	0,1	1,017221
3,344167	0,1	1,020461
3,345833	0,1	1,041905
3,347500	0,1	0,994431
3,349167	0,1	1,020275
3,350833	0,1	0,983675
3,352500	0,1	1,005975
3,354167	0,1	1,003515
3,355833	0,1	1,005618
3,357500	0,1	0,987645
3,359167	0,1	0,949275
3,360833	0,1	0,943676
3,362500	0,1	0,926511
3,364167	0,1	0,945426
3,365833	0,1	0,970375
3,367500	0,1	0,955305
3,369167	0,1	0,922839
3,370833	0,1	0,906443
3,372500	0,1	0,907553
3,374167	0,1	0,910899
3,375833	0,1	0,909864
3,377500	0,1	0,882166
3,379167	0,1	0,882802
3,380833	0,1	0,893825
3,382500	0,1	0,896150
3,384167	0,1	0,882964
3,385833	0,1	0,855093
3,387500	0,1	0,911792
3,389167	0,1	0,925781
3,390833	0,1	0,856836
3,392500	0,1	0,842651
3,394167	0,1	0,891072
3,395833	0,1	0,874435
3,397500	0,1	0,877657
3,399167	0,1	0,872858
3,400833	0,1	0,834716
3,402500	0,1	0,850320
3,404167	0,1	0,868233
3,405833	0,1	0,821598
3,407500	0,1	0,820982
3,409167	0,1	0,825834
3,410833	0,1	0,838300
3,412500	0,1	0,792796
3,414167	0,1	0,861975
3,415833	0,1	0,826320
3,417500	0,1	0,846331
3,419167	0,1	0,821145
3,420833	0,1	0,803943
3,422500	0,1	0,846260
3,424167	0,1	0,824023
3,425833	0,1	0,793017
3,427500	0,1	0,753383
3,429167	0,1	0,822529
3,430833	0,1	0,786429
3,432500	0,1	0,799146
3,434167	0,1	0,759819
3,435833	0,1	0,829079
3,437500	0,1	0,787876
3,439167	0,1	0,811033
3,440833	0,1	0,806539
3,442500	0,1	0,780315
3,444167	0,1	0,768300
3,445833	0,1	0,775007
3,447500	0,1	0,764147
3,449167	0,1	0,746792
3,450833	0,1	0,764913
3,452500	0,1	0,765335
3,454167	0,1	0,768672
3,455833	0,1	0,756338
3,457500	0,1	0,755015
3,459167	0,1	0,744889
3,460833	0,1	0,791452
3,462500	0,1	0,760938
3,464167	0,1	0,793924
3,465833	0,1	0,764057
3,467500	0,1	0,779750
3,469167	0,1	0,761960
3,470833	0,1	0,721631
3,472500	0,1	0,747872
3,474167	0,1	0,758384
3,475833	0,1	0,738847
3,477500	0,1	0,734575
3,479167	0,1	0,742444
3,480833	0,1	0,782388
3,482500	0,1	0,737703
3,484167	0,1	0,752952
3,485833	0,1	0,749965
3,487500	0,1	0,730879
3,489167	0,1	0,737236
3,490833	0,1	0,739361
3,492500	0,1	0,715743
3,494167	0,1	0,703880
3,495833	0,1	0,724895
3,497500	0,1	0,722555
3,499167	0,1	0,733733
3,500833	0,1	0,721785
3,502500	0,1	0,722388
3,504167	0,1	0,731935
3,505833	0,1	0,723966
3,507500	0,1	0,716512
3,509167	0,1	0,741768
3,510833	0,1	0,735925
3,512500	0,1	0,710153
3,514167	0,1	0,721554
3,515833	0,1	0,706423
3,517500	0,1	0,730421
3,519167	0,1	0,711276
3,520833	0,1	0,757575
3,522500	0,1	0,700552
3,524167	0,1	0,708087
3,525833	0,1	0,739443
3,527500	0,1	0,769561
3,529167	0,1	0,723657
3,530833	0,1	0,723804
3,532500	0,1	0,750703
3,534167	0,1	0,689751
3,535833	0,1	0,734692
3,537500	0,1	0,731200
3,539167	0,1	0,711626
3,540833	0,1	0,702594
3,542500	0,1	0,717598
3,544167	0,1	0,730742
3,545833	0,1	0,695755
3,547500	0,1	0,724440
3,549167	0,1	0,710503
3,550833	0,1	0,734438
3,552500	0,1	0,704851
3,554167	0,1	0,708371
3,555833	0,1	0,674832
3,557500	0,1	0,708210
3,559167	0,1	0,723577
3,560833	0,1	0,724094
3,562500	0,1	0,722998
3,564167	0,1	0,712013
3,565833	0,1	0,717600
3,567500	0,1	0,707801
3,569167	0,1	0,719750
3,570833	0,1	0,671014
3,572500	0,1	0,709878
3,574167	0,1	0,719333
3,575833	0,1	0,710727
3,577500	0,1	0,728812
3,579167	0,1	0,722361
3,580833	0,1	0,694597
3,582500	0,1	0,701978
3,584167	0,1	0,669338
3,585833	0,1	0,695995
3,587500	0,1	0,690671
3,589167	0,1	0,696388
3,590833	0,1	0,655555
3,592500	0,1	0,672956
3,594167	0,1	0,678068
3,595833	0,1	0,691503
3,597500	0,1	0,681961
3,599167	0,1	0,688320
3,600833	0,1	0,682958
3,602500	0,1	0,704227
3,604167	0,1	0,667026
3,605833	0,1	0,681344
3,607500	0,1	0,681348
3,609167	0,1	0,673414
3,610833	0,1	0,657671
3,612500	0,1	0,657600
3,614167	0,1	0,671578
3,615833	0,1	0,643983
3,617500	0,1	0,660331
3,619167	0,1	0,632607
3,620833	0,1	0,688377
3,622500	0,1	0,670714
3,624167	0,1	0,663967
3,625833	0,1	0,675784
3,627500	0,1	0,622105
3,629167	0,1	0,666200
3,630833	0,1	0,659562
3,632500	0,1	0,660396
3,634167	0,1	0,607389
3,635833	0,1	0,646662
3,637500	0,1	0,622129
3,639167	0,1	0,694024
3,640833	0,1	0,651826
3,642500	0,1	0,660779
3,644167	0,1	0,656990
3,645833	0,1	0,611274
3,647500	0,1	0,610783
3,649167	0,1	0,640210
3,650833	0,1	0,628972
3,652500	0,1	0,585311
3,654167	0,1	0,622243
3,655833	0,1	0,587687
3,657500	0,1	0,618486
3,659167	0,1	0,597644
3,660833	0,1	0,628285
3,662500	0,1	0,604298
3,664167	0,1	0,596775
3,665833	0,1	0,607790
3,667500	0,1	0,593080
3,669167	0,1	0,611644
3,670833	0,1	0,597740
3,672500	0,1	0,612095
3,674167	0,1	0,600953
3,675833	0,1	0,613478
3,677500	0,1	0,594785
3,679167	0,1	0,605317
3,680833	0,1	0,590895
3,682500	0,1	0,597157
3,684167	0,1	0,564201
3,685833	0,1	0,584751
3,687500	0,1	0,596094
3,689167	0,1	0,598795
3,690833	0,1	0,608145
3,692500	0,1	0,606380
3,694167	0,1	0,553026
3,695833	0,1	0,596891
3,697500	0,1	0,552347
3,699167	0,1	0,590274
3,700833	0,1	0,580419
3,702500	0,1	0,561851
3,704167	0,1	0,579225
3,705833	0,1	0,610934
3,707500	0,1	0,603137
3,709167	0,1	0,594911
3,710833	0,1	0,590764
3,712500	0,1	0,583054
3,714167	0,1	0,564390
3,715833	0,1	0,591047
3,717500	0,1	0,622438
3,719167	0,1	0,589165
3,720833	0,1	0,596193
3,722500	0,1	0,584823
3,724167	0,1	0,598184
3,725833	0,1	0,607695
3,727500	0,1	0,625139
3,729167	0,1	0,587079
3,730833	0,1	0,580547
3,732500	0,1	0,615208
3,734167	0,1	0,589677
3,735833	0,1	0,596995
3,737500	0,1	0,602106
3,739167	0,1	0,649362
3,740833	0,1	0,610278
3,742500	0,1	0,645380
3,744167	0,1	0,611207
3,745833	0,1	0,581837
3,747500	0,1	0,582923
3,749167	0,1	0,615882
3,750833	0,1	0,615633
3,752500	0,1	0,606317
3,754167	0,1	0,652512
3,755833	0,1	0,639992
3,757500	0,1	0,662994
3,759167	0,1	0,620977
3,760833	0,1	0,687310
3,762500	0,1	0,630878
3,764167	0,1	0,656020
3,765833	0,1	0,609830
3,767500	0,1	0,683581
3,769167	0,1	0,670712
3,770833	0,1	0,670454
3,772500	0,1	0,658501
3,774167	0,1	0,640702
3,775833	0,1	0,689337
3,777500	0,1	0,684017
3,779167	0,1	0,638908
3,780833	0,1	0,690880
3,782500	0,1	0,720678
3,784167	0,1	0,697714
3,785833	0,1	0,699054
3,787500	0,1	0,679040
3,789167	0,1	0,711259
3,790833	0,1	0,740930
3,792500	0,1	0,700414
3,794167	0,1	0,704519
3,795833	0,1	0,715227
3,797500	0,1	0,712848
3,799167	0,1	0,725859
3,800833	0,1	0,794233
3,802500	0,1	0,757725
3,804167	0,1	0,717385
3,805833	0,1	0,764321
3,807500	0,1	0,728089
3,809167	0,1	0,742637
3,810833	0,1	0,766160
3,812500	0,1	0,727799
3,814167	0,1	0,803539
3,815833	0,1	0,806863
3,817500	0,1	0,793526
3,819167	0,1	0,823155
3,820833	0,1	0,777396
3,822500	0,1	0,812736
3,824167	0,1	0,797736
3,825833	0,1	0,809918
3,827500	0,1	0,808532
3,829167	0,1	0,817018
3,830833	0,1	0,850316
3,832500	0,1	0,854210
3,834167	0,1	0,835736
3,835833	0,1	0,841360
3,837500	0,1	0,830972
3,839167	0,1	0,850729
3,840833	0,1	0,891364
3,842500	0,1	0,850977
3,844167	0,1	0,851518
3,845833	0,1	0,841259
3,847500	0,1	0,861159
3,849167	0,1	0,856820
3,850833	0,1	0,844699
3,852500	0,1	0,859715
3,854167	0,1	0,837088
3,855833	0,1	0,847331
3,857500	0,1	0,855952
3,859167	0,1	0,870544
3,860833	0,1	0,861678
3,862500	0,1	0,883428
3,864167	0,1	0,854414
3,865833	0,1	0,893594
3,867500	0,1	0,900125
3,869167	0,1	0,871169
3,870833	0,1	0,885845
3,872500	0,1	0,922874
3,874167	0,1	0,900067
3,875833	0,1	0,884317
3,877500	0,1	0,897577
3,879167	0,1	0,854166
3,880833	0,1	0,837348
3,882500	0,1	0,890625
3,884167	0,1	0,884024
3,885833	0,1	0,894821
3,887500	0,1	0,917865
3,889167	0,1	0,899619
3,890833	0,1	0,887715
3,892500	0,1	0,891517
3,894167	0,1	0,883828
3,895833	0,1	0,854897
3,897500	0,1	0,882954
3,899167	0,1	0,886266
3,900833	0,1	0,862967
3,902500	0,1	0,879218
3,904167	0,1	0,864997
3,905833	0,1	0,873220
3,907500	0,1	0,843298
3,909167	0,1	0,882493
3,910833	0,1	0,844165
3,912500	0,1	0,854441
3,914167	0,1	0,849682
3,915833	0,1	0,843514
3,917500	0,1	0,852552
3,919167	0,1	0,864953
3,920833	0,1	0,858619
3,922500	0,1	0,838690
3,924167	0,1	0,878188
3,925833	0,1	0,842525
3,927500	0,1	0,846951
3,929167	0,1	0,838883
3,930833	0,1	0,816122
3,932500	0,1	0,818436
3,934167	0,1	0,829338
3,935833	0,1	0,811277
3,937500	0,1	0,811394
3,939167	0,1	0,856493
3,940833	0,1	0,804977
3,942500	0,1	0,824144
3,944167	0,1	0,819854
3,945833	0,1	0,814544
3,947500	0,1	0,765767
3,949167	0,1	0,782950
3,950833	0,1	0,792365
3,952500	0,1	0,781888
3,954167	0,1	0,736352
3,955833	0,1	0,749513
3,957500	0,1	0,781140
3,959167	0,1	0,755308
3,960833	0,1	0,768084
3,962500	0,1	0,750064
3,964167	0,1	0,773074
3,965833	0,1	0,726865
3,967500	0,1	0,728686
3,969167	0,1	0,727503
3,970833	0,1	0,750991
3,972500	0,1	0,782651
3,974167	0,1	0,759715
3,975833	0,1	0,777603
3,977500	0,1	0,732267
3,979167	0,1	0,793825
3,980833	0,1	0,717459
3,982500	0,1	0,721009
3,984167	0,1	0,692346
3,985833	0,1	0,727488
3,987500	0,1	0,729814
3,989167	0,1	0,731100
3,990833	0,1	0,733476
3,992500	0,1	0,721590
3,994167	0,1	0,727724
3,995833	0,1	0,719560
3,997500	0,1	0,741732
3,999167	0,1	0,674104
4,000833	0,1	0,686326
4,002500	0,1	0,742620
4,004167	0,1	0,686730
4,005833	0,1	0,681353
4,007500	0,1	0,692466
4,009167	0,1	0,663297
4,010833	0,1	0,702036
4,012500	0,1	0,694657
4,014167	0,1	0,701854
4,015833	0,1	0,699216
4,017500	0,1	0,677081
4,019167	0,1	0,707921
4,020833	0,1	0,703207
4,022500	0,1	0,678334
4,024167	0,1	0,680673
4,025833	0,1	0,727810
4,027500	0,1	0,709763
4,029167	0,1	0,704970
4,030833	0,1	0,689675
4,032500	0,1	0,706250
4,034167	0,1	0,671525
4,035833	0,1	0,716911
4,037500	0,1	0,737075
4,039167	0,1	0,713107
4,040833	0,1	0,738613
4,042500	0,1	0,716774
4,044167	0,1	0,739899
4,045833	0,1	0,717635
4,047500	0,1	0,708827
4,049167	0,1	0,705329
4,050833	0,1	0,735592
4,052500	0,1	0,756966
4,054167	0,1	0,773906
4,055833	0,1	0,739660
4,057500	0,1	0,740353
4,059167	0,1	0,743508
4,060833	0,1	0,752534
4,062500	0,1	0,746180
4,064167	0,1	0,781839
4,065833	0,1	0,782880
4,067500	0,1	0,840851
4,069167	0,1	0,829529
4,070833	0,1	0,803330
4,072500	0,1	0,818788
4,074167	0,1	0,830715
4,075833	0,1	0,844061
4,077500	0,1	0,840785
4,079167	0,1	0,851712
4,080833	0,1	0,844764
4,082500	0,1	0,880668
4,084167	0,1	0,894467
4,085833	0,1	0,911750
4,087500	0,1	0,895339
4,089167	0,1	0,901450
4,090833	0,1	0,937614
4,092500	0,1	0,959996
4,094167	0,1	0,937784
4,095833	0,1	0,943030
4,097500	0,1	0,952569
4,099167	0,1	0,965918
4,100833	0,1	0,991066
4,102500	0,1	1,036731
4,104167	0,1	1,002121
4,105833	0,1	1,027932
4,107500	0,1	1,027806
4,109167	0,1	1,059959
4,110833	0,1	1,069324
4,112500	0,1	1,095942
4,114167	0,1	1,059997
4,115833	0,1	1,101441
4,117500	0,1	1,150891
4,119167	0,1	1,136441
4,120833	0,1	1,160838
4,122500	0,1	1,125064
4,124167	0,1	1,158040
4,125833	0,1	1,224133
4,127500	0,1	1,253946
4,129167	0,1	1,251246
4,130833	0,1	1,253617
4,132500	0,1	1,252801
4,134167	0,1	1,290017
4,135833	0,1	1,301003
4,137500	0,1	1,269782
4,139167	0,1	1,354141
4,140833	0,1	1,341712
4,142500	0,1	1,342066
4,144167	0,1	1,362660
4,145833	0,1	1,332688
4,147500	0,1	1,415843
4,149167	0,1	1,337965
4,150833	0,1	1,402936
4,152500	0,1	1,391484
4,154167	0,1	1,424172
4,155833	0,1	1,443255
4,157500	0,1	1,417951
4,159167	0,1	1,468611
4,160833	0,1	1,466358
4,162500	0,1	1,465033
4,164167	0,1	1,471947
4,165833	0,1	1,480991
4,167500	0,1	1,501646
4,169167	0,1	1,521775
4,170833	0,1	1,569329
4,172500	0,1	1,515135
4,174167	0,1	1,564561
4,175833	0,1	1,568573
4,177500	0,1	1,555682
4,179167	0,1	1,517555
4,180833	0,1	1,585590
4,182500	0,1	1,589538
4,184167	0,1	1,557770
4,185833	0,1	1,567132
4,187500	0,1	1,573287
4,189167	0,1	1,630531
4,190833	0,1	1,607141
4,192500	0,1	1,631964
4,194167	0,1	1,621884
4,195833	0,1	1,585615
4,197500	0,1	1,637697
4,199167	0,1	1,606774
4,200833	0,1	1,633759
4,202500	0,1	1,611801
4,204167	0,1	1,655643
4,205833	0,1	1,617338
4,207500	0,1	1,658027
4,209167	0,1	1,647650
4,210833	0,1	1,635574
4,212500	0,1	1,605199
4,214167	0,1	1,652445
4,215833	0,1	1,605942
4,217500	0,1	1,626386
4,219167	0,1	1,635775
4,220833	0,1	1,605348
4,222500	0,1	1,619660
4,224167	0,1	1,571079
4,225833	0,1	1,650160
4,227500	0,1	1,652008
4,229167	0,1	1,582883
4,230833	0,1	1,627038
4,232500	0,1	1,581082
4,234167	0,1	1,622874
4,235833	0,1	1,578151
4,237500	0,1	1,601717
4,239167	0,1	1,594900
4,240833	0,1	1,578171
4,242500	0,1	1,576357
4,244167	0,1	1,549972
4,245833	0,1	1,533226
4,247500	0,1	1,559045
4,249167	0,1	1,557626
4,250833	0,1	1,527213
4,252500	0,1	1,498741
4,254167	0,1	1,516458
4,255833	0,1	1,498231
4,257500	0,1	1,533295
4,259167	0,1	1,504592
4,260833	0,1	1,508597
4,262500	0,1	1,508325
4,264167	0,1	1,456453
4,265833	0,1	1,456965
4,267500	0,1	1,508631
4,269167	0,1	1,462096
4,270833	0,1	1,432489
4,272500	0,1	1,452269
4,274167	0,1	1,410350
4,275833	0,1	1,432697
4,277500	0,1	1,405583
4,279167	0,1	1,445434
4,280833	0,1	1,425593
4,282500	0,1	1,371910
4,284167	0,1	1,373676
4,285833	0,1	1,402655
4,287500	0,1	1,331919
4,289167	0,1	1,330376
4,290833	0,1	1,327838
4,292500	0,1	1,339775
4,294167	0,1	1,324181
4,295833	0,1	1,341251
4,297500	0,1	1,335544
4,299167	0,1	1,297220
4,300833	0,1	1,251217
4,302500	0,1	1,309578
4,304167	0,1	1,281875
4,305833	0,1	1,232572
4,307500	0,1	1,256714
4,309167	0,1	1,292667
4,310833	0,1	1,233835
4,312500	0,1	1,192961
4,314167	0,1	1,235875
4,315833	0,1	1,208998
4,317500	0,1	1,165049
4,319167	0,1	1,174973
4,320833	0,1	1,206343
4,322500	0,1	1,158792
4,324167	0,1	1,188660
4,325833	0,1	1,139023
4,327500	0,1	1,175321
4,329167	0,1	1,091398
4,330833	0,1	1,079535
4,332500	0,1	1,157628
4,334167	0,1	1,143185
4,335833	0,1	1,100374
4,337500	0,1	1,047069
4,339167	0,1	1,072648
4,340833	0,1	1,104548
4,342500	0,1	1,100697
4,344167	0,1	1,044941
4,345833	0,1	1,015478
4,347500	0,1	1,043480
4,349167	0,1	1,056106
4,350833	0,1	1,037815
4,352500	0,1	1,046855
4,354167	0,1	1,019223
4,355833	0,1	0,993189
4,357500	0,1	0,994179
4,359167	0,1	0,973866
4,360833	0,1	0,990184
4,362500	0,1	0,948252
4,364167	0,1	0,949669
4,365833	0,1	0,954855
4,367500	0,1	0,948334
4,369167	0,1	0,937297
4,370833	0,1	0,922258
4,372500	0,1	0,969753
4,374167	0,1	0,934270
4,375833	0,1	0,934276
4,377500	0,1	0,959995
4,379167	0,1	0,922931
4,380833	0,1	0,912925
4,382500	0,1	0,870492
4,384167	0,1	0,927123
4,385833	0,1	0,919787
4,387500	0,1	0,905365
4,389167	0,1	0,882836
4,390833	0,1	0,871665
4,392500	0,1	0,881726
4,394167	0,1	0,858427
4,395833	0,1	0,843992
4,397500	0,1	0,834317
4,399167	0,1	0,829975
4,400833	0,1	0,821197
4,402500	0,1	0,820973
4,404167	0,1	0,843340
4,405833	0,1	0,819207
4,407500	0,1	0,811647
4,409167	0,1	0,846970
4,410833	0,1	0,769847
4,412500	0,1	0,796505
4,414167	0,1	0,814947
4,415833	0,1	0,802908
4,417500	0,1	0,813246
4,419167	0,1	0,778549
4,420833	0,1	0,788377
4,422500	0,1	0,774844
4,424167	0,1	0,765231
4,425833	0,1	0,786502
4,427500	0,1	0,788053
4,429167	0,1	0,746661
4,430833	0,1	0,738362
4,432500	0,1	0,771331
4,434167	0,1	0,749293
4,435833	0,1	0,700351
4,437500	0,1	0,708406
4,439167	0,1	0,704197
4,440833	0,1	0,722869
4,442500	0,1	0,731416
4,444167	0,1	0,696652
4,445833	0,1	0,730542
4,447500	0,1	0,736269
4,449167	0,1	0,654183
4,450833	0,1	0,686515
4,452500	0,1	0,677558
4,454167	0,1	0,660078
4,455833	0,1	0,652043
4,457500	0,1	0,684199
4,459167	0,1	0,659854
4,460833	0,1	0,632991
4,462500	0,1	0,646413
4,464167	0,1	0,658656
4,465833	0,1	0,616962
4,467500	0,1	0,633078
4,469167	0,1	0,593922
4,470833	0,1	0,607661
4,472500	0,1	0,612709
4,474167	0,1	0,616595
4,475833	0,1	0,598608
4,477500	0,1	0,589994
4,479167	0,1	0,604160
4,480833	0,1	0,608982
4,482500	0,1	0,609883
4,484167	0,1	0,552993
4,485833	0,1	0,581824
4,487500	0,1	0,580644
4,489167	0,1	0,587325
4,490833	0,1	0,592369
4,492500	0,1	0,574639
4,494167	0,1	0,567183
4,495833	0,1	0,561496
4,497500	0,1	0,572833
4,499167	0,1	0,546146
4,500833	0,1	0,531011
4,502500	0,1	0,575557
4,504167	0,1	0,520482
4,505833	0,1	0,557054
4,507500	0,1	0,506569
4,509167	0,1	0,508811
4,510833	0,1	0,512563
4,512500	0,1	0,520726
4,514167	0,1	0,497345
4,515833	0,1	0,503958
4,517500	0,1	0,505628
4,519167	0,1	0,528400
4,520833	0,1	0,488322
4,522500	0,1	0,502412
4,524167	0,1	0,474213
4,525833	0,1	0,464196
4,527500	0,1	0,488595
4,529167	0,1	0,482341
4,530833	0,1	0,458899
4,532500	0,1	0,427515
4,534167	0,1	0,460495
4,535833	0,1	0,464478
4,537500	0,1	0,452309
4,539167	0,1	0,435384
4,540833	0,1	0,464477
4,542500	0,1	0,454045
4,544167	0,1	0,452370
4,545833	0,1	0,421834
4,547500	0,1	0,422533
4,549167	0,1	0,416914
4,550833	0,1	0,421535
4,552500	0,1	0,483099
4,554167	0,1	0,411051
4,555833	0,1	0,448155
4,557500	0,1	0,427098
4,559167	0,1	0,410848
4,560833	0,1	0,407207
4,562500	0,1	0,467131
4,564167	0,1	0,409636
4,565833	0,1	0,387309
4,567500	0,1	0,428050
4,569167	0,1	0,364740
4,570833	0,1	0,368919
4,572500	0,1	0,403036
4,574167	0,1	0,387019
4,575833	0,1	0,393535
4,577500	0,1	0,376325
4,579167	0,1	0,378665
4,580833	0,1	0,378982
4,582500	0,1	0,377960
4,584167	0,1	0,362097
4,585833	0,1	0,361777
4,587500	0,1	0,368324
4,589167	0,1	0,366915
4,590833	0,1	0,363115
4,592500	0,1	0,344630
4,594167	0,1	0,329532
4,595833	0,1	0,334676
4,597500	0,1	0,341386
4,599167	0,1	0,327743
4,600833	0,1	0,335669
4,602500	0,1	0,340003
4,604167	0,1	0,335825
4,605833	0,1	0,305294
4,607500	0,1	0,315370
4,609167	0,1	0,354665
4,610833	0,1	0,347801
4,612500	0,1	0,307778
4,614167	0,1	0,326538
4,615833	0,1	0,332801
4,617500	0,1	0,299290
4,619167	0,1	0,293051
4,620833	0,1	0,283833
4,622500	0,1	0,334300
4,624167	0,1	0,319193
4,625833	0,1	0,302950
4,627500	0,1	0,305640
4,629167	0,1	0,325643
4,630833	0,1	0,300069
4,632500	0,1	0,303939
4,634167	0,1	0,266579
4,635833	0,1	0,271920
4,637500	0,1	0,298343
4,639167	0,1	0,304745
4,640833	0,1	0,310687
4,642500	0,1	0,282983
4,644167	0,1	0,285191
4,645833	0,1	0,295979
4,647500	0,1	0,229533
4,649167	0,1	0,253973
4,650833	0,1	0,266090
4,652500	0,1	0,297801
4,654167	0,1	0,257981
4,655833	0,1	0,257746
4,657500	0,1	0,274837
4,659167	0,1	0,294051
4,660833	0,1	0,267923
4,662500	0,1	0,293182
4,664167	0,1	0,236280
4,665833	0,1	0,262836
4,667500	0,1	0,266985
4,669167	0,1	0,233581
4,670833	0,1	0,284841
4,672500	0,1	0,234769
4,674167	0,1	0,255963
4,675833	0,1	0,266253
4,677500	0,1	0,273003
4,679167	0,1	0,243775
4,680833	0,1	0,239728
4,682500	0,1	0,232087
4,684167	0,1	0,255814
4,685833	0,1	0,265323
4,687500	0,1	0,233377
4,689167	0,1	0,251093
4,690833	0,1	0,224240
4,692500	0,1	0,210221
4,694167	0,1	0,207234
4,695833	0,1	0,242350
4,697500	0,1	0,235485
4,699167	0,1	0,238546
4,700833	0,1	0,227258
4,702500	0,1	0,233180
4,704167	0,1	0,217463
4,705833	0,1	0,182948
4,707500	0,1	0,257374
4,709167	0,1	0,184571
4,710833	0,1	0,208365
4,712500	0,1	0,213301
4,714167	0,1	0,245952
4,715833	0,1	0,220284
4,717500	0,1	0,193712
4,719167	0,1	0,201328
4,720833	0,1	0,189918
4,722500	0,1	0,244061
4,724167	0,1	0,191486
4,725833	0,1	0,178779
4,727500	0,1	0,222547
4,729167	0,1	0,224108
4,730833	0,1	0,248334
4,732500	0,1	0,201319
4,734167	0,1	0,173418
4,735833	0,1	0,252314
4,737500	0,1	0,174176
4,739167	0,1	0,197451
4,740833	0,1	0,212303
4,742500	0,1	0,213631
4,744167	0,1	0,197044
4,745833	0,1	0,194701
4,747500	0,1	0,173871
4,749167	0,1	0,184284
4,750833	0,1	0,199292
4,752500	0,1	0,169611
4,754167	0,1	0,184776
4,755833	0,1	0,218735
4,757500	0,1	0,159263
4,759167	0,1	0,171444
4,760833	0,1	0,190719
4,762500	0,1	0,186207
4,764167	0,1	0,223520
4,765833	0,1	0,180133
4,767500	0,1	0,181344
4,769167	0,1	0,177077
4,770833	0,1	0,142505
4,772500	0,1	0,154379
4,774167	0,1	0,176764
4,775833	0,1	0,190287
4,777500	0,1	0,132219
4,779167	0,1	0,171414
4,780833	0,1	0,163122
4,782500	0,1	0,159352
4,784167	0,1	0,171070
4,785833	0,1	0,183930
4,787500	0,1	0,152939
4,789167	0,1	0,164047
4,790833	0,1	0,189104
4,792500	0,1	0,171508
4,794167	0,1	0,120641
4,795833	0,1	0,161620
4,797500	0,1	0,149187
4,799167	0,1	0,184028
4,800833	0,1	0,170184
4,802500	0,1	0,162978
4,804167	0,1	0,160677
4,805833	0,1	0,163015
4,807500	0,1	0,102775
4,809167	0,1	0,178677
4,810833	0,1	0,145112
4,812500	0,1	0,168374
4,814167	0,1	0,165109
4,815833	0,1	0,165419
4,817500	0,1	0,174093
4,819167	0,1	0,170595
4,820833	0,1	0,171197
4,822500	0,1	0,105177
4,824167	0,1	0,165467
4,825833	0,1	0,148380
4,827500	0,1	0,150301
4,829167	0,1	0,165229
4,830833	0,1	0,127905
4,832500	0,1	0,161350
4,834167	0,1	0,147199
4,835833	0,1	0,144980
4,837500	0,1	0,117799
4,839167	0,1	0,190415
4,840833	0,1	0,152590
4,842500	0,1	0,120492
4,844167	0,1	0,135887
4,845833	0,1	0,116926
4,847500	0,1	0,133898
4,849167	0,1	0,102083
4,850833	0,1	0,128987
4,852500	0,1	0,126364
4,854167	0,1	0,137771
4,855833	0,1	0,104756
4,857500	0,1	0,166603
4,859167	0,1	0,092673
4,860833	0,1	0,165527
4,862500	0,1	0,120371
4,864167	0,1	0,145887
4,865833	0,1	0,146718
4,867500	0,1	0,138647
4,869167	0,1	0,160154
4,870833	0,1	0,095777
4,872500	0,1	0,104786
4,874167	0,1	0,139092
4,875833	0,1	0,147567
4,877500	0,1	0,117323
4,879167	0,1	0,134871
4,880833	0,1	0,129617
4,882500	0,1	0,110964
4,884167	0,1	0,108165
4,885833	0,1	0,139898
4,887500	0,1	0,114982
4,889167	0,1	0,101873
4,890833	0,1	0,159792
4,892500	0,1	0,101366
4,894167	0,1	0,090629
4,895833	0,1	0,121947
4,897500	0,1	0,134417
4,899167	0,1	0,116678
4,900833	0,1	0,094130
4,902500	0,1	0,150703
4,904167	0,1	0,097161
4,905833	0,1	0,152299
4,907500	0,1	0,106207
4,909167	0,1	0,133460
4,910833	0,1	0,106866
4,912500	0,1	0,140602
4,914167	0,1	0,090741
4,915833	0,1	0,099527
4,917500	0,1	0,123895
4,919167	0,1	0,118145
4,920833	0,1	0,115390
4,922500	0,1	0,066249
4,924167	0,1	0,123991
4,925833	0,1	0,090737
4,927500	0,1	0,094124
4,929167	0,1	0,108305
4,930833	0,1	0,124021
4,932500	0,1	0,093574
4,934167	0,1	0,114101
4,935833	0,1	0,127356
4,937500	0,1	0,161890
4,939167	0,1	0,135419
4,940833	0,1	0,108357
4,942500	0,1	0,105908
4,944167	0,1	0,103858
4,945833	0,1	0,122468
4,947500	0,1	0,119057
4,949167	0,1	0,129469
4,950833	0,1	0,124481
4,952500	0,1	0,124460
4,954167	0,1	0,105311
4,955833	0,1	0,123959
4,957500	0,1	0,133527
4,959167	0,1	0,105790
4,960833	0,1	0,109758
4,962500	0,1	0,087132
4,964167	0,1	0,114370
4,965833	0,1	0,096098
4,967500	0,1	0,068107
4,969167	0,1	0,075429
4,970833	0,1	0,125173
4,972500	0,1	0,071964
4,974167	0,1	0,079754
4,975833	0,1	0,091598
4,977500	0,1	0,101744
4,979167	0,1	0,117520
4,980833	0,1	0,101709
4,982500	0,1	0,098724
4,984167	0,1	0,098308
4,985833	0,1	0,088663
4,987500	0,1	0,110147
4,989167	0,1	0,127417
4,990833	0,1	0,090862
4,992500	0,1	0,109463
4,994167	0,1	0,095207
4,995833	0,1	0,135527
4,997500	0,1	0,100883
4,999167	0,1	0,113110
5,000833	0,1	0,106986
5,002500	0,1	0,088396
5,004167	0,1	0,087170
5,005833	0,1	0,123250
5,007500	0,1	0,131850
5,009167	0,1	0,084198
5,010833	0,1	0,067401
5,012500	0,1	0,093601
5,014167	0,1	0,077298
5,015833	0,1	0,100042
5,017500	0,1	0,110169
5,019167	0,1	0,073037
5,020833	0,1	0,111365
5,022500	0,1	0,081543
5,024167	0,1	0,115009
5,025833	0,1	0,093593
5,027500	0,1	0,068001
5,029167	0,1	0,116684
5,030833	0,1	0,054617
5,032500	0,1	0,124506
5,034167	0,1	0,046648
5,035833	0,1	0,115333
5,037500	0,1	0,074922
5,039167	0,1	0,086088
5,040833	0,1	0,078889
5,042500	0,1	0,137615
5,044167	0,1	0,082793
5,045833	0,1	0,081248
5,047500	0,1	0,053407
5,049167	0,1	0,082317
5,050833	0,1	0,050903
5,052500	0,1	0,075734
5,054167	0,1	0,036741
5,055833	0,1	0,050933
5,057500	0,1	0,064184
5,059167	0,1	0,110473
5,060833	0,1	0,078377
5,062500	0,1	0,114925
5,064167	0,1	0,104710
5,065833	0,1	0,111704
5,067500	0,1	0,094129
5,069167	0,1	0,068771
5,070833	0,1	0,070066
5,072500	0,1	0,084701
5,074167	0,1	0,089383
5,075833	0,1	0,092180
5,077500	0,1	0,072701
5,079167	0,1	0,108072
5,080833	0,1	0,108682
5,082500	0,1	0,029838
5,084167	0,1	0,114707
5,085833	0,1	0,073804
5,087500	0,1	0,094783
5,089167	0,1	0,065602
5,090833	0,1	0,071393
5,092500	0,1	0,068557
5,094167	0,1	0,076527
5,095833	0,1	0,095385
5,097500	0,1	0,083030
5,099167	0,1	0,054338
5,100833	0,1	0,061868
5,102500	0,1	0,079339
5,104167	0,1	0,083070
5,105833	0,1	0,052413
5,107500	0,1	0,086414
5,109167	0,1	0,061667
5,110833	0,1	0,054191
5,112500	0,1	0,070705
5,114167	0,1	0,057296
5,115833	0,1	0,076086
5,117500	0,1	0,068746
5,119167	0,1	0,073690
5,120833	0,1	0,095840
5,122500	0,1	0,093195
5,124167	0,1	0,060053
5,125833	0,1	0,043881
5,127500	0,1	0,056006
5,129167	0,1	0,106351
5,130833	0,1	0,066455
5,132500	0,1	0,019582
5,134167	0,1	0,047535
5,135833	0,1	0,056484
5,137500	0,1	0,088839
5,139167	0,1	0,038631
5,140833	0,1	0,093801
5,142500	0,1	0,052045
5,144167	0,1	0,043570
5,145833	0,1	0,028954
5,147500	0,1	0,060370
5,149167	0,1	0,058577
5,150833	0,1	0,038624
5,152500	0,1	0,086185
5,154167	0,1	0,103357
5,155833	0,1	0,041966
5,157500	0,1	0,080866
5,159167	0,1	0,054917
5,160833	0,1	0,088238
5,162500	0,1	0,055043
5,164167	0,1	0,065159
5,165833	0,1	0,041254
5,167500	0,1	0,080764
5,169167	0,1	0,037699
5,170833	0,1	0,042636
5,172500	0,1	0,055202
5,174167	0,1	0,092916
5,175833	0,1	0,055606
5,177500	0,1	0,008986
5,179167	0,1	0,057178
5,180833	0,1	0,035435
5,182500	0,1	0,064098
5,184167	0,1	0,041606
5,185833	0,1	0,051599
5,187500	0,1	0,075258
5,189167	0,1	0,032459
5,190833	0,1	0,077076
5,192500	0,1	0,046433
5,194167	0,1	0,033611
5,195833	0,1	0,037132
5,197500	0,1	0,035949
5,199167	0,1	0,054203
5,200833	0,1	0,046137
5,202500	0,1	0,066649
5,204167	0,1	0,015590
5,205833	0,1	0,028972
5,207500	0,1	0,017839
5,209167	0,1	0,040206
5,210833	0,1	0,050854
5,212500	0,1	0,037215
5,214167	0,1	0,054641
5,215833	0,1	0,042825
5,217500	0,1	0,023056
5,219167	0,1	0,035575
5,220833	0,1	0,013467
5,222500	0,1	0,058774
5,224167	0,1	0,060006
5,225833	0,1	0,037200
5,227500	0,1	0,045720
5,229167	0,1	0,035598
5,230833	0,1	0,034171
5,232500	0,1	0,039612
5,234167	0,1	0,005836
5,235833	0,1	0,037575
5,237500	0,1	0,040938
5,239167	0,1	0,037089
5,240833	0,1	0,051224
5,242500	0,1	0,022607
5,244167	0,1	0,019429
5,245833	0,1	0,022100
5,247500	0,1	0,024623
5,249167	0,1	0,017031
5,250833	0,1	0,027479
5,252500	0,1	0,031726
5,254167	0,1	0,039427
5,255833	0,1	0,020489
5,257500	0,1	0,028122
5,259167	0,1	0,010596
5,260833	0,1	0,072619
5,262500	0,1	0,032729
5,264167	0,1	0,037687
5,265833	0,1	0,005836
5,267500	0,1	0,048815
5,269167	0,1	0,030177
5,270833	0,1	0,015626
5,272500	0,1	-0,009171
5,274167	0,1	0,069738
5,275833	0,1	0,021945
5,277500	0,1	0,010306
5,279167	0,1	0,030192
5,280833	0,1	0,039488
5,282500	0,1	0,033777
5,284167	0,1	0,038020
5,285833	0,1	-0,001986
5,287500	0,1	0,013772
5,289167	0,1	0,012907
5,290833	0,1	0,024004
5,292500	0,1	-0,024609
5,294167	0,1	0,005101
5,295833	0,1	0,037660
5,297500	0,1	0,013140
5,299167	0,1	0,025016
5,300833	0,1	-0,001451
5,302500	0,1	-0,020108
5,304167	0,1	0,027451
5,305833	0,1	0,030505
5,307500	0,1	0,072810
5,309167	0,1	0,023895
5,310833	0,1	0,014173
5,312500	0,1	0,002765
5,314167	0,1	0,017026
5,315833	0,1	0,066390
5,317500	0,1	0,050237
5,319167	0,1	0,020200
5,320833	0,1	-0,009670
5,322500	0,1	-0,007998
5,324167	0,1	0,071663
5,325833	0,1	0,013588
5,327500	0,1	0,028347
5,329167	0,1	0,027006
5,330833	0,1	0,011361
5,332500	0,1	0,010489
5,334167	0,1	0,010217
5,335833	0,1	0,035737
5,337500	0,1	0,024671
5,339167	0,1	0,019947
5,340833	0,1	0,035554
5,342500	0,1	-0,042034
5,344167	0,1	0,037131
5,345833	0,1	0,003244
5,347500	0,1	0,003491
5,349167	0,1	-0,015739
5,350833	0,1	0,016606
5,352500	0,1	0,014463
5,354167	0,1	0,001735
5,355833	0,1	0,048814
5,357500	0,1	0,013599
5,359167	0,1	-0,027319
5,360833	0,1	-0,012539
5,362500	0,1	0,000938
5,364167	0,1	-0,014868
5,365833	0,1	-0,027272
5,367500	0,1	-0,012493
5,369167	0,1	0,001896
5,370833	0,1	0,029092
5,372500	0,1	0,002979
5,374167	0,1	-0,027498
5,375833	0,1	-0,007027
5,377500	0,1	0,047820
5,379167	0,1	0,014137
5,380833	0,1	-0,002053
5,382500	0,1	0,009905
5,384167	0,1	-0,014120
5,385833	0,1	0,030327
5,387500	0,1	-0,007823
5,389167	0,1	-0,035998
5,390833	0,1	0,020039
5,392500	0,1	-0,021859
5,394167	0,1	0,009301
5,395833	0,1	-0,028461
5,397500	0,1	-0,001237
5,399167	0,1	0,043786
5,400833	0,1	0,017825
5,402500	0,1	-0,002095
5,404167	0,1	-0,002971
5,405833	0,1	-0,028403
5,407500	0,1	-0,024560
5,409167	0,1	-0,019304
5,410833	0,1	0,023251
5,412500	0,1	-0,021586
5,414167	0,1	-0,040903
5,415833	0,1	-0,012804
5,417500	0,1	-0,014538
5,419167	0,1	-0,020277
5,420833	0,1	-0,027081
5,422500	0,1	0,030139
5,424167	0,1	0,000763
5,425833	0,1	-0,003673
5,427500	0,1	-0,017665
5,429167	0,1	-0,003263
5,430833	0,1	-0,029581
5,432500	0,1	-0,000366
5,434167	0,1	-0,015387
5,435833	0,1	-0,028283
5,437500	0,1	-0,027356
5,439167	0,1	0,026474
5,440833	0,1	-0,036428
5,442500	0,1	-0,004139
5,444167	0,1	-0,036620
5,445833	0,1	-0,021811
5,447500	0,1	-0,006676
5,449167	0,1	-0,013210
5,450833	0,1	-0,026772
5,452500	0,1	0,023661
5,454167	0,1	-0,042494
5,455833	0,1	-0,054530
5,457500	0,1	-0,021297
5,459167	0,1	-0,028469
5,460833	0,1	-0,049808
5,462500	0,1	-0,027334
5,464167	0,1	-0,045836
5,465833	0,1	-0,033879
5,467500	0,1	-0,013885
5,469167	0,1	-0,011084
5,470833	0,1	-0,000987
5,472500	0,1	-0,019605
5,474167	0,1	0,000709
5,475833	0,1	0,021101
5,477500	0,1	0,014481
5,479167	0,1	-0,009091
5,480833	0,1	-0,036225
5,482500	0,1	-0,061066
5,484167	0,1	-0,048410
5,485833	0,1	-0,009414
5,487500	0,1	-0,019300
5,489167	0,1	0,015841
5,490833	0,1	-0,042266
5,492500	0,1	0,023411
5,494167	0,1	-0,024716
5,495833	0,1	-0,035465
5,497500	0,1	-0,033465
5,499167	0,1	-0,041409
5,500833	0,1	-0,062580
5,502500	0,1	-0,036115
5,504167	0,1	-0,033193
5,505833	0,1	-0,023815
5,507500	0,1	-0,021642
5,509167	0,1	-0,012265
5,510833	0,1	-0,033064
5,512500	0,1	-0,018849
5,514167	0,1	0,012863
5,515833	0,1	-0,058243
5,517500	0,1	0,011447
5,519167	0,1	-0,020885
5,520833	0,1	-0,020481
5,522500	0,1	-0,044902
5,524167	0,1	-0,029100
5,525833	0,1	-0,055124
5,527500	0,1	-0,036209
5,529167	0,1	-0,006660
5,530833	0,1	-0,017270
5,532500	0,1	0,001850
5,534167	0,1	-0,007231
5,535833	0,1	-0,032790
5,537500	0,1	-0,029570
5,539167	0,1	-0,046064
5,540833	0,1	-0,040267
5,542500	0,1	-0,029406
5,544167	0,1	-0,050677
5,545833	0,1	-0,005688
5,547500	0,1	-0,045512
5,549167	0,1	-0,038036
5,550833	0,1	-0,078202
5,552500	0,1	-0,050004
5,554167	0,1	-0,021665
5,555833	0,1	-0,027266
5,557500	0,1	-0,037162
5,559167	0,1	-0,034660
5,560833	0,1	-0,050574
5,562500	0,1	-0,033442
5,564167	0,1	-0,030976
5,565833	0,1	-0,068228
5,567500	0,1	0,002146
5,569167	0,1	-0,064187
5,570833	0,1	-0,038497
5,572500	0,1	-0,068825
5,574167	0,1	-0,047084
5,575833	0,1	-0,031578
5,577500	0,1	-0,012267
5,579167	0,1	-0,032896
5,580833	0,1	-0,078752
5,582500	0,1	-0,037464
5,584167	0,1	-0,040188
5,585833	0,1	-0,081928
5,587500	0,1	-0,045147
5,589167	0,1	-0,012559
5,590833	0,1	-0,058678
5,592500	0,1	-0,062354
5,594167	0,1	-0,043963
5,595833	0,1	-0,034996
5,597500	0,1	-0,082507
5,599167	0,1	-0,042044
5,600833	0,1	-0,045109
5,602500	0,1	-0,004783
5,604167	0,1	-0,060478
5,605833	0,1	-0,068999
5,607500	0,1	-0,038314
5,609167	0,1	-0,046542
5,610833	0,1	-0,025663
5,612500	0,1	-0,074641
5,614167	0,1	-0,029353
5,615833	0,1	-0,013838
5,617500	0,1	0,003072
5,619167	0,1	-0,010765
5,620833	0,1	-0,013422
5,622500	0,1	-0,012966
5,624167	0,1	-0,057518
5,625833	0,1	-0,020675
5,627500	0,1	-0,016052
5,629167	0,1	-0,041282
5,630833	0,1	-0,074155
5,632500	0,1	-0,020371
5,634167	0,1	0,017580
5,635833	0,1	-0,032062
5,637500	0,1	-0,003163
5,639167	0,1	-0,039124
5,640833	0,1	-0,044388
5,642500	0,1	-0,028808
5,644167	0,1	-0,039499
5,645833	0,1	-0,031646
5,647500	0,1	-0,034017
5,649167	0,1	-0,011484
5,650833	0,1	-0,050428
5,652500	0,1	-0,014239
5,654167	0,1	-0,003097
5,655833	0,1	-0,014334
5,657500	0,1	-0,024268
5,659167	0,1	-0,029691
5,660833	0,1	0,002508
5,662500	0,1	-0,065240
5,664167	0,1	0,007094
5,665833	0,1	-0,062277
5,667500	0,1	-0,056671
5,669167	0,1	-0,037688
5,670833	0,1	-0,007927
5,672500	0,1	-0,019695
5,674167	0,1	-0,001569
5,675833	0,1	-0,011680
5,677500	0,1	-0,026999
5,679167	0,1	-0,023030
5,680833	0,1	-0,011773
5,682500	0,1	-0,029688
5,684167	0,1	-0,055214
5,685833	0,1	-0,019787
5,687500	0,1	-0,040104
5,689167	0,1	-0,000579
5,690833	0,1	-0,030645
5,692500	0,1	-0,029984
5,694167	0,1	-0,002521
5,695833	0,1	-0,002144
5,697500	0,1	-0,013692
5,699167	0,1	-0,013484
5,700833	0,1	0,019773
5,702500	0,1	-0,039041
5,704167	0,1	-0,029494
5,705833	0,1	0,010829
5,707500	0,1	-0,023436
5,709167	0,1	-0,015499
5,710833	0,1	-0,012947
5,712500	0,1	-0,008167
5,714167	0,1	0,029711
5,715833	0,1	0,028993
5,717500	0,1	-0,021964
5,719167	0,1	0,015946
5,720833	0,1	-0,033223
5,722500	0,1	0,014179
5,724167	0,1	0,019200
5,725833	0,1	-0,036018
5,727500	0,1	0,046177
5,729167	0,1	0,002711
5,730833	0,1	-0,001272
5,732500	0,1	0,018695
5,734167	0,1	0,010219
5,735833	0,1	-0,017124
5,737500	0,1	0,001746
5,739167	0,1	0,004230
5,740833	0,1	0,071210
5,742500	0,1	0,014846
5,744167	0,1	0,045856
5,745833	0,1	0,018089
5,747500	0,1	0,048300
5,749167	0,1	-0,012563
5,750833	0,1	-0,027932
5,752500	0,1	-0,014797
5,754167	0,1	0,008364
5,755833	0,1	0,051259
5,757500	0,1	0,034673
5,759167	0,1	0,009642
5,760833	0,1	0,004793
5,762500	0,1	0,014188
5,764167	0,1	0,028409
5,765833	0,1	-0,017182
5,767500	0,1	0,013188
5,769167	0,1	0,007483
5,770833	0,1	0,003307
5,772500	0,1	0,041924
5,774167	0,1	0,012339
5,775833	0,1	-0,010938
5,777500	0,1	0,045727
5,779167	0,1	0,031748
5,780833	0,1	0,048698
5,782500	0,1	0,030757
5,784167	0,1	0,047582
5,785833	0,1	0,009707
5,787500	0,1	-0,000278
5,789167	0,1	0,024329
5,790833	0,1	0,011150
5,792500	0,1	0,021079
5,794167	0,1	0,083056
5,795833	0,1	0,018222
5,797500	0,1	0,045530
5,799167	0,1	0,033278
5,800833	0,1	0,054743
5,802500	0,1	0,006871
5,804167	0,1	0,022818
5,805833	0,1	0,018499
5,807500	0,1	0,019139
5,809167	0,1	0,029237
5,810833	0,1	0,046731
5,812500	0,1	0,000145
5,814167	0,1	0,029857
5,815833	0,1	0,052776
5,817500	0,1	0,027073
5,819167	0,1	0,021708
5,820833	0,1	0,018454
5,822500	0,1	0,013216
5,824167	0,1	0,035301
5,825833	0,1	0,028002
5,827500	0,1	0,032842
5,829167	0,1	0,059626
5,830833	0,1	0,023245
5,832500	0,1	0,051966
5,834167	0,1	0,027468
5,835833	0,1	0,008770
5,837500	0,1	-0,008891
5,839167	0,1	0,059263
5,840833	0,1	0,010579
5,842500	0,1	0,036584
5,844167	0,1	0,011444
5,845833	0,1	0,041241
5,847500	0,1	0,030299
5,849167	0,1	0,036403
5,850833	0,1	0,027612
5,852500	0,1	0,047519
5,854167	0,1	0,003687
5,855833	0,1	0,028221
5,857500	0,1	0,011089
5,859167	0,1	-0,005718
5,860833	0,1	0,034717
5,862500	0,1	0,003120
5,864167	0,1	-0,017768
5,865833	0,1	0,010913
5,867500	0,1	-0,001253
5,869167	0,1	-0,010896
5,870833	0,1	0,054315
5,872500	0,1	0,031918
5,874167	0,1	0,032122
5,875833	0,1	0,056521
5,877500	0,1	-0,001181
5,879167	0,1	0,002366
5,880833	0,1	-0,027225
5,882500	0,1	0,061308
5,884167	0,1	0,025792
5,885833	0,1	0,023138
5,887500	0,1	0,002106
5,889167	0,1	0,016241
5,890833	0,1	0,014541
5,892500	0,1	-0,016420
5,894167	0,1	0,029932
5,895833	0,1	-0,013455
5,897500	0,1	0,039169
5,899167	0,1	0,045468
5,900833	0,1	0,000329
5,902500	0,1	0,021578
5,904167	0,1	0,010138
5,905833	0,1	0,030439
5,907500	0,1	-0,006978
5,909167	0,1	0,019071
5,910833	0,1	-0,016454
5,912500	0,1	0,029561
5,914167	0,1	-0,027676
5,915833	0,1	0,000065
5,917500	0,1	0,019115
5,919167	0,1	-0,003834
5,920833	0,1	-0,003797
5,922500	0,1	-0,001108
5,924167	0,1	-0,011768
5,925833	0,1	0,013419
5,927500	0,1	-0,016790
5,929167	0,1	-0,014811
5,930833	0,1	-0,003201
5,932500	0,1	0,006056
5,934167	0,1	0,006304
5,935833	0,1	0,000222
5,937500	0,1	-0,015448
5,939167	0,1	0,032296
5,940833	0,1	-0,023281
5,942500	0,1	0,008572
5,944167	0,1	-0,018962
5,945833	0,1	-0,013881
5,947500	0,1	-0,009204
5,949167	0,1	0,023130
5,950833	0,1	-0,015673
5,952500	0,1	0,022030
5,954167	0,1	-0,014802
5,955833	0,1	-0,014794
5,957500	0,1	-0,006866
5,959167	0,1	-0,011267
5,960833	0,1	-0,022219
5,962500	0,1	-0,033401
5,964167	0,1	-0,011546
5,965833	0,1	-0,023133
5,967500	0,1	-0,029137
5,969167	0,1	-0,020387
5,970833	0,1	-0,003238
5,972500	0,1	-0,025283
5,974167	0,1	-0,036748
5,975833	0,1	-0,031127
5,977500	0,1	-0,016143
5,979167	0,1	-0,028117
5,980833	0,1	-0,041592
5,982500	0,1	0,006890
5,984167	0,1	-0,071365
5,985833	0,1	-0,018631
5,987500	0,1	0,011966
5,989167	0,1	-0,034798
5,990833	0,1	0,000229
5,992500	0,1	-0,004727
5,994167	0,1	-0,038897
5,995833	0,1	-0,041119
5,997500	0,1	-0,007866
5,999167	0,1	-0,007295
6,000833	0,1	-0,036225
