File Path	chrom://chromeleon01/ikbm_chromeleon/2022/Rezex/Esteban/220612_chitin_4_7.seq/782.smp/UV_VIS_1.channel/UV_VIS_1.chm
Channel	UV_VIS_1

Injection Information:
Data Vault	ikbm_chromeleon
Injection	4_00h-EGS_2
Injection Number	115
Position	BC1
Comment	
Processing Method	New ProcMethod
Instrument Method	Short_Rezex_6min_194nm
Type	Unknown
Status	Finished
Injection Date	13.06.2022
Injection Time	05:32:18
Injection Volume (µl)	8,000
Dilution Factor	1,0000
Weight	1,0000

Chromatogram Data Information:
Time Min. (min)	0,000833
Time Max. (min)	6,000833
Data Points	3601
Detector	UV
Generating Data System	Chromeleon 7.2.9.11323
Exporting Data System	Chromeleon 7.2.9.0
Operator	Instrument Controller
Signal Quantity	Absorbance
Signal Unit	mAU
Signal Min.	-0,139914
Signal Max.	107,082086
Channel	UV_VIS_1
Driver Name	VWD3000.dll
Channel Type	Evaluation
Min. Step (s)	0,1
Max. Step (s)	0,1
Average Step (s)	0,1

Signal Parameter Information:
Signal Info	WVL:194 nm

Chromatogram Data:
Time (min)	Step (s)	Value (mAU)
0,000833	n.a.	-0,048819
0,002500	0,1	-0,074292
0,004167	0,1	-0,064553
0,005833	0,1	-0,056458
0,007500	0,1	-0,071770
0,009167	0,1	-0,052611
0,010833	0,1	-0,060181
0,012500	0,1	-0,025770
0,014167	0,1	-0,067810
0,015833	0,1	-0,118719
0,017500	0,1	-0,118943
0,019167	0,1	-0,039670
0,020833	0,1	-0,090202
0,022500	0,1	-0,048705
0,024167	0,1	-0,062412
0,025833	0,1	-0,053996
0,027500	0,1	-0,121677
0,029167	0,1	-0,116368
0,030833	0,1	-0,073375
0,032500	0,1	-0,106702
0,034167	0,1	-0,102343
0,035833	0,1	-0,074305
0,037500	0,1	-0,067962
0,039167	0,1	-0,123868
0,040833	0,1	-0,139914
0,042500	0,1	-0,065790
0,044167	0,1	-0,122584
0,045833	0,1	-0,132507
0,047500	0,1	-0,119498
0,049167	0,1	-0,081364
0,050833	0,1	-0,063807
0,052500	0,1	-0,075621
0,054167	0,1	-0,023993
0,055833	0,1	-0,042855
0,057500	0,1	-0,087442
0,059167	0,1	-0,061472
0,060833	0,1	-0,040878
0,062500	0,1	-0,072321
0,064167	0,1	-0,083550
0,065833	0,1	-0,088657
0,067500	0,1	-0,092568
0,069167	0,1	-0,086013
0,070833	0,1	-0,070925
0,072500	0,1	-0,047480
0,074167	0,1	-0,029080
0,075833	0,1	-0,044201
0,077500	0,1	-0,086002
0,079167	0,1	-0,075127
0,080833	0,1	-0,026600
0,082500	0,1	-0,053945
0,084167	0,1	-0,041912
0,085833	0,1	-0,017385
0,087500	0,1	-0,066649
0,089167	0,1	-0,029041
0,090833	0,1	-0,039796
0,092500	0,1	-0,017673
0,094167	0,1	-0,019883
0,095833	0,1	-0,012289
0,097500	0,1	-0,019961
0,099167	0,1	-0,042360
0,100833	0,1	-0,078288
0,102500	0,1	-0,062296
0,104167	0,1	-0,056130
0,105833	0,1	-0,086480
0,107500	0,1	-0,087314
0,109167	0,1	-0,078150
0,110833	0,1	-0,079307
0,112500	0,1	-0,118325
0,114167	0,1	-0,107186
0,115833	0,1	-0,060606
0,117500	0,1	-0,064567
0,119167	0,1	-0,079612
0,120833	0,1	-0,075537
0,122500	0,1	-0,096686
0,124167	0,1	-0,065735
0,125833	0,1	-0,087247
0,127500	0,1	-0,096232
0,129167	0,1	-0,089555
0,130833	0,1	-0,055182
0,132500	0,1	-0,091839
0,134167	0,1	-0,038793
0,135833	0,1	-0,092415
0,137500	0,1	-0,054706
0,139167	0,1	-0,101460
0,140833	0,1	-0,052434
0,142500	0,1	-0,051156
0,144167	0,1	-0,030735
0,145833	0,1	-0,042795
0,147500	0,1	-0,057630
0,149167	0,1	-0,064488
0,150833	0,1	-0,057680
0,152500	0,1	-0,076568
0,154167	0,1	-0,063498
0,155833	0,1	-0,064839
0,157500	0,1	-0,061528
0,159167	0,1	-0,069847
0,160833	0,1	-0,053068
0,162500	0,1	-0,054408
0,164167	0,1	-0,055173
0,165833	0,1	-0,080497
0,167500	0,1	-0,025215
0,169167	0,1	-0,056906
0,170833	0,1	-0,070092
0,172500	0,1	-0,082635
0,174167	0,1	-0,070037
0,175833	0,1	-0,068734
0,177500	0,1	-0,050518
0,179167	0,1	-0,060777
0,180833	0,1	-0,007001
0,182500	0,1	-0,026584
0,184167	0,1	-0,060939
0,185833	0,1	-0,059004
0,187500	0,1	-0,049216
0,189167	0,1	-0,044099
0,190833	0,1	-0,055521
0,192500	0,1	-0,044848
0,194167	0,1	-0,049686
0,195833	0,1	-0,029637
0,197500	0,1	-0,078301
0,199167	0,1	-0,050047
0,200833	0,1	-0,043108
0,202500	0,1	-0,029862
0,204167	0,1	-0,020713
0,205833	0,1	-0,041280
0,207500	0,1	-0,034125
0,209167	0,1	-0,023568
0,210833	0,1	-0,068179
0,212500	0,1	-0,025607
0,214167	0,1	-0,041676
0,215833	0,1	-0,067277
0,217500	0,1	-0,070052
0,219167	0,1	-0,014472
0,220833	0,1	-0,059346
0,222500	0,1	-0,056975
0,224167	0,1	-0,063389
0,225833	0,1	-0,026124
0,227500	0,1	-0,016245
0,229167	0,1	-0,001899
0,230833	0,1	-0,042936
0,232500	0,1	-0,076425
0,234167	0,1	-0,055467
0,235833	0,1	-0,043504
0,237500	0,1	-0,077663
0,239167	0,1	-0,021840
0,240833	0,1	-0,035050
0,242500	0,1	-0,029904
0,244167	0,1	-0,046791
0,245833	0,1	-0,040583
0,247500	0,1	-0,086723
0,249167	0,1	-0,055629
0,250833	0,1	-0,007889
0,252500	0,1	-0,029836
0,254167	0,1	-0,046915
0,255833	0,1	-0,070899
0,257500	0,1	-0,044642
0,259167	0,1	-0,046146
0,260833	0,1	-0,023510
0,262500	0,1	-0,052686
0,264167	0,1	-0,021192
0,265833	0,1	-0,045252
0,267500	0,1	-0,023035
0,269167	0,1	-0,023071
0,270833	0,1	-0,014855
0,272500	0,1	-0,023546
0,274167	0,1	-0,049516
0,275833	0,1	-0,016992
0,277500	0,1	0,008967
0,279167	0,1	-0,040841
0,280833	0,1	-0,041470
0,282500	0,1	-0,044369
0,284167	0,1	-0,043834
0,285833	0,1	-0,031416
0,287500	0,1	-0,050677
0,289167	0,1	-0,055671
0,290833	0,1	-0,040005
0,292500	0,1	-0,026489
0,294167	0,1	-0,046475
0,295833	0,1	-0,004535
0,297500	0,1	-0,026912
0,299167	0,1	-0,059410
0,300833	0,1	-0,027406
0,302500	0,1	-0,065842
0,304167	0,1	-0,014286
0,305833	0,1	-0,009265
0,307500	0,1	-0,045582
0,309167	0,1	-0,009852
0,310833	0,1	-0,006719
0,312500	0,1	-0,033870
0,314167	0,1	-0,034432
0,315833	0,1	-0,028392
0,317500	0,1	-0,074057
0,319167	0,1	-0,029228
0,320833	0,1	-0,031265
0,322500	0,1	-0,033111
0,324167	0,1	-0,042487
0,325833	0,1	-0,048201
0,327500	0,1	-0,046936
0,329167	0,1	-0,079818
0,330833	0,1	-0,019774
0,332500	0,1	-0,069820
0,334167	0,1	-0,029930
0,335833	0,1	-0,026177
0,337500	0,1	-0,025017
0,339167	0,1	-0,031246
0,340833	0,1	-0,064789
0,342500	0,1	-0,013064
0,344167	0,1	-0,036973
0,345833	0,1	-0,027418
0,347500	0,1	-0,028866
0,349167	0,1	-0,029632
0,350833	0,1	-0,010016
0,352500	0,1	0,006027
0,354167	0,1	0,015840
0,355833	0,1	-0,000506
0,357500	0,1	-0,024949
0,359167	0,1	-0,035589
0,360833	0,1	0,000043
0,362500	0,1	0,002139
0,364167	0,1	-0,028736
0,365833	0,1	-0,001158
0,367500	0,1	-0,026768
0,369167	0,1	-0,011958
0,370833	0,1	-0,026876
0,372500	0,1	-0,026983
0,374167	0,1	-0,013246
0,375833	0,1	-0,044073
0,377500	0,1	0,008235
0,379167	0,1	-0,045492
0,380833	0,1	-0,007410
0,382500	0,1	-0,030951
0,384167	0,1	-0,011255
0,385833	0,1	-0,038403
0,387500	0,1	-0,004615
0,389167	0,1	-0,012223
0,390833	0,1	0,029972
0,392500	0,1	0,007776
0,394167	0,1	-0,011579
0,395833	0,1	0,035706
0,397500	0,1	-0,004930
0,399167	0,1	0,009714
0,400833	0,1	-0,028172
0,402500	0,1	-0,040517
0,404167	0,1	-0,007594
0,405833	0,1	-0,039643
0,407500	0,1	0,009188
0,409167	0,1	-0,008391
0,410833	0,1	-0,004484
0,412500	0,1	-0,058825
0,414167	0,1	-0,009090
0,415833	0,1	0,003276
0,417500	0,1	0,002637
0,419167	0,1	-0,020187
0,420833	0,1	-0,030436
0,422500	0,1	-0,044657
0,424167	0,1	0,001984
0,425833	0,1	-0,006963
0,427500	0,1	-0,057999
0,429167	0,1	-0,024672
0,430833	0,1	-0,000866
0,432500	0,1	0,011599
0,434167	0,1	-0,010604
0,435833	0,1	0,005594
0,437500	0,1	0,058684
0,439167	0,1	-0,021892
0,440833	0,1	0,025023
0,442500	0,1	-0,028545
0,444167	0,1	-0,007905
0,445833	0,1	0,000006
0,447500	0,1	0,006197
0,449167	0,1	-0,002765
0,450833	0,1	-0,009677
0,452500	0,1	-0,012971
0,454167	0,1	0,026724
0,455833	0,1	0,008646
0,457500	0,1	-0,003197
0,459167	0,1	-0,003303
0,460833	0,1	-0,010978
0,462500	0,1	0,015486
0,464167	0,1	0,038692
0,465833	0,1	0,000286
0,467500	0,1	-0,018181
0,469167	0,1	0,014450
0,470833	0,1	0,012306
0,472500	0,1	-0,008949
0,474167	0,1	0,023102
0,475833	0,1	0,013030
0,477500	0,1	0,001918
0,479167	0,1	0,035626
0,480833	0,1	0,000679
0,482500	0,1	-0,035546
0,484167	0,1	0,028581
0,485833	0,1	-0,007559
0,487500	0,1	-0,001936
0,489167	0,1	0,027595
0,490833	0,1	0,003346
0,492500	0,1	-0,003217
0,494167	0,1	0,017577
0,495833	0,1	0,031492
0,497500	0,1	-0,015237
0,499167	0,1	0,018609
0,500833	0,1	0,029856
0,502500	0,1	0,031576
0,504167	0,1	0,004051
0,505833	0,1	0,065038
0,507500	0,1	0,015504
0,509167	0,1	0,031739
0,510833	0,1	-0,018403
0,512500	0,1	0,046094
0,514167	0,1	0,043999
0,515833	0,1	0,040170
0,517500	0,1	0,045736
0,519167	0,1	0,012685
0,520833	0,1	0,024390
0,522500	0,1	0,040681
0,524167	0,1	0,042011
0,525833	0,1	0,032862
0,527500	0,1	0,018351
0,529167	0,1	-0,015116
0,530833	0,1	0,019127
0,532500	0,1	0,025157
0,534167	0,1	-0,010353
0,535833	0,1	0,030264
0,537500	0,1	0,044801
0,539167	0,1	-0,002318
0,540833	0,1	0,029996
0,542500	0,1	0,022823
0,544167	0,1	0,028326
0,545833	0,1	0,050535
0,547500	0,1	0,009023
0,549167	0,1	0,031158
0,550833	0,1	0,016284
0,552500	0,1	0,044716
0,554167	0,1	0,056395
0,555833	0,1	0,029409
0,557500	0,1	0,050761
0,559167	0,1	0,025931
0,560833	0,1	0,012473
0,562500	0,1	0,023708
0,564167	0,1	0,018557
0,565833	0,1	0,017582
0,567500	0,1	0,011228
0,569167	0,1	0,027619
0,570833	0,1	0,015765
0,572500	0,1	0,059679
0,574167	0,1	0,046817
0,575833	0,1	-0,015751
0,577500	0,1	0,028171
0,579167	0,1	0,039544
0,580833	0,1	0,075084
0,582500	0,1	0,049014
0,584167	0,1	0,023633
0,585833	0,1	0,040061
0,587500	0,1	0,016304
0,589167	0,1	0,023129
0,590833	0,1	0,017645
0,592500	0,1	0,005807
0,594167	0,1	0,041318
0,595833	0,1	0,019884
0,597500	0,1	0,020273
0,599167	0,1	0,042627
0,600833	0,1	0,024357
0,602500	0,1	0,036128
0,604167	0,1	0,076408
0,605833	0,1	0,049905
0,607500	0,1	0,034478
0,609167	0,1	0,048569
0,610833	0,1	0,010182
0,612500	0,1	0,024845
0,614167	0,1	0,051526
0,615833	0,1	0,039571
0,617500	0,1	0,022701
0,619167	0,1	0,017874
0,620833	0,1	0,078990
0,622500	0,1	0,070438
0,624167	0,1	0,073022
0,625833	0,1	0,054520
0,627500	0,1	0,033797
0,629167	0,1	0,019408
0,630833	0,1	0,044882
0,632500	0,1	0,048199
0,634167	0,1	0,055899
0,635833	0,1	0,059109
0,637500	0,1	0,063830
0,639167	0,1	0,063438
0,640833	0,1	0,049611
0,642500	0,1	0,059709
0,644167	0,1	0,089660
0,645833	0,1	0,118025
0,647500	0,1	0,031039
0,649167	0,1	0,083982
0,650833	0,1	0,086769
0,652500	0,1	0,043926
0,654167	0,1	0,127595
0,655833	0,1	0,031435
0,657500	0,1	0,107165
0,659167	0,1	0,042647
0,660833	0,1	0,055340
0,662500	0,1	0,047271
0,664167	0,1	0,059460
0,665833	0,1	0,086308
0,667500	0,1	0,072011
0,669167	0,1	0,085482
0,670833	0,1	0,076214
0,672500	0,1	0,081469
0,674167	0,1	0,086457
0,675833	0,1	0,060193
0,677500	0,1	0,099513
0,679167	0,1	0,109647
0,680833	0,1	0,065662
0,682500	0,1	0,102892
0,684167	0,1	0,088119
0,685833	0,1	0,094987
0,687500	0,1	0,098986
0,689167	0,1	0,096335
0,690833	0,1	0,101779
0,692500	0,1	0,092922
0,694167	0,1	0,081617
0,695833	0,1	0,122539
0,697500	0,1	0,112094
0,699167	0,1	0,127861
0,700833	0,1	0,075127
0,702500	0,1	0,093576
0,704167	0,1	0,120201
0,705833	0,1	0,060823
0,707500	0,1	0,090488
0,709167	0,1	0,103950
0,710833	0,1	0,117803
0,712500	0,1	0,116357
0,714167	0,1	0,150926
0,715833	0,1	0,102185
0,717500	0,1	0,126433
0,719167	0,1	0,138882
0,720833	0,1	0,146852
0,722500	0,1	0,155676
0,724167	0,1	0,113861
0,725833	0,1	0,146330
0,727500	0,1	0,122555
0,729167	0,1	0,139977
0,730833	0,1	0,110503
0,732500	0,1	0,139270
0,734167	0,1	0,138222
0,735833	0,1	0,125904
0,737500	0,1	0,178421
0,739167	0,1	0,166531
0,740833	0,1	0,172138
0,742500	0,1	0,163671
0,744167	0,1	0,196943
0,745833	0,1	0,177884
0,747500	0,1	0,166656
0,749167	0,1	0,164875
0,750833	0,1	0,179777
0,752500	0,1	0,185471
0,754167	0,1	0,198043
0,755833	0,1	0,167653
0,757500	0,1	0,198353
0,759167	0,1	0,204048
0,760833	0,1	0,181586
0,762500	0,1	0,188869
0,764167	0,1	0,170259
0,765833	0,1	0,183717
0,767500	0,1	0,210010
0,769167	0,1	0,189868
0,770833	0,1	0,175205
0,772500	0,1	0,182018
0,774167	0,1	0,182890
0,775833	0,1	0,194959
0,777500	0,1	0,171566
0,779167	0,1	0,169081
0,780833	0,1	0,182949
0,782500	0,1	0,200547
0,784167	0,1	0,175834
0,785833	0,1	0,165309
0,787500	0,1	0,194125
0,789167	0,1	0,174196
0,790833	0,1	0,182449
0,792500	0,1	0,148046
0,794167	0,1	0,154994
0,795833	0,1	0,156961
0,797500	0,1	0,198804
0,799167	0,1	0,202805
0,800833	0,1	0,170700
0,802500	0,1	0,177274
0,804167	0,1	0,151025
0,805833	0,1	0,175509
0,807500	0,1	0,182497
0,809167	0,1	0,182639
0,810833	0,1	0,178397
0,812500	0,1	0,185722
0,814167	0,1	0,167901
0,815833	0,1	0,138337
0,817500	0,1	0,167702
0,819167	0,1	0,190979
0,820833	0,1	0,137325
0,822500	0,1	0,155016
0,824167	0,1	0,185551
0,825833	0,1	0,154401
0,827500	0,1	0,165530
0,829167	0,1	0,203601
0,830833	0,1	0,189390
0,832500	0,1	0,207483
0,834167	0,1	0,169042
0,835833	0,1	0,139575
0,837500	0,1	0,173603
0,839167	0,1	0,207705
0,840833	0,1	0,150619
0,842500	0,1	0,193768
0,844167	0,1	0,201457
0,845833	0,1	0,166559
0,847500	0,1	0,156322
0,849167	0,1	0,165061
0,850833	0,1	0,170588
0,852500	0,1	0,162372
0,854167	0,1	0,169157
0,855833	0,1	0,170364
0,857500	0,1	0,187277
0,859167	0,1	0,168834
0,860833	0,1	0,143009
0,862500	0,1	0,173682
0,864167	0,1	0,195676
0,865833	0,1	0,155068
0,867500	0,1	0,175166
0,869167	0,1	0,152621
0,870833	0,1	0,148969
0,872500	0,1	0,222197
0,874167	0,1	0,168551
0,875833	0,1	0,201374
0,877500	0,1	0,209247
0,879167	0,1	0,168323
0,880833	0,1	0,180670
0,882500	0,1	0,212742
0,884167	0,1	0,193455
0,885833	0,1	0,216305
0,887500	0,1	0,216664
0,889167	0,1	0,229211
0,890833	0,1	0,216340
0,892500	0,1	0,190976
0,894167	0,1	0,217525
0,895833	0,1	0,174805
0,897500	0,1	0,207857
0,899167	0,1	0,235918
0,900833	0,1	0,191763
0,902500	0,1	0,243527
0,904167	0,1	0,226954
0,905833	0,1	0,195523
0,907500	0,1	0,212041
0,909167	0,1	0,232406
0,910833	0,1	0,198508
0,912500	0,1	0,243115
0,914167	0,1	0,233773
0,915833	0,1	0,245073
0,917500	0,1	0,230540
0,919167	0,1	0,210789
0,920833	0,1	0,228756
0,922500	0,1	0,219586
0,924167	0,1	0,253252
0,925833	0,1	0,234292
0,927500	0,1	0,217108
0,929167	0,1	0,247927
0,930833	0,1	0,258998
0,932500	0,1	0,275565
0,934167	0,1	0,227488
0,935833	0,1	0,249403
0,937500	0,1	0,241957
0,939167	0,1	0,260771
0,940833	0,1	0,241318
0,942500	0,1	0,253987
0,944167	0,1	0,292896
0,945833	0,1	0,217034
0,947500	0,1	0,287853
0,949167	0,1	0,264332
0,950833	0,1	0,266453
0,952500	0,1	0,293488
0,954167	0,1	0,258504
0,955833	0,1	0,282889
0,957500	0,1	0,241638
0,959167	0,1	0,289522
0,960833	0,1	0,295799
0,962500	0,1	0,291145
0,964167	0,1	0,298079
0,965833	0,1	0,310269
0,967500	0,1	0,275903
0,969167	0,1	0,304947
0,970833	0,1	0,256671
0,972500	0,1	0,312257
0,974167	0,1	0,312170
0,975833	0,1	0,294963
0,977500	0,1	0,308766
0,979167	0,1	0,328156
0,980833	0,1	0,365048
0,982500	0,1	0,355397
0,984167	0,1	0,333177
0,985833	0,1	0,372273
0,987500	0,1	0,316868
0,989167	0,1	0,370019
0,990833	0,1	0,355715
0,992500	0,1	0,370670
0,994167	0,1	0,385702
0,995833	0,1	0,355431
0,997500	0,1	0,392953
0,999167	0,1	0,395821
1,000833	0,1	0,401432
1,002500	0,1	0,455352
1,004167	0,1	0,399943
1,005833	0,1	0,408792
1,007500	0,1	0,426421
1,009167	0,1	0,455550
1,010833	0,1	0,479349
1,012500	0,1	0,474763
1,014167	0,1	0,490112
1,015833	0,1	0,512147
1,017500	0,1	0,507687
1,019167	0,1	0,561128
1,020833	0,1	0,574729
1,022500	0,1	0,559571
1,024167	0,1	0,621562
1,025833	0,1	0,585536
1,027500	0,1	0,597378
1,029167	0,1	0,595776
1,030833	0,1	0,624459
1,032500	0,1	0,608567
1,034167	0,1	0,621250
1,035833	0,1	0,666131
1,037500	0,1	0,684229
1,039167	0,1	0,664379
1,040833	0,1	0,696054
1,042500	0,1	0,673066
1,044167	0,1	0,724870
1,045833	0,1	0,677527
1,047500	0,1	0,722943
1,049167	0,1	0,720644
1,050833	0,1	0,785170
1,052500	0,1	0,795915
1,054167	0,1	0,827530
1,055833	0,1	0,886270
1,057500	0,1	0,958330
1,059167	0,1	1,069463
1,060833	0,1	1,145058
1,062500	0,1	1,390072
1,064167	0,1	1,568142
1,065833	0,1	1,889955
1,067500	0,1	2,223924
1,069167	0,1	2,691405
1,070833	0,1	3,225816
1,072500	0,1	3,961689
1,074167	0,1	4,767345
1,075833	0,1	5,831605
1,077500	0,1	7,003254
1,079167	0,1	8,342524
1,080833	0,1	9,953250
1,082500	0,1	11,679486
1,084167	0,1	13,652908
1,085833	0,1	15,735829
1,087500	0,1	18,037561
1,089167	0,1	20,417566
1,090833	0,1	22,934378
1,092500	0,1	25,522042
1,094167	0,1	28,177046
1,095833	0,1	30,779154
1,097500	0,1	33,335438
1,099167	0,1	35,819233
1,100833	0,1	38,162633
1,102500	0,1	40,412995
1,104167	0,1	42,436571
1,105833	0,1	44,297767
1,107500	0,1	45,907052
1,109167	0,1	47,290198
1,110833	0,1	48,457374
1,112500	0,1	49,389109
1,114167	0,1	50,090152
1,115833	0,1	50,519301
1,117500	0,1	50,818053
1,119167	0,1	50,967103
1,120833	0,1	50,877693
1,122500	0,1	50,680382
1,124167	0,1	50,392816
1,125833	0,1	49,963484
1,127500	0,1	49,427277
1,129167	0,1	48,899579
1,130833	0,1	48,236687
1,132500	0,1	47,605537
1,134167	0,1	46,999456
1,135833	0,1	46,351623
1,137500	0,1	45,775484
1,139167	0,1	45,198529
1,140833	0,1	44,731821
1,142500	0,1	44,172341
1,144167	0,1	43,836583
1,145833	0,1	43,479553
1,147500	0,1	43,265983
1,149167	0,1	43,112356
1,150833	0,1	43,090749
1,152500	0,1	43,112039
1,154167	0,1	43,267677
1,155833	0,1	43,497990
1,157500	0,1	43,830611
1,159167	0,1	44,150949
1,160833	0,1	44,553976
1,162500	0,1	44,986412
1,164167	0,1	45,484071
1,165833	0,1	45,983351
1,167500	0,1	46,455890
1,169167	0,1	46,991860
1,170833	0,1	47,475756
1,172500	0,1	47,918510
1,174167	0,1	48,381642
1,175833	0,1	48,791841
1,177500	0,1	49,146858
1,179167	0,1	49,439727
1,180833	0,1	49,742177
1,182500	0,1	49,931576
1,184167	0,1	50,045773
1,185833	0,1	50,158625
1,187500	0,1	50,250748
1,189167	0,1	50,303262
1,190833	0,1	50,284115
1,192500	0,1	50,309130
1,194167	0,1	50,322813
1,195833	0,1	50,393007
1,197500	0,1	50,502868
1,199167	0,1	50,707275
1,200833	0,1	50,989623
1,202500	0,1	51,335385
1,204167	0,1	51,941324
1,205833	0,1	52,622973
1,207500	0,1	53,462467
1,209167	0,1	54,505116
1,210833	0,1	55,792589
1,212500	0,1	57,256338
1,214167	0,1	58,927211
1,215833	0,1	60,791694
1,217500	0,1	62,896999
1,219167	0,1	65,204176
1,220833	0,1	67,588115
1,222500	0,1	70,143068
1,224167	0,1	72,800581
1,225833	0,1	75,571706
1,227500	0,1	78,387061
1,229167	0,1	81,111896
1,230833	0,1	83,893341
1,232500	0,1	86,660298
1,234167	0,1	89,297239
1,235833	0,1	91,859878
1,237500	0,1	94,250509
1,239167	0,1	96,466294
1,240833	0,1	98,526528
1,242500	0,1	100,331667
1,244167	0,1	101,968949
1,245833	0,1	103,448261
1,247500	0,1	104,634155
1,249167	0,1	105,538180
1,250833	0,1	106,305824
1,252500	0,1	106,768582
1,254167	0,1	107,038670
1,255833	0,1	107,082086
1,257500	0,1	106,970532
1,259167	0,1	106,550436
1,260833	0,1	105,953418
1,262500	0,1	105,186970
1,264167	0,1	104,162996
1,265833	0,1	103,046960
1,267500	0,1	101,718113
1,269167	0,1	100,189246
1,270833	0,1	98,625122
1,272500	0,1	96,825666
1,274167	0,1	94,985701
1,275833	0,1	93,021051
1,277500	0,1	90,920599
1,279167	0,1	88,840972
1,280833	0,1	86,628377
1,282500	0,1	84,388631
1,284167	0,1	82,155596
1,285833	0,1	79,858649
1,287500	0,1	77,631567
1,289167	0,1	75,334812
1,290833	0,1	73,072435
1,292500	0,1	70,820436
1,294167	0,1	68,683506
1,295833	0,1	66,493569
1,297500	0,1	64,359025
1,299167	0,1	62,311760
1,300833	0,1	60,343772
1,302500	0,1	58,425237
1,304167	0,1	56,581257
1,305833	0,1	54,821408
1,307500	0,1	53,070718
1,309167	0,1	51,411122
1,310833	0,1	49,812522
1,312500	0,1	48,309738
1,314167	0,1	46,873722
1,315833	0,1	45,521897
1,317500	0,1	44,130945
1,319167	0,1	42,908284
1,320833	0,1	41,741594
1,322500	0,1	40,570942
1,324167	0,1	39,391288
1,325833	0,1	38,368018
1,327500	0,1	37,367052
1,329167	0,1	36,394652
1,330833	0,1	35,475704
1,332500	0,1	34,577701
1,334167	0,1	33,707249
1,335833	0,1	32,861985
1,337500	0,1	32,085795
1,339167	0,1	31,310787
1,340833	0,1	30,507121
1,342500	0,1	29,825954
1,344167	0,1	29,154333
1,345833	0,1	28,452075
1,347500	0,1	27,770080
1,349167	0,1	27,154951
1,350833	0,1	26,524421
1,352500	0,1	25,881069
1,354167	0,1	25,299171
1,355833	0,1	24,768150
1,357500	0,1	24,199472
1,359167	0,1	23,653903
1,360833	0,1	23,073515
1,362500	0,1	22,547335
1,364167	0,1	22,049324
1,365833	0,1	21,520661
1,367500	0,1	21,048926
1,369167	0,1	20,580225
1,370833	0,1	20,079415
1,372500	0,1	19,659369
1,374167	0,1	19,165964
1,375833	0,1	18,789166
1,377500	0,1	18,340387
1,379167	0,1	17,955988
1,380833	0,1	17,553074
1,382500	0,1	17,123436
1,384167	0,1	16,758680
1,385833	0,1	16,432659
1,387500	0,1	16,038345
1,389167	0,1	15,678269
1,390833	0,1	15,315178
1,392500	0,1	15,012948
1,394167	0,1	14,638760
1,395833	0,1	14,348000
1,397500	0,1	13,994218
1,399167	0,1	13,747898
1,400833	0,1	13,460184
1,402500	0,1	13,208368
1,404167	0,1	12,947969
1,405833	0,1	12,699348
1,407500	0,1	12,441254
1,409167	0,1	12,212016
1,410833	0,1	11,976349
1,412500	0,1	11,785472
1,414167	0,1	11,524808
1,415833	0,1	11,344687
1,417500	0,1	11,092685
1,419167	0,1	10,893366
1,420833	0,1	10,736892
1,422500	0,1	10,565637
1,424167	0,1	10,358749
1,425833	0,1	10,208374
1,427500	0,1	10,058949
1,429167	0,1	9,893233
1,430833	0,1	9,738271
1,432500	0,1	9,561195
1,434167	0,1	9,468695
1,435833	0,1	9,251945
1,437500	0,1	9,129424
1,439167	0,1	9,026512
1,440833	0,1	8,887574
1,442500	0,1	8,771424
1,444167	0,1	8,661030
1,445833	0,1	8,503180
1,447500	0,1	8,403787
1,449167	0,1	8,302513
1,450833	0,1	8,158057
1,452500	0,1	8,055190
1,454167	0,1	7,988722
1,455833	0,1	7,843845
1,457500	0,1	7,759832
1,459167	0,1	7,691519
1,460833	0,1	7,560574
1,462500	0,1	7,487046
1,464167	0,1	7,405366
1,465833	0,1	7,347737
1,467500	0,1	7,287969
1,469167	0,1	7,191793
1,470833	0,1	7,110049
1,472500	0,1	7,082831
1,474167	0,1	7,034199
1,475833	0,1	6,935371
1,477500	0,1	6,937119
1,479167	0,1	6,899595
1,480833	0,1	6,848745
1,482500	0,1	6,800319
1,484167	0,1	6,773588
1,485833	0,1	6,721739
1,487500	0,1	6,687380
1,489167	0,1	6,706177
1,490833	0,1	6,652380
1,492500	0,1	6,646687
1,494167	0,1	6,666331
1,495833	0,1	6,630599
1,497500	0,1	6,631436
1,499167	0,1	6,613361
1,500833	0,1	6,612987
1,502500	0,1	6,615403
1,504167	0,1	6,620157
1,505833	0,1	6,626764
1,507500	0,1	6,634395
1,509167	0,1	6,625465
1,510833	0,1	6,585437
1,512500	0,1	6,557047
1,514167	0,1	6,629160
1,515833	0,1	6,612260
1,517500	0,1	6,593171
1,519167	0,1	6,620609
1,520833	0,1	6,586556
1,522500	0,1	6,591211
1,524167	0,1	6,602377
1,525833	0,1	6,580976
1,527500	0,1	6,565162
1,529167	0,1	6,580511
1,530833	0,1	6,563124
1,532500	0,1	6,585447
1,534167	0,1	6,523285
1,535833	0,1	6,503823
1,537500	0,1	6,483155
1,539167	0,1	6,470965
1,540833	0,1	6,484662
1,542500	0,1	6,446230
1,544167	0,1	6,446517
1,545833	0,1	6,409857
1,547500	0,1	6,370125
1,549167	0,1	6,361762
1,550833	0,1	6,296181
1,552500	0,1	6,291891
1,554167	0,1	6,270029
1,555833	0,1	6,227280
1,557500	0,1	6,239714
1,559167	0,1	6,167646
1,560833	0,1	6,165165
1,562500	0,1	6,137988
1,564167	0,1	6,116180
1,565833	0,1	6,084179
1,567500	0,1	6,003284
1,569167	0,1	5,978932
1,570833	0,1	5,975262
1,572500	0,1	5,951059
1,574167	0,1	5,903771
1,575833	0,1	5,886797
1,577500	0,1	5,865476
1,579167	0,1	5,831288
1,580833	0,1	5,778985
1,582500	0,1	5,784210
1,584167	0,1	5,701981
1,585833	0,1	5,709112
1,587500	0,1	5,675266
1,589167	0,1	5,596252
1,590833	0,1	5,582824
1,592500	0,1	5,595818
1,594167	0,1	5,552912
1,595833	0,1	5,517640
1,597500	0,1	5,469553
1,599167	0,1	5,450723
1,600833	0,1	5,387293
1,602500	0,1	5,376344
1,604167	0,1	5,345557
1,605833	0,1	5,310393
1,607500	0,1	5,298559
1,609167	0,1	5,244940
1,610833	0,1	5,206138
1,612500	0,1	5,179254
1,614167	0,1	5,188278
1,615833	0,1	5,118704
1,617500	0,1	5,090860
1,619167	0,1	5,093589
1,620833	0,1	5,046997
1,622500	0,1	5,092310
1,624167	0,1	5,017370
1,625833	0,1	4,940129
1,627500	0,1	4,917422
1,629167	0,1	4,912991
1,630833	0,1	4,901278
1,632500	0,1	4,859284
1,634167	0,1	4,832559
1,635833	0,1	4,841038
1,637500	0,1	4,814325
1,639167	0,1	4,764039
1,640833	0,1	4,785532
1,642500	0,1	4,719743
1,644167	0,1	4,681685
1,645833	0,1	4,703123
1,647500	0,1	4,665965
1,649167	0,1	4,695773
1,650833	0,1	4,639174
1,652500	0,1	4,623516
1,654167	0,1	4,660179
1,655833	0,1	4,624689
1,657500	0,1	4,629831
1,659167	0,1	4,581934
1,660833	0,1	4,621346
1,662500	0,1	4,623665
1,664167	0,1	4,615885
1,665833	0,1	4,672945
1,667500	0,1	4,582466
1,669167	0,1	4,682135
1,670833	0,1	4,699798
1,672500	0,1	4,723964
1,674167	0,1	4,752907
1,675833	0,1	4,770443
1,677500	0,1	4,800636
1,679167	0,1	4,872767
1,680833	0,1	4,899355
1,682500	0,1	4,993756
1,684167	0,1	5,103105
1,685833	0,1	5,134010
1,687500	0,1	5,194729
1,689167	0,1	5,265549
1,690833	0,1	5,308608
1,692500	0,1	5,426601
1,694167	0,1	5,526403
1,695833	0,1	5,669332
1,697500	0,1	5,720941
1,699167	0,1	5,862729
1,700833	0,1	5,998633
1,702500	0,1	6,092979
1,704167	0,1	6,218102
1,705833	0,1	6,323957
1,707500	0,1	6,453650
1,709167	0,1	6,543989
1,710833	0,1	6,714979
1,712500	0,1	6,829150
1,714167	0,1	6,958321
1,715833	0,1	7,089497
1,717500	0,1	7,227711
1,719167	0,1	7,312177
1,720833	0,1	7,480546
1,722500	0,1	7,544770
1,724167	0,1	7,692152
1,725833	0,1	7,866928
1,727500	0,1	7,885930
1,729167	0,1	8,006699
1,730833	0,1	8,102277
1,732500	0,1	8,166640
1,734167	0,1	8,257633
1,735833	0,1	8,339813
1,737500	0,1	8,462718
1,739167	0,1	8,461583
1,740833	0,1	8,526352
1,742500	0,1	8,600261
1,744167	0,1	8,644552
1,745833	0,1	8,716809
1,747500	0,1	8,698725
1,749167	0,1	8,731955
1,750833	0,1	8,754015
1,752500	0,1	8,739821
1,754167	0,1	8,746614
1,755833	0,1	8,762225
1,757500	0,1	8,752462
1,759167	0,1	8,740652
1,760833	0,1	8,716330
1,762500	0,1	8,685360
1,764167	0,1	8,626977
1,765833	0,1	8,603333
1,767500	0,1	8,563260
1,769167	0,1	8,515387
1,770833	0,1	8,435253
1,772500	0,1	8,375014
1,774167	0,1	8,306646
1,775833	0,1	8,292999
1,777500	0,1	8,147040
1,779167	0,1	8,096493
1,780833	0,1	8,005849
1,782500	0,1	7,935158
1,784167	0,1	7,843301
1,785833	0,1	7,765443
1,787500	0,1	7,695278
1,789167	0,1	7,608599
1,790833	0,1	7,513914
1,792500	0,1	7,441348
1,794167	0,1	7,340284
1,795833	0,1	7,269048
1,797500	0,1	7,097683
1,799167	0,1	7,020510
1,800833	0,1	6,928941
1,802500	0,1	6,847726
1,804167	0,1	6,707038
1,805833	0,1	6,646517
1,807500	0,1	6,508684
1,809167	0,1	6,430707
1,810833	0,1	6,283260
1,812500	0,1	6,226263
1,814167	0,1	6,161454
1,815833	0,1	6,029914
1,817500	0,1	5,900538
1,819167	0,1	5,822545
1,820833	0,1	5,747515
1,822500	0,1	5,638884
1,824167	0,1	5,567174
1,825833	0,1	5,475951
1,827500	0,1	5,366170
1,829167	0,1	5,308819
1,830833	0,1	5,224813
1,832500	0,1	5,145385
1,834167	0,1	5,076417
1,835833	0,1	4,997560
1,837500	0,1	4,932757
1,839167	0,1	4,861622
1,840833	0,1	4,835290
1,842500	0,1	4,783236
1,844167	0,1	4,751742
1,845833	0,1	4,700016
1,847500	0,1	4,662874
1,849167	0,1	4,680725
1,850833	0,1	4,636531
1,852500	0,1	4,656102
1,854167	0,1	4,645566
1,855833	0,1	4,690263
1,857500	0,1	4,663236
1,859167	0,1	4,672936
1,860833	0,1	4,689833
1,862500	0,1	4,725093
1,864167	0,1	4,705377
1,865833	0,1	4,732681
1,867500	0,1	4,725586
1,869167	0,1	4,783792
1,870833	0,1	4,805628
1,872500	0,1	4,823034
1,874167	0,1	4,854974
1,875833	0,1	4,880933
1,877500	0,1	4,895012
1,879167	0,1	4,914627
1,880833	0,1	4,919500
1,882500	0,1	4,940525
1,884167	0,1	4,954386
1,885833	0,1	4,948375
1,887500	0,1	4,984438
1,889167	0,1	4,971291
1,890833	0,1	4,975350
1,892500	0,1	4,989996
1,894167	0,1	5,021657
1,895833	0,1	5,041422
1,897500	0,1	5,048510
1,899167	0,1	5,072415
1,900833	0,1	5,075889
1,902500	0,1	5,125280
1,904167	0,1	5,099750
1,905833	0,1	5,112587
1,907500	0,1	5,079540
1,909167	0,1	5,095844
1,910833	0,1	5,107137
1,912500	0,1	5,149591
1,914167	0,1	5,144153
1,915833	0,1	5,152621
1,917500	0,1	5,131311
1,919167	0,1	5,104099
1,920833	0,1	5,116906
1,922500	0,1	5,121000
1,924167	0,1	5,096222
1,925833	0,1	5,103412
1,927500	0,1	5,122748
1,929167	0,1	5,087642
1,930833	0,1	5,083063
1,932500	0,1	5,126300
1,934167	0,1	5,055980
1,935833	0,1	5,068295
1,937500	0,1	5,056811
1,939167	0,1	5,027543
1,940833	0,1	5,066172
1,942500	0,1	5,057375
1,944167	0,1	5,038467
1,945833	0,1	5,037616
1,947500	0,1	4,978558
1,949167	0,1	4,994003
1,950833	0,1	5,000132
1,952500	0,1	4,930384
1,954167	0,1	4,991824
1,955833	0,1	4,952222
1,957500	0,1	4,936975
1,959167	0,1	4,939002
1,960833	0,1	4,962418
1,962500	0,1	4,924284
1,964167	0,1	4,947237
1,965833	0,1	4,957061
1,967500	0,1	4,910686
1,969167	0,1	4,914276
1,970833	0,1	4,943823
1,972500	0,1	4,918293
1,974167	0,1	4,901249
1,975833	0,1	4,904134
1,977500	0,1	4,895888
1,979167	0,1	4,927144
1,980833	0,1	4,922128
1,982500	0,1	4,950795
1,984167	0,1	4,909157
1,985833	0,1	4,903193
1,987500	0,1	4,974380
1,989167	0,1	4,949090
1,990833	0,1	4,999388
1,992500	0,1	5,004620
1,994167	0,1	4,945623
1,995833	0,1	5,023147
1,997500	0,1	4,990517
1,999167	0,1	5,022537
2,000833	0,1	5,031013
2,002500	0,1	5,009616
2,004167	0,1	5,084031
2,005833	0,1	5,080916
2,007500	0,1	5,087294
2,009167	0,1	5,101464
2,010833	0,1	5,108240
2,012500	0,1	5,143634
2,014167	0,1	5,168792
2,015833	0,1	5,181303
2,017500	0,1	5,165953
2,019167	0,1	5,185427
2,020833	0,1	5,211407
2,022500	0,1	5,230297
2,024167	0,1	5,289841
2,025833	0,1	5,285309
2,027500	0,1	5,297305
2,029167	0,1	5,324167
2,030833	0,1	5,350912
2,032500	0,1	5,357611
2,034167	0,1	5,410226
2,035833	0,1	5,437583
2,037500	0,1	5,424403
2,039167	0,1	5,473733
2,040833	0,1	5,480069
2,042500	0,1	5,508181
2,044167	0,1	5,559409
2,045833	0,1	5,580282
2,047500	0,1	5,590707
2,049167	0,1	5,624180
2,050833	0,1	5,645870
2,052500	0,1	5,676231
2,054167	0,1	5,734846
2,055833	0,1	5,745699
2,057500	0,1	5,765242
2,059167	0,1	5,749889
2,060833	0,1	5,826884
2,062500	0,1	5,836305
2,064167	0,1	5,838031
2,065833	0,1	5,903358
2,067500	0,1	5,909524
2,069167	0,1	5,910897
2,070833	0,1	5,963299
2,072500	0,1	5,984967
2,074167	0,1	6,001428
2,075833	0,1	6,065361
2,077500	0,1	6,077381
2,079167	0,1	6,082779
2,080833	0,1	6,089897
2,082500	0,1	6,103013
2,084167	0,1	6,148756
2,085833	0,1	6,161231
2,087500	0,1	6,183169
2,089167	0,1	6,201854
2,090833	0,1	6,255877
2,092500	0,1	6,239373
2,094167	0,1	6,247976
2,095833	0,1	6,299669
2,097500	0,1	6,299892
2,099167	0,1	6,323056
2,100833	0,1	6,314389
2,102500	0,1	6,357172
2,104167	0,1	6,340256
2,105833	0,1	6,399884
2,107500	0,1	6,370213
2,109167	0,1	6,450489
2,110833	0,1	6,454694
2,112500	0,1	6,433191
2,114167	0,1	6,439525
2,115833	0,1	6,466966
2,117500	0,1	6,487257
2,119167	0,1	6,493934
2,120833	0,1	6,497031
2,122500	0,1	6,515176
2,124167	0,1	6,489034
2,125833	0,1	6,522604
2,127500	0,1	6,541596
2,129167	0,1	6,542812
2,130833	0,1	6,551840
2,132500	0,1	6,524019
2,134167	0,1	6,552291
2,135833	0,1	6,585333
2,137500	0,1	6,542362
2,139167	0,1	6,543919
2,140833	0,1	6,485851
2,142500	0,1	6,503884
2,144167	0,1	6,558343
2,145833	0,1	6,564400
2,147500	0,1	6,512097
2,149167	0,1	6,523745
2,150833	0,1	6,489011
2,152500	0,1	6,556303
2,154167	0,1	6,514902
2,155833	0,1	6,471905
2,157500	0,1	6,511080
2,159167	0,1	6,492083
2,160833	0,1	6,478140
2,162500	0,1	6,446303
2,164167	0,1	6,455056
2,165833	0,1	6,458025
2,167500	0,1	6,436819
2,169167	0,1	6,440449
2,170833	0,1	6,434788
2,172500	0,1	6,423057
2,174167	0,1	6,419899
2,175833	0,1	6,391793
2,177500	0,1	6,375491
2,179167	0,1	6,317657
2,180833	0,1	6,348067
2,182500	0,1	6,350760
2,184167	0,1	6,307985
2,185833	0,1	6,300254
2,187500	0,1	6,291700
2,189167	0,1	6,291778
2,190833	0,1	6,290666
2,192500	0,1	6,225106
2,194167	0,1	6,242945
2,195833	0,1	6,216007
2,197500	0,1	6,205856
2,199167	0,1	6,197025
2,200833	0,1	6,155386
2,202500	0,1	6,172488
2,204167	0,1	6,133346
2,205833	0,1	6,156686
2,207500	0,1	6,123125
2,209167	0,1	6,095112
2,210833	0,1	6,091597
2,212500	0,1	6,076531
2,214167	0,1	6,088990
2,215833	0,1	6,026704
2,217500	0,1	6,044993
2,219167	0,1	6,029782
2,220833	0,1	6,020302
2,222500	0,1	6,056669
2,224167	0,1	6,031456
2,225833	0,1	6,010042
2,227500	0,1	5,991796
2,229167	0,1	5,958483
2,230833	0,1	5,935785
2,232500	0,1	6,001133
2,234167	0,1	5,975382
2,235833	0,1	5,964806
2,237500	0,1	5,937946
2,239167	0,1	5,947992
2,240833	0,1	5,897216
2,242500	0,1	5,926503
2,244167	0,1	5,911360
2,245833	0,1	5,892181
2,247500	0,1	5,945217
2,249167	0,1	5,873451
2,250833	0,1	5,887917
2,252500	0,1	5,855864
2,254167	0,1	5,881461
2,255833	0,1	5,870869
2,257500	0,1	5,868900
2,259167	0,1	5,894999
2,260833	0,1	5,856638
2,262500	0,1	5,857666
2,264167	0,1	5,827262
2,265833	0,1	5,864319
2,267500	0,1	5,847527
2,269167	0,1	5,835536
2,270833	0,1	5,787981
2,272500	0,1	5,801623
2,274167	0,1	5,790082
2,275833	0,1	5,800993
2,277500	0,1	5,796162
2,279167	0,1	5,756640
2,280833	0,1	5,771321
2,282500	0,1	5,752208
2,284167	0,1	5,729345
2,285833	0,1	5,730815
2,287500	0,1	5,696293
2,289167	0,1	5,684021
2,290833	0,1	5,697883
2,292500	0,1	5,667558
2,294167	0,1	5,665466
2,295833	0,1	5,626428
2,297500	0,1	5,597823
2,299167	0,1	5,600673
2,300833	0,1	5,609102
2,302500	0,1	5,601370
2,304167	0,1	5,551244
2,305833	0,1	5,540338
2,307500	0,1	5,491126
2,309167	0,1	5,545089
2,310833	0,1	5,527751
2,312500	0,1	5,478910
2,314167	0,1	5,482295
2,315833	0,1	5,465215
2,317500	0,1	5,379562
2,319167	0,1	5,442539
2,320833	0,1	5,393787
2,322500	0,1	5,441024
2,324167	0,1	5,392144
2,325833	0,1	5,379067
2,327500	0,1	5,306173
2,329167	0,1	5,318776
2,330833	0,1	5,303989
2,332500	0,1	5,271846
2,334167	0,1	5,283247
2,335833	0,1	5,250131
2,337500	0,1	5,245630
2,339167	0,1	5,216048
2,340833	0,1	5,200313
2,342500	0,1	5,161188
2,344167	0,1	5,162053
2,345833	0,1	5,179243
2,347500	0,1	5,110234
2,349167	0,1	5,140418
2,350833	0,1	5,116181
2,352500	0,1	5,106381
2,354167	0,1	5,107366
2,355833	0,1	5,077733
2,357500	0,1	5,120596
2,359167	0,1	5,035403
2,360833	0,1	5,033691
2,362500	0,1	5,032561
2,364167	0,1	4,990123
2,365833	0,1	5,037546
2,367500	0,1	4,986910
2,369167	0,1	5,006420
2,370833	0,1	4,954143
2,372500	0,1	4,965612
2,374167	0,1	4,956813
2,375833	0,1	4,971004
2,377500	0,1	4,957295
2,379167	0,1	4,962620
2,380833	0,1	5,034125
2,382500	0,1	4,959332
2,384167	0,1	4,984769
2,385833	0,1	4,992870
2,387500	0,1	5,032438
2,389167	0,1	5,055531
2,390833	0,1	5,078650
2,392500	0,1	5,084048
2,394167	0,1	5,104849
2,395833	0,1	5,140785
2,397500	0,1	5,157109
2,399167	0,1	5,263738
2,400833	0,1	5,277151
2,402500	0,1	5,355141
2,404167	0,1	5,441076
2,405833	0,1	5,483717
2,407500	0,1	5,548357
2,409167	0,1	5,644337
2,410833	0,1	5,746784
2,412500	0,1	5,861067
2,414167	0,1	5,939204
2,415833	0,1	6,048326
2,417500	0,1	6,196729
2,419167	0,1	6,287850
2,420833	0,1	6,433251
2,422500	0,1	6,607074
2,424167	0,1	6,699538
2,425833	0,1	6,906047
2,427500	0,1	7,022420
2,429167	0,1	7,179518
2,430833	0,1	7,381888
2,432500	0,1	7,583985
2,434167	0,1	7,733497
2,435833	0,1	7,889635
2,437500	0,1	8,130420
2,439167	0,1	8,278727
2,440833	0,1	8,478028
2,442500	0,1	8,673545
2,444167	0,1	8,845203
2,445833	0,1	9,016158
2,447500	0,1	9,239897
2,449167	0,1	9,409757
2,450833	0,1	9,607353
2,452500	0,1	9,795474
2,454167	0,1	9,926882
2,455833	0,1	10,112219
2,457500	0,1	10,293474
2,459167	0,1	10,415242
2,460833	0,1	10,568355
2,462500	0,1	10,714512
2,464167	0,1	10,821803
2,465833	0,1	10,982357
2,467500	0,1	11,091365
2,469167	0,1	11,189890
2,470833	0,1	11,332997
2,472500	0,1	11,433681
2,474167	0,1	11,527519
2,475833	0,1	11,547487
2,477500	0,1	11,677778
2,479167	0,1	11,749248
2,480833	0,1	11,768967
2,482500	0,1	11,842576
2,484167	0,1	11,906740
2,485833	0,1	11,935192
2,487500	0,1	11,966077
2,489167	0,1	11,946994
2,490833	0,1	11,988653
2,492500	0,1	12,028275
2,494167	0,1	12,004852
2,495833	0,1	12,042478
2,497500	0,1	12,026074
2,499167	0,1	12,004616
2,500833	0,1	11,975169
2,502500	0,1	11,988081
2,504167	0,1	11,934427
2,505833	0,1	11,914368
2,507500	0,1	11,867739
2,509167	0,1	11,869254
2,510833	0,1	11,812649
2,512500	0,1	11,739622
2,514167	0,1	11,736825
2,515833	0,1	11,658377
2,517500	0,1	11,581144
2,519167	0,1	11,578854
2,520833	0,1	11,507132
2,522500	0,1	11,435561
2,524167	0,1	11,366934
2,525833	0,1	11,311938
2,527500	0,1	11,263985
2,529167	0,1	11,138526
2,530833	0,1	11,086226
2,532500	0,1	11,022490
2,534167	0,1	10,943620
2,535833	0,1	10,831282
2,537500	0,1	10,836021
2,539167	0,1	10,713260
2,540833	0,1	10,597350
2,542500	0,1	10,495984
2,544167	0,1	10,474049
2,545833	0,1	10,366388
2,547500	0,1	10,253678
2,549167	0,1	10,181456
2,550833	0,1	10,027457
2,552500	0,1	9,960564
2,554167	0,1	9,872911
2,555833	0,1	9,815203
2,557500	0,1	9,688489
2,559167	0,1	9,606382
2,560833	0,1	9,550510
2,562500	0,1	9,404347
2,564167	0,1	9,342207
2,565833	0,1	9,202069
2,567500	0,1	9,145065
2,569167	0,1	9,064161
2,570833	0,1	8,912799
2,572500	0,1	8,864177
2,574167	0,1	8,760471
2,575833	0,1	8,666541
2,577500	0,1	8,552774
2,579167	0,1	8,527407
2,580833	0,1	8,379634
2,582500	0,1	8,298365
2,584167	0,1	8,151391
2,585833	0,1	8,093146
2,587500	0,1	7,986979
2,589167	0,1	7,899399
2,590833	0,1	7,800750
2,592500	0,1	7,694471
2,594167	0,1	7,632871
2,595833	0,1	7,584534
2,597500	0,1	7,432894
2,599167	0,1	7,403407
2,600833	0,1	7,291725
2,602500	0,1	7,200275
2,604167	0,1	7,108659
2,605833	0,1	7,055069
2,607500	0,1	6,951673
2,609167	0,1	6,879383
2,610833	0,1	6,792683
2,612500	0,1	6,744824
2,614167	0,1	6,631452
2,615833	0,1	6,530636
2,617500	0,1	6,469774
2,619167	0,1	6,402114
2,620833	0,1	6,337663
2,622500	0,1	6,265146
2,624167	0,1	6,201134
2,625833	0,1	6,114766
2,627500	0,1	6,067057
2,629167	0,1	5,938380
2,630833	0,1	5,863997
2,632500	0,1	5,808618
2,634167	0,1	5,753325
2,635833	0,1	5,698336
2,637500	0,1	5,632307
2,639167	0,1	5,581426
2,640833	0,1	5,446697
2,642500	0,1	5,427309
2,644167	0,1	5,334207
2,645833	0,1	5,308170
2,647500	0,1	5,264286
2,649167	0,1	5,157958
2,650833	0,1	5,171846
2,652500	0,1	5,044985
2,654167	0,1	4,987813
2,655833	0,1	4,897570
2,657500	0,1	4,913489
2,659167	0,1	4,826603
2,660833	0,1	4,766438
2,662500	0,1	4,699101
2,664167	0,1	4,648241
2,665833	0,1	4,590295
2,667500	0,1	4,564713
2,669167	0,1	4,447938
2,670833	0,1	4,438142
2,672500	0,1	4,378921
2,674167	0,1	4,355537
2,675833	0,1	4,291178
2,677500	0,1	4,215240
2,679167	0,1	4,189185
2,680833	0,1	4,113554
2,682500	0,1	4,096135
2,684167	0,1	4,048944
2,685833	0,1	4,009540
2,687500	0,1	3,949847
2,689167	0,1	3,916485
2,690833	0,1	3,870657
2,692500	0,1	3,804926
2,694167	0,1	3,758928
2,695833	0,1	3,737561
2,697500	0,1	3,686594
2,699167	0,1	3,637461
2,700833	0,1	3,618430
2,702500	0,1	3,539816
2,704167	0,1	3,570844
2,705833	0,1	3,482345
2,707500	0,1	3,468534
2,709167	0,1	3,410693
2,710833	0,1	3,460916
2,712500	0,1	3,382086
2,714167	0,1	3,348216
2,715833	0,1	3,324517
2,717500	0,1	3,287467
2,719167	0,1	3,235201
2,720833	0,1	3,198002
2,722500	0,1	3,182558
2,724167	0,1	3,137831
2,725833	0,1	3,109403
2,727500	0,1	3,148116
2,729167	0,1	3,119861
2,730833	0,1	3,116472
2,732500	0,1	3,029413
2,734167	0,1	3,006613
2,735833	0,1	3,008637
2,737500	0,1	2,968419
2,739167	0,1	2,966638
2,740833	0,1	2,968875
2,742500	0,1	2,941342
2,744167	0,1	2,894288
2,745833	0,1	2,857315
2,747500	0,1	2,866755
2,749167	0,1	2,811036
2,750833	0,1	2,858437
2,752500	0,1	2,817045
2,754167	0,1	2,808999
2,755833	0,1	2,766742
2,757500	0,1	2,806914
2,759167	0,1	2,763724
2,760833	0,1	2,746198
2,762500	0,1	2,718231
2,764167	0,1	2,713788
2,765833	0,1	2,727483
2,767500	0,1	2,667365
2,769167	0,1	2,692895
2,770833	0,1	2,658817
2,772500	0,1	2,658395
2,774167	0,1	2,629274
2,775833	0,1	2,652652
2,777500	0,1	2,631912
2,779167	0,1	2,622094
2,780833	0,1	2,597703
2,782500	0,1	2,551957
2,784167	0,1	2,572663
2,785833	0,1	2,521978
2,787500	0,1	2,561047
2,789167	0,1	2,552520
2,790833	0,1	2,535659
2,792500	0,1	2,534225
2,794167	0,1	2,512363
2,795833	0,1	2,510629
2,797500	0,1	2,508980
2,799167	0,1	2,469192
2,800833	0,1	2,491402
2,802500	0,1	2,453485
2,804167	0,1	2,493972
2,805833	0,1	2,417146
2,807500	0,1	2,457838
2,809167	0,1	2,434915
2,810833	0,1	2,439859
2,812500	0,1	2,422716
2,814167	0,1	2,391679
2,815833	0,1	2,423995
2,817500	0,1	2,424866
2,819167	0,1	2,353905
2,820833	0,1	2,423628
2,822500	0,1	2,387803
2,824167	0,1	2,367297
2,825833	0,1	2,342784
2,827500	0,1	2,366501
2,829167	0,1	2,291328
2,830833	0,1	2,308649
2,832500	0,1	2,317543
2,834167	0,1	2,333594
2,835833	0,1	2,302786
2,837500	0,1	2,307718
2,839167	0,1	2,288302
2,840833	0,1	2,283495
2,842500	0,1	2,255618
2,844167	0,1	2,282842
2,845833	0,1	2,250461
2,847500	0,1	2,239634
2,849167	0,1	2,235834
2,850833	0,1	2,246578
2,852500	0,1	2,180020
2,854167	0,1	2,183657
2,855833	0,1	2,205869
2,857500	0,1	2,195341
2,859167	0,1	2,184879
2,860833	0,1	2,155004
2,862500	0,1	2,142100
2,864167	0,1	2,145606
2,865833	0,1	2,161081
2,867500	0,1	2,123764
2,869167	0,1	2,105843
2,870833	0,1	2,121888
2,872500	0,1	2,065584
2,874167	0,1	2,090791
2,875833	0,1	2,054121
2,877500	0,1	2,019309
2,879167	0,1	2,060696
2,880833	0,1	2,047525
2,882500	0,1	2,020450
2,884167	0,1	2,038277
2,885833	0,1	2,031547
2,887500	0,1	1,973970
2,889167	0,1	2,033257
2,890833	0,1	1,997107
2,892500	0,1	1,992579
2,894167	0,1	1,940871
2,895833	0,1	1,972011
2,897500	0,1	1,950479
2,899167	0,1	1,931986
2,900833	0,1	1,922326
2,902500	0,1	1,922036
2,904167	0,1	1,923754
2,905833	0,1	1,875988
2,907500	0,1	1,902682
2,909167	0,1	1,886375
2,910833	0,1	1,860450
2,912500	0,1	1,870104
2,914167	0,1	1,916230
2,915833	0,1	1,871993
2,917500	0,1	1,855726
2,919167	0,1	1,843411
2,920833	0,1	1,835228
2,922500	0,1	1,805459
2,924167	0,1	1,819701
2,925833	0,1	1,819054
2,927500	0,1	1,797864
2,929167	0,1	1,751842
2,930833	0,1	1,804001
2,932500	0,1	1,749170
2,934167	0,1	1,731287
2,935833	0,1	1,748170
2,937500	0,1	1,724697
2,939167	0,1	1,719182
2,940833	0,1	1,714533
2,942500	0,1	1,776161
2,944167	0,1	1,707323
2,945833	0,1	1,694692
2,947500	0,1	1,730272
2,949167	0,1	1,717626
2,950833	0,1	1,694328
2,952500	0,1	1,685394
2,954167	0,1	1,700641
2,955833	0,1	1,706364
2,957500	0,1	1,659843
2,959167	0,1	1,660259
2,960833	0,1	1,636855
2,962500	0,1	1,652763
2,964167	0,1	1,662626
2,965833	0,1	1,609578
2,967500	0,1	1,654104
2,969167	0,1	1,670652
2,970833	0,1	1,670428
2,972500	0,1	1,623701
2,974167	0,1	1,618113
2,975833	0,1	1,632625
2,977500	0,1	1,610674
2,979167	0,1	1,616822
2,980833	0,1	1,593412
2,982500	0,1	1,644242
2,984167	0,1	1,606238
2,985833	0,1	1,621329
2,987500	0,1	1,608730
2,989167	0,1	1,584832
2,990833	0,1	1,566059
2,992500	0,1	1,631633
2,994167	0,1	1,571890
2,995833	0,1	1,606349
2,997500	0,1	1,572253
2,999167	0,1	1,585628
3,000833	0,1	1,633846
3,002500	0,1	1,604294
3,004167	0,1	1,547058
3,005833	0,1	1,572007
3,007500	0,1	1,555779
3,009167	0,1	1,591476
3,010833	0,1	1,597923
3,012500	0,1	1,592498
3,014167	0,1	1,545330
3,015833	0,1	1,541756
3,017500	0,1	1,597912
3,019167	0,1	1,580033
3,020833	0,1	1,552355
3,022500	0,1	1,556280
3,024167	0,1	1,565733
3,025833	0,1	1,542036
3,027500	0,1	1,534962
3,029167	0,1	1,598130
3,030833	0,1	1,568123
3,032500	0,1	1,557283
3,034167	0,1	1,580243
3,035833	0,1	1,545421
3,037500	0,1	1,547977
3,039167	0,1	1,558717
3,040833	0,1	1,542392
3,042500	0,1	1,560290
3,044167	0,1	1,578887
3,045833	0,1	1,589011
3,047500	0,1	1,542454
3,049167	0,1	1,535949
3,050833	0,1	1,510275
3,052500	0,1	1,550393
3,054167	0,1	1,548116
3,055833	0,1	1,543044
3,057500	0,1	1,556991
3,059167	0,1	1,538253
3,060833	0,1	1,537522
3,062500	0,1	1,508207
3,064167	0,1	1,532953
3,065833	0,1	1,510700
3,067500	0,1	1,521202
3,069167	0,1	1,562560
3,070833	0,1	1,521146
3,072500	0,1	1,534230
3,074167	0,1	1,526358
3,075833	0,1	1,491808
3,077500	0,1	1,534280
3,079167	0,1	1,535727
3,080833	0,1	1,524659
3,082500	0,1	1,540202
3,084167	0,1	1,497045
3,085833	0,1	1,534307
3,087500	0,1	1,558782
3,089167	0,1	1,576804
3,090833	0,1	1,534970
3,092500	0,1	1,529589
3,094167	0,1	1,590057
3,095833	0,1	1,562395
3,097500	0,1	1,576312
3,099167	0,1	1,566313
3,100833	0,1	1,556146
3,102500	0,1	1,580887
3,104167	0,1	1,570808
3,105833	0,1	1,585098
3,107500	0,1	1,596979
3,109167	0,1	1,627007
3,110833	0,1	1,550847
3,112500	0,1	1,637575
3,114167	0,1	1,640367
3,115833	0,1	1,633146
3,117500	0,1	1,654237
3,119167	0,1	1,654678
3,120833	0,1	1,686892
3,122500	0,1	1,646729
3,124167	0,1	1,699405
3,125833	0,1	1,693571
3,127500	0,1	1,681232
3,129167	0,1	1,762469
3,130833	0,1	1,740316
3,132500	0,1	1,753176
3,134167	0,1	1,766368
3,135833	0,1	1,800629
3,137500	0,1	1,815548
3,139167	0,1	1,824921
3,140833	0,1	1,813613
3,142500	0,1	1,822840
3,144167	0,1	1,868167
3,145833	0,1	1,867170
3,147500	0,1	1,862870
3,149167	0,1	1,882628
3,150833	0,1	1,902046
3,152500	0,1	1,932190
3,154167	0,1	1,942293
3,155833	0,1	1,960485
3,157500	0,1	1,954830
3,159167	0,1	1,980105
3,160833	0,1	2,029960
3,162500	0,1	2,001531
3,164167	0,1	2,042851
3,165833	0,1	2,007550
3,167500	0,1	1,985333
3,169167	0,1	2,045004
3,170833	0,1	2,025320
3,172500	0,1	2,063774
3,174167	0,1	2,089712
3,175833	0,1	2,069088
3,177500	0,1	2,101103
3,179167	0,1	2,104338
3,180833	0,1	2,103548
3,182500	0,1	2,063432
3,184167	0,1	2,110630
3,185833	0,1	2,103407
3,187500	0,1	2,119808
3,189167	0,1	2,130986
3,190833	0,1	2,091519
3,192500	0,1	2,105835
3,194167	0,1	2,105340
3,195833	0,1	2,137430
3,197500	0,1	2,151051
3,199167	0,1	2,157716
3,200833	0,1	2,159364
3,202500	0,1	2,117028
3,204167	0,1	2,124823
3,205833	0,1	2,156922
3,207500	0,1	2,123831
3,209167	0,1	2,119528
3,210833	0,1	2,110786
3,212500	0,1	2,137000
3,214167	0,1	2,081850
3,215833	0,1	2,102827
3,217500	0,1	2,072385
3,219167	0,1	2,090002
3,220833	0,1	2,072524
3,222500	0,1	2,064288
3,224167	0,1	2,058483
3,225833	0,1	2,059483
3,227500	0,1	2,048241
3,229167	0,1	2,030761
3,230833	0,1	1,982054
3,232500	0,1	2,005969
3,234167	0,1	1,972233
3,235833	0,1	2,009255
3,237500	0,1	1,957420
3,239167	0,1	1,984473
3,240833	0,1	1,973020
3,242500	0,1	1,920674
3,244167	0,1	1,921088
3,245833	0,1	1,922161
3,247500	0,1	1,949515
3,249167	0,1	1,900902
3,250833	0,1	1,829788
3,252500	0,1	1,860494
3,254167	0,1	1,861496
3,255833	0,1	1,896675
3,257500	0,1	1,870679
3,259167	0,1	1,816559
3,260833	0,1	1,785032
3,262500	0,1	1,775229
3,264167	0,1	1,803278
3,265833	0,1	1,776156
3,267500	0,1	1,785464
3,269167	0,1	1,778536
3,270833	0,1	1,711030
3,272500	0,1	1,734829
3,274167	0,1	1,697544
3,275833	0,1	1,722316
3,277500	0,1	1,697630
3,279167	0,1	1,686377
3,280833	0,1	1,642302
3,282500	0,1	1,629618
3,284167	0,1	1,618310
3,285833	0,1	1,652439
3,287500	0,1	1,597087
3,289167	0,1	1,612449
3,290833	0,1	1,601631
3,292500	0,1	1,557417
3,294167	0,1	1,530501
3,295833	0,1	1,542165
3,297500	0,1	1,525221
3,299167	0,1	1,552985
3,300833	0,1	1,514705
3,302500	0,1	1,513271
3,304167	0,1	1,503381
3,305833	0,1	1,457518
3,307500	0,1	1,479273
3,309167	0,1	1,449719
3,310833	0,1	1,438934
3,312500	0,1	1,424045
3,314167	0,1	1,434665
3,315833	0,1	1,431206
3,317500	0,1	1,364098
3,319167	0,1	1,339339
3,320833	0,1	1,379827
3,322500	0,1	1,331228
3,324167	0,1	1,398558
3,325833	0,1	1,349237
3,327500	0,1	1,354628
3,329167	0,1	1,386420
3,330833	0,1	1,333924
3,332500	0,1	1,305036
3,334167	0,1	1,318814
3,335833	0,1	1,293720
3,337500	0,1	1,315898
3,339167	0,1	1,300511
3,340833	0,1	1,252668
3,342500	0,1	1,270539
3,344167	0,1	1,247072
3,345833	0,1	1,269691
3,347500	0,1	1,273338
3,349167	0,1	1,192807
3,350833	0,1	1,244345
3,352500	0,1	1,231287
3,354167	0,1	1,223256
3,355833	0,1	1,219414
3,357500	0,1	1,244014
3,359167	0,1	1,211476
3,360833	0,1	1,210556
3,362500	0,1	1,195211
3,364167	0,1	1,198703
3,365833	0,1	1,217919
3,367500	0,1	1,202462
3,369167	0,1	1,175639
3,370833	0,1	1,211056
3,372500	0,1	1,191764
3,374167	0,1	1,136261
3,375833	0,1	1,162086
3,377500	0,1	1,154998
3,379167	0,1	1,161139
3,380833	0,1	1,146613
3,382500	0,1	1,155570
3,384167	0,1	1,160142
3,385833	0,1	1,143176
3,387500	0,1	1,117308
3,389167	0,1	1,139526
3,390833	0,1	1,143480
3,392500	0,1	1,121301
3,394167	0,1	1,140460
3,395833	0,1	1,177883
3,397500	0,1	1,074177
3,399167	0,1	1,097971
3,400833	0,1	1,078614
3,402500	0,1	1,119021
3,404167	0,1	1,110978
3,405833	0,1	1,121488
3,407500	0,1	1,118032
3,409167	0,1	1,087446
3,410833	0,1	1,095444
3,412500	0,1	1,078790
3,414167	0,1	1,090120
3,415833	0,1	1,145840
3,417500	0,1	1,098808
3,419167	0,1	1,083693
3,420833	0,1	1,089897
3,422500	0,1	1,074599
3,424167	0,1	1,090318
3,425833	0,1	1,079278
3,427500	0,1	1,085151
3,429167	0,1	1,081959
3,430833	0,1	1,060844
3,432500	0,1	1,090492
3,434167	0,1	1,065705
3,435833	0,1	1,034650
3,437500	0,1	1,031626
3,439167	0,1	1,043467
3,440833	0,1	1,037329
3,442500	0,1	1,096961
3,444167	0,1	1,038227
3,445833	0,1	1,044312
3,447500	0,1	1,053607
3,449167	0,1	1,065253
3,450833	0,1	1,037044
3,452500	0,1	1,021736
3,454167	0,1	1,021644
3,455833	0,1	1,052759
3,457500	0,1	1,015242
3,459167	0,1	1,033883
3,460833	0,1	1,011735
3,462500	0,1	1,071474
3,464167	0,1	1,028951
3,465833	0,1	1,019185
3,467500	0,1	1,029382
3,469167	0,1	1,017298
3,470833	0,1	1,043376
3,472500	0,1	0,993952
3,474167	0,1	1,007822
3,475833	0,1	0,999377
3,477500	0,1	0,998396
3,479167	0,1	1,026539
3,480833	0,1	0,988293
3,482500	0,1	1,004915
3,484167	0,1	1,039536
3,485833	0,1	0,965124
3,487500	0,1	0,987991
3,489167	0,1	0,993938
3,490833	0,1	1,058474
3,492500	0,1	0,991673
3,494167	0,1	0,991856
3,495833	0,1	1,004829
3,497500	0,1	1,034080
3,499167	0,1	0,981685
3,500833	0,1	0,973914
3,502500	0,1	1,028130
3,504167	0,1	1,000423
3,505833	0,1	0,991058
3,507500	0,1	0,994295
3,509167	0,1	0,980635
3,510833	0,1	0,977615
3,512500	0,1	0,967590
3,514167	0,1	0,970052
3,515833	0,1	0,965905
3,517500	0,1	1,000541
3,519167	0,1	0,975914
3,520833	0,1	0,977415
3,522500	0,1	0,985355
3,524167	0,1	0,990568
3,525833	0,1	0,967041
3,527500	0,1	0,966326
3,529167	0,1	0,978988
3,530833	0,1	0,972073
3,532500	0,1	0,996087
3,534167	0,1	0,966910
3,535833	0,1	0,969920
3,537500	0,1	0,980430
3,539167	0,1	0,962825
3,540833	0,1	0,950118
3,542500	0,1	0,957963
3,544167	0,1	0,938451
3,545833	0,1	0,934654
3,547500	0,1	0,983703
3,549167	0,1	0,928261
3,550833	0,1	0,932393
3,552500	0,1	0,938933
3,554167	0,1	0,918827
3,555833	0,1	0,894615
3,557500	0,1	0,930143
3,559167	0,1	0,975500
3,560833	0,1	0,974133
3,562500	0,1	0,934358
3,564167	0,1	0,943597
3,565833	0,1	0,929776
3,567500	0,1	0,942615
3,569167	0,1	0,955323
3,570833	0,1	0,915501
3,572500	0,1	0,948020
3,574167	0,1	0,959825
3,575833	0,1	0,942203
3,577500	0,1	0,947780
3,579167	0,1	0,904150
3,580833	0,1	0,926181
3,582500	0,1	0,897607
3,584167	0,1	0,923978
3,585833	0,1	0,920201
3,587500	0,1	0,898067
3,589167	0,1	0,923608
3,590833	0,1	0,919911
3,592500	0,1	0,908957
3,594167	0,1	0,915697
3,595833	0,1	0,904100
3,597500	0,1	0,882946
3,599167	0,1	0,888085
3,600833	0,1	0,952077
3,602500	0,1	0,913950
3,604167	0,1	0,881558
3,605833	0,1	0,886287
3,607500	0,1	0,897663
3,609167	0,1	0,908728
3,610833	0,1	0,893614
3,612500	0,1	0,892234
3,614167	0,1	0,888640
3,615833	0,1	0,880084
3,617500	0,1	0,910365
3,619167	0,1	0,891580
3,620833	0,1	0,844056
3,622500	0,1	0,915995
3,624167	0,1	0,846595
3,625833	0,1	0,883354
3,627500	0,1	0,857961
3,629167	0,1	0,895491
3,630833	0,1	0,887561
3,632500	0,1	0,874100
3,634167	0,1	0,848396
3,635833	0,1	0,846133
3,637500	0,1	0,863054
3,639167	0,1	0,871311
3,640833	0,1	0,825920
3,642500	0,1	0,844382
3,644167	0,1	0,841041
3,645833	0,1	0,834716
3,647500	0,1	0,833101
3,649167	0,1	0,888545
3,650833	0,1	0,846588
3,652500	0,1	0,834127
3,654167	0,1	0,811323
3,655833	0,1	0,863112
3,657500	0,1	0,838959
3,659167	0,1	0,846891
3,660833	0,1	0,816403
3,662500	0,1	0,836625
3,664167	0,1	0,785444
3,665833	0,1	0,812138
3,667500	0,1	0,854952
3,669167	0,1	0,832004
3,670833	0,1	0,797104
3,672500	0,1	0,793856
3,674167	0,1	0,804230
3,675833	0,1	0,831324
3,677500	0,1	0,782229
3,679167	0,1	0,835884
3,680833	0,1	0,788527
3,682500	0,1	0,779739
3,684167	0,1	0,802654
3,685833	0,1	0,798775
3,687500	0,1	0,793594
3,689167	0,1	0,803338
3,690833	0,1	0,782052
3,692500	0,1	0,763382
3,694167	0,1	0,797573
3,695833	0,1	0,815736
3,697500	0,1	0,804079
3,699167	0,1	0,793215
3,700833	0,1	0,770295
3,702500	0,1	0,820098
3,704167	0,1	0,788941
3,705833	0,1	0,808729
3,707500	0,1	0,808250
3,709167	0,1	0,793568
3,710833	0,1	0,797029
3,712500	0,1	0,745165
3,714167	0,1	0,793226
3,715833	0,1	0,801241
3,717500	0,1	0,806701
3,719167	0,1	0,781133
3,720833	0,1	0,837260
3,722500	0,1	0,791741
3,724167	0,1	0,785208
3,725833	0,1	0,786166
3,727500	0,1	0,800307
3,729167	0,1	0,788126
3,730833	0,1	0,826215
3,732500	0,1	0,801340
3,734167	0,1	0,793791
3,735833	0,1	0,747186
3,737500	0,1	0,773302
3,739167	0,1	0,808737
3,740833	0,1	0,776951
3,742500	0,1	0,812164
3,744167	0,1	0,806203
3,745833	0,1	0,780266
3,747500	0,1	0,781824
3,749167	0,1	0,820980
3,750833	0,1	0,781398
3,752500	0,1	0,787163
3,754167	0,1	0,804687
3,755833	0,1	0,812105
3,757500	0,1	0,817025
3,759167	0,1	0,803081
3,760833	0,1	0,835218
3,762500	0,1	0,852610
3,764167	0,1	0,871191
3,765833	0,1	0,790816
3,767500	0,1	0,819526
3,769167	0,1	0,809157
3,770833	0,1	0,841230
3,772500	0,1	0,827657
3,774167	0,1	0,842361
3,775833	0,1	0,840411
3,777500	0,1	0,825782
3,779167	0,1	0,877168
3,780833	0,1	0,826592
3,782500	0,1	0,822395
3,784167	0,1	0,862381
3,785833	0,1	0,806699
3,787500	0,1	0,837503
3,789167	0,1	0,832368
3,790833	0,1	0,843229
3,792500	0,1	0,847573
3,794167	0,1	0,859723
3,795833	0,1	0,857956
3,797500	0,1	0,847289
3,799167	0,1	0,892758
3,800833	0,1	0,885186
3,802500	0,1	0,877117
3,804167	0,1	0,858116
3,805833	0,1	0,849623
3,807500	0,1	0,872384
3,809167	0,1	0,871328
3,810833	0,1	0,873453
3,812500	0,1	0,870882
3,814167	0,1	0,879239
3,815833	0,1	0,841758
3,817500	0,1	0,848990
3,819167	0,1	0,890477
3,820833	0,1	0,864051
3,822500	0,1	0,878149
3,824167	0,1	0,885655
3,825833	0,1	0,875870
3,827500	0,1	0,824504
3,829167	0,1	0,865793
3,830833	0,1	0,879172
3,832500	0,1	0,831342
3,834167	0,1	0,860520
3,835833	0,1	0,825577
3,837500	0,1	0,870055
3,839167	0,1	0,851371
3,840833	0,1	0,817297
3,842500	0,1	0,858693
3,844167	0,1	0,839351
3,845833	0,1	0,849750
3,847500	0,1	0,813951
3,849167	0,1	0,822233
3,850833	0,1	0,819468
3,852500	0,1	0,835026
3,854167	0,1	0,854066
3,855833	0,1	0,815303
3,857500	0,1	0,843447
3,859167	0,1	0,827580
3,860833	0,1	0,843740
3,862500	0,1	0,864381
3,864167	0,1	0,800234
3,865833	0,1	0,841870
3,867500	0,1	0,808139
3,869167	0,1	0,823296
3,870833	0,1	0,840103
3,872500	0,1	0,793092
3,874167	0,1	0,806187
3,875833	0,1	0,809207
3,877500	0,1	0,843224
3,879167	0,1	0,745697
3,880833	0,1	0,786708
3,882500	0,1	0,842535
3,884167	0,1	0,804569
3,885833	0,1	0,805481
3,887500	0,1	0,795419
3,889167	0,1	0,760302
3,890833	0,1	0,795906
3,892500	0,1	0,778996
3,894167	0,1	0,750462
3,895833	0,1	0,786604
3,897500	0,1	0,787622
3,899167	0,1	0,789027
3,900833	0,1	0,792463
3,902500	0,1	0,737395
3,904167	0,1	0,763864
3,905833	0,1	0,738925
3,907500	0,1	0,768986
3,909167	0,1	0,737875
3,910833	0,1	0,765048
3,912500	0,1	0,729155
3,914167	0,1	0,752088
3,915833	0,1	0,778053
3,917500	0,1	0,742302
3,919167	0,1	0,759617
3,920833	0,1	0,740210
3,922500	0,1	0,751095
3,924167	0,1	0,712098
3,925833	0,1	0,743441
3,927500	0,1	0,748786
3,929167	0,1	0,745097
3,930833	0,1	0,708325
3,932500	0,1	0,734247
3,934167	0,1	0,699976
3,935833	0,1	0,738780
3,937500	0,1	0,721987
3,939167	0,1	0,721880
3,940833	0,1	0,732805
3,942500	0,1	0,726642
3,944167	0,1	0,701187
3,945833	0,1	0,752557
3,947500	0,1	0,690566
3,949167	0,1	0,705006
3,950833	0,1	0,706750
3,952500	0,1	0,700034
3,954167	0,1	0,712850
3,955833	0,1	0,713561
3,957500	0,1	0,725799
3,959167	0,1	0,698076
3,960833	0,1	0,657360
3,962500	0,1	0,711907
3,964167	0,1	0,720015
3,965833	0,1	0,715778
3,967500	0,1	0,682592
3,969167	0,1	0,671558
3,970833	0,1	0,664227
3,972500	0,1	0,678783
3,974167	0,1	0,654850
3,975833	0,1	0,711164
3,977500	0,1	0,686020
3,979167	0,1	0,700469
3,980833	0,1	0,670567
3,982500	0,1	0,654459
3,984167	0,1	0,712159
3,985833	0,1	0,684318
3,987500	0,1	0,690160
3,989167	0,1	0,675863
3,990833	0,1	0,755288
3,992500	0,1	0,682818
3,994167	0,1	0,705487
3,995833	0,1	0,679593
3,997500	0,1	0,629761
3,999167	0,1	0,688701
4,000833	0,1	0,712718
4,002500	0,1	0,721170
4,004167	0,1	0,692161
4,005833	0,1	0,716444
4,007500	0,1	0,714400
4,009167	0,1	0,700354
4,010833	0,1	0,680012
4,012500	0,1	0,680902
4,014167	0,1	0,703589
4,015833	0,1	0,702531
4,017500	0,1	0,731554
4,019167	0,1	0,682364
4,020833	0,1	0,741542
4,022500	0,1	0,713335
4,024167	0,1	0,700578
4,025833	0,1	0,726569
4,027500	0,1	0,724452
4,029167	0,1	0,754462
4,030833	0,1	0,713729
4,032500	0,1	0,742091
4,034167	0,1	0,740913
4,035833	0,1	0,733583
4,037500	0,1	0,779018
4,039167	0,1	0,798732
4,040833	0,1	0,750186
4,042500	0,1	0,756079
4,044167	0,1	0,765656
4,045833	0,1	0,788641
4,047500	0,1	0,776144
4,049167	0,1	0,808672
4,050833	0,1	0,814112
4,052500	0,1	0,814520
4,054167	0,1	0,836244
4,055833	0,1	0,831725
4,057500	0,1	0,872708
4,059167	0,1	0,880221
4,060833	0,1	0,885341
4,062500	0,1	0,855785
4,064167	0,1	0,884666
4,065833	0,1	0,888135
4,067500	0,1	0,928881
4,069167	0,1	0,921973
4,070833	0,1	0,934386
4,072500	0,1	0,928892
4,074167	0,1	0,951972
4,075833	0,1	0,970559
4,077500	0,1	0,954885
4,079167	0,1	0,993067
4,080833	0,1	1,022259
4,082500	0,1	1,027166
4,084167	0,1	1,001311
4,085833	0,1	1,076884
4,087500	0,1	1,072930
4,089167	0,1	1,080937
4,090833	0,1	1,087481
4,092500	0,1	1,099237
4,094167	0,1	1,086289
4,095833	0,1	1,198322
4,097500	0,1	1,143602
4,099167	0,1	1,193437
4,100833	0,1	1,172749
4,102500	0,1	1,211968
4,104167	0,1	1,240085
4,105833	0,1	1,258225
4,107500	0,1	1,268831
4,109167	0,1	1,314454
4,110833	0,1	1,292397
4,112500	0,1	1,307279
4,114167	0,1	1,366303
4,115833	0,1	1,366606
4,117500	0,1	1,378954
4,119167	0,1	1,360292
4,120833	0,1	1,406071
4,122500	0,1	1,455003
4,124167	0,1	1,444989
4,125833	0,1	1,452164
4,127500	0,1	1,499283
4,129167	0,1	1,527554
4,130833	0,1	1,511796
4,132500	0,1	1,581827
4,134167	0,1	1,562470
4,135833	0,1	1,591260
4,137500	0,1	1,619578
4,139167	0,1	1,636430
4,140833	0,1	1,698392
4,142500	0,1	1,659832
4,144167	0,1	1,673486
4,145833	0,1	1,734611
4,147500	0,1	1,727401
4,149167	0,1	1,751459
4,150833	0,1	1,723826
4,152500	0,1	1,742632
4,154167	0,1	1,779651
4,155833	0,1	1,786747
4,157500	0,1	1,793826
4,159167	0,1	1,790102
4,160833	0,1	1,851738
4,162500	0,1	1,868231
4,164167	0,1	1,877966
4,165833	0,1	1,902678
4,167500	0,1	1,936117
4,169167	0,1	1,937843
4,170833	0,1	1,895597
4,172500	0,1	1,949223
4,174167	0,1	1,937343
4,175833	0,1	1,957534
4,177500	0,1	1,995642
4,179167	0,1	1,949740
4,180833	0,1	2,025286
4,182500	0,1	2,012403
4,184167	0,1	1,983978
4,185833	0,1	2,001662
4,187500	0,1	2,023015
4,189167	0,1	2,002594
4,190833	0,1	2,034689
4,192500	0,1	2,055755
4,194167	0,1	2,053385
4,195833	0,1	2,051597
4,197500	0,1	2,046796
4,199167	0,1	2,067646
4,200833	0,1	2,072236
4,202500	0,1	2,112637
4,204167	0,1	2,101327
4,205833	0,1	2,089146
4,207500	0,1	2,047667
4,209167	0,1	2,093572
4,210833	0,1	2,104973
4,212500	0,1	2,106408
4,214167	0,1	2,084132
4,215833	0,1	2,124887
4,217500	0,1	2,083346
4,219167	0,1	2,086133
4,220833	0,1	2,119801
4,222500	0,1	2,130983
4,224167	0,1	2,115872
4,225833	0,1	2,094738
4,227500	0,1	2,074748
4,229167	0,1	2,043868
4,230833	0,1	2,068645
4,232500	0,1	2,096875
4,234167	0,1	2,064364
4,235833	0,1	2,060056
4,237500	0,1	2,034767
4,239167	0,1	2,033905
4,240833	0,1	2,057040
4,242500	0,1	2,030260
4,244167	0,1	2,060405
4,245833	0,1	2,049956
4,247500	0,1	2,008980
4,249167	0,1	2,009835
4,250833	0,1	1,995933
4,252500	0,1	2,005532
4,254167	0,1	1,996655
4,255833	0,1	1,990561
4,257500	0,1	2,001525
4,259167	0,1	1,968583
4,260833	0,1	1,944219
4,262500	0,1	1,962631
4,264167	0,1	1,964648
4,265833	0,1	1,889740
4,267500	0,1	1,900033
4,269167	0,1	1,934113
4,270833	0,1	1,925598
4,272500	0,1	1,900468
4,274167	0,1	1,908183
4,275833	0,1	1,880635
4,277500	0,1	1,886135
4,279167	0,1	1,862435
4,280833	0,1	1,884197
4,282500	0,1	1,835008
4,284167	0,1	1,841249
4,285833	0,1	1,819765
4,287500	0,1	1,825908
4,289167	0,1	1,828067
4,290833	0,1	1,789980
4,292500	0,1	1,766055
4,294167	0,1	1,791974
4,295833	0,1	1,756462
4,297500	0,1	1,720815
4,299167	0,1	1,717439
4,300833	0,1	1,715348
4,302500	0,1	1,662253
4,304167	0,1	1,711489
4,305833	0,1	1,679711
4,307500	0,1	1,681873
4,309167	0,1	1,682220
4,310833	0,1	1,674295
4,312500	0,1	1,600565
4,314167	0,1	1,624098
4,315833	0,1	1,618148
4,317500	0,1	1,583822
4,319167	0,1	1,606224
4,320833	0,1	1,586888
4,322500	0,1	1,565771
4,324167	0,1	1,586947
4,325833	0,1	1,585539
4,327500	0,1	1,522344
4,329167	0,1	1,502945
4,330833	0,1	1,512023
4,332500	0,1	1,515613
4,334167	0,1	1,513889
4,335833	0,1	1,499805
4,337500	0,1	1,467326
4,339167	0,1	1,491150
4,340833	0,1	1,457378
4,342500	0,1	1,421103
4,344167	0,1	1,404138
4,345833	0,1	1,420158
4,347500	0,1	1,453446
4,349167	0,1	1,374945
4,350833	0,1	1,400993
4,352500	0,1	1,367749
4,354167	0,1	1,347281
4,355833	0,1	1,366026
4,357500	0,1	1,382779
4,359167	0,1	1,367880
4,360833	0,1	1,317662
4,362500	0,1	1,341190
4,364167	0,1	1,343142
4,365833	0,1	1,311846
4,367500	0,1	1,296141
4,369167	0,1	1,300912
4,370833	0,1	1,269533
4,372500	0,1	1,266868
4,374167	0,1	1,271388
4,375833	0,1	1,270324
4,377500	0,1	1,259671
4,379167	0,1	1,229936
4,380833	0,1	1,226897
4,382500	0,1	1,205000
4,384167	0,1	1,169429
4,385833	0,1	1,209616
4,387500	0,1	1,227977
4,389167	0,1	1,198941
4,390833	0,1	1,189544
4,392500	0,1	1,199730
4,394167	0,1	1,171184
4,395833	0,1	1,115296
4,397500	0,1	1,163416
4,399167	0,1	1,118443
4,400833	0,1	1,140170
4,402500	0,1	1,150133
4,404167	0,1	1,136868
4,405833	0,1	1,113998
4,407500	0,1	1,103102
4,409167	0,1	1,092655
4,410833	0,1	1,069718
4,412500	0,1	1,094220
4,414167	0,1	1,090590
4,415833	0,1	1,122970
4,417500	0,1	1,082322
4,419167	0,1	1,052550
4,420833	0,1	1,037241
4,422500	0,1	1,030253
4,424167	0,1	1,055797
4,425833	0,1	1,001139
4,427500	0,1	1,016582
4,429167	0,1	0,963502
4,430833	0,1	1,025733
4,432500	0,1	0,978161
4,434167	0,1	1,002453
4,435833	0,1	0,962367
4,437500	0,1	1,007748
4,439167	0,1	1,004365
4,440833	0,1	0,959975
4,442500	0,1	0,967148
4,444167	0,1	0,942006
4,445833	0,1	0,945479
4,447500	0,1	0,957499
4,449167	0,1	0,929762
4,450833	0,1	0,924150
4,452500	0,1	0,944344
4,454167	0,1	0,925993
4,455833	0,1	0,951087
4,457500	0,1	0,908988
4,459167	0,1	0,923544
4,460833	0,1	0,898315
4,462500	0,1	0,886763
4,464167	0,1	0,873325
4,465833	0,1	0,861395
4,467500	0,1	0,877267
4,469167	0,1	0,863549
4,470833	0,1	0,857287
4,472500	0,1	0,846515
4,474167	0,1	0,855669
4,475833	0,1	0,777064
4,477500	0,1	0,819890
4,479167	0,1	0,853654
4,480833	0,1	0,831086
4,482500	0,1	0,797917
4,484167	0,1	0,797713
4,485833	0,1	0,841804
4,487500	0,1	0,790559
4,489167	0,1	0,807406
4,490833	0,1	0,782826
4,492500	0,1	0,791150
4,494167	0,1	0,798027
4,495833	0,1	0,758727
4,497500	0,1	0,754927
4,499167	0,1	0,762377
4,500833	0,1	0,765305
4,502500	0,1	0,711421
4,504167	0,1	0,729850
4,505833	0,1	0,737185
4,507500	0,1	0,740456
4,509167	0,1	0,710317
4,510833	0,1	0,709862
4,512500	0,1	0,732580
4,514167	0,1	0,709255
4,515833	0,1	0,699422
4,517500	0,1	0,684992
4,519167	0,1	0,686274
4,520833	0,1	0,672356
4,522500	0,1	0,649578
4,524167	0,1	0,714403
4,525833	0,1	0,712464
4,527500	0,1	0,671018
4,529167	0,1	0,655716
4,530833	0,1	0,657127
4,532500	0,1	0,653878
4,534167	0,1	0,619758
4,535833	0,1	0,634629
4,537500	0,1	0,636943
4,539167	0,1	0,681121
4,540833	0,1	0,612956
4,542500	0,1	0,597390
4,544167	0,1	0,609306
4,545833	0,1	0,626431
4,547500	0,1	0,621456
4,549167	0,1	0,602245
4,550833	0,1	0,592826
4,552500	0,1	0,619744
4,554167	0,1	0,601825
4,555833	0,1	0,581232
4,557500	0,1	0,590380
4,559167	0,1	0,598767
4,560833	0,1	0,564237
4,562500	0,1	0,571521
4,564167	0,1	0,559283
4,565833	0,1	0,565126
4,567500	0,1	0,551735
4,569167	0,1	0,575949
4,570833	0,1	0,564681
4,572500	0,1	0,589766
4,574167	0,1	0,510466
4,575833	0,1	0,548059
4,577500	0,1	0,546172
4,579167	0,1	0,518935
4,580833	0,1	0,517450
4,582500	0,1	0,503674
4,584167	0,1	0,532414
4,585833	0,1	0,514982
4,587500	0,1	0,555319
4,589167	0,1	0,482999
4,590833	0,1	0,499811
4,592500	0,1	0,506719
4,594167	0,1	0,513756
4,595833	0,1	0,470174
4,597500	0,1	0,483460
4,599167	0,1	0,511952
4,600833	0,1	0,409347
4,602500	0,1	0,469251
4,604167	0,1	0,463002
4,605833	0,1	0,448420
4,607500	0,1	0,491967
4,609167	0,1	0,450294
4,610833	0,1	0,472121
4,612500	0,1	0,448490
4,614167	0,1	0,435026
4,615833	0,1	0,467943
4,617500	0,1	0,462104
4,619167	0,1	0,445113
4,620833	0,1	0,418485
4,622500	0,1	0,409816
4,624167	0,1	0,449536
4,625833	0,1	0,396529
4,627500	0,1	0,410193
4,629167	0,1	0,467388
4,630833	0,1	0,405651
4,632500	0,1	0,433284
4,634167	0,1	0,425584
4,635833	0,1	0,365084
4,637500	0,1	0,424893
4,639167	0,1	0,408301
4,640833	0,1	0,401014
4,642500	0,1	0,364409
4,644167	0,1	0,343528
4,645833	0,1	0,427907
4,647500	0,1	0,353978
4,649167	0,1	0,417216
4,650833	0,1	0,375293
4,652500	0,1	0,384564
4,654167	0,1	0,364857
4,655833	0,1	0,405399
4,657500	0,1	0,368002
4,659167	0,1	0,355919
4,660833	0,1	0,380706
4,662500	0,1	0,381354
4,664167	0,1	0,321537
4,665833	0,1	0,393575
4,667500	0,1	0,346365
4,669167	0,1	0,391048
4,670833	0,1	0,361450
4,672500	0,1	0,370785
4,674167	0,1	0,312418
4,675833	0,1	0,364642
4,677500	0,1	0,354026
4,679167	0,1	0,362633
4,680833	0,1	0,380390
4,682500	0,1	0,323753
4,684167	0,1	0,336029
4,685833	0,1	0,340789
4,687500	0,1	0,346669
4,689167	0,1	0,300666
4,690833	0,1	0,374144
4,692500	0,1	0,336818
4,694167	0,1	0,322459
4,695833	0,1	0,314813
4,697500	0,1	0,269589
4,699167	0,1	0,332788
4,700833	0,1	0,350872
4,702500	0,1	0,317559
4,704167	0,1	0,333568
4,705833	0,1	0,285633
4,707500	0,1	0,273008
4,709167	0,1	0,270599
4,710833	0,1	0,309222
4,712500	0,1	0,332219
4,714167	0,1	0,271961
4,715833	0,1	0,336768
4,717500	0,1	0,302979
4,719167	0,1	0,321138
4,720833	0,1	0,276779
4,722500	0,1	0,303986
4,724167	0,1	0,286468
4,725833	0,1	0,273813
4,727500	0,1	0,296445
4,729167	0,1	0,267521
4,730833	0,1	0,294517
4,732500	0,1	0,277705
4,734167	0,1	0,273821
4,735833	0,1	0,284246
4,737500	0,1	0,254264
4,739167	0,1	0,260035
4,740833	0,1	0,265172
4,742500	0,1	0,255390
4,744167	0,1	0,280653
4,745833	0,1	0,286500
4,747500	0,1	0,237597
4,749167	0,1	0,258846
4,750833	0,1	0,280163
4,752500	0,1	0,276670
4,754167	0,1	0,262518
4,755833	0,1	0,293232
4,757500	0,1	0,242810
4,759167	0,1	0,253624
4,760833	0,1	0,247321
4,762500	0,1	0,280739
4,764167	0,1	0,230007
4,765833	0,1	0,276178
4,767500	0,1	0,256929
4,769167	0,1	0,254458
4,770833	0,1	0,235550
4,772500	0,1	0,208837
4,774167	0,1	0,260414
4,775833	0,1	0,250859
4,777500	0,1	0,252756
4,779167	0,1	0,241969
4,780833	0,1	0,239072
4,782500	0,1	0,200681
4,784167	0,1	0,219969
4,785833	0,1	0,244139
4,787500	0,1	0,214593
4,789167	0,1	0,223308
4,790833	0,1	0,232045
4,792500	0,1	0,217181
4,794167	0,1	0,193013
4,795833	0,1	0,221992
4,797500	0,1	0,221923
4,799167	0,1	0,220841
4,800833	0,1	0,192309
4,802500	0,1	0,265381
4,804167	0,1	0,217768
4,805833	0,1	0,224794
4,807500	0,1	0,215769
4,809167	0,1	0,231878
4,810833	0,1	0,194965
4,812500	0,1	0,179137
4,814167	0,1	0,204997
4,815833	0,1	0,198348
4,817500	0,1	0,213549
4,819167	0,1	0,228191
4,820833	0,1	0,262254
4,822500	0,1	0,216030
4,824167	0,1	0,206681
4,825833	0,1	0,230781
4,827500	0,1	0,262708
4,829167	0,1	0,198033
4,830833	0,1	0,202723
4,832500	0,1	0,206489
4,834167	0,1	0,195538
4,835833	0,1	0,188766
4,837500	0,1	0,208058
4,839167	0,1	0,212102
4,840833	0,1	0,203345
4,842500	0,1	0,175968
4,844167	0,1	0,238138
4,845833	0,1	0,209354
4,847500	0,1	0,217919
4,849167	0,1	0,181913
4,850833	0,1	0,159008
4,852500	0,1	0,226931
4,854167	0,1	0,235670
4,855833	0,1	0,217221
4,857500	0,1	0,210609
4,859167	0,1	0,215578
4,860833	0,1	0,164646
4,862500	0,1	0,202440
4,864167	0,1	0,224211
4,865833	0,1	0,191856
4,867500	0,1	0,192842
4,869167	0,1	0,231747
4,870833	0,1	0,181588
4,872500	0,1	0,204016
4,874167	0,1	0,148785
4,875833	0,1	0,197904
4,877500	0,1	0,166238
4,879167	0,1	0,198778
4,880833	0,1	0,185634
4,882500	0,1	0,183086
4,884167	0,1	0,164184
4,885833	0,1	0,180554
4,887500	0,1	0,190600
4,889167	0,1	0,202030
4,890833	0,1	0,190088
4,892500	0,1	0,210930
4,894167	0,1	0,208517
4,895833	0,1	0,155101
4,897500	0,1	0,225156
4,899167	0,1	0,191731
4,900833	0,1	0,205631
4,902500	0,1	0,213197
4,904167	0,1	0,183384
4,905833	0,1	0,214036
4,907500	0,1	0,197480
4,909167	0,1	0,179138
4,910833	0,1	0,148779
4,912500	0,1	0,142479
4,914167	0,1	0,169700
4,915833	0,1	0,174184
4,917500	0,1	0,179446
4,919167	0,1	0,161512
4,920833	0,1	0,188695
4,922500	0,1	0,181615
4,924167	0,1	0,174704
4,925833	0,1	0,155093
4,927500	0,1	0,174156
4,929167	0,1	0,189542
4,930833	0,1	0,219814
4,932500	0,1	0,179181
4,934167	0,1	0,185301
4,935833	0,1	0,181514
4,937500	0,1	0,193230
4,939167	0,1	0,196442
4,940833	0,1	0,189861
4,942500	0,1	0,205593
4,944167	0,1	0,188314
4,945833	0,1	0,212591
4,947500	0,1	0,189449
4,949167	0,1	0,173460
4,950833	0,1	0,176853
4,952500	0,1	0,202480
4,954167	0,1	0,148409
4,955833	0,1	0,162209
4,957500	0,1	0,171402
4,959167	0,1	0,157763
4,960833	0,1	0,197178
4,962500	0,1	0,176608
4,964167	0,1	0,205967
4,965833	0,1	0,155680
4,967500	0,1	0,202061
4,969167	0,1	0,160563
4,970833	0,1	0,171630
4,972500	0,1	0,156830
4,974167	0,1	0,186366
4,975833	0,1	0,175409
4,977500	0,1	0,163828
4,979167	0,1	0,177304
4,980833	0,1	0,205425
4,982500	0,1	0,150749
4,984167	0,1	0,187132
4,985833	0,1	0,190438
4,987500	0,1	0,184474
4,989167	0,1	0,191242
4,990833	0,1	0,210652
4,992500	0,1	0,172926
4,994167	0,1	0,163289
4,995833	0,1	0,201345
4,997500	0,1	0,200712
4,999167	0,1	0,197126
5,000833	0,1	0,157644
5,002500	0,1	0,205546
5,004167	0,1	0,196445
5,005833	0,1	0,169485
5,007500	0,1	0,138570
5,009167	0,1	0,176860
5,010833	0,1	0,179296
5,012500	0,1	0,206758
5,014167	0,1	0,216307
5,015833	0,1	0,210030
5,017500	0,1	0,180816
5,019167	0,1	0,199837
5,020833	0,1	0,191183
5,022500	0,1	0,169383
5,024167	0,1	0,199897
5,025833	0,1	0,149817
5,027500	0,1	0,169912
5,029167	0,1	0,186089
5,030833	0,1	0,190626
5,032500	0,1	0,164850
5,034167	0,1	0,185461
5,035833	0,1	0,181905
5,037500	0,1	0,180002
5,039167	0,1	0,159502
5,040833	0,1	0,179457
5,042500	0,1	0,189795
5,044167	0,1	0,168967
5,045833	0,1	0,166332
5,047500	0,1	0,181510
5,049167	0,1	0,193370
5,050833	0,1	0,182863
5,052500	0,1	0,184159
5,054167	0,1	0,189114
5,055833	0,1	0,160748
5,057500	0,1	0,174674
5,059167	0,1	0,177964
5,060833	0,1	0,190333
5,062500	0,1	0,176897
5,064167	0,1	0,169731
5,065833	0,1	0,156704
5,067500	0,1	0,174735
5,069167	0,1	0,153912
5,070833	0,1	0,184465
5,072500	0,1	0,178217
5,074167	0,1	0,182546
5,075833	0,1	0,202054
5,077500	0,1	0,200861
5,079167	0,1	0,183757
5,080833	0,1	0,188763
5,082500	0,1	0,188904
5,084167	0,1	0,189734
5,085833	0,1	0,185404
5,087500	0,1	0,164889
5,089167	0,1	0,187184
5,090833	0,1	0,191659
5,092500	0,1	0,209140
5,094167	0,1	0,180565
5,095833	0,1	0,163604
5,097500	0,1	0,190784
5,099167	0,1	0,187002
5,100833	0,1	0,194641
5,102500	0,1	0,179488
5,104167	0,1	0,191555
5,105833	0,1	0,199979
5,107500	0,1	0,138082
5,109167	0,1	0,202645
5,110833	0,1	0,196507
5,112500	0,1	0,171764
5,114167	0,1	0,182895
5,115833	0,1	0,215345
5,117500	0,1	0,197606
5,119167	0,1	0,173148
5,120833	0,1	0,144948
5,122500	0,1	0,201503
5,124167	0,1	0,191021
5,125833	0,1	0,156960
5,127500	0,1	0,183910
5,129167	0,1	0,177059
5,130833	0,1	0,192462
5,132500	0,1	0,170088
5,134167	0,1	0,188697
5,135833	0,1	0,177210
5,137500	0,1	0,166584
5,139167	0,1	0,150043
5,140833	0,1	0,176143
5,142500	0,1	0,195382
5,144167	0,1	0,182244
5,145833	0,1	0,178467
5,147500	0,1	0,153685
5,149167	0,1	0,204426
5,150833	0,1	0,202613
5,152500	0,1	0,169715
5,154167	0,1	0,164845
5,155833	0,1	0,150184
5,157500	0,1	0,194569
5,159167	0,1	0,192138
5,160833	0,1	0,156718
5,162500	0,1	0,175402
5,164167	0,1	0,134884
5,165833	0,1	0,176327
5,167500	0,1	0,168134
5,169167	0,1	0,161801
5,170833	0,1	0,180350
5,172500	0,1	0,192665
5,174167	0,1	0,147724
5,175833	0,1	0,132976
5,177500	0,1	0,152540
5,179167	0,1	0,171713
5,180833	0,1	0,134554
5,182500	0,1	0,211241
5,184167	0,1	0,123052
5,185833	0,1	0,143694
5,187500	0,1	0,137389
5,189167	0,1	0,158005
5,190833	0,1	0,141423
5,192500	0,1	0,209935
5,194167	0,1	0,188493
5,195833	0,1	0,175613
5,197500	0,1	0,138281
5,199167	0,1	0,189557
5,200833	0,1	0,155513
5,202500	0,1	0,172997
5,204167	0,1	0,126627
5,205833	0,1	0,159662
5,207500	0,1	0,128320
5,209167	0,1	0,102517
5,210833	0,1	0,157847
5,212500	0,1	0,133558
5,214167	0,1	0,149268
5,215833	0,1	0,134282
5,217500	0,1	0,178268
5,219167	0,1	0,115097
5,220833	0,1	0,153632
5,222500	0,1	0,140780
5,224167	0,1	0,103515
5,225833	0,1	0,119800
5,227500	0,1	0,124109
5,229167	0,1	0,122803
5,230833	0,1	0,144335
5,232500	0,1	0,151213
5,234167	0,1	0,125213
5,235833	0,1	0,154026
5,237500	0,1	0,151300
5,239167	0,1	0,107799
5,240833	0,1	0,136301
5,242500	0,1	0,130986
5,244167	0,1	0,114360
5,245833	0,1	0,126113
5,247500	0,1	0,142394
5,249167	0,1	0,109000
5,250833	0,1	0,106467
5,252500	0,1	0,149983
5,254167	0,1	0,111382
5,255833	0,1	0,106904
5,257500	0,1	0,125140
5,259167	0,1	0,127319
5,260833	0,1	0,149368
5,262500	0,1	0,105050
5,264167	0,1	0,100877
5,265833	0,1	0,166707
5,267500	0,1	0,130639
5,269167	0,1	0,105459
5,270833	0,1	0,114518
5,272500	0,1	0,103610
5,274167	0,1	0,124497
5,275833	0,1	0,095168
5,277500	0,1	0,127618
5,279167	0,1	0,073183
5,280833	0,1	0,083313
5,282500	0,1	0,077809
5,284167	0,1	0,125525
5,285833	0,1	0,125762
5,287500	0,1	0,102641
5,289167	0,1	0,082596
5,290833	0,1	0,103314
5,292500	0,1	0,099219
5,294167	0,1	0,100047
5,295833	0,1	0,132219
5,297500	0,1	0,075129
5,299167	0,1	0,072093
5,300833	0,1	0,067725
5,302500	0,1	0,031626
5,304167	0,1	0,075684
5,305833	0,1	0,107345
5,307500	0,1	0,091932
5,309167	0,1	0,090936
5,310833	0,1	0,078577
5,312500	0,1	0,085508
5,314167	0,1	0,096318
5,315833	0,1	0,059431
5,317500	0,1	0,108754
5,319167	0,1	0,067092
5,320833	0,1	0,097947
5,322500	0,1	0,050199
5,324167	0,1	0,114671
5,325833	0,1	0,102555
5,327500	0,1	0,065745
5,329167	0,1	0,087266
5,330833	0,1	0,090769
5,332500	0,1	0,050695
5,334167	0,1	0,110901
5,335833	0,1	0,056268
5,337500	0,1	0,048431
5,339167	0,1	0,024129
5,340833	0,1	0,066017
5,342500	0,1	0,086520
5,344167	0,1	0,053405
5,345833	0,1	0,081301
5,347500	0,1	0,095675
5,349167	0,1	0,050654
5,350833	0,1	0,086559
5,352500	0,1	0,061809
5,354167	0,1	0,068862
5,355833	0,1	0,097555
5,357500	0,1	0,076053
5,359167	0,1	0,044501
5,360833	0,1	0,078981
5,362500	0,1	0,050113
5,364167	0,1	0,064036
5,365833	0,1	0,063915
5,367500	0,1	0,082462
5,369167	0,1	0,055411
5,370833	0,1	0,081279
5,372500	0,1	0,069819
5,374167	0,1	0,035228
5,375833	0,1	0,051426
5,377500	0,1	0,055136
5,379167	0,1	0,027358
5,380833	0,1	0,038612
5,382500	0,1	0,068961
5,384167	0,1	0,057788
5,385833	0,1	0,040585
5,387500	0,1	0,042797
5,389167	0,1	0,028452
5,390833	0,1	0,031139
5,392500	0,1	0,061341
5,394167	0,1	0,040316
5,395833	0,1	0,039650
5,397500	0,1	0,039526
5,399167	0,1	0,086844
5,400833	0,1	0,058787
5,402500	0,1	0,023924
5,404167	0,1	0,029213
5,405833	0,1	0,007690
5,407500	0,1	0,017889
5,409167	0,1	0,029295
5,410833	0,1	0,027705
5,412500	0,1	0,052831
5,414167	0,1	0,021644
5,415833	0,1	0,022982
5,417500	0,1	0,067238
5,419167	0,1	0,054062
5,420833	0,1	0,035265
5,422500	0,1	0,026382
5,424167	0,1	0,037762
5,425833	0,1	0,009347
5,427500	0,1	0,036041
5,429167	0,1	0,048757
5,430833	0,1	0,035325
5,432500	0,1	0,044596
5,434167	0,1	0,049793
5,435833	0,1	0,000678
5,437500	0,1	0,042703
5,439167	0,1	0,014212
5,440833	0,1	0,011660
5,442500	0,1	0,011182
5,444167	0,1	0,005057
5,445833	0,1	0,035916
5,447500	0,1	0,009967
5,449167	0,1	0,027037
5,450833	0,1	0,043848
5,452500	0,1	0,028762
5,454167	0,1	0,012988
5,455833	0,1	0,027162
5,457500	0,1	0,005142
5,459167	0,1	0,022814
5,460833	0,1	-0,001170
5,462500	0,1	0,022834
5,464167	0,1	0,033809
5,465833	0,1	-0,001995
5,467500	0,1	0,040508
5,469167	0,1	-0,019131
5,470833	0,1	0,012025
5,472500	0,1	0,025527
5,474167	0,1	0,011580
5,475833	0,1	0,016006
5,477500	0,1	0,021140
5,479167	0,1	0,020747
5,480833	0,1	0,012716
5,482500	0,1	-0,001938
5,484167	0,1	-0,002418
5,485833	0,1	0,031692
5,487500	0,1	0,048796
5,489167	0,1	-0,019894
5,490833	0,1	0,003329
5,492500	0,1	0,000273
5,494167	0,1	-0,011627
5,495833	0,1	-0,006456
5,497500	0,1	0,021754
5,499167	0,1	0,027972
5,500833	0,1	-0,006779
5,502500	0,1	-0,008194
5,504167	0,1	0,041335
5,505833	0,1	0,012122
5,507500	0,1	0,011554
5,509167	0,1	-0,022366
5,510833	0,1	0,031065
5,512500	0,1	0,017665
5,514167	0,1	-0,005312
5,515833	0,1	-0,003579
5,517500	0,1	0,034857
5,519167	0,1	0,007939
5,520833	0,1	0,003711
5,522500	0,1	-0,006846
5,524167	0,1	-0,001177
5,525833	0,1	-0,013325
5,527500	0,1	-0,022660
5,529167	0,1	-0,005796
5,530833	0,1	-0,000536
5,532500	0,1	-0,016656
5,534167	0,1	-0,029639
5,535833	0,1	0,004323
5,537500	0,1	0,003813
5,539167	0,1	0,064189
5,540833	0,1	-0,009439
5,542500	0,1	0,035643
5,544167	0,1	0,010423
5,545833	0,1	0,014496
5,547500	0,1	-0,013468
5,549167	0,1	0,001264
5,550833	0,1	0,017763
5,552500	0,1	0,005286
5,554167	0,1	-0,024975
5,555833	0,1	0,016536
5,557500	0,1	0,016586
5,559167	0,1	0,012529
5,560833	0,1	0,001084
5,562500	0,1	-0,015144
5,564167	0,1	-0,028146
5,565833	0,1	-0,009709
5,567500	0,1	-0,016182
5,569167	0,1	-0,020780
5,570833	0,1	-0,023928
5,572500	0,1	-0,021547
5,574167	0,1	0,005338
5,575833	0,1	-0,036049
5,577500	0,1	-0,010870
5,579167	0,1	0,006150
5,580833	0,1	0,001163
5,582500	0,1	-0,026156
5,584167	0,1	-0,006606
5,585833	0,1	-0,018253
5,587500	0,1	-0,007369
5,589167	0,1	-0,011296
5,590833	0,1	-0,016265
5,592500	0,1	-0,003166
5,594167	0,1	0,011573
5,595833	0,1	-0,008107
5,597500	0,1	0,026722
5,599167	0,1	0,014685
5,600833	0,1	-0,009142
5,602500	0,1	-0,012271
5,604167	0,1	0,024300
5,605833	0,1	0,016071
5,607500	0,1	0,002781
5,609167	0,1	-0,015829
5,610833	0,1	-0,042944
5,612500	0,1	0,034559
5,614167	0,1	-0,011330
5,615833	0,1	-0,013660
5,617500	0,1	-0,028479
5,619167	0,1	-0,004638
5,620833	0,1	0,018091
5,622500	0,1	0,010564
5,624167	0,1	0,005575
5,625833	0,1	0,016605
5,627500	0,1	0,041901
5,629167	0,1	0,012454
5,630833	0,1	0,000899
5,632500	0,1	-0,015149
5,634167	0,1	0,009437
5,635833	0,1	-0,013531
5,637500	0,1	0,013433
5,639167	0,1	-0,000925
5,640833	0,1	-0,034353
5,642500	0,1	0,022866
5,644167	0,1	-0,011127
5,645833	0,1	0,008796
5,647500	0,1	0,010066
5,649167	0,1	0,011700
5,650833	0,1	0,021740
5,652500	0,1	-0,013546
5,654167	0,1	-0,006479
5,655833	0,1	-0,034769
5,657500	0,1	-0,020081
5,659167	0,1	0,013205
5,660833	0,1	-0,004092
5,662500	0,1	-0,008049
5,664167	0,1	-0,004035
5,665833	0,1	0,042433
5,667500	0,1	-0,008409
5,669167	0,1	0,007266
5,670833	0,1	0,036496
5,672500	0,1	0,008519
5,674167	0,1	0,001061
5,675833	0,1	0,051355
5,677500	0,1	-0,014743
5,679167	0,1	0,056982
5,680833	0,1	0,021171
5,682500	0,1	0,004583
5,684167	0,1	0,016769
5,685833	0,1	0,058771
5,687500	0,1	0,016721
5,689167	0,1	-0,043375
5,690833	0,1	0,026072
5,692500	0,1	0,036956
5,694167	0,1	0,017853
5,695833	0,1	0,021056
5,697500	0,1	0,022755
5,699167	0,1	0,043081
5,700833	0,1	0,064801
5,702500	0,1	0,014010
5,704167	0,1	0,052477
5,705833	0,1	0,046545
5,707500	0,1	0,020527
5,709167	0,1	-0,003055
5,710833	0,1	0,052163
5,712500	0,1	-0,005574
5,714167	0,1	0,023949
5,715833	0,1	0,042855
5,717500	0,1	0,029447
5,719167	0,1	0,017479
5,720833	0,1	0,065374
5,722500	0,1	0,012726
5,724167	0,1	0,063612
5,725833	0,1	0,019619
5,727500	0,1	0,050511
5,729167	0,1	0,035264
5,730833	0,1	0,061528
5,732500	0,1	0,039987
5,734167	0,1	0,026486
5,735833	0,1	0,004521
5,737500	0,1	0,050095
5,739167	0,1	0,048925
5,740833	0,1	0,034830
5,742500	0,1	0,056870
5,744167	0,1	0,039032
5,745833	0,1	0,015495
5,747500	0,1	0,022091
5,749167	0,1	0,050679
5,750833	0,1	0,042508
5,752500	0,1	0,057265
5,754167	0,1	0,030774
5,755833	0,1	0,025076
5,757500	0,1	0,005845
5,759167	0,1	0,034053
5,760833	0,1	0,099140
5,762500	0,1	0,081187
5,764167	0,1	0,040488
5,765833	0,1	0,018889
5,767500	0,1	0,050718
5,769167	0,1	0,087406
5,770833	0,1	0,040530
5,772500	0,1	0,036111
5,774167	0,1	0,063784
5,775833	0,1	0,058367
5,777500	0,1	0,096475
5,779167	0,1	0,072161
5,780833	0,1	0,074205
5,782500	0,1	0,041335
5,784167	0,1	0,027354
5,785833	0,1	0,093114
5,787500	0,1	0,050696
5,789167	0,1	0,072254
5,790833	0,1	0,082298
5,792500	0,1	0,068638
5,794167	0,1	0,024856
5,795833	0,1	0,082908
5,797500	0,1	0,039081
5,799167	0,1	0,089224
5,800833	0,1	0,068289
5,802500	0,1	0,025560
5,804167	0,1	0,035506
5,805833	0,1	0,041407
5,807500	0,1	0,073244
5,809167	0,1	0,075344
5,810833	0,1	0,004122
5,812500	0,1	0,039704
5,814167	0,1	0,091231
5,815833	0,1	0,018157
5,817500	0,1	0,076097
5,819167	0,1	0,059529
5,820833	0,1	0,041848
5,822500	0,1	0,077572
5,824167	0,1	0,062491
5,825833	0,1	0,041829
5,827500	0,1	0,053457
5,829167	0,1	0,042571
5,830833	0,1	0,050435
5,832500	0,1	0,014235
5,834167	0,1	0,066366
5,835833	0,1	0,064433
5,837500	0,1	0,071511
5,839167	0,1	0,040113
5,840833	0,1	0,070264
5,842500	0,1	0,015170
5,844167	0,1	0,019939
5,845833	0,1	0,064193
5,847500	0,1	0,038063
5,849167	0,1	0,067799
5,850833	0,1	0,050274
5,852500	0,1	0,066499
5,854167	0,1	0,044685
5,855833	0,1	0,057949
5,857500	0,1	0,060352
5,859167	0,1	0,036798
5,860833	0,1	0,086532
5,862500	0,1	0,023785
5,864167	0,1	0,051361
5,865833	0,1	0,052464
5,867500	0,1	0,053522
5,869167	0,1	0,041330
5,870833	0,1	0,078027
5,872500	0,1	0,057087
5,874167	0,1	0,054475
5,875833	0,1	0,041579
5,877500	0,1	0,036793
5,879167	0,1	0,038655
5,880833	0,1	0,056520
5,882500	0,1	0,033340
5,884167	0,1	0,038573
5,885833	0,1	0,047536
5,887500	0,1	0,066704
5,889167	0,1	0,046300
5,890833	0,1	0,013075
5,892500	0,1	0,026563
5,894167	0,1	0,030041
5,895833	0,1	0,043105
5,897500	0,1	0,013425
5,899167	0,1	0,037180
5,900833	0,1	0,068070
5,902500	0,1	0,032618
5,904167	0,1	0,033750
5,905833	0,1	0,050659
5,907500	0,1	0,016263
5,909167	0,1	0,036561
5,910833	0,1	0,005476
5,912500	0,1	0,024615
5,914167	0,1	0,024080
5,915833	0,1	0,055211
5,917500	0,1	0,018418
5,919167	0,1	0,019069
5,920833	0,1	-0,011870
5,922500	0,1	0,029018
5,924167	0,1	0,020687
5,925833	0,1	0,057715
5,927500	0,1	-0,001453
5,929167	0,1	0,077955
5,930833	0,1	0,008632
5,932500	0,1	0,038111
5,934167	0,1	0,042734
5,935833	0,1	0,037704
5,937500	0,1	0,041451
5,939167	0,1	0,016552
5,940833	0,1	0,033746
5,942500	0,1	-0,005535
5,944167	0,1	0,024405
5,945833	0,1	0,027102
5,947500	0,1	0,040227
5,949167	0,1	0,009949
5,950833	0,1	0,012694
5,952500	0,1	-0,012474
5,954167	0,1	0,050586
5,955833	0,1	0,011130
5,957500	0,1	0,006009
5,959167	0,1	0,038772
5,960833	0,1	0,040230
5,962500	0,1	0,029921
5,964167	0,1	0,043786
5,965833	0,1	0,002393
5,967500	0,1	0,040261
5,969167	0,1	0,039753
5,970833	0,1	0,034000
5,972500	0,1	0,009635
5,974167	0,1	0,002800
5,975833	0,1	-0,025329
5,977500	0,1	0,016660
5,979167	0,1	0,038610
5,980833	0,1	0,021166
5,982500	0,1	0,000300
5,984167	0,1	0,029954
5,985833	0,1	-0,022941
5,987500	0,1	-0,009460
5,989167	0,1	0,003540
5,990833	0,1	0,029707
5,992500	0,1	0,039502
5,994167	0,1	0,017441
5,995833	0,1	-0,029569
5,997500	0,1	0,017756
5,999167	0,1	0,016255
6,000833	0,1	0,001789
