File Path	chrom://chromeleon01/ikbm_chromeleon/2022/Rezex/Esteban/220612_chitin_4_7.seq/407.smp/UV_VIS_1.channel/UV_VIS_1.chm
Channel	UV_VIS_1

Injection Information:
Data Vault	ikbm_chromeleon
Injection	4_00h-EGS_3
Injection Number	116
Position	BC2
Comment	
Processing Method	New ProcMethod
Instrument Method	Short_Rezex_6min_194nm
Type	Unknown
Status	Finished
Injection Date	13.06.2022
Injection Time	05:38:48
Injection Volume (µl)	8,000
Dilution Factor	1,0000
Weight	1,0000

Chromatogram Data Information:
Time Min. (min)	0,000833
Time Max. (min)	6,000833
Data Points	3601
Detector	UV
Generating Data System	Chromeleon 7.2.9.11323
Exporting Data System	Chromeleon 7.2.9.0
Operator	Instrument Controller
Signal Quantity	Absorbance
Signal Unit	mAU
Signal Min.	-0,139475
Signal Max.	99,581003
Channel	UV_VIS_1
Driver Name	VWD3000.dll
Channel Type	Evaluation
Min. Step (s)	0,1
Max. Step (s)	0,1
Average Step (s)	0,1

Signal Parameter Information:
Signal Info	WVL:194 nm

Chromatogram Data:
Time (min)	Step (s)	Value (mAU)
0,000833	n.a.	-0,042612
0,002500	0,1	-0,079619
0,004167	0,1	-0,064705
0,005833	0,1	-0,045993
0,007500	0,1	-0,075393
0,009167	0,1	-0,089846
0,010833	0,1	-0,055931
0,012500	0,1	-0,062178
0,014167	0,1	-0,042407
0,015833	0,1	-0,065066
0,017500	0,1	-0,046010
0,019167	0,1	-0,068398
0,020833	0,1	-0,049967
0,022500	0,1	-0,076122
0,024167	0,1	-0,035810
0,025833	0,1	-0,058299
0,027500	0,1	-0,057001
0,029167	0,1	-0,059834
0,030833	0,1	-0,037874
0,032500	0,1	-0,093855
0,034167	0,1	-0,076107
0,035833	0,1	-0,085479
0,037500	0,1	-0,099121
0,039167	0,1	-0,095398
0,040833	0,1	-0,110870
0,042500	0,1	-0,073257
0,044167	0,1	-0,103352
0,045833	0,1	-0,092419
0,047500	0,1	-0,102576
0,049167	0,1	-0,139475
0,050833	0,1	-0,030260
0,052500	0,1	-0,047848
0,054167	0,1	-0,049172
0,055833	0,1	-0,038308
0,057500	0,1	-0,065065
0,059167	0,1	-0,043341
0,060833	0,1	-0,044537
0,062500	0,1	-0,028784
0,064167	0,1	-0,073341
0,065833	0,1	-0,069749
0,067500	0,1	-0,053525
0,069167	0,1	-0,050580
0,070833	0,1	-0,062009
0,072500	0,1	-0,034297
0,074167	0,1	-0,098775
0,075833	0,1	-0,059659
0,077500	0,1	-0,066978
0,079167	0,1	-0,032497
0,080833	0,1	-0,029552
0,082500	0,1	-0,068747
0,084167	0,1	-0,016623
0,085833	0,1	-0,053372
0,087500	0,1	-0,049215
0,089167	0,1	-0,022910
0,090833	0,1	-0,029117
0,092500	0,1	-0,032097
0,094167	0,1	-0,001777
0,095833	0,1	-0,037014
0,097500	0,1	-0,003681
0,099167	0,1	-0,059389
0,100833	0,1	-0,080651
0,102500	0,1	-0,058598
0,104167	0,1	-0,068401
0,105833	0,1	-0,021258
0,107500	0,1	-0,058813
0,109167	0,1	-0,061697
0,110833	0,1	-0,055714
0,112500	0,1	-0,043153
0,114167	0,1	-0,092282
0,115833	0,1	-0,092163
0,117500	0,1	-0,093119
0,119167	0,1	-0,071969
0,120833	0,1	-0,082455
0,122500	0,1	-0,077371
0,124167	0,1	-0,050487
0,125833	0,1	-0,076783
0,127500	0,1	-0,037982
0,129167	0,1	-0,061339
0,130833	0,1	-0,048410
0,132500	0,1	-0,043337
0,134167	0,1	-0,058671
0,135833	0,1	-0,059957
0,137500	0,1	-0,067076
0,139167	0,1	-0,023453
0,140833	0,1	-0,051589
0,142500	0,1	-0,061281
0,144167	0,1	-0,098043
0,145833	0,1	-0,026916
0,147500	0,1	-0,051178
0,149167	0,1	-0,051246
0,150833	0,1	-0,024423
0,152500	0,1	-0,057795
0,154167	0,1	-0,030302
0,155833	0,1	-0,024560
0,157500	0,1	-0,034806
0,159167	0,1	-0,041907
0,160833	0,1	-0,035661
0,162500	0,1	-0,030132
0,164167	0,1	-0,025122
0,165833	0,1	-0,045318
0,167500	0,1	-0,019351
0,169167	0,1	-0,017544
0,170833	0,1	-0,039171
0,172500	0,1	-0,010924
0,174167	0,1	0,005329
0,175833	0,1	-0,021449
0,177500	0,1	-0,069675
0,179167	0,1	-0,040923
0,180833	0,1	-0,008028
0,182500	0,1	-0,037471
0,184167	0,1	-0,008690
0,185833	0,1	-0,026956
0,187500	0,1	-0,035095
0,189167	0,1	-0,044597
0,190833	0,1	-0,059996
0,192500	0,1	-0,052963
0,194167	0,1	-0,047335
0,195833	0,1	-0,007989
0,197500	0,1	-0,016732
0,199167	0,1	-0,014312
0,200833	0,1	-0,035610
0,202500	0,1	-0,045900
0,204167	0,1	-0,024193
0,205833	0,1	-0,048961
0,207500	0,1	-0,016183
0,209167	0,1	-0,047302
0,210833	0,1	-0,010511
0,212500	0,1	-0,036930
0,214167	0,1	-0,047726
0,215833	0,1	-0,044329
0,217500	0,1	-0,027297
0,219167	0,1	-0,042732
0,220833	0,1	-0,022576
0,222500	0,1	-0,015744
0,224167	0,1	-0,059286
0,225833	0,1	-0,041748
0,227500	0,1	-0,042262
0,229167	0,1	-0,037500
0,230833	0,1	-0,059459
0,232500	0,1	-0,041995
0,234167	0,1	-0,064091
0,235833	0,1	-0,060432
0,237500	0,1	-0,047478
0,239167	0,1	-0,034231
0,240833	0,1	-0,032612
0,242500	0,1	-0,042901
0,244167	0,1	-0,052712
0,245833	0,1	-0,028188
0,247500	0,1	-0,073130
0,249167	0,1	-0,040715
0,250833	0,1	-0,071341
0,252500	0,1	-0,038581
0,254167	0,1	-0,047139
0,255833	0,1	-0,041350
0,257500	0,1	-0,044100
0,259167	0,1	-0,032824
0,260833	0,1	-0,013468
0,262500	0,1	-0,048873
0,264167	0,1	-0,038703
0,265833	0,1	-0,059871
0,267500	0,1	-0,002735
0,269167	0,1	-0,038712
0,270833	0,1	-0,032137
0,272500	0,1	-0,037083
0,274167	0,1	-0,050618
0,275833	0,1	-0,039838
0,277500	0,1	-0,040378
0,279167	0,1	-0,032096
0,280833	0,1	-0,023548
0,282500	0,1	0,006609
0,284167	0,1	-0,037012
0,285833	0,1	-0,039818
0,287500	0,1	-0,044309
0,289167	0,1	-0,010763
0,290833	0,1	-0,010608
0,292500	0,1	-0,036559
0,294167	0,1	-0,002853
0,295833	0,1	-0,040036
0,297500	0,1	-0,051408
0,299167	0,1	0,033530
0,300833	0,1	-0,046110
0,302500	0,1	0,027343
0,304167	0,1	-0,032869
0,305833	0,1	-0,021044
0,307500	0,1	-0,044199
0,309167	0,1	-0,031874
0,310833	0,1	-0,017070
0,312500	0,1	-0,047553
0,314167	0,1	0,012543
0,315833	0,1	-0,031174
0,317500	0,1	0,008037
0,319167	0,1	-0,010374
0,320833	0,1	0,001356
0,322500	0,1	-0,015385
0,324167	0,1	-0,007278
0,325833	0,1	-0,031865
0,327500	0,1	-0,039131
0,329167	0,1	-0,021687
0,330833	0,1	0,016628
0,332500	0,1	-0,010890
0,334167	0,1	-0,001273
0,335833	0,1	-0,026336
0,337500	0,1	-0,004940
0,339167	0,1	-0,018471
0,340833	0,1	-0,049725
0,342500	0,1	0,000581
0,344167	0,1	0,031803
0,345833	0,1	-0,003002
0,347500	0,1	-0,044153
0,349167	0,1	-0,017241
0,350833	0,1	-0,018783
0,352500	0,1	-0,030522
0,354167	0,1	-0,042321
0,355833	0,1	-0,019059
0,357500	0,1	-0,016593
0,359167	0,1	-0,009345
0,360833	0,1	-0,004689
0,362500	0,1	-0,007749
0,364167	0,1	-0,012741
0,365833	0,1	-0,017024
0,367500	0,1	0,013545
0,369167	0,1	-0,043487
0,370833	0,1	-0,053810
0,372500	0,1	-0,025231
0,374167	0,1	-0,023405
0,375833	0,1	-0,013984
0,377500	0,1	0,017023
0,379167	0,1	-0,039452
0,380833	0,1	0,037280
0,382500	0,1	0,001222
0,384167	0,1	0,014956
0,385833	0,1	0,033526
0,387500	0,1	-0,005359
0,389167	0,1	-0,013258
0,390833	0,1	0,034016
0,392500	0,1	0,015482
0,394167	0,1	0,011027
0,395833	0,1	-0,024241
0,397500	0,1	0,001703
0,399167	0,1	-0,004831
0,400833	0,1	0,010876
0,402500	0,1	-0,007374
0,404167	0,1	-0,030908
0,405833	0,1	-0,017755
0,407500	0,1	0,018262
0,409167	0,1	-0,030593
0,410833	0,1	-0,021790
0,412500	0,1	-0,005333
0,414167	0,1	0,047120
0,415833	0,1	0,028318
0,417500	0,1	0,001117
0,419167	0,1	0,005850
0,420833	0,1	-0,008017
0,422500	0,1	-0,002887
0,424167	0,1	0,014872
0,425833	0,1	0,025350
0,427500	0,1	0,034874
0,429167	0,1	0,002070
0,430833	0,1	0,011129
0,432500	0,1	0,002582
0,434167	0,1	0,041906
0,435833	0,1	0,007970
0,437500	0,1	-0,035439
0,439167	0,1	0,007310
0,440833	0,1	-0,011763
0,442500	0,1	-0,031595
0,444167	0,1	0,021365
0,445833	0,1	0,014010
0,447500	0,1	0,010942
0,449167	0,1	-0,028547
0,450833	0,1	0,001351
0,452500	0,1	0,027665
0,454167	0,1	0,022185
0,455833	0,1	0,021523
0,457500	0,1	0,004342
0,459167	0,1	0,029362
0,460833	0,1	0,005379
0,462500	0,1	0,038594
0,464167	0,1	0,042246
0,465833	0,1	0,042349
0,467500	0,1	0,029040
0,469167	0,1	0,009272
0,470833	0,1	0,039712
0,472500	0,1	-0,007367
0,474167	0,1	-0,007564
0,475833	0,1	-0,015843
0,477500	0,1	-0,001503
0,479167	0,1	0,007089
0,480833	0,1	0,010135
0,482500	0,1	-0,052452
0,484167	0,1	0,006435
0,485833	0,1	0,018724
0,487500	0,1	0,044455
0,489167	0,1	0,007267
0,490833	0,1	0,020503
0,492500	0,1	0,001031
0,494167	0,1	0,033833
0,495833	0,1	0,029350
0,497500	0,1	0,047625
0,499167	0,1	0,022274
0,500833	0,1	0,031086
0,502500	0,1	0,005234
0,504167	0,1	0,014130
0,505833	0,1	0,045861
0,507500	0,1	0,066838
0,509167	0,1	0,021348
0,510833	0,1	0,022246
0,512500	0,1	0,019267
0,514167	0,1	0,055468
0,515833	0,1	0,054088
0,517500	0,1	0,036122
0,519167	0,1	0,010824
0,520833	0,1	0,032572
0,522500	0,1	0,027549
0,524167	0,1	0,051639
0,525833	0,1	0,018301
0,527500	0,1	-0,011036
0,529167	0,1	0,030663
0,530833	0,1	0,049302
0,532500	0,1	0,037652
0,534167	0,1	0,021506
0,535833	0,1	0,023777
0,537500	0,1	0,025622
0,539167	0,1	0,047893
0,540833	0,1	0,108219
0,542500	0,1	0,061346
0,544167	0,1	0,036310
0,545833	0,1	0,043653
0,547500	0,1	0,066670
0,549167	0,1	0,010914
0,550833	0,1	0,037664
0,552500	0,1	0,024714
0,554167	0,1	0,027380
0,555833	0,1	0,030424
0,557500	0,1	0,075713
0,559167	0,1	0,038114
0,560833	0,1	0,060625
0,562500	0,1	0,026415
0,564167	0,1	0,041807
0,565833	0,1	0,064250
0,567500	0,1	0,077171
0,569167	0,1	0,046456
0,570833	0,1	0,066589
0,572500	0,1	0,081684
0,574167	0,1	0,047223
0,575833	0,1	0,040696
0,577500	0,1	0,040403
0,579167	0,1	0,060171
0,580833	0,1	0,064834
0,582500	0,1	0,078622
0,584167	0,1	0,038985
0,585833	0,1	0,077290
0,587500	0,1	0,060055
0,589167	0,1	0,064337
0,590833	0,1	0,052538
0,592500	0,1	0,075492
0,594167	0,1	0,082203
0,595833	0,1	0,040868
0,597500	0,1	0,056943
0,599167	0,1	0,066945
0,600833	0,1	0,043474
0,602500	0,1	0,096563
0,604167	0,1	0,095128
0,605833	0,1	0,047475
0,607500	0,1	0,050072
0,609167	0,1	0,030430
0,610833	0,1	0,053980
0,612500	0,1	0,092964
0,614167	0,1	0,026962
0,615833	0,1	0,065881
0,617500	0,1	0,104207
0,619167	0,1	0,082067
0,620833	0,1	0,097606
0,622500	0,1	0,080369
0,624167	0,1	0,084379
0,625833	0,1	0,107937
0,627500	0,1	0,073146
0,629167	0,1	0,082059
0,630833	0,1	0,071420
0,632500	0,1	0,062994
0,634167	0,1	0,133149
0,635833	0,1	0,105093
0,637500	0,1	0,076933
0,639167	0,1	0,100546
0,640833	0,1	0,083287
0,642500	0,1	0,093779
0,644167	0,1	0,114960
0,645833	0,1	0,144754
0,647500	0,1	0,109485
0,649167	0,1	0,105400
0,650833	0,1	0,073498
0,652500	0,1	0,116465
0,654167	0,1	0,136145
0,655833	0,1	0,076112
0,657500	0,1	0,088706
0,659167	0,1	0,143652
0,660833	0,1	0,135485
0,662500	0,1	0,098926
0,664167	0,1	0,134753
0,665833	0,1	0,093501
0,667500	0,1	0,108768
0,669167	0,1	0,117240
0,670833	0,1	0,119934
0,672500	0,1	0,155917
0,674167	0,1	0,116547
0,675833	0,1	0,134344
0,677500	0,1	0,135608
0,679167	0,1	0,095302
0,680833	0,1	0,144271
0,682500	0,1	0,134163
0,684167	0,1	0,151653
0,685833	0,1	0,150852
0,687500	0,1	0,147518
0,689167	0,1	0,148118
0,690833	0,1	0,166067
0,692500	0,1	0,165327
0,694167	0,1	0,147418
0,695833	0,1	0,173456
0,697500	0,1	0,108458
0,699167	0,1	0,148650
0,700833	0,1	0,206919
0,702500	0,1	0,132416
0,704167	0,1	0,168731
0,705833	0,1	0,197875
0,707500	0,1	0,184051
0,709167	0,1	0,195109
0,710833	0,1	0,159003
0,712500	0,1	0,203649
0,714167	0,1	0,179294
0,715833	0,1	0,185847
0,717500	0,1	0,152542
0,719167	0,1	0,172800
0,720833	0,1	0,225001
0,722500	0,1	0,216278
0,724167	0,1	0,228347
0,725833	0,1	0,223490
0,727500	0,1	0,241502
0,729167	0,1	0,250947
0,730833	0,1	0,239556
0,732500	0,1	0,265334
0,734167	0,1	0,249630
0,735833	0,1	0,231009
0,737500	0,1	0,239779
0,739167	0,1	0,221957
0,740833	0,1	0,229719
0,742500	0,1	0,239992
0,744167	0,1	0,224375
0,745833	0,1	0,240546
0,747500	0,1	0,211498
0,749167	0,1	0,229617
0,750833	0,1	0,234958
0,752500	0,1	0,217198
0,754167	0,1	0,211065
0,755833	0,1	0,219157
0,757500	0,1	0,225678
0,759167	0,1	0,246260
0,760833	0,1	0,221065
0,762500	0,1	0,233633
0,764167	0,1	0,191623
0,765833	0,1	0,252408
0,767500	0,1	0,262593
0,769167	0,1	0,269696
0,770833	0,1	0,214450
0,772500	0,1	0,225451
0,774167	0,1	0,229909
0,775833	0,1	0,227066
0,777500	0,1	0,213043
0,779167	0,1	0,201220
0,780833	0,1	0,215756
0,782500	0,1	0,231229
0,784167	0,1	0,215724
0,785833	0,1	0,210800
0,787500	0,1	0,282938
0,789167	0,1	0,227658
0,790833	0,1	0,208348
0,792500	0,1	0,226116
0,794167	0,1	0,224396
0,795833	0,1	0,219058
0,797500	0,1	0,207062
0,799167	0,1	0,233894
0,800833	0,1	0,237716
0,802500	0,1	0,230365
0,804167	0,1	0,229922
0,805833	0,1	0,261732
0,807500	0,1	0,197381
0,809167	0,1	0,215590
0,810833	0,1	0,238126
0,812500	0,1	0,218396
0,814167	0,1	0,218454
0,815833	0,1	0,182068
0,817500	0,1	0,202271
0,819167	0,1	0,237682
0,820833	0,1	0,225457
0,822500	0,1	0,196214
0,824167	0,1	0,206352
0,825833	0,1	0,192937
0,827500	0,1	0,219027
0,829167	0,1	0,225879
0,830833	0,1	0,223654
0,832500	0,1	0,233547
0,834167	0,1	0,225807
0,835833	0,1	0,229180
0,837500	0,1	0,263721
0,839167	0,1	0,220844
0,840833	0,1	0,239135
0,842500	0,1	0,209320
0,844167	0,1	0,215014
0,845833	0,1	0,222153
0,847500	0,1	0,232842
0,849167	0,1	0,222220
0,850833	0,1	0,238580
0,852500	0,1	0,242022
0,854167	0,1	0,225269
0,855833	0,1	0,199261
0,857500	0,1	0,230319
0,859167	0,1	0,243982
0,860833	0,1	0,206654
0,862500	0,1	0,190481
0,864167	0,1	0,226892
0,865833	0,1	0,259893
0,867500	0,1	0,241259
0,869167	0,1	0,192455
0,870833	0,1	0,236647
0,872500	0,1	0,270732
0,874167	0,1	0,228900
0,875833	0,1	0,224069
0,877500	0,1	0,244850
0,879167	0,1	0,224301
0,880833	0,1	0,252920
0,882500	0,1	0,266999
0,884167	0,1	0,252868
0,885833	0,1	0,236311
0,887500	0,1	0,250871
0,889167	0,1	0,296848
0,890833	0,1	0,232305
0,892500	0,1	0,243304
0,894167	0,1	0,216332
0,895833	0,1	0,318388
0,897500	0,1	0,264310
0,899167	0,1	0,279716
0,900833	0,1	0,239074
0,902500	0,1	0,245319
0,904167	0,1	0,238550
0,905833	0,1	0,269301
0,907500	0,1	0,226623
0,909167	0,1	0,260057
0,910833	0,1	0,278330
0,912500	0,1	0,250086
0,914167	0,1	0,297174
0,915833	0,1	0,277633
0,917500	0,1	0,270594
0,919167	0,1	0,284148
0,920833	0,1	0,267322
0,922500	0,1	0,286968
0,924167	0,1	0,272937
0,925833	0,1	0,313066
0,927500	0,1	0,307914
0,929167	0,1	0,275068
0,930833	0,1	0,270593
0,932500	0,1	0,311692
0,934167	0,1	0,311737
0,935833	0,1	0,288842
0,937500	0,1	0,322612
0,939167	0,1	0,297128
0,940833	0,1	0,320452
0,942500	0,1	0,282161
0,944167	0,1	0,293392
0,945833	0,1	0,306236
0,947500	0,1	0,302965
0,949167	0,1	0,311311
0,950833	0,1	0,281941
0,952500	0,1	0,325685
0,954167	0,1	0,339278
0,955833	0,1	0,306111
0,957500	0,1	0,272173
0,959167	0,1	0,354295
0,960833	0,1	0,320791
0,962500	0,1	0,333273
0,964167	0,1	0,332380
0,965833	0,1	0,307909
0,967500	0,1	0,312144
0,969167	0,1	0,341137
0,970833	0,1	0,326566
0,972500	0,1	0,307364
0,974167	0,1	0,307486
0,975833	0,1	0,330149
0,977500	0,1	0,378322
0,979167	0,1	0,336045
0,980833	0,1	0,338096
0,982500	0,1	0,358256
0,984167	0,1	0,364258
0,985833	0,1	0,368825
0,987500	0,1	0,381478
0,989167	0,1	0,334535
0,990833	0,1	0,342393
0,992500	0,1	0,382335
0,994167	0,1	0,396570
0,995833	0,1	0,380264
0,997500	0,1	0,414841
0,999167	0,1	0,407750
1,000833	0,1	0,383472
1,002500	0,1	0,410410
1,004167	0,1	0,460030
1,005833	0,1	0,442956
1,007500	0,1	0,417199
1,009167	0,1	0,392049
1,010833	0,1	0,442588
1,012500	0,1	0,458657
1,014167	0,1	0,440550
1,015833	0,1	0,455445
1,017500	0,1	0,483550
1,019167	0,1	0,521069
1,020833	0,1	0,473351
1,022500	0,1	0,511207
1,024167	0,1	0,525284
1,025833	0,1	0,519344
1,027500	0,1	0,549086
1,029167	0,1	0,565185
1,030833	0,1	0,540553
1,032500	0,1	0,527411
1,034167	0,1	0,549828
1,035833	0,1	0,565572
1,037500	0,1	0,573221
1,039167	0,1	0,611609
1,040833	0,1	0,611460
1,042500	0,1	0,587656
1,044167	0,1	0,634521
1,045833	0,1	0,642017
1,047500	0,1	0,677969
1,049167	0,1	0,659408
1,050833	0,1	0,698797
1,052500	0,1	0,743216
1,054167	0,1	0,760253
1,055833	0,1	0,788984
1,057500	0,1	0,874970
1,059167	0,1	0,904870
1,060833	0,1	1,022355
1,062500	0,1	1,174982
1,064167	0,1	1,372518
1,065833	0,1	1,619210
1,067500	0,1	1,906001
1,069167	0,1	2,283510
1,070833	0,1	2,735409
1,072500	0,1	3,357931
1,074167	0,1	4,067190
1,075833	0,1	4,890985
1,077500	0,1	5,911990
1,079167	0,1	7,068045
1,080833	0,1	8,388041
1,082500	0,1	9,910552
1,084167	0,1	11,603005
1,085833	0,1	13,481290
1,087500	0,1	15,453437
1,089167	0,1	17,566781
1,090833	0,1	19,805042
1,092500	0,1	22,099717
1,094167	0,1	24,490038
1,095833	0,1	26,864817
1,097500	0,1	29,255981
1,099167	0,1	31,487352
1,100833	0,1	33,767138
1,102500	0,1	35,837349
1,104167	0,1	37,796786
1,105833	0,1	39,535135
1,107500	0,1	41,115655
1,109167	0,1	42,502663
1,110833	0,1	43,656288
1,112500	0,1	44,543983
1,114167	0,1	45,296231
1,115833	0,1	45,831653
1,117500	0,1	46,157242
1,119167	0,1	46,298804
1,120833	0,1	46,290888
1,122500	0,1	46,183063
1,124167	0,1	45,924692
1,125833	0,1	45,604749
1,127500	0,1	45,110217
1,129167	0,1	44,581939
1,130833	0,1	44,035757
1,132500	0,1	43,401356
1,134167	0,1	42,850574
1,135833	0,1	42,257351
1,137500	0,1	41,668017
1,139167	0,1	41,085265
1,140833	0,1	40,625863
1,142500	0,1	40,127303
1,144167	0,1	39,724828
1,145833	0,1	39,391425
1,147500	0,1	39,182212
1,149167	0,1	38,971790
1,150833	0,1	38,897120
1,152500	0,1	38,936425
1,154167	0,1	38,991919
1,155833	0,1	39,188894
1,157500	0,1	39,416037
1,159167	0,1	39,790941
1,160833	0,1	40,127828
1,162500	0,1	40,532509
1,164167	0,1	40,969794
1,165833	0,1	41,513240
1,167500	0,1	42,037023
1,169167	0,1	42,521495
1,170833	0,1	43,046520
1,172500	0,1	43,553202
1,174167	0,1	44,035908
1,175833	0,1	44,442648
1,177500	0,1	44,862288
1,179167	0,1	45,174388
1,180833	0,1	45,548280
1,182500	0,1	45,798212
1,184167	0,1	46,006171
1,185833	0,1	46,222559
1,187500	0,1	46,291015
1,189167	0,1	46,377758
1,190833	0,1	46,452188
1,192500	0,1	46,526595
1,194167	0,1	46,540833
1,195833	0,1	46,654965
1,197500	0,1	46,751163
1,199167	0,1	46,899489
1,200833	0,1	47,106618
1,202500	0,1	47,404247
1,204167	0,1	47,834268
1,205833	0,1	48,387209
1,207500	0,1	49,130952
1,209167	0,1	50,007380
1,210833	0,1	51,057126
1,212500	0,1	52,293372
1,214167	0,1	53,760080
1,215833	0,1	55,379533
1,217500	0,1	57,218879
1,219167	0,1	59,190449
1,220833	0,1	61,348003
1,222500	0,1	63,593266
1,224167	0,1	66,037355
1,225833	0,1	68,529630
1,227500	0,1	71,092949
1,229167	0,1	73,635862
1,230833	0,1	76,251932
1,232500	0,1	78,788626
1,234167	0,1	81,303542
1,235833	0,1	83,724059
1,237500	0,1	86,036754
1,239167	0,1	88,190305
1,240833	0,1	90,229391
1,242500	0,1	92,002541
1,244167	0,1	93,675849
1,245833	0,1	95,166259
1,247500	0,1	96,402214
1,249167	0,1	97,429896
1,250833	0,1	98,295419
1,252500	0,1	98,941418
1,254167	0,1	99,341851
1,255833	0,1	99,581003
1,257500	0,1	99,512464
1,259167	0,1	99,328724
1,260833	0,1	98,897728
1,262500	0,1	98,299540
1,264167	0,1	97,567429
1,265833	0,1	96,563050
1,267500	0,1	95,465266
1,269167	0,1	94,163756
1,270833	0,1	92,708491
1,272500	0,1	91,195267
1,274167	0,1	89,556768
1,275833	0,1	87,734122
1,277500	0,1	85,876572
1,279167	0,1	83,950672
1,280833	0,1	81,891613
1,282500	0,1	79,900208
1,284167	0,1	77,784912
1,285833	0,1	75,697655
1,287500	0,1	73,565225
1,289167	0,1	71,344111
1,290833	0,1	69,249230
1,292500	0,1	67,207241
1,294167	0,1	65,092700
1,295833	0,1	63,001472
1,297500	0,1	60,993424
1,299167	0,1	59,041227
1,300833	0,1	57,163866
1,302500	0,1	55,323378
1,304167	0,1	53,501337
1,305833	0,1	51,782883
1,307500	0,1	50,119403
1,309167	0,1	48,517603
1,310833	0,1	46,980427
1,312500	0,1	45,478012
1,314167	0,1	44,108047
1,315833	0,1	42,734962
1,317500	0,1	41,471992
1,319167	0,1	40,190805
1,320833	0,1	39,063266
1,322500	0,1	37,918181
1,324167	0,1	36,797958
1,325833	0,1	35,846005
1,327500	0,1	34,811022
1,329167	0,1	33,897678
1,330833	0,1	32,986436
1,332500	0,1	32,079941
1,334167	0,1	31,239071
1,335833	0,1	30,415743
1,337500	0,1	29,669948
1,339167	0,1	28,936710
1,340833	0,1	28,235064
1,342500	0,1	27,529039
1,344167	0,1	26,808218
1,345833	0,1	26,183616
1,347500	0,1	25,558215
1,349167	0,1	24,956582
1,350833	0,1	24,354900
1,352500	0,1	23,758582
1,354167	0,1	23,252348
1,355833	0,1	22,716714
1,357500	0,1	22,137670
1,359167	0,1	21,638748
1,360833	0,1	21,111201
1,362500	0,1	20,616804
1,364167	0,1	20,163814
1,365833	0,1	19,647947
1,367500	0,1	19,240907
1,369167	0,1	18,810355
1,370833	0,1	18,379667
1,372500	0,1	17,953990
1,374167	0,1	17,548779
1,375833	0,1	17,129837
1,377500	0,1	16,697374
1,379167	0,1	16,351607
1,380833	0,1	15,957962
1,382500	0,1	15,594992
1,384167	0,1	15,249871
1,385833	0,1	14,896137
1,387500	0,1	14,555290
1,389167	0,1	14,309412
1,390833	0,1	13,956212
1,392500	0,1	13,641485
1,394167	0,1	13,355066
1,395833	0,1	13,010985
1,397500	0,1	12,783170
1,399167	0,1	12,491789
1,400833	0,1	12,231862
1,402500	0,1	12,004107
1,404167	0,1	11,759343
1,405833	0,1	11,500274
1,407500	0,1	11,325865
1,409167	0,1	11,091589
1,410833	0,1	10,846770
1,412500	0,1	10,643924
1,414167	0,1	10,456634
1,415833	0,1	10,241238
1,417500	0,1	10,043518
1,419167	0,1	9,909937
1,420833	0,1	9,735182
1,422500	0,1	9,579451
1,424167	0,1	9,422918
1,425833	0,1	9,280454
1,427500	0,1	9,055892
1,429167	0,1	9,001089
1,430833	0,1	8,825762
1,432500	0,1	8,690676
1,434167	0,1	8,570524
1,435833	0,1	8,414448
1,437500	0,1	8,331142
1,439167	0,1	8,152447
1,440833	0,1	8,091949
1,442500	0,1	7,913007
1,444167	0,1	7,861862
1,445833	0,1	7,757611
1,447500	0,1	7,595275
1,449167	0,1	7,509432
1,450833	0,1	7,359012
1,452500	0,1	7,321313
1,454167	0,1	7,201539
1,455833	0,1	7,112331
1,457500	0,1	6,996979
1,459167	0,1	7,003190
1,460833	0,1	6,890403
1,462500	0,1	6,790282
1,464167	0,1	6,748464
1,465833	0,1	6,667832
1,467500	0,1	6,586195
1,469167	0,1	6,545508
1,470833	0,1	6,496643
1,472500	0,1	6,400143
1,474167	0,1	6,381816
1,475833	0,1	6,334091
1,477500	0,1	6,285545
1,479167	0,1	6,219220
1,480833	0,1	6,222302
1,482500	0,1	6,149196
1,484167	0,1	6,176536
1,485833	0,1	6,146596
1,487500	0,1	6,071449
1,489167	0,1	6,080629
1,490833	0,1	6,083482
1,492500	0,1	6,058271
1,494167	0,1	6,031961
1,495833	0,1	6,058464
1,497500	0,1	6,073483
1,499167	0,1	6,031432
1,500833	0,1	6,013723
1,502500	0,1	6,033915
1,504167	0,1	6,015586
1,505833	0,1	5,986869
1,507500	0,1	6,040963
1,509167	0,1	6,052154
1,510833	0,1	5,983700
1,512500	0,1	5,987601
1,514167	0,1	6,037872
1,515833	0,1	6,044391
1,517500	0,1	6,048222
1,519167	0,1	6,027034
1,520833	0,1	6,011593
1,522500	0,1	5,997424
1,524167	0,1	6,070612
1,525833	0,1	6,038203
1,527500	0,1	6,029236
1,529167	0,1	6,024325
1,530833	0,1	6,016826
1,532500	0,1	5,970904
1,534167	0,1	5,988071
1,535833	0,1	5,968680
1,537500	0,1	5,969369
1,539167	0,1	5,962599
1,540833	0,1	5,923482
1,542500	0,1	5,905717
1,544167	0,1	5,867325
1,545833	0,1	5,884137
1,547500	0,1	5,873134
1,549167	0,1	5,839105
1,550833	0,1	5,804441
1,552500	0,1	5,789864
1,554167	0,1	5,733401
1,555833	0,1	5,773841
1,557500	0,1	5,714876
1,559167	0,1	5,677175
1,560833	0,1	5,646596
1,562500	0,1	5,639740
1,564167	0,1	5,595065
1,565833	0,1	5,578826
1,567500	0,1	5,559586
1,569167	0,1	5,514289
1,570833	0,1	5,509187
1,572500	0,1	5,450709
1,574167	0,1	5,397375
1,575833	0,1	5,416618
1,577500	0,1	5,395271
1,579167	0,1	5,345726
1,580833	0,1	5,353054
1,582500	0,1	5,284355
1,584167	0,1	5,241253
1,585833	0,1	5,219412
1,587500	0,1	5,162213
1,589167	0,1	5,144162
1,590833	0,1	5,119738
1,592500	0,1	5,127608
1,594167	0,1	5,072909
1,595833	0,1	5,029886
1,597500	0,1	5,005014
1,599167	0,1	4,997669
1,600833	0,1	4,972332
1,602500	0,1	4,897407
1,604167	0,1	4,912690
1,605833	0,1	4,859026
1,607500	0,1	4,808240
1,609167	0,1	4,781099
1,610833	0,1	4,800304
1,612500	0,1	4,750775
1,614167	0,1	4,720043
1,615833	0,1	4,695752
1,617500	0,1	4,698860
1,619167	0,1	4,682596
1,620833	0,1	4,631986
1,622500	0,1	4,568260
1,624167	0,1	4,598190
1,625833	0,1	4,541375
1,627500	0,1	4,506918
1,629167	0,1	4,520680
1,630833	0,1	4,508210
1,632500	0,1	4,473043
1,634167	0,1	4,460063
1,635833	0,1	4,423883
1,637500	0,1	4,365384
1,639167	0,1	4,370799
1,640833	0,1	4,329039
1,642500	0,1	4,359648
1,644167	0,1	4,368322
1,645833	0,1	4,290076
1,647500	0,1	4,284268
1,649167	0,1	4,253365
1,650833	0,1	4,247121
1,652500	0,1	4,235459
1,654167	0,1	4,244121
1,655833	0,1	4,273766
1,657500	0,1	4,209835
1,659167	0,1	4,225003
1,660833	0,1	4,192127
1,662500	0,1	4,223098
1,664167	0,1	4,225492
1,665833	0,1	4,227273
1,667500	0,1	4,201523
1,669167	0,1	4,278940
1,670833	0,1	4,277461
1,672500	0,1	4,341975
1,674167	0,1	4,319148
1,675833	0,1	4,386987
1,677500	0,1	4,418114
1,679167	0,1	4,420592
1,680833	0,1	4,487159
1,682500	0,1	4,501198
1,684167	0,1	4,594437
1,685833	0,1	4,641797
1,687500	0,1	4,709458
1,689167	0,1	4,791288
1,690833	0,1	4,838917
1,692500	0,1	4,926241
1,694167	0,1	5,016360
1,695833	0,1	5,104437
1,697500	0,1	5,208145
1,699167	0,1	5,337432
1,700833	0,1	5,441895
1,702500	0,1	5,508216
1,704167	0,1	5,642522
1,705833	0,1	5,730853
1,707500	0,1	5,835153
1,709167	0,1	5,955988
1,710833	0,1	6,090594
1,712500	0,1	6,193611
1,714167	0,1	6,359358
1,715833	0,1	6,424402
1,717500	0,1	6,547327
1,719167	0,1	6,658570
1,720833	0,1	6,805493
1,722500	0,1	6,887378
1,724167	0,1	6,983790
1,725833	0,1	7,105101
1,727500	0,1	7,216115
1,729167	0,1	7,327142
1,730833	0,1	7,445955
1,732500	0,1	7,484686
1,734167	0,1	7,560964
1,735833	0,1	7,647754
1,737500	0,1	7,709891
1,739167	0,1	7,768519
1,740833	0,1	7,844396
1,742500	0,1	7,879694
1,744167	0,1	7,889780
1,745833	0,1	7,886640
1,747500	0,1	8,000937
1,749167	0,1	7,999021
1,750833	0,1	8,009770
1,752500	0,1	8,020311
1,754167	0,1	8,050966
1,755833	0,1	8,017754
1,757500	0,1	8,012486
1,759167	0,1	8,018546
1,760833	0,1	7,995155
1,762500	0,1	7,941512
1,764167	0,1	7,939413
1,765833	0,1	7,890518
1,767500	0,1	7,843119
1,769167	0,1	7,791873
1,770833	0,1	7,762166
1,772500	0,1	7,700691
1,774167	0,1	7,650775
1,775833	0,1	7,583698
1,777500	0,1	7,507542
1,779167	0,1	7,452150
1,780833	0,1	7,406912
1,782500	0,1	7,296249
1,784167	0,1	7,271143
1,785833	0,1	7,134797
1,787500	0,1	7,049242
1,789167	0,1	6,986624
1,790833	0,1	6,861532
1,792500	0,1	6,783105
1,794167	0,1	6,695297
1,795833	0,1	6,598006
1,797500	0,1	6,520200
1,799167	0,1	6,448172
1,800833	0,1	6,361832
1,802500	0,1	6,234029
1,804167	0,1	6,159804
1,805833	0,1	6,035682
1,807500	0,1	5,959659
1,809167	0,1	5,844592
1,810833	0,1	5,777396
1,812500	0,1	5,672513
1,814167	0,1	5,610563
1,815833	0,1	5,503273
1,817500	0,1	5,402756
1,819167	0,1	5,272564
1,820833	0,1	5,209371
1,822500	0,1	5,154702
1,824167	0,1	5,056629
1,825833	0,1	4,931204
1,827500	0,1	4,900675
1,829167	0,1	4,797222
1,830833	0,1	4,726058
1,832500	0,1	4,652688
1,834167	0,1	4,587563
1,835833	0,1	4,550285
1,837500	0,1	4,477793
1,839167	0,1	4,403473
1,840833	0,1	4,408596
1,842500	0,1	4,368255
1,844167	0,1	4,355327
1,845833	0,1	4,303276
1,847500	0,1	4,287997
1,849167	0,1	4,292001
1,850833	0,1	4,236725
1,852500	0,1	4,291260
1,854167	0,1	4,217528
1,855833	0,1	4,315150
1,857500	0,1	4,298124
1,859167	0,1	4,292531
1,860833	0,1	4,286089
1,862500	0,1	4,309254
1,864167	0,1	4,278197
1,865833	0,1	4,327639
1,867500	0,1	4,337939
1,869167	0,1	4,403318
1,870833	0,1	4,382352
1,872500	0,1	4,368091
1,874167	0,1	4,421431
1,875833	0,1	4,452154
1,877500	0,1	4,419227
1,879167	0,1	4,466496
1,880833	0,1	4,522178
1,882500	0,1	4,476608
1,884167	0,1	4,516994
1,885833	0,1	4,524135
1,887500	0,1	4,548653
1,889167	0,1	4,528361
1,890833	0,1	4,577585
1,892500	0,1	4,578457
1,894167	0,1	4,553416
1,895833	0,1	4,597492
1,897500	0,1	4,572980
1,899167	0,1	4,591789
1,900833	0,1	4,619017
1,902500	0,1	4,631145
1,904167	0,1	4,619604
1,905833	0,1	4,578632
1,907500	0,1	4,642442
1,909167	0,1	4,621953
1,910833	0,1	4,619036
1,912500	0,1	4,621052
1,914167	0,1	4,638362
1,915833	0,1	4,641526
1,917500	0,1	4,620408
1,919167	0,1	4,623057
1,920833	0,1	4,628917
1,922500	0,1	4,560770
1,924167	0,1	4,596928
1,925833	0,1	4,563511
1,927500	0,1	4,553859
1,929167	0,1	4,576341
1,930833	0,1	4,573150
1,932500	0,1	4,536639
1,934167	0,1	4,519363
1,935833	0,1	4,482570
1,937500	0,1	4,468014
1,939167	0,1	4,500500
1,940833	0,1	4,484219
1,942500	0,1	4,437951
1,944167	0,1	4,481008
1,945833	0,1	4,442487
1,947500	0,1	4,426028
1,949167	0,1	4,424406
1,950833	0,1	4,399609
1,952500	0,1	4,410584
1,954167	0,1	4,408238
1,955833	0,1	4,373643
1,957500	0,1	4,380441
1,959167	0,1	4,362700
1,960833	0,1	4,349935
1,962500	0,1	4,356535
1,964167	0,1	4,266707
1,965833	0,1	4,280779
1,967500	0,1	4,289731
1,969167	0,1	4,295445
1,970833	0,1	4,276898
1,972500	0,1	4,255307
1,974167	0,1	4,271420
1,975833	0,1	4,281872
1,977500	0,1	4,287748
1,979167	0,1	4,237939
1,980833	0,1	4,254287
1,982500	0,1	4,232340
1,984167	0,1	4,254772
1,985833	0,1	4,253196
1,987500	0,1	4,303779
1,989167	0,1	4,278034
1,990833	0,1	4,298034
1,992500	0,1	4,271187
1,994167	0,1	4,255752
1,995833	0,1	4,288753
1,997500	0,1	4,277058
1,999167	0,1	4,307064
2,000833	0,1	4,274753
2,002500	0,1	4,301841
2,004167	0,1	4,331007
2,005833	0,1	4,332271
2,007500	0,1	4,338831
2,009167	0,1	4,345799
2,010833	0,1	4,347626
2,012500	0,1	4,342360
2,014167	0,1	4,355115
2,015833	0,1	4,345397
2,017500	0,1	4,421675
2,019167	0,1	4,406541
2,020833	0,1	4,421238
2,022500	0,1	4,435387
2,024167	0,1	4,468936
2,025833	0,1	4,475381
2,027500	0,1	4,441429
2,029167	0,1	4,464557
2,030833	0,1	4,479440
2,032500	0,1	4,537136
2,034167	0,1	4,551250
2,035833	0,1	4,534971
2,037500	0,1	4,556967
2,039167	0,1	4,594498
2,040833	0,1	4,599328
2,042500	0,1	4,614656
2,044167	0,1	4,614011
2,045833	0,1	4,657296
2,047500	0,1	4,693413
2,049167	0,1	4,675110
2,050833	0,1	4,715600
2,052500	0,1	4,779547
2,054167	0,1	4,777498
2,055833	0,1	4,774903
2,057500	0,1	4,776033
2,059167	0,1	4,841175
2,060833	0,1	4,842557
2,062500	0,1	4,836468
2,064167	0,1	4,855482
2,065833	0,1	4,917360
2,067500	0,1	4,954501
2,069167	0,1	4,963260
2,070833	0,1	4,937241
2,072500	0,1	5,010016
2,074167	0,1	5,016349
2,075833	0,1	5,022673
2,077500	0,1	5,049234
2,079167	0,1	5,062673
2,080833	0,1	5,064907
2,082500	0,1	5,091466
2,084167	0,1	5,104513
2,085833	0,1	5,122469
2,087500	0,1	5,170604
2,089167	0,1	5,148086
2,090833	0,1	5,234130
2,092500	0,1	5,169417
2,094167	0,1	5,223404
2,095833	0,1	5,267097
2,097500	0,1	5,263723
2,099167	0,1	5,256100
2,100833	0,1	5,312089
2,102500	0,1	5,267408
2,104167	0,1	5,308058
2,105833	0,1	5,308546
2,107500	0,1	5,313486
2,109167	0,1	5,338143
2,110833	0,1	5,335722
2,112500	0,1	5,344841
2,114167	0,1	5,366622
2,115833	0,1	5,412688
2,117500	0,1	5,422874
2,119167	0,1	5,366592
2,120833	0,1	5,417016
2,122500	0,1	5,421515
2,124167	0,1	5,445296
2,125833	0,1	5,430076
2,127500	0,1	5,447136
2,129167	0,1	5,459768
2,130833	0,1	5,432914
2,132500	0,1	5,460609
2,134167	0,1	5,473548
2,135833	0,1	5,468048
2,137500	0,1	5,494750
2,139167	0,1	5,472014
2,140833	0,1	5,470124
2,142500	0,1	5,505969
2,144167	0,1	5,485921
2,145833	0,1	5,502098
2,147500	0,1	5,443507
2,149167	0,1	5,487965
2,150833	0,1	5,481478
2,152500	0,1	5,461030
2,154167	0,1	5,451128
2,155833	0,1	5,483115
2,157500	0,1	5,471839
2,159167	0,1	5,424385
2,160833	0,1	5,425845
2,162500	0,1	5,412680
2,164167	0,1	5,436001
2,165833	0,1	5,424313
2,167500	0,1	5,402849
2,169167	0,1	5,400723
2,170833	0,1	5,412266
2,172500	0,1	5,398235
2,174167	0,1	5,357086
2,175833	0,1	5,351402
2,177500	0,1	5,373744
2,179167	0,1	5,315474
2,180833	0,1	5,343880
2,182500	0,1	5,299128
2,184167	0,1	5,363950
2,185833	0,1	5,309380
2,187500	0,1	5,289992
2,189167	0,1	5,265369
2,190833	0,1	5,269482
2,192500	0,1	5,235345
2,194167	0,1	5,203747
2,195833	0,1	5,207072
2,197500	0,1	5,169267
2,199167	0,1	5,218241
2,200833	0,1	5,244366
2,202500	0,1	5,185369
2,204167	0,1	5,182982
2,205833	0,1	5,183685
2,207500	0,1	5,163276
2,209167	0,1	5,114408
2,210833	0,1	5,137319
2,212500	0,1	5,158692
2,214167	0,1	5,103371
2,215833	0,1	5,104966
2,217500	0,1	5,121423
2,219167	0,1	5,119987
2,220833	0,1	5,076521
2,222500	0,1	5,067027
2,224167	0,1	5,037840
2,225833	0,1	5,083699
2,227500	0,1	5,081026
2,229167	0,1	5,040442
2,230833	0,1	5,053836
2,232500	0,1	5,036962
2,234167	0,1	5,015083
2,235833	0,1	5,040198
2,237500	0,1	4,996772
2,239167	0,1	5,009746
2,240833	0,1	5,021121
2,242500	0,1	4,992817
2,244167	0,1	5,035992
2,245833	0,1	5,015881
2,247500	0,1	5,023154
2,249167	0,1	5,002890
2,250833	0,1	4,987765
2,252500	0,1	4,962955
2,254167	0,1	5,008496
2,255833	0,1	5,015478
2,257500	0,1	4,984891
2,259167	0,1	4,965918
2,260833	0,1	5,001891
2,262500	0,1	4,981078
2,264167	0,1	5,002231
2,265833	0,1	4,962164
2,267500	0,1	4,962948
2,269167	0,1	4,964675
2,270833	0,1	4,942046
2,272500	0,1	4,913623
2,274167	0,1	4,940536
2,275833	0,1	4,918365
2,277500	0,1	4,898043
2,279167	0,1	4,901618
2,280833	0,1	4,900270
2,282500	0,1	4,824636
2,284167	0,1	4,861570
2,285833	0,1	4,858031
2,287500	0,1	4,843327
2,289167	0,1	4,807955
2,290833	0,1	4,824281
2,292500	0,1	4,833117
2,294167	0,1	4,787475
2,295833	0,1	4,789410
2,297500	0,1	4,762299
2,299167	0,1	4,747788
2,300833	0,1	4,737490
2,302500	0,1	4,720605
2,304167	0,1	4,722497
2,305833	0,1	4,700895
2,307500	0,1	4,665148
2,309167	0,1	4,655280
2,310833	0,1	4,685147
2,312500	0,1	4,638790
2,314167	0,1	4,628272
2,315833	0,1	4,568917
2,317500	0,1	4,576427
2,319167	0,1	4,548428
2,320833	0,1	4,556129
2,322500	0,1	4,545950
2,324167	0,1	4,531913
2,325833	0,1	4,524302
2,327500	0,1	4,472928
2,329167	0,1	4,428111
2,330833	0,1	4,473351
2,332500	0,1	4,427092
2,334167	0,1	4,434374
2,335833	0,1	4,431900
2,337500	0,1	4,420355
2,339167	0,1	4,370731
2,340833	0,1	4,337384
2,342500	0,1	4,373908
2,344167	0,1	4,307736
2,345833	0,1	4,367704
2,347500	0,1	4,270961
2,349167	0,1	4,292039
2,350833	0,1	4,260859
2,352500	0,1	4,263931
2,354167	0,1	4,217645
2,355833	0,1	4,261935
2,357500	0,1	4,200232
2,359167	0,1	4,169000
2,360833	0,1	4,144216
2,362500	0,1	4,151864
2,364167	0,1	4,135946
2,365833	0,1	4,166474
2,367500	0,1	4,135066
2,369167	0,1	4,151494
2,370833	0,1	4,150002
2,372500	0,1	4,119879
2,374167	0,1	4,075828
2,375833	0,1	4,106951
2,377500	0,1	4,084171
2,379167	0,1	4,097440
2,380833	0,1	4,079666
2,382500	0,1	4,120714
2,384167	0,1	4,130194
2,385833	0,1	4,110325
2,387500	0,1	4,132627
2,389167	0,1	4,151578
2,390833	0,1	4,148826
2,392500	0,1	4,168059
2,394167	0,1	4,214990
2,395833	0,1	4,221480
2,397500	0,1	4,274813
2,399167	0,1	4,296657
2,400833	0,1	4,367867
2,402500	0,1	4,428200
2,404167	0,1	4,456617
2,405833	0,1	4,514731
2,407500	0,1	4,563244
2,409167	0,1	4,676045
2,410833	0,1	4,746336
2,412500	0,1	4,859070
2,414167	0,1	4,981661
2,415833	0,1	5,051198
2,417500	0,1	5,161098
2,419167	0,1	5,305715
2,420833	0,1	5,415530
2,422500	0,1	5,541264
2,424167	0,1	5,643204
2,425833	0,1	5,747664
2,427500	0,1	5,940147
2,429167	0,1	6,085612
2,430833	0,1	6,255802
2,432500	0,1	6,357871
2,434167	0,1	6,573918
2,435833	0,1	6,743086
2,437500	0,1	6,872926
2,439167	0,1	7,078058
2,440833	0,1	7,292624
2,442500	0,1	7,438019
2,444167	0,1	7,628883
2,445833	0,1	7,787455
2,447500	0,1	7,978265
2,449167	0,1	8,123695
2,450833	0,1	8,308320
2,452500	0,1	8,490175
2,454167	0,1	8,652481
2,455833	0,1	8,783774
2,457500	0,1	8,948129
2,459167	0,1	9,124015
2,460833	0,1	9,246678
2,462500	0,1	9,409558
2,464167	0,1	9,522730
2,465833	0,1	9,657225
2,467500	0,1	9,772039
2,469167	0,1	9,853465
2,470833	0,1	9,960146
2,472500	0,1	10,076896
2,474167	0,1	10,162897
2,475833	0,1	10,256746
2,477500	0,1	10,298867
2,479167	0,1	10,398489
2,480833	0,1	10,461497
2,482500	0,1	10,490977
2,484167	0,1	10,538314
2,485833	0,1	10,599251
2,487500	0,1	10,607812
2,489167	0,1	10,637291
2,490833	0,1	10,690398
2,492500	0,1	10,697756
2,494167	0,1	10,705320
2,495833	0,1	10,709157
2,497500	0,1	10,683237
2,499167	0,1	10,716111
2,500833	0,1	10,677704
2,502500	0,1	10,677090
2,504167	0,1	10,711616
2,505833	0,1	10,640385
2,507500	0,1	10,597522
2,509167	0,1	10,615538
2,510833	0,1	10,543554
2,512500	0,1	10,528090
2,514167	0,1	10,431290
2,515833	0,1	10,458545
2,517500	0,1	10,382808
2,519167	0,1	10,344957
2,520833	0,1	10,268066
2,522500	0,1	10,234230
2,524167	0,1	10,134754
2,525833	0,1	10,089429
2,527500	0,1	10,034260
2,529167	0,1	9,944415
2,530833	0,1	9,940402
2,532500	0,1	9,839236
2,534167	0,1	9,778134
2,535833	0,1	9,717372
2,537500	0,1	9,606380
2,539167	0,1	9,536760
2,540833	0,1	9,401662
2,542500	0,1	9,407181
2,544167	0,1	9,295664
2,545833	0,1	9,223053
2,547500	0,1	9,123703
2,549167	0,1	9,067709
2,550833	0,1	8,944338
2,552500	0,1	8,888436
2,554167	0,1	8,832208
2,555833	0,1	8,676027
2,557500	0,1	8,649229
2,559167	0,1	8,565527
2,560833	0,1	8,471029
2,562500	0,1	8,379342
2,564167	0,1	8,267198
2,565833	0,1	8,175429
2,567500	0,1	8,089259
2,569167	0,1	8,006261
2,570833	0,1	7,973646
2,572500	0,1	7,848014
2,574167	0,1	7,736729
2,575833	0,1	7,670769
2,577500	0,1	7,594150
2,579167	0,1	7,505992
2,580833	0,1	7,382231
2,582500	0,1	7,314519
2,584167	0,1	7,204987
2,585833	0,1	7,157901
2,587500	0,1	6,999410
2,589167	0,1	6,960903
2,590833	0,1	6,908458
2,592500	0,1	6,774540
2,594167	0,1	6,726927
2,595833	0,1	6,661871
2,597500	0,1	6,543462
2,599167	0,1	6,440800
2,600833	0,1	6,458745
2,602500	0,1	6,290843
2,604167	0,1	6,208502
2,605833	0,1	6,162490
2,607500	0,1	6,107611
2,609167	0,1	6,015693
2,610833	0,1	5,920507
2,612500	0,1	5,864127
2,614167	0,1	5,823760
2,615833	0,1	5,686651
2,617500	0,1	5,628444
2,619167	0,1	5,617074
2,620833	0,1	5,517898
2,622500	0,1	5,402196
2,624167	0,1	5,377960
2,625833	0,1	5,316980
2,627500	0,1	5,258119
2,629167	0,1	5,214732
2,630833	0,1	5,122241
2,632500	0,1	5,028681
2,634167	0,1	4,989125
2,635833	0,1	4,961376
2,637500	0,1	4,861633
2,639167	0,1	4,815164
2,640833	0,1	4,783463
2,642500	0,1	4,721348
2,644167	0,1	4,690683
2,645833	0,1	4,568100
2,647500	0,1	4,511680
2,649167	0,1	4,471829
2,650833	0,1	4,396713
2,652500	0,1	4,353473
2,654167	0,1	4,273387
2,655833	0,1	4,235381
2,657500	0,1	4,245903
2,659167	0,1	4,152977
2,660833	0,1	4,104699
2,662500	0,1	4,046885
2,664167	0,1	3,989396
2,665833	0,1	3,974898
2,667500	0,1	3,939282
2,669167	0,1	3,863070
2,670833	0,1	3,820248
2,672500	0,1	3,729107
2,674167	0,1	3,711954
2,675833	0,1	3,682019
2,677500	0,1	3,646402
2,679167	0,1	3,561640
2,680833	0,1	3,584623
2,682500	0,1	3,560512
2,684167	0,1	3,440587
2,685833	0,1	3,419577
2,687500	0,1	3,414660
2,689167	0,1	3,314369
2,690833	0,1	3,319453
2,692500	0,1	3,267142
2,694167	0,1	3,255133
2,695833	0,1	3,150952
2,697500	0,1	3,161990
2,699167	0,1	3,110634
2,700833	0,1	3,089791
2,702500	0,1	3,050747
2,704167	0,1	3,014674
2,705833	0,1	2,987244
2,707500	0,1	2,939583
2,709167	0,1	2,889204
2,710833	0,1	2,895860
2,712500	0,1	2,831935
2,714167	0,1	2,835557
2,715833	0,1	2,828318
2,717500	0,1	2,780442
2,719167	0,1	2,815612
2,720833	0,1	2,719342
2,722500	0,1	2,707105
2,724167	0,1	2,667001
2,725833	0,1	2,685853
2,727500	0,1	2,657028
2,729167	0,1	2,625260
2,730833	0,1	2,568435
2,732500	0,1	2,588788
2,734167	0,1	2,560262
2,735833	0,1	2,532429
2,737500	0,1	2,502517
2,739167	0,1	2,480434
2,740833	0,1	2,485300
2,742500	0,1	2,482001
2,744167	0,1	2,469937
2,745833	0,1	2,476332
2,747500	0,1	2,425498
2,749167	0,1	2,398533
2,750833	0,1	2,378317
2,752500	0,1	2,398159
2,754167	0,1	2,380177
2,755833	0,1	2,376870
2,757500	0,1	2,361819
2,759167	0,1	2,282334
2,760833	0,1	2,335347
2,762500	0,1	2,310781
2,764167	0,1	2,302886
2,765833	0,1	2,299087
2,767500	0,1	2,259240
2,769167	0,1	2,250345
2,770833	0,1	2,275500
2,772500	0,1	2,236521
2,774167	0,1	2,272484
2,775833	0,1	2,217600
2,777500	0,1	2,208918
2,779167	0,1	2,198094
2,780833	0,1	2,211205
2,782500	0,1	2,216869
2,784167	0,1	2,181832
2,785833	0,1	2,175231
2,787500	0,1	2,171577
2,789167	0,1	2,165485
2,790833	0,1	2,189343
2,792500	0,1	2,160331
2,794167	0,1	2,144416
2,795833	0,1	2,135675
2,797500	0,1	2,115899
2,799167	0,1	2,119620
2,800833	0,1	2,142402
2,802500	0,1	2,077070
2,804167	0,1	2,093031
2,805833	0,1	2,078206
2,807500	0,1	2,079848
2,809167	0,1	2,076272
2,810833	0,1	2,059002
2,812500	0,1	2,045964
2,814167	0,1	2,046174
2,815833	0,1	2,036289
2,817500	0,1	2,072750
2,819167	0,1	2,027129
2,820833	0,1	1,992021
2,822500	0,1	1,999603
2,824167	0,1	2,014292
2,825833	0,1	2,001982
2,827500	0,1	1,994598
2,829167	0,1	1,998393
2,830833	0,1	1,987572
2,832500	0,1	1,988078
2,834167	0,1	1,966873
2,835833	0,1	1,943302
2,837500	0,1	1,939365
2,839167	0,1	1,957555
2,840833	0,1	1,922031
2,842500	0,1	1,916581
2,844167	0,1	1,947308
2,845833	0,1	1,895828
2,847500	0,1	1,942868
2,849167	0,1	1,883934
2,850833	0,1	1,922749
2,852500	0,1	1,885448
2,854167	0,1	1,851419
2,855833	0,1	1,863719
2,857500	0,1	1,827637
2,859167	0,1	1,844331
2,860833	0,1	1,834510
2,862500	0,1	1,822481
2,864167	0,1	1,816399
2,865833	0,1	1,837388
2,867500	0,1	1,824709
2,869167	0,1	1,767497
2,870833	0,1	1,798121
2,872500	0,1	1,743575
2,874167	0,1	1,782017
2,875833	0,1	1,767713
2,877500	0,1	1,810806
2,879167	0,1	1,736439
2,880833	0,1	1,743709
2,882500	0,1	1,706435
2,884167	0,1	1,752589
2,885833	0,1	1,698758
2,887500	0,1	1,728030
2,889167	0,1	1,670835
2,890833	0,1	1,719569
2,892500	0,1	1,685729
2,894167	0,1	1,674562
2,895833	0,1	1,677650
2,897500	0,1	1,655396
2,899167	0,1	1,634195
2,900833	0,1	1,631993
2,902500	0,1	1,593398
2,904167	0,1	1,566043
2,905833	0,1	1,614484
2,907500	0,1	1,594912
2,909167	0,1	1,590607
2,910833	0,1	1,578587
2,912500	0,1	1,624597
2,914167	0,1	1,580021
2,915833	0,1	1,555392
2,917500	0,1	1,544932
2,919167	0,1	1,533983
2,920833	0,1	1,507938
2,922500	0,1	1,551384
2,924167	0,1	1,529053
2,925833	0,1	1,496127
2,927500	0,1	1,490846
2,929167	0,1	1,520256
2,930833	0,1	1,499439
2,932500	0,1	1,532586
2,934167	0,1	1,471525
2,935833	0,1	1,431897
2,937500	0,1	1,480172
2,939167	0,1	1,477402
2,940833	0,1	1,440404
2,942500	0,1	1,451765
2,944167	0,1	1,429249
2,945833	0,1	1,448475
2,947500	0,1	1,443466
2,949167	0,1	1,438851
2,950833	0,1	1,435904
2,952500	0,1	1,425890
2,954167	0,1	1,421557
2,955833	0,1	1,398313
2,957500	0,1	1,403692
2,959167	0,1	1,423733
2,960833	0,1	1,394414
2,962500	0,1	1,423032
2,964167	0,1	1,399631
2,965833	0,1	1,372205
2,967500	0,1	1,376279
2,969167	0,1	1,397910
2,970833	0,1	1,375165
2,972500	0,1	1,406329
2,974167	0,1	1,372425
2,975833	0,1	1,409291
2,977500	0,1	1,374238
2,979167	0,1	1,345656
2,980833	0,1	1,360130
2,982500	0,1	1,325225
2,984167	0,1	1,362972
2,985833	0,1	1,331289
2,987500	0,1	1,361769
2,989167	0,1	1,350462
2,990833	0,1	1,342600
2,992500	0,1	1,357623
2,994167	0,1	1,327512
2,995833	0,1	1,322254
2,997500	0,1	1,369780
2,999167	0,1	1,329936
3,000833	0,1	1,328521
3,002500	0,1	1,310772
3,004167	0,1	1,315916
3,005833	0,1	1,314477
3,007500	0,1	1,306855
3,009167	0,1	1,356038
3,010833	0,1	1,345737
3,012500	0,1	1,296328
3,014167	0,1	1,319011
3,015833	0,1	1,339679
3,017500	0,1	1,311806
3,019167	0,1	1,328160
3,020833	0,1	1,316869
3,022500	0,1	1,326298
3,024167	0,1	1,361835
3,025833	0,1	1,332745
3,027500	0,1	1,308605
3,029167	0,1	1,334716
3,030833	0,1	1,328794
3,032500	0,1	1,305759
3,034167	0,1	1,331987
3,035833	0,1	1,307555
3,037500	0,1	1,336594
3,039167	0,1	1,344749
3,040833	0,1	1,320953
3,042500	0,1	1,348826
3,044167	0,1	1,346426
3,045833	0,1	1,326866
3,047500	0,1	1,314005
3,049167	0,1	1,321540
3,050833	0,1	1,327503
3,052500	0,1	1,352842
3,054167	0,1	1,343770
3,055833	0,1	1,300885
3,057500	0,1	1,300111
3,059167	0,1	1,293016
3,060833	0,1	1,281649
3,062500	0,1	1,294450
3,064167	0,1	1,284716
3,065833	0,1	1,290100
3,067500	0,1	1,263073
3,069167	0,1	1,325303
3,070833	0,1	1,310466
3,072500	0,1	1,287870
3,074167	0,1	1,285528
3,075833	0,1	1,300464
3,077500	0,1	1,263938
3,079167	0,1	1,307486
3,080833	0,1	1,342032
3,082500	0,1	1,289316
3,084167	0,1	1,324632
3,085833	0,1	1,310364
3,087500	0,1	1,295965
3,089167	0,1	1,321773
3,090833	0,1	1,329570
3,092500	0,1	1,318511
3,094167	0,1	1,306348
3,095833	0,1	1,337848
3,097500	0,1	1,344392
3,099167	0,1	1,349847
3,100833	0,1	1,314875
3,102500	0,1	1,345370
3,104167	0,1	1,337078
3,105833	0,1	1,337466
3,107500	0,1	1,344817
3,109167	0,1	1,369277
3,110833	0,1	1,384510
3,112500	0,1	1,364696
3,114167	0,1	1,383715
3,115833	0,1	1,407332
3,117500	0,1	1,402325
3,119167	0,1	1,401339
3,120833	0,1	1,445250
3,122500	0,1	1,447767
3,124167	0,1	1,429248
3,125833	0,1	1,468707
3,127500	0,1	1,459715
3,129167	0,1	1,462714
3,130833	0,1	1,502576
3,132500	0,1	1,502943
3,134167	0,1	1,516164
3,135833	0,1	1,532069
3,137500	0,1	1,567478
3,139167	0,1	1,569635
3,140833	0,1	1,538290
3,142500	0,1	1,583624
3,144167	0,1	1,577804
3,145833	0,1	1,595823
3,147500	0,1	1,625016
3,149167	0,1	1,653371
3,150833	0,1	1,622453
3,152500	0,1	1,655946
3,154167	0,1	1,661396
3,155833	0,1	1,657521
3,157500	0,1	1,663467
3,159167	0,1	1,700688
3,160833	0,1	1,736273
3,162500	0,1	1,726758
3,164167	0,1	1,726024
3,165833	0,1	1,745500
3,167500	0,1	1,726603
3,169167	0,1	1,757810
3,170833	0,1	1,781452
3,172500	0,1	1,765050
3,174167	0,1	1,768911
3,175833	0,1	1,800698
3,177500	0,1	1,820408
3,179167	0,1	1,833796
3,180833	0,1	1,858069
3,182500	0,1	1,808451
3,184167	0,1	1,808804
3,185833	0,1	1,827055
3,187500	0,1	1,843177
3,189167	0,1	1,771358
3,190833	0,1	1,839583
3,192500	0,1	1,844180
3,194167	0,1	1,869460
3,195833	0,1	1,834937
3,197500	0,1	1,843963
3,199167	0,1	1,866882
3,200833	0,1	1,869891
3,202500	0,1	1,848264
3,204167	0,1	1,831715
3,205833	0,1	1,817264
3,207500	0,1	1,807013
3,209167	0,1	1,851325
3,210833	0,1	1,812666
3,212500	0,1	1,813525
3,214167	0,1	1,827421
3,215833	0,1	1,828063
3,217500	0,1	1,803718
3,219167	0,1	1,785377
3,220833	0,1	1,791108
3,222500	0,1	1,783022
3,224167	0,1	1,790961
3,225833	0,1	1,809143
3,227500	0,1	1,772578
3,229167	0,1	1,763985
3,230833	0,1	1,772558
3,232500	0,1	1,762347
3,234167	0,1	1,735776
3,235833	0,1	1,691519
3,237500	0,1	1,711715
3,239167	0,1	1,689025
3,240833	0,1	1,731823
3,242500	0,1	1,710020
3,244167	0,1	1,651221
3,245833	0,1	1,686018
3,247500	0,1	1,642782
3,249167	0,1	1,640138
3,250833	0,1	1,655942
3,252500	0,1	1,610711
3,254167	0,1	1,585090
3,255833	0,1	1,614718
3,257500	0,1	1,572925
3,259167	0,1	1,585230
3,260833	0,1	1,566340
3,262500	0,1	1,549948
3,264167	0,1	1,507885
3,265833	0,1	1,492026
3,267500	0,1	1,525118
3,269167	0,1	1,488537
3,270833	0,1	1,505077
3,272500	0,1	1,471586
3,274167	0,1	1,494429
3,275833	0,1	1,478243
3,277500	0,1	1,441897
3,279167	0,1	1,492612
3,280833	0,1	1,426313
3,282500	0,1	1,408327
3,284167	0,1	1,406474
3,285833	0,1	1,383436
3,287500	0,1	1,422084
3,289167	0,1	1,363350
3,290833	0,1	1,371145
3,292500	0,1	1,361914
3,294167	0,1	1,303158
3,295833	0,1	1,309783
3,297500	0,1	1,336391
3,299167	0,1	1,301407
3,300833	0,1	1,279875
3,302500	0,1	1,285948
3,304167	0,1	1,218211
3,305833	0,1	1,259108
3,307500	0,1	1,249620
3,309167	0,1	1,188826
3,310833	0,1	1,184969
3,312500	0,1	1,252482
3,314167	0,1	1,174623
3,315833	0,1	1,158722
3,317500	0,1	1,167255
3,319167	0,1	1,129416
3,320833	0,1	1,158818
3,322500	0,1	1,161581
3,324167	0,1	1,158758
3,325833	0,1	1,113064
3,327500	0,1	1,121482
3,329167	0,1	1,106823
3,330833	0,1	1,105533
3,332500	0,1	1,117245
3,334167	0,1	1,083065
3,335833	0,1	1,110473
3,337500	0,1	1,106954
3,339167	0,1	1,074743
3,340833	0,1	1,081791
3,342500	0,1	1,076534
3,344167	0,1	1,059145
3,345833	0,1	1,042062
3,347500	0,1	1,072135
3,349167	0,1	1,007136
3,350833	0,1	1,019161
3,352500	0,1	1,028902
3,354167	0,1	1,012050
3,355833	0,1	1,003506
3,357500	0,1	0,989377
3,359167	0,1	1,040538
3,360833	0,1	1,012695
3,362500	0,1	1,049282
3,364167	0,1	0,971984
3,365833	0,1	1,014608
3,367500	0,1	1,000026
3,369167	0,1	0,975339
3,370833	0,1	1,024190
3,372500	0,1	0,982134
3,374167	0,1	0,960121
3,375833	0,1	0,943224
3,377500	0,1	0,963419
3,379167	0,1	0,968748
3,380833	0,1	0,987265
3,382500	0,1	0,957153
3,384167	0,1	0,907413
3,385833	0,1	0,972946
3,387500	0,1	0,936532
3,389167	0,1	0,915124
3,390833	0,1	0,922149
3,392500	0,1	0,938202
3,394167	0,1	0,924703
3,395833	0,1	0,943924
3,397500	0,1	0,941908
3,399167	0,1	0,922709
3,400833	0,1	0,908113
3,402500	0,1	0,912634
3,404167	0,1	0,940310
3,405833	0,1	0,918784
3,407500	0,1	0,898006
3,409167	0,1	0,922673
3,410833	0,1	0,944104
3,412500	0,1	0,918430
3,414167	0,1	0,882747
3,415833	0,1	0,946509
3,417500	0,1	0,881494
3,419167	0,1	0,853557
3,420833	0,1	0,877967
3,422500	0,1	0,890766
3,424167	0,1	0,931079
3,425833	0,1	0,882998
3,427500	0,1	0,912117
3,429167	0,1	0,888690
3,430833	0,1	0,856026
3,432500	0,1	0,881604
3,434167	0,1	0,890859
3,435833	0,1	0,872701
3,437500	0,1	0,875624
3,439167	0,1	0,870993
3,440833	0,1	0,872870
3,442500	0,1	0,878038
3,444167	0,1	0,861876
3,445833	0,1	0,867551
3,447500	0,1	0,862370
3,449167	0,1	0,889097
3,450833	0,1	0,800646
3,452500	0,1	0,839933
3,454167	0,1	0,880248
3,455833	0,1	0,857729
3,457500	0,1	0,835643
3,459167	0,1	0,847352
3,460833	0,1	0,846857
3,462500	0,1	0,862535
3,464167	0,1	0,857462
3,465833	0,1	0,870319
3,467500	0,1	0,850706
3,469167	0,1	0,817863
3,470833	0,1	0,853082
3,472500	0,1	0,848486
3,474167	0,1	0,821419
3,475833	0,1	0,826437
3,477500	0,1	0,810236
3,479167	0,1	0,821960
3,480833	0,1	0,843125
3,482500	0,1	0,861694
3,484167	0,1	0,798031
3,485833	0,1	0,872036
3,487500	0,1	0,824743
3,489167	0,1	0,857742
3,490833	0,1	0,809389
3,492500	0,1	0,841469
3,494167	0,1	0,798276
3,495833	0,1	0,825146
3,497500	0,1	0,812714
3,499167	0,1	0,797965
3,500833	0,1	0,815148
3,502500	0,1	0,806245
3,504167	0,1	0,826721
3,505833	0,1	0,806391
3,507500	0,1	0,816882
3,509167	0,1	0,856389
3,510833	0,1	0,832612
3,512500	0,1	0,804162
3,514167	0,1	0,805796
3,515833	0,1	0,808721
3,517500	0,1	0,810559
3,519167	0,1	0,796090
3,520833	0,1	0,819123
3,522500	0,1	0,795188
3,524167	0,1	0,811961
3,525833	0,1	0,788402
3,527500	0,1	0,747149
3,529167	0,1	0,828885
3,530833	0,1	0,792750
3,532500	0,1	0,783742
3,534167	0,1	0,826453
3,535833	0,1	0,799439
3,537500	0,1	0,770347
3,539167	0,1	0,802350
3,540833	0,1	0,806845
3,542500	0,1	0,773330
3,544167	0,1	0,791095
3,545833	0,1	0,809872
3,547500	0,1	0,801323
3,549167	0,1	0,798238
3,550833	0,1	0,766621
3,552500	0,1	0,782319
3,554167	0,1	0,833040
3,555833	0,1	0,793709
3,557500	0,1	0,762818
3,559167	0,1	0,795763
3,560833	0,1	0,766359
3,562500	0,1	0,735304
3,564167	0,1	0,810660
3,565833	0,1	0,769184
3,567500	0,1	0,766418
3,569167	0,1	0,749640
3,570833	0,1	0,769906
3,572500	0,1	0,762747
3,574167	0,1	0,770628
3,575833	0,1	0,795975
3,577500	0,1	0,774297
3,579167	0,1	0,787566
3,580833	0,1	0,759315
3,582500	0,1	0,744143
3,584167	0,1	0,804038
3,585833	0,1	0,778667
3,587500	0,1	0,746941
3,589167	0,1	0,739827
3,590833	0,1	0,738866
3,592500	0,1	0,755969
3,594167	0,1	0,720844
3,595833	0,1	0,753932
3,597500	0,1	0,727552
3,599167	0,1	0,732593
3,600833	0,1	0,787519
3,602500	0,1	0,750930
3,604167	0,1	0,747698
3,605833	0,1	0,769496
3,607500	0,1	0,724864
3,609167	0,1	0,763128
3,610833	0,1	0,700692
3,612500	0,1	0,693355
3,614167	0,1	0,697050
3,615833	0,1	0,754990
3,617500	0,1	0,735526
3,619167	0,1	0,706570
3,620833	0,1	0,701907
3,622500	0,1	0,712636
3,624167	0,1	0,698622
3,625833	0,1	0,677866
3,627500	0,1	0,719635
3,629167	0,1	0,699014
3,630833	0,1	0,748432
3,632500	0,1	0,741140
3,634167	0,1	0,678034
3,635833	0,1	0,697524
3,637500	0,1	0,688986
3,639167	0,1	0,663726
3,640833	0,1	0,709449
3,642500	0,1	0,682402
3,644167	0,1	0,675002
3,645833	0,1	0,671209
3,647500	0,1	0,667448
3,649167	0,1	0,656457
3,650833	0,1	0,707641
3,652500	0,1	0,649404
3,654167	0,1	0,663522
3,655833	0,1	0,692696
3,657500	0,1	0,682688
3,659167	0,1	0,670086
3,660833	0,1	0,687434
3,662500	0,1	0,690969
3,664167	0,1	0,680852
3,665833	0,1	0,617393
3,667500	0,1	0,644011
3,669167	0,1	0,685528
3,670833	0,1	0,634583
3,672500	0,1	0,653206
3,674167	0,1	0,683379
3,675833	0,1	0,640684
3,677500	0,1	0,637077
3,679167	0,1	0,666507
3,680833	0,1	0,645756
3,682500	0,1	0,702237
3,684167	0,1	0,616983
3,685833	0,1	0,668973
3,687500	0,1	0,663366
3,689167	0,1	0,678241
3,690833	0,1	0,610616
3,692500	0,1	0,638226
3,694167	0,1	0,621396
3,695833	0,1	0,669333
3,697500	0,1	0,629628
3,699167	0,1	0,647675
3,700833	0,1	0,639580
3,702500	0,1	0,655938
3,704167	0,1	0,637853
3,705833	0,1	0,645749
3,707500	0,1	0,655066
3,709167	0,1	0,652404
3,710833	0,1	0,646649
3,712500	0,1	0,641642
3,714167	0,1	0,606619
3,715833	0,1	0,646708
3,717500	0,1	0,607811
3,719167	0,1	0,663064
3,720833	0,1	0,648007
3,722500	0,1	0,656611
3,724167	0,1	0,657351
3,725833	0,1	0,701952
3,727500	0,1	0,641432
3,729167	0,1	0,660400
3,730833	0,1	0,611799
3,732500	0,1	0,646676
3,734167	0,1	0,674063
3,735833	0,1	0,630760
3,737500	0,1	0,654938
3,739167	0,1	0,640872
3,740833	0,1	0,661496
3,742500	0,1	0,654557
3,744167	0,1	0,690124
3,745833	0,1	0,700227
3,747500	0,1	0,642232
3,749167	0,1	0,680741
3,750833	0,1	0,639370
3,752500	0,1	0,683988
3,754167	0,1	0,648367
3,755833	0,1	0,680582
3,757500	0,1	0,648783
3,759167	0,1	0,658668
3,760833	0,1	0,664325
3,762500	0,1	0,662917
3,764167	0,1	0,668954
3,765833	0,1	0,668189
3,767500	0,1	0,675186
3,769167	0,1	0,659771
3,770833	0,1	0,670983
3,772500	0,1	0,648169
3,774167	0,1	0,658544
3,775833	0,1	0,680615
3,777500	0,1	0,703010
3,779167	0,1	0,672949
3,780833	0,1	0,688105
3,782500	0,1	0,678831
3,784167	0,1	0,717092
3,785833	0,1	0,707238
3,787500	0,1	0,681529
3,789167	0,1	0,695241
3,790833	0,1	0,699066
3,792500	0,1	0,720953
3,794167	0,1	0,683013
3,795833	0,1	0,714169
3,797500	0,1	0,704572
3,799167	0,1	0,677997
3,800833	0,1	0,699422
3,802500	0,1	0,742227
3,804167	0,1	0,719650
3,805833	0,1	0,687771
3,807500	0,1	0,694160
3,809167	0,1	0,743857
3,810833	0,1	0,708240
3,812500	0,1	0,703510
3,814167	0,1	0,705502
3,815833	0,1	0,697890
3,817500	0,1	0,715979
3,819167	0,1	0,704255
3,820833	0,1	0,689955
3,822500	0,1	0,718249
3,824167	0,1	0,740499
3,825833	0,1	0,723086
3,827500	0,1	0,692848
3,829167	0,1	0,704119
3,830833	0,1	0,725361
3,832500	0,1	0,666463
3,834167	0,1	0,722716
3,835833	0,1	0,743427
3,837500	0,1	0,729869
3,839167	0,1	0,715149
3,840833	0,1	0,689148
3,842500	0,1	0,711188
3,844167	0,1	0,711128
3,845833	0,1	0,718032
3,847500	0,1	0,701807
3,849167	0,1	0,689852
3,850833	0,1	0,677704
3,852500	0,1	0,703147
3,854167	0,1	0,649592
3,855833	0,1	0,743018
3,857500	0,1	0,699950
3,859167	0,1	0,675843
3,860833	0,1	0,700801
3,862500	0,1	0,689629
3,864167	0,1	0,673236
3,865833	0,1	0,689780
3,867500	0,1	0,686024
3,869167	0,1	0,689596
3,870833	0,1	0,704018
3,872500	0,1	0,693804
3,874167	0,1	0,652932
3,875833	0,1	0,704362
3,877500	0,1	0,661447
3,879167	0,1	0,673164
3,880833	0,1	0,702439
3,882500	0,1	0,658977
3,884167	0,1	0,675061
3,885833	0,1	0,708606
3,887500	0,1	0,633015
3,889167	0,1	0,657185
3,890833	0,1	0,661089
3,892500	0,1	0,681423
3,894167	0,1	0,632431
3,895833	0,1	0,638521
3,897500	0,1	0,631358
3,899167	0,1	0,627825
3,900833	0,1	0,668658
3,902500	0,1	0,634032
3,904167	0,1	0,631324
3,905833	0,1	0,652275
3,907500	0,1	0,659472
3,909167	0,1	0,641676
3,910833	0,1	0,588214
3,912500	0,1	0,638640
3,914167	0,1	0,651921
3,915833	0,1	0,635347
3,917500	0,1	0,611438
3,919167	0,1	0,640120
3,920833	0,1	0,564697
3,922500	0,1	0,615951
3,924167	0,1	0,613103
3,925833	0,1	0,623383
3,927500	0,1	0,617348
3,929167	0,1	0,598325
3,930833	0,1	0,618016
3,932500	0,1	0,560195
3,934167	0,1	0,578267
3,935833	0,1	0,597095
3,937500	0,1	0,586661
3,939167	0,1	0,571977
3,940833	0,1	0,548265
3,942500	0,1	0,577398
3,944167	0,1	0,599410
3,945833	0,1	0,586597
3,947500	0,1	0,596131
3,949167	0,1	0,605229
3,950833	0,1	0,596972
3,952500	0,1	0,593115
3,954167	0,1	0,585633
3,955833	0,1	0,591604
3,957500	0,1	0,606158
3,959167	0,1	0,591832
3,960833	0,1	0,621421
3,962500	0,1	0,573623
3,964167	0,1	0,567444
3,965833	0,1	0,543865
3,967500	0,1	0,604315
3,969167	0,1	0,592797
3,970833	0,1	0,569248
3,972500	0,1	0,548650
3,974167	0,1	0,603513
3,975833	0,1	0,567675
3,977500	0,1	0,596614
3,979167	0,1	0,555565
3,980833	0,1	0,579806
3,982500	0,1	0,576890
3,984167	0,1	0,558545
3,985833	0,1	0,538111
3,987500	0,1	0,599268
3,989167	0,1	0,560800
3,990833	0,1	0,579807
3,992500	0,1	0,539177
3,994167	0,1	0,549574
3,995833	0,1	0,583146
3,997500	0,1	0,559094
3,999167	0,1	0,580740
4,000833	0,1	0,540686
4,002500	0,1	0,553238
4,004167	0,1	0,576114
4,005833	0,1	0,546274
4,007500	0,1	0,530754
4,009167	0,1	0,566886
4,010833	0,1	0,567475
4,012500	0,1	0,562526
4,014167	0,1	0,574154
4,015833	0,1	0,571650
4,017500	0,1	0,599311
4,019167	0,1	0,589745
4,020833	0,1	0,556429
4,022500	0,1	0,567569
4,024167	0,1	0,540040
4,025833	0,1	0,575340
4,027500	0,1	0,618584
4,029167	0,1	0,604850
4,030833	0,1	0,619238
4,032500	0,1	0,550815
4,034167	0,1	0,622854
4,035833	0,1	0,622678
4,037500	0,1	0,593509
4,039167	0,1	0,623956
4,040833	0,1	0,635081
4,042500	0,1	0,598425
4,044167	0,1	0,594113
4,045833	0,1	0,569635
4,047500	0,1	0,627486
4,049167	0,1	0,591870
4,050833	0,1	0,625435
4,052500	0,1	0,636172
4,054167	0,1	0,638139
4,055833	0,1	0,646039
4,057500	0,1	0,673095
4,059167	0,1	0,620091
4,060833	0,1	0,694491
4,062500	0,1	0,677958
4,064167	0,1	0,690164
4,065833	0,1	0,748551
4,067500	0,1	0,691504
4,069167	0,1	0,688919
4,070833	0,1	0,717514
4,072500	0,1	0,727869
4,074167	0,1	0,710397
4,075833	0,1	0,799465
4,077500	0,1	0,764497
4,079167	0,1	0,736301
4,080833	0,1	0,760849
4,082500	0,1	0,773711
4,084167	0,1	0,825992
4,085833	0,1	0,802744
4,087500	0,1	0,788375
4,089167	0,1	0,803680
4,090833	0,1	0,812618
4,092500	0,1	0,836483
4,094167	0,1	0,842316
4,095833	0,1	0,835377
4,097500	0,1	0,871220
4,099167	0,1	0,927216
4,100833	0,1	0,894190
4,102500	0,1	0,893160
4,104167	0,1	0,918681
4,105833	0,1	0,920329
4,107500	0,1	0,950064
4,109167	0,1	0,955637
4,110833	0,1	0,970675
4,112500	0,1	1,015804
4,114167	0,1	0,976472
4,115833	0,1	0,984756
4,117500	0,1	1,039981
4,119167	0,1	1,005132
4,120833	0,1	0,999447
4,122500	0,1	1,013948
4,124167	0,1	1,026814
4,125833	0,1	1,081136
4,127500	0,1	1,094190
4,129167	0,1	1,084522
4,130833	0,1	1,081637
4,132500	0,1	1,124736
4,134167	0,1	1,170686
4,135833	0,1	1,140198
4,137500	0,1	1,146136
4,139167	0,1	1,170027
4,140833	0,1	1,201184
4,142500	0,1	1,202873
4,144167	0,1	1,198332
4,145833	0,1	1,177943
4,147500	0,1	1,176786
4,149167	0,1	1,219492
4,150833	0,1	1,181519
4,152500	0,1	1,247381
4,154167	0,1	1,226162
4,155833	0,1	1,269235
4,157500	0,1	1,271855
4,159167	0,1	1,303457
4,160833	0,1	1,265412
4,162500	0,1	1,276275
4,164167	0,1	1,314113
4,165833	0,1	1,319930
4,167500	0,1	1,337157
4,169167	0,1	1,321275
4,170833	0,1	1,341273
4,172500	0,1	1,331438
4,174167	0,1	1,361565
4,175833	0,1	1,368552
4,177500	0,1	1,321400
4,179167	0,1	1,341985
4,180833	0,1	1,379658
4,182500	0,1	1,404249
4,184167	0,1	1,385451
4,185833	0,1	1,393526
4,187500	0,1	1,407608
4,189167	0,1	1,361840
4,190833	0,1	1,386357
4,192500	0,1	1,426304
4,194167	0,1	1,411355
4,195833	0,1	1,389928
4,197500	0,1	1,404538
4,199167	0,1	1,429004
4,200833	0,1	1,429819
4,202500	0,1	1,435584
4,204167	0,1	1,406314
4,205833	0,1	1,402529
4,207500	0,1	1,441771
4,209167	0,1	1,404605
4,210833	0,1	1,414910
4,212500	0,1	1,455908
4,214167	0,1	1,423222
4,215833	0,1	1,400837
4,217500	0,1	1,408556
4,219167	0,1	1,404240
4,220833	0,1	1,439099
4,222500	0,1	1,363286
4,224167	0,1	1,378344
4,225833	0,1	1,416753
4,227500	0,1	1,395700
4,229167	0,1	1,396376
4,230833	0,1	1,410265
4,232500	0,1	1,401529
4,234167	0,1	1,402119
4,235833	0,1	1,379082
4,237500	0,1	1,323333
4,239167	0,1	1,320628
4,240833	0,1	1,399372
4,242500	0,1	1,360058
4,244167	0,1	1,368416
4,245833	0,1	1,332477
4,247500	0,1	1,361722
4,249167	0,1	1,352021
4,250833	0,1	1,327561
4,252500	0,1	1,341224
4,254167	0,1	1,327626
4,255833	0,1	1,305691
4,257500	0,1	1,303939
4,259167	0,1	1,322689
4,260833	0,1	1,317967
4,262500	0,1	1,295797
4,264167	0,1	1,239909
4,265833	0,1	1,233576
4,267500	0,1	1,302737
4,269167	0,1	1,286278
4,270833	0,1	1,260951
4,272500	0,1	1,244998
4,274167	0,1	1,243401
4,275833	0,1	1,260401
4,277500	0,1	1,222527
4,279167	0,1	1,210293
4,280833	0,1	1,197690
4,282500	0,1	1,200682
4,284167	0,1	1,180161
4,285833	0,1	1,196156
4,287500	0,1	1,164605
4,289167	0,1	1,158853
4,290833	0,1	1,176177
4,292500	0,1	1,166577
4,294167	0,1	1,120878
4,295833	0,1	1,150653
4,297500	0,1	1,124332
4,299167	0,1	1,089366
4,300833	0,1	1,126066
4,302500	0,1	1,094045
4,304167	0,1	1,084769
4,305833	0,1	1,095279
4,307500	0,1	1,108036
4,309167	0,1	1,057689
4,310833	0,1	1,056235
4,312500	0,1	1,067769
4,314167	0,1	1,051358
4,315833	0,1	1,033832
4,317500	0,1	1,026110
4,319167	0,1	1,010871
4,320833	0,1	1,018854
4,322500	0,1	0,966917
4,324167	0,1	1,026827
4,325833	0,1	0,981001
4,327500	0,1	0,954267
4,329167	0,1	0,984179
4,330833	0,1	0,955579
4,332500	0,1	0,988590
4,334167	0,1	0,928746
4,335833	0,1	0,933324
4,337500	0,1	0,966546
4,339167	0,1	0,899072
4,340833	0,1	0,904579
4,342500	0,1	0,896839
4,344167	0,1	0,915088
4,345833	0,1	0,898912
4,347500	0,1	0,895617
4,349167	0,1	0,888528
4,350833	0,1	0,888212
4,352500	0,1	0,867087
4,354167	0,1	0,842953
4,355833	0,1	0,874633
4,357500	0,1	0,826869
4,359167	0,1	0,861771
4,360833	0,1	0,811580
4,362500	0,1	0,874216
4,364167	0,1	0,852165
4,365833	0,1	0,816315
4,367500	0,1	0,810049
4,369167	0,1	0,817041
4,370833	0,1	0,872710
4,372500	0,1	0,813396
4,374167	0,1	0,795158
4,375833	0,1	0,758097
4,377500	0,1	0,802833
4,379167	0,1	0,791785
4,380833	0,1	0,744699
4,382500	0,1	0,727008
4,384167	0,1	0,768681
4,385833	0,1	0,727144
4,387500	0,1	0,782702
4,389167	0,1	0,774134
4,390833	0,1	0,792577
4,392500	0,1	0,742801
4,394167	0,1	0,740514
4,395833	0,1	0,742080
4,397500	0,1	0,723534
4,399167	0,1	0,722196
4,400833	0,1	0,698957
4,402500	0,1	0,721148
4,404167	0,1	0,712641
4,405833	0,1	0,713569
4,407500	0,1	0,701648
4,409167	0,1	0,724392
4,410833	0,1	0,719711
4,412500	0,1	0,725904
4,414167	0,1	0,664572
4,415833	0,1	0,706553
4,417500	0,1	0,671059
4,419167	0,1	0,635711
4,420833	0,1	0,674153
4,422500	0,1	0,652508
4,424167	0,1	0,645817
4,425833	0,1	0,666703
4,427500	0,1	0,642095
4,429167	0,1	0,691376
4,430833	0,1	0,640751
4,432500	0,1	0,662241
4,434167	0,1	0,659416
4,435833	0,1	0,673321
4,437500	0,1	0,609520
4,439167	0,1	0,600703
4,440833	0,1	0,619431
4,442500	0,1	0,626407
4,444167	0,1	0,598524
4,445833	0,1	0,616440
4,447500	0,1	0,609312
4,449167	0,1	0,622003
4,450833	0,1	0,576868
4,452500	0,1	0,572744
4,454167	0,1	0,570173
4,455833	0,1	0,579232
4,457500	0,1	0,606962
4,459167	0,1	0,579434
4,460833	0,1	0,578110
4,462500	0,1	0,590317
4,464167	0,1	0,541331
4,465833	0,1	0,549864
4,467500	0,1	0,578103
4,469167	0,1	0,564491
4,470833	0,1	0,559990
4,472500	0,1	0,563425
4,474167	0,1	0,536732
4,475833	0,1	0,536114
4,477500	0,1	0,569199
4,479167	0,1	0,528061
4,480833	0,1	0,521401
4,482500	0,1	0,525896
4,484167	0,1	0,512085
4,485833	0,1	0,550564
4,487500	0,1	0,526802
4,489167	0,1	0,498885
4,490833	0,1	0,495440
4,492500	0,1	0,527110
4,494167	0,1	0,469430
4,495833	0,1	0,526783
4,497500	0,1	0,476404
4,499167	0,1	0,479891
4,500833	0,1	0,473179
4,502500	0,1	0,467942
4,504167	0,1	0,489621
4,505833	0,1	0,494925
4,507500	0,1	0,502891
4,509167	0,1	0,461718
4,510833	0,1	0,470315
4,512500	0,1	0,470575
4,514167	0,1	0,424329
4,515833	0,1	0,465265
4,517500	0,1	0,451368
4,519167	0,1	0,466074
4,520833	0,1	0,464215
4,522500	0,1	0,469289
4,524167	0,1	0,452973
4,525833	0,1	0,440190
4,527500	0,1	0,478470
4,529167	0,1	0,429050
4,530833	0,1	0,451423
4,532500	0,1	0,392658
4,534167	0,1	0,453984
4,535833	0,1	0,423910
4,537500	0,1	0,418118
4,539167	0,1	0,386779
4,540833	0,1	0,402536
4,542500	0,1	0,408930
4,544167	0,1	0,440180
4,545833	0,1	0,414301
4,547500	0,1	0,382570
4,549167	0,1	0,374278
4,550833	0,1	0,378738
4,552500	0,1	0,379896
4,554167	0,1	0,392259
4,555833	0,1	0,349907
4,557500	0,1	0,341231
4,559167	0,1	0,328096
4,560833	0,1	0,355290
4,562500	0,1	0,403622
4,564167	0,1	0,378236
4,565833	0,1	0,380890
4,567500	0,1	0,392323
4,569167	0,1	0,396406
4,570833	0,1	0,371903
4,572500	0,1	0,357290
4,574167	0,1	0,320647
4,575833	0,1	0,350151
4,577500	0,1	0,349254
4,579167	0,1	0,347010
4,580833	0,1	0,337116
4,582500	0,1	0,344085
4,584167	0,1	0,310370
4,585833	0,1	0,363795
4,587500	0,1	0,348008
4,589167	0,1	0,317688
4,590833	0,1	0,312354
4,592500	0,1	0,293415
4,594167	0,1	0,331295
4,595833	0,1	0,313135
4,597500	0,1	0,309306
4,599167	0,1	0,305035
4,600833	0,1	0,324018
4,602500	0,1	0,299930
4,604167	0,1	0,319675
4,605833	0,1	0,334131
4,607500	0,1	0,274222
4,609167	0,1	0,328624
4,610833	0,1	0,279104
4,612500	0,1	0,274461
4,614167	0,1	0,285648
4,615833	0,1	0,252282
4,617500	0,1	0,294043
4,619167	0,1	0,278281
4,620833	0,1	0,311676
4,622500	0,1	0,300705
4,624167	0,1	0,250899
4,625833	0,1	0,273019
4,627500	0,1	0,275228
4,629167	0,1	0,267951
4,630833	0,1	0,254857
4,632500	0,1	0,254074
4,634167	0,1	0,261109
4,635833	0,1	0,289335
4,637500	0,1	0,210149
4,639167	0,1	0,254642
4,640833	0,1	0,252499
4,642500	0,1	0,248721
4,644167	0,1	0,270966
4,645833	0,1	0,234665
4,647500	0,1	0,245912
4,649167	0,1	0,239759
4,650833	0,1	0,233424
4,652500	0,1	0,259757
4,654167	0,1	0,225662
4,655833	0,1	0,224283
4,657500	0,1	0,250668
4,659167	0,1	0,262908
4,660833	0,1	0,219117
4,662500	0,1	0,208484
4,664167	0,1	0,270413
4,665833	0,1	0,233722
4,667500	0,1	0,257831
4,669167	0,1	0,224529
4,670833	0,1	0,229896
4,672500	0,1	0,206975
4,674167	0,1	0,214838
4,675833	0,1	0,227805
4,677500	0,1	0,253978
4,679167	0,1	0,209171
4,680833	0,1	0,198764
4,682500	0,1	0,235505
4,684167	0,1	0,213372
4,685833	0,1	0,225966
4,687500	0,1	0,192914
4,689167	0,1	0,231400
4,690833	0,1	0,196995
4,692500	0,1	0,213942
4,694167	0,1	0,237057
4,695833	0,1	0,208376
4,697500	0,1	0,220451
4,699167	0,1	0,206016
4,700833	0,1	0,187562
4,702500	0,1	0,181615
4,704167	0,1	0,168613
4,705833	0,1	0,210044
4,707500	0,1	0,189903
4,709167	0,1	0,145842
4,710833	0,1	0,207345
4,712500	0,1	0,217154
4,714167	0,1	0,213682
4,715833	0,1	0,189652
4,717500	0,1	0,177561
4,719167	0,1	0,179296
4,720833	0,1	0,183462
4,722500	0,1	0,183603
4,724167	0,1	0,176644
4,725833	0,1	0,173707
4,727500	0,1	0,190082
4,729167	0,1	0,194377
4,730833	0,1	0,160913
4,732500	0,1	0,130259
4,734167	0,1	0,196921
4,735833	0,1	0,185281
4,737500	0,1	0,177826
4,739167	0,1	0,224573
4,740833	0,1	0,161562
4,742500	0,1	0,191879
4,744167	0,1	0,179690
4,745833	0,1	0,136165
4,747500	0,1	0,174933
4,749167	0,1	0,163185
4,750833	0,1	0,180867
4,752500	0,1	0,163640
4,754167	0,1	0,177986
4,755833	0,1	0,123164
4,757500	0,1	0,164121
4,759167	0,1	0,091751
4,760833	0,1	0,171111
4,762500	0,1	0,156703
4,764167	0,1	0,153405
4,765833	0,1	0,143823
4,767500	0,1	0,187131
4,769167	0,1	0,153810
4,770833	0,1	0,130673
4,772500	0,1	0,170010
4,774167	0,1	0,139997
4,775833	0,1	0,155552
4,777500	0,1	0,128544
4,779167	0,1	0,191355
4,780833	0,1	0,160887
4,782500	0,1	0,196561
4,784167	0,1	0,097603
4,785833	0,1	0,171010
4,787500	0,1	0,134942
4,789167	0,1	0,120132
4,790833	0,1	0,136463
4,792500	0,1	0,132970
4,794167	0,1	0,129610
4,795833	0,1	0,138057
4,797500	0,1	0,172100
4,799167	0,1	0,107572
4,800833	0,1	0,138943
4,802500	0,1	0,113465
4,804167	0,1	0,171555
4,805833	0,1	0,129807
4,807500	0,1	0,177171
4,809167	0,1	0,156250
4,810833	0,1	0,160362
4,812500	0,1	0,131417
4,814167	0,1	0,100627
4,815833	0,1	0,134675
4,817500	0,1	0,167897
4,819167	0,1	0,110409
4,820833	0,1	0,109028
4,822500	0,1	0,094884
4,824167	0,1	0,121899
4,825833	0,1	0,099466
4,827500	0,1	0,100640
4,829167	0,1	0,090889
4,830833	0,1	0,129021
4,832500	0,1	0,132756
4,834167	0,1	0,117894
4,835833	0,1	0,120787
4,837500	0,1	0,115386
4,839167	0,1	0,153871
4,840833	0,1	0,112390
4,842500	0,1	0,111533
4,844167	0,1	0,097764
4,845833	0,1	0,090556
4,847500	0,1	0,122956
4,849167	0,1	0,098949
4,850833	0,1	0,117698
4,852500	0,1	0,101616
4,854167	0,1	0,095712
4,855833	0,1	0,119231
4,857500	0,1	0,107910
4,859167	0,1	0,134200
4,860833	0,1	0,116257
4,862500	0,1	0,087951
4,864167	0,1	0,135667
4,865833	0,1	0,130065
4,867500	0,1	0,112179
4,869167	0,1	0,102361
4,870833	0,1	0,117720
4,872500	0,1	0,100499
4,874167	0,1	0,096104
4,875833	0,1	0,091820
4,877500	0,1	0,083806
4,879167	0,1	0,120404
4,880833	0,1	0,101596
4,882500	0,1	0,084783
4,884167	0,1	0,107572
4,885833	0,1	0,116188
4,887500	0,1	0,089422
4,889167	0,1	0,107302
4,890833	0,1	0,074164
4,892500	0,1	0,088170
4,894167	0,1	0,105522
4,895833	0,1	0,076253
4,897500	0,1	0,063224
4,899167	0,1	0,069121
4,900833	0,1	0,102639
4,902500	0,1	0,089647
4,904167	0,1	0,083744
4,905833	0,1	0,093657
4,907500	0,1	0,092064
4,909167	0,1	0,151502
4,910833	0,1	0,096326
4,912500	0,1	0,111693
4,914167	0,1	0,114305
4,915833	0,1	0,106313
4,917500	0,1	0,092236
4,919167	0,1	0,089458
4,920833	0,1	0,095441
4,922500	0,1	0,129414
4,924167	0,1	0,134018
4,925833	0,1	0,105738
4,927500	0,1	0,117825
4,929167	0,1	0,078699
4,930833	0,1	0,086927
4,932500	0,1	0,094424
4,934167	0,1	0,077161
4,935833	0,1	0,093718
4,937500	0,1	0,071283
4,939167	0,1	0,106945
4,940833	0,1	0,111594
4,942500	0,1	0,090312
4,944167	0,1	0,096431
4,945833	0,1	0,097056
4,947500	0,1	0,080040
4,949167	0,1	0,096348
4,950833	0,1	0,076044
4,952500	0,1	0,107588
4,954167	0,1	0,085031
4,955833	0,1	0,122084
4,957500	0,1	0,098512
4,959167	0,1	0,100619
4,960833	0,1	0,115444
4,962500	0,1	0,069651
4,964167	0,1	0,107319
4,965833	0,1	0,067622
4,967500	0,1	0,078853
4,969167	0,1	0,084632
4,970833	0,1	0,116082
4,972500	0,1	0,082817
4,974167	0,1	0,096827
4,975833	0,1	0,094531
4,977500	0,1	0,130243
4,979167	0,1	0,098410
4,980833	0,1	0,076769
4,982500	0,1	0,102726
4,984167	0,1	0,084097
4,985833	0,1	0,071693
4,987500	0,1	0,098789
4,989167	0,1	0,094513
4,990833	0,1	0,110801
4,992500	0,1	0,082486
4,994167	0,1	0,074757
4,995833	0,1	0,048981
4,997500	0,1	0,097523
4,999167	0,1	0,080661
5,000833	0,1	0,068565
5,002500	0,1	0,094794
5,004167	0,1	0,074037
5,005833	0,1	0,116118
5,007500	0,1	0,125734
5,009167	0,1	0,092532
5,010833	0,1	0,091072
5,012500	0,1	0,084635
5,014167	0,1	0,089539
5,015833	0,1	0,107240
5,017500	0,1	0,102048
5,019167	0,1	0,083167
5,020833	0,1	0,102024
5,022500	0,1	0,090328
5,024167	0,1	0,080473
5,025833	0,1	0,119307
5,027500	0,1	0,104288
5,029167	0,1	0,081180
5,030833	0,1	0,082190
5,032500	0,1	0,087717
5,034167	0,1	0,075836
5,035833	0,1	0,090758
5,037500	0,1	0,093017
5,039167	0,1	0,099726
5,040833	0,1	0,095423
5,042500	0,1	0,111755
5,044167	0,1	0,069879
5,045833	0,1	0,080530
5,047500	0,1	0,094776
5,049167	0,1	0,099810
5,050833	0,1	0,086745
5,052500	0,1	0,096578
5,054167	0,1	0,098756
5,055833	0,1	0,097927
5,057500	0,1	0,097636
5,059167	0,1	0,079296
5,060833	0,1	0,081031
5,062500	0,1	0,062501
5,064167	0,1	0,086593
5,065833	0,1	0,061757
5,067500	0,1	0,103302
5,069167	0,1	0,104947
5,070833	0,1	0,075198
5,072500	0,1	0,115039
5,074167	0,1	0,063047
5,075833	0,1	0,114606
5,077500	0,1	0,140125
5,079167	0,1	0,073632
5,080833	0,1	0,110757
5,082500	0,1	0,068966
5,084167	0,1	0,094773
5,085833	0,1	0,073146
5,087500	0,1	0,092724
5,089167	0,1	0,066686
5,090833	0,1	0,082062
5,092500	0,1	0,177690
5,094167	0,1	0,072606
5,095833	0,1	0,124211
5,097500	0,1	0,090520
5,099167	0,1	0,094075
5,100833	0,1	0,064224
5,102500	0,1	0,122659
5,104167	0,1	0,096917
5,105833	0,1	0,126558
5,107500	0,1	0,066900
5,109167	0,1	0,112845
5,110833	0,1	0,102818
5,112500	0,1	0,143639
5,114167	0,1	0,072350
5,115833	0,1	0,066206
5,117500	0,1	0,136342
5,119167	0,1	0,099345
5,120833	0,1	0,071654
5,122500	0,1	0,068854
5,124167	0,1	0,069165
5,125833	0,1	0,049104
5,127500	0,1	0,087192
5,129167	0,1	0,099621
5,130833	0,1	0,069379
5,132500	0,1	0,115499
5,134167	0,1	0,075882
5,135833	0,1	0,098852
5,137500	0,1	0,126580
5,139167	0,1	0,086733
5,140833	0,1	0,075420
5,142500	0,1	0,091691
5,144167	0,1	0,049938
5,145833	0,1	0,120997
5,147500	0,1	0,080293
5,149167	0,1	0,063618
5,150833	0,1	0,103053
5,152500	0,1	0,091056
5,154167	0,1	0,090616
5,155833	0,1	0,096538
5,157500	0,1	0,066438
5,159167	0,1	0,104751
5,160833	0,1	0,124344
5,162500	0,1	0,069136
5,164167	0,1	0,086576
5,165833	0,1	0,071094
5,167500	0,1	0,106882
5,169167	0,1	0,062528
5,170833	0,1	0,091438
5,172500	0,1	0,063850
5,174167	0,1	0,059911
5,175833	0,1	0,079470
5,177500	0,1	0,100820
5,179167	0,1	0,098240
5,180833	0,1	0,088963
5,182500	0,1	0,061531
5,184167	0,1	0,076596
5,185833	0,1	0,117176
5,187500	0,1	0,068472
5,189167	0,1	0,111460
5,190833	0,1	0,024999
5,192500	0,1	0,114385
5,194167	0,1	0,115985
5,195833	0,1	0,091036
5,197500	0,1	0,088878
5,199167	0,1	0,056148
5,200833	0,1	0,068229
5,202500	0,1	0,055211
5,204167	0,1	0,060963
5,205833	0,1	0,047013
5,207500	0,1	0,056613
5,209167	0,1	0,040470
5,210833	0,1	0,034338
5,212500	0,1	0,044833
5,214167	0,1	0,077377
5,215833	0,1	0,058444
5,217500	0,1	0,061088
5,219167	0,1	0,092391
5,220833	0,1	0,055092
5,222500	0,1	0,071251
5,224167	0,1	0,041342
5,225833	0,1	0,028606
5,227500	0,1	0,016367
5,229167	0,1	0,067080
5,230833	0,1	0,044241
5,232500	0,1	0,070089
5,234167	0,1	0,070488
5,235833	0,1	0,037534
5,237500	0,1	0,060235
5,239167	0,1	0,036766
5,240833	0,1	0,043757
5,242500	0,1	0,057709
5,244167	0,1	0,088745
5,245833	0,1	0,067016
5,247500	0,1	0,052188
5,249167	0,1	0,061107
5,250833	0,1	0,047695
5,252500	0,1	-0,003705
5,254167	0,1	0,042836
5,255833	0,1	0,042082
5,257500	0,1	0,009436
5,259167	0,1	0,064802
5,260833	0,1	0,067340
5,262500	0,1	0,054156
5,264167	0,1	0,049474
5,265833	0,1	0,033450
5,267500	0,1	0,065244
5,269167	0,1	0,077609
5,270833	0,1	0,028925
5,272500	0,1	0,034211
5,274167	0,1	0,067978
5,275833	0,1	0,032131
5,277500	0,1	0,033839
5,279167	0,1	0,044873
5,280833	0,1	0,003705
5,282500	0,1	-0,009594
5,284167	0,1	0,021907
5,285833	0,1	0,054580
5,287500	0,1	0,011469
5,289167	0,1	0,036153
5,290833	0,1	0,006022
5,292500	0,1	0,024642
5,294167	0,1	-0,037161
5,295833	0,1	0,018630
5,297500	0,1	-0,004271
5,299167	0,1	-0,011003
5,300833	0,1	0,030559
5,302500	0,1	0,040278
5,304167	0,1	-0,008425
5,305833	0,1	0,015283
5,307500	0,1	0,027378
5,309167	0,1	0,024005
5,310833	0,1	-0,018943
5,312500	0,1	-0,005793
5,314167	0,1	0,004499
5,315833	0,1	-0,010070
5,317500	0,1	0,019380
5,319167	0,1	0,028268
5,320833	0,1	-0,016543
5,322500	0,1	0,019856
5,324167	0,1	0,006037
5,325833	0,1	0,013011
5,327500	0,1	-0,020747
5,329167	0,1	0,004725
5,330833	0,1	-0,021372
5,332500	0,1	0,005946
5,334167	0,1	0,005476
5,335833	0,1	-0,006862
5,337500	0,1	-0,020442
5,339167	0,1	-0,052588
5,340833	0,1	0,020945
5,342500	0,1	-0,009651
5,344167	0,1	0,007065
5,345833	0,1	0,000135
5,347500	0,1	-0,032157
5,349167	0,1	0,010971
5,350833	0,1	-0,023628
5,352500	0,1	-0,023384
5,354167	0,1	-0,001674
5,355833	0,1	-0,032529
5,357500	0,1	-0,032083
5,359167	0,1	-0,022582
5,360833	0,1	-0,024999
5,362500	0,1	-0,000081
5,364167	0,1	-0,036920
5,365833	0,1	-0,001987
5,367500	0,1	-0,023152
5,369167	0,1	0,008159
5,370833	0,1	-0,051194
5,372500	0,1	-0,001080
5,374167	0,1	-0,029529
5,375833	0,1	-0,034045
5,377500	0,1	-0,023430
5,379167	0,1	-0,016658
5,380833	0,1	0,024388
5,382500	0,1	-0,024594
5,384167	0,1	-0,020385
5,385833	0,1	-0,034852
5,387500	0,1	0,015772
5,389167	0,1	-0,031365
5,390833	0,1	-0,036056
5,392500	0,1	-0,001159
5,394167	0,1	-0,014148
5,395833	0,1	-0,036941
5,397500	0,1	-0,056424
5,399167	0,1	-0,049574
5,400833	0,1	-0,013995
5,402500	0,1	-0,032511
5,404167	0,1	-0,018191
5,405833	0,1	-0,019267
5,407500	0,1	-0,058608
5,409167	0,1	-0,012799
5,410833	0,1	-0,012850
5,412500	0,1	-0,053062
5,414167	0,1	-0,068741
5,415833	0,1	-0,004849
5,417500	0,1	-0,057120
5,419167	0,1	-0,085941
5,420833	0,1	-0,031660
5,422500	0,1	-0,042473
5,424167	0,1	-0,056899
5,425833	0,1	-0,050568
5,427500	0,1	-0,035045
5,429167	0,1	-0,042185
5,430833	0,1	-0,032124
5,432500	0,1	-0,045718
5,434167	0,1	-0,056258
5,435833	0,1	-0,034405
5,437500	0,1	-0,030506
5,439167	0,1	-0,026964
5,440833	0,1	-0,011485
5,442500	0,1	-0,051364
5,444167	0,1	-0,061762
5,445833	0,1	-0,039001
5,447500	0,1	-0,036449
5,449167	0,1	-0,074158
5,450833	0,1	-0,052206
5,452500	0,1	-0,074330
5,454167	0,1	-0,094408
5,455833	0,1	-0,086653
5,457500	0,1	-0,027805
5,459167	0,1	-0,036797
5,460833	0,1	-0,056873
5,462500	0,1	-0,077909
5,464167	0,1	-0,043084
5,465833	0,1	-0,048867
5,467500	0,1	-0,037093
5,469167	0,1	-0,055429
5,470833	0,1	-0,037469
5,472500	0,1	-0,026990
5,474167	0,1	-0,092946
5,475833	0,1	-0,074480
5,477500	0,1	-0,038321
5,479167	0,1	-0,041623
5,480833	0,1	-0,061804
5,482500	0,1	-0,033350
5,484167	0,1	-0,057205
5,485833	0,1	-0,069734
5,487500	0,1	-0,047635
5,489167	0,1	-0,040404
5,490833	0,1	-0,017015
5,492500	0,1	-0,072459
5,494167	0,1	-0,054508
5,495833	0,1	-0,077678
5,497500	0,1	-0,062208
5,499167	0,1	-0,063586
5,500833	0,1	-0,061975
5,502500	0,1	-0,046658
5,504167	0,1	-0,058141
5,505833	0,1	-0,050030
5,507500	0,1	-0,049510
5,509167	0,1	-0,015402
5,510833	0,1	-0,058319
5,512500	0,1	-0,057317
5,514167	0,1	-0,064786
5,515833	0,1	-0,031031
5,517500	0,1	-0,084668
5,519167	0,1	-0,026027
5,520833	0,1	-0,047580
5,522500	0,1	-0,060170
5,524167	0,1	-0,059884
5,525833	0,1	-0,061271
5,527500	0,1	-0,102622
5,529167	0,1	-0,089387
5,530833	0,1	-0,029877
5,532500	0,1	-0,020283
5,534167	0,1	-0,066184
5,535833	0,1	-0,082049
5,537500	0,1	-0,108232
5,539167	0,1	-0,078439
5,540833	0,1	-0,071146
5,542500	0,1	-0,052829
5,544167	0,1	-0,110441
5,545833	0,1	-0,053024
5,547500	0,1	-0,049782
5,549167	0,1	-0,062633
5,550833	0,1	-0,084967
5,552500	0,1	-0,056514
5,554167	0,1	-0,037445
5,555833	0,1	-0,056713
5,557500	0,1	-0,094527
5,559167	0,1	-0,064487
5,560833	0,1	-0,063365
5,562500	0,1	-0,074411
5,564167	0,1	-0,071251
5,565833	0,1	-0,063526
5,567500	0,1	-0,092128
5,569167	0,1	-0,044449
5,570833	0,1	-0,099779
5,572500	0,1	-0,034495
5,574167	0,1	-0,087219
5,575833	0,1	-0,074252
5,577500	0,1	-0,068844
5,579167	0,1	-0,094715
5,580833	0,1	-0,068356
5,582500	0,1	-0,092068
5,584167	0,1	-0,089676
5,585833	0,1	-0,094393
5,587500	0,1	-0,091494
5,589167	0,1	-0,077749
5,590833	0,1	-0,087141
5,592500	0,1	-0,062351
5,594167	0,1	-0,070458
5,595833	0,1	-0,086295
5,597500	0,1	-0,046188
5,599167	0,1	-0,083240
5,600833	0,1	-0,059265
5,602500	0,1	-0,057026
5,604167	0,1	-0,082873
5,605833	0,1	-0,094410
5,607500	0,1	-0,036689
5,609167	0,1	-0,032493
5,610833	0,1	-0,091145
5,612500	0,1	-0,081125
5,614167	0,1	-0,073177
5,615833	0,1	-0,063552
5,617500	0,1	-0,097261
5,619167	0,1	-0,070965
5,620833	0,1	-0,101560
5,622500	0,1	-0,098387
5,624167	0,1	-0,063328
5,625833	0,1	-0,081883
5,627500	0,1	-0,066779
5,629167	0,1	-0,100469
5,630833	0,1	-0,063020
5,632500	0,1	-0,087076
5,634167	0,1	-0,086774
5,635833	0,1	-0,066245
5,637500	0,1	-0,069341
5,639167	0,1	-0,111621
5,640833	0,1	-0,102923
5,642500	0,1	-0,085223
5,644167	0,1	-0,043850
5,645833	0,1	-0,090490
5,647500	0,1	-0,044802
5,649167	0,1	-0,032124
5,650833	0,1	-0,081172
5,652500	0,1	-0,091219
5,654167	0,1	-0,046436
5,655833	0,1	-0,044068
5,657500	0,1	-0,092062
5,659167	0,1	-0,090897
5,660833	0,1	-0,059600
5,662500	0,1	-0,108149
5,664167	0,1	-0,048532
5,665833	0,1	-0,051479
5,667500	0,1	-0,059611
5,669167	0,1	-0,046905
5,670833	0,1	-0,078072
5,672500	0,1	-0,074706
5,674167	0,1	-0,074352
5,675833	0,1	-0,061417
5,677500	0,1	-0,122463
5,679167	0,1	-0,048930
5,680833	0,1	-0,109403
5,682500	0,1	-0,011214
5,684167	0,1	-0,061173
5,685833	0,1	-0,061871
5,687500	0,1	-0,041649
5,689167	0,1	-0,073826
5,690833	0,1	-0,066382
5,692500	0,1	-0,100119
5,694167	0,1	-0,046314
5,695833	0,1	-0,085313
5,697500	0,1	-0,122760
5,699167	0,1	-0,065488
5,700833	0,1	-0,077681
5,702500	0,1	-0,044675
5,704167	0,1	-0,060292
5,705833	0,1	-0,026539
5,707500	0,1	-0,046835
5,709167	0,1	-0,050731
5,710833	0,1	-0,041750
5,712500	0,1	-0,018941
5,714167	0,1	-0,022476
5,715833	0,1	-0,043088
5,717500	0,1	-0,042533
5,719167	0,1	-0,019065
5,720833	0,1	-0,079533
5,722500	0,1	-0,037845
5,724167	0,1	-0,037485
5,725833	0,1	-0,025356
5,727500	0,1	-0,059338
5,729167	0,1	-0,040469
5,730833	0,1	-0,021051
5,732500	0,1	-0,038596
5,734167	0,1	-0,004015
5,735833	0,1	-0,016674
5,737500	0,1	-0,038990
5,739167	0,1	-0,066110
5,740833	0,1	-0,024801
5,742500	0,1	-0,023469
5,744167	0,1	-0,033008
5,745833	0,1	-0,013535
5,747500	0,1	-0,016447
5,749167	0,1	-0,033339
5,750833	0,1	-0,030776
5,752500	0,1	-0,016495
5,754167	0,1	-0,023944
5,755833	0,1	-0,084297
5,757500	0,1	-0,053042
5,759167	0,1	0,019122
5,760833	0,1	-0,001208
5,762500	0,1	-0,028950
5,764167	0,1	-0,028044
5,765833	0,1	-0,046260
5,767500	0,1	-0,029496
5,769167	0,1	-0,029265
5,770833	0,1	-0,033427
5,772500	0,1	-0,046651
5,774167	0,1	-0,020390
5,775833	0,1	-0,007860
5,777500	0,1	-0,029449
5,779167	0,1	0,013374
5,780833	0,1	-0,033146
5,782500	0,1	-0,018111
5,784167	0,1	-0,026511
5,785833	0,1	-0,039424
5,787500	0,1	-0,015028
5,789167	0,1	-0,029033
5,790833	0,1	-0,033983
5,792500	0,1	-0,013164
5,794167	0,1	-0,013324
5,795833	0,1	-0,031643
5,797500	0,1	-0,037278
5,799167	0,1	-0,021197
5,800833	0,1	-0,050972
5,802500	0,1	-0,020824
5,804167	0,1	-0,013803
5,805833	0,1	-0,028311
5,807500	0,1	-0,007282
5,809167	0,1	-0,001897
5,810833	0,1	-0,013715
5,812500	0,1	0,041984
5,814167	0,1	-0,029766
5,815833	0,1	-0,037377
5,817500	0,1	-0,025150
5,819167	0,1	-0,018483
5,820833	0,1	0,007788
5,822500	0,1	-0,039440
5,824167	0,1	-0,079064
5,825833	0,1	-0,019591
5,827500	0,1	0,001535
5,829167	0,1	-0,042546
5,830833	0,1	-0,002091
5,832500	0,1	-0,005560
5,834167	0,1	-0,026920
5,835833	0,1	-0,012809
5,837500	0,1	-0,025164
5,839167	0,1	-0,061122
5,840833	0,1	-0,021429
5,842500	0,1	-0,007675
5,844167	0,1	-0,027253
5,845833	0,1	-0,009954
5,847500	0,1	-0,019907
5,849167	0,1	-0,042366
5,850833	0,1	-0,055036
5,852500	0,1	-0,019191
5,854167	0,1	-0,057720
5,855833	0,1	-0,027698
5,857500	0,1	-0,015044
5,859167	0,1	-0,013159
5,860833	0,1	-0,021833
5,862500	0,1	-0,037357
5,864167	0,1	-0,074369
5,865833	0,1	-0,034618
5,867500	0,1	-0,009168
5,869167	0,1	-0,010362
5,870833	0,1	-0,050623
5,872500	0,1	-0,022298
5,874167	0,1	-0,006206
5,875833	0,1	-0,038493
5,877500	0,1	-0,047669
5,879167	0,1	-0,061041
5,880833	0,1	-0,007561
5,882500	0,1	-0,021726
5,884167	0,1	-0,004116
5,885833	0,1	-0,030025
5,887500	0,1	-0,060622
5,889167	0,1	-0,040222
5,890833	0,1	-0,040859
5,892500	0,1	-0,062796
5,894167	0,1	-0,074184
5,895833	0,1	-0,049560
5,897500	0,1	-0,053922
5,899167	0,1	-0,038069
5,900833	0,1	0,000186
5,902500	0,1	-0,054034
5,904167	0,1	-0,054484
5,905833	0,1	-0,045933
5,907500	0,1	-0,023889
5,909167	0,1	-0,030880
5,910833	0,1	-0,060729
5,912500	0,1	-0,067045
5,914167	0,1	-0,046413
5,915833	0,1	-0,017182
5,917500	0,1	-0,060947
5,919167	0,1	-0,034221
5,920833	0,1	-0,012461
5,922500	0,1	-0,058034
5,924167	0,1	-0,040468
5,925833	0,1	-0,072753
5,927500	0,1	-0,049145
5,929167	0,1	-0,037055
5,930833	0,1	-0,076997
5,932500	0,1	-0,011932
5,934167	0,1	-0,099718
5,935833	0,1	-0,075686
5,937500	0,1	-0,045687
5,939167	0,1	-0,063150
5,940833	0,1	-0,024700
5,942500	0,1	-0,018048
5,944167	0,1	-0,027650
5,945833	0,1	-0,055595
5,947500	0,1	-0,048149
5,949167	0,1	-0,062719
5,950833	0,1	-0,030931
5,952500	0,1	-0,068033
5,954167	0,1	-0,062021
5,955833	0,1	-0,075616
5,957500	0,1	-0,036087
5,959167	0,1	-0,075030
5,960833	0,1	-0,085197
5,962500	0,1	-0,023816
5,964167	0,1	-0,061035
5,965833	0,1	-0,077126
5,967500	0,1	-0,024062
5,969167	0,1	-0,043816
5,970833	0,1	-0,080637
5,972500	0,1	0,003322
5,974167	0,1	-0,088220
5,975833	0,1	-0,073733
5,977500	0,1	-0,063322
5,979167	0,1	-0,077891
5,980833	0,1	-0,056846
5,982500	0,1	-0,091608
5,984167	0,1	-0,065436
5,985833	0,1	-0,071890
5,987500	0,1	-0,037493
5,989167	0,1	-0,034091
5,990833	0,1	-0,063271
5,992500	0,1	-0,070167
5,994167	0,1	-0,042687
5,995833	0,1	-0,072773
5,997500	0,1	-0,094178
5,999167	0,1	-0,074279
6,000833	0,1	-0,048504
