File Path	chrom://chromeleon01/ikbm_chromeleon/2022/Rezex/Esteban/220612_chitin_4_7.seq/793.smp/UV_VIS_1.channel/UV_VIS_1.chm
Channel	UV_VIS_1

Injection Information:
Data Vault	ikbm_chromeleon
Injection	4_00.5h-EGS_3
Injection Number	105
Position	BA8
Comment	
Processing Method	New ProcMethod
Instrument Method	Short_Rezex_6min_194nm
Type	Unknown
Status	Finished
Injection Date	13.06.2022
Injection Time	04:27:38
Injection Volume (µl)	8,000
Dilution Factor	1,0000
Weight	1,0000

Chromatogram Data Information:
Time Min. (min)	0,000833
Time Max. (min)	6,000833
Data Points	3601
Detector	UV
Generating Data System	Chromeleon 7.2.9.11323
Exporting Data System	Chromeleon 7.2.9.0
Operator	Instrument Controller
Signal Quantity	Absorbance
Signal Unit	mAU
Signal Min.	-0,101670
Signal Max.	105,989238
Channel	UV_VIS_1
Driver Name	VWD3000.dll
Channel Type	Evaluation
Min. Step (s)	0,1
Max. Step (s)	0,1
Average Step (s)	0,1

Signal Parameter Information:
Signal Info	WVL:194 nm

Chromatogram Data:
Time (min)	Step (s)	Value (mAU)
0,000833	n.a.	-0,020542
0,002500	0,1	-0,053504
0,004167	0,1	-0,020797
0,005833	0,1	-0,002124
0,007500	0,1	-0,033700
0,009167	0,1	-0,033746
0,010833	0,1	-0,001154
0,012500	0,1	-0,010707
0,014167	0,1	-0,048703
0,015833	0,1	-0,033028
0,017500	0,1	-0,013218
0,019167	0,1	-0,031984
0,020833	0,1	-0,059612
0,022500	0,1	-0,024359
0,024167	0,1	-0,041423
0,025833	0,1	-0,049413
0,027500	0,1	-0,049415
0,029167	0,1	-0,050409
0,030833	0,1	-0,071224
0,032500	0,1	-0,088239
0,034167	0,1	-0,077754
0,035833	0,1	-0,060618
0,037500	0,1	-0,062785
0,039167	0,1	-0,085523
0,040833	0,1	-0,062314
0,042500	0,1	-0,088713
0,044167	0,1	-0,101670
0,045833	0,1	-0,039435
0,047500	0,1	-0,065116
0,049167	0,1	-0,036590
0,050833	0,1	-0,076870
0,052500	0,1	-0,028957
0,054167	0,1	-0,021600
0,055833	0,1	-0,046448
0,057500	0,1	-0,004510
0,059167	0,1	-0,035330
0,060833	0,1	-0,046225
0,062500	0,1	-0,042649
0,064167	0,1	-0,018126
0,065833	0,1	-0,066166
0,067500	0,1	-0,017698
0,069167	0,1	-0,036622
0,070833	0,1	-0,000575
0,072500	0,1	-0,062338
0,074167	0,1	-0,037707
0,075833	0,1	-0,040679
0,077500	0,1	-0,035819
0,079167	0,1	-0,032401
0,080833	0,1	-0,014231
0,082500	0,1	-0,026087
0,084167	0,1	0,010042
0,085833	0,1	-0,005036
0,087500	0,1	-0,013605
0,089167	0,1	-0,006118
0,090833	0,1	-0,024223
0,092500	0,1	-0,024559
0,094167	0,1	-0,013879
0,095833	0,1	-0,002661
0,097500	0,1	-0,011410
0,099167	0,1	0,016938
0,100833	0,1	-0,041369
0,102500	0,1	0,013785
0,104167	0,1	-0,044312
0,105833	0,1	-0,070606
0,107500	0,1	-0,070361
0,109167	0,1	-0,040254
0,110833	0,1	-0,033729
0,112500	0,1	-0,065159
0,114167	0,1	-0,020967
0,115833	0,1	-0,056114
0,117500	0,1	-0,023488
0,119167	0,1	-0,069770
0,120833	0,1	-0,084057
0,122500	0,1	-0,073694
0,124167	0,1	-0,070880
0,125833	0,1	-0,034231
0,127500	0,1	-0,020630
0,129167	0,1	-0,057520
0,130833	0,1	-0,036094
0,132500	0,1	-0,101059
0,134167	0,1	-0,057021
0,135833	0,1	-0,023655
0,137500	0,1	-0,008893
0,139167	0,1	-0,013070
0,140833	0,1	-0,030618
0,142500	0,1	0,000396
0,144167	0,1	-0,009176
0,145833	0,1	-0,067612
0,147500	0,1	-0,097905
0,149167	0,1	0,003631
0,150833	0,1	-0,056458
0,152500	0,1	-0,034375
0,154167	0,1	-0,033210
0,155833	0,1	-0,016758
0,157500	0,1	-0,052264
0,159167	0,1	0,006992
0,160833	0,1	0,005290
0,162500	0,1	-0,049402
0,164167	0,1	-0,012209
0,165833	0,1	-0,042535
0,167500	0,1	-0,006766
0,169167	0,1	-0,015986
0,170833	0,1	-0,027803
0,172500	0,1	-0,001196
0,174167	0,1	-0,016253
0,175833	0,1	0,001788
0,177500	0,1	-0,050168
0,179167	0,1	-0,079669
0,180833	0,1	-0,009030
0,182500	0,1	-0,020021
0,184167	0,1	-0,042890
0,185833	0,1	-0,019574
0,187500	0,1	-0,014498
0,189167	0,1	-0,010297
0,190833	0,1	-0,017518
0,192500	0,1	-0,022404
0,194167	0,1	-0,033145
0,195833	0,1	-0,003990
0,197500	0,1	0,016711
0,199167	0,1	-0,023614
0,200833	0,1	-0,007857
0,202500	0,1	-0,030367
0,204167	0,1	-0,050096
0,205833	0,1	0,013616
0,207500	0,1	0,003884
0,209167	0,1	-0,042823
0,210833	0,1	-0,038985
0,212500	0,1	0,005632
0,214167	0,1	-0,004166
0,215833	0,1	-0,048701
0,217500	0,1	-0,014093
0,219167	0,1	-0,031778
0,220833	0,1	0,001289
0,222500	0,1	-0,041873
0,224167	0,1	-0,011463
0,225833	0,1	0,009633
0,227500	0,1	-0,020741
0,229167	0,1	-0,023585
0,230833	0,1	-0,004567
0,232500	0,1	0,007088
0,234167	0,1	-0,013417
0,235833	0,1	-0,007275
0,237500	0,1	-0,039162
0,239167	0,1	-0,000371
0,240833	0,1	-0,019005
0,242500	0,1	-0,009077
0,244167	0,1	-0,045663
0,245833	0,1	-0,046745
0,247500	0,1	0,027194
0,249167	0,1	-0,017694
0,250833	0,1	-0,010484
0,252500	0,1	-0,039907
0,254167	0,1	-0,004406
0,255833	0,1	0,015862
0,257500	0,1	-0,013021
0,259167	0,1	-0,017496
0,260833	0,1	-0,007171
0,262500	0,1	0,004955
0,264167	0,1	-0,002719
0,265833	0,1	0,016608
0,267500	0,1	-0,020368
0,269167	0,1	0,021135
0,270833	0,1	-0,017324
0,272500	0,1	-0,015989
0,274167	0,1	0,001974
0,275833	0,1	-0,018342
0,277500	0,1	-0,045288
0,279167	0,1	-0,039669
0,280833	0,1	-0,044178
0,282500	0,1	-0,046701
0,284167	0,1	0,041224
0,285833	0,1	-0,010160
0,287500	0,1	-0,030780
0,289167	0,1	-0,041239
0,290833	0,1	-0,000722
0,292500	0,1	-0,016400
0,294167	0,1	-0,015015
0,295833	0,1	-0,028259
0,297500	0,1	-0,026835
0,299167	0,1	0,017409
0,300833	0,1	-0,027504
0,302500	0,1	-0,025178
0,304167	0,1	-0,012057
0,305833	0,1	-0,017456
0,307500	0,1	-0,031817
0,309167	0,1	0,001515
0,310833	0,1	-0,015900
0,312500	0,1	0,014721
0,314167	0,1	-0,028749
0,315833	0,1	-0,033953
0,317500	0,1	0,013145
0,319167	0,1	-0,006916
0,320833	0,1	0,007502
0,322500	0,1	-0,016150
0,324167	0,1	-0,006737
0,325833	0,1	-0,037237
0,327500	0,1	-0,016076
0,329167	0,1	-0,012740
0,330833	0,1	0,002492
0,332500	0,1	0,026999
0,334167	0,1	-0,015646
0,335833	0,1	-0,005060
0,337500	0,1	-0,002948
0,339167	0,1	-0,000319
0,340833	0,1	-0,008887
0,342500	0,1	-0,013460
0,344167	0,1	0,002120
0,345833	0,1	0,004421
0,347500	0,1	0,024123
0,349167	0,1	0,019057
0,350833	0,1	0,019905
0,352500	0,1	-0,009419
0,354167	0,1	-0,001604
0,355833	0,1	-0,009777
0,357500	0,1	0,020766
0,359167	0,1	-0,017098
0,360833	0,1	-0,010050
0,362500	0,1	0,038958
0,364167	0,1	-0,022514
0,365833	0,1	0,028523
0,367500	0,1	-0,008177
0,369167	0,1	0,050857
0,370833	0,1	0,041041
0,372500	0,1	0,010368
0,374167	0,1	0,025159
0,375833	0,1	-0,027484
0,377500	0,1	0,004702
0,379167	0,1	0,028468
0,380833	0,1	-0,006023
0,382500	0,1	0,006281
0,384167	0,1	0,022716
0,385833	0,1	0,009951
0,387500	0,1	0,008644
0,389167	0,1	-0,011969
0,390833	0,1	0,019814
0,392500	0,1	0,011110
0,394167	0,1	0,029712
0,395833	0,1	0,017010
0,397500	0,1	-0,004495
0,399167	0,1	0,017021
0,400833	0,1	0,022759
0,402500	0,1	0,003369
0,404167	0,1	0,015017
0,405833	0,1	-0,017635
0,407500	0,1	0,038811
0,409167	0,1	0,015252
0,410833	0,1	0,043910
0,412500	0,1	0,038247
0,414167	0,1	0,060184
0,415833	0,1	0,022293
0,417500	0,1	-0,023492
0,419167	0,1	0,033429
0,420833	0,1	0,013636
0,422500	0,1	0,007548
0,424167	0,1	0,039852
0,425833	0,1	0,046979
0,427500	0,1	0,045884
0,429167	0,1	0,006127
0,430833	0,1	0,004462
0,432500	0,1	0,043452
0,434167	0,1	0,011134
0,435833	0,1	0,040743
0,437500	0,1	0,026407
0,439167	0,1	-0,025127
0,440833	0,1	0,034152
0,442500	0,1	0,035305
0,444167	0,1	0,046107
0,445833	0,1	0,035681
0,447500	0,1	0,005526
0,449167	0,1	0,028964
0,450833	0,1	0,042155
0,452500	0,1	0,044993
0,454167	0,1	0,054555
0,455833	0,1	0,020989
0,457500	0,1	0,048464
0,459167	0,1	0,042221
0,460833	0,1	0,026986
0,462500	0,1	0,052171
0,464167	0,1	0,007309
0,465833	0,1	0,021495
0,467500	0,1	-0,003896
0,469167	0,1	0,012635
0,470833	0,1	0,026381
0,472500	0,1	0,019389
0,474167	0,1	0,057839
0,475833	0,1	0,043134
0,477500	0,1	0,037583
0,479167	0,1	0,057594
0,480833	0,1	0,009049
0,482500	0,1	0,036850
0,484167	0,1	0,022268
0,485833	0,1	0,034432
0,487500	0,1	0,036297
0,489167	0,1	0,031952
0,490833	0,1	0,052212
0,492500	0,1	0,038475
0,494167	0,1	0,039011
0,495833	0,1	0,025559
0,497500	0,1	0,029487
0,499167	0,1	0,011753
0,500833	0,1	0,001048
0,502500	0,1	0,044940
0,504167	0,1	0,014197
0,505833	0,1	0,023317
0,507500	0,1	0,030066
0,509167	0,1	0,021334
0,510833	0,1	0,015641
0,512500	0,1	0,022924
0,514167	0,1	0,102816
0,515833	0,1	0,070216
0,517500	0,1	0,085771
0,519167	0,1	0,053943
0,520833	0,1	0,035516
0,522500	0,1	0,052710
0,524167	0,1	0,069333
0,525833	0,1	0,031133
0,527500	0,1	0,050990
0,529167	0,1	0,053584
0,530833	0,1	0,065671
0,532500	0,1	0,071075
0,534167	0,1	0,059858
0,535833	0,1	0,015465
0,537500	0,1	0,075473
0,539167	0,1	0,056114
0,540833	0,1	0,049094
0,542500	0,1	0,041269
0,544167	0,1	0,068048
0,545833	0,1	0,052138
0,547500	0,1	0,067614
0,549167	0,1	0,061225
0,550833	0,1	0,013934
0,552500	0,1	0,044904
0,554167	0,1	0,043337
0,555833	0,1	0,048096
0,557500	0,1	0,030196
0,559167	0,1	0,015271
0,560833	0,1	0,067442
0,562500	0,1	0,072712
0,564167	0,1	0,040591
0,565833	0,1	0,045572
0,567500	0,1	0,055488
0,569167	0,1	0,061471
0,570833	0,1	0,022708
0,572500	0,1	0,062848
0,574167	0,1	0,053318
0,575833	0,1	0,062463
0,577500	0,1	0,065424
0,579167	0,1	0,046426
0,580833	0,1	0,058965
0,582500	0,1	0,059069
0,584167	0,1	0,075214
0,585833	0,1	0,089726
0,587500	0,1	0,047011
0,589167	0,1	0,059234
0,590833	0,1	0,097112
0,592500	0,1	0,072801
0,594167	0,1	0,073479
0,595833	0,1	0,056506
0,597500	0,1	0,058718
0,599167	0,1	0,065010
0,600833	0,1	0,062819
0,602500	0,1	0,091131
0,604167	0,1	0,036251
0,605833	0,1	0,071091
0,607500	0,1	0,081427
0,609167	0,1	0,054874
0,610833	0,1	0,101769
0,612500	0,1	0,089134
0,614167	0,1	0,063113
0,615833	0,1	0,097238
0,617500	0,1	0,092342
0,619167	0,1	0,097037
0,620833	0,1	0,058561
0,622500	0,1	0,057622
0,624167	0,1	0,074945
0,625833	0,1	0,113675
0,627500	0,1	0,072517
0,629167	0,1	0,058310
0,630833	0,1	0,090758
0,632500	0,1	0,091283
0,634167	0,1	0,118687
0,635833	0,1	0,097373
0,637500	0,1	0,079280
0,639167	0,1	0,122489
0,640833	0,1	0,095595
0,642500	0,1	0,124901
0,644167	0,1	0,117374
0,645833	0,1	0,108139
0,647500	0,1	0,133929
0,649167	0,1	0,094047
0,650833	0,1	0,083958
0,652500	0,1	0,088528
0,654167	0,1	0,096683
0,655833	0,1	0,126889
0,657500	0,1	0,152105
0,659167	0,1	0,102473
0,660833	0,1	0,120764
0,662500	0,1	0,093857
0,664167	0,1	0,098695
0,665833	0,1	0,110309
0,667500	0,1	0,102962
0,669167	0,1	0,114614
0,670833	0,1	0,130205
0,672500	0,1	0,109259
0,674167	0,1	0,107017
0,675833	0,1	0,098345
0,677500	0,1	0,132314
0,679167	0,1	0,105388
0,680833	0,1	0,135108
0,682500	0,1	0,119135
0,684167	0,1	0,138298
0,685833	0,1	0,144555
0,687500	0,1	0,174947
0,689167	0,1	0,128545
0,690833	0,1	0,113313
0,692500	0,1	0,147986
0,694167	0,1	0,156625
0,695833	0,1	0,164077
0,697500	0,1	0,145493
0,699167	0,1	0,159106
0,700833	0,1	0,170292
0,702500	0,1	0,175783
0,704167	0,1	0,159880
0,705833	0,1	0,213005
0,707500	0,1	0,141968
0,709167	0,1	0,159253
0,710833	0,1	0,180575
0,712500	0,1	0,161955
0,714167	0,1	0,179380
0,715833	0,1	0,197934
0,717500	0,1	0,172518
0,719167	0,1	0,171579
0,720833	0,1	0,159511
0,722500	0,1	0,169525
0,724167	0,1	0,196585
0,725833	0,1	0,182786
0,727500	0,1	0,199179
0,729167	0,1	0,184107
0,730833	0,1	0,222714
0,732500	0,1	0,231481
0,734167	0,1	0,189415
0,735833	0,1	0,161152
0,737500	0,1	0,228962
0,739167	0,1	0,216783
0,740833	0,1	0,188653
0,742500	0,1	0,183777
0,744167	0,1	0,209901
0,745833	0,1	0,251076
0,747500	0,1	0,229877
0,749167	0,1	0,220370
0,750833	0,1	0,251556
0,752500	0,1	0,254622
0,754167	0,1	0,258184
0,755833	0,1	0,247009
0,757500	0,1	0,260108
0,759167	0,1	0,216715
0,760833	0,1	0,278274
0,762500	0,1	0,228663
0,764167	0,1	0,238948
0,765833	0,1	0,273470
0,767500	0,1	0,259447
0,769167	0,1	0,258827
0,770833	0,1	0,257318
0,772500	0,1	0,244642
0,774167	0,1	0,269283
0,775833	0,1	0,236036
0,777500	0,1	0,219190
0,779167	0,1	0,244534
0,780833	0,1	0,231159
0,782500	0,1	0,244698
0,784167	0,1	0,272377
0,785833	0,1	0,271706
0,787500	0,1	0,247314
0,789167	0,1	0,272595
0,790833	0,1	0,237321
0,792500	0,1	0,261880
0,794167	0,1	0,301296
0,795833	0,1	0,226680
0,797500	0,1	0,288132
0,799167	0,1	0,263590
0,800833	0,1	0,284252
0,802500	0,1	0,272060
0,804167	0,1	0,258920
0,805833	0,1	0,198681
0,807500	0,1	0,260008
0,809167	0,1	0,211203
0,810833	0,1	0,192982
0,812500	0,1	0,249611
0,814167	0,1	0,225636
0,815833	0,1	0,238026
0,817500	0,1	0,287420
0,819167	0,1	0,291708
0,820833	0,1	0,278266
0,822500	0,1	0,260115
0,824167	0,1	0,256449
0,825833	0,1	0,224039
0,827500	0,1	0,282127
0,829167	0,1	0,269166
0,830833	0,1	0,249239
0,832500	0,1	0,244994
0,834167	0,1	0,210836
0,835833	0,1	0,278689
0,837500	0,1	0,233219
0,839167	0,1	0,253611
0,840833	0,1	0,267598
0,842500	0,1	0,247275
0,844167	0,1	0,261808
0,845833	0,1	0,232549
0,847500	0,1	0,195945
0,849167	0,1	0,253262
0,850833	0,1	0,247058
0,852500	0,1	0,229046
0,854167	0,1	0,254101
0,855833	0,1	0,220955
0,857500	0,1	0,223365
0,859167	0,1	0,294098
0,860833	0,1	0,229888
0,862500	0,1	0,245982
0,864167	0,1	0,276130
0,865833	0,1	0,268775
0,867500	0,1	0,246282
0,869167	0,1	0,256835
0,870833	0,1	0,267662
0,872500	0,1	0,238037
0,874167	0,1	0,271056
0,875833	0,1	0,219324
0,877500	0,1	0,256340
0,879167	0,1	0,251024
0,880833	0,1	0,253528
0,882500	0,1	0,258411
0,884167	0,1	0,246631
0,885833	0,1	0,224969
0,887500	0,1	0,242204
0,889167	0,1	0,255550
0,890833	0,1	0,249461
0,892500	0,1	0,243584
0,894167	0,1	0,279981
0,895833	0,1	0,251231
0,897500	0,1	0,234586
0,899167	0,1	0,252303
0,900833	0,1	0,258510
0,902500	0,1	0,264894
0,904167	0,1	0,289362
0,905833	0,1	0,291746
0,907500	0,1	0,235187
0,909167	0,1	0,229811
0,910833	0,1	0,277625
0,912500	0,1	0,270901
0,914167	0,1	0,296324
0,915833	0,1	0,259541
0,917500	0,1	0,301169
0,919167	0,1	0,289298
0,920833	0,1	0,286338
0,922500	0,1	0,289620
0,924167	0,1	0,293119
0,925833	0,1	0,295877
0,927500	0,1	0,310525
0,929167	0,1	0,273350
0,930833	0,1	0,286243
0,932500	0,1	0,268174
0,934167	0,1	0,318368
0,935833	0,1	0,280125
0,937500	0,1	0,290802
0,939167	0,1	0,289558
0,940833	0,1	0,263780
0,942500	0,1	0,283322
0,944167	0,1	0,311354
0,945833	0,1	0,274308
0,947500	0,1	0,294661
0,949167	0,1	0,294141
0,950833	0,1	0,309776
0,952500	0,1	0,272066
0,954167	0,1	0,255911
0,955833	0,1	0,282125
0,957500	0,1	0,317836
0,959167	0,1	0,288407
0,960833	0,1	0,300271
0,962500	0,1	0,312696
0,964167	0,1	0,311453
0,965833	0,1	0,322239
0,967500	0,1	0,276464
0,969167	0,1	0,322484
0,970833	0,1	0,348112
0,972500	0,1	0,303530
0,974167	0,1	0,358350
0,975833	0,1	0,328409
0,977500	0,1	0,352451
0,979167	0,1	0,306931
0,980833	0,1	0,314209
0,982500	0,1	0,342295
0,984167	0,1	0,335142
0,985833	0,1	0,325962
0,987500	0,1	0,307567
0,989167	0,1	0,343487
0,990833	0,1	0,349464
0,992500	0,1	0,351131
0,994167	0,1	0,337041
0,995833	0,1	0,347600
0,997500	0,1	0,320250
0,999167	0,1	0,361558
1,000833	0,1	0,398622
1,002500	0,1	0,387838
1,004167	0,1	0,379073
1,005833	0,1	0,377814
1,007500	0,1	0,377687
1,009167	0,1	0,412846
1,010833	0,1	0,402130
1,012500	0,1	0,425723
1,014167	0,1	0,417289
1,015833	0,1	0,381161
1,017500	0,1	0,449705
1,019167	0,1	0,428240
1,020833	0,1	0,413114
1,022500	0,1	0,448042
1,024167	0,1	0,492138
1,025833	0,1	0,462445
1,027500	0,1	0,481544
1,029167	0,1	0,501427
1,030833	0,1	0,523076
1,032500	0,1	0,526293
1,034167	0,1	0,516819
1,035833	0,1	0,541449
1,037500	0,1	0,506353
1,039167	0,1	0,527605
1,040833	0,1	0,502016
1,042500	0,1	0,579021
1,044167	0,1	0,603418
1,045833	0,1	0,574517
1,047500	0,1	0,591053
1,049167	0,1	0,605961
1,050833	0,1	0,631727
1,052500	0,1	0,676447
1,054167	0,1	0,739037
1,055833	0,1	0,810450
1,057500	0,1	0,860352
1,059167	0,1	0,944312
1,060833	0,1	1,057031
1,062500	0,1	1,248047
1,064167	0,1	1,418039
1,065833	0,1	1,707086
1,067500	0,1	1,999998
1,069167	0,1	2,471221
1,070833	0,1	2,957615
1,072500	0,1	3,586395
1,074167	0,1	4,355065
1,075833	0,1	5,299679
1,077500	0,1	6,333983
1,079167	0,1	7,633782
1,080833	0,1	9,081470
1,082500	0,1	10,687416
1,084167	0,1	12,444812
1,085833	0,1	14,402590
1,087500	0,1	16,471171
1,089167	0,1	18,770887
1,090833	0,1	21,107060
1,092500	0,1	23,550975
1,094167	0,1	26,045263
1,095833	0,1	28,543598
1,097500	0,1	31,050542
1,099167	0,1	33,459977
1,100833	0,1	35,802038
1,102500	0,1	37,992587
1,104167	0,1	40,020982
1,105833	0,1	41,864087
1,107500	0,1	43,514913
1,109167	0,1	44,960152
1,110833	0,1	46,064726
1,112500	0,1	47,100990
1,114167	0,1	47,804297
1,115833	0,1	48,411693
1,117500	0,1	48,690978
1,119167	0,1	48,801685
1,120833	0,1	48,755678
1,122500	0,1	48,606453
1,124167	0,1	48,303033
1,125833	0,1	47,829873
1,127500	0,1	47,367059
1,129167	0,1	46,760315
1,130833	0,1	46,094268
1,132500	0,1	45,425186
1,134167	0,1	44,701759
1,135833	0,1	44,000372
1,137500	0,1	43,278809
1,139167	0,1	42,682021
1,140833	0,1	42,037803
1,142500	0,1	41,391735
1,144167	0,1	40,959743
1,145833	0,1	40,446859
1,147500	0,1	40,118816
1,149167	0,1	39,809274
1,150833	0,1	39,621212
1,152500	0,1	39,512002
1,154167	0,1	39,471258
1,155833	0,1	39,561837
1,157500	0,1	39,712280
1,159167	0,1	39,898578
1,160833	0,1	40,140705
1,162500	0,1	40,492683
1,164167	0,1	40,865277
1,165833	0,1	41,267813
1,167500	0,1	41,630161
1,169167	0,1	42,129492
1,170833	0,1	42,637719
1,172500	0,1	42,959371
1,174167	0,1	43,411379
1,175833	0,1	43,819469
1,177500	0,1	44,176304
1,179167	0,1	44,482186
1,180833	0,1	44,796571
1,182500	0,1	45,013969
1,184167	0,1	45,232006
1,185833	0,1	45,420814
1,187500	0,1	45,546887
1,189167	0,1	45,612466
1,190833	0,1	45,701573
1,192500	0,1	45,767818
1,194167	0,1	45,903334
1,195833	0,1	46,006071
1,197500	0,1	46,140041
1,199167	0,1	46,372037
1,200833	0,1	46,742434
1,202500	0,1	47,116903
1,204167	0,1	47,681930
1,205833	0,1	48,376301
1,207500	0,1	49,250864
1,209167	0,1	50,286385
1,210833	0,1	51,546278
1,212500	0,1	52,977646
1,214167	0,1	54,658691
1,215833	0,1	56,517936
1,217500	0,1	58,579867
1,219167	0,1	60,845786
1,220833	0,1	63,243334
1,222500	0,1	65,864859
1,224167	0,1	68,526334
1,225833	0,1	71,326687
1,227500	0,1	74,148496
1,229167	0,1	77,060780
1,230833	0,1	79,910288
1,232500	0,1	82,788929
1,234167	0,1	85,579595
1,235833	0,1	88,203149
1,237500	0,1	90,703075
1,239167	0,1	93,216297
1,240833	0,1	95,378946
1,242500	0,1	97,487468
1,244167	0,1	99,246126
1,245833	0,1	100,913899
1,247500	0,1	102,332297
1,249167	0,1	103,465347
1,250833	0,1	104,400489
1,252500	0,1	105,128492
1,254167	0,1	105,652437
1,255833	0,1	105,960366
1,257500	0,1	105,989238
1,259167	0,1	105,746770
1,260833	0,1	105,345301
1,262500	0,1	104,738116
1,264167	0,1	103,959420
1,265833	0,1	102,955726
1,267500	0,1	101,816892
1,269167	0,1	100,457038
1,270833	0,1	98,975481
1,272500	0,1	97,361613
1,274167	0,1	95,633842
1,275833	0,1	93,748670
1,277500	0,1	91,779095
1,279167	0,1	89,717290
1,280833	0,1	87,616226
1,282500	0,1	85,432256
1,284167	0,1	83,185232
1,285833	0,1	80,987905
1,287500	0,1	78,701165
1,289167	0,1	76,451015
1,290833	0,1	74,187200
1,292500	0,1	71,961408
1,294167	0,1	69,708316
1,295833	0,1	67,513132
1,297500	0,1	65,411261
1,299167	0,1	63,345454
1,300833	0,1	61,259028
1,302500	0,1	59,301792
1,304167	0,1	57,395863
1,305833	0,1	55,547219
1,307500	0,1	53,726647
1,309167	0,1	52,053780
1,310833	0,1	50,367775
1,312500	0,1	48,757673
1,314167	0,1	47,215904
1,315833	0,1	45,781659
1,317500	0,1	44,354982
1,319167	0,1	43,019542
1,320833	0,1	41,710930
1,322500	0,1	40,484906
1,324167	0,1	39,319092
1,325833	0,1	38,194190
1,327500	0,1	37,112068
1,329167	0,1	36,081690
1,330833	0,1	35,084413
1,332500	0,1	34,126327
1,334167	0,1	33,175510
1,335833	0,1	32,272802
1,337500	0,1	31,393034
1,339167	0,1	30,619198
1,340833	0,1	29,808863
1,342500	0,1	29,067097
1,344167	0,1	28,321782
1,345833	0,1	27,569315
1,347500	0,1	26,904898
1,349167	0,1	26,211192
1,350833	0,1	25,578734
1,352500	0,1	24,959850
1,354167	0,1	24,355546
1,355833	0,1	23,762010
1,357500	0,1	23,188496
1,359167	0,1	22,599006
1,360833	0,1	22,073582
1,362500	0,1	21,551162
1,364167	0,1	20,999944
1,365833	0,1	20,540808
1,367500	0,1	20,052430
1,369167	0,1	19,536598
1,370833	0,1	19,082013
1,372500	0,1	18,692804
1,374167	0,1	18,204777
1,375833	0,1	17,781298
1,377500	0,1	17,356723
1,379167	0,1	16,971207
1,380833	0,1	16,544309
1,382500	0,1	16,198981
1,384167	0,1	15,817911
1,385833	0,1	15,467755
1,387500	0,1	15,172085
1,389167	0,1	14,750493
1,390833	0,1	14,446915
1,392500	0,1	14,143279
1,394167	0,1	13,862635
1,395833	0,1	13,562251
1,397500	0,1	13,231255
1,399167	0,1	12,999252
1,400833	0,1	12,695875
1,402500	0,1	12,533206
1,404167	0,1	12,261731
1,405833	0,1	12,009320
1,407500	0,1	11,779777
1,409167	0,1	11,538472
1,410833	0,1	11,353997
1,412500	0,1	11,146578
1,414167	0,1	10,924891
1,415833	0,1	10,775312
1,417500	0,1	10,578315
1,419167	0,1	10,378539
1,420833	0,1	10,200417
1,422500	0,1	10,010535
1,424167	0,1	9,875057
1,425833	0,1	9,671393
1,427500	0,1	9,557482
1,429167	0,1	9,435422
1,430833	0,1	9,325372
1,432500	0,1	9,198491
1,434167	0,1	9,019681
1,435833	0,1	8,902515
1,437500	0,1	8,761902
1,439167	0,1	8,666386
1,440833	0,1	8,506556
1,442500	0,1	8,412299
1,444167	0,1	8,352464
1,445833	0,1	8,177358
1,447500	0,1	8,114923
1,449167	0,1	7,975667
1,450833	0,1	7,891912
1,452500	0,1	7,785837
1,454167	0,1	7,707432
1,455833	0,1	7,620777
1,457500	0,1	7,507815
1,459167	0,1	7,423706
1,460833	0,1	7,343873
1,462500	0,1	7,243675
1,464167	0,1	7,155968
1,465833	0,1	7,099027
1,467500	0,1	7,032974
1,469167	0,1	7,028208
1,470833	0,1	6,917943
1,472500	0,1	6,898922
1,474167	0,1	6,850411
1,475833	0,1	6,752463
1,477500	0,1	6,746861
1,479167	0,1	6,737176
1,480833	0,1	6,652299
1,482500	0,1	6,643535
1,484167	0,1	6,618496
1,485833	0,1	6,578763
1,487500	0,1	6,586668
1,489167	0,1	6,549990
1,490833	0,1	6,545350
1,492500	0,1	6,505142
1,494167	0,1	6,547939
1,495833	0,1	6,577360
1,497500	0,1	6,518279
1,499167	0,1	6,519197
1,500833	0,1	6,527004
1,502500	0,1	6,520479
1,504167	0,1	6,577250
1,505833	0,1	6,518916
1,507500	0,1	6,572964
1,509167	0,1	6,563395
1,510833	0,1	6,588988
1,512500	0,1	6,561532
1,514167	0,1	6,599873
1,515833	0,1	6,595590
1,517500	0,1	6,552134
1,519167	0,1	6,599395
1,520833	0,1	6,552786
1,522500	0,1	6,605641
1,524167	0,1	6,568887
1,525833	0,1	6,593155
1,527500	0,1	6,597823
1,529167	0,1	6,569354
1,530833	0,1	6,587675
1,532500	0,1	6,580523
1,534167	0,1	6,600255
1,535833	0,1	6,545904
1,537500	0,1	6,581351
1,539167	0,1	6,485351
1,540833	0,1	6,513880
1,542500	0,1	6,510261
1,544167	0,1	6,483750
1,545833	0,1	6,452953
1,547500	0,1	6,424100
1,549167	0,1	6,447448
1,550833	0,1	6,416501
1,552500	0,1	6,385488
1,554167	0,1	6,344588
1,555833	0,1	6,331740
1,557500	0,1	6,299070
1,559167	0,1	6,259842
1,560833	0,1	6,220503
1,562500	0,1	6,248512
1,564167	0,1	6,174694
1,565833	0,1	6,159046
1,567500	0,1	6,082820
1,569167	0,1	6,104181
1,570833	0,1	6,088763
1,572500	0,1	6,005215
1,574167	0,1	6,043189
1,575833	0,1	5,958686
1,577500	0,1	5,929860
1,579167	0,1	5,902685
1,580833	0,1	5,895558
1,582500	0,1	5,847791
1,584167	0,1	5,797470
1,585833	0,1	5,792995
1,587500	0,1	5,784506
1,589167	0,1	5,710981
1,590833	0,1	5,662042
1,592500	0,1	5,650311
1,594167	0,1	5,615649
1,595833	0,1	5,610373
1,597500	0,1	5,597810
1,599167	0,1	5,543097
1,600833	0,1	5,482421
1,602500	0,1	5,460405
1,604167	0,1	5,446327
1,605833	0,1	5,395119
1,607500	0,1	5,341935
1,609167	0,1	5,347227
1,610833	0,1	5,295874
1,612500	0,1	5,284344
1,614167	0,1	5,254523
1,615833	0,1	5,213047
1,617500	0,1	5,194323
1,619167	0,1	5,165640
1,620833	0,1	5,087147
1,622500	0,1	5,082951
1,624167	0,1	5,091079
1,625833	0,1	5,068448
1,627500	0,1	5,031647
1,629167	0,1	4,975938
1,630833	0,1	4,976549
1,632500	0,1	4,964473
1,634167	0,1	4,926136
1,635833	0,1	4,864942
1,637500	0,1	4,881765
1,639167	0,1	4,833081
1,640833	0,1	4,797392
1,642500	0,1	4,777925
1,644167	0,1	4,771469
1,645833	0,1	4,761072
1,647500	0,1	4,758959
1,649167	0,1	4,710616
1,650833	0,1	4,731990
1,652500	0,1	4,671999
1,654167	0,1	4,700669
1,655833	0,1	4,676448
1,657500	0,1	4,657823
1,659167	0,1	4,654047
1,660833	0,1	4,666214
1,662500	0,1	4,630035
1,664167	0,1	4,686992
1,665833	0,1	4,690932
1,667500	0,1	4,687139
1,669167	0,1	4,706542
1,670833	0,1	4,695738
1,672500	0,1	4,763798
1,674167	0,1	4,793401
1,675833	0,1	4,849625
1,677500	0,1	4,841738
1,679167	0,1	4,935693
1,680833	0,1	4,966578
1,682500	0,1	4,991581
1,684167	0,1	5,076099
1,685833	0,1	5,154831
1,687500	0,1	5,225898
1,689167	0,1	5,296179
1,690833	0,1	5,346260
1,692500	0,1	5,475446
1,694167	0,1	5,552531
1,695833	0,1	5,667357
1,697500	0,1	5,784583
1,699167	0,1	5,879802
1,700833	0,1	5,994522
1,702500	0,1	6,119403
1,704167	0,1	6,214254
1,705833	0,1	6,331878
1,707500	0,1	6,466308
1,709167	0,1	6,599564
1,710833	0,1	6,702889
1,712500	0,1	6,830064
1,714167	0,1	6,976563
1,715833	0,1	7,115660
1,717500	0,1	7,227970
1,719167	0,1	7,326031
1,720833	0,1	7,470550
1,722500	0,1	7,627038
1,724167	0,1	7,718946
1,725833	0,1	7,822526
1,727500	0,1	7,925971
1,729167	0,1	8,030327
1,730833	0,1	8,110134
1,732500	0,1	8,219875
1,734167	0,1	8,290812
1,735833	0,1	8,379943
1,737500	0,1	8,415462
1,739167	0,1	8,480283
1,740833	0,1	8,545287
1,742500	0,1	8,615239
1,744167	0,1	8,670402
1,745833	0,1	8,689875
1,747500	0,1	8,712132
1,749167	0,1	8,765205
1,750833	0,1	8,778411
1,752500	0,1	8,810841
1,754167	0,1	8,782625
1,755833	0,1	8,765497
1,757500	0,1	8,805526
1,759167	0,1	8,750698
1,760833	0,1	8,721736
1,762500	0,1	8,718734
1,764167	0,1	8,651196
1,765833	0,1	8,610354
1,767500	0,1	8,599272
1,769167	0,1	8,514845
1,770833	0,1	8,493945
1,772500	0,1	8,426111
1,774167	0,1	8,342441
1,775833	0,1	8,284677
1,777500	0,1	8,261563
1,779167	0,1	8,175241
1,780833	0,1	8,078306
1,782500	0,1	7,981471
1,784167	0,1	7,929747
1,785833	0,1	7,774936
1,787500	0,1	7,750229
1,789167	0,1	7,634479
1,790833	0,1	7,608433
1,792500	0,1	7,458218
1,794167	0,1	7,347522
1,795833	0,1	7,291666
1,797500	0,1	7,201263
1,799167	0,1	7,074727
1,800833	0,1	6,992827
1,802500	0,1	6,898476
1,804167	0,1	6,792787
1,805833	0,1	6,656682
1,807500	0,1	6,610328
1,809167	0,1	6,495586
1,810833	0,1	6,369242
1,812500	0,1	6,283580
1,814167	0,1	6,186212
1,815833	0,1	6,070849
1,817500	0,1	5,984027
1,819167	0,1	5,903010
1,820833	0,1	5,784129
1,822500	0,1	5,707430
1,824167	0,1	5,652078
1,825833	0,1	5,564683
1,827500	0,1	5,452152
1,829167	0,1	5,363747
1,830833	0,1	5,251527
1,832500	0,1	5,244382
1,834167	0,1	5,166330
1,835833	0,1	5,080346
1,837500	0,1	5,031253
1,839167	0,1	4,963075
1,840833	0,1	4,917166
1,842500	0,1	4,915146
1,844167	0,1	4,807059
1,845833	0,1	4,816892
1,847500	0,1	4,785581
1,849167	0,1	4,797280
1,850833	0,1	4,756837
1,852500	0,1	4,764278
1,854167	0,1	4,807903
1,855833	0,1	4,755012
1,857500	0,1	4,770000
1,859167	0,1	4,756099
1,860833	0,1	4,812441
1,862500	0,1	4,803408
1,864167	0,1	4,864034
1,865833	0,1	4,851672
1,867500	0,1	4,893439
1,869167	0,1	4,908831
1,870833	0,1	4,916496
1,872500	0,1	4,968131
1,874167	0,1	4,929433
1,875833	0,1	4,956310
1,877500	0,1	5,014831
1,879167	0,1	5,024214
1,880833	0,1	5,031071
1,882500	0,1	5,076787
1,884167	0,1	5,085236
1,885833	0,1	5,099233
1,887500	0,1	5,137788
1,889167	0,1	5,096650
1,890833	0,1	5,145522
1,892500	0,1	5,152759
1,894167	0,1	5,154679
1,895833	0,1	5,169951
1,897500	0,1	5,202501
1,899167	0,1	5,234205
1,900833	0,1	5,224927
1,902500	0,1	5,254594
1,904167	0,1	5,280096
1,905833	0,1	5,279248
1,907500	0,1	5,309581
1,909167	0,1	5,297250
1,910833	0,1	5,333186
1,912500	0,1	5,310500
1,914167	0,1	5,327320
1,915833	0,1	5,368876
1,917500	0,1	5,355653
1,919167	0,1	5,331670
1,920833	0,1	5,343868
1,922500	0,1	5,354371
1,924167	0,1	5,400512
1,925833	0,1	5,341323
1,927500	0,1	5,374284
1,929167	0,1	5,350544
1,930833	0,1	5,375156
1,932500	0,1	5,335043
1,934167	0,1	5,379784
1,935833	0,1	5,342666
1,937500	0,1	5,348539
1,939167	0,1	5,339864
1,940833	0,1	5,357703
1,942500	0,1	5,335774
1,944167	0,1	5,326223
1,945833	0,1	5,333083
1,947500	0,1	5,324079
1,949167	0,1	5,312668
1,950833	0,1	5,342845
1,952500	0,1	5,354420
1,954167	0,1	5,323322
1,955833	0,1	5,341440
1,957500	0,1	5,354064
1,959167	0,1	5,324305
1,960833	0,1	5,375175
1,962500	0,1	5,396901
1,964167	0,1	5,372569
1,965833	0,1	5,338399
1,967500	0,1	5,366538
1,969167	0,1	5,432734
1,970833	0,1	5,382540
1,972500	0,1	5,415888
1,974167	0,1	5,406128
1,975833	0,1	5,392266
1,977500	0,1	5,402547
1,979167	0,1	5,477214
1,980833	0,1	5,431454
1,982500	0,1	5,471115
1,984167	0,1	5,502026
1,985833	0,1	5,527675
1,987500	0,1	5,532835
1,989167	0,1	5,516074
1,990833	0,1	5,565060
1,992500	0,1	5,533690
1,994167	0,1	5,590341
1,995833	0,1	5,613813
1,997500	0,1	5,649543
1,999167	0,1	5,666490
2,000833	0,1	5,641736
2,002500	0,1	5,714913
2,004167	0,1	5,725981
2,005833	0,1	5,737810
2,007500	0,1	5,791293
2,009167	0,1	5,806928
2,010833	0,1	5,815735
2,012500	0,1	5,906992
2,014167	0,1	5,892731
2,015833	0,1	5,905100
2,017500	0,1	5,936407
2,019167	0,1	5,979383
2,020833	0,1	5,997456
2,022500	0,1	6,078177
2,024167	0,1	6,058298
2,025833	0,1	6,126972
2,027500	0,1	6,136990
2,029167	0,1	6,158948
2,030833	0,1	6,198098
2,032500	0,1	6,197569
2,034167	0,1	6,270733
2,035833	0,1	6,267286
2,037500	0,1	6,330710
2,039167	0,1	6,381507
2,040833	0,1	6,391356
2,042500	0,1	6,440683
2,044167	0,1	6,476465
2,045833	0,1	6,507184
2,047500	0,1	6,550062
2,049167	0,1	6,578930
2,050833	0,1	6,602292
2,052500	0,1	6,665763
2,054167	0,1	6,667543
2,055833	0,1	6,739487
2,057500	0,1	6,733740
2,059167	0,1	6,774222
2,060833	0,1	6,868539
2,062500	0,1	6,818380
2,064167	0,1	6,904486
2,065833	0,1	6,927227
2,067500	0,1	6,956843
2,069167	0,1	6,961508
2,070833	0,1	7,010773
2,072500	0,1	7,032301
2,074167	0,1	7,079807
2,075833	0,1	7,094072
2,077500	0,1	7,127235
2,079167	0,1	7,181933
2,080833	0,1	7,149437
2,082500	0,1	7,215108
2,084167	0,1	7,282587
2,085833	0,1	7,285401
2,087500	0,1	7,269374
2,089167	0,1	7,308599
2,090833	0,1	7,314017
2,092500	0,1	7,351865
2,094167	0,1	7,381983
2,095833	0,1	7,417967
2,097500	0,1	7,370432
2,099167	0,1	7,459525
2,100833	0,1	7,423214
2,102500	0,1	7,465991
2,104167	0,1	7,449237
2,105833	0,1	7,476439
2,107500	0,1	7,537884
2,109167	0,1	7,532964
2,110833	0,1	7,528298
2,112500	0,1	7,579587
2,114167	0,1	7,610924
2,115833	0,1	7,564757
2,117500	0,1	7,593478
2,119167	0,1	7,559295
2,120833	0,1	7,625455
2,122500	0,1	7,612982
2,124167	0,1	7,607495
2,125833	0,1	7,649537
2,127500	0,1	7,619620
2,129167	0,1	7,609167
2,130833	0,1	7,623623
2,132500	0,1	7,649818
2,134167	0,1	7,659906
2,135833	0,1	7,643029
2,137500	0,1	7,622336
2,139167	0,1	7,611406
2,140833	0,1	7,668673
2,142500	0,1	7,647410
2,144167	0,1	7,632495
2,145833	0,1	7,628583
2,147500	0,1	7,579420
2,149167	0,1	7,602890
2,150833	0,1	7,580727
2,152500	0,1	7,583393
2,154167	0,1	7,546316
2,155833	0,1	7,566075
2,157500	0,1	7,548158
2,159167	0,1	7,534829
2,160833	0,1	7,517753
2,162500	0,1	7,497150
2,164167	0,1	7,485960
2,165833	0,1	7,458079
2,167500	0,1	7,466262
2,169167	0,1	7,460942
2,170833	0,1	7,396080
2,172500	0,1	7,401012
2,174167	0,1	7,434172
2,175833	0,1	7,340607
2,177500	0,1	7,355870
2,179167	0,1	7,346740
2,180833	0,1	7,311801
2,182500	0,1	7,243752
2,184167	0,1	7,264981
2,185833	0,1	7,261724
2,187500	0,1	7,249052
2,189167	0,1	7,231810
2,190833	0,1	7,187824
2,192500	0,1	7,228809
2,194167	0,1	7,164625
2,195833	0,1	7,153706
2,197500	0,1	7,146062
2,199167	0,1	7,107501
2,200833	0,1	7,092585
2,202500	0,1	7,094447
2,204167	0,1	7,068176
2,205833	0,1	7,032593
2,207500	0,1	6,998777
2,209167	0,1	6,963753
2,210833	0,1	6,967097
2,212500	0,1	6,958904
2,214167	0,1	6,938320
2,215833	0,1	6,964670
2,217500	0,1	6,930780
2,219167	0,1	6,922950
2,220833	0,1	6,910936
2,222500	0,1	6,843708
2,224167	0,1	6,882616
2,225833	0,1	6,830763
2,227500	0,1	6,849276
2,229167	0,1	6,833367
2,230833	0,1	6,801612
2,232500	0,1	6,830093
2,234167	0,1	6,778528
2,235833	0,1	6,801604
2,237500	0,1	6,811009
2,239167	0,1	6,767539
2,240833	0,1	6,761572
2,242500	0,1	6,794525
2,244167	0,1	6,767635
2,245833	0,1	6,750871
2,247500	0,1	6,762590
2,249167	0,1	6,756637
2,250833	0,1	6,724524
2,252500	0,1	6,715019
2,254167	0,1	6,752156
2,255833	0,1	6,727967
2,257500	0,1	6,720991
2,259167	0,1	6,684407
2,260833	0,1	6,712320
2,262500	0,1	6,690360
2,264167	0,1	6,634517
2,265833	0,1	6,660929
2,267500	0,1	6,691660
2,269167	0,1	6,670357
2,270833	0,1	6,648191
2,272500	0,1	6,682546
2,274167	0,1	6,677328
2,275833	0,1	6,576550
2,277500	0,1	6,551309
2,279167	0,1	6,586010
2,280833	0,1	6,595423
2,282500	0,1	6,555026
2,284167	0,1	6,536130
2,285833	0,1	6,560338
2,287500	0,1	6,492879
2,289167	0,1	6,525723
2,290833	0,1	6,484420
2,292500	0,1	6,463196
2,294167	0,1	6,468500
2,295833	0,1	6,433037
2,297500	0,1	6,412762
2,299167	0,1	6,442914
2,300833	0,1	6,397610
2,302500	0,1	6,417600
2,304167	0,1	6,385155
2,305833	0,1	6,407932
2,307500	0,1	6,336873
2,309167	0,1	6,350725
2,310833	0,1	6,340494
2,312500	0,1	6,315205
2,314167	0,1	6,298378
2,315833	0,1	6,306353
2,317500	0,1	6,285920
2,319167	0,1	6,285894
2,320833	0,1	6,220074
2,322500	0,1	6,213348
2,324167	0,1	6,251482
2,325833	0,1	6,207151
2,327500	0,1	6,174773
2,329167	0,1	6,172366
2,330833	0,1	6,155192
2,332500	0,1	6,136856
2,334167	0,1	6,101414
2,335833	0,1	6,060639
2,337500	0,1	6,098947
2,339167	0,1	6,057241
2,340833	0,1	6,008799
2,342500	0,1	6,026306
2,344167	0,1	5,992488
2,345833	0,1	6,044556
2,347500	0,1	5,971663
2,349167	0,1	5,950303
2,350833	0,1	5,950549
2,352500	0,1	5,932901
2,354167	0,1	5,952261
2,355833	0,1	5,908590
2,357500	0,1	5,872591
2,359167	0,1	5,883493
2,360833	0,1	5,939154
2,362500	0,1	5,868554
2,364167	0,1	5,878852
2,365833	0,1	5,845886
2,367500	0,1	5,814900
2,369167	0,1	5,882002
2,370833	0,1	5,823448
2,372500	0,1	5,853449
2,374167	0,1	5,770781
2,375833	0,1	5,877088
2,377500	0,1	5,827769
2,379167	0,1	5,797185
2,380833	0,1	5,906634
2,382500	0,1	5,857019
2,384167	0,1	5,838660
2,385833	0,1	5,845491
2,387500	0,1	5,875000
2,389167	0,1	5,916777
2,390833	0,1	5,917212
2,392500	0,1	5,948386
2,394167	0,1	5,970547
2,395833	0,1	6,004579
2,397500	0,1	6,047977
2,399167	0,1	6,130056
2,400833	0,1	6,143344
2,402500	0,1	6,160379
2,404167	0,1	6,274821
2,405833	0,1	6,329410
2,407500	0,1	6,386237
2,409167	0,1	6,496647
2,410833	0,1	6,573075
2,412500	0,1	6,688376
2,414167	0,1	6,795437
2,415833	0,1	6,925993
2,417500	0,1	7,012441
2,419167	0,1	7,144170
2,420833	0,1	7,256469
2,422500	0,1	7,400033
2,424167	0,1	7,565639
2,425833	0,1	7,674058
2,427500	0,1	7,847059
2,429167	0,1	8,009415
2,430833	0,1	8,205753
2,432500	0,1	8,363868
2,434167	0,1	8,513410
2,435833	0,1	8,690440
2,437500	0,1	8,904489
2,439167	0,1	9,084332
2,440833	0,1	9,259408
2,442500	0,1	9,460853
2,444167	0,1	9,599051
2,445833	0,1	9,816492
2,447500	0,1	10,019253
2,449167	0,1	10,200461
2,450833	0,1	10,359084
2,452500	0,1	10,550989
2,454167	0,1	10,735272
2,455833	0,1	10,889981
2,457500	0,1	11,048064
2,459167	0,1	11,248921
2,460833	0,1	11,354522
2,462500	0,1	11,552043
2,464167	0,1	11,697543
2,465833	0,1	11,879725
2,467500	0,1	11,944415
2,469167	0,1	12,082573
2,470833	0,1	12,195171
2,472500	0,1	12,331283
2,474167	0,1	12,435919
2,475833	0,1	12,505026
2,477500	0,1	12,615178
2,479167	0,1	12,743593
2,480833	0,1	12,849901
2,482500	0,1	12,961937
2,484167	0,1	13,068534
2,485833	0,1	13,111532
2,487500	0,1	13,197026
2,489167	0,1	13,274532
2,490833	0,1	13,399252
2,492500	0,1	13,457896
2,494167	0,1	13,572397
2,495833	0,1	13,631449
2,497500	0,1	13,770174
2,499167	0,1	13,851308
2,500833	0,1	13,971958
2,502500	0,1	14,072797
2,504167	0,1	14,181377
2,505833	0,1	14,255766
2,507500	0,1	14,395960
2,509167	0,1	14,514946
2,510833	0,1	14,649875
2,512500	0,1	14,785060
2,514167	0,1	14,942951
2,515833	0,1	15,089449
2,517500	0,1	15,343571
2,519167	0,1	15,471761
2,520833	0,1	15,663686
2,522500	0,1	15,818715
2,524167	0,1	16,015191
2,525833	0,1	16,247060
2,527500	0,1	16,481563
2,529167	0,1	16,649455
2,530833	0,1	16,967498
2,532500	0,1	17,148867
2,534167	0,1	17,464219
2,535833	0,1	17,691769
2,537500	0,1	17,957134
2,539167	0,1	18,191734
2,540833	0,1	18,449054
2,542500	0,1	18,720465
2,544167	0,1	19,014282
2,545833	0,1	19,292127
2,547500	0,1	19,569452
2,549167	0,1	19,823560
2,550833	0,1	20,155070
2,552500	0,1	20,403693
2,554167	0,1	20,690876
2,555833	0,1	20,931876
2,557500	0,1	21,175330
2,559167	0,1	21,453308
2,560833	0,1	21,724003
2,562500	0,1	21,958764
2,564167	0,1	22,225745
2,565833	0,1	22,470105
2,567500	0,1	22,729414
2,569167	0,1	22,899276
2,570833	0,1	23,114146
2,572500	0,1	23,313228
2,574167	0,1	23,503595
2,575833	0,1	23,669493
2,577500	0,1	23,819358
2,579167	0,1	24,010267
2,580833	0,1	24,106256
2,582500	0,1	24,279377
2,584167	0,1	24,365257
2,585833	0,1	24,514572
2,587500	0,1	24,593174
2,589167	0,1	24,633961
2,590833	0,1	24,696825
2,592500	0,1	24,780562
2,594167	0,1	24,828008
2,595833	0,1	24,829070
2,597500	0,1	24,910212
2,599167	0,1	24,869417
2,600833	0,1	24,886696
2,602500	0,1	24,849362
2,604167	0,1	24,814286
2,605833	0,1	24,824970
2,607500	0,1	24,744697
2,609167	0,1	24,678929
2,610833	0,1	24,632665
2,612500	0,1	24,579703
2,614167	0,1	24,484160
2,615833	0,1	24,370320
2,617500	0,1	24,225704
2,619167	0,1	24,167513
2,620833	0,1	24,055775
2,622500	0,1	23,916277
2,624167	0,1	23,765119
2,625833	0,1	23,607829
2,627500	0,1	23,479462
2,629167	0,1	23,327698
2,630833	0,1	23,162701
2,632500	0,1	22,947292
2,634167	0,1	22,776007
2,635833	0,1	22,611998
2,637500	0,1	22,433944
2,639167	0,1	22,184139
2,640833	0,1	21,997841
2,642500	0,1	21,779599
2,644167	0,1	21,595871
2,645833	0,1	21,403100
2,647500	0,1	21,182062
2,649167	0,1	20,925262
2,650833	0,1	20,717189
2,652500	0,1	20,517411
2,654167	0,1	20,225633
2,655833	0,1	20,007530
2,657500	0,1	19,784614
2,659167	0,1	19,519227
2,660833	0,1	19,267360
2,662500	0,1	19,057046
2,664167	0,1	18,784024
2,665833	0,1	18,538865
2,667500	0,1	18,275353
2,669167	0,1	18,032564
2,670833	0,1	17,805405
2,672500	0,1	17,536081
2,674167	0,1	17,297268
2,675833	0,1	17,060089
2,677500	0,1	16,771572
2,679167	0,1	16,562444
2,680833	0,1	16,236000
2,682500	0,1	16,024073
2,684167	0,1	15,790991
2,685833	0,1	15,538490
2,687500	0,1	15,318424
2,689167	0,1	15,056643
2,690833	0,1	14,802841
2,692500	0,1	14,592412
2,694167	0,1	14,357569
2,695833	0,1	14,114009
2,697500	0,1	13,895224
2,699167	0,1	13,682967
2,700833	0,1	13,418416
2,702500	0,1	13,216483
2,704167	0,1	13,029414
2,705833	0,1	12,772942
2,707500	0,1	12,555438
2,709167	0,1	12,368908
2,710833	0,1	12,113598
2,712500	0,1	11,956965
2,714167	0,1	11,761365
2,715833	0,1	11,543624
2,717500	0,1	11,330406
2,719167	0,1	11,153093
2,720833	0,1	10,980309
2,722500	0,1	10,810396
2,724167	0,1	10,594479
2,725833	0,1	10,434843
2,727500	0,1	10,276972
2,729167	0,1	10,144656
2,730833	0,1	9,945987
2,732500	0,1	9,776406
2,734167	0,1	9,614368
2,735833	0,1	9,444652
2,737500	0,1	9,290399
2,739167	0,1	9,154931
2,740833	0,1	9,016479
2,742500	0,1	8,927936
2,744167	0,1	8,744763
2,745833	0,1	8,627444
2,747500	0,1	8,530160
2,749167	0,1	8,417133
2,750833	0,1	8,216031
2,752500	0,1	8,124245
2,754167	0,1	8,012536
2,755833	0,1	7,892392
2,757500	0,1	7,746362
2,759167	0,1	7,663194
2,760833	0,1	7,569523
2,762500	0,1	7,451559
2,764167	0,1	7,358868
2,765833	0,1	7,288300
2,767500	0,1	7,158306
2,769167	0,1	7,055339
2,770833	0,1	6,955851
2,772500	0,1	6,809745
2,774167	0,1	6,745295
2,775833	0,1	6,683407
2,777500	0,1	6,580558
2,779167	0,1	6,515234
2,780833	0,1	6,432142
2,782500	0,1	6,352438
2,784167	0,1	6,259168
2,785833	0,1	6,190158
2,787500	0,1	6,085736
2,789167	0,1	6,032858
2,790833	0,1	5,962602
2,792500	0,1	5,913088
2,794167	0,1	5,838761
2,795833	0,1	5,729987
2,797500	0,1	5,660290
2,799167	0,1	5,644175
2,800833	0,1	5,488514
2,802500	0,1	5,489776
2,804167	0,1	5,413863
2,805833	0,1	5,348361
2,807500	0,1	5,329377
2,809167	0,1	5,222491
2,810833	0,1	5,176737
2,812500	0,1	5,111363
2,814167	0,1	5,049605
2,815833	0,1	4,987658
2,817500	0,1	4,924141
2,819167	0,1	4,896575
2,820833	0,1	4,821636
2,822500	0,1	4,773474
2,824167	0,1	4,715828
2,825833	0,1	4,676554
2,827500	0,1	4,610893
2,829167	0,1	4,611196
2,830833	0,1	4,548031
2,832500	0,1	4,453058
2,834167	0,1	4,407796
2,835833	0,1	4,394946
2,837500	0,1	4,278197
2,839167	0,1	4,291611
2,840833	0,1	4,289146
2,842500	0,1	4,219630
2,844167	0,1	4,167394
2,845833	0,1	4,111355
2,847500	0,1	4,090866
2,849167	0,1	4,045703
2,850833	0,1	4,016389
2,852500	0,1	3,946988
2,854167	0,1	3,964222
2,855833	0,1	3,905059
2,857500	0,1	3,841014
2,859167	0,1	3,768171
2,860833	0,1	3,735976
2,862500	0,1	3,747083
2,864167	0,1	3,681309
2,865833	0,1	3,630496
2,867500	0,1	3,654836
2,869167	0,1	3,608033
2,870833	0,1	3,537057
2,872500	0,1	3,516269
2,874167	0,1	3,480956
2,875833	0,1	3,491345
2,877500	0,1	3,418722
2,879167	0,1	3,414980
2,880833	0,1	3,408904
2,882500	0,1	3,367189
2,884167	0,1	3,309461
2,885833	0,1	3,300168
2,887500	0,1	3,236749
2,889167	0,1	3,262455
2,890833	0,1	3,204562
2,892500	0,1	3,202837
2,894167	0,1	3,116555
2,895833	0,1	3,083584
2,897500	0,1	3,101192
2,899167	0,1	3,093539
2,900833	0,1	3,072350
2,902500	0,1	3,039115
2,904167	0,1	3,036028
2,905833	0,1	3,002647
2,907500	0,1	2,922851
2,909167	0,1	2,984896
2,910833	0,1	2,954689
2,912500	0,1	2,922465
2,914167	0,1	2,880782
2,915833	0,1	2,873642
2,917500	0,1	2,829599
2,919167	0,1	2,812727
2,920833	0,1	2,791800
2,922500	0,1	2,760670
2,924167	0,1	2,767603
2,925833	0,1	2,735031
2,927500	0,1	2,784795
2,929167	0,1	2,699755
2,930833	0,1	2,713438
2,932500	0,1	2,668258
2,934167	0,1	2,653118
2,935833	0,1	2,653104
2,937500	0,1	2,600415
2,939167	0,1	2,590224
2,940833	0,1	2,618878
2,942500	0,1	2,586766
2,944167	0,1	2,541956
2,945833	0,1	2,562887
2,947500	0,1	2,513919
2,949167	0,1	2,532114
2,950833	0,1	2,510827
2,952500	0,1	2,450754
2,954167	0,1	2,491737
2,955833	0,1	2,473190
2,957500	0,1	2,441148
2,959167	0,1	2,466647
2,960833	0,1	2,462217
2,962500	0,1	2,423155
2,964167	0,1	2,390385
2,965833	0,1	2,376552
2,967500	0,1	2,387931
2,969167	0,1	2,356622
2,970833	0,1	2,381984
2,972500	0,1	2,345510
2,974167	0,1	2,360264
2,975833	0,1	2,314048
2,977500	0,1	2,318914
2,979167	0,1	2,303216
2,980833	0,1	2,296551
2,982500	0,1	2,311386
2,984167	0,1	2,295047
2,985833	0,1	2,266244
2,987500	0,1	2,254630
2,989167	0,1	2,260644
2,990833	0,1	2,283356
2,992500	0,1	2,235360
2,994167	0,1	2,239217
2,995833	0,1	2,225893
2,997500	0,1	2,194011
2,999167	0,1	2,195220
3,000833	0,1	2,213202
3,002500	0,1	2,181687
3,004167	0,1	2,207539
3,005833	0,1	2,179177
3,007500	0,1	2,130963
3,009167	0,1	2,204302
3,010833	0,1	2,164348
3,012500	0,1	2,162908
3,014167	0,1	2,119641
3,015833	0,1	2,150359
3,017500	0,1	2,166341
3,019167	0,1	2,121293
3,020833	0,1	2,109177
3,022500	0,1	2,135387
3,024167	0,1	2,120495
3,025833	0,1	2,107888
3,027500	0,1	2,076013
3,029167	0,1	2,113176
3,030833	0,1	2,086327
3,032500	0,1	2,090116
3,034167	0,1	2,063402
3,035833	0,1	2,071277
3,037500	0,1	2,101291
3,039167	0,1	2,085611
3,040833	0,1	2,023370
3,042500	0,1	2,040400
3,044167	0,1	2,017634
3,045833	0,1	2,056659
3,047500	0,1	2,054086
3,049167	0,1	2,024155
3,050833	0,1	2,030161
3,052500	0,1	1,998081
3,054167	0,1	2,029510
3,055833	0,1	1,977889
3,057500	0,1	2,012038
3,059167	0,1	1,987056
3,060833	0,1	2,006021
3,062500	0,1	1,999801
3,064167	0,1	1,987627
3,065833	0,1	1,970149
3,067500	0,1	1,978810
3,069167	0,1	1,951880
3,070833	0,1	1,949662
3,072500	0,1	1,956393
3,074167	0,1	1,928470
3,075833	0,1	1,943857
3,077500	0,1	1,968281
3,079167	0,1	1,936699
3,080833	0,1	1,926035
3,082500	0,1	1,913080
3,084167	0,1	1,899109
3,085833	0,1	1,891801
3,087500	0,1	1,901400
3,089167	0,1	1,907627
3,090833	0,1	1,956965
3,092500	0,1	1,919456
3,094167	0,1	1,953879
3,095833	0,1	1,884652
3,097500	0,1	1,891723
3,099167	0,1	1,937189
3,100833	0,1	1,938422
3,102500	0,1	1,939063
3,104167	0,1	1,900760
3,105833	0,1	1,910130
3,107500	0,1	1,956457
3,109167	0,1	1,948159
3,110833	0,1	1,923172
3,112500	0,1	1,953165
3,114167	0,1	1,990554
3,115833	0,1	1,933421
3,117500	0,1	1,978152
3,119167	0,1	1,994278
3,120833	0,1	2,003587
3,122500	0,1	1,982899
3,124167	0,1	1,996432
3,125833	0,1	2,005877
3,127500	0,1	1,992996
3,129167	0,1	2,051066
3,130833	0,1	2,024728
3,132500	0,1	2,021351
3,134167	0,1	2,035965
3,135833	0,1	2,064033
3,137500	0,1	2,097130
3,139167	0,1	2,080521
3,140833	0,1	2,091261
3,142500	0,1	2,092479
3,144167	0,1	2,118984
3,145833	0,1	2,138113
3,147500	0,1	2,164332
3,149167	0,1	2,174368
3,150833	0,1	2,161906
3,152500	0,1	2,162045
3,154167	0,1	2,170857
3,155833	0,1	2,193854
3,157500	0,1	2,173300
3,159167	0,1	2,213269
3,160833	0,1	2,210412
3,162500	0,1	2,257268
3,164167	0,1	2,245172
3,165833	0,1	2,243661
3,167500	0,1	2,252688
3,169167	0,1	2,242229
3,170833	0,1	2,297037
3,172500	0,1	2,298769
3,174167	0,1	2,313461
3,175833	0,1	2,321060
3,177500	0,1	2,288885
3,179167	0,1	2,316110
3,180833	0,1	2,306368
3,182500	0,1	2,326212
3,184167	0,1	2,299424
3,185833	0,1	2,330801
3,187500	0,1	2,333101
3,189167	0,1	2,321641
3,190833	0,1	2,336038
3,192500	0,1	2,324362
3,194167	0,1	2,369721
3,195833	0,1	2,306028
3,197500	0,1	2,343418
3,199167	0,1	2,334754
3,200833	0,1	2,298634
3,202500	0,1	2,319194
3,204167	0,1	2,262450
3,205833	0,1	2,302061
3,207500	0,1	2,308731
3,209167	0,1	2,287813
3,210833	0,1	2,327429
3,212500	0,1	2,231503
3,214167	0,1	2,207551
3,215833	0,1	2,259628
3,217500	0,1	2,206196
3,219167	0,1	2,283342
3,220833	0,1	2,230559
3,222500	0,1	2,234058
3,224167	0,1	2,228830
3,225833	0,1	2,214642
3,227500	0,1	2,208764
3,229167	0,1	2,216644
3,230833	0,1	2,182189
3,232500	0,1	2,188556
3,234167	0,1	2,158685
3,235833	0,1	2,168564
3,237500	0,1	2,211404
3,239167	0,1	2,130399
3,240833	0,1	2,161035
3,242500	0,1	2,122866
3,244167	0,1	2,121137
3,245833	0,1	2,121998
3,247500	0,1	2,092988
3,249167	0,1	2,039914
3,250833	0,1	2,076644
3,252500	0,1	2,027239
3,254167	0,1	2,032170
3,255833	0,1	2,045991
3,257500	0,1	1,972455
3,259167	0,1	1,961619
3,260833	0,1	1,974659
3,262500	0,1	1,924759
3,264167	0,1	1,924878
3,265833	0,1	1,936989
3,267500	0,1	1,931552
3,269167	0,1	1,892605
3,270833	0,1	1,868032
3,272500	0,1	1,823365
3,274167	0,1	1,852491
3,275833	0,1	1,820779
3,277500	0,1	1,808602
3,279167	0,1	1,839617
3,280833	0,1	1,833813
3,282500	0,1	1,778904
3,284167	0,1	1,778332
3,285833	0,1	1,740113
3,287500	0,1	1,785120
3,289167	0,1	1,767733
3,290833	0,1	1,700104
3,292500	0,1	1,709895
3,294167	0,1	1,717329
3,295833	0,1	1,653161
3,297500	0,1	1,684282
3,299167	0,1	1,697377
3,300833	0,1	1,628173
3,302500	0,1	1,607493
3,304167	0,1	1,652629
3,305833	0,1	1,581677
3,307500	0,1	1,582868
3,309167	0,1	1,612127
3,310833	0,1	1,541821
3,312500	0,1	1,586308
3,314167	0,1	1,515573
3,315833	0,1	1,531636
3,317500	0,1	1,538297
3,319167	0,1	1,514781
3,320833	0,1	1,516993
3,322500	0,1	1,531361
3,324167	0,1	1,490141
3,325833	0,1	1,501732
3,327500	0,1	1,484013
3,329167	0,1	1,447595
3,330833	0,1	1,468182
3,332500	0,1	1,445757
3,334167	0,1	1,444504
3,335833	0,1	1,424604
3,337500	0,1	1,389083
3,339167	0,1	1,383283
3,340833	0,1	1,394153
3,342500	0,1	1,409410
3,344167	0,1	1,395681
3,345833	0,1	1,353562
3,347500	0,1	1,356329
3,349167	0,1	1,380360
3,350833	0,1	1,334104
3,352500	0,1	1,327997
3,354167	0,1	1,329926
3,355833	0,1	1,357475
3,357500	0,1	1,357331
3,359167	0,1	1,320873
3,360833	0,1	1,298464
3,362500	0,1	1,308126
3,364167	0,1	1,331648
3,365833	0,1	1,285310
3,367500	0,1	1,318943
3,369167	0,1	1,296568
3,370833	0,1	1,258959
3,372500	0,1	1,278607
3,374167	0,1	1,217881
3,375833	0,1	1,273296
3,377500	0,1	1,300907
3,379167	0,1	1,257724
3,380833	0,1	1,291271
3,382500	0,1	1,253457
3,384167	0,1	1,232671
3,385833	0,1	1,270861
3,387500	0,1	1,257225
3,389167	0,1	1,210416
3,390833	0,1	1,248291
3,392500	0,1	1,238766
3,394167	0,1	1,164213
3,395833	0,1	1,235664
3,397500	0,1	1,269356
3,399167	0,1	1,206809
3,400833	0,1	1,238927
3,402500	0,1	1,243017
3,404167	0,1	1,219553
3,405833	0,1	1,223253
3,407500	0,1	1,217821
3,409167	0,1	1,197387
3,410833	0,1	1,194061
3,412500	0,1	1,213971
3,414167	0,1	1,202292
3,415833	0,1	1,219304
3,417500	0,1	1,207969
3,419167	0,1	1,203481
3,420833	0,1	1,177952
3,422500	0,1	1,191436
3,424167	0,1	1,172853
3,425833	0,1	1,205624
3,427500	0,1	1,193697
3,429167	0,1	1,189481
3,430833	0,1	1,186887
3,432500	0,1	1,174800
3,434167	0,1	1,175440
3,435833	0,1	1,154906
3,437500	0,1	1,157291
3,439167	0,1	1,176944
3,440833	0,1	1,130311
3,442500	0,1	1,141609
3,444167	0,1	1,136286
3,445833	0,1	1,136821
3,447500	0,1	1,140104
3,449167	0,1	1,184264
3,450833	0,1	1,171028
3,452500	0,1	1,155549
3,454167	0,1	1,153768
3,455833	0,1	1,192331
3,457500	0,1	1,143132
3,459167	0,1	1,140682
3,460833	0,1	1,198944
3,462500	0,1	1,115966
3,464167	0,1	1,159568
3,465833	0,1	1,179546
3,467500	0,1	1,158565
3,469167	0,1	1,182868
3,470833	0,1	1,159362
3,472500	0,1	1,164349
3,474167	0,1	1,134167
3,475833	0,1	1,147486
3,477500	0,1	1,154141
3,479167	0,1	1,115643
3,480833	0,1	1,167506
3,482500	0,1	1,154877
3,484167	0,1	1,119989
3,485833	0,1	1,106013
3,487500	0,1	1,130382
3,489167	0,1	1,125704
3,490833	0,1	1,115286
3,492500	0,1	1,115016
3,494167	0,1	1,135128
3,495833	0,1	1,149060
3,497500	0,1	1,134962
3,499167	0,1	1,192107
3,500833	0,1	1,184201
3,502500	0,1	1,170921
3,504167	0,1	1,135495
3,505833	0,1	1,137992
3,507500	0,1	1,164966
3,509167	0,1	1,116493
3,510833	0,1	1,146443
3,512500	0,1	1,135824
3,514167	0,1	1,165850
3,515833	0,1	1,124051
3,517500	0,1	1,192575
3,519167	0,1	1,152472
3,520833	0,1	1,133984
3,522500	0,1	1,149108
3,524167	0,1	1,200250
3,525833	0,1	1,159433
3,527500	0,1	1,154232
3,529167	0,1	1,126334
3,530833	0,1	1,202242
3,532500	0,1	1,162046
3,534167	0,1	1,177875
3,535833	0,1	1,151374
3,537500	0,1	1,142632
3,539167	0,1	1,139347
3,540833	0,1	1,177534
3,542500	0,1	1,143397
3,544167	0,1	1,131696
3,545833	0,1	1,138548
3,547500	0,1	1,176873
3,549167	0,1	1,138894
3,550833	0,1	1,172858
3,552500	0,1	1,159936
3,554167	0,1	1,132164
3,555833	0,1	1,125310
3,557500	0,1	1,136462
3,559167	0,1	1,127528
3,560833	0,1	1,129763
3,562500	0,1	1,133778
3,564167	0,1	1,137348
3,565833	0,1	1,124133
3,567500	0,1	1,133072
3,569167	0,1	1,087896
3,570833	0,1	1,136984
3,572500	0,1	1,164295
3,574167	0,1	1,113340
3,575833	0,1	1,100065
3,577500	0,1	1,131994
3,579167	0,1	1,113995
3,580833	0,1	1,105255
3,582500	0,1	1,096650
3,584167	0,1	1,073830
3,585833	0,1	1,101634
3,587500	0,1	1,068420
3,589167	0,1	1,115514
3,590833	0,1	1,073214
3,592500	0,1	1,110657
3,594167	0,1	1,063788
3,595833	0,1	1,046837
3,597500	0,1	1,072199
3,599167	0,1	1,055485
3,600833	0,1	1,063421
3,602500	0,1	1,101718
3,604167	0,1	1,033409
3,605833	0,1	1,120845
3,607500	0,1	1,044922
3,609167	0,1	1,068892
3,610833	0,1	1,100965
3,612500	0,1	1,085383
3,614167	0,1	1,038504
3,615833	0,1	1,071886
3,617500	0,1	1,040696
3,619167	0,1	1,040335
3,620833	0,1	1,014503
3,622500	0,1	1,030750
3,624167	0,1	1,040996
3,625833	0,1	1,031021
3,627500	0,1	1,055165
3,629167	0,1	1,041512
3,630833	0,1	1,028295
3,632500	0,1	1,013193
3,634167	0,1	1,045073
3,635833	0,1	1,004727
3,637500	0,1	1,027067
3,639167	0,1	1,004034
3,640833	0,1	1,013298
3,642500	0,1	0,975189
3,644167	0,1	0,988681
3,645833	0,1	0,991344
3,647500	0,1	0,964831
3,649167	0,1	0,982382
3,650833	0,1	0,972610
3,652500	0,1	0,946092
3,654167	0,1	0,958968
3,655833	0,1	0,984597
3,657500	0,1	1,001564
3,659167	0,1	1,007134
3,660833	0,1	0,974677
3,662500	0,1	0,928382
3,664167	0,1	0,940475
3,665833	0,1	0,957993
3,667500	0,1	0,940236
3,669167	0,1	0,943068
3,670833	0,1	0,942253
3,672500	0,1	0,931545
3,674167	0,1	0,937798
3,675833	0,1	0,924450
3,677500	0,1	0,943755
3,679167	0,1	0,960985
3,680833	0,1	0,894530
3,682500	0,1	0,902254
3,684167	0,1	0,922470
3,685833	0,1	0,925112
3,687500	0,1	0,956168
3,689167	0,1	0,910467
3,690833	0,1	0,891765
3,692500	0,1	0,922708
3,694167	0,1	0,925046
3,695833	0,1	0,915447
3,697500	0,1	0,914340
3,699167	0,1	0,932056
3,700833	0,1	0,876238
3,702500	0,1	0,899784
3,704167	0,1	0,899526
3,705833	0,1	0,896338
3,707500	0,1	0,898397
3,709167	0,1	0,868475
3,710833	0,1	0,862566
3,712500	0,1	0,899741
3,714167	0,1	0,922782
3,715833	0,1	0,888119
3,717500	0,1	0,914152
3,719167	0,1	0,897601
3,720833	0,1	0,916528
3,722500	0,1	0,886542
3,724167	0,1	0,897792
3,725833	0,1	0,884346
3,727500	0,1	0,913954
3,729167	0,1	0,872780
3,730833	0,1	0,879949
3,732500	0,1	0,895624
3,734167	0,1	0,897112
3,735833	0,1	0,894491
3,737500	0,1	0,880752
3,739167	0,1	0,873589
3,740833	0,1	0,910803
3,742500	0,1	0,903988
3,744167	0,1	0,894674
3,745833	0,1	0,874061
3,747500	0,1	0,893800
3,749167	0,1	0,910676
3,750833	0,1	0,868098
3,752500	0,1	0,898259
3,754167	0,1	0,886003
3,755833	0,1	0,888793
3,757500	0,1	0,913691
3,759167	0,1	0,898623
3,760833	0,1	0,921473
3,762500	0,1	0,902194
3,764167	0,1	0,893939
3,765833	0,1	0,897464
3,767500	0,1	0,891614
3,769167	0,1	0,913247
3,770833	0,1	0,903452
3,772500	0,1	0,911410
3,774167	0,1	0,941602
3,775833	0,1	0,930770
3,777500	0,1	0,949898
3,779167	0,1	0,910466
3,780833	0,1	0,914735
3,782500	0,1	0,929213
3,784167	0,1	0,866701
3,785833	0,1	0,915416
3,787500	0,1	0,948253
3,789167	0,1	0,918377
3,790833	0,1	0,887096
3,792500	0,1	0,912867
3,794167	0,1	0,946301
3,795833	0,1	0,957351
3,797500	0,1	0,901600
3,799167	0,1	0,968377
3,800833	0,1	0,925545
3,802500	0,1	0,935152
3,804167	0,1	0,933784
3,805833	0,1	0,960538
3,807500	0,1	0,936248
3,809167	0,1	0,875504
3,810833	0,1	0,963918
3,812500	0,1	0,946270
3,814167	0,1	0,920001
3,815833	0,1	0,961335
3,817500	0,1	0,923170
3,819167	0,1	0,926952
3,820833	0,1	0,907157
3,822500	0,1	0,906466
3,824167	0,1	0,943728
3,825833	0,1	0,947708
3,827500	0,1	0,912130
3,829167	0,1	0,907153
3,830833	0,1	0,903097
3,832500	0,1	0,887224
3,834167	0,1	0,932332
3,835833	0,1	0,921613
3,837500	0,1	0,939963
3,839167	0,1	0,909441
3,840833	0,1	0,946745
3,842500	0,1	0,924254
3,844167	0,1	0,951097
3,845833	0,1	0,907252
3,847500	0,1	0,937256
3,849167	0,1	0,936819
3,850833	0,1	0,913742
3,852500	0,1	0,904318
3,854167	0,1	0,874369
3,855833	0,1	0,882520
3,857500	0,1	0,924838
3,859167	0,1	0,892240
3,860833	0,1	0,915439
3,862500	0,1	0,967034
3,864167	0,1	0,906679
3,865833	0,1	0,913916
3,867500	0,1	0,860832
3,869167	0,1	0,902048
3,870833	0,1	0,899856
3,872500	0,1	0,933489
3,874167	0,1	0,892265
3,875833	0,1	0,900967
3,877500	0,1	0,891747
3,879167	0,1	0,872148
3,880833	0,1	0,849162
3,882500	0,1	0,871743
3,884167	0,1	0,878621
3,885833	0,1	0,859224
3,887500	0,1	0,867915
3,889167	0,1	0,849317
3,890833	0,1	0,816417
3,892500	0,1	0,844847
3,894167	0,1	0,869171
3,895833	0,1	0,887727
3,897500	0,1	0,853492
3,899167	0,1	0,810818
3,900833	0,1	0,864795
3,902500	0,1	0,870329
3,904167	0,1	0,841135
3,905833	0,1	0,851017
3,907500	0,1	0,852700
3,909167	0,1	0,839254
3,910833	0,1	0,825150
3,912500	0,1	0,803938
3,914167	0,1	0,865502
3,915833	0,1	0,801483
3,917500	0,1	0,821350
3,919167	0,1	0,793643
3,920833	0,1	0,823815
3,922500	0,1	0,842997
3,924167	0,1	0,795419
3,925833	0,1	0,807406
3,927500	0,1	0,776812
3,929167	0,1	0,783100
3,930833	0,1	0,775771
3,932500	0,1	0,791900
3,934167	0,1	0,784429
3,935833	0,1	0,814239
3,937500	0,1	0,824266
3,939167	0,1	0,766534
3,940833	0,1	0,736283
3,942500	0,1	0,760926
3,944167	0,1	0,758455
3,945833	0,1	0,779240
3,947500	0,1	0,754771
3,949167	0,1	0,761126
3,950833	0,1	0,758743
3,952500	0,1	0,795911
3,954167	0,1	0,765597
3,955833	0,1	0,775963
3,957500	0,1	0,740206
3,959167	0,1	0,785281
3,960833	0,1	0,715827
3,962500	0,1	0,750472
3,964167	0,1	0,793023
3,965833	0,1	0,761099
3,967500	0,1	0,729409
3,969167	0,1	0,763037
3,970833	0,1	0,747205
3,972500	0,1	0,764838
3,974167	0,1	0,757393
3,975833	0,1	0,733551
3,977500	0,1	0,733294
3,979167	0,1	0,737270
3,980833	0,1	0,763431
3,982500	0,1	0,749972
3,984167	0,1	0,717234
3,985833	0,1	0,766574
3,987500	0,1	0,708690
3,989167	0,1	0,764291
3,990833	0,1	0,722025
3,992500	0,1	0,730069
3,994167	0,1	0,715275
3,995833	0,1	0,698145
3,997500	0,1	0,725148
3,999167	0,1	0,700197
4,000833	0,1	0,745746
4,002500	0,1	0,711480
4,004167	0,1	0,730839
4,005833	0,1	0,715302
4,007500	0,1	0,702290
4,009167	0,1	0,739321
4,010833	0,1	0,726378
4,012500	0,1	0,769371
4,014167	0,1	0,737791
4,015833	0,1	0,741165
4,017500	0,1	0,752220
4,019167	0,1	0,733745
4,020833	0,1	0,729794
4,022500	0,1	0,745857
4,024167	0,1	0,748327
4,025833	0,1	0,763358
4,027500	0,1	0,764265
4,029167	0,1	0,705729
4,030833	0,1	0,741409
4,032500	0,1	0,738166
4,034167	0,1	0,785362
4,035833	0,1	0,724059
4,037500	0,1	0,763140
4,039167	0,1	0,741106
4,040833	0,1	0,757453
4,042500	0,1	0,738600
4,044167	0,1	0,744509
4,045833	0,1	0,748617
4,047500	0,1	0,762438
4,049167	0,1	0,766875
4,050833	0,1	0,827009
4,052500	0,1	0,787230
4,054167	0,1	0,749019
4,055833	0,1	0,767634
4,057500	0,1	0,753995
4,059167	0,1	0,739594
4,060833	0,1	0,799447
4,062500	0,1	0,812274
4,064167	0,1	0,817774
4,065833	0,1	0,751316
4,067500	0,1	0,764116
4,069167	0,1	0,805078
4,070833	0,1	0,820262
4,072500	0,1	0,792409
4,074167	0,1	0,821690
4,075833	0,1	0,868375
4,077500	0,1	0,841408
4,079167	0,1	0,836076
4,080833	0,1	0,876265
4,082500	0,1	0,845818
4,084167	0,1	0,841599
4,085833	0,1	0,852171
4,087500	0,1	0,883758
4,089167	0,1	0,871135
4,090833	0,1	0,859249
4,092500	0,1	0,876205
4,094167	0,1	0,906063
4,095833	0,1	0,876925
4,097500	0,1	0,905437
4,099167	0,1	0,923245
4,100833	0,1	0,926243
4,102500	0,1	0,897119
4,104167	0,1	0,908039
4,105833	0,1	0,981595
4,107500	0,1	0,945499
4,109167	0,1	0,921814
4,110833	0,1	0,965325
4,112500	0,1	0,986328
4,114167	0,1	0,949155
4,115833	0,1	0,973022
4,117500	0,1	1,003577
4,119167	0,1	0,976784
4,120833	0,1	1,023356
4,122500	0,1	1,021683
4,124167	0,1	0,972043
4,125833	0,1	1,029764
4,127500	0,1	1,008825
4,129167	0,1	1,003009
4,130833	0,1	0,990149
4,132500	0,1	1,048792
4,134167	0,1	1,063862
4,135833	0,1	1,034353
4,137500	0,1	1,043236
4,139167	0,1	1,043771
4,140833	0,1	1,033549
4,142500	0,1	1,025477
4,144167	0,1	1,095587
4,145833	0,1	1,093808
4,147500	0,1	1,049880
4,149167	0,1	1,096102
4,150833	0,1	1,083586
4,152500	0,1	1,056574
4,154167	0,1	1,119545
4,155833	0,1	1,126211
4,157500	0,1	1,134024
4,159167	0,1	1,107657
4,160833	0,1	1,122089
4,162500	0,1	1,102422
4,164167	0,1	1,141556
4,165833	0,1	1,147086
4,167500	0,1	1,130076
4,169167	0,1	1,128700
4,170833	0,1	1,163055
4,172500	0,1	1,189319
4,174167	0,1	1,178218
4,175833	0,1	1,142973
4,177500	0,1	1,189180
4,179167	0,1	1,188548
4,180833	0,1	1,163798
4,182500	0,1	1,137980
4,184167	0,1	1,158019
4,185833	0,1	1,164569
4,187500	0,1	1,200140
4,189167	0,1	1,210268
4,190833	0,1	1,150345
4,192500	0,1	1,139772
4,194167	0,1	1,130718
4,195833	0,1	1,188226
4,197500	0,1	1,201701
4,199167	0,1	1,152072
4,200833	0,1	1,176876
4,202500	0,1	1,192789
4,204167	0,1	1,153240
4,205833	0,1	1,146049
4,207500	0,1	1,187721
4,209167	0,1	1,203610
4,210833	0,1	1,186689
4,212500	0,1	1,198379
4,214167	0,1	1,139186
4,215833	0,1	1,235408
4,217500	0,1	1,138064
4,219167	0,1	1,168490
4,220833	0,1	1,136253
4,222500	0,1	1,153629
4,224167	0,1	1,166451
4,225833	0,1	1,168009
4,227500	0,1	1,136580
4,229167	0,1	1,170727
4,230833	0,1	1,163306
4,232500	0,1	1,128734
4,234167	0,1	1,169170
4,235833	0,1	1,168565
4,237500	0,1	1,132989
4,239167	0,1	1,126950
4,240833	0,1	1,103175
4,242500	0,1	1,118382
4,244167	0,1	1,113262
4,245833	0,1	1,140581
4,247500	0,1	1,106213
4,249167	0,1	1,162513
4,250833	0,1	1,104604
4,252500	0,1	1,145483
4,254167	0,1	1,103113
4,255833	0,1	1,099556
4,257500	0,1	1,068043
4,259167	0,1	1,086594
4,260833	0,1	1,068926
4,262500	0,1	1,067016
4,264167	0,1	1,063334
4,265833	0,1	1,047877
4,267500	0,1	1,033307
4,269167	0,1	1,083393
4,270833	0,1	1,030543
4,272500	0,1	1,019246
4,274167	0,1	1,031704
4,275833	0,1	1,045520
4,277500	0,1	1,018651
4,279167	0,1	1,047846
4,280833	0,1	1,003906
4,282500	0,1	0,994607
4,284167	0,1	1,031122
4,285833	0,1	0,983262
4,287500	0,1	0,948137
4,289167	0,1	0,992532
4,290833	0,1	0,970041
4,292500	0,1	1,000896
4,294167	0,1	0,942597
4,295833	0,1	0,932056
4,297500	0,1	0,967099
4,299167	0,1	0,937601
4,300833	0,1	0,965707
4,302500	0,1	0,966933
4,304167	0,1	0,933678
4,305833	0,1	0,925000
4,307500	0,1	0,890246
4,309167	0,1	0,925971
4,310833	0,1	0,872288
4,312500	0,1	0,903666
4,314167	0,1	0,914733
4,315833	0,1	0,923001
4,317500	0,1	0,906800
4,319167	0,1	0,858300
4,320833	0,1	0,851810
4,322500	0,1	0,904436
4,324167	0,1	0,880754
4,325833	0,1	0,885159
4,327500	0,1	0,830278
4,329167	0,1	0,858058
4,330833	0,1	0,836657
4,332500	0,1	0,863121
4,334167	0,1	0,853002
4,335833	0,1	0,828342
4,337500	0,1	0,825213
4,339167	0,1	0,829686
4,340833	0,1	0,834750
4,342500	0,1	0,838345
4,344167	0,1	0,820101
4,345833	0,1	0,801013
4,347500	0,1	0,809913
4,349167	0,1	0,810033
4,350833	0,1	0,802546
4,352500	0,1	0,779356
4,354167	0,1	0,800464
4,355833	0,1	0,776364
4,357500	0,1	0,806812
4,359167	0,1	0,807621
4,360833	0,1	0,745876
4,362500	0,1	0,791998
4,364167	0,1	0,755090
4,365833	0,1	0,777377
4,367500	0,1	0,761252
4,369167	0,1	0,809734
4,370833	0,1	0,766505
4,372500	0,1	0,767322
4,374167	0,1	0,728357
4,375833	0,1	0,748939
4,377500	0,1	0,774844
4,379167	0,1	0,777933
4,380833	0,1	0,745438
4,382500	0,1	0,758227
4,384167	0,1	0,711101
4,385833	0,1	0,760332
4,387500	0,1	0,702458
4,389167	0,1	0,783056
4,390833	0,1	0,786354
4,392500	0,1	0,735329
4,394167	0,1	0,749349
4,395833	0,1	0,742006
4,397500	0,1	0,739461
4,399167	0,1	0,693423
4,400833	0,1	0,709092
4,402500	0,1	0,731390
4,404167	0,1	0,724588
4,405833	0,1	0,762357
4,407500	0,1	0,707664
4,409167	0,1	0,719534
4,410833	0,1	0,700838
4,412500	0,1	0,685934
4,414167	0,1	0,689338
4,415833	0,1	0,710246
4,417500	0,1	0,704534
4,419167	0,1	0,722719
4,420833	0,1	0,688474
4,422500	0,1	0,717761
4,424167	0,1	0,674373
4,425833	0,1	0,665108
4,427500	0,1	0,669792
4,429167	0,1	0,650590
4,430833	0,1	0,696967
4,432500	0,1	0,640123
4,434167	0,1	0,676760
4,435833	0,1	0,679301
4,437500	0,1	0,706806
4,439167	0,1	0,697978
4,440833	0,1	0,672601
4,442500	0,1	0,667937
4,444167	0,1	0,697326
4,445833	0,1	0,658495
4,447500	0,1	0,624538
4,449167	0,1	0,660340
4,450833	0,1	0,646728
4,452500	0,1	0,676464
4,454167	0,1	0,642818
4,455833	0,1	0,642198
4,457500	0,1	0,652801
4,459167	0,1	0,657100
4,460833	0,1	0,645031
4,462500	0,1	0,598097
4,464167	0,1	0,656284
4,465833	0,1	0,620808
4,467500	0,1	0,609495
4,469167	0,1	0,665253
4,470833	0,1	0,631153
4,472500	0,1	0,588975
4,474167	0,1	0,636113
4,475833	0,1	0,602337
4,477500	0,1	0,584313
4,479167	0,1	0,650753
4,480833	0,1	0,643708
4,482500	0,1	0,610014
4,484167	0,1	0,606410
4,485833	0,1	0,617006
4,487500	0,1	0,573875
4,489167	0,1	0,583403
4,490833	0,1	0,616040
4,492500	0,1	0,586111
4,494167	0,1	0,600139
4,495833	0,1	0,600497
4,497500	0,1	0,573229
4,499167	0,1	0,640283
4,500833	0,1	0,600087
4,502500	0,1	0,563884
4,504167	0,1	0,576367
4,505833	0,1	0,567154
4,507500	0,1	0,560214
4,509167	0,1	0,570362
4,510833	0,1	0,579164
4,512500	0,1	0,557714
4,514167	0,1	0,607776
4,515833	0,1	0,568092
4,517500	0,1	0,579357
4,519167	0,1	0,578427
4,520833	0,1	0,544705
4,522500	0,1	0,564640
4,524167	0,1	0,534169
4,525833	0,1	0,491966
4,527500	0,1	0,525609
4,529167	0,1	0,526452
4,530833	0,1	0,520287
4,532500	0,1	0,502593
4,534167	0,1	0,561483
4,535833	0,1	0,527714
4,537500	0,1	0,550699
4,539167	0,1	0,523665
4,540833	0,1	0,513607
4,542500	0,1	0,530816
4,544167	0,1	0,503847
4,545833	0,1	0,500278
4,547500	0,1	0,526060
4,549167	0,1	0,561389
4,550833	0,1	0,515286
4,552500	0,1	0,501916
4,554167	0,1	0,488845
4,555833	0,1	0,531516
4,557500	0,1	0,523019
4,559167	0,1	0,484130
4,560833	0,1	0,526283
4,562500	0,1	0,487598
4,564167	0,1	0,488809
4,565833	0,1	0,471084
4,567500	0,1	0,479527
4,569167	0,1	0,468162
4,570833	0,1	0,441636
4,572500	0,1	0,464428
4,574167	0,1	0,524158
4,575833	0,1	0,486475
4,577500	0,1	0,485854
4,579167	0,1	0,440967
4,580833	0,1	0,461504
4,582500	0,1	0,408987
4,584167	0,1	0,449490
4,585833	0,1	0,444523
4,587500	0,1	0,482056
4,589167	0,1	0,449058
4,590833	0,1	0,471397
4,592500	0,1	0,433101
4,594167	0,1	0,426058
4,595833	0,1	0,428205
4,597500	0,1	0,417166
4,599167	0,1	0,432152
4,600833	0,1	0,465968
4,602500	0,1	0,433291
4,604167	0,1	0,420729
4,605833	0,1	0,448499
4,607500	0,1	0,411357
4,609167	0,1	0,406820
4,610833	0,1	0,414142
4,612500	0,1	0,409840
4,614167	0,1	0,395077
4,615833	0,1	0,412532
4,617500	0,1	0,394203
4,619167	0,1	0,400464
4,620833	0,1	0,405184
4,622500	0,1	0,389228
4,624167	0,1	0,399722
4,625833	0,1	0,409997
4,627500	0,1	0,391479
4,629167	0,1	0,408423
4,630833	0,1	0,401976
4,632500	0,1	0,390512
4,634167	0,1	0,398188
4,635833	0,1	0,393754
4,637500	0,1	0,424189
4,639167	0,1	0,357680
4,640833	0,1	0,348676
4,642500	0,1	0,367222
4,644167	0,1	0,413622
4,645833	0,1	0,405766
4,647500	0,1	0,368429
4,649167	0,1	0,370410
4,650833	0,1	0,370444
4,652500	0,1	0,307180
4,654167	0,1	0,396751
4,655833	0,1	0,373239
4,657500	0,1	0,389481
4,659167	0,1	0,336225
4,660833	0,1	0,376983
4,662500	0,1	0,370636
4,664167	0,1	0,368899
4,665833	0,1	0,378565
4,667500	0,1	0,370603
4,669167	0,1	0,356159
4,670833	0,1	0,341734
4,672500	0,1	0,385881
4,674167	0,1	0,352211
4,675833	0,1	0,336541
4,677500	0,1	0,352714
4,679167	0,1	0,348097
4,680833	0,1	0,342247
4,682500	0,1	0,354938
4,684167	0,1	0,316028
4,685833	0,1	0,313423
4,687500	0,1	0,357238
4,689167	0,1	0,347519
4,690833	0,1	0,348286
4,692500	0,1	0,364533
4,694167	0,1	0,336581
4,695833	0,1	0,287969
4,697500	0,1	0,345767
4,699167	0,1	0,330501
4,700833	0,1	0,315740
4,702500	0,1	0,310558
4,704167	0,1	0,333060
4,705833	0,1	0,331979
4,707500	0,1	0,306584
4,709167	0,1	0,293385
4,710833	0,1	0,341311
4,712500	0,1	0,316060
4,714167	0,1	0,279104
4,715833	0,1	0,329977
4,717500	0,1	0,315225
4,719167	0,1	0,326227
4,720833	0,1	0,299041
4,722500	0,1	0,332550
4,724167	0,1	0,289224
4,725833	0,1	0,287252
4,727500	0,1	0,354474
4,729167	0,1	0,327293
4,730833	0,1	0,314067
4,732500	0,1	0,338106
4,734167	0,1	0,295328
4,735833	0,1	0,326320
4,737500	0,1	0,264568
4,739167	0,1	0,278070
4,740833	0,1	0,317202
4,742500	0,1	0,273688
4,744167	0,1	0,277367
4,745833	0,1	0,315014
4,747500	0,1	0,310791
4,749167	0,1	0,279464
4,750833	0,1	0,279393
4,752500	0,1	0,305457
4,754167	0,1	0,271760
4,755833	0,1	0,290657
4,757500	0,1	0,288230
4,759167	0,1	0,243290
4,760833	0,1	0,288019
4,762500	0,1	0,255583
4,764167	0,1	0,274189
4,765833	0,1	0,258627
4,767500	0,1	0,265972
4,769167	0,1	0,290175
4,770833	0,1	0,234430
4,772500	0,1	0,293829
4,774167	0,1	0,272073
4,775833	0,1	0,287031
4,777500	0,1	0,247266
4,779167	0,1	0,267179
4,780833	0,1	0,268632
4,782500	0,1	0,245210
4,784167	0,1	0,251497
4,785833	0,1	0,279187
4,787500	0,1	0,221982
4,789167	0,1	0,256047
4,790833	0,1	0,291232
4,792500	0,1	0,261651
4,794167	0,1	0,237381
4,795833	0,1	0,252740
4,797500	0,1	0,238662
4,799167	0,1	0,241199
4,800833	0,1	0,242510
4,802500	0,1	0,202581
4,804167	0,1	0,266411
4,805833	0,1	0,240465
4,807500	0,1	0,257560
4,809167	0,1	0,256245
4,810833	0,1	0,251700
4,812500	0,1	0,231854
4,814167	0,1	0,243375
4,815833	0,1	0,262987
4,817500	0,1	0,252911
4,819167	0,1	0,228897
4,820833	0,1	0,281534
4,822500	0,1	0,246848
4,824167	0,1	0,230794
4,825833	0,1	0,238177
4,827500	0,1	0,265125
4,829167	0,1	0,242642
4,830833	0,1	0,243630
4,832500	0,1	0,215039
4,834167	0,1	0,219549
4,835833	0,1	0,267951
4,837500	0,1	0,225566
4,839167	0,1	0,243247
4,840833	0,1	0,219469
4,842500	0,1	0,244845
4,844167	0,1	0,216863
4,845833	0,1	0,265032
4,847500	0,1	0,237922
4,849167	0,1	0,202454
4,850833	0,1	0,267568
4,852500	0,1	0,223614
4,854167	0,1	0,218558
4,855833	0,1	0,242793
4,857500	0,1	0,249445
4,859167	0,1	0,230996
4,860833	0,1	0,188245
4,862500	0,1	0,204920
4,864167	0,1	0,219546
4,865833	0,1	0,223476
4,867500	0,1	0,232021
4,869167	0,1	0,214934
4,870833	0,1	0,246355
4,872500	0,1	0,226364
4,874167	0,1	0,227871
4,875833	0,1	0,210278
4,877500	0,1	0,218138
4,879167	0,1	0,218821
4,880833	0,1	0,192697
4,882500	0,1	0,193081
4,884167	0,1	0,251583
4,885833	0,1	0,197650
4,887500	0,1	0,236208
4,889167	0,1	0,237273
4,890833	0,1	0,221909
4,892500	0,1	0,214995
4,894167	0,1	0,230373
4,895833	0,1	0,251556
4,897500	0,1	0,251976
4,899167	0,1	0,241770
4,900833	0,1	0,189405
4,902500	0,1	0,245617
4,904167	0,1	0,242473
4,905833	0,1	0,250539
4,907500	0,1	0,220364
4,909167	0,1	0,244392
4,910833	0,1	0,209866
4,912500	0,1	0,213106
4,914167	0,1	0,199541
4,915833	0,1	0,210245
4,917500	0,1	0,203995
4,919167	0,1	0,237430
4,920833	0,1	0,206655
4,922500	0,1	0,188881
4,924167	0,1	0,217743
4,925833	0,1	0,181684
4,927500	0,1	0,200161
4,929167	0,1	0,182941
4,930833	0,1	0,269128
4,932500	0,1	0,228586
4,934167	0,1	0,235346
4,935833	0,1	0,220963
4,937500	0,1	0,213397
4,939167	0,1	0,208512
4,940833	0,1	0,228634
4,942500	0,1	0,226978
4,944167	0,1	0,188332
4,945833	0,1	0,202025
4,947500	0,1	0,175100
4,949167	0,1	0,246472
4,950833	0,1	0,250691
4,952500	0,1	0,212259
4,954167	0,1	0,266504
4,955833	0,1	0,237760
4,957500	0,1	0,226941
4,959167	0,1	0,217980
4,960833	0,1	0,199340
4,962500	0,1	0,198806
4,964167	0,1	0,200016
4,965833	0,1	0,212624
4,967500	0,1	0,231278
4,969167	0,1	0,213072
4,970833	0,1	0,210953
4,972500	0,1	0,243334
4,974167	0,1	0,211063
4,975833	0,1	0,241571
4,977500	0,1	0,244058
4,979167	0,1	0,226628
4,980833	0,1	0,216418
4,982500	0,1	0,217058
4,984167	0,1	0,221676
4,985833	0,1	0,253417
4,987500	0,1	0,191171
4,989167	0,1	0,226327
4,990833	0,1	0,243437
4,992500	0,1	0,214811
4,994167	0,1	0,269272
4,995833	0,1	0,276697
4,997500	0,1	0,252209
4,999167	0,1	0,246943
5,000833	0,1	0,200051
5,002500	0,1	0,202898
5,004167	0,1	0,243722
5,005833	0,1	0,247382
5,007500	0,1	0,211855
5,009167	0,1	0,232585
5,010833	0,1	0,225305
5,012500	0,1	0,196284
5,014167	0,1	0,249773
5,015833	0,1	0,221810
5,017500	0,1	0,269625
5,019167	0,1	0,239560
5,020833	0,1	0,253004
5,022500	0,1	0,192868
5,024167	0,1	0,209526
5,025833	0,1	0,255627
5,027500	0,1	0,247043
5,029167	0,1	0,232684
5,030833	0,1	0,247895
5,032500	0,1	0,201272
5,034167	0,1	0,291092
5,035833	0,1	0,207085
5,037500	0,1	0,246542
5,039167	0,1	0,210547
5,040833	0,1	0,248142
5,042500	0,1	0,217631
5,044167	0,1	0,203405
5,045833	0,1	0,268427
5,047500	0,1	0,284301
5,049167	0,1	0,249743
5,050833	0,1	0,289982
5,052500	0,1	0,214181
5,054167	0,1	0,274144
5,055833	0,1	0,244153
5,057500	0,1	0,248740
5,059167	0,1	0,258004
5,060833	0,1	0,261959
5,062500	0,1	0,287028
5,064167	0,1	0,283663
5,065833	0,1	0,279983
5,067500	0,1	0,291779
5,069167	0,1	0,267453
5,070833	0,1	0,247034
5,072500	0,1	0,266222
5,074167	0,1	0,243147
5,075833	0,1	0,253800
5,077500	0,1	0,238360
5,079167	0,1	0,300376
5,080833	0,1	0,267266
5,082500	0,1	0,280060
5,084167	0,1	0,261133
5,085833	0,1	0,281377
5,087500	0,1	0,297142
5,089167	0,1	0,288121
5,090833	0,1	0,289023
5,092500	0,1	0,287063
5,094167	0,1	0,334282
5,095833	0,1	0,285727
5,097500	0,1	0,259939
5,099167	0,1	0,278041
5,100833	0,1	0,278614
5,102500	0,1	0,264784
5,104167	0,1	0,283911
5,105833	0,1	0,282530
5,107500	0,1	0,284430
5,109167	0,1	0,259296
5,110833	0,1	0,266642
5,112500	0,1	0,252007
5,114167	0,1	0,264462
5,115833	0,1	0,271613
5,117500	0,1	0,269538
5,119167	0,1	0,276118
5,120833	0,1	0,263219
5,122500	0,1	0,280546
5,124167	0,1	0,266482
5,125833	0,1	0,277717
5,127500	0,1	0,295304
5,129167	0,1	0,317298
5,130833	0,1	0,309635
5,132500	0,1	0,265949
5,134167	0,1	0,293476
5,135833	0,1	0,279649
5,137500	0,1	0,261838
5,139167	0,1	0,316585
5,140833	0,1	0,284790
5,142500	0,1	0,260317
5,144167	0,1	0,286035
5,145833	0,1	0,236454
5,147500	0,1	0,274500
5,149167	0,1	0,281861
5,150833	0,1	0,253003
5,152500	0,1	0,257816
5,154167	0,1	0,264036
5,155833	0,1	0,323491
5,157500	0,1	0,296083
5,159167	0,1	0,271495
5,160833	0,1	0,269096
5,162500	0,1	0,273551
5,164167	0,1	0,304969
5,165833	0,1	0,303014
5,167500	0,1	0,299262
5,169167	0,1	0,294803
5,170833	0,1	0,259526
5,172500	0,1	0,271496
5,174167	0,1	0,262541
5,175833	0,1	0,290845
5,177500	0,1	0,244799
5,179167	0,1	0,272026
5,180833	0,1	0,283568
5,182500	0,1	0,275154
5,184167	0,1	0,284040
5,185833	0,1	0,260997
5,187500	0,1	0,279315
5,189167	0,1	0,271291
5,190833	0,1	0,260398
5,192500	0,1	0,282752
5,194167	0,1	0,250538
5,195833	0,1	0,273258
5,197500	0,1	0,274737
5,199167	0,1	0,268733
5,200833	0,1	0,271299
5,202500	0,1	0,233331
5,204167	0,1	0,263146
5,205833	0,1	0,200307
5,207500	0,1	0,234130
5,209167	0,1	0,239399
5,210833	0,1	0,223607
5,212500	0,1	0,235320
5,214167	0,1	0,238820
5,215833	0,1	0,224626
5,217500	0,1	0,191352
5,219167	0,1	0,222626
5,220833	0,1	0,232753
5,222500	0,1	0,253518
5,224167	0,1	0,227941
5,225833	0,1	0,223379
5,227500	0,1	0,231784
5,229167	0,1	0,230842
5,230833	0,1	0,184896
5,232500	0,1	0,204655
5,234167	0,1	0,234347
5,235833	0,1	0,237083
5,237500	0,1	0,182345
5,239167	0,1	0,209702
5,240833	0,1	0,209153
5,242500	0,1	0,238652
5,244167	0,1	0,195471
5,245833	0,1	0,178408
5,247500	0,1	0,233447
5,249167	0,1	0,192247
5,250833	0,1	0,197673
5,252500	0,1	0,231298
5,254167	0,1	0,232302
5,255833	0,1	0,220082
5,257500	0,1	0,205734
5,259167	0,1	0,175883
5,260833	0,1	0,194900
5,262500	0,1	0,185104
5,264167	0,1	0,193758
5,265833	0,1	0,175629
5,267500	0,1	0,186395
5,269167	0,1	0,178382
5,270833	0,1	0,195331
5,272500	0,1	0,172130
5,274167	0,1	0,178855
5,275833	0,1	0,157289
5,277500	0,1	0,212137
5,279167	0,1	0,215912
5,280833	0,1	0,167027
5,282500	0,1	0,181133
5,284167	0,1	0,157806
5,285833	0,1	0,178601
5,287500	0,1	0,181110
5,289167	0,1	0,134088
5,290833	0,1	0,187719
5,292500	0,1	0,206431
5,294167	0,1	0,184288
5,295833	0,1	0,186271
5,297500	0,1	0,167473
5,299167	0,1	0,143272
5,300833	0,1	0,202405
5,302500	0,1	0,156114
5,304167	0,1	0,174499
5,305833	0,1	0,148899
5,307500	0,1	0,177920
5,309167	0,1	0,124087
5,310833	0,1	0,149538
5,312500	0,1	0,160030
5,314167	0,1	0,144945
5,315833	0,1	0,161397
5,317500	0,1	0,113151
5,319167	0,1	0,150606
5,320833	0,1	0,178123
5,322500	0,1	0,149980
5,324167	0,1	0,087546
5,325833	0,1	0,115495
5,327500	0,1	0,160560
5,329167	0,1	0,146228
5,330833	0,1	0,188615
5,332500	0,1	0,137956
5,334167	0,1	0,094045
5,335833	0,1	0,129880
5,337500	0,1	0,127055
5,339167	0,1	0,121650
5,340833	0,1	0,195794
5,342500	0,1	0,102854
5,344167	0,1	0,130360
5,345833	0,1	0,134608
5,347500	0,1	0,114098
5,349167	0,1	0,123946
5,350833	0,1	0,114012
5,352500	0,1	0,121505
5,354167	0,1	0,130653
5,355833	0,1	0,128089
5,357500	0,1	0,095843
5,359167	0,1	0,112226
5,360833	0,1	0,152055
5,362500	0,1	0,078172
5,364167	0,1	0,084014
5,365833	0,1	0,082751
5,367500	0,1	0,117977
5,369167	0,1	0,119143
5,370833	0,1	0,115190
5,372500	0,1	0,102999
5,374167	0,1	0,112065
5,375833	0,1	0,107842
5,377500	0,1	0,100742
5,379167	0,1	0,109991
5,380833	0,1	0,090103
5,382500	0,1	0,139982
5,384167	0,1	0,112112
5,385833	0,1	0,140316
5,387500	0,1	0,063475
5,389167	0,1	0,096303
5,390833	0,1	0,111727
5,392500	0,1	0,128062
5,394167	0,1	0,110680
5,395833	0,1	0,104117
5,397500	0,1	0,069944
5,399167	0,1	0,042018
5,400833	0,1	0,037996
5,402500	0,1	0,058029
5,404167	0,1	0,088290
5,405833	0,1	0,083580
5,407500	0,1	0,076272
5,409167	0,1	0,086432
5,410833	0,1	0,088775
5,412500	0,1	0,088401
5,414167	0,1	0,067023
5,415833	0,1	0,105782
5,417500	0,1	0,078514
5,419167	0,1	0,094257
5,420833	0,1	0,066547
5,422500	0,1	0,090092
5,424167	0,1	0,052723
5,425833	0,1	0,079143
5,427500	0,1	0,025609
5,429167	0,1	0,099127
5,430833	0,1	0,056244
5,432500	0,1	0,078603
5,434167	0,1	0,061640
5,435833	0,1	0,065898
5,437500	0,1	0,073185
5,439167	0,1	0,061658
5,440833	0,1	0,070867
5,442500	0,1	0,074882
5,444167	0,1	0,056795
5,445833	0,1	0,041973
5,447500	0,1	0,071418
5,449167	0,1	0,043570
5,450833	0,1	0,061239
5,452500	0,1	0,083200
5,454167	0,1	0,033826
5,455833	0,1	0,048052
5,457500	0,1	0,066248
5,459167	0,1	0,057538
5,460833	0,1	0,051390
5,462500	0,1	0,069228
5,464167	0,1	0,058822
5,465833	0,1	0,038333
5,467500	0,1	0,076407
5,469167	0,1	0,072379
5,470833	0,1	0,036101
5,472500	0,1	0,022453
5,474167	0,1	0,041159
5,475833	0,1	0,032719
5,477500	0,1	0,043521
5,479167	0,1	0,056270
5,480833	0,1	0,022045
5,482500	0,1	0,086461
5,484167	0,1	0,009285
5,485833	0,1	0,041899
5,487500	0,1	0,048345
5,489167	0,1	0,046730
5,490833	0,1	0,041620
5,492500	0,1	0,013516
5,494167	0,1	0,055683
5,495833	0,1	0,018776
5,497500	0,1	0,043580
5,499167	0,1	0,037003
5,500833	0,1	0,037686
5,502500	0,1	0,036341
5,504167	0,1	0,047515
5,505833	0,1	0,066287
5,507500	0,1	0,058118
5,509167	0,1	0,033302
5,510833	0,1	0,073322
5,512500	0,1	0,042330
5,514167	0,1	0,018482
5,515833	0,1	0,044366
5,517500	0,1	0,039364
5,519167	0,1	0,033732
5,520833	0,1	0,038367
5,522500	0,1	0,010950
5,524167	0,1	0,051316
5,525833	0,1	0,069207
5,527500	0,1	0,035438
5,529167	0,1	0,052998
5,530833	0,1	0,024031
5,532500	0,1	-0,008506
5,534167	0,1	0,026396
5,535833	0,1	-0,006125
5,537500	0,1	0,023251
5,539167	0,1	0,049787
5,540833	0,1	0,001392
5,542500	0,1	0,027081
5,544167	0,1	0,048093
5,545833	0,1	0,044166
5,547500	0,1	0,052689
5,549167	0,1	0,018484
5,550833	0,1	0,027581
5,552500	0,1	0,036731
5,554167	0,1	-0,001199
5,555833	0,1	0,029295
5,557500	0,1	0,022452
5,559167	0,1	0,038324
5,560833	0,1	0,023489
5,562500	0,1	0,017504
5,564167	0,1	0,041613
5,565833	0,1	0,005239
5,567500	0,1	0,029235
5,569167	0,1	0,037870
5,570833	0,1	0,004535
5,572500	0,1	-0,005737
5,574167	0,1	0,026106
5,575833	0,1	0,035200
5,577500	0,1	0,018191
5,579167	0,1	0,042523
5,580833	0,1	0,030794
5,582500	0,1	0,036339
5,584167	0,1	0,007162
5,585833	0,1	-0,005532
5,587500	0,1	0,015263
5,589167	0,1	0,003826
5,590833	0,1	0,013672
5,592500	0,1	0,017876
5,594167	0,1	0,017360
5,595833	0,1	0,014875
5,597500	0,1	0,034058
5,599167	0,1	-0,016678
5,600833	0,1	0,030947
5,602500	0,1	0,007573
5,604167	0,1	0,031366
5,605833	0,1	0,004428
5,607500	0,1	0,035980
5,609167	0,1	0,014569
5,610833	0,1	-0,016909
5,612500	0,1	0,048972
5,614167	0,1	0,017367
5,615833	0,1	0,040061
5,617500	0,1	0,034705
5,619167	0,1	0,006291
5,620833	0,1	0,022675
5,622500	0,1	0,011172
5,624167	0,1	0,039418
5,625833	0,1	-0,005813
5,627500	0,1	0,032252
5,629167	0,1	0,022102
5,630833	0,1	0,048609
5,632500	0,1	0,021815
5,634167	0,1	0,023693
5,635833	0,1	0,041696
5,637500	0,1	0,046336
5,639167	0,1	0,016641
5,640833	0,1	0,004839
5,642500	0,1	0,026481
5,644167	0,1	0,027769
5,645833	0,1	0,007883
5,647500	0,1	0,026295
5,649167	0,1	-0,009355
5,650833	0,1	0,017186
5,652500	0,1	0,011627
5,654167	0,1	-0,007598
5,655833	0,1	0,059239
5,657500	0,1	0,010065
5,659167	0,1	0,039107
5,660833	0,1	-0,004489
5,662500	0,1	0,036433
5,664167	0,1	0,008507
5,665833	0,1	0,047427
5,667500	0,1	-0,000908
5,669167	0,1	0,012574
5,670833	0,1	0,048377
5,672500	0,1	0,025726
5,674167	0,1	0,054672
5,675833	0,1	0,083157
5,677500	0,1	0,011103
5,679167	0,1	0,037576
5,680833	0,1	0,017011
5,682500	0,1	0,045773
5,684167	0,1	0,036900
5,685833	0,1	0,034973
5,687500	0,1	0,057613
5,689167	0,1	-0,000283
5,690833	0,1	0,032067
5,692500	0,1	0,036236
5,694167	0,1	0,066739
5,695833	0,1	0,036803
5,697500	0,1	0,037065
5,699167	0,1	0,088514
5,700833	0,1	0,031012
5,702500	0,1	0,045134
5,704167	0,1	0,080463
5,705833	0,1	0,065385
5,707500	0,1	0,039679
5,709167	0,1	0,042322
5,710833	0,1	0,054325
5,712500	0,1	0,053025
5,714167	0,1	0,056004
5,715833	0,1	0,048224
5,717500	0,1	0,075911
5,719167	0,1	0,070785
5,720833	0,1	0,063376
5,722500	0,1	0,010934
5,724167	0,1	0,061787
5,725833	0,1	0,058199
5,727500	0,1	0,102361
5,729167	0,1	0,036334
5,730833	0,1	0,066886
5,732500	0,1	0,045038
5,734167	0,1	0,067138
5,735833	0,1	0,068115
5,737500	0,1	0,090633
5,739167	0,1	0,057129
5,740833	0,1	0,089511
5,742500	0,1	0,089293
5,744167	0,1	0,073666
5,745833	0,1	0,045475
5,747500	0,1	0,057141
5,749167	0,1	0,070741
5,750833	0,1	0,092229
5,752500	0,1	0,063443
5,754167	0,1	0,091024
5,755833	0,1	0,055041
5,757500	0,1	0,056397
5,759167	0,1	0,072479
5,760833	0,1	0,063544
5,762500	0,1	0,070514
5,764167	0,1	0,058099
5,765833	0,1	0,056875
5,767500	0,1	0,078234
5,769167	0,1	0,093241
5,770833	0,1	0,066134
5,772500	0,1	0,072749
5,774167	0,1	0,083989
5,775833	0,1	0,049638
5,777500	0,1	0,072520
5,779167	0,1	0,019772
5,780833	0,1	0,064791
5,782500	0,1	0,084318
5,784167	0,1	0,087200
5,785833	0,1	0,034779
5,787500	0,1	0,089363
5,789167	0,1	0,077783
5,790833	0,1	0,059610
5,792500	0,1	0,096798
5,794167	0,1	0,086273
5,795833	0,1	0,091567
5,797500	0,1	0,087015
5,799167	0,1	0,054895
5,800833	0,1	0,066704
5,802500	0,1	0,040714
5,804167	0,1	0,020198
5,805833	0,1	0,077953
5,807500	0,1	0,082045
5,809167	0,1	0,101770
5,810833	0,1	0,068559
5,812500	0,1	0,052263
5,814167	0,1	0,038619
5,815833	0,1	0,068004
5,817500	0,1	0,074138
5,819167	0,1	0,063563
5,820833	0,1	0,114247
5,822500	0,1	0,086090
5,824167	0,1	0,071389
5,825833	0,1	0,068178
5,827500	0,1	0,070079
5,829167	0,1	0,054476
5,830833	0,1	0,055755
5,832500	0,1	0,081772
5,834167	0,1	0,093720
5,835833	0,1	0,036125
5,837500	0,1	0,047162
5,839167	0,1	0,047662
5,840833	0,1	0,096527
5,842500	0,1	0,047386
5,844167	0,1	0,092098
5,845833	0,1	0,078448
5,847500	0,1	0,097568
5,849167	0,1	0,082133
5,850833	0,1	0,095315
5,852500	0,1	0,071846
5,854167	0,1	0,088397
5,855833	0,1	0,069318
5,857500	0,1	0,069936
5,859167	0,1	0,071032
5,860833	0,1	0,054954
5,862500	0,1	0,068132
5,864167	0,1	0,069294
5,865833	0,1	0,043798
5,867500	0,1	0,096856
5,869167	0,1	0,039272
5,870833	0,1	0,051676
5,872500	0,1	0,054678
5,874167	0,1	0,100293
5,875833	0,1	0,061520
5,877500	0,1	0,115984
5,879167	0,1	0,019432
5,880833	0,1	0,103142
5,882500	0,1	0,059266
5,884167	0,1	0,055881
5,885833	0,1	0,088352
5,887500	0,1	0,064270
5,889167	0,1	0,076868
5,890833	0,1	0,081237
5,892500	0,1	0,055844
5,894167	0,1	0,049402
5,895833	0,1	0,036508
5,897500	0,1	0,034787
5,899167	0,1	0,080585
5,900833	0,1	0,071882
5,902500	0,1	0,057167
5,904167	0,1	0,027963
5,905833	0,1	0,061173
5,907500	0,1	0,029640
5,909167	0,1	0,026446
5,910833	0,1	0,027004
5,912500	0,1	0,066037
5,914167	0,1	0,056793
5,915833	0,1	0,016188
5,917500	0,1	0,044136
5,919167	0,1	0,067717
5,920833	0,1	0,033658
5,922500	0,1	0,036256
5,924167	0,1	0,060366
5,925833	0,1	0,099614
5,927500	0,1	0,048896
5,929167	0,1	0,079119
5,930833	0,1	0,028361
5,932500	0,1	0,061399
5,934167	0,1	0,072893
5,935833	0,1	0,019772
5,937500	0,1	0,057610
5,939167	0,1	0,059379
5,940833	0,1	0,046009
5,942500	0,1	0,051842
5,944167	0,1	0,013705
5,945833	0,1	0,015391
5,947500	0,1	0,091200
5,949167	0,1	0,020337
5,950833	0,1	0,023258
5,952500	0,1	0,055915
5,954167	0,1	0,004849
5,955833	0,1	0,062614
5,957500	0,1	0,061096
5,959167	0,1	0,086987
5,960833	0,1	0,078486
5,962500	0,1	0,028816
5,964167	0,1	0,036399
5,965833	0,1	0,022558
5,967500	0,1	0,042979
5,969167	0,1	0,031229
5,970833	0,1	0,053246
5,972500	0,1	-0,000160
5,974167	0,1	0,025757
5,975833	0,1	0,056907
5,977500	0,1	0,025397
5,979167	0,1	0,042793
5,980833	0,1	0,068665
5,982500	0,1	0,037259
5,984167	0,1	-0,013511
5,985833	0,1	0,013150
5,987500	0,1	0,045667
5,989167	0,1	0,004555
5,990833	0,1	0,014831
5,992500	0,1	0,043494
5,994167	0,1	0,003935
5,995833	0,1	0,050385
5,997500	0,1	0,005963
5,999167	0,1	0,053757
6,000833	0,1	0,000646
