File Path	chrom://chromeleon01/ikbm_chromeleon/2022/Rezex/Esteban/220612_chitin_4_7.seq/473.smp/UV_VIS_1.channel/UV_VIS_1.chm
Channel	UV_VIS_1

Injection Information:
Data Vault	ikbm_chromeleon
Injection	4_01h-EGS_1
Injection Number	94
Position	GE5
Comment	
Processing Method	New ProcMethod
Instrument Method	Short_Rezex_6min_194nm
Type	Unknown
Status	Finished
Injection Date	13.06.2022
Injection Time	03:16:05
Injection Volume (µl)	8,000
Dilution Factor	1,0000
Weight	1,0000

Chromatogram Data Information:
Time Min. (min)	0,000833
Time Max. (min)	6,000833
Data Points	3601
Detector	UV
Generating Data System	Chromeleon 7.2.9.11323
Exporting Data System	Chromeleon 7.2.9.0
Operator	Instrument Controller
Signal Quantity	Absorbance
Signal Unit	mAU
Signal Min.	-0,119183
Signal Max.	112,992309
Channel	UV_VIS_1
Driver Name	VWD3000.dll
Channel Type	Evaluation
Min. Step (s)	0,1
Max. Step (s)	0,1
Average Step (s)	0,1

Signal Parameter Information:
Signal Info	WVL:194 nm

Chromatogram Data:
Time (min)	Step (s)	Value (mAU)
0,000833	n.a.	0,004005
0,002500	0,1	-0,039420
0,004167	0,1	-0,022337
0,005833	0,1	-0,035164
0,007500	0,1	-0,040836
0,009167	0,1	-0,006255
0,010833	0,1	0,014408
0,012500	0,1	-0,012166
0,014167	0,1	-0,035161
0,015833	0,1	0,014481
0,017500	0,1	0,023395
0,019167	0,1	-0,013524
0,020833	0,1	-0,023113
0,022500	0,1	-0,054272
0,024167	0,1	-0,033722
0,025833	0,1	-0,024155
0,027500	0,1	-0,038282
0,029167	0,1	-0,035932
0,030833	0,1	-0,051328
0,032500	0,1	-0,079496
0,034167	0,1	-0,017705
0,035833	0,1	-0,073195
0,037500	0,1	-0,105037
0,039167	0,1	-0,040500
0,040833	0,1	-0,088827
0,042500	0,1	-0,081660
0,044167	0,1	-0,119183
0,045833	0,1	-0,055532
0,047500	0,1	-0,047959
0,049167	0,1	-0,020810
0,050833	0,1	-0,021463
0,052500	0,1	-0,043961
0,054167	0,1	-0,015237
0,055833	0,1	-0,014835
0,057500	0,1	-0,034170
0,059167	0,1	-0,001259
0,060833	0,1	-0,036626
0,062500	0,1	-0,032846
0,064167	0,1	-0,027194
0,065833	0,1	-0,047415
0,067500	0,1	-0,006836
0,069167	0,1	-0,022470
0,070833	0,1	-0,025190
0,072500	0,1	-0,039031
0,074167	0,1	-0,037828
0,075833	0,1	-0,041186
0,077500	0,1	-0,015544
0,079167	0,1	-0,064963
0,080833	0,1	-0,016937
0,082500	0,1	0,003420
0,084167	0,1	0,015035
0,085833	0,1	0,026629
0,087500	0,1	-0,055742
0,089167	0,1	-0,022174
0,090833	0,1	-0,026200
0,092500	0,1	0,021814
0,094167	0,1	-0,008972
0,095833	0,1	-0,010535
0,097500	0,1	0,032397
0,099167	0,1	-0,042409
0,100833	0,1	0,008239
0,102500	0,1	-0,021060
0,104167	0,1	-0,029407
0,105833	0,1	-0,025315
0,107500	0,1	-0,054947
0,109167	0,1	-0,057091
0,110833	0,1	-0,057794
0,112500	0,1	-0,023949
0,114167	0,1	-0,061070
0,115833	0,1	-0,066930
0,117500	0,1	-0,033112
0,119167	0,1	-0,052779
0,120833	0,1	-0,039907
0,122500	0,1	-0,008529
0,124167	0,1	-0,039377
0,125833	0,1	-0,020657
0,127500	0,1	-0,032139
0,129167	0,1	-0,068694
0,130833	0,1	-0,027141
0,132500	0,1	-0,035428
0,134167	0,1	-0,036360
0,135833	0,1	-0,051435
0,137500	0,1	-0,050462
0,139167	0,1	-0,015896
0,140833	0,1	-0,034002
0,142500	0,1	-0,046134
0,144167	0,1	-0,022126
0,145833	0,1	-0,037395
0,147500	0,1	-0,009250
0,149167	0,1	-0,010754
0,150833	0,1	-0,006705
0,152500	0,1	-0,072123
0,154167	0,1	0,005620
0,155833	0,1	-0,010566
0,157500	0,1	0,009653
0,159167	0,1	-0,049025
0,160833	0,1	-0,032711
0,162500	0,1	-0,029119
0,164167	0,1	-0,006805
0,165833	0,1	-0,014234
0,167500	0,1	-0,021891
0,169167	0,1	-0,041993
0,170833	0,1	-0,046611
0,172500	0,1	-0,000543
0,174167	0,1	0,027760
0,175833	0,1	0,023197
0,177500	0,1	0,004440
0,179167	0,1	-0,019990
0,180833	0,1	-0,002662
0,182500	0,1	-0,019077
0,184167	0,1	-0,008524
0,185833	0,1	-0,010342
0,187500	0,1	0,007763
0,189167	0,1	-0,042916
0,190833	0,1	0,021378
0,192500	0,1	-0,044870
0,194167	0,1	-0,030801
0,195833	0,1	-0,051405
0,197500	0,1	0,019987
0,199167	0,1	-0,029944
0,200833	0,1	-0,026613
0,202500	0,1	-0,041184
0,204167	0,1	-0,030555
0,205833	0,1	0,019016
0,207500	0,1	-0,024493
0,209167	0,1	0,002582
0,210833	0,1	-0,041529
0,212500	0,1	-0,000769
0,214167	0,1	-0,002976
0,215833	0,1	-0,017029
0,217500	0,1	0,011576
0,219167	0,1	0,009798
0,220833	0,1	-0,033065
0,222500	0,1	-0,010180
0,224167	0,1	-0,001756
0,225833	0,1	0,022072
0,227500	0,1	-0,044213
0,229167	0,1	0,000847
0,230833	0,1	-0,042154
0,232500	0,1	0,033796
0,234167	0,1	-0,010482
0,235833	0,1	0,018758
0,237500	0,1	0,015969
0,239167	0,1	-0,015742
0,240833	0,1	-0,056076
0,242500	0,1	-0,025398
0,244167	0,1	-0,015601
0,245833	0,1	-0,006310
0,247500	0,1	-0,028928
0,249167	0,1	-0,017923
0,250833	0,1	0,031667
0,252500	0,1	0,005127
0,254167	0,1	0,001105
0,255833	0,1	-0,023628
0,257500	0,1	-0,018379
0,259167	0,1	-0,021463
0,260833	0,1	0,000896
0,262500	0,1	-0,022099
0,264167	0,1	-0,022351
0,265833	0,1	-0,009044
0,267500	0,1	-0,020316
0,269167	0,1	-0,013184
0,270833	0,1	0,008201
0,272500	0,1	0,004375
0,274167	0,1	-0,020420
0,275833	0,1	0,033451
0,277500	0,1	0,017898
0,279167	0,1	0,002453
0,280833	0,1	0,005612
0,282500	0,1	0,007810
0,284167	0,1	0,008057
0,285833	0,1	0,006070
0,287500	0,1	-0,020508
0,289167	0,1	-0,005090
0,290833	0,1	-0,002704
0,292500	0,1	0,004768
0,294167	0,1	-0,030377
0,295833	0,1	-0,002050
0,297500	0,1	0,001058
0,299167	0,1	-0,013591
0,300833	0,1	0,001927
0,302500	0,1	0,011474
0,304167	0,1	-0,004563
0,305833	0,1	-0,048877
0,307500	0,1	-0,009587
0,309167	0,1	-0,046603
0,310833	0,1	-0,017285
0,312500	0,1	-0,047765
0,314167	0,1	-0,037324
0,315833	0,1	-0,030510
0,317500	0,1	-0,008511
0,319167	0,1	0,010269
0,320833	0,1	-0,019362
0,322500	0,1	-0,002416
0,324167	0,1	0,011307
0,325833	0,1	0,026998
0,327500	0,1	-0,012213
0,329167	0,1	0,003376
0,330833	0,1	-0,022053
0,332500	0,1	0,028668
0,334167	0,1	-0,006650
0,335833	0,1	0,010189
0,337500	0,1	-0,016673
0,339167	0,1	-0,006415
0,340833	0,1	-0,009058
0,342500	0,1	0,034051
0,344167	0,1	0,000821
0,345833	0,1	0,038318
0,347500	0,1	-0,020181
0,349167	0,1	0,008472
0,350833	0,1	0,002221
0,352500	0,1	-0,020402
0,354167	0,1	0,000580
0,355833	0,1	-0,015973
0,357500	0,1	0,007620
0,359167	0,1	0,001333
0,360833	0,1	0,028032
0,362500	0,1	0,008810
0,364167	0,1	-0,013527
0,365833	0,1	-0,023279
0,367500	0,1	0,003865
0,369167	0,1	0,023438
0,370833	0,1	-0,005279
0,372500	0,1	0,000873
0,374167	0,1	0,004996
0,375833	0,1	-0,012966
0,377500	0,1	-0,013225
0,379167	0,1	0,009915
0,380833	0,1	0,012163
0,382500	0,1	0,021531
0,384167	0,1	-0,034189
0,385833	0,1	0,016617
0,387500	0,1	-0,011082
0,389167	0,1	0,036328
0,390833	0,1	-0,008284
0,392500	0,1	0,014864
0,394167	0,1	0,030313
0,395833	0,1	0,010674
0,397500	0,1	0,042212
0,399167	0,1	0,014666
0,400833	0,1	0,014519
0,402500	0,1	0,014597
0,404167	0,1	0,000316
0,405833	0,1	0,001085
0,407500	0,1	0,010560
0,409167	0,1	-0,003949
0,410833	0,1	0,051149
0,412500	0,1	-0,000520
0,414167	0,1	0,029746
0,415833	0,1	0,008415
0,417500	0,1	0,066014
0,419167	0,1	0,004282
0,420833	0,1	0,015632
0,422500	0,1	0,068003
0,424167	0,1	0,002174
0,425833	0,1	0,006007
0,427500	0,1	-0,001814
0,429167	0,1	0,042747
0,430833	0,1	0,079294
0,432500	0,1	0,001842
0,434167	0,1	0,041753
0,435833	0,1	-0,008801
0,437500	0,1	0,013811
0,439167	0,1	0,022403
0,440833	0,1	0,017149
0,442500	0,1	0,013095
0,444167	0,1	0,055230
0,445833	0,1	0,053772
0,447500	0,1	0,015459
0,449167	0,1	-0,020521
0,450833	0,1	0,026929
0,452500	0,1	0,069227
0,454167	0,1	0,007764
0,455833	0,1	0,014226
0,457500	0,1	0,008349
0,459167	0,1	0,001641
0,460833	0,1	0,030969
0,462500	0,1	0,035405
0,464167	0,1	-0,004892
0,465833	0,1	0,036865
0,467500	0,1	0,025987
0,469167	0,1	0,032381
0,470833	0,1	0,005435
0,472500	0,1	0,029274
0,474167	0,1	0,008123
0,475833	0,1	0,022357
0,477500	0,1	0,037348
0,479167	0,1	0,067057
0,480833	0,1	-0,012046
0,482500	0,1	0,014863
0,484167	0,1	0,035113
0,485833	0,1	0,031655
0,487500	0,1	0,020895
0,489167	0,1	-0,011311
0,490833	0,1	-0,004657
0,492500	0,1	0,032497
0,494167	0,1	0,061072
0,495833	0,1	-0,029827
0,497500	0,1	0,024298
0,499167	0,1	0,035115
0,500833	0,1	0,008002
0,502500	0,1	0,022463
0,504167	0,1	0,044053
0,505833	0,1	0,045922
0,507500	0,1	-0,000195
0,509167	0,1	0,014331
0,510833	0,1	0,048131
0,512500	0,1	0,027007
0,514167	0,1	0,029341
0,515833	0,1	0,061799
0,517500	0,1	0,023468
0,519167	0,1	0,008079
0,520833	0,1	0,042293
0,522500	0,1	0,008829
0,524167	0,1	0,022172
0,525833	0,1	0,041758
0,527500	0,1	0,053209
0,529167	0,1	0,044147
0,530833	0,1	0,040438
0,532500	0,1	0,045903
0,534167	0,1	0,070806
0,535833	0,1	0,061249
0,537500	0,1	0,033488
0,539167	0,1	0,020192
0,540833	0,1	0,035879
0,542500	0,1	0,050184
0,544167	0,1	0,051681
0,545833	0,1	0,018044
0,547500	0,1	0,052747
0,549167	0,1	0,060665
0,550833	0,1	0,090060
0,552500	0,1	0,049597
0,554167	0,1	0,031622
0,555833	0,1	0,036294
0,557500	0,1	0,055359
0,559167	0,1	0,040441
0,560833	0,1	0,018190
0,562500	0,1	0,078561
0,564167	0,1	0,054148
0,565833	0,1	0,041847
0,567500	0,1	0,066561
0,569167	0,1	0,058760
0,570833	0,1	0,042717
0,572500	0,1	0,102496
0,574167	0,1	0,014417
0,575833	0,1	0,071582
0,577500	0,1	0,037545
0,579167	0,1	0,058568
0,580833	0,1	0,068428
0,582500	0,1	0,080022
0,584167	0,1	0,060503
0,585833	0,1	0,118482
0,587500	0,1	0,065296
0,589167	0,1	0,051788
0,590833	0,1	0,079088
0,592500	0,1	0,056691
0,594167	0,1	0,057869
0,595833	0,1	0,092936
0,597500	0,1	0,075412
0,599167	0,1	0,039908
0,600833	0,1	0,064738
0,602500	0,1	0,096332
0,604167	0,1	0,085263
0,605833	0,1	0,067625
0,607500	0,1	0,054807
0,609167	0,1	0,086518
0,610833	0,1	0,092301
0,612500	0,1	0,089383
0,614167	0,1	0,061747
0,615833	0,1	0,056089
0,617500	0,1	0,114402
0,619167	0,1	0,108578
0,620833	0,1	0,100504
0,622500	0,1	0,047218
0,624167	0,1	0,104299
0,625833	0,1	0,104539
0,627500	0,1	0,083778
0,629167	0,1	0,087911
0,630833	0,1	0,096356
0,632500	0,1	0,078536
0,634167	0,1	0,078447
0,635833	0,1	0,119004
0,637500	0,1	0,111933
0,639167	0,1	0,124270
0,640833	0,1	0,075273
0,642500	0,1	0,070460
0,644167	0,1	0,069090
0,645833	0,1	0,070935
0,647500	0,1	0,121424
0,649167	0,1	0,091067
0,650833	0,1	0,127350
0,652500	0,1	0,122929
0,654167	0,1	0,119096
0,655833	0,1	0,144538
0,657500	0,1	0,104964
0,659167	0,1	0,129651
0,660833	0,1	0,104275
0,662500	0,1	0,139236
0,664167	0,1	0,119165
0,665833	0,1	0,137728
0,667500	0,1	0,121524
0,669167	0,1	0,131497
0,670833	0,1	0,133403
0,672500	0,1	0,095438
0,674167	0,1	0,120416
0,675833	0,1	0,135886
0,677500	0,1	0,152037
0,679167	0,1	0,133203
0,680833	0,1	0,120797
0,682500	0,1	0,126260
0,684167	0,1	0,135060
0,685833	0,1	0,162473
0,687500	0,1	0,155501
0,689167	0,1	0,154858
0,690833	0,1	0,152477
0,692500	0,1	0,146514
0,694167	0,1	0,134960
0,695833	0,1	0,172244
0,697500	0,1	0,171942
0,699167	0,1	0,163434
0,700833	0,1	0,188048
0,702500	0,1	0,172299
0,704167	0,1	0,177306
0,705833	0,1	0,130248
0,707500	0,1	0,174086
0,709167	0,1	0,203643
0,710833	0,1	0,232906
0,712500	0,1	0,203345
0,714167	0,1	0,166071
0,715833	0,1	0,218921
0,717500	0,1	0,188727
0,719167	0,1	0,184700
0,720833	0,1	0,172753
0,722500	0,1	0,223190
0,724167	0,1	0,181831
0,725833	0,1	0,196958
0,727500	0,1	0,197708
0,729167	0,1	0,231909
0,730833	0,1	0,245256
0,732500	0,1	0,227389
0,734167	0,1	0,207860
0,735833	0,1	0,264900
0,737500	0,1	0,225013
0,739167	0,1	0,234303
0,740833	0,1	0,243168
0,742500	0,1	0,231740
0,744167	0,1	0,231095
0,745833	0,1	0,240700
0,747500	0,1	0,243357
0,749167	0,1	0,264267
0,750833	0,1	0,253571
0,752500	0,1	0,264873
0,754167	0,1	0,274997
0,755833	0,1	0,304054
0,757500	0,1	0,202993
0,759167	0,1	0,271469
0,760833	0,1	0,278068
0,762500	0,1	0,254232
0,764167	0,1	0,272098
0,765833	0,1	0,238495
0,767500	0,1	0,260642
0,769167	0,1	0,279390
0,770833	0,1	0,264817
0,772500	0,1	0,238845
0,774167	0,1	0,234244
0,775833	0,1	0,247411
0,777500	0,1	0,269757
0,779167	0,1	0,230296
0,780833	0,1	0,268178
0,782500	0,1	0,263859
0,784167	0,1	0,275045
0,785833	0,1	0,256470
0,787500	0,1	0,238905
0,789167	0,1	0,232794
0,790833	0,1	0,240537
0,792500	0,1	0,211135
0,794167	0,1	0,237901
0,795833	0,1	0,274349
0,797500	0,1	0,239551
0,799167	0,1	0,254740
0,800833	0,1	0,204408
0,802500	0,1	0,230423
0,804167	0,1	0,232129
0,805833	0,1	0,213080
0,807500	0,1	0,249332
0,809167	0,1	0,238161
0,810833	0,1	0,200449
0,812500	0,1	0,270864
0,814167	0,1	0,190623
0,815833	0,1	0,236572
0,817500	0,1	0,223182
0,819167	0,1	0,262564
0,820833	0,1	0,232737
0,822500	0,1	0,224364
0,824167	0,1	0,179513
0,825833	0,1	0,289351
0,827500	0,1	0,234381
0,829167	0,1	0,257807
0,830833	0,1	0,254995
0,832500	0,1	0,258204
0,834167	0,1	0,248034
0,835833	0,1	0,212813
0,837500	0,1	0,244446
0,839167	0,1	0,203410
0,840833	0,1	0,231026
0,842500	0,1	0,255051
0,844167	0,1	0,274980
0,845833	0,1	0,208059
0,847500	0,1	0,209452
0,849167	0,1	0,255976
0,850833	0,1	0,238842
0,852500	0,1	0,209703
0,854167	0,1	0,250198
0,855833	0,1	0,192274
0,857500	0,1	0,251503
0,859167	0,1	0,240580
0,860833	0,1	0,260377
0,862500	0,1	0,228760
0,864167	0,1	0,232958
0,865833	0,1	0,231425
0,867500	0,1	0,228340
0,869167	0,1	0,229481
0,870833	0,1	0,233184
0,872500	0,1	0,230163
0,874167	0,1	0,265282
0,875833	0,1	0,211329
0,877500	0,1	0,247859
0,879167	0,1	0,231012
0,880833	0,1	0,215603
0,882500	0,1	0,212101
0,884167	0,1	0,245730
0,885833	0,1	0,218652
0,887500	0,1	0,251979
0,889167	0,1	0,219937
0,890833	0,1	0,257929
0,892500	0,1	0,250586
0,894167	0,1	0,258516
0,895833	0,1	0,214246
0,897500	0,1	0,243225
0,899167	0,1	0,239255
0,900833	0,1	0,235215
0,902500	0,1	0,212894
0,904167	0,1	0,271549
0,905833	0,1	0,207268
0,907500	0,1	0,254550
0,909167	0,1	0,254828
0,910833	0,1	0,270298
0,912500	0,1	0,239738
0,914167	0,1	0,260352
0,915833	0,1	0,265555
0,917500	0,1	0,256882
0,919167	0,1	0,217267
0,920833	0,1	0,250200
0,922500	0,1	0,284258
0,924167	0,1	0,284657
0,925833	0,1	0,274548
0,927500	0,1	0,283408
0,929167	0,1	0,264261
0,930833	0,1	0,253963
0,932500	0,1	0,268600
0,934167	0,1	0,287472
0,935833	0,1	0,291617
0,937500	0,1	0,263536
0,939167	0,1	0,276783
0,940833	0,1	0,294285
0,942500	0,1	0,279210
0,944167	0,1	0,250944
0,945833	0,1	0,286324
0,947500	0,1	0,312301
0,949167	0,1	0,278698
0,950833	0,1	0,252416
0,952500	0,1	0,293575
0,954167	0,1	0,293194
0,955833	0,1	0,302735
0,957500	0,1	0,291056
0,959167	0,1	0,280807
0,960833	0,1	0,309089
0,962500	0,1	0,329830
0,964167	0,1	0,292597
0,965833	0,1	0,274324
0,967500	0,1	0,283910
0,969167	0,1	0,302319
0,970833	0,1	0,296694
0,972500	0,1	0,283627
0,974167	0,1	0,319992
0,975833	0,1	0,323991
0,977500	0,1	0,294171
0,979167	0,1	0,316307
0,980833	0,1	0,314737
0,982500	0,1	0,335133
0,984167	0,1	0,293783
0,985833	0,1	0,315059
0,987500	0,1	0,318589
0,989167	0,1	0,326370
0,990833	0,1	0,350054
0,992500	0,1	0,339207
0,994167	0,1	0,345310
0,995833	0,1	0,300026
0,997500	0,1	0,368581
0,999167	0,1	0,366344
1,000833	0,1	0,355642
1,002500	0,1	0,387089
1,004167	0,1	0,387034
1,005833	0,1	0,376332
1,007500	0,1	0,393984
1,009167	0,1	0,410144
1,010833	0,1	0,429448
1,012500	0,1	0,448720
1,014167	0,1	0,458267
1,015833	0,1	0,459645
1,017500	0,1	0,465037
1,019167	0,1	0,481032
1,020833	0,1	0,454097
1,022500	0,1	0,452515
1,024167	0,1	0,470625
1,025833	0,1	0,488135
1,027500	0,1	0,503618
1,029167	0,1	0,519262
1,030833	0,1	0,481363
1,032500	0,1	0,525136
1,034167	0,1	0,554628
1,035833	0,1	0,533760
1,037500	0,1	0,561505
1,039167	0,1	0,576383
1,040833	0,1	0,604268
1,042500	0,1	0,601255
1,044167	0,1	0,598813
1,045833	0,1	0,628914
1,047500	0,1	0,630078
1,049167	0,1	0,662333
1,050833	0,1	0,666550
1,052500	0,1	0,699001
1,054167	0,1	0,703862
1,055833	0,1	0,833173
1,057500	0,1	0,915462
1,059167	0,1	0,953219
1,060833	0,1	1,091823
1,062500	0,1	1,256058
1,064167	0,1	1,502246
1,065833	0,1	1,765759
1,067500	0,1	2,075075
1,069167	0,1	2,589612
1,070833	0,1	3,161961
1,072500	0,1	3,857658
1,074167	0,1	4,692267
1,075833	0,1	5,672137
1,077500	0,1	6,873666
1,079167	0,1	8,192048
1,080833	0,1	9,796331
1,082500	0,1	11,478162
1,084167	0,1	13,438067
1,085833	0,1	15,567640
1,087500	0,1	17,872604
1,089167	0,1	20,276443
1,090833	0,1	22,825119
1,092500	0,1	25,449507
1,094167	0,1	28,169464
1,095833	0,1	30,806202
1,097500	0,1	33,430224
1,099167	0,1	35,945106
1,100833	0,1	38,415251
1,102500	0,1	40,714060
1,104167	0,1	42,838228
1,105833	0,1	44,723782
1,107500	0,1	46,421106
1,109167	0,1	47,872583
1,110833	0,1	49,070569
1,112500	0,1	50,086656
1,114167	0,1	50,826746
1,115833	0,1	51,292052
1,117500	0,1	51,649849
1,119167	0,1	51,760204
1,120833	0,1	51,710170
1,122500	0,1	51,502397
1,124167	0,1	51,159906
1,125833	0,1	50,703595
1,127500	0,1	50,082007
1,129167	0,1	49,427203
1,130833	0,1	48,830331
1,132500	0,1	48,100671
1,134167	0,1	47,382167
1,135833	0,1	46,611042
1,137500	0,1	45,908756
1,139167	0,1	45,216993
1,140833	0,1	44,579104
1,142500	0,1	43,963157
1,144167	0,1	43,437719
1,145833	0,1	42,953909
1,147500	0,1	42,608547
1,149167	0,1	42,291742
1,150833	0,1	42,098642
1,152500	0,1	41,984286
1,154167	0,1	41,943949
1,155833	0,1	41,987176
1,157500	0,1	42,145222
1,159167	0,1	42,320694
1,160833	0,1	42,577633
1,162500	0,1	42,873897
1,164167	0,1	43,281754
1,165833	0,1	43,669490
1,167500	0,1	44,070860
1,169167	0,1	44,490560
1,170833	0,1	44,933062
1,172500	0,1	45,325477
1,174167	0,1	45,720780
1,175833	0,1	46,101835
1,177500	0,1	46,411684
1,179167	0,1	46,699109
1,180833	0,1	46,949824
1,182500	0,1	47,214322
1,184167	0,1	47,371989
1,185833	0,1	47,501635
1,187500	0,1	47,544155
1,189167	0,1	47,638979
1,190833	0,1	47,676654
1,192500	0,1	47,751491
1,194167	0,1	47,814171
1,195833	0,1	47,977385
1,197500	0,1	48,102542
1,199167	0,1	48,307311
1,200833	0,1	48,659997
1,202500	0,1	49,106264
1,204167	0,1	49,681321
1,205833	0,1	50,475310
1,207500	0,1	51,389569
1,209167	0,1	52,552429
1,210833	0,1	53,952885
1,212500	0,1	55,548729
1,214167	0,1	57,397968
1,215833	0,1	59,416013
1,217500	0,1	61,699239
1,219167	0,1	64,180638
1,220833	0,1	66,860340
1,222500	0,1	69,676602
1,224167	0,1	72,641766
1,225833	0,1	75,717652
1,227500	0,1	78,790336
1,229167	0,1	81,974324
1,230833	0,1	85,140892
1,232500	0,1	88,192049
1,234167	0,1	91,218466
1,235833	0,1	94,117423
1,237500	0,1	96,907318
1,239167	0,1	99,423047
1,240833	0,1	101,861193
1,242500	0,1	104,092560
1,244167	0,1	106,016979
1,245833	0,1	107,791513
1,247500	0,1	109,266481
1,249167	0,1	110,494229
1,250833	0,1	111,478753
1,252500	0,1	112,223710
1,254167	0,1	112,704681
1,255833	0,1	112,936464
1,257500	0,1	112,992309
1,259167	0,1	112,680244
1,260833	0,1	112,213179
1,262500	0,1	111,496148
1,264167	0,1	110,647654
1,265833	0,1	109,553530
1,267500	0,1	108,249477
1,269167	0,1	106,791646
1,270833	0,1	105,134308
1,272500	0,1	103,339217
1,274167	0,1	101,421322
1,275833	0,1	99,367381
1,277500	0,1	97,274913
1,279167	0,1	95,025169
1,280833	0,1	92,715965
1,282500	0,1	90,396405
1,284167	0,1	87,991825
1,285833	0,1	85,574212
1,287500	0,1	83,129868
1,289167	0,1	80,649945
1,290833	0,1	78,290614
1,292500	0,1	75,845294
1,294167	0,1	73,489264
1,295833	0,1	71,109927
1,297500	0,1	68,848574
1,299167	0,1	66,619415
1,300833	0,1	64,454150
1,302500	0,1	62,351413
1,304167	0,1	60,354386
1,305833	0,1	58,339066
1,307500	0,1	56,461076
1,309167	0,1	54,681503
1,310833	0,1	52,907765
1,312500	0,1	51,244437
1,314167	0,1	49,655384
1,315833	0,1	48,108610
1,317500	0,1	46,652988
1,319167	0,1	45,242742
1,320833	0,1	43,944636
1,322500	0,1	42,640867
1,324167	0,1	41,391674
1,325833	0,1	40,241381
1,327500	0,1	39,121071
1,329167	0,1	38,018996
1,330833	0,1	37,029195
1,332500	0,1	36,040765
1,334167	0,1	35,093764
1,335833	0,1	34,169896
1,337500	0,1	33,255662
1,339167	0,1	32,481290
1,340833	0,1	31,601691
1,342500	0,1	30,832472
1,344167	0,1	30,083081
1,345833	0,1	29,311893
1,347500	0,1	28,628243
1,349167	0,1	27,923583
1,350833	0,1	27,225786
1,352500	0,1	26,602640
1,354167	0,1	25,956529
1,355833	0,1	25,374149
1,357500	0,1	24,720018
1,359167	0,1	24,156450
1,360833	0,1	23,557797
1,362500	0,1	23,047668
1,364167	0,1	22,491250
1,365833	0,1	21,954336
1,367500	0,1	21,454207
1,369167	0,1	20,982324
1,370833	0,1	20,483098
1,372500	0,1	19,980500
1,374167	0,1	19,507814
1,375833	0,1	19,080297
1,377500	0,1	18,605149
1,379167	0,1	18,205367
1,380833	0,1	17,774691
1,382500	0,1	17,386047
1,384167	0,1	16,991196
1,385833	0,1	16,561951
1,387500	0,1	16,236282
1,389167	0,1	15,896937
1,390833	0,1	15,546676
1,392500	0,1	15,164420
1,394167	0,1	14,849102
1,395833	0,1	14,552899
1,397500	0,1	14,237535
1,399167	0,1	13,936388
1,400833	0,1	13,637318
1,402500	0,1	13,382965
1,404167	0,1	13,088041
1,405833	0,1	12,840900
1,407500	0,1	12,590507
1,409167	0,1	12,367577
1,410833	0,1	12,116714
1,412500	0,1	11,888485
1,414167	0,1	11,696523
1,415833	0,1	11,503181
1,417500	0,1	11,242037
1,419167	0,1	11,083900
1,420833	0,1	10,897492
1,422500	0,1	10,709052
1,424167	0,1	10,509857
1,425833	0,1	10,343043
1,427500	0,1	10,229361
1,429167	0,1	10,032087
1,430833	0,1	9,910548
1,432500	0,1	9,727359
1,434167	0,1	9,595658
1,435833	0,1	9,452287
1,437500	0,1	9,339315
1,439167	0,1	9,176118
1,440833	0,1	9,038022
1,442500	0,1	8,946289
1,444167	0,1	8,814598
1,445833	0,1	8,681774
1,447500	0,1	8,597435
1,449167	0,1	8,423232
1,450833	0,1	8,368425
1,452500	0,1	8,221927
1,454167	0,1	8,118109
1,455833	0,1	8,022574
1,457500	0,1	7,962878
1,459167	0,1	7,847364
1,460833	0,1	7,725995
1,462500	0,1	7,666269
1,464167	0,1	7,557142
1,465833	0,1	7,473083
1,467500	0,1	7,376754
1,469167	0,1	7,350901
1,470833	0,1	7,273158
1,472500	0,1	7,216011
1,474167	0,1	7,141360
1,475833	0,1	7,049387
1,477500	0,1	7,042471
1,479167	0,1	6,999805
1,480833	0,1	6,949969
1,482500	0,1	6,943717
1,484167	0,1	6,941486
1,485833	0,1	6,859901
1,487500	0,1	6,839860
1,489167	0,1	6,862682
1,490833	0,1	6,768819
1,492500	0,1	6,794041
1,494167	0,1	6,802511
1,495833	0,1	6,794784
1,497500	0,1	6,781947
1,499167	0,1	6,764526
1,500833	0,1	6,751587
1,502500	0,1	6,778394
1,504167	0,1	6,775136
1,505833	0,1	6,762570
1,507500	0,1	6,808934
1,509167	0,1	6,787525
1,510833	0,1	6,797204
1,512500	0,1	6,775697
1,514167	0,1	6,789380
1,515833	0,1	6,780918
1,517500	0,1	6,846182
1,519167	0,1	6,775901
1,520833	0,1	6,776353
1,522500	0,1	6,783708
1,524167	0,1	6,790132
1,525833	0,1	6,777375
1,527500	0,1	6,769735
1,529167	0,1	6,803625
1,530833	0,1	6,767979
1,532500	0,1	6,727197
1,534167	0,1	6,731276
1,535833	0,1	6,722623
1,537500	0,1	6,661732
1,539167	0,1	6,677752
1,540833	0,1	6,695809
1,542500	0,1	6,657738
1,544167	0,1	6,599189
1,545833	0,1	6,605320
1,547500	0,1	6,568389
1,549167	0,1	6,584110
1,550833	0,1	6,548935
1,552500	0,1	6,477637
1,554167	0,1	6,508627
1,555833	0,1	6,472617
1,557500	0,1	6,381627
1,559167	0,1	6,399365
1,560833	0,1	6,383284
1,562500	0,1	6,328512
1,564167	0,1	6,287543
1,565833	0,1	6,261352
1,567500	0,1	6,250817
1,569167	0,1	6,204823
1,570833	0,1	6,150905
1,572500	0,1	6,129386
1,574167	0,1	6,091008
1,575833	0,1	6,096542
1,577500	0,1	6,065418
1,579167	0,1	5,990138
1,580833	0,1	5,954837
1,582500	0,1	5,924030
1,584167	0,1	5,888851
1,585833	0,1	5,892851
1,587500	0,1	5,853885
1,589167	0,1	5,796780
1,590833	0,1	5,779492
1,592500	0,1	5,746138
1,594167	0,1	5,722685
1,595833	0,1	5,666991
1,597500	0,1	5,620806
1,599167	0,1	5,580048
1,600833	0,1	5,526335
1,602500	0,1	5,522948
1,604167	0,1	5,513936
1,605833	0,1	5,449539
1,607500	0,1	5,410617
1,609167	0,1	5,393581
1,610833	0,1	5,357784
1,612500	0,1	5,348715
1,614167	0,1	5,302429
1,615833	0,1	5,269217
1,617500	0,1	5,244952
1,619167	0,1	5,228233
1,620833	0,1	5,171090
1,622500	0,1	5,144740
1,624167	0,1	5,128136
1,625833	0,1	5,081423
1,627500	0,1	5,069528
1,629167	0,1	5,019883
1,630833	0,1	4,981579
1,632500	0,1	4,949573
1,634167	0,1	4,917317
1,635833	0,1	4,941352
1,637500	0,1	4,899629
1,639167	0,1	4,887724
1,640833	0,1	4,852651
1,642500	0,1	4,843263
1,644167	0,1	4,810306
1,645833	0,1	4,781535
1,647500	0,1	4,779452
1,649167	0,1	4,739116
1,650833	0,1	4,755558
1,652500	0,1	4,703320
1,654167	0,1	4,692590
1,655833	0,1	4,669697
1,657500	0,1	4,701024
1,659167	0,1	4,684807
1,660833	0,1	4,713186
1,662500	0,1	4,658029
1,664167	0,1	4,704912
1,665833	0,1	4,704711
1,667500	0,1	4,717401
1,669167	0,1	4,752594
1,670833	0,1	4,736139
1,672500	0,1	4,803678
1,674167	0,1	4,813010
1,675833	0,1	4,835267
1,677500	0,1	4,887792
1,679167	0,1	4,932079
1,680833	0,1	4,994884
1,682500	0,1	5,025874
1,684167	0,1	5,155459
1,685833	0,1	5,158509
1,687500	0,1	5,243317
1,689167	0,1	5,341518
1,690833	0,1	5,442621
1,692500	0,1	5,528323
1,694167	0,1	5,586805
1,695833	0,1	5,714563
1,697500	0,1	5,847006
1,699167	0,1	5,909871
1,700833	0,1	6,040947
1,702500	0,1	6,124154
1,704167	0,1	6,280382
1,705833	0,1	6,452033
1,707500	0,1	6,514935
1,709167	0,1	6,690478
1,710833	0,1	6,765814
1,712500	0,1	6,922344
1,714167	0,1	7,040764
1,715833	0,1	7,168336
1,717500	0,1	7,305076
1,719167	0,1	7,418657
1,720833	0,1	7,561347
1,722500	0,1	7,675075
1,724167	0,1	7,780728
1,725833	0,1	7,901510
1,727500	0,1	7,975291
1,729167	0,1	8,076523
1,730833	0,1	8,172496
1,732500	0,1	8,256795
1,734167	0,1	8,326071
1,735833	0,1	8,431531
1,737500	0,1	8,517991
1,739167	0,1	8,565896
1,740833	0,1	8,620646
1,742500	0,1	8,677700
1,744167	0,1	8,704224
1,745833	0,1	8,739175
1,747500	0,1	8,745527
1,749167	0,1	8,783399
1,750833	0,1	8,774846
1,752500	0,1	8,792521
1,754167	0,1	8,803984
1,755833	0,1	8,808570
1,757500	0,1	8,783289
1,759167	0,1	8,773789
1,760833	0,1	8,774166
1,762500	0,1	8,723029
1,764167	0,1	8,693032
1,765833	0,1	8,630693
1,767500	0,1	8,595769
1,769167	0,1	8,581853
1,770833	0,1	8,463312
1,772500	0,1	8,450336
1,774167	0,1	8,353566
1,775833	0,1	8,245069
1,777500	0,1	8,243717
1,779167	0,1	8,137739
1,780833	0,1	8,035345
1,782500	0,1	7,960279
1,784167	0,1	7,881216
1,785833	0,1	7,799699
1,787500	0,1	7,720663
1,789167	0,1	7,649831
1,790833	0,1	7,531006
1,792500	0,1	7,430178
1,794167	0,1	7,342245
1,795833	0,1	7,291513
1,797500	0,1	7,148270
1,799167	0,1	7,066809
1,800833	0,1	6,960883
1,802500	0,1	6,863545
1,804167	0,1	6,758691
1,805833	0,1	6,600162
1,807500	0,1	6,568190
1,809167	0,1	6,485414
1,810833	0,1	6,382504
1,812500	0,1	6,258682
1,814167	0,1	6,189206
1,815833	0,1	6,084026
1,817500	0,1	5,987662
1,819167	0,1	5,878532
1,820833	0,1	5,823046
1,822500	0,1	5,705193
1,824167	0,1	5,633145
1,825833	0,1	5,551808
1,827500	0,1	5,447991
1,829167	0,1	5,334678
1,830833	0,1	5,291555
1,832500	0,1	5,239678
1,834167	0,1	5,145746
1,835833	0,1	5,073554
1,837500	0,1	5,056576
1,839167	0,1	4,948658
1,840833	0,1	4,909512
1,842500	0,1	4,889590
1,844167	0,1	4,847979
1,845833	0,1	4,772684
1,847500	0,1	4,772785
1,849167	0,1	4,751909
1,850833	0,1	4,766022
1,852500	0,1	4,758960
1,854167	0,1	4,769786
1,855833	0,1	4,770567
1,857500	0,1	4,811172
1,859167	0,1	4,837545
1,860833	0,1	4,869626
1,862500	0,1	4,863628
1,864167	0,1	4,919527
1,865833	0,1	4,891872
1,867500	0,1	4,935172
1,869167	0,1	4,975185
1,870833	0,1	5,013737
1,872500	0,1	5,023125
1,874167	0,1	5,037741
1,875833	0,1	5,064974
1,877500	0,1	5,081072
1,879167	0,1	5,120361
1,880833	0,1	5,129543
1,882500	0,1	5,154185
1,884167	0,1	5,155970
1,885833	0,1	5,205315
1,887500	0,1	5,250667
1,889167	0,1	5,225298
1,890833	0,1	5,237433
1,892500	0,1	5,292944
1,894167	0,1	5,297560
1,895833	0,1	5,317893
1,897500	0,1	5,313916
1,899167	0,1	5,404815
1,900833	0,1	5,379255
1,902500	0,1	5,388514
1,904167	0,1	5,378089
1,905833	0,1	5,415738
1,907500	0,1	5,431730
1,909167	0,1	5,438745
1,910833	0,1	5,446371
1,912500	0,1	5,500126
1,914167	0,1	5,463277
1,915833	0,1	5,473895
1,917500	0,1	5,510529
1,919167	0,1	5,516252
1,920833	0,1	5,548830
1,922500	0,1	5,556940
1,924167	0,1	5,533829
1,925833	0,1	5,543743
1,927500	0,1	5,553862
1,929167	0,1	5,552110
1,930833	0,1	5,580921
1,932500	0,1	5,517066
1,934167	0,1	5,551906
1,935833	0,1	5,525686
1,937500	0,1	5,536249
1,939167	0,1	5,531006
1,940833	0,1	5,547102
1,942500	0,1	5,566404
1,944167	0,1	5,568510
1,945833	0,1	5,537293
1,947500	0,1	5,582759
1,949167	0,1	5,615178
1,950833	0,1	5,579504
1,952500	0,1	5,629625
1,954167	0,1	5,638477
1,955833	0,1	5,617508
1,957500	0,1	5,628531
1,959167	0,1	5,637567
1,960833	0,1	5,652367
1,962500	0,1	5,663268
1,964167	0,1	5,651333
1,965833	0,1	5,635948
1,967500	0,1	5,723437
1,969167	0,1	5,694768
1,970833	0,1	5,676928
1,972500	0,1	5,717857
1,974167	0,1	5,718732
1,975833	0,1	5,741485
1,977500	0,1	5,751242
1,979167	0,1	5,776251
1,980833	0,1	5,831348
1,982500	0,1	5,822783
1,984167	0,1	5,852322
1,985833	0,1	5,821505
1,987500	0,1	5,881093
1,989167	0,1	5,937354
1,990833	0,1	5,918858
1,992500	0,1	5,948332
1,994167	0,1	5,983252
1,995833	0,1	5,985230
1,997500	0,1	6,043126
1,999167	0,1	6,084007
2,000833	0,1	6,122685
2,002500	0,1	6,170507
2,004167	0,1	6,166792
2,005833	0,1	6,179257
2,007500	0,1	6,225324
2,009167	0,1	6,267464
2,010833	0,1	6,323502
2,012500	0,1	6,270080
2,014167	0,1	6,350844
2,015833	0,1	6,376423
2,017500	0,1	6,428316
2,019167	0,1	6,424210
2,020833	0,1	6,522273
2,022500	0,1	6,534672
2,024167	0,1	6,555906
2,025833	0,1	6,643582
2,027500	0,1	6,600686
2,029167	0,1	6,673725
2,030833	0,1	6,701564
2,032500	0,1	6,763577
2,034167	0,1	6,813123
2,035833	0,1	6,876829
2,037500	0,1	6,917067
2,039167	0,1	6,937008
2,040833	0,1	6,953492
2,042500	0,1	7,001745
2,044167	0,1	7,081681
2,045833	0,1	7,094370
2,047500	0,1	7,165831
2,049167	0,1	7,156999
2,050833	0,1	7,204710
2,052500	0,1	7,278807
2,054167	0,1	7,332508
2,055833	0,1	7,360395
2,057500	0,1	7,315570
2,059167	0,1	7,411386
2,060833	0,1	7,446652
2,062500	0,1	7,510341
2,064167	0,1	7,532543
2,065833	0,1	7,551596
2,067500	0,1	7,597859
2,069167	0,1	7,638256
2,070833	0,1	7,663261
2,072500	0,1	7,736408
2,074167	0,1	7,781953
2,075833	0,1	7,795681
2,077500	0,1	7,824136
2,079167	0,1	7,866508
2,080833	0,1	7,917006
2,082500	0,1	7,935241
2,084167	0,1	7,933551
2,085833	0,1	7,988995
2,087500	0,1	7,999393
2,089167	0,1	8,060508
2,090833	0,1	8,035326
2,092500	0,1	8,130093
2,094167	0,1	8,105456
2,095833	0,1	8,112017
2,097500	0,1	8,138197
2,099167	0,1	8,181057
2,100833	0,1	8,161505
2,102500	0,1	8,233809
2,104167	0,1	8,243257
2,105833	0,1	8,272389
2,107500	0,1	8,254858
2,109167	0,1	8,279442
2,110833	0,1	8,273007
2,112500	0,1	8,334619
2,114167	0,1	8,312632
2,115833	0,1	8,349690
2,117500	0,1	8,345557
2,119167	0,1	8,319355
2,120833	0,1	8,370066
2,122500	0,1	8,361773
2,124167	0,1	8,381273
2,125833	0,1	8,392616
2,127500	0,1	8,402667
2,129167	0,1	8,365723
2,130833	0,1	8,413721
2,132500	0,1	8,379086
2,134167	0,1	8,388511
2,135833	0,1	8,408574
2,137500	0,1	8,387093
2,139167	0,1	8,374123
2,140833	0,1	8,380820
2,142500	0,1	8,385400
2,144167	0,1	8,375491
2,145833	0,1	8,378840
2,147500	0,1	8,393747
2,149167	0,1	8,367825
2,150833	0,1	8,335592
2,152500	0,1	8,299750
2,154167	0,1	8,335871
2,155833	0,1	8,320401
2,157500	0,1	8,272182
2,159167	0,1	8,270764
2,160833	0,1	8,250754
2,162500	0,1	8,252514
2,164167	0,1	8,253104
2,165833	0,1	8,223091
2,167500	0,1	8,218786
2,169167	0,1	8,195198
2,170833	0,1	8,140457
2,172500	0,1	8,188314
2,174167	0,1	8,131158
2,175833	0,1	8,078537
2,177500	0,1	8,088300
2,179167	0,1	8,082292
2,180833	0,1	8,018924
2,182500	0,1	8,005644
2,184167	0,1	8,010993
2,185833	0,1	7,978681
2,187500	0,1	7,938340
2,189167	0,1	7,928820
2,190833	0,1	7,977982
2,192500	0,1	7,887644
2,194167	0,1	7,876636
2,195833	0,1	7,858897
2,197500	0,1	7,805316
2,199167	0,1	7,835159
2,200833	0,1	7,785426
2,202500	0,1	7,781023
2,204167	0,1	7,764051
2,205833	0,1	7,730354
2,207500	0,1	7,706113
2,209167	0,1	7,654692
2,210833	0,1	7,703656
2,212500	0,1	7,628860
2,214167	0,1	7,661579
2,215833	0,1	7,606820
2,217500	0,1	7,569431
2,219167	0,1	7,594032
2,220833	0,1	7,575752
2,222500	0,1	7,505364
2,224167	0,1	7,526769
2,225833	0,1	7,501519
2,227500	0,1	7,527984
2,229167	0,1	7,459653
2,230833	0,1	7,490204
2,232500	0,1	7,475109
2,234167	0,1	7,462693
2,235833	0,1	7,456732
2,237500	0,1	7,430908
2,239167	0,1	7,441804
2,240833	0,1	7,449832
2,242500	0,1	7,430534
2,244167	0,1	7,407312
2,245833	0,1	7,416818
2,247500	0,1	7,373191
2,249167	0,1	7,441225
2,250833	0,1	7,376368
2,252500	0,1	7,382965
2,254167	0,1	7,382408
2,255833	0,1	7,361256
2,257500	0,1	7,339799
2,259167	0,1	7,327590
2,260833	0,1	7,326002
2,262500	0,1	7,311088
2,264167	0,1	7,342115
2,265833	0,1	7,340916
2,267500	0,1	7,278093
2,269167	0,1	7,277518
2,270833	0,1	7,257017
2,272500	0,1	7,241262
2,274167	0,1	7,253000
2,275833	0,1	7,243308
2,277500	0,1	7,219818
2,279167	0,1	7,242276
2,280833	0,1	7,200533
2,282500	0,1	7,149553
2,284167	0,1	7,169573
2,285833	0,1	7,205359
2,287500	0,1	7,103809
2,289167	0,1	7,130429
2,290833	0,1	7,132485
2,292500	0,1	7,110406
2,294167	0,1	7,081800
2,295833	0,1	7,132288
2,297500	0,1	7,086463
2,299167	0,1	7,042295
2,300833	0,1	7,054768
2,302500	0,1	7,037538
2,304167	0,1	7,026915
2,305833	0,1	6,959937
2,307500	0,1	6,940085
2,309167	0,1	6,972685
2,310833	0,1	6,949967
2,312500	0,1	6,951173
2,314167	0,1	6,900414
2,315833	0,1	6,921545
2,317500	0,1	6,915037
2,319167	0,1	6,855805
2,320833	0,1	6,848997
2,322500	0,1	6,873850
2,324167	0,1	6,835222
2,325833	0,1	6,806899
2,327500	0,1	6,828324
2,329167	0,1	6,751515
2,330833	0,1	6,766959
2,332500	0,1	6,749277
2,334167	0,1	6,730000
2,335833	0,1	6,712495
2,337500	0,1	6,720862
2,339167	0,1	6,701032
2,340833	0,1	6,671064
2,342500	0,1	6,660260
2,344167	0,1	6,627293
2,345833	0,1	6,645344
2,347500	0,1	6,613162
2,349167	0,1	6,567079
2,350833	0,1	6,597616
2,352500	0,1	6,605985
2,354167	0,1	6,592596
2,355833	0,1	6,541219
2,357500	0,1	6,535781
2,359167	0,1	6,543901
2,360833	0,1	6,572273
2,362500	0,1	6,528567
2,364167	0,1	6,478855
2,365833	0,1	6,518497
2,367500	0,1	6,502866
2,369167	0,1	6,472608
2,370833	0,1	6,549394
2,372500	0,1	6,506864
2,374167	0,1	6,542040
2,375833	0,1	6,510606
2,377500	0,1	6,525007
2,379167	0,1	6,481196
2,380833	0,1	6,529650
2,382500	0,1	6,545416
2,384167	0,1	6,549765
2,385833	0,1	6,587281
2,387500	0,1	6,562597
2,389167	0,1	6,613876
2,390833	0,1	6,662939
2,392500	0,1	6,709214
2,394167	0,1	6,734632
2,395833	0,1	6,770481
2,397500	0,1	6,786971
2,399167	0,1	6,898328
2,400833	0,1	6,949298
2,402500	0,1	6,985259
2,404167	0,1	7,084378
2,405833	0,1	7,172169
2,407500	0,1	7,288678
2,409167	0,1	7,309584
2,410833	0,1	7,457628
2,412500	0,1	7,541962
2,414167	0,1	7,642247
2,415833	0,1	7,801141
2,417500	0,1	7,964229
2,419167	0,1	8,085378
2,420833	0,1	8,257346
2,422500	0,1	8,401744
2,424167	0,1	8,593751
2,425833	0,1	8,777144
2,427500	0,1	8,937104
2,429167	0,1	9,139233
2,430833	0,1	9,352211
2,432500	0,1	9,513519
2,434167	0,1	9,715206
2,435833	0,1	9,925440
2,437500	0,1	10,146810
2,439167	0,1	10,340301
2,440833	0,1	10,553761
2,442500	0,1	10,773364
2,444167	0,1	10,946531
2,445833	0,1	11,184972
2,447500	0,1	11,364639
2,449167	0,1	11,586867
2,450833	0,1	11,787757
2,452500	0,1	11,988067
2,454167	0,1	12,181088
2,455833	0,1	12,357424
2,457500	0,1	12,599778
2,459167	0,1	12,744229
2,460833	0,1	12,955370
2,462500	0,1	13,065518
2,464167	0,1	13,214663
2,465833	0,1	13,371411
2,467500	0,1	13,512374
2,469167	0,1	13,676330
2,470833	0,1	13,805101
2,472500	0,1	13,897137
2,474167	0,1	14,019191
2,475833	0,1	14,170668
2,477500	0,1	14,309655
2,479167	0,1	14,367471
2,480833	0,1	14,476792
2,482500	0,1	14,544622
2,484167	0,1	14,676693
2,485833	0,1	14,791684
2,487500	0,1	14,869509
2,489167	0,1	14,987711
2,490833	0,1	15,082569
2,492500	0,1	15,168715
2,494167	0,1	15,244896
2,495833	0,1	15,342162
2,497500	0,1	15,464638
2,499167	0,1	15,586483
2,500833	0,1	15,701442
2,502500	0,1	15,795668
2,504167	0,1	15,936097
2,505833	0,1	16,013075
2,507500	0,1	16,204573
2,509167	0,1	16,316517
2,510833	0,1	16,496820
2,512500	0,1	16,637678
2,514167	0,1	16,787588
2,515833	0,1	16,974087
2,517500	0,1	17,162845
2,519167	0,1	17,395234
2,520833	0,1	17,549964
2,522500	0,1	17,802748
2,524167	0,1	18,047642
2,525833	0,1	18,246285
2,527500	0,1	18,503028
2,529167	0,1	18,763510
2,530833	0,1	18,973722
2,532500	0,1	19,295492
2,534167	0,1	19,563865
2,535833	0,1	19,848651
2,537500	0,1	20,141864
2,539167	0,1	20,463496
2,540833	0,1	20,741881
2,542500	0,1	21,049288
2,544167	0,1	21,338642
2,545833	0,1	21,632503
2,547500	0,1	21,949530
2,549167	0,1	22,252396
2,550833	0,1	22,608571
2,552500	0,1	22,922670
2,554167	0,1	23,185620
2,555833	0,1	23,526073
2,557500	0,1	23,794271
2,559167	0,1	24,118657
2,560833	0,1	24,363890
2,562500	0,1	24,689656
2,564167	0,1	24,942204
2,565833	0,1	25,187124
2,567500	0,1	25,482775
2,569167	0,1	25,648588
2,570833	0,1	25,945616
2,572500	0,1	26,129099
2,574167	0,1	26,348813
2,575833	0,1	26,570856
2,577500	0,1	26,730453
2,579167	0,1	26,930588
2,580833	0,1	27,073744
2,582500	0,1	27,242410
2,584167	0,1	27,319587
2,585833	0,1	27,467266
2,587500	0,1	27,525029
2,589167	0,1	27,653505
2,590833	0,1	27,686487
2,592500	0,1	27,719753
2,594167	0,1	27,820124
2,595833	0,1	27,847250
2,597500	0,1	27,859627
2,599167	0,1	27,858771
2,600833	0,1	27,860635
2,602500	0,1	27,853039
2,604167	0,1	27,833493
2,605833	0,1	27,768029
2,607500	0,1	27,726911
2,609167	0,1	27,618564
2,610833	0,1	27,549181
2,612500	0,1	27,460800
2,614167	0,1	27,374985
2,615833	0,1	27,265461
2,617500	0,1	27,118640
2,619167	0,1	26,996762
2,620833	0,1	26,843149
2,622500	0,1	26,701394
2,624167	0,1	26,575399
2,625833	0,1	26,384939
2,627500	0,1	26,227828
2,629167	0,1	25,993220
2,630833	0,1	25,810760
2,632500	0,1	25,681196
2,634167	0,1	25,432226
2,635833	0,1	25,225267
2,637500	0,1	25,029217
2,639167	0,1	24,792786
2,640833	0,1	24,535729
2,642500	0,1	24,339816
2,644167	0,1	24,112758
2,645833	0,1	23,828128
2,647500	0,1	23,647479
2,649167	0,1	23,363835
2,650833	0,1	23,097109
2,652500	0,1	22,842717
2,654167	0,1	22,560495
2,655833	0,1	22,292830
2,657500	0,1	22,046075
2,659167	0,1	21,822430
2,660833	0,1	21,511611
2,662500	0,1	21,245487
2,664167	0,1	20,981797
2,665833	0,1	20,682791
2,667500	0,1	20,404966
2,669167	0,1	20,157393
2,670833	0,1	19,819179
2,672500	0,1	19,583675
2,674167	0,1	19,258267
2,675833	0,1	19,033983
2,677500	0,1	18,776658
2,679167	0,1	18,482547
2,680833	0,1	18,189443
2,682500	0,1	17,922019
2,684167	0,1	17,596835
2,685833	0,1	17,384342
2,687500	0,1	17,070837
2,689167	0,1	16,836089
2,690833	0,1	16,533756
2,692500	0,1	16,296757
2,694167	0,1	16,047912
2,695833	0,1	15,772067
2,697500	0,1	15,509555
2,699167	0,1	15,194577
2,700833	0,1	14,973714
2,702500	0,1	14,766508
2,704167	0,1	14,540585
2,705833	0,1	14,274066
2,707500	0,1	14,017352
2,709167	0,1	13,760330
2,710833	0,1	13,562575
2,712500	0,1	13,325481
2,714167	0,1	13,103835
2,715833	0,1	12,886567
2,717500	0,1	12,675543
2,719167	0,1	12,448565
2,720833	0,1	12,222575
2,722500	0,1	12,039238
2,724167	0,1	11,838257
2,725833	0,1	11,658874
2,727500	0,1	11,464709
2,729167	0,1	11,280190
2,730833	0,1	11,132231
2,732500	0,1	10,914821
2,734167	0,1	10,761337
2,735833	0,1	10,584649
2,737500	0,1	10,450630
2,739167	0,1	10,259020
2,740833	0,1	10,081498
2,742500	0,1	9,939398
2,744167	0,1	9,809584
2,745833	0,1	9,638615
2,747500	0,1	9,500302
2,749167	0,1	9,368825
2,750833	0,1	9,201240
2,752500	0,1	9,060473
2,754167	0,1	8,952179
2,755833	0,1	8,782844
2,757500	0,1	8,719103
2,759167	0,1	8,571179
2,760833	0,1	8,462714
2,762500	0,1	8,346695
2,764167	0,1	8,198646
2,765833	0,1	8,084752
2,767500	0,1	7,993119
2,769167	0,1	7,868895
2,770833	0,1	7,765848
2,772500	0,1	7,636688
2,774167	0,1	7,545098
2,775833	0,1	7,479318
2,777500	0,1	7,394263
2,779167	0,1	7,293294
2,780833	0,1	7,197003
2,782500	0,1	7,070827
2,784167	0,1	7,002799
2,785833	0,1	6,925018
2,787500	0,1	6,887477
2,789167	0,1	6,750053
2,790833	0,1	6,655719
2,792500	0,1	6,596704
2,794167	0,1	6,537791
2,795833	0,1	6,454229
2,797500	0,1	6,332256
2,799167	0,1	6,280546
2,800833	0,1	6,197184
2,802500	0,1	6,087873
2,804167	0,1	6,042217
2,805833	0,1	5,979813
2,807500	0,1	5,911083
2,809167	0,1	5,830497
2,810833	0,1	5,748595
2,812500	0,1	5,711956
2,814167	0,1	5,657282
2,815833	0,1	5,590154
2,817500	0,1	5,513303
2,819167	0,1	5,487428
2,820833	0,1	5,410003
2,822500	0,1	5,329100
2,824167	0,1	5,320183
2,825833	0,1	5,233388
2,827500	0,1	5,176400
2,829167	0,1	5,154259
2,830833	0,1	5,078413
2,832500	0,1	5,021215
2,834167	0,1	4,959862
2,835833	0,1	4,913325
2,837500	0,1	4,850995
2,839167	0,1	4,818493
2,840833	0,1	4,772299
2,842500	0,1	4,691756
2,844167	0,1	4,637829
2,845833	0,1	4,606766
2,847500	0,1	4,577218
2,849167	0,1	4,510037
2,850833	0,1	4,444264
2,852500	0,1	4,455025
2,854167	0,1	4,378630
2,855833	0,1	4,349854
2,857500	0,1	4,314412
2,859167	0,1	4,275242
2,860833	0,1	4,186158
2,862500	0,1	4,221970
2,864167	0,1	4,123770
2,865833	0,1	4,131225
2,867500	0,1	4,079574
2,869167	0,1	4,031913
2,870833	0,1	4,003296
2,872500	0,1	3,963920
2,874167	0,1	3,950519
2,875833	0,1	3,880159
2,877500	0,1	3,826007
2,879167	0,1	3,818639
2,880833	0,1	3,782010
2,882500	0,1	3,769961
2,884167	0,1	3,748732
2,885833	0,1	3,717588
2,887500	0,1	3,657200
2,889167	0,1	3,620103
2,890833	0,1	3,611789
2,892500	0,1	3,583348
2,894167	0,1	3,539073
2,895833	0,1	3,512852
2,897500	0,1	3,514839
2,899167	0,1	3,477898
2,900833	0,1	3,435394
2,902500	0,1	3,386384
2,904167	0,1	3,359252
2,905833	0,1	3,354149
2,907500	0,1	3,317962
2,909167	0,1	3,308922
2,910833	0,1	3,245514
2,912500	0,1	3,247039
2,914167	0,1	3,212404
2,915833	0,1	3,236880
2,917500	0,1	3,188984
2,919167	0,1	3,171976
2,920833	0,1	3,129562
2,922500	0,1	3,126306
2,924167	0,1	3,071440
2,925833	0,1	3,065178
2,927500	0,1	3,091592
2,929167	0,1	3,043170
2,930833	0,1	2,984715
2,932500	0,1	3,000115
2,934167	0,1	3,027223
2,935833	0,1	2,980809
2,937500	0,1	2,940626
2,939167	0,1	2,920170
2,940833	0,1	2,915259
2,942500	0,1	2,953578
2,944167	0,1	2,875671
2,945833	0,1	2,854998
2,947500	0,1	2,840616
2,949167	0,1	2,838051
2,950833	0,1	2,823622
2,952500	0,1	2,829006
2,954167	0,1	2,811055
2,955833	0,1	2,796927
2,957500	0,1	2,766853
2,959167	0,1	2,771653
2,960833	0,1	2,748917
2,962500	0,1	2,714417
2,964167	0,1	2,704079
2,965833	0,1	2,671579
2,967500	0,1	2,694951
2,969167	0,1	2,663472
2,970833	0,1	2,654208
2,972500	0,1	2,656500
2,974167	0,1	2,628819
2,975833	0,1	2,623442
2,977500	0,1	2,628944
2,979167	0,1	2,605146
2,980833	0,1	2,594319
2,982500	0,1	2,545201
2,984167	0,1	2,616736
2,985833	0,1	2,581774
2,987500	0,1	2,572304
2,989167	0,1	2,556515
2,990833	0,1	2,552076
2,992500	0,1	2,535147
2,994167	0,1	2,545114
2,995833	0,1	2,521957
2,997500	0,1	2,505741
2,999167	0,1	2,485017
3,000833	0,1	2,496981
3,002500	0,1	2,481938
3,004167	0,1	2,464006
3,005833	0,1	2,481991
3,007500	0,1	2,462217
3,009167	0,1	2,488015
3,010833	0,1	2,475261
3,012500	0,1	2,467165
3,014167	0,1	2,456762
3,015833	0,1	2,457976
3,017500	0,1	2,452600
3,019167	0,1	2,455034
3,020833	0,1	2,415973
3,022500	0,1	2,412237
3,024167	0,1	2,394886
3,025833	0,1	2,388431
3,027500	0,1	2,408500
3,029167	0,1	2,403556
3,030833	0,1	2,373311
3,032500	0,1	2,382046
3,034167	0,1	2,364562
3,035833	0,1	2,362263
3,037500	0,1	2,330797
3,039167	0,1	2,324198
3,040833	0,1	2,357519
3,042500	0,1	2,348929
3,044167	0,1	2,335311
3,045833	0,1	2,292809
3,047500	0,1	2,277606
3,049167	0,1	2,322609
3,050833	0,1	2,316240
3,052500	0,1	2,278687
3,054167	0,1	2,269004
3,055833	0,1	2,239978
3,057500	0,1	2,290135
3,059167	0,1	2,286492
3,060833	0,1	2,249874
3,062500	0,1	2,282255
3,064167	0,1	2,271227
3,065833	0,1	2,261692
3,067500	0,1	2,251158
3,069167	0,1	2,240264
3,070833	0,1	2,233168
3,072500	0,1	2,222489
3,074167	0,1	2,184583
3,075833	0,1	2,219110
3,077500	0,1	2,207297
3,079167	0,1	2,180854
3,080833	0,1	2,186437
3,082500	0,1	2,212302
3,084167	0,1	2,233232
3,085833	0,1	2,221701
3,087500	0,1	2,191103
3,089167	0,1	2,193607
3,090833	0,1	2,204067
3,092500	0,1	2,174551
3,094167	0,1	2,171316
3,095833	0,1	2,155697
3,097500	0,1	2,202768
3,099167	0,1	2,191672
3,100833	0,1	2,156494
3,102500	0,1	2,232862
3,104167	0,1	2,177706
3,105833	0,1	2,214021
3,107500	0,1	2,153850
3,109167	0,1	2,185496
3,110833	0,1	2,191023
3,112500	0,1	2,200340
3,114167	0,1	2,203777
3,115833	0,1	2,212521
3,117500	0,1	2,222412
3,119167	0,1	2,185513
3,120833	0,1	2,233155
3,122500	0,1	2,254447
3,124167	0,1	2,253807
3,125833	0,1	2,230304
3,127500	0,1	2,281460
3,129167	0,1	2,310282
3,130833	0,1	2,234617
3,132500	0,1	2,322597
3,134167	0,1	2,286785
3,135833	0,1	2,318455
3,137500	0,1	2,329356
3,139167	0,1	2,337884
3,140833	0,1	2,371429
3,142500	0,1	2,379253
3,144167	0,1	2,366065
3,145833	0,1	2,377460
3,147500	0,1	2,419894
3,149167	0,1	2,421626
3,150833	0,1	2,426716
3,152500	0,1	2,434175
3,154167	0,1	2,429945
3,155833	0,1	2,446001
3,157500	0,1	2,470452
3,159167	0,1	2,477918
3,160833	0,1	2,486588
3,162500	0,1	2,522938
3,164167	0,1	2,465096
3,165833	0,1	2,498490
3,167500	0,1	2,498000
3,169167	0,1	2,535419
3,170833	0,1	2,539015
3,172500	0,1	2,517939
3,174167	0,1	2,558017
3,175833	0,1	2,557527
3,177500	0,1	2,552857
3,179167	0,1	2,562397
3,180833	0,1	2,531778
3,182500	0,1	2,612015
3,184167	0,1	2,708132
3,185833	0,1	2,667839
3,187500	0,1	2,613558
3,189167	0,1	2,593968
3,190833	0,1	2,590090
3,192500	0,1	2,551439
3,194167	0,1	2,569489
3,195833	0,1	2,543832
3,197500	0,1	2,551137
3,199167	0,1	2,504254
3,200833	0,1	2,517570
3,202500	0,1	2,536787
3,204167	0,1	2,541164
3,205833	0,1	2,541456
3,207500	0,1	2,539235
3,209167	0,1	2,530485
3,210833	0,1	2,507470
3,212500	0,1	2,521803
3,214167	0,1	2,522083
3,215833	0,1	2,479431
3,217500	0,1	2,523078
3,219167	0,1	2,485956
3,220833	0,1	2,481936
3,222500	0,1	2,471966
3,224167	0,1	2,443502
3,225833	0,1	2,453531
3,227500	0,1	2,430735
3,229167	0,1	2,428726
3,230833	0,1	2,387224
3,232500	0,1	2,380331
3,234167	0,1	2,404984
3,235833	0,1	2,385136
3,237500	0,1	2,346285
3,239167	0,1	2,358460
3,240833	0,1	2,336961
3,242500	0,1	2,356880
3,244167	0,1	2,304495
3,245833	0,1	2,316379
3,247500	0,1	2,314446
3,249167	0,1	2,257191
3,250833	0,1	2,281540
3,252500	0,1	2,256823
3,254167	0,1	2,247214
3,255833	0,1	2,184230
3,257500	0,1	2,245549
3,259167	0,1	2,145328
3,260833	0,1	2,153332
3,262500	0,1	2,154476
3,264167	0,1	2,127395
3,265833	0,1	2,116215
3,267500	0,1	2,103177
3,269167	0,1	2,109332
3,270833	0,1	2,114498
3,272500	0,1	2,068006
3,274167	0,1	2,100665
3,275833	0,1	2,008781
3,277500	0,1	2,043263
3,279167	0,1	2,059114
3,280833	0,1	1,996662
3,282500	0,1	2,026658
3,284167	0,1	1,961856
3,285833	0,1	1,960622
3,287500	0,1	1,941345
3,289167	0,1	1,899452
3,290833	0,1	1,933969
3,292500	0,1	1,892891
3,294167	0,1	1,898820
3,295833	0,1	1,866090
3,297500	0,1	1,841877
3,299167	0,1	1,851772
3,300833	0,1	1,857068
3,302500	0,1	1,817689
3,304167	0,1	1,793981
3,305833	0,1	1,772439
3,307500	0,1	1,755180
3,309167	0,1	1,764483
3,310833	0,1	1,763919
3,312500	0,1	1,742930
3,314167	0,1	1,753688
3,315833	0,1	1,704164
3,317500	0,1	1,705694
3,319167	0,1	1,689165
3,320833	0,1	1,707001
3,322500	0,1	1,649465
3,324167	0,1	1,704415
3,325833	0,1	1,625420
3,327500	0,1	1,616892
3,329167	0,1	1,632113
3,330833	0,1	1,593259
3,332500	0,1	1,611607
3,334167	0,1	1,610667
3,335833	0,1	1,605572
3,337500	0,1	1,545317
3,339167	0,1	1,567988
3,340833	0,1	1,610439
3,342500	0,1	1,586704
3,344167	0,1	1,561136
3,345833	0,1	1,543443
3,347500	0,1	1,484357
3,349167	0,1	1,560042
3,350833	0,1	1,542773
3,352500	0,1	1,506753
3,354167	0,1	1,513775
3,355833	0,1	1,501885
3,357500	0,1	1,498490
3,359167	0,1	1,477654
3,360833	0,1	1,522742
3,362500	0,1	1,504408
3,364167	0,1	1,484736
3,365833	0,1	1,488965
3,367500	0,1	1,488646
3,369167	0,1	1,438943
3,370833	0,1	1,431139
3,372500	0,1	1,455733
3,374167	0,1	1,471510
3,375833	0,1	1,408975
3,377500	0,1	1,422730
3,379167	0,1	1,437657
3,380833	0,1	1,401684
3,382500	0,1	1,443732
3,384167	0,1	1,367372
3,385833	0,1	1,417555
3,387500	0,1	1,450054
3,389167	0,1	1,442610
3,390833	0,1	1,373483
3,392500	0,1	1,396858
3,394167	0,1	1,415258
3,395833	0,1	1,411349
3,397500	0,1	1,357913
3,399167	0,1	1,365420
3,400833	0,1	1,380733
3,402500	0,1	1,344489
3,404167	0,1	1,404591
3,405833	0,1	1,395375
3,407500	0,1	1,374691
3,409167	0,1	1,347858
3,410833	0,1	1,386080
3,412500	0,1	1,370270
3,414167	0,1	1,323641
3,415833	0,1	1,357892
3,417500	0,1	1,354885
3,419167	0,1	1,355595
3,420833	0,1	1,361337
3,422500	0,1	1,335124
3,424167	0,1	1,365193
3,425833	0,1	1,338798
3,427500	0,1	1,352323
3,429167	0,1	1,343232
3,430833	0,1	1,310323
3,432500	0,1	1,281244
3,434167	0,1	1,372346
3,435833	0,1	1,346387
3,437500	0,1	1,353086
3,439167	0,1	1,300845
3,440833	0,1	1,331262
3,442500	0,1	1,357624
3,444167	0,1	1,300185
3,445833	0,1	1,323998
3,447500	0,1	1,369628
3,449167	0,1	1,350026
3,450833	0,1	1,291221
3,452500	0,1	1,293781
3,454167	0,1	1,345081
3,455833	0,1	1,333405
3,457500	0,1	1,299468
3,459167	0,1	1,344372
3,460833	0,1	1,328429
3,462500	0,1	1,333486
3,464167	0,1	1,292168
3,465833	0,1	1,326398
3,467500	0,1	1,341632
3,469167	0,1	1,296455
3,470833	0,1	1,343236
3,472500	0,1	1,328870
3,474167	0,1	1,332303
3,475833	0,1	1,322365
3,477500	0,1	1,343242
3,479167	0,1	1,334642
3,480833	0,1	1,344563
3,482500	0,1	1,352375
3,484167	0,1	1,325722
3,485833	0,1	1,346933
3,487500	0,1	1,360183
3,489167	0,1	1,336222
3,490833	0,1	1,337012
3,492500	0,1	1,349375
3,494167	0,1	1,352817
3,495833	0,1	1,316895
3,497500	0,1	1,397726
3,499167	0,1	1,328000
3,500833	0,1	1,350525
3,502500	0,1	1,387858
3,504167	0,1	1,347254
3,505833	0,1	1,347025
3,507500	0,1	1,372784
3,509167	0,1	1,378396
3,510833	0,1	1,359701
3,512500	0,1	1,353666
3,514167	0,1	1,374613
3,515833	0,1	1,388559
3,517500	0,1	1,382296
3,519167	0,1	1,357668
3,520833	0,1	1,383814
3,522500	0,1	1,356839
3,524167	0,1	1,416450
3,525833	0,1	1,381132
3,527500	0,1	1,403177
3,529167	0,1	1,356200
3,530833	0,1	1,355699
3,532500	0,1	1,362894
3,534167	0,1	1,380697
3,535833	0,1	1,366169
3,537500	0,1	1,389149
3,539167	0,1	1,388156
3,540833	0,1	1,381212
3,542500	0,1	1,351911
3,544167	0,1	1,392788
3,545833	0,1	1,398049
3,547500	0,1	1,331218
3,549167	0,1	1,396815
3,550833	0,1	1,381316
3,552500	0,1	1,362105
3,554167	0,1	1,371397
3,555833	0,1	1,376684
3,557500	0,1	1,410613
3,559167	0,1	1,364298
3,560833	0,1	1,394790
3,562500	0,1	1,350234
3,564167	0,1	1,376054
3,565833	0,1	1,356618
3,567500	0,1	1,337287
3,569167	0,1	1,356811
3,570833	0,1	1,295151
3,572500	0,1	1,352110
3,574167	0,1	1,340860
3,575833	0,1	1,348819
3,577500	0,1	1,340216
3,579167	0,1	1,300248
3,580833	0,1	1,361017
3,582500	0,1	1,341708
3,584167	0,1	1,337168
3,585833	0,1	1,330442
3,587500	0,1	1,325629
3,589167	0,1	1,345241
3,590833	0,1	1,322041
3,592500	0,1	1,316790
3,594167	0,1	1,281225
3,595833	0,1	1,305045
3,597500	0,1	1,306780
3,599167	0,1	1,301565
3,600833	0,1	1,318496
3,602500	0,1	1,280515
3,604167	0,1	1,266109
3,605833	0,1	1,283210
3,607500	0,1	1,270077
3,609167	0,1	1,327431
3,610833	0,1	1,267334
3,612500	0,1	1,277066
3,614167	0,1	1,284942
3,615833	0,1	1,280393
3,617500	0,1	1,263307
3,619167	0,1	1,268566
3,620833	0,1	1,246623
3,622500	0,1	1,228046
3,624167	0,1	1,232459
3,625833	0,1	1,246634
3,627500	0,1	1,238830
3,629167	0,1	1,217999
3,630833	0,1	1,207519
3,632500	0,1	1,210245
3,634167	0,1	1,200153
3,635833	0,1	1,218961
3,637500	0,1	1,186113
3,639167	0,1	1,179762
3,640833	0,1	1,188499
3,642500	0,1	1,175059
3,644167	0,1	1,156557
3,645833	0,1	1,143774
3,647500	0,1	1,178331
3,649167	0,1	1,156868
3,650833	0,1	1,117335
3,652500	0,1	1,185355
3,654167	0,1	1,185017
3,655833	0,1	1,154163
3,657500	0,1	1,179865
3,659167	0,1	1,133312
3,660833	0,1	1,185559
3,662500	0,1	1,178785
3,664167	0,1	1,143670
3,665833	0,1	1,122610
3,667500	0,1	1,114333
3,669167	0,1	1,140882
3,670833	0,1	1,135075
3,672500	0,1	1,118039
3,674167	0,1	1,109896
3,675833	0,1	1,101289
3,677500	0,1	1,096606
3,679167	0,1	1,116634
3,680833	0,1	1,061500
3,682500	0,1	1,101430
3,684167	0,1	1,062032
3,685833	0,1	1,098040
3,687500	0,1	1,117278
3,689167	0,1	1,081816
3,690833	0,1	1,082385
3,692500	0,1	1,077927
3,694167	0,1	1,063757
3,695833	0,1	1,054858
3,697500	0,1	1,051930
3,699167	0,1	1,049000
3,700833	0,1	1,078697
3,702500	0,1	1,050852
3,704167	0,1	1,043525
3,705833	0,1	1,066832
3,707500	0,1	1,066706
3,709167	0,1	1,030288
3,710833	0,1	1,064166
3,712500	0,1	1,044791
3,714167	0,1	1,046452
3,715833	0,1	1,064302
3,717500	0,1	1,038780
3,719167	0,1	1,028510
3,720833	0,1	1,062482
3,722500	0,1	1,058253
3,724167	0,1	1,077924
3,725833	0,1	1,099219
3,727500	0,1	1,035977
3,729167	0,1	1,051282
3,730833	0,1	1,079253
3,732500	0,1	1,086356
3,734167	0,1	1,036261
3,735833	0,1	1,075523
3,737500	0,1	1,015476
3,739167	0,1	1,066602
3,740833	0,1	1,061693
3,742500	0,1	1,018671
3,744167	0,1	1,027928
3,745833	0,1	1,058336
3,747500	0,1	1,034434
3,749167	0,1	1,012053
3,750833	0,1	1,014198
3,752500	0,1	1,037375
3,754167	0,1	1,076478
3,755833	0,1	1,063846
3,757500	0,1	1,074398
3,759167	0,1	1,019960
3,760833	0,1	1,047533
3,762500	0,1	1,008419
3,764167	0,1	1,044801
3,765833	0,1	1,054456
3,767500	0,1	1,068121
3,769167	0,1	1,069099
3,770833	0,1	1,025457
3,772500	0,1	1,040700
3,774167	0,1	1,043235
3,775833	0,1	1,104135
3,777500	0,1	1,042696
3,779167	0,1	1,062066
3,780833	0,1	1,040355
3,782500	0,1	1,073994
3,784167	0,1	1,039270
3,785833	0,1	1,042015
3,787500	0,1	1,092248
3,789167	0,1	1,026659
3,790833	0,1	1,046999
3,792500	0,1	1,083199
3,794167	0,1	1,065868
3,795833	0,1	1,066879
3,797500	0,1	1,071784
3,799167	0,1	1,091033
3,800833	0,1	1,071633
3,802500	0,1	1,066039
3,804167	0,1	1,071293
3,805833	0,1	1,090279
3,807500	0,1	1,073761
3,809167	0,1	1,045172
3,810833	0,1	1,036162
3,812500	0,1	1,056625
3,814167	0,1	1,032835
3,815833	0,1	1,072949
3,817500	0,1	1,044570
3,819167	0,1	1,050046
3,820833	0,1	1,056478
3,822500	0,1	1,086773
3,824167	0,1	1,061518
3,825833	0,1	1,063422
3,827500	0,1	1,064217
3,829167	0,1	1,027031
3,830833	0,1	1,047535
3,832500	0,1	1,033301
3,834167	0,1	1,031385
3,835833	0,1	1,014648
3,837500	0,1	1,020342
3,839167	0,1	1,067577
3,840833	0,1	1,027495
3,842500	0,1	0,998217
3,844167	0,1	1,024262
3,845833	0,1	1,067890
3,847500	0,1	1,034238
3,849167	0,1	1,039332
3,850833	0,1	1,038469
3,852500	0,1	1,058890
3,854167	0,1	1,024168
3,855833	0,1	1,012667
3,857500	0,1	1,007018
3,859167	0,1	1,008986
3,860833	0,1	0,984659
3,862500	0,1	0,987761
3,864167	0,1	0,993641
3,865833	0,1	1,010674
3,867500	0,1	0,999368
3,869167	0,1	0,995349
3,870833	0,1	0,990781
3,872500	0,1	1,021737
3,874167	0,1	0,973441
3,875833	0,1	1,006679
3,877500	0,1	0,978081
3,879167	0,1	0,959691
3,880833	0,1	0,957246
3,882500	0,1	0,964961
3,884167	0,1	0,964856
3,885833	0,1	0,997757
3,887500	0,1	0,940027
3,889167	0,1	0,989442
3,890833	0,1	0,956123
3,892500	0,1	0,930200
3,894167	0,1	0,904740
3,895833	0,1	0,979459
3,897500	0,1	0,956961
3,899167	0,1	0,953609
3,900833	0,1	0,981768
3,902500	0,1	0,941976
3,904167	0,1	0,952057
3,905833	0,1	0,894066
3,907500	0,1	0,924492
3,909167	0,1	0,907756
3,910833	0,1	0,915311
3,912500	0,1	0,937750
3,914167	0,1	0,880378
3,915833	0,1	0,906329
3,917500	0,1	0,952338
3,919167	0,1	0,904261
3,920833	0,1	0,904053
3,922500	0,1	0,940934
3,924167	0,1	0,938333
3,925833	0,1	0,892882
3,927500	0,1	0,926905
3,929167	0,1	0,890635
3,930833	0,1	0,885509
3,932500	0,1	0,867508
3,934167	0,1	0,889139
3,935833	0,1	0,905307
3,937500	0,1	0,889333
3,939167	0,1	0,855967
3,940833	0,1	0,867017
3,942500	0,1	0,884218
3,944167	0,1	0,870434
3,945833	0,1	0,861262
3,947500	0,1	0,854293
3,949167	0,1	0,891380
3,950833	0,1	0,856636
3,952500	0,1	0,830478
3,954167	0,1	0,824174
3,955833	0,1	0,895059
3,957500	0,1	0,877273
3,959167	0,1	0,850662
3,960833	0,1	0,797760
3,962500	0,1	0,823162
3,964167	0,1	0,869199
3,965833	0,1	0,846963
3,967500	0,1	0,872184
3,969167	0,1	0,855738
3,970833	0,1	0,843651
3,972500	0,1	0,820703
3,974167	0,1	0,859713
3,975833	0,1	0,828029
3,977500	0,1	0,821911
3,979167	0,1	0,849914
3,980833	0,1	0,832014
3,982500	0,1	0,858906
3,984167	0,1	0,874144
3,985833	0,1	0,826235
3,987500	0,1	0,850137
3,989167	0,1	0,846025
3,990833	0,1	0,826453
3,992500	0,1	0,826765
3,994167	0,1	0,823104
3,995833	0,1	0,835930
3,997500	0,1	0,836892
3,999167	0,1	0,836987
4,000833	0,1	0,840918
4,002500	0,1	0,837640
4,004167	0,1	0,829440
4,005833	0,1	0,835288
4,007500	0,1	0,813278
4,009167	0,1	0,812825
4,010833	0,1	0,833963
4,012500	0,1	0,828444
4,014167	0,1	0,846124
4,015833	0,1	0,838497
4,017500	0,1	0,870674
4,019167	0,1	0,873737
4,020833	0,1	0,860332
4,022500	0,1	0,875114
4,024167	0,1	0,881611
4,025833	0,1	0,882543
4,027500	0,1	0,897395
4,029167	0,1	0,827816
4,030833	0,1	0,853929
4,032500	0,1	0,844750
4,034167	0,1	0,883504
4,035833	0,1	0,851335
4,037500	0,1	0,840371
4,039167	0,1	0,899276
4,040833	0,1	0,850993
4,042500	0,1	0,888939
4,044167	0,1	0,864323
4,045833	0,1	0,886920
4,047500	0,1	0,926878
4,049167	0,1	0,896185
4,050833	0,1	0,898815
4,052500	0,1	0,900141
4,054167	0,1	0,922368
4,055833	0,1	0,914094
4,057500	0,1	0,912859
4,059167	0,1	0,942603
4,060833	0,1	0,951770
4,062500	0,1	0,943296
4,064167	0,1	0,968263
4,065833	0,1	0,954348
4,067500	0,1	0,977333
4,069167	0,1	0,949403
4,070833	0,1	1,022634
4,072500	0,1	1,014935
4,074167	0,1	0,993869
4,075833	0,1	1,015769
4,077500	0,1	1,041124
4,079167	0,1	1,042015
4,080833	0,1	1,000190
4,082500	0,1	1,045574
4,084167	0,1	1,050130
4,085833	0,1	1,048959
4,087500	0,1	1,112785
4,089167	0,1	1,082107
4,090833	0,1	1,144400
4,092500	0,1	1,137250
4,094167	0,1	1,154062
4,095833	0,1	1,122147
4,097500	0,1	1,164771
4,099167	0,1	1,177713
4,100833	0,1	1,128253
4,102500	0,1	1,180545
4,104167	0,1	1,193357
4,105833	0,1	1,214857
4,107500	0,1	1,248715
4,109167	0,1	1,224744
4,110833	0,1	1,209163
4,112500	0,1	1,242660
4,114167	0,1	1,243888
4,115833	0,1	1,312182
4,117500	0,1	1,279180
4,119167	0,1	1,329768
4,120833	0,1	1,274150
4,122500	0,1	1,320316
4,124167	0,1	1,366361
4,125833	0,1	1,358546
4,127500	0,1	1,365286
4,129167	0,1	1,358459
4,130833	0,1	1,401410
4,132500	0,1	1,377572
4,134167	0,1	1,381937
4,135833	0,1	1,420336
4,137500	0,1	1,421633
4,139167	0,1	1,458459
4,140833	0,1	1,457181
4,142500	0,1	1,472865
4,144167	0,1	1,479562
4,145833	0,1	1,510277
4,147500	0,1	1,501255
4,149167	0,1	1,525430
4,150833	0,1	1,552929
4,152500	0,1	1,529335
4,154167	0,1	1,548780
4,155833	0,1	1,581127
4,157500	0,1	1,573642
4,159167	0,1	1,623688
4,160833	0,1	1,581625
4,162500	0,1	1,615731
4,164167	0,1	1,624480
4,165833	0,1	1,640249
4,167500	0,1	1,634500
4,169167	0,1	1,630704
4,170833	0,1	1,687550
4,172500	0,1	1,659583
4,174167	0,1	1,621039
4,175833	0,1	1,664777
4,177500	0,1	1,667432
4,179167	0,1	1,667075
4,180833	0,1	1,683314
4,182500	0,1	1,694486
4,184167	0,1	1,746799
4,185833	0,1	1,702793
4,187500	0,1	1,740588
4,189167	0,1	1,715051
4,190833	0,1	1,718302
4,192500	0,1	1,713540
4,194167	0,1	1,754900
4,195833	0,1	1,729708
4,197500	0,1	1,701858
4,199167	0,1	1,725048
4,200833	0,1	1,715829
4,202500	0,1	1,720681
4,204167	0,1	1,701751
4,205833	0,1	1,709948
4,207500	0,1	1,742995
4,209167	0,1	1,722472
4,210833	0,1	1,728987
4,212500	0,1	1,722984
4,214167	0,1	1,705514
4,215833	0,1	1,742600
4,217500	0,1	1,708946
4,219167	0,1	1,741282
4,220833	0,1	1,725485
4,222500	0,1	1,762988
4,224167	0,1	1,768012
4,225833	0,1	1,692068
4,227500	0,1	1,762772
4,229167	0,1	1,651975
4,230833	0,1	1,685968
4,232500	0,1	1,713303
4,234167	0,1	1,716103
4,235833	0,1	1,684396
4,237500	0,1	1,692127
4,239167	0,1	1,672154
4,240833	0,1	1,688342
4,242500	0,1	1,676661
4,244167	0,1	1,664408
4,245833	0,1	1,651470
4,247500	0,1	1,669774
4,249167	0,1	1,644525
4,250833	0,1	1,645311
4,252500	0,1	1,645188
4,254167	0,1	1,644830
4,255833	0,1	1,653879
4,257500	0,1	1,611240
4,259167	0,1	1,658978
4,260833	0,1	1,586498
4,262500	0,1	1,618757
4,264167	0,1	1,627068
4,265833	0,1	1,558720
4,267500	0,1	1,574225
4,269167	0,1	1,570175
4,270833	0,1	1,548215
4,272500	0,1	1,575251
4,274167	0,1	1,531477
4,275833	0,1	1,542697
4,277500	0,1	1,529303
4,279167	0,1	1,521421
4,280833	0,1	1,484284
4,282500	0,1	1,516358
4,284167	0,1	1,491599
4,285833	0,1	1,485445
4,287500	0,1	1,473771
4,289167	0,1	1,453101
4,290833	0,1	1,445389
4,292500	0,1	1,420826
4,294167	0,1	1,428695
4,295833	0,1	1,436304
4,297500	0,1	1,377478
4,299167	0,1	1,406717
4,300833	0,1	1,453389
4,302500	0,1	1,425198
4,304167	0,1	1,390807
4,305833	0,1	1,368321
4,307500	0,1	1,392419
4,309167	0,1	1,381518
4,310833	0,1	1,360632
4,312500	0,1	1,372787
4,314167	0,1	1,341337
4,315833	0,1	1,332663
4,317500	0,1	1,351813
4,319167	0,1	1,309432
4,320833	0,1	1,303034
4,322500	0,1	1,306270
4,324167	0,1	1,301152
4,325833	0,1	1,293401
4,327500	0,1	1,280155
4,329167	0,1	1,270768
4,330833	0,1	1,292355
4,332500	0,1	1,221248
4,334167	0,1	1,249231
4,335833	0,1	1,226585
4,337500	0,1	1,228665
4,339167	0,1	1,283155
4,340833	0,1	1,218255
4,342500	0,1	1,214200
4,344167	0,1	1,205836
4,345833	0,1	1,211532
4,347500	0,1	1,181121
4,349167	0,1	1,236818
4,350833	0,1	1,192130
4,352500	0,1	1,163835
4,354167	0,1	1,143799
4,355833	0,1	1,178042
4,357500	0,1	1,170444
4,359167	0,1	1,188760
4,360833	0,1	1,181002
4,362500	0,1	1,153562
4,364167	0,1	1,098170
4,365833	0,1	1,154806
4,367500	0,1	1,078099
4,369167	0,1	1,142402
4,370833	0,1	1,137938
4,372500	0,1	1,116487
4,374167	0,1	1,127840
4,375833	0,1	1,068602
4,377500	0,1	1,119977
4,379167	0,1	1,067800
4,380833	0,1	1,097332
4,382500	0,1	1,044642
4,384167	0,1	1,105842
4,385833	0,1	1,111068
4,387500	0,1	1,054737
4,389167	0,1	1,040376
4,390833	0,1	1,051018
4,392500	0,1	1,053726
4,394167	0,1	1,053726
4,395833	0,1	1,036362
4,397500	0,1	1,035270
4,399167	0,1	1,068713
4,400833	0,1	1,024790
4,402500	0,1	1,052654
4,404167	0,1	0,995823
4,405833	0,1	1,001755
4,407500	0,1	1,027281
4,409167	0,1	0,995801
4,410833	0,1	0,979024
4,412500	0,1	0,996606
4,414167	0,1	1,015414
4,415833	0,1	0,978568
4,417500	0,1	0,966722
4,419167	0,1	0,986799
4,420833	0,1	0,980425
4,422500	0,1	0,929642
4,424167	0,1	0,966949
4,425833	0,1	0,947116
4,427500	0,1	0,963739
4,429167	0,1	0,908028
4,430833	0,1	0,940292
4,432500	0,1	0,944407
4,434167	0,1	0,943149
4,435833	0,1	0,928690
4,437500	0,1	0,960478
4,439167	0,1	0,918314
4,440833	0,1	0,907440
4,442500	0,1	0,939072
4,444167	0,1	0,902760
4,445833	0,1	0,926948
4,447500	0,1	0,881465
4,449167	0,1	0,877346
4,450833	0,1	0,955363
4,452500	0,1	0,868941
4,454167	0,1	0,900265
4,455833	0,1	0,874230
4,457500	0,1	0,905344
4,459167	0,1	0,886287
4,460833	0,1	0,853421
4,462500	0,1	0,858921
4,464167	0,1	0,871333
4,465833	0,1	0,890229
4,467500	0,1	0,836849
4,469167	0,1	0,859270
4,470833	0,1	0,851943
4,472500	0,1	0,845830
4,474167	0,1	0,866660
4,475833	0,1	0,819488
4,477500	0,1	0,845887
4,479167	0,1	0,857148
4,480833	0,1	0,822664
4,482500	0,1	0,814531
4,484167	0,1	0,807878
4,485833	0,1	0,823173
4,487500	0,1	0,824677
4,489167	0,1	0,815556
4,490833	0,1	0,809482
4,492500	0,1	0,779206
4,494167	0,1	0,787489
4,495833	0,1	0,842574
4,497500	0,1	0,758783
4,499167	0,1	0,761486
4,500833	0,1	0,791659
4,502500	0,1	0,802275
4,504167	0,1	0,754427
4,505833	0,1	0,786103
4,507500	0,1	0,776695
4,509167	0,1	0,731863
4,510833	0,1	0,699052
4,512500	0,1	0,757102
4,514167	0,1	0,728422
4,515833	0,1	0,748112
4,517500	0,1	0,745194
4,519167	0,1	0,784490
4,520833	0,1	0,766930
4,522500	0,1	0,752744
4,524167	0,1	0,718717
4,525833	0,1	0,673342
4,527500	0,1	0,742087
4,529167	0,1	0,734521
4,530833	0,1	0,695514
4,532500	0,1	0,709128
4,534167	0,1	0,710450
4,535833	0,1	0,672278
4,537500	0,1	0,717477
4,539167	0,1	0,699140
4,540833	0,1	0,702897
4,542500	0,1	0,672984
4,544167	0,1	0,686054
4,545833	0,1	0,693798
4,547500	0,1	0,708744
4,549167	0,1	0,661868
4,550833	0,1	0,690934
4,552500	0,1	0,667359
4,554167	0,1	0,643996
4,555833	0,1	0,657291
4,557500	0,1	0,675863
4,559167	0,1	0,649236
4,560833	0,1	0,675573
4,562500	0,1	0,625301
4,564167	0,1	0,658670
4,565833	0,1	0,677662
4,567500	0,1	0,659196
4,569167	0,1	0,616786
4,570833	0,1	0,619795
4,572500	0,1	0,618477
4,574167	0,1	0,613628
4,575833	0,1	0,605274
4,577500	0,1	0,630617
4,579167	0,1	0,623556
4,580833	0,1	0,592009
4,582500	0,1	0,615387
4,584167	0,1	0,600809
4,585833	0,1	0,637555
4,587500	0,1	0,649933
4,589167	0,1	0,650257
4,590833	0,1	0,570300
4,592500	0,1	0,608700
4,594167	0,1	0,584778
4,595833	0,1	0,610472
4,597500	0,1	0,582211
4,599167	0,1	0,573274
4,600833	0,1	0,612041
4,602500	0,1	0,571930
4,604167	0,1	0,595594
4,605833	0,1	0,578513
4,607500	0,1	0,577706
4,609167	0,1	0,584837
4,610833	0,1	0,577708
4,612500	0,1	0,525958
4,614167	0,1	0,529094
4,615833	0,1	0,506579
4,617500	0,1	0,580803
4,619167	0,1	0,537521
4,620833	0,1	0,557620
4,622500	0,1	0,554218
4,624167	0,1	0,556403
4,625833	0,1	0,540635
4,627500	0,1	0,569988
4,629167	0,1	0,502931
4,630833	0,1	0,571038
4,632500	0,1	0,537362
4,634167	0,1	0,504399
4,635833	0,1	0,489137
4,637500	0,1	0,511968
4,639167	0,1	0,507447
4,640833	0,1	0,498808
4,642500	0,1	0,521315
4,644167	0,1	0,501248
4,645833	0,1	0,541264
4,647500	0,1	0,515452
4,649167	0,1	0,533591
4,650833	0,1	0,495215
4,652500	0,1	0,508016
4,654167	0,1	0,493761
4,655833	0,1	0,490970
4,657500	0,1	0,496008
4,659167	0,1	0,500309
4,660833	0,1	0,475711
4,662500	0,1	0,496195
4,664167	0,1	0,506964
4,665833	0,1	0,442860
4,667500	0,1	0,523200
4,669167	0,1	0,411595
4,670833	0,1	0,467313
4,672500	0,1	0,489997
4,674167	0,1	0,467938
4,675833	0,1	0,488682
4,677500	0,1	0,460267
4,679167	0,1	0,487299
4,680833	0,1	0,466265
4,682500	0,1	0,486240
4,684167	0,1	0,459109
4,685833	0,1	0,492470
4,687500	0,1	0,462068
4,689167	0,1	0,486042
4,690833	0,1	0,469837
4,692500	0,1	0,440544
4,694167	0,1	0,464109
4,695833	0,1	0,462540
4,697500	0,1	0,434400
4,699167	0,1	0,467446
4,700833	0,1	0,472562
4,702500	0,1	0,444715
4,704167	0,1	0,431349
4,705833	0,1	0,390634
4,707500	0,1	0,420870
4,709167	0,1	0,436904
4,710833	0,1	0,460382
4,712500	0,1	0,422333
4,714167	0,1	0,462339
4,715833	0,1	0,421792
4,717500	0,1	0,422487
4,719167	0,1	0,413877
4,720833	0,1	0,449422
4,722500	0,1	0,474648
4,724167	0,1	0,398920
4,725833	0,1	0,440942
4,727500	0,1	0,426443
4,729167	0,1	0,424640
4,730833	0,1	0,426405
4,732500	0,1	0,406434
4,734167	0,1	0,376600
4,735833	0,1	0,400127
4,737500	0,1	0,423378
4,739167	0,1	0,401549
4,740833	0,1	0,403442
4,742500	0,1	0,406944
4,744167	0,1	0,429836
4,745833	0,1	0,421142
4,747500	0,1	0,425436
4,749167	0,1	0,456306
4,750833	0,1	0,426700
4,752500	0,1	0,396574
4,754167	0,1	0,404374
4,755833	0,1	0,391207
4,757500	0,1	0,419494
4,759167	0,1	0,389383
4,760833	0,1	0,424216
4,762500	0,1	0,371467
4,764167	0,1	0,413358
4,765833	0,1	0,378265
4,767500	0,1	0,382537
4,769167	0,1	0,386805
4,770833	0,1	0,368212
4,772500	0,1	0,364064
4,774167	0,1	0,376175
4,775833	0,1	0,393073
4,777500	0,1	0,388962
4,779167	0,1	0,351203
4,780833	0,1	0,371351
4,782500	0,1	0,340019
4,784167	0,1	0,348233
4,785833	0,1	0,352540
4,787500	0,1	0,388408
4,789167	0,1	0,396249
4,790833	0,1	0,401995
4,792500	0,1	0,345037
4,794167	0,1	0,398962
4,795833	0,1	0,379015
4,797500	0,1	0,407869
4,799167	0,1	0,353548
4,800833	0,1	0,368015
4,802500	0,1	0,352833
4,804167	0,1	0,388408
4,805833	0,1	0,358943
4,807500	0,1	0,396469
4,809167	0,1	0,311295
4,810833	0,1	0,403167
4,812500	0,1	0,344584
4,814167	0,1	0,353044
4,815833	0,1	0,382152
4,817500	0,1	0,333637
4,819167	0,1	0,351856
4,820833	0,1	0,387731
4,822500	0,1	0,374669
4,824167	0,1	0,346288
4,825833	0,1	0,359449
4,827500	0,1	0,323901
4,829167	0,1	0,372286
4,830833	0,1	0,339728
4,832500	0,1	0,324953
4,834167	0,1	0,322381
4,835833	0,1	0,341970
4,837500	0,1	0,373602
4,839167	0,1	0,359444
4,840833	0,1	0,316448
4,842500	0,1	0,330738
4,844167	0,1	0,351441
4,845833	0,1	0,349909
4,847500	0,1	0,323446
4,849167	0,1	0,367275
4,850833	0,1	0,312346
4,852500	0,1	0,341289
4,854167	0,1	0,343876
4,855833	0,1	0,346911
4,857500	0,1	0,343260
4,859167	0,1	0,366500
4,860833	0,1	0,335698
4,862500	0,1	0,318343
4,864167	0,1	0,341743
4,865833	0,1	0,344165
4,867500	0,1	0,356139
4,869167	0,1	0,350174
4,870833	0,1	0,329324
4,872500	0,1	0,333462
4,874167	0,1	0,355468
4,875833	0,1	0,345893
4,877500	0,1	0,345792
4,879167	0,1	0,315048
4,880833	0,1	0,361483
4,882500	0,1	0,344712
4,884167	0,1	0,346544
4,885833	0,1	0,332056
4,887500	0,1	0,314036
4,889167	0,1	0,370683
4,890833	0,1	0,390402
4,892500	0,1	0,333261
4,894167	0,1	0,379000
4,895833	0,1	0,320696
4,897500	0,1	0,330703
4,899167	0,1	0,326274
4,900833	0,1	0,333600
4,902500	0,1	0,336875
4,904167	0,1	0,373710
4,905833	0,1	0,318352
4,907500	0,1	0,345116
4,909167	0,1	0,306751
4,910833	0,1	0,326166
4,912500	0,1	0,328752
4,914167	0,1	0,332253
4,915833	0,1	0,358804
4,917500	0,1	0,340406
4,919167	0,1	0,318105
4,920833	0,1	0,343544
4,922500	0,1	0,301691
4,924167	0,1	0,316987
4,925833	0,1	0,333207
4,927500	0,1	0,334432
4,929167	0,1	0,357973
4,930833	0,1	0,322137
4,932500	0,1	0,309930
4,934167	0,1	0,344988
4,935833	0,1	0,350298
4,937500	0,1	0,347857
4,939167	0,1	0,342165
4,940833	0,1	0,361012
4,942500	0,1	0,295729
4,944167	0,1	0,359816
4,945833	0,1	0,326317
4,947500	0,1	0,330993
4,949167	0,1	0,309995
4,950833	0,1	0,339272
4,952500	0,1	0,344329
4,954167	0,1	0,322047
4,955833	0,1	0,340496
4,957500	0,1	0,318999
4,959167	0,1	0,339980
4,960833	0,1	0,332406
4,962500	0,1	0,322095
4,964167	0,1	0,315003
4,965833	0,1	0,362136
4,967500	0,1	0,329807
4,969167	0,1	0,339706
4,970833	0,1	0,346369
4,972500	0,1	0,328393
4,974167	0,1	0,346076
4,975833	0,1	0,332950
4,977500	0,1	0,348720
4,979167	0,1	0,336878
4,980833	0,1	0,336611
4,982500	0,1	0,349402
4,984167	0,1	0,292125
4,985833	0,1	0,329763
4,987500	0,1	0,321591
4,989167	0,1	0,329998
4,990833	0,1	0,352509
4,992500	0,1	0,356619
4,994167	0,1	0,312695
4,995833	0,1	0,298788
4,997500	0,1	0,364248
4,999167	0,1	0,367474
5,000833	0,1	0,334087
5,002500	0,1	0,333350
5,004167	0,1	0,324550
5,005833	0,1	0,352987
5,007500	0,1	0,361404
5,009167	0,1	0,374221
5,010833	0,1	0,337653
5,012500	0,1	0,362180
5,014167	0,1	0,385969
5,015833	0,1	0,372174
5,017500	0,1	0,353905
5,019167	0,1	0,365156
5,020833	0,1	0,358260
5,022500	0,1	0,396017
5,024167	0,1	0,363719
5,025833	0,1	0,372196
5,027500	0,1	0,356914
5,029167	0,1	0,415218
5,030833	0,1	0,385820
5,032500	0,1	0,361184
5,034167	0,1	0,340533
5,035833	0,1	0,394402
5,037500	0,1	0,374130
5,039167	0,1	0,394256
5,040833	0,1	0,406977
5,042500	0,1	0,398822
5,044167	0,1	0,395862
5,045833	0,1	0,411979
5,047500	0,1	0,426183
5,049167	0,1	0,410838
5,050833	0,1	0,386524
5,052500	0,1	0,379037
5,054167	0,1	0,416154
5,055833	0,1	0,401330
5,057500	0,1	0,384721
5,059167	0,1	0,391202
5,060833	0,1	0,395029
5,062500	0,1	0,392878
5,064167	0,1	0,398141
5,065833	0,1	0,364650
5,067500	0,1	0,418140
5,069167	0,1	0,394494
5,070833	0,1	0,446821
5,072500	0,1	0,415519
5,074167	0,1	0,428844
5,075833	0,1	0,391701
5,077500	0,1	0,406714
5,079167	0,1	0,434141
5,080833	0,1	0,402267
5,082500	0,1	0,467472
5,084167	0,1	0,406922
5,085833	0,1	0,420946
5,087500	0,1	0,419276
5,089167	0,1	0,446156
5,090833	0,1	0,440277
5,092500	0,1	0,454031
5,094167	0,1	0,427886
5,095833	0,1	0,464782
5,097500	0,1	0,422950
5,099167	0,1	0,418246
5,100833	0,1	0,456785
5,102500	0,1	0,463886
5,104167	0,1	0,418616
5,105833	0,1	0,470052
5,107500	0,1	0,434701
5,109167	0,1	0,439412
5,110833	0,1	0,468893
5,112500	0,1	0,439711
5,114167	0,1	0,437135
5,115833	0,1	0,431093
5,117500	0,1	0,449209
5,119167	0,1	0,433927
5,120833	0,1	0,420112
5,122500	0,1	0,407679
5,124167	0,1	0,449457
5,125833	0,1	0,441506
5,127500	0,1	0,423460
5,129167	0,1	0,435784
5,130833	0,1	0,440671
5,132500	0,1	0,445257
5,134167	0,1	0,427829
5,135833	0,1	0,454951
5,137500	0,1	0,444909
5,139167	0,1	0,458076
5,140833	0,1	0,421247
5,142500	0,1	0,424929
5,144167	0,1	0,452770
5,145833	0,1	0,429234
5,147500	0,1	0,412177
5,149167	0,1	0,436965
5,150833	0,1	0,417895
5,152500	0,1	0,416425
5,154167	0,1	0,420721
5,155833	0,1	0,455628
5,157500	0,1	0,425064
5,159167	0,1	0,438353
5,160833	0,1	0,432666
5,162500	0,1	0,427400
5,164167	0,1	0,428784
5,165833	0,1	0,400301
5,167500	0,1	0,412723
5,169167	0,1	0,415257
5,170833	0,1	0,426466
5,172500	0,1	0,443200
5,174167	0,1	0,399501
5,175833	0,1	0,423703
5,177500	0,1	0,434563
5,179167	0,1	0,396035
5,180833	0,1	0,407420
5,182500	0,1	0,413810
5,184167	0,1	0,400045
5,185833	0,1	0,383662
5,187500	0,1	0,422703
5,189167	0,1	0,422070
5,190833	0,1	0,366747
5,192500	0,1	0,362980
5,194167	0,1	0,398776
5,195833	0,1	0,380840
5,197500	0,1	0,407717
5,199167	0,1	0,400587
5,200833	0,1	0,420564
5,202500	0,1	0,383793
5,204167	0,1	0,364658
5,205833	0,1	0,378418
5,207500	0,1	0,387105
5,209167	0,1	0,372718
5,210833	0,1	0,398687
5,212500	0,1	0,350083
5,214167	0,1	0,385162
5,215833	0,1	0,400392
5,217500	0,1	0,365430
5,219167	0,1	0,382243
5,220833	0,1	0,310110
5,222500	0,1	0,349446
5,224167	0,1	0,357902
5,225833	0,1	0,356368
5,227500	0,1	0,356079
5,229167	0,1	0,381510
5,230833	0,1	0,398247
5,232500	0,1	0,320347
5,234167	0,1	0,359029
5,235833	0,1	0,359504
5,237500	0,1	0,387606
5,239167	0,1	0,354775
5,240833	0,1	0,370268
5,242500	0,1	0,358399
5,244167	0,1	0,305107
5,245833	0,1	0,370003
5,247500	0,1	0,330199
5,249167	0,1	0,321879
5,250833	0,1	0,304215
5,252500	0,1	0,313136
5,254167	0,1	0,299053
5,255833	0,1	0,330545
5,257500	0,1	0,329295
5,259167	0,1	0,344074
5,260833	0,1	0,337354
5,262500	0,1	0,297259
5,264167	0,1	0,294946
5,265833	0,1	0,318472
5,267500	0,1	0,297542
5,269167	0,1	0,272500
5,270833	0,1	0,316957
5,272500	0,1	0,309803
5,274167	0,1	0,304579
5,275833	0,1	0,308076
5,277500	0,1	0,299505
5,279167	0,1	0,313727
5,280833	0,1	0,292305
5,282500	0,1	0,317276
5,284167	0,1	0,273438
5,285833	0,1	0,319386
5,287500	0,1	0,322293
5,289167	0,1	0,275590
5,290833	0,1	0,246012
5,292500	0,1	0,290754
5,294167	0,1	0,300269
5,295833	0,1	0,285757
5,297500	0,1	0,263284
5,299167	0,1	0,275930
5,300833	0,1	0,313268
5,302500	0,1	0,258318
5,304167	0,1	0,228964
5,305833	0,1	0,253453
5,307500	0,1	0,269696
5,309167	0,1	0,250604
5,310833	0,1	0,290113
5,312500	0,1	0,294428
5,314167	0,1	0,260052
5,315833	0,1	0,263378
5,317500	0,1	0,263442
5,319167	0,1	0,260811
5,320833	0,1	0,243416
5,322500	0,1	0,280042
5,324167	0,1	0,252557
5,325833	0,1	0,246874
5,327500	0,1	0,205128
5,329167	0,1	0,255270
5,330833	0,1	0,264435
5,332500	0,1	0,251308
5,334167	0,1	0,211610
5,335833	0,1	0,229720
5,337500	0,1	0,234860
5,339167	0,1	0,253079
5,340833	0,1	0,248487
5,342500	0,1	0,242317
5,344167	0,1	0,248985
5,345833	0,1	0,221425
5,347500	0,1	0,249913
5,349167	0,1	0,226519
5,350833	0,1	0,250218
5,352500	0,1	0,244675
5,354167	0,1	0,228360
5,355833	0,1	0,255229
5,357500	0,1	0,257123
5,359167	0,1	0,222149
5,360833	0,1	0,249622
5,362500	0,1	0,226786
5,364167	0,1	0,220653
5,365833	0,1	0,219555
5,367500	0,1	0,225474
5,369167	0,1	0,218891
5,370833	0,1	0,253138
5,372500	0,1	0,177200
5,374167	0,1	0,195733
5,375833	0,1	0,227932
5,377500	0,1	0,219370
5,379167	0,1	0,170257
5,380833	0,1	0,220865
5,382500	0,1	0,200855
5,384167	0,1	0,185571
5,385833	0,1	0,210231
5,387500	0,1	0,185472
5,389167	0,1	0,219898
5,390833	0,1	0,195164
5,392500	0,1	0,232925
5,394167	0,1	0,209413
5,395833	0,1	0,206879
5,397500	0,1	0,194041
5,399167	0,1	0,202610
5,400833	0,1	0,199983
5,402500	0,1	0,202220
5,404167	0,1	0,189422
5,405833	0,1	0,230789
5,407500	0,1	0,180942
5,409167	0,1	0,183186
5,410833	0,1	0,212274
5,412500	0,1	0,176218
5,414167	0,1	0,202895
5,415833	0,1	0,199653
5,417500	0,1	0,216813
5,419167	0,1	0,223548
5,420833	0,1	0,181644
5,422500	0,1	0,200721
5,424167	0,1	0,169754
5,425833	0,1	0,173493
5,427500	0,1	0,195958
5,429167	0,1	0,180851
5,430833	0,1	0,159150
5,432500	0,1	0,189742
5,434167	0,1	0,191368
5,435833	0,1	0,174907
5,437500	0,1	0,162109
5,439167	0,1	0,169952
5,440833	0,1	0,151322
5,442500	0,1	0,138999
5,444167	0,1	0,165143
5,445833	0,1	0,157447
5,447500	0,1	0,144755
5,449167	0,1	0,144960
5,450833	0,1	0,141522
5,452500	0,1	0,163404
5,454167	0,1	0,148567
5,455833	0,1	0,145396
5,457500	0,1	0,131980
5,459167	0,1	0,148290
5,460833	0,1	0,148314
5,462500	0,1	0,174110
5,464167	0,1	0,157181
5,465833	0,1	0,163614
5,467500	0,1	0,145522
5,469167	0,1	0,126101
5,470833	0,1	0,138495
5,472500	0,1	0,182864
5,474167	0,1	0,142753
5,475833	0,1	0,152887
5,477500	0,1	0,106600
5,479167	0,1	0,134764
5,480833	0,1	0,156696
5,482500	0,1	0,140821
5,484167	0,1	0,102086
5,485833	0,1	0,180226
5,487500	0,1	0,162523
5,489167	0,1	0,165790
5,490833	0,1	0,165771
5,492500	0,1	0,112484
5,494167	0,1	0,126279
5,495833	0,1	0,136426
5,497500	0,1	0,174936
5,499167	0,1	0,148238
5,500833	0,1	0,150508
5,502500	0,1	0,140116
5,504167	0,1	0,159016
5,505833	0,1	0,178231
5,507500	0,1	0,096382
5,509167	0,1	0,103793
5,510833	0,1	0,170082
5,512500	0,1	0,141488
5,514167	0,1	0,109952
5,515833	0,1	0,123215
5,517500	0,1	0,123777
5,519167	0,1	0,100529
5,520833	0,1	0,142609
5,522500	0,1	0,127341
5,524167	0,1	0,083824
5,525833	0,1	0,115695
5,527500	0,1	0,122036
5,529167	0,1	0,125225
5,530833	0,1	0,152801
5,532500	0,1	0,110016
5,534167	0,1	0,102473
5,535833	0,1	0,123149
5,537500	0,1	0,095830
5,539167	0,1	0,109404
5,540833	0,1	0,088374
5,542500	0,1	0,138467
5,544167	0,1	0,123945
5,545833	0,1	0,144437
5,547500	0,1	0,093206
5,549167	0,1	0,152276
5,550833	0,1	0,104864
5,552500	0,1	0,144535
5,554167	0,1	0,135085
5,555833	0,1	0,107551
5,557500	0,1	0,118205
5,559167	0,1	0,102308
5,560833	0,1	0,158778
5,562500	0,1	0,141051
5,564167	0,1	0,118294
5,565833	0,1	0,116819
5,567500	0,1	0,157456
5,569167	0,1	0,120825
5,570833	0,1	0,139572
5,572500	0,1	0,096143
5,574167	0,1	0,124183
5,575833	0,1	0,110258
5,577500	0,1	0,132736
5,579167	0,1	0,133923
5,580833	0,1	0,139988
5,582500	0,1	0,119103
5,584167	0,1	0,114460
5,585833	0,1	0,112410
5,587500	0,1	0,128245
5,589167	0,1	0,113033
5,590833	0,1	0,081422
5,592500	0,1	0,126851
5,594167	0,1	0,101358
5,595833	0,1	0,104229
5,597500	0,1	0,109552
5,599167	0,1	0,146524
5,600833	0,1	0,109063
5,602500	0,1	0,119117
5,604167	0,1	0,116819
5,605833	0,1	0,116323
5,607500	0,1	0,114252
5,609167	0,1	0,112512
5,610833	0,1	0,082537
5,612500	0,1	0,118798
5,614167	0,1	0,127521
5,615833	0,1	0,087262
5,617500	0,1	0,094806
5,619167	0,1	0,115840
5,620833	0,1	0,085976
5,622500	0,1	0,147451
5,624167	0,1	0,117136
5,625833	0,1	0,085149
5,627500	0,1	0,105778
5,629167	0,1	0,095661
5,630833	0,1	0,111162
5,632500	0,1	0,139982
5,634167	0,1	0,102480
5,635833	0,1	0,103816
5,637500	0,1	0,081522
5,639167	0,1	0,127016
5,640833	0,1	0,113470
5,642500	0,1	0,125265
5,644167	0,1	0,090697
5,645833	0,1	0,095118
5,647500	0,1	0,143665
5,649167	0,1	0,113514
5,650833	0,1	0,154724
5,652500	0,1	0,104365
5,654167	0,1	0,111868
5,655833	0,1	0,103280
5,657500	0,1	0,147371
5,659167	0,1	0,172535
5,660833	0,1	0,125940
5,662500	0,1	0,145928
5,664167	0,1	0,133678
5,665833	0,1	0,109122
5,667500	0,1	0,099924
5,669167	0,1	0,166541
5,670833	0,1	0,145192
5,672500	0,1	0,128978
5,674167	0,1	0,104111
5,675833	0,1	0,098640
5,677500	0,1	0,104147
5,679167	0,1	0,140498
5,680833	0,1	0,110429
5,682500	0,1	0,129156
5,684167	0,1	0,151498
5,685833	0,1	0,136328
5,687500	0,1	0,149513
5,689167	0,1	0,110431
5,690833	0,1	0,117397
5,692500	0,1	0,108622
5,694167	0,1	0,148573
5,695833	0,1	0,142973
5,697500	0,1	0,126327
5,699167	0,1	0,153754
5,700833	0,1	0,102626
5,702500	0,1	0,149234
5,704167	0,1	0,146762
5,705833	0,1	0,134153
5,707500	0,1	0,137774
5,709167	0,1	0,142742
5,710833	0,1	0,146987
5,712500	0,1	0,146160
5,714167	0,1	0,145187
5,715833	0,1	0,154462
5,717500	0,1	0,150365
5,719167	0,1	0,121030
5,720833	0,1	0,141392
5,722500	0,1	0,141915
5,724167	0,1	0,139949
5,725833	0,1	0,190317
5,727500	0,1	0,135924
5,729167	0,1	0,131729
5,730833	0,1	0,146860
5,732500	0,1	0,176097
5,734167	0,1	0,134886
5,735833	0,1	0,164313
5,737500	0,1	0,171897
5,739167	0,1	0,192915
5,740833	0,1	0,160892
5,742500	0,1	0,147655
5,744167	0,1	0,177277
5,745833	0,1	0,131200
5,747500	0,1	0,173402
5,749167	0,1	0,153372
5,750833	0,1	0,149681
5,752500	0,1	0,188872
5,754167	0,1	0,156398
5,755833	0,1	0,140201
5,757500	0,1	0,179718
5,759167	0,1	0,148302
5,760833	0,1	0,220360
5,762500	0,1	0,173279
5,764167	0,1	0,145587
5,765833	0,1	0,158084
5,767500	0,1	0,142976
5,769167	0,1	0,165723
5,770833	0,1	0,197924
5,772500	0,1	0,164040
5,774167	0,1	0,169975
5,775833	0,1	0,191506
5,777500	0,1	0,121267
5,779167	0,1	0,146009
5,780833	0,1	0,190505
5,782500	0,1	0,189232
5,784167	0,1	0,189232
5,785833	0,1	0,177640
5,787500	0,1	0,160721
5,789167	0,1	0,195997
5,790833	0,1	0,186604
5,792500	0,1	0,224699
5,794167	0,1	0,161768
5,795833	0,1	0,172146
5,797500	0,1	0,173661
5,799167	0,1	0,153559
5,800833	0,1	0,167383
5,802500	0,1	0,161341
5,804167	0,1	0,159640
5,805833	0,1	0,184176
5,807500	0,1	0,181116
5,809167	0,1	0,161842
5,810833	0,1	0,210344
5,812500	0,1	0,160896
5,814167	0,1	0,182352
5,815833	0,1	0,164740
5,817500	0,1	0,179206
5,819167	0,1	0,216540
5,820833	0,1	0,148786
5,822500	0,1	0,171769
5,824167	0,1	0,139107
5,825833	0,1	0,155453
5,827500	0,1	0,192620
5,829167	0,1	0,185031
5,830833	0,1	0,164967
5,832500	0,1	0,177510
5,834167	0,1	0,131138
5,835833	0,1	0,152574
5,837500	0,1	0,145997
5,839167	0,1	0,198766
5,840833	0,1	0,138990
5,842500	0,1	0,193962
5,844167	0,1	0,170166
5,845833	0,1	0,166951
5,847500	0,1	0,141652
5,849167	0,1	0,147815
5,850833	0,1	0,215954
5,852500	0,1	0,190813
5,854167	0,1	0,175611
5,855833	0,1	0,137099
5,857500	0,1	0,184874
5,859167	0,1	0,156460
5,860833	0,1	0,147219
5,862500	0,1	0,192143
5,864167	0,1	0,169088
5,865833	0,1	0,171797
5,867500	0,1	0,174240
5,869167	0,1	0,182914
5,870833	0,1	0,162069
5,872500	0,1	0,151091
5,874167	0,1	0,154526
5,875833	0,1	0,170821
5,877500	0,1	0,122980
5,879167	0,1	0,154435
5,880833	0,1	0,165892
5,882500	0,1	0,126726
5,884167	0,1	0,133010
5,885833	0,1	0,136323
5,887500	0,1	0,129265
5,889167	0,1	0,138808
5,890833	0,1	0,126119
5,892500	0,1	0,136632
5,894167	0,1	0,145702
5,895833	0,1	0,149846
5,897500	0,1	0,157735
5,899167	0,1	0,118794
5,900833	0,1	0,124250
5,902500	0,1	0,132988
5,904167	0,1	0,144935
5,905833	0,1	0,180629
5,907500	0,1	0,149377
5,909167	0,1	0,150053
5,910833	0,1	0,141628
5,912500	0,1	0,135271
5,914167	0,1	0,165619
5,915833	0,1	0,156766
5,917500	0,1	0,128317
5,919167	0,1	0,132617
5,920833	0,1	0,139987
5,922500	0,1	0,136098
5,924167	0,1	0,170607
5,925833	0,1	0,126126
5,927500	0,1	0,109783
5,929167	0,1	0,130067
5,930833	0,1	0,109515
5,932500	0,1	0,132820
5,934167	0,1	0,112021
5,935833	0,1	0,119385
5,937500	0,1	0,131248
5,939167	0,1	0,147400
5,940833	0,1	0,158707
5,942500	0,1	0,167777
5,944167	0,1	0,163080
5,945833	0,1	0,125234
5,947500	0,1	0,119161
5,949167	0,1	0,150377
5,950833	0,1	0,156098
5,952500	0,1	0,138876
5,954167	0,1	0,114173
5,955833	0,1	0,167268
5,957500	0,1	0,141941
5,959167	0,1	0,114112
5,960833	0,1	0,107772
5,962500	0,1	0,138865
5,964167	0,1	0,114815
5,965833	0,1	0,129799
5,967500	0,1	0,157212
5,969167	0,1	0,141257
5,970833	0,1	0,165765
5,972500	0,1	0,105156
5,974167	0,1	0,134515
5,975833	0,1	0,123656
5,977500	0,1	0,097507
5,979167	0,1	0,126068
5,980833	0,1	0,095645
5,982500	0,1	0,113605
5,984167	0,1	0,126735
5,985833	0,1	0,116675
5,987500	0,1	0,093965
5,989167	0,1	0,126089
5,990833	0,1	0,108562
5,992500	0,1	0,135076
5,994167	0,1	0,115375
5,995833	0,1	0,139155
5,997500	0,1	0,093682
5,999167	0,1	0,130228
6,000833	0,1	0,070535
