File Path	chrom://chromeleon01/ikbm_chromeleon/2022/Rezex/Esteban/220612_chitin_4_7.seq/960.smp/UV_VIS_1.channel/UV_VIS_1.chm
Channel	UV_VIS_1

Injection Information:
Data Vault	ikbm_chromeleon
Injection	4_01h-EGS_3
Injection Number	96
Position	GE7
Comment	
Processing Method	New ProcMethod
Instrument Method	Short_Rezex_6min_194nm
Type	Unknown
Status	Finished
Injection Date	13.06.2022
Injection Time	03:29:05
Injection Volume (µl)	8,000
Dilution Factor	1,0000
Weight	1,0000

Chromatogram Data Information:
Time Min. (min)	0,000833
Time Max. (min)	6,000833
Data Points	3601
Detector	UV
Generating Data System	Chromeleon 7.2.9.11323
Exporting Data System	Chromeleon 7.2.9.0
Operator	Instrument Controller
Signal Quantity	Absorbance
Signal Unit	mAU
Signal Min.	-0,111622
Signal Max.	107,660615
Channel	UV_VIS_1
Driver Name	VWD3000.dll
Channel Type	Evaluation
Min. Step (s)	0,1
Max. Step (s)	0,1
Average Step (s)	0,1

Signal Parameter Information:
Signal Info	WVL:194 nm

Chromatogram Data:
Time (min)	Step (s)	Value (mAU)
0,000833	n.a.	-0,045387
0,002500	0,1	-0,022089
0,004167	0,1	0,006707
0,005833	0,1	-0,015680
0,007500	0,1	-0,102746
0,009167	0,1	-0,026278
0,010833	0,1	-0,042860
0,012500	0,1	-0,059193
0,014167	0,1	-0,016979
0,015833	0,1	-0,058791
0,017500	0,1	-0,005307
0,019167	0,1	-0,060265
0,020833	0,1	-0,034151
0,022500	0,1	-0,013826
0,024167	0,1	-0,036979
0,025833	0,1	-0,052503
0,027500	0,1	-0,068846
0,029167	0,1	-0,050860
0,030833	0,1	-0,058842
0,032500	0,1	-0,050277
0,034167	0,1	-0,089695
0,035833	0,1	-0,091217
0,037500	0,1	-0,111622
0,039167	0,1	-0,088672
0,040833	0,1	-0,071270
0,042500	0,1	-0,059535
0,044167	0,1	-0,097852
0,045833	0,1	-0,095281
0,047500	0,1	-0,064046
0,049167	0,1	-0,042519
0,050833	0,1	-0,061836
0,052500	0,1	-0,076043
0,054167	0,1	-0,083488
0,055833	0,1	-0,068123
0,057500	0,1	-0,080430
0,059167	0,1	-0,047594
0,060833	0,1	-0,053436
0,062500	0,1	0,015312
0,064167	0,1	-0,063274
0,065833	0,1	-0,052052
0,067500	0,1	-0,034053
0,069167	0,1	-0,038555
0,070833	0,1	-0,053173
0,072500	0,1	-0,034526
0,074167	0,1	-0,023554
0,075833	0,1	-0,089750
0,077500	0,1	-0,029649
0,079167	0,1	-0,010845
0,080833	0,1	-0,037267
0,082500	0,1	-0,014880
0,084167	0,1	-0,042523
0,085833	0,1	-0,045826
0,087500	0,1	-0,050044
0,089167	0,1	0,002913
0,090833	0,1	0,031657
0,092500	0,1	-0,003150
0,094167	0,1	-0,036316
0,095833	0,1	-0,036113
0,097500	0,1	0,022312
0,099167	0,1	-0,019172
0,100833	0,1	-0,038263
0,102500	0,1	-0,005030
0,104167	0,1	-0,017501
0,105833	0,1	-0,088159
0,107500	0,1	-0,018787
0,109167	0,1	-0,065250
0,110833	0,1	-0,041893
0,112500	0,1	-0,057619
0,114167	0,1	-0,059486
0,115833	0,1	-0,029256
0,117500	0,1	-0,048803
0,119167	0,1	-0,064633
0,120833	0,1	-0,053440
0,122500	0,1	-0,049404
0,124167	0,1	-0,063501
0,125833	0,1	-0,072043
0,127500	0,1	-0,058620
0,129167	0,1	-0,067782
0,130833	0,1	-0,088769
0,132500	0,1	-0,093888
0,134167	0,1	-0,092668
0,135833	0,1	-0,030459
0,137500	0,1	-0,016972
0,139167	0,1	-0,077059
0,140833	0,1	-0,046598
0,142500	0,1	-0,057224
0,144167	0,1	-0,023164
0,145833	0,1	-0,024423
0,147500	0,1	-0,002169
0,149167	0,1	-0,026174
0,150833	0,1	-0,047246
0,152500	0,1	-0,039473
0,154167	0,1	-0,029971
0,155833	0,1	-0,009730
0,157500	0,1	0,008845
0,159167	0,1	-0,031884
0,160833	0,1	-0,042204
0,162500	0,1	-0,047661
0,164167	0,1	-0,056110
0,165833	0,1	-0,022496
0,167500	0,1	-0,057034
0,169167	0,1	-0,052456
0,170833	0,1	-0,017865
0,172500	0,1	-0,035159
0,174167	0,1	-0,016348
0,175833	0,1	-0,020941
0,177500	0,1	0,009072
0,179167	0,1	-0,027700
0,180833	0,1	-0,022104
0,182500	0,1	-0,025556
0,184167	0,1	-0,010493
0,185833	0,1	-0,026344
0,187500	0,1	-0,018727
0,189167	0,1	-0,042005
0,190833	0,1	-0,030156
0,192500	0,1	-0,023572
0,194167	0,1	0,008632
0,195833	0,1	-0,054460
0,197500	0,1	-0,050169
0,199167	0,1	-0,000752
0,200833	0,1	-0,019531
0,202500	0,1	-0,052315
0,204167	0,1	0,006708
0,205833	0,1	-0,007006
0,207500	0,1	-0,057549
0,209167	0,1	-0,035399
0,210833	0,1	-0,024549
0,212500	0,1	-0,007075
0,214167	0,1	-0,031599
0,215833	0,1	-0,028520
0,217500	0,1	-0,012620
0,219167	0,1	-0,030790
0,220833	0,1	-0,013139
0,222500	0,1	0,007598
0,224167	0,1	-0,025592
0,225833	0,1	-0,026760
0,227500	0,1	0,008236
0,229167	0,1	-0,053407
0,230833	0,1	-0,001930
0,232500	0,1	-0,020004
0,234167	0,1	-0,056788
0,235833	0,1	-0,013893
0,237500	0,1	-0,012020
0,239167	0,1	-0,004654
0,240833	0,1	-0,029401
0,242500	0,1	-0,013307
0,244167	0,1	-0,024041
0,245833	0,1	0,041978
0,247500	0,1	0,003867
0,249167	0,1	-0,035323
0,250833	0,1	-0,027545
0,252500	0,1	-0,040233
0,254167	0,1	-0,017800
0,255833	0,1	-0,003285
0,257500	0,1	0,011062
0,259167	0,1	-0,020309
0,260833	0,1	0,000336
0,262500	0,1	-0,006803
0,264167	0,1	0,008574
0,265833	0,1	-0,042913
0,267500	0,1	-0,064141
0,269167	0,1	-0,040426
0,270833	0,1	0,024692
0,272500	0,1	-0,037857
0,274167	0,1	-0,004080
0,275833	0,1	-0,012413
0,277500	0,1	-0,003618
0,279167	0,1	-0,018495
0,280833	0,1	-0,028455
0,282500	0,1	-0,025188
0,284167	0,1	-0,041042
0,285833	0,1	-0,024427
0,287500	0,1	0,018362
0,289167	0,1	0,008000
0,290833	0,1	-0,016214
0,292500	0,1	0,006666
0,294167	0,1	0,003963
0,295833	0,1	0,003427
0,297500	0,1	0,002760
0,299167	0,1	-0,057258
0,300833	0,1	-0,047877
0,302500	0,1	-0,058095
0,304167	0,1	-0,007828
0,305833	0,1	-0,019137
0,307500	0,1	0,007764
0,309167	0,1	0,002100
0,310833	0,1	-0,003860
0,312500	0,1	-0,009124
0,314167	0,1	-0,013037
0,315833	0,1	-0,008705
0,317500	0,1	-0,028515
0,319167	0,1	0,010827
0,320833	0,1	0,008351
0,322500	0,1	0,001134
0,324167	0,1	-0,005705
0,325833	0,1	-0,013467
0,327500	0,1	-0,019965
0,329167	0,1	-0,020449
0,330833	0,1	0,005029
0,332500	0,1	0,001292
0,334167	0,1	0,010377
0,335833	0,1	0,032959
0,337500	0,1	0,001941
0,339167	0,1	-0,004421
0,340833	0,1	-0,001234
0,342500	0,1	0,017249
0,344167	0,1	-0,022689
0,345833	0,1	-0,016205
0,347500	0,1	-0,015105
0,349167	0,1	-0,002766
0,350833	0,1	0,039231
0,352500	0,1	0,006475
0,354167	0,1	0,031695
0,355833	0,1	-0,029988
0,357500	0,1	-0,004675
0,359167	0,1	0,011844
0,360833	0,1	-0,009386
0,362500	0,1	-0,002684
0,364167	0,1	0,000649
0,365833	0,1	0,034741
0,367500	0,1	0,018413
0,369167	0,1	0,021017
0,370833	0,1	-0,014639
0,372500	0,1	0,024447
0,374167	0,1	0,025140
0,375833	0,1	0,019139
0,377500	0,1	-0,012239
0,379167	0,1	-0,028101
0,380833	0,1	0,006644
0,382500	0,1	0,008824
0,384167	0,1	0,028635
0,385833	0,1	0,003803
0,387500	0,1	0,014951
0,389167	0,1	0,038117
0,390833	0,1	0,013121
0,392500	0,1	0,017191
0,394167	0,1	-0,002493
0,395833	0,1	0,014517
0,397500	0,1	0,009327
0,399167	0,1	0,040597
0,400833	0,1	0,017464
0,402500	0,1	0,009513
0,404167	0,1	0,051155
0,405833	0,1	0,037028
0,407500	0,1	0,036983
0,409167	0,1	0,014070
0,410833	0,1	0,019215
0,412500	0,1	0,011578
0,414167	0,1	0,060737
0,415833	0,1	-0,005735
0,417500	0,1	0,012777
0,419167	0,1	0,033811
0,420833	0,1	-0,010891
0,422500	0,1	0,036910
0,424167	0,1	0,015975
0,425833	0,1	0,015760
0,427500	0,1	0,020605
0,429167	0,1	0,010690
0,430833	0,1	0,046040
0,432500	0,1	0,027485
0,434167	0,1	-0,004846
0,435833	0,1	0,024676
0,437500	0,1	0,021808
0,439167	0,1	0,033209
0,440833	0,1	0,049050
0,442500	0,1	0,027318
0,444167	0,1	0,019139
0,445833	0,1	0,047578
0,447500	0,1	0,027176
0,449167	0,1	0,042341
0,450833	0,1	-0,000254
0,452500	0,1	0,044218
0,454167	0,1	0,042530
0,455833	0,1	0,035534
0,457500	0,1	0,042528
0,459167	0,1	0,072441
0,460833	0,1	-0,011445
0,462500	0,1	0,049575
0,464167	0,1	0,065384
0,465833	0,1	0,015859
0,467500	0,1	0,040204
0,469167	0,1	0,046485
0,470833	0,1	0,016286
0,472500	0,1	0,055772
0,474167	0,1	0,002235
0,475833	0,1	0,055748
0,477500	0,1	0,034298
0,479167	0,1	0,013033
0,480833	0,1	0,000300
0,482500	0,1	0,011019
0,484167	0,1	0,025613
0,485833	0,1	0,007133
0,487500	0,1	0,031202
0,489167	0,1	0,024668
0,490833	0,1	0,049275
0,492500	0,1	0,036777
0,494167	0,1	0,051347
0,495833	0,1	0,003455
0,497500	0,1	0,063097
0,499167	0,1	0,019148
0,500833	0,1	0,017871
0,502500	0,1	0,018557
0,504167	0,1	0,028161
0,505833	0,1	0,066497
0,507500	0,1	0,019622
0,509167	0,1	0,013133
0,510833	0,1	0,075974
0,512500	0,1	0,031403
0,514167	0,1	0,051925
0,515833	0,1	0,015480
0,517500	0,1	0,001356
0,519167	0,1	-0,025347
0,520833	0,1	0,001820
0,522500	0,1	0,012964
0,524167	0,1	0,047842
0,525833	0,1	0,022994
0,527500	0,1	0,030149
0,529167	0,1	0,054200
0,530833	0,1	0,058100
0,532500	0,1	0,066832
0,534167	0,1	0,041088
0,535833	0,1	0,024749
0,537500	0,1	0,025616
0,539167	0,1	0,050123
0,540833	0,1	0,070123
0,542500	0,1	0,045289
0,544167	0,1	0,043069
0,545833	0,1	0,066934
0,547500	0,1	0,039742
0,549167	0,1	0,034973
0,550833	0,1	0,064074
0,552500	0,1	0,078097
0,554167	0,1	0,075949
0,555833	0,1	0,034155
0,557500	0,1	0,010509
0,559167	0,1	0,016297
0,560833	0,1	0,047886
0,562500	0,1	0,055032
0,564167	0,1	0,072982
0,565833	0,1	0,050838
0,567500	0,1	0,051639
0,569167	0,1	0,070663
0,570833	0,1	0,060710
0,572500	0,1	0,020694
0,574167	0,1	0,048091
0,575833	0,1	0,068569
0,577500	0,1	0,043881
0,579167	0,1	0,072400
0,580833	0,1	0,035808
0,582500	0,1	0,045633
0,584167	0,1	0,085420
0,585833	0,1	0,074004
0,587500	0,1	0,048312
0,589167	0,1	0,059629
0,590833	0,1	0,083022
0,592500	0,1	0,026104
0,594167	0,1	0,093405
0,595833	0,1	0,048856
0,597500	0,1	0,079584
0,599167	0,1	0,071891
0,600833	0,1	0,114450
0,602500	0,1	0,082021
0,604167	0,1	0,086483
0,605833	0,1	0,100292
0,607500	0,1	0,108412
0,609167	0,1	0,081772
0,610833	0,1	0,067979
0,612500	0,1	0,093685
0,614167	0,1	0,072453
0,615833	0,1	0,069964
0,617500	0,1	0,106873
0,619167	0,1	0,107108
0,620833	0,1	0,107648
0,622500	0,1	0,128286
0,624167	0,1	0,070743
0,625833	0,1	0,031711
0,627500	0,1	0,079351
0,629167	0,1	0,124366
0,630833	0,1	0,105870
0,632500	0,1	0,093632
0,634167	0,1	0,102904
0,635833	0,1	0,067714
0,637500	0,1	0,085426
0,639167	0,1	0,056966
0,640833	0,1	0,096435
0,642500	0,1	0,107685
0,644167	0,1	0,059105
0,645833	0,1	0,152249
0,647500	0,1	0,081884
0,649167	0,1	0,144075
0,650833	0,1	0,110658
0,652500	0,1	0,154331
0,654167	0,1	0,103477
0,655833	0,1	0,119653
0,657500	0,1	0,125040
0,659167	0,1	0,100178
0,660833	0,1	0,107417
0,662500	0,1	0,122987
0,664167	0,1	0,107609
0,665833	0,1	0,117997
0,667500	0,1	0,101500
0,669167	0,1	0,105328
0,670833	0,1	0,144828
0,672500	0,1	0,136618
0,674167	0,1	0,126969
0,675833	0,1	0,104961
0,677500	0,1	0,110462
0,679167	0,1	0,141786
0,680833	0,1	0,130553
0,682500	0,1	0,172492
0,684167	0,1	0,122093
0,685833	0,1	0,157624
0,687500	0,1	0,103187
0,689167	0,1	0,107024
0,690833	0,1	0,159694
0,692500	0,1	0,110743
0,694167	0,1	0,112389
0,695833	0,1	0,150107
0,697500	0,1	0,122605
0,699167	0,1	0,120093
0,700833	0,1	0,194582
0,702500	0,1	0,168079
0,704167	0,1	0,190080
0,705833	0,1	0,156133
0,707500	0,1	0,170554
0,709167	0,1	0,173396
0,710833	0,1	0,183684
0,712500	0,1	0,208140
0,714167	0,1	0,160817
0,715833	0,1	0,181880
0,717500	0,1	0,163295
0,719167	0,1	0,172315
0,720833	0,1	0,205053
0,722500	0,1	0,193569
0,724167	0,1	0,210984
0,725833	0,1	0,190486
0,727500	0,1	0,214498
0,729167	0,1	0,183676
0,730833	0,1	0,200437
0,732500	0,1	0,187895
0,734167	0,1	0,190480
0,735833	0,1	0,215305
0,737500	0,1	0,219952
0,739167	0,1	0,230365
0,740833	0,1	0,213702
0,742500	0,1	0,235774
0,744167	0,1	0,223104
0,745833	0,1	0,236456
0,747500	0,1	0,254873
0,749167	0,1	0,227000
0,750833	0,1	0,276047
0,752500	0,1	0,256306
0,754167	0,1	0,242141
0,755833	0,1	0,243875
0,757500	0,1	0,257191
0,759167	0,1	0,231454
0,760833	0,1	0,239793
0,762500	0,1	0,241846
0,764167	0,1	0,205132
0,765833	0,1	0,267907
0,767500	0,1	0,261026
0,769167	0,1	0,243301
0,770833	0,1	0,238224
0,772500	0,1	0,221053
0,774167	0,1	0,242296
0,775833	0,1	0,215114
0,777500	0,1	0,260018
0,779167	0,1	0,245931
0,780833	0,1	0,206003
0,782500	0,1	0,266749
0,784167	0,1	0,226587
0,785833	0,1	0,281394
0,787500	0,1	0,246616
0,789167	0,1	0,230458
0,790833	0,1	0,257454
0,792500	0,1	0,238806
0,794167	0,1	0,218135
0,795833	0,1	0,235978
0,797500	0,1	0,268911
0,799167	0,1	0,249785
0,800833	0,1	0,217621
0,802500	0,1	0,255259
0,804167	0,1	0,223813
0,805833	0,1	0,251549
0,807500	0,1	0,260982
0,809167	0,1	0,223401
0,810833	0,1	0,256710
0,812500	0,1	0,257523
0,814167	0,1	0,224268
0,815833	0,1	0,246853
0,817500	0,1	0,198322
0,819167	0,1	0,223589
0,820833	0,1	0,173637
0,822500	0,1	0,234064
0,824167	0,1	0,216004
0,825833	0,1	0,193925
0,827500	0,1	0,264695
0,829167	0,1	0,212097
0,830833	0,1	0,241754
0,832500	0,1	0,262820
0,834167	0,1	0,212214
0,835833	0,1	0,286074
0,837500	0,1	0,223695
0,839167	0,1	0,177652
0,840833	0,1	0,253010
0,842500	0,1	0,233356
0,844167	0,1	0,227221
0,845833	0,1	0,224260
0,847500	0,1	0,215172
0,849167	0,1	0,208852
0,850833	0,1	0,227240
0,852500	0,1	0,215189
0,854167	0,1	0,215020
0,855833	0,1	0,210614
0,857500	0,1	0,239312
0,859167	0,1	0,217493
0,860833	0,1	0,216038
0,862500	0,1	0,220368
0,864167	0,1	0,216063
0,865833	0,1	0,204234
0,867500	0,1	0,208936
0,869167	0,1	0,236578
0,870833	0,1	0,231552
0,872500	0,1	0,208176
0,874167	0,1	0,262787
0,875833	0,1	0,266677
0,877500	0,1	0,199940
0,879167	0,1	0,215533
0,880833	0,1	0,213057
0,882500	0,1	0,223944
0,884167	0,1	0,197754
0,885833	0,1	0,218664
0,887500	0,1	0,242649
0,889167	0,1	0,248469
0,890833	0,1	0,259863
0,892500	0,1	0,263013
0,894167	0,1	0,230149
0,895833	0,1	0,219996
0,897500	0,1	0,255525
0,899167	0,1	0,249656
0,900833	0,1	0,222982
0,902500	0,1	0,229044
0,904167	0,1	0,234469
0,905833	0,1	0,265221
0,907500	0,1	0,211706
0,909167	0,1	0,254719
0,910833	0,1	0,216463
0,912500	0,1	0,236580
0,914167	0,1	0,263321
0,915833	0,1	0,239450
0,917500	0,1	0,260212
0,919167	0,1	0,224206
0,920833	0,1	0,229771
0,922500	0,1	0,258198
0,924167	0,1	0,243300
0,925833	0,1	0,269326
0,927500	0,1	0,277139
0,929167	0,1	0,255587
0,930833	0,1	0,284273
0,932500	0,1	0,229597
0,934167	0,1	0,218092
0,935833	0,1	0,270932
0,937500	0,1	0,262171
0,939167	0,1	0,269973
0,940833	0,1	0,279002
0,942500	0,1	0,246161
0,944167	0,1	0,286197
0,945833	0,1	0,247572
0,947500	0,1	0,292340
0,949167	0,1	0,282092
0,950833	0,1	0,280375
0,952500	0,1	0,275364
0,954167	0,1	0,287789
0,955833	0,1	0,280039
0,957500	0,1	0,291907
0,959167	0,1	0,268408
0,960833	0,1	0,288178
0,962500	0,1	0,282240
0,964167	0,1	0,281838
0,965833	0,1	0,290687
0,967500	0,1	0,264367
0,969167	0,1	0,309262
0,970833	0,1	0,295389
0,972500	0,1	0,272549
0,974167	0,1	0,305463
0,975833	0,1	0,317985
0,977500	0,1	0,314487
0,979167	0,1	0,259400
0,980833	0,1	0,302790
0,982500	0,1	0,299806
0,984167	0,1	0,326681
0,985833	0,1	0,327810
0,987500	0,1	0,312689
0,989167	0,1	0,308833
0,990833	0,1	0,343514
0,992500	0,1	0,337897
0,994167	0,1	0,309835
0,995833	0,1	0,319270
0,997500	0,1	0,328513
0,999167	0,1	0,337252
1,000833	0,1	0,339784
1,002500	0,1	0,369521
1,004167	0,1	0,368661
1,005833	0,1	0,360440
1,007500	0,1	0,358021
1,009167	0,1	0,371008
1,010833	0,1	0,412200
1,012500	0,1	0,377145
1,014167	0,1	0,395370
1,015833	0,1	0,357008
1,017500	0,1	0,424552
1,019167	0,1	0,451641
1,020833	0,1	0,419664
1,022500	0,1	0,415161
1,024167	0,1	0,457968
1,025833	0,1	0,458487
1,027500	0,1	0,453379
1,029167	0,1	0,464488
1,030833	0,1	0,512569
1,032500	0,1	0,482168
1,034167	0,1	0,522400
1,035833	0,1	0,502341
1,037500	0,1	0,542673
1,039167	0,1	0,499674
1,040833	0,1	0,551442
1,042500	0,1	0,514808
1,044167	0,1	0,588032
1,045833	0,1	0,586731
1,047500	0,1	0,570061
1,049167	0,1	0,614129
1,050833	0,1	0,610606
1,052500	0,1	0,617417
1,054167	0,1	0,657769
1,055833	0,1	0,697778
1,057500	0,1	0,755852
1,059167	0,1	0,835213
1,060833	0,1	0,953174
1,062500	0,1	1,162644
1,064167	0,1	1,336778
1,065833	0,1	1,528850
1,067500	0,1	1,878097
1,069167	0,1	2,296991
1,070833	0,1	2,770055
1,072500	0,1	3,376193
1,074167	0,1	4,104545
1,075833	0,1	5,007926
1,077500	0,1	6,000077
1,079167	0,1	7,191076
1,080833	0,1	8,641198
1,082500	0,1	10,214123
1,084167	0,1	12,008357
1,085833	0,1	13,911014
1,087500	0,1	16,020240
1,089167	0,1	18,265413
1,090833	0,1	20,662017
1,092500	0,1	23,146167
1,094167	0,1	25,644795
1,095833	0,1	28,266436
1,097500	0,1	30,816142
1,099167	0,1	33,320565
1,100833	0,1	35,776280
1,102500	0,1	38,082704
1,104167	0,1	40,234339
1,105833	0,1	42,191919
1,107500	0,1	43,993713
1,109167	0,1	45,512060
1,110833	0,1	46,892017
1,112500	0,1	47,913823
1,114167	0,1	48,788399
1,115833	0,1	49,436517
1,117500	0,1	49,825520
1,119167	0,1	50,018597
1,120833	0,1	50,073018
1,122500	0,1	49,955648
1,124167	0,1	49,620881
1,125833	0,1	49,218804
1,127500	0,1	48,698121
1,129167	0,1	48,046168
1,130833	0,1	47,375320
1,132500	0,1	46,634681
1,134167	0,1	45,901759
1,135833	0,1	45,034823
1,137500	0,1	44,325548
1,139167	0,1	43,486036
1,140833	0,1	42,806506
1,142500	0,1	42,121873
1,144167	0,1	41,484220
1,145833	0,1	40,871549
1,147500	0,1	40,381952
1,149167	0,1	39,960604
1,150833	0,1	39,630733
1,152500	0,1	39,360622
1,154167	0,1	39,168822
1,155833	0,1	39,063254
1,157500	0,1	39,047019
1,159167	0,1	39,086618
1,160833	0,1	39,188930
1,162500	0,1	39,384584
1,164167	0,1	39,589358
1,165833	0,1	39,864324
1,167500	0,1	40,155882
1,169167	0,1	40,444945
1,170833	0,1	40,799478
1,172500	0,1	41,089297
1,174167	0,1	41,451219
1,175833	0,1	41,767268
1,177500	0,1	42,011744
1,179167	0,1	42,241618
1,180833	0,1	42,460968
1,182500	0,1	42,693885
1,184167	0,1	42,816376
1,185833	0,1	42,954237
1,187500	0,1	43,012731
1,189167	0,1	43,122179
1,190833	0,1	43,201307
1,192500	0,1	43,233076
1,194167	0,1	43,314818
1,195833	0,1	43,424117
1,197500	0,1	43,625601
1,199167	0,1	43,854212
1,200833	0,1	44,147228
1,202500	0,1	44,612650
1,204167	0,1	45,119757
1,205833	0,1	45,895966
1,207500	0,1	46,760867
1,209167	0,1	47,784200
1,210833	0,1	49,097604
1,212500	0,1	50,610566
1,214167	0,1	52,275574
1,215833	0,1	54,203969
1,217500	0,1	56,294103
1,219167	0,1	58,660398
1,220833	0,1	61,167914
1,222500	0,1	63,812230
1,224167	0,1	66,665975
1,225833	0,1	69,562409
1,227500	0,1	72,522806
1,229167	0,1	75,591708
1,230833	0,1	78,619976
1,232500	0,1	81,643771
1,234167	0,1	84,617090
1,235833	0,1	87,502803
1,237500	0,1	90,240852
1,239167	0,1	92,836019
1,240833	0,1	95,296160
1,242500	0,1	97,527415
1,244167	0,1	99,550311
1,245833	0,1	101,377586
1,247500	0,1	103,008433
1,249167	0,1	104,356000
1,250833	0,1	105,466512
1,252500	0,1	106,381330
1,254167	0,1	107,048730
1,255833	0,1	107,497487
1,257500	0,1	107,660615
1,259167	0,1	107,579438
1,260833	0,1	107,326621
1,262500	0,1	106,888733
1,264167	0,1	106,200004
1,265833	0,1	105,329392
1,267500	0,1	104,243518
1,269167	0,1	103,018509
1,270833	0,1	101,594168
1,272500	0,1	99,963242
1,274167	0,1	98,324810
1,275833	0,1	96,479102
1,277500	0,1	94,589045
1,279167	0,1	92,491776
1,280833	0,1	90,424200
1,282500	0,1	88,248449
1,284167	0,1	86,008425
1,285833	0,1	83,782218
1,287500	0,1	81,442657
1,289167	0,1	79,159019
1,290833	0,1	76,909286
1,292500	0,1	74,587632
1,294167	0,1	72,318784
1,295833	0,1	70,088470
1,297500	0,1	67,915360
1,299167	0,1	65,754197
1,300833	0,1	63,636493
1,302500	0,1	61,631751
1,304167	0,1	59,659000
1,305833	0,1	57,748050
1,307500	0,1	55,942028
1,309167	0,1	54,121328
1,310833	0,1	52,419025
1,312500	0,1	50,767068
1,314167	0,1	49,133636
1,315833	0,1	47,670639
1,317500	0,1	46,243137
1,319167	0,1	44,833073
1,320833	0,1	43,502248
1,322500	0,1	42,282026
1,324167	0,1	41,004681
1,325833	0,1	39,862499
1,327500	0,1	38,715420
1,329167	0,1	37,689244
1,330833	0,1	36,665099
1,332500	0,1	35,636617
1,334167	0,1	34,715926
1,335833	0,1	33,818486
1,337500	0,1	32,923352
1,339167	0,1	32,049665
1,340833	0,1	31,274448
1,342500	0,1	30,500834
1,344167	0,1	29,741309
1,345833	0,1	28,990586
1,347500	0,1	28,320292
1,349167	0,1	27,612320
1,350833	0,1	26,895400
1,352500	0,1	26,312232
1,354167	0,1	25,680592
1,355833	0,1	25,080536
1,357500	0,1	24,513649
1,359167	0,1	23,915395
1,360833	0,1	23,314539
1,362500	0,1	22,784489
1,364167	0,1	22,246002
1,365833	0,1	21,742045
1,367500	0,1	21,212297
1,369167	0,1	20,705427
1,370833	0,1	20,205267
1,372500	0,1	19,792373
1,374167	0,1	19,325827
1,375833	0,1	18,875376
1,377500	0,1	18,433741
1,379167	0,1	18,013723
1,380833	0,1	17,639316
1,382500	0,1	17,208794
1,384167	0,1	16,861544
1,385833	0,1	16,463465
1,387500	0,1	16,104875
1,389167	0,1	15,735154
1,390833	0,1	15,349914
1,392500	0,1	15,085670
1,394167	0,1	14,742183
1,395833	0,1	14,387125
1,397500	0,1	14,158065
1,399167	0,1	13,853712
1,400833	0,1	13,547462
1,402500	0,1	13,279303
1,404167	0,1	13,030260
1,405833	0,1	12,768266
1,407500	0,1	12,549986
1,409167	0,1	12,225384
1,410833	0,1	12,048293
1,412500	0,1	11,835126
1,414167	0,1	11,603289
1,415833	0,1	11,406054
1,417500	0,1	11,189755
1,419167	0,1	11,079780
1,420833	0,1	10,819160
1,422500	0,1	10,641318
1,424167	0,1	10,514123
1,425833	0,1	10,277194
1,427500	0,1	10,135122
1,429167	0,1	10,012070
1,430833	0,1	9,887783
1,432500	0,1	9,718494
1,434167	0,1	9,541701
1,435833	0,1	9,391500
1,437500	0,1	9,288063
1,439167	0,1	9,133210
1,440833	0,1	9,059560
1,442500	0,1	8,909656
1,444167	0,1	8,768798
1,445833	0,1	8,603111
1,447500	0,1	8,517960
1,449167	0,1	8,416339
1,450833	0,1	8,306177
1,452500	0,1	8,164981
1,454167	0,1	8,058693
1,455833	0,1	7,980621
1,457500	0,1	7,878320
1,459167	0,1	7,810621
1,460833	0,1	7,748063
1,462500	0,1	7,622877
1,464167	0,1	7,530036
1,465833	0,1	7,484791
1,467500	0,1	7,390892
1,469167	0,1	7,357394
1,470833	0,1	7,238455
1,472500	0,1	7,165186
1,474167	0,1	7,111875
1,475833	0,1	7,062207
1,477500	0,1	7,021115
1,479167	0,1	6,995025
1,480833	0,1	6,892477
1,482500	0,1	6,854178
1,484167	0,1	6,857152
1,485833	0,1	6,787423
1,487500	0,1	6,770739
1,489167	0,1	6,756765
1,490833	0,1	6,729495
1,492500	0,1	6,699699
1,494167	0,1	6,682295
1,495833	0,1	6,670838
1,497500	0,1	6,635269
1,499167	0,1	6,645606
1,500833	0,1	6,645225
1,502500	0,1	6,624762
1,504167	0,1	6,634802
1,505833	0,1	6,661332
1,507500	0,1	6,649612
1,509167	0,1	6,630790
1,510833	0,1	6,637143
1,512500	0,1	6,617867
1,514167	0,1	6,616933
1,515833	0,1	6,612924
1,517500	0,1	6,648670
1,519167	0,1	6,660502
1,520833	0,1	6,621704
1,522500	0,1	6,619167
1,524167	0,1	6,621324
1,525833	0,1	6,604275
1,527500	0,1	6,634980
1,529167	0,1	6,627920
1,530833	0,1	6,571343
1,532500	0,1	6,586487
1,534167	0,1	6,554119
1,535833	0,1	6,572916
1,537500	0,1	6,547133
1,539167	0,1	6,548436
1,540833	0,1	6,536888
1,542500	0,1	6,519968
1,544167	0,1	6,446456
1,545833	0,1	6,474819
1,547500	0,1	6,416963
1,549167	0,1	6,417420
1,550833	0,1	6,381781
1,552500	0,1	6,345784
1,554167	0,1	6,320566
1,555833	0,1	6,300088
1,557500	0,1	6,267254
1,559167	0,1	6,289391
1,560833	0,1	6,202075
1,562500	0,1	6,184802
1,564167	0,1	6,164853
1,565833	0,1	6,166649
1,567500	0,1	6,102290
1,569167	0,1	6,090326
1,570833	0,1	6,038068
1,572500	0,1	6,038631
1,574167	0,1	5,980986
1,575833	0,1	5,939994
1,577500	0,1	5,921191
1,579167	0,1	5,884713
1,580833	0,1	5,858763
1,582500	0,1	5,852395
1,584167	0,1	5,828404
1,585833	0,1	5,790578
1,587500	0,1	5,735346
1,589167	0,1	5,645913
1,590833	0,1	5,666149
1,592500	0,1	5,629797
1,594167	0,1	5,576993
1,595833	0,1	5,552266
1,597500	0,1	5,515239
1,599167	0,1	5,475899
1,600833	0,1	5,465861
1,602500	0,1	5,462903
1,604167	0,1	5,414704
1,605833	0,1	5,366279
1,607500	0,1	5,339243
1,609167	0,1	5,368774
1,610833	0,1	5,244790
1,612500	0,1	5,229851
1,614167	0,1	5,243427
1,615833	0,1	5,186798
1,617500	0,1	5,175097
1,619167	0,1	5,112995
1,620833	0,1	5,097569
1,622500	0,1	5,069789
1,624167	0,1	5,052377
1,625833	0,1	5,004169
1,627500	0,1	4,973203
1,629167	0,1	4,959798
1,630833	0,1	4,989052
1,632500	0,1	4,940868
1,634167	0,1	4,897496
1,635833	0,1	4,860489
1,637500	0,1	4,839916
1,639167	0,1	4,822944
1,640833	0,1	4,778262
1,642500	0,1	4,790710
1,644167	0,1	4,742744
1,645833	0,1	4,705845
1,647500	0,1	4,706769
1,649167	0,1	4,730354
1,650833	0,1	4,655586
1,652500	0,1	4,627847
1,654167	0,1	4,667142
1,655833	0,1	4,631048
1,657500	0,1	4,629613
1,659167	0,1	4,622198
1,660833	0,1	4,626698
1,662500	0,1	4,611018
1,664167	0,1	4,614210
1,665833	0,1	4,598859
1,667500	0,1	4,640629
1,669167	0,1	4,642749
1,670833	0,1	4,654577
1,672500	0,1	4,668620
1,674167	0,1	4,706393
1,675833	0,1	4,696239
1,677500	0,1	4,796430
1,679167	0,1	4,778836
1,680833	0,1	4,865332
1,682500	0,1	4,881525
1,684167	0,1	4,950827
1,685833	0,1	5,029883
1,687500	0,1	5,050980
1,689167	0,1	5,138057
1,690833	0,1	5,195241
1,692500	0,1	5,275325
1,694167	0,1	5,419919
1,695833	0,1	5,454484
1,697500	0,1	5,609144
1,699167	0,1	5,666291
1,700833	0,1	5,730638
1,702500	0,1	5,895179
1,704167	0,1	5,957149
1,705833	0,1	6,030318
1,707500	0,1	6,208814
1,709167	0,1	6,326729
1,710833	0,1	6,406219
1,712500	0,1	6,568769
1,714167	0,1	6,675279
1,715833	0,1	6,774340
1,717500	0,1	6,876504
1,719167	0,1	6,992568
1,720833	0,1	7,166247
1,722500	0,1	7,210367
1,724167	0,1	7,371901
1,725833	0,1	7,434412
1,727500	0,1	7,567481
1,729167	0,1	7,672922
1,730833	0,1	7,741067
1,732500	0,1	7,811531
1,734167	0,1	7,905986
1,735833	0,1	7,981709
1,737500	0,1	8,033813
1,739167	0,1	8,121330
1,740833	0,1	8,164773
1,742500	0,1	8,187095
1,744167	0,1	8,231004
1,745833	0,1	8,303697
1,747500	0,1	8,337899
1,749167	0,1	8,335032
1,750833	0,1	8,340543
1,752500	0,1	8,348689
1,754167	0,1	8,385655
1,755833	0,1	8,392859
1,757500	0,1	8,351655
1,759167	0,1	8,300572
1,760833	0,1	8,307321
1,762500	0,1	8,296817
1,764167	0,1	8,232516
1,765833	0,1	8,239417
1,767500	0,1	8,177779
1,769167	0,1	8,127804
1,770833	0,1	8,110894
1,772500	0,1	8,050756
1,774167	0,1	8,015726
1,775833	0,1	7,919382
1,777500	0,1	7,870914
1,779167	0,1	7,830666
1,780833	0,1	7,682895
1,782500	0,1	7,639377
1,784167	0,1	7,583778
1,785833	0,1	7,480347
1,787500	0,1	7,371789
1,789167	0,1	7,311068
1,790833	0,1	7,190739
1,792500	0,1	7,139738
1,794167	0,1	7,026165
1,795833	0,1	6,994748
1,797500	0,1	6,855697
1,799167	0,1	6,775036
1,800833	0,1	6,683787
1,802500	0,1	6,605328
1,804167	0,1	6,508450
1,805833	0,1	6,426078
1,807500	0,1	6,309788
1,809167	0,1	6,199874
1,810833	0,1	6,102578
1,812500	0,1	6,076574
1,814167	0,1	5,964396
1,815833	0,1	5,841911
1,817500	0,1	5,761043
1,819167	0,1	5,680801
1,820833	0,1	5,590352
1,822500	0,1	5,519889
1,824167	0,1	5,405563
1,825833	0,1	5,342972
1,827500	0,1	5,257316
1,829167	0,1	5,181154
1,830833	0,1	5,114860
1,832500	0,1	5,053489
1,834167	0,1	4,943781
1,835833	0,1	4,871113
1,837500	0,1	4,858019
1,839167	0,1	4,776540
1,840833	0,1	4,754264
1,842500	0,1	4,701675
1,844167	0,1	4,653661
1,845833	0,1	4,651951
1,847500	0,1	4,615910
1,849167	0,1	4,563846
1,850833	0,1	4,604218
1,852500	0,1	4,548565
1,854167	0,1	4,561675
1,855833	0,1	4,563349
1,857500	0,1	4,571696
1,859167	0,1	4,602009
1,860833	0,1	4,637919
1,862500	0,1	4,636757
1,864167	0,1	4,661081
1,865833	0,1	4,704281
1,867500	0,1	4,721203
1,869167	0,1	4,672812
1,870833	0,1	4,732752
1,872500	0,1	4,793643
1,874167	0,1	4,802224
1,875833	0,1	4,861979
1,877500	0,1	4,864772
1,879167	0,1	4,863590
1,880833	0,1	4,888561
1,882500	0,1	4,908283
1,884167	0,1	4,910048
1,885833	0,1	4,956370
1,887500	0,1	4,893511
1,889167	0,1	4,954126
1,890833	0,1	5,014621
1,892500	0,1	4,995136
1,894167	0,1	4,989028
1,895833	0,1	5,037232
1,897500	0,1	5,007378
1,899167	0,1	5,072568
1,900833	0,1	5,036542
1,902500	0,1	5,058150
1,904167	0,1	5,088243
1,905833	0,1	5,087910
1,907500	0,1	5,069650
1,909167	0,1	5,063526
1,910833	0,1	5,109581
1,912500	0,1	5,100080
1,914167	0,1	5,110096
1,915833	0,1	5,116928
1,917500	0,1	5,102173
1,919167	0,1	5,109225
1,920833	0,1	5,125736
1,922500	0,1	5,064038
1,924167	0,1	5,088865
1,925833	0,1	5,062930
1,927500	0,1	5,088637
1,929167	0,1	5,050970
1,930833	0,1	5,068258
1,932500	0,1	5,038572
1,934167	0,1	5,012916
1,935833	0,1	5,033984
1,937500	0,1	4,997674
1,939167	0,1	5,000597
1,940833	0,1	4,985449
1,942500	0,1	4,996416
1,944167	0,1	4,979975
1,945833	0,1	4,967189
1,947500	0,1	4,977234
1,949167	0,1	4,940551
1,950833	0,1	4,910724
1,952500	0,1	4,879957
1,954167	0,1	4,934122
1,955833	0,1	4,881042
1,957500	0,1	4,873610
1,959167	0,1	4,861330
1,960833	0,1	4,857867
1,962500	0,1	4,875069
1,964167	0,1	4,829689
1,965833	0,1	4,804428
1,967500	0,1	4,838838
1,969167	0,1	4,817671
1,970833	0,1	4,841953
1,972500	0,1	4,834590
1,974167	0,1	4,809901
1,975833	0,1	4,797003
1,977500	0,1	4,822103
1,979167	0,1	4,806654
1,980833	0,1	4,821274
1,982500	0,1	4,816503
1,984167	0,1	4,798986
1,985833	0,1	4,818278
1,987500	0,1	4,772970
1,989167	0,1	4,847015
1,990833	0,1	4,834658
1,992500	0,1	4,809370
1,994167	0,1	4,829459
1,995833	0,1	4,869504
1,997500	0,1	4,816032
1,999167	0,1	4,866507
2,000833	0,1	4,860329
2,002500	0,1	4,829005
2,004167	0,1	4,896570
2,005833	0,1	4,874062
2,007500	0,1	4,886385
2,009167	0,1	4,871846
2,010833	0,1	4,901058
2,012500	0,1	4,944059
2,014167	0,1	4,911991
2,015833	0,1	4,921182
2,017500	0,1	4,984751
2,019167	0,1	4,994469
2,020833	0,1	5,036752
2,022500	0,1	4,994062
2,024167	0,1	5,020946
2,025833	0,1	5,019141
2,027500	0,1	5,102318
2,029167	0,1	5,084611
2,030833	0,1	5,090306
2,032500	0,1	5,120907
2,034167	0,1	5,122774
2,035833	0,1	5,138892
2,037500	0,1	5,206873
2,039167	0,1	5,196161
2,040833	0,1	5,213099
2,042500	0,1	5,229817
2,044167	0,1	5,251501
2,045833	0,1	5,264553
2,047500	0,1	5,325493
2,049167	0,1	5,337199
2,050833	0,1	5,346261
2,052500	0,1	5,339717
2,054167	0,1	5,399047
2,055833	0,1	5,402995
2,057500	0,1	5,488889
2,059167	0,1	5,474249
2,060833	0,1	5,483489
2,062500	0,1	5,484252
2,064167	0,1	5,523347
2,065833	0,1	5,505248
2,067500	0,1	5,599191
2,069167	0,1	5,624907
2,070833	0,1	5,611372
2,072500	0,1	5,664493
2,074167	0,1	5,653456
2,075833	0,1	5,687991
2,077500	0,1	5,687069
2,079167	0,1	5,703037
2,080833	0,1	5,742912
2,082500	0,1	5,747414
2,084167	0,1	5,761301
2,085833	0,1	5,784954
2,087500	0,1	5,836804
2,089167	0,1	5,846376
2,090833	0,1	5,857190
2,092500	0,1	5,888002
2,094167	0,1	5,879291
2,095833	0,1	5,892491
2,097500	0,1	5,899877
2,099167	0,1	5,913009
2,100833	0,1	5,945390
2,102500	0,1	5,953468
2,104167	0,1	5,974476
2,105833	0,1	5,992100
2,107500	0,1	5,979094
2,109167	0,1	6,022990
2,110833	0,1	5,998705
2,112500	0,1	6,022521
2,114167	0,1	6,059357
2,115833	0,1	6,029218
2,117500	0,1	6,068719
2,119167	0,1	6,047436
2,120833	0,1	6,090297
2,122500	0,1	6,066871
2,124167	0,1	6,059011
2,125833	0,1	6,085643
2,127500	0,1	6,088429
2,129167	0,1	6,057673
2,130833	0,1	6,071638
2,132500	0,1	6,107473
2,134167	0,1	6,121619
2,135833	0,1	6,054960
2,137500	0,1	6,081545
2,139167	0,1	6,082971
2,140833	0,1	6,094831
2,142500	0,1	6,050887
2,144167	0,1	6,090830
2,145833	0,1	6,052306
2,147500	0,1	6,115969
2,149167	0,1	6,063535
2,150833	0,1	6,068462
2,152500	0,1	6,087226
2,154167	0,1	6,029402
2,155833	0,1	6,053194
2,157500	0,1	6,080450
2,159167	0,1	6,046789
2,160833	0,1	6,020210
2,162500	0,1	6,002625
2,164167	0,1	6,010972
2,165833	0,1	5,996238
2,167500	0,1	5,979587
2,169167	0,1	5,976948
2,170833	0,1	5,978858
2,172500	0,1	5,942048
2,174167	0,1	5,918713
2,175833	0,1	5,947711
2,177500	0,1	5,870764
2,179167	0,1	5,902260
2,180833	0,1	5,913519
2,182500	0,1	5,880494
2,184167	0,1	5,855510
2,185833	0,1	5,843112
2,187500	0,1	5,857557
2,189167	0,1	5,834063
2,190833	0,1	5,825904
2,192500	0,1	5,827835
2,194167	0,1	5,797362
2,195833	0,1	5,785428
2,197500	0,1	5,746444
2,199167	0,1	5,758700
2,200833	0,1	5,734408
2,202500	0,1	5,721273
2,204167	0,1	5,722374
2,205833	0,1	5,712838
2,207500	0,1	5,682805
2,209167	0,1	5,715235
2,210833	0,1	5,697322
2,212500	0,1	5,670190
2,214167	0,1	5,672979
2,215833	0,1	5,675558
2,217500	0,1	5,649278
2,219167	0,1	5,610295
2,220833	0,1	5,638169
2,222500	0,1	5,618461
2,224167	0,1	5,649111
2,225833	0,1	5,631482
2,227500	0,1	5,598115
2,229167	0,1	5,601097
2,230833	0,1	5,571722
2,232500	0,1	5,609756
2,234167	0,1	5,562086
2,235833	0,1	5,578211
2,237500	0,1	5,575162
2,239167	0,1	5,594008
2,240833	0,1	5,595053
2,242500	0,1	5,593297
2,244167	0,1	5,600902
2,245833	0,1	5,582316
2,247500	0,1	5,580383
2,249167	0,1	5,588682
2,250833	0,1	5,620592
2,252500	0,1	5,580479
2,254167	0,1	5,543452
2,255833	0,1	5,541316
2,257500	0,1	5,576215
2,259167	0,1	5,569725
2,260833	0,1	5,587833
2,262500	0,1	5,547871
2,264167	0,1	5,549810
2,265833	0,1	5,553192
2,267500	0,1	5,537465
2,269167	0,1	5,559946
2,270833	0,1	5,544574
2,272500	0,1	5,534432
2,274167	0,1	5,542899
2,275833	0,1	5,543160
2,277500	0,1	5,494146
2,279167	0,1	5,473209
2,280833	0,1	5,507107
2,282500	0,1	5,495570
2,284167	0,1	5,496106
2,285833	0,1	5,472669
2,287500	0,1	5,534329
2,289167	0,1	5,435671
2,290833	0,1	5,441923
2,292500	0,1	5,399158
2,294167	0,1	5,432685
2,295833	0,1	5,401668
2,297500	0,1	5,379882
2,299167	0,1	5,363785
2,300833	0,1	5,393121
2,302500	0,1	5,348616
2,304167	0,1	5,380016
2,305833	0,1	5,353785
2,307500	0,1	5,323167
2,309167	0,1	5,242942
2,310833	0,1	5,259696
2,312500	0,1	5,289713
2,314167	0,1	5,243557
2,315833	0,1	5,233381
2,317500	0,1	5,212909
2,319167	0,1	5,230183
2,320833	0,1	5,192130
2,322500	0,1	5,180150
2,324167	0,1	5,178342
2,325833	0,1	5,139978
2,327500	0,1	5,108184
2,329167	0,1	5,101547
2,330833	0,1	5,106485
2,332500	0,1	5,100223
2,334167	0,1	5,086277
2,335833	0,1	5,068579
2,337500	0,1	5,047581
2,339167	0,1	5,033856
2,340833	0,1	5,007242
2,342500	0,1	5,022308
2,344167	0,1	4,981895
2,345833	0,1	4,974809
2,347500	0,1	4,957286
2,349167	0,1	4,954455
2,350833	0,1	4,904804
2,352500	0,1	4,940995
2,354167	0,1	4,923868
2,355833	0,1	4,875633
2,357500	0,1	4,862860
2,359167	0,1	4,852594
2,360833	0,1	4,868395
2,362500	0,1	4,813587
2,364167	0,1	4,844995
2,365833	0,1	4,795184
2,367500	0,1	4,813653
2,369167	0,1	4,789821
2,370833	0,1	4,767594
2,372500	0,1	4,777650
2,374167	0,1	4,763299
2,375833	0,1	4,771113
2,377500	0,1	4,799973
2,379167	0,1	4,781867
2,380833	0,1	4,781496
2,382500	0,1	4,791958
2,384167	0,1	4,802422
2,385833	0,1	4,787638
2,387500	0,1	4,816527
2,389167	0,1	4,808468
2,390833	0,1	4,874124
2,392500	0,1	4,891093
2,394167	0,1	4,904955
2,395833	0,1	4,959521
2,397500	0,1	5,021419
2,399167	0,1	5,043615
2,400833	0,1	5,099727
2,402500	0,1	5,163136
2,404167	0,1	5,256994
2,405833	0,1	5,287172
2,407500	0,1	5,325919
2,409167	0,1	5,498251
2,410833	0,1	5,569339
2,412500	0,1	5,685934
2,414167	0,1	5,809857
2,415833	0,1	5,886637
2,417500	0,1	6,048605
2,419167	0,1	6,151271
2,420833	0,1	6,324435
2,422500	0,1	6,480724
2,424167	0,1	6,599121
2,425833	0,1	6,736334
2,427500	0,1	6,949315
2,429167	0,1	7,089558
2,430833	0,1	7,297206
2,432500	0,1	7,507110
2,434167	0,1	7,682702
2,435833	0,1	7,877850
2,437500	0,1	8,075048
2,439167	0,1	8,264243
2,440833	0,1	8,437729
2,442500	0,1	8,626470
2,444167	0,1	8,894067
2,445833	0,1	9,083322
2,447500	0,1	9,306207
2,449167	0,1	9,454386
2,450833	0,1	9,705663
2,452500	0,1	9,909284
2,454167	0,1	10,091508
2,455833	0,1	10,283497
2,457500	0,1	10,437625
2,459167	0,1	10,640623
2,460833	0,1	10,790936
2,462500	0,1	10,995673
2,464167	0,1	11,105969
2,465833	0,1	11,323789
2,467500	0,1	11,422893
2,469167	0,1	11,606575
2,470833	0,1	11,773438
2,472500	0,1	11,922308
2,474167	0,1	12,014811
2,475833	0,1	12,109517
2,477500	0,1	12,237933
2,479167	0,1	12,379947
2,480833	0,1	12,462469
2,482500	0,1	12,567757
2,484167	0,1	12,659574
2,485833	0,1	12,755253
2,487500	0,1	12,873658
2,489167	0,1	12,976073
2,490833	0,1	13,064867
2,492500	0,1	13,160681
2,494167	0,1	13,286365
2,495833	0,1	13,354038
2,497500	0,1	13,465419
2,499167	0,1	13,563794
2,500833	0,1	13,669299
2,502500	0,1	13,793447
2,504167	0,1	13,902623
2,505833	0,1	14,040876
2,507500	0,1	14,193634
2,509167	0,1	14,297186
2,510833	0,1	14,488625
2,512500	0,1	14,617163
2,514167	0,1	14,788895
2,515833	0,1	14,941214
2,517500	0,1	15,109728
2,519167	0,1	15,350040
2,520833	0,1	15,509766
2,522500	0,1	15,704808
2,524167	0,1	15,962896
2,525833	0,1	16,190653
2,527500	0,1	16,411713
2,529167	0,1	16,630921
2,530833	0,1	16,875421
2,532500	0,1	17,169950
2,534167	0,1	17,409935
2,535833	0,1	17,703095
2,537500	0,1	17,997069
2,539167	0,1	18,240341
2,540833	0,1	18,564807
2,542500	0,1	18,925076
2,544167	0,1	19,147671
2,545833	0,1	19,484487
2,547500	0,1	19,780523
2,549167	0,1	20,109124
2,550833	0,1	20,415906
2,552500	0,1	20,688413
2,554167	0,1	21,062339
2,555833	0,1	21,315795
2,557500	0,1	21,576720
2,559167	0,1	21,898305
2,560833	0,1	22,228277
2,562500	0,1	22,450417
2,564167	0,1	22,774635
2,565833	0,1	23,025451
2,567500	0,1	23,293079
2,569167	0,1	23,582210
2,570833	0,1	23,792489
2,572500	0,1	24,059810
2,574167	0,1	24,221553
2,575833	0,1	24,453327
2,577500	0,1	24,658664
2,579167	0,1	24,890470
2,580833	0,1	25,054646
2,582500	0,1	25,154006
2,584167	0,1	25,325612
2,585833	0,1	25,479134
2,587500	0,1	25,527617
2,589167	0,1	25,658120
2,590833	0,1	25,797667
2,592500	0,1	25,818272
2,594167	0,1	25,866121
2,595833	0,1	25,958135
2,597500	0,1	26,000826
2,599167	0,1	26,020299
2,600833	0,1	26,008734
2,602500	0,1	26,038765
2,604167	0,1	25,970341
2,605833	0,1	25,983368
2,607500	0,1	25,923610
2,609167	0,1	25,884744
2,610833	0,1	25,792635
2,612500	0,1	25,773334
2,614167	0,1	25,650867
2,615833	0,1	25,573332
2,617500	0,1	25,509614
2,619167	0,1	25,373055
2,620833	0,1	25,266621
2,622500	0,1	25,127569
2,624167	0,1	24,997133
2,625833	0,1	24,835058
2,627500	0,1	24,707731
2,629167	0,1	24,564064
2,630833	0,1	24,368723
2,632500	0,1	24,168626
2,634167	0,1	23,980656
2,635833	0,1	23,835368
2,637500	0,1	23,621801
2,639167	0,1	23,381487
2,640833	0,1	23,184787
2,642500	0,1	23,030819
2,644167	0,1	22,778650
2,645833	0,1	22,501900
2,647500	0,1	22,340485
2,649167	0,1	22,087435
2,650833	0,1	21,896273
2,652500	0,1	21,602458
2,654167	0,1	21,317748
2,655833	0,1	21,099442
2,657500	0,1	20,896340
2,659167	0,1	20,591643
2,660833	0,1	20,310776
2,662500	0,1	20,082478
2,664167	0,1	19,816585
2,665833	0,1	19,539234
2,667500	0,1	19,323417
2,669167	0,1	19,018535
2,670833	0,1	18,729868
2,672500	0,1	18,482429
2,674167	0,1	18,261097
2,675833	0,1	17,981107
2,677500	0,1	17,715951
2,679167	0,1	17,372808
2,680833	0,1	17,168680
2,682500	0,1	16,913424
2,684167	0,1	16,647974
2,685833	0,1	16,401581
2,687500	0,1	16,118978
2,689167	0,1	15,868760
2,690833	0,1	15,565742
2,692500	0,1	15,369845
2,694167	0,1	15,116709
2,695833	0,1	14,864182
2,697500	0,1	14,581597
2,699167	0,1	14,335580
2,700833	0,1	14,082605
2,702500	0,1	13,848024
2,704167	0,1	13,626187
2,705833	0,1	13,382814
2,707500	0,1	13,200590
2,709167	0,1	12,917352
2,710833	0,1	12,693940
2,712500	0,1	12,505337
2,714167	0,1	12,286319
2,715833	0,1	12,099530
2,717500	0,1	11,900458
2,719167	0,1	11,668115
2,720833	0,1	11,480813
2,722500	0,1	11,274298
2,724167	0,1	11,076034
2,725833	0,1	10,894644
2,727500	0,1	10,708296
2,729167	0,1	10,570340
2,730833	0,1	10,339848
2,732500	0,1	10,189250
2,734167	0,1	10,020157
2,735833	0,1	9,847748
2,737500	0,1	9,693634
2,739167	0,1	9,497730
2,740833	0,1	9,384623
2,742500	0,1	9,246078
2,744167	0,1	9,069649
2,745833	0,1	8,922552
2,747500	0,1	8,792975
2,749167	0,1	8,680299
2,750833	0,1	8,554444
2,752500	0,1	8,385605
2,754167	0,1	8,253023
2,755833	0,1	8,156502
2,757500	0,1	8,008855
2,759167	0,1	7,959127
2,760833	0,1	7,790412
2,762500	0,1	7,695543
2,764167	0,1	7,591245
2,765833	0,1	7,465039
2,767500	0,1	7,368136
2,769167	0,1	7,220108
2,770833	0,1	7,165930
2,772500	0,1	7,036788
2,774167	0,1	6,961497
2,775833	0,1	6,851127
2,777500	0,1	6,775962
2,779167	0,1	6,667694
2,780833	0,1	6,618821
2,782500	0,1	6,511702
2,784167	0,1	6,451004
2,785833	0,1	6,302644
2,787500	0,1	6,270994
2,789167	0,1	6,212881
2,790833	0,1	6,075566
2,792500	0,1	6,006895
2,794167	0,1	5,914176
2,795833	0,1	5,823160
2,797500	0,1	5,801668
2,799167	0,1	5,720617
2,800833	0,1	5,676911
2,802500	0,1	5,577634
2,804167	0,1	5,538401
2,805833	0,1	5,434825
2,807500	0,1	5,382181
2,809167	0,1	5,302842
2,810833	0,1	5,236413
2,812500	0,1	5,184396
2,814167	0,1	5,145711
2,815833	0,1	5,091450
2,817500	0,1	5,032597
2,819167	0,1	4,981595
2,820833	0,1	4,890786
2,822500	0,1	4,806706
2,824167	0,1	4,758048
2,825833	0,1	4,735920
2,827500	0,1	4,711504
2,829167	0,1	4,592919
2,830833	0,1	4,557386
2,832500	0,1	4,532094
2,834167	0,1	4,499310
2,835833	0,1	4,434201
2,837500	0,1	4,334663
2,839167	0,1	4,288428
2,840833	0,1	4,272912
2,842500	0,1	4,198160
2,844167	0,1	4,143155
2,845833	0,1	4,142856
2,847500	0,1	4,092221
2,849167	0,1	4,016996
2,850833	0,1	4,024884
2,852500	0,1	3,960500
2,854167	0,1	3,917676
2,855833	0,1	3,870501
2,857500	0,1	3,805954
2,859167	0,1	3,755411
2,860833	0,1	3,703350
2,862500	0,1	3,718683
2,864167	0,1	3,660760
2,865833	0,1	3,628344
2,867500	0,1	3,638921
2,869167	0,1	3,604480
2,870833	0,1	3,544416
2,872500	0,1	3,516354
2,874167	0,1	3,436095
2,875833	0,1	3,437763
2,877500	0,1	3,445478
2,879167	0,1	3,389814
2,880833	0,1	3,340608
2,882500	0,1	3,282528
2,884167	0,1	3,275174
2,885833	0,1	3,255417
2,887500	0,1	3,193151
2,889167	0,1	3,212013
2,890833	0,1	3,159858
2,892500	0,1	3,145360
2,894167	0,1	3,087768
2,895833	0,1	3,037807
2,897500	0,1	3,092822
2,899167	0,1	3,000382
2,900833	0,1	3,007903
2,902500	0,1	2,986212
2,904167	0,1	2,957287
2,905833	0,1	2,931666
2,907500	0,1	2,895489
2,909167	0,1	2,920249
2,910833	0,1	2,859106
2,912500	0,1	2,824728
2,914167	0,1	2,816662
2,915833	0,1	2,789329
2,917500	0,1	2,752083
2,919167	0,1	2,765442
2,920833	0,1	2,744053
2,922500	0,1	2,736440
2,924167	0,1	2,730628
2,925833	0,1	2,646782
2,927500	0,1	2,641730
2,929167	0,1	2,617356
2,930833	0,1	2,661008
2,932500	0,1	2,587304
2,934167	0,1	2,628389
2,935833	0,1	2,559476
2,937500	0,1	2,569281
2,939167	0,1	2,503526
2,940833	0,1	2,525602
2,942500	0,1	2,516500
2,944167	0,1	2,502368
2,945833	0,1	2,496057
2,947500	0,1	2,443796
2,949167	0,1	2,431373
2,950833	0,1	2,410727
2,952500	0,1	2,410076
2,954167	0,1	2,402411
2,955833	0,1	2,393156
2,957500	0,1	2,394661
2,959167	0,1	2,390146
2,960833	0,1	2,359825
2,962500	0,1	2,333514
2,964167	0,1	2,341464
2,965833	0,1	2,331788
2,967500	0,1	2,317813
2,969167	0,1	2,330490
2,970833	0,1	2,300825
2,972500	0,1	2,270435
2,974167	0,1	2,292427
2,975833	0,1	2,278242
2,977500	0,1	2,272651
2,979167	0,1	2,236676
2,980833	0,1	2,279090
2,982500	0,1	2,197914
2,984167	0,1	2,226413
2,985833	0,1	2,225416
2,987500	0,1	2,207431
2,989167	0,1	2,190658
2,990833	0,1	2,202121
2,992500	0,1	2,164508
2,994167	0,1	2,191509
2,995833	0,1	2,127180
2,997500	0,1	2,158615
2,999167	0,1	2,121444
3,000833	0,1	2,158828
3,002500	0,1	2,127821
3,004167	0,1	2,126236
3,005833	0,1	2,115630
3,007500	0,1	2,116921
3,009167	0,1	2,110618
3,010833	0,1	2,114266
3,012500	0,1	2,084391
3,014167	0,1	2,080013
3,015833	0,1	2,104304
3,017500	0,1	2,115909
3,019167	0,1	2,064121
3,020833	0,1	2,099575
3,022500	0,1	2,067414
3,024167	0,1	2,071711
3,025833	0,1	2,089401
3,027500	0,1	2,069203
3,029167	0,1	2,050221
3,030833	0,1	2,032738
3,032500	0,1	2,067049
3,034167	0,1	2,035607
3,035833	0,1	2,036535
3,037500	0,1	2,035888
3,039167	0,1	2,071774
3,040833	0,1	2,000877
3,042500	0,1	1,984459
3,044167	0,1	2,006577
3,045833	0,1	2,058811
3,047500	0,1	1,967207
3,049167	0,1	1,984521
3,050833	0,1	1,992477
3,052500	0,1	1,990324
3,054167	0,1	1,968836
3,055833	0,1	1,931521
3,057500	0,1	1,971270
3,059167	0,1	1,932173
3,060833	0,1	1,950291
3,062500	0,1	1,949210
3,064167	0,1	1,927880
3,065833	0,1	1,937464
3,067500	0,1	1,909400
3,069167	0,1	1,916347
3,070833	0,1	1,926576
3,072500	0,1	1,905531
3,074167	0,1	1,908025
3,075833	0,1	1,918485
3,077500	0,1	1,867432
3,079167	0,1	1,891914
3,080833	0,1	1,874808
3,082500	0,1	1,861755
3,084167	0,1	1,907230
3,085833	0,1	1,907885
3,087500	0,1	1,903299
3,089167	0,1	1,880898
3,090833	0,1	1,893702
3,092500	0,1	1,900569
3,094167	0,1	1,892278
3,095833	0,1	1,873589
3,097500	0,1	1,874229
3,099167	0,1	1,842720
3,100833	0,1	1,868781
3,102500	0,1	1,862414
3,104167	0,1	1,885105
3,105833	0,1	1,904372
3,107500	0,1	1,946195
3,109167	0,1	1,890636
3,110833	0,1	1,901445
3,112500	0,1	1,945848
3,114167	0,1	1,918639
3,115833	0,1	1,939114
3,117500	0,1	1,924445
3,119167	0,1	1,897005
3,120833	0,1	1,931651
3,122500	0,1	1,950635
3,124167	0,1	1,953377
3,125833	0,1	1,974346
3,127500	0,1	1,940697
3,129167	0,1	1,988241
3,130833	0,1	1,989189
3,132500	0,1	2,003933
3,134167	0,1	2,002724
3,135833	0,1	2,004869
3,137500	0,1	2,042320
3,139167	0,1	2,021708
3,140833	0,1	2,034880
3,142500	0,1	2,031878
3,144167	0,1	2,026865
3,145833	0,1	2,082228
3,147500	0,1	2,087541
3,149167	0,1	2,092128
3,150833	0,1	2,151661
3,152500	0,1	2,130612
3,154167	0,1	2,145005
3,155833	0,1	2,154395
3,157500	0,1	2,159983
3,159167	0,1	2,145585
3,160833	0,1	2,144933
3,162500	0,1	2,157473
3,164167	0,1	2,187211
3,165833	0,1	2,227700
3,167500	0,1	2,192244
3,169167	0,1	2,228705
3,170833	0,1	2,247987
3,172500	0,1	2,238174
3,174167	0,1	2,205071
3,175833	0,1	2,207569
3,177500	0,1	2,268046
3,179167	0,1	2,242050
3,180833	0,1	2,231365
3,182500	0,1	2,257806
3,184167	0,1	2,253153
3,185833	0,1	2,272860
3,187500	0,1	2,295725
3,189167	0,1	2,259685
3,190833	0,1	2,289844
3,192500	0,1	2,311778
3,194167	0,1	2,301037
3,195833	0,1	2,274590
3,197500	0,1	2,306117
3,199167	0,1	2,247361
3,200833	0,1	2,255588
3,202500	0,1	2,272215
3,204167	0,1	2,272720
3,205833	0,1	2,281321
3,207500	0,1	2,278384
3,209167	0,1	2,226359
3,210833	0,1	2,261460
3,212500	0,1	2,278810
3,214167	0,1	2,212027
3,215833	0,1	2,219249
3,217500	0,1	2,268193
3,219167	0,1	2,220553
3,220833	0,1	2,206999
3,222500	0,1	2,217242
3,224167	0,1	2,218822
3,225833	0,1	2,204063
3,227500	0,1	2,238452
3,229167	0,1	2,167744
3,230833	0,1	2,176611
3,232500	0,1	2,149240
3,234167	0,1	2,169439
3,235833	0,1	2,136631
3,237500	0,1	2,132755
3,239167	0,1	2,139705
3,240833	0,1	2,107897
3,242500	0,1	2,086257
3,244167	0,1	2,050579
3,245833	0,1	2,059891
3,247500	0,1	2,072639
3,249167	0,1	2,041056
3,250833	0,1	2,006383
3,252500	0,1	1,990120
3,254167	0,1	1,987897
3,255833	0,1	2,005228
3,257500	0,1	1,967487
3,259167	0,1	1,967764
3,260833	0,1	1,981879
3,262500	0,1	1,921015
3,264167	0,1	1,923643
3,265833	0,1	1,878947
3,267500	0,1	1,918987
3,269167	0,1	1,920860
3,270833	0,1	1,871952
3,272500	0,1	1,882830
3,274167	0,1	1,870444
3,275833	0,1	1,843735
3,277500	0,1	1,796115
3,279167	0,1	1,821961
3,280833	0,1	1,782084
3,282500	0,1	1,805416
3,284167	0,1	1,773566
3,285833	0,1	1,750873
3,287500	0,1	1,711933
3,289167	0,1	1,721068
3,290833	0,1	1,690866
3,292500	0,1	1,681371
3,294167	0,1	1,677124
3,295833	0,1	1,663242
3,297500	0,1	1,642861
3,299167	0,1	1,638634
3,300833	0,1	1,610942
3,302500	0,1	1,611731
3,304167	0,1	1,583372
3,305833	0,1	1,551868
3,307500	0,1	1,579933
3,309167	0,1	1,582721
3,310833	0,1	1,549376
3,312500	0,1	1,524845
3,314167	0,1	1,515456
3,315833	0,1	1,501578
3,317500	0,1	1,490767
3,319167	0,1	1,470889
3,320833	0,1	1,492705
3,322500	0,1	1,446314
3,324167	0,1	1,439185
3,325833	0,1	1,474944
3,327500	0,1	1,435041
3,329167	0,1	1,459169
3,330833	0,1	1,428921
3,332500	0,1	1,418733
3,334167	0,1	1,418935
3,335833	0,1	1,402353
3,337500	0,1	1,391321
3,339167	0,1	1,383172
3,340833	0,1	1,386592
3,342500	0,1	1,384526
3,344167	0,1	1,346128
3,345833	0,1	1,357704
3,347500	0,1	1,377455
3,349167	0,1	1,358882
3,350833	0,1	1,358707
3,352500	0,1	1,330438
3,354167	0,1	1,331754
3,355833	0,1	1,332668
3,357500	0,1	1,347133
3,359167	0,1	1,313214
3,360833	0,1	1,292765
3,362500	0,1	1,330172
3,364167	0,1	1,245470
3,365833	0,1	1,264255
3,367500	0,1	1,271472
3,369167	0,1	1,285524
3,370833	0,1	1,247984
3,372500	0,1	1,242117
3,374167	0,1	1,276354
3,375833	0,1	1,250241
3,377500	0,1	1,251328
3,379167	0,1	1,269336
3,380833	0,1	1,261687
3,382500	0,1	1,262395
3,384167	0,1	1,290314
3,385833	0,1	1,225466
3,387500	0,1	1,242045
3,389167	0,1	1,203779
3,390833	0,1	1,203833
3,392500	0,1	1,185845
3,394167	0,1	1,239281
3,395833	0,1	1,269093
3,397500	0,1	1,237063
3,399167	0,1	1,188337
3,400833	0,1	1,231723
3,402500	0,1	1,216886
3,404167	0,1	1,236627
3,405833	0,1	1,229313
3,407500	0,1	1,211162
3,409167	0,1	1,191503
3,410833	0,1	1,206363
3,412500	0,1	1,202525
3,414167	0,1	1,201862
3,415833	0,1	1,193029
3,417500	0,1	1,212749
3,419167	0,1	1,223423
3,420833	0,1	1,168432
3,422500	0,1	1,167400
3,424167	0,1	1,199124
3,425833	0,1	1,202638
3,427500	0,1	1,163991
3,429167	0,1	1,215162
3,430833	0,1	1,201750
3,432500	0,1	1,206607
3,434167	0,1	1,174109
3,435833	0,1	1,182774
3,437500	0,1	1,174989
3,439167	0,1	1,189497
3,440833	0,1	1,173927
3,442500	0,1	1,150388
3,444167	0,1	1,139003
3,445833	0,1	1,209519
3,447500	0,1	1,201194
3,449167	0,1	1,177815
3,450833	0,1	1,137080
3,452500	0,1	1,172605
3,454167	0,1	1,166047
3,455833	0,1	1,149033
3,457500	0,1	1,165532
3,459167	0,1	1,213299
3,460833	0,1	1,169454
3,462500	0,1	1,125366
3,464167	0,1	1,164705
3,465833	0,1	1,184147
3,467500	0,1	1,176920
3,469167	0,1	1,191670
3,470833	0,1	1,203763
3,472500	0,1	1,168828
3,474167	0,1	1,188053
3,475833	0,1	1,166783
3,477500	0,1	1,173832
3,479167	0,1	1,161144
3,480833	0,1	1,182659
3,482500	0,1	1,189365
3,484167	0,1	1,210777
3,485833	0,1	1,206300
3,487500	0,1	1,176462
3,489167	0,1	1,206954
3,490833	0,1	1,257349
3,492500	0,1	1,207799
3,494167	0,1	1,182804
3,495833	0,1	1,184330
3,497500	0,1	1,175413
3,499167	0,1	1,213744
3,500833	0,1	1,243551
3,502500	0,1	1,195505
3,504167	0,1	1,208870
3,505833	0,1	1,217170
3,507500	0,1	1,219456
3,509167	0,1	1,219591
3,510833	0,1	1,229599
3,512500	0,1	1,191157
3,514167	0,1	1,268506
3,515833	0,1	1,234642
3,517500	0,1	1,229066
3,519167	0,1	1,228641
3,520833	0,1	1,267207
3,522500	0,1	1,236639
3,524167	0,1	1,257511
3,525833	0,1	1,252810
3,527500	0,1	1,283522
3,529167	0,1	1,237421
3,530833	0,1	1,273088
3,532500	0,1	1,246118
3,534167	0,1	1,227827
3,535833	0,1	1,252025
3,537500	0,1	1,242676
3,539167	0,1	1,282098
3,540833	0,1	1,258586
3,542500	0,1	1,241879
3,544167	0,1	1,253786
3,545833	0,1	1,223191
3,547500	0,1	1,260043
3,549167	0,1	1,256498
3,550833	0,1	1,262797
3,552500	0,1	1,243783
3,554167	0,1	1,245422
3,555833	0,1	1,203601
3,557500	0,1	1,265780
3,559167	0,1	1,232760
3,560833	0,1	1,243220
3,562500	0,1	1,244489
3,564167	0,1	1,278343
3,565833	0,1	1,256991
3,567500	0,1	1,247086
3,569167	0,1	1,246420
3,570833	0,1	1,208038
3,572500	0,1	1,223738
3,574167	0,1	1,229505
3,575833	0,1	1,259948
3,577500	0,1	1,257227
3,579167	0,1	1,241296
3,580833	0,1	1,204820
3,582500	0,1	1,198578
3,584167	0,1	1,218388
3,585833	0,1	1,216240
3,587500	0,1	1,186402
3,589167	0,1	1,213613
3,590833	0,1	1,204765
3,592500	0,1	1,200795
3,594167	0,1	1,172621
3,595833	0,1	1,172770
3,597500	0,1	1,188143
3,599167	0,1	1,212219
3,600833	0,1	1,182939
3,602500	0,1	1,144334
3,604167	0,1	1,199561
3,605833	0,1	1,186373
3,607500	0,1	1,176876
3,609167	0,1	1,153759
3,610833	0,1	1,164002
3,612500	0,1	1,131308
3,614167	0,1	1,114065
3,615833	0,1	1,133515
3,617500	0,1	1,148448
3,619167	0,1	1,131217
3,620833	0,1	1,165659
3,622500	0,1	1,164559
3,624167	0,1	1,137520
3,625833	0,1	1,134118
3,627500	0,1	1,135537
3,629167	0,1	1,093283
3,630833	0,1	1,122728
3,632500	0,1	1,107210
3,634167	0,1	1,105675
3,635833	0,1	1,115922
3,637500	0,1	1,077265
3,639167	0,1	1,109506
3,640833	0,1	1,097070
3,642500	0,1	1,086066
3,644167	0,1	1,087706
3,645833	0,1	1,085155
3,647500	0,1	1,082271
3,649167	0,1	1,053173
3,650833	0,1	1,075499
3,652500	0,1	1,055167
3,654167	0,1	1,021076
3,655833	0,1	1,030624
3,657500	0,1	1,052738
3,659167	0,1	1,068535
3,660833	0,1	1,079407
3,662500	0,1	1,073044
3,664167	0,1	1,069694
3,665833	0,1	1,077964
3,667500	0,1	1,032945
3,669167	0,1	1,049236
3,670833	0,1	1,052190
3,672500	0,1	1,081619
3,674167	0,1	1,053772
3,675833	0,1	1,021274
3,677500	0,1	1,040185
3,679167	0,1	1,007458
3,680833	0,1	1,015674
3,682500	0,1	1,003637
3,684167	0,1	1,014831
3,685833	0,1	1,006809
3,687500	0,1	0,998803
3,689167	0,1	1,010021
3,690833	0,1	0,970329
3,692500	0,1	1,019174
3,694167	0,1	1,001749
3,695833	0,1	0,975182
3,697500	0,1	1,004756
3,699167	0,1	1,039695
3,700833	0,1	1,026643
3,702500	0,1	1,004596
3,704167	0,1	1,014170
3,705833	0,1	0,983148
3,707500	0,1	0,958393
3,709167	0,1	0,952665
3,710833	0,1	0,971180
3,712500	0,1	0,955043
3,714167	0,1	0,987750
3,715833	0,1	0,978172
3,717500	0,1	0,980254
3,719167	0,1	0,969481
3,720833	0,1	0,964688
3,722500	0,1	0,967812
3,724167	0,1	0,982026
3,725833	0,1	0,955847
3,727500	0,1	0,989433
3,729167	0,1	1,023501
3,730833	0,1	0,983638
3,732500	0,1	0,977354
3,734167	0,1	0,978417
3,735833	0,1	1,011368
3,737500	0,1	0,967467
3,739167	0,1	0,975734
3,740833	0,1	0,945399
3,742500	0,1	0,975729
3,744167	0,1	0,977352
3,745833	0,1	0,957682
3,747500	0,1	0,992450
3,749167	0,1	0,961215
3,750833	0,1	0,993754
3,752500	0,1	0,929212
3,754167	0,1	0,963458
3,755833	0,1	1,011077
3,757500	0,1	0,977558
3,759167	0,1	0,943001
3,760833	0,1	0,975375
3,762500	0,1	0,951607
3,764167	0,1	0,943060
3,765833	0,1	0,963593
3,767500	0,1	0,982140
3,769167	0,1	0,994758
3,770833	0,1	0,981900
3,772500	0,1	0,996777
3,774167	0,1	0,998181
3,775833	0,1	0,966073
3,777500	0,1	0,982520
3,779167	0,1	0,983249
3,780833	0,1	0,947016
3,782500	0,1	0,975392
3,784167	0,1	0,963050
3,785833	0,1	0,991381
3,787500	0,1	0,950391
3,789167	0,1	0,957702
3,790833	0,1	0,985971
3,792500	0,1	0,958064
3,794167	0,1	1,014424
3,795833	0,1	0,994921
3,797500	0,1	0,978949
3,799167	0,1	0,998171
3,800833	0,1	0,976823
3,802500	0,1	0,998303
3,804167	0,1	0,995982
3,805833	0,1	0,999461
3,807500	0,1	0,998736
3,809167	0,1	0,990129
3,810833	0,1	0,985378
3,812500	0,1	0,975623
3,814167	0,1	1,008284
3,815833	0,1	0,985983
3,817500	0,1	1,001058
3,819167	0,1	0,982298
3,820833	0,1	1,005335
3,822500	0,1	0,990550
3,824167	0,1	0,966885
3,825833	0,1	0,978101
3,827500	0,1	0,960057
3,829167	0,1	0,965971
3,830833	0,1	0,935767
3,832500	0,1	0,974615
3,834167	0,1	0,956659
3,835833	0,1	0,995352
3,837500	0,1	0,981215
3,839167	0,1	0,967328
3,840833	0,1	0,953113
3,842500	0,1	0,921604
3,844167	0,1	0,965633
3,845833	0,1	0,954952
3,847500	0,1	0,915084
3,849167	0,1	0,942301
3,850833	0,1	0,963553
3,852500	0,1	0,921029
3,854167	0,1	0,950034
3,855833	0,1	0,905688
3,857500	0,1	0,937116
3,859167	0,1	0,917034
3,860833	0,1	0,935097
3,862500	0,1	0,926363
3,864167	0,1	0,915614
3,865833	0,1	0,914169
3,867500	0,1	0,951733
3,869167	0,1	0,968056
3,870833	0,1	0,926332
3,872500	0,1	0,874664
3,874167	0,1	0,916600
3,875833	0,1	0,906939
3,877500	0,1	0,910952
3,879167	0,1	0,904590
3,880833	0,1	0,925187
3,882500	0,1	0,871424
3,884167	0,1	0,856466
3,885833	0,1	0,877063
3,887500	0,1	0,881278
3,889167	0,1	0,861378
3,890833	0,1	0,905024
3,892500	0,1	0,878741
3,894167	0,1	0,882814
3,895833	0,1	0,856076
3,897500	0,1	0,877247
3,899167	0,1	0,868329
3,900833	0,1	0,858041
3,902500	0,1	0,851479
3,904167	0,1	0,869281
3,905833	0,1	0,852179
3,907500	0,1	0,821842
3,909167	0,1	0,854281
3,910833	0,1	0,845104
3,912500	0,1	0,825119
3,914167	0,1	0,851628
3,915833	0,1	0,845587
3,917500	0,1	0,823899
3,919167	0,1	0,823473
3,920833	0,1	0,813217
3,922500	0,1	0,768509
3,924167	0,1	0,805266
3,925833	0,1	0,844737
3,927500	0,1	0,819902
3,929167	0,1	0,771660
3,930833	0,1	0,778978
3,932500	0,1	0,803405
3,934167	0,1	0,794832
3,935833	0,1	0,789138
3,937500	0,1	0,763139
3,939167	0,1	0,773482
3,940833	0,1	0,785761
3,942500	0,1	0,795210
3,944167	0,1	0,785151
3,945833	0,1	0,784544
3,947500	0,1	0,732771
3,949167	0,1	0,829190
3,950833	0,1	0,786249
3,952500	0,1	0,778312
3,954167	0,1	0,755937
3,955833	0,1	0,773963
3,957500	0,1	0,790931
3,959167	0,1	0,729077
3,960833	0,1	0,764923
3,962500	0,1	0,754741
3,964167	0,1	0,742852
3,965833	0,1	0,780704
3,967500	0,1	0,727152
3,969167	0,1	0,713861
3,970833	0,1	0,770414
3,972500	0,1	0,727274
3,974167	0,1	0,735581
3,975833	0,1	0,753708
3,977500	0,1	0,743748
3,979167	0,1	0,741984
3,980833	0,1	0,742271
3,982500	0,1	0,700340
3,984167	0,1	0,725842
3,985833	0,1	0,731821
3,987500	0,1	0,747534
3,989167	0,1	0,709398
3,990833	0,1	0,682436
3,992500	0,1	0,747911
3,994167	0,1	0,728937
3,995833	0,1	0,733848
3,997500	0,1	0,730701
3,999167	0,1	0,734043
4,000833	0,1	0,718268
4,002500	0,1	0,723081
4,004167	0,1	0,734230
4,005833	0,1	0,748019
4,007500	0,1	0,729543
4,009167	0,1	0,735776
4,010833	0,1	0,730831
4,012500	0,1	0,718166
4,014167	0,1	0,734843
4,015833	0,1	0,750467
4,017500	0,1	0,704901
4,019167	0,1	0,719704
4,020833	0,1	0,714955
4,022500	0,1	0,713922
4,024167	0,1	0,727477
4,025833	0,1	0,742268
4,027500	0,1	0,704256
4,029167	0,1	0,706239
4,030833	0,1	0,723850
4,032500	0,1	0,794198
4,034167	0,1	0,791356
4,035833	0,1	0,765038
4,037500	0,1	0,714932
4,039167	0,1	0,742011
4,040833	0,1	0,738480
4,042500	0,1	0,760331
4,044167	0,1	0,750443
4,045833	0,1	0,728360
4,047500	0,1	0,753259
4,049167	0,1	0,781705
4,050833	0,1	0,788456
4,052500	0,1	0,742189
4,054167	0,1	0,766629
4,055833	0,1	0,702626
4,057500	0,1	0,742747
4,059167	0,1	0,802623
4,060833	0,1	0,790203
4,062500	0,1	0,788654
4,064167	0,1	0,755584
4,065833	0,1	0,802143
4,067500	0,1	0,771598
4,069167	0,1	0,809831
4,070833	0,1	0,806209
4,072500	0,1	0,802025
4,074167	0,1	0,817161
4,075833	0,1	0,804860
4,077500	0,1	0,796183
4,079167	0,1	0,835709
4,080833	0,1	0,845202
4,082500	0,1	0,844851
4,084167	0,1	0,847553
4,085833	0,1	0,851371
4,087500	0,1	0,868087
4,089167	0,1	0,836826
4,090833	0,1	0,871559
4,092500	0,1	0,847167
4,094167	0,1	0,918128
4,095833	0,1	0,890669
4,097500	0,1	0,896043
4,099167	0,1	0,922679
4,100833	0,1	0,905523
4,102500	0,1	0,914810
4,104167	0,1	0,915140
4,105833	0,1	0,912016
4,107500	0,1	0,914168
4,109167	0,1	0,947182
4,110833	0,1	0,957346
4,112500	0,1	0,939674
4,114167	0,1	0,906525
4,115833	0,1	1,006140
4,117500	0,1	0,963147
4,119167	0,1	0,961959
4,120833	0,1	0,978766
4,122500	0,1	0,998128
4,124167	0,1	0,986624
4,125833	0,1	0,989836
4,127500	0,1	1,025562
4,129167	0,1	1,012132
4,130833	0,1	0,991722
4,132500	0,1	1,018445
4,134167	0,1	1,065598
4,135833	0,1	1,059024
4,137500	0,1	1,038284
4,139167	0,1	1,079110
4,140833	0,1	1,055877
4,142500	0,1	1,055449
4,144167	0,1	1,090758
4,145833	0,1	1,048913
4,147500	0,1	1,088316
4,149167	0,1	1,137745
4,150833	0,1	1,118880
4,152500	0,1	1,141875
4,154167	0,1	1,129085
4,155833	0,1	1,132252
4,157500	0,1	1,154058
4,159167	0,1	1,131728
4,160833	0,1	1,081950
4,162500	0,1	1,143933
4,164167	0,1	1,164687
4,165833	0,1	1,136633
4,167500	0,1	1,175555
4,169167	0,1	1,144532
4,170833	0,1	1,145121
4,172500	0,1	1,158301
4,174167	0,1	1,128379
4,175833	0,1	1,147804
4,177500	0,1	1,163691
4,179167	0,1	1,166889
4,180833	0,1	1,165559
4,182500	0,1	1,176227
4,184167	0,1	1,195864
4,185833	0,1	1,146734
4,187500	0,1	1,184920
4,189167	0,1	1,193379
4,190833	0,1	1,167628
4,192500	0,1	1,168552
4,194167	0,1	1,195398
4,195833	0,1	1,171466
4,197500	0,1	1,181245
4,199167	0,1	1,199458
4,200833	0,1	1,212884
4,202500	0,1	1,184493
4,204167	0,1	1,211151
4,205833	0,1	1,198755
4,207500	0,1	1,183646
4,209167	0,1	1,178939
4,210833	0,1	1,219152
4,212500	0,1	1,161422
4,214167	0,1	1,173965
4,215833	0,1	1,161324
4,217500	0,1	1,160678
4,219167	0,1	1,139582
4,220833	0,1	1,145877
4,222500	0,1	1,136649
4,224167	0,1	1,160629
4,225833	0,1	1,151958
4,227500	0,1	1,180218
4,229167	0,1	1,126942
4,230833	0,1	1,133295
4,232500	0,1	1,127553
4,234167	0,1	1,099493
4,235833	0,1	1,130072
4,237500	0,1	1,147161
4,239167	0,1	1,109167
4,240833	0,1	1,133957
4,242500	0,1	1,127420
4,244167	0,1	1,100891
4,245833	0,1	1,127279
4,247500	0,1	1,060745
4,249167	0,1	1,077762
4,250833	0,1	1,123081
4,252500	0,1	1,121805
4,254167	0,1	1,084342
4,255833	0,1	1,061534
4,257500	0,1	1,089762
4,259167	0,1	1,082229
4,260833	0,1	1,045966
4,262500	0,1	1,061724
4,264167	0,1	1,016599
4,265833	0,1	1,078817
4,267500	0,1	1,049294
4,269167	0,1	1,078137
4,270833	0,1	1,075638
4,272500	0,1	0,995226
4,274167	0,1	1,007910
4,275833	0,1	1,016075
4,277500	0,1	1,019384
4,279167	0,1	0,984857
4,280833	0,1	0,989284
4,282500	0,1	0,994430
4,284167	0,1	0,976202
4,285833	0,1	0,981582
4,287500	0,1	0,941189
4,289167	0,1	0,983527
4,290833	0,1	0,986052
4,292500	0,1	0,985186
4,294167	0,1	0,957447
4,295833	0,1	0,949148
4,297500	0,1	0,909414
4,299167	0,1	0,937981
4,300833	0,1	0,941203
4,302500	0,1	0,950717
4,304167	0,1	0,909964
4,305833	0,1	0,919823
4,307500	0,1	0,897717
4,309167	0,1	0,897055
4,310833	0,1	0,887961
4,312500	0,1	0,867546
4,314167	0,1	0,859799
4,315833	0,1	0,878349
4,317500	0,1	0,899529
4,319167	0,1	0,852288
4,320833	0,1	0,839133
4,322500	0,1	0,841058
4,324167	0,1	0,863322
4,325833	0,1	0,909131
4,327500	0,1	0,857527
4,329167	0,1	0,845839
4,330833	0,1	0,822734
4,332500	0,1	0,845133
4,334167	0,1	0,799434
4,335833	0,1	0,838150
4,337500	0,1	0,824175
4,339167	0,1	0,790590
4,340833	0,1	0,832418
4,342500	0,1	0,792716
4,344167	0,1	0,792641
4,345833	0,1	0,801184
4,347500	0,1	0,805564
4,349167	0,1	0,804270
4,350833	0,1	0,805330
4,352500	0,1	0,791545
4,354167	0,1	0,805206
4,355833	0,1	0,799323
4,357500	0,1	0,779788
4,359167	0,1	0,748160
4,360833	0,1	0,787646
4,362500	0,1	0,789909
4,364167	0,1	0,738139
4,365833	0,1	0,735649
4,367500	0,1	0,764252
4,369167	0,1	0,742502
4,370833	0,1	0,737868
4,372500	0,1	0,755760
4,374167	0,1	0,750277
4,375833	0,1	0,764538
4,377500	0,1	0,747131
4,379167	0,1	0,744973
4,380833	0,1	0,709592
4,382500	0,1	0,736899
4,384167	0,1	0,771034
4,385833	0,1	0,723063
4,387500	0,1	0,725687
4,389167	0,1	0,748954
4,390833	0,1	0,719709
4,392500	0,1	0,717751
4,394167	0,1	0,721505
4,395833	0,1	0,729796
4,397500	0,1	0,719233
4,399167	0,1	0,709461
4,400833	0,1	0,734227
4,402500	0,1	0,740885
4,404167	0,1	0,703646
4,405833	0,1	0,719185
4,407500	0,1	0,701390
4,409167	0,1	0,693290
4,410833	0,1	0,674559
4,412500	0,1	0,677832
4,414167	0,1	0,673461
4,415833	0,1	0,671855
4,417500	0,1	0,718027
4,419167	0,1	0,687192
4,420833	0,1	0,706523
4,422500	0,1	0,727540
4,424167	0,1	0,698534
4,425833	0,1	0,702929
4,427500	0,1	0,670929
4,429167	0,1	0,697494
4,430833	0,1	0,671764
4,432500	0,1	0,691869
4,434167	0,1	0,681337
4,435833	0,1	0,667165
4,437500	0,1	0,669151
4,439167	0,1	0,698968
4,440833	0,1	0,648215
4,442500	0,1	0,636475
4,444167	0,1	0,641067
4,445833	0,1	0,664808
4,447500	0,1	0,680651
4,449167	0,1	0,633204
4,450833	0,1	0,669853
4,452500	0,1	0,655626
4,454167	0,1	0,635674
4,455833	0,1	0,640070
4,457500	0,1	0,636409
4,459167	0,1	0,634930
4,460833	0,1	0,645116
4,462500	0,1	0,637887
4,464167	0,1	0,636729
4,465833	0,1	0,632360
4,467500	0,1	0,642672
4,469167	0,1	0,614468
4,470833	0,1	0,635245
4,472500	0,1	0,617709
4,474167	0,1	0,611602
4,475833	0,1	0,598913
4,477500	0,1	0,630005
4,479167	0,1	0,638752
4,480833	0,1	0,628505
4,482500	0,1	0,604699
4,484167	0,1	0,584808
4,485833	0,1	0,624058
4,487500	0,1	0,637237
4,489167	0,1	0,581346
4,490833	0,1	0,594729
4,492500	0,1	0,605300
4,494167	0,1	0,588213
4,495833	0,1	0,554031
4,497500	0,1	0,591896
4,499167	0,1	0,590556
4,500833	0,1	0,584419
4,502500	0,1	0,599677
4,504167	0,1	0,568072
4,505833	0,1	0,559970
4,507500	0,1	0,553768
4,509167	0,1	0,563499
4,510833	0,1	0,573203
4,512500	0,1	0,509125
4,514167	0,1	0,554689
4,515833	0,1	0,562987
4,517500	0,1	0,541691
4,519167	0,1	0,572715
4,520833	0,1	0,573720
4,522500	0,1	0,550463
4,524167	0,1	0,546635
4,525833	0,1	0,520617
4,527500	0,1	0,517785
4,529167	0,1	0,534806
4,530833	0,1	0,546858
4,532500	0,1	0,557075
4,534167	0,1	0,533917
4,535833	0,1	0,520904
4,537500	0,1	0,526554
4,539167	0,1	0,527907
4,540833	0,1	0,488368
4,542500	0,1	0,505094
4,544167	0,1	0,546496
4,545833	0,1	0,527587
4,547500	0,1	0,557679
4,549167	0,1	0,522645
4,550833	0,1	0,521963
4,552500	0,1	0,496496
4,554167	0,1	0,482388
4,555833	0,1	0,522787
4,557500	0,1	0,478444
4,559167	0,1	0,535569
4,560833	0,1	0,514034
4,562500	0,1	0,487111
4,564167	0,1	0,513571
4,565833	0,1	0,484163
4,567500	0,1	0,458842
4,569167	0,1	0,454149
4,570833	0,1	0,459771
4,572500	0,1	0,468216
4,574167	0,1	0,471202
4,575833	0,1	0,490061
4,577500	0,1	0,461382
4,579167	0,1	0,494810
4,580833	0,1	0,482584
4,582500	0,1	0,465912
4,584167	0,1	0,471080
4,585833	0,1	0,454025
4,587500	0,1	0,470916
4,589167	0,1	0,466615
4,590833	0,1	0,441630
4,592500	0,1	0,487449
4,594167	0,1	0,433032
4,595833	0,1	0,487483
4,597500	0,1	0,452135
4,599167	0,1	0,442748
4,600833	0,1	0,453960
4,602500	0,1	0,457365
4,604167	0,1	0,415558
4,605833	0,1	0,424214
4,607500	0,1	0,407546
4,609167	0,1	0,445439
4,610833	0,1	0,430289
4,612500	0,1	0,392552
4,614167	0,1	0,443024
4,615833	0,1	0,412434
4,617500	0,1	0,403119
4,619167	0,1	0,432948
4,620833	0,1	0,411121
4,622500	0,1	0,438088
4,624167	0,1	0,415808
4,625833	0,1	0,385266
4,627500	0,1	0,389077
4,629167	0,1	0,406903
4,630833	0,1	0,394989
4,632500	0,1	0,430920
4,634167	0,1	0,422579
4,635833	0,1	0,430354
4,637500	0,1	0,421612
4,639167	0,1	0,388288
4,640833	0,1	0,424559
4,642500	0,1	0,404435
4,644167	0,1	0,361606
4,645833	0,1	0,371797
4,647500	0,1	0,389814
4,649167	0,1	0,419974
4,650833	0,1	0,402098
4,652500	0,1	0,378200
4,654167	0,1	0,365025
4,655833	0,1	0,373018
4,657500	0,1	0,390972
4,659167	0,1	0,382818
4,660833	0,1	0,426619
4,662500	0,1	0,370563
4,664167	0,1	0,394862
4,665833	0,1	0,371776
4,667500	0,1	0,373798
4,669167	0,1	0,364999
4,670833	0,1	0,381819
4,672500	0,1	0,376559
4,674167	0,1	0,365578
4,675833	0,1	0,331924
4,677500	0,1	0,351730
4,679167	0,1	0,367977
4,680833	0,1	0,366633
4,682500	0,1	0,355780
4,684167	0,1	0,370774
4,685833	0,1	0,366823
4,687500	0,1	0,384840
4,689167	0,1	0,393065
4,690833	0,1	0,331513
4,692500	0,1	0,326527
4,694167	0,1	0,342251
4,695833	0,1	0,331059
4,697500	0,1	0,353266
4,699167	0,1	0,294202
4,700833	0,1	0,334085
4,702500	0,1	0,308196
4,704167	0,1	0,289157
4,705833	0,1	0,319001
4,707500	0,1	0,369000
4,709167	0,1	0,304478
4,710833	0,1	0,322857
4,712500	0,1	0,314161
4,714167	0,1	0,357315
4,715833	0,1	0,294758
4,717500	0,1	0,298583
4,719167	0,1	0,344280
4,720833	0,1	0,352023
4,722500	0,1	0,325409
4,724167	0,1	0,299911
4,725833	0,1	0,306742
4,727500	0,1	0,300800
4,729167	0,1	0,323798
4,730833	0,1	0,332792
4,732500	0,1	0,319110
4,734167	0,1	0,336380
4,735833	0,1	0,346432
4,737500	0,1	0,331993
4,739167	0,1	0,311859
4,740833	0,1	0,345883
4,742500	0,1	0,348133
4,744167	0,1	0,300495
4,745833	0,1	0,331203
4,747500	0,1	0,321036
4,749167	0,1	0,295001
4,750833	0,1	0,268925
4,752500	0,1	0,281090
4,754167	0,1	0,307100
4,755833	0,1	0,287331
4,757500	0,1	0,275568
4,759167	0,1	0,320633
4,760833	0,1	0,255324
4,762500	0,1	0,299516
4,764167	0,1	0,268549
4,765833	0,1	0,283721
4,767500	0,1	0,284568
4,769167	0,1	0,305805
4,770833	0,1	0,275033
4,772500	0,1	0,269813
4,774167	0,1	0,300629
4,775833	0,1	0,268572
4,777500	0,1	0,293540
4,779167	0,1	0,262918
4,780833	0,1	0,252351
4,782500	0,1	0,273243
4,784167	0,1	0,256847
4,785833	0,1	0,266348
4,787500	0,1	0,291388
4,789167	0,1	0,264530
4,790833	0,1	0,290103
4,792500	0,1	0,295345
4,794167	0,1	0,264494
4,795833	0,1	0,247504
4,797500	0,1	0,333127
4,799167	0,1	0,248015
4,800833	0,1	0,285831
4,802500	0,1	0,274410
4,804167	0,1	0,281406
4,805833	0,1	0,255956
4,807500	0,1	0,255017
4,809167	0,1	0,282043
4,810833	0,1	0,256661
4,812500	0,1	0,313830
4,814167	0,1	0,223476
4,815833	0,1	0,288180
4,817500	0,1	0,316532
4,819167	0,1	0,237950
4,820833	0,1	0,263875
4,822500	0,1	0,242158
4,824167	0,1	0,262781
4,825833	0,1	0,239387
4,827500	0,1	0,269528
4,829167	0,1	0,286415
4,830833	0,1	0,258009
4,832500	0,1	0,263152
4,834167	0,1	0,250879
4,835833	0,1	0,247250
4,837500	0,1	0,236086
4,839167	0,1	0,241532
4,840833	0,1	0,284257
4,842500	0,1	0,258525
4,844167	0,1	0,274731
4,845833	0,1	0,239756
4,847500	0,1	0,262340
4,849167	0,1	0,259387
4,850833	0,1	0,249366
4,852500	0,1	0,219280
4,854167	0,1	0,239163
4,855833	0,1	0,224701
4,857500	0,1	0,277909
4,859167	0,1	0,235436
4,860833	0,1	0,284104
4,862500	0,1	0,263221
4,864167	0,1	0,216215
4,865833	0,1	0,237801
4,867500	0,1	0,230910
4,869167	0,1	0,270356
4,870833	0,1	0,249472
4,872500	0,1	0,272514
4,874167	0,1	0,248000
4,875833	0,1	0,247703
4,877500	0,1	0,246028
4,879167	0,1	0,259523
4,880833	0,1	0,182858
4,882500	0,1	0,245990
4,884167	0,1	0,239445
4,885833	0,1	0,292288
4,887500	0,1	0,262025
4,889167	0,1	0,263983
4,890833	0,1	0,220004
4,892500	0,1	0,243368
4,894167	0,1	0,226065
4,895833	0,1	0,273767
4,897500	0,1	0,243883
4,899167	0,1	0,250912
4,900833	0,1	0,274087
4,902500	0,1	0,257943
4,904167	0,1	0,249694
4,905833	0,1	0,248785
4,907500	0,1	0,267378
4,909167	0,1	0,251560
4,910833	0,1	0,220415
4,912500	0,1	0,239565
4,914167	0,1	0,235113
4,915833	0,1	0,228896
4,917500	0,1	0,251778
4,919167	0,1	0,240894
4,920833	0,1	0,204139
4,922500	0,1	0,235684
4,924167	0,1	0,229147
4,925833	0,1	0,248152
4,927500	0,1	0,230810
4,929167	0,1	0,251967
4,930833	0,1	0,253607
4,932500	0,1	0,270613
4,934167	0,1	0,230402
4,935833	0,1	0,269902
4,937500	0,1	0,252328
4,939167	0,1	0,299704
4,940833	0,1	0,227074
4,942500	0,1	0,272572
4,944167	0,1	0,265709
4,945833	0,1	0,209468
4,947500	0,1	0,220217
4,949167	0,1	0,276850
4,950833	0,1	0,256472
4,952500	0,1	0,262345
4,954167	0,1	0,233171
4,955833	0,1	0,221077
4,957500	0,1	0,251799
4,959167	0,1	0,257773
4,960833	0,1	0,225614
4,962500	0,1	0,264023
4,964167	0,1	0,262763
4,965833	0,1	0,248890
4,967500	0,1	0,256340
4,969167	0,1	0,234726
4,970833	0,1	0,266168
4,972500	0,1	0,228287
4,974167	0,1	0,297584
4,975833	0,1	0,249995
4,977500	0,1	0,253116
4,979167	0,1	0,233795
4,980833	0,1	0,255805
4,982500	0,1	0,282057
4,984167	0,1	0,261834
4,985833	0,1	0,252451
4,987500	0,1	0,269808
4,989167	0,1	0,197977
4,990833	0,1	0,276768
4,992500	0,1	0,245418
4,994167	0,1	0,242655
4,995833	0,1	0,272927
4,997500	0,1	0,255601
4,999167	0,1	0,254792
5,000833	0,1	0,294545
5,002500	0,1	0,289505
5,004167	0,1	0,265588
5,005833	0,1	0,266136
5,007500	0,1	0,263077
5,009167	0,1	0,285874
5,010833	0,1	0,266517
5,012500	0,1	0,289498
5,014167	0,1	0,281184
5,015833	0,1	0,265937
5,017500	0,1	0,243490
5,019167	0,1	0,287153
5,020833	0,1	0,284367
5,022500	0,1	0,302733
5,024167	0,1	0,271971
5,025833	0,1	0,284969
5,027500	0,1	0,297108
5,029167	0,1	0,335669
5,030833	0,1	0,271728
5,032500	0,1	0,269889
5,034167	0,1	0,254984
5,035833	0,1	0,292543
5,037500	0,1	0,279775
5,039167	0,1	0,271010
5,040833	0,1	0,330301
5,042500	0,1	0,293455
5,044167	0,1	0,273832
5,045833	0,1	0,317812
5,047500	0,1	0,301421
5,049167	0,1	0,305821
5,050833	0,1	0,293234
5,052500	0,1	0,285490
5,054167	0,1	0,273870
5,055833	0,1	0,298137
5,057500	0,1	0,350791
5,059167	0,1	0,306754
5,060833	0,1	0,306075
5,062500	0,1	0,312936
5,064167	0,1	0,302602
5,065833	0,1	0,358333
5,067500	0,1	0,315201
5,069167	0,1	0,305888
5,070833	0,1	0,299932
5,072500	0,1	0,307321
5,074167	0,1	0,363218
5,075833	0,1	0,326180
5,077500	0,1	0,319877
5,079167	0,1	0,365628
5,080833	0,1	0,340208
5,082500	0,1	0,320522
5,084167	0,1	0,312210
5,085833	0,1	0,338216
5,087500	0,1	0,332205
5,089167	0,1	0,351884
5,090833	0,1	0,357324
5,092500	0,1	0,370132
5,094167	0,1	0,369465
5,095833	0,1	0,379802
5,097500	0,1	0,345348
5,099167	0,1	0,351470
5,100833	0,1	0,374752
5,102500	0,1	0,370162
5,104167	0,1	0,390718
5,105833	0,1	0,339761
5,107500	0,1	0,338058
5,109167	0,1	0,348169
5,110833	0,1	0,346849
5,112500	0,1	0,358192
5,114167	0,1	0,347016
5,115833	0,1	0,356519
5,117500	0,1	0,401695
5,119167	0,1	0,348564
5,120833	0,1	0,349645
5,122500	0,1	0,360208
5,124167	0,1	0,345316
5,125833	0,1	0,377417
5,127500	0,1	0,368362
5,129167	0,1	0,369527
5,130833	0,1	0,378808
5,132500	0,1	0,357810
5,134167	0,1	0,368946
5,135833	0,1	0,372061
5,137500	0,1	0,381665
5,139167	0,1	0,374696
5,140833	0,1	0,398390
5,142500	0,1	0,361215
5,144167	0,1	0,379411
5,145833	0,1	0,401700
5,147500	0,1	0,372673
5,149167	0,1	0,381593
5,150833	0,1	0,380674
5,152500	0,1	0,359310
5,154167	0,1	0,337712
5,155833	0,1	0,356516
5,157500	0,1	0,381336
5,159167	0,1	0,364232
5,160833	0,1	0,340569
5,162500	0,1	0,347879
5,164167	0,1	0,371639
5,165833	0,1	0,375914
5,167500	0,1	0,347663
5,169167	0,1	0,380050
5,170833	0,1	0,304382
5,172500	0,1	0,344534
5,174167	0,1	0,359691
5,175833	0,1	0,325601
5,177500	0,1	0,358440
5,179167	0,1	0,350841
5,180833	0,1	0,329777
5,182500	0,1	0,343157
5,184167	0,1	0,338754
5,185833	0,1	0,369131
5,187500	0,1	0,371897
5,189167	0,1	0,361399
5,190833	0,1	0,308392
5,192500	0,1	0,358661
5,194167	0,1	0,367336
5,195833	0,1	0,320982
5,197500	0,1	0,338369
5,199167	0,1	0,320561
5,200833	0,1	0,318051
5,202500	0,1	0,280321
5,204167	0,1	0,333739
5,205833	0,1	0,316707
5,207500	0,1	0,315443
5,209167	0,1	0,309539
5,210833	0,1	0,360777
5,212500	0,1	0,311539
5,214167	0,1	0,307386
5,215833	0,1	0,315090
5,217500	0,1	0,303925
5,219167	0,1	0,306905
5,220833	0,1	0,314862
5,222500	0,1	0,287194
5,224167	0,1	0,312742
5,225833	0,1	0,327932
5,227500	0,1	0,302833
5,229167	0,1	0,242629
5,230833	0,1	0,292703
5,232500	0,1	0,255403
5,234167	0,1	0,284009
5,235833	0,1	0,281636
5,237500	0,1	0,280124
5,239167	0,1	0,289237
5,240833	0,1	0,273354
5,242500	0,1	0,297846
5,244167	0,1	0,291912
5,245833	0,1	0,275569
5,247500	0,1	0,251587
5,249167	0,1	0,287129
5,250833	0,1	0,243971
5,252500	0,1	0,291293
5,254167	0,1	0,257947
5,255833	0,1	0,261187
5,257500	0,1	0,246611
5,259167	0,1	0,261637
5,260833	0,1	0,266551
5,262500	0,1	0,270364
5,264167	0,1	0,245354
5,265833	0,1	0,240892
5,267500	0,1	0,239632
5,269167	0,1	0,238802
5,270833	0,1	0,220991
5,272500	0,1	0,226084
5,274167	0,1	0,267410
5,275833	0,1	0,263154
5,277500	0,1	0,226195
5,279167	0,1	0,254283
5,280833	0,1	0,257913
5,282500	0,1	0,215822
5,284167	0,1	0,225958
5,285833	0,1	0,225560
5,287500	0,1	0,235501
5,289167	0,1	0,253894
5,290833	0,1	0,241426
5,292500	0,1	0,220600
5,294167	0,1	0,220448
5,295833	0,1	0,218372
5,297500	0,1	0,194669
5,299167	0,1	0,207729
5,300833	0,1	0,247545
5,302500	0,1	0,239155
5,304167	0,1	0,212584
5,305833	0,1	0,235310
5,307500	0,1	0,201853
5,309167	0,1	0,200004
5,310833	0,1	0,240254
5,312500	0,1	0,209454
5,314167	0,1	0,238394
5,315833	0,1	0,200905
5,317500	0,1	0,198078
5,319167	0,1	0,199635
5,320833	0,1	0,202141
5,322500	0,1	0,178618
5,324167	0,1	0,167163
5,325833	0,1	0,198736
5,327500	0,1	0,176692
5,329167	0,1	0,198034
5,330833	0,1	0,221272
5,332500	0,1	0,177898
5,334167	0,1	0,196539
5,335833	0,1	0,173295
5,337500	0,1	0,190682
5,339167	0,1	0,203852
5,340833	0,1	0,213233
5,342500	0,1	0,184398
5,344167	0,1	0,209753
5,345833	0,1	0,172781
5,347500	0,1	0,167742
5,349167	0,1	0,219918
5,350833	0,1	0,166469
5,352500	0,1	0,150411
5,354167	0,1	0,201691
5,355833	0,1	0,182635
5,357500	0,1	0,160000
5,359167	0,1	0,154549
5,360833	0,1	0,208258
5,362500	0,1	0,202989
5,364167	0,1	0,158990
5,365833	0,1	0,187822
5,367500	0,1	0,131910
5,369167	0,1	0,157587
5,370833	0,1	0,173678
5,372500	0,1	0,143602
5,374167	0,1	0,190112
5,375833	0,1	0,179774
5,377500	0,1	0,143375
5,379167	0,1	0,164421
5,380833	0,1	0,108758
5,382500	0,1	0,146360
5,384167	0,1	0,178833
5,385833	0,1	0,119092
5,387500	0,1	0,163026
5,389167	0,1	0,186890
5,390833	0,1	0,130417
5,392500	0,1	0,169303
5,394167	0,1	0,164178
5,395833	0,1	0,141072
5,397500	0,1	0,155477
5,399167	0,1	0,144279
5,400833	0,1	0,119496
5,402500	0,1	0,152944
5,404167	0,1	0,149393
5,405833	0,1	0,107822
5,407500	0,1	0,165509
5,409167	0,1	0,092570
5,410833	0,1	0,113977
5,412500	0,1	0,163110
5,414167	0,1	0,121076
5,415833	0,1	0,139284
5,417500	0,1	0,133905
5,419167	0,1	0,126720
5,420833	0,1	0,119328
5,422500	0,1	0,063868
5,424167	0,1	0,104075
5,425833	0,1	0,093238
5,427500	0,1	0,101413
5,429167	0,1	0,101062
5,430833	0,1	0,137724
5,432500	0,1	0,150880
5,434167	0,1	0,140883
5,435833	0,1	0,082814
5,437500	0,1	0,119897
5,439167	0,1	0,098542
5,440833	0,1	0,140042
5,442500	0,1	0,143117
5,444167	0,1	0,112086
5,445833	0,1	0,100506
5,447500	0,1	0,084916
5,449167	0,1	0,114866
5,450833	0,1	0,102473
5,452500	0,1	0,100215
5,454167	0,1	0,115056
5,455833	0,1	0,113072
5,457500	0,1	0,082601
5,459167	0,1	0,103149
5,460833	0,1	0,102202
5,462500	0,1	0,068192
5,464167	0,1	0,140181
5,465833	0,1	0,126368
5,467500	0,1	0,094569
5,469167	0,1	0,078002
5,470833	0,1	0,072099
5,472500	0,1	0,041089
5,474167	0,1	0,124337
5,475833	0,1	0,091007
5,477500	0,1	0,089489
5,479167	0,1	0,102156
5,480833	0,1	0,077380
5,482500	0,1	0,077502
5,484167	0,1	0,075802
5,485833	0,1	0,084185
5,487500	0,1	0,084643
5,489167	0,1	0,093565
5,490833	0,1	0,111721
5,492500	0,1	0,100174
5,494167	0,1	0,075641
5,495833	0,1	0,101843
5,497500	0,1	0,071813
5,499167	0,1	0,088263
5,500833	0,1	0,135445
5,502500	0,1	0,093577
5,504167	0,1	0,097625
5,505833	0,1	0,049251
5,507500	0,1	0,109206
5,509167	0,1	0,115906
5,510833	0,1	0,126467
5,512500	0,1	0,065817
5,514167	0,1	0,046491
5,515833	0,1	0,067162
5,517500	0,1	0,098052
5,519167	0,1	0,093093
5,520833	0,1	0,089199
5,522500	0,1	0,117703
5,524167	0,1	0,115434
5,525833	0,1	0,078481
5,527500	0,1	0,098284
5,529167	0,1	0,084708
5,530833	0,1	0,057940
5,532500	0,1	0,069009
5,534167	0,1	0,076235
5,535833	0,1	0,054132
5,537500	0,1	0,066627
5,539167	0,1	0,077186
5,540833	0,1	0,076466
5,542500	0,1	0,096709
5,544167	0,1	0,082411
5,545833	0,1	0,086050
5,547500	0,1	0,090006
5,549167	0,1	0,048917
5,550833	0,1	0,080951
5,552500	0,1	0,090023
5,554167	0,1	0,097168
5,555833	0,1	0,076242
5,557500	0,1	0,101325
5,559167	0,1	0,082598
5,560833	0,1	0,074437
5,562500	0,1	0,055123
5,564167	0,1	0,086914
5,565833	0,1	0,048483
5,567500	0,1	0,075836
5,569167	0,1	0,068970
5,570833	0,1	0,061167
5,572500	0,1	0,082361
5,574167	0,1	0,090067
5,575833	0,1	0,066367
5,577500	0,1	0,092174
5,579167	0,1	0,082843
5,580833	0,1	0,114121
5,582500	0,1	0,056602
5,584167	0,1	0,103682
5,585833	0,1	0,096468
5,587500	0,1	0,067465
5,589167	0,1	0,062657
5,590833	0,1	0,058288
5,592500	0,1	0,066009
5,594167	0,1	0,094843
5,595833	0,1	0,075063
5,597500	0,1	0,051915
5,599167	0,1	0,065034
5,600833	0,1	0,039513
5,602500	0,1	0,080782
5,604167	0,1	0,077831
5,605833	0,1	0,080254
5,607500	0,1	0,056367
5,609167	0,1	0,038869
5,610833	0,1	0,088938
5,612500	0,1	0,075514
5,614167	0,1	0,088534
5,615833	0,1	0,052228
5,617500	0,1	0,105150
5,619167	0,1	0,065503
5,620833	0,1	0,064311
5,622500	0,1	0,069320
5,624167	0,1	0,064291
5,625833	0,1	0,060646
5,627500	0,1	0,109809
5,629167	0,1	0,108166
5,630833	0,1	0,090073
5,632500	0,1	0,105013
5,634167	0,1	0,061114
5,635833	0,1	0,078530
5,637500	0,1	0,096815
5,639167	0,1	0,057221
5,640833	0,1	0,066421
5,642500	0,1	0,055536
5,644167	0,1	0,108379
5,645833	0,1	0,097132
5,647500	0,1	0,081313
5,649167	0,1	0,066077
5,650833	0,1	0,084846
5,652500	0,1	0,086797
5,654167	0,1	0,083360
5,655833	0,1	0,076115
5,657500	0,1	0,055309
5,659167	0,1	0,086582
5,660833	0,1	0,081165
5,662500	0,1	0,066904
5,664167	0,1	0,080934
5,665833	0,1	0,113519
5,667500	0,1	0,085459
5,669167	0,1	0,052271
5,670833	0,1	0,068261
5,672500	0,1	0,096149
5,674167	0,1	0,089429
5,675833	0,1	0,053202
5,677500	0,1	0,106186
5,679167	0,1	0,096654
5,680833	0,1	0,091106
5,682500	0,1	0,096775
5,684167	0,1	0,085473
5,685833	0,1	0,103854
5,687500	0,1	0,083612
5,689167	0,1	0,048212
5,690833	0,1	0,089188
5,692500	0,1	0,086755
5,694167	0,1	0,075163
5,695833	0,1	0,114761
5,697500	0,1	0,090218
5,699167	0,1	0,097271
5,700833	0,1	0,082826
5,702500	0,1	0,106482
5,704167	0,1	0,082453
5,705833	0,1	0,081911
5,707500	0,1	0,087106
5,709167	0,1	0,094083
5,710833	0,1	0,083135
5,712500	0,1	0,144841
5,714167	0,1	0,116805
5,715833	0,1	0,112660
5,717500	0,1	0,106883
5,719167	0,1	0,106984
5,720833	0,1	0,119075
5,722500	0,1	0,115227
5,724167	0,1	0,116798
5,725833	0,1	0,134024
5,727500	0,1	0,086248
5,729167	0,1	0,118199
5,730833	0,1	0,086929
5,732500	0,1	0,092945
5,734167	0,1	0,101950
5,735833	0,1	0,112718
5,737500	0,1	0,119302
5,739167	0,1	0,112742
5,740833	0,1	0,100590
5,742500	0,1	0,148055
5,744167	0,1	0,130365
5,745833	0,1	0,136323
5,747500	0,1	0,045016
5,749167	0,1	0,144377
5,750833	0,1	0,044541
5,752500	0,1	0,123634
5,754167	0,1	0,121603
5,755833	0,1	0,107651
5,757500	0,1	0,107917
5,759167	0,1	0,103156
5,760833	0,1	0,118308
5,762500	0,1	0,120112
5,764167	0,1	0,139303
5,765833	0,1	0,119371
5,767500	0,1	0,134706
5,769167	0,1	0,129576
5,770833	0,1	0,133569
5,772500	0,1	0,114775
5,774167	0,1	0,135141
5,775833	0,1	0,095936
5,777500	0,1	0,128368
5,779167	0,1	0,121212
5,780833	0,1	0,145908
5,782500	0,1	0,103019
5,784167	0,1	0,140252
5,785833	0,1	0,163137
5,787500	0,1	0,135525
5,789167	0,1	0,072069
5,790833	0,1	0,115566
5,792500	0,1	0,103446
5,794167	0,1	0,135635
5,795833	0,1	0,154730
5,797500	0,1	0,132272
5,799167	0,1	0,153901
5,800833	0,1	0,120805
5,802500	0,1	0,125267
5,804167	0,1	0,114482
5,805833	0,1	0,126529
5,807500	0,1	0,140071
5,809167	0,1	0,118419
5,810833	0,1	0,139241
5,812500	0,1	0,141918
5,814167	0,1	0,114736
5,815833	0,1	0,139198
5,817500	0,1	0,140985
5,819167	0,1	0,112024
5,820833	0,1	0,122760
5,822500	0,1	0,144913
5,824167	0,1	0,112935
5,825833	0,1	0,083905
5,827500	0,1	0,156953
5,829167	0,1	0,133412
5,830833	0,1	0,108958
5,832500	0,1	0,100920
5,834167	0,1	0,118658
5,835833	0,1	0,131477
5,837500	0,1	0,108875
5,839167	0,1	0,145303
5,840833	0,1	0,120885
5,842500	0,1	0,155493
5,844167	0,1	0,101697
5,845833	0,1	0,119860
5,847500	0,1	0,141228
5,849167	0,1	0,129515
5,850833	0,1	0,115996
5,852500	0,1	0,130357
5,854167	0,1	0,112247
5,855833	0,1	0,129655
5,857500	0,1	0,158000
5,859167	0,1	0,105630
5,860833	0,1	0,147414
5,862500	0,1	0,106931
5,864167	0,1	0,123152
5,865833	0,1	0,072813
5,867500	0,1	0,111945
5,869167	0,1	0,109118
5,870833	0,1	0,152362
5,872500	0,1	0,115959
5,874167	0,1	0,114771
5,875833	0,1	0,100156
5,877500	0,1	0,091603
5,879167	0,1	0,111017
5,880833	0,1	0,083738
5,882500	0,1	0,109132
5,884167	0,1	0,099885
5,885833	0,1	0,121928
5,887500	0,1	0,138433
5,889167	0,1	0,125375
5,890833	0,1	0,141125
5,892500	0,1	0,144669
5,894167	0,1	0,091241
5,895833	0,1	0,098805
5,897500	0,1	0,106858
5,899167	0,1	0,076160
5,900833	0,1	0,121448
5,902500	0,1	0,093678
5,904167	0,1	0,092574
5,905833	0,1	0,110334
5,907500	0,1	0,134642
5,909167	0,1	0,097842
5,910833	0,1	0,071439
5,912500	0,1	0,104719
5,914167	0,1	0,123504
5,915833	0,1	0,092644
5,917500	0,1	0,112818
5,919167	0,1	0,066974
5,920833	0,1	0,073233
5,922500	0,1	0,087622
5,924167	0,1	0,116254
5,925833	0,1	0,119594
5,927500	0,1	0,096595
5,929167	0,1	0,136874
5,930833	0,1	0,087718
5,932500	0,1	0,080338
5,934167	0,1	0,101243
5,935833	0,1	0,082784
5,937500	0,1	0,129481
5,939167	0,1	0,131604
5,940833	0,1	0,115623
5,942500	0,1	0,117254
5,944167	0,1	0,059089
5,945833	0,1	0,119807
5,947500	0,1	0,124956
5,949167	0,1	0,112330
5,950833	0,1	0,088915
5,952500	0,1	0,088971
5,954167	0,1	0,143186
5,955833	0,1	0,089833
5,957500	0,1	0,112011
5,959167	0,1	0,051259
5,960833	0,1	0,057210
5,962500	0,1	0,070602
5,964167	0,1	0,062552
5,965833	0,1	0,083664
5,967500	0,1	0,084664
5,969167	0,1	0,082594
5,970833	0,1	0,112360
5,972500	0,1	0,112636
5,974167	0,1	0,085148
5,975833	0,1	0,078412
5,977500	0,1	0,081163
5,979167	0,1	0,077109
5,980833	0,1	0,070524
5,982500	0,1	0,067336
5,984167	0,1	0,040261
5,985833	0,1	0,090987
5,987500	0,1	0,081644
5,989167	0,1	0,048956
5,990833	0,1	0,093618
5,992500	0,1	0,053742
5,994167	0,1	0,074991
5,995833	0,1	0,061540
5,997500	0,1	0,077888
5,999167	0,1	0,098802
6,000833	0,1	0,066452
