File Path	chrom://chromeleon01/ikbm_chromeleon/2022/Rezex/Esteban/220612_chitin_4_7.seq/367.smp/UV_VIS_1.channel/UV_VIS_1.chm
Channel	UV_VIS_1

Injection Information:
Data Vault	ikbm_chromeleon
Injection	4_01h-EGS_2
Injection Number	95
Position	GE6
Comment	
Processing Method	New ProcMethod
Instrument Method	Short_Rezex_6min_194nm
Type	Unknown
Status	Finished
Injection Date	13.06.2022
Injection Time	03:22:35
Injection Volume (µl)	8,000
Dilution Factor	1,0000
Weight	1,0000

Chromatogram Data Information:
Time Min. (min)	0,000833
Time Max. (min)	6,000833
Data Points	3601
Detector	UV
Generating Data System	Chromeleon 7.2.9.11323
Exporting Data System	Chromeleon 7.2.9.0
Operator	Instrument Controller
Signal Quantity	Absorbance
Signal Unit	mAU
Signal Min.	-0,168328
Signal Max.	99,306074
Channel	UV_VIS_1
Driver Name	VWD3000.dll
Channel Type	Evaluation
Min. Step (s)	0,1
Max. Step (s)	0,1
Average Step (s)	0,1

Signal Parameter Information:
Signal Info	WVL:194 nm

Chromatogram Data:
Time (min)	Step (s)	Value (mAU)
0,000833	n.a.	-0,065564
0,002500	0,1	-0,041741
0,004167	0,1	-0,103244
0,005833	0,1	-0,098460
0,007500	0,1	-0,056026
0,009167	0,1	-0,093378
0,010833	0,1	-0,100033
0,012500	0,1	-0,086885
0,014167	0,1	-0,088790
0,015833	0,1	-0,085398
0,017500	0,1	-0,086804
0,019167	0,1	-0,072397
0,020833	0,1	-0,098806
0,022500	0,1	-0,082938
0,024167	0,1	-0,102947
0,025833	0,1	-0,093804
0,027500	0,1	-0,104294
0,029167	0,1	-0,106098
0,030833	0,1	-0,125944
0,032500	0,1	-0,123364
0,034167	0,1	-0,107817
0,035833	0,1	-0,123851
0,037500	0,1	-0,166699
0,039167	0,1	-0,112133
0,040833	0,1	-0,109800
0,042500	0,1	-0,140347
0,044167	0,1	-0,147854
0,045833	0,1	-0,120742
0,047500	0,1	-0,098403
0,049167	0,1	-0,121970
0,050833	0,1	-0,128910
0,052500	0,1	-0,097475
0,054167	0,1	-0,099224
0,055833	0,1	-0,070063
0,057500	0,1	-0,137314
0,059167	0,1	-0,125169
0,060833	0,1	-0,062597
0,062500	0,1	-0,105877
0,064167	0,1	-0,091588
0,065833	0,1	-0,090470
0,067500	0,1	-0,086620
0,069167	0,1	-0,116070
0,070833	0,1	-0,130787
0,072500	0,1	-0,062907
0,074167	0,1	-0,055833
0,075833	0,1	-0,088368
0,077500	0,1	-0,082602
0,079167	0,1	-0,120499
0,080833	0,1	-0,096355
0,082500	0,1	-0,125300
0,084167	0,1	-0,102483
0,085833	0,1	-0,103243
0,087500	0,1	-0,085110
0,089167	0,1	-0,113838
0,090833	0,1	-0,057190
0,092500	0,1	-0,086278
0,094167	0,1	-0,078771
0,095833	0,1	-0,099676
0,097500	0,1	-0,074572
0,099167	0,1	-0,094666
0,100833	0,1	-0,115201
0,102500	0,1	-0,115559
0,104167	0,1	-0,096311
0,105833	0,1	-0,061430
0,107500	0,1	-0,151198
0,109167	0,1	-0,112068
0,110833	0,1	-0,127686
0,112500	0,1	-0,117214
0,114167	0,1	-0,134330
0,115833	0,1	-0,141654
0,117500	0,1	-0,106829
0,119167	0,1	-0,168328
0,120833	0,1	-0,108557
0,122500	0,1	-0,108850
0,124167	0,1	-0,118596
0,125833	0,1	-0,115102
0,127500	0,1	-0,083163
0,129167	0,1	-0,123415
0,130833	0,1	-0,105788
0,132500	0,1	-0,137430
0,134167	0,1	-0,098566
0,135833	0,1	-0,062611
0,137500	0,1	-0,139572
0,139167	0,1	-0,115915
0,140833	0,1	-0,038768
0,142500	0,1	-0,120504
0,144167	0,1	-0,146520
0,145833	0,1	-0,105820
0,147500	0,1	-0,085357
0,149167	0,1	-0,095267
0,150833	0,1	-0,101666
0,152500	0,1	-0,118138
0,154167	0,1	-0,097181
0,155833	0,1	-0,081136
0,157500	0,1	-0,101647
0,159167	0,1	-0,105702
0,160833	0,1	-0,110440
0,162500	0,1	-0,077950
0,164167	0,1	-0,094025
0,165833	0,1	-0,134616
0,167500	0,1	-0,067876
0,169167	0,1	-0,092739
0,170833	0,1	-0,106157
0,172500	0,1	-0,108165
0,174167	0,1	-0,085173
0,175833	0,1	-0,100734
0,177500	0,1	-0,134160
0,179167	0,1	-0,089609
0,180833	0,1	-0,124227
0,182500	0,1	-0,053510
0,184167	0,1	-0,090461
0,185833	0,1	-0,106448
0,187500	0,1	-0,113402
0,189167	0,1	-0,110575
0,190833	0,1	-0,104878
0,192500	0,1	-0,119774
0,194167	0,1	-0,084385
0,195833	0,1	-0,093877
0,197500	0,1	-0,088546
0,199167	0,1	-0,092060
0,200833	0,1	-0,123040
0,202500	0,1	-0,106825
0,204167	0,1	-0,095396
0,205833	0,1	-0,115677
0,207500	0,1	-0,073169
0,209167	0,1	-0,118042
0,210833	0,1	-0,067872
0,212500	0,1	-0,142569
0,214167	0,1	-0,097002
0,215833	0,1	-0,103504
0,217500	0,1	-0,145294
0,219167	0,1	-0,104465
0,220833	0,1	-0,120662
0,222500	0,1	-0,144534
0,224167	0,1	-0,058710
0,225833	0,1	-0,060755
0,227500	0,1	-0,097413
0,229167	0,1	-0,092746
0,230833	0,1	-0,089372
0,232500	0,1	-0,109075
0,234167	0,1	-0,087986
0,235833	0,1	-0,095663
0,237500	0,1	-0,089100
0,239167	0,1	-0,114927
0,240833	0,1	-0,090747
0,242500	0,1	-0,128154
0,244167	0,1	-0,141162
0,245833	0,1	-0,123921
0,247500	0,1	-0,120402
0,249167	0,1	-0,092006
0,250833	0,1	-0,094336
0,252500	0,1	-0,074077
0,254167	0,1	-0,128441
0,255833	0,1	-0,084079
0,257500	0,1	-0,099221
0,259167	0,1	-0,094752
0,260833	0,1	-0,094382
0,262500	0,1	-0,119007
0,264167	0,1	-0,104212
0,265833	0,1	-0,056072
0,267500	0,1	-0,082182
0,269167	0,1	-0,068756
0,270833	0,1	-0,091537
0,272500	0,1	-0,099057
0,274167	0,1	-0,119420
0,275833	0,1	-0,088199
0,277500	0,1	-0,078357
0,279167	0,1	-0,085580
0,280833	0,1	-0,117888
0,282500	0,1	-0,051769
0,284167	0,1	-0,099213
0,285833	0,1	-0,098602
0,287500	0,1	-0,078379
0,289167	0,1	-0,089323
0,290833	0,1	-0,089679
0,292500	0,1	-0,072065
0,294167	0,1	-0,133116
0,295833	0,1	-0,062557
0,297500	0,1	-0,063470
0,299167	0,1	-0,092800
0,300833	0,1	-0,089829
0,302500	0,1	-0,101788
0,304167	0,1	-0,057811
0,305833	0,1	-0,055955
0,307500	0,1	-0,080546
0,309167	0,1	-0,127448
0,310833	0,1	-0,062721
0,312500	0,1	-0,071442
0,314167	0,1	-0,066681
0,315833	0,1	-0,091721
0,317500	0,1	-0,128384
0,319167	0,1	-0,097721
0,320833	0,1	-0,092247
0,322500	0,1	-0,084923
0,324167	0,1	-0,063397
0,325833	0,1	-0,062767
0,327500	0,1	-0,101739
0,329167	0,1	-0,045638
0,330833	0,1	-0,111981
0,332500	0,1	-0,130391
0,334167	0,1	-0,047922
0,335833	0,1	-0,092297
0,337500	0,1	-0,064243
0,339167	0,1	-0,081296
0,340833	0,1	-0,099949
0,342500	0,1	-0,111460
0,344167	0,1	-0,109204
0,345833	0,1	-0,098673
0,347500	0,1	-0,104541
0,349167	0,1	-0,077333
0,350833	0,1	-0,080719
0,352500	0,1	-0,087030
0,354167	0,1	-0,112740
0,355833	0,1	-0,065013
0,357500	0,1	-0,082949
0,359167	0,1	-0,122881
0,360833	0,1	-0,068514
0,362500	0,1	-0,100668
0,364167	0,1	-0,108252
0,365833	0,1	-0,100571
0,367500	0,1	-0,098521
0,369167	0,1	-0,093741
0,370833	0,1	-0,109076
0,372500	0,1	-0,077037
0,374167	0,1	-0,106338
0,375833	0,1	-0,129213
0,377500	0,1	-0,088904
0,379167	0,1	-0,089079
0,380833	0,1	-0,074014
0,382500	0,1	-0,103113
0,384167	0,1	-0,045411
0,385833	0,1	-0,066304
0,387500	0,1	-0,057803
0,389167	0,1	-0,034430
0,390833	0,1	-0,081017
0,392500	0,1	-0,071552
0,394167	0,1	-0,126040
0,395833	0,1	-0,077811
0,397500	0,1	-0,092013
0,399167	0,1	-0,064287
0,400833	0,1	-0,097933
0,402500	0,1	-0,073518
0,404167	0,1	-0,069100
0,405833	0,1	-0,078044
0,407500	0,1	-0,078004
0,409167	0,1	-0,088911
0,410833	0,1	-0,056875
0,412500	0,1	-0,070860
0,414167	0,1	-0,091518
0,415833	0,1	-0,067100
0,417500	0,1	-0,058067
0,419167	0,1	-0,071045
0,420833	0,1	-0,046025
0,422500	0,1	-0,071808
0,424167	0,1	-0,046148
0,425833	0,1	-0,040659
0,427500	0,1	-0,079074
0,429167	0,1	-0,063993
0,430833	0,1	-0,040828
0,432500	0,1	-0,093850
0,434167	0,1	-0,121908
0,435833	0,1	-0,099599
0,437500	0,1	-0,095974
0,439167	0,1	-0,082875
0,440833	0,1	-0,068917
0,442500	0,1	-0,110995
0,444167	0,1	-0,096003
0,445833	0,1	-0,050646
0,447500	0,1	-0,088490
0,449167	0,1	-0,095583
0,450833	0,1	-0,075072
0,452500	0,1	-0,062005
0,454167	0,1	-0,073921
0,455833	0,1	-0,064406
0,457500	0,1	-0,090321
0,459167	0,1	-0,038144
0,460833	0,1	-0,093085
0,462500	0,1	-0,110236
0,464167	0,1	-0,072613
0,465833	0,1	-0,041139
0,467500	0,1	-0,075269
0,469167	0,1	-0,089183
0,470833	0,1	-0,075132
0,472500	0,1	-0,051677
0,474167	0,1	-0,081293
0,475833	0,1	-0,080263
0,477500	0,1	-0,074382
0,479167	0,1	-0,102076
0,480833	0,1	-0,097177
0,482500	0,1	-0,099953
0,484167	0,1	-0,038541
0,485833	0,1	-0,071307
0,487500	0,1	-0,098102
0,489167	0,1	-0,100280
0,490833	0,1	-0,075880
0,492500	0,1	-0,067035
0,494167	0,1	-0,068192
0,495833	0,1	-0,089531
0,497500	0,1	-0,042965
0,499167	0,1	-0,070795
0,500833	0,1	-0,074795
0,502500	0,1	-0,058841
0,504167	0,1	-0,070634
0,505833	0,1	-0,064985
0,507500	0,1	-0,050411
0,509167	0,1	-0,076468
0,510833	0,1	-0,035471
0,512500	0,1	-0,099377
0,514167	0,1	-0,039141
0,515833	0,1	-0,054440
0,517500	0,1	-0,090189
0,519167	0,1	-0,077761
0,520833	0,1	-0,030214
0,522500	0,1	-0,080400
0,524167	0,1	-0,028826
0,525833	0,1	-0,046533
0,527500	0,1	-0,070507
0,529167	0,1	-0,049998
0,530833	0,1	-0,084456
0,532500	0,1	-0,049483
0,534167	0,1	-0,064874
0,535833	0,1	-0,052563
0,537500	0,1	-0,061876
0,539167	0,1	-0,090709
0,540833	0,1	-0,053853
0,542500	0,1	-0,069823
0,544167	0,1	-0,052029
0,545833	0,1	-0,047180
0,547500	0,1	-0,114486
0,549167	0,1	-0,088155
0,550833	0,1	-0,061387
0,552500	0,1	-0,024267
0,554167	0,1	-0,067027
0,555833	0,1	-0,057556
0,557500	0,1	-0,077918
0,559167	0,1	-0,048428
0,560833	0,1	-0,038487
0,562500	0,1	-0,070917
0,564167	0,1	-0,057204
0,565833	0,1	-0,081417
0,567500	0,1	-0,072749
0,569167	0,1	-0,053004
0,570833	0,1	-0,054468
0,572500	0,1	-0,028469
0,574167	0,1	-0,064684
0,575833	0,1	-0,047306
0,577500	0,1	-0,039314
0,579167	0,1	-0,018487
0,580833	0,1	-0,012335
0,582500	0,1	-0,075052
0,584167	0,1	-0,027523
0,585833	0,1	-0,008446
0,587500	0,1	-0,041827
0,589167	0,1	-0,042459
0,590833	0,1	-0,023683
0,592500	0,1	-0,029786
0,594167	0,1	-0,014758
0,595833	0,1	-0,080228
0,597500	0,1	-0,039796
0,599167	0,1	0,002274
0,600833	0,1	-0,028973
0,602500	0,1	-0,024507
0,604167	0,1	-0,005339
0,605833	0,1	-0,033941
0,607500	0,1	-0,036847
0,609167	0,1	-0,030575
0,610833	0,1	-0,060279
0,612500	0,1	-0,042258
0,614167	0,1	-0,030082
0,615833	0,1	-0,025649
0,617500	0,1	-0,039185
0,619167	0,1	-0,009627
0,620833	0,1	-0,024175
0,622500	0,1	-0,034816
0,624167	0,1	-0,033412
0,625833	0,1	-0,040882
0,627500	0,1	-0,029666
0,629167	0,1	0,020599
0,630833	0,1	-0,023711
0,632500	0,1	-0,019125
0,634167	0,1	0,023705
0,635833	0,1	-0,029571
0,637500	0,1	-0,017905
0,639167	0,1	-0,027385
0,640833	0,1	-0,017306
0,642500	0,1	-0,004116
0,644167	0,1	0,007832
0,645833	0,1	-0,032987
0,647500	0,1	0,018527
0,649167	0,1	-0,021207
0,650833	0,1	-0,023098
0,652500	0,1	0,016750
0,654167	0,1	-0,013858
0,655833	0,1	-0,001942
0,657500	0,1	0,012076
0,659167	0,1	-0,009035
0,660833	0,1	0,031968
0,662500	0,1	-0,008906
0,664167	0,1	-0,029782
0,665833	0,1	0,070203
0,667500	0,1	0,011245
0,669167	0,1	0,020835
0,670833	0,1	0,049075
0,672500	0,1	0,011178
0,674167	0,1	0,001499
0,675833	0,1	0,031640
0,677500	0,1	0,006598
0,679167	0,1	0,042136
0,680833	0,1	-0,002756
0,682500	0,1	0,019384
0,684167	0,1	-0,009883
0,685833	0,1	-0,003764
0,687500	0,1	-0,013553
0,689167	0,1	0,000563
0,690833	0,1	0,019134
0,692500	0,1	0,037420
0,694167	0,1	0,019537
0,695833	0,1	0,022824
0,697500	0,1	0,061498
0,699167	0,1	0,027120
0,700833	0,1	0,055144
0,702500	0,1	0,054715
0,704167	0,1	0,028091
0,705833	0,1	0,031480
0,707500	0,1	0,040033
0,709167	0,1	0,032766
0,710833	0,1	0,066138
0,712500	0,1	0,089128
0,714167	0,1	0,054992
0,715833	0,1	0,066559
0,717500	0,1	0,057223
0,719167	0,1	0,076931
0,720833	0,1	0,060084
0,722500	0,1	0,082316
0,724167	0,1	0,062486
0,725833	0,1	0,097864
0,727500	0,1	0,073856
0,729167	0,1	0,110665
0,730833	0,1	0,074046
0,732500	0,1	0,081802
0,734167	0,1	0,074081
0,735833	0,1	0,072959
0,737500	0,1	0,132756
0,739167	0,1	0,136889
0,740833	0,1	0,097160
0,742500	0,1	0,135330
0,744167	0,1	0,120330
0,745833	0,1	0,135232
0,747500	0,1	0,138900
0,749167	0,1	0,108613
0,750833	0,1	0,162896
0,752500	0,1	0,130357
0,754167	0,1	0,099413
0,755833	0,1	0,110217
0,757500	0,1	0,159812
0,759167	0,1	0,139469
0,760833	0,1	0,105091
0,762500	0,1	0,097505
0,764167	0,1	0,118333
0,765833	0,1	0,140658
0,767500	0,1	0,108239
0,769167	0,1	0,115025
0,770833	0,1	0,128358
0,772500	0,1	0,089785
0,774167	0,1	0,084311
0,775833	0,1	0,128641
0,777500	0,1	0,130161
0,779167	0,1	0,160270
0,780833	0,1	0,094803
0,782500	0,1	0,137669
0,784167	0,1	0,139667
0,785833	0,1	0,124904
0,787500	0,1	0,068148
0,789167	0,1	0,131118
0,790833	0,1	0,079477
0,792500	0,1	0,102236
0,794167	0,1	0,115391
0,795833	0,1	0,090299
0,797500	0,1	0,088760
0,799167	0,1	0,086732
0,800833	0,1	0,055407
0,802500	0,1	0,113000
0,804167	0,1	0,087505
0,805833	0,1	0,104663
0,807500	0,1	0,121085
0,809167	0,1	0,097566
0,810833	0,1	0,144668
0,812500	0,1	0,086042
0,814167	0,1	0,095739
0,815833	0,1	0,135971
0,817500	0,1	0,102086
0,819167	0,1	0,103299
0,820833	0,1	0,082448
0,822500	0,1	0,078096
0,824167	0,1	0,087951
0,825833	0,1	0,069361
0,827500	0,1	0,079563
0,829167	0,1	0,082674
0,830833	0,1	0,127082
0,832500	0,1	0,090780
0,834167	0,1	0,150734
0,835833	0,1	0,070888
0,837500	0,1	0,092692
0,839167	0,1	0,139907
0,840833	0,1	0,111073
0,842500	0,1	0,099863
0,844167	0,1	0,110256
0,845833	0,1	0,104460
0,847500	0,1	0,078766
0,849167	0,1	0,119754
0,850833	0,1	0,138113
0,852500	0,1	0,053533
0,854167	0,1	0,098919
0,855833	0,1	0,109426
0,857500	0,1	0,082408
0,859167	0,1	0,096171
0,860833	0,1	0,095390
0,862500	0,1	0,102139
0,864167	0,1	0,118538
0,865833	0,1	0,111193
0,867500	0,1	0,100505
0,869167	0,1	0,078311
0,870833	0,1	0,112318
0,872500	0,1	0,135146
0,874167	0,1	0,091611
0,875833	0,1	0,133049
0,877500	0,1	0,100472
0,879167	0,1	0,116011
0,880833	0,1	0,137761
0,882500	0,1	0,109726
0,884167	0,1	0,110237
0,885833	0,1	0,084937
0,887500	0,1	0,121352
0,889167	0,1	0,078168
0,890833	0,1	0,116027
0,892500	0,1	0,156205
0,894167	0,1	0,133519
0,895833	0,1	0,103511
0,897500	0,1	0,119534
0,899167	0,1	0,088460
0,900833	0,1	0,130005
0,902500	0,1	0,125130
0,904167	0,1	0,125504
0,905833	0,1	0,106701
0,907500	0,1	0,095393
0,909167	0,1	0,105699
0,910833	0,1	0,103612
0,912500	0,1	0,127713
0,914167	0,1	0,165092
0,915833	0,1	0,130853
0,917500	0,1	0,085441
0,919167	0,1	0,160879
0,920833	0,1	0,150877
0,922500	0,1	0,080952
0,924167	0,1	0,154208
0,925833	0,1	0,129754
0,927500	0,1	0,134342
0,929167	0,1	0,144514
0,930833	0,1	0,145221
0,932500	0,1	0,121946
0,934167	0,1	0,160308
0,935833	0,1	0,119548
0,937500	0,1	0,148816
0,939167	0,1	0,123084
0,940833	0,1	0,148510
0,942500	0,1	0,089314
0,944167	0,1	0,157379
0,945833	0,1	0,176178
0,947500	0,1	0,116943
0,949167	0,1	0,117220
0,950833	0,1	0,171018
0,952500	0,1	0,171938
0,954167	0,1	0,140114
0,955833	0,1	0,163357
0,957500	0,1	0,194720
0,959167	0,1	0,166001
0,960833	0,1	0,163905
0,962500	0,1	0,146509
0,964167	0,1	0,144125
0,965833	0,1	0,167852
0,967500	0,1	0,179187
0,969167	0,1	0,164462
0,970833	0,1	0,193310
0,972500	0,1	0,211747
0,974167	0,1	0,148712
0,975833	0,1	0,204509
0,977500	0,1	0,187933
0,979167	0,1	0,191553
0,980833	0,1	0,244074
0,982500	0,1	0,236445
0,984167	0,1	0,225114
0,985833	0,1	0,209250
0,987500	0,1	0,192186
0,989167	0,1	0,208084
0,990833	0,1	0,208955
0,992500	0,1	0,211976
0,994167	0,1	0,237206
0,995833	0,1	0,271379
0,997500	0,1	0,229542
0,999167	0,1	0,244363
1,000833	0,1	0,224687
1,002500	0,1	0,236668
1,004167	0,1	0,296576
1,005833	0,1	0,278447
1,007500	0,1	0,302429
1,009167	0,1	0,309435
1,010833	0,1	0,300962
1,012500	0,1	0,313352
1,014167	0,1	0,333516
1,015833	0,1	0,341643
1,017500	0,1	0,362106
1,019167	0,1	0,392395
1,020833	0,1	0,369825
1,022500	0,1	0,398208
1,024167	0,1	0,372748
1,025833	0,1	0,358254
1,027500	0,1	0,444904
1,029167	0,1	0,444091
1,030833	0,1	0,421286
1,032500	0,1	0,457154
1,034167	0,1	0,463717
1,035833	0,1	0,461661
1,037500	0,1	0,486651
1,039167	0,1	0,474291
1,040833	0,1	0,495747
1,042500	0,1	0,485375
1,044167	0,1	0,527068
1,045833	0,1	0,523031
1,047500	0,1	0,484803
1,049167	0,1	0,522700
1,050833	0,1	0,578090
1,052500	0,1	0,586046
1,054167	0,1	0,584860
1,055833	0,1	0,676981
1,057500	0,1	0,691113
1,059167	0,1	0,782871
1,060833	0,1	0,872590
1,062500	0,1	0,982580
1,064167	0,1	1,147934
1,065833	0,1	1,362775
1,067500	0,1	1,661924
1,069167	0,1	2,020019
1,070833	0,1	2,417638
1,072500	0,1	2,966685
1,074167	0,1	3,663806
1,075833	0,1	4,484818
1,077500	0,1	5,421267
1,079167	0,1	6,524716
1,080833	0,1	7,787259
1,082500	0,1	9,277661
1,084167	0,1	10,867693
1,085833	0,1	12,661039
1,087500	0,1	14,606513
1,089167	0,1	16,717378
1,090833	0,1	18,905015
1,092500	0,1	21,148480
1,094167	0,1	23,516958
1,095833	0,1	25,851783
1,097500	0,1	28,208937
1,099167	0,1	30,517908
1,100833	0,1	32,720182
1,102500	0,1	34,760428
1,104167	0,1	36,718628
1,105833	0,1	38,452067
1,107500	0,1	39,982035
1,109167	0,1	41,308695
1,110833	0,1	42,453282
1,112500	0,1	43,323629
1,114167	0,1	44,004136
1,115833	0,1	44,446779
1,117500	0,1	44,742413
1,119167	0,1	44,868783
1,120833	0,1	44,768696
1,122500	0,1	44,568884
1,124167	0,1	44,217628
1,125833	0,1	43,743317
1,127500	0,1	43,246191
1,129167	0,1	42,641717
1,130833	0,1	41,943033
1,132500	0,1	41,248673
1,134167	0,1	40,543025
1,135833	0,1	39,831802
1,137500	0,1	39,142790
1,139167	0,1	38,400770
1,140833	0,1	37,777851
1,142500	0,1	37,136924
1,144167	0,1	36,573272
1,145833	0,1	36,080061
1,147500	0,1	35,656427
1,149167	0,1	35,293088
1,150833	0,1	35,070809
1,152500	0,1	34,867387
1,154167	0,1	34,728981
1,155833	0,1	34,703908
1,157500	0,1	34,738452
1,159167	0,1	34,802377
1,160833	0,1	34,949830
1,162500	0,1	35,181767
1,164167	0,1	35,425891
1,165833	0,1	35,662338
1,167500	0,1	36,003866
1,169167	0,1	36,320834
1,170833	0,1	36,612874
1,172500	0,1	36,916046
1,174167	0,1	37,227828
1,175833	0,1	37,495989
1,177500	0,1	37,741683
1,179167	0,1	37,987768
1,180833	0,1	38,188649
1,182500	0,1	38,360841
1,184167	0,1	38,514857
1,185833	0,1	38,562599
1,187500	0,1	38,664561
1,189167	0,1	38,706952
1,190833	0,1	38,764239
1,192500	0,1	38,868592
1,194167	0,1	38,919585
1,195833	0,1	39,002737
1,197500	0,1	39,182717
1,199167	0,1	39,368170
1,200833	0,1	39,701677
1,202500	0,1	40,045039
1,204167	0,1	40,667566
1,205833	0,1	41,347454
1,207500	0,1	42,175410
1,209167	0,1	43,219890
1,210833	0,1	44,459243
1,212500	0,1	45,913613
1,214167	0,1	47,550209
1,215833	0,1	49,433650
1,217500	0,1	51,457616
1,219167	0,1	53,731513
1,220833	0,1	56,154747
1,222500	0,1	58,686310
1,224167	0,1	61,409528
1,225833	0,1	64,175187
1,227500	0,1	67,090407
1,229167	0,1	69,923361
1,230833	0,1	72,819704
1,232500	0,1	75,654309
1,234167	0,1	78,438819
1,235833	0,1	81,096318
1,237500	0,1	83,658168
1,239167	0,1	86,040795
1,240833	0,1	88,329831
1,242500	0,1	90,397330
1,244167	0,1	92,283065
1,245833	0,1	93,944205
1,247500	0,1	95,332636
1,249167	0,1	96,528301
1,250833	0,1	97,546442
1,252500	0,1	98,357002
1,254167	0,1	98,830913
1,255833	0,1	99,207642
1,257500	0,1	99,306074
1,259167	0,1	99,204799
1,260833	0,1	98,894446
1,262500	0,1	98,341060
1,264167	0,1	97,662671
1,265833	0,1	96,797432
1,267500	0,1	95,759127
1,269167	0,1	94,564744
1,270833	0,1	93,170394
1,272500	0,1	91,644166
1,274167	0,1	90,011612
1,275833	0,1	88,266999
1,277500	0,1	86,430124
1,279167	0,1	84,525808
1,280833	0,1	82,541443
1,282500	0,1	80,503642
1,284167	0,1	78,434393
1,285833	0,1	76,244820
1,287500	0,1	74,151787
1,289167	0,1	72,004257
1,290833	0,1	69,884059
1,292500	0,1	67,770902
1,294167	0,1	65,718067
1,295833	0,1	63,601312
1,297500	0,1	61,606772
1,299167	0,1	59,619339
1,300833	0,1	57,712090
1,302500	0,1	55,888003
1,304167	0,1	54,106231
1,305833	0,1	52,327495
1,307500	0,1	50,654326
1,309167	0,1	49,072626
1,310833	0,1	47,505009
1,312500	0,1	46,056645
1,314167	0,1	44,603353
1,315833	0,1	43,266999
1,317500	0,1	41,992404
1,319167	0,1	40,702281
1,320833	0,1	39,559475
1,322500	0,1	38,456514
1,324167	0,1	37,354298
1,325833	0,1	36,331386
1,327500	0,1	35,283902
1,329167	0,1	34,335346
1,330833	0,1	33,448862
1,332500	0,1	32,583849
1,334167	0,1	31,705764
1,335833	0,1	30,950614
1,337500	0,1	30,150983
1,339167	0,1	29,417879
1,340833	0,1	28,693407
1,342500	0,1	27,948552
1,344167	0,1	27,300459
1,345833	0,1	26,636451
1,347500	0,1	25,986867
1,349167	0,1	25,399336
1,350833	0,1	24,744069
1,352500	0,1	24,186802
1,354167	0,1	23,591787
1,355833	0,1	23,072939
1,357500	0,1	22,554326
1,359167	0,1	22,001504
1,360833	0,1	21,503036
1,362500	0,1	20,987102
1,364167	0,1	20,518167
1,365833	0,1	20,036714
1,367500	0,1	19,558486
1,369167	0,1	19,156085
1,370833	0,1	18,726180
1,372500	0,1	18,259944
1,374167	0,1	17,834948
1,375833	0,1	17,431442
1,377500	0,1	17,016705
1,379167	0,1	16,627680
1,380833	0,1	16,237978
1,382500	0,1	15,861120
1,384167	0,1	15,513732
1,385833	0,1	15,117412
1,387500	0,1	14,806120
1,389167	0,1	14,457716
1,390833	0,1	14,144204
1,392500	0,1	13,837118
1,394167	0,1	13,520898
1,395833	0,1	13,248034
1,397500	0,1	12,931897
1,399167	0,1	12,677934
1,400833	0,1	12,384023
1,402500	0,1	12,154926
1,404167	0,1	11,859472
1,405833	0,1	11,665755
1,407500	0,1	11,440938
1,409167	0,1	11,230052
1,410833	0,1	11,004838
1,412500	0,1	10,823816
1,414167	0,1	10,563969
1,415833	0,1	10,410021
1,417500	0,1	10,231238
1,419167	0,1	10,054766
1,420833	0,1	9,881394
1,422500	0,1	9,770805
1,424167	0,1	9,546694
1,425833	0,1	9,373291
1,427500	0,1	9,251371
1,429167	0,1	9,091487
1,430833	0,1	8,924992
1,432500	0,1	8,803930
1,434167	0,1	8,691431
1,435833	0,1	8,525391
1,437500	0,1	8,363115
1,439167	0,1	8,265355
1,440833	0,1	8,156234
1,442500	0,1	8,018128
1,444167	0,1	7,878539
1,445833	0,1	7,795629
1,447500	0,1	7,661402
1,449167	0,1	7,569756
1,450833	0,1	7,476449
1,452500	0,1	7,353419
1,454167	0,1	7,283092
1,455833	0,1	7,152018
1,457500	0,1	7,088344
1,459167	0,1	7,008756
1,460833	0,1	6,887358
1,462500	0,1	6,840948
1,464167	0,1	6,715507
1,465833	0,1	6,681870
1,467500	0,1	6,625734
1,469167	0,1	6,544276
1,470833	0,1	6,468693
1,472500	0,1	6,395639
1,474167	0,1	6,369754
1,475833	0,1	6,285210
1,477500	0,1	6,242681
1,479167	0,1	6,206744
1,480833	0,1	6,159317
1,482500	0,1	6,103231
1,484167	0,1	6,069198
1,485833	0,1	6,070964
1,487500	0,1	6,032791
1,489167	0,1	6,014728
1,490833	0,1	5,999196
1,492500	0,1	5,945915
1,494167	0,1	5,924345
1,495833	0,1	5,903982
1,497500	0,1	5,914594
1,499167	0,1	5,909304
1,500833	0,1	5,936391
1,502500	0,1	5,913156
1,504167	0,1	5,894887
1,505833	0,1	5,914624
1,507500	0,1	5,891370
1,509167	0,1	5,871464
1,510833	0,1	5,868119
1,512500	0,1	5,885104
1,514167	0,1	5,894721
1,515833	0,1	5,874806
1,517500	0,1	5,815578
1,519167	0,1	5,847644
1,520833	0,1	5,874916
1,522500	0,1	5,860281
1,524167	0,1	5,819671
1,525833	0,1	5,839698
1,527500	0,1	5,804356
1,529167	0,1	5,781797
1,530833	0,1	5,784005
1,532500	0,1	5,804729
1,534167	0,1	5,781059
1,535833	0,1	5,775831
1,537500	0,1	5,714792
1,539167	0,1	5,733897
1,540833	0,1	5,731971
1,542500	0,1	5,680369
1,544167	0,1	5,658901
1,545833	0,1	5,666718
1,547500	0,1	5,640105
1,549167	0,1	5,579642
1,550833	0,1	5,550442
1,552500	0,1	5,568744
1,554167	0,1	5,509039
1,555833	0,1	5,529106
1,557500	0,1	5,463496
1,559167	0,1	5,462003
1,560833	0,1	5,435664
1,562500	0,1	5,391435
1,564167	0,1	5,377841
1,565833	0,1	5,350049
1,567500	0,1	5,320352
1,569167	0,1	5,280045
1,570833	0,1	5,281642
1,572500	0,1	5,213893
1,574167	0,1	5,201905
1,575833	0,1	5,190404
1,577500	0,1	5,167196
1,579167	0,1	5,109115
1,580833	0,1	5,085160
1,582500	0,1	5,084590
1,584167	0,1	5,036207
1,585833	0,1	4,977853
1,587500	0,1	4,958623
1,589167	0,1	4,907115
1,590833	0,1	4,909731
1,592500	0,1	4,847083
1,594167	0,1	4,857200
1,595833	0,1	4,823575
1,597500	0,1	4,769030
1,599167	0,1	4,742250
1,600833	0,1	4,740482
1,602500	0,1	4,685356
1,604167	0,1	4,676225
1,605833	0,1	4,623248
1,607500	0,1	4,594439
1,609167	0,1	4,574527
1,610833	0,1	4,548994
1,612500	0,1	4,527908
1,614167	0,1	4,540106
1,615833	0,1	4,466838
1,617500	0,1	4,450246
1,619167	0,1	4,390599
1,620833	0,1	4,361011
1,622500	0,1	4,372712
1,624167	0,1	4,355658
1,625833	0,1	4,312389
1,627500	0,1	4,254699
1,629167	0,1	4,229858
1,630833	0,1	4,236454
1,632500	0,1	4,218716
1,634167	0,1	4,174610
1,635833	0,1	4,167107
1,637500	0,1	4,151032
1,639167	0,1	4,134546
1,640833	0,1	4,092266
1,642500	0,1	4,065296
1,644167	0,1	4,039665
1,645833	0,1	4,043420
1,647500	0,1	4,032649
1,649167	0,1	4,008807
1,650833	0,1	3,977757
1,652500	0,1	3,988228
1,654167	0,1	3,978446
1,655833	0,1	3,943701
1,657500	0,1	3,943374
1,659167	0,1	3,931524
1,660833	0,1	3,925034
1,662500	0,1	3,926295
1,664167	0,1	3,960899
1,665833	0,1	3,969167
1,667500	0,1	3,978362
1,669167	0,1	3,946041
1,670833	0,1	4,002921
1,672500	0,1	3,966985
1,674167	0,1	4,031424
1,675833	0,1	4,061227
1,677500	0,1	4,078850
1,679167	0,1	4,150765
1,680833	0,1	4,166654
1,682500	0,1	4,221616
1,684167	0,1	4,282220
1,685833	0,1	4,338501
1,687500	0,1	4,368739
1,689167	0,1	4,466299
1,690833	0,1	4,492115
1,692500	0,1	4,596563
1,694167	0,1	4,659186
1,695833	0,1	4,722859
1,697500	0,1	4,803876
1,699167	0,1	4,911810
1,700833	0,1	5,009829
1,702500	0,1	5,106901
1,704167	0,1	5,224860
1,705833	0,1	5,341896
1,707500	0,1	5,422184
1,709167	0,1	5,468578
1,710833	0,1	5,606600
1,712500	0,1	5,688918
1,714167	0,1	5,821808
1,715833	0,1	5,961799
1,717500	0,1	6,010216
1,719167	0,1	6,125413
1,720833	0,1	6,266160
1,722500	0,1	6,308613
1,724167	0,1	6,436530
1,725833	0,1	6,501500
1,727500	0,1	6,584619
1,729167	0,1	6,679501
1,730833	0,1	6,757554
1,732500	0,1	6,786063
1,734167	0,1	6,839423
1,735833	0,1	6,909017
1,737500	0,1	7,016444
1,739167	0,1	7,026067
1,740833	0,1	7,139937
1,742500	0,1	7,116577
1,744167	0,1	7,127188
1,745833	0,1	7,191965
1,747500	0,1	7,147434
1,749167	0,1	7,214900
1,750833	0,1	7,196000
1,752500	0,1	7,233558
1,754167	0,1	7,229370
1,755833	0,1	7,197027
1,757500	0,1	7,186763
1,759167	0,1	7,161785
1,760833	0,1	7,184607
1,762500	0,1	7,087887
1,764167	0,1	7,127839
1,765833	0,1	7,039325
1,767500	0,1	7,031012
1,769167	0,1	6,957782
1,770833	0,1	6,933546
1,772500	0,1	6,851482
1,774167	0,1	6,800707
1,775833	0,1	6,760936
1,777500	0,1	6,717267
1,779167	0,1	6,596406
1,780833	0,1	6,524066
1,782500	0,1	6,487108
1,784167	0,1	6,390134
1,785833	0,1	6,297484
1,787500	0,1	6,236882
1,789167	0,1	6,188247
1,790833	0,1	6,065772
1,792500	0,1	5,997714
1,794167	0,1	5,936301
1,795833	0,1	5,850925
1,797500	0,1	5,739432
1,799167	0,1	5,695734
1,800833	0,1	5,550080
1,802500	0,1	5,498939
1,804167	0,1	5,398416
1,805833	0,1	5,303414
1,807500	0,1	5,216188
1,809167	0,1	5,151616
1,810833	0,1	5,057790
1,812500	0,1	5,018725
1,814167	0,1	4,908230
1,815833	0,1	4,855749
1,817500	0,1	4,766560
1,819167	0,1	4,712157
1,820833	0,1	4,585793
1,822500	0,1	4,477191
1,824167	0,1	4,418194
1,825833	0,1	4,341371
1,827500	0,1	4,323608
1,829167	0,1	4,249922
1,830833	0,1	4,153921
1,832500	0,1	4,115679
1,834167	0,1	4,049756
1,835833	0,1	4,042820
1,837500	0,1	3,956918
1,839167	0,1	3,913793
1,840833	0,1	3,889653
1,842500	0,1	3,895488
1,844167	0,1	3,875892
1,845833	0,1	3,847003
1,847500	0,1	3,852888
1,849167	0,1	3,860786
1,850833	0,1	3,872502
1,852500	0,1	3,864438
1,854167	0,1	3,876704
1,855833	0,1	3,864281
1,857500	0,1	3,897379
1,859167	0,1	3,945032
1,860833	0,1	3,927957
1,862500	0,1	3,919125
1,864167	0,1	3,963365
1,865833	0,1	3,983336
1,867500	0,1	3,986366
1,869167	0,1	4,042112
1,870833	0,1	4,076136
1,872500	0,1	4,099503
1,874167	0,1	4,103235
1,875833	0,1	4,142759
1,877500	0,1	4,107706
1,879167	0,1	4,107691
1,880833	0,1	4,161709
1,882500	0,1	4,165969
1,884167	0,1	4,169011
1,885833	0,1	4,193875
1,887500	0,1	4,177881
1,889167	0,1	4,213316
1,890833	0,1	4,281488
1,892500	0,1	4,247443
1,894167	0,1	4,273033
1,895833	0,1	4,277251
1,897500	0,1	4,304592
1,899167	0,1	4,339843
1,900833	0,1	4,317489
1,902500	0,1	4,308857
1,904167	0,1	4,357872
1,905833	0,1	4,295296
1,907500	0,1	4,341097
1,909167	0,1	4,347061
1,910833	0,1	4,351074
1,912500	0,1	4,363265
1,914167	0,1	4,344598
1,915833	0,1	4,362339
1,917500	0,1	4,376720
1,919167	0,1	4,365138
1,920833	0,1	4,364487
1,922500	0,1	4,365260
1,924167	0,1	4,336375
1,925833	0,1	4,347629
1,927500	0,1	4,307688
1,929167	0,1	4,306181
1,930833	0,1	4,316631
1,932500	0,1	4,323561
1,934167	0,1	4,290750
1,935833	0,1	4,292647
1,937500	0,1	4,308891
1,939167	0,1	4,255307
1,940833	0,1	4,263677
1,942500	0,1	4,272428
1,944167	0,1	4,261737
1,945833	0,1	4,233707
1,947500	0,1	4,222765
1,949167	0,1	4,229972
1,950833	0,1	4,200652
1,952500	0,1	4,222232
1,954167	0,1	4,233131
1,955833	0,1	4,215798
1,957500	0,1	4,181740
1,959167	0,1	4,173343
1,960833	0,1	4,185655
1,962500	0,1	4,171078
1,964167	0,1	4,181441
1,965833	0,1	4,141639
1,967500	0,1	4,188239
1,969167	0,1	4,145488
1,970833	0,1	4,177389
1,972500	0,1	4,161972
1,974167	0,1	4,205171
1,975833	0,1	4,207978
1,977500	0,1	4,184327
1,979167	0,1	4,226560
1,980833	0,1	4,180806
1,982500	0,1	4,192012
1,984167	0,1	4,217409
1,985833	0,1	4,223530
1,987500	0,1	4,212314
1,989167	0,1	4,252043
1,990833	0,1	4,194785
1,992500	0,1	4,262003
1,994167	0,1	4,266231
1,995833	0,1	4,275264
1,997500	0,1	4,284582
1,999167	0,1	4,298437
2,000833	0,1	4,317845
2,002500	0,1	4,304077
2,004167	0,1	4,332834
2,005833	0,1	4,331707
2,007500	0,1	4,377443
2,009167	0,1	4,408614
2,010833	0,1	4,423656
2,012500	0,1	4,421826
2,014167	0,1	4,431233
2,015833	0,1	4,466766
2,017500	0,1	4,472856
2,019167	0,1	4,504941
2,020833	0,1	4,526601
2,022500	0,1	4,547110
2,024167	0,1	4,605739
2,025833	0,1	4,591027
2,027500	0,1	4,605090
2,029167	0,1	4,641910
2,030833	0,1	4,649478
2,032500	0,1	4,662346
2,034167	0,1	4,703948
2,035833	0,1	4,720860
2,037500	0,1	4,746047
2,039167	0,1	4,768296
2,040833	0,1	4,778981
2,042500	0,1	4,821493
2,044167	0,1	4,881834
2,045833	0,1	4,858225
2,047500	0,1	4,860949
2,049167	0,1	4,904465
2,050833	0,1	4,969724
2,052500	0,1	4,997677
2,054167	0,1	5,012140
2,055833	0,1	5,030742
2,057500	0,1	5,040511
2,059167	0,1	5,087967
2,060833	0,1	5,119371
2,062500	0,1	5,148401
2,064167	0,1	5,136324
2,065833	0,1	5,151287
2,067500	0,1	5,196975
2,069167	0,1	5,230308
2,070833	0,1	5,245563
2,072500	0,1	5,310804
2,074167	0,1	5,286392
2,075833	0,1	5,322705
2,077500	0,1	5,318754
2,079167	0,1	5,348135
2,080833	0,1	5,382818
2,082500	0,1	5,391116
2,084167	0,1	5,455382
2,085833	0,1	5,466485
2,087500	0,1	5,468071
2,089167	0,1	5,477778
2,090833	0,1	5,494719
2,092500	0,1	5,546414
2,094167	0,1	5,541314
2,095833	0,1	5,556348
2,097500	0,1	5,557349
2,099167	0,1	5,565950
2,100833	0,1	5,594099
2,102500	0,1	5,618653
2,104167	0,1	5,596062
2,105833	0,1	5,608820
2,107500	0,1	5,651248
2,109167	0,1	5,660302
2,110833	0,1	5,638240
2,112500	0,1	5,699279
2,114167	0,1	5,674958
2,115833	0,1	5,694650
2,117500	0,1	5,705494
2,119167	0,1	5,743036
2,120833	0,1	5,743327
2,122500	0,1	5,701605
2,124167	0,1	5,728954
2,125833	0,1	5,709687
2,127500	0,1	5,738572
2,129167	0,1	5,775365
2,130833	0,1	5,761367
2,132500	0,1	5,747864
2,134167	0,1	5,775297
2,135833	0,1	5,738463
2,137500	0,1	5,729021
2,139167	0,1	5,750669
2,140833	0,1	5,758741
2,142500	0,1	5,752698
2,144167	0,1	5,753821
2,145833	0,1	5,758286
2,147500	0,1	5,721165
2,149167	0,1	5,729297
2,150833	0,1	5,721370
2,152500	0,1	5,715449
2,154167	0,1	5,697067
2,155833	0,1	5,724952
2,157500	0,1	5,642980
2,159167	0,1	5,681250
2,160833	0,1	5,685094
2,162500	0,1	5,667026
2,164167	0,1	5,657724
2,165833	0,1	5,680080
2,167500	0,1	5,661261
2,169167	0,1	5,651475
2,170833	0,1	5,636850
2,172500	0,1	5,656739
2,174167	0,1	5,609072
2,175833	0,1	5,570815
2,177500	0,1	5,621182
2,179167	0,1	5,576321
2,180833	0,1	5,553583
2,182500	0,1	5,561118
2,184167	0,1	5,535684
2,185833	0,1	5,507471
2,187500	0,1	5,509391
2,189167	0,1	5,506382
2,190833	0,1	5,453134
2,192500	0,1	5,507192
2,194167	0,1	5,437585
2,195833	0,1	5,441248
2,197500	0,1	5,409298
2,199167	0,1	5,418607
2,200833	0,1	5,384172
2,202500	0,1	5,412120
2,204167	0,1	5,428573
2,205833	0,1	5,362820
2,207500	0,1	5,364754
2,209167	0,1	5,341145
2,210833	0,1	5,348592
2,212500	0,1	5,329018
2,214167	0,1	5,299843
2,215833	0,1	5,342933
2,217500	0,1	5,282529
2,219167	0,1	5,295027
2,220833	0,1	5,287944
2,222500	0,1	5,331345
2,224167	0,1	5,290465
2,225833	0,1	5,278728
2,227500	0,1	5,268982
2,229167	0,1	5,269400
2,230833	0,1	5,278836
2,232500	0,1	5,234729
2,234167	0,1	5,255024
2,235833	0,1	5,259295
2,237500	0,1	5,263952
2,239167	0,1	5,258254
2,240833	0,1	5,214281
2,242500	0,1	5,272779
2,244167	0,1	5,240966
2,245833	0,1	5,228337
2,247500	0,1	5,238613
2,249167	0,1	5,235121
2,250833	0,1	5,207074
2,252500	0,1	5,247052
2,254167	0,1	5,229021
2,255833	0,1	5,249433
2,257500	0,1	5,199284
2,259167	0,1	5,243830
2,260833	0,1	5,210494
2,262500	0,1	5,188291
2,264167	0,1	5,248484
2,265833	0,1	5,217331
2,267500	0,1	5,174431
2,269167	0,1	5,197375
2,270833	0,1	5,196337
2,272500	0,1	5,185154
2,274167	0,1	5,158412
2,275833	0,1	5,171677
2,277500	0,1	5,163488
2,279167	0,1	5,144714
2,280833	0,1	5,156594
2,282500	0,1	5,155102
2,284167	0,1	5,122096
2,285833	0,1	5,138067
2,287500	0,1	5,084207
2,289167	0,1	5,110900
2,290833	0,1	5,061703
2,292500	0,1	5,098021
2,294167	0,1	5,057296
2,295833	0,1	5,027619
2,297500	0,1	5,025695
2,299167	0,1	5,042206
2,300833	0,1	5,020759
2,302500	0,1	5,014573
2,304167	0,1	5,013580
2,305833	0,1	4,954059
2,307500	0,1	4,996603
2,309167	0,1	4,990297
2,310833	0,1	4,939606
2,312500	0,1	4,912554
2,314167	0,1	4,905638
2,315833	0,1	4,855916
2,317500	0,1	4,884542
2,319167	0,1	4,852699
2,320833	0,1	4,870892
2,322500	0,1	4,830884
2,324167	0,1	4,831105
2,325833	0,1	4,801591
2,327500	0,1	4,813128
2,329167	0,1	4,795379
2,330833	0,1	4,754816
2,332500	0,1	4,802055
2,334167	0,1	4,806324
2,335833	0,1	4,744406
2,337500	0,1	4,724529
2,339167	0,1	4,729216
2,340833	0,1	4,717904
2,342500	0,1	4,725188
2,344167	0,1	4,666091
2,345833	0,1	4,652303
2,347500	0,1	4,692870
2,349167	0,1	4,606175
2,350833	0,1	4,651097
2,352500	0,1	4,588880
2,354167	0,1	4,617685
2,355833	0,1	4,605699
2,357500	0,1	4,587147
2,359167	0,1	4,571694
2,360833	0,1	4,513612
2,362500	0,1	4,536649
2,364167	0,1	4,521139
2,365833	0,1	4,509589
2,367500	0,1	4,493860
2,369167	0,1	4,499200
2,370833	0,1	4,521696
2,372500	0,1	4,516968
2,374167	0,1	4,504967
2,375833	0,1	4,497542
2,377500	0,1	4,530199
2,379167	0,1	4,508369
2,380833	0,1	4,544758
2,382500	0,1	4,521707
2,384167	0,1	4,518823
2,385833	0,1	4,568672
2,387500	0,1	4,522159
2,389167	0,1	4,544277
2,390833	0,1	4,621329
2,392500	0,1	4,619815
2,394167	0,1	4,685125
2,395833	0,1	4,661107
2,397500	0,1	4,715592
2,399167	0,1	4,800732
2,400833	0,1	4,826272
2,402500	0,1	4,900793
2,404167	0,1	5,000660
2,405833	0,1	5,051884
2,407500	0,1	5,083452
2,409167	0,1	5,179393
2,410833	0,1	5,266617
2,412500	0,1	5,371167
2,414167	0,1	5,478359
2,415833	0,1	5,564067
2,417500	0,1	5,694343
2,419167	0,1	5,818381
2,420833	0,1	5,927125
2,422500	0,1	6,068711
2,424167	0,1	6,228566
2,425833	0,1	6,430206
2,427500	0,1	6,547668
2,429167	0,1	6,672990
2,430833	0,1	6,851328
2,432500	0,1	7,016338
2,434167	0,1	7,205174
2,435833	0,1	7,386067
2,437500	0,1	7,560425
2,439167	0,1	7,738958
2,440833	0,1	7,919809
2,442500	0,1	8,119696
2,444167	0,1	8,317524
2,445833	0,1	8,448816
2,447500	0,1	8,706377
2,449167	0,1	8,888731
2,450833	0,1	9,059610
2,452500	0,1	9,207964
2,454167	0,1	9,368585
2,455833	0,1	9,541035
2,457500	0,1	9,708524
2,459167	0,1	9,911404
2,460833	0,1	10,022449
2,462500	0,1	10,137367
2,464167	0,1	10,332148
2,465833	0,1	10,455107
2,467500	0,1	10,590294
2,469167	0,1	10,711718
2,470833	0,1	10,818094
2,472500	0,1	10,975498
2,474167	0,1	11,084638
2,475833	0,1	11,190860
2,477500	0,1	11,263562
2,479167	0,1	11,348800
2,480833	0,1	11,468194
2,482500	0,1	11,580590
2,484167	0,1	11,650484
2,485833	0,1	11,718946
2,487500	0,1	11,862330
2,489167	0,1	11,913411
2,490833	0,1	11,977209
2,492500	0,1	12,077350
2,494167	0,1	12,158851
2,495833	0,1	12,293090
2,497500	0,1	12,368972
2,499167	0,1	12,454172
2,500833	0,1	12,561459
2,502500	0,1	12,680401
2,504167	0,1	12,773484
2,505833	0,1	12,899871
2,507500	0,1	13,001116
2,509167	0,1	13,115851
2,510833	0,1	13,286879
2,512500	0,1	13,451186
2,514167	0,1	13,601010
2,515833	0,1	13,747458
2,517500	0,1	13,890173
2,519167	0,1	14,100726
2,520833	0,1	14,271584
2,522500	0,1	14,472097
2,524167	0,1	14,686619
2,525833	0,1	14,911988
2,527500	0,1	15,113062
2,529167	0,1	15,297327
2,530833	0,1	15,562950
2,532500	0,1	15,825153
2,534167	0,1	16,042900
2,535833	0,1	16,336032
2,537500	0,1	16,586460
2,539167	0,1	16,824190
2,540833	0,1	17,113463
2,542500	0,1	17,428033
2,544167	0,1	17,684514
2,545833	0,1	17,992423
2,547500	0,1	18,303453
2,549167	0,1	18,532092
2,550833	0,1	18,834047
2,552500	0,1	19,148420
2,554167	0,1	19,388801
2,555833	0,1	19,676191
2,557500	0,1	19,942484
2,559167	0,1	20,250142
2,560833	0,1	20,529275
2,562500	0,1	20,790348
2,564167	0,1	21,046103
2,565833	0,1	21,287338
2,567500	0,1	21,522590
2,569167	0,1	21,760938
2,570833	0,1	22,000194
2,572500	0,1	22,164392
2,574167	0,1	22,365911
2,575833	0,1	22,590511
2,577500	0,1	22,745993
2,579167	0,1	22,936496
2,580833	0,1	23,091159
2,582500	0,1	23,207955
2,584167	0,1	23,342541
2,585833	0,1	23,450507
2,587500	0,1	23,555277
2,589167	0,1	23,611115
2,590833	0,1	23,754714
2,592500	0,1	23,805668
2,594167	0,1	23,853386
2,595833	0,1	23,853231
2,597500	0,1	23,900696
2,599167	0,1	23,970202
2,600833	0,1	23,917941
2,602500	0,1	23,936962
2,604167	0,1	23,908590
2,605833	0,1	23,875106
2,607500	0,1	23,858907
2,609167	0,1	23,793665
2,610833	0,1	23,750603
2,612500	0,1	23,686037
2,614167	0,1	23,617075
2,615833	0,1	23,484438
2,617500	0,1	23,434968
2,619167	0,1	23,285292
2,620833	0,1	23,169500
2,622500	0,1	23,064136
2,624167	0,1	22,936062
2,625833	0,1	22,830354
2,627500	0,1	22,630490
2,629167	0,1	22,503841
2,630833	0,1	22,332561
2,632500	0,1	22,168035
2,634167	0,1	22,035868
2,635833	0,1	21,854140
2,637500	0,1	21,613094
2,639167	0,1	21,466800
2,640833	0,1	21,266606
2,642500	0,1	21,025179
2,644167	0,1	20,799579
2,645833	0,1	20,642601
2,647500	0,1	20,428771
2,649167	0,1	20,233355
2,650833	0,1	19,996296
2,652500	0,1	19,774967
2,654167	0,1	19,542382
2,655833	0,1	19,302495
2,657500	0,1	19,102748
2,659167	0,1	18,848583
2,660833	0,1	18,628874
2,662500	0,1	18,352815
2,664167	0,1	18,142746
2,665833	0,1	17,868475
2,667500	0,1	17,630967
2,669167	0,1	17,385108
2,670833	0,1	17,167890
2,672500	0,1	16,914496
2,674167	0,1	16,656583
2,675833	0,1	16,419857
2,677500	0,1	16,128290
2,679167	0,1	15,932848
2,680833	0,1	15,644390
2,682500	0,1	15,433624
2,684167	0,1	15,175657
2,685833	0,1	14,959013
2,687500	0,1	14,687761
2,689167	0,1	14,437757
2,690833	0,1	14,247288
2,692500	0,1	14,003127
2,694167	0,1	13,763471
2,695833	0,1	13,560013
2,697500	0,1	13,344675
2,699167	0,1	13,092992
2,700833	0,1	12,853651
2,702500	0,1	12,650991
2,704167	0,1	12,449146
2,705833	0,1	12,243071
2,707500	0,1	11,982917
2,709167	0,1	11,761033
2,710833	0,1	11,635726
2,712500	0,1	11,390635
2,714167	0,1	11,175659
2,715833	0,1	11,003338
2,717500	0,1	10,805394
2,719167	0,1	10,665345
2,720833	0,1	10,460497
2,722500	0,1	10,310048
2,724167	0,1	10,129065
2,725833	0,1	9,946975
2,727500	0,1	9,749732
2,729167	0,1	9,609390
2,730833	0,1	9,410233
2,732500	0,1	9,251241
2,734167	0,1	9,093145
2,735833	0,1	8,992584
2,737500	0,1	8,855978
2,739167	0,1	8,701188
2,740833	0,1	8,563159
2,742500	0,1	8,441953
2,744167	0,1	8,275344
2,745833	0,1	8,162660
2,747500	0,1	8,000579
2,749167	0,1	7,909206
2,750833	0,1	7,791222
2,752500	0,1	7,661937
2,754167	0,1	7,523847
2,755833	0,1	7,478742
2,757500	0,1	7,322931
2,759167	0,1	7,251291
2,760833	0,1	7,102527
2,762500	0,1	6,994598
2,764167	0,1	6,911107
2,765833	0,1	6,796257
2,767500	0,1	6,750698
2,769167	0,1	6,652482
2,770833	0,1	6,520745
2,772500	0,1	6,416492
2,774167	0,1	6,339914
2,775833	0,1	6,262225
2,777500	0,1	6,150983
2,779167	0,1	6,060956
2,780833	0,1	6,053639
2,782500	0,1	5,909546
2,784167	0,1	5,846032
2,785833	0,1	5,788573
2,787500	0,1	5,685361
2,789167	0,1	5,587019
2,790833	0,1	5,545850
2,792500	0,1	5,461332
2,794167	0,1	5,430534
2,795833	0,1	5,313104
2,797500	0,1	5,281051
2,799167	0,1	5,181814
2,800833	0,1	5,132351
2,802500	0,1	5,066452
2,804167	0,1	4,991918
2,805833	0,1	4,928999
2,807500	0,1	4,873958
2,809167	0,1	4,808970
2,810833	0,1	4,756966
2,812500	0,1	4,708165
2,814167	0,1	4,638692
2,815833	0,1	4,557019
2,817500	0,1	4,511707
2,819167	0,1	4,466056
2,820833	0,1	4,393399
2,822500	0,1	4,389733
2,824167	0,1	4,334433
2,825833	0,1	4,262118
2,827500	0,1	4,246587
2,829167	0,1	4,138741
2,830833	0,1	4,118471
2,832500	0,1	4,060455
2,834167	0,1	4,027118
2,835833	0,1	3,996881
2,837500	0,1	3,926766
2,839167	0,1	3,839513
2,840833	0,1	3,846395
2,842500	0,1	3,803827
2,844167	0,1	3,729423
2,845833	0,1	3,699271
2,847500	0,1	3,667167
2,849167	0,1	3,618129
2,850833	0,1	3,598862
2,852500	0,1	3,553874
2,854167	0,1	3,531169
2,855833	0,1	3,468855
2,857500	0,1	3,429950
2,859167	0,1	3,350071
2,860833	0,1	3,313816
2,862500	0,1	3,329392
2,864167	0,1	3,297502
2,865833	0,1	3,259195
2,867500	0,1	3,254243
2,869167	0,1	3,227999
2,870833	0,1	3,135365
2,872500	0,1	3,124757
2,874167	0,1	3,080555
2,875833	0,1	3,063609
2,877500	0,1	3,021718
2,879167	0,1	2,995861
2,880833	0,1	2,962933
2,882500	0,1	2,927375
2,884167	0,1	2,941204
2,885833	0,1	2,870957
2,887500	0,1	2,858741
2,889167	0,1	2,825360
2,890833	0,1	2,791979
2,892500	0,1	2,781499
2,894167	0,1	2,742886
2,895833	0,1	2,733549
2,897500	0,1	2,720697
2,899167	0,1	2,674203
2,900833	0,1	2,603689
2,902500	0,1	2,634153
2,904167	0,1	2,611989
2,905833	0,1	2,577990
2,907500	0,1	2,557882
2,909167	0,1	2,572439
2,910833	0,1	2,491280
2,912500	0,1	2,524531
2,914167	0,1	2,470604
2,915833	0,1	2,468009
2,917500	0,1	2,426704
2,919167	0,1	2,398956
2,920833	0,1	2,398298
2,922500	0,1	2,383172
2,924167	0,1	2,384534
2,925833	0,1	2,325318
2,927500	0,1	2,344581
2,929167	0,1	2,316634
2,930833	0,1	2,291178
2,932500	0,1	2,284076
2,934167	0,1	2,268877
2,935833	0,1	2,229745
2,937500	0,1	2,229520
2,939167	0,1	2,228086
2,940833	0,1	2,205581
2,942500	0,1	2,181427
2,944167	0,1	2,169382
2,945833	0,1	2,169739
2,947500	0,1	2,176473
2,949167	0,1	2,097942
2,950833	0,1	2,110749
2,952500	0,1	2,123292
2,954167	0,1	2,089907
2,955833	0,1	2,073636
2,957500	0,1	2,075065
2,959167	0,1	2,056152
2,960833	0,1	2,045975
2,962500	0,1	2,029350
2,964167	0,1	1,997253
2,965833	0,1	1,990446
2,967500	0,1	2,007997
2,969167	0,1	1,983995
2,970833	0,1	1,981345
2,972500	0,1	1,951259
2,974167	0,1	1,942731
2,975833	0,1	1,917947
2,977500	0,1	1,926467
2,979167	0,1	1,921739
2,980833	0,1	1,895372
2,982500	0,1	1,932116
2,984167	0,1	1,929049
2,985833	0,1	1,911142
2,987500	0,1	1,921313
2,989167	0,1	1,861442
2,990833	0,1	1,898235
2,992500	0,1	1,890080
2,994167	0,1	1,902113
2,995833	0,1	1,870172
2,997500	0,1	1,861939
2,999167	0,1	1,847466
3,000833	0,1	1,796330
3,002500	0,1	1,837848
3,004167	0,1	1,819750
3,005833	0,1	1,822107
3,007500	0,1	1,827837
3,009167	0,1	1,810782
3,010833	0,1	1,814162
3,012500	0,1	1,789817
3,014167	0,1	1,777054
3,015833	0,1	1,793665
3,017500	0,1	1,769262
3,019167	0,1	1,841147
3,020833	0,1	1,759546
3,022500	0,1	1,782287
3,024167	0,1	1,735885
3,025833	0,1	1,750205
3,027500	0,1	1,792813
3,029167	0,1	1,715281
3,030833	0,1	1,737620
3,032500	0,1	1,720429
3,034167	0,1	1,760720
3,035833	0,1	1,721002
3,037500	0,1	1,728515
3,039167	0,1	1,749638
3,040833	0,1	1,743061
3,042500	0,1	1,702820
3,044167	0,1	1,671094
3,045833	0,1	1,688341
3,047500	0,1	1,674739
3,049167	0,1	1,681544
3,050833	0,1	1,681624
3,052500	0,1	1,687135
3,054167	0,1	1,673589
3,055833	0,1	1,665092
3,057500	0,1	1,656052
3,059167	0,1	1,651272
3,060833	0,1	1,631363
3,062500	0,1	1,633429
3,064167	0,1	1,652971
3,065833	0,1	1,638331
3,067500	0,1	1,667938
3,069167	0,1	1,636174
3,070833	0,1	1,623055
3,072500	0,1	1,621051
3,074167	0,1	1,609237
3,075833	0,1	1,582540
3,077500	0,1	1,603292
3,079167	0,1	1,596558
3,080833	0,1	1,572232
3,082500	0,1	1,595354
3,084167	0,1	1,610748
3,085833	0,1	1,627489
3,087500	0,1	1,598496
3,089167	0,1	1,580685
3,090833	0,1	1,602993
3,092500	0,1	1,625127
3,094167	0,1	1,608744
3,095833	0,1	1,560987
3,097500	0,1	1,582253
3,099167	0,1	1,562211
3,100833	0,1	1,577814
3,102500	0,1	1,578898
3,104167	0,1	1,595713
3,105833	0,1	1,596142
3,107500	0,1	1,625264
3,109167	0,1	1,626075
3,110833	0,1	1,637016
3,112500	0,1	1,602259
3,114167	0,1	1,585976
3,115833	0,1	1,585042
3,117500	0,1	1,633716
3,119167	0,1	1,681831
3,120833	0,1	1,634649
3,122500	0,1	1,687055
3,124167	0,1	1,680753
3,125833	0,1	1,675104
3,127500	0,1	1,692287
3,129167	0,1	1,713324
3,130833	0,1	1,675972
3,132500	0,1	1,708749
3,134167	0,1	1,735762
3,135833	0,1	1,711827
3,137500	0,1	1,730811
3,139167	0,1	1,753295
3,140833	0,1	1,746841
3,142500	0,1	1,756302
3,144167	0,1	1,752292
3,145833	0,1	1,807906
3,147500	0,1	1,825046
3,149167	0,1	1,797467
3,150833	0,1	1,812576
3,152500	0,1	1,844520
3,154167	0,1	1,820250
3,155833	0,1	1,831976
3,157500	0,1	1,879619
3,159167	0,1	1,831499
3,160833	0,1	1,897724
3,162500	0,1	1,884350
3,164167	0,1	1,903044
3,165833	0,1	1,857571
3,167500	0,1	1,919937
3,169167	0,1	1,916088
3,170833	0,1	1,886710
3,172500	0,1	1,930401
3,174167	0,1	1,903823
3,175833	0,1	1,933192
3,177500	0,1	1,916873
3,179167	0,1	1,966149
3,180833	0,1	1,938072
3,182500	0,1	1,907488
3,184167	0,1	1,949090
3,185833	0,1	1,959128
3,187500	0,1	1,980765
3,189167	0,1	1,962291
3,190833	0,1	1,967520
3,192500	0,1	1,980982
3,194167	0,1	1,914236
3,195833	0,1	1,999953
3,197500	0,1	1,973687
3,199167	0,1	1,982058
3,200833	0,1	1,945814
3,202500	0,1	1,956054
3,204167	0,1	1,938214
3,205833	0,1	1,922820
3,207500	0,1	1,957553
3,209167	0,1	1,944095
3,210833	0,1	1,918239
3,212500	0,1	1,919800
3,214167	0,1	1,929046
3,215833	0,1	1,930841
3,217500	0,1	1,906489
3,219167	0,1	1,905540
3,220833	0,1	1,895234
3,222500	0,1	1,888931
3,224167	0,1	1,887718
3,225833	0,1	1,868734
3,227500	0,1	1,836499
3,229167	0,1	1,840301
3,230833	0,1	1,852471
3,232500	0,1	1,830549
3,234167	0,1	1,846884
3,235833	0,1	1,817454
3,237500	0,1	1,804349
3,239167	0,1	1,805915
3,240833	0,1	1,774062
3,242500	0,1	1,763459
3,244167	0,1	1,767043
3,245833	0,1	1,723354
3,247500	0,1	1,733955
3,249167	0,1	1,768550
3,250833	0,1	1,702877
3,252500	0,1	1,675692
3,254167	0,1	1,678651
3,255833	0,1	1,664013
3,257500	0,1	1,676238
3,259167	0,1	1,647669
3,260833	0,1	1,615467
3,262500	0,1	1,612675
3,264167	0,1	1,643969
3,265833	0,1	1,637893
3,267500	0,1	1,622848
3,269167	0,1	1,588994
3,270833	0,1	1,585628
3,272500	0,1	1,538372
3,274167	0,1	1,521353
3,275833	0,1	1,527582
3,277500	0,1	1,496031
3,279167	0,1	1,510891
3,280833	0,1	1,505099
3,282500	0,1	1,459038
3,284167	0,1	1,486192
3,285833	0,1	1,443992
3,287500	0,1	1,439624
3,289167	0,1	1,396338
3,290833	0,1	1,436599
3,292500	0,1	1,404297
3,294167	0,1	1,393754
3,295833	0,1	1,376013
3,297500	0,1	1,392187
3,299167	0,1	1,367896
3,300833	0,1	1,328779
3,302500	0,1	1,309392
3,304167	0,1	1,327443
3,305833	0,1	1,341253
3,307500	0,1	1,289171
3,309167	0,1	1,288311
3,310833	0,1	1,263127
3,312500	0,1	1,293235
3,314167	0,1	1,285873
3,315833	0,1	1,261569
3,317500	0,1	1,235905
3,319167	0,1	1,211580
3,320833	0,1	1,199465
3,322500	0,1	1,241701
3,324167	0,1	1,222050
3,325833	0,1	1,221027
3,327500	0,1	1,188019
3,329167	0,1	1,165883
3,330833	0,1	1,184625
3,332500	0,1	1,164221
3,334167	0,1	1,135485
3,335833	0,1	1,142574
3,337500	0,1	1,171529
3,339167	0,1	1,135044
3,340833	0,1	1,153310
3,342500	0,1	1,130442
3,344167	0,1	1,112911
3,345833	0,1	1,131832
3,347500	0,1	1,104971
3,349167	0,1	1,122662
3,350833	0,1	1,085828
3,352500	0,1	1,049614
3,354167	0,1	1,065244
3,355833	0,1	1,102850
3,357500	0,1	1,050395
3,359167	0,1	1,090576
3,360833	0,1	1,063790
3,362500	0,1	1,056751
3,364167	0,1	1,054420
3,365833	0,1	1,027582
3,367500	0,1	1,032255
3,369167	0,1	1,002645
3,370833	0,1	1,029300
3,372500	0,1	1,046030
3,374167	0,1	1,009014
3,375833	0,1	0,997406
3,377500	0,1	1,004790
3,379167	0,1	1,018742
3,380833	0,1	0,958993
3,382500	0,1	0,966790
3,384167	0,1	0,962778
3,385833	0,1	1,018089
3,387500	0,1	0,991421
3,389167	0,1	0,948790
3,390833	0,1	0,982156
3,392500	0,1	0,985557
3,394167	0,1	0,958347
3,395833	0,1	0,971377
3,397500	0,1	0,972294
3,399167	0,1	0,968032
3,400833	0,1	0,967322
3,402500	0,1	0,959828
3,404167	0,1	0,981295
3,405833	0,1	1,000616
3,407500	0,1	0,965845
3,409167	0,1	0,984001
3,410833	0,1	0,954242
3,412500	0,1	0,956385
3,414167	0,1	0,943416
3,415833	0,1	0,954255
3,417500	0,1	0,980361
3,419167	0,1	0,955064
3,420833	0,1	0,951464
3,422500	0,1	0,985218
3,424167	0,1	0,991147
3,425833	0,1	0,938321
3,427500	0,1	0,926666
3,429167	0,1	0,938264
3,430833	0,1	0,931458
3,432500	0,1	0,941698
3,434167	0,1	0,949507
3,435833	0,1	0,923365
3,437500	0,1	0,958393
3,439167	0,1	0,931882
3,440833	0,1	0,971616
3,442500	0,1	0,961071
3,444167	0,1	0,935297
3,445833	0,1	0,929947
3,447500	0,1	0,927549
3,449167	0,1	0,912780
3,450833	0,1	0,946464
3,452500	0,1	0,937578
3,454167	0,1	0,934317
3,455833	0,1	0,922494
3,457500	0,1	0,924799
3,459167	0,1	0,910629
3,460833	0,1	0,952342
3,462500	0,1	0,943349
3,464167	0,1	0,924649
3,465833	0,1	0,925575
3,467500	0,1	0,957822
3,469167	0,1	0,931595
3,470833	0,1	0,920811
3,472500	0,1	0,949659
3,474167	0,1	0,971621
3,475833	0,1	0,956257
3,477500	0,1	0,969627
3,479167	0,1	0,974753
3,480833	0,1	0,948985
3,482500	0,1	1,000786
3,484167	0,1	0,940031
3,485833	0,1	0,954099
3,487500	0,1	1,014005
3,489167	0,1	0,956888
3,490833	0,1	0,953170
3,492500	0,1	0,993423
3,494167	0,1	0,964066
3,495833	0,1	0,968919
3,497500	0,1	0,978700
3,499167	0,1	0,960360
3,500833	0,1	0,947625
3,502500	0,1	0,961264
3,504167	0,1	0,989610
3,505833	0,1	0,989904
3,507500	0,1	0,980634
3,509167	0,1	0,995757
3,510833	0,1	0,995274
3,512500	0,1	0,976622
3,514167	0,1	1,039895
3,515833	0,1	0,990427
3,517500	0,1	0,972696
3,519167	0,1	0,999925
3,520833	0,1	0,960255
3,522500	0,1	0,998304
3,524167	0,1	1,032225
3,525833	0,1	1,001604
3,527500	0,1	1,005410
3,529167	0,1	1,013220
3,530833	0,1	0,985187
3,532500	0,1	1,038767
3,534167	0,1	1,021832
3,535833	0,1	1,026354
3,537500	0,1	1,032521
3,539167	0,1	1,028951
3,540833	0,1	0,998408
3,542500	0,1	1,035154
3,544167	0,1	1,004554
3,545833	0,1	1,024309
3,547500	0,1	0,981019
3,549167	0,1	1,032333
3,550833	0,1	1,021655
3,552500	0,1	0,996941
3,554167	0,1	0,980482
3,555833	0,1	1,020709
3,557500	0,1	1,024291
3,559167	0,1	0,967468
3,560833	0,1	1,029158
3,562500	0,1	0,983237
3,564167	0,1	1,006049
3,565833	0,1	1,012266
3,567500	0,1	0,963739
3,569167	0,1	1,036676
3,570833	0,1	0,980911
3,572500	0,1	0,978789
3,574167	0,1	0,978303
3,575833	0,1	0,968456
3,577500	0,1	0,995887
3,579167	0,1	1,000864
3,580833	0,1	0,978619
3,582500	0,1	0,985134
3,584167	0,1	0,935412
3,585833	0,1	0,941409
3,587500	0,1	0,979514
3,589167	0,1	0,969033
3,590833	0,1	0,953595
3,592500	0,1	0,978210
3,594167	0,1	0,995714
3,595833	0,1	0,935216
3,597500	0,1	0,964165
3,599167	0,1	0,953992
3,600833	0,1	0,951218
3,602500	0,1	0,895242
3,604167	0,1	0,918560
3,605833	0,1	0,916482
3,607500	0,1	0,925886
3,609167	0,1	0,889475
3,610833	0,1	0,910974
3,612500	0,1	0,872660
3,614167	0,1	0,918977
3,615833	0,1	0,911007
3,617500	0,1	0,898629
3,619167	0,1	0,879269
3,620833	0,1	0,886051
3,622500	0,1	0,902392
3,624167	0,1	0,939141
3,625833	0,1	0,892364
3,627500	0,1	0,856135
3,629167	0,1	0,897884
3,630833	0,1	0,860885
3,632500	0,1	0,819661
3,634167	0,1	0,851799
3,635833	0,1	0,848882
3,637500	0,1	0,860362
3,639167	0,1	0,881084
3,640833	0,1	0,849936
3,642500	0,1	0,851570
3,644167	0,1	0,865507
3,645833	0,1	0,838307
3,647500	0,1	0,846199
3,649167	0,1	0,820131
3,650833	0,1	0,816056
3,652500	0,1	0,854816
3,654167	0,1	0,853763
3,655833	0,1	0,811039
3,657500	0,1	0,794091
3,659167	0,1	0,822728
3,660833	0,1	0,784161
3,662500	0,1	0,796013
3,664167	0,1	0,801737
3,665833	0,1	0,775642
3,667500	0,1	0,798399
3,669167	0,1	0,771101
3,670833	0,1	0,792153
3,672500	0,1	0,817559
3,674167	0,1	0,749053
3,675833	0,1	0,752065
3,677500	0,1	0,770001
3,679167	0,1	0,779398
3,680833	0,1	0,792405
3,682500	0,1	0,771546
3,684167	0,1	0,759720
3,685833	0,1	0,780513
3,687500	0,1	0,735555
3,689167	0,1	0,743679
3,690833	0,1	0,759702
3,692500	0,1	0,743767
3,694167	0,1	0,728505
3,695833	0,1	0,744637
3,697500	0,1	0,750808
3,699167	0,1	0,755215
3,700833	0,1	0,718866
3,702500	0,1	0,720338
3,704167	0,1	0,742733
3,705833	0,1	0,758863
3,707500	0,1	0,678856
3,709167	0,1	0,720290
3,710833	0,1	0,726607
3,712500	0,1	0,726152
3,714167	0,1	0,711880
3,715833	0,1	0,752046
3,717500	0,1	0,739686
3,719167	0,1	0,752800
3,720833	0,1	0,702536
3,722500	0,1	0,724061
3,724167	0,1	0,709830
3,725833	0,1	0,729809
3,727500	0,1	0,712524
3,729167	0,1	0,716992
3,730833	0,1	0,687389
3,732500	0,1	0,716083
3,734167	0,1	0,732420
3,735833	0,1	0,704112
3,737500	0,1	0,708569
3,739167	0,1	0,742730
3,740833	0,1	0,714977
3,742500	0,1	0,719078
3,744167	0,1	0,720907
3,745833	0,1	0,723896
3,747500	0,1	0,760957
3,749167	0,1	0,729309
3,750833	0,1	0,741041
3,752500	0,1	0,737177
3,754167	0,1	0,743996
3,755833	0,1	0,755213
3,757500	0,1	0,732391
3,759167	0,1	0,715516
3,760833	0,1	0,767645
3,762500	0,1	0,740332
3,764167	0,1	0,747880
3,765833	0,1	0,754691
3,767500	0,1	0,723653
3,769167	0,1	0,739324
3,770833	0,1	0,744443
3,772500	0,1	0,744863
3,774167	0,1	0,738239
3,775833	0,1	0,756787
3,777500	0,1	0,772405
3,779167	0,1	0,736448
3,780833	0,1	0,803258
3,782500	0,1	0,763388
3,784167	0,1	0,777260
3,785833	0,1	0,748309
3,787500	0,1	0,769124
3,789167	0,1	0,787362
3,790833	0,1	0,823646
3,792500	0,1	0,784226
3,794167	0,1	0,792156
3,795833	0,1	0,771546
3,797500	0,1	0,793399
3,799167	0,1	0,797969
3,800833	0,1	0,780559
3,802500	0,1	0,815968
3,804167	0,1	0,777193
3,805833	0,1	0,802662
3,807500	0,1	0,825682
3,809167	0,1	0,801809
3,810833	0,1	0,795596
3,812500	0,1	0,834930
3,814167	0,1	0,805891
3,815833	0,1	0,830184
3,817500	0,1	0,804158
3,819167	0,1	0,841822
3,820833	0,1	0,851526
3,822500	0,1	0,846178
3,824167	0,1	0,810853
3,825833	0,1	0,860601
3,827500	0,1	0,858974
3,829167	0,1	0,836850
3,830833	0,1	0,866972
3,832500	0,1	0,849436
3,834167	0,1	0,877816
3,835833	0,1	0,850775
3,837500	0,1	0,846295
3,839167	0,1	0,867395
3,840833	0,1	0,854251
3,842500	0,1	0,901567
3,844167	0,1	0,897944
3,845833	0,1	0,872823
3,847500	0,1	0,898448
3,849167	0,1	0,909756
3,850833	0,1	0,881541
3,852500	0,1	0,868492
3,854167	0,1	0,857597
3,855833	0,1	0,853226
3,857500	0,1	0,876357
3,859167	0,1	0,849109
3,860833	0,1	0,868798
3,862500	0,1	0,886715
3,864167	0,1	0,859689
3,865833	0,1	0,920067
3,867500	0,1	0,904198
3,869167	0,1	0,914087
3,870833	0,1	0,901977
3,872500	0,1	0,902221
3,874167	0,1	0,845900
3,875833	0,1	0,854180
3,877500	0,1	0,907199
3,879167	0,1	0,894242
3,880833	0,1	0,859963
3,882500	0,1	0,867333
3,884167	0,1	0,901019
3,885833	0,1	0,860046
3,887500	0,1	0,848199
3,889167	0,1	0,880306
3,890833	0,1	0,840949
3,892500	0,1	0,847172
3,894167	0,1	0,886001
3,895833	0,1	0,860933
3,897500	0,1	0,852569
3,899167	0,1	0,842964
3,900833	0,1	0,841230
3,902500	0,1	0,836359
3,904167	0,1	0,836319
3,905833	0,1	0,849192
3,907500	0,1	0,858287
3,909167	0,1	0,843556
3,910833	0,1	0,859730
3,912500	0,1	0,811645
3,914167	0,1	0,858014
3,915833	0,1	0,811526
3,917500	0,1	0,875285
3,919167	0,1	0,772249
3,920833	0,1	0,819536
3,922500	0,1	0,816305
3,924167	0,1	0,836615
3,925833	0,1	0,853035
3,927500	0,1	0,821509
3,929167	0,1	0,831473
3,930833	0,1	0,796090
3,932500	0,1	0,778880
3,934167	0,1	0,803555
3,935833	0,1	0,803823
3,937500	0,1	0,816288
3,939167	0,1	0,794892
3,940833	0,1	0,774696
3,942500	0,1	0,809353
3,944167	0,1	0,791544
3,945833	0,1	0,778290
3,947500	0,1	0,784309
3,949167	0,1	0,769169
3,950833	0,1	0,792243
3,952500	0,1	0,783158
3,954167	0,1	0,790096
3,955833	0,1	0,771611
3,957500	0,1	0,796744
3,959167	0,1	0,732466
3,960833	0,1	0,711529
3,962500	0,1	0,713005
3,964167	0,1	0,749906
3,965833	0,1	0,736116
3,967500	0,1	0,734445
3,969167	0,1	0,780467
3,970833	0,1	0,705122
3,972500	0,1	0,737691
3,974167	0,1	0,740427
3,975833	0,1	0,713300
3,977500	0,1	0,738521
3,979167	0,1	0,714623
3,980833	0,1	0,715734
3,982500	0,1	0,717532
3,984167	0,1	0,725311
3,985833	0,1	0,741960
3,987500	0,1	0,715806
3,989167	0,1	0,679936
3,990833	0,1	0,697571
3,992500	0,1	0,713094
3,994167	0,1	0,694206
3,995833	0,1	0,699178
3,997500	0,1	0,674660
3,999167	0,1	0,681762
4,000833	0,1	0,709624
4,002500	0,1	0,721192
4,004167	0,1	0,685649
4,005833	0,1	0,627877
4,007500	0,1	0,665747
4,009167	0,1	0,681565
4,010833	0,1	0,690502
4,012500	0,1	0,690409
4,014167	0,1	0,661264
4,015833	0,1	0,630631
4,017500	0,1	0,708617
4,019167	0,1	0,716023
4,020833	0,1	0,696965
4,022500	0,1	0,697603
4,024167	0,1	0,730366
4,025833	0,1	0,732424
4,027500	0,1	0,691734
4,029167	0,1	0,701952
4,030833	0,1	0,713515
4,032500	0,1	0,689614
4,034167	0,1	0,699632
4,035833	0,1	0,739895
4,037500	0,1	0,692804
4,039167	0,1	0,678618
4,040833	0,1	0,747222
4,042500	0,1	0,758402
4,044167	0,1	0,722341
4,045833	0,1	0,763212
4,047500	0,1	0,767275
4,049167	0,1	0,725231
4,050833	0,1	0,757835
4,052500	0,1	0,770645
4,054167	0,1	0,794909
4,055833	0,1	0,801867
4,057500	0,1	0,809387
4,059167	0,1	0,808522
4,060833	0,1	0,791703
4,062500	0,1	0,809148
4,064167	0,1	0,790140
4,065833	0,1	0,841124
4,067500	0,1	0,862340
4,069167	0,1	0,869328
4,070833	0,1	0,865116
4,072500	0,1	0,894051
4,074167	0,1	0,921445
4,075833	0,1	0,890678
4,077500	0,1	0,900224
4,079167	0,1	0,914218
4,080833	0,1	0,982259
4,082500	0,1	0,917255
4,084167	0,1	0,959393
4,085833	0,1	0,963798
4,087500	0,1	0,993848
4,089167	0,1	0,960140
4,090833	0,1	1,007221
4,092500	0,1	1,002817
4,094167	0,1	1,052610
4,095833	0,1	1,053465
4,097500	0,1	1,083257
4,099167	0,1	1,089940
4,100833	0,1	1,062127
4,102500	0,1	1,124676
4,104167	0,1	1,152182
4,105833	0,1	1,152094
4,107500	0,1	1,161667
4,109167	0,1	1,158491
4,110833	0,1	1,230513
4,112500	0,1	1,215881
4,114167	0,1	1,220096
4,115833	0,1	1,246934
4,117500	0,1	1,245299
4,119167	0,1	1,291011
4,120833	0,1	1,257097
4,122500	0,1	1,325431
4,124167	0,1	1,345098
4,125833	0,1	1,359046
4,127500	0,1	1,387320
4,129167	0,1	1,396203
4,130833	0,1	1,359648
4,132500	0,1	1,375415
4,134167	0,1	1,448033
4,135833	0,1	1,458010
4,137500	0,1	1,459491
4,139167	0,1	1,485495
4,140833	0,1	1,523699
4,142500	0,1	1,535011
4,144167	0,1	1,506653
4,145833	0,1	1,544666
4,147500	0,1	1,570219
4,149167	0,1	1,604417
4,150833	0,1	1,612971
4,152500	0,1	1,599366
4,154167	0,1	1,632420
4,155833	0,1	1,609447
4,157500	0,1	1,651758
4,159167	0,1	1,661350
4,160833	0,1	1,644812
4,162500	0,1	1,711684
4,164167	0,1	1,716558
4,165833	0,1	1,729646
4,167500	0,1	1,737457
4,169167	0,1	1,736180
4,170833	0,1	1,777276
4,172500	0,1	1,763241
4,174167	0,1	1,778632
4,175833	0,1	1,793401
4,177500	0,1	1,775278
4,179167	0,1	1,835419
4,180833	0,1	1,811932
4,182500	0,1	1,823680
4,184167	0,1	1,841160
4,185833	0,1	1,836079
4,187500	0,1	1,865868
4,189167	0,1	1,820535
4,190833	0,1	1,814072
4,192500	0,1	1,880041
4,194167	0,1	1,875323
4,195833	0,1	1,845460
4,197500	0,1	1,925244
4,199167	0,1	1,857870
4,200833	0,1	1,831348
4,202500	0,1	1,855761
4,204167	0,1	1,912987
4,205833	0,1	1,877271
4,207500	0,1	1,867232
4,209167	0,1	1,880112
4,210833	0,1	1,855058
4,212500	0,1	1,860431
4,214167	0,1	1,874462
4,215833	0,1	1,942071
4,217500	0,1	1,884801
4,219167	0,1	1,860719
4,220833	0,1	1,892579
4,222500	0,1	1,855131
4,224167	0,1	1,832769
4,225833	0,1	1,861004
4,227500	0,1	1,864655
4,229167	0,1	1,865077
4,230833	0,1	1,856782
4,232500	0,1	1,836995
4,234167	0,1	1,872683
4,235833	0,1	1,853128
4,237500	0,1	1,818254
4,239167	0,1	1,824614
4,240833	0,1	1,813661
4,242500	0,1	1,807066
4,244167	0,1	1,809790
4,245833	0,1	1,779008
4,247500	0,1	1,782286
4,249167	0,1	1,799480
4,250833	0,1	1,810727
4,252500	0,1	1,757659
4,254167	0,1	1,800903
4,255833	0,1	1,763891
4,257500	0,1	1,731189
4,259167	0,1	1,739261
4,260833	0,1	1,725932
4,262500	0,1	1,706532
4,264167	0,1	1,739551
4,265833	0,1	1,709826
4,267500	0,1	1,691641
4,269167	0,1	1,665224
4,270833	0,1	1,684354
4,272500	0,1	1,650199
4,274167	0,1	1,660142
4,275833	0,1	1,683273
4,277500	0,1	1,619984
4,279167	0,1	1,590696
4,280833	0,1	1,608400
4,282500	0,1	1,592983
4,284167	0,1	1,592496
4,285833	0,1	1,540592
4,287500	0,1	1,596128
4,289167	0,1	1,549402
4,290833	0,1	1,539745
4,292500	0,1	1,520423
4,294167	0,1	1,549615
4,295833	0,1	1,530385
4,297500	0,1	1,516051
4,299167	0,1	1,507044
4,300833	0,1	1,506672
4,302500	0,1	1,434460
4,304167	0,1	1,473967
4,305833	0,1	1,464661
4,307500	0,1	1,457588
4,309167	0,1	1,420231
4,310833	0,1	1,430839
4,312500	0,1	1,425525
4,314167	0,1	1,377376
4,315833	0,1	1,393339
4,317500	0,1	1,367372
4,319167	0,1	1,367093
4,320833	0,1	1,355575
4,322500	0,1	1,297033
4,324167	0,1	1,340399
4,325833	0,1	1,337681
4,327500	0,1	1,288526
4,329167	0,1	1,317496
4,330833	0,1	1,306764
4,332500	0,1	1,266501
4,334167	0,1	1,286088
4,335833	0,1	1,252778
4,337500	0,1	1,249131
4,339167	0,1	1,236681
4,340833	0,1	1,220283
4,342500	0,1	1,227751
4,344167	0,1	1,206124
4,345833	0,1	1,195469
4,347500	0,1	1,207134
4,349167	0,1	1,198282
4,350833	0,1	1,184835
4,352500	0,1	1,149248
4,354167	0,1	1,180702
4,355833	0,1	1,153504
4,357500	0,1	1,123545
4,359167	0,1	1,175183
4,360833	0,1	1,112639
4,362500	0,1	1,107008
4,364167	0,1	1,125887
4,365833	0,1	1,096055
4,367500	0,1	1,075924
4,369167	0,1	1,107041
4,370833	0,1	1,063551
4,372500	0,1	1,111496
4,374167	0,1	1,045230
4,375833	0,1	1,072585
4,377500	0,1	1,025567
4,379167	0,1	1,042767
4,380833	0,1	1,006839
4,382500	0,1	0,996075
4,384167	0,1	1,026768
4,385833	0,1	1,010540
4,387500	0,1	1,016325
4,389167	0,1	0,975297
4,390833	0,1	1,020421
4,392500	0,1	0,973346
4,394167	0,1	0,955170
4,395833	0,1	0,966742
4,397500	0,1	0,987993
4,399167	0,1	0,950053
4,400833	0,1	0,931214
4,402500	0,1	0,939196
4,404167	0,1	0,922407
4,405833	0,1	0,932608
4,407500	0,1	0,905932
4,409167	0,1	0,891712
4,410833	0,1	0,898139
4,412500	0,1	0,896080
4,414167	0,1	0,889293
4,415833	0,1	0,877338
4,417500	0,1	0,890617
4,419167	0,1	0,892599
4,420833	0,1	0,881956
4,422500	0,1	0,894460
4,424167	0,1	0,873284
4,425833	0,1	0,847141
4,427500	0,1	0,811261
4,429167	0,1	0,833413
4,430833	0,1	0,840031
4,432500	0,1	0,873650
4,434167	0,1	0,843322
4,435833	0,1	0,821429
4,437500	0,1	0,821711
4,439167	0,1	0,789397
4,440833	0,1	0,821403
4,442500	0,1	0,803697
4,444167	0,1	0,806841
4,445833	0,1	0,808062
4,447500	0,1	0,758547
4,449167	0,1	0,814061
4,450833	0,1	0,743910
4,452500	0,1	0,760580
4,454167	0,1	0,779896
4,455833	0,1	0,818449
4,457500	0,1	0,736683
4,459167	0,1	0,733607
4,460833	0,1	0,755657
4,462500	0,1	0,697712
4,464167	0,1	0,737454
4,465833	0,1	0,720464
4,467500	0,1	0,722163
4,469167	0,1	0,759224
4,470833	0,1	0,702212
4,472500	0,1	0,702038
4,474167	0,1	0,714857
4,475833	0,1	0,667826
4,477500	0,1	0,711028
4,479167	0,1	0,665118
4,480833	0,1	0,672659
4,482500	0,1	0,675867
4,484167	0,1	0,632015
4,485833	0,1	0,654650
4,487500	0,1	0,644286
4,489167	0,1	0,638657
4,490833	0,1	0,592099
4,492500	0,1	0,675147
4,494167	0,1	0,641105
4,495833	0,1	0,608448
4,497500	0,1	0,603659
4,499167	0,1	0,617985
4,500833	0,1	0,627503
4,502500	0,1	0,605401
4,504167	0,1	0,598482
4,505833	0,1	0,604263
4,507500	0,1	0,610949
4,509167	0,1	0,607160
4,510833	0,1	0,607862
4,512500	0,1	0,612396
4,514167	0,1	0,596491
4,515833	0,1	0,564779
4,517500	0,1	0,569879
4,519167	0,1	0,605154
4,520833	0,1	0,560380
4,522500	0,1	0,540771
4,524167	0,1	0,557278
4,525833	0,1	0,528789
4,527500	0,1	0,529199
4,529167	0,1	0,542339
4,530833	0,1	0,526247
4,532500	0,1	0,502793
4,534167	0,1	0,504619
4,535833	0,1	0,546317
4,537500	0,1	0,523100
4,539167	0,1	0,502825
4,540833	0,1	0,456275
4,542500	0,1	0,489156
4,544167	0,1	0,451037
4,545833	0,1	0,500624
4,547500	0,1	0,493312
4,549167	0,1	0,503653
4,550833	0,1	0,514771
4,552500	0,1	0,463765
4,554167	0,1	0,454147
4,555833	0,1	0,525133
4,557500	0,1	0,492963
4,559167	0,1	0,450076
4,560833	0,1	0,476277
4,562500	0,1	0,447566
4,564167	0,1	0,449681
4,565833	0,1	0,443418
4,567500	0,1	0,474347
4,569167	0,1	0,455018
4,570833	0,1	0,400219
4,572500	0,1	0,432518
4,574167	0,1	0,377958
4,575833	0,1	0,409868
4,577500	0,1	0,454104
4,579167	0,1	0,386667
4,580833	0,1	0,402099
4,582500	0,1	0,424683
4,584167	0,1	0,377770
4,585833	0,1	0,415521
4,587500	0,1	0,410427
4,589167	0,1	0,374486
4,590833	0,1	0,391113
4,592500	0,1	0,361864
4,594167	0,1	0,386290
4,595833	0,1	0,358622
4,597500	0,1	0,356718
4,599167	0,1	0,405303
4,600833	0,1	0,406663
4,602500	0,1	0,362925
4,604167	0,1	0,370785
4,605833	0,1	0,360157
4,607500	0,1	0,348814
4,609167	0,1	0,326334
4,610833	0,1	0,368171
4,612500	0,1	0,333657
4,614167	0,1	0,367467
4,615833	0,1	0,369980
4,617500	0,1	0,409356
4,619167	0,1	0,329504
4,620833	0,1	0,322864
4,622500	0,1	0,349454
4,624167	0,1	0,324830
4,625833	0,1	0,310236
4,627500	0,1	0,346685
4,629167	0,1	0,346948
4,630833	0,1	0,313976
4,632500	0,1	0,348231
4,634167	0,1	0,280964
4,635833	0,1	0,283770
4,637500	0,1	0,352175
4,639167	0,1	0,320951
4,640833	0,1	0,321324
4,642500	0,1	0,326235
4,644167	0,1	0,262274
4,645833	0,1	0,303364
4,647500	0,1	0,325208
4,649167	0,1	0,303471
4,650833	0,1	0,280628
4,652500	0,1	0,299671
4,654167	0,1	0,291100
4,655833	0,1	0,291841
4,657500	0,1	0,284968
4,659167	0,1	0,260955
4,660833	0,1	0,276550
4,662500	0,1	0,278343
4,664167	0,1	0,265221
4,665833	0,1	0,286796
4,667500	0,1	0,268307
4,669167	0,1	0,270492
4,670833	0,1	0,233394
4,672500	0,1	0,228813
4,674167	0,1	0,269061
4,675833	0,1	0,262362
4,677500	0,1	0,220890
4,679167	0,1	0,255224
4,680833	0,1	0,222992
4,682500	0,1	0,291661
4,684167	0,1	0,308736
4,685833	0,1	0,264270
4,687500	0,1	0,277933
4,689167	0,1	0,231230
4,690833	0,1	0,224633
4,692500	0,1	0,261330
4,694167	0,1	0,249003
4,695833	0,1	0,232468
4,697500	0,1	0,255353
4,699167	0,1	0,274369
4,700833	0,1	0,203318
4,702500	0,1	0,251140
4,704167	0,1	0,247601
4,705833	0,1	0,211257
4,707500	0,1	0,207648
4,709167	0,1	0,210467
4,710833	0,1	0,248573
4,712500	0,1	0,241331
4,714167	0,1	0,239630
4,715833	0,1	0,253465
4,717500	0,1	0,211471
4,719167	0,1	0,177851
4,720833	0,1	0,212965
4,722500	0,1	0,226228
4,724167	0,1	0,194937
4,725833	0,1	0,208286
4,727500	0,1	0,219014
4,729167	0,1	0,192202
4,730833	0,1	0,216542
4,732500	0,1	0,195739
4,734167	0,1	0,207128
4,735833	0,1	0,223406
4,737500	0,1	0,205232
4,739167	0,1	0,170349
4,740833	0,1	0,208568
4,742500	0,1	0,183275
4,744167	0,1	0,190923
4,745833	0,1	0,211243
4,747500	0,1	0,193875
4,749167	0,1	0,187639
4,750833	0,1	0,178173
4,752500	0,1	0,206128
4,754167	0,1	0,195674
4,755833	0,1	0,173063
4,757500	0,1	0,200186
4,759167	0,1	0,193193
4,760833	0,1	0,197534
4,762500	0,1	0,199864
4,764167	0,1	0,144614
4,765833	0,1	0,204296
4,767500	0,1	0,169127
4,769167	0,1	0,167758
4,770833	0,1	0,202740
4,772500	0,1	0,196957
4,774167	0,1	0,205629
4,775833	0,1	0,167264
4,777500	0,1	0,195300
4,779167	0,1	0,139885
4,780833	0,1	0,158512
4,782500	0,1	0,139798
4,784167	0,1	0,157391
4,785833	0,1	0,139046
4,787500	0,1	0,196326
4,789167	0,1	0,168609
4,790833	0,1	0,172931
4,792500	0,1	0,163177
4,794167	0,1	0,159097
4,795833	0,1	0,155370
4,797500	0,1	0,177749
4,799167	0,1	0,168088
4,800833	0,1	0,135409
4,802500	0,1	0,142360
4,804167	0,1	0,149995
4,805833	0,1	0,138302
4,807500	0,1	0,201021
4,809167	0,1	0,109742
4,810833	0,1	0,168916
4,812500	0,1	0,145922
4,814167	0,1	0,117102
4,815833	0,1	0,152188
4,817500	0,1	0,129691
4,819167	0,1	0,166542
4,820833	0,1	0,166237
4,822500	0,1	0,136051
4,824167	0,1	0,147887
4,825833	0,1	0,141057
4,827500	0,1	0,138174
4,829167	0,1	0,126103
4,830833	0,1	0,177868
4,832500	0,1	0,164727
4,834167	0,1	0,151582
4,835833	0,1	0,133706
4,837500	0,1	0,171011
4,839167	0,1	0,135119
4,840833	0,1	0,130946
4,842500	0,1	0,155050
4,844167	0,1	0,157498
4,845833	0,1	0,150751
4,847500	0,1	0,168886
4,849167	0,1	0,151912
4,850833	0,1	0,104821
4,852500	0,1	0,120318
4,854167	0,1	0,135977
4,855833	0,1	0,149562
4,857500	0,1	0,164229
4,859167	0,1	0,159677
4,860833	0,1	0,121035
4,862500	0,1	0,159829
4,864167	0,1	0,145224
4,865833	0,1	0,125275
4,867500	0,1	0,124424
4,869167	0,1	0,133433
4,870833	0,1	0,112889
4,872500	0,1	0,143654
4,874167	0,1	0,128068
4,875833	0,1	0,148050
4,877500	0,1	0,127865
4,879167	0,1	0,155440
4,880833	0,1	0,115813
4,882500	0,1	0,109142
4,884167	0,1	0,105743
4,885833	0,1	0,123198
4,887500	0,1	0,101566
4,889167	0,1	0,123839
4,890833	0,1	0,124565
4,892500	0,1	0,142648
4,894167	0,1	0,139606
4,895833	0,1	0,096123
4,897500	0,1	0,095863
4,899167	0,1	0,164294
4,900833	0,1	0,126109
4,902500	0,1	0,124879
4,904167	0,1	0,114983
4,905833	0,1	0,098372
4,907500	0,1	0,127791
4,909167	0,1	0,115664
4,910833	0,1	0,128023
4,912500	0,1	0,148833
4,914167	0,1	0,108154
4,915833	0,1	0,163906
4,917500	0,1	0,091469
4,919167	0,1	0,102239
4,920833	0,1	0,118250
4,922500	0,1	0,114691
4,924167	0,1	0,143263
4,925833	0,1	0,128381
4,927500	0,1	0,114155
4,929167	0,1	0,153220
4,930833	0,1	0,097909
4,932500	0,1	0,121083
4,934167	0,1	0,152088
4,935833	0,1	0,133252
4,937500	0,1	0,116120
4,939167	0,1	0,149682
4,940833	0,1	0,139836
4,942500	0,1	0,144311
4,944167	0,1	0,111779
4,945833	0,1	0,143904
4,947500	0,1	0,121508
4,949167	0,1	0,179316
4,950833	0,1	0,109799
4,952500	0,1	0,163741
4,954167	0,1	0,114288
4,955833	0,1	0,136139
4,957500	0,1	0,118837
4,959167	0,1	0,135936
4,960833	0,1	0,160828
4,962500	0,1	0,117144
4,964167	0,1	0,142725
4,965833	0,1	0,169589
4,967500	0,1	0,128966
4,969167	0,1	0,126538
4,970833	0,1	0,137137
4,972500	0,1	0,195985
4,974167	0,1	0,157357
4,975833	0,1	0,162531
4,977500	0,1	0,106835
4,979167	0,1	0,137609
4,980833	0,1	0,097985
4,982500	0,1	0,149718
4,984167	0,1	0,148093
4,985833	0,1	0,165262
4,987500	0,1	0,146798
4,989167	0,1	0,146605
4,990833	0,1	0,151264
4,992500	0,1	0,164558
4,994167	0,1	0,177751
4,995833	0,1	0,153423
4,997500	0,1	0,170915
4,999167	0,1	0,145202
5,000833	0,1	0,144140
5,002500	0,1	0,170169
5,004167	0,1	0,119362
5,005833	0,1	0,150099
5,007500	0,1	0,183337
5,009167	0,1	0,179793
5,010833	0,1	0,162599
5,012500	0,1	0,193777
5,014167	0,1	0,160160
5,015833	0,1	0,143274
5,017500	0,1	0,156876
5,019167	0,1	0,158907
5,020833	0,1	0,128180
5,022500	0,1	0,147722
5,024167	0,1	0,167915
5,025833	0,1	0,152513
5,027500	0,1	0,144909
5,029167	0,1	0,127723
5,030833	0,1	0,180499
5,032500	0,1	0,155892
5,034167	0,1	0,182080
5,035833	0,1	0,146905
5,037500	0,1	0,160049
5,039167	0,1	0,161045
5,040833	0,1	0,176429
5,042500	0,1	0,159138
5,044167	0,1	0,196268
5,045833	0,1	0,188573
5,047500	0,1	0,222673
5,049167	0,1	0,209474
5,050833	0,1	0,166661
5,052500	0,1	0,192808
5,054167	0,1	0,177330
5,055833	0,1	0,196120
5,057500	0,1	0,201827
5,059167	0,1	0,165549
5,060833	0,1	0,186600
5,062500	0,1	0,191301
5,064167	0,1	0,188823
5,065833	0,1	0,205779
5,067500	0,1	0,229700
5,069167	0,1	0,198688
5,070833	0,1	0,194666
5,072500	0,1	0,208247
5,074167	0,1	0,254615
5,075833	0,1	0,217891
5,077500	0,1	0,201431
5,079167	0,1	0,181638
5,080833	0,1	0,201724
5,082500	0,1	0,225106
5,084167	0,1	0,219774
5,085833	0,1	0,198685
5,087500	0,1	0,234709
5,089167	0,1	0,228777
5,090833	0,1	0,229670
5,092500	0,1	0,213355
5,094167	0,1	0,238817
5,095833	0,1	0,200742
5,097500	0,1	0,247866
5,099167	0,1	0,200581
5,100833	0,1	0,237077
5,102500	0,1	0,225568
5,104167	0,1	0,211000
5,105833	0,1	0,233680
5,107500	0,1	0,206330
5,109167	0,1	0,233580
5,110833	0,1	0,207137
5,112500	0,1	0,284024
5,114167	0,1	0,249422
5,115833	0,1	0,226564
5,117500	0,1	0,248489
5,119167	0,1	0,271508
5,120833	0,1	0,265899
5,122500	0,1	0,236363
5,124167	0,1	0,243959
5,125833	0,1	0,271093
5,127500	0,1	0,245767
5,129167	0,1	0,257961
5,130833	0,1	0,209195
5,132500	0,1	0,213839
5,134167	0,1	0,243564
5,135833	0,1	0,239076
5,137500	0,1	0,242525
5,139167	0,1	0,259823
5,140833	0,1	0,257638
5,142500	0,1	0,266310
5,144167	0,1	0,239636
5,145833	0,1	0,228136
5,147500	0,1	0,217270
5,149167	0,1	0,259139
5,150833	0,1	0,235744
5,152500	0,1	0,226272
5,154167	0,1	0,223249
5,155833	0,1	0,226356
5,157500	0,1	0,259983
5,159167	0,1	0,268844
5,160833	0,1	0,232209
5,162500	0,1	0,251449
5,164167	0,1	0,220624
5,165833	0,1	0,215279
5,167500	0,1	0,223534
5,169167	0,1	0,231757
5,170833	0,1	0,225716
5,172500	0,1	0,254457
5,174167	0,1	0,201136
5,175833	0,1	0,192614
5,177500	0,1	0,218644
5,179167	0,1	0,194568
5,180833	0,1	0,224915
5,182500	0,1	0,191108
5,184167	0,1	0,214024
5,185833	0,1	0,193448
5,187500	0,1	0,194099
5,189167	0,1	0,195343
5,190833	0,1	0,215663
5,192500	0,1	0,218047
5,194167	0,1	0,231353
5,195833	0,1	0,211214
5,197500	0,1	0,217063
5,199167	0,1	0,202702
5,200833	0,1	0,189607
5,202500	0,1	0,194839
5,204167	0,1	0,187163
5,205833	0,1	0,192195
5,207500	0,1	0,178237
5,209167	0,1	0,206329
5,210833	0,1	0,217088
5,212500	0,1	0,204829
5,214167	0,1	0,200029
5,215833	0,1	0,155229
5,217500	0,1	0,204587
5,219167	0,1	0,190312
5,220833	0,1	0,141255
5,222500	0,1	0,183689
5,224167	0,1	0,193127
5,225833	0,1	0,157592
5,227500	0,1	0,183630
5,229167	0,1	0,148540
5,230833	0,1	0,178704
5,232500	0,1	0,162348
5,234167	0,1	0,179802
5,235833	0,1	0,211807
5,237500	0,1	0,152627
5,239167	0,1	0,150812
5,240833	0,1	0,204586
5,242500	0,1	0,157470
5,244167	0,1	0,143376
5,245833	0,1	0,170748
5,247500	0,1	0,172555
5,249167	0,1	0,113194
5,250833	0,1	0,135005
5,252500	0,1	0,112974
5,254167	0,1	0,168401
5,255833	0,1	0,155926
5,257500	0,1	0,144697
5,259167	0,1	0,130598
5,260833	0,1	0,120057
5,262500	0,1	0,146082
5,264167	0,1	0,140743
5,265833	0,1	0,121531
5,267500	0,1	0,140283
5,269167	0,1	0,175671
5,270833	0,1	0,131372
5,272500	0,1	0,172320
5,274167	0,1	0,121640
5,275833	0,1	0,139163
5,277500	0,1	0,145360
5,279167	0,1	0,106456
5,280833	0,1	0,127730
5,282500	0,1	0,132519
5,284167	0,1	0,117841
5,285833	0,1	0,141400
5,287500	0,1	0,176539
5,289167	0,1	0,103480
5,290833	0,1	0,112778
5,292500	0,1	0,138832
5,294167	0,1	0,128254
5,295833	0,1	0,091440
5,297500	0,1	0,090272
5,299167	0,1	0,101246
5,300833	0,1	0,105246
5,302500	0,1	0,065078
5,304167	0,1	0,117262
5,305833	0,1	0,063509
5,307500	0,1	0,076519
5,309167	0,1	0,083123
5,310833	0,1	0,105196
5,312500	0,1	0,066777
5,314167	0,1	0,066496
5,315833	0,1	0,085669
5,317500	0,1	0,093376
5,319167	0,1	0,040709
5,320833	0,1	0,085663
5,322500	0,1	0,093935
5,324167	0,1	0,084496
5,325833	0,1	0,081597
5,327500	0,1	0,070662
5,329167	0,1	0,050226
5,330833	0,1	0,077550
5,332500	0,1	0,073602
5,334167	0,1	0,102814
5,335833	0,1	0,085946
5,337500	0,1	0,081740
5,339167	0,1	0,083828
5,340833	0,1	0,064369
5,342500	0,1	0,047596
5,344167	0,1	0,053636
5,345833	0,1	0,035606
5,347500	0,1	0,061292
5,349167	0,1	0,032399
5,350833	0,1	0,069615
5,352500	0,1	0,063105
5,354167	0,1	0,023126
5,355833	0,1	0,087335
5,357500	0,1	0,063377
5,359167	0,1	0,040847
5,360833	0,1	0,038523
5,362500	0,1	0,058873
5,364167	0,1	0,073286
5,365833	0,1	0,052132
5,367500	0,1	0,068896
5,369167	0,1	0,082565
5,370833	0,1	0,038386
5,372500	0,1	0,071748
5,374167	0,1	0,055443
5,375833	0,1	0,047302
5,377500	0,1	0,051462
5,379167	0,1	0,040513
5,380833	0,1	0,066201
5,382500	0,1	0,045442
5,384167	0,1	-0,001989
5,385833	0,1	0,072403
5,387500	0,1	-0,013720
5,389167	0,1	0,001496
5,390833	0,1	0,059483
5,392500	0,1	0,017244
5,394167	0,1	0,048537
5,395833	0,1	0,016767
5,397500	0,1	0,022162
5,399167	0,1	0,039262
5,400833	0,1	0,039433
5,402500	0,1	0,040612
5,404167	0,1	0,034339
5,405833	0,1	0,005398
5,407500	0,1	0,038390
5,409167	0,1	0,020388
5,410833	0,1	0,039593
5,412500	0,1	0,043470
5,414167	0,1	-0,004061
5,415833	0,1	0,002801
5,417500	0,1	-0,007133
5,419167	0,1	0,017727
5,420833	0,1	-0,011706
5,422500	0,1	0,009796
5,424167	0,1	-0,014563
5,425833	0,1	0,020871
5,427500	0,1	0,060339
5,429167	0,1	0,011034
5,430833	0,1	0,000941
5,432500	0,1	0,021517
5,434167	0,1	-0,007045
5,435833	0,1	-0,008875
5,437500	0,1	-0,025002
5,439167	0,1	-0,033263
5,440833	0,1	0,019168
5,442500	0,1	-0,020999
5,444167	0,1	-0,065677
5,445833	0,1	0,017235
5,447500	0,1	-0,019322
5,449167	0,1	-0,028399
5,450833	0,1	-0,042061
5,452500	0,1	-0,025670
5,454167	0,1	-0,006436
5,455833	0,1	0,017106
5,457500	0,1	-0,000837
5,459167	0,1	-0,029677
5,460833	0,1	-0,007225
5,462500	0,1	-0,006535
5,464167	0,1	-0,007259
5,465833	0,1	-0,027112
5,467500	0,1	-0,002171
5,469167	0,1	-0,000882
5,470833	0,1	-0,008728
5,472500	0,1	0,024268
5,474167	0,1	-0,030561
5,475833	0,1	-0,004079
5,477500	0,1	-0,030838
5,479167	0,1	-0,017905
5,480833	0,1	-0,044502
5,482500	0,1	-0,023042
5,484167	0,1	-0,006498
5,485833	0,1	-0,011317
5,487500	0,1	-0,015728
5,489167	0,1	-0,056631
5,490833	0,1	0,001486
5,492500	0,1	-0,032718
5,494167	0,1	-0,009625
5,495833	0,1	-0,020634
5,497500	0,1	-0,034692
5,499167	0,1	-0,036326
5,500833	0,1	-0,045271
5,502500	0,1	-0,028011
5,504167	0,1	-0,041110
5,505833	0,1	-0,050344
5,507500	0,1	-0,063055
5,509167	0,1	-0,015057
5,510833	0,1	-0,024295
5,512500	0,1	-0,017115
5,514167	0,1	-0,044440
5,515833	0,1	-0,032644
5,517500	0,1	-0,027469
5,519167	0,1	-0,028586
5,520833	0,1	-0,036866
5,522500	0,1	-0,030408
5,524167	0,1	-0,023494
5,525833	0,1	-0,041460
5,527500	0,1	-0,054483
5,529167	0,1	-0,035754
5,530833	0,1	-0,060695
5,532500	0,1	-0,058320
5,534167	0,1	-0,017788
5,535833	0,1	-0,025623
5,537500	0,1	-0,008091
5,539167	0,1	-0,021997
5,540833	0,1	-0,055411
5,542500	0,1	-0,028469
5,544167	0,1	-0,042123
5,545833	0,1	-0,042477
5,547500	0,1	-0,014388
5,549167	0,1	-0,065218
5,550833	0,1	-0,034017
5,552500	0,1	-0,003748
5,554167	0,1	-0,052051
5,555833	0,1	-0,034903
5,557500	0,1	-0,046493
5,559167	0,1	-0,036888
5,560833	0,1	-0,051232
5,562500	0,1	-0,025340
5,564167	0,1	-0,040671
5,565833	0,1	-0,083812
5,567500	0,1	-0,038225
5,569167	0,1	-0,025690
5,570833	0,1	-0,063980
5,572500	0,1	-0,018802
5,574167	0,1	-0,034398
5,575833	0,1	-0,027676
5,577500	0,1	-0,021546
5,579167	0,1	-0,017530
5,580833	0,1	-0,051183
5,582500	0,1	-0,055867
5,584167	0,1	-0,048378
5,585833	0,1	-0,027037
5,587500	0,1	0,000892
5,589167	0,1	-0,001771
5,590833	0,1	-0,087924
5,592500	0,1	-0,020236
5,594167	0,1	-0,067663
5,595833	0,1	-0,035136
5,597500	0,1	-0,035293
5,599167	0,1	-0,072738
5,600833	0,1	-0,059002
5,602500	0,1	-0,053327
5,604167	0,1	-0,020331
5,605833	0,1	-0,074738
5,607500	0,1	-0,061136
5,609167	0,1	-0,030437
5,610833	0,1	-0,022935
5,612500	0,1	-0,044959
5,614167	0,1	-0,061043
5,615833	0,1	-0,028550
5,617500	0,1	-0,035539
5,619167	0,1	-0,032147
5,620833	0,1	-0,043178
5,622500	0,1	0,000537
5,624167	0,1	-0,050063
5,625833	0,1	-0,024347
5,627500	0,1	-0,043485
5,629167	0,1	-0,019398
5,630833	0,1	-0,005688
5,632500	0,1	-0,023342
5,634167	0,1	-0,068429
5,635833	0,1	-0,026295
5,637500	0,1	-0,057934
5,639167	0,1	-0,064958
5,640833	0,1	-0,041737
5,642500	0,1	-0,069716
5,644167	0,1	-0,044885
5,645833	0,1	-0,036764
5,647500	0,1	-0,039576
5,649167	0,1	-0,050282
5,650833	0,1	-0,033246
5,652500	0,1	-0,042080
5,654167	0,1	-0,059327
5,655833	0,1	-0,038237
5,657500	0,1	-0,041069
5,659167	0,1	-0,003458
5,660833	0,1	-0,043733
5,662500	0,1	0,000432
5,664167	0,1	-0,023570
5,665833	0,1	-0,039882
5,667500	0,1	-0,040263
5,669167	0,1	-0,038565
5,670833	0,1	-0,026208
5,672500	0,1	-0,058761
5,674167	0,1	-0,072620
5,675833	0,1	-0,064653
5,677500	0,1	-0,027103
5,679167	0,1	-0,022435
5,680833	0,1	-0,054725
5,682500	0,1	-0,005284
5,684167	0,1	-0,064715
5,685833	0,1	-0,003361
5,687500	0,1	-0,023447
5,689167	0,1	-0,056818
5,690833	0,1	-0,026292
5,692500	0,1	-0,038126
5,694167	0,1	-0,003045
5,695833	0,1	-0,029178
5,697500	0,1	-0,029476
5,699167	0,1	-0,021361
5,700833	0,1	-0,022477
5,702500	0,1	-0,042348
5,704167	0,1	-0,011283
5,705833	0,1	-0,020674
5,707500	0,1	0,002425
5,709167	0,1	-0,014957
5,710833	0,1	-0,024215
5,712500	0,1	-0,057230
5,714167	0,1	-0,014207
5,715833	0,1	-0,016639
5,717500	0,1	-0,011276
5,719167	0,1	0,022032
5,720833	0,1	-0,005244
5,722500	0,1	-0,013366
5,724167	0,1	-0,011276
5,725833	0,1	-0,003513
5,727500	0,1	0,001083
5,729167	0,1	-0,032553
5,730833	0,1	0,020805
5,732500	0,1	-0,007727
5,734167	0,1	0,001808
5,735833	0,1	0,014830
5,737500	0,1	-0,010733
5,739167	0,1	-0,019081
5,740833	0,1	0,004412
5,742500	0,1	0,004563
5,744167	0,1	-0,014936
5,745833	0,1	-0,007882
5,747500	0,1	-0,008128
5,749167	0,1	0,021825
5,750833	0,1	-0,012904
5,752500	0,1	-0,024609
5,754167	0,1	-0,018195
5,755833	0,1	0,001390
5,757500	0,1	0,006280
5,759167	0,1	0,004998
5,760833	0,1	-0,008581
5,762500	0,1	-0,003906
5,764167	0,1	-0,003307
5,765833	0,1	-0,022929
5,767500	0,1	0,029419
5,769167	0,1	-0,004663
5,770833	0,1	0,003526
5,772500	0,1	0,037934
5,774167	0,1	-0,005302
5,775833	0,1	0,003048
5,777500	0,1	-0,036962
5,779167	0,1	-0,008488
5,780833	0,1	-0,018315
5,782500	0,1	0,020331
5,784167	0,1	0,052077
5,785833	0,1	-0,003830
5,787500	0,1	0,005265
5,789167	0,1	0,008870
5,790833	0,1	0,000879
5,792500	0,1	0,008620
5,794167	0,1	0,006136
5,795833	0,1	0,004480
5,797500	0,1	0,028639
5,799167	0,1	0,031543
5,800833	0,1	0,019184
5,802500	0,1	0,017256
5,804167	0,1	0,006346
5,805833	0,1	-0,007213
5,807500	0,1	0,012116
5,809167	0,1	0,021291
5,810833	0,1	0,006471
5,812500	0,1	-0,011603
5,814167	0,1	-0,000410
5,815833	0,1	-0,009245
5,817500	0,1	0,013048
5,819167	0,1	-0,011168
5,820833	0,1	0,022817
5,822500	0,1	-0,007522
5,824167	0,1	0,004849
5,825833	0,1	-0,022865
5,827500	0,1	-0,014530
5,829167	0,1	0,013999
5,830833	0,1	-0,007130
5,832500	0,1	-0,016593
5,834167	0,1	0,015675
5,835833	0,1	-0,010215
5,837500	0,1	0,014661
5,839167	0,1	-0,012614
5,840833	0,1	0,011163
5,842500	0,1	0,043565
5,844167	0,1	0,019249
5,845833	0,1	-0,009033
5,847500	0,1	0,015408
5,849167	0,1	0,024087
5,850833	0,1	-0,002097
5,852500	0,1	0,020708
5,854167	0,1	0,013117
5,855833	0,1	0,005000
5,857500	0,1	0,023980
5,859167	0,1	-0,005265
5,860833	0,1	-0,036528
5,862500	0,1	-0,008861
5,864167	0,1	-0,020072
5,865833	0,1	-0,002647
5,867500	0,1	0,032652
5,869167	0,1	-0,007002
5,870833	0,1	-0,002334
5,872500	0,1	0,020357
5,874167	0,1	0,017566
5,875833	0,1	0,000778
5,877500	0,1	0,007501
5,879167	0,1	0,020316
5,880833	0,1	-0,004997
5,882500	0,1	-0,011150
5,884167	0,1	0,025737
5,885833	0,1	-0,012261
5,887500	0,1	-0,022145
5,889167	0,1	-0,009933
5,890833	0,1	-0,024917
5,892500	0,1	-0,010742
5,894167	0,1	-0,018643
5,895833	0,1	-0,039948
5,897500	0,1	-0,022213
5,899167	0,1	-0,018132
5,900833	0,1	-0,035642
5,902500	0,1	-0,024344
5,904167	0,1	-0,021754
5,905833	0,1	-0,013950
5,907500	0,1	-0,016285
5,909167	0,1	0,002903
5,910833	0,1	-0,012784
5,912500	0,1	-0,013576
5,914167	0,1	-0,036592
5,915833	0,1	-0,020203
5,917500	0,1	-0,033138
5,919167	0,1	-0,004616
5,920833	0,1	0,018369
5,922500	0,1	-0,008621
5,924167	0,1	-0,020673
5,925833	0,1	-0,023760
5,927500	0,1	-0,012521
5,929167	0,1	-0,009474
5,930833	0,1	-0,025848
5,932500	0,1	-0,009933
5,934167	0,1	0,024537
5,935833	0,1	-0,021121
5,937500	0,1	-0,027258
5,939167	0,1	-0,030758
5,940833	0,1	-0,047175
5,942500	0,1	-0,041589
5,944167	0,1	-0,020784
5,945833	0,1	-0,036117
5,947500	0,1	-0,009356
5,949167	0,1	-0,059357
5,950833	0,1	-0,032647
5,952500	0,1	-0,035146
5,954167	0,1	-0,087080
5,955833	0,1	-0,032654
5,957500	0,1	0,005692
5,959167	0,1	-0,003530
5,960833	0,1	-0,055633
5,962500	0,1	-0,024140
5,964167	0,1	-0,047915
5,965833	0,1	-0,007083
5,967500	0,1	-0,016925
5,969167	0,1	-0,032434
5,970833	0,1	-0,040797
5,972500	0,1	-0,052039
5,974167	0,1	-0,048607
5,975833	0,1	-0,040283
5,977500	0,1	-0,061770
5,979167	0,1	-0,061960
5,980833	0,1	-0,037825
5,982500	0,1	-0,014719
5,984167	0,1	-0,046467
5,985833	0,1	-0,059308
5,987500	0,1	-0,011163
5,989167	0,1	-0,049404
5,990833	0,1	-0,051918
5,992500	0,1	-0,029708
5,994167	0,1	-0,075056
5,995833	0,1	-0,013278
5,997500	0,1	-0,018169
5,999167	0,1	-0,051307
6,000833	0,1	-0,011638
