File Path	chrom://chromeleon01/ikbm_chromeleon/2022/Rezex/Esteban/220612_chitin_4_7.seq/317.smp/UV_VIS_1.channel/UV_VIS_1.chm
Channel	UV_VIS_1

Injection Information:
Data Vault	ikbm_chromeleon
Injection	4_02h-EGS_1
Injection Number	84
Position	GD4
Comment	
Processing Method	New ProcMethod
Instrument Method	Short_Rezex_6min_194nm
Type	Unknown
Status	Finished
Injection Date	13.06.2022
Injection Time	02:11:25
Injection Volume (µl)	8,000
Dilution Factor	1,0000
Weight	1,0000

Chromatogram Data Information:
Time Min. (min)	0,000833
Time Max. (min)	6,000833
Data Points	3601
Detector	UV
Generating Data System	Chromeleon 7.2.9.11323
Exporting Data System	Chromeleon 7.2.9.0
Operator	Instrument Controller
Signal Quantity	Absorbance
Signal Unit	mAU
Signal Min.	-0,161686
Signal Max.	116,366013
Channel	UV_VIS_1
Driver Name	VWD3000.dll
Channel Type	Evaluation
Min. Step (s)	0,1
Max. Step (s)	0,1
Average Step (s)	0,1

Signal Parameter Information:
Signal Info	WVL:194 nm

Chromatogram Data:
Time (min)	Step (s)	Value (mAU)
0,000833	n.a.	-0,114627
0,002500	0,1	-0,049927
0,004167	0,1	-0,104571
0,005833	0,1	-0,088751
0,007500	0,1	-0,107713
0,009167	0,1	-0,052782
0,010833	0,1	-0,057826
0,012500	0,1	-0,053519
0,014167	0,1	-0,048856
0,015833	0,1	-0,074802
0,017500	0,1	-0,058077
0,019167	0,1	-0,056332
0,020833	0,1	-0,066125
0,022500	0,1	-0,048509
0,024167	0,1	-0,074651
0,025833	0,1	-0,035709
0,027500	0,1	-0,078149
0,029167	0,1	-0,071784
0,030833	0,1	-0,098389
0,032500	0,1	-0,086139
0,034167	0,1	-0,090813
0,035833	0,1	-0,104598
0,037500	0,1	-0,148087
0,039167	0,1	-0,115338
0,040833	0,1	-0,107796
0,042500	0,1	-0,161686
0,044167	0,1	-0,124020
0,045833	0,1	-0,080983
0,047500	0,1	-0,087022
0,049167	0,1	-0,093547
0,050833	0,1	-0,109946
0,052500	0,1	-0,114565
0,054167	0,1	-0,054006
0,055833	0,1	-0,097742
0,057500	0,1	-0,072203
0,059167	0,1	-0,062585
0,060833	0,1	-0,019455
0,062500	0,1	-0,060155
0,064167	0,1	-0,140573
0,065833	0,1	-0,088259
0,067500	0,1	-0,070856
0,069167	0,1	-0,067870
0,070833	0,1	-0,096355
0,072500	0,1	-0,093794
0,074167	0,1	-0,072157
0,075833	0,1	-0,073619
0,077500	0,1	-0,019088
0,079167	0,1	-0,088352
0,080833	0,1	-0,071145
0,082500	0,1	-0,043453
0,084167	0,1	-0,048750
0,085833	0,1	-0,028685
0,087500	0,1	-0,032602
0,089167	0,1	-0,075916
0,090833	0,1	-0,060292
0,092500	0,1	-0,056517
0,094167	0,1	-0,032460
0,095833	0,1	-0,052948
0,097500	0,1	-0,051838
0,099167	0,1	-0,045708
0,100833	0,1	-0,039729
0,102500	0,1	0,007782
0,104167	0,1	-0,111188
0,105833	0,1	-0,033255
0,107500	0,1	-0,072019
0,109167	0,1	-0,076935
0,110833	0,1	-0,067951
0,112500	0,1	-0,072424
0,114167	0,1	-0,070333
0,115833	0,1	-0,107496
0,117500	0,1	-0,102659
0,119167	0,1	-0,053273
0,120833	0,1	-0,107430
0,122500	0,1	-0,093079
0,124167	0,1	-0,104643
0,125833	0,1	-0,136060
0,127500	0,1	-0,097074
0,129167	0,1	-0,083771
0,130833	0,1	-0,060663
0,132500	0,1	-0,061176
0,134167	0,1	-0,074716
0,135833	0,1	-0,017095
0,137500	0,1	-0,086654
0,139167	0,1	-0,084395
0,140833	0,1	-0,050789
0,142500	0,1	-0,086770
0,144167	0,1	-0,032879
0,145833	0,1	-0,038477
0,147500	0,1	-0,060071
0,149167	0,1	-0,041920
0,150833	0,1	-0,077613
0,152500	0,1	-0,045821
0,154167	0,1	-0,052724
0,155833	0,1	-0,034939
0,157500	0,1	-0,028769
0,159167	0,1	-0,040506
0,160833	0,1	-0,066686
0,162500	0,1	-0,064248
0,164167	0,1	-0,021196
0,165833	0,1	-0,091483
0,167500	0,1	-0,019770
0,169167	0,1	-0,076677
0,170833	0,1	-0,045011
0,172500	0,1	-0,067010
0,174167	0,1	-0,034800
0,175833	0,1	-0,037071
0,177500	0,1	-0,099418
0,179167	0,1	-0,105102
0,180833	0,1	-0,049449
0,182500	0,1	-0,103897
0,184167	0,1	-0,042161
0,185833	0,1	-0,047008
0,187500	0,1	-0,023452
0,189167	0,1	-0,065951
0,190833	0,1	-0,040622
0,192500	0,1	-0,061797
0,194167	0,1	-0,030182
0,195833	0,1	-0,046698
0,197500	0,1	-0,043386
0,199167	0,1	-0,030259
0,200833	0,1	-0,008184
0,202500	0,1	-0,046842
0,204167	0,1	-0,047817
0,205833	0,1	-0,037055
0,207500	0,1	-0,042971
0,209167	0,1	-0,062333
0,210833	0,1	-0,039706
0,212500	0,1	-0,060698
0,214167	0,1	-0,032662
0,215833	0,1	-0,032928
0,217500	0,1	-0,047032
0,219167	0,1	-0,083664
0,220833	0,1	-0,022258
0,222500	0,1	-0,091238
0,224167	0,1	-0,029152
0,225833	0,1	-0,015287
0,227500	0,1	-0,060357
0,229167	0,1	-0,054573
0,230833	0,1	-0,074591
0,232500	0,1	-0,017639
0,234167	0,1	-0,035676
0,235833	0,1	-0,040280
0,237500	0,1	-0,012742
0,239167	0,1	-0,034576
0,240833	0,1	-0,054339
0,242500	0,1	-0,026267
0,244167	0,1	-0,074234
0,245833	0,1	-0,059588
0,247500	0,1	-0,103993
0,249167	0,1	-0,013898
0,250833	0,1	-0,062494
0,252500	0,1	-0,020986
0,254167	0,1	-0,042702
0,255833	0,1	-0,035332
0,257500	0,1	-0,036014
0,259167	0,1	-0,057030
0,260833	0,1	-0,023350
0,262500	0,1	-0,039617
0,264167	0,1	-0,034777
0,265833	0,1	-0,029965
0,267500	0,1	-0,044630
0,269167	0,1	-0,038954
0,270833	0,1	-0,033467
0,272500	0,1	-0,037421
0,274167	0,1	-0,031911
0,275833	0,1	-0,019756
0,277500	0,1	-0,013959
0,279167	0,1	0,012096
0,280833	0,1	-0,029937
0,282500	0,1	-0,032804
0,284167	0,1	-0,048808
0,285833	0,1	-0,057368
0,287500	0,1	-0,048189
0,289167	0,1	-0,014213
0,290833	0,1	-0,072641
0,292500	0,1	-0,063976
0,294167	0,1	-0,037263
0,295833	0,1	-0,018078
0,297500	0,1	-0,015181
0,299167	0,1	-0,058352
0,300833	0,1	-0,050644
0,302500	0,1	-0,052707
0,304167	0,1	-0,010466
0,305833	0,1	-0,053673
0,307500	0,1	-0,037364
0,309167	0,1	-0,039497
0,310833	0,1	-0,007130
0,312500	0,1	-0,049778
0,314167	0,1	-0,024069
0,315833	0,1	-0,043821
0,317500	0,1	-0,026388
0,319167	0,1	0,015630
0,320833	0,1	0,006487
0,322500	0,1	-0,001818
0,324167	0,1	-0,055308
0,325833	0,1	-0,028193
0,327500	0,1	-0,063385
0,329167	0,1	-0,026182
0,330833	0,1	-0,006670
0,332500	0,1	-0,014536
0,334167	0,1	0,007929
0,335833	0,1	-0,031177
0,337500	0,1	-0,021356
0,339167	0,1	-0,007224
0,340833	0,1	-0,042488
0,342500	0,1	0,017325
0,344167	0,1	0,010216
0,345833	0,1	0,003548
0,347500	0,1	-0,024846
0,349167	0,1	-0,050002
0,350833	0,1	0,005064
0,352500	0,1	-0,010990
0,354167	0,1	-0,027022
0,355833	0,1	0,007723
0,357500	0,1	-0,034185
0,359167	0,1	-0,018955
0,360833	0,1	-0,039615
0,362500	0,1	0,008918
0,364167	0,1	-0,048041
0,365833	0,1	0,022977
0,367500	0,1	-0,014616
0,369167	0,1	-0,040713
0,370833	0,1	0,009207
0,372500	0,1	-0,006106
0,374167	0,1	0,002487
0,375833	0,1	0,001823
0,377500	0,1	-0,040560
0,379167	0,1	-0,017754
0,380833	0,1	-0,010976
0,382500	0,1	0,002029
0,384167	0,1	-0,046813
0,385833	0,1	-0,005868
0,387500	0,1	-0,012899
0,389167	0,1	0,002918
0,390833	0,1	-0,010954
0,392500	0,1	-0,046816
0,394167	0,1	0,005144
0,395833	0,1	-0,010082
0,397500	0,1	0,000642
0,399167	0,1	-0,024909
0,400833	0,1	-0,044813
0,402500	0,1	-0,005559
0,404167	0,1	0,024542
0,405833	0,1	-0,015151
0,407500	0,1	-0,012736
0,409167	0,1	-0,013271
0,410833	0,1	-0,024166
0,412500	0,1	-0,019965
0,414167	0,1	0,019112
0,415833	0,1	-0,009395
0,417500	0,1	-0,022739
0,419167	0,1	-0,013713
0,420833	0,1	-0,017316
0,422500	0,1	-0,006569
0,424167	0,1	0,022864
0,425833	0,1	0,020094
0,427500	0,1	0,031690
0,429167	0,1	-0,004503
0,430833	0,1	-0,004203
0,432500	0,1	-0,043006
0,434167	0,1	-0,009698
0,435833	0,1	0,002548
0,437500	0,1	-0,010806
0,439167	0,1	-0,023813
0,440833	0,1	0,021390
0,442500	0,1	-0,039589
0,444167	0,1	0,023103
0,445833	0,1	-0,031173
0,447500	0,1	-0,022410
0,449167	0,1	0,031618
0,450833	0,1	0,011047
0,452500	0,1	-0,029918
0,454167	0,1	0,007407
0,455833	0,1	0,016780
0,457500	0,1	0,026948
0,459167	0,1	0,001169
0,460833	0,1	-0,035224
0,462500	0,1	0,021529
0,464167	0,1	-0,024596
0,465833	0,1	0,031329
0,467500	0,1	0,027199
0,469167	0,1	0,033246
0,470833	0,1	-0,020699
0,472500	0,1	0,011261
0,474167	0,1	0,015350
0,475833	0,1	0,010796
0,477500	0,1	0,014375
0,479167	0,1	0,027548
0,480833	0,1	0,024692
0,482500	0,1	0,021587
0,484167	0,1	0,005452
0,485833	0,1	-0,021636
0,487500	0,1	0,021762
0,489167	0,1	0,033660
0,490833	0,1	0,039812
0,492500	0,1	0,043086
0,494167	0,1	0,030783
0,495833	0,1	0,014978
0,497500	0,1	0,039207
0,499167	0,1	0,051702
0,500833	0,1	0,032569
0,502500	0,1	0,009306
0,504167	0,1	0,024046
0,505833	0,1	0,015766
0,507500	0,1	0,013734
0,509167	0,1	0,028252
0,510833	0,1	0,028853
0,512500	0,1	0,033453
0,514167	0,1	-0,021094
0,515833	0,1	0,032694
0,517500	0,1	0,021466
0,519167	0,1	0,045110
0,520833	0,1	0,026870
0,522500	0,1	-0,012541
0,524167	0,1	0,033134
0,525833	0,1	-0,001545
0,527500	0,1	0,039203
0,529167	0,1	0,005683
0,530833	0,1	0,052770
0,532500	0,1	0,029731
0,534167	0,1	0,032873
0,535833	0,1	0,016554
0,537500	0,1	0,056147
0,539167	0,1	0,009539
0,540833	0,1	0,040116
0,542500	0,1	-0,000032
0,544167	0,1	0,032162
0,545833	0,1	0,020756
0,547500	0,1	0,034962
0,549167	0,1	0,055779
0,550833	0,1	0,036440
0,552500	0,1	0,011628
0,554167	0,1	0,026967
0,555833	0,1	0,041219
0,557500	0,1	0,036189
0,559167	0,1	0,077153
0,560833	0,1	0,037379
0,562500	0,1	0,016720
0,564167	0,1	0,038627
0,565833	0,1	0,072370
0,567500	0,1	0,060593
0,569167	0,1	0,044769
0,570833	0,1	0,037845
0,572500	0,1	0,037183
0,574167	0,1	0,023764
0,575833	0,1	0,059505
0,577500	0,1	0,052181
0,579167	0,1	0,056550
0,580833	0,1	0,062971
0,582500	0,1	0,044270
0,584167	0,1	0,061085
0,585833	0,1	0,003824
0,587500	0,1	0,090795
0,589167	0,1	0,045852
0,590833	0,1	0,027141
0,592500	0,1	0,072160
0,594167	0,1	0,073247
0,595833	0,1	0,069934
0,597500	0,1	0,084720
0,599167	0,1	0,045084
0,600833	0,1	0,073033
0,602500	0,1	0,068297
0,604167	0,1	0,046259
0,605833	0,1	0,047994
0,607500	0,1	0,067255
0,609167	0,1	0,044935
0,610833	0,1	0,056839
0,612500	0,1	0,095613
0,614167	0,1	0,080792
0,615833	0,1	0,085925
0,617500	0,1	0,090565
0,619167	0,1	0,081744
0,620833	0,1	0,089012
0,622500	0,1	0,076378
0,624167	0,1	0,071592
0,625833	0,1	0,041580
0,627500	0,1	0,096913
0,629167	0,1	0,086944
0,630833	0,1	0,080210
0,632500	0,1	0,095265
0,634167	0,1	0,105480
0,635833	0,1	0,072303
0,637500	0,1	0,086585
0,639167	0,1	0,076690
0,640833	0,1	0,163120
0,642500	0,1	0,064612
0,644167	0,1	0,110484
0,645833	0,1	0,089494
0,647500	0,1	0,091830
0,649167	0,1	0,078865
0,650833	0,1	0,088637
0,652500	0,1	0,155275
0,654167	0,1	0,095430
0,655833	0,1	0,118799
0,657500	0,1	0,116650
0,659167	0,1	0,108158
0,660833	0,1	0,115386
0,662500	0,1	0,132266
0,664167	0,1	0,087055
0,665833	0,1	0,093071
0,667500	0,1	0,153804
0,669167	0,1	0,165253
0,670833	0,1	0,118008
0,672500	0,1	0,120253
0,674167	0,1	0,109380
0,675833	0,1	0,130319
0,677500	0,1	0,144618
0,679167	0,1	0,099775
0,680833	0,1	0,128908
0,682500	0,1	0,130012
0,684167	0,1	0,136993
0,685833	0,1	0,160133
0,687500	0,1	0,147336
0,689167	0,1	0,169417
0,690833	0,1	0,139760
0,692500	0,1	0,149445
0,694167	0,1	0,167553
0,695833	0,1	0,158567
0,697500	0,1	0,167514
0,699167	0,1	0,179054
0,700833	0,1	0,159417
0,702500	0,1	0,163515
0,704167	0,1	0,209817
0,705833	0,1	0,181366
0,707500	0,1	0,149601
0,709167	0,1	0,160552
0,710833	0,1	0,198545
0,712500	0,1	0,189421
0,714167	0,1	0,169511
0,715833	0,1	0,206404
0,717500	0,1	0,197108
0,719167	0,1	0,207773
0,720833	0,1	0,193255
0,722500	0,1	0,235717
0,724167	0,1	0,191090
0,725833	0,1	0,200958
0,727500	0,1	0,236410
0,729167	0,1	0,211016
0,730833	0,1	0,214785
0,732500	0,1	0,249156
0,734167	0,1	0,250943
0,735833	0,1	0,223059
0,737500	0,1	0,242987
0,739167	0,1	0,248623
0,740833	0,1	0,239570
0,742500	0,1	0,261217
0,744167	0,1	0,249558
0,745833	0,1	0,257263
0,747500	0,1	0,257391
0,749167	0,1	0,264244
0,750833	0,1	0,274133
0,752500	0,1	0,248442
0,754167	0,1	0,199421
0,755833	0,1	0,320378
0,757500	0,1	0,262545
0,759167	0,1	0,237458
0,760833	0,1	0,264680
0,762500	0,1	0,245606
0,764167	0,1	0,283346
0,765833	0,1	0,281077
0,767500	0,1	0,257625
0,769167	0,1	0,237291
0,770833	0,1	0,244289
0,772500	0,1	0,259706
0,774167	0,1	0,240983
0,775833	0,1	0,292665
0,777500	0,1	0,273911
0,779167	0,1	0,245079
0,780833	0,1	0,275764
0,782500	0,1	0,260004
0,784167	0,1	0,276347
0,785833	0,1	0,222900
0,787500	0,1	0,270179
0,789167	0,1	0,252295
0,790833	0,1	0,238663
0,792500	0,1	0,261406
0,794167	0,1	0,251511
0,795833	0,1	0,272818
0,797500	0,1	0,220972
0,799167	0,1	0,257094
0,800833	0,1	0,273072
0,802500	0,1	0,258216
0,804167	0,1	0,260225
0,805833	0,1	0,250780
0,807500	0,1	0,220882
0,809167	0,1	0,270457
0,810833	0,1	0,281551
0,812500	0,1	0,265370
0,814167	0,1	0,233793
0,815833	0,1	0,268722
0,817500	0,1	0,286122
0,819167	0,1	0,232348
0,820833	0,1	0,267020
0,822500	0,1	0,275418
0,824167	0,1	0,243390
0,825833	0,1	0,244932
0,827500	0,1	0,288422
0,829167	0,1	0,253256
0,830833	0,1	0,267290
0,832500	0,1	0,227042
0,834167	0,1	0,270369
0,835833	0,1	0,265267
0,837500	0,1	0,262508
0,839167	0,1	0,296702
0,840833	0,1	0,236330
0,842500	0,1	0,253383
0,844167	0,1	0,252605
0,845833	0,1	0,243322
0,847500	0,1	0,265235
0,849167	0,1	0,303354
0,850833	0,1	0,301472
0,852500	0,1	0,275943
0,854167	0,1	0,305962
0,855833	0,1	0,308314
0,857500	0,1	0,282821
0,859167	0,1	0,289289
0,860833	0,1	0,305603
0,862500	0,1	0,309308
0,864167	0,1	0,327334
0,865833	0,1	0,289501
0,867500	0,1	0,287817
0,869167	0,1	0,274099
0,870833	0,1	0,293631
0,872500	0,1	0,281494
0,874167	0,1	0,281706
0,875833	0,1	0,315185
0,877500	0,1	0,302571
0,879167	0,1	0,286496
0,880833	0,1	0,267298
0,882500	0,1	0,291224
0,884167	0,1	0,276444
0,885833	0,1	0,283669
0,887500	0,1	0,319528
0,889167	0,1	0,322829
0,890833	0,1	0,315005
0,892500	0,1	0,300959
0,894167	0,1	0,273775
0,895833	0,1	0,319932
0,897500	0,1	0,325824
0,899167	0,1	0,299413
0,900833	0,1	0,290035
0,902500	0,1	0,274126
0,904167	0,1	0,354380
0,905833	0,1	0,291648
0,907500	0,1	0,322570
0,909167	0,1	0,290268
0,910833	0,1	0,331335
0,912500	0,1	0,368038
0,914167	0,1	0,353615
0,915833	0,1	0,350725
0,917500	0,1	0,354415
0,919167	0,1	0,336265
0,920833	0,1	0,326018
0,922500	0,1	0,348111
0,924167	0,1	0,316121
0,925833	0,1	0,368930
0,927500	0,1	0,354093
0,929167	0,1	0,377130
0,930833	0,1	0,348034
0,932500	0,1	0,353582
0,934167	0,1	0,308413
0,935833	0,1	0,339565
0,937500	0,1	0,340949
0,939167	0,1	0,351979
0,940833	0,1	0,355294
0,942500	0,1	0,341795
0,944167	0,1	0,369642
0,945833	0,1	0,388987
0,947500	0,1	0,367853
0,949167	0,1	0,331101
0,950833	0,1	0,323917
0,952500	0,1	0,380145
0,954167	0,1	0,355444
0,955833	0,1	0,380885
0,957500	0,1	0,379225
0,959167	0,1	0,373281
0,960833	0,1	0,353968
0,962500	0,1	0,384832
0,964167	0,1	0,401714
0,965833	0,1	0,397377
0,967500	0,1	0,404769
0,969167	0,1	0,401812
0,970833	0,1	0,412671
0,972500	0,1	0,401142
0,974167	0,1	0,455920
0,975833	0,1	0,415445
0,977500	0,1	0,409559
0,979167	0,1	0,422184
0,980833	0,1	0,419517
0,982500	0,1	0,480377
0,984167	0,1	0,479425
0,985833	0,1	0,445589
0,987500	0,1	0,424796
0,989167	0,1	0,454641
0,990833	0,1	0,415960
0,992500	0,1	0,457528
0,994167	0,1	0,459818
0,995833	0,1	0,496804
0,997500	0,1	0,458318
0,999167	0,1	0,478358
1,000833	0,1	0,535048
1,002500	0,1	0,484321
1,004167	0,1	0,536303
1,005833	0,1	0,510641
1,007500	0,1	0,563595
1,009167	0,1	0,565729
1,010833	0,1	0,563416
1,012500	0,1	0,577201
1,014167	0,1	0,588037
1,015833	0,1	0,583442
1,017500	0,1	0,621625
1,019167	0,1	0,590877
1,020833	0,1	0,579201
1,022500	0,1	0,662930
1,024167	0,1	0,648903
1,025833	0,1	0,666194
1,027500	0,1	0,682785
1,029167	0,1	0,729309
1,030833	0,1	0,699937
1,032500	0,1	0,699676
1,034167	0,1	0,747318
1,035833	0,1	0,720647
1,037500	0,1	0,751954
1,039167	0,1	0,725242
1,040833	0,1	0,757165
1,042500	0,1	0,801219
1,044167	0,1	0,781685
1,045833	0,1	0,813445
1,047500	0,1	0,826733
1,049167	0,1	0,820726
1,050833	0,1	0,859577
1,052500	0,1	0,887219
1,054167	0,1	0,914938
1,055833	0,1	0,969429
1,057500	0,1	1,033894
1,059167	0,1	1,098705
1,060833	0,1	1,240260
1,062500	0,1	1,394181
1,064167	0,1	1,655125
1,065833	0,1	1,869087
1,067500	0,1	2,256567
1,069167	0,1	2,700349
1,070833	0,1	3,244005
1,072500	0,1	3,948266
1,074167	0,1	4,782400
1,075833	0,1	5,708210
1,077500	0,1	6,942589
1,079167	0,1	8,255933
1,080833	0,1	9,811298
1,082500	0,1	11,588698
1,084167	0,1	13,561467
1,085833	0,1	15,723340
1,087500	0,1	18,031252
1,089167	0,1	20,519842
1,090833	0,1	23,111629
1,092500	0,1	25,780726
1,094167	0,1	28,474958
1,095833	0,1	31,292840
1,097500	0,1	33,985785
1,099167	0,1	36,681556
1,100833	0,1	39,226888
1,102500	0,1	41,619310
1,104167	0,1	43,873099
1,105833	0,1	45,926868
1,107500	0,1	47,760287
1,109167	0,1	49,302560
1,110833	0,1	50,612161
1,112500	0,1	51,758351
1,114167	0,1	52,573175
1,115833	0,1	53,185006
1,117500	0,1	53,580865
1,119167	0,1	53,742950
1,120833	0,1	53,730723
1,122500	0,1	53,518133
1,124167	0,1	53,191672
1,125833	0,1	52,745273
1,127500	0,1	52,126922
1,129167	0,1	51,408186
1,130833	0,1	50,663459
1,132500	0,1	49,846226
1,134167	0,1	49,016582
1,135833	0,1	48,090912
1,137500	0,1	47,234791
1,139167	0,1	46,327205
1,140833	0,1	45,543584
1,142500	0,1	44,688949
1,144167	0,1	43,969987
1,145833	0,1	43,260719
1,147500	0,1	42,645900
1,149167	0,1	42,078642
1,150833	0,1	41,609959
1,152500	0,1	41,236535
1,154167	0,1	40,941867
1,155833	0,1	40,681507
1,157500	0,1	40,536878
1,159167	0,1	40,434962
1,160833	0,1	40,360799
1,162500	0,1	40,502359
1,164167	0,1	40,572028
1,165833	0,1	40,666864
1,167500	0,1	40,835281
1,169167	0,1	41,035195
1,170833	0,1	41,245971
1,172500	0,1	41,393008
1,174167	0,1	41,596203
1,175833	0,1	41,784478
1,177500	0,1	41,933831
1,179167	0,1	42,043788
1,180833	0,1	42,178519
1,182500	0,1	42,254742
1,184167	0,1	42,336484
1,185833	0,1	42,394468
1,187500	0,1	42,439106
1,189167	0,1	42,443071
1,190833	0,1	42,491949
1,192500	0,1	42,544279
1,194167	0,1	42,647375
1,195833	0,1	42,790319
1,197500	0,1	42,995391
1,199167	0,1	43,261984
1,200833	0,1	43,728202
1,202500	0,1	44,241358
1,204167	0,1	44,972742
1,205833	0,1	45,872861
1,207500	0,1	46,966649
1,209167	0,1	48,260269
1,210833	0,1	49,823768
1,212500	0,1	51,609306
1,214167	0,1	53,680014
1,215833	0,1	55,915440
1,217500	0,1	58,426604
1,219167	0,1	61,146768
1,220833	0,1	64,093386
1,222500	0,1	67,211567
1,224167	0,1	70,431405
1,225833	0,1	73,753137
1,227500	0,1	77,206076
1,229167	0,1	80,681485
1,230833	0,1	84,089017
1,232500	0,1	87,533734
1,234167	0,1	90,858944
1,235833	0,1	94,086908
1,237500	0,1	97,110050
1,239167	0,1	100,076041
1,240833	0,1	102,812795
1,242500	0,1	105,268749
1,244167	0,1	107,482512
1,245833	0,1	109,553186
1,247500	0,1	111,291082
1,249167	0,1	112,788156
1,250833	0,1	114,029518
1,252500	0,1	114,996744
1,254167	0,1	115,722934
1,255833	0,1	116,139018
1,257500	0,1	116,366013
1,259167	0,1	116,250744
1,260833	0,1	115,997985
1,262500	0,1	115,418081
1,264167	0,1	114,654107
1,265833	0,1	113,640047
1,267500	0,1	112,460319
1,269167	0,1	111,106532
1,270833	0,1	109,550728
1,272500	0,1	107,793122
1,274167	0,1	105,916741
1,275833	0,1	103,982220
1,277500	0,1	101,851348
1,279167	0,1	99,627635
1,280833	0,1	97,349357
1,282500	0,1	94,940320
1,284167	0,1	92,577577
1,285833	0,1	90,098978
1,287500	0,1	87,615922
1,289167	0,1	85,131277
1,290833	0,1	82,695150
1,292500	0,1	80,270017
1,294167	0,1	77,852158
1,295833	0,1	75,485749
1,297500	0,1	73,111107
1,299167	0,1	70,808652
1,300833	0,1	68,564081
1,302500	0,1	66,369830
1,304167	0,1	64,294847
1,305833	0,1	62,266474
1,307500	0,1	60,317974
1,309167	0,1	58,464240
1,310833	0,1	56,599409
1,312500	0,1	54,885961
1,314167	0,1	53,281039
1,315833	0,1	51,655590
1,317500	0,1	50,144572
1,319167	0,1	48,696199
1,320833	0,1	47,313472
1,322500	0,1	45,984080
1,324167	0,1	44,697470
1,325833	0,1	43,511850
1,327500	0,1	42,340584
1,329167	0,1	41,218384
1,330833	0,1	40,124388
1,332500	0,1	39,118743
1,334167	0,1	38,117108
1,335833	0,1	37,208612
1,337500	0,1	36,270204
1,339167	0,1	35,405466
1,340833	0,1	34,516342
1,342500	0,1	33,708513
1,344167	0,1	32,937899
1,345833	0,1	32,124354
1,347500	0,1	31,358947
1,349167	0,1	30,633191
1,350833	0,1	29,968101
1,352500	0,1	29,246996
1,354167	0,1	28,581996
1,355833	0,1	27,930606
1,357500	0,1	27,308482
1,359167	0,1	26,717918
1,360833	0,1	26,100876
1,362500	0,1	25,540583
1,364167	0,1	24,928653
1,365833	0,1	24,381651
1,367500	0,1	23,825358
1,369167	0,1	23,298647
1,370833	0,1	22,738040
1,372500	0,1	22,250085
1,374167	0,1	21,724459
1,375833	0,1	21,296632
1,377500	0,1	20,784059
1,379167	0,1	20,341728
1,380833	0,1	19,866218
1,382500	0,1	19,491449
1,384167	0,1	19,011942
1,385833	0,1	18,628086
1,387500	0,1	18,215821
1,389167	0,1	17,812162
1,390833	0,1	17,427664
1,392500	0,1	17,052720
1,394167	0,1	16,716266
1,395833	0,1	16,334776
1,397500	0,1	16,030829
1,399167	0,1	15,694248
1,400833	0,1	15,413939
1,402500	0,1	15,122219
1,404167	0,1	14,801758
1,405833	0,1	14,480696
1,407500	0,1	14,234231
1,409167	0,1	13,995669
1,410833	0,1	13,763553
1,412500	0,1	13,501384
1,414167	0,1	13,194333
1,415833	0,1	12,998848
1,417500	0,1	12,789956
1,419167	0,1	12,585869
1,420833	0,1	12,363957
1,422500	0,1	12,167121
1,424167	0,1	11,977218
1,425833	0,1	11,803070
1,427500	0,1	11,637379
1,429167	0,1	11,456820
1,430833	0,1	11,290746
1,432500	0,1	11,086356
1,434167	0,1	10,957417
1,435833	0,1	10,788505
1,437500	0,1	10,643109
1,439167	0,1	10,473102
1,440833	0,1	10,353175
1,442500	0,1	10,177264
1,444167	0,1	10,065918
1,445833	0,1	9,904685
1,447500	0,1	9,787083
1,449167	0,1	9,661982
1,450833	0,1	9,534869
1,452500	0,1	9,415394
1,454167	0,1	9,290810
1,455833	0,1	9,165779
1,457500	0,1	9,026880
1,459167	0,1	8,950997
1,460833	0,1	8,838632
1,462500	0,1	8,711327
1,464167	0,1	8,637999
1,465833	0,1	8,522545
1,467500	0,1	8,464435
1,469167	0,1	8,361288
1,470833	0,1	8,294859
1,472500	0,1	8,212918
1,474167	0,1	8,130594
1,475833	0,1	8,050211
1,477500	0,1	7,986234
1,479167	0,1	7,912299
1,480833	0,1	7,894617
1,482500	0,1	7,849160
1,484167	0,1	7,802365
1,485833	0,1	7,736070
1,487500	0,1	7,721859
1,489167	0,1	7,680036
1,490833	0,1	7,649136
1,492500	0,1	7,645660
1,494167	0,1	7,632053
1,495833	0,1	7,617748
1,497500	0,1	7,568018
1,499167	0,1	7,562882
1,500833	0,1	7,552423
1,502500	0,1	7,531700
1,504167	0,1	7,505496
1,505833	0,1	7,476459
1,507500	0,1	7,513856
1,509167	0,1	7,544197
1,510833	0,1	7,500736
1,512500	0,1	7,499044
1,514167	0,1	7,468988
1,515833	0,1	7,513658
1,517500	0,1	7,481863
1,519167	0,1	7,447796
1,520833	0,1	7,463763
1,522500	0,1	7,426538
1,524167	0,1	7,474107
1,525833	0,1	7,458152
1,527500	0,1	7,431108
1,529167	0,1	7,424476
1,530833	0,1	7,378476
1,532500	0,1	7,391449
1,534167	0,1	7,332582
1,535833	0,1	7,380429
1,537500	0,1	7,341170
1,539167	0,1	7,345722
1,540833	0,1	7,302550
1,542500	0,1	7,266069
1,544167	0,1	7,259995
1,545833	0,1	7,224747
1,547500	0,1	7,183715
1,549167	0,1	7,209905
1,550833	0,1	7,184738
1,552500	0,1	7,128792
1,554167	0,1	7,071824
1,555833	0,1	7,095673
1,557500	0,1	7,059045
1,559167	0,1	7,027721
1,560833	0,1	6,950919
1,562500	0,1	6,941769
1,564167	0,1	6,916605
1,565833	0,1	6,894519
1,567500	0,1	6,859203
1,569167	0,1	6,828544
1,570833	0,1	6,747960
1,572500	0,1	6,790046
1,574167	0,1	6,725039
1,575833	0,1	6,696155
1,577500	0,1	6,645114
1,579167	0,1	6,628428
1,580833	0,1	6,606837
1,582500	0,1	6,610174
1,584167	0,1	6,512129
1,585833	0,1	6,479245
1,587500	0,1	6,438840
1,589167	0,1	6,456701
1,590833	0,1	6,400584
1,592500	0,1	6,336640
1,594167	0,1	6,343982
1,595833	0,1	6,253361
1,597500	0,1	6,227251
1,599167	0,1	6,205590
1,600833	0,1	6,157042
1,602500	0,1	6,172032
1,604167	0,1	6,110259
1,605833	0,1	6,074261
1,607500	0,1	6,053201
1,609167	0,1	6,016920
1,610833	0,1	5,981498
1,612500	0,1	5,948298
1,614167	0,1	5,942907
1,615833	0,1	5,859206
1,617500	0,1	5,876878
1,619167	0,1	5,832901
1,620833	0,1	5,799078
1,622500	0,1	5,789224
1,624167	0,1	5,756482
1,625833	0,1	5,698930
1,627500	0,1	5,679485
1,629167	0,1	5,645250
1,630833	0,1	5,650595
1,632500	0,1	5,631802
1,634167	0,1	5,559467
1,635833	0,1	5,553967
1,637500	0,1	5,535695
1,639167	0,1	5,505352
1,640833	0,1	5,476629
1,642500	0,1	5,440158
1,644167	0,1	5,446538
1,645833	0,1	5,416639
1,647500	0,1	5,380098
1,649167	0,1	5,367153
1,650833	0,1	5,315575
1,652500	0,1	5,332657
1,654167	0,1	5,286522
1,655833	0,1	5,253344
1,657500	0,1	5,276249
1,659167	0,1	5,275094
1,660833	0,1	5,251793
1,662500	0,1	5,298679
1,664167	0,1	5,296964
1,665833	0,1	5,284845
1,667500	0,1	5,317676
1,669167	0,1	5,309235
1,670833	0,1	5,349432
1,672500	0,1	5,340437
1,674167	0,1	5,349988
1,675833	0,1	5,387294
1,677500	0,1	5,415608
1,679167	0,1	5,487016
1,680833	0,1	5,556593
1,682500	0,1	5,535391
1,684167	0,1	5,626855
1,685833	0,1	5,673766
1,687500	0,1	5,682127
1,689167	0,1	5,807042
1,690833	0,1	5,877500
1,692500	0,1	5,948674
1,694167	0,1	6,036808
1,695833	0,1	6,139345
1,697500	0,1	6,252953
1,699167	0,1	6,331406
1,700833	0,1	6,412661
1,702500	0,1	6,492072
1,704167	0,1	6,636584
1,705833	0,1	6,741950
1,707500	0,1	6,851434
1,709167	0,1	6,961688
1,710833	0,1	7,037109
1,712500	0,1	7,194670
1,714167	0,1	7,275930
1,715833	0,1	7,441518
1,717500	0,1	7,548481
1,719167	0,1	7,661423
1,720833	0,1	7,745935
1,722500	0,1	7,896078
1,724167	0,1	7,939303
1,725833	0,1	8,089390
1,727500	0,1	8,140474
1,729167	0,1	8,241489
1,730833	0,1	8,282609
1,732500	0,1	8,379292
1,734167	0,1	8,529584
1,735833	0,1	8,523074
1,737500	0,1	8,631784
1,739167	0,1	8,684073
1,740833	0,1	8,735523
1,742500	0,1	8,761132
1,744167	0,1	8,780486
1,745833	0,1	8,835445
1,747500	0,1	8,857585
1,749167	0,1	8,877246
1,750833	0,1	8,868401
1,752500	0,1	8,872358
1,754167	0,1	8,907640
1,755833	0,1	8,912353
1,757500	0,1	8,890630
1,759167	0,1	8,880151
1,760833	0,1	8,828513
1,762500	0,1	8,812224
1,764167	0,1	8,772638
1,765833	0,1	8,749653
1,767500	0,1	8,708485
1,769167	0,1	8,640643
1,770833	0,1	8,605542
1,772500	0,1	8,511963
1,774167	0,1	8,468560
1,775833	0,1	8,417851
1,777500	0,1	8,339979
1,779167	0,1	8,288250
1,780833	0,1	8,234194
1,782500	0,1	8,121246
1,784167	0,1	8,039745
1,785833	0,1	7,963709
1,787500	0,1	7,906798
1,789167	0,1	7,805444
1,790833	0,1	7,731304
1,792500	0,1	7,645324
1,794167	0,1	7,570908
1,795833	0,1	7,457435
1,797500	0,1	7,330648
1,799167	0,1	7,281837
1,800833	0,1	7,214685
1,802500	0,1	7,098504
1,804167	0,1	6,990078
1,805833	0,1	6,895661
1,807500	0,1	6,794551
1,809167	0,1	6,727841
1,810833	0,1	6,634967
1,812500	0,1	6,532800
1,814167	0,1	6,453448
1,815833	0,1	6,375498
1,817500	0,1	6,289188
1,819167	0,1	6,206561
1,820833	0,1	6,156864
1,822500	0,1	6,008498
1,824167	0,1	5,938961
1,825833	0,1	5,851732
1,827500	0,1	5,765535
1,829167	0,1	5,664177
1,830833	0,1	5,620383
1,832500	0,1	5,534864
1,834167	0,1	5,453750
1,835833	0,1	5,455728
1,837500	0,1	5,383948
1,839167	0,1	5,339736
1,840833	0,1	5,267343
1,842500	0,1	5,221786
1,844167	0,1	5,160084
1,845833	0,1	5,178343
1,847500	0,1	5,133440
1,849167	0,1	5,141169
1,850833	0,1	5,119056
1,852500	0,1	5,115041
1,854167	0,1	5,149495
1,855833	0,1	5,118635
1,857500	0,1	5,143368
1,859167	0,1	5,137244
1,860833	0,1	5,173283
1,862500	0,1	5,193853
1,864167	0,1	5,257110
1,865833	0,1	5,284613
1,867500	0,1	5,271932
1,869167	0,1	5,285943
1,870833	0,1	5,308947
1,872500	0,1	5,352666
1,874167	0,1	5,406022
1,875833	0,1	5,425535
1,877500	0,1	5,441200
1,879167	0,1	5,473035
1,880833	0,1	5,485417
1,882500	0,1	5,510886
1,884167	0,1	5,512473
1,885833	0,1	5,572508
1,887500	0,1	5,566432
1,889167	0,1	5,565303
1,890833	0,1	5,604406
1,892500	0,1	5,656960
1,894167	0,1	5,644420
1,895833	0,1	5,662649
1,897500	0,1	5,663693
1,899167	0,1	5,714926
1,900833	0,1	5,701388
1,902500	0,1	5,730372
1,904167	0,1	5,729427
1,905833	0,1	5,763235
1,907500	0,1	5,779069
1,909167	0,1	5,784978
1,910833	0,1	5,814542
1,912500	0,1	5,796189
1,914167	0,1	5,892568
1,915833	0,1	5,837953
1,917500	0,1	5,787087
1,919167	0,1	5,857516
1,920833	0,1	5,870582
1,922500	0,1	5,862286
1,924167	0,1	5,853806
1,925833	0,1	5,865007
1,927500	0,1	5,848145
1,929167	0,1	5,833001
1,930833	0,1	5,859515
1,932500	0,1	5,868366
1,934167	0,1	5,839037
1,935833	0,1	5,852817
1,937500	0,1	5,834496
1,939167	0,1	5,803262
1,940833	0,1	5,829035
1,942500	0,1	5,850967
1,944167	0,1	5,806132
1,945833	0,1	5,806508
1,947500	0,1	5,800673
1,949167	0,1	5,826763
1,950833	0,1	5,794065
1,952500	0,1	5,783260
1,954167	0,1	5,810426
1,955833	0,1	5,859421
1,957500	0,1	5,817443
1,959167	0,1	5,763508
1,960833	0,1	5,816520
1,962500	0,1	5,824640
1,964167	0,1	5,776657
1,965833	0,1	5,787968
1,967500	0,1	5,838403
1,969167	0,1	5,819460
1,970833	0,1	5,833681
1,972500	0,1	5,856808
1,974167	0,1	5,809230
1,975833	0,1	5,869831
1,977500	0,1	5,855496
1,979167	0,1	5,844132
1,980833	0,1	5,883205
1,982500	0,1	5,882636
1,984167	0,1	5,880700
1,985833	0,1	5,896668
1,987500	0,1	5,918640
1,989167	0,1	5,929796
1,990833	0,1	5,920003
1,992500	0,1	5,967260
1,994167	0,1	5,942717
1,995833	0,1	5,978683
1,997500	0,1	5,966938
1,999167	0,1	6,008438
2,000833	0,1	6,046942
2,002500	0,1	6,042053
2,004167	0,1	6,092266
2,005833	0,1	6,067733
2,007500	0,1	6,173696
2,009167	0,1	6,122616
2,010833	0,1	6,190037
2,012500	0,1	6,213252
2,014167	0,1	6,215265
2,015833	0,1	6,213119
2,017500	0,1	6,266062
2,019167	0,1	6,337148
2,020833	0,1	6,309819
2,022500	0,1	6,350679
2,024167	0,1	6,366584
2,025833	0,1	6,418163
2,027500	0,1	6,445620
2,029167	0,1	6,493192
2,030833	0,1	6,534267
2,032500	0,1	6,596659
2,034167	0,1	6,565761
2,035833	0,1	6,623768
2,037500	0,1	6,629354
2,039167	0,1	6,723988
2,040833	0,1	6,693543
2,042500	0,1	6,684311
2,044167	0,1	6,753141
2,045833	0,1	6,784079
2,047500	0,1	6,845014
2,049167	0,1	6,843535
2,050833	0,1	6,903545
2,052500	0,1	6,927410
2,054167	0,1	6,988080
2,055833	0,1	6,998159
2,057500	0,1	7,047000
2,059167	0,1	7,105827
2,060833	0,1	7,077038
2,062500	0,1	7,109286
2,064167	0,1	7,149566
2,065833	0,1	7,205141
2,067500	0,1	7,218113
2,069167	0,1	7,236205
2,070833	0,1	7,304192
2,072500	0,1	7,253485
2,074167	0,1	7,329662
2,075833	0,1	7,333042
2,077500	0,1	7,401682
2,079167	0,1	7,413931
2,080833	0,1	7,432024
2,082500	0,1	7,431558
2,084167	0,1	7,517854
2,085833	0,1	7,471725
2,087500	0,1	7,504624
2,089167	0,1	7,532628
2,090833	0,1	7,538785
2,092500	0,1	7,585547
2,094167	0,1	7,614016
2,095833	0,1	7,614214
2,097500	0,1	7,592952
2,099167	0,1	7,644350
2,100833	0,1	7,648648
2,102500	0,1	7,715592
2,104167	0,1	7,689740
2,105833	0,1	7,739952
2,107500	0,1	7,708522
2,109167	0,1	7,707488
2,110833	0,1	7,721872
2,112500	0,1	7,736521
2,114167	0,1	7,757888
2,115833	0,1	7,781622
2,117500	0,1	7,781640
2,119167	0,1	7,837900
2,120833	0,1	7,767758
2,122500	0,1	7,803183
2,124167	0,1	7,767364
2,125833	0,1	7,796657
2,127500	0,1	7,797704
2,129167	0,1	7,749169
2,130833	0,1	7,800274
2,132500	0,1	7,804121
2,134167	0,1	7,795841
2,135833	0,1	7,772021
2,137500	0,1	7,773998
2,139167	0,1	7,761099
2,140833	0,1	7,791961
2,142500	0,1	7,745891
2,144167	0,1	7,735713
2,145833	0,1	7,735795
2,147500	0,1	7,751190
2,149167	0,1	7,718960
2,150833	0,1	7,743034
2,152500	0,1	7,758736
2,154167	0,1	7,693229
2,155833	0,1	7,672968
2,157500	0,1	7,666967
2,159167	0,1	7,666014
2,160833	0,1	7,654080
2,162500	0,1	7,601821
2,164167	0,1	7,632052
2,165833	0,1	7,590614
2,167500	0,1	7,553838
2,169167	0,1	7,590968
2,170833	0,1	7,525473
2,172500	0,1	7,567429
2,174167	0,1	7,512022
2,175833	0,1	7,547376
2,177500	0,1	7,496056
2,179167	0,1	7,488580
2,180833	0,1	7,490913
2,182500	0,1	7,426830
2,184167	0,1	7,434271
2,185833	0,1	7,422044
2,187500	0,1	7,448522
2,189167	0,1	7,348283
2,190833	0,1	7,336506
2,192500	0,1	7,363907
2,194167	0,1	7,328658
2,195833	0,1	7,277272
2,197500	0,1	7,271755
2,199167	0,1	7,266067
2,200833	0,1	7,270628
2,202500	0,1	7,204057
2,204167	0,1	7,205253
2,205833	0,1	7,191174
2,207500	0,1	7,168508
2,209167	0,1	7,156665
2,210833	0,1	7,127946
2,212500	0,1	7,157211
2,214167	0,1	7,119746
2,215833	0,1	7,079560
2,217500	0,1	7,095116
2,219167	0,1	7,079552
2,220833	0,1	7,080762
2,222500	0,1	7,073488
2,224167	0,1	7,016353
2,225833	0,1	7,033674
2,227500	0,1	7,053812
2,229167	0,1	7,031912
2,230833	0,1	7,010844
2,232500	0,1	7,023793
2,234167	0,1	7,006090
2,235833	0,1	7,036003
2,237500	0,1	7,051295
2,239167	0,1	6,965931
2,240833	0,1	7,009618
2,242500	0,1	6,987167
2,244167	0,1	6,980919
2,245833	0,1	6,965726
2,247500	0,1	6,961434
2,249167	0,1	7,009523
2,250833	0,1	6,971325
2,252500	0,1	6,979982
2,254167	0,1	7,007665
2,255833	0,1	6,944855
2,257500	0,1	6,918382
2,259167	0,1	6,934211
2,260833	0,1	6,934123
2,262500	0,1	6,863578
2,264167	0,1	6,927122
2,265833	0,1	6,905239
2,267500	0,1	6,885483
2,269167	0,1	6,906719
2,270833	0,1	6,856968
2,272500	0,1	6,887887
2,274167	0,1	6,865071
2,275833	0,1	6,843724
2,277500	0,1	6,861708
2,279167	0,1	6,829572
2,280833	0,1	6,847079
2,282500	0,1	6,818397
2,284167	0,1	6,813630
2,285833	0,1	6,776926
2,287500	0,1	6,800491
2,289167	0,1	6,782339
2,290833	0,1	6,747762
2,292500	0,1	6,708363
2,294167	0,1	6,720548
2,295833	0,1	6,733688
2,297500	0,1	6,697186
2,299167	0,1	6,669336
2,300833	0,1	6,664942
2,302500	0,1	6,639240
2,304167	0,1	6,676017
2,305833	0,1	6,607661
2,307500	0,1	6,613707
2,309167	0,1	6,604682
2,310833	0,1	6,591937
2,312500	0,1	6,591451
2,314167	0,1	6,545096
2,315833	0,1	6,513796
2,317500	0,1	6,528407
2,319167	0,1	6,505239
2,320833	0,1	6,499178
2,322500	0,1	6,485123
2,324167	0,1	6,432424
2,325833	0,1	6,412305
2,327500	0,1	6,416970
2,329167	0,1	6,373766
2,330833	0,1	6,395925
2,332500	0,1	6,372257
2,334167	0,1	6,370338
2,335833	0,1	6,361488
2,337500	0,1	6,336081
2,339167	0,1	6,332536
2,340833	0,1	6,314949
2,342500	0,1	6,273350
2,344167	0,1	6,288984
2,345833	0,1	6,241535
2,347500	0,1	6,258353
2,349167	0,1	6,228186
2,350833	0,1	6,176198
2,352500	0,1	6,175405
2,354167	0,1	6,169112
2,355833	0,1	6,178774
2,357500	0,1	6,201593
2,359167	0,1	6,150914
2,360833	0,1	6,132199
2,362500	0,1	6,096460
2,364167	0,1	6,149024
2,365833	0,1	6,108717
2,367500	0,1	6,102342
2,369167	0,1	6,094973
2,370833	0,1	6,097502
2,372500	0,1	6,094486
2,374167	0,1	6,095905
2,375833	0,1	6,102400
2,377500	0,1	6,082118
2,379167	0,1	6,083428
2,380833	0,1	6,080173
2,382500	0,1	6,094317
2,384167	0,1	6,149571
2,385833	0,1	6,182040
2,387500	0,1	6,187919
2,389167	0,1	6,204851
2,390833	0,1	6,246050
2,392500	0,1	6,299027
2,394167	0,1	6,312887
2,395833	0,1	6,315114
2,397500	0,1	6,362486
2,399167	0,1	6,466087
2,400833	0,1	6,575947
2,402500	0,1	6,635229
2,404167	0,1	6,661853
2,405833	0,1	6,766552
2,407500	0,1	6,875940
2,409167	0,1	6,959084
2,410833	0,1	7,080920
2,412500	0,1	7,208571
2,414167	0,1	7,303721
2,415833	0,1	7,452907
2,417500	0,1	7,642999
2,419167	0,1	7,802679
2,420833	0,1	7,939183
2,422500	0,1	8,087410
2,424167	0,1	8,274288
2,425833	0,1	8,479431
2,427500	0,1	8,703207
2,429167	0,1	8,870400
2,430833	0,1	9,059447
2,432500	0,1	9,296731
2,434167	0,1	9,516169
2,435833	0,1	9,719725
2,437500	0,1	9,942701
2,439167	0,1	10,200167
2,440833	0,1	10,442917
2,442500	0,1	10,622029
2,444167	0,1	10,847552
2,445833	0,1	11,115683
2,447500	0,1	11,328139
2,449167	0,1	11,587654
2,450833	0,1	11,772791
2,452500	0,1	12,016794
2,454167	0,1	12,227390
2,455833	0,1	12,430150
2,457500	0,1	12,630958
2,459167	0,1	12,850959
2,460833	0,1	13,035479
2,462500	0,1	13,236817
2,464167	0,1	13,394702
2,465833	0,1	13,609027
2,467500	0,1	13,751141
2,469167	0,1	13,937504
2,470833	0,1	14,027258
2,472500	0,1	14,191992
2,474167	0,1	14,312297
2,475833	0,1	14,456305
2,477500	0,1	14,618446
2,479167	0,1	14,724725
2,480833	0,1	14,867979
2,482500	0,1	14,962842
2,484167	0,1	15,104180
2,485833	0,1	15,189558
2,487500	0,1	15,300738
2,489167	0,1	15,399322
2,490833	0,1	15,531994
2,492500	0,1	15,690397
2,494167	0,1	15,764719
2,495833	0,1	15,877915
2,497500	0,1	16,028721
2,499167	0,1	16,115089
2,500833	0,1	16,236786
2,502500	0,1	16,406496
2,504167	0,1	16,548033
2,505833	0,1	16,768055
2,507500	0,1	16,843764
2,509167	0,1	17,056195
2,510833	0,1	17,229733
2,512500	0,1	17,383860
2,514167	0,1	17,580687
2,515833	0,1	17,816611
2,517500	0,1	18,042366
2,519167	0,1	18,273128
2,520833	0,1	18,490654
2,522500	0,1	18,771851
2,524167	0,1	19,023170
2,525833	0,1	19,300125
2,527500	0,1	19,622257
2,529167	0,1	19,883346
2,530833	0,1	20,127162
2,532500	0,1	20,521430
2,534167	0,1	20,862036
2,535833	0,1	21,140392
2,537500	0,1	21,518663
2,539167	0,1	21,877543
2,540833	0,1	22,257498
2,542500	0,1	22,620179
2,544167	0,1	22,959887
2,545833	0,1	23,385635
2,547500	0,1	23,736969
2,549167	0,1	24,133536
2,550833	0,1	24,484388
2,552500	0,1	24,890120
2,554167	0,1	25,265031
2,555833	0,1	25,598429
2,557500	0,1	26,016932
2,559167	0,1	26,377908
2,560833	0,1	26,685729
2,562500	0,1	27,029477
2,564167	0,1	27,365943
2,565833	0,1	27,710617
2,567500	0,1	28,026116
2,569167	0,1	28,368470
2,570833	0,1	28,637269
2,572500	0,1	28,911213
2,574167	0,1	29,216873
2,575833	0,1	29,413856
2,577500	0,1	29,693220
2,579167	0,1	29,888926
2,580833	0,1	30,090853
2,582500	0,1	30,322730
2,584167	0,1	30,516376
2,585833	0,1	30,646357
2,587500	0,1	30,771665
2,589167	0,1	30,941277
2,590833	0,1	31,044129
2,592500	0,1	31,137248
2,594167	0,1	31,257812
2,595833	0,1	31,284540
2,597500	0,1	31,337633
2,599167	0,1	31,385768
2,600833	0,1	31,422015
2,602500	0,1	31,361709
2,604167	0,1	31,393014
2,605833	0,1	31,306650
2,607500	0,1	31,296022
2,609167	0,1	31,201696
2,610833	0,1	31,175313
2,612500	0,1	31,124661
2,614167	0,1	31,001910
2,615833	0,1	30,907227
2,617500	0,1	30,795724
2,619167	0,1	30,643995
2,620833	0,1	30,511589
2,622500	0,1	30,380327
2,624167	0,1	30,182864
2,625833	0,1	30,026323
2,627500	0,1	29,831426
2,629167	0,1	29,652327
2,630833	0,1	29,443497
2,632500	0,1	29,252363
2,634167	0,1	29,042385
2,635833	0,1	28,804548
2,637500	0,1	28,543032
2,639167	0,1	28,314683
2,640833	0,1	28,011216
2,642500	0,1	27,822942
2,644167	0,1	27,558168
2,645833	0,1	27,337723
2,647500	0,1	26,991513
2,649167	0,1	26,773707
2,650833	0,1	26,438946
2,652500	0,1	26,136369
2,654167	0,1	25,853525
2,655833	0,1	25,593413
2,657500	0,1	25,264846
2,659167	0,1	24,979317
2,660833	0,1	24,642602
2,662500	0,1	24,304389
2,664167	0,1	24,011701
2,665833	0,1	23,748817
2,667500	0,1	23,385325
2,669167	0,1	23,067960
2,670833	0,1	22,719451
2,672500	0,1	22,416216
2,674167	0,1	22,096448
2,675833	0,1	21,770637
2,677500	0,1	21,423357
2,679167	0,1	21,142076
2,680833	0,1	20,824477
2,682500	0,1	20,518649
2,684167	0,1	20,194007
2,685833	0,1	19,841971
2,687500	0,1	19,515134
2,689167	0,1	19,256697
2,690833	0,1	18,929665
2,692500	0,1	18,624252
2,694167	0,1	18,323249
2,695833	0,1	18,016845
2,697500	0,1	17,743616
2,699167	0,1	17,450580
2,700833	0,1	17,132585
2,702500	0,1	16,845643
2,704167	0,1	16,578552
2,705833	0,1	16,295671
2,707500	0,1	15,990190
2,709167	0,1	15,733636
2,710833	0,1	15,473392
2,712500	0,1	15,187768
2,714167	0,1	14,921088
2,715833	0,1	14,665571
2,717500	0,1	14,422133
2,719167	0,1	14,199027
2,720833	0,1	13,981239
2,722500	0,1	13,751994
2,724167	0,1	13,507437
2,725833	0,1	13,252991
2,727500	0,1	13,068680
2,729167	0,1	12,847311
2,730833	0,1	12,652003
2,732500	0,1	12,428478
2,734167	0,1	12,271380
2,735833	0,1	12,058030
2,737500	0,1	11,870763
2,739167	0,1	11,663814
2,740833	0,1	11,459010
2,742500	0,1	11,270515
2,744167	0,1	11,145795
2,745833	0,1	10,994085
2,747500	0,1	10,766089
2,749167	0,1	10,639704
2,750833	0,1	10,479733
2,752500	0,1	10,369504
2,754167	0,1	10,173205
2,755833	0,1	10,009660
2,757500	0,1	9,869444
2,759167	0,1	9,773564
2,760833	0,1	9,628467
2,762500	0,1	9,447842
2,764167	0,1	9,352056
2,765833	0,1	9,222007
2,767500	0,1	9,087401
2,769167	0,1	8,941823
2,770833	0,1	8,810238
2,772500	0,1	8,731399
2,774167	0,1	8,590811
2,775833	0,1	8,477620
2,777500	0,1	8,386777
2,779167	0,1	8,276027
2,780833	0,1	8,199125
2,782500	0,1	8,067066
2,784167	0,1	7,959889
2,785833	0,1	7,834989
2,787500	0,1	7,717416
2,789167	0,1	7,606122
2,790833	0,1	7,564000
2,792500	0,1	7,422929
2,794167	0,1	7,371956
2,795833	0,1	7,267861
2,797500	0,1	7,204798
2,799167	0,1	7,065505
2,800833	0,1	7,026696
2,802500	0,1	6,923804
2,804167	0,1	6,817006
2,805833	0,1	6,700913
2,807500	0,1	6,718701
2,809167	0,1	6,556478
2,810833	0,1	6,484559
2,812500	0,1	6,436525
2,814167	0,1	6,360660
2,815833	0,1	6,227291
2,817500	0,1	6,202166
2,819167	0,1	6,122814
2,820833	0,1	6,057148
2,822500	0,1	5,992410
2,824167	0,1	5,941631
2,825833	0,1	5,839758
2,827500	0,1	5,800994
2,829167	0,1	5,702601
2,830833	0,1	5,610138
2,832500	0,1	5,570363
2,834167	0,1	5,501068
2,835833	0,1	5,445488
2,837500	0,1	5,361833
2,839167	0,1	5,256697
2,840833	0,1	5,264607
2,842500	0,1	5,211022
2,844167	0,1	5,135454
2,845833	0,1	5,064636
2,847500	0,1	5,049681
2,849167	0,1	4,965967
2,850833	0,1	4,934697
2,852500	0,1	4,872581
2,854167	0,1	4,827275
2,855833	0,1	4,742137
2,857500	0,1	4,696805
2,859167	0,1	4,651243
2,860833	0,1	4,618424
2,862500	0,1	4,570982
2,864167	0,1	4,470951
2,865833	0,1	4,458119
2,867500	0,1	4,387508
2,869167	0,1	4,348543
2,870833	0,1	4,313401
2,872500	0,1	4,260067
2,874167	0,1	4,239961
2,875833	0,1	4,195064
2,877500	0,1	4,121487
2,879167	0,1	4,108550
2,880833	0,1	4,091903
2,882500	0,1	4,041639
2,884167	0,1	3,976883
2,885833	0,1	3,981402
2,887500	0,1	3,919907
2,889167	0,1	3,878471
2,890833	0,1	3,828906
2,892500	0,1	3,794413
2,894167	0,1	3,790155
2,895833	0,1	3,732731
2,897500	0,1	3,697781
2,899167	0,1	3,691343
2,900833	0,1	3,653744
2,902500	0,1	3,640118
2,904167	0,1	3,573442
2,905833	0,1	3,552635
2,907500	0,1	3,548335
2,909167	0,1	3,512142
2,910833	0,1	3,494197
2,912500	0,1	3,446873
2,914167	0,1	3,373660
2,915833	0,1	3,379631
2,917500	0,1	3,351067
2,919167	0,1	3,328288
2,920833	0,1	3,299457
2,922500	0,1	3,256858
2,924167	0,1	3,252168
2,925833	0,1	3,238754
2,927500	0,1	3,228157
2,929167	0,1	3,184234
2,930833	0,1	3,157368
2,932500	0,1	3,147150
2,934167	0,1	3,151387
2,935833	0,1	3,075589
2,937500	0,1	3,094051
2,939167	0,1	3,056255
2,940833	0,1	3,042445
2,942500	0,1	3,017606
2,944167	0,1	3,036258
2,945833	0,1	2,931952
2,947500	0,1	2,979082
2,949167	0,1	2,921395
2,950833	0,1	2,947693
2,952500	0,1	2,907046
2,954167	0,1	2,880839
2,955833	0,1	2,890874
2,957500	0,1	2,845779
2,959167	0,1	2,815286
2,960833	0,1	2,808010
2,962500	0,1	2,797967
2,964167	0,1	2,792342
2,965833	0,1	2,777703
2,967500	0,1	2,781152
2,969167	0,1	2,751148
2,970833	0,1	2,720723
2,972500	0,1	2,697386
2,974167	0,1	2,719602
2,975833	0,1	2,707566
2,977500	0,1	2,648072
2,979167	0,1	2,655882
2,980833	0,1	2,702457
2,982500	0,1	2,635226
2,984167	0,1	2,609303
2,985833	0,1	2,624365
2,987500	0,1	2,593442
2,989167	0,1	2,639060
2,990833	0,1	2,573578
2,992500	0,1	2,593701
2,994167	0,1	2,573489
2,995833	0,1	2,540555
2,997500	0,1	2,550087
2,999167	0,1	2,576553
3,000833	0,1	2,548934
3,002500	0,1	2,521235
3,004167	0,1	2,515355
3,005833	0,1	2,518509
3,007500	0,1	2,471162
3,009167	0,1	2,516774
3,010833	0,1	2,486730
3,012500	0,1	2,487073
3,014167	0,1	2,472873
3,015833	0,1	2,443172
3,017500	0,1	2,490222
3,019167	0,1	2,483204
3,020833	0,1	2,489082
3,022500	0,1	2,406885
3,024167	0,1	2,420061
3,025833	0,1	2,431682
3,027500	0,1	2,434695
3,029167	0,1	2,442880
3,030833	0,1	2,389869
3,032500	0,1	2,407362
3,034167	0,1	2,426449
3,035833	0,1	2,384783
3,037500	0,1	2,420056
3,039167	0,1	2,370648
3,040833	0,1	2,344097
3,042500	0,1	2,310031
3,044167	0,1	2,338490
3,045833	0,1	2,343664
3,047500	0,1	2,308525
3,049167	0,1	2,312316
3,050833	0,1	2,316403
3,052500	0,1	2,318055
3,054167	0,1	2,297190
3,055833	0,1	2,295318
3,057500	0,1	2,297326
3,059167	0,1	2,327086
3,060833	0,1	2,280484
3,062500	0,1	2,239890
3,064167	0,1	2,281394
3,065833	0,1	2,279610
3,067500	0,1	2,232145
3,069167	0,1	2,280460
3,070833	0,1	2,238741
3,072500	0,1	2,214069
3,074167	0,1	2,242240
3,075833	0,1	2,206398
3,077500	0,1	2,231482
3,079167	0,1	2,224605
3,080833	0,1	2,222239
3,082500	0,1	2,231988
3,084167	0,1	2,168400
3,085833	0,1	2,184014
3,087500	0,1	2,189753
3,089167	0,1	2,202875
3,090833	0,1	2,167245
3,092500	0,1	2,154116
3,094167	0,1	2,169672
3,095833	0,1	2,153546
3,097500	0,1	2,172181
3,099167	0,1	2,186596
3,100833	0,1	2,199504
3,102500	0,1	2,194271
3,104167	0,1	2,222446
3,105833	0,1	2,194277
3,107500	0,1	2,168034
3,109167	0,1	2,179424
3,110833	0,1	2,169318
3,112500	0,1	2,163437
3,114167	0,1	2,231760
3,115833	0,1	2,210339
3,117500	0,1	2,198145
3,119167	0,1	2,215924
3,120833	0,1	2,224317
3,122500	0,1	2,199727
3,124167	0,1	2,243526
3,125833	0,1	2,248914
3,127500	0,1	2,235581
3,129167	0,1	2,242818
3,130833	0,1	2,278526
3,132500	0,1	2,287068
3,134167	0,1	2,283485
3,135833	0,1	2,304208
3,137500	0,1	2,347024
3,139167	0,1	2,320788
3,140833	0,1	2,340360
3,142500	0,1	2,343809
3,144167	0,1	2,372132
3,145833	0,1	2,403770
3,147500	0,1	2,374517
3,149167	0,1	2,371351
3,150833	0,1	2,427507
3,152500	0,1	2,401561
3,154167	0,1	2,392880
3,155833	0,1	2,418837
3,157500	0,1	2,439003
3,159167	0,1	2,437426
3,160833	0,1	2,470915
3,162500	0,1	2,467637
3,164167	0,1	2,427750
3,165833	0,1	2,455290
3,167500	0,1	2,489870
3,169167	0,1	2,495253
3,170833	0,1	2,490234
3,172500	0,1	2,514848
3,174167	0,1	2,534937
3,175833	0,1	2,494124
3,177500	0,1	2,521430
3,179167	0,1	2,551954
3,180833	0,1	2,531363
3,182500	0,1	2,545779
3,184167	0,1	2,560786
3,185833	0,1	2,540832
3,187500	0,1	2,549364
3,189167	0,1	2,534306
3,190833	0,1	2,516227
3,192500	0,1	2,550788
3,194167	0,1	2,590695
3,195833	0,1	2,561145
3,197500	0,1	2,517441
3,199167	0,1	2,526831
3,200833	0,1	2,549933
3,202500	0,1	2,566082
3,204167	0,1	2,547213
3,205833	0,1	2,517226
3,207500	0,1	2,471167
3,209167	0,1	2,520582
3,210833	0,1	2,482926
3,212500	0,1	2,495042
3,214167	0,1	2,508809
3,215833	0,1	2,503296
3,217500	0,1	2,492955
3,219167	0,1	2,443613
3,220833	0,1	2,431913
3,222500	0,1	2,424018
3,224167	0,1	2,393241
3,225833	0,1	2,416402
3,227500	0,1	2,463814
3,229167	0,1	2,373524
3,230833	0,1	2,383832
3,232500	0,1	2,379320
3,234167	0,1	2,411377
3,235833	0,1	2,386712
3,237500	0,1	2,351995
3,239167	0,1	2,322224
3,240833	0,1	2,334693
3,242500	0,1	2,309528
3,244167	0,1	2,338561
3,245833	0,1	2,271021
3,247500	0,1	2,305208
3,249167	0,1	2,283344
3,250833	0,1	2,232791
3,252500	0,1	2,229266
3,254167	0,1	2,218440
3,255833	0,1	2,212130
3,257500	0,1	2,139220
3,259167	0,1	2,185083
3,260833	0,1	2,137564
3,262500	0,1	2,139919
3,264167	0,1	2,169814
3,265833	0,1	2,123514
3,267500	0,1	2,100493
3,269167	0,1	2,093895
3,270833	0,1	2,072392
3,272500	0,1	2,062927
3,274167	0,1	2,044291
3,275833	0,1	2,026445
3,277500	0,1	2,005520
3,279167	0,1	1,982867
3,280833	0,1	2,019335
3,282500	0,1	1,964087
3,284167	0,1	1,968454
3,285833	0,1	1,937432
3,287500	0,1	1,914997
3,289167	0,1	1,901948
3,290833	0,1	1,889127
3,292500	0,1	1,887406
3,294167	0,1	1,846284
3,295833	0,1	1,816037
3,297500	0,1	1,843913
3,299167	0,1	1,823849
3,300833	0,1	1,789602
3,302500	0,1	1,816529
3,304167	0,1	1,768475
3,305833	0,1	1,766331
3,307500	0,1	1,780728
3,309167	0,1	1,716894
3,310833	0,1	1,737315
3,312500	0,1	1,748346
3,314167	0,1	1,691197
3,315833	0,1	1,689605
3,317500	0,1	1,661158
3,319167	0,1	1,645754
3,320833	0,1	1,665463
3,322500	0,1	1,672428
3,324167	0,1	1,659036
3,325833	0,1	1,682243
3,327500	0,1	1,624610
3,329167	0,1	1,600583
3,330833	0,1	1,611611
3,332500	0,1	1,582688
3,334167	0,1	1,583889
3,335833	0,1	1,630386
3,337500	0,1	1,561651
3,339167	0,1	1,583446
3,340833	0,1	1,539941
3,342500	0,1	1,547593
3,344167	0,1	1,548019
3,345833	0,1	1,596203
3,347500	0,1	1,523907
3,349167	0,1	1,538132
3,350833	0,1	1,538079
3,352500	0,1	1,498564
3,354167	0,1	1,518662
3,355833	0,1	1,506302
3,357500	0,1	1,527489
3,359167	0,1	1,494355
3,360833	0,1	1,482313
3,362500	0,1	1,497617
3,364167	0,1	1,487178
3,365833	0,1	1,477650
3,367500	0,1	1,485748
3,369167	0,1	1,468192
3,370833	0,1	1,440726
3,372500	0,1	1,446448
3,374167	0,1	1,431349
3,375833	0,1	1,429822
3,377500	0,1	1,442529
3,379167	0,1	1,396061
3,380833	0,1	1,418779
3,382500	0,1	1,452597
3,384167	0,1	1,402504
3,385833	0,1	1,447083
3,387500	0,1	1,405842
3,389167	0,1	1,426663
3,390833	0,1	1,421479
3,392500	0,1	1,392751
3,394167	0,1	1,381660
3,395833	0,1	1,414012
3,397500	0,1	1,380513
3,399167	0,1	1,401471
3,400833	0,1	1,426526
3,402500	0,1	1,363060
3,404167	0,1	1,405635
3,405833	0,1	1,386800
3,407500	0,1	1,403995
3,409167	0,1	1,389662
3,410833	0,1	1,395792
3,412500	0,1	1,380662
3,414167	0,1	1,392215
3,415833	0,1	1,405725
3,417500	0,1	1,391459
3,419167	0,1	1,349393
3,420833	0,1	1,354553
3,422500	0,1	1,345791
3,424167	0,1	1,334300
3,425833	0,1	1,313454
3,427500	0,1	1,368542
3,429167	0,1	1,376773
3,430833	0,1	1,382351
3,432500	0,1	1,366405
3,434167	0,1	1,341625
3,435833	0,1	1,353568
3,437500	0,1	1,366043
3,439167	0,1	1,360420
3,440833	0,1	1,357181
3,442500	0,1	1,316306
3,444167	0,1	1,350884
3,445833	0,1	1,376802
3,447500	0,1	1,355983
3,449167	0,1	1,373991
3,450833	0,1	1,373877
3,452500	0,1	1,352879
3,454167	0,1	1,346012
3,455833	0,1	1,367871
3,457500	0,1	1,399618
3,459167	0,1	1,400084
3,460833	0,1	1,363546
3,462500	0,1	1,372926
3,464167	0,1	1,398467
3,465833	0,1	1,363765
3,467500	0,1	1,389889
3,469167	0,1	1,391692
3,470833	0,1	1,424197
3,472500	0,1	1,393073
3,474167	0,1	1,397846
3,475833	0,1	1,386323
3,477500	0,1	1,405844
3,479167	0,1	1,398475
3,480833	0,1	1,421795
3,482500	0,1	1,462767
3,484167	0,1	1,428237
3,485833	0,1	1,430783
3,487500	0,1	1,408227
3,489167	0,1	1,417306
3,490833	0,1	1,422036
3,492500	0,1	1,398751
3,494167	0,1	1,494103
3,495833	0,1	1,448379
3,497500	0,1	1,458606
3,499167	0,1	1,454757
3,500833	0,1	1,534002
3,502500	0,1	1,485596
3,504167	0,1	1,487259
3,505833	0,1	1,478225
3,507500	0,1	1,473919
3,509167	0,1	1,452883
3,510833	0,1	1,542213
3,512500	0,1	1,509871
3,514167	0,1	1,500229
3,515833	0,1	1,498418
3,517500	0,1	1,515002
3,519167	0,1	1,559348
3,520833	0,1	1,538030
3,522500	0,1	1,540876
3,524167	0,1	1,551703
3,525833	0,1	1,537727
3,527500	0,1	1,551264
3,529167	0,1	1,578902
3,530833	0,1	1,531139
3,532500	0,1	1,510348
3,534167	0,1	1,563693
3,535833	0,1	1,543158
3,537500	0,1	1,547525
3,539167	0,1	1,536655
3,540833	0,1	1,547742
3,542500	0,1	1,522100
3,544167	0,1	1,517364
3,545833	0,1	1,547931
3,547500	0,1	1,586839
3,549167	0,1	1,553483
3,550833	0,1	1,594148
3,552500	0,1	1,562642
3,554167	0,1	1,529766
3,555833	0,1	1,570564
3,557500	0,1	1,546888
3,559167	0,1	1,580040
3,560833	0,1	1,572729
3,562500	0,1	1,540458
3,564167	0,1	1,509706
3,565833	0,1	1,500064
3,567500	0,1	1,489755
3,569167	0,1	1,558820
3,570833	0,1	1,527036
3,572500	0,1	1,534622
3,574167	0,1	1,499920
3,575833	0,1	1,493044
3,577500	0,1	1,530626
3,579167	0,1	1,531566
3,580833	0,1	1,482254
3,582500	0,1	1,496261
3,584167	0,1	1,497568
3,585833	0,1	1,489399
3,587500	0,1	1,493097
3,589167	0,1	1,483669
3,590833	0,1	1,506241
3,592500	0,1	1,482082
3,594167	0,1	1,438562
3,595833	0,1	1,463808
3,597500	0,1	1,479290
3,599167	0,1	1,448103
3,600833	0,1	1,420179
3,602500	0,1	1,457090
3,604167	0,1	1,405912
3,605833	0,1	1,415796
3,607500	0,1	1,464668
3,609167	0,1	1,403795
3,610833	0,1	1,399763
3,612500	0,1	1,387239
3,614167	0,1	1,404149
3,615833	0,1	1,357345
3,617500	0,1	1,373991
3,619167	0,1	1,357726
3,620833	0,1	1,381752
3,622500	0,1	1,345594
3,624167	0,1	1,382446
3,625833	0,1	1,375507
3,627500	0,1	1,331664
3,629167	0,1	1,312726
3,630833	0,1	1,320906
3,632500	0,1	1,315248
3,634167	0,1	1,286879
3,635833	0,1	1,299687
3,637500	0,1	1,330918
3,639167	0,1	1,302797
3,640833	0,1	1,319837
3,642500	0,1	1,319890
3,644167	0,1	1,295374
3,645833	0,1	1,274475
3,647500	0,1	1,271945
3,649167	0,1	1,240684
3,650833	0,1	1,256675
3,652500	0,1	1,223741
3,654167	0,1	1,208042
3,655833	0,1	1,211940
3,657500	0,1	1,199536
3,659167	0,1	1,214406
3,660833	0,1	1,192187
3,662500	0,1	1,168324
3,664167	0,1	1,232753
3,665833	0,1	1,188463
3,667500	0,1	1,170652
3,669167	0,1	1,183433
3,670833	0,1	1,149409
3,672500	0,1	1,099819
3,674167	0,1	1,171717
3,675833	0,1	1,121864
3,677500	0,1	1,157495
3,679167	0,1	1,175928
3,680833	0,1	1,141040
3,682500	0,1	1,141943
3,684167	0,1	1,112290
3,685833	0,1	1,146704
3,687500	0,1	1,096401
3,689167	0,1	1,119114
3,690833	0,1	1,082946
3,692500	0,1	1,150472
3,694167	0,1	1,151753
3,695833	0,1	1,131090
3,697500	0,1	1,111113
3,699167	0,1	1,078306
3,700833	0,1	1,076501
3,702500	0,1	1,048251
3,704167	0,1	1,064067
3,705833	0,1	1,072593
3,707500	0,1	1,093899
3,709167	0,1	1,079768
3,710833	0,1	1,058793
3,712500	0,1	1,065356
3,714167	0,1	1,090812
3,715833	0,1	1,053203
3,717500	0,1	1,015339
3,719167	0,1	1,064814
3,720833	0,1	1,065424
3,722500	0,1	1,061853
3,724167	0,1	1,059278
3,725833	0,1	1,033915
3,727500	0,1	1,062933
3,729167	0,1	1,069686
3,730833	0,1	1,015655
3,732500	0,1	1,054095
3,734167	0,1	1,031515
3,735833	0,1	1,017775
3,737500	0,1	1,051034
3,739167	0,1	1,048290
3,740833	0,1	1,009726
3,742500	0,1	1,033547
3,744167	0,1	1,022435
3,745833	0,1	1,044401
3,747500	0,1	1,037660
3,749167	0,1	1,070433
3,750833	0,1	1,041394
3,752500	0,1	1,028473
3,754167	0,1	1,035792
3,755833	0,1	1,030891
3,757500	0,1	1,053899
3,759167	0,1	1,028209
3,760833	0,1	1,057249
3,762500	0,1	1,016050
3,764167	0,1	1,047949
3,765833	0,1	1,024567
3,767500	0,1	1,037257
3,769167	0,1	1,051417
3,770833	0,1	1,029849
3,772500	0,1	1,032774
3,774167	0,1	1,075513
3,775833	0,1	1,045345
3,777500	0,1	1,037083
3,779167	0,1	1,050504
3,780833	0,1	1,061982
3,782500	0,1	1,070572
3,784167	0,1	1,051114
3,785833	0,1	1,055547
3,787500	0,1	1,051687
3,789167	0,1	1,075874
3,790833	0,1	1,040794
3,792500	0,1	1,043185
3,794167	0,1	1,078356
3,795833	0,1	1,070089
3,797500	0,1	1,051757
3,799167	0,1	1,054215
3,800833	0,1	1,063071
3,802500	0,1	1,070106
3,804167	0,1	1,081692
3,805833	0,1	1,089463
3,807500	0,1	1,046768
3,809167	0,1	1,083816
3,810833	0,1	1,020693
3,812500	0,1	1,060510
3,814167	0,1	1,009928
3,815833	0,1	1,076752
3,817500	0,1	1,049894
3,819167	0,1	1,042698
3,820833	0,1	1,063246
3,822500	0,1	1,051510
3,824167	0,1	1,058164
3,825833	0,1	1,068130
3,827500	0,1	1,021534
3,829167	0,1	1,035790
3,830833	0,1	1,025299
3,832500	0,1	1,038876
3,834167	0,1	1,032955
3,835833	0,1	1,065196
3,837500	0,1	1,026281
3,839167	0,1	1,047018
3,840833	0,1	1,054238
3,842500	0,1	1,051841
3,844167	0,1	1,006510
3,845833	0,1	1,057177
3,847500	0,1	1,070661
3,849167	0,1	1,018560
3,850833	0,1	1,062730
3,852500	0,1	1,005399
3,854167	0,1	1,077283
3,855833	0,1	1,032056
3,857500	0,1	1,044956
3,859167	0,1	1,035152
3,860833	0,1	1,003197
3,862500	0,1	1,044529
3,864167	0,1	1,030093
3,865833	0,1	1,043249
3,867500	0,1	1,029893
3,869167	0,1	1,022591
3,870833	0,1	1,006213
3,872500	0,1	0,984333
3,874167	0,1	1,015080
3,875833	0,1	0,998978
3,877500	0,1	1,027243
3,879167	0,1	1,022499
3,880833	0,1	1,000621
3,882500	0,1	0,990320
3,884167	0,1	0,994756
3,885833	0,1	0,993025
3,887500	0,1	1,023538
3,889167	0,1	0,960442
3,890833	0,1	1,016007
3,892500	0,1	1,004505
3,894167	0,1	0,952872
3,895833	0,1	0,973184
3,897500	0,1	0,967375
3,899167	0,1	0,964131
3,900833	0,1	1,000029
3,902500	0,1	0,972106
3,904167	0,1	0,939931
3,905833	0,1	0,981059
3,907500	0,1	0,939488
3,909167	0,1	0,952503
3,910833	0,1	0,980459
3,912500	0,1	0,904014
3,914167	0,1	0,939298
3,915833	0,1	0,878457
3,917500	0,1	0,931677
3,919167	0,1	0,905182
3,920833	0,1	0,933458
3,922500	0,1	0,934314
3,924167	0,1	0,922040
3,925833	0,1	0,907977
3,927500	0,1	0,922282
3,929167	0,1	0,887130
3,930833	0,1	0,956951
3,932500	0,1	0,907433
3,934167	0,1	0,939966
3,935833	0,1	0,930168
3,937500	0,1	0,923221
3,939167	0,1	0,934090
3,940833	0,1	0,920715
3,942500	0,1	0,914946
3,944167	0,1	0,880433
3,945833	0,1	0,866602
3,947500	0,1	0,855439
3,949167	0,1	0,883345
3,950833	0,1	0,854447
3,952500	0,1	0,891222
3,954167	0,1	0,885808
3,955833	0,1	0,880308
3,957500	0,1	0,887684
3,959167	0,1	0,863097
3,960833	0,1	0,874866
3,962500	0,1	0,892815
3,964167	0,1	0,873009
3,965833	0,1	0,891161
3,967500	0,1	0,831294
3,969167	0,1	0,883339
3,970833	0,1	0,842095
3,972500	0,1	0,824730
3,974167	0,1	0,849287
3,975833	0,1	0,841535
3,977500	0,1	0,863376
3,979167	0,1	0,811963
3,980833	0,1	0,870576
3,982500	0,1	0,833899
3,984167	0,1	0,849392
3,985833	0,1	0,845946
3,987500	0,1	0,836756
3,989167	0,1	0,859516
3,990833	0,1	0,832544
3,992500	0,1	0,823522
3,994167	0,1	0,855548
3,995833	0,1	0,803564
3,997500	0,1	0,804019
3,999167	0,1	0,858353
4,000833	0,1	0,827082
4,002500	0,1	0,820054
4,004167	0,1	0,817966
4,005833	0,1	0,834492
4,007500	0,1	0,778543
4,009167	0,1	0,842070
4,010833	0,1	0,825977
4,012500	0,1	0,840283
4,014167	0,1	0,858873
4,015833	0,1	0,853732
4,017500	0,1	0,848978
4,019167	0,1	0,853178
4,020833	0,1	0,849319
4,022500	0,1	0,868721
4,024167	0,1	0,850322
4,025833	0,1	0,859650
4,027500	0,1	0,841643
4,029167	0,1	0,873378
4,030833	0,1	0,870840
4,032500	0,1	0,842903
4,034167	0,1	0,895498
4,035833	0,1	0,855774
4,037500	0,1	0,895120
4,039167	0,1	0,901562
4,040833	0,1	0,897417
4,042500	0,1	0,923016
4,044167	0,1	0,932711
4,045833	0,1	0,870474
4,047500	0,1	0,886028
4,049167	0,1	0,861851
4,050833	0,1	0,918675
4,052500	0,1	0,917940
4,054167	0,1	0,916809
4,055833	0,1	0,906085
4,057500	0,1	0,928204
4,059167	0,1	0,945094
4,060833	0,1	0,945335
4,062500	0,1	0,964950
4,064167	0,1	0,970036
4,065833	0,1	0,964025
4,067500	0,1	1,036002
4,069167	0,1	1,037036
4,070833	0,1	1,019489
4,072500	0,1	1,038722
4,074167	0,1	1,039104
4,075833	0,1	1,068327
4,077500	0,1	1,031452
4,079167	0,1	1,040808
4,080833	0,1	1,085413
4,082500	0,1	1,103443
4,084167	0,1	1,118759
4,085833	0,1	1,097771
4,087500	0,1	1,086559
4,089167	0,1	1,194350
4,090833	0,1	1,142332
4,092500	0,1	1,166530
4,094167	0,1	1,165959
4,095833	0,1	1,208443
4,097500	0,1	1,199334
4,099167	0,1	1,237996
4,100833	0,1	1,224928
4,102500	0,1	1,292947
4,104167	0,1	1,248415
4,105833	0,1	1,274060
4,107500	0,1	1,308356
4,109167	0,1	1,321175
4,110833	0,1	1,340428
4,112500	0,1	1,364922
4,114167	0,1	1,392551
4,115833	0,1	1,397420
4,117500	0,1	1,450182
4,119167	0,1	1,400214
4,120833	0,1	1,459473
4,122500	0,1	1,472574
4,124167	0,1	1,459512
4,125833	0,1	1,486427
4,127500	0,1	1,530171
4,129167	0,1	1,499577
4,130833	0,1	1,516661
4,132500	0,1	1,556044
4,134167	0,1	1,584470
4,135833	0,1	1,606121
4,137500	0,1	1,613683
4,139167	0,1	1,628322
4,140833	0,1	1,674214
4,142500	0,1	1,696127
4,144167	0,1	1,697234
4,145833	0,1	1,722426
4,147500	0,1	1,694849
4,149167	0,1	1,716694
4,150833	0,1	1,746755
4,152500	0,1	1,762319
4,154167	0,1	1,793897
4,155833	0,1	1,740545
4,157500	0,1	1,781498
4,159167	0,1	1,829512
4,160833	0,1	1,858169
4,162500	0,1	1,841338
4,164167	0,1	1,803143
4,165833	0,1	1,827142
4,167500	0,1	1,881162
4,169167	0,1	1,882030
4,170833	0,1	1,879541
4,172500	0,1	1,909333
4,174167	0,1	1,944663
4,175833	0,1	1,935145
4,177500	0,1	1,935705
4,179167	0,1	1,938139
4,180833	0,1	1,983142
4,182500	0,1	1,938151
4,184167	0,1	1,977053
4,185833	0,1	2,025936
4,187500	0,1	1,996561
4,189167	0,1	1,991889
4,190833	0,1	1,982652
4,192500	0,1	2,008154
4,194167	0,1	2,051592
4,195833	0,1	2,012187
4,197500	0,1	2,017843
4,199167	0,1	2,019347
4,200833	0,1	2,026512
4,202500	0,1	2,037840
4,204167	0,1	2,046366
4,205833	0,1	2,087507
4,207500	0,1	2,052547
4,209167	0,1	2,062707
4,210833	0,1	2,061136
4,212500	0,1	2,017923
4,214167	0,1	2,009387
4,215833	0,1	2,076463
4,217500	0,1	2,032902
4,219167	0,1	2,035686
4,220833	0,1	2,045652
4,222500	0,1	2,068229
4,224167	0,1	2,048167
4,225833	0,1	2,042499
4,227500	0,1	2,016629
4,229167	0,1	2,054392
4,230833	0,1	2,026025
4,232500	0,1	2,033750
4,234167	0,1	2,018564
4,235833	0,1	2,043428
4,237500	0,1	2,055612
4,239167	0,1	2,010530
4,240833	0,1	2,007018
4,242500	0,1	2,003151
4,244167	0,1	1,998988
4,245833	0,1	1,976053
4,247500	0,1	2,023498
4,249167	0,1	1,999432
4,250833	0,1	1,940441
4,252500	0,1	1,937359
4,254167	0,1	1,921590
4,255833	0,1	1,924095
4,257500	0,1	1,927315
4,259167	0,1	1,947669
4,260833	0,1	1,904332
4,262500	0,1	1,915428
4,264167	0,1	1,915719
4,265833	0,1	1,887132
4,267500	0,1	1,899172
4,269167	0,1	1,887058
4,270833	0,1	1,865134
4,272500	0,1	1,899650
4,274167	0,1	1,836330
4,275833	0,1	1,854016
4,277500	0,1	1,842842
4,279167	0,1	1,834459
4,280833	0,1	1,822853
4,282500	0,1	1,782814
4,284167	0,1	1,791107
4,285833	0,1	1,729498
4,287500	0,1	1,778210
4,289167	0,1	1,726014
4,290833	0,1	1,760004
4,292500	0,1	1,749729
4,294167	0,1	1,729797
4,295833	0,1	1,710110
4,297500	0,1	1,699256
4,299167	0,1	1,740611
4,300833	0,1	1,684483
4,302500	0,1	1,660258
4,304167	0,1	1,664477
4,305833	0,1	1,668609
4,307500	0,1	1,657884
4,309167	0,1	1,585059
4,310833	0,1	1,609261
4,312500	0,1	1,605827
4,314167	0,1	1,544812
4,315833	0,1	1,593856
4,317500	0,1	1,551171
4,319167	0,1	1,551667
4,320833	0,1	1,557355
4,322500	0,1	1,537057
4,324167	0,1	1,523482
4,325833	0,1	1,509443
4,327500	0,1	1,521048
4,329167	0,1	1,526986
4,330833	0,1	1,495614
4,332500	0,1	1,499198
4,334167	0,1	1,425003
4,335833	0,1	1,463109
4,337500	0,1	1,460913
4,339167	0,1	1,416454
4,340833	0,1	1,413731
4,342500	0,1	1,501933
4,344167	0,1	1,435431
4,345833	0,1	1,447039
4,347500	0,1	1,371978
4,349167	0,1	1,410500
4,350833	0,1	1,358939
4,352500	0,1	1,382178
4,354167	0,1	1,336530
4,355833	0,1	1,356990
4,357500	0,1	1,346013
4,359167	0,1	1,342012
4,360833	0,1	1,321759
4,362500	0,1	1,328010
4,364167	0,1	1,308659
4,365833	0,1	1,306739
4,367500	0,1	1,299437
4,369167	0,1	1,335713
4,370833	0,1	1,322591
4,372500	0,1	1,303101
4,374167	0,1	1,269634
4,375833	0,1	1,278861
4,377500	0,1	1,262087
4,379167	0,1	1,229363
4,380833	0,1	1,256029
4,382500	0,1	1,251452
4,384167	0,1	1,217726
4,385833	0,1	1,193945
4,387500	0,1	1,244280
4,389167	0,1	1,210133
4,390833	0,1	1,198422
4,392500	0,1	1,137028
4,394167	0,1	1,174368
4,395833	0,1	1,197657
4,397500	0,1	1,167280
4,399167	0,1	1,181054
4,400833	0,1	1,172533
4,402500	0,1	1,159505
4,404167	0,1	1,155372
4,405833	0,1	1,197430
4,407500	0,1	1,123888
4,409167	0,1	1,146486
4,410833	0,1	1,134263
4,412500	0,1	1,104144
4,414167	0,1	1,083320
4,415833	0,1	1,098316
4,417500	0,1	1,077526
4,419167	0,1	1,105151
4,420833	0,1	1,065279
4,422500	0,1	1,096205
4,424167	0,1	1,106243
4,425833	0,1	1,085118
4,427500	0,1	1,018586
4,429167	0,1	1,074622
4,430833	0,1	1,037335
4,432500	0,1	1,029804
4,434167	0,1	1,054476
4,435833	0,1	1,040304
4,437500	0,1	1,009945
4,439167	0,1	1,017173
4,440833	0,1	1,052678
4,442500	0,1	0,995480
4,444167	0,1	1,023293
4,445833	0,1	1,033816
4,447500	0,1	1,008701
4,449167	0,1	0,967093
4,450833	0,1	0,966598
4,452500	0,1	0,949514
4,454167	0,1	0,977554
4,455833	0,1	0,962137
4,457500	0,1	0,938289
4,459167	0,1	0,968809
4,460833	0,1	0,962276
4,462500	0,1	0,952796
4,464167	0,1	0,914062
4,465833	0,1	0,947637
4,467500	0,1	0,908848
4,469167	0,1	0,956603
4,470833	0,1	0,908629
4,472500	0,1	0,884329
4,474167	0,1	0,867049
4,475833	0,1	0,927000
4,477500	0,1	0,921578
4,479167	0,1	0,878294
4,480833	0,1	0,894904
4,482500	0,1	0,899740
4,484167	0,1	0,876137
4,485833	0,1	0,847026
4,487500	0,1	0,870294
4,489167	0,1	0,853223
4,490833	0,1	0,870520
4,492500	0,1	0,859615
4,494167	0,1	0,816951
4,495833	0,1	0,827101
4,497500	0,1	0,825134
4,499167	0,1	0,812663
4,500833	0,1	0,811347
4,502500	0,1	0,812659
4,504167	0,1	0,806359
4,505833	0,1	0,811597
4,507500	0,1	0,768731
4,509167	0,1	0,795154
4,510833	0,1	0,755773
4,512500	0,1	0,776435
4,514167	0,1	0,774259
4,515833	0,1	0,802193
4,517500	0,1	0,779913
4,519167	0,1	0,757951
4,520833	0,1	0,794406
4,522500	0,1	0,730656
4,524167	0,1	0,742931
4,525833	0,1	0,725247
4,527500	0,1	0,766325
4,529167	0,1	0,727051
4,530833	0,1	0,730380
4,532500	0,1	0,752600
4,534167	0,1	0,693124
4,535833	0,1	0,728833
4,537500	0,1	0,693707
4,539167	0,1	0,689805
4,540833	0,1	0,701408
4,542500	0,1	0,710543
4,544167	0,1	0,689840
4,545833	0,1	0,692694
4,547500	0,1	0,690701
4,549167	0,1	0,682314
4,550833	0,1	0,704621
4,552500	0,1	0,691088
4,554167	0,1	0,678550
4,555833	0,1	0,668226
4,557500	0,1	0,678127
4,559167	0,1	0,661187
4,560833	0,1	0,654082
4,562500	0,1	0,636528
4,564167	0,1	0,655103
4,565833	0,1	0,636428
4,567500	0,1	0,622797
4,569167	0,1	0,623436
4,570833	0,1	0,606176
4,572500	0,1	0,616105
4,574167	0,1	0,565870
4,575833	0,1	0,595651
4,577500	0,1	0,638248
4,579167	0,1	0,656163
4,580833	0,1	0,606537
4,582500	0,1	0,577084
4,584167	0,1	0,609218
4,585833	0,1	0,597494
4,587500	0,1	0,600834
4,589167	0,1	0,589938
4,590833	0,1	0,574123
4,592500	0,1	0,545708
4,594167	0,1	0,556212
4,595833	0,1	0,560264
4,597500	0,1	0,571159
4,599167	0,1	0,520995
4,600833	0,1	0,551866
4,602500	0,1	0,559941
4,604167	0,1	0,579837
4,605833	0,1	0,538030
4,607500	0,1	0,551775
4,609167	0,1	0,520894
4,610833	0,1	0,520500
4,612500	0,1	0,558262
4,614167	0,1	0,530762
4,615833	0,1	0,525678
4,617500	0,1	0,477089
4,619167	0,1	0,516473
4,620833	0,1	0,535572
4,622500	0,1	0,532557
4,624167	0,1	0,523972
4,625833	0,1	0,518284
4,627500	0,1	0,468796
4,629167	0,1	0,495198
4,630833	0,1	0,534313
4,632500	0,1	0,521662
4,634167	0,1	0,491546
4,635833	0,1	0,470973
4,637500	0,1	0,443299
4,639167	0,1	0,460679
4,640833	0,1	0,496772
4,642500	0,1	0,488263
4,644167	0,1	0,480134
4,645833	0,1	0,497835
4,647500	0,1	0,466348
4,649167	0,1	0,475111
4,650833	0,1	0,441732
4,652500	0,1	0,421352
4,654167	0,1	0,499301
4,655833	0,1	0,481645
4,657500	0,1	0,445201
4,659167	0,1	0,452394
4,660833	0,1	0,475755
4,662500	0,1	0,432190
4,664167	0,1	0,466880
4,665833	0,1	0,444173
4,667500	0,1	0,452909
4,669167	0,1	0,485845
4,670833	0,1	0,423163
4,672500	0,1	0,467070
4,674167	0,1	0,438550
4,675833	0,1	0,473312
4,677500	0,1	0,409375
4,679167	0,1	0,398727
4,680833	0,1	0,448624
4,682500	0,1	0,419523
4,684167	0,1	0,406377
4,685833	0,1	0,442809
4,687500	0,1	0,410562
4,689167	0,1	0,411549
4,690833	0,1	0,383786
4,692500	0,1	0,381246
4,694167	0,1	0,398755
4,695833	0,1	0,411355
4,697500	0,1	0,423694
4,699167	0,1	0,373834
4,700833	0,1	0,398980
4,702500	0,1	0,402192
4,704167	0,1	0,358437
4,705833	0,1	0,413239
4,707500	0,1	0,399087
4,709167	0,1	0,388026
4,710833	0,1	0,368976
4,712500	0,1	0,389206
4,714167	0,1	0,351629
4,715833	0,1	0,364369
4,717500	0,1	0,404597
4,719167	0,1	0,353687
4,720833	0,1	0,365075
4,722500	0,1	0,365432
4,724167	0,1	0,360555
4,725833	0,1	0,368163
4,727500	0,1	0,354574
4,729167	0,1	0,364733
4,730833	0,1	0,350048
4,732500	0,1	0,370315
4,734167	0,1	0,354356
4,735833	0,1	0,399752
4,737500	0,1	0,360500
4,739167	0,1	0,370762
4,740833	0,1	0,373821
4,742500	0,1	0,357506
4,744167	0,1	0,349087
4,745833	0,1	0,388530
4,747500	0,1	0,343385
4,749167	0,1	0,338253
4,750833	0,1	0,346449
4,752500	0,1	0,349692
4,754167	0,1	0,321878
4,755833	0,1	0,352654
4,757500	0,1	0,302052
4,759167	0,1	0,326879
4,760833	0,1	0,348111
4,762500	0,1	0,312140
4,764167	0,1	0,289044
4,765833	0,1	0,335291
4,767500	0,1	0,319695
4,769167	0,1	0,310848
4,770833	0,1	0,333169
4,772500	0,1	0,352556
4,774167	0,1	0,351810
4,775833	0,1	0,339613
4,777500	0,1	0,314040
4,779167	0,1	0,323053
4,780833	0,1	0,341660
4,782500	0,1	0,335620
4,784167	0,1	0,359136
4,785833	0,1	0,333289
4,787500	0,1	0,336397
4,789167	0,1	0,323901
4,790833	0,1	0,313773
4,792500	0,1	0,318078
4,794167	0,1	0,315913
4,795833	0,1	0,298617
4,797500	0,1	0,308664
4,799167	0,1	0,281044
4,800833	0,1	0,337505
4,802500	0,1	0,357697
4,804167	0,1	0,320694
4,805833	0,1	0,281842
4,807500	0,1	0,346499
4,809167	0,1	0,305817
4,810833	0,1	0,324058
4,812500	0,1	0,306781
4,814167	0,1	0,290454
4,815833	0,1	0,347080
4,817500	0,1	0,307000
4,819167	0,1	0,328102
4,820833	0,1	0,327591
4,822500	0,1	0,297624
4,824167	0,1	0,312328
4,825833	0,1	0,279799
4,827500	0,1	0,291543
4,829167	0,1	0,262627
4,830833	0,1	0,327611
4,832500	0,1	0,297939
4,834167	0,1	0,274707
4,835833	0,1	0,294715
4,837500	0,1	0,292957
4,839167	0,1	0,292578
4,840833	0,1	0,325655
4,842500	0,1	0,301895
4,844167	0,1	0,274255
4,845833	0,1	0,300988
4,847500	0,1	0,291800
4,849167	0,1	0,296457
4,850833	0,1	0,271432
4,852500	0,1	0,264712
4,854167	0,1	0,251638
4,855833	0,1	0,295942
4,857500	0,1	0,254175
4,859167	0,1	0,261887
4,860833	0,1	0,295657
4,862500	0,1	0,256053
4,864167	0,1	0,286749
4,865833	0,1	0,278307
4,867500	0,1	0,301782
4,869167	0,1	0,293664
4,870833	0,1	0,273673
4,872500	0,1	0,287939
4,874167	0,1	0,250373
4,875833	0,1	0,299985
4,877500	0,1	0,259619
4,879167	0,1	0,263904
4,880833	0,1	0,258803
4,882500	0,1	0,277078
4,884167	0,1	0,312224
4,885833	0,1	0,302369
4,887500	0,1	0,268573
4,889167	0,1	0,262469
4,890833	0,1	0,281348
4,892500	0,1	0,270495
4,894167	0,1	0,300495
4,895833	0,1	0,313740
4,897500	0,1	0,278187
4,899167	0,1	0,254701
4,900833	0,1	0,241724
4,902500	0,1	0,299140
4,904167	0,1	0,293601
4,905833	0,1	0,278723
4,907500	0,1	0,230294
4,909167	0,1	0,256642
4,910833	0,1	0,240982
4,912500	0,1	0,287136
4,914167	0,1	0,274489
4,915833	0,1	0,265884
4,917500	0,1	0,280619
4,919167	0,1	0,259552
4,920833	0,1	0,252253
4,922500	0,1	0,270942
4,924167	0,1	0,264913
4,925833	0,1	0,232531
4,927500	0,1	0,314794
4,929167	0,1	0,322259
4,930833	0,1	0,302284
4,932500	0,1	0,280301
4,934167	0,1	0,283102
4,935833	0,1	0,257827
4,937500	0,1	0,247845
4,939167	0,1	0,289545
4,940833	0,1	0,261643
4,942500	0,1	0,284850
4,944167	0,1	0,291253
4,945833	0,1	0,278848
4,947500	0,1	0,251781
4,949167	0,1	0,282693
4,950833	0,1	0,274452
4,952500	0,1	0,319227
4,954167	0,1	0,258869
4,955833	0,1	0,308555
4,957500	0,1	0,279948
4,959167	0,1	0,322539
4,960833	0,1	0,304952
4,962500	0,1	0,307065
4,964167	0,1	0,304649
4,965833	0,1	0,299408
4,967500	0,1	0,273499
4,969167	0,1	0,270797
4,970833	0,1	0,245028
4,972500	0,1	0,276181
4,974167	0,1	0,271590
4,975833	0,1	0,286981
4,977500	0,1	0,244452
4,979167	0,1	0,250650
4,980833	0,1	0,316045
4,982500	0,1	0,308994
4,984167	0,1	0,255628
4,985833	0,1	0,281611
4,987500	0,1	0,320124
4,989167	0,1	0,292585
4,990833	0,1	0,273911
4,992500	0,1	0,317462
4,994167	0,1	0,300218
4,995833	0,1	0,296560
4,997500	0,1	0,300312
4,999167	0,1	0,319170
5,000833	0,1	0,295217
5,002500	0,1	0,305615
5,004167	0,1	0,258260
5,005833	0,1	0,269205
5,007500	0,1	0,315533
5,009167	0,1	0,306578
5,010833	0,1	0,305744
5,012500	0,1	0,317055
5,014167	0,1	0,311880
5,015833	0,1	0,247670
5,017500	0,1	0,326287
5,019167	0,1	0,293217
5,020833	0,1	0,311712
5,022500	0,1	0,324375
5,024167	0,1	0,302688
5,025833	0,1	0,332107
5,027500	0,1	0,304666
5,029167	0,1	0,356784
5,030833	0,1	0,312595
5,032500	0,1	0,350868
5,034167	0,1	0,294217
5,035833	0,1	0,303260
5,037500	0,1	0,329285
5,039167	0,1	0,312336
5,040833	0,1	0,318531
5,042500	0,1	0,336292
5,044167	0,1	0,366457
5,045833	0,1	0,307648
5,047500	0,1	0,333077
5,049167	0,1	0,343780
5,050833	0,1	0,336751
5,052500	0,1	0,356376
5,054167	0,1	0,343333
5,055833	0,1	0,343238
5,057500	0,1	0,342080
5,059167	0,1	0,345773
5,060833	0,1	0,368260
5,062500	0,1	0,349279
5,064167	0,1	0,370223
5,065833	0,1	0,347128
5,067500	0,1	0,337422
5,069167	0,1	0,365760
5,070833	0,1	0,361713
5,072500	0,1	0,369131
5,074167	0,1	0,370709
5,075833	0,1	0,387930
5,077500	0,1	0,366415
5,079167	0,1	0,345225
5,080833	0,1	0,354894
5,082500	0,1	0,413563
5,084167	0,1	0,386139
5,085833	0,1	0,389697
5,087500	0,1	0,392918
5,089167	0,1	0,385264
5,090833	0,1	0,392076
5,092500	0,1	0,405246
5,094167	0,1	0,366474
5,095833	0,1	0,411511
5,097500	0,1	0,360376
5,099167	0,1	0,422333
5,100833	0,1	0,415859
5,102500	0,1	0,375379
5,104167	0,1	0,396699
5,105833	0,1	0,414695
5,107500	0,1	0,368375
5,109167	0,1	0,375143
5,110833	0,1	0,367008
5,112500	0,1	0,411448
5,114167	0,1	0,427746
5,115833	0,1	0,366450
5,117500	0,1	0,393775
5,119167	0,1	0,384913
5,120833	0,1	0,458068
5,122500	0,1	0,371462
5,124167	0,1	0,404762
5,125833	0,1	0,373893
5,127500	0,1	0,436318
5,129167	0,1	0,430868
5,130833	0,1	0,401210
5,132500	0,1	0,398796
5,134167	0,1	0,417168
5,135833	0,1	0,387037
5,137500	0,1	0,407879
5,139167	0,1	0,416752
5,140833	0,1	0,405225
5,142500	0,1	0,390090
5,144167	0,1	0,398559
5,145833	0,1	0,426940
5,147500	0,1	0,418403
5,149167	0,1	0,418719
5,150833	0,1	0,414375
5,152500	0,1	0,399977
5,154167	0,1	0,402842
5,155833	0,1	0,397990
5,157500	0,1	0,380996
5,159167	0,1	0,431652
5,160833	0,1	0,371041
5,162500	0,1	0,414110
5,164167	0,1	0,397712
5,165833	0,1	0,397058
5,167500	0,1	0,406984
5,169167	0,1	0,405286
5,170833	0,1	0,416109
5,172500	0,1	0,385561
5,174167	0,1	0,383851
5,175833	0,1	0,401071
5,177500	0,1	0,369720
5,179167	0,1	0,373152
5,180833	0,1	0,369261
5,182500	0,1	0,397560
5,184167	0,1	0,387836
5,185833	0,1	0,368884
5,187500	0,1	0,347036
5,189167	0,1	0,382530
5,190833	0,1	0,379741
5,192500	0,1	0,362486
5,194167	0,1	0,353323
5,195833	0,1	0,331477
5,197500	0,1	0,380464
5,199167	0,1	0,396158
5,200833	0,1	0,369203
5,202500	0,1	0,326721
5,204167	0,1	0,418245
5,205833	0,1	0,323685
5,207500	0,1	0,351133
5,209167	0,1	0,382650
5,210833	0,1	0,340643
5,212500	0,1	0,358748
5,214167	0,1	0,354065
5,215833	0,1	0,385065
5,217500	0,1	0,324582
5,219167	0,1	0,321002
5,220833	0,1	0,324177
5,222500	0,1	0,320008
5,224167	0,1	0,353739
5,225833	0,1	0,359140
5,227500	0,1	0,358373
5,229167	0,1	0,353097
5,230833	0,1	0,352010
5,232500	0,1	0,353548
5,234167	0,1	0,319952
5,235833	0,1	0,337641
5,237500	0,1	0,318172
5,239167	0,1	0,304424
5,240833	0,1	0,332108
5,242500	0,1	0,353226
5,244167	0,1	0,319309
5,245833	0,1	0,343043
5,247500	0,1	0,312303
5,249167	0,1	0,331804
5,250833	0,1	0,303785
5,252500	0,1	0,342197
5,254167	0,1	0,301545
5,255833	0,1	0,285401
5,257500	0,1	0,323499
5,259167	0,1	0,299992
5,260833	0,1	0,299343
5,262500	0,1	0,286787
5,264167	0,1	0,318914
5,265833	0,1	0,324918
5,267500	0,1	0,317891
5,269167	0,1	0,283453
5,270833	0,1	0,280170
5,272500	0,1	0,285371
5,274167	0,1	0,281945
5,275833	0,1	0,277097
5,277500	0,1	0,288985
5,279167	0,1	0,275321
5,280833	0,1	0,292208
5,282500	0,1	0,284858
5,284167	0,1	0,297841
5,285833	0,1	0,286345
5,287500	0,1	0,250952
5,289167	0,1	0,280841
5,290833	0,1	0,287335
5,292500	0,1	0,241732
5,294167	0,1	0,206522
5,295833	0,1	0,250856
5,297500	0,1	0,246887
5,299167	0,1	0,212908
5,300833	0,1	0,244699
5,302500	0,1	0,275085
5,304167	0,1	0,284728
5,305833	0,1	0,226921
5,307500	0,1	0,282789
5,309167	0,1	0,228659
5,310833	0,1	0,245660
5,312500	0,1	0,219142
5,314167	0,1	0,246588
5,315833	0,1	0,231282
5,317500	0,1	0,225624
5,319167	0,1	0,207990
5,320833	0,1	0,268689
5,322500	0,1	0,207712
5,324167	0,1	0,242771
5,325833	0,1	0,235526
5,327500	0,1	0,231051
5,329167	0,1	0,243317
5,330833	0,1	0,229166
5,332500	0,1	0,233847
5,334167	0,1	0,241202
5,335833	0,1	0,219078
5,337500	0,1	0,198646
5,339167	0,1	0,202620
5,340833	0,1	0,201813
5,342500	0,1	0,207937
5,344167	0,1	0,185532
5,345833	0,1	0,195489
5,347500	0,1	0,228473
5,349167	0,1	0,203824
5,350833	0,1	0,227105
5,352500	0,1	0,227236
5,354167	0,1	0,243809
5,355833	0,1	0,210729
5,357500	0,1	0,178548
5,359167	0,1	0,235471
5,360833	0,1	0,168403
5,362500	0,1	0,214565
5,364167	0,1	0,204362
5,365833	0,1	0,194890
5,367500	0,1	0,173969
5,369167	0,1	0,208181
5,370833	0,1	0,185900
5,372500	0,1	0,183100
5,374167	0,1	0,205890
5,375833	0,1	0,176266
5,377500	0,1	0,166359
5,379167	0,1	0,180463
5,380833	0,1	0,200313
5,382500	0,1	0,186211
5,384167	0,1	0,155070
5,385833	0,1	0,175032
5,387500	0,1	0,158881
5,389167	0,1	0,144396
5,390833	0,1	0,174450
5,392500	0,1	0,204579
5,394167	0,1	0,200898
5,395833	0,1	0,191928
5,397500	0,1	0,198474
5,399167	0,1	0,200129
5,400833	0,1	0,174771
5,402500	0,1	0,155153
5,404167	0,1	0,142924
5,405833	0,1	0,160862
5,407500	0,1	0,152081
5,409167	0,1	0,151812
5,410833	0,1	0,170723
5,412500	0,1	0,184835
5,414167	0,1	0,156229
5,415833	0,1	0,165503
5,417500	0,1	0,138930
5,419167	0,1	0,135713
5,420833	0,1	0,205932
5,422500	0,1	0,141238
5,424167	0,1	0,184411
5,425833	0,1	0,148398
5,427500	0,1	0,094764
5,429167	0,1	0,167436
5,430833	0,1	0,121179
5,432500	0,1	0,108077
5,434167	0,1	0,151614
5,435833	0,1	0,146487
5,437500	0,1	0,177952
5,439167	0,1	0,127622
5,440833	0,1	0,144531
5,442500	0,1	0,132813
5,444167	0,1	0,153796
5,445833	0,1	0,144168
5,447500	0,1	0,139877
5,449167	0,1	0,129229
5,450833	0,1	0,137967
5,452500	0,1	0,163635
5,454167	0,1	0,106449
5,455833	0,1	0,099041
5,457500	0,1	0,148008
5,459167	0,1	0,133581
5,460833	0,1	0,144431
5,462500	0,1	0,129210
5,464167	0,1	0,145652
5,465833	0,1	0,151144
5,467500	0,1	0,161875
5,469167	0,1	0,089797
5,470833	0,1	0,165713
5,472500	0,1	0,127515
5,474167	0,1	0,092770
5,475833	0,1	0,115422
5,477500	0,1	0,114621
5,479167	0,1	0,119259
5,480833	0,1	0,105030
5,482500	0,1	0,148982
5,484167	0,1	0,151725
5,485833	0,1	0,097333
5,487500	0,1	0,105958
5,489167	0,1	0,111221
5,490833	0,1	0,098980
5,492500	0,1	0,086882
5,494167	0,1	0,098044
5,495833	0,1	0,112668
5,497500	0,1	0,144881
5,499167	0,1	0,107729
5,500833	0,1	0,125450
5,502500	0,1	0,129991
5,504167	0,1	0,133348
5,505833	0,1	0,151204
5,507500	0,1	0,084327
5,509167	0,1	0,100756
5,510833	0,1	0,127892
5,512500	0,1	0,094821
5,514167	0,1	0,119566
5,515833	0,1	0,068039
5,517500	0,1	0,103694
5,519167	0,1	0,121183
5,520833	0,1	0,096415
5,522500	0,1	0,102747
5,524167	0,1	0,094713
5,525833	0,1	0,121469
5,527500	0,1	0,119343
5,529167	0,1	0,112879
5,530833	0,1	0,060252
5,532500	0,1	0,108537
5,534167	0,1	0,109626
5,535833	0,1	0,095294
5,537500	0,1	0,124454
5,539167	0,1	0,122410
5,540833	0,1	0,111743
5,542500	0,1	0,078725
5,544167	0,1	0,103903
5,545833	0,1	0,078846
5,547500	0,1	0,118795
5,549167	0,1	0,067563
5,550833	0,1	0,133021
5,552500	0,1	0,079785
5,554167	0,1	0,071695
5,555833	0,1	0,071984
5,557500	0,1	0,087372
5,559167	0,1	0,114820
5,560833	0,1	0,108220
5,562500	0,1	0,111904
5,564167	0,1	0,111780
5,565833	0,1	0,110001
5,567500	0,1	0,107016
5,569167	0,1	0,083631
5,570833	0,1	0,107239
5,572500	0,1	0,070439
5,574167	0,1	0,055952
5,575833	0,1	0,087927
5,577500	0,1	0,074659
5,579167	0,1	0,081554
5,580833	0,1	0,039244
5,582500	0,1	0,097328
5,584167	0,1	0,085638
5,585833	0,1	0,090794
5,587500	0,1	0,062895
5,589167	0,1	0,061232
5,590833	0,1	0,085279
5,592500	0,1	0,065006
5,594167	0,1	0,040024
5,595833	0,1	0,097142
5,597500	0,1	0,084934
5,599167	0,1	0,127371
5,600833	0,1	0,084982
5,602500	0,1	0,087273
5,604167	0,1	0,098437
5,605833	0,1	0,095600
5,607500	0,1	0,086342
5,609167	0,1	0,091538
5,610833	0,1	0,118736
5,612500	0,1	0,073900
5,614167	0,1	0,064094
5,615833	0,1	0,077885
5,617500	0,1	0,035865
5,619167	0,1	0,088875
5,620833	0,1	0,085140
5,622500	0,1	0,057779
5,624167	0,1	0,072291
5,625833	0,1	0,083148
5,627500	0,1	0,126377
5,629167	0,1	0,111515
5,630833	0,1	0,086554
5,632500	0,1	0,056123
5,634167	0,1	0,090433
5,635833	0,1	0,092410
5,637500	0,1	0,085079
5,639167	0,1	0,089798
5,640833	0,1	0,113475
5,642500	0,1	0,117002
5,644167	0,1	0,096082
5,645833	0,1	0,062648
5,647500	0,1	0,084138
5,649167	0,1	0,138703
5,650833	0,1	0,075893
5,652500	0,1	0,080518
5,654167	0,1	0,088140
5,655833	0,1	0,098231
5,657500	0,1	0,140240
5,659167	0,1	0,080760
5,660833	0,1	0,046014
5,662500	0,1	0,079081
5,664167	0,1	0,077597
5,665833	0,1	0,108561
5,667500	0,1	0,113086
5,669167	0,1	0,104200
5,670833	0,1	0,092994
5,672500	0,1	0,103513
5,674167	0,1	0,099620
5,675833	0,1	0,085143
5,677500	0,1	0,086423
5,679167	0,1	0,113058
5,680833	0,1	0,085518
5,682500	0,1	0,071864
5,684167	0,1	0,119269
5,685833	0,1	0,103890
5,687500	0,1	0,125410
5,689167	0,1	0,100226
5,690833	0,1	0,116396
5,692500	0,1	0,091090
5,694167	0,1	0,099847
5,695833	0,1	0,130398
5,697500	0,1	0,098032
5,699167	0,1	0,070995
5,700833	0,1	0,099344
5,702500	0,1	0,093841
5,704167	0,1	0,099661
5,705833	0,1	0,095207
5,707500	0,1	0,149473
5,709167	0,1	0,126040
5,710833	0,1	0,078086
5,712500	0,1	0,116994
5,714167	0,1	0,097740
5,715833	0,1	0,120976
5,717500	0,1	0,124129
5,719167	0,1	0,137654
5,720833	0,1	0,109591
5,722500	0,1	0,078393
5,724167	0,1	0,119333
5,725833	0,1	0,142439
5,727500	0,1	0,118376
5,729167	0,1	0,089393
5,730833	0,1	0,099908
5,732500	0,1	0,126113
5,734167	0,1	0,128459
5,735833	0,1	0,155614
5,737500	0,1	0,123535
5,739167	0,1	0,130323
5,740833	0,1	0,151494
5,742500	0,1	0,052699
5,744167	0,1	0,142985
5,745833	0,1	0,129829
5,747500	0,1	0,100662
5,749167	0,1	0,158777
5,750833	0,1	0,168385
5,752500	0,1	0,105291
5,754167	0,1	0,137961
5,755833	0,1	0,091884
5,757500	0,1	0,157452
5,759167	0,1	0,128610
5,760833	0,1	0,101844
5,762500	0,1	0,128040
5,764167	0,1	0,135895
5,765833	0,1	0,142027
5,767500	0,1	0,108495
5,769167	0,1	0,081147
5,770833	0,1	0,171827
5,772500	0,1	0,147776
5,774167	0,1	0,128670
5,775833	0,1	0,149401
5,777500	0,1	0,153345
5,779167	0,1	0,125153
5,780833	0,1	0,136352
5,782500	0,1	0,124258
5,784167	0,1	0,143683
5,785833	0,1	0,154622
5,787500	0,1	0,114175
5,789167	0,1	0,127918
5,790833	0,1	0,155840
5,792500	0,1	0,138036
5,794167	0,1	0,127633
5,795833	0,1	0,148946
5,797500	0,1	0,118295
5,799167	0,1	0,127857
5,800833	0,1	0,175459
5,802500	0,1	0,151919
5,804167	0,1	0,176749
5,805833	0,1	0,113266
5,807500	0,1	0,153604
5,809167	0,1	0,183710
5,810833	0,1	0,145541
5,812500	0,1	0,168899
5,814167	0,1	0,137540
5,815833	0,1	0,132894
5,817500	0,1	0,139315
5,819167	0,1	0,113031
5,820833	0,1	0,140220
5,822500	0,1	0,164236
5,824167	0,1	0,142221
5,825833	0,1	0,134801
5,827500	0,1	0,136645
5,829167	0,1	0,115474
5,830833	0,1	0,131480
5,832500	0,1	0,109819
5,834167	0,1	0,145648
5,835833	0,1	0,143979
5,837500	0,1	0,116325
5,839167	0,1	0,149190
5,840833	0,1	0,142529
5,842500	0,1	0,139564
5,844167	0,1	0,151247
5,845833	0,1	0,144849
5,847500	0,1	0,128713
5,849167	0,1	0,115990
5,850833	0,1	0,137197
5,852500	0,1	0,156592
5,854167	0,1	0,113966
5,855833	0,1	0,122719
5,857500	0,1	0,119032
5,859167	0,1	0,095834
5,860833	0,1	0,139990
5,862500	0,1	0,074340
5,864167	0,1	0,137187
5,865833	0,1	0,127177
5,867500	0,1	0,140390
5,869167	0,1	0,150751
5,870833	0,1	0,131881
5,872500	0,1	0,125063
5,874167	0,1	0,112736
5,875833	0,1	0,121104
5,877500	0,1	0,136120
5,879167	0,1	0,097745
5,880833	0,1	0,119318
5,882500	0,1	0,139642
5,884167	0,1	0,118145
5,885833	0,1	0,131068
5,887500	0,1	0,161870
5,889167	0,1	0,138347
5,890833	0,1	0,142899
5,892500	0,1	0,149054
5,894167	0,1	0,124404
5,895833	0,1	0,181526
5,897500	0,1	0,097693
5,899167	0,1	0,115361
5,900833	0,1	0,120937
5,902500	0,1	0,119448
5,904167	0,1	0,092975
5,905833	0,1	0,113888
5,907500	0,1	0,121412
5,909167	0,1	0,086037
5,910833	0,1	0,155292
5,912500	0,1	0,120223
5,914167	0,1	0,123589
5,915833	0,1	0,120710
5,917500	0,1	0,142894
5,919167	0,1	0,107522
5,920833	0,1	0,155523
5,922500	0,1	0,115001
5,924167	0,1	0,106913
5,925833	0,1	0,089080
5,927500	0,1	0,091539
5,929167	0,1	0,082718
5,930833	0,1	0,126895
5,932500	0,1	0,096229
5,934167	0,1	0,105771
5,935833	0,1	0,109377
5,937500	0,1	0,079034
5,939167	0,1	0,111648
5,940833	0,1	0,053974
5,942500	0,1	0,086747
5,944167	0,1	0,042889
5,945833	0,1	0,070734
5,947500	0,1	0,066950
5,949167	0,1	0,087308
5,950833	0,1	0,074535
5,952500	0,1	0,076644
5,954167	0,1	0,117737
5,955833	0,1	0,069303
5,957500	0,1	0,074428
5,959167	0,1	0,050321
5,960833	0,1	0,108079
5,962500	0,1	0,099477
5,964167	0,1	0,094152
5,965833	0,1	0,087294
5,967500	0,1	0,077745
5,969167	0,1	0,114216
5,970833	0,1	0,090739
5,972500	0,1	0,095559
5,974167	0,1	0,048505
5,975833	0,1	0,073489
5,977500	0,1	0,084265
5,979167	0,1	0,067906
5,980833	0,1	0,055889
5,982500	0,1	0,120320
5,984167	0,1	0,110334
5,985833	0,1	0,060313
5,987500	0,1	0,082254
5,989167	0,1	0,058836
5,990833	0,1	0,077118
5,992500	0,1	0,089361
5,994167	0,1	0,046910
5,995833	0,1	0,074649
5,997500	0,1	0,126477
5,999167	0,1	0,037702
6,000833	0,1	0,085335
