File Path	chrom://chromeleon01/ikbm_chromeleon/2022/Rezex/Esteban/220612_chitin_4_7.seq/868.smp/UV_VIS_1.channel/UV_VIS_1.chm
Channel	UV_VIS_1

Injection Information:
Data Vault	ikbm_chromeleon
Injection	4_02h-EGS_3
Injection Number	86
Position	GD6
Comment	
Processing Method	New ProcMethod
Instrument Method	Short_Rezex_6min_194nm
Type	Unknown
Status	Finished
Injection Date	13.06.2022
Injection Time	02:24:24
Injection Volume (µl)	8,000
Dilution Factor	1,0000
Weight	1,0000

Chromatogram Data Information:
Time Min. (min)	0,000833
Time Max. (min)	6,000833
Data Points	3601
Detector	UV
Generating Data System	Chromeleon 7.2.9.11323
Exporting Data System	Chromeleon 7.2.9.0
Operator	Instrument Controller
Signal Quantity	Absorbance
Signal Unit	mAU
Signal Min.	-0,096015
Signal Max.	105,012439
Channel	UV_VIS_1
Driver Name	VWD3000.dll
Channel Type	Evaluation
Min. Step (s)	0,1
Max. Step (s)	0,1
Average Step (s)	0,1

Signal Parameter Information:
Signal Info	WVL:194 nm

Chromatogram Data:
Time (min)	Step (s)	Value (mAU)
0,000833	n.a.	-0,032351
0,002500	0,1	-0,039597
0,004167	0,1	0,018260
0,005833	0,1	-0,002392
0,007500	0,1	-0,020807
0,009167	0,1	-0,015820
0,010833	0,1	-0,010892
0,012500	0,1	0,016943
0,014167	0,1	0,001707
0,015833	0,1	-0,020620
0,017500	0,1	-0,023917
0,019167	0,1	-0,054919
0,020833	0,1	0,037247
0,022500	0,1	-0,021212
0,024167	0,1	-0,027189
0,025833	0,1	-0,018801
0,027500	0,1	-0,050215
0,029167	0,1	-0,053678
0,030833	0,1	-0,050638
0,032500	0,1	-0,029349
0,034167	0,1	-0,050711
0,035833	0,1	-0,066577
0,037500	0,1	-0,074328
0,039167	0,1	-0,048401
0,040833	0,1	-0,014728
0,042500	0,1	-0,096015
0,044167	0,1	-0,068990
0,045833	0,1	-0,036249
0,047500	0,1	-0,041911
0,049167	0,1	-0,039785
0,050833	0,1	-0,028433
0,052500	0,1	-0,031560
0,054167	0,1	0,010084
0,055833	0,1	-0,019396
0,057500	0,1	-0,023670
0,059167	0,1	0,024147
0,060833	0,1	-0,042645
0,062500	0,1	0,008651
0,064167	0,1	-0,014632
0,065833	0,1	-0,012361
0,067500	0,1	-0,039444
0,069167	0,1	-0,053202
0,070833	0,1	-0,007315
0,072500	0,1	0,027153
0,074167	0,1	-0,024380
0,075833	0,1	-0,029448
0,077500	0,1	0,018532
0,079167	0,1	-0,039708
0,080833	0,1	0,006891
0,082500	0,1	0,009346
0,084167	0,1	0,005600
0,085833	0,1	0,016885
0,087500	0,1	-0,005457
0,089167	0,1	0,026471
0,090833	0,1	0,017014
0,092500	0,1	0,008498
0,094167	0,1	-0,003781
0,095833	0,1	-0,006457
0,097500	0,1	-0,021988
0,099167	0,1	0,011618
0,100833	0,1	0,052878
0,102500	0,1	-0,035681
0,104167	0,1	-0,012531
0,105833	0,1	-0,002090
0,107500	0,1	-0,039731
0,109167	0,1	-0,011602
0,110833	0,1	-0,020249
0,112500	0,1	-0,004306
0,114167	0,1	-0,071376
0,115833	0,1	-0,013388
0,117500	0,1	-0,004596
0,119167	0,1	-0,024679
0,120833	0,1	-0,044563
0,122500	0,1	-0,029329
0,124167	0,1	-0,024850
0,125833	0,1	-0,016048
0,127500	0,1	-0,028077
0,129167	0,1	-0,017956
0,130833	0,1	0,039680
0,132500	0,1	-0,013921
0,134167	0,1	-0,002750
0,135833	0,1	-0,026937
0,137500	0,1	-0,025992
0,139167	0,1	-0,016277
0,140833	0,1	0,017335
0,142500	0,1	-0,034073
0,144167	0,1	-0,010564
0,145833	0,1	-0,019687
0,147500	0,1	0,021559
0,149167	0,1	0,014609
0,150833	0,1	-0,050787
0,152500	0,1	-0,043470
0,154167	0,1	0,015918
0,155833	0,1	-0,014878
0,157500	0,1	0,030817
0,159167	0,1	0,002685
0,160833	0,1	-0,034866
0,162500	0,1	-0,027999
0,164167	0,1	0,046511
0,165833	0,1	0,011529
0,167500	0,1	-0,013409
0,169167	0,1	-0,014287
0,170833	0,1	0,046390
0,172500	0,1	-0,004086
0,174167	0,1	0,003091
0,175833	0,1	-0,020826
0,177500	0,1	-0,004412
0,179167	0,1	-0,018260
0,180833	0,1	-0,000640
0,182500	0,1	-0,047539
0,184167	0,1	0,002501
0,185833	0,1	0,016698
0,187500	0,1	0,012061
0,189167	0,1	0,018688
0,190833	0,1	0,046171
0,192500	0,1	-0,003440
0,194167	0,1	0,034920
0,195833	0,1	-0,024502
0,197500	0,1	0,020562
0,199167	0,1	0,030184
0,200833	0,1	-0,001912
0,202500	0,1	-0,018362
0,204167	0,1	0,008450
0,205833	0,1	0,012100
0,207500	0,1	0,003485
0,209167	0,1	0,022889
0,210833	0,1	0,012271
0,212500	0,1	0,003073
0,214167	0,1	-0,004920
0,215833	0,1	-0,025981
0,217500	0,1	0,015324
0,219167	0,1	-0,015667
0,220833	0,1	0,017562
0,222500	0,1	0,010695
0,224167	0,1	-0,030185
0,225833	0,1	0,036467
0,227500	0,1	-0,022040
0,229167	0,1	0,012797
0,230833	0,1	0,021318
0,232500	0,1	0,007755
0,234167	0,1	-0,004609
0,235833	0,1	-0,010309
0,237500	0,1	0,046536
0,239167	0,1	0,028782
0,240833	0,1	0,019561
0,242500	0,1	-0,008396
0,244167	0,1	0,046040
0,245833	0,1	0,025529
0,247500	0,1	0,023536
0,249167	0,1	-0,005974
0,250833	0,1	0,012801
0,252500	0,1	-0,024675
0,254167	0,1	0,006938
0,255833	0,1	0,028689
0,257500	0,1	0,020308
0,259167	0,1	0,005869
0,260833	0,1	0,032562
0,262500	0,1	-0,016552
0,264167	0,1	-0,011867
0,265833	0,1	0,010461
0,267500	0,1	0,035212
0,269167	0,1	0,026522
0,270833	0,1	0,018794
0,272500	0,1	0,014962
0,274167	0,1	-0,001521
0,275833	0,1	-0,030665
0,277500	0,1	-0,001122
0,279167	0,1	0,008994
0,280833	0,1	-0,014861
0,282500	0,1	-0,006935
0,284167	0,1	0,033511
0,285833	0,1	0,021199
0,287500	0,1	-0,027467
0,289167	0,1	0,025015
0,290833	0,1	0,007031
0,292500	0,1	0,026037
0,294167	0,1	0,014446
0,295833	0,1	0,033910
0,297500	0,1	0,015772
0,299167	0,1	0,006740
0,300833	0,1	0,033223
0,302500	0,1	0,044744
0,304167	0,1	0,010121
0,305833	0,1	0,016471
0,307500	0,1	-0,000590
0,309167	0,1	0,040947
0,310833	0,1	0,080473
0,312500	0,1	-0,006973
0,314167	0,1	0,037425
0,315833	0,1	0,056199
0,317500	0,1	0,007391
0,319167	0,1	0,016262
0,320833	0,1	0,035195
0,322500	0,1	0,035965
0,324167	0,1	0,030724
0,325833	0,1	0,031532
0,327500	0,1	0,018423
0,329167	0,1	0,031508
0,330833	0,1	-0,006364
0,332500	0,1	0,021292
0,334167	0,1	0,026621
0,335833	0,1	0,016518
0,337500	0,1	0,027739
0,339167	0,1	0,044660
0,340833	0,1	0,047999
0,342500	0,1	0,035656
0,344167	0,1	0,042261
0,345833	0,1	0,030292
0,347500	0,1	0,043482
0,349167	0,1	0,008775
0,350833	0,1	0,015934
0,352500	0,1	0,054101
0,354167	0,1	0,026796
0,355833	0,1	0,026271
0,357500	0,1	-0,004254
0,359167	0,1	0,023634
0,360833	0,1	0,075001
0,362500	0,1	0,035581
0,364167	0,1	0,019438
0,365833	0,1	0,072494
0,367500	0,1	0,038024
0,369167	0,1	0,040997
0,370833	0,1	0,026979
0,372500	0,1	-0,024942
0,374167	0,1	0,007413
0,375833	0,1	0,026183
0,377500	0,1	0,022500
0,379167	0,1	0,019227
0,380833	0,1	0,028837
0,382500	0,1	0,065890
0,384167	0,1	-0,001615
0,385833	0,1	0,036307
0,387500	0,1	0,052140
0,389167	0,1	0,055539
0,390833	0,1	0,042722
0,392500	0,1	0,078050
0,394167	0,1	0,032412
0,395833	0,1	0,068996
0,397500	0,1	0,046328
0,399167	0,1	0,032882
0,400833	0,1	0,044931
0,402500	0,1	0,041166
0,404167	0,1	0,082916
0,405833	0,1	0,034113
0,407500	0,1	0,072311
0,409167	0,1	0,046721
0,410833	0,1	0,057236
0,412500	0,1	0,074220
0,414167	0,1	0,021417
0,415833	0,1	0,092729
0,417500	0,1	0,047637
0,419167	0,1	0,046696
0,420833	0,1	0,058665
0,422500	0,1	0,074928
0,424167	0,1	0,076442
0,425833	0,1	0,061345
0,427500	0,1	0,047383
0,429167	0,1	0,077346
0,430833	0,1	0,051963
0,432500	0,1	0,050466
0,434167	0,1	0,082608
0,435833	0,1	0,044031
0,437500	0,1	0,055827
0,439167	0,1	0,037047
0,440833	0,1	0,053071
0,442500	0,1	0,054194
0,444167	0,1	0,083935
0,445833	0,1	0,073565
0,447500	0,1	0,016092
0,449167	0,1	0,083677
0,450833	0,1	0,091730
0,452500	0,1	0,064641
0,454167	0,1	0,108212
0,455833	0,1	0,058804
0,457500	0,1	0,014472
0,459167	0,1	0,079907
0,460833	0,1	0,068241
0,462500	0,1	0,081783
0,464167	0,1	0,067537
0,465833	0,1	0,059210
0,467500	0,1	0,056971
0,469167	0,1	0,093442
0,470833	0,1	0,053500
0,472500	0,1	0,067428
0,474167	0,1	0,098581
0,475833	0,1	0,086495
0,477500	0,1	0,075534
0,479167	0,1	0,029285
0,480833	0,1	0,092172
0,482500	0,1	0,072096
0,484167	0,1	0,080461
0,485833	0,1	0,063478
0,487500	0,1	0,038726
0,489167	0,1	0,070406
0,490833	0,1	0,070125
0,492500	0,1	0,101025
0,494167	0,1	0,046191
0,495833	0,1	0,081136
0,497500	0,1	0,080378
0,499167	0,1	0,069361
0,500833	0,1	0,053845
0,502500	0,1	0,066558
0,504167	0,1	0,050097
0,505833	0,1	0,077327
0,507500	0,1	0,080813
0,509167	0,1	0,082802
0,510833	0,1	0,068988
0,512500	0,1	0,049102
0,514167	0,1	0,101041
0,515833	0,1	0,054019
0,517500	0,1	0,096527
0,519167	0,1	0,032271
0,520833	0,1	0,065455
0,522500	0,1	0,079093
0,524167	0,1	0,076672
0,525833	0,1	0,087813
0,527500	0,1	0,112899
0,529167	0,1	0,078315
0,530833	0,1	0,102561
0,532500	0,1	0,079099
0,534167	0,1	0,036742
0,535833	0,1	0,075935
0,537500	0,1	0,109169
0,539167	0,1	0,055741
0,540833	0,1	0,083543
0,542500	0,1	0,088208
0,544167	0,1	0,109772
0,545833	0,1	0,087408
0,547500	0,1	0,100720
0,549167	0,1	0,086990
0,550833	0,1	0,099249
0,552500	0,1	0,081853
0,554167	0,1	0,054450
0,555833	0,1	0,085010
0,557500	0,1	0,108237
0,559167	0,1	0,093018
0,560833	0,1	0,098132
0,562500	0,1	0,039894
0,564167	0,1	0,114564
0,565833	0,1	0,129021
0,567500	0,1	0,100543
0,569167	0,1	0,088150
0,570833	0,1	0,089100
0,572500	0,1	0,085828
0,574167	0,1	0,099851
0,575833	0,1	0,107991
0,577500	0,1	0,100226
0,579167	0,1	0,083138
0,580833	0,1	0,121079
0,582500	0,1	0,113094
0,584167	0,1	0,114769
0,585833	0,1	0,067090
0,587500	0,1	0,090278
0,589167	0,1	0,094942
0,590833	0,1	0,106295
0,592500	0,1	0,121251
0,594167	0,1	0,104952
0,595833	0,1	0,103872
0,597500	0,1	0,137366
0,599167	0,1	0,108934
0,600833	0,1	0,105324
0,602500	0,1	0,142025
0,604167	0,1	0,097192
0,605833	0,1	0,111513
0,607500	0,1	0,111745
0,609167	0,1	0,163180
0,610833	0,1	0,148251
0,612500	0,1	0,144416
0,614167	0,1	0,138119
0,615833	0,1	0,169874
0,617500	0,1	0,129097
0,619167	0,1	0,170263
0,620833	0,1	0,122096
0,622500	0,1	0,129453
0,624167	0,1	0,100834
0,625833	0,1	0,132370
0,627500	0,1	0,118335
0,629167	0,1	0,140931
0,630833	0,1	0,133356
0,632500	0,1	0,124864
0,634167	0,1	0,122498
0,635833	0,1	0,162164
0,637500	0,1	0,141938
0,639167	0,1	0,099802
0,640833	0,1	0,176788
0,642500	0,1	0,122181
0,644167	0,1	0,149343
0,645833	0,1	0,173150
0,647500	0,1	0,126693
0,649167	0,1	0,140770
0,650833	0,1	0,143405
0,652500	0,1	0,173274
0,654167	0,1	0,146144
0,655833	0,1	0,147877
0,657500	0,1	0,134250
0,659167	0,1	0,092469
0,660833	0,1	0,138794
0,662500	0,1	0,183047
0,664167	0,1	0,155553
0,665833	0,1	0,149000
0,667500	0,1	0,172922
0,669167	0,1	0,167540
0,670833	0,1	0,148736
0,672500	0,1	0,163023
0,674167	0,1	0,165736
0,675833	0,1	0,157209
0,677500	0,1	0,148295
0,679167	0,1	0,190763
0,680833	0,1	0,148121
0,682500	0,1	0,152130
0,684167	0,1	0,198094
0,685833	0,1	0,174118
0,687500	0,1	0,181302
0,689167	0,1	0,165928
0,690833	0,1	0,219040
0,692500	0,1	0,197305
0,694167	0,1	0,193735
0,695833	0,1	0,174242
0,697500	0,1	0,187536
0,699167	0,1	0,175322
0,700833	0,1	0,234268
0,702500	0,1	0,204599
0,704167	0,1	0,201772
0,705833	0,1	0,163969
0,707500	0,1	0,182621
0,709167	0,1	0,251197
0,710833	0,1	0,196811
0,712500	0,1	0,217336
0,714167	0,1	0,237126
0,715833	0,1	0,222232
0,717500	0,1	0,212555
0,719167	0,1	0,223120
0,720833	0,1	0,243298
0,722500	0,1	0,241250
0,724167	0,1	0,243302
0,725833	0,1	0,218429
0,727500	0,1	0,229770
0,729167	0,1	0,238890
0,730833	0,1	0,222772
0,732500	0,1	0,230161
0,734167	0,1	0,252544
0,735833	0,1	0,255860
0,737500	0,1	0,221204
0,739167	0,1	0,269179
0,740833	0,1	0,252743
0,742500	0,1	0,283923
0,744167	0,1	0,268225
0,745833	0,1	0,259682
0,747500	0,1	0,281720
0,749167	0,1	0,249093
0,750833	0,1	0,270018
0,752500	0,1	0,234404
0,754167	0,1	0,314374
0,755833	0,1	0,322139
0,757500	0,1	0,293613
0,759167	0,1	0,309049
0,760833	0,1	0,285611
0,762500	0,1	0,316478
0,764167	0,1	0,285739
0,765833	0,1	0,335171
0,767500	0,1	0,312987
0,769167	0,1	0,338614
0,770833	0,1	0,305595
0,772500	0,1	0,267034
0,774167	0,1	0,321575
0,775833	0,1	0,321752
0,777500	0,1	0,312758
0,779167	0,1	0,346839
0,780833	0,1	0,320537
0,782500	0,1	0,312531
0,784167	0,1	0,312946
0,785833	0,1	0,312177
0,787500	0,1	0,298877
0,789167	0,1	0,321358
0,790833	0,1	0,293929
0,792500	0,1	0,334168
0,794167	0,1	0,326894
0,795833	0,1	0,335823
0,797500	0,1	0,288313
0,799167	0,1	0,331605
0,800833	0,1	0,336665
0,802500	0,1	0,325319
0,804167	0,1	0,355004
0,805833	0,1	0,323045
0,807500	0,1	0,331804
0,809167	0,1	0,302328
0,810833	0,1	0,338070
0,812500	0,1	0,312155
0,814167	0,1	0,294000
0,815833	0,1	0,337235
0,817500	0,1	0,300557
0,819167	0,1	0,345615
0,820833	0,1	0,344893
0,822500	0,1	0,327574
0,824167	0,1	0,333352
0,825833	0,1	0,314688
0,827500	0,1	0,304431
0,829167	0,1	0,324191
0,830833	0,1	0,315591
0,832500	0,1	0,313109
0,834167	0,1	0,350398
0,835833	0,1	0,311516
0,837500	0,1	0,324870
0,839167	0,1	0,323064
0,840833	0,1	0,351593
0,842500	0,1	0,339232
0,844167	0,1	0,350729
0,845833	0,1	0,292715
0,847500	0,1	0,327236
0,849167	0,1	0,317510
0,850833	0,1	0,320954
0,852500	0,1	0,337749
0,854167	0,1	0,315430
0,855833	0,1	0,357656
0,857500	0,1	0,328473
0,859167	0,1	0,353521
0,860833	0,1	0,336951
0,862500	0,1	0,290883
0,864167	0,1	0,356119
0,865833	0,1	0,319951
0,867500	0,1	0,341249
0,869167	0,1	0,327954
0,870833	0,1	0,315944
0,872500	0,1	0,315868
0,874167	0,1	0,337296
0,875833	0,1	0,341156
0,877500	0,1	0,366022
0,879167	0,1	0,322984
0,880833	0,1	0,352264
0,882500	0,1	0,369335
0,884167	0,1	0,357132
0,885833	0,1	0,355429
0,887500	0,1	0,333324
0,889167	0,1	0,361042
0,890833	0,1	0,288357
0,892500	0,1	0,342492
0,894167	0,1	0,341762
0,895833	0,1	0,343372
0,897500	0,1	0,387486
0,899167	0,1	0,347917
0,900833	0,1	0,363290
0,902500	0,1	0,368758
0,904167	0,1	0,340132
0,905833	0,1	0,315975
0,907500	0,1	0,360361
0,909167	0,1	0,351990
0,910833	0,1	0,369301
0,912500	0,1	0,361270
0,914167	0,1	0,341894
0,915833	0,1	0,406697
0,917500	0,1	0,347504
0,919167	0,1	0,421604
0,920833	0,1	0,382040
0,922500	0,1	0,351670
0,924167	0,1	0,363455
0,925833	0,1	0,312215
0,927500	0,1	0,385284
0,929167	0,1	0,371200
0,930833	0,1	0,398055
0,932500	0,1	0,400603
0,934167	0,1	0,387111
0,935833	0,1	0,408472
0,937500	0,1	0,412942
0,939167	0,1	0,390709
0,940833	0,1	0,338020
0,942500	0,1	0,400941
0,944167	0,1	0,365873
0,945833	0,1	0,378008
0,947500	0,1	0,372646
0,949167	0,1	0,392499
0,950833	0,1	0,386043
0,952500	0,1	0,371200
0,954167	0,1	0,407920
0,955833	0,1	0,415580
0,957500	0,1	0,437006
0,959167	0,1	0,370245
0,960833	0,1	0,405673
0,962500	0,1	0,419203
0,964167	0,1	0,442531
0,965833	0,1	0,415132
0,967500	0,1	0,438419
0,969167	0,1	0,385278
0,970833	0,1	0,420611
0,972500	0,1	0,469524
0,974167	0,1	0,452569
0,975833	0,1	0,406555
0,977500	0,1	0,439443
0,979167	0,1	0,442699
0,980833	0,1	0,456837
0,982500	0,1	0,438784
0,984167	0,1	0,472355
0,985833	0,1	0,455367
0,987500	0,1	0,483348
0,989167	0,1	0,452991
0,990833	0,1	0,446622
0,992500	0,1	0,503558
0,994167	0,1	0,496277
0,995833	0,1	0,484579
0,997500	0,1	0,522078
0,999167	0,1	0,501778
1,000833	0,1	0,505981
1,002500	0,1	0,535323
1,004167	0,1	0,538575
1,005833	0,1	0,564447
1,007500	0,1	0,552499
1,009167	0,1	0,582542
1,010833	0,1	0,557838
1,012500	0,1	0,582707
1,014167	0,1	0,595249
1,015833	0,1	0,627360
1,017500	0,1	0,611461
1,019167	0,1	0,657898
1,020833	0,1	0,632902
1,022500	0,1	0,646725
1,024167	0,1	0,692791
1,025833	0,1	0,667344
1,027500	0,1	0,703915
1,029167	0,1	0,717136
1,030833	0,1	0,708565
1,032500	0,1	0,696569
1,034167	0,1	0,702318
1,035833	0,1	0,711421
1,037500	0,1	0,748328
1,039167	0,1	0,773547
1,040833	0,1	0,779435
1,042500	0,1	0,774302
1,044167	0,1	0,779407
1,045833	0,1	0,780984
1,047500	0,1	0,812944
1,049167	0,1	0,822599
1,050833	0,1	0,876498
1,052500	0,1	0,893539
1,054167	0,1	0,911357
1,055833	0,1	1,012661
1,057500	0,1	1,054066
1,059167	0,1	1,138186
1,060833	0,1	1,256532
1,062500	0,1	1,412032
1,064167	0,1	1,606525
1,065833	0,1	1,874621
1,067500	0,1	2,236522
1,069167	0,1	2,649276
1,070833	0,1	3,200681
1,072500	0,1	3,888832
1,074167	0,1	4,713927
1,075833	0,1	5,601597
1,077500	0,1	6,737406
1,079167	0,1	8,035008
1,080833	0,1	9,581622
1,082500	0,1	11,230483
1,084167	0,1	13,037458
1,085833	0,1	15,072087
1,087500	0,1	17,254032
1,089167	0,1	19,530718
1,090833	0,1	21,967876
1,092500	0,1	24,454648
1,094167	0,1	27,028134
1,095833	0,1	29,496872
1,097500	0,1	31,964923
1,099167	0,1	34,346048
1,100833	0,1	36,693222
1,102500	0,1	38,781382
1,104167	0,1	40,677839
1,105833	0,1	42,470686
1,107500	0,1	43,978287
1,109167	0,1	45,267766
1,110833	0,1	46,327935
1,112500	0,1	47,142942
1,114167	0,1	47,731368
1,115833	0,1	48,101392
1,117500	0,1	48,265090
1,119167	0,1	48,300137
1,120833	0,1	48,082739
1,122500	0,1	47,761900
1,124167	0,1	47,337043
1,125833	0,1	46,797608
1,127500	0,1	46,085481
1,129167	0,1	45,370770
1,130833	0,1	44,625073
1,132500	0,1	43,814391
1,134167	0,1	42,942774
1,135833	0,1	42,156955
1,137500	0,1	41,294047
1,139167	0,1	40,516673
1,140833	0,1	39,718128
1,142500	0,1	38,998567
1,144167	0,1	38,297211
1,145833	0,1	37,700546
1,147500	0,1	37,198893
1,149167	0,1	36,696705
1,150833	0,1	36,312546
1,152500	0,1	36,017785
1,154167	0,1	35,737928
1,155833	0,1	35,566371
1,157500	0,1	35,484778
1,159167	0,1	35,452067
1,160833	0,1	35,507102
1,162500	0,1	35,583300
1,164167	0,1	35,786389
1,165833	0,1	35,867290
1,167500	0,1	36,055122
1,169167	0,1	36,260256
1,170833	0,1	36,443201
1,172500	0,1	36,692556
1,174167	0,1	36,915046
1,175833	0,1	37,079603
1,177500	0,1	37,229523
1,179167	0,1	37,383451
1,180833	0,1	37,532295
1,182500	0,1	37,610711
1,184167	0,1	37,657909
1,185833	0,1	37,687323
1,187500	0,1	37,756625
1,189167	0,1	37,785609
1,190833	0,1	37,846759
1,192500	0,1	37,902123
1,194167	0,1	37,963804
1,195833	0,1	38,146924
1,197500	0,1	38,327149
1,199167	0,1	38,650516
1,200833	0,1	39,075539
1,202500	0,1	39,572614
1,204167	0,1	40,292191
1,205833	0,1	41,212022
1,207500	0,1	42,245543
1,209167	0,1	43,541268
1,210833	0,1	45,040497
1,212500	0,1	46,759353
1,214167	0,1	48,765009
1,215833	0,1	50,951338
1,217500	0,1	53,312930
1,219167	0,1	55,953139
1,220833	0,1	58,733217
1,222500	0,1	61,672537
1,224167	0,1	64,670893
1,225833	0,1	67,794068
1,227500	0,1	71,005722
1,229167	0,1	74,168120
1,230833	0,1	77,370549
1,232500	0,1	80,488290
1,234167	0,1	83,525478
1,235833	0,1	86,363834
1,237500	0,1	89,127564
1,239167	0,1	91,672075
1,240833	0,1	94,037695
1,242500	0,1	96,240856
1,244167	0,1	98,147778
1,245833	0,1	99,825290
1,247500	0,1	101,320050
1,249167	0,1	102,499791
1,250833	0,1	103,513575
1,252500	0,1	104,291042
1,254167	0,1	104,766500
1,255833	0,1	104,968515
1,257500	0,1	105,012439
1,259167	0,1	104,838314
1,260833	0,1	104,413108
1,262500	0,1	103,784469
1,264167	0,1	102,919898
1,265833	0,1	101,893095
1,267500	0,1	100,733628
1,269167	0,1	99,388494
1,270833	0,1	97,834969
1,272500	0,1	96,194835
1,274167	0,1	94,449522
1,275833	0,1	92,528700
1,277500	0,1	90,524703
1,279167	0,1	88,425509
1,280833	0,1	86,314367
1,282500	0,1	84,165041
1,284167	0,1	81,985304
1,285833	0,1	79,694942
1,287500	0,1	77,444323
1,289167	0,1	75,188633
1,290833	0,1	72,927766
1,292500	0,1	70,711173
1,294167	0,1	68,503830
1,295833	0,1	66,397481
1,297500	0,1	64,325381
1,299167	0,1	62,228991
1,300833	0,1	60,214000
1,302500	0,1	58,292197
1,304167	0,1	56,507355
1,305833	0,1	54,676676
1,307500	0,1	52,970970
1,309167	0,1	51,288650
1,310833	0,1	49,714603
1,312500	0,1	48,180542
1,314167	0,1	46,796495
1,315833	0,1	45,376477
1,317500	0,1	44,016594
1,319167	0,1	42,783067
1,320833	0,1	41,571308
1,322500	0,1	40,448024
1,324167	0,1	39,363593
1,325833	0,1	38,284622
1,327500	0,1	37,271077
1,329167	0,1	36,307584
1,330833	0,1	35,382656
1,332500	0,1	34,479626
1,334167	0,1	33,601615
1,335833	0,1	32,812374
1,337500	0,1	32,018881
1,339167	0,1	31,258645
1,340833	0,1	30,540115
1,342500	0,1	29,789813
1,344167	0,1	29,119529
1,345833	0,1	28,459070
1,347500	0,1	27,734930
1,349167	0,1	27,113017
1,350833	0,1	26,494035
1,352500	0,1	25,912663
1,354167	0,1	25,345937
1,355833	0,1	24,755995
1,357500	0,1	24,216240
1,359167	0,1	23,683868
1,360833	0,1	23,165801
1,362500	0,1	22,634368
1,364167	0,1	22,130541
1,365833	0,1	21,614550
1,367500	0,1	21,166226
1,369167	0,1	20,669060
1,370833	0,1	20,180554
1,372500	0,1	19,729223
1,374167	0,1	19,337934
1,375833	0,1	18,881989
1,377500	0,1	18,500497
1,379167	0,1	18,053076
1,380833	0,1	17,653347
1,382500	0,1	17,298364
1,384167	0,1	16,866373
1,385833	0,1	16,522703
1,387500	0,1	16,189585
1,389167	0,1	15,872864
1,390833	0,1	15,491174
1,392500	0,1	15,153918
1,394167	0,1	14,872111
1,395833	0,1	14,571723
1,397500	0,1	14,233508
1,399167	0,1	13,977960
1,400833	0,1	13,718004
1,402500	0,1	13,437730
1,404167	0,1	13,175206
1,405833	0,1	12,955272
1,407500	0,1	12,693539
1,409167	0,1	12,469680
1,410833	0,1	12,223863
1,412500	0,1	12,040172
1,414167	0,1	11,819862
1,415833	0,1	11,678253
1,417500	0,1	11,438481
1,419167	0,1	11,254742
1,420833	0,1	11,099739
1,422500	0,1	10,875094
1,424167	0,1	10,711834
1,425833	0,1	10,574246
1,427500	0,1	10,424709
1,429167	0,1	10,228106
1,430833	0,1	10,097729
1,432500	0,1	9,937301
1,434167	0,1	9,816620
1,435833	0,1	9,692593
1,437500	0,1	9,586946
1,439167	0,1	9,372457
1,440833	0,1	9,260978
1,442500	0,1	9,177229
1,444167	0,1	9,008528
1,445833	0,1	8,905775
1,447500	0,1	8,839918
1,449167	0,1	8,671903
1,450833	0,1	8,596207
1,452500	0,1	8,472178
1,454167	0,1	8,332033
1,455833	0,1	8,248902
1,457500	0,1	8,144967
1,459167	0,1	8,039728
1,460833	0,1	7,981478
1,462500	0,1	7,870353
1,464167	0,1	7,739621
1,465833	0,1	7,688063
1,467500	0,1	7,623079
1,469167	0,1	7,514812
1,470833	0,1	7,495097
1,472500	0,1	7,418120
1,474167	0,1	7,338630
1,475833	0,1	7,272766
1,477500	0,1	7,190145
1,479167	0,1	7,172227
1,480833	0,1	7,090834
1,482500	0,1	7,070122
1,484167	0,1	7,041968
1,485833	0,1	7,009899
1,487500	0,1	6,967116
1,489167	0,1	6,897314
1,490833	0,1	6,884531
1,492500	0,1	6,860027
1,494167	0,1	6,856298
1,495833	0,1	6,832260
1,497500	0,1	6,808314
1,499167	0,1	6,789120
1,500833	0,1	6,795629
1,502500	0,1	6,783894
1,504167	0,1	6,771041
1,505833	0,1	6,791155
1,507500	0,1	6,798804
1,509167	0,1	6,752781
1,510833	0,1	6,734899
1,512500	0,1	6,760508
1,514167	0,1	6,725107
1,515833	0,1	6,727155
1,517500	0,1	6,726871
1,519167	0,1	6,725392
1,520833	0,1	6,727620
1,522500	0,1	6,718781
1,524167	0,1	6,685807
1,525833	0,1	6,708239
1,527500	0,1	6,644177
1,529167	0,1	6,629715
1,530833	0,1	6,664834
1,532500	0,1	6,600401
1,534167	0,1	6,630653
1,535833	0,1	6,588197
1,537500	0,1	6,548705
1,539167	0,1	6,505225
1,540833	0,1	6,518353
1,542500	0,1	6,464622
1,544167	0,1	6,486876
1,545833	0,1	6,457742
1,547500	0,1	6,426734
1,549167	0,1	6,376013
1,550833	0,1	6,341666
1,552500	0,1	6,358334
1,554167	0,1	6,315788
1,555833	0,1	6,275285
1,557500	0,1	6,263273
1,559167	0,1	6,222916
1,560833	0,1	6,193118
1,562500	0,1	6,214152
1,564167	0,1	6,169317
1,565833	0,1	6,115166
1,567500	0,1	6,081579
1,569167	0,1	6,071334
1,570833	0,1	6,009686
1,572500	0,1	6,037038
1,574167	0,1	5,984798
1,575833	0,1	5,929508
1,577500	0,1	5,922103
1,579167	0,1	5,895407
1,580833	0,1	5,834151
1,582500	0,1	5,780365
1,584167	0,1	5,742940
1,585833	0,1	5,727932
1,587500	0,1	5,734317
1,589167	0,1	5,691526
1,590833	0,1	5,655523
1,592500	0,1	5,598180
1,594167	0,1	5,600748
1,595833	0,1	5,551568
1,597500	0,1	5,489400
1,599167	0,1	5,496259
1,600833	0,1	5,440654
1,602500	0,1	5,447493
1,604167	0,1	5,377287
1,605833	0,1	5,415039
1,607500	0,1	5,338676
1,609167	0,1	5,310652
1,610833	0,1	5,273212
1,612500	0,1	5,237775
1,614167	0,1	5,200143
1,615833	0,1	5,156778
1,617500	0,1	5,144170
1,619167	0,1	5,180572
1,620833	0,1	5,128697
1,622500	0,1	5,100274
1,624167	0,1	5,019902
1,625833	0,1	5,013448
1,627500	0,1	5,011217
1,629167	0,1	4,967313
1,630833	0,1	4,978034
1,632500	0,1	4,911215
1,634167	0,1	4,900644
1,635833	0,1	4,884797
1,637500	0,1	4,830714
1,639167	0,1	4,823310
1,640833	0,1	4,847307
1,642500	0,1	4,778111
1,644167	0,1	4,773434
1,645833	0,1	4,783685
1,647500	0,1	4,723228
1,649167	0,1	4,715260
1,650833	0,1	4,707424
1,652500	0,1	4,699254
1,654167	0,1	4,665440
1,655833	0,1	4,673185
1,657500	0,1	4,689691
1,659167	0,1	4,666418
1,660833	0,1	4,636081
1,662500	0,1	4,660565
1,664167	0,1	4,612523
1,665833	0,1	4,686184
1,667500	0,1	4,655683
1,669167	0,1	4,637259
1,670833	0,1	4,716289
1,672500	0,1	4,722032
1,674167	0,1	4,735861
1,675833	0,1	4,756533
1,677500	0,1	4,793382
1,679167	0,1	4,831938
1,680833	0,1	4,925996
1,682500	0,1	4,871410
1,684167	0,1	5,032782
1,685833	0,1	5,050245
1,687500	0,1	5,103617
1,689167	0,1	5,167713
1,690833	0,1	5,255857
1,692500	0,1	5,324022
1,694167	0,1	5,357930
1,695833	0,1	5,460992
1,697500	0,1	5,555566
1,699167	0,1	5,668174
1,700833	0,1	5,720041
1,702500	0,1	5,773411
1,704167	0,1	5,891361
1,705833	0,1	6,015307
1,707500	0,1	6,071867
1,709167	0,1	6,174646
1,710833	0,1	6,298620
1,712500	0,1	6,406409
1,714167	0,1	6,508168
1,715833	0,1	6,568511
1,717500	0,1	6,696192
1,719167	0,1	6,758164
1,720833	0,1	6,908908
1,722500	0,1	6,979208
1,724167	0,1	7,057326
1,725833	0,1	7,107216
1,727500	0,1	7,276340
1,729167	0,1	7,302787
1,730833	0,1	7,352969
1,732500	0,1	7,453920
1,734167	0,1	7,504322
1,735833	0,1	7,527009
1,737500	0,1	7,585988
1,739167	0,1	7,645817
1,740833	0,1	7,684131
1,742500	0,1	7,690462
1,744167	0,1	7,679653
1,745833	0,1	7,757850
1,747500	0,1	7,765421
1,749167	0,1	7,766196
1,750833	0,1	7,753213
1,752500	0,1	7,769944
1,754167	0,1	7,765180
1,755833	0,1	7,743709
1,757500	0,1	7,747809
1,759167	0,1	7,695319
1,760833	0,1	7,682364
1,762500	0,1	7,630736
1,764167	0,1	7,645548
1,765833	0,1	7,564651
1,767500	0,1	7,542031
1,769167	0,1	7,505625
1,770833	0,1	7,431277
1,772500	0,1	7,403663
1,774167	0,1	7,335734
1,775833	0,1	7,277814
1,777500	0,1	7,209074
1,779167	0,1	7,138666
1,780833	0,1	7,110121
1,782500	0,1	7,000038
1,784167	0,1	6,933286
1,785833	0,1	6,836465
1,787500	0,1	6,769837
1,789167	0,1	6,639992
1,790833	0,1	6,640993
1,792500	0,1	6,518363
1,794167	0,1	6,503179
1,795833	0,1	6,380852
1,797500	0,1	6,296536
1,799167	0,1	6,231008
1,800833	0,1	6,157500
1,802500	0,1	6,041363
1,804167	0,1	5,944786
1,805833	0,1	5,855090
1,807500	0,1	5,804371
1,809167	0,1	5,723432
1,810833	0,1	5,647578
1,812500	0,1	5,534351
1,814167	0,1	5,461228
1,815833	0,1	5,420173
1,817500	0,1	5,318975
1,819167	0,1	5,272137
1,820833	0,1	5,145409
1,822500	0,1	5,058626
1,824167	0,1	4,989799
1,825833	0,1	4,992829
1,827500	0,1	4,891491
1,829167	0,1	4,812439
1,830833	0,1	4,730326
1,832500	0,1	4,690472
1,834167	0,1	4,635922
1,835833	0,1	4,589315
1,837500	0,1	4,577060
1,839167	0,1	4,498485
1,840833	0,1	4,470828
1,842500	0,1	4,461047
1,844167	0,1	4,446325
1,845833	0,1	4,411103
1,847500	0,1	4,401003
1,849167	0,1	4,389770
1,850833	0,1	4,416803
1,852500	0,1	4,384144
1,854167	0,1	4,459523
1,855833	0,1	4,426993
1,857500	0,1	4,531319
1,859167	0,1	4,526365
1,860833	0,1	4,521667
1,862500	0,1	4,572667
1,864167	0,1	4,565012
1,865833	0,1	4,593849
1,867500	0,1	4,666265
1,869167	0,1	4,719093
1,870833	0,1	4,687060
1,872500	0,1	4,686003
1,874167	0,1	4,721492
1,875833	0,1	4,773254
1,877500	0,1	4,741515
1,879167	0,1	4,791365
1,880833	0,1	4,802478
1,882500	0,1	4,806593
1,884167	0,1	4,831626
1,885833	0,1	4,861724
1,887500	0,1	4,852958
1,889167	0,1	4,863646
1,890833	0,1	4,944048
1,892500	0,1	4,901301
1,894167	0,1	4,973725
1,895833	0,1	4,959457
1,897500	0,1	4,959706
1,899167	0,1	4,991952
1,900833	0,1	4,992265
1,902500	0,1	4,946498
1,904167	0,1	4,937451
1,905833	0,1	4,979633
1,907500	0,1	4,996526
1,909167	0,1	4,977867
1,910833	0,1	5,015045
1,912500	0,1	4,996450
1,914167	0,1	5,037074
1,915833	0,1	5,011872
1,917500	0,1	5,009293
1,919167	0,1	5,000117
1,920833	0,1	4,993765
1,922500	0,1	4,983229
1,924167	0,1	4,982293
1,925833	0,1	4,973118
1,927500	0,1	4,946464
1,929167	0,1	4,996378
1,930833	0,1	4,985720
1,932500	0,1	4,908620
1,934167	0,1	4,923648
1,935833	0,1	4,909620
1,937500	0,1	4,891606
1,939167	0,1	4,905486
1,940833	0,1	4,893585
1,942500	0,1	4,874806
1,944167	0,1	4,850551
1,945833	0,1	4,863593
1,947500	0,1	4,818524
1,949167	0,1	4,796361
1,950833	0,1	4,824183
1,952500	0,1	4,798376
1,954167	0,1	4,776568
1,955833	0,1	4,777362
1,957500	0,1	4,719851
1,959167	0,1	4,735709
1,960833	0,1	4,726331
1,962500	0,1	4,684631
1,964167	0,1	4,702189
1,965833	0,1	4,677266
1,967500	0,1	4,682389
1,969167	0,1	4,658348
1,970833	0,1	4,676379
1,972500	0,1	4,686649
1,974167	0,1	4,675550
1,975833	0,1	4,673754
1,977500	0,1	4,672489
1,979167	0,1	4,653307
1,980833	0,1	4,627114
1,982500	0,1	4,661649
1,984167	0,1	4,689026
1,985833	0,1	4,664908
1,987500	0,1	4,689441
1,989167	0,1	4,700265
1,990833	0,1	4,654211
1,992500	0,1	4,657609
1,994167	0,1	4,682115
1,995833	0,1	4,667101
1,997500	0,1	4,697877
1,999167	0,1	4,693508
2,000833	0,1	4,652829
2,002500	0,1	4,693381
2,004167	0,1	4,696469
2,005833	0,1	4,740018
2,007500	0,1	4,721988
2,009167	0,1	4,708323
2,010833	0,1	4,740167
2,012500	0,1	4,723087
2,014167	0,1	4,785819
2,015833	0,1	4,761670
2,017500	0,1	4,756673
2,019167	0,1	4,777590
2,020833	0,1	4,811596
2,022500	0,1	4,841345
2,024167	0,1	4,831816
2,025833	0,1	4,910226
2,027500	0,1	4,866970
2,029167	0,1	4,875733
2,030833	0,1	4,905378
2,032500	0,1	4,908035
2,034167	0,1	4,893951
2,035833	0,1	4,977619
2,037500	0,1	4,953531
2,039167	0,1	4,983874
2,040833	0,1	5,024563
2,042500	0,1	4,991539
2,044167	0,1	5,031908
2,045833	0,1	5,055832
2,047500	0,1	5,048412
2,049167	0,1	5,105933
2,050833	0,1	5,129838
2,052500	0,1	5,150121
2,054167	0,1	5,159165
2,055833	0,1	5,151033
2,057500	0,1	5,170463
2,059167	0,1	5,202579
2,060833	0,1	5,257107
2,062500	0,1	5,241499
2,064167	0,1	5,254603
2,065833	0,1	5,289803
2,067500	0,1	5,307185
2,069167	0,1	5,341887
2,070833	0,1	5,347401
2,072500	0,1	5,327943
2,074167	0,1	5,375515
2,075833	0,1	5,362284
2,077500	0,1	5,386265
2,079167	0,1	5,416733
2,080833	0,1	5,438082
2,082500	0,1	5,431195
2,084167	0,1	5,463804
2,085833	0,1	5,470571
2,087500	0,1	5,491009
2,089167	0,1	5,496778
2,090833	0,1	5,535528
2,092500	0,1	5,491087
2,094167	0,1	5,563852
2,095833	0,1	5,564846
2,097500	0,1	5,559038
2,099167	0,1	5,555329
2,100833	0,1	5,560726
2,102500	0,1	5,557280
2,104167	0,1	5,603532
2,105833	0,1	5,593638
2,107500	0,1	5,599620
2,109167	0,1	5,630378
2,110833	0,1	5,609643
2,112500	0,1	5,615056
2,114167	0,1	5,630015
2,115833	0,1	5,644673
2,117500	0,1	5,630196
2,119167	0,1	5,658001
2,120833	0,1	5,693886
2,122500	0,1	5,677876
2,124167	0,1	5,639262
2,125833	0,1	5,637802
2,127500	0,1	5,641182
2,129167	0,1	5,646385
2,130833	0,1	5,651436
2,132500	0,1	5,632644
2,134167	0,1	5,673999
2,135833	0,1	5,660177
2,137500	0,1	5,661282
2,139167	0,1	5,604362
2,140833	0,1	5,615335
2,142500	0,1	5,639119
2,144167	0,1	5,633117
2,145833	0,1	5,628457
2,147500	0,1	5,635326
2,149167	0,1	5,620719
2,150833	0,1	5,605260
2,152500	0,1	5,575670
2,154167	0,1	5,610603
2,155833	0,1	5,579573
2,157500	0,1	5,533661
2,159167	0,1	5,600536
2,160833	0,1	5,545175
2,162500	0,1	5,556583
2,164167	0,1	5,551450
2,165833	0,1	5,538619
2,167500	0,1	5,550969
2,169167	0,1	5,500455
2,170833	0,1	5,518929
2,172500	0,1	5,475113
2,174167	0,1	5,538014
2,175833	0,1	5,521062
2,177500	0,1	5,455227
2,179167	0,1	5,458914
2,180833	0,1	5,439587
2,182500	0,1	5,445996
2,184167	0,1	5,460643
2,185833	0,1	5,407212
2,187500	0,1	5,434438
2,189167	0,1	5,426542
2,190833	0,1	5,389728
2,192500	0,1	5,434222
2,194167	0,1	5,356670
2,195833	0,1	5,345013
2,197500	0,1	5,398807
2,199167	0,1	5,338158
2,200833	0,1	5,334894
2,202500	0,1	5,342913
2,204167	0,1	5,277479
2,205833	0,1	5,328404
2,207500	0,1	5,304964
2,209167	0,1	5,315107
2,210833	0,1	5,306517
2,212500	0,1	5,336457
2,214167	0,1	5,277562
2,215833	0,1	5,256225
2,217500	0,1	5,285060
2,219167	0,1	5,278200
2,220833	0,1	5,280944
2,222500	0,1	5,278251
2,224167	0,1	5,300633
2,225833	0,1	5,277246
2,227500	0,1	5,251558
2,229167	0,1	5,248559
2,230833	0,1	5,283133
2,232500	0,1	5,277446
2,234167	0,1	5,253028
2,235833	0,1	5,269214
2,237500	0,1	5,271082
2,239167	0,1	5,246306
2,240833	0,1	5,238616
2,242500	0,1	5,248333
2,244167	0,1	5,214780
2,245833	0,1	5,243608
2,247500	0,1	5,297256
2,249167	0,1	5,264164
2,250833	0,1	5,251811
2,252500	0,1	5,280089
2,254167	0,1	5,257098
2,255833	0,1	5,288565
2,257500	0,1	5,255690
2,259167	0,1	5,252459
2,260833	0,1	5,250622
2,262500	0,1	5,280278
2,264167	0,1	5,243993
2,265833	0,1	5,246295
2,267500	0,1	5,247173
2,269167	0,1	5,244319
2,270833	0,1	5,209518
2,272500	0,1	5,233889
2,274167	0,1	5,238187
2,275833	0,1	5,225674
2,277500	0,1	5,243212
2,279167	0,1	5,217371
2,280833	0,1	5,164687
2,282500	0,1	5,177442
2,284167	0,1	5,183713
2,285833	0,1	5,140815
2,287500	0,1	5,159049
2,289167	0,1	5,166648
2,290833	0,1	5,152898
2,292500	0,1	5,127787
2,294167	0,1	5,127922
2,295833	0,1	5,077713
2,297500	0,1	5,107098
2,299167	0,1	5,101597
2,300833	0,1	5,136105
2,302500	0,1	5,062324
2,304167	0,1	5,055051
2,305833	0,1	5,085037
2,307500	0,1	5,032723
2,309167	0,1	5,046348
2,310833	0,1	4,985816
2,312500	0,1	4,959063
2,314167	0,1	4,971509
2,315833	0,1	5,011969
2,317500	0,1	4,943654
2,319167	0,1	4,943783
2,320833	0,1	4,946946
2,322500	0,1	4,915531
2,324167	0,1	4,926447
2,325833	0,1	4,868818
2,327500	0,1	4,846920
2,329167	0,1	4,854267
2,330833	0,1	4,841157
2,332500	0,1	4,793687
2,334167	0,1	4,792326
2,335833	0,1	4,775336
2,337500	0,1	4,773417
2,339167	0,1	4,754064
2,340833	0,1	4,756656
2,342500	0,1	4,761365
2,344167	0,1	4,734027
2,345833	0,1	4,680988
2,347500	0,1	4,683439
2,349167	0,1	4,669648
2,350833	0,1	4,616359
2,352500	0,1	4,688568
2,354167	0,1	4,621118
2,355833	0,1	4,643079
2,357500	0,1	4,589990
2,359167	0,1	4,592218
2,360833	0,1	4,587029
2,362500	0,1	4,593917
2,364167	0,1	4,580213
2,365833	0,1	4,543853
2,367500	0,1	4,548415
2,369167	0,1	4,566012
2,370833	0,1	4,523486
2,372500	0,1	4,579145
2,374167	0,1	4,527912
2,375833	0,1	4,533864
2,377500	0,1	4,541441
2,379167	0,1	4,542576
2,380833	0,1	4,539861
2,382500	0,1	4,564264
2,384167	0,1	4,598123
2,385833	0,1	4,599037
2,387500	0,1	4,630015
2,389167	0,1	4,690482
2,390833	0,1	4,696372
2,392500	0,1	4,734044
2,394167	0,1	4,762390
2,395833	0,1	4,808281
2,397500	0,1	4,850633
2,399167	0,1	4,967280
2,400833	0,1	4,972587
2,402500	0,1	5,056894
2,404167	0,1	5,106216
2,405833	0,1	5,197508
2,407500	0,1	5,261792
2,409167	0,1	5,375218
2,410833	0,1	5,440586
2,412500	0,1	5,584170
2,414167	0,1	5,725952
2,415833	0,1	5,830207
2,417500	0,1	5,954763
2,419167	0,1	6,151038
2,420833	0,1	6,266599
2,422500	0,1	6,506946
2,424167	0,1	6,668539
2,425833	0,1	6,804920
2,427500	0,1	7,004531
2,429167	0,1	7,217014
2,430833	0,1	7,395104
2,432500	0,1	7,574834
2,434167	0,1	7,782552
2,435833	0,1	7,989818
2,437500	0,1	8,181141
2,439167	0,1	8,431932
2,440833	0,1	8,631306
2,442500	0,1	8,849007
2,444167	0,1	9,061478
2,445833	0,1	9,264253
2,447500	0,1	9,482833
2,449167	0,1	9,687732
2,450833	0,1	9,892794
2,452500	0,1	10,162618
2,454167	0,1	10,292428
2,455833	0,1	10,464100
2,457500	0,1	10,662829
2,459167	0,1	10,894625
2,460833	0,1	11,002583
2,462500	0,1	11,229684
2,464167	0,1	11,382337
2,465833	0,1	11,558557
2,467500	0,1	11,705787
2,469167	0,1	11,796635
2,470833	0,1	11,952539
2,472500	0,1	12,109104
2,474167	0,1	12,196240
2,475833	0,1	12,329802
2,477500	0,1	12,463448
2,479167	0,1	12,568412
2,480833	0,1	12,674596
2,482500	0,1	12,815268
2,484167	0,1	12,879647
2,485833	0,1	13,017555
2,487500	0,1	13,116936
2,489167	0,1	13,218347
2,490833	0,1	13,310189
2,492500	0,1	13,431085
2,494167	0,1	13,544692
2,495833	0,1	13,695934
2,497500	0,1	13,746694
2,499167	0,1	13,939619
2,500833	0,1	14,017688
2,502500	0,1	14,126342
2,504167	0,1	14,323259
2,505833	0,1	14,423058
2,507500	0,1	14,593573
2,509167	0,1	14,757767
2,510833	0,1	14,902445
2,512500	0,1	15,143169
2,514167	0,1	15,317952
2,515833	0,1	15,494881
2,517500	0,1	15,771767
2,519167	0,1	15,986226
2,520833	0,1	16,216382
2,522500	0,1	16,425064
2,524167	0,1	16,714657
2,525833	0,1	16,956162
2,527500	0,1	17,224709
2,529167	0,1	17,534690
2,530833	0,1	17,853573
2,532500	0,1	18,135067
2,534167	0,1	18,443758
2,535833	0,1	18,781612
2,537500	0,1	19,128992
2,539167	0,1	19,473868
2,540833	0,1	19,827188
2,542500	0,1	20,155283
2,544167	0,1	20,456235
2,545833	0,1	20,846238
2,547500	0,1	21,219549
2,549167	0,1	21,561973
2,550833	0,1	21,940310
2,552500	0,1	22,289912
2,554167	0,1	22,617286
2,555833	0,1	22,990295
2,557500	0,1	23,326220
2,559167	0,1	23,660014
2,560833	0,1	24,025349
2,562500	0,1	24,300639
2,564167	0,1	24,609968
2,565833	0,1	24,930466
2,567500	0,1	25,213427
2,569167	0,1	25,515289
2,570833	0,1	25,763189
2,572500	0,1	26,050599
2,574167	0,1	26,281623
2,575833	0,1	26,481308
2,577500	0,1	26,684902
2,579167	0,1	26,931627
2,580833	0,1	27,090522
2,582500	0,1	27,303291
2,584167	0,1	27,430195
2,585833	0,1	27,579382
2,587500	0,1	27,706643
2,589167	0,1	27,819390
2,590833	0,1	27,887876
2,592500	0,1	27,952295
2,594167	0,1	28,079168
2,595833	0,1	28,095995
2,597500	0,1	28,149897
2,599167	0,1	28,143916
2,600833	0,1	28,201675
2,602500	0,1	28,191929
2,604167	0,1	28,136393
2,605833	0,1	28,081837
2,607500	0,1	28,054851
2,609167	0,1	27,970343
2,610833	0,1	27,929609
2,612500	0,1	27,856868
2,614167	0,1	27,757238
2,615833	0,1	27,655771
2,617500	0,1	27,534730
2,619167	0,1	27,441191
2,620833	0,1	27,253601
2,622500	0,1	27,181174
2,624167	0,1	26,958370
2,625833	0,1	26,826370
2,627500	0,1	26,694646
2,629167	0,1	26,492990
2,630833	0,1	26,306735
2,632500	0,1	26,094160
2,634167	0,1	25,927518
2,635833	0,1	25,665824
2,637500	0,1	25,429191
2,639167	0,1	25,258549
2,640833	0,1	25,010095
2,642500	0,1	24,804828
2,644167	0,1	24,523045
2,645833	0,1	24,323071
2,647500	0,1	24,038591
2,649167	0,1	23,790012
2,650833	0,1	23,485179
2,652500	0,1	23,259697
2,654167	0,1	22,993656
2,655833	0,1	22,722118
2,657500	0,1	22,457152
2,659167	0,1	22,161152
2,660833	0,1	21,858449
2,662500	0,1	21,593807
2,664167	0,1	21,319955
2,665833	0,1	21,036008
2,667500	0,1	20,721020
2,669167	0,1	20,436649
2,670833	0,1	20,124074
2,672500	0,1	19,812843
2,674167	0,1	19,567813
2,675833	0,1	19,272577
2,677500	0,1	18,999409
2,679167	0,1	18,693487
2,680833	0,1	18,370110
2,682500	0,1	18,119941
2,684167	0,1	17,797049
2,685833	0,1	17,538086
2,687500	0,1	17,244015
2,689167	0,1	17,002724
2,690833	0,1	16,719878
2,692500	0,1	16,406511
2,694167	0,1	16,116265
2,695833	0,1	15,878040
2,697500	0,1	15,629827
2,699167	0,1	15,366485
2,700833	0,1	15,097008
2,702500	0,1	14,814297
2,704167	0,1	14,621258
2,705833	0,1	14,345002
2,707500	0,1	14,116348
2,709167	0,1	13,863032
2,710833	0,1	13,624862
2,712500	0,1	13,417430
2,714167	0,1	13,190207
2,715833	0,1	12,944065
2,717500	0,1	12,781236
2,719167	0,1	12,510474
2,720833	0,1	12,309132
2,722500	0,1	12,058288
2,724167	0,1	11,901138
2,725833	0,1	11,738256
2,727500	0,1	11,498724
2,729167	0,1	11,303171
2,730833	0,1	11,145365
2,732500	0,1	10,973898
2,734167	0,1	10,822189
2,735833	0,1	10,606123
2,737500	0,1	10,445387
2,739167	0,1	10,294351
2,740833	0,1	10,103551
2,742500	0,1	9,988003
2,744167	0,1	9,824447
2,745833	0,1	9,713138
2,747500	0,1	9,557526
2,749167	0,1	9,419161
2,750833	0,1	9,262714
2,752500	0,1	9,155799
2,754167	0,1	8,961102
2,755833	0,1	8,879600
2,757500	0,1	8,747605
2,759167	0,1	8,632715
2,760833	0,1	8,503907
2,762500	0,1	8,411962
2,764167	0,1	8,275432
2,765833	0,1	8,145154
2,767500	0,1	8,067162
2,769167	0,1	7,930127
2,770833	0,1	7,830455
2,772500	0,1	7,743874
2,774167	0,1	7,610193
2,775833	0,1	7,474507
2,777500	0,1	7,420709
2,779167	0,1	7,334893
2,780833	0,1	7,216355
2,782500	0,1	7,145752
2,784167	0,1	6,997715
2,785833	0,1	6,974384
2,787500	0,1	6,898061
2,789167	0,1	6,784761
2,790833	0,1	6,692715
2,792500	0,1	6,672943
2,794167	0,1	6,535624
2,795833	0,1	6,461582
2,797500	0,1	6,388968
2,799167	0,1	6,304654
2,800833	0,1	6,214730
2,802500	0,1	6,141435
2,804167	0,1	6,036123
2,805833	0,1	5,995491
2,807500	0,1	5,877750
2,809167	0,1	5,863881
2,810833	0,1	5,799116
2,812500	0,1	5,682388
2,814167	0,1	5,610609
2,815833	0,1	5,568866
2,817500	0,1	5,548310
2,819167	0,1	5,380681
2,820833	0,1	5,397061
2,822500	0,1	5,352650
2,824167	0,1	5,224604
2,825833	0,1	5,166694
2,827500	0,1	5,146572
2,829167	0,1	5,037984
2,830833	0,1	5,022887
2,832500	0,1	4,949930
2,834167	0,1	4,859922
2,835833	0,1	4,854989
2,837500	0,1	4,739822
2,839167	0,1	4,720725
2,840833	0,1	4,642252
2,842500	0,1	4,607894
2,844167	0,1	4,548028
2,845833	0,1	4,482747
2,847500	0,1	4,442803
2,849167	0,1	4,390755
2,850833	0,1	4,328859
2,852500	0,1	4,317416
2,854167	0,1	4,251003
2,855833	0,1	4,224208
2,857500	0,1	4,203704
2,859167	0,1	4,117582
2,860833	0,1	4,082283
2,862500	0,1	4,042997
2,864167	0,1	3,962120
2,865833	0,1	3,917687
2,867500	0,1	3,887233
2,869167	0,1	3,896183
2,870833	0,1	3,842144
2,872500	0,1	3,795505
2,874167	0,1	3,746047
2,875833	0,1	3,726642
2,877500	0,1	3,684447
2,879167	0,1	3,661183
2,880833	0,1	3,612220
2,882500	0,1	3,535809
2,884167	0,1	3,519299
2,885833	0,1	3,470683
2,887500	0,1	3,463868
2,889167	0,1	3,431900
2,890833	0,1	3,394706
2,892500	0,1	3,338479
2,894167	0,1	3,310510
2,895833	0,1	3,323767
2,897500	0,1	3,277274
2,899167	0,1	3,226281
2,900833	0,1	3,242473
2,902500	0,1	3,178742
2,904167	0,1	3,181788
2,905833	0,1	3,109505
2,907500	0,1	3,087638
2,909167	0,1	3,091395
2,910833	0,1	3,093721
2,912500	0,1	3,034776
2,914167	0,1	2,975790
2,915833	0,1	2,925243
2,917500	0,1	2,918531
2,919167	0,1	2,956194
2,920833	0,1	2,880920
2,922500	0,1	2,885500
2,924167	0,1	2,836417
2,925833	0,1	2,803131
2,927500	0,1	2,792925
2,929167	0,1	2,779452
2,930833	0,1	2,741766
2,932500	0,1	2,724221
2,934167	0,1	2,725796
2,935833	0,1	2,699765
2,937500	0,1	2,696446
2,939167	0,1	2,690835
2,940833	0,1	2,709776
2,942500	0,1	2,661349
2,944167	0,1	2,651362
2,945833	0,1	2,627032
2,947500	0,1	2,584264
2,949167	0,1	2,545006
2,950833	0,1	2,524266
2,952500	0,1	2,532655
2,954167	0,1	2,520463
2,955833	0,1	2,483377
2,957500	0,1	2,492330
2,959167	0,1	2,496425
2,960833	0,1	2,462421
2,962500	0,1	2,469504
2,964167	0,1	2,467506
2,965833	0,1	2,409695
2,967500	0,1	2,441311
2,969167	0,1	2,414489
2,970833	0,1	2,428396
2,972500	0,1	2,398634
2,974167	0,1	2,370945
2,975833	0,1	2,363338
2,977500	0,1	2,367852
2,979167	0,1	2,319527
2,980833	0,1	2,315282
2,982500	0,1	2,340951
2,984167	0,1	2,321741
2,985833	0,1	2,319223
2,987500	0,1	2,284018
2,989167	0,1	2,315558
2,990833	0,1	2,304022
2,992500	0,1	2,250460
2,994167	0,1	2,244498
2,995833	0,1	2,292172
2,997500	0,1	2,243073
2,999167	0,1	2,251664
3,000833	0,1	2,234390
3,002500	0,1	2,216031
3,004167	0,1	2,220902
3,005833	0,1	2,209146
3,007500	0,1	2,216814
3,009167	0,1	2,174377
3,010833	0,1	2,222541
3,012500	0,1	2,186925
3,014167	0,1	2,185554
3,015833	0,1	2,165911
3,017500	0,1	2,126626
3,019167	0,1	2,198658
3,020833	0,1	2,106131
3,022500	0,1	2,148688
3,024167	0,1	2,134006
3,025833	0,1	2,119954
3,027500	0,1	2,150629
3,029167	0,1	2,107559
3,030833	0,1	2,169047
3,032500	0,1	2,103044
3,034167	0,1	2,090487
3,035833	0,1	2,122164
3,037500	0,1	2,098736
3,039167	0,1	2,081746
3,040833	0,1	2,063322
3,042500	0,1	2,088116
3,044167	0,1	2,086903
3,045833	0,1	2,063682
3,047500	0,1	2,031786
3,049167	0,1	2,066036
3,050833	0,1	2,044614
3,052500	0,1	2,021462
3,054167	0,1	2,045325
3,055833	0,1	2,043325
3,057500	0,1	1,995097
3,059167	0,1	2,005757
3,060833	0,1	2,000530
3,062500	0,1	1,987846
3,064167	0,1	2,024961
3,065833	0,1	1,982769
3,067500	0,1	1,964836
3,069167	0,1	1,990346
3,070833	0,1	1,963269
3,072500	0,1	1,958174
3,074167	0,1	1,942553
3,075833	0,1	1,924273
3,077500	0,1	1,978019
3,079167	0,1	1,925364
3,080833	0,1	1,938750
3,082500	0,1	1,922553
3,084167	0,1	1,909086
3,085833	0,1	1,921404
3,087500	0,1	1,941970
3,089167	0,1	1,959901
3,090833	0,1	1,902218
3,092500	0,1	1,937955
3,094167	0,1	1,909235
3,095833	0,1	1,919036
3,097500	0,1	1,954080
3,099167	0,1	1,921203
3,100833	0,1	1,890740
3,102500	0,1	1,924634
3,104167	0,1	1,900775
3,105833	0,1	1,898042
3,107500	0,1	1,919678
3,109167	0,1	1,919905
3,110833	0,1	1,945617
3,112500	0,1	1,919623
3,114167	0,1	1,941328
3,115833	0,1	1,972140
3,117500	0,1	1,959190
3,119167	0,1	1,968064
3,120833	0,1	1,965269
3,122500	0,1	1,944059
3,124167	0,1	1,971349
3,125833	0,1	1,996731
3,127500	0,1	1,986838
3,129167	0,1	1,983903
3,130833	0,1	2,029262
3,132500	0,1	2,028203
3,134167	0,1	2,064745
3,135833	0,1	2,019820
3,137500	0,1	2,085099
3,139167	0,1	2,106467
3,140833	0,1	2,073434
3,142500	0,1	2,087327
3,144167	0,1	2,099229
3,145833	0,1	2,050070
3,147500	0,1	2,113771
3,149167	0,1	2,106613
3,150833	0,1	2,118154
3,152500	0,1	2,115360
3,154167	0,1	2,133207
3,155833	0,1	2,163750
3,157500	0,1	2,185978
3,159167	0,1	2,185265
3,160833	0,1	2,177308
3,162500	0,1	2,198883
3,164167	0,1	2,227063
3,165833	0,1	2,207139
3,167500	0,1	2,238892
3,169167	0,1	2,253097
3,170833	0,1	2,264571
3,172500	0,1	2,241059
3,174167	0,1	2,225855
3,175833	0,1	2,254243
3,177500	0,1	2,271385
3,179167	0,1	2,251740
3,180833	0,1	2,261561
3,182500	0,1	2,233889
3,184167	0,1	2,261772
3,185833	0,1	2,297628
3,187500	0,1	2,239417
3,189167	0,1	2,261702
3,190833	0,1	2,292895
3,192500	0,1	2,252033
3,194167	0,1	2,239766
3,195833	0,1	2,268371
3,197500	0,1	2,274612
3,199167	0,1	2,259772
3,200833	0,1	2,273250
3,202500	0,1	2,252604
3,204167	0,1	2,271240
3,205833	0,1	2,235541
3,207500	0,1	2,250731
3,209167	0,1	2,244066
3,210833	0,1	2,203274
3,212500	0,1	2,235597
3,214167	0,1	2,213235
3,215833	0,1	2,202478
3,217500	0,1	2,236528
3,219167	0,1	2,146712
3,220833	0,1	2,224469
3,222500	0,1	2,195384
3,224167	0,1	2,143765
3,225833	0,1	2,201672
3,227500	0,1	2,153084
3,229167	0,1	2,149346
3,230833	0,1	2,124687
3,232500	0,1	2,109345
3,234167	0,1	2,106833
3,235833	0,1	2,088483
3,237500	0,1	2,102313
3,239167	0,1	2,122529
3,240833	0,1	2,034307
3,242500	0,1	2,051630
3,244167	0,1	2,089047
3,245833	0,1	2,031861
3,247500	0,1	2,016590
3,249167	0,1	2,018663
3,250833	0,1	1,939625
3,252500	0,1	1,997505
3,254167	0,1	1,930241
3,255833	0,1	1,971996
3,257500	0,1	1,927790
3,259167	0,1	1,920052
3,260833	0,1	1,924916
3,262500	0,1	1,943909
3,264167	0,1	1,897853
3,265833	0,1	1,876422
3,267500	0,1	1,849761
3,269167	0,1	1,871539
3,270833	0,1	1,841029
3,272500	0,1	1,852350
3,274167	0,1	1,794472
3,275833	0,1	1,814216
3,277500	0,1	1,767322
3,279167	0,1	1,775464
3,280833	0,1	1,732422
3,282500	0,1	1,705630
3,284167	0,1	1,725880
3,285833	0,1	1,732271
3,287500	0,1	1,696816
3,289167	0,1	1,659361
3,290833	0,1	1,697315
3,292500	0,1	1,691027
3,294167	0,1	1,634012
3,295833	0,1	1,635643
3,297500	0,1	1,632157
3,299167	0,1	1,586260
3,300833	0,1	1,614667
3,302500	0,1	1,598359
3,304167	0,1	1,567213
3,305833	0,1	1,551892
3,307500	0,1	1,562392
3,309167	0,1	1,566491
3,310833	0,1	1,528632
3,312500	0,1	1,533339
3,314167	0,1	1,524184
3,315833	0,1	1,530912
3,317500	0,1	1,475845
3,319167	0,1	1,487659
3,320833	0,1	1,491047
3,322500	0,1	1,512635
3,324167	0,1	1,462274
3,325833	0,1	1,468827
3,327500	0,1	1,470842
3,329167	0,1	1,422265
3,330833	0,1	1,454744
3,332500	0,1	1,422452
3,334167	0,1	1,421088
3,335833	0,1	1,425639
3,337500	0,1	1,433983
3,339167	0,1	1,412953
3,340833	0,1	1,376210
3,342500	0,1	1,417243
3,344167	0,1	1,401272
3,345833	0,1	1,376897
3,347500	0,1	1,390550
3,349167	0,1	1,374423
3,350833	0,1	1,355981
3,352500	0,1	1,351861
3,354167	0,1	1,364500
3,355833	0,1	1,343372
3,357500	0,1	1,348807
3,359167	0,1	1,309531
3,360833	0,1	1,359457
3,362500	0,1	1,351319
3,364167	0,1	1,352097
3,365833	0,1	1,348030
3,367500	0,1	1,323102
3,369167	0,1	1,317760
3,370833	0,1	1,331363
3,372500	0,1	1,326419
3,374167	0,1	1,290870
3,375833	0,1	1,301859
3,377500	0,1	1,297776
3,379167	0,1	1,309587
3,380833	0,1	1,312214
3,382500	0,1	1,294273
3,384167	0,1	1,272072
3,385833	0,1	1,274015
3,387500	0,1	1,272390
3,389167	0,1	1,298703
3,390833	0,1	1,312671
3,392500	0,1	1,320773
3,394167	0,1	1,284125
3,395833	0,1	1,278544
3,397500	0,1	1,285979
3,399167	0,1	1,288488
3,400833	0,1	1,253656
3,402500	0,1	1,269675
3,404167	0,1	1,270950
3,405833	0,1	1,273438
3,407500	0,1	1,246571
3,409167	0,1	1,279043
3,410833	0,1	1,287064
3,412500	0,1	1,268701
3,414167	0,1	1,219313
3,415833	0,1	1,233713
3,417500	0,1	1,245563
3,419167	0,1	1,255358
3,420833	0,1	1,260069
3,422500	0,1	1,203332
3,424167	0,1	1,250349
3,425833	0,1	1,261729
3,427500	0,1	1,219581
3,429167	0,1	1,247913
3,430833	0,1	1,276044
3,432500	0,1	1,260245
3,434167	0,1	1,216467
3,435833	0,1	1,234683
3,437500	0,1	1,247071
3,439167	0,1	1,252224
3,440833	0,1	1,244972
3,442500	0,1	1,246786
3,444167	0,1	1,249362
3,445833	0,1	1,253512
3,447500	0,1	1,293157
3,449167	0,1	1,257826
3,450833	0,1	1,255243
3,452500	0,1	1,255206
3,454167	0,1	1,211363
3,455833	0,1	1,274461
3,457500	0,1	1,249908
3,459167	0,1	1,282618
3,460833	0,1	1,267107
3,462500	0,1	1,248281
3,464167	0,1	1,248718
3,465833	0,1	1,240006
3,467500	0,1	1,304592
3,469167	0,1	1,279988
3,470833	0,1	1,277831
3,472500	0,1	1,335778
3,474167	0,1	1,268593
3,475833	0,1	1,277980
3,477500	0,1	1,288248
3,479167	0,1	1,318632
3,480833	0,1	1,293714
3,482500	0,1	1,299977
3,484167	0,1	1,304606
3,485833	0,1	1,327192
3,487500	0,1	1,335417
3,489167	0,1	1,327131
3,490833	0,1	1,312862
3,492500	0,1	1,343968
3,494167	0,1	1,330439
3,495833	0,1	1,337078
3,497500	0,1	1,361581
3,499167	0,1	1,330951
3,500833	0,1	1,334435
3,502500	0,1	1,374745
3,504167	0,1	1,370147
3,505833	0,1	1,390648
3,507500	0,1	1,383538
3,509167	0,1	1,381658
3,510833	0,1	1,425889
3,512500	0,1	1,369652
3,514167	0,1	1,379754
3,515833	0,1	1,390605
3,517500	0,1	1,379560
3,519167	0,1	1,368338
3,520833	0,1	1,377198
3,522500	0,1	1,405430
3,524167	0,1	1,427977
3,525833	0,1	1,395904
3,527500	0,1	1,398405
3,529167	0,1	1,416315
3,530833	0,1	1,412813
3,532500	0,1	1,385816
3,534167	0,1	1,436003
3,535833	0,1	1,423902
3,537500	0,1	1,439287
3,539167	0,1	1,383603
3,540833	0,1	1,415790
3,542500	0,1	1,432231
3,544167	0,1	1,451511
3,545833	0,1	1,426329
3,547500	0,1	1,435915
3,549167	0,1	1,364198
3,550833	0,1	1,436339
3,552500	0,1	1,404838
3,554167	0,1	1,440213
3,555833	0,1	1,464136
3,557500	0,1	1,449547
3,559167	0,1	1,444173
3,560833	0,1	1,423260
3,562500	0,1	1,427899
3,564167	0,1	1,430779
3,565833	0,1	1,449320
3,567500	0,1	1,403842
3,569167	0,1	1,401657
3,570833	0,1	1,366951
3,572500	0,1	1,386534
3,574167	0,1	1,388045
3,575833	0,1	1,371388
3,577500	0,1	1,370232
3,579167	0,1	1,375519
3,580833	0,1	1,356710
3,582500	0,1	1,395479
3,584167	0,1	1,374881
3,585833	0,1	1,379739
3,587500	0,1	1,394772
3,589167	0,1	1,345837
3,590833	0,1	1,386815
3,592500	0,1	1,315046
3,594167	0,1	1,353255
3,595833	0,1	1,325611
3,597500	0,1	1,301645
3,599167	0,1	1,340663
3,600833	0,1	1,346246
3,602500	0,1	1,296567
3,604167	0,1	1,316974
3,605833	0,1	1,326162
3,607500	0,1	1,282433
3,609167	0,1	1,283404
3,610833	0,1	1,302687
3,612500	0,1	1,259723
3,614167	0,1	1,263019
3,615833	0,1	1,266883
3,617500	0,1	1,256515
3,619167	0,1	1,256530
3,620833	0,1	1,259088
3,622500	0,1	1,234097
3,624167	0,1	1,251135
3,625833	0,1	1,253667
3,627500	0,1	1,213621
3,629167	0,1	1,218185
3,630833	0,1	1,229925
3,632500	0,1	1,228333
3,634167	0,1	1,235943
3,635833	0,1	1,185274
3,637500	0,1	1,163982
3,639167	0,1	1,149589
3,640833	0,1	1,212221
3,642500	0,1	1,178814
3,644167	0,1	1,206792
3,645833	0,1	1,153796
3,647500	0,1	1,130193
3,649167	0,1	1,168804
3,650833	0,1	1,141049
3,652500	0,1	1,165942
3,654167	0,1	1,148879
3,655833	0,1	1,166944
3,657500	0,1	1,111886
3,659167	0,1	1,108455
3,660833	0,1	1,105283
3,662500	0,1	1,118730
3,664167	0,1	1,089241
3,665833	0,1	1,094358
3,667500	0,1	1,080602
3,669167	0,1	1,116303
3,670833	0,1	1,109876
3,672500	0,1	1,084644
3,674167	0,1	1,079823
3,675833	0,1	1,076781
3,677500	0,1	1,056589
3,679167	0,1	1,071317
3,680833	0,1	1,085478
3,682500	0,1	1,048270
3,684167	0,1	1,049793
3,685833	0,1	1,062530
3,687500	0,1	1,055521
3,689167	0,1	1,062619
3,690833	0,1	1,033710
3,692500	0,1	1,034435
3,694167	0,1	1,044730
3,695833	0,1	1,017708
3,697500	0,1	1,029063
3,699167	0,1	1,022275
3,700833	0,1	1,000086
3,702500	0,1	1,027506
3,704167	0,1	1,015819
3,705833	0,1	0,973327
3,707500	0,1	1,018890
3,709167	0,1	0,993651
3,710833	0,1	1,004961
3,712500	0,1	0,939055
3,714167	0,1	1,006524
3,715833	0,1	0,999571
3,717500	0,1	0,968489
3,719167	0,1	1,004444
3,720833	0,1	0,995092
3,722500	0,1	1,006093
3,724167	0,1	0,989169
3,725833	0,1	0,948212
3,727500	0,1	0,987890
3,729167	0,1	0,990763
3,730833	0,1	0,928049
3,732500	0,1	0,975971
3,734167	0,1	0,981574
3,735833	0,1	0,961654
3,737500	0,1	0,971696
3,739167	0,1	1,015340
3,740833	0,1	0,969694
3,742500	0,1	0,965356
3,744167	0,1	0,932761
3,745833	0,1	0,962972
3,747500	0,1	0,969833
3,749167	0,1	0,955063
3,750833	0,1	1,000605
3,752500	0,1	0,987370
3,754167	0,1	0,956262
3,755833	0,1	0,993570
3,757500	0,1	0,961899
3,759167	0,1	0,960851
3,760833	0,1	0,989313
3,762500	0,1	0,946926
3,764167	0,1	1,011894
3,765833	0,1	0,964878
3,767500	0,1	0,983391
3,769167	0,1	0,985392
3,770833	0,1	0,985058
3,772500	0,1	1,005980
3,774167	0,1	0,946660
3,775833	0,1	0,982967
3,777500	0,1	0,982062
3,779167	0,1	0,984129
3,780833	0,1	0,996751
3,782500	0,1	0,986436
3,784167	0,1	0,977716
3,785833	0,1	0,983949
3,787500	0,1	0,980289
3,789167	0,1	0,949985
3,790833	0,1	0,956386
3,792500	0,1	1,005529
3,794167	0,1	0,989702
3,795833	0,1	0,997330
3,797500	0,1	0,954317
3,799167	0,1	0,986804
3,800833	0,1	1,015366
3,802500	0,1	0,971397
3,804167	0,1	0,983279
3,805833	0,1	0,956617
3,807500	0,1	0,967636
3,809167	0,1	0,972010
3,810833	0,1	0,973563
3,812500	0,1	0,973607
3,814167	0,1	0,965291
3,815833	0,1	0,945567
3,817500	0,1	0,986178
3,819167	0,1	0,984125
3,820833	0,1	0,959636
3,822500	0,1	0,961913
3,824167	0,1	0,970879
3,825833	0,1	0,984367
3,827500	0,1	0,951494
3,829167	0,1	0,974267
3,830833	0,1	0,987742
3,832500	0,1	0,988609
3,834167	0,1	0,947190
3,835833	0,1	0,923197
3,837500	0,1	0,967742
3,839167	0,1	0,936737
3,840833	0,1	0,924754
3,842500	0,1	0,961684
3,844167	0,1	0,932700
3,845833	0,1	0,964793
3,847500	0,1	0,933344
3,849167	0,1	0,940588
3,850833	0,1	0,944407
3,852500	0,1	0,937176
3,854167	0,1	0,949265
3,855833	0,1	0,951841
3,857500	0,1	0,951842
3,859167	0,1	0,954504
3,860833	0,1	0,940593
3,862500	0,1	0,929941
3,864167	0,1	0,940791
3,865833	0,1	0,910890
3,867500	0,1	0,894135
3,869167	0,1	0,922458
3,870833	0,1	0,884908
3,872500	0,1	0,870841
3,874167	0,1	0,933833
3,875833	0,1	0,915326
3,877500	0,1	0,889014
3,879167	0,1	0,873232
3,880833	0,1	0,873370
3,882500	0,1	0,888848
3,884167	0,1	0,864871
3,885833	0,1	0,874917
3,887500	0,1	0,894282
3,889167	0,1	0,866380
3,890833	0,1	0,872701
3,892500	0,1	0,905111
3,894167	0,1	0,917809
3,895833	0,1	0,871334
3,897500	0,1	0,877294
3,899167	0,1	0,864052
3,900833	0,1	0,885457
3,902500	0,1	0,871024
3,904167	0,1	0,878003
3,905833	0,1	0,853605
3,907500	0,1	0,837192
3,909167	0,1	0,844774
3,910833	0,1	0,865555
3,912500	0,1	0,846552
3,914167	0,1	0,832976
3,915833	0,1	0,839694
3,917500	0,1	0,875423
3,919167	0,1	0,835333
3,920833	0,1	0,822015
3,922500	0,1	0,824846
3,924167	0,1	0,829533
3,925833	0,1	0,825635
3,927500	0,1	0,791562
3,929167	0,1	0,820100
3,930833	0,1	0,798728
3,932500	0,1	0,795414
3,934167	0,1	0,830103
3,935833	0,1	0,817827
3,937500	0,1	0,875929
3,939167	0,1	0,816327
3,940833	0,1	0,796377
3,942500	0,1	0,785348
3,944167	0,1	0,782745
3,945833	0,1	0,797618
3,947500	0,1	0,822555
3,949167	0,1	0,803939
3,950833	0,1	0,767606
3,952500	0,1	0,782217
3,954167	0,1	0,801382
3,955833	0,1	0,810799
3,957500	0,1	0,763132
3,959167	0,1	0,739133
3,960833	0,1	0,779612
3,962500	0,1	0,755056
3,964167	0,1	0,749550
3,965833	0,1	0,782819
3,967500	0,1	0,790937
3,969167	0,1	0,763930
3,970833	0,1	0,774790
3,972500	0,1	0,737142
3,974167	0,1	0,742286
3,975833	0,1	0,774168
3,977500	0,1	0,766237
3,979167	0,1	0,722650
3,980833	0,1	0,745918
3,982500	0,1	0,777162
3,984167	0,1	0,762928
3,985833	0,1	0,753019
3,987500	0,1	0,768132
3,989167	0,1	0,752573
3,990833	0,1	0,810734
3,992500	0,1	0,757253
3,994167	0,1	0,779316
3,995833	0,1	0,766340
3,997500	0,1	0,755052
3,999167	0,1	0,757397
4,000833	0,1	0,776336
4,002500	0,1	0,754151
4,004167	0,1	0,770744
4,005833	0,1	0,753506
4,007500	0,1	0,742702
4,009167	0,1	0,757394
4,010833	0,1	0,754407
4,012500	0,1	0,762606
4,014167	0,1	0,778332
4,015833	0,1	0,787786
4,017500	0,1	0,750491
4,019167	0,1	0,770508
4,020833	0,1	0,780354
4,022500	0,1	0,772967
4,024167	0,1	0,785724
4,025833	0,1	0,772521
4,027500	0,1	0,780943
4,029167	0,1	0,804060
4,030833	0,1	0,767240
4,032500	0,1	0,821802
4,034167	0,1	0,803611
4,035833	0,1	0,812479
4,037500	0,1	0,810879
4,039167	0,1	0,827023
4,040833	0,1	0,818285
4,042500	0,1	0,859445
4,044167	0,1	0,805652
4,045833	0,1	0,839082
4,047500	0,1	0,838357
4,049167	0,1	0,829115
4,050833	0,1	0,863175
4,052500	0,1	0,831025
4,054167	0,1	0,853238
4,055833	0,1	0,858257
4,057500	0,1	0,873854
4,059167	0,1	0,881890
4,060833	0,1	0,874147
4,062500	0,1	0,923492
4,064167	0,1	0,919826
4,065833	0,1	0,931760
4,067500	0,1	0,915721
4,069167	0,1	0,959174
4,070833	0,1	0,951200
4,072500	0,1	0,932477
4,074167	0,1	1,015353
4,075833	0,1	0,984756
4,077500	0,1	1,026858
4,079167	0,1	1,021054
4,080833	0,1	1,023249
4,082500	0,1	1,051518
4,084167	0,1	1,046930
4,085833	0,1	1,050570
4,087500	0,1	1,064860
4,089167	0,1	1,077334
4,090833	0,1	1,116459
4,092500	0,1	1,114490
4,094167	0,1	1,147070
4,095833	0,1	1,144350
4,097500	0,1	1,173975
4,099167	0,1	1,165373
4,100833	0,1	1,187026
4,102500	0,1	1,236557
4,104167	0,1	1,231247
4,105833	0,1	1,265095
4,107500	0,1	1,230832
4,109167	0,1	1,267468
4,110833	0,1	1,291500
4,112500	0,1	1,347608
4,114167	0,1	1,367650
4,115833	0,1	1,332952
4,117500	0,1	1,377782
4,119167	0,1	1,342223
4,120833	0,1	1,408573
4,122500	0,1	1,437859
4,124167	0,1	1,455460
4,125833	0,1	1,449531
4,127500	0,1	1,463918
4,129167	0,1	1,498675
4,130833	0,1	1,505563
4,132500	0,1	1,498205
4,134167	0,1	1,564278
4,135833	0,1	1,575397
4,137500	0,1	1,595509
4,139167	0,1	1,609537
4,140833	0,1	1,612061
4,142500	0,1	1,662376
4,144167	0,1	1,648351
4,145833	0,1	1,654803
4,147500	0,1	1,651998
4,149167	0,1	1,672467
4,150833	0,1	1,697040
4,152500	0,1	1,691166
4,154167	0,1	1,765499
4,155833	0,1	1,763799
4,157500	0,1	1,775121
4,159167	0,1	1,793965
4,160833	0,1	1,815800
4,162500	0,1	1,788662
4,164167	0,1	1,804700
4,165833	0,1	1,809207
4,167500	0,1	1,864801
4,169167	0,1	1,827630
4,170833	0,1	1,866454
4,172500	0,1	1,887883
4,174167	0,1	1,867469
4,175833	0,1	1,873617
4,177500	0,1	1,941962
4,179167	0,1	1,918555
4,180833	0,1	1,895913
4,182500	0,1	1,951071
4,184167	0,1	1,959814
4,185833	0,1	1,968641
4,187500	0,1	1,944201
4,189167	0,1	1,988986
4,190833	0,1	1,963701
4,192500	0,1	1,966778
4,194167	0,1	1,983974
4,195833	0,1	2,050121
4,197500	0,1	2,015813
4,199167	0,1	2,023758
4,200833	0,1	1,999750
4,202500	0,1	1,985405
4,204167	0,1	2,005254
4,205833	0,1	1,989072
4,207500	0,1	2,049548
4,209167	0,1	2,034581
4,210833	0,1	2,009062
4,212500	0,1	2,053640
4,214167	0,1	2,028202
4,215833	0,1	2,041958
4,217500	0,1	2,011434
4,219167	0,1	2,023396
4,220833	0,1	2,030065
4,222500	0,1	2,016099
4,224167	0,1	2,042813
4,225833	0,1	2,057370
4,227500	0,1	2,037021
4,229167	0,1	2,032353
4,230833	0,1	2,008637
4,232500	0,1	2,001317
4,234167	0,1	2,025758
4,235833	0,1	2,000687
4,237500	0,1	1,983558
4,239167	0,1	1,998884
4,240833	0,1	2,016582
4,242500	0,1	1,975748
4,244167	0,1	1,977961
4,245833	0,1	1,987275
4,247500	0,1	1,962841
4,249167	0,1	1,959408
4,250833	0,1	1,959402
4,252500	0,1	1,951016
4,254167	0,1	1,946141
4,255833	0,1	1,944992
4,257500	0,1	1,943772
4,259167	0,1	1,921000
4,260833	0,1	1,938756
4,262500	0,1	1,926725
4,264167	0,1	1,893114
4,265833	0,1	1,905941
4,267500	0,1	1,901075
4,269167	0,1	1,892763
4,270833	0,1	1,888381
4,272500	0,1	1,845335
4,274167	0,1	1,858490
4,275833	0,1	1,817104
4,277500	0,1	1,832781
4,279167	0,1	1,846681
4,280833	0,1	1,815098
4,282500	0,1	1,792615
4,284167	0,1	1,806416
4,285833	0,1	1,773686
4,287500	0,1	1,769751
4,289167	0,1	1,761075
4,290833	0,1	1,765662
4,292500	0,1	1,749272
4,294167	0,1	1,754642
4,295833	0,1	1,698210
4,297500	0,1	1,718043
4,299167	0,1	1,708659
4,300833	0,1	1,714954
4,302500	0,1	1,684795
4,304167	0,1	1,650716
4,305833	0,1	1,653216
4,307500	0,1	1,637407
4,309167	0,1	1,664613
4,310833	0,1	1,630448
4,312500	0,1	1,639897
4,314167	0,1	1,648703
4,315833	0,1	1,593604
4,317500	0,1	1,609767
4,319167	0,1	1,569655
4,320833	0,1	1,587281
4,322500	0,1	1,560916
4,324167	0,1	1,522052
4,325833	0,1	1,488905
4,327500	0,1	1,550368
4,329167	0,1	1,518924
4,330833	0,1	1,536872
4,332500	0,1	1,497214
4,334167	0,1	1,492832
4,335833	0,1	1,482799
4,337500	0,1	1,483099
4,339167	0,1	1,440082
4,340833	0,1	1,448679
4,342500	0,1	1,439951
4,344167	0,1	1,427410
4,345833	0,1	1,425832
4,347500	0,1	1,386698
4,349167	0,1	1,387673
4,350833	0,1	1,398737
4,352500	0,1	1,347633
4,354167	0,1	1,385187
4,355833	0,1	1,370675
4,357500	0,1	1,393496
4,359167	0,1	1,313202
4,360833	0,1	1,368641
4,362500	0,1	1,300387
4,364167	0,1	1,341747
4,365833	0,1	1,331590
4,367500	0,1	1,338754
4,369167	0,1	1,295956
4,370833	0,1	1,269347
4,372500	0,1	1,290145
4,374167	0,1	1,293320
4,375833	0,1	1,270856
4,377500	0,1	1,273780
4,379167	0,1	1,253518
4,380833	0,1	1,279232
4,382500	0,1	1,229872
4,384167	0,1	1,240699
4,385833	0,1	1,236435
4,387500	0,1	1,242467
4,389167	0,1	1,236455
4,390833	0,1	1,225154
4,392500	0,1	1,229178
4,394167	0,1	1,172506
4,395833	0,1	1,191957
4,397500	0,1	1,187081
4,399167	0,1	1,123188
4,400833	0,1	1,148984
4,402500	0,1	1,166145
4,404167	0,1	1,146259
4,405833	0,1	1,150872
4,407500	0,1	1,148722
4,409167	0,1	1,111194
4,410833	0,1	1,134687
4,412500	0,1	1,121490
4,414167	0,1	1,120197
4,415833	0,1	1,098294
4,417500	0,1	1,114734
4,419167	0,1	1,055244
4,420833	0,1	1,090179
4,422500	0,1	1,089609
4,424167	0,1	1,090720
4,425833	0,1	1,079824
4,427500	0,1	1,082329
4,429167	0,1	1,061894
4,430833	0,1	1,039169
4,432500	0,1	1,037366
4,434167	0,1	1,030665
4,435833	0,1	1,061926
4,437500	0,1	1,022506
4,439167	0,1	1,001664
4,440833	0,1	0,987437
4,442500	0,1	0,993668
4,444167	0,1	0,994600
4,445833	0,1	1,008244
4,447500	0,1	0,977545
4,449167	0,1	1,014475
4,450833	0,1	0,970403
4,452500	0,1	0,984433
4,454167	0,1	0,956070
4,455833	0,1	0,972206
4,457500	0,1	0,992977
4,459167	0,1	0,977541
4,460833	0,1	0,951823
4,462500	0,1	0,954084
4,464167	0,1	0,959008
4,465833	0,1	0,942886
4,467500	0,1	0,908344
4,469167	0,1	0,907996
4,470833	0,1	0,899726
4,472500	0,1	0,917801
4,474167	0,1	0,883582
4,475833	0,1	0,866231
4,477500	0,1	0,895593
4,479167	0,1	0,901191
4,480833	0,1	0,926566
4,482500	0,1	0,851293
4,484167	0,1	0,880440
4,485833	0,1	0,869802
4,487500	0,1	0,835107
4,489167	0,1	0,871877
4,490833	0,1	0,825685
4,492500	0,1	0,854706
4,494167	0,1	0,851746
4,495833	0,1	0,866580
4,497500	0,1	0,868250
4,499167	0,1	0,818767
4,500833	0,1	0,825632
4,502500	0,1	0,836252
4,504167	0,1	0,820139
4,505833	0,1	0,824059
4,507500	0,1	0,756640
4,509167	0,1	0,794618
4,510833	0,1	0,761581
4,512500	0,1	0,764211
4,514167	0,1	0,806457
4,515833	0,1	0,749722
4,517500	0,1	0,803304
4,519167	0,1	0,767018
4,520833	0,1	0,767717
4,522500	0,1	0,741250
4,524167	0,1	0,751084
4,525833	0,1	0,742989
4,527500	0,1	0,712262
4,529167	0,1	0,722238
4,530833	0,1	0,718223
4,532500	0,1	0,734808
4,534167	0,1	0,688586
4,535833	0,1	0,713071
4,537500	0,1	0,716552
4,539167	0,1	0,677782
4,540833	0,1	0,696455
4,542500	0,1	0,699544
4,544167	0,1	0,694111
4,545833	0,1	0,670900
4,547500	0,1	0,677447
4,549167	0,1	0,705708
4,550833	0,1	0,697552
4,552500	0,1	0,691764
4,554167	0,1	0,667202
4,555833	0,1	0,668034
4,557500	0,1	0,648587
4,559167	0,1	0,656647
4,560833	0,1	0,665299
4,562500	0,1	0,652374
4,564167	0,1	0,661176
4,565833	0,1	0,649324
4,567500	0,1	0,610590
4,569167	0,1	0,626906
4,570833	0,1	0,647517
4,572500	0,1	0,586099
4,574167	0,1	0,624135
4,575833	0,1	0,616176
4,577500	0,1	0,624433
4,579167	0,1	0,602709
4,580833	0,1	0,554530
4,582500	0,1	0,578590
4,584167	0,1	0,577920
4,585833	0,1	0,601606
4,587500	0,1	0,557679
4,589167	0,1	0,551146
4,590833	0,1	0,549666
4,592500	0,1	0,601887
4,594167	0,1	0,558128
4,595833	0,1	0,529261
4,597500	0,1	0,574824
4,599167	0,1	0,546009
4,600833	0,1	0,549986
4,602500	0,1	0,558051
4,604167	0,1	0,578878
4,605833	0,1	0,522358
4,607500	0,1	0,511869
4,609167	0,1	0,532463
4,610833	0,1	0,531054
4,612500	0,1	0,534717
4,614167	0,1	0,517978
4,615833	0,1	0,518166
4,617500	0,1	0,528385
4,619167	0,1	0,520932
4,620833	0,1	0,457662
4,622500	0,1	0,514776
4,624167	0,1	0,510356
4,625833	0,1	0,509039
4,627500	0,1	0,488282
4,629167	0,1	0,486763
4,630833	0,1	0,488083
4,632500	0,1	0,523974
4,634167	0,1	0,469842
4,635833	0,1	0,512080
4,637500	0,1	0,474980
4,639167	0,1	0,452286
4,640833	0,1	0,448105
4,642500	0,1	0,507898
4,644167	0,1	0,444327
4,645833	0,1	0,441643
4,647500	0,1	0,434574
4,649167	0,1	0,462238
4,650833	0,1	0,461538
4,652500	0,1	0,499323
4,654167	0,1	0,464760
4,655833	0,1	0,461443
4,657500	0,1	0,426001
4,659167	0,1	0,488870
4,660833	0,1	0,419871
4,662500	0,1	0,438105
4,664167	0,1	0,433033
4,665833	0,1	0,413501
4,667500	0,1	0,421270
4,669167	0,1	0,467986
4,670833	0,1	0,406791
4,672500	0,1	0,431549
4,674167	0,1	0,457483
4,675833	0,1	0,441489
4,677500	0,1	0,458736
4,679167	0,1	0,410486
4,680833	0,1	0,403251
4,682500	0,1	0,396692
4,684167	0,1	0,434695
4,685833	0,1	0,416650
4,687500	0,1	0,389373
4,689167	0,1	0,392606
4,690833	0,1	0,403820
4,692500	0,1	0,398747
4,694167	0,1	0,398906
4,695833	0,1	0,410535
4,697500	0,1	0,426313
4,699167	0,1	0,414205
4,700833	0,1	0,372696
4,702500	0,1	0,351358
4,704167	0,1	0,428838
4,705833	0,1	0,394834
4,707500	0,1	0,422905
4,709167	0,1	0,403190
4,710833	0,1	0,371472
4,712500	0,1	0,380043
4,714167	0,1	0,396401
4,715833	0,1	0,371697
4,717500	0,1	0,348627
4,719167	0,1	0,370719
4,720833	0,1	0,369988
4,722500	0,1	0,326007
4,724167	0,1	0,342544
4,725833	0,1	0,363303
4,727500	0,1	0,350968
4,729167	0,1	0,359895
4,730833	0,1	0,347086
4,732500	0,1	0,351416
4,734167	0,1	0,389160
4,735833	0,1	0,388300
4,737500	0,1	0,377032
4,739167	0,1	0,319565
4,740833	0,1	0,356097
4,742500	0,1	0,418877
4,744167	0,1	0,348157
4,745833	0,1	0,360701
4,747500	0,1	0,348722
4,749167	0,1	0,335935
4,750833	0,1	0,298611
4,752500	0,1	0,364028
4,754167	0,1	0,316468
4,755833	0,1	0,353697
4,757500	0,1	0,300216
4,759167	0,1	0,381796
4,760833	0,1	0,326497
4,762500	0,1	0,308146
4,764167	0,1	0,361495
4,765833	0,1	0,348532
4,767500	0,1	0,348106
4,769167	0,1	0,313227
4,770833	0,1	0,297476
4,772500	0,1	0,320894
4,774167	0,1	0,319489
4,775833	0,1	0,335357
4,777500	0,1	0,339532
4,779167	0,1	0,337643
4,780833	0,1	0,307949
4,782500	0,1	0,297510
4,784167	0,1	0,320569
4,785833	0,1	0,309103
4,787500	0,1	0,295014
4,789167	0,1	0,297924
4,790833	0,1	0,294260
4,792500	0,1	0,316261
4,794167	0,1	0,337022
4,795833	0,1	0,257756
4,797500	0,1	0,276528
4,799167	0,1	0,320826
4,800833	0,1	0,297323
4,802500	0,1	0,313249
4,804167	0,1	0,345309
4,805833	0,1	0,308249
4,807500	0,1	0,299854
4,809167	0,1	0,294713
4,810833	0,1	0,261084
4,812500	0,1	0,270458
4,814167	0,1	0,276595
4,815833	0,1	0,313608
4,817500	0,1	0,274678
4,819167	0,1	0,292075
4,820833	0,1	0,280037
4,822500	0,1	0,308676
4,824167	0,1	0,296326
4,825833	0,1	0,269019
4,827500	0,1	0,256683
4,829167	0,1	0,318859
4,830833	0,1	0,292121
4,832500	0,1	0,280843
4,834167	0,1	0,249972
4,835833	0,1	0,262396
4,837500	0,1	0,288607
4,839167	0,1	0,293363
4,840833	0,1	0,298829
4,842500	0,1	0,288353
4,844167	0,1	0,262468
4,845833	0,1	0,260851
4,847500	0,1	0,297119
4,849167	0,1	0,284951
4,850833	0,1	0,273966
4,852500	0,1	0,273409
4,854167	0,1	0,258158
4,855833	0,1	0,280281
4,857500	0,1	0,259606
4,859167	0,1	0,275181
4,860833	0,1	0,263522
4,862500	0,1	0,263835
4,864167	0,1	0,245184
4,865833	0,1	0,266864
4,867500	0,1	0,308356
4,869167	0,1	0,271690
4,870833	0,1	0,248913
4,872500	0,1	0,242648
4,874167	0,1	0,277683
4,875833	0,1	0,268271
4,877500	0,1	0,255851
4,879167	0,1	0,270684
4,880833	0,1	0,262299
4,882500	0,1	0,290913
4,884167	0,1	0,246538
4,885833	0,1	0,258605
4,887500	0,1	0,294324
4,889167	0,1	0,231754
4,890833	0,1	0,315740
4,892500	0,1	0,269919
4,894167	0,1	0,307300
4,895833	0,1	0,228105
4,897500	0,1	0,258183
4,899167	0,1	0,262197
4,900833	0,1	0,301707
4,902500	0,1	0,288869
4,904167	0,1	0,287933
4,905833	0,1	0,256460
4,907500	0,1	0,297472
4,909167	0,1	0,279522
4,910833	0,1	0,284241
4,912500	0,1	0,281284
4,914167	0,1	0,276886
4,915833	0,1	0,285045
4,917500	0,1	0,257038
4,919167	0,1	0,278670
4,920833	0,1	0,281093
4,922500	0,1	0,240401
4,924167	0,1	0,304144
4,925833	0,1	0,272296
4,927500	0,1	0,248977
4,929167	0,1	0,232726
4,930833	0,1	0,260402
4,932500	0,1	0,266378
4,934167	0,1	0,277198
4,935833	0,1	0,252931
4,937500	0,1	0,301287
4,939167	0,1	0,251225
4,940833	0,1	0,240193
4,942500	0,1	0,292066
4,944167	0,1	0,228039
4,945833	0,1	0,272882
4,947500	0,1	0,276532
4,949167	0,1	0,263876
4,950833	0,1	0,261718
4,952500	0,1	0,269236
4,954167	0,1	0,282702
4,955833	0,1	0,279040
4,957500	0,1	0,287288
4,959167	0,1	0,268954
4,960833	0,1	0,287865
4,962500	0,1	0,258260
4,964167	0,1	0,280372
4,965833	0,1	0,281129
4,967500	0,1	0,234231
4,969167	0,1	0,278966
4,970833	0,1	0,273737
4,972500	0,1	0,286609
4,974167	0,1	0,281257
4,975833	0,1	0,256911
4,977500	0,1	0,238796
4,979167	0,1	0,271600
4,980833	0,1	0,269340
4,982500	0,1	0,266897
4,984167	0,1	0,313786
4,985833	0,1	0,266970
4,987500	0,1	0,272350
4,989167	0,1	0,323875
4,990833	0,1	0,251204
4,992500	0,1	0,273982
4,994167	0,1	0,302162
4,995833	0,1	0,302232
4,997500	0,1	0,260896
4,999167	0,1	0,300811
5,000833	0,1	0,283113
5,002500	0,1	0,281698
5,004167	0,1	0,269469
5,005833	0,1	0,299807
5,007500	0,1	0,341958
5,009167	0,1	0,268992
5,010833	0,1	0,301481
5,012500	0,1	0,319801
5,014167	0,1	0,311065
5,015833	0,1	0,310006
5,017500	0,1	0,286264
5,019167	0,1	0,289217
5,020833	0,1	0,297859
5,022500	0,1	0,303895
5,024167	0,1	0,301717
5,025833	0,1	0,322851
5,027500	0,1	0,292402
5,029167	0,1	0,342797
5,030833	0,1	0,322607
5,032500	0,1	0,292890
5,034167	0,1	0,322422
5,035833	0,1	0,291153
5,037500	0,1	0,295642
5,039167	0,1	0,310806
5,040833	0,1	0,311832
5,042500	0,1	0,324138
5,044167	0,1	0,263498
5,045833	0,1	0,333797
5,047500	0,1	0,308689
5,049167	0,1	0,337112
5,050833	0,1	0,334259
5,052500	0,1	0,344156
5,054167	0,1	0,308213
5,055833	0,1	0,345371
5,057500	0,1	0,352629
5,059167	0,1	0,345699
5,060833	0,1	0,366997
5,062500	0,1	0,361826
5,064167	0,1	0,355303
5,065833	0,1	0,368375
5,067500	0,1	0,339405
5,069167	0,1	0,352699
5,070833	0,1	0,360602
5,072500	0,1	0,373135
5,074167	0,1	0,357170
5,075833	0,1	0,336418
5,077500	0,1	0,355495
5,079167	0,1	0,342931
5,080833	0,1	0,344150
5,082500	0,1	0,366990
5,084167	0,1	0,336772
5,085833	0,1	0,367574
5,087500	0,1	0,397868
5,089167	0,1	0,352750
5,090833	0,1	0,358230
5,092500	0,1	0,352894
5,094167	0,1	0,383442
5,095833	0,1	0,373749
5,097500	0,1	0,396685
5,099167	0,1	0,390681
5,100833	0,1	0,394598
5,102500	0,1	0,347382
5,104167	0,1	0,363043
5,105833	0,1	0,401144
5,107500	0,1	0,336518
5,109167	0,1	0,373828
5,110833	0,1	0,383574
5,112500	0,1	0,373783
5,114167	0,1	0,391742
5,115833	0,1	0,383579
5,117500	0,1	0,324570
5,119167	0,1	0,401876
5,120833	0,1	0,352198
5,122500	0,1	0,364168
5,124167	0,1	0,385469
5,125833	0,1	0,367071
5,127500	0,1	0,390095
5,129167	0,1	0,385476
5,130833	0,1	0,397203
5,132500	0,1	0,354288
5,134167	0,1	0,432729
5,135833	0,1	0,366339
5,137500	0,1	0,379624
5,139167	0,1	0,356174
5,140833	0,1	0,397032
5,142500	0,1	0,386926
5,144167	0,1	0,392318
5,145833	0,1	0,351363
5,147500	0,1	0,367993
5,149167	0,1	0,365999
5,150833	0,1	0,410139
5,152500	0,1	0,397109
5,154167	0,1	0,364601
5,155833	0,1	0,386430
5,157500	0,1	0,392154
5,159167	0,1	0,387885
5,160833	0,1	0,356983
5,162500	0,1	0,383322
5,164167	0,1	0,357524
5,165833	0,1	0,411782
5,167500	0,1	0,365501
5,169167	0,1	0,359420
5,170833	0,1	0,360088
5,172500	0,1	0,369922
5,174167	0,1	0,330674
5,175833	0,1	0,369654
5,177500	0,1	0,333200
5,179167	0,1	0,373573
5,180833	0,1	0,379111
5,182500	0,1	0,331926
5,184167	0,1	0,357485
5,185833	0,1	0,363751
5,187500	0,1	0,322739
5,189167	0,1	0,392399
5,190833	0,1	0,379342
5,192500	0,1	0,362860
5,194167	0,1	0,332818
5,195833	0,1	0,341197
5,197500	0,1	0,383861
5,199167	0,1	0,297708
5,200833	0,1	0,342862
5,202500	0,1	0,350709
5,204167	0,1	0,355308
5,205833	0,1	0,333015
5,207500	0,1	0,332077
5,209167	0,1	0,355465
5,210833	0,1	0,345763
5,212500	0,1	0,334387
5,214167	0,1	0,346437
5,215833	0,1	0,308277
5,217500	0,1	0,368879
5,219167	0,1	0,324313
5,220833	0,1	0,302389
5,222500	0,1	0,352981
5,224167	0,1	0,297647
5,225833	0,1	0,310645
5,227500	0,1	0,336124
5,229167	0,1	0,331663
5,230833	0,1	0,307793
5,232500	0,1	0,306088
5,234167	0,1	0,294578
5,235833	0,1	0,288741
5,237500	0,1	0,277266
5,239167	0,1	0,335376
5,240833	0,1	0,314217
5,242500	0,1	0,303972
5,244167	0,1	0,278845
5,245833	0,1	0,311182
5,247500	0,1	0,297548
5,249167	0,1	0,319701
5,250833	0,1	0,312261
5,252500	0,1	0,289451
5,254167	0,1	0,272682
5,255833	0,1	0,276494
5,257500	0,1	0,287477
5,259167	0,1	0,298220
5,260833	0,1	0,275632
5,262500	0,1	0,259341
5,264167	0,1	0,266441
5,265833	0,1	0,249213
5,267500	0,1	0,248002
5,269167	0,1	0,278843
5,270833	0,1	0,236838
5,272500	0,1	0,317443
5,274167	0,1	0,285862
5,275833	0,1	0,278108
5,277500	0,1	0,255779
5,279167	0,1	0,273289
5,280833	0,1	0,265964
5,282500	0,1	0,256820
5,284167	0,1	0,265735
5,285833	0,1	0,246883
5,287500	0,1	0,214478
5,289167	0,1	0,262676
5,290833	0,1	0,239566
5,292500	0,1	0,254848
5,294167	0,1	0,254915
5,295833	0,1	0,254375
5,297500	0,1	0,196044
5,299167	0,1	0,222587
5,300833	0,1	0,242125
5,302500	0,1	0,222260
5,304167	0,1	0,212482
5,305833	0,1	0,244566
5,307500	0,1	0,233568
5,309167	0,1	0,228766
5,310833	0,1	0,207988
5,312500	0,1	0,210880
5,314167	0,1	0,256090
5,315833	0,1	0,205300
5,317500	0,1	0,199406
5,319167	0,1	0,182268
5,320833	0,1	0,170542
5,322500	0,1	0,188355
5,324167	0,1	0,200812
5,325833	0,1	0,216470
5,327500	0,1	0,188569
5,329167	0,1	0,160229
5,330833	0,1	0,203867
5,332500	0,1	0,201372
5,334167	0,1	0,168204
5,335833	0,1	0,212255
5,337500	0,1	0,184652
5,339167	0,1	0,213152
5,340833	0,1	0,195303
5,342500	0,1	0,200514
5,344167	0,1	0,161995
5,345833	0,1	0,184765
5,347500	0,1	0,174935
5,349167	0,1	0,183281
5,350833	0,1	0,180238
5,352500	0,1	0,175513
5,354167	0,1	0,220429
5,355833	0,1	0,195079
5,357500	0,1	0,180694
5,359167	0,1	0,189290
5,360833	0,1	0,190551
5,362500	0,1	0,143346
5,364167	0,1	0,179295
5,365833	0,1	0,164863
5,367500	0,1	0,198189
5,369167	0,1	0,167874
5,370833	0,1	0,122113
5,372500	0,1	0,158907
5,374167	0,1	0,177435
5,375833	0,1	0,173235
5,377500	0,1	0,171721
5,379167	0,1	0,159974
5,380833	0,1	0,214431
5,382500	0,1	0,169492
5,384167	0,1	0,144892
5,385833	0,1	0,164024
5,387500	0,1	0,165940
5,389167	0,1	0,128096
5,390833	0,1	0,182291
5,392500	0,1	0,173337
5,394167	0,1	0,147978
5,395833	0,1	0,123909
5,397500	0,1	0,126511
5,399167	0,1	0,143889
5,400833	0,1	0,162865
5,402500	0,1	0,160035
5,404167	0,1	0,153754
5,405833	0,1	0,174780
5,407500	0,1	0,142537
5,409167	0,1	0,143914
5,410833	0,1	0,149092
5,412500	0,1	0,142468
5,414167	0,1	0,103879
5,415833	0,1	0,157640
5,417500	0,1	0,096820
5,419167	0,1	0,156269
5,420833	0,1	0,129087
5,422500	0,1	0,133512
5,424167	0,1	0,109718
5,425833	0,1	0,158528
5,427500	0,1	0,161005
5,429167	0,1	0,126044
5,430833	0,1	0,135813
5,432500	0,1	0,130720
5,434167	0,1	0,127484
5,435833	0,1	0,144327
5,437500	0,1	0,130038
5,439167	0,1	0,129722
5,440833	0,1	0,095529
5,442500	0,1	0,090156
5,444167	0,1	0,094547
5,445833	0,1	0,114054
5,447500	0,1	0,110269
5,449167	0,1	0,106769
5,450833	0,1	0,112898
5,452500	0,1	0,117599
5,454167	0,1	0,134544
5,455833	0,1	0,143311
5,457500	0,1	0,142609
5,459167	0,1	0,120778
5,460833	0,1	0,085936
5,462500	0,1	0,085329
5,464167	0,1	0,139548
5,465833	0,1	0,112038
5,467500	0,1	0,132140
5,469167	0,1	0,105615
5,470833	0,1	0,086430
5,472500	0,1	0,112872
5,474167	0,1	0,080985
5,475833	0,1	0,095598
5,477500	0,1	0,097816
5,479167	0,1	0,077295
5,480833	0,1	0,080232
5,482500	0,1	0,098148
5,484167	0,1	0,129919
5,485833	0,1	0,112574
5,487500	0,1	0,096497
5,489167	0,1	0,118261
5,490833	0,1	0,098425
5,492500	0,1	0,120538
5,494167	0,1	0,114765
5,495833	0,1	0,104969
5,497500	0,1	0,092994
5,499167	0,1	0,095458
5,500833	0,1	0,088934
5,502500	0,1	0,067683
5,504167	0,1	0,094974
5,505833	0,1	0,083031
5,507500	0,1	0,095973
5,509167	0,1	0,068638
5,510833	0,1	0,119639
5,512500	0,1	0,106935
5,514167	0,1	0,061143
5,515833	0,1	0,114938
5,517500	0,1	0,089934
5,519167	0,1	0,077084
5,520833	0,1	0,131677
5,522500	0,1	0,079273
5,524167	0,1	0,058218
5,525833	0,1	0,072894
5,527500	0,1	0,091204
5,529167	0,1	0,131202
5,530833	0,1	0,064008
5,532500	0,1	0,126184
5,534167	0,1	0,053506
5,535833	0,1	0,026299
5,537500	0,1	0,087509
5,539167	0,1	0,099309
5,540833	0,1	0,092226
5,542500	0,1	0,060664
5,544167	0,1	0,149627
5,545833	0,1	0,071717
5,547500	0,1	0,068488
5,549167	0,1	0,088535
5,550833	0,1	0,107281
5,552500	0,1	0,117871
5,554167	0,1	0,049072
5,555833	0,1	0,104142
5,557500	0,1	0,120745
5,559167	0,1	0,096125
5,560833	0,1	0,096618
5,562500	0,1	0,121055
5,564167	0,1	0,044539
5,565833	0,1	0,087761
5,567500	0,1	0,071473
5,569167	0,1	0,081305
5,570833	0,1	0,063872
5,572500	0,1	0,095121
5,574167	0,1	0,093759
5,575833	0,1	0,086902
5,577500	0,1	0,077873
5,579167	0,1	0,077517
5,580833	0,1	0,083937
5,582500	0,1	0,064266
5,584167	0,1	0,071303
5,585833	0,1	0,037775
5,587500	0,1	0,078336
5,589167	0,1	0,103053
5,590833	0,1	0,089472
5,592500	0,1	0,076589
5,594167	0,1	0,094334
5,595833	0,1	0,044740
5,597500	0,1	0,093827
5,599167	0,1	0,072840
5,600833	0,1	0,124159
5,602500	0,1	0,084239
5,604167	0,1	0,054076
5,605833	0,1	0,127819
5,607500	0,1	0,045616
5,609167	0,1	0,100640
5,610833	0,1	0,094961
5,612500	0,1	0,093470
5,614167	0,1	0,112458
5,615833	0,1	0,090202
5,617500	0,1	0,096263
5,619167	0,1	0,090840
5,620833	0,1	0,066275
5,622500	0,1	0,081697
5,624167	0,1	0,104938
5,625833	0,1	0,082060
5,627500	0,1	0,108523
5,629167	0,1	0,069408
5,630833	0,1	0,058029
5,632500	0,1	0,098741
5,634167	0,1	0,097425
5,635833	0,1	0,073755
5,637500	0,1	0,093940
5,639167	0,1	0,094712
5,640833	0,1	0,089058
5,642500	0,1	0,094997
5,644167	0,1	0,064930
5,645833	0,1	0,074946
5,647500	0,1	0,085283
5,649167	0,1	0,074102
5,650833	0,1	0,084850
5,652500	0,1	0,065157
5,654167	0,1	0,096569
5,655833	0,1	0,088953
5,657500	0,1	0,071266
5,659167	0,1	0,082651
5,660833	0,1	0,062752
5,662500	0,1	0,094809
5,664167	0,1	0,066836
5,665833	0,1	0,139255
5,667500	0,1	0,120010
5,669167	0,1	0,085231
5,670833	0,1	0,074826
5,672500	0,1	0,090648
5,674167	0,1	0,103492
5,675833	0,1	0,053190
5,677500	0,1	0,088199
5,679167	0,1	0,129754
5,680833	0,1	0,097661
5,682500	0,1	0,067334
5,684167	0,1	0,115537
5,685833	0,1	0,127543
5,687500	0,1	0,056405
5,689167	0,1	0,087745
5,690833	0,1	0,127248
5,692500	0,1	0,084653
5,694167	0,1	0,064970
5,695833	0,1	0,113468
5,697500	0,1	0,086389
5,699167	0,1	0,104796
5,700833	0,1	0,076468
5,702500	0,1	0,103509
5,704167	0,1	0,117971
5,705833	0,1	0,096642
5,707500	0,1	0,123374
5,709167	0,1	0,099463
5,710833	0,1	0,093573
5,712500	0,1	0,114241
5,714167	0,1	0,090264
5,715833	0,1	0,115792
5,717500	0,1	0,132555
5,719167	0,1	0,116593
5,720833	0,1	0,138913
5,722500	0,1	0,112861
5,724167	0,1	0,117831
5,725833	0,1	0,121851
5,727500	0,1	0,090430
5,729167	0,1	0,082099
5,730833	0,1	0,082635
5,732500	0,1	0,139713
5,734167	0,1	0,118497
5,735833	0,1	0,126509
5,737500	0,1	0,115409
5,739167	0,1	0,101798
5,740833	0,1	0,108364
5,742500	0,1	0,100018
5,744167	0,1	0,154548
5,745833	0,1	0,108251
5,747500	0,1	0,119735
5,749167	0,1	0,127294
5,750833	0,1	0,121603
5,752500	0,1	0,140677
5,754167	0,1	0,131817
5,755833	0,1	0,150270
5,757500	0,1	0,162375
5,759167	0,1	0,132919
5,760833	0,1	0,111225
5,762500	0,1	0,114308
5,764167	0,1	0,134896
5,765833	0,1	0,133742
5,767500	0,1	0,119200
5,769167	0,1	0,148920
5,770833	0,1	0,109534
5,772500	0,1	0,139202
5,774167	0,1	0,138818
5,775833	0,1	0,100231
5,777500	0,1	0,110949
5,779167	0,1	0,090906
5,780833	0,1	0,133441
5,782500	0,1	0,088343
5,784167	0,1	0,127310
5,785833	0,1	0,189643
5,787500	0,1	0,122136
5,789167	0,1	0,091818
5,790833	0,1	0,127044
5,792500	0,1	0,099898
5,794167	0,1	0,126897
5,795833	0,1	0,128354
5,797500	0,1	0,160089
5,799167	0,1	0,130930
5,800833	0,1	0,117006
5,802500	0,1	0,127793
5,804167	0,1	0,122597
5,805833	0,1	0,154099
5,807500	0,1	0,120905
5,809167	0,1	0,109878
5,810833	0,1	0,136656
5,812500	0,1	0,124941
5,814167	0,1	0,107789
5,815833	0,1	0,111718
5,817500	0,1	0,116564
5,819167	0,1	0,173274
5,820833	0,1	0,080006
5,822500	0,1	0,101358
5,824167	0,1	0,091857
5,825833	0,1	0,131515
5,827500	0,1	0,158846
5,829167	0,1	0,115211
5,830833	0,1	0,102401
5,832500	0,1	0,119859
5,834167	0,1	0,121061
5,835833	0,1	0,104100
5,837500	0,1	0,098504
5,839167	0,1	0,137170
5,840833	0,1	0,125355
5,842500	0,1	0,121603
5,844167	0,1	0,101823
5,845833	0,1	0,080776
5,847500	0,1	0,105642
5,849167	0,1	0,120603
5,850833	0,1	0,091465
5,852500	0,1	0,130043
5,854167	0,1	0,081362
5,855833	0,1	0,111837
5,857500	0,1	0,114662
5,859167	0,1	0,109690
5,860833	0,1	0,100575
5,862500	0,1	0,146905
5,864167	0,1	0,121421
5,865833	0,1	0,155320
5,867500	0,1	0,097006
5,869167	0,1	0,119379
5,870833	0,1	0,127481
5,872500	0,1	0,137569
5,874167	0,1	0,115786
5,875833	0,1	0,167707
5,877500	0,1	0,107113
5,879167	0,1	0,104944
5,880833	0,1	0,121512
5,882500	0,1	0,127131
5,884167	0,1	0,111518
5,885833	0,1	0,135309
5,887500	0,1	0,106172
5,889167	0,1	0,150781
5,890833	0,1	0,120262
5,892500	0,1	0,105446
5,894167	0,1	0,114473
5,895833	0,1	0,125679
5,897500	0,1	0,124813
5,899167	0,1	0,117004
5,900833	0,1	0,090203
5,902500	0,1	0,120224
5,904167	0,1	0,109777
5,905833	0,1	0,063568
5,907500	0,1	0,130844
5,909167	0,1	0,097723
5,910833	0,1	0,143632
5,912500	0,1	0,096793
5,914167	0,1	0,108300
5,915833	0,1	0,079843
5,917500	0,1	0,116598
5,919167	0,1	0,101117
5,920833	0,1	0,091441
5,922500	0,1	0,060022
5,924167	0,1	0,099445
5,925833	0,1	0,092394
5,927500	0,1	0,060249
5,929167	0,1	0,131319
5,930833	0,1	0,076351
5,932500	0,1	0,055876
5,934167	0,1	0,073846
5,935833	0,1	0,120636
5,937500	0,1	0,061395
5,939167	0,1	0,090353
5,940833	0,1	0,093407
5,942500	0,1	0,070357
5,944167	0,1	0,111668
5,945833	0,1	0,112650
5,947500	0,1	0,087509
5,949167	0,1	0,066274
5,950833	0,1	0,086565
5,952500	0,1	0,079281
5,954167	0,1	0,085801
5,955833	0,1	0,080647
5,957500	0,1	0,092058
5,959167	0,1	0,109417
5,960833	0,1	0,081314
5,962500	0,1	0,081950
5,964167	0,1	0,081495
5,965833	0,1	0,065113
5,967500	0,1	0,087331
5,969167	0,1	0,094129
5,970833	0,1	0,123168
5,972500	0,1	0,073345
5,974167	0,1	0,106449
5,975833	0,1	0,069695
5,977500	0,1	0,069647
5,979167	0,1	0,081511
5,980833	0,1	0,073191
5,982500	0,1	0,091142
5,984167	0,1	0,038298
5,985833	0,1	0,088713
5,987500	0,1	0,053022
5,989167	0,1	0,086830
5,990833	0,1	0,102581
5,992500	0,1	0,110659
5,994167	0,1	0,082287
5,995833	0,1	0,056457
5,997500	0,1	0,064528
5,999167	0,1	0,063743
6,000833	0,1	0,080724
