File Path	chrom://chromeleon01/ikbm_chromeleon/2022/Rezex/Esteban/220612_chitin_4_7.seq/474.smp/UV_VIS_1.channel/UV_VIS_1.chm
Channel	UV_VIS_1

Injection Information:
Data Vault	ikbm_chromeleon
Injection	4_02h-EGS_2
Injection Number	85
Position	GD5
Comment	
Processing Method	New ProcMethod
Instrument Method	Short_Rezex_6min_194nm
Type	Unknown
Status	Finished
Injection Date	13.06.2022
Injection Time	02:17:55
Injection Volume (µl)	8,000
Dilution Factor	1,0000
Weight	1,0000

Chromatogram Data Information:
Time Min. (min)	0,000833
Time Max. (min)	6,000833
Data Points	3601
Detector	UV
Generating Data System	Chromeleon 7.2.9.11323
Exporting Data System	Chromeleon 7.2.9.0
Operator	Instrument Controller
Signal Quantity	Absorbance
Signal Unit	mAU
Signal Min.	-0,164887
Signal Max.	114,129602
Channel	UV_VIS_1
Driver Name	VWD3000.dll
Channel Type	Evaluation
Min. Step (s)	0,1
Max. Step (s)	0,1
Average Step (s)	0,1

Signal Parameter Information:
Signal Info	WVL:194 nm

Chromatogram Data:
Time (min)	Step (s)	Value (mAU)
0,000833	n.a.	-0,096220
0,002500	0,1	-0,083654
0,004167	0,1	-0,074372
0,005833	0,1	-0,082340
0,007500	0,1	-0,078330
0,009167	0,1	-0,087913
0,010833	0,1	-0,065472
0,012500	0,1	-0,119670
0,014167	0,1	-0,112254
0,015833	0,1	-0,069614
0,017500	0,1	-0,066044
0,019167	0,1	-0,069956
0,020833	0,1	-0,053785
0,022500	0,1	-0,059206
0,024167	0,1	-0,085069
0,025833	0,1	-0,104043
0,027500	0,1	-0,069736
0,029167	0,1	-0,124544
0,030833	0,1	-0,106040
0,032500	0,1	-0,109410
0,034167	0,1	-0,142648
0,035833	0,1	-0,073431
0,037500	0,1	-0,130602
0,039167	0,1	-0,164887
0,040833	0,1	-0,160510
0,042500	0,1	-0,117813
0,044167	0,1	-0,098978
0,045833	0,1	-0,113568
0,047500	0,1	-0,104400
0,049167	0,1	-0,115232
0,050833	0,1	-0,132899
0,052500	0,1	-0,087946
0,054167	0,1	-0,096199
0,055833	0,1	-0,084251
0,057500	0,1	-0,119782
0,059167	0,1	-0,102829
0,060833	0,1	-0,049132
0,062500	0,1	-0,132469
0,064167	0,1	-0,101925
0,065833	0,1	-0,092678
0,067500	0,1	-0,072407
0,069167	0,1	-0,086858
0,070833	0,1	-0,068757
0,072500	0,1	-0,088634
0,074167	0,1	-0,068036
0,075833	0,1	-0,100687
0,077500	0,1	-0,093679
0,079167	0,1	-0,056730
0,080833	0,1	-0,044129
0,082500	0,1	-0,042494
0,084167	0,1	-0,079041
0,085833	0,1	-0,109906
0,087500	0,1	-0,056424
0,089167	0,1	-0,071904
0,090833	0,1	-0,022347
0,092500	0,1	-0,063297
0,094167	0,1	-0,072960
0,095833	0,1	-0,051798
0,097500	0,1	-0,067904
0,099167	0,1	-0,064735
0,100833	0,1	-0,040156
0,102500	0,1	-0,072683
0,104167	0,1	-0,053910
0,105833	0,1	-0,056720
0,107500	0,1	-0,121243
0,109167	0,1	-0,073530
0,110833	0,1	-0,090623
0,112500	0,1	-0,093774
0,114167	0,1	-0,102408
0,115833	0,1	-0,132516
0,117500	0,1	-0,103455
0,119167	0,1	-0,122370
0,120833	0,1	-0,066242
0,122500	0,1	-0,086189
0,124167	0,1	-0,112141
0,125833	0,1	-0,080897
0,127500	0,1	-0,084144
0,129167	0,1	-0,100068
0,130833	0,1	-0,096283
0,132500	0,1	-0,099578
0,134167	0,1	-0,139453
0,135833	0,1	-0,134635
0,137500	0,1	-0,097715
0,139167	0,1	-0,094998
0,140833	0,1	-0,081641
0,142500	0,1	-0,105368
0,144167	0,1	-0,075163
0,145833	0,1	-0,088846
0,147500	0,1	-0,062300
0,149167	0,1	-0,066516
0,150833	0,1	-0,049951
0,152500	0,1	-0,060509
0,154167	0,1	-0,059640
0,155833	0,1	-0,066893
0,157500	0,1	-0,073331
0,159167	0,1	-0,079567
0,160833	0,1	-0,049497
0,162500	0,1	-0,072105
0,164167	0,1	-0,070020
0,165833	0,1	-0,065550
0,167500	0,1	-0,112567
0,169167	0,1	-0,039567
0,170833	0,1	-0,088776
0,172500	0,1	-0,039414
0,174167	0,1	-0,053321
0,175833	0,1	-0,063119
0,177500	0,1	-0,048047
0,179167	0,1	-0,053262
0,180833	0,1	-0,092462
0,182500	0,1	-0,122228
0,184167	0,1	-0,058391
0,185833	0,1	-0,092710
0,187500	0,1	-0,088163
0,189167	0,1	-0,078578
0,190833	0,1	-0,098518
0,192500	0,1	-0,043957
0,194167	0,1	-0,089850
0,195833	0,1	-0,050580
0,197500	0,1	-0,036713
0,199167	0,1	-0,056283
0,200833	0,1	-0,049350
0,202500	0,1	-0,117390
0,204167	0,1	-0,054191
0,205833	0,1	-0,089211
0,207500	0,1	-0,093774
0,209167	0,1	-0,064660
0,210833	0,1	-0,087991
0,212500	0,1	-0,083318
0,214167	0,1	-0,077663
0,215833	0,1	-0,094747
0,217500	0,1	-0,068845
0,219167	0,1	-0,067160
0,220833	0,1	-0,051173
0,222500	0,1	-0,081883
0,224167	0,1	-0,060517
0,225833	0,1	-0,067449
0,227500	0,1	-0,096923
0,229167	0,1	-0,116786
0,230833	0,1	-0,062183
0,232500	0,1	-0,076083
0,234167	0,1	-0,050595
0,235833	0,1	-0,074550
0,237500	0,1	-0,069149
0,239167	0,1	-0,077579
0,240833	0,1	-0,052150
0,242500	0,1	-0,040527
0,244167	0,1	-0,069494
0,245833	0,1	-0,055543
0,247500	0,1	-0,054153
0,249167	0,1	-0,050386
0,250833	0,1	-0,047959
0,252500	0,1	-0,076618
0,254167	0,1	-0,054552
0,255833	0,1	-0,106584
0,257500	0,1	-0,042030
0,259167	0,1	-0,053340
0,260833	0,1	-0,098758
0,262500	0,1	-0,044495
0,264167	0,1	-0,035100
0,265833	0,1	-0,056654
0,267500	0,1	-0,027709
0,269167	0,1	-0,030788
0,270833	0,1	-0,045448
0,272500	0,1	-0,086703
0,274167	0,1	-0,116132
0,275833	0,1	-0,089041
0,277500	0,1	-0,034137
0,279167	0,1	-0,057213
0,280833	0,1	-0,076107
0,282500	0,1	-0,055774
0,284167	0,1	-0,073583
0,285833	0,1	-0,058174
0,287500	0,1	-0,097203
0,289167	0,1	-0,043830
0,290833	0,1	-0,070408
0,292500	0,1	-0,033965
0,294167	0,1	-0,022568
0,295833	0,1	-0,051477
0,297500	0,1	-0,069414
0,299167	0,1	-0,069500
0,300833	0,1	-0,055402
0,302500	0,1	-0,059330
0,304167	0,1	-0,079477
0,305833	0,1	-0,072631
0,307500	0,1	-0,048650
0,309167	0,1	-0,052102
0,310833	0,1	-0,047959
0,312500	0,1	-0,061174
0,314167	0,1	-0,069893
0,315833	0,1	-0,072567
0,317500	0,1	-0,048070
0,319167	0,1	-0,062538
0,320833	0,1	-0,055771
0,322500	0,1	-0,053491
0,324167	0,1	-0,047362
0,325833	0,1	-0,062310
0,327500	0,1	-0,037487
0,329167	0,1	-0,025487
0,330833	0,1	-0,073568
0,332500	0,1	-0,082550
0,334167	0,1	-0,062319
0,335833	0,1	-0,045747
0,337500	0,1	-0,045785
0,339167	0,1	-0,027002
0,340833	0,1	-0,073384
0,342500	0,1	-0,048465
0,344167	0,1	-0,057797
0,345833	0,1	-0,079785
0,347500	0,1	-0,078613
0,349167	0,1	-0,050887
0,350833	0,1	0,001576
0,352500	0,1	-0,053892
0,354167	0,1	-0,063596
0,355833	0,1	-0,072314
0,357500	0,1	-0,038564
0,359167	0,1	0,005949
0,360833	0,1	-0,038772
0,362500	0,1	-0,047794
0,364167	0,1	-0,044687
0,365833	0,1	-0,037416
0,367500	0,1	-0,037419
0,369167	0,1	-0,073159
0,370833	0,1	-0,052378
0,372500	0,1	-0,082562
0,374167	0,1	-0,021004
0,375833	0,1	-0,049984
0,377500	0,1	-0,047485
0,379167	0,1	-0,017041
0,380833	0,1	-0,071623
0,382500	0,1	-0,044963
0,384167	0,1	-0,056883
0,385833	0,1	-0,032182
0,387500	0,1	-0,057213
0,389167	0,1	-0,009795
0,390833	0,1	-0,060314
0,392500	0,1	-0,052911
0,394167	0,1	-0,075027
0,395833	0,1	-0,052046
0,397500	0,1	-0,024954
0,399167	0,1	-0,057441
0,400833	0,1	-0,002132
0,402500	0,1	-0,014773
0,404167	0,1	-0,060480
0,405833	0,1	-0,023858
0,407500	0,1	-0,032837
0,409167	0,1	-0,046096
0,410833	0,1	-0,059248
0,412500	0,1	0,010646
0,414167	0,1	-0,060227
0,415833	0,1	-0,012613
0,417500	0,1	-0,053981
0,419167	0,1	-0,029634
0,420833	0,1	-0,005958
0,422500	0,1	-0,002368
0,424167	0,1	-0,040868
0,425833	0,1	-0,040400
0,427500	0,1	-0,003350
0,429167	0,1	-0,038880
0,430833	0,1	-0,005213
0,432500	0,1	-0,022788
0,434167	0,1	-0,027928
0,435833	0,1	-0,045430
0,437500	0,1	-0,006809
0,439167	0,1	-0,015850
0,440833	0,1	-0,002993
0,442500	0,1	-0,012577
0,444167	0,1	-0,029727
0,445833	0,1	-0,037041
0,447500	0,1	-0,038888
0,449167	0,1	-0,037295
0,450833	0,1	-0,037396
0,452500	0,1	-0,013541
0,454167	0,1	-0,037555
0,455833	0,1	-0,002418
0,457500	0,1	-0,022104
0,459167	0,1	-0,046297
0,460833	0,1	-0,032760
0,462500	0,1	-0,035345
0,464167	0,1	-0,014511
0,465833	0,1	-0,028527
0,467500	0,1	-0,001917
0,469167	0,1	-0,002016
0,470833	0,1	-0,002264
0,472500	0,1	-0,058201
0,474167	0,1	-0,061300
0,475833	0,1	-0,051215
0,477500	0,1	-0,030959
0,479167	0,1	-0,011610
0,480833	0,1	0,002104
0,482500	0,1	0,005172
0,484167	0,1	0,004654
0,485833	0,1	-0,026410
0,487500	0,1	-0,067836
0,489167	0,1	-0,014748
0,490833	0,1	-0,025504
0,492500	0,1	-0,028034
0,494167	0,1	-0,063446
0,495833	0,1	-0,012697
0,497500	0,1	0,003180
0,499167	0,1	-0,020094
0,500833	0,1	-0,026581
0,502500	0,1	-0,024678
0,504167	0,1	-0,006515
0,505833	0,1	-0,031922
0,507500	0,1	0,013097
0,509167	0,1	-0,026037
0,510833	0,1	-0,002602
0,512500	0,1	-0,031092
0,514167	0,1	-0,008381
0,515833	0,1	-0,020738
0,517500	0,1	-0,041865
0,519167	0,1	-0,022902
0,520833	0,1	-0,038779
0,522500	0,1	0,017298
0,524167	0,1	-0,010150
0,525833	0,1	-0,003261
0,527500	0,1	0,002106
0,529167	0,1	-0,049460
0,530833	0,1	-0,019941
0,532500	0,1	-0,015524
0,534167	0,1	0,032920
0,535833	0,1	0,001969
0,537500	0,1	-0,017712
0,539167	0,1	-0,026789
0,540833	0,1	-0,005521
0,542500	0,1	-0,032252
0,544167	0,1	-0,031640
0,545833	0,1	-0,005274
0,547500	0,1	0,033689
0,549167	0,1	-0,022822
0,550833	0,1	0,007197
0,552500	0,1	0,015383
0,554167	0,1	0,021226
0,555833	0,1	0,012239
0,557500	0,1	0,003291
0,559167	0,1	-0,022746
0,560833	0,1	-0,005520
0,562500	0,1	-0,020471
0,564167	0,1	0,028758
0,565833	0,1	0,026428
0,567500	0,1	-0,021168
0,569167	0,1	-0,041453
0,570833	0,1	0,016118
0,572500	0,1	0,022510
0,574167	0,1	-0,019323
0,575833	0,1	0,021633
0,577500	0,1	0,015511
0,579167	0,1	0,028102
0,580833	0,1	0,026179
0,582500	0,1	0,009569
0,584167	0,1	-0,012679
0,585833	0,1	0,030663
0,587500	0,1	0,008742
0,589167	0,1	0,018305
0,590833	0,1	0,006481
0,592500	0,1	0,003371
0,594167	0,1	-0,036870
0,595833	0,1	0,012597
0,597500	0,1	0,023878
0,599167	0,1	0,014352
0,600833	0,1	0,004015
0,602500	0,1	0,000408
0,604167	0,1	0,020849
0,605833	0,1	0,013792
0,607500	0,1	0,015633
0,609167	0,1	0,051963
0,610833	0,1	0,049715
0,612500	0,1	0,014587
0,614167	0,1	0,026693
0,615833	0,1	0,038047
0,617500	0,1	0,017732
0,619167	0,1	0,049913
0,620833	0,1	0,034884
0,622500	0,1	-0,015738
0,624167	0,1	0,054649
0,625833	0,1	0,018605
0,627500	0,1	0,041524
0,629167	0,1	0,001847
0,630833	0,1	0,041729
0,632500	0,1	0,032789
0,634167	0,1	0,052403
0,635833	0,1	0,031446
0,637500	0,1	0,022722
0,639167	0,1	0,030632
0,640833	0,1	0,085957
0,642500	0,1	0,024577
0,644167	0,1	0,019944
0,645833	0,1	0,019467
0,647500	0,1	0,085773
0,649167	0,1	0,061239
0,650833	0,1	0,055745
0,652500	0,1	0,071774
0,654167	0,1	0,075467
0,655833	0,1	0,068425
0,657500	0,1	0,057320
0,659167	0,1	0,083356
0,660833	0,1	0,050614
0,662500	0,1	0,049590
0,664167	0,1	0,053089
0,665833	0,1	0,052844
0,667500	0,1	0,085612
0,669167	0,1	0,080812
0,670833	0,1	0,036962
0,672500	0,1	0,084199
0,674167	0,1	0,095977
0,675833	0,1	0,078808
0,677500	0,1	0,071348
0,679167	0,1	0,083586
0,680833	0,1	0,080339
0,682500	0,1	0,086157
0,684167	0,1	0,076692
0,685833	0,1	0,110520
0,687500	0,1	0,094904
0,689167	0,1	0,084091
0,690833	0,1	0,089909
0,692500	0,1	0,111783
0,694167	0,1	0,125604
0,695833	0,1	0,136587
0,697500	0,1	0,128642
0,699167	0,1	0,095533
0,700833	0,1	0,141201
0,702500	0,1	0,147634
0,704167	0,1	0,087395
0,705833	0,1	0,126061
0,707500	0,1	0,120203
0,709167	0,1	0,105330
0,710833	0,1	0,100974
0,712500	0,1	0,131177
0,714167	0,1	0,146247
0,715833	0,1	0,160381
0,717500	0,1	0,148015
0,719167	0,1	0,161149
0,720833	0,1	0,173167
0,722500	0,1	0,142404
0,724167	0,1	0,155695
0,725833	0,1	0,192183
0,727500	0,1	0,177177
0,729167	0,1	0,183093
0,730833	0,1	0,226962
0,732500	0,1	0,177590
0,734167	0,1	0,185335
0,735833	0,1	0,175930
0,737500	0,1	0,169026
0,739167	0,1	0,191858
0,740833	0,1	0,195906
0,742500	0,1	0,167646
0,744167	0,1	0,187071
0,745833	0,1	0,162214
0,747500	0,1	0,192523
0,749167	0,1	0,180414
0,750833	0,1	0,196622
0,752500	0,1	0,182621
0,754167	0,1	0,186786
0,755833	0,1	0,188588
0,757500	0,1	0,173816
0,759167	0,1	0,173130
0,760833	0,1	0,204063
0,762500	0,1	0,225457
0,764167	0,1	0,194693
0,765833	0,1	0,218879
0,767500	0,1	0,171088
0,769167	0,1	0,206417
0,770833	0,1	0,193377
0,772500	0,1	0,199079
0,774167	0,1	0,188300
0,775833	0,1	0,191095
0,777500	0,1	0,181021
0,779167	0,1	0,189140
0,780833	0,1	0,206763
0,782500	0,1	0,240181
0,784167	0,1	0,144926
0,785833	0,1	0,154623
0,787500	0,1	0,168090
0,789167	0,1	0,220247
0,790833	0,1	0,185636
0,792500	0,1	0,215022
0,794167	0,1	0,239024
0,795833	0,1	0,179757
0,797500	0,1	0,161836
0,799167	0,1	0,174263
0,800833	0,1	0,207149
0,802500	0,1	0,177674
0,804167	0,1	0,194493
0,805833	0,1	0,209433
0,807500	0,1	0,185243
0,809167	0,1	0,154193
0,810833	0,1	0,226061
0,812500	0,1	0,173182
0,814167	0,1	0,193118
0,815833	0,1	0,187179
0,817500	0,1	0,197680
0,819167	0,1	0,200252
0,820833	0,1	0,171312
0,822500	0,1	0,202613
0,824167	0,1	0,195039
0,825833	0,1	0,190782
0,827500	0,1	0,195479
0,829167	0,1	0,193540
0,830833	0,1	0,162068
0,832500	0,1	0,171529
0,834167	0,1	0,216694
0,835833	0,1	0,221327
0,837500	0,1	0,187349
0,839167	0,1	0,202845
0,840833	0,1	0,168618
0,842500	0,1	0,203936
0,844167	0,1	0,198743
0,845833	0,1	0,182873
0,847500	0,1	0,211194
0,849167	0,1	0,182899
0,850833	0,1	0,188336
0,852500	0,1	0,182026
0,854167	0,1	0,202049
0,855833	0,1	0,178957
0,857500	0,1	0,183534
0,859167	0,1	0,195878
0,860833	0,1	0,181171
0,862500	0,1	0,234973
0,864167	0,1	0,197718
0,865833	0,1	0,178691
0,867500	0,1	0,208535
0,869167	0,1	0,211075
0,870833	0,1	0,195722
0,872500	0,1	0,183287
0,874167	0,1	0,173361
0,875833	0,1	0,191859
0,877500	0,1	0,163940
0,879167	0,1	0,219577
0,880833	0,1	0,176932
0,882500	0,1	0,216596
0,884167	0,1	0,185659
0,885833	0,1	0,215212
0,887500	0,1	0,155156
0,889167	0,1	0,231869
0,890833	0,1	0,219203
0,892500	0,1	0,195611
0,894167	0,1	0,278621
0,895833	0,1	0,201871
0,897500	0,1	0,238505
0,899167	0,1	0,226523
0,900833	0,1	0,230575
0,902500	0,1	0,211647
0,904167	0,1	0,226039
0,905833	0,1	0,239568
0,907500	0,1	0,212367
0,909167	0,1	0,228230
0,910833	0,1	0,221483
0,912500	0,1	0,232753
0,914167	0,1	0,201154
0,915833	0,1	0,214020
0,917500	0,1	0,214918
0,919167	0,1	0,261118
0,920833	0,1	0,250977
0,922500	0,1	0,218754
0,924167	0,1	0,248307
0,925833	0,1	0,227609
0,927500	0,1	0,247494
0,929167	0,1	0,270626
0,930833	0,1	0,243949
0,932500	0,1	0,236904
0,934167	0,1	0,308673
0,935833	0,1	0,263483
0,937500	0,1	0,239478
0,939167	0,1	0,258390
0,940833	0,1	0,301574
0,942500	0,1	0,266241
0,944167	0,1	0,247124
0,945833	0,1	0,243328
0,947500	0,1	0,271793
0,949167	0,1	0,257187
0,950833	0,1	0,312686
0,952500	0,1	0,258208
0,954167	0,1	0,285766
0,955833	0,1	0,295672
0,957500	0,1	0,267109
0,959167	0,1	0,274331
0,960833	0,1	0,335304
0,962500	0,1	0,272321
0,964167	0,1	0,313496
0,965833	0,1	0,297343
0,967500	0,1	0,344151
0,969167	0,1	0,312191
0,970833	0,1	0,353113
0,972500	0,1	0,295616
0,974167	0,1	0,338974
0,975833	0,1	0,331819
0,977500	0,1	0,312606
0,979167	0,1	0,351286
0,980833	0,1	0,326230
0,982500	0,1	0,351480
0,984167	0,1	0,352447
0,985833	0,1	0,339017
0,987500	0,1	0,363755
0,989167	0,1	0,336484
0,990833	0,1	0,343799
0,992500	0,1	0,369215
0,994167	0,1	0,371988
0,995833	0,1	0,344514
0,997500	0,1	0,390518
0,999167	0,1	0,391977
1,000833	0,1	0,365405
1,002500	0,1	0,412372
1,004167	0,1	0,418035
1,005833	0,1	0,419521
1,007500	0,1	0,422926
1,009167	0,1	0,425430
1,010833	0,1	0,427713
1,012500	0,1	0,441431
1,014167	0,1	0,464286
1,015833	0,1	0,503916
1,017500	0,1	0,510451
1,019167	0,1	0,498720
1,020833	0,1	0,484448
1,022500	0,1	0,557850
1,024167	0,1	0,524507
1,025833	0,1	0,554519
1,027500	0,1	0,556812
1,029167	0,1	0,547426
1,030833	0,1	0,597532
1,032500	0,1	0,555631
1,034167	0,1	0,571980
1,035833	0,1	0,624476
1,037500	0,1	0,622661
1,039167	0,1	0,684707
1,040833	0,1	0,657295
1,042500	0,1	0,648611
1,044167	0,1	0,629573
1,045833	0,1	0,668893
1,047500	0,1	0,721725
1,049167	0,1	0,703314
1,050833	0,1	0,723728
1,052500	0,1	0,783414
1,054167	0,1	0,805756
1,055833	0,1	0,846775
1,057500	0,1	0,938298
1,059167	0,1	1,019732
1,060833	0,1	1,178761
1,062500	0,1	1,305491
1,064167	0,1	1,550454
1,065833	0,1	1,826102
1,067500	0,1	2,187436
1,069167	0,1	2,666010
1,070833	0,1	3,285041
1,072500	0,1	3,943413
1,074167	0,1	4,826432
1,075833	0,1	5,864323
1,077500	0,1	7,033612
1,079167	0,1	8,485686
1,080833	0,1	10,074325
1,082500	0,1	11,871661
1,084167	0,1	13,893004
1,085833	0,1	16,106155
1,087500	0,1	18,513501
1,089167	0,1	21,029831
1,090833	0,1	23,679424
1,092500	0,1	26,408918
1,094167	0,1	29,242031
1,095833	0,1	32,004264
1,097500	0,1	34,791917
1,099167	0,1	37,459925
1,100833	0,1	40,026536
1,102500	0,1	42,455896
1,104167	0,1	44,660519
1,105833	0,1	46,694710
1,107500	0,1	48,521769
1,109167	0,1	50,045814
1,110833	0,1	51,306947
1,112500	0,1	52,403416
1,114167	0,1	53,168858
1,115833	0,1	53,762694
1,117500	0,1	54,112724
1,119167	0,1	54,169126
1,120833	0,1	54,122073
1,122500	0,1	53,940903
1,124167	0,1	53,519853
1,125833	0,1	53,021742
1,127500	0,1	52,396786
1,129167	0,1	51,673390
1,130833	0,1	50,903101
1,132500	0,1	50,033210
1,134167	0,1	49,168864
1,135833	0,1	48,306893
1,137500	0,1	47,356438
1,139167	0,1	46,503245
1,140833	0,1	45,619388
1,142500	0,1	44,826294
1,144167	0,1	44,052052
1,145833	0,1	43,340565
1,147500	0,1	42,714756
1,149167	0,1	42,095482
1,150833	0,1	41,637775
1,152500	0,1	41,260206
1,154167	0,1	40,949128
1,155833	0,1	40,689145
1,157500	0,1	40,522071
1,159167	0,1	40,489973
1,160833	0,1	40,464709
1,162500	0,1	40,496462
1,164167	0,1	40,556358
1,165833	0,1	40,684521
1,167500	0,1	40,839120
1,169167	0,1	41,013434
1,170833	0,1	41,231589
1,172500	0,1	41,395882
1,174167	0,1	41,596309
1,175833	0,1	41,738430
1,177500	0,1	41,894079
1,179167	0,1	42,055001
1,180833	0,1	42,135004
1,182500	0,1	42,233627
1,184167	0,1	42,290764
1,185833	0,1	42,317946
1,187500	0,1	42,348612
1,189167	0,1	42,391020
1,190833	0,1	42,395051
1,192500	0,1	42,471994
1,194167	0,1	42,532678
1,195833	0,1	42,672730
1,197500	0,1	42,910636
1,199167	0,1	43,235596
1,200833	0,1	43,676431
1,202500	0,1	44,208932
1,204167	0,1	44,944097
1,205833	0,1	45,888393
1,207500	0,1	47,025006
1,209167	0,1	48,334356
1,210833	0,1	49,880567
1,212500	0,1	51,701534
1,214167	0,1	53,741393
1,215833	0,1	56,027280
1,217500	0,1	58,543739
1,219167	0,1	61,301465
1,220833	0,1	64,208339
1,222500	0,1	67,263325
1,224167	0,1	70,456594
1,225833	0,1	73,736146
1,227500	0,1	77,163842
1,229167	0,1	80,514109
1,230833	0,1	83,860993
1,232500	0,1	87,200714
1,234167	0,1	90,443256
1,235833	0,1	93,517535
1,237500	0,1	96,473685
1,239167	0,1	99,230461
1,240833	0,1	101,844238
1,242500	0,1	104,156766
1,244167	0,1	106,245101
1,245833	0,1	108,118354
1,247500	0,1	109,769478
1,249167	0,1	111,139629
1,250833	0,1	112,270142
1,252500	0,1	113,070748
1,254167	0,1	113,718940
1,255833	0,1	114,013958
1,257500	0,1	114,129602
1,259167	0,1	113,922596
1,260833	0,1	113,571421
1,262500	0,1	112,937136
1,264167	0,1	112,144097
1,265833	0,1	111,079568
1,267500	0,1	109,784985
1,269167	0,1	108,410352
1,270833	0,1	106,838909
1,272500	0,1	105,086916
1,274167	0,1	103,219414
1,275833	0,1	101,231875
1,277500	0,1	99,111637
1,279167	0,1	96,914986
1,280833	0,1	94,656263
1,282500	0,1	92,336157
1,284167	0,1	89,925679
1,285833	0,1	87,537352
1,287500	0,1	85,078983
1,289167	0,1	82,642541
1,290833	0,1	80,275979
1,292500	0,1	77,798107
1,294167	0,1	75,456250
1,295833	0,1	73,115721
1,297500	0,1	70,815974
1,299167	0,1	68,588069
1,300833	0,1	66,457190
1,302500	0,1	64,348805
1,304167	0,1	62,322359
1,305833	0,1	60,361483
1,307500	0,1	58,448319
1,309167	0,1	56,628653
1,310833	0,1	54,885624
1,312500	0,1	53,237865
1,314167	0,1	51,640649
1,315833	0,1	50,086825
1,317500	0,1	48,603012
1,319167	0,1	47,238815
1,320833	0,1	45,940269
1,322500	0,1	44,668914
1,324167	0,1	43,434000
1,325833	0,1	42,244003
1,327500	0,1	41,134726
1,329167	0,1	40,043403
1,330833	0,1	39,043438
1,332500	0,1	38,041799
1,334167	0,1	37,133998
1,335833	0,1	36,173056
1,337500	0,1	35,305141
1,339167	0,1	34,437640
1,340833	0,1	33,624407
1,342500	0,1	32,817983
1,344167	0,1	32,099660
1,345833	0,1	31,331110
1,347500	0,1	30,599110
1,349167	0,1	29,908763
1,350833	0,1	29,252831
1,352500	0,1	28,597777
1,354167	0,1	27,934254
1,355833	0,1	27,267126
1,357500	0,1	26,684241
1,359167	0,1	26,043835
1,360833	0,1	25,482410
1,362500	0,1	24,901605
1,364167	0,1	24,350736
1,365833	0,1	23,780660
1,367500	0,1	23,263147
1,369167	0,1	22,764464
1,370833	0,1	22,255897
1,372500	0,1	21,738718
1,374167	0,1	21,314577
1,375833	0,1	20,804080
1,377500	0,1	20,341082
1,379167	0,1	19,918037
1,380833	0,1	19,470475
1,382500	0,1	18,973915
1,384167	0,1	18,608265
1,385833	0,1	18,201536
1,387500	0,1	17,860583
1,389167	0,1	17,460038
1,390833	0,1	17,071492
1,392500	0,1	16,691374
1,394167	0,1	16,359967
1,395833	0,1	16,064512
1,397500	0,1	15,666896
1,399167	0,1	15,387729
1,400833	0,1	15,050137
1,402500	0,1	14,784682
1,404167	0,1	14,509830
1,405833	0,1	14,265949
1,407500	0,1	13,985482
1,409167	0,1	13,700281
1,410833	0,1	13,497384
1,412500	0,1	13,290753
1,414167	0,1	12,968447
1,415833	0,1	12,805460
1,417500	0,1	12,582318
1,419167	0,1	12,348027
1,420833	0,1	12,156961
1,422500	0,1	11,987612
1,424167	0,1	11,811579
1,425833	0,1	11,623799
1,427500	0,1	11,439173
1,429167	0,1	11,292576
1,430833	0,1	11,122809
1,432500	0,1	10,952971
1,434167	0,1	10,767015
1,435833	0,1	10,617873
1,437500	0,1	10,507431
1,439167	0,1	10,346231
1,440833	0,1	10,150515
1,442500	0,1	10,057655
1,444167	0,1	9,934034
1,445833	0,1	9,821402
1,447500	0,1	9,628962
1,449167	0,1	9,532854
1,450833	0,1	9,383332
1,452500	0,1	9,263014
1,454167	0,1	9,207692
1,455833	0,1	8,970057
1,457500	0,1	8,958431
1,459167	0,1	8,791141
1,460833	0,1	8,695784
1,462500	0,1	8,627922
1,464167	0,1	8,524922
1,465833	0,1	8,411241
1,467500	0,1	8,366093
1,469167	0,1	8,231411
1,470833	0,1	8,161474
1,472500	0,1	8,113408
1,474167	0,1	8,010860
1,475833	0,1	7,916099
1,477500	0,1	7,872536
1,479167	0,1	7,821283
1,480833	0,1	7,780536
1,482500	0,1	7,731883
1,484167	0,1	7,689670
1,485833	0,1	7,631599
1,487500	0,1	7,635197
1,489167	0,1	7,565702
1,490833	0,1	7,553543
1,492500	0,1	7,512025
1,494167	0,1	7,516373
1,495833	0,1	7,460493
1,497500	0,1	7,468679
1,499167	0,1	7,410649
1,500833	0,1	7,393376
1,502500	0,1	7,379943
1,504167	0,1	7,387214
1,505833	0,1	7,425003
1,507500	0,1	7,347949
1,509167	0,1	7,383288
1,510833	0,1	7,319393
1,512500	0,1	7,339352
1,514167	0,1	7,337770
1,515833	0,1	7,320789
1,517500	0,1	7,282352
1,519167	0,1	7,368269
1,520833	0,1	7,308943
1,522500	0,1	7,304818
1,524167	0,1	7,287199
1,525833	0,1	7,259774
1,527500	0,1	7,274408
1,529167	0,1	7,247646
1,530833	0,1	7,252681
1,532500	0,1	7,211367
1,534167	0,1	7,165117
1,535833	0,1	7,178520
1,537500	0,1	7,171626
1,539167	0,1	7,131162
1,540833	0,1	7,126485
1,542500	0,1	7,054515
1,544167	0,1	7,051979
1,545833	0,1	7,044244
1,547500	0,1	7,005743
1,549167	0,1	6,970968
1,550833	0,1	6,990347
1,552500	0,1	6,902187
1,554167	0,1	6,922297
1,555833	0,1	6,908324
1,557500	0,1	6,819330
1,559167	0,1	6,795832
1,560833	0,1	6,714120
1,562500	0,1	6,764509
1,564167	0,1	6,672016
1,565833	0,1	6,679551
1,567500	0,1	6,632231
1,569167	0,1	6,590968
1,570833	0,1	6,563673
1,572500	0,1	6,526692
1,574167	0,1	6,543374
1,575833	0,1	6,452681
1,577500	0,1	6,404911
1,579167	0,1	6,424165
1,580833	0,1	6,362464
1,582500	0,1	6,335829
1,584167	0,1	6,293770
1,585833	0,1	6,280451
1,587500	0,1	6,224613
1,589167	0,1	6,198562
1,590833	0,1	6,161054
1,592500	0,1	6,085677
1,594167	0,1	6,090231
1,595833	0,1	6,052560
1,597500	0,1	6,015176
1,599167	0,1	5,976022
1,600833	0,1	5,958245
1,602500	0,1	5,946821
1,604167	0,1	5,901157
1,605833	0,1	5,871490
1,607500	0,1	5,807522
1,609167	0,1	5,824264
1,610833	0,1	5,749060
1,612500	0,1	5,702728
1,614167	0,1	5,657271
1,615833	0,1	5,625040
1,617500	0,1	5,627245
1,619167	0,1	5,575371
1,620833	0,1	5,553853
1,622500	0,1	5,509131
1,624167	0,1	5,461787
1,625833	0,1	5,484749
1,627500	0,1	5,429645
1,629167	0,1	5,416260
1,630833	0,1	5,357473
1,632500	0,1	5,375659
1,634167	0,1	5,317226
1,635833	0,1	5,308934
1,637500	0,1	5,318928
1,639167	0,1	5,229198
1,640833	0,1	5,208127
1,642500	0,1	5,200946
1,644167	0,1	5,181565
1,645833	0,1	5,171474
1,647500	0,1	5,111504
1,649167	0,1	5,147275
1,650833	0,1	5,107319
1,652500	0,1	5,094882
1,654167	0,1	5,092535
1,655833	0,1	5,099087
1,657500	0,1	5,031759
1,659167	0,1	5,061340
1,660833	0,1	5,030312
1,662500	0,1	5,094495
1,664167	0,1	5,049944
1,665833	0,1	5,047139
1,667500	0,1	5,073939
1,669167	0,1	5,061012
1,670833	0,1	5,083459
1,672500	0,1	5,056071
1,674167	0,1	5,141979
1,675833	0,1	5,171746
1,677500	0,1	5,186441
1,679167	0,1	5,217921
1,680833	0,1	5,286299
1,682500	0,1	5,283743
1,684167	0,1	5,392456
1,685833	0,1	5,456323
1,687500	0,1	5,500245
1,689167	0,1	5,514170
1,690833	0,1	5,658159
1,692500	0,1	5,736291
1,694167	0,1	5,821908
1,695833	0,1	5,848309
1,697500	0,1	5,940848
1,699167	0,1	6,052435
1,700833	0,1	6,177323
1,702500	0,1	6,234650
1,704167	0,1	6,369675
1,705833	0,1	6,424908
1,707500	0,1	6,588780
1,709167	0,1	6,642731
1,710833	0,1	6,779676
1,712500	0,1	6,927206
1,714167	0,1	7,002452
1,715833	0,1	7,106786
1,717500	0,1	7,200987
1,719167	0,1	7,315712
1,720833	0,1	7,374435
1,722500	0,1	7,541355
1,724167	0,1	7,587499
1,725833	0,1	7,665275
1,727500	0,1	7,770417
1,729167	0,1	7,846183
1,730833	0,1	7,966964
1,732500	0,1	8,045078
1,734167	0,1	8,122312
1,735833	0,1	8,163867
1,737500	0,1	8,246569
1,739167	0,1	8,295468
1,740833	0,1	8,357493
1,742500	0,1	8,379940
1,744167	0,1	8,399723
1,745833	0,1	8,419920
1,747500	0,1	8,448349
1,749167	0,1	8,486759
1,750833	0,1	8,488678
1,752500	0,1	8,452538
1,754167	0,1	8,430506
1,755833	0,1	8,496651
1,757500	0,1	8,473878
1,759167	0,1	8,437768
1,760833	0,1	8,442341
1,762500	0,1	8,327820
1,764167	0,1	8,334734
1,765833	0,1	8,287221
1,767500	0,1	8,298036
1,769167	0,1	8,235835
1,770833	0,1	8,182034
1,772500	0,1	8,098682
1,774167	0,1	8,101162
1,775833	0,1	7,982261
1,777500	0,1	7,940646
1,779167	0,1	7,857979
1,780833	0,1	7,771747
1,782500	0,1	7,710582
1,784167	0,1	7,662134
1,785833	0,1	7,588259
1,787500	0,1	7,463770
1,789167	0,1	7,436009
1,790833	0,1	7,295532
1,792500	0,1	7,263505
1,794167	0,1	7,103961
1,795833	0,1	7,040154
1,797500	0,1	6,982347
1,799167	0,1	6,864355
1,800833	0,1	6,801716
1,802500	0,1	6,719816
1,804167	0,1	6,601506
1,805833	0,1	6,549252
1,807500	0,1	6,475330
1,809167	0,1	6,336327
1,810833	0,1	6,269850
1,812500	0,1	6,174375
1,814167	0,1	6,036645
1,815833	0,1	6,039539
1,817500	0,1	5,913616
1,819167	0,1	5,838026
1,820833	0,1	5,748149
1,822500	0,1	5,695698
1,824167	0,1	5,587502
1,825833	0,1	5,513454
1,827500	0,1	5,405990
1,829167	0,1	5,358207
1,830833	0,1	5,276413
1,832500	0,1	5,247373
1,834167	0,1	5,144598
1,835833	0,1	5,054476
1,837500	0,1	5,030648
1,839167	0,1	4,959629
1,840833	0,1	4,921888
1,842500	0,1	4,928213
1,844167	0,1	4,877392
1,845833	0,1	4,838740
1,847500	0,1	4,776746
1,849167	0,1	4,832508
1,850833	0,1	4,800382
1,852500	0,1	4,784425
1,854167	0,1	4,783706
1,855833	0,1	4,811505
1,857500	0,1	4,835832
1,859167	0,1	4,858993
1,860833	0,1	4,953546
1,862500	0,1	4,950771
1,864167	0,1	4,949869
1,865833	0,1	4,957288
1,867500	0,1	4,979286
1,869167	0,1	5,025434
1,870833	0,1	5,039000
1,872500	0,1	5,085714
1,874167	0,1	5,079088
1,875833	0,1	5,150489
1,877500	0,1	5,177453
1,879167	0,1	5,220111
1,880833	0,1	5,197157
1,882500	0,1	5,245688
1,884167	0,1	5,252882
1,885833	0,1	5,240613
1,887500	0,1	5,272571
1,889167	0,1	5,333070
1,890833	0,1	5,294187
1,892500	0,1	5,347631
1,894167	0,1	5,319697
1,895833	0,1	5,332665
1,897500	0,1	5,400549
1,899167	0,1	5,410427
1,900833	0,1	5,415325
1,902500	0,1	5,427441
1,904167	0,1	5,420724
1,905833	0,1	5,456980
1,907500	0,1	5,479114
1,909167	0,1	5,432416
1,910833	0,1	5,483030
1,912500	0,1	5,475306
1,914167	0,1	5,505494
1,915833	0,1	5,501903
1,917500	0,1	5,507602
1,919167	0,1	5,492649
1,920833	0,1	5,477452
1,922500	0,1	5,520297
1,924167	0,1	5,499154
1,925833	0,1	5,526351
1,927500	0,1	5,491246
1,929167	0,1	5,449689
1,930833	0,1	5,466130
1,932500	0,1	5,461040
1,934167	0,1	5,456661
1,935833	0,1	5,427993
1,937500	0,1	5,434401
1,939167	0,1	5,396651
1,940833	0,1	5,412463
1,942500	0,1	5,389565
1,944167	0,1	5,413392
1,945833	0,1	5,368239
1,947500	0,1	5,333044
1,949167	0,1	5,345213
1,950833	0,1	5,314730
1,952500	0,1	5,316073
1,954167	0,1	5,295362
1,955833	0,1	5,286882
1,957500	0,1	5,232208
1,959167	0,1	5,281547
1,960833	0,1	5,240962
1,962500	0,1	5,211602
1,964167	0,1	5,242391
1,965833	0,1	5,234515
1,967500	0,1	5,206033
1,969167	0,1	5,209132
1,970833	0,1	5,190547
1,972500	0,1	5,204638
1,974167	0,1	5,215833
1,975833	0,1	5,187076
1,977500	0,1	5,136194
1,979167	0,1	5,181774
1,980833	0,1	5,216051
1,982500	0,1	5,156060
1,984167	0,1	5,176549
1,985833	0,1	5,210174
1,987500	0,1	5,194076
1,989167	0,1	5,190376
1,990833	0,1	5,200431
1,992500	0,1	5,167186
1,994167	0,1	5,171187
1,995833	0,1	5,178644
1,997500	0,1	5,208278
1,999167	0,1	5,171395
2,000833	0,1	5,230652
2,002500	0,1	5,241148
2,004167	0,1	5,241517
2,005833	0,1	5,261490
2,007500	0,1	5,235392
2,009167	0,1	5,279649
2,010833	0,1	5,247938
2,012500	0,1	5,271274
2,014167	0,1	5,283825
2,015833	0,1	5,315082
2,017500	0,1	5,334159
2,019167	0,1	5,346083
2,020833	0,1	5,362092
2,022500	0,1	5,366866
2,024167	0,1	5,383140
2,025833	0,1	5,388469
2,027500	0,1	5,389490
2,029167	0,1	5,432182
2,030833	0,1	5,444153
2,032500	0,1	5,450633
2,034167	0,1	5,510104
2,035833	0,1	5,493213
2,037500	0,1	5,520604
2,039167	0,1	5,551172
2,040833	0,1	5,606867
2,042500	0,1	5,602374
2,044167	0,1	5,636473
2,045833	0,1	5,624687
2,047500	0,1	5,681816
2,049167	0,1	5,687401
2,050833	0,1	5,679355
2,052500	0,1	5,683741
2,054167	0,1	5,750997
2,055833	0,1	5,768842
2,057500	0,1	5,799250
2,059167	0,1	5,812094
2,060833	0,1	5,818198
2,062500	0,1	5,842906
2,064167	0,1	5,857972
2,065833	0,1	5,876300
2,067500	0,1	5,873068
2,069167	0,1	5,900648
2,070833	0,1	5,970402
2,072500	0,1	5,968569
2,074167	0,1	5,972030
2,075833	0,1	6,027656
2,077500	0,1	5,994915
2,079167	0,1	6,058129
2,080833	0,1	6,060199
2,082500	0,1	6,083241
2,084167	0,1	6,095567
2,085833	0,1	6,064012
2,087500	0,1	6,129140
2,089167	0,1	6,142547
2,090833	0,1	6,148464
2,092500	0,1	6,188237
2,094167	0,1	6,176143
2,095833	0,1	6,181426
2,097500	0,1	6,193239
2,099167	0,1	6,198475
2,100833	0,1	6,240427
2,102500	0,1	6,218575
2,104167	0,1	6,221275
2,105833	0,1	6,246756
2,107500	0,1	6,272914
2,109167	0,1	6,277840
2,110833	0,1	6,293003
2,112500	0,1	6,268456
2,114167	0,1	6,310169
2,115833	0,1	6,301319
2,117500	0,1	6,312492
2,119167	0,1	6,297292
2,120833	0,1	6,338257
2,122500	0,1	6,290052
2,124167	0,1	6,314714
2,125833	0,1	6,339463
2,127500	0,1	6,306779
2,129167	0,1	6,329129
2,130833	0,1	6,308649
2,132500	0,1	6,332197
2,134167	0,1	6,300464
2,135833	0,1	6,285934
2,137500	0,1	6,282043
2,139167	0,1	6,277092
2,140833	0,1	6,297013
2,142500	0,1	6,292729
2,144167	0,1	6,274768
2,145833	0,1	6,285117
2,147500	0,1	6,256349
2,149167	0,1	6,263798
2,150833	0,1	6,299255
2,152500	0,1	6,232096
2,154167	0,1	6,256999
2,155833	0,1	6,220700
2,157500	0,1	6,216963
2,159167	0,1	6,228798
2,160833	0,1	6,182641
2,162500	0,1	6,197911
2,164167	0,1	6,192615
2,165833	0,1	6,190929
2,167500	0,1	6,162341
2,169167	0,1	6,169342
2,170833	0,1	6,116780
2,172500	0,1	6,151942
2,174167	0,1	6,112218
2,175833	0,1	6,124211
2,177500	0,1	6,087443
2,179167	0,1	6,100215
2,180833	0,1	6,124245
2,182500	0,1	6,072495
2,184167	0,1	6,082605
2,185833	0,1	6,049419
2,187500	0,1	6,051070
2,189167	0,1	6,036570
2,190833	0,1	6,025144
2,192500	0,1	6,003748
2,194167	0,1	6,018344
2,195833	0,1	5,951480
2,197500	0,1	5,960947
2,199167	0,1	5,965786
2,200833	0,1	5,938153
2,202500	0,1	5,945072
2,204167	0,1	5,923861
2,205833	0,1	5,971014
2,207500	0,1	5,889375
2,209167	0,1	5,915493
2,210833	0,1	5,873799
2,212500	0,1	5,862583
2,214167	0,1	5,873363
2,215833	0,1	5,841270
2,217500	0,1	5,854067
2,219167	0,1	5,879692
2,220833	0,1	5,844276
2,222500	0,1	5,860149
2,224167	0,1	5,817279
2,225833	0,1	5,828981
2,227500	0,1	5,807704
2,229167	0,1	5,839142
2,230833	0,1	5,862277
2,232500	0,1	5,856073
2,234167	0,1	5,850215
2,235833	0,1	5,829656
2,237500	0,1	5,843966
2,239167	0,1	5,828230
2,240833	0,1	5,850315
2,242500	0,1	5,829640
2,244167	0,1	5,827981
2,245833	0,1	5,814282
2,247500	0,1	5,841852
2,249167	0,1	5,792443
2,250833	0,1	5,834411
2,252500	0,1	5,800583
2,254167	0,1	5,835783
2,255833	0,1	5,841507
2,257500	0,1	5,798774
2,259167	0,1	5,829257
2,260833	0,1	5,839533
2,262500	0,1	5,838763
2,264167	0,1	5,812807
2,265833	0,1	5,857959
2,267500	0,1	5,816644
2,269167	0,1	5,797203
2,270833	0,1	5,806361
2,272500	0,1	5,787528
2,274167	0,1	5,770978
2,275833	0,1	5,773083
2,277500	0,1	5,748555
2,279167	0,1	5,746071
2,280833	0,1	5,743519
2,282500	0,1	5,741409
2,284167	0,1	5,696134
2,285833	0,1	5,721230
2,287500	0,1	5,707383
2,289167	0,1	5,733806
2,290833	0,1	5,682345
2,292500	0,1	5,680983
2,294167	0,1	5,711644
2,295833	0,1	5,687866
2,297500	0,1	5,665072
2,299167	0,1	5,658147
2,300833	0,1	5,655980
2,302500	0,1	5,591523
2,304167	0,1	5,628083
2,305833	0,1	5,617920
2,307500	0,1	5,591688
2,309167	0,1	5,535930
2,310833	0,1	5,566155
2,312500	0,1	5,534103
2,314167	0,1	5,535526
2,315833	0,1	5,541965
2,317500	0,1	5,464828
2,319167	0,1	5,485272
2,320833	0,1	5,446178
2,322500	0,1	5,468578
2,324167	0,1	5,454823
2,325833	0,1	5,418805
2,327500	0,1	5,376567
2,329167	0,1	5,394257
2,330833	0,1	5,387024
2,332500	0,1	5,358594
2,334167	0,1	5,334060
2,335833	0,1	5,321877
2,337500	0,1	5,298244
2,339167	0,1	5,276118
2,340833	0,1	5,282670
2,342500	0,1	5,255121
2,344167	0,1	5,277373
2,345833	0,1	5,255770
2,347500	0,1	5,212032
2,349167	0,1	5,257105
2,350833	0,1	5,176435
2,352500	0,1	5,192349
2,354167	0,1	5,171162
2,355833	0,1	5,149748
2,357500	0,1	5,141186
2,359167	0,1	5,133048
2,360833	0,1	5,128359
2,362500	0,1	5,116550
2,364167	0,1	5,115218
2,365833	0,1	5,077542
2,367500	0,1	5,072140
2,369167	0,1	5,043416
2,370833	0,1	5,069080
2,372500	0,1	5,042962
2,374167	0,1	5,099499
2,375833	0,1	5,054381
2,377500	0,1	5,064227
2,379167	0,1	5,116251
2,380833	0,1	5,087682
2,382500	0,1	5,113631
2,384167	0,1	5,126970
2,385833	0,1	5,123610
2,387500	0,1	5,163690
2,389167	0,1	5,189432
2,390833	0,1	5,184950
2,392500	0,1	5,242522
2,394167	0,1	5,312351
2,395833	0,1	5,322179
2,397500	0,1	5,372965
2,399167	0,1	5,450748
2,400833	0,1	5,488063
2,402500	0,1	5,626602
2,404167	0,1	5,659505
2,405833	0,1	5,785209
2,407500	0,1	5,856921
2,409167	0,1	5,967625
2,410833	0,1	6,101667
2,412500	0,1	6,195263
2,414167	0,1	6,317737
2,415833	0,1	6,468842
2,417500	0,1	6,606859
2,419167	0,1	6,793275
2,420833	0,1	6,944169
2,422500	0,1	7,144244
2,424167	0,1	7,325966
2,425833	0,1	7,456060
2,427500	0,1	7,698453
2,429167	0,1	7,912673
2,430833	0,1	8,098043
2,432500	0,1	8,321035
2,434167	0,1	8,505128
2,435833	0,1	8,790850
2,437500	0,1	8,977557
2,439167	0,1	9,223498
2,440833	0,1	9,439681
2,442500	0,1	9,702921
2,444167	0,1	9,947299
2,445833	0,1	10,136031
2,447500	0,1	10,365158
2,449167	0,1	10,630003
2,450833	0,1	10,855783
2,452500	0,1	11,084166
2,454167	0,1	11,296285
2,455833	0,1	11,508380
2,457500	0,1	11,712917
2,459167	0,1	11,881533
2,460833	0,1	12,050522
2,462500	0,1	12,298356
2,464167	0,1	12,400688
2,465833	0,1	12,659314
2,467500	0,1	12,815583
2,469167	0,1	12,987963
2,470833	0,1	13,096839
2,472500	0,1	13,273811
2,474167	0,1	13,431843
2,475833	0,1	13,560556
2,477500	0,1	13,656865
2,479167	0,1	13,821741
2,480833	0,1	13,904472
2,482500	0,1	14,069608
2,484167	0,1	14,152676
2,485833	0,1	14,281267
2,487500	0,1	14,376014
2,489167	0,1	14,515451
2,490833	0,1	14,653191
2,492500	0,1	14,755094
2,494167	0,1	14,868206
2,495833	0,1	15,026657
2,497500	0,1	15,128359
2,499167	0,1	15,259263
2,500833	0,1	15,453371
2,502500	0,1	15,580898
2,504167	0,1	15,719498
2,505833	0,1	15,894240
2,507500	0,1	16,072258
2,509167	0,1	16,223416
2,510833	0,1	16,430241
2,512500	0,1	16,599444
2,514167	0,1	16,839536
2,515833	0,1	17,058557
2,517500	0,1	17,334987
2,519167	0,1	17,544905
2,520833	0,1	17,802943
2,522500	0,1	18,103937
2,524167	0,1	18,335047
2,525833	0,1	18,681205
2,527500	0,1	18,938713
2,529167	0,1	19,269483
2,530833	0,1	19,607536
2,532500	0,1	19,919162
2,534167	0,1	20,318779
2,535833	0,1	20,685945
2,537500	0,1	21,044132
2,539167	0,1	21,399698
2,540833	0,1	21,756737
2,542500	0,1	22,154160
2,544167	0,1	22,537722
2,545833	0,1	22,956285
2,547500	0,1	23,306712
2,549167	0,1	23,720311
2,550833	0,1	24,150928
2,552500	0,1	24,486970
2,554167	0,1	24,945415
2,555833	0,1	25,274172
2,557500	0,1	25,721661
2,559167	0,1	26,056472
2,560833	0,1	26,425402
2,562500	0,1	26,808424
2,564167	0,1	27,178554
2,565833	0,1	27,479482
2,567500	0,1	27,838014
2,569167	0,1	28,161169
2,570833	0,1	28,431882
2,572500	0,1	28,752435
2,574167	0,1	28,992258
2,575833	0,1	29,276695
2,577500	0,1	29,554363
2,579167	0,1	29,788101
2,580833	0,1	29,997970
2,582500	0,1	30,180446
2,584167	0,1	30,338318
2,585833	0,1	30,539875
2,587500	0,1	30,698415
2,589167	0,1	30,804621
2,590833	0,1	30,892031
2,592500	0,1	31,012641
2,594167	0,1	31,084699
2,595833	0,1	31,185380
2,597500	0,1	31,238691
2,599167	0,1	31,267423
2,600833	0,1	31,273374
2,602500	0,1	31,232636
2,604167	0,1	31,255633
2,605833	0,1	31,241527
2,607500	0,1	31,227314
2,609167	0,1	31,168750
2,610833	0,1	31,137379
2,612500	0,1	31,015638
2,614167	0,1	30,899567
2,615833	0,1	30,781151
2,617500	0,1	30,740991
2,619167	0,1	30,551599
2,620833	0,1	30,393605
2,622500	0,1	30,235716
2,624167	0,1	30,103498
2,625833	0,1	29,915836
2,627500	0,1	29,738824
2,629167	0,1	29,551582
2,630833	0,1	29,360872
2,632500	0,1	29,126355
2,634167	0,1	28,913077
2,635833	0,1	28,648862
2,637500	0,1	28,490046
2,639167	0,1	28,207606
2,640833	0,1	27,954321
2,642500	0,1	27,672589
2,644167	0,1	27,438995
2,645833	0,1	27,149504
2,647500	0,1	26,850177
2,649167	0,1	26,604206
2,650833	0,1	26,301762
2,652500	0,1	26,001103
2,654167	0,1	25,699895
2,655833	0,1	25,418638
2,657500	0,1	25,047341
2,659167	0,1	24,766568
2,660833	0,1	24,484338
2,662500	0,1	24,176997
2,664167	0,1	23,824614
2,665833	0,1	23,530369
2,667500	0,1	23,185024
2,669167	0,1	22,880227
2,670833	0,1	22,578871
2,672500	0,1	22,236954
2,674167	0,1	21,916523
2,675833	0,1	21,566517
2,677500	0,1	21,277769
2,679167	0,1	20,930514
2,680833	0,1	20,616538
2,682500	0,1	20,311701
2,684167	0,1	19,971105
2,685833	0,1	19,684885
2,687500	0,1	19,365386
2,689167	0,1	19,057744
2,690833	0,1	18,755892
2,692500	0,1	18,411152
2,694167	0,1	18,095694
2,695833	0,1	17,782340
2,697500	0,1	17,547892
2,699167	0,1	17,227807
2,700833	0,1	16,917517
2,702500	0,1	16,668508
2,704167	0,1	16,364357
2,705833	0,1	16,140061
2,707500	0,1	15,798590
2,709167	0,1	15,570334
2,710833	0,1	15,290754
2,712500	0,1	15,011872
2,714167	0,1	14,768743
2,715833	0,1	14,529756
2,717500	0,1	14,274881
2,719167	0,1	14,051898
2,720833	0,1	13,801705
2,722500	0,1	13,544455
2,724167	0,1	13,339945
2,725833	0,1	13,137585
2,727500	0,1	12,924032
2,729167	0,1	12,736934
2,730833	0,1	12,504239
2,732500	0,1	12,312253
2,734167	0,1	12,125686
2,735833	0,1	11,887852
2,737500	0,1	11,730071
2,739167	0,1	11,525876
2,740833	0,1	11,355925
2,742500	0,1	11,214088
2,744167	0,1	11,029754
2,745833	0,1	10,883257
2,747500	0,1	10,747034
2,749167	0,1	10,576259
2,750833	0,1	10,436784
2,752500	0,1	10,265081
2,754167	0,1	10,093442
2,755833	0,1	10,005111
2,757500	0,1	9,823663
2,759167	0,1	9,733726
2,760833	0,1	9,580410
2,762500	0,1	9,462382
2,764167	0,1	9,315402
2,765833	0,1	9,221819
2,767500	0,1	9,049981
2,769167	0,1	8,912606
2,770833	0,1	8,832804
2,772500	0,1	8,680904
2,774167	0,1	8,571801
2,775833	0,1	8,465485
2,777500	0,1	8,406124
2,779167	0,1	8,271038
2,780833	0,1	8,177184
2,782500	0,1	8,076031
2,784167	0,1	7,954956
2,785833	0,1	7,831457
2,787500	0,1	7,775576
2,789167	0,1	7,676954
2,790833	0,1	7,568394
2,792500	0,1	7,486713
2,794167	0,1	7,391803
2,795833	0,1	7,301593
2,797500	0,1	7,162700
2,799167	0,1	7,122671
2,800833	0,1	7,021330
2,802500	0,1	6,943294
2,804167	0,1	6,840028
2,805833	0,1	6,786528
2,807500	0,1	6,709304
2,809167	0,1	6,628072
2,810833	0,1	6,548612
2,812500	0,1	6,418073
2,814167	0,1	6,352897
2,815833	0,1	6,308585
2,817500	0,1	6,226484
2,819167	0,1	6,144985
2,820833	0,1	6,106103
2,822500	0,1	5,982448
2,824167	0,1	5,919403
2,825833	0,1	5,889716
2,827500	0,1	5,801793
2,829167	0,1	5,714576
2,830833	0,1	5,691612
2,832500	0,1	5,546165
2,834167	0,1	5,498706
2,835833	0,1	5,462526
2,837500	0,1	5,390658
2,839167	0,1	5,327275
2,840833	0,1	5,239051
2,842500	0,1	5,194282
2,844167	0,1	5,167318
2,845833	0,1	5,059227
2,847500	0,1	5,032429
2,849167	0,1	4,971150
2,850833	0,1	4,912464
2,852500	0,1	4,844926
2,854167	0,1	4,801730
2,855833	0,1	4,743918
2,857500	0,1	4,702964
2,859167	0,1	4,644632
2,860833	0,1	4,645750
2,862500	0,1	4,529210
2,864167	0,1	4,474491
2,865833	0,1	4,431990
2,867500	0,1	4,373693
2,869167	0,1	4,348670
2,870833	0,1	4,263198
2,872500	0,1	4,254263
2,874167	0,1	4,203370
2,875833	0,1	4,132458
2,877500	0,1	4,093800
2,879167	0,1	4,079173
2,880833	0,1	4,031254
2,882500	0,1	4,004836
2,884167	0,1	3,965476
2,885833	0,1	3,888316
2,887500	0,1	3,879162
2,889167	0,1	3,818101
2,890833	0,1	3,775105
2,892500	0,1	3,762429
2,894167	0,1	3,698347
2,895833	0,1	3,650732
2,897500	0,1	3,650194
2,899167	0,1	3,658198
2,900833	0,1	3,596728
2,902500	0,1	3,541770
2,904167	0,1	3,511542
2,905833	0,1	3,489763
2,907500	0,1	3,448393
2,909167	0,1	3,389830
2,910833	0,1	3,425952
2,912500	0,1	3,383800
2,914167	0,1	3,305321
2,915833	0,1	3,277619
2,917500	0,1	3,309440
2,919167	0,1	3,238545
2,920833	0,1	3,218114
2,922500	0,1	3,227374
2,924167	0,1	3,163784
2,925833	0,1	3,154431
2,927500	0,1	3,050153
2,929167	0,1	3,114386
2,930833	0,1	3,058356
2,932500	0,1	3,047789
2,934167	0,1	2,990036
2,935833	0,1	2,984341
2,937500	0,1	2,982174
2,939167	0,1	2,955821
2,940833	0,1	2,938783
2,942500	0,1	2,901638
2,944167	0,1	2,912329
2,945833	0,1	2,868249
2,947500	0,1	2,843196
2,949167	0,1	2,821790
2,950833	0,1	2,812156
2,952500	0,1	2,767156
2,954167	0,1	2,777325
2,955833	0,1	2,790026
2,957500	0,1	2,735058
2,959167	0,1	2,740202
2,960833	0,1	2,707838
2,962500	0,1	2,678759
2,964167	0,1	2,702284
2,965833	0,1	2,658648
2,967500	0,1	2,696030
2,969167	0,1	2,618167
2,970833	0,1	2,608835
2,972500	0,1	2,614629
2,974167	0,1	2,567073
2,975833	0,1	2,593814
2,977500	0,1	2,559532
2,979167	0,1	2,567176
2,980833	0,1	2,534052
2,982500	0,1	2,536759
2,984167	0,1	2,532812
2,985833	0,1	2,528711
2,987500	0,1	2,471546
2,989167	0,1	2,533369
2,990833	0,1	2,481452
2,992500	0,1	2,484442
2,994167	0,1	2,474899
2,995833	0,1	2,456672
2,997500	0,1	2,465211
2,999167	0,1	2,438519
3,000833	0,1	2,427468
3,002500	0,1	2,371451
3,004167	0,1	2,419201
3,005833	0,1	2,419649
3,007500	0,1	2,404801
3,009167	0,1	2,373019
3,010833	0,1	2,383762
3,012500	0,1	2,346048
3,014167	0,1	2,333408
3,015833	0,1	2,331690
3,017500	0,1	2,345885
3,019167	0,1	2,330615
3,020833	0,1	2,332258
3,022500	0,1	2,302283
3,024167	0,1	2,330102
3,025833	0,1	2,327456
3,027500	0,1	2,275031
3,029167	0,1	2,266347
3,030833	0,1	2,294807
3,032500	0,1	2,276318
3,034167	0,1	2,247056
3,035833	0,1	2,270209
3,037500	0,1	2,273154
3,039167	0,1	2,231708
3,040833	0,1	2,216498
3,042500	0,1	2,180217
3,044167	0,1	2,195551
3,045833	0,1	2,230471
3,047500	0,1	2,200080
3,049167	0,1	2,203729
3,050833	0,1	2,218356
3,052500	0,1	2,174337
3,054167	0,1	2,177196
3,055833	0,1	2,162069
3,057500	0,1	2,133534
3,059167	0,1	2,138041
3,060833	0,1	2,165858
3,062500	0,1	2,167659
3,064167	0,1	2,135542
3,065833	0,1	2,182060
3,067500	0,1	2,131172
3,069167	0,1	2,118616
3,070833	0,1	2,081620
3,072500	0,1	2,155378
3,074167	0,1	2,091954
3,075833	0,1	2,080113
3,077500	0,1	2,073727
3,079167	0,1	2,116307
3,080833	0,1	2,110582
3,082500	0,1	2,093739
3,084167	0,1	2,066785
3,085833	0,1	2,128063
3,087500	0,1	2,064639
3,089167	0,1	2,032584
3,090833	0,1	2,045407
3,092500	0,1	2,067200
3,094167	0,1	2,057525
3,095833	0,1	2,085191
3,097500	0,1	2,066422
3,099167	0,1	2,079964
3,100833	0,1	2,084052
3,102500	0,1	2,074951
3,104167	0,1	2,075736
3,105833	0,1	2,097741
3,107500	0,1	2,065060
3,109167	0,1	2,089355
3,110833	0,1	2,109645
3,112500	0,1	2,103699
3,114167	0,1	2,113734
3,115833	0,1	2,110655
3,117500	0,1	2,122482
3,119167	0,1	2,137968
3,120833	0,1	2,118401
3,122500	0,1	2,119113
3,124167	0,1	2,149079
3,125833	0,1	2,138620
3,127500	0,1	2,180413
3,129167	0,1	2,185871
3,130833	0,1	2,176912
3,132500	0,1	2,166656
3,134167	0,1	2,251829
3,135833	0,1	2,191697
3,137500	0,1	2,213979
3,139167	0,1	2,189034
3,140833	0,1	2,225021
3,142500	0,1	2,285978
3,144167	0,1	2,241394
3,145833	0,1	2,287990
3,147500	0,1	2,284129
3,149167	0,1	2,264984
3,150833	0,1	2,331669
3,152500	0,1	2,274030
3,154167	0,1	2,352259
3,155833	0,1	2,365615
3,157500	0,1	2,324026
3,159167	0,1	2,342226
3,160833	0,1	2,327608
3,162500	0,1	2,405627
3,164167	0,1	2,393026
3,165833	0,1	2,382054
3,167500	0,1	2,399548
3,169167	0,1	2,412597
3,170833	0,1	2,444171
3,172500	0,1	2,440017
3,174167	0,1	2,422167
3,175833	0,1	2,431698
3,177500	0,1	2,417564
3,179167	0,1	2,448623
3,180833	0,1	2,487658
3,182500	0,1	2,432005
3,184167	0,1	2,431121
3,185833	0,1	2,486355
3,187500	0,1	2,442610
3,189167	0,1	2,436941
3,190833	0,1	2,474022
3,192500	0,1	2,475973
3,194167	0,1	2,489967
3,195833	0,1	2,480143
3,197500	0,1	2,422392
3,199167	0,1	2,455226
3,200833	0,1	2,450356
3,202500	0,1	2,458384
3,204167	0,1	2,451638
3,205833	0,1	2,409255
3,207500	0,1	2,444174
3,209167	0,1	2,413636
3,210833	0,1	2,395546
3,212500	0,1	2,423517
3,214167	0,1	2,393321
3,215833	0,1	2,393878
3,217500	0,1	2,422361
3,219167	0,1	2,354516
3,220833	0,1	2,380748
3,222500	0,1	2,349843
3,224167	0,1	2,389217
3,225833	0,1	2,340880
3,227500	0,1	2,341303
3,229167	0,1	2,321432
3,230833	0,1	2,298697
3,232500	0,1	2,307944
3,234167	0,1	2,287289
3,235833	0,1	2,289653
3,237500	0,1	2,281119
3,239167	0,1	2,240747
3,240833	0,1	2,265975
3,242500	0,1	2,231634
3,244167	0,1	2,241519
3,245833	0,1	2,178573
3,247500	0,1	2,181139
3,249167	0,1	2,202721
3,250833	0,1	2,197347
3,252500	0,1	2,143220
3,254167	0,1	2,131093
3,255833	0,1	2,119475
3,257500	0,1	2,131518
3,259167	0,1	2,110948
3,260833	0,1	2,076389
3,262500	0,1	2,066705
3,264167	0,1	2,005500
3,265833	0,1	2,027268
3,267500	0,1	1,994094
3,269167	0,1	1,981544
3,270833	0,1	1,949082
3,272500	0,1	2,012141
3,274167	0,1	2,005850
3,275833	0,1	1,955967
3,277500	0,1	1,927650
3,279167	0,1	1,924560
3,280833	0,1	1,894185
3,282500	0,1	1,909503
3,284167	0,1	1,900348
3,285833	0,1	1,857708
3,287500	0,1	1,838789
3,289167	0,1	1,854974
3,290833	0,1	1,778538
3,292500	0,1	1,793720
3,294167	0,1	1,801586
3,295833	0,1	1,814075
3,297500	0,1	1,782831
3,299167	0,1	1,760115
3,300833	0,1	1,702584
3,302500	0,1	1,712762
3,304167	0,1	1,715907
3,305833	0,1	1,688628
3,307500	0,1	1,671282
3,309167	0,1	1,679159
3,310833	0,1	1,683691
3,312500	0,1	1,639652
3,314167	0,1	1,642714
3,315833	0,1	1,640862
3,317500	0,1	1,612577
3,319167	0,1	1,600742
3,320833	0,1	1,598309
3,322500	0,1	1,593006
3,324167	0,1	1,555333
3,325833	0,1	1,565864
3,327500	0,1	1,541875
3,329167	0,1	1,536660
3,330833	0,1	1,546678
3,332500	0,1	1,527215
3,334167	0,1	1,512229
3,335833	0,1	1,506716
3,337500	0,1	1,511399
3,339167	0,1	1,472024
3,340833	0,1	1,488104
3,342500	0,1	1,491756
3,344167	0,1	1,454120
3,345833	0,1	1,501861
3,347500	0,1	1,471157
3,349167	0,1	1,478235
3,350833	0,1	1,440437
3,352500	0,1	1,428547
3,354167	0,1	1,460969
3,355833	0,1	1,454688
3,357500	0,1	1,424972
3,359167	0,1	1,444606
3,360833	0,1	1,431467
3,362500	0,1	1,381169
3,364167	0,1	1,380938
3,365833	0,1	1,395258
3,367500	0,1	1,423835
3,369167	0,1	1,404725
3,370833	0,1	1,377601
3,372500	0,1	1,344818
3,374167	0,1	1,387370
3,375833	0,1	1,386464
3,377500	0,1	1,372786
3,379167	0,1	1,388968
3,380833	0,1	1,361937
3,382500	0,1	1,349899
3,384167	0,1	1,339137
3,385833	0,1	1,372025
3,387500	0,1	1,359782
3,389167	0,1	1,319463
3,390833	0,1	1,338894
3,392500	0,1	1,360115
3,394167	0,1	1,392254
3,395833	0,1	1,333656
3,397500	0,1	1,300292
3,399167	0,1	1,349648
3,400833	0,1	1,348185
3,402500	0,1	1,323052
3,404167	0,1	1,341095
3,405833	0,1	1,345607
3,407500	0,1	1,319120
3,409167	0,1	1,344228
3,410833	0,1	1,335455
3,412500	0,1	1,321034
3,414167	0,1	1,304728
3,415833	0,1	1,332955
3,417500	0,1	1,304238
3,419167	0,1	1,299065
3,420833	0,1	1,315685
3,422500	0,1	1,313878
3,424167	0,1	1,333888
3,425833	0,1	1,313865
3,427500	0,1	1,283342
3,429167	0,1	1,307378
3,430833	0,1	1,339939
3,432500	0,1	1,314561
3,434167	0,1	1,255636
3,435833	0,1	1,304781
3,437500	0,1	1,270308
3,439167	0,1	1,284465
3,440833	0,1	1,283335
3,442500	0,1	1,269372
3,444167	0,1	1,300005
3,445833	0,1	1,309789
3,447500	0,1	1,278239
3,449167	0,1	1,280977
3,450833	0,1	1,287265
3,452500	0,1	1,321546
3,454167	0,1	1,326827
3,455833	0,1	1,267500
3,457500	0,1	1,299700
3,459167	0,1	1,347021
3,460833	0,1	1,309853
3,462500	0,1	1,331840
3,464167	0,1	1,329133
3,465833	0,1	1,307153
3,467500	0,1	1,313944
3,469167	0,1	1,369125
3,470833	0,1	1,336126
3,472500	0,1	1,336558
3,474167	0,1	1,366568
3,475833	0,1	1,351817
3,477500	0,1	1,366930
3,479167	0,1	1,370221
3,480833	0,1	1,377866
3,482500	0,1	1,391764
3,484167	0,1	1,356604
3,485833	0,1	1,360102
3,487500	0,1	1,378865
3,489167	0,1	1,412664
3,490833	0,1	1,422635
3,492500	0,1	1,416607
3,494167	0,1	1,420128
3,495833	0,1	1,401913
3,497500	0,1	1,427249
3,499167	0,1	1,417978
3,500833	0,1	1,448373
3,502500	0,1	1,421903
3,504167	0,1	1,429502
3,505833	0,1	1,408538
3,507500	0,1	1,476151
3,509167	0,1	1,471440
3,510833	0,1	1,426977
3,512500	0,1	1,460092
3,514167	0,1	1,479235
3,515833	0,1	1,454362
3,517500	0,1	1,463060
3,519167	0,1	1,456895
3,520833	0,1	1,513389
3,522500	0,1	1,464554
3,524167	0,1	1,505084
3,525833	0,1	1,486400
3,527500	0,1	1,501445
3,529167	0,1	1,483110
3,530833	0,1	1,490547
3,532500	0,1	1,490838
3,534167	0,1	1,478941
3,535833	0,1	1,508229
3,537500	0,1	1,488978
3,539167	0,1	1,445950
3,540833	0,1	1,504779
3,542500	0,1	1,487044
3,544167	0,1	1,517481
3,545833	0,1	1,510826
3,547500	0,1	1,501574
3,549167	0,1	1,507095
3,550833	0,1	1,525699
3,552500	0,1	1,503361
3,554167	0,1	1,502943
3,555833	0,1	1,566299
3,557500	0,1	1,529821
3,559167	0,1	1,493905
3,560833	0,1	1,515550
3,562500	0,1	1,501933
3,564167	0,1	1,488908
3,565833	0,1	1,471786
3,567500	0,1	1,489462
3,569167	0,1	1,461053
3,570833	0,1	1,476575
3,572500	0,1	1,470933
3,574167	0,1	1,508458
3,575833	0,1	1,469939
3,577500	0,1	1,439943
3,579167	0,1	1,442429
3,580833	0,1	1,468196
3,582500	0,1	1,478235
3,584167	0,1	1,459845
3,585833	0,1	1,469790
3,587500	0,1	1,433542
3,589167	0,1	1,444814
3,590833	0,1	1,433520
3,592500	0,1	1,423679
3,594167	0,1	1,411562
3,595833	0,1	1,414519
3,597500	0,1	1,403942
3,599167	0,1	1,421300
3,600833	0,1	1,384894
3,602500	0,1	1,376953
3,604167	0,1	1,409427
3,605833	0,1	1,404161
3,607500	0,1	1,409791
3,609167	0,1	1,408133
3,610833	0,1	1,344794
3,612500	0,1	1,340220
3,614167	0,1	1,338083
3,615833	0,1	1,329829
3,617500	0,1	1,356484
3,619167	0,1	1,329647
3,620833	0,1	1,329741
3,622500	0,1	1,339111
3,624167	0,1	1,308511
3,625833	0,1	1,332398
3,627500	0,1	1,324422
3,629167	0,1	1,314980
3,630833	0,1	1,300371
3,632500	0,1	1,275477
3,634167	0,1	1,246056
3,635833	0,1	1,249912
3,637500	0,1	1,269786
3,639167	0,1	1,218401
3,640833	0,1	1,255429
3,642500	0,1	1,225803
3,644167	0,1	1,205973
3,645833	0,1	1,227436
3,647500	0,1	1,220935
3,649167	0,1	1,214968
3,650833	0,1	1,215647
3,652500	0,1	1,183458
3,654167	0,1	1,157171
3,655833	0,1	1,183866
3,657500	0,1	1,172756
3,659167	0,1	1,122055
3,660833	0,1	1,196244
3,662500	0,1	1,183164
3,664167	0,1	1,136304
3,665833	0,1	1,165971
3,667500	0,1	1,101389
3,669167	0,1	1,164646
3,670833	0,1	1,133170
3,672500	0,1	1,156844
3,674167	0,1	1,091176
3,675833	0,1	1,139012
3,677500	0,1	1,126016
3,679167	0,1	1,087574
3,680833	0,1	1,095530
3,682500	0,1	1,108761
3,684167	0,1	1,102306
3,685833	0,1	1,074075
3,687500	0,1	1,087408
3,689167	0,1	1,070764
3,690833	0,1	1,085276
3,692500	0,1	1,082081
3,694167	0,1	1,028534
3,695833	0,1	1,059876
3,697500	0,1	1,037648
3,699167	0,1	1,043322
3,700833	0,1	1,017472
3,702500	0,1	1,026121
3,704167	0,1	1,036997
3,705833	0,1	1,024726
3,707500	0,1	1,046249
3,709167	0,1	1,048895
3,710833	0,1	1,038289
3,712500	0,1	1,040438
3,714167	0,1	1,036467
3,715833	0,1	1,031428
3,717500	0,1	1,004889
3,719167	0,1	1,028780
3,720833	0,1	1,019820
3,722500	0,1	0,984204
3,724167	0,1	0,982422
3,725833	0,1	1,040558
3,727500	0,1	0,998743
3,729167	0,1	1,035324
3,730833	0,1	0,993394
3,732500	0,1	1,024583
3,734167	0,1	1,019798
3,735833	0,1	1,017954
3,737500	0,1	1,013184
3,739167	0,1	0,980009
3,740833	0,1	0,999396
3,742500	0,1	1,019415
3,744167	0,1	1,021704
3,745833	0,1	1,022726
3,747500	0,1	0,984096
3,749167	0,1	1,013420
3,750833	0,1	1,006969
3,752500	0,1	0,989439
3,754167	0,1	1,003746
3,755833	0,1	0,995873
3,757500	0,1	1,037500
3,759167	0,1	1,033848
3,760833	0,1	1,001804
3,762500	0,1	1,028935
3,764167	0,1	1,028232
3,765833	0,1	1,019643
3,767500	0,1	1,000248
3,769167	0,1	1,021457
3,770833	0,1	1,023038
3,772500	0,1	1,033445
3,774167	0,1	1,006729
3,775833	0,1	1,003907
3,777500	0,1	0,995761
3,779167	0,1	1,006877
3,780833	0,1	1,016399
3,782500	0,1	0,978681
3,784167	0,1	1,031391
3,785833	0,1	0,966389
3,787500	0,1	1,013860
3,789167	0,1	0,999848
3,790833	0,1	1,001198
3,792500	0,1	1,013268
3,794167	0,1	1,026497
3,795833	0,1	1,008902
3,797500	0,1	0,989262
3,799167	0,1	1,009316
3,800833	0,1	1,046866
3,802500	0,1	1,020047
3,804167	0,1	1,017133
3,805833	0,1	1,030070
3,807500	0,1	1,005199
3,809167	0,1	1,029290
3,810833	0,1	1,027942
3,812500	0,1	1,067198
3,814167	0,1	1,001722
3,815833	0,1	1,016685
3,817500	0,1	1,015758
3,819167	0,1	1,035461
3,820833	0,1	1,056969
3,822500	0,1	0,977134
3,824167	0,1	1,040513
3,825833	0,1	1,025704
3,827500	0,1	0,987290
3,829167	0,1	1,052143
3,830833	0,1	0,984191
3,832500	0,1	1,011977
3,834167	0,1	1,012494
3,835833	0,1	0,998250
3,837500	0,1	1,052789
3,839167	0,1	1,000434
3,840833	0,1	0,980517
3,842500	0,1	1,028087
3,844167	0,1	1,019688
3,845833	0,1	0,991439
3,847500	0,1	0,983288
3,849167	0,1	1,023339
3,850833	0,1	0,973402
3,852500	0,1	1,049321
3,854167	0,1	0,993044
3,855833	0,1	1,019901
3,857500	0,1	1,011299
3,859167	0,1	1,000047
3,860833	0,1	1,028845
3,862500	0,1	0,966990
3,864167	0,1	0,986300
3,865833	0,1	0,948254
3,867500	0,1	0,977842
3,869167	0,1	0,990740
3,870833	0,1	0,955020
3,872500	0,1	0,962202
3,874167	0,1	1,001920
3,875833	0,1	1,033173
3,877500	0,1	0,967813
3,879167	0,1	0,993336
3,880833	0,1	0,967803
3,882500	0,1	1,009999
3,884167	0,1	0,975993
3,885833	0,1	0,976650
3,887500	0,1	0,931413
3,889167	0,1	0,952214
3,890833	0,1	0,977246
3,892500	0,1	0,939909
3,894167	0,1	0,971963
3,895833	0,1	0,930768
3,897500	0,1	0,962197
3,899167	0,1	0,959918
3,900833	0,1	0,943677
3,902500	0,1	0,890891
3,904167	0,1	0,926223
3,905833	0,1	0,925364
3,907500	0,1	0,919665
3,909167	0,1	0,919910
3,910833	0,1	0,897081
3,912500	0,1	0,927691
3,914167	0,1	0,947685
3,915833	0,1	0,924594
3,917500	0,1	0,886169
3,919167	0,1	0,905542
3,920833	0,1	0,922234
3,922500	0,1	0,884123
3,924167	0,1	0,910895
3,925833	0,1	0,879775
3,927500	0,1	0,883981
3,929167	0,1	0,881342
3,930833	0,1	0,873533
3,932500	0,1	0,884622
3,934167	0,1	0,843234
3,935833	0,1	0,879940
3,937500	0,1	0,849797
3,939167	0,1	0,840676
3,940833	0,1	0,832288
3,942500	0,1	0,878601
3,944167	0,1	0,864774
3,945833	0,1	0,827501
3,947500	0,1	0,834214
3,949167	0,1	0,903789
3,950833	0,1	0,853252
3,952500	0,1	0,841545
3,954167	0,1	0,836265
3,955833	0,1	0,866380
3,957500	0,1	0,823472
3,959167	0,1	0,815519
3,960833	0,1	0,819863
3,962500	0,1	0,814560
3,964167	0,1	0,808994
3,965833	0,1	0,820045
3,967500	0,1	0,824879
3,969167	0,1	0,847746
3,970833	0,1	0,813083
3,972500	0,1	0,830469
3,974167	0,1	0,816008
3,975833	0,1	0,799924
3,977500	0,1	0,794079
3,979167	0,1	0,824558
3,980833	0,1	0,785723
3,982500	0,1	0,804444
3,984167	0,1	0,806354
3,985833	0,1	0,792585
3,987500	0,1	0,805642
3,989167	0,1	0,810041
3,990833	0,1	0,839276
3,992500	0,1	0,838903
3,994167	0,1	0,831827
3,995833	0,1	0,770027
3,997500	0,1	0,813223
3,999167	0,1	0,833553
4,000833	0,1	0,800151
4,002500	0,1	0,804645
4,004167	0,1	0,781085
4,005833	0,1	0,826799
4,007500	0,1	0,791210
4,009167	0,1	0,797923
4,010833	0,1	0,799814
4,012500	0,1	0,788697
4,014167	0,1	0,767117
4,015833	0,1	0,795804
4,017500	0,1	0,806967
4,019167	0,1	0,849962
4,020833	0,1	0,855250
4,022500	0,1	0,840588
4,024167	0,1	0,805207
4,025833	0,1	0,797218
4,027500	0,1	0,857338
4,029167	0,1	0,813638
4,030833	0,1	0,853954
4,032500	0,1	0,828051
4,034167	0,1	0,813237
4,035833	0,1	0,833056
4,037500	0,1	0,865562
4,039167	0,1	0,835430
4,040833	0,1	0,842893
4,042500	0,1	0,873639
4,044167	0,1	0,846579
4,045833	0,1	0,908155
4,047500	0,1	0,898249
4,049167	0,1	0,871960
4,050833	0,1	0,853720
4,052500	0,1	0,904429
4,054167	0,1	0,886675
4,055833	0,1	0,915417
4,057500	0,1	0,940027
4,059167	0,1	0,931735
4,060833	0,1	0,905249
4,062500	0,1	0,925715
4,064167	0,1	0,953698
4,065833	0,1	0,967482
4,067500	0,1	1,002988
4,069167	0,1	0,948611
4,070833	0,1	0,958161
4,072500	0,1	0,963954
4,074167	0,1	1,011639
4,075833	0,1	1,019751
4,077500	0,1	0,989131
4,079167	0,1	1,009470
4,080833	0,1	1,023122
4,082500	0,1	1,030471
4,084167	0,1	1,086018
4,085833	0,1	1,089893
4,087500	0,1	1,114773
4,089167	0,1	1,094074
4,090833	0,1	1,094914
4,092500	0,1	1,160302
4,094167	0,1	1,152306
4,095833	0,1	1,180886
4,097500	0,1	1,193124
4,099167	0,1	1,181656
4,100833	0,1	1,244543
4,102500	0,1	1,235779
4,104167	0,1	1,243317
4,105833	0,1	1,276378
4,107500	0,1	1,264966
4,109167	0,1	1,300426
4,110833	0,1	1,337769
4,112500	0,1	1,354704
4,114167	0,1	1,333765
4,115833	0,1	1,395399
4,117500	0,1	1,392549
4,119167	0,1	1,379871
4,120833	0,1	1,418529
4,122500	0,1	1,427487
4,124167	0,1	1,459326
4,125833	0,1	1,450328
4,127500	0,1	1,448723
4,129167	0,1	1,539008
4,130833	0,1	1,508530
4,132500	0,1	1,538251
4,134167	0,1	1,534726
4,135833	0,1	1,558702
4,137500	0,1	1,559225
4,139167	0,1	1,601383
4,140833	0,1	1,592925
4,142500	0,1	1,648652
4,144167	0,1	1,651302
4,145833	0,1	1,730953
4,147500	0,1	1,725597
4,149167	0,1	1,708325
4,150833	0,1	1,726445
4,152500	0,1	1,751442
4,154167	0,1	1,784695
4,155833	0,1	1,761141
4,157500	0,1	1,777016
4,159167	0,1	1,814055
4,160833	0,1	1,798241
4,162500	0,1	1,797158
4,164167	0,1	1,852314
4,165833	0,1	1,834275
4,167500	0,1	1,864792
4,169167	0,1	1,889376
4,170833	0,1	1,903422
4,172500	0,1	1,917541
4,174167	0,1	1,886946
4,175833	0,1	1,887009
4,177500	0,1	1,914162
4,179167	0,1	1,923986
4,180833	0,1	1,907293
4,182500	0,1	1,946193
4,184167	0,1	1,968135
4,185833	0,1	1,961686
4,187500	0,1	1,959110
4,189167	0,1	1,983829
4,190833	0,1	1,987138
4,192500	0,1	1,994659
4,194167	0,1	2,006562
4,195833	0,1	2,019748
4,197500	0,1	1,984059
4,199167	0,1	2,050347
4,200833	0,1	2,048642
4,202500	0,1	2,019686
4,204167	0,1	2,027561
4,205833	0,1	2,026923
4,207500	0,1	2,023840
4,209167	0,1	2,045192
4,210833	0,1	2,047350
4,212500	0,1	2,042408
4,214167	0,1	2,043190
4,215833	0,1	2,028567
4,217500	0,1	2,057164
4,219167	0,1	2,009873
4,220833	0,1	2,027706
4,222500	0,1	2,023622
4,224167	0,1	2,023834
4,225833	0,1	2,016669
4,227500	0,1	2,037592
4,229167	0,1	2,027425
4,230833	0,1	2,006564
4,232500	0,1	2,025624
4,234167	0,1	2,013733
4,235833	0,1	2,016093
4,237500	0,1	2,028779
4,239167	0,1	2,017026
4,240833	0,1	1,996388
4,242500	0,1	1,974670
4,244167	0,1	1,985917
4,245833	0,1	1,960193
4,247500	0,1	1,952590
4,249167	0,1	1,971723
4,250833	0,1	1,956889
4,252500	0,1	1,959112
4,254167	0,1	1,940337
4,255833	0,1	1,922915
4,257500	0,1	1,960603
4,259167	0,1	1,926432
4,260833	0,1	1,881138
4,262500	0,1	1,906130
4,264167	0,1	1,899910
4,265833	0,1	1,883722
4,267500	0,1	1,885437
4,269167	0,1	1,843743
4,270833	0,1	1,844737
4,272500	0,1	1,840868
4,274167	0,1	1,808120
4,275833	0,1	1,837137
4,277500	0,1	1,806768
4,279167	0,1	1,804888
4,280833	0,1	1,801888
4,282500	0,1	1,814431
4,284167	0,1	1,786917
4,285833	0,1	1,756264
4,287500	0,1	1,773296
4,289167	0,1	1,748595
4,290833	0,1	1,765705
4,292500	0,1	1,751886
4,294167	0,1	1,693368
4,295833	0,1	1,686272
4,297500	0,1	1,689573
4,299167	0,1	1,680671
4,300833	0,1	1,697514
4,302500	0,1	1,625120
4,304167	0,1	1,639271
4,305833	0,1	1,607824
4,307500	0,1	1,587853
4,309167	0,1	1,629180
4,310833	0,1	1,600815
4,312500	0,1	1,586723
4,314167	0,1	1,604831
4,315833	0,1	1,523790
4,317500	0,1	1,554752
4,319167	0,1	1,552781
4,320833	0,1	1,551261
4,322500	0,1	1,550261
4,324167	0,1	1,464139
4,325833	0,1	1,514298
4,327500	0,1	1,472230
4,329167	0,1	1,454429
4,330833	0,1	1,466830
4,332500	0,1	1,454400
4,334167	0,1	1,454192
4,335833	0,1	1,461209
4,337500	0,1	1,409365
4,339167	0,1	1,437872
4,340833	0,1	1,424324
4,342500	0,1	1,394488
4,344167	0,1	1,411282
4,345833	0,1	1,387386
4,347500	0,1	1,378970
4,349167	0,1	1,385187
4,350833	0,1	1,348769
4,352500	0,1	1,355064
4,354167	0,1	1,362627
4,355833	0,1	1,331853
4,357500	0,1	1,299934
4,359167	0,1	1,284152
4,360833	0,1	1,299432
4,362500	0,1	1,285982
4,364167	0,1	1,320866
4,365833	0,1	1,264739
4,367500	0,1	1,295497
4,369167	0,1	1,264156
4,370833	0,1	1,245409
4,372500	0,1	1,287223
4,374167	0,1	1,247990
4,375833	0,1	1,247202
4,377500	0,1	1,256773
4,379167	0,1	1,201696
4,380833	0,1	1,204477
4,382500	0,1	1,209254
4,384167	0,1	1,207920
4,385833	0,1	1,240281
4,387500	0,1	1,179900
4,389167	0,1	1,175772
4,390833	0,1	1,139878
4,392500	0,1	1,145796
4,394167	0,1	1,174938
4,395833	0,1	1,150177
4,397500	0,1	1,108243
4,399167	0,1	1,149758
4,400833	0,1	1,102934
4,402500	0,1	1,144808
4,404167	0,1	1,124489
4,405833	0,1	1,121419
4,407500	0,1	1,106037
4,409167	0,1	1,119639
4,410833	0,1	1,112454
4,412500	0,1	1,090945
4,414167	0,1	1,054965
4,415833	0,1	1,148717
4,417500	0,1	1,082520
4,419167	0,1	1,074491
4,420833	0,1	1,061550
4,422500	0,1	1,038136
4,424167	0,1	1,051778
4,425833	0,1	1,073595
4,427500	0,1	1,022651
4,429167	0,1	1,021618
4,430833	0,1	1,030648
4,432500	0,1	1,010347
4,434167	0,1	1,036747
4,435833	0,1	1,002627
4,437500	0,1	1,004349
4,439167	0,1	1,008564
4,440833	0,1	0,972265
4,442500	0,1	0,986633
4,444167	0,1	0,957463
4,445833	0,1	0,987319
4,447500	0,1	0,957262
4,449167	0,1	0,953038
4,450833	0,1	0,971654
4,452500	0,1	0,961384
4,454167	0,1	0,926751
4,455833	0,1	0,946999
4,457500	0,1	0,912972
4,459167	0,1	0,962148
4,460833	0,1	0,930700
4,462500	0,1	0,928210
4,464167	0,1	0,926585
4,465833	0,1	0,899492
4,467500	0,1	0,902932
4,469167	0,1	0,886048
4,470833	0,1	0,912825
4,472500	0,1	0,887808
4,474167	0,1	0,866458
4,475833	0,1	0,908762
4,477500	0,1	0,876162
4,479167	0,1	0,893299
4,480833	0,1	0,855168
4,482500	0,1	0,851589
4,484167	0,1	0,869689
4,485833	0,1	0,853612
4,487500	0,1	0,812876
4,489167	0,1	0,828972
4,490833	0,1	0,777875
4,492500	0,1	0,829949
4,494167	0,1	0,800937
4,495833	0,1	0,812273
4,497500	0,1	0,795840
4,499167	0,1	0,782133
4,500833	0,1	0,786922
4,502500	0,1	0,781107
4,504167	0,1	0,746768
4,505833	0,1	0,775599
4,507500	0,1	0,776286
4,509167	0,1	0,767495
4,510833	0,1	0,782089
4,512500	0,1	0,763572
4,514167	0,1	0,719270
4,515833	0,1	0,724776
4,517500	0,1	0,753018
4,519167	0,1	0,745148
4,520833	0,1	0,730476
4,522500	0,1	0,715525
4,524167	0,1	0,707609
4,525833	0,1	0,721660
4,527500	0,1	0,721794
4,529167	0,1	0,737126
4,530833	0,1	0,722692
4,532500	0,1	0,698422
4,534167	0,1	0,704977
4,535833	0,1	0,718248
4,537500	0,1	0,692373
4,539167	0,1	0,689794
4,540833	0,1	0,656140
4,542500	0,1	0,693066
4,544167	0,1	0,667290
4,545833	0,1	0,625751
4,547500	0,1	0,650621
4,549167	0,1	0,681621
4,550833	0,1	0,657577
4,552500	0,1	0,653748
4,554167	0,1	0,646155
4,555833	0,1	0,623688
4,557500	0,1	0,651712
4,559167	0,1	0,662872
4,560833	0,1	0,617107
4,562500	0,1	0,629366
4,564167	0,1	0,609988
4,565833	0,1	0,638884
4,567500	0,1	0,602725
4,569167	0,1	0,633899
4,570833	0,1	0,601795
4,572500	0,1	0,587898
4,574167	0,1	0,625955
4,575833	0,1	0,585688
4,577500	0,1	0,614991
4,579167	0,1	0,544447
4,580833	0,1	0,570882
4,582500	0,1	0,577673
4,584167	0,1	0,588118
4,585833	0,1	0,552732
4,587500	0,1	0,545717
4,589167	0,1	0,559344
4,590833	0,1	0,549318
4,592500	0,1	0,594022
4,594167	0,1	0,541518
4,595833	0,1	0,522767
4,597500	0,1	0,524627
4,599167	0,1	0,559950
4,600833	0,1	0,544111
4,602500	0,1	0,548639
4,604167	0,1	0,525917
4,605833	0,1	0,507722
4,607500	0,1	0,518357
4,609167	0,1	0,473142
4,610833	0,1	0,463939
4,612500	0,1	0,513333
4,614167	0,1	0,524109
4,615833	0,1	0,494610
4,617500	0,1	0,488338
4,619167	0,1	0,446496
4,620833	0,1	0,486300
4,622500	0,1	0,509482
4,624167	0,1	0,490398
4,625833	0,1	0,476156
4,627500	0,1	0,489619
4,629167	0,1	0,485766
4,630833	0,1	0,484351
4,632500	0,1	0,447204
4,634167	0,1	0,469012
4,635833	0,1	0,461047
4,637500	0,1	0,462751
4,639167	0,1	0,467023
4,640833	0,1	0,438651
4,642500	0,1	0,468400
4,644167	0,1	0,427180
4,645833	0,1	0,465087
4,647500	0,1	0,474480
4,649167	0,1	0,446109
4,650833	0,1	0,459950
4,652500	0,1	0,430068
4,654167	0,1	0,434403
4,655833	0,1	0,428361
4,657500	0,1	0,407732
4,659167	0,1	0,421992
4,660833	0,1	0,441854
4,662500	0,1	0,391862
4,664167	0,1	0,431759
4,665833	0,1	0,429870
4,667500	0,1	0,418209
4,669167	0,1	0,412129
4,670833	0,1	0,422057
4,672500	0,1	0,402658
4,674167	0,1	0,410005
4,675833	0,1	0,398280
4,677500	0,1	0,376493
4,679167	0,1	0,399075
4,680833	0,1	0,413185
4,682500	0,1	0,385110
4,684167	0,1	0,392332
4,685833	0,1	0,397829
4,687500	0,1	0,380190
4,689167	0,1	0,353263
4,690833	0,1	0,372951
4,692500	0,1	0,380279
4,694167	0,1	0,348829
4,695833	0,1	0,395340
4,697500	0,1	0,367821
4,699167	0,1	0,368293
4,700833	0,1	0,394610
4,702500	0,1	0,382212
4,704167	0,1	0,388316
4,705833	0,1	0,386996
4,707500	0,1	0,383691
4,709167	0,1	0,389925
4,710833	0,1	0,372641
4,712500	0,1	0,385297
4,714167	0,1	0,366885
4,715833	0,1	0,352781
4,717500	0,1	0,365113
4,719167	0,1	0,344010
4,720833	0,1	0,324499
4,722500	0,1	0,324338
4,724167	0,1	0,348337
4,725833	0,1	0,360005
4,727500	0,1	0,337132
4,729167	0,1	0,345509
4,730833	0,1	0,333210
4,732500	0,1	0,334041
4,734167	0,1	0,317725
4,735833	0,1	0,344380
4,737500	0,1	0,320778
4,739167	0,1	0,311099
4,740833	0,1	0,304582
4,742500	0,1	0,321546
4,744167	0,1	0,340978
4,745833	0,1	0,315828
4,747500	0,1	0,316013
4,749167	0,1	0,323080
4,750833	0,1	0,331786
4,752500	0,1	0,328900
4,754167	0,1	0,328455
4,755833	0,1	0,339279
4,757500	0,1	0,320938
4,759167	0,1	0,307281
4,760833	0,1	0,320994
4,762500	0,1	0,273195
4,764167	0,1	0,297633
4,765833	0,1	0,310261
4,767500	0,1	0,292114
4,769167	0,1	0,282726
4,770833	0,1	0,300015
4,772500	0,1	0,313085
4,774167	0,1	0,294820
4,775833	0,1	0,300851
4,777500	0,1	0,298988
4,779167	0,1	0,289605
4,780833	0,1	0,294007
4,782500	0,1	0,297664
4,784167	0,1	0,338593
4,785833	0,1	0,309086
4,787500	0,1	0,270850
4,789167	0,1	0,293551
4,790833	0,1	0,302135
4,792500	0,1	0,286555
4,794167	0,1	0,303516
4,795833	0,1	0,281127
4,797500	0,1	0,262401
4,799167	0,1	0,258707
4,800833	0,1	0,247902
4,802500	0,1	0,279124
4,804167	0,1	0,278650
4,805833	0,1	0,250739
4,807500	0,1	0,250154
4,809167	0,1	0,263643
4,810833	0,1	0,258897
4,812500	0,1	0,290851
4,814167	0,1	0,278691
4,815833	0,1	0,280188
4,817500	0,1	0,282733
4,819167	0,1	0,266284
4,820833	0,1	0,295604
4,822500	0,1	0,283125
4,824167	0,1	0,271006
4,825833	0,1	0,271936
4,827500	0,1	0,264164
4,829167	0,1	0,265637
4,830833	0,1	0,251568
4,832500	0,1	0,282951
4,834167	0,1	0,275341
4,835833	0,1	0,282441
4,837500	0,1	0,262718
4,839167	0,1	0,256100
4,840833	0,1	0,242082
4,842500	0,1	0,254006
4,844167	0,1	0,265723
4,845833	0,1	0,261151
4,847500	0,1	0,272096
4,849167	0,1	0,270813
4,850833	0,1	0,249263
4,852500	0,1	0,260972
4,854167	0,1	0,258254
4,855833	0,1	0,239966
4,857500	0,1	0,238388
4,859167	0,1	0,263603
4,860833	0,1	0,263131
4,862500	0,1	0,243505
4,864167	0,1	0,236825
4,865833	0,1	0,258375
4,867500	0,1	0,214599
4,869167	0,1	0,274527
4,870833	0,1	0,269557
4,872500	0,1	0,231908
4,874167	0,1	0,255541
4,875833	0,1	0,225191
4,877500	0,1	0,239516
4,879167	0,1	0,251082
4,880833	0,1	0,249195
4,882500	0,1	0,254323
4,884167	0,1	0,271578
4,885833	0,1	0,245272
4,887500	0,1	0,247646
4,889167	0,1	0,245365
4,890833	0,1	0,272699
4,892500	0,1	0,235157
4,894167	0,1	0,239455
4,895833	0,1	0,249481
4,897500	0,1	0,248668
4,899167	0,1	0,249448
4,900833	0,1	0,266339
4,902500	0,1	0,249515
4,904167	0,1	0,214143
4,905833	0,1	0,264502
4,907500	0,1	0,221894
4,909167	0,1	0,261292
4,910833	0,1	0,238682
4,912500	0,1	0,216194
4,914167	0,1	0,264857
4,915833	0,1	0,248908
4,917500	0,1	0,270709
4,919167	0,1	0,265702
4,920833	0,1	0,222726
4,922500	0,1	0,253232
4,924167	0,1	0,216236
4,925833	0,1	0,208997
4,927500	0,1	0,230834
4,929167	0,1	0,242303
4,930833	0,1	0,215426
4,932500	0,1	0,267262
4,934167	0,1	0,230785
4,935833	0,1	0,240854
4,937500	0,1	0,259144
4,939167	0,1	0,202736
4,940833	0,1	0,226664
4,942500	0,1	0,205248
4,944167	0,1	0,228681
4,945833	0,1	0,263800
4,947500	0,1	0,218796
4,949167	0,1	0,252389
4,950833	0,1	0,248606
4,952500	0,1	0,253755
4,954167	0,1	0,247936
4,955833	0,1	0,235994
4,957500	0,1	0,224027
4,959167	0,1	0,267944
4,960833	0,1	0,246718
4,962500	0,1	0,223526
4,964167	0,1	0,258207
4,965833	0,1	0,246628
4,967500	0,1	0,227280
4,969167	0,1	0,274495
4,970833	0,1	0,210851
4,972500	0,1	0,250243
4,974167	0,1	0,246072
4,975833	0,1	0,237495
4,977500	0,1	0,232063
4,979167	0,1	0,253007
4,980833	0,1	0,274600
4,982500	0,1	0,242992
4,984167	0,1	0,266373
4,985833	0,1	0,264606
4,987500	0,1	0,258417
4,989167	0,1	0,263129
4,990833	0,1	0,256191
4,992500	0,1	0,258794
4,994167	0,1	0,237308
4,995833	0,1	0,281112
4,997500	0,1	0,250161
4,999167	0,1	0,279513
5,000833	0,1	0,295226
5,002500	0,1	0,219230
5,004167	0,1	0,241694
5,005833	0,1	0,227405
5,007500	0,1	0,246066
5,009167	0,1	0,253842
5,010833	0,1	0,260784
5,012500	0,1	0,258823
5,014167	0,1	0,297241
5,015833	0,1	0,296072
5,017500	0,1	0,257708
5,019167	0,1	0,288192
5,020833	0,1	0,290089
5,022500	0,1	0,247909
5,024167	0,1	0,260330
5,025833	0,1	0,248580
5,027500	0,1	0,338263
5,029167	0,1	0,272205
5,030833	0,1	0,304510
5,032500	0,1	0,262081
5,034167	0,1	0,288852
5,035833	0,1	0,300976
5,037500	0,1	0,315464
5,039167	0,1	0,297606
5,040833	0,1	0,257456
5,042500	0,1	0,268177
5,044167	0,1	0,309386
5,045833	0,1	0,314671
5,047500	0,1	0,342616
5,049167	0,1	0,293115
5,050833	0,1	0,293619
5,052500	0,1	0,311193
5,054167	0,1	0,311612
5,055833	0,1	0,303036
5,057500	0,1	0,298663
5,059167	0,1	0,337372
5,060833	0,1	0,331826
5,062500	0,1	0,290353
5,064167	0,1	0,356970
5,065833	0,1	0,327558
5,067500	0,1	0,326684
5,069167	0,1	0,328320
5,070833	0,1	0,329415
5,072500	0,1	0,304452
5,074167	0,1	0,360122
5,075833	0,1	0,321552
5,077500	0,1	0,310583
5,079167	0,1	0,325141
5,080833	0,1	0,353732
5,082500	0,1	0,350011
5,084167	0,1	0,342370
5,085833	0,1	0,324054
5,087500	0,1	0,353407
5,089167	0,1	0,331927
5,090833	0,1	0,362792
5,092500	0,1	0,370480
5,094167	0,1	0,348700
5,095833	0,1	0,381012
5,097500	0,1	0,328560
5,099167	0,1	0,318713
5,100833	0,1	0,365005
5,102500	0,1	0,311138
5,104167	0,1	0,322273
5,105833	0,1	0,315144
5,107500	0,1	0,325071
5,109167	0,1	0,335966
5,110833	0,1	0,358844
5,112500	0,1	0,334555
5,114167	0,1	0,374359
5,115833	0,1	0,373790
5,117500	0,1	0,364185
5,119167	0,1	0,428411
5,120833	0,1	0,343088
5,122500	0,1	0,385190
5,124167	0,1	0,347285
5,125833	0,1	0,394697
5,127500	0,1	0,322554
5,129167	0,1	0,350164
5,130833	0,1	0,324471
5,132500	0,1	0,368798
5,134167	0,1	0,392779
5,135833	0,1	0,337170
5,137500	0,1	0,366040
5,139167	0,1	0,373278
5,140833	0,1	0,348955
5,142500	0,1	0,370189
5,144167	0,1	0,360132
5,145833	0,1	0,370510
5,147500	0,1	0,375398
5,149167	0,1	0,350722
5,150833	0,1	0,397720
5,152500	0,1	0,365151
5,154167	0,1	0,364664
5,155833	0,1	0,343361
5,157500	0,1	0,404080
5,159167	0,1	0,343949
5,160833	0,1	0,362123
5,162500	0,1	0,380761
5,164167	0,1	0,358722
5,165833	0,1	0,363278
5,167500	0,1	0,339860
5,169167	0,1	0,369381
5,170833	0,1	0,356185
5,172500	0,1	0,359007
5,174167	0,1	0,380117
5,175833	0,1	0,349402
5,177500	0,1	0,337003
5,179167	0,1	0,301656
5,180833	0,1	0,324164
5,182500	0,1	0,335741
5,184167	0,1	0,311935
5,185833	0,1	0,309423
5,187500	0,1	0,347366
5,189167	0,1	0,346640
5,190833	0,1	0,360099
5,192500	0,1	0,333949
5,194167	0,1	0,316884
5,195833	0,1	0,276470
5,197500	0,1	0,311088
5,199167	0,1	0,356784
5,200833	0,1	0,322418
5,202500	0,1	0,316078
5,204167	0,1	0,319125
5,205833	0,1	0,283473
5,207500	0,1	0,345015
5,209167	0,1	0,337801
5,210833	0,1	0,303964
5,212500	0,1	0,314767
5,214167	0,1	0,279330
5,215833	0,1	0,327214
5,217500	0,1	0,325914
5,219167	0,1	0,295618
5,220833	0,1	0,305573
5,222500	0,1	0,286492
5,224167	0,1	0,307815
5,225833	0,1	0,279075
5,227500	0,1	0,252881
5,229167	0,1	0,299075
5,230833	0,1	0,260117
5,232500	0,1	0,290817
5,234167	0,1	0,289954
5,235833	0,1	0,300786
5,237500	0,1	0,285760
5,239167	0,1	0,318321
5,240833	0,1	0,252764
5,242500	0,1	0,283296
5,244167	0,1	0,252956
5,245833	0,1	0,251464
5,247500	0,1	0,233705
5,249167	0,1	0,253488
5,250833	0,1	0,233615
5,252500	0,1	0,279408
5,254167	0,1	0,220865
5,255833	0,1	0,245134
5,257500	0,1	0,235241
5,259167	0,1	0,234722
5,260833	0,1	0,224570
5,262500	0,1	0,246999
5,264167	0,1	0,251564
5,265833	0,1	0,235089
5,267500	0,1	0,222466
5,269167	0,1	0,246707
5,270833	0,1	0,257482
5,272500	0,1	0,259085
5,274167	0,1	0,228478
5,275833	0,1	0,231394
5,277500	0,1	0,208295
5,279167	0,1	0,203277
5,280833	0,1	0,191589
5,282500	0,1	0,220994
5,284167	0,1	0,216454
5,285833	0,1	0,204023
5,287500	0,1	0,228492
5,289167	0,1	0,205437
5,290833	0,1	0,212698
5,292500	0,1	0,217448
5,294167	0,1	0,185812
5,295833	0,1	0,184973
5,297500	0,1	0,207969
5,299167	0,1	0,220305
5,300833	0,1	0,151469
5,302500	0,1	0,195142
5,304167	0,1	0,202317
5,305833	0,1	0,190178
5,307500	0,1	0,200541
5,309167	0,1	0,170873
5,310833	0,1	0,187250
5,312500	0,1	0,216989
5,314167	0,1	0,200044
5,315833	0,1	0,172485
5,317500	0,1	0,189201
5,319167	0,1	0,191423
5,320833	0,1	0,182468
5,322500	0,1	0,182655
5,324167	0,1	0,199393
5,325833	0,1	0,181060
5,327500	0,1	0,173374
5,329167	0,1	0,171320
5,330833	0,1	0,146811
5,332500	0,1	0,167874
5,334167	0,1	0,167919
5,335833	0,1	0,170148
5,337500	0,1	0,147719
5,339167	0,1	0,138143
5,340833	0,1	0,170606
5,342500	0,1	0,163384
5,344167	0,1	0,147492
5,345833	0,1	0,138833
5,347500	0,1	0,158755
5,349167	0,1	0,129797
5,350833	0,1	0,146011
5,352500	0,1	0,178908
5,354167	0,1	0,151700
5,355833	0,1	0,143573
5,357500	0,1	0,114343
5,359167	0,1	0,112056
5,360833	0,1	0,169415
5,362500	0,1	0,123857
5,364167	0,1	0,160113
5,365833	0,1	0,150740
5,367500	0,1	0,140299
5,369167	0,1	0,144729
5,370833	0,1	0,120929
5,372500	0,1	0,115911
5,374167	0,1	0,136171
5,375833	0,1	0,122869
5,377500	0,1	0,092276
5,379167	0,1	0,106375
5,380833	0,1	0,146231
5,382500	0,1	0,120099
5,384167	0,1	0,161522
5,385833	0,1	0,129986
5,387500	0,1	0,148618
5,389167	0,1	0,125074
5,390833	0,1	0,143918
5,392500	0,1	0,114548
5,394167	0,1	0,119615
5,395833	0,1	0,097783
5,397500	0,1	0,131459
5,399167	0,1	0,105492
5,400833	0,1	0,075264
5,402500	0,1	0,086360
5,404167	0,1	0,107821
5,405833	0,1	0,118226
5,407500	0,1	0,112432
5,409167	0,1	0,133640
5,410833	0,1	0,122853
5,412500	0,1	0,155141
5,414167	0,1	0,118011
5,415833	0,1	0,148615
5,417500	0,1	0,110280
5,419167	0,1	0,121437
5,420833	0,1	0,082581
5,422500	0,1	0,119254
5,424167	0,1	0,074854
5,425833	0,1	0,145481
5,427500	0,1	0,081594
5,429167	0,1	0,117289
5,430833	0,1	0,117235
5,432500	0,1	0,087883
5,434167	0,1	0,133446
5,435833	0,1	0,068083
5,437500	0,1	0,105022
5,439167	0,1	0,104076
5,440833	0,1	0,090692
5,442500	0,1	0,082678
5,444167	0,1	0,080333
5,445833	0,1	0,106143
5,447500	0,1	0,093182
5,449167	0,1	0,078534
5,450833	0,1	0,086465
5,452500	0,1	0,101008
5,454167	0,1	0,043283
5,455833	0,1	0,078501
5,457500	0,1	0,091703
5,459167	0,1	0,076693
5,460833	0,1	0,089322
5,462500	0,1	0,050137
5,464167	0,1	0,060732
5,465833	0,1	0,070657
5,467500	0,1	0,089361
5,469167	0,1	0,095951
5,470833	0,1	0,094237
5,472500	0,1	0,085928
5,474167	0,1	0,090796
5,475833	0,1	0,118717
5,477500	0,1	0,084236
5,479167	0,1	0,037252
5,480833	0,1	0,074749
5,482500	0,1	0,102619
5,484167	0,1	0,107575
5,485833	0,1	0,038024
5,487500	0,1	0,042813
5,489167	0,1	0,086661
5,490833	0,1	0,043735
5,492500	0,1	0,041799
5,494167	0,1	0,015329
5,495833	0,1	0,068863
5,497500	0,1	0,080972
5,499167	0,1	0,048893
5,500833	0,1	0,053711
5,502500	0,1	0,054000
5,504167	0,1	0,027738
5,505833	0,1	0,042335
5,507500	0,1	0,011002
5,509167	0,1	0,068550
5,510833	0,1	0,052699
5,512500	0,1	0,027387
5,514167	0,1	0,055029
5,515833	0,1	0,058331
5,517500	0,1	0,068686
5,519167	0,1	0,059307
5,520833	0,1	0,031365
5,522500	0,1	0,087384
5,524167	0,1	0,057942
5,525833	0,1	0,083205
5,527500	0,1	0,082902
5,529167	0,1	0,036589
5,530833	0,1	0,009032
5,532500	0,1	0,051297
5,534167	0,1	0,064190
5,535833	0,1	0,011588
5,537500	0,1	0,084936
5,539167	0,1	0,040194
5,540833	0,1	0,020259
5,542500	0,1	0,064864
5,544167	0,1	0,062743
5,545833	0,1	0,044951
5,547500	0,1	0,032190
5,549167	0,1	0,061700
5,550833	0,1	0,012456
5,552500	0,1	0,037503
5,554167	0,1	0,050435
5,555833	0,1	0,070488
5,557500	0,1	0,053362
5,559167	0,1	0,049217
5,560833	0,1	0,042340
5,562500	0,1	0,016179
5,564167	0,1	0,040632
5,565833	0,1	0,029785
5,567500	0,1	0,082702
5,569167	0,1	0,006952
5,570833	0,1	0,030813
5,572500	0,1	0,023654
5,574167	0,1	0,059564
5,575833	0,1	0,036957
5,577500	0,1	0,044201
5,579167	0,1	0,073614
5,580833	0,1	0,019769
5,582500	0,1	0,080069
5,584167	0,1	0,090482
5,585833	0,1	0,050032
5,587500	0,1	0,047559
5,589167	0,1	0,074091
5,590833	0,1	0,045098
5,592500	0,1	0,026845
5,594167	0,1	0,035665
5,595833	0,1	0,048548
5,597500	0,1	0,027779
5,599167	0,1	0,027257
5,600833	0,1	0,028560
5,602500	0,1	0,016011
5,604167	0,1	0,036718
5,605833	0,1	0,061888
5,607500	0,1	0,045491
5,609167	0,1	0,039335
5,610833	0,1	0,015039
5,612500	0,1	0,049083
5,614167	0,1	0,035402
5,615833	0,1	0,033410
5,617500	0,1	0,022184
5,619167	0,1	0,042000
5,620833	0,1	0,027260
5,622500	0,1	0,048340
5,624167	0,1	0,055387
5,625833	0,1	0,057479
5,627500	0,1	0,041864
5,629167	0,1	0,023945
5,630833	0,1	0,057204
5,632500	0,1	0,038654
5,634167	0,1	0,022185
5,635833	0,1	0,041214
5,637500	0,1	0,017050
5,639167	0,1	0,028600
5,640833	0,1	0,044176
5,642500	0,1	0,034861
5,644167	0,1	0,029846
5,645833	0,1	0,047430
5,647500	0,1	0,027199
5,649167	0,1	0,071889
5,650833	0,1	0,023084
5,652500	0,1	0,054697
5,654167	0,1	0,062826
5,655833	0,1	0,067858
5,657500	0,1	0,077348
5,659167	0,1	0,052329
5,660833	0,1	0,065269
5,662500	0,1	0,019001
5,664167	0,1	0,059646
5,665833	0,1	0,062555
5,667500	0,1	0,061481
5,669167	0,1	0,038366
5,670833	0,1	0,034548
5,672500	0,1	0,028853
5,674167	0,1	0,062610
5,675833	0,1	0,055287
5,677500	0,1	0,064628
5,679167	0,1	0,018070
5,680833	0,1	0,075137
5,682500	0,1	0,005688
5,684167	0,1	0,044007
5,685833	0,1	0,058162
5,687500	0,1	0,045798
5,689167	0,1	0,028420
5,690833	0,1	0,093267
5,692500	0,1	0,079444
5,694167	0,1	0,023541
5,695833	0,1	0,003873
5,697500	0,1	0,046182
5,699167	0,1	0,059115
5,700833	0,1	0,044059
5,702500	0,1	0,070341
5,704167	0,1	0,032878
5,705833	0,1	0,044344
5,707500	0,1	0,135816
5,709167	0,1	0,019536
5,710833	0,1	0,072943
5,712500	0,1	0,067076
5,714167	0,1	0,060736
5,715833	0,1	0,061832
5,717500	0,1	0,068128
5,719167	0,1	0,035158
5,720833	0,1	0,028251
5,722500	0,1	0,091795
5,724167	0,1	0,069937
5,725833	0,1	0,065336
5,727500	0,1	0,061046
5,729167	0,1	0,073681
5,730833	0,1	0,058460
5,732500	0,1	0,051826
5,734167	0,1	0,064502
5,735833	0,1	0,088677
5,737500	0,1	0,082966
5,739167	0,1	0,071344
5,740833	0,1	0,077411
5,742500	0,1	0,059330
5,744167	0,1	0,048121
5,745833	0,1	0,094163
5,747500	0,1	0,088208
5,749167	0,1	0,069026
5,750833	0,1	0,044913
5,752500	0,1	0,100771
5,754167	0,1	0,067145
5,755833	0,1	0,071153
5,757500	0,1	0,091372
5,759167	0,1	0,089655
5,760833	0,1	0,097054
5,762500	0,1	0,129595
5,764167	0,1	0,123369
5,765833	0,1	0,103956
5,767500	0,1	0,068554
5,769167	0,1	0,130646
5,770833	0,1	0,110879
5,772500	0,1	0,054718
5,774167	0,1	0,051164
5,775833	0,1	0,112207
5,777500	0,1	0,057474
5,779167	0,1	0,094433
5,780833	0,1	0,073109
5,782500	0,1	0,090792
5,784167	0,1	0,055792
5,785833	0,1	0,060796
5,787500	0,1	0,094080
5,789167	0,1	0,059708
5,790833	0,1	0,073077
5,792500	0,1	0,067427
5,794167	0,1	0,049178
5,795833	0,1	0,108558
5,797500	0,1	0,082721
5,799167	0,1	0,066332
5,800833	0,1	0,115334
5,802500	0,1	0,065284
5,804167	0,1	0,055144
5,805833	0,1	0,111979
5,807500	0,1	0,121313
5,809167	0,1	0,077899
5,810833	0,1	0,107302
5,812500	0,1	0,087239
5,814167	0,1	0,094649
5,815833	0,1	0,113994
5,817500	0,1	0,073943
5,819167	0,1	0,080310
5,820833	0,1	0,084744
5,822500	0,1	0,086529
5,824167	0,1	0,097650
5,825833	0,1	0,095914
5,827500	0,1	0,131975
5,829167	0,1	0,096752
5,830833	0,1	0,143685
5,832500	0,1	0,132504
5,834167	0,1	0,096565
5,835833	0,1	0,080194
5,837500	0,1	0,100114
5,839167	0,1	0,092124
5,840833	0,1	0,071057
5,842500	0,1	0,082860
5,844167	0,1	0,086112
5,845833	0,1	0,130109
5,847500	0,1	0,058162
5,849167	0,1	0,095575
5,850833	0,1	0,081912
5,852500	0,1	0,074845
5,854167	0,1	0,056017
5,855833	0,1	0,053195
5,857500	0,1	0,114713
5,859167	0,1	0,078539
5,860833	0,1	0,118322
5,862500	0,1	0,114188
5,864167	0,1	0,099355
5,865833	0,1	0,114082
5,867500	0,1	0,086263
5,869167	0,1	0,086176
5,870833	0,1	0,073396
5,872500	0,1	0,087561
5,874167	0,1	0,070890
5,875833	0,1	0,092055
5,877500	0,1	0,072859
5,879167	0,1	0,098186
5,880833	0,1	0,108216
5,882500	0,1	0,088937
5,884167	0,1	0,080460
5,885833	0,1	0,077913
5,887500	0,1	0,082776
5,889167	0,1	0,037605
5,890833	0,1	0,121194
5,892500	0,1	0,085771
5,894167	0,1	0,060304
5,895833	0,1	0,069186
5,897500	0,1	0,083023
5,899167	0,1	0,085182
5,900833	0,1	0,076107
5,902500	0,1	0,062933
5,904167	0,1	0,045492
5,905833	0,1	0,063835
5,907500	0,1	0,031137
5,909167	0,1	0,046830
5,910833	0,1	0,088321
5,912500	0,1	0,086381
5,914167	0,1	0,044875
5,915833	0,1	0,046192
5,917500	0,1	0,051306
5,919167	0,1	0,064047
5,920833	0,1	0,116267
5,922500	0,1	0,052443
5,924167	0,1	0,043003
5,925833	0,1	0,062657
5,927500	0,1	0,061976
5,929167	0,1	0,019229
5,930833	0,1	0,060205
5,932500	0,1	0,048554
5,934167	0,1	0,030885
5,935833	0,1	0,001949
5,937500	0,1	0,076087
5,939167	0,1	0,031432
5,940833	0,1	0,059423
5,942500	0,1	0,048285
5,944167	0,1	0,051991
5,945833	0,1	0,069265
5,947500	0,1	0,054790
5,949167	0,1	0,055078
5,950833	0,1	0,034054
5,952500	0,1	0,046684
5,954167	0,1	0,017113
5,955833	0,1	0,018554
5,957500	0,1	0,038333
5,959167	0,1	0,035668
5,960833	0,1	0,063981
5,962500	0,1	0,082460
5,964167	0,1	0,035512
5,965833	0,1	0,040181
5,967500	0,1	0,049731
5,969167	0,1	0,026806
5,970833	0,1	0,044258
5,972500	0,1	0,026472
5,974167	0,1	0,044818
5,975833	0,1	0,052301
5,977500	0,1	0,038259
5,979167	0,1	0,042895
5,980833	0,1	0,046355
5,982500	0,1	0,046045
5,984167	0,1	0,035130
5,985833	0,1	0,028045
5,987500	0,1	0,057224
5,989167	0,1	0,045281
5,990833	0,1	0,056733
5,992500	0,1	0,012351
5,994167	0,1	-0,004537
5,995833	0,1	0,048187
5,997500	0,1	0,015082
5,999167	0,1	0,027254
6,000833	0,1	0,010977
