File Path	chrom://chromeleon01/ikbm_chromeleon/2022/Rezex/Esteban/220612_chitin_4_7.seq/492.smp/UV_VIS_1.channel/UV_VIS_1.chm
Channel	UV_VIS_1

Injection Information:
Data Vault	ikbm_chromeleon
Injection	4_04h-EGS_2
Injection Number	76
Position	GC4
Comment	
Processing Method	New ProcMethod
Instrument Method	Short_Rezex_6min_194nm
Type	Unknown
Status	Finished
Injection Date	13.06.2022
Injection Time	01:19:28
Injection Volume (µl)	8,000
Dilution Factor	1,0000
Weight	1,0000

Chromatogram Data Information:
Time Min. (min)	0,000833
Time Max. (min)	6,000833
Data Points	3601
Detector	UV
Generating Data System	Chromeleon 7.2.9.11323
Exporting Data System	Chromeleon 7.2.9.0
Operator	Instrument Controller
Signal Quantity	Absorbance
Signal Unit	mAU
Signal Min.	-0,169813
Signal Max.	102,967617
Channel	UV_VIS_1
Driver Name	VWD3000.dll
Channel Type	Evaluation
Min. Step (s)	0,1
Max. Step (s)	0,1
Average Step (s)	0,1

Signal Parameter Information:
Signal Info	WVL:194 nm

Chromatogram Data:
Time (min)	Step (s)	Value (mAU)
0,000833	n.a.	-0,080355
0,002500	0,1	-0,127901
0,004167	0,1	-0,089442
0,005833	0,1	-0,074600
0,007500	0,1	-0,090611
0,009167	0,1	-0,148682
0,010833	0,1	-0,116605
0,012500	0,1	-0,101309
0,014167	0,1	-0,076259
0,015833	0,1	-0,143480
0,017500	0,1	-0,104237
0,019167	0,1	-0,140626
0,020833	0,1	-0,071940
0,022500	0,1	-0,085596
0,024167	0,1	-0,062706
0,025833	0,1	-0,101920
0,027500	0,1	-0,131013
0,029167	0,1	-0,116749
0,030833	0,1	-0,105453
0,032500	0,1	-0,121213
0,034167	0,1	-0,151478
0,035833	0,1	-0,150992
0,037500	0,1	-0,123274
0,039167	0,1	-0,144643
0,040833	0,1	-0,146538
0,042500	0,1	-0,131085
0,044167	0,1	-0,130420
0,045833	0,1	-0,119997
0,047500	0,1	-0,086374
0,049167	0,1	-0,090095
0,050833	0,1	-0,142030
0,052500	0,1	-0,117060
0,054167	0,1	-0,087928
0,055833	0,1	-0,115869
0,057500	0,1	-0,135264
0,059167	0,1	-0,089382
0,060833	0,1	-0,112659
0,062500	0,1	-0,082789
0,064167	0,1	-0,135133
0,065833	0,1	-0,106389
0,067500	0,1	-0,089605
0,069167	0,1	-0,099087
0,070833	0,1	-0,088979
0,072500	0,1	-0,113609
0,074167	0,1	-0,097417
0,075833	0,1	-0,075451
0,077500	0,1	-0,099187
0,079167	0,1	-0,098323
0,080833	0,1	-0,096871
0,082500	0,1	-0,087529
0,084167	0,1	-0,094529
0,085833	0,1	-0,070539
0,087500	0,1	-0,081951
0,089167	0,1	-0,085973
0,090833	0,1	-0,064509
0,092500	0,1	-0,068130
0,094167	0,1	-0,083563
0,095833	0,1	-0,085060
0,097500	0,1	-0,079696
0,099167	0,1	-0,073852
0,100833	0,1	-0,093365
0,102500	0,1	-0,089187
0,104167	0,1	-0,081974
0,105833	0,1	-0,108199
0,107500	0,1	-0,078767
0,109167	0,1	-0,151228
0,110833	0,1	-0,121039
0,112500	0,1	-0,102989
0,114167	0,1	-0,074083
0,115833	0,1	-0,107308
0,117500	0,1	-0,100646
0,119167	0,1	-0,169813
0,120833	0,1	-0,121520
0,122500	0,1	-0,121286
0,124167	0,1	-0,153123
0,125833	0,1	-0,094939
0,127500	0,1	-0,111808
0,129167	0,1	-0,111836
0,130833	0,1	-0,095448
0,132500	0,1	-0,093635
0,134167	0,1	-0,136920
0,135833	0,1	-0,106495
0,137500	0,1	-0,120035
0,139167	0,1	-0,081507
0,140833	0,1	-0,095108
0,142500	0,1	-0,094987
0,144167	0,1	-0,099854
0,145833	0,1	-0,106380
0,147500	0,1	-0,062711
0,149167	0,1	-0,111842
0,150833	0,1	-0,103278
0,152500	0,1	-0,081998
0,154167	0,1	-0,078057
0,155833	0,1	-0,120609
0,157500	0,1	-0,091367
0,159167	0,1	-0,104266
0,160833	0,1	-0,081212
0,162500	0,1	-0,105506
0,164167	0,1	-0,081503
0,165833	0,1	-0,075674
0,167500	0,1	-0,102027
0,169167	0,1	-0,075222
0,170833	0,1	-0,104035
0,172500	0,1	-0,126375
0,174167	0,1	-0,098804
0,175833	0,1	-0,049761
0,177500	0,1	-0,113247
0,179167	0,1	-0,066734
0,180833	0,1	-0,078283
0,182500	0,1	-0,090426
0,184167	0,1	-0,081291
0,185833	0,1	-0,069522
0,187500	0,1	-0,054539
0,189167	0,1	-0,110803
0,190833	0,1	-0,061263
0,192500	0,1	-0,084062
0,194167	0,1	-0,099751
0,195833	0,1	-0,102613
0,197500	0,1	-0,129050
0,199167	0,1	-0,086603
0,200833	0,1	-0,102235
0,202500	0,1	-0,110402
0,204167	0,1	-0,079929
0,205833	0,1	-0,120819
0,207500	0,1	-0,061120
0,209167	0,1	-0,139376
0,210833	0,1	-0,059861
0,212500	0,1	-0,067363
0,214167	0,1	-0,059720
0,215833	0,1	-0,088185
0,217500	0,1	-0,106525
0,219167	0,1	-0,085357
0,220833	0,1	-0,080812
0,222500	0,1	-0,069419
0,224167	0,1	-0,104305
0,225833	0,1	-0,065509
0,227500	0,1	-0,113251
0,229167	0,1	-0,037894
0,230833	0,1	-0,088074
0,232500	0,1	-0,127824
0,234167	0,1	-0,041211
0,235833	0,1	-0,107448
0,237500	0,1	-0,099362
0,239167	0,1	-0,052039
0,240833	0,1	-0,095001
0,242500	0,1	-0,113962
0,244167	0,1	-0,079145
0,245833	0,1	-0,094692
0,247500	0,1	-0,082432
0,249167	0,1	-0,070041
0,250833	0,1	-0,062104
0,252500	0,1	-0,098812
0,254167	0,1	-0,090369
0,255833	0,1	-0,126330
0,257500	0,1	-0,095346
0,259167	0,1	-0,077400
0,260833	0,1	-0,097428
0,262500	0,1	-0,045473
0,264167	0,1	-0,076122
0,265833	0,1	-0,094402
0,267500	0,1	-0,060431
0,269167	0,1	-0,088495
0,270833	0,1	-0,096727
0,272500	0,1	-0,118193
0,274167	0,1	-0,095800
0,275833	0,1	-0,111788
0,277500	0,1	-0,088113
0,279167	0,1	-0,088086
0,280833	0,1	-0,094052
0,282500	0,1	-0,133394
0,284167	0,1	-0,055467
0,285833	0,1	-0,070135
0,287500	0,1	-0,066702
0,289167	0,1	-0,088205
0,290833	0,1	-0,077127
0,292500	0,1	-0,076276
0,294167	0,1	-0,092932
0,295833	0,1	-0,080734
0,297500	0,1	-0,091481
0,299167	0,1	-0,052515
0,300833	0,1	-0,062968
0,302500	0,1	-0,069561
0,304167	0,1	-0,074492
0,305833	0,1	-0,067532
0,307500	0,1	-0,056261
0,309167	0,1	-0,069910
0,310833	0,1	-0,088415
0,312500	0,1	-0,065714
0,314167	0,1	-0,112505
0,315833	0,1	-0,065241
0,317500	0,1	-0,069105
0,319167	0,1	-0,123489
0,320833	0,1	-0,078005
0,322500	0,1	-0,043374
0,324167	0,1	-0,052172
0,325833	0,1	-0,062680
0,327500	0,1	-0,040969
0,329167	0,1	-0,057433
0,330833	0,1	-0,077205
0,332500	0,1	-0,066434
0,334167	0,1	-0,064796
0,335833	0,1	-0,073952
0,337500	0,1	-0,044121
0,339167	0,1	-0,090108
0,340833	0,1	-0,096769
0,342500	0,1	-0,050983
0,344167	0,1	-0,105547
0,345833	0,1	-0,074462
0,347500	0,1	-0,077931
0,349167	0,1	-0,079279
0,350833	0,1	-0,089970
0,352500	0,1	-0,104685
0,354167	0,1	-0,094784
0,355833	0,1	-0,089478
0,357500	0,1	-0,057839
0,359167	0,1	-0,111717
0,360833	0,1	-0,067376
0,362500	0,1	-0,069333
0,364167	0,1	-0,070058
0,365833	0,1	-0,038939
0,367500	0,1	-0,080783
0,369167	0,1	-0,058727
0,370833	0,1	-0,081409
0,372500	0,1	-0,047520
0,374167	0,1	-0,051074
0,375833	0,1	-0,122863
0,377500	0,1	-0,112313
0,379167	0,1	-0,081048
0,380833	0,1	-0,038528
0,382500	0,1	-0,062385
0,384167	0,1	-0,096429
0,385833	0,1	-0,064285
0,387500	0,1	-0,051494
0,389167	0,1	-0,081119
0,390833	0,1	-0,043210
0,392500	0,1	-0,074694
0,394167	0,1	-0,094691
0,395833	0,1	-0,067350
0,397500	0,1	-0,081783
0,399167	0,1	-0,114435
0,400833	0,1	-0,083432
0,402500	0,1	-0,059910
0,404167	0,1	-0,045194
0,405833	0,1	-0,037049
0,407500	0,1	-0,078874
0,409167	0,1	-0,058789
0,410833	0,1	-0,054704
0,412500	0,1	-0,043617
0,414167	0,1	-0,081112
0,415833	0,1	-0,024854
0,417500	0,1	-0,032527
0,419167	0,1	-0,043488
0,420833	0,1	-0,030707
0,422500	0,1	-0,071414
0,424167	0,1	-0,036370
0,425833	0,1	-0,084698
0,427500	0,1	-0,060428
0,429167	0,1	-0,055449
0,430833	0,1	-0,058951
0,432500	0,1	-0,057376
0,434167	0,1	-0,048508
0,435833	0,1	-0,103782
0,437500	0,1	-0,049161
0,439167	0,1	-0,068893
0,440833	0,1	-0,047620
0,442500	0,1	-0,051903
0,444167	0,1	-0,071277
0,445833	0,1	-0,040990
0,447500	0,1	-0,068746
0,449167	0,1	-0,079919
0,450833	0,1	-0,027048
0,452500	0,1	-0,056105
0,454167	0,1	-0,089858
0,455833	0,1	-0,064386
0,457500	0,1	-0,026734
0,459167	0,1	-0,037231
0,460833	0,1	-0,045583
0,462500	0,1	-0,036344
0,464167	0,1	-0,078379
0,465833	0,1	-0,066787
0,467500	0,1	-0,068938
0,469167	0,1	-0,091935
0,470833	0,1	-0,047750
0,472500	0,1	-0,055238
0,474167	0,1	-0,056152
0,475833	0,1	-0,087480
0,477500	0,1	-0,041968
0,479167	0,1	-0,049270
0,480833	0,1	-0,053042
0,482500	0,1	-0,036533
0,484167	0,1	-0,087143
0,485833	0,1	-0,047044
0,487500	0,1	-0,033299
0,489167	0,1	-0,086229
0,490833	0,1	-0,065899
0,492500	0,1	-0,046046
0,494167	0,1	-0,066736
0,495833	0,1	-0,075569
0,497500	0,1	-0,013248
0,499167	0,1	-0,041019
0,500833	0,1	-0,005698
0,502500	0,1	-0,043130
0,504167	0,1	-0,066549
0,505833	0,1	-0,078386
0,507500	0,1	-0,054833
0,509167	0,1	-0,068584
0,510833	0,1	-0,092165
0,512500	0,1	-0,032273
0,514167	0,1	-0,020241
0,515833	0,1	-0,067354
0,517500	0,1	-0,058392
0,519167	0,1	-0,047804
0,520833	0,1	-0,051676
0,522500	0,1	-0,022172
0,524167	0,1	-0,051981
0,525833	0,1	-0,055863
0,527500	0,1	-0,047492
0,529167	0,1	-0,039556
0,530833	0,1	-0,036011
0,532500	0,1	-0,054304
0,534167	0,1	-0,031020
0,535833	0,1	-0,037294
0,537500	0,1	-0,066653
0,539167	0,1	-0,070452
0,540833	0,1	-0,030445
0,542500	0,1	-0,037998
0,544167	0,1	-0,063837
0,545833	0,1	-0,031416
0,547500	0,1	-0,033729
0,549167	0,1	-0,016636
0,550833	0,1	-0,086599
0,552500	0,1	-0,052266
0,554167	0,1	-0,015896
0,555833	0,1	-0,062981
0,557500	0,1	-0,031354
0,559167	0,1	-0,035491
0,560833	0,1	-0,029339
0,562500	0,1	-0,021567
0,564167	0,1	-0,062464
0,565833	0,1	-0,030587
0,567500	0,1	-0,047694
0,569167	0,1	-0,049563
0,570833	0,1	-0,004829
0,572500	0,1	-0,055417
0,574167	0,1	-0,045482
0,575833	0,1	-0,006237
0,577500	0,1	-0,049491
0,579167	0,1	-0,023561
0,580833	0,1	-0,012511
0,582500	0,1	0,026156
0,584167	0,1	-0,047079
0,585833	0,1	-0,006280
0,587500	0,1	-0,046404
0,589167	0,1	-0,007791
0,590833	0,1	-0,029581
0,592500	0,1	0,000252
0,594167	0,1	-0,044227
0,595833	0,1	-0,019644
0,597500	0,1	0,020417
0,599167	0,1	-0,054850
0,600833	0,1	-0,017988
0,602500	0,1	-0,015390
0,604167	0,1	-0,001921
0,605833	0,1	-0,028543
0,607500	0,1	-0,037520
0,609167	0,1	-0,005553
0,610833	0,1	-0,025435
0,612500	0,1	0,011213
0,614167	0,1	-0,030736
0,615833	0,1	-0,013506
0,617500	0,1	0,000938
0,619167	0,1	-0,008402
0,620833	0,1	-0,027343
0,622500	0,1	-0,038018
0,624167	0,1	-0,023205
0,625833	0,1	0,010344
0,627500	0,1	-0,016917
0,629167	0,1	0,010346
0,630833	0,1	0,000220
0,632500	0,1	-0,004942
0,634167	0,1	-0,001856
0,635833	0,1	-0,017726
0,637500	0,1	0,004585
0,639167	0,1	-0,001853
0,640833	0,1	-0,014908
0,642500	0,1	0,005394
0,644167	0,1	0,006517
0,645833	0,1	0,039422
0,647500	0,1	0,003438
0,649167	0,1	0,012629
0,650833	0,1	0,060976
0,652500	0,1	0,029406
0,654167	0,1	0,056647
0,655833	0,1	-0,008307
0,657500	0,1	0,053613
0,659167	0,1	-0,010359
0,660833	0,1	-0,024381
0,662500	0,1	0,015607
0,664167	0,1	0,039697
0,665833	0,1	0,015849
0,667500	0,1	0,048584
0,669167	0,1	0,018982
0,670833	0,1	0,040858
0,672500	0,1	-0,004123
0,674167	0,1	0,023485
0,675833	0,1	0,038932
0,677500	0,1	0,020720
0,679167	0,1	0,080831
0,680833	0,1	0,032584
0,682500	0,1	0,049564
0,684167	0,1	0,009553
0,685833	0,1	0,033665
0,687500	0,1	0,049189
0,689167	0,1	0,078660
0,690833	0,1	0,085677
0,692500	0,1	0,069612
0,694167	0,1	0,048704
0,695833	0,1	0,049672
0,697500	0,1	0,064406
0,699167	0,1	0,072098
0,700833	0,1	0,114174
0,702500	0,1	0,065582
0,704167	0,1	0,109461
0,705833	0,1	0,106699
0,707500	0,1	0,103792
0,709167	0,1	0,085245
0,710833	0,1	0,061102
0,712500	0,1	0,112635
0,714167	0,1	0,105555
0,715833	0,1	0,122384
0,717500	0,1	0,091282
0,719167	0,1	0,096414
0,720833	0,1	0,087853
0,722500	0,1	0,125758
0,724167	0,1	0,097974
0,725833	0,1	0,120957
0,727500	0,1	0,096070
0,729167	0,1	0,120871
0,730833	0,1	0,111224
0,732500	0,1	0,147596
0,734167	0,1	0,152467
0,735833	0,1	0,175462
0,737500	0,1	0,153457
0,739167	0,1	0,147580
0,740833	0,1	0,170284
0,742500	0,1	0,111111
0,744167	0,1	0,113792
0,745833	0,1	0,135676
0,747500	0,1	0,152742
0,749167	0,1	0,200121
0,750833	0,1	0,147263
0,752500	0,1	0,129650
0,754167	0,1	0,149174
0,755833	0,1	0,182869
0,757500	0,1	0,184442
0,759167	0,1	0,147802
0,760833	0,1	0,141821
0,762500	0,1	0,153486
0,764167	0,1	0,152972
0,765833	0,1	0,158894
0,767500	0,1	0,134428
0,769167	0,1	0,156243
0,770833	0,1	0,148703
0,772500	0,1	0,140385
0,774167	0,1	0,145838
0,775833	0,1	0,153135
0,777500	0,1	0,173925
0,779167	0,1	0,138463
0,780833	0,1	0,139286
0,782500	0,1	0,140445
0,784167	0,1	0,155704
0,785833	0,1	0,129338
0,787500	0,1	0,135994
0,789167	0,1	0,151974
0,790833	0,1	0,174279
0,792500	0,1	0,114841
0,794167	0,1	0,145126
0,795833	0,1	0,144365
0,797500	0,1	0,116282
0,799167	0,1	0,124565
0,800833	0,1	0,145254
0,802500	0,1	0,121360
0,804167	0,1	0,146098
0,805833	0,1	0,124409
0,807500	0,1	0,151328
0,809167	0,1	0,134274
0,810833	0,1	0,149880
0,812500	0,1	0,103082
0,814167	0,1	0,130596
0,815833	0,1	0,128487
0,817500	0,1	0,170190
0,819167	0,1	0,155397
0,820833	0,1	0,150693
0,822500	0,1	0,151246
0,824167	0,1	0,130168
0,825833	0,1	0,147991
0,827500	0,1	0,142338
0,829167	0,1	0,141443
0,830833	0,1	0,185942
0,832500	0,1	0,115815
0,834167	0,1	0,132527
0,835833	0,1	0,127039
0,837500	0,1	0,160425
0,839167	0,1	0,158631
0,840833	0,1	0,130107
0,842500	0,1	0,129192
0,844167	0,1	0,100444
0,845833	0,1	0,139668
0,847500	0,1	0,150689
0,849167	0,1	0,123000
0,850833	0,1	0,126331
0,852500	0,1	0,155738
0,854167	0,1	0,113991
0,855833	0,1	0,140088
0,857500	0,1	0,135431
0,859167	0,1	0,128816
0,860833	0,1	0,119428
0,862500	0,1	0,155057
0,864167	0,1	0,129615
0,865833	0,1	0,185234
0,867500	0,1	0,167092
0,869167	0,1	0,089945
0,870833	0,1	0,145097
0,872500	0,1	0,184015
0,874167	0,1	0,102056
0,875833	0,1	0,116172
0,877500	0,1	0,103779
0,879167	0,1	0,159551
0,880833	0,1	0,122094
0,882500	0,1	0,163321
0,884167	0,1	0,117320
0,885833	0,1	0,174472
0,887500	0,1	0,156769
0,889167	0,1	0,166920
0,890833	0,1	0,173376
0,892500	0,1	0,185283
0,894167	0,1	0,196562
0,895833	0,1	0,148686
0,897500	0,1	0,181094
0,899167	0,1	0,142220
0,900833	0,1	0,149670
0,902500	0,1	0,170522
0,904167	0,1	0,181187
0,905833	0,1	0,195303
0,907500	0,1	0,164651
0,909167	0,1	0,167628
0,910833	0,1	0,183441
0,912500	0,1	0,193463
0,914167	0,1	0,166602
0,915833	0,1	0,216215
0,917500	0,1	0,166520
0,919167	0,1	0,203752
0,920833	0,1	0,149380
0,922500	0,1	0,145425
0,924167	0,1	0,181472
0,925833	0,1	0,166953
0,927500	0,1	0,151464
0,929167	0,1	0,202617
0,930833	0,1	0,170045
0,932500	0,1	0,166344
0,934167	0,1	0,177784
0,935833	0,1	0,193500
0,937500	0,1	0,178559
0,939167	0,1	0,224572
0,940833	0,1	0,170579
0,942500	0,1	0,197038
0,944167	0,1	0,180199
0,945833	0,1	0,229651
0,947500	0,1	0,214277
0,949167	0,1	0,217901
0,950833	0,1	0,189363
0,952500	0,1	0,210854
0,954167	0,1	0,195661
0,955833	0,1	0,226795
0,957500	0,1	0,187627
0,959167	0,1	0,169525
0,960833	0,1	0,218070
0,962500	0,1	0,229923
0,964167	0,1	0,202119
0,965833	0,1	0,223257
0,967500	0,1	0,229335
0,969167	0,1	0,240841
0,970833	0,1	0,256044
0,972500	0,1	0,212834
0,974167	0,1	0,248550
0,975833	0,1	0,245246
0,977500	0,1	0,277898
0,979167	0,1	0,201941
0,980833	0,1	0,216894
0,982500	0,1	0,267100
0,984167	0,1	0,278255
0,985833	0,1	0,244836
0,987500	0,1	0,264562
0,989167	0,1	0,273403
0,990833	0,1	0,243359
0,992500	0,1	0,250332
0,994167	0,1	0,255919
0,995833	0,1	0,292457
0,997500	0,1	0,331873
0,999167	0,1	0,293409
1,000833	0,1	0,303075
1,002500	0,1	0,302950
1,004167	0,1	0,305069
1,005833	0,1	0,313356
1,007500	0,1	0,317667
1,009167	0,1	0,310215
1,010833	0,1	0,349877
1,012500	0,1	0,347797
1,014167	0,1	0,401156
1,015833	0,1	0,363782
1,017500	0,1	0,401352
1,019167	0,1	0,418174
1,020833	0,1	0,402040
1,022500	0,1	0,439104
1,024167	0,1	0,424903
1,025833	0,1	0,410913
1,027500	0,1	0,423834
1,029167	0,1	0,464508
1,030833	0,1	0,481139
1,032500	0,1	0,484648
1,034167	0,1	0,485451
1,035833	0,1	0,500276
1,037500	0,1	0,499507
1,039167	0,1	0,512048
1,040833	0,1	0,504235
1,042500	0,1	0,506776
1,044167	0,1	0,496777
1,045833	0,1	0,527706
1,047500	0,1	0,554919
1,049167	0,1	0,561163
1,050833	0,1	0,584060
1,052500	0,1	0,629772
1,054167	0,1	0,676324
1,055833	0,1	0,735292
1,057500	0,1	0,752729
1,059167	0,1	0,871372
1,060833	0,1	0,989024
1,062500	0,1	1,147493
1,064167	0,1	1,364450
1,065833	0,1	1,595171
1,067500	0,1	1,931814
1,069167	0,1	2,381683
1,070833	0,1	2,876966
1,072500	0,1	3,506338
1,074167	0,1	4,278693
1,075833	0,1	5,211189
1,077500	0,1	6,276230
1,079167	0,1	7,555760
1,080833	0,1	9,006748
1,082500	0,1	10,596766
1,084167	0,1	12,381269
1,085833	0,1	14,341146
1,087500	0,1	16,461302
1,089167	0,1	18,688544
1,090833	0,1	21,060879
1,092500	0,1	23,454116
1,094167	0,1	25,908847
1,095833	0,1	28,440096
1,097500	0,1	30,886034
1,099167	0,1	33,241571
1,100833	0,1	35,518508
1,102500	0,1	37,627708
1,104167	0,1	39,586242
1,105833	0,1	41,340647
1,107500	0,1	42,908123
1,109167	0,1	44,239338
1,110833	0,1	45,389977
1,112500	0,1	46,228009
1,114167	0,1	46,936695
1,115833	0,1	47,352747
1,117500	0,1	47,565504
1,119167	0,1	47,621247
1,120833	0,1	47,493406
1,122500	0,1	47,208488
1,124167	0,1	46,822179
1,125833	0,1	46,260469
1,127500	0,1	45,628323
1,129167	0,1	44,950001
1,130833	0,1	44,125020
1,132500	0,1	43,244928
1,134167	0,1	42,450861
1,135833	0,1	41,545410
1,137500	0,1	40,648433
1,139167	0,1	39,754943
1,140833	0,1	38,924446
1,142500	0,1	38,052804
1,144167	0,1	37,291989
1,145833	0,1	36,587792
1,147500	0,1	35,941489
1,149167	0,1	35,288248
1,150833	0,1	34,737944
1,152500	0,1	34,278026
1,154167	0,1	33,902023
1,155833	0,1	33,543402
1,157500	0,1	33,307517
1,159167	0,1	33,143650
1,160833	0,1	33,033132
1,162500	0,1	32,934483
1,164167	0,1	32,956206
1,165833	0,1	32,926927
1,167500	0,1	33,032889
1,169167	0,1	33,113368
1,170833	0,1	33,172577
1,172500	0,1	33,261515
1,174167	0,1	33,410320
1,175833	0,1	33,505925
1,177500	0,1	33,609886
1,179167	0,1	33,658890
1,180833	0,1	33,808326
1,182500	0,1	33,826376
1,184167	0,1	33,878124
1,185833	0,1	33,926273
1,187500	0,1	33,984313
1,189167	0,1	34,010049
1,190833	0,1	33,996199
1,192500	0,1	34,066286
1,194167	0,1	34,167238
1,195833	0,1	34,368717
1,197500	0,1	34,577336
1,199167	0,1	34,937068
1,200833	0,1	35,403921
1,202500	0,1	35,954188
1,204167	0,1	36,658503
1,205833	0,1	37,569142
1,207500	0,1	38,631957
1,209167	0,1	39,927100
1,210833	0,1	41,410452
1,212500	0,1	43,112537
1,214167	0,1	45,112401
1,215833	0,1	47,268290
1,217500	0,1	49,602163
1,219167	0,1	52,222719
1,220833	0,1	54,959040
1,222500	0,1	57,871264
1,224167	0,1	60,828987
1,225833	0,1	63,952342
1,227500	0,1	67,166213
1,229167	0,1	70,347394
1,230833	0,1	73,475765
1,232500	0,1	76,627136
1,234167	0,1	79,618897
1,235833	0,1	82,624293
1,237500	0,1	85,415090
1,239167	0,1	88,005461
1,240833	0,1	90,508377
1,242500	0,1	92,754639
1,244167	0,1	94,805224
1,245833	0,1	96,615228
1,247500	0,1	98,222594
1,249167	0,1	99,609807
1,250833	0,1	100,813217
1,252500	0,1	101,679111
1,254167	0,1	102,358839
1,255833	0,1	102,730935
1,257500	0,1	102,967617
1,259167	0,1	102,938972
1,260833	0,1	102,672091
1,262500	0,1	102,200566
1,264167	0,1	101,560991
1,265833	0,1	100,654901
1,267500	0,1	99,603684
1,269167	0,1	98,399679
1,270833	0,1	96,985691
1,272500	0,1	95,513837
1,274167	0,1	93,859947
1,275833	0,1	92,085573
1,277500	0,1	90,178999
1,279167	0,1	88,227674
1,280833	0,1	86,212520
1,282500	0,1	84,115972
1,284167	0,1	81,907132
1,285833	0,1	79,746626
1,287500	0,1	77,536346
1,289167	0,1	75,418760
1,290833	0,1	73,177797
1,292500	0,1	71,022266
1,294167	0,1	68,819121
1,295833	0,1	66,753628
1,297500	0,1	64,645872
1,299167	0,1	62,626771
1,300833	0,1	60,662269
1,302500	0,1	58,778943
1,304167	0,1	56,889089
1,305833	0,1	55,129487
1,307500	0,1	53,377922
1,309167	0,1	51,785871
1,310833	0,1	50,183541
1,312500	0,1	48,664909
1,314167	0,1	47,247375
1,315833	0,1	45,843528
1,317500	0,1	44,477463
1,319167	0,1	43,227437
1,320833	0,1	42,032113
1,322500	0,1	40,857440
1,324167	0,1	39,805566
1,325833	0,1	38,797711
1,327500	0,1	37,723317
1,329167	0,1	36,781495
1,330833	0,1	35,809644
1,332500	0,1	34,979526
1,334167	0,1	34,157105
1,335833	0,1	33,250320
1,337500	0,1	32,521208
1,339167	0,1	31,715753
1,340833	0,1	30,970816
1,342500	0,1	30,293765
1,344167	0,1	29,614786
1,345833	0,1	28,923033
1,347500	0,1	28,280455
1,349167	0,1	27,695496
1,350833	0,1	27,037073
1,352500	0,1	26,444334
1,354167	0,1	25,851756
1,355833	0,1	25,276907
1,357500	0,1	24,752595
1,359167	0,1	24,204489
1,360833	0,1	23,679508
1,362500	0,1	23,161699
1,364167	0,1	22,637137
1,365833	0,1	22,099868
1,367500	0,1	21,688549
1,369167	0,1	21,173585
1,370833	0,1	20,747732
1,372500	0,1	20,311877
1,374167	0,1	19,813654
1,375833	0,1	19,425069
1,377500	0,1	18,948993
1,379167	0,1	18,579938
1,380833	0,1	18,130971
1,382500	0,1	17,771716
1,384167	0,1	17,403776
1,385833	0,1	16,970316
1,387500	0,1	16,656912
1,389167	0,1	16,251489
1,390833	0,1	15,995661
1,392500	0,1	15,616308
1,394167	0,1	15,324796
1,395833	0,1	15,007458
1,397500	0,1	14,673166
1,399167	0,1	14,382975
1,400833	0,1	14,136013
1,402500	0,1	13,872718
1,404167	0,1	13,595835
1,405833	0,1	13,380049
1,407500	0,1	13,088553
1,409167	0,1	12,864219
1,410833	0,1	12,691419
1,412500	0,1	12,433279
1,414167	0,1	12,199878
1,415833	0,1	12,009055
1,417500	0,1	11,839374
1,419167	0,1	11,652138
1,420833	0,1	11,456833
1,422500	0,1	11,309720
1,424167	0,1	11,129353
1,425833	0,1	10,927440
1,427500	0,1	10,814375
1,429167	0,1	10,640917
1,430833	0,1	10,498716
1,432500	0,1	10,345115
1,434167	0,1	10,181024
1,435833	0,1	10,027076
1,437500	0,1	9,912754
1,439167	0,1	9,760228
1,440833	0,1	9,618211
1,442500	0,1	9,461564
1,444167	0,1	9,327140
1,445833	0,1	9,225740
1,447500	0,1	9,112395
1,449167	0,1	9,011815
1,450833	0,1	8,894974
1,452500	0,1	8,732164
1,454167	0,1	8,611273
1,455833	0,1	8,517083
1,457500	0,1	8,417259
1,459167	0,1	8,323896
1,460833	0,1	8,216051
1,462500	0,1	8,126534
1,464167	0,1	8,003542
1,465833	0,1	7,904237
1,467500	0,1	7,798268
1,469167	0,1	7,740575
1,470833	0,1	7,647357
1,472500	0,1	7,629952
1,474167	0,1	7,509693
1,475833	0,1	7,446643
1,477500	0,1	7,393981
1,479167	0,1	7,314825
1,480833	0,1	7,219643
1,482500	0,1	7,150955
1,484167	0,1	7,115584
1,485833	0,1	7,072392
1,487500	0,1	7,017262
1,489167	0,1	6,994495
1,490833	0,1	6,920640
1,492500	0,1	6,884077
1,494167	0,1	6,886862
1,495833	0,1	6,826642
1,497500	0,1	6,815906
1,499167	0,1	6,786075
1,500833	0,1	6,798654
1,502500	0,1	6,716736
1,504167	0,1	6,745322
1,505833	0,1	6,722405
1,507500	0,1	6,673098
1,509167	0,1	6,684175
1,510833	0,1	6,673199
1,512500	0,1	6,614577
1,514167	0,1	6,642608
1,515833	0,1	6,603945
1,517500	0,1	6,631425
1,519167	0,1	6,568538
1,520833	0,1	6,579807
1,522500	0,1	6,566299
1,524167	0,1	6,575517
1,525833	0,1	6,571789
1,527500	0,1	6,496618
1,529167	0,1	6,495857
1,530833	0,1	6,449293
1,532500	0,1	6,474324
1,534167	0,1	6,480759
1,535833	0,1	6,399072
1,537500	0,1	6,435771
1,539167	0,1	6,373185
1,540833	0,1	6,339736
1,542500	0,1	6,342436
1,544167	0,1	6,303702
1,545833	0,1	6,263930
1,547500	0,1	6,282859
1,549167	0,1	6,199356
1,550833	0,1	6,176388
1,552500	0,1	6,184718
1,554167	0,1	6,145403
1,555833	0,1	6,081742
1,557500	0,1	6,083516
1,559167	0,1	6,018088
1,560833	0,1	6,003996
1,562500	0,1	6,004817
1,564167	0,1	5,970363
1,565833	0,1	5,937397
1,567500	0,1	5,896247
1,569167	0,1	5,863448
1,570833	0,1	5,789736
1,572500	0,1	5,767991
1,574167	0,1	5,794514
1,575833	0,1	5,694775
1,577500	0,1	5,705221
1,579167	0,1	5,684311
1,580833	0,1	5,609236
1,582500	0,1	5,595837
1,584167	0,1	5,591057
1,585833	0,1	5,563145
1,587500	0,1	5,549563
1,589167	0,1	5,490576
1,590833	0,1	5,470810
1,592500	0,1	5,394203
1,594167	0,1	5,398610
1,595833	0,1	5,357468
1,597500	0,1	5,355507
1,599167	0,1	5,313325
1,600833	0,1	5,265458
1,602500	0,1	5,282793
1,604167	0,1	5,208461
1,605833	0,1	5,168173
1,607500	0,1	5,126762
1,609167	0,1	5,121467
1,610833	0,1	5,094083
1,612500	0,1	5,034684
1,614167	0,1	5,040715
1,615833	0,1	5,031845
1,617500	0,1	4,956133
1,619167	0,1	4,916568
1,620833	0,1	4,930567
1,622500	0,1	4,856201
1,624167	0,1	4,876436
1,625833	0,1	4,854775
1,627500	0,1	4,836561
1,629167	0,1	4,770610
1,630833	0,1	4,770409
1,632500	0,1	4,766178
1,634167	0,1	4,718991
1,635833	0,1	4,689710
1,637500	0,1	4,678997
1,639167	0,1	4,637110
1,640833	0,1	4,629393
1,642500	0,1	4,650234
1,644167	0,1	4,608208
1,645833	0,1	4,589468
1,647500	0,1	4,536483
1,649167	0,1	4,494402
1,650833	0,1	4,516778
1,652500	0,1	4,487660
1,654167	0,1	4,449900
1,655833	0,1	4,456099
1,657500	0,1	4,488577
1,659167	0,1	4,427301
1,660833	0,1	4,430656
1,662500	0,1	4,459742
1,664167	0,1	4,400247
1,665833	0,1	4,398040
1,667500	0,1	4,434371
1,669167	0,1	4,431456
1,670833	0,1	4,453198
1,672500	0,1	4,468660
1,674167	0,1	4,448993
1,675833	0,1	4,458566
1,677500	0,1	4,492965
1,679167	0,1	4,457884
1,680833	0,1	4,534658
1,682500	0,1	4,554764
1,684167	0,1	4,545528
1,685833	0,1	4,595861
1,687500	0,1	4,696607
1,689167	0,1	4,694732
1,690833	0,1	4,733542
1,692500	0,1	4,780077
1,694167	0,1	4,838605
1,695833	0,1	4,859459
1,697500	0,1	4,946827
1,699167	0,1	4,975798
1,700833	0,1	5,090149
1,702500	0,1	5,134792
1,704167	0,1	5,213602
1,705833	0,1	5,265434
1,707500	0,1	5,330124
1,709167	0,1	5,398878
1,710833	0,1	5,456802
1,712500	0,1	5,487064
1,714167	0,1	5,608102
1,715833	0,1	5,660839
1,717500	0,1	5,685369
1,719167	0,1	5,775847
1,720833	0,1	5,800888
1,722500	0,1	5,901454
1,724167	0,1	5,930217
1,725833	0,1	6,001220
1,727500	0,1	6,095694
1,729167	0,1	6,121467
1,730833	0,1	6,153689
1,732500	0,1	6,198090
1,734167	0,1	6,221648
1,735833	0,1	6,290811
1,737500	0,1	6,308432
1,739167	0,1	6,340191
1,740833	0,1	6,370645
1,742500	0,1	6,367202
1,744167	0,1	6,363680
1,745833	0,1	6,386583
1,747500	0,1	6,421523
1,749167	0,1	6,425140
1,750833	0,1	6,404107
1,752500	0,1	6,387138
1,754167	0,1	6,357066
1,755833	0,1	6,376969
1,757500	0,1	6,323345
1,759167	0,1	6,357713
1,760833	0,1	6,316008
1,762500	0,1	6,281077
1,764167	0,1	6,226589
1,765833	0,1	6,210487
1,767500	0,1	6,168492
1,769167	0,1	6,090395
1,770833	0,1	6,094220
1,772500	0,1	6,050285
1,774167	0,1	6,011656
1,775833	0,1	5,955328
1,777500	0,1	5,907512
1,779167	0,1	5,829387
1,780833	0,1	5,791328
1,782500	0,1	5,716764
1,784167	0,1	5,668975
1,785833	0,1	5,581490
1,787500	0,1	5,528816
1,789167	0,1	5,464985
1,790833	0,1	5,379400
1,792500	0,1	5,346848
1,794167	0,1	5,265049
1,795833	0,1	5,224822
1,797500	0,1	5,145789
1,799167	0,1	5,094340
1,800833	0,1	4,996347
1,802500	0,1	4,940247
1,804167	0,1	4,844460
1,805833	0,1	4,773924
1,807500	0,1	4,737457
1,809167	0,1	4,663260
1,810833	0,1	4,600268
1,812500	0,1	4,569826
1,814167	0,1	4,487717
1,815833	0,1	4,437965
1,817500	0,1	4,349345
1,819167	0,1	4,274394
1,820833	0,1	4,210851
1,822500	0,1	4,156154
1,824167	0,1	4,090076
1,825833	0,1	4,008125
1,827500	0,1	3,984002
1,829167	0,1	3,980480
1,830833	0,1	3,892272
1,832500	0,1	3,844213
1,834167	0,1	3,825408
1,835833	0,1	3,772285
1,837500	0,1	3,787049
1,839167	0,1	3,750358
1,840833	0,1	3,776203
1,842500	0,1	3,691382
1,844167	0,1	3,716360
1,845833	0,1	3,743909
1,847500	0,1	3,729029
1,849167	0,1	3,697456
1,850833	0,1	3,780804
1,852500	0,1	3,752047
1,854167	0,1	3,812361
1,855833	0,1	3,842138
1,857500	0,1	3,847806
1,859167	0,1	3,907158
1,860833	0,1	3,903432
1,862500	0,1	3,940104
1,864167	0,1	3,959727
1,865833	0,1	3,975235
1,867500	0,1	3,992253
1,869167	0,1	4,063624
1,870833	0,1	4,069110
1,872500	0,1	4,121833
1,874167	0,1	4,115526
1,875833	0,1	4,163713
1,877500	0,1	4,209244
1,879167	0,1	4,191296
1,880833	0,1	4,239370
1,882500	0,1	4,255759
1,884167	0,1	4,229737
1,885833	0,1	4,302786
1,887500	0,1	4,308362
1,889167	0,1	4,325639
1,890833	0,1	4,340484
1,892500	0,1	4,353987
1,894167	0,1	4,380586
1,895833	0,1	4,400752
1,897500	0,1	4,424884
1,899167	0,1	4,404977
1,900833	0,1	4,396631
1,902500	0,1	4,427764
1,904167	0,1	4,447813
1,905833	0,1	4,407457
1,907500	0,1	4,453438
1,909167	0,1	4,456174
1,910833	0,1	4,453661
1,912500	0,1	4,472762
1,914167	0,1	4,469275
1,915833	0,1	4,461807
1,917500	0,1	4,486869
1,919167	0,1	4,419557
1,920833	0,1	4,437421
1,922500	0,1	4,420239
1,924167	0,1	4,403521
1,925833	0,1	4,419897
1,927500	0,1	4,394682
1,929167	0,1	4,404567
1,930833	0,1	4,406792
1,932500	0,1	4,378822
1,934167	0,1	4,310042
1,935833	0,1	4,319512
1,937500	0,1	4,315296
1,939167	0,1	4,290849
1,940833	0,1	4,251393
1,942500	0,1	4,217493
1,944167	0,1	4,215377
1,945833	0,1	4,199690
1,947500	0,1	4,182500
1,949167	0,1	4,156270
1,950833	0,1	4,165747
1,952500	0,1	4,134947
1,954167	0,1	4,122581
1,955833	0,1	4,103565
1,957500	0,1	4,076166
1,959167	0,1	4,071258
1,960833	0,1	4,030613
1,962500	0,1	4,027683
1,964167	0,1	3,975376
1,965833	0,1	3,967220
1,967500	0,1	3,975202
1,969167	0,1	3,948990
1,970833	0,1	3,913540
1,972500	0,1	3,923732
1,974167	0,1	3,906608
1,975833	0,1	3,873677
1,977500	0,1	3,874668
1,979167	0,1	3,874600
1,980833	0,1	3,857421
1,982500	0,1	3,842228
1,984167	0,1	3,823305
1,985833	0,1	3,800873
1,987500	0,1	3,803618
1,989167	0,1	3,785350
1,990833	0,1	3,785583
1,992500	0,1	3,786484
1,994167	0,1	3,784209
1,995833	0,1	3,748792
1,997500	0,1	3,742621
1,999167	0,1	3,740961
2,000833	0,1	3,738241
2,002500	0,1	3,732853
2,004167	0,1	3,773969
2,005833	0,1	3,741853
2,007500	0,1	3,724432
2,009167	0,1	3,718644
2,010833	0,1	3,732738
2,012500	0,1	3,732487
2,014167	0,1	3,725568
2,015833	0,1	3,752935
2,017500	0,1	3,732874
2,019167	0,1	3,714458
2,020833	0,1	3,754116
2,022500	0,1	3,702741
2,024167	0,1	3,777043
2,025833	0,1	3,720583
2,027500	0,1	3,724663
2,029167	0,1	3,715200
2,030833	0,1	3,761940
2,032500	0,1	3,728923
2,034167	0,1	3,735758
2,035833	0,1	3,762577
2,037500	0,1	3,795674
2,039167	0,1	3,812054
2,040833	0,1	3,759846
2,042500	0,1	3,803370
2,044167	0,1	3,820421
2,045833	0,1	3,803608
2,047500	0,1	3,834153
2,049167	0,1	3,858106
2,050833	0,1	3,823137
2,052500	0,1	3,834774
2,054167	0,1	3,822531
2,055833	0,1	3,888631
2,057500	0,1	3,901700
2,059167	0,1	3,865454
2,060833	0,1	3,905174
2,062500	0,1	3,925240
2,064167	0,1	3,932660
2,065833	0,1	3,924678
2,067500	0,1	3,938573
2,069167	0,1	3,924137
2,070833	0,1	3,959315
2,072500	0,1	3,934806
2,074167	0,1	3,993257
2,075833	0,1	3,936599
2,077500	0,1	4,007643
2,079167	0,1	4,039848
2,080833	0,1	4,004384
2,082500	0,1	3,987279
2,084167	0,1	3,975767
2,085833	0,1	3,993267
2,087500	0,1	4,009967
2,089167	0,1	4,015447
2,090833	0,1	4,060784
2,092500	0,1	4,044065
2,094167	0,1	4,062215
2,095833	0,1	4,061936
2,097500	0,1	4,109552
2,099167	0,1	4,066240
2,100833	0,1	4,050508
2,102500	0,1	4,082360
2,104167	0,1	4,130431
2,105833	0,1	4,113701
2,107500	0,1	4,089383
2,109167	0,1	4,092454
2,110833	0,1	4,123092
2,112500	0,1	4,097730
2,114167	0,1	4,135945
2,115833	0,1	4,085815
2,117500	0,1	4,134400
2,119167	0,1	4,107096
2,120833	0,1	4,088285
2,122500	0,1	4,084465
2,124167	0,1	4,102790
2,125833	0,1	4,095904
2,127500	0,1	4,180693
2,129167	0,1	4,136977
2,130833	0,1	4,111193
2,132500	0,1	4,117913
2,134167	0,1	4,096797
2,135833	0,1	4,095254
2,137500	0,1	4,069847
2,139167	0,1	4,087020
2,140833	0,1	4,143277
2,142500	0,1	4,113140
2,144167	0,1	4,077022
2,145833	0,1	4,083212
2,147500	0,1	4,087104
2,149167	0,1	4,066271
2,150833	0,1	4,069396
2,152500	0,1	4,033286
2,154167	0,1	4,038997
2,155833	0,1	4,045555
2,157500	0,1	4,053947
2,159167	0,1	4,087991
2,160833	0,1	4,026246
2,162500	0,1	4,002195
2,164167	0,1	4,043884
2,165833	0,1	3,994828
2,167500	0,1	4,016172
2,169167	0,1	4,014838
2,170833	0,1	3,973135
2,172500	0,1	4,026985
2,174167	0,1	3,962943
2,175833	0,1	4,033341
2,177500	0,1	3,978059
2,179167	0,1	3,949719
2,180833	0,1	4,029252
2,182500	0,1	3,964400
2,184167	0,1	3,950729
2,185833	0,1	3,933587
2,187500	0,1	3,971188
2,189167	0,1	3,941735
2,190833	0,1	3,967540
2,192500	0,1	3,929100
2,194167	0,1	3,916935
2,195833	0,1	3,960644
2,197500	0,1	3,888390
2,199167	0,1	3,916321
2,200833	0,1	3,873747
2,202500	0,1	3,887232
2,204167	0,1	3,875899
2,205833	0,1	3,917082
2,207500	0,1	3,892188
2,209167	0,1	3,864064
2,210833	0,1	3,910677
2,212500	0,1	3,882182
2,214167	0,1	3,894171
2,215833	0,1	3,873423
2,217500	0,1	3,895624
2,219167	0,1	3,872331
2,220833	0,1	3,888118
2,222500	0,1	3,911831
2,224167	0,1	3,876212
2,225833	0,1	3,900321
2,227500	0,1	3,921954
2,229167	0,1	3,872099
2,230833	0,1	3,937922
2,232500	0,1	3,903895
2,234167	0,1	3,904057
2,235833	0,1	3,908105
2,237500	0,1	3,929289
2,239167	0,1	3,890442
2,240833	0,1	3,907816
2,242500	0,1	3,919806
2,244167	0,1	3,937070
2,245833	0,1	3,931277
2,247500	0,1	3,935457
2,249167	0,1	3,955312
2,250833	0,1	3,961470
2,252500	0,1	3,953853
2,254167	0,1	3,952644
2,255833	0,1	3,956001
2,257500	0,1	3,971239
2,259167	0,1	3,995830
2,260833	0,1	3,953658
2,262500	0,1	3,955715
2,264167	0,1	3,942752
2,265833	0,1	3,984272
2,267500	0,1	3,933685
2,269167	0,1	3,917867
2,270833	0,1	3,927712
2,272500	0,1	3,933432
2,274167	0,1	3,930581
2,275833	0,1	3,929251
2,277500	0,1	3,930387
2,279167	0,1	3,918435
2,280833	0,1	3,951784
2,282500	0,1	3,927525
2,284167	0,1	3,923098
2,285833	0,1	3,926337
2,287500	0,1	3,919118
2,289167	0,1	3,897409
2,290833	0,1	3,914777
2,292500	0,1	3,871119
2,294167	0,1	3,904651
2,295833	0,1	3,882022
2,297500	0,1	3,872976
2,299167	0,1	3,860343
2,300833	0,1	3,821445
2,302500	0,1	3,815114
2,304167	0,1	3,827803
2,305833	0,1	3,810958
2,307500	0,1	3,803906
2,309167	0,1	3,802322
2,310833	0,1	3,795857
2,312500	0,1	3,769640
2,314167	0,1	3,779842
2,315833	0,1	3,762762
2,317500	0,1	3,760071
2,319167	0,1	3,696372
2,320833	0,1	3,719758
2,322500	0,1	3,672110
2,324167	0,1	3,679382
2,325833	0,1	3,668752
2,327500	0,1	3,633880
2,329167	0,1	3,667241
2,330833	0,1	3,619422
2,332500	0,1	3,627930
2,334167	0,1	3,624802
2,335833	0,1	3,630651
2,337500	0,1	3,593349
2,339167	0,1	3,575904
2,340833	0,1	3,556163
2,342500	0,1	3,527895
2,344167	0,1	3,561641
2,345833	0,1	3,532016
2,347500	0,1	3,483054
2,349167	0,1	3,470532
2,350833	0,1	3,455509
2,352500	0,1	3,445638
2,354167	0,1	3,472182
2,355833	0,1	3,434582
2,357500	0,1	3,404122
2,359167	0,1	3,404166
2,360833	0,1	3,365167
2,362500	0,1	3,357437
2,364167	0,1	3,371474
2,365833	0,1	3,372048
2,367500	0,1	3,345269
2,369167	0,1	3,309846
2,370833	0,1	3,380632
2,372500	0,1	3,335591
2,374167	0,1	3,341354
2,375833	0,1	3,363677
2,377500	0,1	3,388281
2,379167	0,1	3,412760
2,380833	0,1	3,372912
2,382500	0,1	3,407470
2,384167	0,1	3,380002
2,385833	0,1	3,377667
2,387500	0,1	3,443003
2,389167	0,1	3,446229
2,390833	0,1	3,481738
2,392500	0,1	3,500111
2,394167	0,1	3,554224
2,395833	0,1	3,613460
2,397500	0,1	3,645240
2,399167	0,1	3,698810
2,400833	0,1	3,783050
2,402500	0,1	3,838402
2,404167	0,1	3,954711
2,405833	0,1	4,019805
2,407500	0,1	4,118374
2,409167	0,1	4,226542
2,410833	0,1	4,326832
2,412500	0,1	4,437891
2,414167	0,1	4,522084
2,415833	0,1	4,673179
2,417500	0,1	4,839283
2,419167	0,1	5,025045
2,420833	0,1	5,167251
2,422500	0,1	5,366714
2,424167	0,1	5,524575
2,425833	0,1	5,676826
2,427500	0,1	5,879389
2,429167	0,1	6,080197
2,430833	0,1	6,248888
2,432500	0,1	6,518618
2,434167	0,1	6,686471
2,435833	0,1	6,903875
2,437500	0,1	7,160856
2,439167	0,1	7,362928
2,440833	0,1	7,577533
2,442500	0,1	7,818814
2,444167	0,1	8,043069
2,445833	0,1	8,241652
2,447500	0,1	8,519213
2,449167	0,1	8,713797
2,450833	0,1	8,944834
2,452500	0,1	9,147853
2,454167	0,1	9,338288
2,455833	0,1	9,525668
2,457500	0,1	9,721231
2,459167	0,1	9,967288
2,460833	0,1	10,139792
2,462500	0,1	10,319260
2,464167	0,1	10,501872
2,465833	0,1	10,645506
2,467500	0,1	10,829897
2,469167	0,1	11,004333
2,470833	0,1	11,130565
2,472500	0,1	11,296701
2,474167	0,1	11,443557
2,475833	0,1	11,585018
2,477500	0,1	11,760038
2,479167	0,1	11,839470
2,480833	0,1	11,959213
2,482500	0,1	12,149477
2,484167	0,1	12,211467
2,485833	0,1	12,357583
2,487500	0,1	12,561568
2,489167	0,1	12,611684
2,490833	0,1	12,796204
2,492500	0,1	12,927701
2,494167	0,1	13,073276
2,495833	0,1	13,259560
2,497500	0,1	13,372120
2,499167	0,1	13,596168
2,500833	0,1	13,713082
2,502500	0,1	13,928181
2,504167	0,1	14,112603
2,505833	0,1	14,273060
2,507500	0,1	14,508297
2,509167	0,1	14,720127
2,510833	0,1	14,952518
2,512500	0,1	15,241487
2,514167	0,1	15,452623
2,515833	0,1	15,768150
2,517500	0,1	16,041663
2,519167	0,1	16,356033
2,520833	0,1	16,687734
2,522500	0,1	17,020854
2,524167	0,1	17,377875
2,525833	0,1	17,724029
2,527500	0,1	18,104620
2,529167	0,1	18,522638
2,530833	0,1	18,882287
2,532500	0,1	19,284634
2,534167	0,1	19,725300
2,535833	0,1	20,235011
2,537500	0,1	20,603968
2,539167	0,1	21,096329
2,540833	0,1	21,558750
2,542500	0,1	22,002346
2,544167	0,1	22,535380
2,545833	0,1	22,991821
2,547500	0,1	23,522977
2,549167	0,1	23,958571
2,550833	0,1	24,506581
2,552500	0,1	24,915115
2,554167	0,1	25,467394
2,555833	0,1	25,902123
2,557500	0,1	26,375752
2,559167	0,1	26,825394
2,560833	0,1	27,303795
2,562500	0,1	27,750673
2,564167	0,1	28,152784
2,565833	0,1	28,642383
2,567500	0,1	29,053319
2,569167	0,1	29,440932
2,570833	0,1	29,830636
2,572500	0,1	30,210805
2,574167	0,1	30,556154
2,575833	0,1	30,930964
2,577500	0,1	31,181778
2,579167	0,1	31,549001
2,580833	0,1	31,770966
2,582500	0,1	32,065965
2,584167	0,1	32,297762
2,585833	0,1	32,516882
2,587500	0,1	32,743098
2,589167	0,1	32,910400
2,590833	0,1	33,088715
2,592500	0,1	33,218619
2,594167	0,1	33,392261
2,595833	0,1	33,466522
2,597500	0,1	33,551691
2,599167	0,1	33,619245
2,600833	0,1	33,677927
2,602500	0,1	33,720699
2,604167	0,1	33,732211
2,605833	0,1	33,726524
2,607500	0,1	33,723601
2,609167	0,1	33,723351
2,610833	0,1	33,645680
2,612500	0,1	33,579295
2,614167	0,1	33,477712
2,615833	0,1	33,402048
2,617500	0,1	33,297364
2,619167	0,1	33,158396
2,620833	0,1	33,012052
2,622500	0,1	32,873316
2,624167	0,1	32,723311
2,625833	0,1	32,523185
2,627500	0,1	32,355003
2,629167	0,1	32,113972
2,630833	0,1	31,904676
2,632500	0,1	31,692319
2,634167	0,1	31,441037
2,635833	0,1	31,226880
2,637500	0,1	30,952059
2,639167	0,1	30,674599
2,640833	0,1	30,421783
2,642500	0,1	30,172732
2,644167	0,1	29,842218
2,645833	0,1	29,549205
2,647500	0,1	29,237489
2,649167	0,1	28,981423
2,650833	0,1	28,648352
2,652500	0,1	28,331231
2,654167	0,1	27,949344
2,655833	0,1	27,635127
2,657500	0,1	27,282289
2,659167	0,1	26,931151
2,660833	0,1	26,627127
2,662500	0,1	26,264528
2,664167	0,1	25,938259
2,665833	0,1	25,578495
2,667500	0,1	25,210851
2,669167	0,1	24,849711
2,670833	0,1	24,480054
2,672500	0,1	24,122224
2,674167	0,1	23,749531
2,675833	0,1	23,420955
2,677500	0,1	22,997548
2,679167	0,1	22,656919
2,680833	0,1	22,288625
2,682500	0,1	21,947442
2,684167	0,1	21,570045
2,685833	0,1	21,229676
2,687500	0,1	20,850733
2,689167	0,1	20,501439
2,690833	0,1	20,206311
2,692500	0,1	19,844057
2,694167	0,1	19,480762
2,695833	0,1	19,125918
2,697500	0,1	18,814941
2,699167	0,1	18,441274
2,700833	0,1	18,148323
2,702500	0,1	17,814833
2,704167	0,1	17,520683
2,705833	0,1	17,194641
2,707500	0,1	16,878995
2,709167	0,1	16,601084
2,710833	0,1	16,306945
2,712500	0,1	16,002080
2,714167	0,1	15,690357
2,715833	0,1	15,425059
2,717500	0,1	15,115746
2,719167	0,1	14,884962
2,720833	0,1	14,625209
2,722500	0,1	14,315274
2,724167	0,1	14,107068
2,725833	0,1	13,856524
2,727500	0,1	13,622086
2,729167	0,1	13,358517
2,730833	0,1	13,137527
2,732500	0,1	12,972814
2,734167	0,1	12,730199
2,735833	0,1	12,477459
2,737500	0,1	12,273103
2,739167	0,1	12,082573
2,740833	0,1	11,871704
2,742500	0,1	11,664911
2,744167	0,1	11,480737
2,745833	0,1	11,282791
2,747500	0,1	11,117499
2,749167	0,1	10,921114
2,750833	0,1	10,771350
2,752500	0,1	10,597958
2,754167	0,1	10,431751
2,755833	0,1	10,282108
2,757500	0,1	10,121077
2,759167	0,1	9,975532
2,760833	0,1	9,783110
2,762500	0,1	9,664318
2,764167	0,1	9,511735
2,765833	0,1	9,414058
2,767500	0,1	9,238227
2,769167	0,1	9,120785
2,770833	0,1	8,931356
2,772500	0,1	8,865308
2,774167	0,1	8,735785
2,775833	0,1	8,600488
2,777500	0,1	8,451380
2,779167	0,1	8,364144
2,780833	0,1	8,216220
2,782500	0,1	8,105118
2,784167	0,1	8,035990
2,785833	0,1	7,899455
2,787500	0,1	7,799620
2,789167	0,1	7,687348
2,790833	0,1	7,523726
2,792500	0,1	7,489399
2,794167	0,1	7,356474
2,795833	0,1	7,256399
2,797500	0,1	7,149273
2,799167	0,1	7,067823
2,800833	0,1	6,917020
2,802500	0,1	6,870557
2,804167	0,1	6,767548
2,805833	0,1	6,711051
2,807500	0,1	6,614595
2,809167	0,1	6,528590
2,810833	0,1	6,449113
2,812500	0,1	6,318355
2,814167	0,1	6,241045
2,815833	0,1	6,105688
2,817500	0,1	6,047109
2,819167	0,1	6,021720
2,820833	0,1	5,900116
2,822500	0,1	5,855371
2,824167	0,1	5,784790
2,825833	0,1	5,686437
2,827500	0,1	5,580582
2,829167	0,1	5,511988
2,830833	0,1	5,472073
2,832500	0,1	5,397353
2,834167	0,1	5,302024
2,835833	0,1	5,264488
2,837500	0,1	5,168661
2,839167	0,1	5,069369
2,840833	0,1	5,008402
2,842500	0,1	4,964379
2,844167	0,1	4,879006
2,845833	0,1	4,799679
2,847500	0,1	4,815261
2,849167	0,1	4,727077
2,850833	0,1	4,681955
2,852500	0,1	4,602952
2,854167	0,1	4,535308
2,855833	0,1	4,446487
2,857500	0,1	4,390141
2,859167	0,1	4,357446
2,860833	0,1	4,305574
2,862500	0,1	4,219776
2,864167	0,1	4,189678
2,865833	0,1	4,202561
2,867500	0,1	4,083849
2,869167	0,1	4,069395
2,870833	0,1	4,027503
2,872500	0,1	3,951595
2,874167	0,1	3,919214
2,875833	0,1	3,824130
2,877500	0,1	3,828943
2,879167	0,1	3,788532
2,880833	0,1	3,702495
2,882500	0,1	3,671015
2,884167	0,1	3,606206
2,885833	0,1	3,628035
2,887500	0,1	3,568889
2,889167	0,1	3,506345
2,890833	0,1	3,492941
2,892500	0,1	3,462039
2,894167	0,1	3,407881
2,895833	0,1	3,365220
2,897500	0,1	3,292585
2,899167	0,1	3,286973
2,900833	0,1	3,266654
2,902500	0,1	3,248892
2,904167	0,1	3,192533
2,905833	0,1	3,173754
2,907500	0,1	3,098052
2,909167	0,1	3,116034
2,910833	0,1	3,056619
2,912500	0,1	2,977232
2,914167	0,1	3,034593
2,915833	0,1	2,938919
2,917500	0,1	2,942022
2,919167	0,1	2,912532
2,920833	0,1	2,881170
2,922500	0,1	2,870804
2,924167	0,1	2,837902
2,925833	0,1	2,816335
2,927500	0,1	2,782589
2,929167	0,1	2,791120
2,930833	0,1	2,683114
2,932500	0,1	2,752012
2,934167	0,1	2,708460
2,935833	0,1	2,675041
2,937500	0,1	2,631384
2,939167	0,1	2,655421
2,940833	0,1	2,642226
2,942500	0,1	2,569285
2,944167	0,1	2,582735
2,945833	0,1	2,503499
2,947500	0,1	2,547477
2,949167	0,1	2,508077
2,950833	0,1	2,499458
2,952500	0,1	2,519254
2,954167	0,1	2,454959
2,955833	0,1	2,463475
2,957500	0,1	2,439650
2,959167	0,1	2,432112
2,960833	0,1	2,383959
2,962500	0,1	2,381719
2,964167	0,1	2,325823
2,965833	0,1	2,312030
2,967500	0,1	2,331395
2,969167	0,1	2,313758
2,970833	0,1	2,293369
2,972500	0,1	2,273998
2,974167	0,1	2,271409
2,975833	0,1	2,245862
2,977500	0,1	2,196292
2,979167	0,1	2,177772
2,980833	0,1	2,193837
2,982500	0,1	2,199363
2,984167	0,1	2,185951
2,985833	0,1	2,174974
2,987500	0,1	2,178702
2,989167	0,1	2,168588
2,990833	0,1	2,193976
2,992500	0,1	2,078081
2,994167	0,1	2,092254
2,995833	0,1	2,103085
2,997500	0,1	2,106030
2,999167	0,1	2,077916
3,000833	0,1	2,114485
3,002500	0,1	2,058123
3,004167	0,1	2,094185
3,005833	0,1	2,077771
3,007500	0,1	2,073608
3,009167	0,1	2,076332
3,010833	0,1	2,063999
3,012500	0,1	2,027638
3,014167	0,1	2,004185
3,015833	0,1	1,983306
3,017500	0,1	2,052933
3,019167	0,1	2,017456
3,020833	0,1	1,996510
3,022500	0,1	2,001239
3,024167	0,1	1,955997
3,025833	0,1	1,985382
3,027500	0,1	1,940940
3,029167	0,1	1,934400
3,030833	0,1	1,918918
3,032500	0,1	1,940064
3,034167	0,1	1,951898
3,035833	0,1	1,940576
3,037500	0,1	1,902219
3,039167	0,1	1,882570
3,040833	0,1	1,849021
3,042500	0,1	1,900483
3,044167	0,1	1,855399
3,045833	0,1	1,882351
3,047500	0,1	1,872450
3,049167	0,1	1,803503
3,050833	0,1	1,835308
3,052500	0,1	1,845210
3,054167	0,1	1,873388
3,055833	0,1	1,800564
3,057500	0,1	1,824705
3,059167	0,1	1,810739
3,060833	0,1	1,788939
3,062500	0,1	1,783124
3,064167	0,1	1,801130
3,065833	0,1	1,794097
3,067500	0,1	1,798693
3,069167	0,1	1,813313
3,070833	0,1	1,797618
3,072500	0,1	1,750877
3,074167	0,1	1,765434
3,075833	0,1	1,749516
3,077500	0,1	1,730600
3,079167	0,1	1,748148
3,080833	0,1	1,755689
3,082500	0,1	1,720703
3,084167	0,1	1,755388
3,085833	0,1	1,734689
3,087500	0,1	1,751373
3,089167	0,1	1,736544
3,090833	0,1	1,681292
3,092500	0,1	1,714820
3,094167	0,1	1,688669
3,095833	0,1	1,680566
3,097500	0,1	1,671895
3,099167	0,1	1,666508
3,100833	0,1	1,693038
3,102500	0,1	1,691964
3,104167	0,1	1,726135
3,105833	0,1	1,714332
3,107500	0,1	1,685740
3,109167	0,1	1,752231
3,110833	0,1	1,720212
3,112500	0,1	1,746009
3,114167	0,1	1,727088
3,115833	0,1	1,698212
3,117500	0,1	1,757673
3,119167	0,1	1,738769
3,120833	0,1	1,737420
3,122500	0,1	1,771240
3,124167	0,1	1,757761
3,125833	0,1	1,763422
3,127500	0,1	1,744435
3,129167	0,1	1,768508
3,130833	0,1	1,796120
3,132500	0,1	1,793029
3,134167	0,1	1,781840
3,135833	0,1	1,826561
3,137500	0,1	1,823499
3,139167	0,1	1,851299
3,140833	0,1	1,837262
3,142500	0,1	1,826426
3,144167	0,1	1,847929
3,145833	0,1	1,883344
3,147500	0,1	1,880413
3,149167	0,1	1,883567
3,150833	0,1	1,875319
3,152500	0,1	1,914892
3,154167	0,1	1,919270
3,155833	0,1	1,927019
3,157500	0,1	1,904647
3,159167	0,1	1,955116
3,160833	0,1	1,931680
3,162500	0,1	1,995417
3,164167	0,1	1,974570
3,165833	0,1	1,945232
3,167500	0,1	1,990253
3,169167	0,1	2,000735
3,170833	0,1	1,989835
3,172500	0,1	2,019520
3,174167	0,1	2,027342
3,175833	0,1	1,984322
3,177500	0,1	2,016720
3,179167	0,1	2,028347
3,180833	0,1	2,037171
3,182500	0,1	2,023400
3,184167	0,1	2,028851
3,185833	0,1	2,033801
3,187500	0,1	1,997444
3,189167	0,1	2,033216
3,190833	0,1	2,042042
3,192500	0,1	2,047214
3,194167	0,1	2,057898
3,195833	0,1	2,025487
3,197500	0,1	2,029640
3,199167	0,1	2,015222
3,200833	0,1	1,986397
3,202500	0,1	2,006253
3,204167	0,1	2,022247
3,205833	0,1	2,023329
3,207500	0,1	2,008486
3,209167	0,1	2,000023
3,210833	0,1	1,967534
3,212500	0,1	2,003239
3,214167	0,1	1,973206
3,215833	0,1	1,998867
3,217500	0,1	2,015294
3,219167	0,1	1,937006
3,220833	0,1	1,944876
3,222500	0,1	1,966739
3,224167	0,1	1,950401
3,225833	0,1	1,941866
3,227500	0,1	1,938858
3,229167	0,1	1,896843
3,230833	0,1	1,896117
3,232500	0,1	1,897622
3,234167	0,1	1,889598
3,235833	0,1	1,840137
3,237500	0,1	1,897900
3,239167	0,1	1,904362
3,240833	0,1	1,800438
3,242500	0,1	1,830792
3,244167	0,1	1,816538
3,245833	0,1	1,816402
3,247500	0,1	1,771534
3,249167	0,1	1,760551
3,250833	0,1	1,748519
3,252500	0,1	1,721276
3,254167	0,1	1,706717
3,255833	0,1	1,702145
3,257500	0,1	1,682809
3,259167	0,1	1,731168
3,260833	0,1	1,714124
3,262500	0,1	1,665811
3,264167	0,1	1,651632
3,265833	0,1	1,659784
3,267500	0,1	1,623332
3,269167	0,1	1,615945
3,270833	0,1	1,607770
3,272500	0,1	1,604484
3,274167	0,1	1,557807
3,275833	0,1	1,590844
3,277500	0,1	1,543735
3,279167	0,1	1,541284
3,280833	0,1	1,507245
3,282500	0,1	1,511611
3,284167	0,1	1,469579
3,285833	0,1	1,480008
3,287500	0,1	1,482831
3,289167	0,1	1,486192
3,290833	0,1	1,439531
3,292500	0,1	1,433417
3,294167	0,1	1,449788
3,295833	0,1	1,397236
3,297500	0,1	1,398814
3,299167	0,1	1,439837
3,300833	0,1	1,388309
3,302500	0,1	1,354638
3,304167	0,1	1,352547
3,305833	0,1	1,391715
3,307500	0,1	1,363689
3,309167	0,1	1,316536
3,310833	0,1	1,353332
3,312500	0,1	1,310514
3,314167	0,1	1,338392
3,315833	0,1	1,320396
3,317500	0,1	1,289754
3,319167	0,1	1,299327
3,320833	0,1	1,291613
3,322500	0,1	1,294410
3,324167	0,1	1,260912
3,325833	0,1	1,273787
3,327500	0,1	1,264414
3,329167	0,1	1,249867
3,330833	0,1	1,207333
3,332500	0,1	1,239038
3,334167	0,1	1,220603
3,335833	0,1	1,233398
3,337500	0,1	1,218756
3,339167	0,1	1,210428
3,340833	0,1	1,202796
3,342500	0,1	1,186016
3,344167	0,1	1,186706
3,345833	0,1	1,193164
3,347500	0,1	1,220728
3,349167	0,1	1,170545
3,350833	0,1	1,215434
3,352500	0,1	1,174071
3,354167	0,1	1,169263
3,355833	0,1	1,150345
3,357500	0,1	1,198260
3,359167	0,1	1,182372
3,360833	0,1	1,150271
3,362500	0,1	1,171276
3,364167	0,1	1,168992
3,365833	0,1	1,154112
3,367500	0,1	1,186274
3,369167	0,1	1,126300
3,370833	0,1	1,179219
3,372500	0,1	1,126202
3,374167	0,1	1,149576
3,375833	0,1	1,123004
3,377500	0,1	1,149507
3,379167	0,1	1,148984
3,380833	0,1	1,150158
3,382500	0,1	1,139055
3,384167	0,1	1,097394
3,385833	0,1	1,140552
3,387500	0,1	1,123904
3,389167	0,1	1,136338
3,390833	0,1	1,121309
3,392500	0,1	1,129013
3,394167	0,1	1,128303
3,395833	0,1	1,140896
3,397500	0,1	1,113561
3,399167	0,1	1,104270
3,400833	0,1	1,094080
3,402500	0,1	1,141840
3,404167	0,1	1,118646
3,405833	0,1	1,143286
3,407500	0,1	1,125203
3,409167	0,1	1,091549
3,410833	0,1	1,110839
3,412500	0,1	1,121543
3,414167	0,1	1,062458
3,415833	0,1	1,067400
3,417500	0,1	1,104039
3,419167	0,1	1,147436
3,420833	0,1	1,089440
3,422500	0,1	1,102534
3,424167	0,1	1,093830
3,425833	0,1	1,056261
3,427500	0,1	1,097548
3,429167	0,1	1,080910
3,430833	0,1	1,118182
3,432500	0,1	1,091017
3,434167	0,1	1,081949
3,435833	0,1	1,096315
3,437500	0,1	1,138418
3,439167	0,1	1,102057
3,440833	0,1	1,084903
3,442500	0,1	1,124227
3,444167	0,1	1,113865
3,445833	0,1	1,113796
3,447500	0,1	1,079800
3,449167	0,1	1,119671
3,450833	0,1	1,148997
3,452500	0,1	1,120533
3,454167	0,1	1,118796
3,455833	0,1	1,160233
3,457500	0,1	1,130129
3,459167	0,1	1,139799
3,460833	0,1	1,171274
3,462500	0,1	1,152450
3,464167	0,1	1,126041
3,465833	0,1	1,149286
3,467500	0,1	1,149936
3,469167	0,1	1,157242
3,470833	0,1	1,143670
3,472500	0,1	1,159645
3,474167	0,1	1,189889
3,475833	0,1	1,199013
3,477500	0,1	1,176795
3,479167	0,1	1,212926
3,480833	0,1	1,204139
3,482500	0,1	1,197745
3,484167	0,1	1,210049
3,485833	0,1	1,235106
3,487500	0,1	1,242401
3,489167	0,1	1,235403
3,490833	0,1	1,197227
3,492500	0,1	1,261955
3,494167	0,1	1,253750
3,495833	0,1	1,267887
3,497500	0,1	1,319513
3,499167	0,1	1,263612
3,500833	0,1	1,298183
3,502500	0,1	1,318164
3,504167	0,1	1,382055
3,505833	0,1	1,337393
3,507500	0,1	1,312034
3,509167	0,1	1,347147
3,510833	0,1	1,369145
3,512500	0,1	1,364217
3,514167	0,1	1,372524
3,515833	0,1	1,359213
3,517500	0,1	1,352480
3,519167	0,1	1,386355
3,520833	0,1	1,421160
3,522500	0,1	1,351752
3,524167	0,1	1,406194
3,525833	0,1	1,412841
3,527500	0,1	1,409773
3,529167	0,1	1,383763
3,530833	0,1	1,412123
3,532500	0,1	1,462987
3,534167	0,1	1,407152
3,535833	0,1	1,462052
3,537500	0,1	1,412842
3,539167	0,1	1,437922
3,540833	0,1	1,430099
3,542500	0,1	1,432401
3,544167	0,1	1,434553
3,545833	0,1	1,467559
3,547500	0,1	1,404562
3,549167	0,1	1,450207
3,550833	0,1	1,428978
3,552500	0,1	1,447867
3,554167	0,1	1,423081
3,555833	0,1	1,420880
3,557500	0,1	1,434099
3,559167	0,1	1,458180
3,560833	0,1	1,454457
3,562500	0,1	1,456965
3,564167	0,1	1,449739
3,565833	0,1	1,400677
3,567500	0,1	1,429759
3,569167	0,1	1,393515
3,570833	0,1	1,400896
3,572500	0,1	1,412264
3,574167	0,1	1,424965
3,575833	0,1	1,460043
3,577500	0,1	1,375906
3,579167	0,1	1,393244
3,580833	0,1	1,378822
3,582500	0,1	1,409983
3,584167	0,1	1,382458
3,585833	0,1	1,348112
3,587500	0,1	1,368570
3,589167	0,1	1,389279
3,590833	0,1	1,351250
3,592500	0,1	1,353562
3,594167	0,1	1,331625
3,595833	0,1	1,339570
3,597500	0,1	1,272229
3,599167	0,1	1,340080
3,600833	0,1	1,348268
3,602500	0,1	1,275097
3,604167	0,1	1,336638
3,605833	0,1	1,292707
3,607500	0,1	1,303172
3,609167	0,1	1,273644
3,610833	0,1	1,290912
3,612500	0,1	1,299578
3,614167	0,1	1,249589
3,615833	0,1	1,250594
3,617500	0,1	1,247219
3,619167	0,1	1,265527
3,620833	0,1	1,179792
3,622500	0,1	1,184618
3,624167	0,1	1,216912
3,625833	0,1	1,186190
3,627500	0,1	1,181332
3,629167	0,1	1,205488
3,630833	0,1	1,191813
3,632500	0,1	1,158915
3,634167	0,1	1,148140
3,635833	0,1	1,135172
3,637500	0,1	1,160496
3,639167	0,1	1,116517
3,640833	0,1	1,173912
3,642500	0,1	1,159602
3,644167	0,1	1,081724
3,645833	0,1	1,131975
3,647500	0,1	1,108984
3,649167	0,1	1,099984
3,650833	0,1	1,110218
3,652500	0,1	1,063125
3,654167	0,1	1,046219
3,655833	0,1	1,068241
3,657500	0,1	1,040291
3,659167	0,1	1,092634
3,660833	0,1	1,022846
3,662500	0,1	1,034862
3,664167	0,1	1,046697
3,665833	0,1	1,004384
3,667500	0,1	1,029149
3,669167	0,1	0,985933
3,670833	0,1	0,973758
3,672500	0,1	0,971823
3,674167	0,1	0,987384
3,675833	0,1	0,989452
3,677500	0,1	0,946697
3,679167	0,1	0,940050
3,680833	0,1	0,964622
3,682500	0,1	0,982366
3,684167	0,1	0,961392
3,685833	0,1	0,943562
3,687500	0,1	0,931369
3,689167	0,1	0,929302
3,690833	0,1	0,937915
3,692500	0,1	0,911172
3,694167	0,1	0,915247
3,695833	0,1	0,887904
3,697500	0,1	0,942723
3,699167	0,1	0,917876
3,700833	0,1	0,932365
3,702500	0,1	0,892991
3,704167	0,1	0,874985
3,705833	0,1	0,930534
3,707500	0,1	0,870820
3,709167	0,1	0,883082
3,710833	0,1	0,844355
3,712500	0,1	0,881873
3,714167	0,1	0,874314
3,715833	0,1	0,891094
3,717500	0,1	0,874540
3,719167	0,1	0,835317
3,720833	0,1	0,876457
3,722500	0,1	0,821449
3,724167	0,1	0,829670
3,725833	0,1	0,841124
3,727500	0,1	0,825655
3,729167	0,1	0,849424
3,730833	0,1	0,806797
3,732500	0,1	0,837439
3,734167	0,1	0,858988
3,735833	0,1	0,785577
3,737500	0,1	0,795644
3,739167	0,1	0,841182
3,740833	0,1	0,796447
3,742500	0,1	0,842651
3,744167	0,1	0,822620
3,745833	0,1	0,816808
3,747500	0,1	0,803439
3,749167	0,1	0,804855
3,750833	0,1	0,801482
3,752500	0,1	0,773416
3,754167	0,1	0,806266
3,755833	0,1	0,814706
3,757500	0,1	0,780142
3,759167	0,1	0,819123
3,760833	0,1	0,850089
3,762500	0,1	0,806153
3,764167	0,1	0,789453
3,765833	0,1	0,822385
3,767500	0,1	0,839545
3,769167	0,1	0,806243
3,770833	0,1	0,794652
3,772500	0,1	0,824473
3,774167	0,1	0,808550
3,775833	0,1	0,811333
3,777500	0,1	0,807628
3,779167	0,1	0,772366
3,780833	0,1	0,808065
3,782500	0,1	0,804503
3,784167	0,1	0,790279
3,785833	0,1	0,818788
3,787500	0,1	0,781273
3,789167	0,1	0,813712
3,790833	0,1	0,805881
3,792500	0,1	0,814377
3,794167	0,1	0,854371
3,795833	0,1	0,811302
3,797500	0,1	0,817506
3,799167	0,1	0,828118
3,800833	0,1	0,809300
3,802500	0,1	0,798736
3,804167	0,1	0,802792
3,805833	0,1	0,792852
3,807500	0,1	0,791117
3,809167	0,1	0,803631
3,810833	0,1	0,799419
3,812500	0,1	0,810110
3,814167	0,1	0,826581
3,815833	0,1	0,782206
3,817500	0,1	0,802210
3,819167	0,1	0,811042
3,820833	0,1	0,811555
3,822500	0,1	0,810493
3,824167	0,1	0,823817
3,825833	0,1	0,802313
3,827500	0,1	0,798907
3,829167	0,1	0,820457
3,830833	0,1	0,795850
3,832500	0,1	0,767596
3,834167	0,1	0,830390
3,835833	0,1	0,792583
3,837500	0,1	0,772718
3,839167	0,1	0,785674
3,840833	0,1	0,790759
3,842500	0,1	0,760479
3,844167	0,1	0,789179
3,845833	0,1	0,773320
3,847500	0,1	0,760959
3,849167	0,1	0,766919
3,850833	0,1	0,799171
3,852500	0,1	0,729830
3,854167	0,1	0,805756
3,855833	0,1	0,729872
3,857500	0,1	0,764850
3,859167	0,1	0,782613
3,860833	0,1	0,757048
3,862500	0,1	0,728915
3,864167	0,1	0,723920
3,865833	0,1	0,758270
3,867500	0,1	0,777332
3,869167	0,1	0,717720
3,870833	0,1	0,731032
3,872500	0,1	0,699956
3,874167	0,1	0,725134
3,875833	0,1	0,764521
3,877500	0,1	0,769703
3,879167	0,1	0,747408
3,880833	0,1	0,728978
3,882500	0,1	0,746334
3,884167	0,1	0,691149
3,885833	0,1	0,690678
3,887500	0,1	0,695443
3,889167	0,1	0,651092
3,890833	0,1	0,719173
3,892500	0,1	0,683683
3,894167	0,1	0,715414
3,895833	0,1	0,702254
3,897500	0,1	0,644110
3,899167	0,1	0,696588
3,900833	0,1	0,656331
3,902500	0,1	0,733619
3,904167	0,1	0,688993
3,905833	0,1	0,677784
3,907500	0,1	0,690610
3,909167	0,1	0,658476
3,910833	0,1	0,669058
3,912500	0,1	0,657650
3,914167	0,1	0,678802
3,915833	0,1	0,627800
3,917500	0,1	0,650490
3,919167	0,1	0,671976
3,920833	0,1	0,637057
3,922500	0,1	0,629429
3,924167	0,1	0,619836
3,925833	0,1	0,648493
3,927500	0,1	0,626794
3,929167	0,1	0,673453
3,930833	0,1	0,670443
3,932500	0,1	0,621676
3,934167	0,1	0,612283
3,935833	0,1	0,642094
3,937500	0,1	0,606564
3,939167	0,1	0,619738
3,940833	0,1	0,615369
3,942500	0,1	0,640715
3,944167	0,1	0,595758
3,945833	0,1	0,594331
3,947500	0,1	0,612116
3,949167	0,1	0,581919
3,950833	0,1	0,645463
3,952500	0,1	0,589392
3,954167	0,1	0,577541
3,955833	0,1	0,620244
3,957500	0,1	0,631385
3,959167	0,1	0,580542
3,960833	0,1	0,555510
3,962500	0,1	0,588857
3,964167	0,1	0,591077
3,965833	0,1	0,611632
3,967500	0,1	0,590244
3,969167	0,1	0,576732
3,970833	0,1	0,564768
3,972500	0,1	0,613902
3,974167	0,1	0,558701
3,975833	0,1	0,584767
3,977500	0,1	0,564062
3,979167	0,1	0,589849
3,980833	0,1	0,595740
3,982500	0,1	0,607029
3,984167	0,1	0,577833
3,985833	0,1	0,598598
3,987500	0,1	0,552424
3,989167	0,1	0,584478
3,990833	0,1	0,590308
3,992500	0,1	0,591596
3,994167	0,1	0,598731
3,995833	0,1	0,541781
3,997500	0,1	0,590518
3,999167	0,1	0,524868
4,000833	0,1	0,627372
4,002500	0,1	0,594945
4,004167	0,1	0,565221
4,005833	0,1	0,560938
4,007500	0,1	0,557495
4,009167	0,1	0,570653
4,010833	0,1	0,560560
4,012500	0,1	0,599533
4,014167	0,1	0,614943
4,015833	0,1	0,599510
4,017500	0,1	0,622693
4,019167	0,1	0,598002
4,020833	0,1	0,631024
4,022500	0,1	0,600800
4,024167	0,1	0,630317
4,025833	0,1	0,602346
4,027500	0,1	0,619512
4,029167	0,1	0,611855
4,030833	0,1	0,631671
4,032500	0,1	0,618075
4,034167	0,1	0,611797
4,035833	0,1	0,645049
4,037500	0,1	0,648852
4,039167	0,1	0,629685
4,040833	0,1	0,655897
4,042500	0,1	0,648119
4,044167	0,1	0,668347
4,045833	0,1	0,654490
4,047500	0,1	0,665645
4,049167	0,1	0,599268
4,050833	0,1	0,626139
4,052500	0,1	0,688089
4,054167	0,1	0,687340
4,055833	0,1	0,692803
4,057500	0,1	0,698474
4,059167	0,1	0,690327
4,060833	0,1	0,708731
4,062500	0,1	0,681881
4,064167	0,1	0,690137
4,065833	0,1	0,699724
4,067500	0,1	0,736032
4,069167	0,1	0,771536
4,070833	0,1	0,742405
4,072500	0,1	0,738628
4,074167	0,1	0,754294
4,075833	0,1	0,797435
4,077500	0,1	0,768661
4,079167	0,1	0,779909
4,080833	0,1	0,755722
4,082500	0,1	0,814275
4,084167	0,1	0,807276
4,085833	0,1	0,832884
4,087500	0,1	0,824746
4,089167	0,1	0,884443
4,090833	0,1	0,838718
4,092500	0,1	0,873372
4,094167	0,1	0,850788
4,095833	0,1	0,910994
4,097500	0,1	0,897583
4,099167	0,1	0,939905
4,100833	0,1	0,912369
4,102500	0,1	0,925772
4,104167	0,1	0,940779
4,105833	0,1	0,998454
4,107500	0,1	0,999135
4,109167	0,1	1,000377
4,110833	0,1	1,003952
4,112500	0,1	0,991921
4,114167	0,1	1,044733
4,115833	0,1	0,997946
4,117500	0,1	1,055285
4,119167	0,1	1,060134
4,120833	0,1	1,059029
4,122500	0,1	1,090111
4,124167	0,1	1,090339
4,125833	0,1	1,112502
4,127500	0,1	1,121898
4,129167	0,1	1,185268
4,130833	0,1	1,161200
4,132500	0,1	1,210365
4,134167	0,1	1,166358
4,135833	0,1	1,217230
4,137500	0,1	1,196578
4,139167	0,1	1,208271
4,140833	0,1	1,233546
4,142500	0,1	1,262812
4,144167	0,1	1,212998
4,145833	0,1	1,226665
4,147500	0,1	1,281646
4,149167	0,1	1,272436
4,150833	0,1	1,324754
4,152500	0,1	1,315221
4,154167	0,1	1,272902
4,155833	0,1	1,345879
4,157500	0,1	1,345304
4,159167	0,1	1,327318
4,160833	0,1	1,388830
4,162500	0,1	1,374379
4,164167	0,1	1,401166
4,165833	0,1	1,416707
4,167500	0,1	1,364076
4,169167	0,1	1,428518
4,170833	0,1	1,402029
4,172500	0,1	1,430309
4,174167	0,1	1,436199
4,175833	0,1	1,473949
4,177500	0,1	1,417932
4,179167	0,1	1,459878
4,180833	0,1	1,447818
4,182500	0,1	1,454317
4,184167	0,1	1,466263
4,185833	0,1	1,464112
4,187500	0,1	1,488248
4,189167	0,1	1,529172
4,190833	0,1	1,470503
4,192500	0,1	1,483336
4,194167	0,1	1,521343
4,195833	0,1	1,531748
4,197500	0,1	1,526949
4,199167	0,1	1,530815
4,200833	0,1	1,536986
4,202500	0,1	1,526364
4,204167	0,1	1,518499
4,205833	0,1	1,579091
4,207500	0,1	1,533913
4,209167	0,1	1,526456
4,210833	0,1	1,556462
4,212500	0,1	1,522512
4,214167	0,1	1,509901
4,215833	0,1	1,560316
4,217500	0,1	1,518497
4,219167	0,1	1,542646
4,220833	0,1	1,501007
4,222500	0,1	1,547362
4,224167	0,1	1,512679
4,225833	0,1	1,510254
4,227500	0,1	1,546986
4,229167	0,1	1,522868
4,230833	0,1	1,539552
4,232500	0,1	1,491282
4,234167	0,1	1,482096
4,235833	0,1	1,500661
4,237500	0,1	1,485183
4,239167	0,1	1,441436
4,240833	0,1	1,501858
4,242500	0,1	1,490477
4,244167	0,1	1,480795
4,245833	0,1	1,473221
4,247500	0,1	1,501510
4,249167	0,1	1,477669
4,250833	0,1	1,440776
4,252500	0,1	1,450955
4,254167	0,1	1,469634
4,255833	0,1	1,452526
4,257500	0,1	1,445940
4,259167	0,1	1,450160
4,260833	0,1	1,446858
4,262500	0,1	1,446156
4,264167	0,1	1,400305
4,265833	0,1	1,441897
4,267500	0,1	1,399607
4,269167	0,1	1,372874
4,270833	0,1	1,377544
4,272500	0,1	1,363764
4,274167	0,1	1,382805
4,275833	0,1	1,356365
4,277500	0,1	1,363417
4,279167	0,1	1,323047
4,280833	0,1	1,317662
4,282500	0,1	1,370964
4,284167	0,1	1,326997
4,285833	0,1	1,352827
4,287500	0,1	1,337976
4,289167	0,1	1,341672
4,290833	0,1	1,286895
4,292500	0,1	1,299614
4,294167	0,1	1,271152
4,295833	0,1	1,276163
4,297500	0,1	1,250514
4,299167	0,1	1,283889
4,300833	0,1	1,261535
4,302500	0,1	1,256173
4,304167	0,1	1,214572
4,305833	0,1	1,258383
4,307500	0,1	1,196470
4,309167	0,1	1,165896
4,310833	0,1	1,171328
4,312500	0,1	1,174907
4,314167	0,1	1,168197
4,315833	0,1	1,183554
4,317500	0,1	1,134268
4,319167	0,1	1,158439
4,320833	0,1	1,129821
4,322500	0,1	1,149711
4,324167	0,1	1,095840
4,325833	0,1	1,144126
4,327500	0,1	1,070264
4,329167	0,1	1,088893
4,330833	0,1	1,113991
4,332500	0,1	1,089459
4,334167	0,1	1,076020
4,335833	0,1	1,079196
4,337500	0,1	1,061119
4,339167	0,1	1,056253
4,340833	0,1	1,067064
4,342500	0,1	1,035937
4,344167	0,1	1,045635
4,345833	0,1	1,038931
4,347500	0,1	1,023100
4,349167	0,1	0,998741
4,350833	0,1	1,041939
4,352500	0,1	1,019902
4,354167	0,1	1,011660
4,355833	0,1	0,968346
4,357500	0,1	0,988960
4,359167	0,1	0,993936
4,360833	0,1	0,976024
4,362500	0,1	0,932311
4,364167	0,1	0,943618
4,365833	0,1	0,970771
4,367500	0,1	0,946027
4,369167	0,1	0,953015
4,370833	0,1	0,930840
4,372500	0,1	0,930747
4,374167	0,1	0,919713
4,375833	0,1	0,934162
4,377500	0,1	0,918252
4,379167	0,1	0,905460
4,380833	0,1	0,900510
4,382500	0,1	0,897400
4,384167	0,1	0,884015
4,385833	0,1	0,887609
4,387500	0,1	0,892355
4,389167	0,1	0,885920
4,390833	0,1	0,866502
4,392500	0,1	0,867741
4,394167	0,1	0,831480
4,395833	0,1	0,869862
4,397500	0,1	0,851761
4,399167	0,1	0,817201
4,400833	0,1	0,846022
4,402500	0,1	0,823504
4,404167	0,1	0,806766
4,405833	0,1	0,831217
4,407500	0,1	0,803353
4,409167	0,1	0,833329
4,410833	0,1	0,794922
4,412500	0,1	0,800375
4,414167	0,1	0,852388
4,415833	0,1	0,801517
4,417500	0,1	0,782463
4,419167	0,1	0,759584
4,420833	0,1	0,769033
4,422500	0,1	0,771070
4,424167	0,1	0,804599
4,425833	0,1	0,767716
4,427500	0,1	0,778909
4,429167	0,1	0,757690
4,430833	0,1	0,751331
4,432500	0,1	0,750081
4,434167	0,1	0,782568
4,435833	0,1	0,732124
4,437500	0,1	0,734019
4,439167	0,1	0,727913
4,440833	0,1	0,741673
4,442500	0,1	0,716017
4,444167	0,1	0,707832
4,445833	0,1	0,746434
4,447500	0,1	0,711711
4,449167	0,1	0,691326
4,450833	0,1	0,709335
4,452500	0,1	0,668848
4,454167	0,1	0,658162
4,455833	0,1	0,684051
4,457500	0,1	0,690268
4,459167	0,1	0,655529
4,460833	0,1	0,678093
4,462500	0,1	0,662573
4,464167	0,1	0,658218
4,465833	0,1	0,672405
4,467500	0,1	0,664241
4,469167	0,1	0,654776
4,470833	0,1	0,670335
4,472500	0,1	0,633680
4,474167	0,1	0,654872
4,475833	0,1	0,621844
4,477500	0,1	0,633445
4,479167	0,1	0,656020
4,480833	0,1	0,608107
4,482500	0,1	0,586545
4,484167	0,1	0,594812
4,485833	0,1	0,608380
4,487500	0,1	0,567320
4,489167	0,1	0,591072
4,490833	0,1	0,554805
4,492500	0,1	0,575827
4,494167	0,1	0,586608
4,495833	0,1	0,578212
4,497500	0,1	0,597478
4,499167	0,1	0,578858
4,500833	0,1	0,547533
4,502500	0,1	0,574733
4,504167	0,1	0,581231
4,505833	0,1	0,560207
4,507500	0,1	0,593933
4,509167	0,1	0,553325
4,510833	0,1	0,535149
4,512500	0,1	0,607753
4,514167	0,1	0,518632
4,515833	0,1	0,540764
4,517500	0,1	0,521449
4,519167	0,1	0,507197
4,520833	0,1	0,522857
4,522500	0,1	0,532534
4,524167	0,1	0,528871
4,525833	0,1	0,497423
4,527500	0,1	0,508574
4,529167	0,1	0,482049
4,530833	0,1	0,549824
4,532500	0,1	0,503214
4,534167	0,1	0,494008
4,535833	0,1	0,466775
4,537500	0,1	0,484323
4,539167	0,1	0,493395
4,540833	0,1	0,480472
4,542500	0,1	0,495001
4,544167	0,1	0,471822
4,545833	0,1	0,482619
4,547500	0,1	0,475098
4,549167	0,1	0,486383
4,550833	0,1	0,468283
4,552500	0,1	0,473616
4,554167	0,1	0,433141
4,555833	0,1	0,434898
4,557500	0,1	0,441040
4,559167	0,1	0,442037
4,560833	0,1	0,435127
4,562500	0,1	0,463481
4,564167	0,1	0,409508
4,565833	0,1	0,462863
4,567500	0,1	0,441078
4,569167	0,1	0,441973
4,570833	0,1	0,409857
4,572500	0,1	0,421423
4,574167	0,1	0,426409
4,575833	0,1	0,381405
4,577500	0,1	0,350568
4,579167	0,1	0,415526
4,580833	0,1	0,411526
4,582500	0,1	0,383103
4,584167	0,1	0,417206
4,585833	0,1	0,372914
4,587500	0,1	0,394763
4,589167	0,1	0,390782
4,590833	0,1	0,382491
4,592500	0,1	0,374643
4,594167	0,1	0,386696
4,595833	0,1	0,407625
4,597500	0,1	0,368830
4,599167	0,1	0,336034
4,600833	0,1	0,381220
4,602500	0,1	0,345297
4,604167	0,1	0,330052
4,605833	0,1	0,374214
4,607500	0,1	0,310965
4,609167	0,1	0,327506
4,610833	0,1	0,359683
4,612500	0,1	0,352779
4,614167	0,1	0,323498
4,615833	0,1	0,334192
4,617500	0,1	0,342036
4,619167	0,1	0,339311
4,620833	0,1	0,367723
4,622500	0,1	0,332720
4,624167	0,1	0,334421
4,625833	0,1	0,328248
4,627500	0,1	0,333198
4,629167	0,1	0,276562
4,630833	0,1	0,317079
4,632500	0,1	0,298484
4,634167	0,1	0,305162
4,635833	0,1	0,288096
4,637500	0,1	0,271253
4,639167	0,1	0,286324
4,640833	0,1	0,272538
4,642500	0,1	0,328430
4,644167	0,1	0,255512
4,645833	0,1	0,304542
4,647500	0,1	0,298260
4,649167	0,1	0,276173
4,650833	0,1	0,317758
4,652500	0,1	0,300540
4,654167	0,1	0,294276
4,655833	0,1	0,235364
4,657500	0,1	0,301360
4,659167	0,1	0,270651
4,660833	0,1	0,285072
4,662500	0,1	0,289123
4,664167	0,1	0,272095
4,665833	0,1	0,255498
4,667500	0,1	0,247338
4,669167	0,1	0,266102
4,670833	0,1	0,270698
4,672500	0,1	0,256051
4,674167	0,1	0,234006
4,675833	0,1	0,270860
4,677500	0,1	0,232977
4,679167	0,1	0,223606
4,680833	0,1	0,231969
4,682500	0,1	0,259417
4,684167	0,1	0,253677
4,685833	0,1	0,254055
4,687500	0,1	0,238504
4,689167	0,1	0,242835
4,690833	0,1	0,271568
4,692500	0,1	0,257273
4,694167	0,1	0,234421
4,695833	0,1	0,230851
4,697500	0,1	0,230749
4,699167	0,1	0,227798
4,700833	0,1	0,235800
4,702500	0,1	0,231392
4,704167	0,1	0,256973
4,705833	0,1	0,206144
4,707500	0,1	0,182090
4,709167	0,1	0,198856
4,710833	0,1	0,220784
4,712500	0,1	0,204460
4,714167	0,1	0,211753
4,715833	0,1	0,213040
4,717500	0,1	0,211818
4,719167	0,1	0,212560
4,720833	0,1	0,237887
4,722500	0,1	0,176378
4,724167	0,1	0,205836
4,725833	0,1	0,234700
4,727500	0,1	0,181001
4,729167	0,1	0,182892
4,730833	0,1	0,177436
4,732500	0,1	0,182147
4,734167	0,1	0,189544
4,735833	0,1	0,200470
4,737500	0,1	0,167826
4,739167	0,1	0,197216
4,740833	0,1	0,199151
4,742500	0,1	0,184118
4,744167	0,1	0,187869
4,745833	0,1	0,194623
4,747500	0,1	0,182667
4,749167	0,1	0,161849
4,750833	0,1	0,175855
4,752500	0,1	0,187678
4,754167	0,1	0,209758
4,755833	0,1	0,215094
4,757500	0,1	0,187209
4,759167	0,1	0,150724
4,760833	0,1	0,180503
4,762500	0,1	0,173679
4,764167	0,1	0,192013
4,765833	0,1	0,158298
4,767500	0,1	0,178488
4,769167	0,1	0,203846
4,770833	0,1	0,187495
4,772500	0,1	0,170243
4,774167	0,1	0,173502
4,775833	0,1	0,181062
4,777500	0,1	0,126862
4,779167	0,1	0,175420
4,780833	0,1	0,173540
4,782500	0,1	0,163877
4,784167	0,1	0,183630
4,785833	0,1	0,158309
4,787500	0,1	0,176662
4,789167	0,1	0,117146
4,790833	0,1	0,144007
4,792500	0,1	0,167145
4,794167	0,1	0,122801
4,795833	0,1	0,146741
4,797500	0,1	0,143130
4,799167	0,1	0,139250
4,800833	0,1	0,178483
4,802500	0,1	0,135277
4,804167	0,1	0,168327
4,805833	0,1	0,157738
4,807500	0,1	0,161843
4,809167	0,1	0,161556
4,810833	0,1	0,168435
4,812500	0,1	0,130549
4,814167	0,1	0,147120
4,815833	0,1	0,142236
4,817500	0,1	0,145964
4,819167	0,1	0,145550
4,820833	0,1	0,127496
4,822500	0,1	0,153459
4,824167	0,1	0,106797
4,825833	0,1	0,151033
4,827500	0,1	0,131856
4,829167	0,1	0,169233
4,830833	0,1	0,163068
4,832500	0,1	0,139543
4,834167	0,1	0,190503
4,835833	0,1	0,163742
4,837500	0,1	0,120042
4,839167	0,1	0,137417
4,840833	0,1	0,212542
4,842500	0,1	0,181878
4,844167	0,1	0,109389
4,845833	0,1	0,137805
4,847500	0,1	0,138809
4,849167	0,1	0,073196
4,850833	0,1	0,150471
4,852500	0,1	0,136907
4,854167	0,1	0,123388
4,855833	0,1	0,143554
4,857500	0,1	0,190594
4,859167	0,1	0,144982
4,860833	0,1	0,149343
4,862500	0,1	0,169363
4,864167	0,1	0,167152
4,865833	0,1	0,173085
4,867500	0,1	0,157853
4,869167	0,1	0,132248
4,870833	0,1	0,134270
4,872500	0,1	0,155312
4,874167	0,1	0,142340
4,875833	0,1	0,124800
4,877500	0,1	0,166108
4,879167	0,1	0,140478
4,880833	0,1	0,158338
4,882500	0,1	0,139442
4,884167	0,1	0,167712
4,885833	0,1	0,124869
4,887500	0,1	0,146705
4,889167	0,1	0,177653
4,890833	0,1	0,183444
4,892500	0,1	0,164546
4,894167	0,1	0,152434
4,895833	0,1	0,151398
4,897500	0,1	0,126690
4,899167	0,1	0,192266
4,900833	0,1	0,156296
4,902500	0,1	0,125383
4,904167	0,1	0,121732
4,905833	0,1	0,099744
4,907500	0,1	0,142452
4,909167	0,1	0,139804
4,910833	0,1	0,170898
4,912500	0,1	0,124641
4,914167	0,1	0,164859
4,915833	0,1	0,150921
4,917500	0,1	0,142415
4,919167	0,1	0,145159
4,920833	0,1	0,149217
4,922500	0,1	0,190179
4,924167	0,1	0,116193
4,925833	0,1	0,170868
4,927500	0,1	0,161873
4,929167	0,1	0,154902
4,930833	0,1	0,111295
4,932500	0,1	0,175164
4,934167	0,1	0,113454
4,935833	0,1	0,125295
4,937500	0,1	0,187275
4,939167	0,1	0,160048
4,940833	0,1	0,164768
4,942500	0,1	0,181023
4,944167	0,1	0,138365
4,945833	0,1	0,162733
4,947500	0,1	0,155067
4,949167	0,1	0,159663
4,950833	0,1	0,146031
4,952500	0,1	0,138860
4,954167	0,1	0,121383
4,955833	0,1	0,139205
4,957500	0,1	0,138013
4,959167	0,1	0,112074
4,960833	0,1	0,159099
4,962500	0,1	0,116765
4,964167	0,1	0,179612
4,965833	0,1	0,161332
4,967500	0,1	0,132640
4,969167	0,1	0,174842
4,970833	0,1	0,146137
4,972500	0,1	0,156474
4,974167	0,1	0,145805
4,975833	0,1	0,213439
4,977500	0,1	0,132613
4,979167	0,1	0,176490
4,980833	0,1	0,090966
4,982500	0,1	0,150476
4,984167	0,1	0,131150
4,985833	0,1	0,151456
4,987500	0,1	0,122695
4,989167	0,1	0,145380
4,990833	0,1	0,146647
4,992500	0,1	0,196541
4,994167	0,1	0,170044
4,995833	0,1	0,167920
4,997500	0,1	0,192402
4,999167	0,1	0,168466
5,000833	0,1	0,185459
5,002500	0,1	0,207060
5,004167	0,1	0,161302
5,005833	0,1	0,138509
5,007500	0,1	0,147374
5,009167	0,1	0,167587
5,010833	0,1	0,197705
5,012500	0,1	0,154784
5,014167	0,1	0,204482
5,015833	0,1	0,214777
5,017500	0,1	0,165196
5,019167	0,1	0,210557
5,020833	0,1	0,186175
5,022500	0,1	0,150889
5,024167	0,1	0,238226
5,025833	0,1	0,186446
5,027500	0,1	0,189545
5,029167	0,1	0,175345
5,030833	0,1	0,221358
5,032500	0,1	0,170377
5,034167	0,1	0,182499
5,035833	0,1	0,195706
5,037500	0,1	0,192472
5,039167	0,1	0,188841
5,040833	0,1	0,215921
5,042500	0,1	0,214552
5,044167	0,1	0,197779
5,045833	0,1	0,187773
5,047500	0,1	0,189734
5,049167	0,1	0,200171
5,050833	0,1	0,204809
5,052500	0,1	0,154584
5,054167	0,1	0,210066
5,055833	0,1	0,220334
5,057500	0,1	0,232902
5,059167	0,1	0,223781
5,060833	0,1	0,207059
5,062500	0,1	0,220007
5,064167	0,1	0,238623
5,065833	0,1	0,223972
5,067500	0,1	0,211593
5,069167	0,1	0,228236
5,070833	0,1	0,248427
5,072500	0,1	0,236502
5,074167	0,1	0,220530
5,075833	0,1	0,250932
5,077500	0,1	0,211248
5,079167	0,1	0,242765
5,080833	0,1	0,217673
5,082500	0,1	0,225025
5,084167	0,1	0,234793
5,085833	0,1	0,237531
5,087500	0,1	0,210729
5,089167	0,1	0,248578
5,090833	0,1	0,270440
5,092500	0,1	0,250774
5,094167	0,1	0,251320
5,095833	0,1	0,259903
5,097500	0,1	0,237952
5,099167	0,1	0,266742
5,100833	0,1	0,234524
5,102500	0,1	0,248682
5,104167	0,1	0,253213
5,105833	0,1	0,201570
5,107500	0,1	0,224995
5,109167	0,1	0,258891
5,110833	0,1	0,224771
5,112500	0,1	0,248835
5,114167	0,1	0,231975
5,115833	0,1	0,257679
5,117500	0,1	0,269572
5,119167	0,1	0,253959
5,120833	0,1	0,221848
5,122500	0,1	0,281685
5,124167	0,1	0,258651
5,125833	0,1	0,247076
5,127500	0,1	0,268228
5,129167	0,1	0,278065
5,130833	0,1	0,220378
5,132500	0,1	0,248842
5,134167	0,1	0,251962
5,135833	0,1	0,221331
5,137500	0,1	0,215575
5,139167	0,1	0,203553
5,140833	0,1	0,251409
5,142500	0,1	0,246115
5,144167	0,1	0,255945
5,145833	0,1	0,259097
5,147500	0,1	0,245537
5,149167	0,1	0,331092
5,150833	0,1	0,241347
5,152500	0,1	0,257194
5,154167	0,1	0,239499
5,155833	0,1	0,278248
5,157500	0,1	0,237893
5,159167	0,1	0,237703
5,160833	0,1	0,227537
5,162500	0,1	0,199246
5,164167	0,1	0,234977
5,165833	0,1	0,241549
5,167500	0,1	0,220506
5,169167	0,1	0,235498
5,170833	0,1	0,281435
5,172500	0,1	0,244874
5,174167	0,1	0,246341
5,175833	0,1	0,272219
5,177500	0,1	0,213280
5,179167	0,1	0,228465
5,180833	0,1	0,219949
5,182500	0,1	0,198514
5,184167	0,1	0,275189
5,185833	0,1	0,265820
5,187500	0,1	0,220249
5,189167	0,1	0,210370
5,190833	0,1	0,231035
5,192500	0,1	0,229463
5,194167	0,1	0,226214
5,195833	0,1	0,217153
5,197500	0,1	0,214225
5,199167	0,1	0,180027
5,200833	0,1	0,215993
5,202500	0,1	0,190612
5,204167	0,1	0,227399
5,205833	0,1	0,214719
5,207500	0,1	0,211075
5,209167	0,1	0,194403
5,210833	0,1	0,208826
5,212500	0,1	0,189904
5,214167	0,1	0,234848
5,215833	0,1	0,193514
5,217500	0,1	0,190216
5,219167	0,1	0,207641
5,220833	0,1	0,214939
5,222500	0,1	0,186492
5,224167	0,1	0,174500
5,225833	0,1	0,190602
5,227500	0,1	0,200597
5,229167	0,1	0,193948
5,230833	0,1	0,176406
5,232500	0,1	0,108627
5,234167	0,1	0,183100
5,235833	0,1	0,189129
5,237500	0,1	0,166955
5,239167	0,1	0,158305
5,240833	0,1	0,150618
5,242500	0,1	0,158907
5,244167	0,1	0,158090
5,245833	0,1	0,187799
5,247500	0,1	0,154719
5,249167	0,1	0,204381
5,250833	0,1	0,191062
5,252500	0,1	0,177147
5,254167	0,1	0,129517
5,255833	0,1	0,173844
5,257500	0,1	0,152877
5,259167	0,1	0,138256
5,260833	0,1	0,138769
5,262500	0,1	0,142462
5,264167	0,1	0,128552
5,265833	0,1	0,143744
5,267500	0,1	0,160164
5,269167	0,1	0,156892
5,270833	0,1	0,150177
5,272500	0,1	0,124585
5,274167	0,1	0,133109
5,275833	0,1	0,138416
5,277500	0,1	0,108821
5,279167	0,1	0,088154
5,280833	0,1	0,136187
5,282500	0,1	0,101402
5,284167	0,1	0,119610
5,285833	0,1	0,105911
5,287500	0,1	0,161605
5,289167	0,1	0,152761
5,290833	0,1	0,154585
5,292500	0,1	0,084576
5,294167	0,1	0,130138
5,295833	0,1	0,117940
5,297500	0,1	0,136876
5,299167	0,1	0,124947
5,300833	0,1	0,118622
5,302500	0,1	0,094205
5,304167	0,1	0,139881
5,305833	0,1	0,135911
5,307500	0,1	0,067618
5,309167	0,1	0,111500
5,310833	0,1	0,104521
5,312500	0,1	0,124462
5,314167	0,1	0,085250
5,315833	0,1	0,132142
5,317500	0,1	0,093566
5,319167	0,1	0,066282
5,320833	0,1	0,129342
5,322500	0,1	0,091434
5,324167	0,1	0,091400
5,325833	0,1	0,099956
5,327500	0,1	0,120064
5,329167	0,1	0,095701
5,330833	0,1	0,103069
5,332500	0,1	0,078365
5,334167	0,1	0,081550
5,335833	0,1	0,078110
5,337500	0,1	0,035112
5,339167	0,1	0,097664
5,340833	0,1	0,067279
5,342500	0,1	0,094998
5,344167	0,1	0,040627
5,345833	0,1	0,049691
5,347500	0,1	0,083634
5,349167	0,1	0,066258
5,350833	0,1	0,067397
5,352500	0,1	0,107017
5,354167	0,1	0,074966
5,355833	0,1	0,056373
5,357500	0,1	0,036472
5,359167	0,1	0,065274
5,360833	0,1	0,048703
5,362500	0,1	0,060280
5,364167	0,1	0,071288
5,365833	0,1	0,098086
5,367500	0,1	0,043155
5,369167	0,1	0,064634
5,370833	0,1	0,036206
5,372500	0,1	0,053523
5,374167	0,1	0,054316
5,375833	0,1	0,030695
5,377500	0,1	0,024489
5,379167	0,1	0,031473
5,380833	0,1	0,037875
5,382500	0,1	-0,001452
5,384167	0,1	0,041865
5,385833	0,1	0,086844
5,387500	0,1	0,027922
5,389167	0,1	0,052486
5,390833	0,1	0,041589
5,392500	0,1	0,057441
5,394167	0,1	0,023687
5,395833	0,1	0,026123
5,397500	0,1	0,063924
5,399167	0,1	0,030362
5,400833	0,1	0,040406
5,402500	0,1	0,045235
5,404167	0,1	0,030357
5,405833	0,1	0,006399
5,407500	0,1	0,032897
5,409167	0,1	-0,020805
5,410833	0,1	0,035522
5,412500	0,1	0,024118
5,414167	0,1	0,024344
5,415833	0,1	0,059466
5,417500	0,1	0,015235
5,419167	0,1	0,038475
5,420833	0,1	0,010795
5,422500	0,1	0,033561
5,424167	0,1	0,020781
5,425833	0,1	0,005921
5,427500	0,1	0,042845
5,429167	0,1	0,015769
5,430833	0,1	0,011640
5,432500	0,1	0,019159
5,434167	0,1	-0,003154
5,435833	0,1	0,019487
5,437500	0,1	0,012508
5,439167	0,1	0,035985
5,440833	0,1	0,035182
5,442500	0,1	-0,006011
5,444167	0,1	0,018470
5,445833	0,1	-0,026239
5,447500	0,1	0,047994
5,449167	0,1	0,029734
5,450833	0,1	0,039264
5,452500	0,1	0,012762
5,454167	0,1	-0,030550
5,455833	0,1	0,025549
5,457500	0,1	-0,012230
5,459167	0,1	-0,008385
5,460833	0,1	0,011695
5,462500	0,1	0,014889
5,464167	0,1	0,019635
5,465833	0,1	0,002293
5,467500	0,1	0,017853
5,469167	0,1	-0,008791
5,470833	0,1	0,004069
5,472500	0,1	-0,013353
5,474167	0,1	0,038736
5,475833	0,1	-0,005781
5,477500	0,1	-0,005359
5,479167	0,1	-0,013231
5,480833	0,1	-0,027633
5,482500	0,1	0,026441
5,484167	0,1	0,014709
5,485833	0,1	-0,019423
5,487500	0,1	-0,041269
5,489167	0,1	-0,008910
5,490833	0,1	0,007841
5,492500	0,1	-0,007945
5,494167	0,1	0,014678
5,495833	0,1	-0,026010
5,497500	0,1	0,014322
5,499167	0,1	-0,017309
5,500833	0,1	-0,030970
5,502500	0,1	0,021905
5,504167	0,1	0,000907
5,505833	0,1	-0,057196
5,507500	0,1	0,039118
5,509167	0,1	-0,019168
5,510833	0,1	-0,002521
5,512500	0,1	-0,006165
5,514167	0,1	-0,007201
5,515833	0,1	-0,023738
5,517500	0,1	-0,024260
5,519167	0,1	0,016726
5,520833	0,1	0,009794
5,522500	0,1	-0,065855
5,524167	0,1	-0,007589
5,525833	0,1	-0,033847
5,527500	0,1	-0,004701
5,529167	0,1	0,005521
5,530833	0,1	-0,042526
5,532500	0,1	-0,004123
5,534167	0,1	-0,043524
5,535833	0,1	-0,030002
5,537500	0,1	-0,049869
5,539167	0,1	-0,036427
5,540833	0,1	-0,029690
5,542500	0,1	-0,025732
5,544167	0,1	-0,035552
5,545833	0,1	-0,035575
5,547500	0,1	-0,016906
5,549167	0,1	-0,026142
5,550833	0,1	-0,003850
5,552500	0,1	-0,002518
5,554167	0,1	-0,025208
5,555833	0,1	0,001662
5,557500	0,1	-0,012692
5,559167	0,1	-0,005236
5,560833	0,1	-0,060471
5,562500	0,1	-0,030338
5,564167	0,1	-0,042100
5,565833	0,1	0,007479
5,567500	0,1	-0,021082
5,569167	0,1	0,004790
5,570833	0,1	-0,050711
5,572500	0,1	0,000474
5,574167	0,1	-0,014203
5,575833	0,1	0,024603
5,577500	0,1	-0,030339
5,579167	0,1	-0,034703
5,580833	0,1	-0,038123
5,582500	0,1	-0,052565
5,584167	0,1	-0,020225
5,585833	0,1	-0,011619
5,587500	0,1	-0,002211
5,589167	0,1	-0,030966
5,590833	0,1	-0,031368
5,592500	0,1	-0,023868
5,594167	0,1	-0,017545
5,595833	0,1	-0,033912
5,597500	0,1	-0,038268
5,599167	0,1	-0,058885
5,600833	0,1	-0,014715
5,602500	0,1	-0,031261
5,604167	0,1	-0,013446
5,605833	0,1	-0,013357
5,607500	0,1	-0,044106
5,609167	0,1	-0,053913
5,610833	0,1	-0,059735
5,612500	0,1	-0,006532
5,614167	0,1	-0,013191
5,615833	0,1	-0,006541
5,617500	0,1	-0,022142
5,619167	0,1	-0,009443
5,620833	0,1	-0,034077
5,622500	0,1	-0,033627
5,624167	0,1	-0,018792
5,625833	0,1	-0,035944
5,627500	0,1	-0,042247
5,629167	0,1	-0,031454
5,630833	0,1	-0,022542
5,632500	0,1	-0,038161
5,634167	0,1	0,023021
5,635833	0,1	-0,023315
5,637500	0,1	-0,037624
5,639167	0,1	-0,032570
5,640833	0,1	-0,075043
5,642500	0,1	-0,049653
5,644167	0,1	-0,031164
5,645833	0,1	-0,002796
5,647500	0,1	-0,008528
5,649167	0,1	-0,027446
5,650833	0,1	-0,042493
5,652500	0,1	-0,037213
5,654167	0,1	-0,040382
5,655833	0,1	0,006962
5,657500	0,1	-0,015031
5,659167	0,1	-0,005152
5,660833	0,1	0,011591
5,662500	0,1	-0,009186
5,664167	0,1	-0,016899
5,665833	0,1	-0,011163
5,667500	0,1	-0,007929
5,669167	0,1	0,018925
5,670833	0,1	-0,024063
5,672500	0,1	0,016188
5,674167	0,1	0,012199
5,675833	0,1	-0,005332
5,677500	0,1	-0,025435
5,679167	0,1	-0,083762
5,680833	0,1	0,009232
5,682500	0,1	-0,047601
5,684167	0,1	-0,037400
5,685833	0,1	0,008703
5,687500	0,1	0,001710
5,689167	0,1	0,017934
5,690833	0,1	-0,019422
5,692500	0,1	0,014862
5,694167	0,1	-0,005561
5,695833	0,1	-0,012693
5,697500	0,1	0,001665
5,699167	0,1	0,008155
5,700833	0,1	0,005338
5,702500	0,1	0,006602
5,704167	0,1	-0,010121
5,705833	0,1	-0,013523
5,707500	0,1	-0,002064
5,709167	0,1	-0,025477
5,710833	0,1	-0,007517
5,712500	0,1	-0,009731
5,714167	0,1	0,013104
5,715833	0,1	-0,002369
5,717500	0,1	-0,000446
5,719167	0,1	-0,041243
5,720833	0,1	0,001511
5,722500	0,1	0,005169
5,724167	0,1	0,006085
5,725833	0,1	0,006187
5,727500	0,1	-0,016440
5,729167	0,1	-0,005050
5,730833	0,1	0,027713
5,732500	0,1	0,009508
5,734167	0,1	0,034824
5,735833	0,1	0,010339
5,737500	0,1	0,039571
5,739167	0,1	0,030977
5,740833	0,1	0,003665
5,742500	0,1	-0,020999
5,744167	0,1	0,040040
5,745833	0,1	0,005696
5,747500	0,1	0,011656
5,749167	0,1	0,047382
5,750833	0,1	-0,013199
5,752500	0,1	0,009787
5,754167	0,1	0,022083
5,755833	0,1	0,026664
5,757500	0,1	0,023060
5,759167	0,1	0,025130
5,760833	0,1	0,024924
5,762500	0,1	-0,007174
5,764167	0,1	0,013622
5,765833	0,1	0,007991
5,767500	0,1	0,011306
5,769167	0,1	0,038450
5,770833	0,1	0,014109
5,772500	0,1	0,032482
5,774167	0,1	-0,005140
5,775833	0,1	0,055690
5,777500	0,1	0,030422
5,779167	0,1	0,041462
5,780833	0,1	0,026026
5,782500	0,1	0,004244
5,784167	0,1	0,020878
5,785833	0,1	0,004761
5,787500	0,1	0,029479
5,789167	0,1	0,045563
5,790833	0,1	0,033343
5,792500	0,1	0,054620
5,794167	0,1	-0,004578
5,795833	0,1	0,032192
5,797500	0,1	0,007334
5,799167	0,1	0,017667
5,800833	0,1	-0,003259
5,802500	0,1	0,014286
5,804167	0,1	0,034576
5,805833	0,1	0,026500
5,807500	0,1	0,035884
5,809167	0,1	-0,012910
5,810833	0,1	0,027235
5,812500	0,1	-0,012456
5,814167	0,1	0,002308
5,815833	0,1	0,033395
5,817500	0,1	0,027621
5,819167	0,1	0,028551
5,820833	0,1	0,050951
5,822500	0,1	-0,005159
5,824167	0,1	0,015071
5,825833	0,1	0,021107
5,827500	0,1	0,023160
5,829167	0,1	-0,026982
5,830833	0,1	0,018010
5,832500	0,1	0,005753
5,834167	0,1	0,018866
5,835833	0,1	-0,004708
5,837500	0,1	0,025786
5,839167	0,1	0,016387
5,840833	0,1	0,016280
5,842500	0,1	-0,018531
5,844167	0,1	0,028352
5,845833	0,1	-0,018755
5,847500	0,1	-0,003557
5,849167	0,1	0,010018
5,850833	0,1	0,005938
5,852500	0,1	0,030017
5,854167	0,1	-0,002158
5,855833	0,1	0,017003
5,857500	0,1	0,047469
5,859167	0,1	0,014753
5,860833	0,1	0,028009
5,862500	0,1	0,008968
5,864167	0,1	-0,012461
5,865833	0,1	0,024125
5,867500	0,1	0,030251
5,869167	0,1	-0,000792
5,870833	0,1	0,035610
5,872500	0,1	-0,000375
5,874167	0,1	0,029641
5,875833	0,1	-0,005868
5,877500	0,1	0,023383
5,879167	0,1	0,015744
5,880833	0,1	0,012550
5,882500	0,1	-0,004690
5,884167	0,1	0,008858
5,885833	0,1	0,033248
5,887500	0,1	0,034664
5,889167	0,1	0,021031
5,890833	0,1	0,026601
5,892500	0,1	0,030064
5,894167	0,1	0,046869
5,895833	0,1	0,010238
5,897500	0,1	0,054055
5,899167	0,1	0,023148
5,900833	0,1	-0,026982
5,902500	0,1	0,002219
5,904167	0,1	-0,014101
5,905833	0,1	-0,034243
5,907500	0,1	0,001598
5,909167	0,1	-0,037699
5,910833	0,1	-0,014172
5,912500	0,1	0,035854
5,914167	0,1	-0,000974
5,915833	0,1	-0,023445
5,917500	0,1	0,021514
5,919167	0,1	-0,014074
5,920833	0,1	0,037160
5,922500	0,1	-0,017219
5,924167	0,1	0,023505
5,925833	0,1	-0,014220
5,927500	0,1	-0,032607
5,929167	0,1	-0,041437
5,930833	0,1	-0,008163
5,932500	0,1	0,010948
5,934167	0,1	-0,032621
5,935833	0,1	0,010631
5,937500	0,1	-0,008193
5,939167	0,1	-0,014661
5,940833	0,1	0,012273
5,942500	0,1	-0,010327
5,944167	0,1	0,003158
5,945833	0,1	-0,030779
5,947500	0,1	0,015957
5,949167	0,1	-0,006305
5,950833	0,1	-0,009584
5,952500	0,1	-0,035113
5,954167	0,1	-0,042495
5,955833	0,1	-0,030045
5,957500	0,1	-0,021152
5,959167	0,1	-0,034412
5,960833	0,1	-0,002587
5,962500	0,1	-0,033247
5,964167	0,1	-0,037418
5,965833	0,1	-0,034766
5,967500	0,1	-0,002194
5,969167	0,1	-0,028999
5,970833	0,1	-0,053164
5,972500	0,1	-0,009431
5,974167	0,1	-0,029084
5,975833	0,1	-0,030684
5,977500	0,1	-0,058901
5,979167	0,1	-0,053668
5,980833	0,1	-0,035599
5,982500	0,1	-0,021113
5,984167	0,1	-0,020238
5,985833	0,1	-0,037105
5,987500	0,1	-0,011147
5,989167	0,1	-0,012217
5,990833	0,1	-0,021232
5,992500	0,1	-0,074419
5,994167	0,1	0,005295
5,995833	0,1	-0,024190
5,997500	0,1	-0,035281
5,999167	0,1	-0,048564
6,000833	0,1	-0,033382
