File Path	chrom://chromeleon01/ikbm_chromeleon/2022/Rezex/Esteban/220612_chitin_4_7.seq/839.smp/UV_VIS_1.channel/UV_VIS_1.chm
Channel	UV_VIS_1

Injection Information:
Data Vault	ikbm_chromeleon
Injection	4_04h-EGS_1
Injection Number	75
Position	GC3
Comment	
Processing Method	New ProcMethod
Instrument Method	Short_Rezex_6min_194nm
Type	Unknown
Status	Finished
Injection Date	13.06.2022
Injection Time	01:12:58
Injection Volume (µl)	8,000
Dilution Factor	1,0000
Weight	1,0000

Chromatogram Data Information:
Time Min. (min)	0,000833
Time Max. (min)	6,000833
Data Points	3601
Detector	UV
Generating Data System	Chromeleon 7.2.9.11323
Exporting Data System	Chromeleon 7.2.9.0
Operator	Instrument Controller
Signal Quantity	Absorbance
Signal Unit	mAU
Signal Min.	-0,147320
Signal Max.	102,530993
Channel	UV_VIS_1
Driver Name	VWD3000.dll
Channel Type	Evaluation
Min. Step (s)	0,1
Max. Step (s)	0,1
Average Step (s)	0,1

Signal Parameter Information:
Signal Info	WVL:194 nm

Chromatogram Data:
Time (min)	Step (s)	Value (mAU)
0,000833	n.a.	-0,051627
0,002500	0,1	-0,062526
0,004167	0,1	-0,071189
0,005833	0,1	-0,070136
0,007500	0,1	-0,038637
0,009167	0,1	-0,081048
0,010833	0,1	-0,037273
0,012500	0,1	-0,052679
0,014167	0,1	-0,087329
0,015833	0,1	-0,065228
0,017500	0,1	-0,066631
0,019167	0,1	-0,021439
0,020833	0,1	-0,077128
0,022500	0,1	-0,042454
0,024167	0,1	-0,046217
0,025833	0,1	-0,077134
0,027500	0,1	-0,094298
0,029167	0,1	-0,031433
0,030833	0,1	-0,086951
0,032500	0,1	-0,096413
0,034167	0,1	-0,147320
0,035833	0,1	-0,060042
0,037500	0,1	-0,097586
0,039167	0,1	-0,137336
0,040833	0,1	-0,108422
0,042500	0,1	-0,111833
0,044167	0,1	-0,116309
0,045833	0,1	-0,068550
0,047500	0,1	-0,050078
0,049167	0,1	-0,091598
0,050833	0,1	-0,078864
0,052500	0,1	-0,111682
0,054167	0,1	-0,073379
0,055833	0,1	-0,059588
0,057500	0,1	-0,057866
0,059167	0,1	-0,072038
0,060833	0,1	-0,074074
0,062500	0,1	-0,042142
0,064167	0,1	-0,060783
0,065833	0,1	-0,071232
0,067500	0,1	-0,079709
0,069167	0,1	-0,040443
0,070833	0,1	-0,083223
0,072500	0,1	-0,073847
0,074167	0,1	-0,082258
0,075833	0,1	-0,060482
0,077500	0,1	-0,045724
0,079167	0,1	-0,062422
0,080833	0,1	-0,080619
0,082500	0,1	-0,079317
0,084167	0,1	-0,066697
0,085833	0,1	-0,053142
0,087500	0,1	-0,062464
0,089167	0,1	-0,079353
0,090833	0,1	-0,060565
0,092500	0,1	-0,039693
0,094167	0,1	-0,080509
0,095833	0,1	-0,045169
0,097500	0,1	-0,038051
0,099167	0,1	-0,090081
0,100833	0,1	-0,064276
0,102500	0,1	-0,101486
0,104167	0,1	-0,081808
0,105833	0,1	-0,096661
0,107500	0,1	-0,080109
0,109167	0,1	-0,101882
0,110833	0,1	-0,081994
0,112500	0,1	-0,076770
0,114167	0,1	-0,105983
0,115833	0,1	-0,100808
0,117500	0,1	-0,102362
0,119167	0,1	-0,088480
0,120833	0,1	-0,077371
0,122500	0,1	-0,135466
0,124167	0,1	-0,082356
0,125833	0,1	-0,101344
0,127500	0,1	-0,087694
0,129167	0,1	-0,073454
0,130833	0,1	-0,081801
0,132500	0,1	-0,072004
0,134167	0,1	-0,070239
0,135833	0,1	-0,087727
0,137500	0,1	-0,071341
0,139167	0,1	-0,047716
0,140833	0,1	-0,050568
0,142500	0,1	-0,107966
0,144167	0,1	-0,034752
0,145833	0,1	-0,059248
0,147500	0,1	-0,067418
0,149167	0,1	-0,099204
0,150833	0,1	-0,033817
0,152500	0,1	-0,036370
0,154167	0,1	-0,060139
0,155833	0,1	-0,048542
0,157500	0,1	-0,097149
0,159167	0,1	-0,038313
0,160833	0,1	-0,031937
0,162500	0,1	-0,061403
0,164167	0,1	-0,086130
0,165833	0,1	-0,072998
0,167500	0,1	-0,084392
0,169167	0,1	-0,081577
0,170833	0,1	-0,066138
0,172500	0,1	-0,047548
0,174167	0,1	-0,094105
0,175833	0,1	-0,054476
0,177500	0,1	-0,085132
0,179167	0,1	-0,044154
0,180833	0,1	-0,064867
0,182500	0,1	-0,083437
0,184167	0,1	-0,053975
0,185833	0,1	-0,031072
0,187500	0,1	-0,094349
0,189167	0,1	-0,047348
0,190833	0,1	-0,114406
0,192500	0,1	-0,078745
0,194167	0,1	-0,041936
0,195833	0,1	-0,044372
0,197500	0,1	-0,091491
0,199167	0,1	-0,082367
0,200833	0,1	-0,027493
0,202500	0,1	-0,083593
0,204167	0,1	-0,044215
0,205833	0,1	-0,078604
0,207500	0,1	-0,067277
0,209167	0,1	-0,035343
0,210833	0,1	-0,080675
0,212500	0,1	-0,081204
0,214167	0,1	-0,055840
0,215833	0,1	-0,080990
0,217500	0,1	-0,097262
0,219167	0,1	-0,085537
0,220833	0,1	-0,084519
0,222500	0,1	-0,053147
0,224167	0,1	-0,030656
0,225833	0,1	-0,063889
0,227500	0,1	-0,019675
0,229167	0,1	-0,064591
0,230833	0,1	-0,076226
0,232500	0,1	-0,025564
0,234167	0,1	-0,066187
0,235833	0,1	-0,051631
0,237500	0,1	-0,056744
0,239167	0,1	-0,070940
0,240833	0,1	-0,014685
0,242500	0,1	-0,077105
0,244167	0,1	-0,095415
0,245833	0,1	-0,053648
0,247500	0,1	-0,056600
0,249167	0,1	-0,061533
0,250833	0,1	-0,046717
0,252500	0,1	-0,067520
0,254167	0,1	-0,042471
0,255833	0,1	-0,047584
0,257500	0,1	-0,053967
0,259167	0,1	-0,065158
0,260833	0,1	-0,050470
0,262500	0,1	-0,059707
0,264167	0,1	-0,014098
0,265833	0,1	-0,071283
0,267500	0,1	-0,051321
0,269167	0,1	-0,038426
0,270833	0,1	-0,068595
0,272500	0,1	-0,028257
0,274167	0,1	-0,026340
0,275833	0,1	-0,067577
0,277500	0,1	-0,059069
0,279167	0,1	-0,042014
0,280833	0,1	-0,063830
0,282500	0,1	-0,037062
0,284167	0,1	-0,020373
0,285833	0,1	-0,090201
0,287500	0,1	-0,018253
0,289167	0,1	-0,072506
0,290833	0,1	0,003843
0,292500	0,1	-0,055012
0,294167	0,1	-0,051960
0,295833	0,1	-0,054548
0,297500	0,1	-0,067541
0,299167	0,1	-0,034494
0,300833	0,1	-0,044141
0,302500	0,1	-0,024770
0,304167	0,1	-0,034795
0,305833	0,1	-0,065569
0,307500	0,1	-0,033271
0,309167	0,1	-0,047540
0,310833	0,1	-0,047834
0,312500	0,1	-0,002575
0,314167	0,1	-0,038726
0,315833	0,1	-0,071227
0,317500	0,1	-0,052088
0,319167	0,1	-0,057967
0,320833	0,1	-0,037579
0,322500	0,1	-0,018862
0,324167	0,1	-0,062953
0,325833	0,1	-0,062758
0,327500	0,1	-0,025935
0,329167	0,1	-0,066603
0,330833	0,1	-0,051755
0,332500	0,1	-0,056020
0,334167	0,1	-0,054923
0,335833	0,1	-0,061117
0,337500	0,1	-0,055648
0,339167	0,1	-0,036956
0,340833	0,1	-0,055043
0,342500	0,1	-0,024006
0,344167	0,1	-0,025345
0,345833	0,1	-0,086786
0,347500	0,1	-0,072750
0,349167	0,1	-0,024630
0,350833	0,1	-0,039911
0,352500	0,1	-0,045263
0,354167	0,1	-0,053925
0,355833	0,1	-0,034988
0,357500	0,1	-0,022693
0,359167	0,1	-0,040160
0,360833	0,1	-0,050898
0,362500	0,1	-0,026096
0,364167	0,1	-0,049321
0,365833	0,1	-0,044954
0,367500	0,1	-0,085298
0,369167	0,1	-0,055136
0,370833	0,1	-0,009105
0,372500	0,1	-0,059657
0,374167	0,1	-0,042138
0,375833	0,1	-0,005081
0,377500	0,1	-0,028966
0,379167	0,1	-0,007297
0,380833	0,1	-0,025505
0,382500	0,1	-0,023333
0,384167	0,1	-0,053486
0,385833	0,1	-0,042779
0,387500	0,1	-0,028146
0,389167	0,1	-0,013534
0,390833	0,1	-0,005428
0,392500	0,1	0,005332
0,394167	0,1	-0,015555
0,395833	0,1	-0,061481
0,397500	0,1	-0,045206
0,399167	0,1	-0,055356
0,400833	0,1	-0,045785
0,402500	0,1	-0,048579
0,404167	0,1	-0,026115
0,405833	0,1	-0,034068
0,407500	0,1	-0,070499
0,409167	0,1	-0,062841
0,410833	0,1	-0,040107
0,412500	0,1	-0,022468
0,414167	0,1	0,001057
0,415833	0,1	-0,025503
0,417500	0,1	-0,038669
0,419167	0,1	-0,046568
0,420833	0,1	-0,027754
0,422500	0,1	-0,038007
0,424167	0,1	-0,047768
0,425833	0,1	0,003433
0,427500	0,1	-0,026725
0,429167	0,1	0,003605
0,430833	0,1	-0,031098
0,432500	0,1	-0,030008
0,434167	0,1	-0,035127
0,435833	0,1	0,010794
0,437500	0,1	-0,024134
0,439167	0,1	-0,021635
0,440833	0,1	-0,025591
0,442500	0,1	-0,032556
0,444167	0,1	-0,006881
0,445833	0,1	-0,031018
0,447500	0,1	-0,025075
0,449167	0,1	-0,026132
0,450833	0,1	-0,028060
0,452500	0,1	-0,015897
0,454167	0,1	-0,019768
0,455833	0,1	-0,034544
0,457500	0,1	0,016184
0,459167	0,1	-0,021563
0,460833	0,1	-0,004127
0,462500	0,1	0,009600
0,464167	0,1	-0,006354
0,465833	0,1	-0,042437
0,467500	0,1	-0,046362
0,469167	0,1	-0,071393
0,470833	0,1	-0,012571
0,472500	0,1	-0,004057
0,474167	0,1	-0,045812
0,475833	0,1	-0,010034
0,477500	0,1	0,001145
0,479167	0,1	-0,036778
0,480833	0,1	-0,025637
0,482500	0,1	-0,014857
0,484167	0,1	-0,006359
0,485833	0,1	0,034055
0,487500	0,1	-0,036459
0,489167	0,1	-0,021494
0,490833	0,1	-0,045839
0,492500	0,1	0,026875
0,494167	0,1	-0,030990
0,495833	0,1	-0,009617
0,497500	0,1	-0,028594
0,499167	0,1	-0,011419
0,500833	0,1	-0,008429
0,502500	0,1	-0,035660
0,504167	0,1	-0,049923
0,505833	0,1	-0,000729
0,507500	0,1	-0,020758
0,509167	0,1	-0,032162
0,510833	0,1	-0,016973
0,512500	0,1	-0,056487
0,514167	0,1	-0,023426
0,515833	0,1	-0,000041
0,517500	0,1	-0,020344
0,519167	0,1	-0,015168
0,520833	0,1	-0,026254
0,522500	0,1	-0,024245
0,524167	0,1	-0,006318
0,525833	0,1	-0,010834
0,527500	0,1	-0,045463
0,529167	0,1	-0,040434
0,530833	0,1	-0,001039
0,532500	0,1	0,002347
0,534167	0,1	-0,041357
0,535833	0,1	-0,039853
0,537500	0,1	-0,024559
0,539167	0,1	-0,001451
0,540833	0,1	0,016213
0,542500	0,1	0,023944
0,544167	0,1	-0,026658
0,545833	0,1	0,022485
0,547500	0,1	0,028364
0,549167	0,1	-0,011551
0,550833	0,1	0,000604
0,552500	0,1	-0,016053
0,554167	0,1	-0,013383
0,555833	0,1	0,021454
0,557500	0,1	-0,023613
0,559167	0,1	-0,008495
0,560833	0,1	-0,009071
0,562500	0,1	0,003341
0,564167	0,1	0,040545
0,565833	0,1	0,002050
0,567500	0,1	-0,004345
0,569167	0,1	-0,002874
0,570833	0,1	0,012979
0,572500	0,1	-0,019925
0,574167	0,1	-0,003934
0,575833	0,1	-0,008532
0,577500	0,1	0,019174
0,579167	0,1	-0,016505
0,580833	0,1	-0,006090
0,582500	0,1	-0,028986
0,584167	0,1	0,023274
0,585833	0,1	0,032072
0,587500	0,1	0,027452
0,589167	0,1	0,030088
0,590833	0,1	0,019183
0,592500	0,1	0,007390
0,594167	0,1	0,027262
0,595833	0,1	0,030521
0,597500	0,1	0,046021
0,599167	0,1	0,026504
0,600833	0,1	0,044052
0,602500	0,1	0,033550
0,604167	0,1	0,012221
0,605833	0,1	0,014931
0,607500	0,1	0,015491
0,609167	0,1	0,017065
0,610833	0,1	0,025980
0,612500	0,1	0,048612
0,614167	0,1	0,029491
0,615833	0,1	0,057774
0,617500	0,1	0,066259
0,619167	0,1	0,020893
0,620833	0,1	0,075080
0,622500	0,1	0,036211
0,624167	0,1	0,003396
0,625833	0,1	0,024254
0,627500	0,1	0,065771
0,629167	0,1	0,015878
0,630833	0,1	0,046039
0,632500	0,1	0,078753
0,634167	0,1	0,056522
0,635833	0,1	0,038300
0,637500	0,1	0,033924
0,639167	0,1	0,040182
0,640833	0,1	0,060886
0,642500	0,1	0,064997
0,644167	0,1	0,098954
0,645833	0,1	0,011389
0,647500	0,1	0,084730
0,649167	0,1	0,042121
0,650833	0,1	0,072389
0,652500	0,1	0,057909
0,654167	0,1	0,065654
0,655833	0,1	0,080522
0,657500	0,1	0,075157
0,659167	0,1	0,059922
0,660833	0,1	0,058179
0,662500	0,1	0,058219
0,664167	0,1	0,049678
0,665833	0,1	0,103674
0,667500	0,1	0,047016
0,669167	0,1	0,091981
0,670833	0,1	0,104946
0,672500	0,1	0,071245
0,674167	0,1	0,052252
0,675833	0,1	0,069204
0,677500	0,1	0,085852
0,679167	0,1	0,055427
0,680833	0,1	0,102907
0,682500	0,1	0,088884
0,684167	0,1	0,057380
0,685833	0,1	0,070616
0,687500	0,1	0,084693
0,689167	0,1	0,119864
0,690833	0,1	0,098981
0,692500	0,1	0,108615
0,694167	0,1	0,099027
0,695833	0,1	0,080139
0,697500	0,1	0,079012
0,699167	0,1	0,113775
0,700833	0,1	0,121041
0,702500	0,1	0,127899
0,704167	0,1	0,097433
0,705833	0,1	0,101546
0,707500	0,1	0,103233
0,709167	0,1	0,137194
0,710833	0,1	0,116561
0,712500	0,1	0,098261
0,714167	0,1	0,120622
0,715833	0,1	0,105861
0,717500	0,1	0,134901
0,719167	0,1	0,115338
0,720833	0,1	0,159387
0,722500	0,1	0,170801
0,724167	0,1	0,151172
0,725833	0,1	0,172148
0,727500	0,1	0,174735
0,729167	0,1	0,153353
0,730833	0,1	0,131206
0,732500	0,1	0,171780
0,734167	0,1	0,183307
0,735833	0,1	0,163122
0,737500	0,1	0,147831
0,739167	0,1	0,224019
0,740833	0,1	0,162841
0,742500	0,1	0,173980
0,744167	0,1	0,169231
0,745833	0,1	0,194005
0,747500	0,1	0,217956
0,749167	0,1	0,143432
0,750833	0,1	0,214857
0,752500	0,1	0,191083
0,754167	0,1	0,210015
0,755833	0,1	0,197636
0,757500	0,1	0,181220
0,759167	0,1	0,220496
0,760833	0,1	0,226345
0,762500	0,1	0,223233
0,764167	0,1	0,236667
0,765833	0,1	0,218310
0,767500	0,1	0,254049
0,769167	0,1	0,205306
0,770833	0,1	0,245371
0,772500	0,1	0,220312
0,774167	0,1	0,211988
0,775833	0,1	0,220368
0,777500	0,1	0,197069
0,779167	0,1	0,204133
0,780833	0,1	0,203971
0,782500	0,1	0,219751
0,784167	0,1	0,235733
0,785833	0,1	0,198004
0,787500	0,1	0,183728
0,789167	0,1	0,217799
0,790833	0,1	0,223963
0,792500	0,1	0,190804
0,794167	0,1	0,257391
0,795833	0,1	0,211218
0,797500	0,1	0,237252
0,799167	0,1	0,210381
0,800833	0,1	0,265046
0,802500	0,1	0,210577
0,804167	0,1	0,205837
0,805833	0,1	0,222231
0,807500	0,1	0,240685
0,809167	0,1	0,212607
0,810833	0,1	0,229240
0,812500	0,1	0,221179
0,814167	0,1	0,188043
0,815833	0,1	0,230773
0,817500	0,1	0,206938
0,819167	0,1	0,202524
0,820833	0,1	0,198775
0,822500	0,1	0,248005
0,824167	0,1	0,190774
0,825833	0,1	0,169966
0,827500	0,1	0,205827
0,829167	0,1	0,169428
0,830833	0,1	0,198605
0,832500	0,1	0,202585
0,834167	0,1	0,190925
0,835833	0,1	0,226338
0,837500	0,1	0,247638
0,839167	0,1	0,192070
0,840833	0,1	0,231581
0,842500	0,1	0,194536
0,844167	0,1	0,194102
0,845833	0,1	0,186905
0,847500	0,1	0,196253
0,849167	0,1	0,178877
0,850833	0,1	0,205224
0,852500	0,1	0,216446
0,854167	0,1	0,159853
0,855833	0,1	0,205245
0,857500	0,1	0,223871
0,859167	0,1	0,232747
0,860833	0,1	0,173870
0,862500	0,1	0,223411
0,864167	0,1	0,209092
0,865833	0,1	0,197418
0,867500	0,1	0,202522
0,869167	0,1	0,195969
0,870833	0,1	0,193052
0,872500	0,1	0,207862
0,874167	0,1	0,183857
0,875833	0,1	0,201686
0,877500	0,1	0,192400
0,879167	0,1	0,196609
0,880833	0,1	0,218689
0,882500	0,1	0,198642
0,884167	0,1	0,229752
0,885833	0,1	0,208830
0,887500	0,1	0,175150
0,889167	0,1	0,170253
0,890833	0,1	0,245752
0,892500	0,1	0,194957
0,894167	0,1	0,203968
0,895833	0,1	0,206969
0,897500	0,1	0,216928
0,899167	0,1	0,206709
0,900833	0,1	0,219816
0,902500	0,1	0,210791
0,904167	0,1	0,237596
0,905833	0,1	0,240237
0,907500	0,1	0,208931
0,909167	0,1	0,185497
0,910833	0,1	0,239772
0,912500	0,1	0,207674
0,914167	0,1	0,227077
0,915833	0,1	0,205942
0,917500	0,1	0,244631
0,919167	0,1	0,227800
0,920833	0,1	0,238433
0,922500	0,1	0,227989
0,924167	0,1	0,237311
0,925833	0,1	0,248720
0,927500	0,1	0,239977
0,929167	0,1	0,255474
0,930833	0,1	0,253351
0,932500	0,1	0,226679
0,934167	0,1	0,272891
0,935833	0,1	0,220247
0,937500	0,1	0,250454
0,939167	0,1	0,222369
0,940833	0,1	0,224962
0,942500	0,1	0,246818
0,944167	0,1	0,257531
0,945833	0,1	0,233842
0,947500	0,1	0,227409
0,949167	0,1	0,278967
0,950833	0,1	0,260401
0,952500	0,1	0,258016
0,954167	0,1	0,275470
0,955833	0,1	0,263615
0,957500	0,1	0,271389
0,959167	0,1	0,243649
0,960833	0,1	0,232816
0,962500	0,1	0,279639
0,964167	0,1	0,255132
0,965833	0,1	0,300610
0,967500	0,1	0,242273
0,969167	0,1	0,270226
0,970833	0,1	0,229896
0,972500	0,1	0,290892
0,974167	0,1	0,257860
0,975833	0,1	0,253931
0,977500	0,1	0,288065
0,979167	0,1	0,275061
0,980833	0,1	0,302538
0,982500	0,1	0,282321
0,984167	0,1	0,293730
0,985833	0,1	0,368253
0,987500	0,1	0,324710
0,989167	0,1	0,309206
0,990833	0,1	0,328841
0,992500	0,1	0,333186
0,994167	0,1	0,350291
0,995833	0,1	0,338364
0,997500	0,1	0,338012
0,999167	0,1	0,361124
1,000833	0,1	0,361484
1,002500	0,1	0,367108
1,004167	0,1	0,391963
1,005833	0,1	0,387340
1,007500	0,1	0,366890
1,009167	0,1	0,360485
1,010833	0,1	0,396687
1,012500	0,1	0,414864
1,014167	0,1	0,400237
1,015833	0,1	0,430007
1,017500	0,1	0,469341
1,019167	0,1	0,473820
1,020833	0,1	0,472982
1,022500	0,1	0,468194
1,024167	0,1	0,437710
1,025833	0,1	0,497739
1,027500	0,1	0,532223
1,029167	0,1	0,521915
1,030833	0,1	0,579801
1,032500	0,1	0,509188
1,034167	0,1	0,563620
1,035833	0,1	0,546237
1,037500	0,1	0,577942
1,039167	0,1	0,528776
1,040833	0,1	0,558191
1,042500	0,1	0,593774
1,044167	0,1	0,600989
1,045833	0,1	0,558533
1,047500	0,1	0,606285
1,049167	0,1	0,603443
1,050833	0,1	0,641067
1,052500	0,1	0,659837
1,054167	0,1	0,713761
1,055833	0,1	0,713368
1,057500	0,1	0,761254
1,059167	0,1	0,836672
1,060833	0,1	0,935004
1,062500	0,1	1,102812
1,064167	0,1	1,245372
1,065833	0,1	1,473613
1,067500	0,1	1,777618
1,069167	0,1	2,099484
1,070833	0,1	2,567760
1,072500	0,1	3,128795
1,074167	0,1	3,843180
1,075833	0,1	4,742602
1,077500	0,1	5,684232
1,079167	0,1	6,865440
1,080833	0,1	8,237868
1,082500	0,1	9,785269
1,084167	0,1	11,419098
1,085833	0,1	13,338745
1,087500	0,1	15,381294
1,089167	0,1	17,525517
1,090833	0,1	19,854316
1,092500	0,1	22,204214
1,094167	0,1	24,684042
1,095833	0,1	27,160400
1,097500	0,1	29,613871
1,099167	0,1	32,019400
1,100833	0,1	34,341889
1,102500	0,1	36,492770
1,104167	0,1	38,538733
1,105833	0,1	40,377489
1,107500	0,1	41,976165
1,109167	0,1	43,441857
1,110833	0,1	44,583121
1,112500	0,1	45,533494
1,114167	0,1	46,245563
1,115833	0,1	46,735784
1,117500	0,1	47,013254
1,119167	0,1	47,103865
1,120833	0,1	47,000202
1,122500	0,1	46,755395
1,124167	0,1	46,356542
1,125833	0,1	45,806154
1,127500	0,1	45,182534
1,129167	0,1	44,472695
1,130833	0,1	43,631900
1,132500	0,1	42,813430
1,134167	0,1	41,923811
1,135833	0,1	40,971986
1,137500	0,1	40,046278
1,139167	0,1	39,113595
1,140833	0,1	38,272661
1,142500	0,1	37,366208
1,144167	0,1	36,553606
1,145833	0,1	35,810222
1,147500	0,1	35,032835
1,149167	0,1	34,372940
1,150833	0,1	33,831686
1,152500	0,1	33,277965
1,154167	0,1	32,809556
1,155833	0,1	32,442192
1,157500	0,1	32,095587
1,159167	0,1	31,891860
1,160833	0,1	31,702867
1,162500	0,1	31,590491
1,164167	0,1	31,508047
1,165833	0,1	31,513760
1,167500	0,1	31,476286
1,169167	0,1	31,580280
1,170833	0,1	31,595334
1,172500	0,1	31,653898
1,174167	0,1	31,714519
1,175833	0,1	31,831653
1,177500	0,1	31,863208
1,179167	0,1	31,995975
1,180833	0,1	32,029802
1,182500	0,1	32,081995
1,184167	0,1	32,042545
1,185833	0,1	32,080693
1,187500	0,1	32,063356
1,189167	0,1	32,159173
1,190833	0,1	32,119582
1,192500	0,1	32,163458
1,194167	0,1	32,232657
1,195833	0,1	32,343577
1,197500	0,1	32,475466
1,199167	0,1	32,719593
1,200833	0,1	33,142729
1,202500	0,1	33,597821
1,204167	0,1	34,185088
1,205833	0,1	34,974706
1,207500	0,1	35,975727
1,209167	0,1	37,161471
1,210833	0,1	38,583104
1,212500	0,1	40,106337
1,214167	0,1	41,973462
1,215833	0,1	44,019945
1,217500	0,1	46,327022
1,219167	0,1	48,840721
1,220833	0,1	51,547108
1,222500	0,1	54,363368
1,224167	0,1	57,460155
1,225833	0,1	60,567732
1,227500	0,1	63,778231
1,229167	0,1	67,026850
1,230833	0,1	70,274131
1,232500	0,1	73,540461
1,234167	0,1	76,716605
1,235833	0,1	79,830192
1,237500	0,1	82,759008
1,239167	0,1	85,611256
1,240833	0,1	88,233986
1,242500	0,1	90,724745
1,244167	0,1	93,021621
1,245833	0,1	94,987041
1,247500	0,1	96,831865
1,249167	0,1	98,329762
1,250833	0,1	99,650644
1,252500	0,1	100,732368
1,254167	0,1	101,599062
1,255833	0,1	102,120197
1,257500	0,1	102,478324
1,259167	0,1	102,530993
1,260833	0,1	102,387114
1,262500	0,1	102,093171
1,264167	0,1	101,575123
1,265833	0,1	100,768799
1,267500	0,1	99,811459
1,269167	0,1	98,703081
1,270833	0,1	97,407311
1,272500	0,1	95,948172
1,274167	0,1	94,380022
1,275833	0,1	92,616642
1,277500	0,1	90,774961
1,279167	0,1	88,902007
1,280833	0,1	86,844879
1,282500	0,1	84,707305
1,284167	0,1	82,614075
1,285833	0,1	80,416161
1,287500	0,1	78,227359
1,289167	0,1	76,036324
1,290833	0,1	73,842063
1,292500	0,1	71,608144
1,294167	0,1	69,438862
1,295833	0,1	67,322618
1,297500	0,1	65,207441
1,299167	0,1	63,128578
1,300833	0,1	61,119988
1,302500	0,1	59,209287
1,304167	0,1	57,321150
1,305833	0,1	55,509369
1,307500	0,1	53,746081
1,309167	0,1	52,030095
1,310833	0,1	50,472973
1,312500	0,1	48,919579
1,314167	0,1	47,423732
1,315833	0,1	46,019937
1,317500	0,1	44,678734
1,319167	0,1	43,406881
1,320833	0,1	42,198887
1,322500	0,1	41,001077
1,324167	0,1	39,916083
1,325833	0,1	38,856993
1,327500	0,1	37,848553
1,329167	0,1	36,895137
1,330833	0,1	35,917573
1,332500	0,1	35,034489
1,334167	0,1	34,180348
1,335833	0,1	33,343536
1,337500	0,1	32,573071
1,339167	0,1	31,788036
1,340833	0,1	31,120317
1,342500	0,1	30,368799
1,344167	0,1	29,635184
1,345833	0,1	29,007434
1,347500	0,1	28,372228
1,349167	0,1	27,788725
1,350833	0,1	27,121233
1,352500	0,1	26,493384
1,354167	0,1	25,984857
1,355833	0,1	25,321295
1,357500	0,1	24,769299
1,359167	0,1	24,300555
1,360833	0,1	23,752874
1,362500	0,1	23,212177
1,364167	0,1	22,721051
1,365833	0,1	22,201780
1,367500	0,1	21,748295
1,369167	0,1	21,244585
1,370833	0,1	20,779897
1,372500	0,1	20,290579
1,374167	0,1	19,875891
1,375833	0,1	19,448088
1,377500	0,1	18,972116
1,379167	0,1	18,611405
1,380833	0,1	18,186458
1,382500	0,1	17,757121
1,384167	0,1	17,381876
1,385833	0,1	16,992934
1,387500	0,1	16,637170
1,389167	0,1	16,297576
1,390833	0,1	15,956527
1,392500	0,1	15,621070
1,394167	0,1	15,305035
1,395833	0,1	14,956784
1,397500	0,1	14,651861
1,399167	0,1	14,329095
1,400833	0,1	14,078547
1,402500	0,1	13,765782
1,404167	0,1	13,559942
1,405833	0,1	13,280303
1,407500	0,1	13,010901
1,409167	0,1	12,799445
1,410833	0,1	12,538966
1,412500	0,1	12,313206
1,414167	0,1	12,101130
1,415833	0,1	11,885119
1,417500	0,1	11,680549
1,419167	0,1	11,464908
1,420833	0,1	11,286041
1,422500	0,1	11,146266
1,424167	0,1	10,884320
1,425833	0,1	10,770080
1,427500	0,1	10,576258
1,429167	0,1	10,429662
1,430833	0,1	10,211578
1,432500	0,1	10,106152
1,434167	0,1	9,948646
1,435833	0,1	9,773469
1,437500	0,1	9,653922
1,439167	0,1	9,532055
1,440833	0,1	9,376886
1,442500	0,1	9,257143
1,444167	0,1	9,124810
1,445833	0,1	8,960133
1,447500	0,1	8,848645
1,449167	0,1	8,732656
1,450833	0,1	8,602963
1,452500	0,1	8,489280
1,454167	0,1	8,364920
1,455833	0,1	8,299060
1,457500	0,1	8,122911
1,459167	0,1	8,035032
1,460833	0,1	7,938264
1,462500	0,1	7,775019
1,464167	0,1	7,729464
1,465833	0,1	7,658261
1,467500	0,1	7,532054
1,469167	0,1	7,487193
1,470833	0,1	7,324108
1,472500	0,1	7,314268
1,474167	0,1	7,217016
1,475833	0,1	7,145334
1,477500	0,1	7,064999
1,479167	0,1	6,985695
1,480833	0,1	6,958164
1,482500	0,1	6,872926
1,484167	0,1	6,867965
1,485833	0,1	6,787689
1,487500	0,1	6,689050
1,489167	0,1	6,714473
1,490833	0,1	6,628364
1,492500	0,1	6,604576
1,494167	0,1	6,604570
1,495833	0,1	6,530782
1,497500	0,1	6,530197
1,499167	0,1	6,503569
1,500833	0,1	6,512490
1,502500	0,1	6,486689
1,504167	0,1	6,429483
1,505833	0,1	6,406193
1,507500	0,1	6,416984
1,509167	0,1	6,384378
1,510833	0,1	6,368557
1,512500	0,1	6,358859
1,514167	0,1	6,357741
1,515833	0,1	6,347484
1,517500	0,1	6,323560
1,519167	0,1	6,341790
1,520833	0,1	6,302048
1,522500	0,1	6,276516
1,524167	0,1	6,282015
1,525833	0,1	6,263676
1,527500	0,1	6,229862
1,529167	0,1	6,222944
1,530833	0,1	6,203423
1,532500	0,1	6,205644
1,534167	0,1	6,147950
1,535833	0,1	6,161812
1,537500	0,1	6,104902
1,539167	0,1	6,104351
1,540833	0,1	6,089670
1,542500	0,1	6,058932
1,544167	0,1	6,085535
1,545833	0,1	5,991720
1,547500	0,1	5,979287
1,549167	0,1	5,969947
1,550833	0,1	5,929934
1,552500	0,1	5,929539
1,554167	0,1	5,877175
1,555833	0,1	5,835368
1,557500	0,1	5,842569
1,559167	0,1	5,802998
1,560833	0,1	5,782893
1,562500	0,1	5,762916
1,564167	0,1	5,729658
1,565833	0,1	5,697120
1,567500	0,1	5,649195
1,569167	0,1	5,630514
1,570833	0,1	5,571589
1,572500	0,1	5,565980
1,574167	0,1	5,553742
1,575833	0,1	5,474774
1,577500	0,1	5,476446
1,579167	0,1	5,453589
1,580833	0,1	5,473447
1,582500	0,1	5,363495
1,584167	0,1	5,390334
1,585833	0,1	5,343094
1,587500	0,1	5,336689
1,589167	0,1	5,275728
1,590833	0,1	5,308402
1,592500	0,1	5,210978
1,594167	0,1	5,215154
1,595833	0,1	5,185256
1,597500	0,1	5,097403
1,599167	0,1	5,127737
1,600833	0,1	5,105302
1,602500	0,1	5,055474
1,604167	0,1	4,988464
1,605833	0,1	4,992093
1,607500	0,1	4,980793
1,609167	0,1	4,916659
1,610833	0,1	4,883536
1,612500	0,1	4,867623
1,614167	0,1	4,831376
1,615833	0,1	4,865441
1,617500	0,1	4,793729
1,619167	0,1	4,763433
1,620833	0,1	4,748969
1,622500	0,1	4,666901
1,624167	0,1	4,674425
1,625833	0,1	4,640362
1,627500	0,1	4,641451
1,629167	0,1	4,594999
1,630833	0,1	4,603498
1,632500	0,1	4,533147
1,634167	0,1	4,549382
1,635833	0,1	4,542942
1,637500	0,1	4,516408
1,639167	0,1	4,439285
1,640833	0,1	4,458172
1,642500	0,1	4,430020
1,644167	0,1	4,407255
1,645833	0,1	4,403280
1,647500	0,1	4,359553
1,649167	0,1	4,362660
1,650833	0,1	4,338652
1,652500	0,1	4,299556
1,654167	0,1	4,342775
1,655833	0,1	4,293146
1,657500	0,1	4,259443
1,659167	0,1	4,257891
1,660833	0,1	4,295725
1,662500	0,1	4,259156
1,664167	0,1	4,261542
1,665833	0,1	4,241026
1,667500	0,1	4,260927
1,669167	0,1	4,247308
1,670833	0,1	4,252334
1,672500	0,1	4,278086
1,674167	0,1	4,292244
1,675833	0,1	4,286327
1,677500	0,1	4,326268
1,679167	0,1	4,320596
1,680833	0,1	4,373079
1,682500	0,1	4,394141
1,684167	0,1	4,427619
1,685833	0,1	4,462383
1,687500	0,1	4,510227
1,689167	0,1	4,566185
1,690833	0,1	4,567676
1,692500	0,1	4,624420
1,694167	0,1	4,698061
1,695833	0,1	4,714948
1,697500	0,1	4,814512
1,699167	0,1	4,835627
1,700833	0,1	4,908796
1,702500	0,1	4,971224
1,704167	0,1	5,062621
1,705833	0,1	5,114589
1,707500	0,1	5,188175
1,709167	0,1	5,240073
1,710833	0,1	5,326603
1,712500	0,1	5,422694
1,714167	0,1	5,475349
1,715833	0,1	5,577167
1,717500	0,1	5,602008
1,719167	0,1	5,717109
1,720833	0,1	5,816600
1,722500	0,1	5,859357
1,724167	0,1	5,882425
1,725833	0,1	5,950932
1,727500	0,1	6,031910
1,729167	0,1	6,078362
1,730833	0,1	6,102862
1,732500	0,1	6,129096
1,734167	0,1	6,209434
1,735833	0,1	6,260690
1,737500	0,1	6,335868
1,739167	0,1	6,278852
1,740833	0,1	6,349347
1,742500	0,1	6,352994
1,744167	0,1	6,351411
1,745833	0,1	6,429555
1,747500	0,1	6,432834
1,749167	0,1	6,389506
1,750833	0,1	6,384941
1,752500	0,1	6,381414
1,754167	0,1	6,385212
1,755833	0,1	6,390141
1,757500	0,1	6,367900
1,759167	0,1	6,345159
1,760833	0,1	6,338073
1,762500	0,1	6,286041
1,764167	0,1	6,273905
1,765833	0,1	6,238808
1,767500	0,1	6,201292
1,769167	0,1	6,153701
1,770833	0,1	6,076717
1,772500	0,1	6,082282
1,774167	0,1	6,012194
1,775833	0,1	6,006520
1,777500	0,1	5,964743
1,779167	0,1	5,892798
1,780833	0,1	5,791184
1,782500	0,1	5,810041
1,784167	0,1	5,729175
1,785833	0,1	5,605190
1,787500	0,1	5,598547
1,789167	0,1	5,550779
1,790833	0,1	5,482166
1,792500	0,1	5,403717
1,794167	0,1	5,290418
1,795833	0,1	5,262147
1,797500	0,1	5,158108
1,799167	0,1	5,124048
1,800833	0,1	5,047767
1,802500	0,1	5,012369
1,804167	0,1	4,926213
1,805833	0,1	4,837665
1,807500	0,1	4,813377
1,809167	0,1	4,755195
1,810833	0,1	4,631306
1,812500	0,1	4,588421
1,814167	0,1	4,522261
1,815833	0,1	4,462324
1,817500	0,1	4,372261
1,819167	0,1	4,343486
1,820833	0,1	4,259654
1,822500	0,1	4,219617
1,824167	0,1	4,104556
1,825833	0,1	4,082677
1,827500	0,1	4,027192
1,829167	0,1	3,983852
1,830833	0,1	3,910741
1,832500	0,1	3,894847
1,834167	0,1	3,846593
1,835833	0,1	3,840032
1,837500	0,1	3,840210
1,839167	0,1	3,786384
1,840833	0,1	3,783745
1,842500	0,1	3,753968
1,844167	0,1	3,766432
1,845833	0,1	3,747925
1,847500	0,1	3,805532
1,849167	0,1	3,782897
1,850833	0,1	3,794226
1,852500	0,1	3,790341
1,854167	0,1	3,867115
1,855833	0,1	3,856751
1,857500	0,1	3,867735
1,859167	0,1	3,909267
1,860833	0,1	3,922961
1,862500	0,1	3,976783
1,864167	0,1	4,003218
1,865833	0,1	3,995758
1,867500	0,1	4,030450
1,869167	0,1	4,080922
1,870833	0,1	4,104644
1,872500	0,1	4,104243
1,874167	0,1	4,111377
1,875833	0,1	4,144374
1,877500	0,1	4,186668
1,879167	0,1	4,218869
1,880833	0,1	4,219322
1,882500	0,1	4,254192
1,884167	0,1	4,283841
1,885833	0,1	4,241151
1,887500	0,1	4,294827
1,889167	0,1	4,315974
1,890833	0,1	4,345496
1,892500	0,1	4,326650
1,894167	0,1	4,359371
1,895833	0,1	4,413078
1,897500	0,1	4,433457
1,899167	0,1	4,416826
1,900833	0,1	4,429608
1,902500	0,1	4,445188
1,904167	0,1	4,458458
1,905833	0,1	4,446047
1,907500	0,1	4,530629
1,909167	0,1	4,483783
1,910833	0,1	4,502570
1,912500	0,1	4,467027
1,914167	0,1	4,485076
1,915833	0,1	4,515095
1,917500	0,1	4,489312
1,919167	0,1	4,531408
1,920833	0,1	4,504071
1,922500	0,1	4,485013
1,924167	0,1	4,475170
1,925833	0,1	4,468319
1,927500	0,1	4,495168
1,929167	0,1	4,498869
1,930833	0,1	4,493595
1,932500	0,1	4,461623
1,934167	0,1	4,428082
1,935833	0,1	4,463033
1,937500	0,1	4,434200
1,939167	0,1	4,381713
1,940833	0,1	4,392398
1,942500	0,1	4,400032
1,944167	0,1	4,414312
1,945833	0,1	4,337703
1,947500	0,1	4,371785
1,949167	0,1	4,399289
1,950833	0,1	4,293653
1,952500	0,1	4,357253
1,954167	0,1	4,314728
1,955833	0,1	4,336458
1,957500	0,1	4,260141
1,959167	0,1	4,334697
1,960833	0,1	4,250813
1,962500	0,1	4,253999
1,964167	0,1	4,246782
1,965833	0,1	4,258335
1,967500	0,1	4,253596
1,969167	0,1	4,242647
1,970833	0,1	4,228410
1,972500	0,1	4,214014
1,974167	0,1	4,226943
1,975833	0,1	4,246978
1,977500	0,1	4,259837
1,979167	0,1	4,223833
1,980833	0,1	4,254516
1,982500	0,1	4,210978
1,984167	0,1	4,227226
1,985833	0,1	4,221270
1,987500	0,1	4,188632
1,989167	0,1	4,220451
1,990833	0,1	4,232987
1,992500	0,1	4,234936
1,994167	0,1	4,274267
1,995833	0,1	4,244515
1,997500	0,1	4,275326
1,999167	0,1	4,257325
2,000833	0,1	4,238063
2,002500	0,1	4,300258
2,004167	0,1	4,312233
2,005833	0,1	4,275342
2,007500	0,1	4,291024
2,009167	0,1	4,299140
2,010833	0,1	4,327851
2,012500	0,1	4,311599
2,014167	0,1	4,341356
2,015833	0,1	4,345993
2,017500	0,1	4,355166
2,019167	0,1	4,377706
2,020833	0,1	4,395806
2,022500	0,1	4,403837
2,024167	0,1	4,401690
2,025833	0,1	4,453126
2,027500	0,1	4,506188
2,029167	0,1	4,431083
2,030833	0,1	4,503398
2,032500	0,1	4,463462
2,034167	0,1	4,474487
2,035833	0,1	4,504659
2,037500	0,1	4,547075
2,039167	0,1	4,548396
2,040833	0,1	4,581812
2,042500	0,1	4,587393
2,044167	0,1	4,598017
2,045833	0,1	4,693675
2,047500	0,1	4,678061
2,049167	0,1	4,631853
2,050833	0,1	4,691701
2,052500	0,1	4,737211
2,054167	0,1	4,706330
2,055833	0,1	4,755515
2,057500	0,1	4,750768
2,059167	0,1	4,795000
2,060833	0,1	4,819381
2,062500	0,1	4,808008
2,064167	0,1	4,827326
2,065833	0,1	4,842816
2,067500	0,1	4,816827
2,069167	0,1	4,895431
2,070833	0,1	4,896044
2,072500	0,1	4,910225
2,074167	0,1	4,975490
2,075833	0,1	4,966635
2,077500	0,1	4,926059
2,079167	0,1	5,011321
2,080833	0,1	5,011341
2,082500	0,1	5,042397
2,084167	0,1	5,021551
2,085833	0,1	5,021036
2,087500	0,1	5,091033
2,089167	0,1	5,083279
2,090833	0,1	5,085142
2,092500	0,1	5,110294
2,094167	0,1	5,145574
2,095833	0,1	5,139930
2,097500	0,1	5,157514
2,099167	0,1	5,132985
2,100833	0,1	5,135999
2,102500	0,1	5,155477
2,104167	0,1	5,191350
2,105833	0,1	5,198452
2,107500	0,1	5,164936
2,109167	0,1	5,222339
2,110833	0,1	5,154906
2,112500	0,1	5,157826
2,114167	0,1	5,207554
2,115833	0,1	5,218697
2,117500	0,1	5,207903
2,119167	0,1	5,248716
2,120833	0,1	5,221760
2,122500	0,1	5,254608
2,124167	0,1	5,255378
2,125833	0,1	5,255685
2,127500	0,1	5,252665
2,129167	0,1	5,255856
2,130833	0,1	5,262360
2,132500	0,1	5,210710
2,134167	0,1	5,217320
2,135833	0,1	5,210169
2,137500	0,1	5,247538
2,139167	0,1	5,273472
2,140833	0,1	5,223888
2,142500	0,1	5,235458
2,144167	0,1	5,199626
2,145833	0,1	5,223639
2,147500	0,1	5,222318
2,149167	0,1	5,232328
2,150833	0,1	5,204570
2,152500	0,1	5,164425
2,154167	0,1	5,211484
2,155833	0,1	5,148515
2,157500	0,1	5,166984
2,159167	0,1	5,140557
2,160833	0,1	5,164666
2,162500	0,1	5,145193
2,164167	0,1	5,152681
2,165833	0,1	5,139372
2,167500	0,1	5,088946
2,169167	0,1	5,166826
2,170833	0,1	5,084088
2,172500	0,1	5,110268
2,174167	0,1	5,113045
2,175833	0,1	5,037081
2,177500	0,1	5,053368
2,179167	0,1	5,076770
2,180833	0,1	5,057672
2,182500	0,1	5,047579
2,184167	0,1	5,049866
2,185833	0,1	5,017823
2,187500	0,1	4,997441
2,189167	0,1	5,020098
2,190833	0,1	5,015866
2,192500	0,1	4,990546
2,194167	0,1	4,985936
2,195833	0,1	4,974462
2,197500	0,1	4,992005
2,199167	0,1	4,955421
2,200833	0,1	4,927446
2,202500	0,1	4,955096
2,204167	0,1	4,979118
2,205833	0,1	4,908861
2,207500	0,1	4,895590
2,209167	0,1	4,903841
2,210833	0,1	4,880172
2,212500	0,1	4,858695
2,214167	0,1	4,880245
2,215833	0,1	4,875052
2,217500	0,1	4,872168
2,219167	0,1	4,872826
2,220833	0,1	4,869937
2,222500	0,1	4,844254
2,224167	0,1	4,858411
2,225833	0,1	4,877904
2,227500	0,1	4,858222
2,229167	0,1	4,843265
2,230833	0,1	4,842382
2,232500	0,1	4,843798
2,234167	0,1	4,863692
2,235833	0,1	4,896405
2,237500	0,1	4,878702
2,239167	0,1	4,826412
2,240833	0,1	4,885800
2,242500	0,1	4,845544
2,244167	0,1	4,890805
2,245833	0,1	4,857398
2,247500	0,1	4,883438
2,249167	0,1	4,891325
2,250833	0,1	4,848900
2,252500	0,1	4,894986
2,254167	0,1	4,881614
2,255833	0,1	4,861157
2,257500	0,1	4,857054
2,259167	0,1	4,862480
2,260833	0,1	4,917905
2,262500	0,1	4,869214
2,264167	0,1	4,866015
2,265833	0,1	4,857424
2,267500	0,1	4,846546
2,269167	0,1	4,899846
2,270833	0,1	4,830483
2,272500	0,1	4,811113
2,274167	0,1	4,834159
2,275833	0,1	4,813409
2,277500	0,1	4,876396
2,279167	0,1	4,829911
2,280833	0,1	4,836962
2,282500	0,1	4,814457
2,284167	0,1	4,819963
2,285833	0,1	4,795699
2,287500	0,1	4,795610
2,289167	0,1	4,798741
2,290833	0,1	4,794080
2,292500	0,1	4,779652
2,294167	0,1	4,788796
2,295833	0,1	4,763298
2,297500	0,1	4,774217
2,299167	0,1	4,733269
2,300833	0,1	4,706096
2,302500	0,1	4,702610
2,304167	0,1	4,705273
2,305833	0,1	4,682678
2,307500	0,1	4,662291
2,309167	0,1	4,676039
2,310833	0,1	4,622893
2,312500	0,1	4,668553
2,314167	0,1	4,639077
2,315833	0,1	4,621004
2,317500	0,1	4,584993
2,319167	0,1	4,604676
2,320833	0,1	4,558997
2,322500	0,1	4,577105
2,324167	0,1	4,546808
2,325833	0,1	4,521613
2,327500	0,1	4,563343
2,329167	0,1	4,537798
2,330833	0,1	4,517386
2,332500	0,1	4,485206
2,334167	0,1	4,495374
2,335833	0,1	4,480492
2,337500	0,1	4,483534
2,339167	0,1	4,433674
2,340833	0,1	4,456261
2,342500	0,1	4,414161
2,344167	0,1	4,420313
2,345833	0,1	4,394765
2,347500	0,1	4,376951
2,349167	0,1	4,345751
2,350833	0,1	4,375763
2,352500	0,1	4,336921
2,354167	0,1	4,320237
2,355833	0,1	4,310944
2,357500	0,1	4,328666
2,359167	0,1	4,264642
2,360833	0,1	4,286116
2,362500	0,1	4,247031
2,364167	0,1	4,252982
2,365833	0,1	4,275246
2,367500	0,1	4,246703
2,369167	0,1	4,248563
2,370833	0,1	4,250062
2,372500	0,1	4,207896
2,374167	0,1	4,229292
2,375833	0,1	4,242679
2,377500	0,1	4,267214
2,379167	0,1	4,239038
2,380833	0,1	4,262628
2,382500	0,1	4,249905
2,384167	0,1	4,261013
2,385833	0,1	4,300471
2,387500	0,1	4,284745
2,389167	0,1	4,361263
2,390833	0,1	4,344700
2,392500	0,1	4,407473
2,394167	0,1	4,452314
2,395833	0,1	4,478132
2,397500	0,1	4,553726
2,399167	0,1	4,602872
2,400833	0,1	4,656012
2,402500	0,1	4,740868
2,404167	0,1	4,780844
2,405833	0,1	4,842568
2,407500	0,1	4,975899
2,409167	0,1	5,059853
2,410833	0,1	5,199608
2,412500	0,1	5,280835
2,414167	0,1	5,400739
2,415833	0,1	5,551470
2,417500	0,1	5,646744
2,419167	0,1	5,837846
2,420833	0,1	6,018855
2,422500	0,1	6,131862
2,424167	0,1	6,338038
2,425833	0,1	6,544132
2,427500	0,1	6,665313
2,429167	0,1	6,891039
2,430833	0,1	7,078835
2,432500	0,1	7,321859
2,434167	0,1	7,494254
2,435833	0,1	7,709790
2,437500	0,1	7,936992
2,439167	0,1	8,207216
2,440833	0,1	8,400299
2,442500	0,1	8,596657
2,444167	0,1	8,834703
2,445833	0,1	9,023991
2,447500	0,1	9,315466
2,449167	0,1	9,535021
2,450833	0,1	9,690863
2,452500	0,1	9,960899
2,454167	0,1	10,134367
2,455833	0,1	10,312862
2,457500	0,1	10,549765
2,459167	0,1	10,686922
2,460833	0,1	10,923019
2,462500	0,1	11,100813
2,464167	0,1	11,299667
2,465833	0,1	11,440320
2,467500	0,1	11,623849
2,469167	0,1	11,748311
2,470833	0,1	11,915015
2,472500	0,1	12,081995
2,474167	0,1	12,184125
2,475833	0,1	12,351465
2,477500	0,1	12,450309
2,479167	0,1	12,634265
2,480833	0,1	12,760471
2,482500	0,1	12,876144
2,484167	0,1	13,018476
2,485833	0,1	13,106957
2,487500	0,1	13,229854
2,489167	0,1	13,330960
2,490833	0,1	13,497862
2,492500	0,1	13,636825
2,494167	0,1	13,740393
2,495833	0,1	13,884624
2,497500	0,1	14,024067
2,499167	0,1	14,217282
2,500833	0,1	14,332282
2,502500	0,1	14,462235
2,504167	0,1	14,626996
2,505833	0,1	14,810326
2,507500	0,1	15,044057
2,509167	0,1	15,191371
2,510833	0,1	15,421671
2,512500	0,1	15,635992
2,514167	0,1	15,882262
2,515833	0,1	16,135215
2,517500	0,1	16,393923
2,519167	0,1	16,633551
2,520833	0,1	16,971364
2,522500	0,1	17,229028
2,524167	0,1	17,590423
2,525833	0,1	17,898380
2,527500	0,1	18,266529
2,529167	0,1	18,587389
2,530833	0,1	18,943624
2,532500	0,1	19,325826
2,534167	0,1	19,731459
2,535833	0,1	20,183315
2,537500	0,1	20,565490
2,539167	0,1	20,993883
2,540833	0,1	21,394135
2,542500	0,1	21,819027
2,544167	0,1	22,249780
2,545833	0,1	22,744771
2,547500	0,1	23,185006
2,549167	0,1	23,612840
2,550833	0,1	24,082927
2,552500	0,1	24,514704
2,554167	0,1	24,945182
2,555833	0,1	25,464087
2,557500	0,1	25,852689
2,559167	0,1	26,286292
2,560833	0,1	26,677346
2,562500	0,1	27,196072
2,564167	0,1	27,539681
2,565833	0,1	27,992189
2,567500	0,1	28,333444
2,569167	0,1	28,725903
2,570833	0,1	29,120949
2,572500	0,1	29,438945
2,574167	0,1	29,821516
2,575833	0,1	30,090758
2,577500	0,1	30,422543
2,579167	0,1	30,664625
2,580833	0,1	30,938516
2,582500	0,1	31,183276
2,584167	0,1	31,460873
2,585833	0,1	31,655933
2,587500	0,1	31,844917
2,589167	0,1	32,006649
2,590833	0,1	32,176576
2,592500	0,1	32,295177
2,594167	0,1	32,438692
2,595833	0,1	32,559040
2,597500	0,1	32,649867
2,599167	0,1	32,716410
2,600833	0,1	32,756765
2,602500	0,1	32,795706
2,604167	0,1	32,821855
2,605833	0,1	32,814187
2,607500	0,1	32,801340
2,609167	0,1	32,769603
2,610833	0,1	32,711910
2,612500	0,1	32,624490
2,614167	0,1	32,604789
2,615833	0,1	32,473805
2,617500	0,1	32,348875
2,619167	0,1	32,242539
2,620833	0,1	32,170795
2,622500	0,1	31,962552
2,624167	0,1	31,845329
2,625833	0,1	31,676280
2,627500	0,1	31,507617
2,629167	0,1	31,332498
2,630833	0,1	31,143299
2,632500	0,1	30,902683
2,634167	0,1	30,671432
2,635833	0,1	30,483116
2,637500	0,1	30,207826
2,639167	0,1	29,956366
2,640833	0,1	29,734631
2,642500	0,1	29,445717
2,644167	0,1	29,149338
2,645833	0,1	28,910682
2,647500	0,1	28,607087
2,649167	0,1	28,331534
2,650833	0,1	28,015350
2,652500	0,1	27,711591
2,654167	0,1	27,413626
2,655833	0,1	27,109644
2,657500	0,1	26,756741
2,659167	0,1	26,397409
2,660833	0,1	26,107022
2,662500	0,1	25,740532
2,664167	0,1	25,421325
2,665833	0,1	25,086619
2,667500	0,1	24,803867
2,669167	0,1	24,386458
2,670833	0,1	24,030087
2,672500	0,1	23,722097
2,674167	0,1	23,386552
2,675833	0,1	22,999521
2,677500	0,1	22,647413
2,679167	0,1	22,314345
2,680833	0,1	21,976125
2,682500	0,1	21,615394
2,684167	0,1	21,283863
2,685833	0,1	20,983670
2,687500	0,1	20,578224
2,689167	0,1	20,262111
2,690833	0,1	19,959760
2,692500	0,1	19,553422
2,694167	0,1	19,297724
2,695833	0,1	18,884951
2,697500	0,1	18,588469
2,699167	0,1	18,285717
2,700833	0,1	17,982526
2,702500	0,1	17,635086
2,704167	0,1	17,290389
2,705833	0,1	17,051972
2,707500	0,1	16,734631
2,709167	0,1	16,489190
2,710833	0,1	16,132162
2,712500	0,1	15,857861
2,714167	0,1	15,568040
2,715833	0,1	15,289856
2,717500	0,1	15,068368
2,719167	0,1	14,773912
2,720833	0,1	14,467399
2,722500	0,1	14,286320
2,724167	0,1	14,004885
2,725833	0,1	13,739861
2,727500	0,1	13,564766
2,729167	0,1	13,266296
2,730833	0,1	13,098678
2,732500	0,1	12,835738
2,734167	0,1	12,609941
2,735833	0,1	12,395844
2,737500	0,1	12,238026
2,739167	0,1	12,031639
2,740833	0,1	11,777536
2,742500	0,1	11,603086
2,744167	0,1	11,423107
2,745833	0,1	11,240678
2,747500	0,1	11,059160
2,749167	0,1	10,843718
2,750833	0,1	10,702791
2,752500	0,1	10,482008
2,754167	0,1	10,388955
2,755833	0,1	10,223364
2,757500	0,1	10,062220
2,759167	0,1	9,864903
2,760833	0,1	9,749986
2,762500	0,1	9,632771
2,764167	0,1	9,451327
2,765833	0,1	9,349529
2,767500	0,1	9,173658
2,769167	0,1	9,031944
2,770833	0,1	8,921419
2,772500	0,1	8,819628
2,774167	0,1	8,639152
2,775833	0,1	8,521844
2,777500	0,1	8,410930
2,779167	0,1	8,300503
2,780833	0,1	8,206529
2,782500	0,1	8,058596
2,784167	0,1	7,961286
2,785833	0,1	7,859281
2,787500	0,1	7,730127
2,789167	0,1	7,649748
2,790833	0,1	7,526065
2,792500	0,1	7,423536
2,794167	0,1	7,298054
2,795833	0,1	7,249863
2,797500	0,1	7,112500
2,799167	0,1	7,059858
2,800833	0,1	6,885259
2,802500	0,1	6,821445
2,804167	0,1	6,793093
2,805833	0,1	6,682252
2,807500	0,1	6,597983
2,809167	0,1	6,496125
2,810833	0,1	6,412653
2,812500	0,1	6,314367
2,814167	0,1	6,228870
2,815833	0,1	6,112455
2,817500	0,1	6,067600
2,819167	0,1	5,989776
2,820833	0,1	5,911956
2,822500	0,1	5,862313
2,824167	0,1	5,771977
2,825833	0,1	5,687738
2,827500	0,1	5,600838
2,829167	0,1	5,552489
2,830833	0,1	5,479067
2,832500	0,1	5,383334
2,834167	0,1	5,297420
2,835833	0,1	5,249879
2,837500	0,1	5,186506
2,839167	0,1	5,148082
2,840833	0,1	5,104998
2,842500	0,1	5,037446
2,844167	0,1	4,930936
2,845833	0,1	4,917212
2,847500	0,1	4,810798
2,849167	0,1	4,788783
2,850833	0,1	4,712739
2,852500	0,1	4,656137
2,854167	0,1	4,581838
2,855833	0,1	4,551874
2,857500	0,1	4,498114
2,859167	0,1	4,435022
2,860833	0,1	4,424486
2,862500	0,1	4,318841
2,864167	0,1	4,313870
2,865833	0,1	4,237468
2,867500	0,1	4,198730
2,869167	0,1	4,152952
2,870833	0,1	4,096556
2,872500	0,1	4,048031
2,874167	0,1	4,026461
2,875833	0,1	3,939605
2,877500	0,1	3,930428
2,879167	0,1	3,848705
2,880833	0,1	3,840430
2,882500	0,1	3,798380
2,884167	0,1	3,729077
2,885833	0,1	3,738764
2,887500	0,1	3,694975
2,889167	0,1	3,630395
2,890833	0,1	3,596822
2,892500	0,1	3,559970
2,894167	0,1	3,533845
2,895833	0,1	3,527306
2,897500	0,1	3,409264
2,899167	0,1	3,385771
2,900833	0,1	3,362458
2,902500	0,1	3,371594
2,904167	0,1	3,346217
2,905833	0,1	3,340775
2,907500	0,1	3,234846
2,909167	0,1	3,287403
2,910833	0,1	3,205785
2,912500	0,1	3,168516
2,914167	0,1	3,127092
2,915833	0,1	3,142042
2,917500	0,1	3,120158
2,919167	0,1	3,096420
2,920833	0,1	3,064483
2,922500	0,1	3,008726
2,924167	0,1	3,003783
2,925833	0,1	2,974730
2,927500	0,1	2,972388
2,929167	0,1	2,894445
2,930833	0,1	2,914988
2,932500	0,1	2,919025
2,934167	0,1	2,875181
2,935833	0,1	2,840746
2,937500	0,1	2,809925
2,939167	0,1	2,798354
2,940833	0,1	2,727380
2,942500	0,1	2,746534
2,944167	0,1	2,731520
2,945833	0,1	2,678159
2,947500	0,1	2,664806
2,949167	0,1	2,665629
2,950833	0,1	2,642656
2,952500	0,1	2,594905
2,954167	0,1	2,593149
2,955833	0,1	2,625389
2,957500	0,1	2,586111
2,959167	0,1	2,576788
2,960833	0,1	2,553086
2,962500	0,1	2,502834
2,964167	0,1	2,517389
2,965833	0,1	2,484562
2,967500	0,1	2,449900
2,969167	0,1	2,462235
2,970833	0,1	2,444786
2,972500	0,1	2,444437
2,974167	0,1	2,452901
2,975833	0,1	2,435454
2,977500	0,1	2,423973
2,979167	0,1	2,414340
2,980833	0,1	2,382831
2,982500	0,1	2,374849
2,984167	0,1	2,387058
2,985833	0,1	2,346804
2,987500	0,1	2,330213
2,989167	0,1	2,308823
2,990833	0,1	2,303301
2,992500	0,1	2,262390
2,994167	0,1	2,279168
2,995833	0,1	2,277090
2,997500	0,1	2,299122
2,999167	0,1	2,271357
3,000833	0,1	2,237191
3,002500	0,1	2,231304
3,004167	0,1	2,222907
3,005833	0,1	2,204397
3,007500	0,1	2,217162
3,009167	0,1	2,187748
3,010833	0,1	2,202094
3,012500	0,1	2,147143
3,014167	0,1	2,199570
3,015833	0,1	2,171101
3,017500	0,1	2,151224
3,019167	0,1	2,179558
3,020833	0,1	2,172460
3,022500	0,1	2,197783
3,024167	0,1	2,123469
3,025833	0,1	2,132705
3,027500	0,1	2,123453
3,029167	0,1	2,099494
3,030833	0,1	2,109531
3,032500	0,1	2,094327
3,034167	0,1	2,126241
3,035833	0,1	2,080990
3,037500	0,1	2,058887
3,039167	0,1	2,088145
3,040833	0,1	2,044260
3,042500	0,1	2,060960
3,044167	0,1	2,047121
3,045833	0,1	2,024667
3,047500	0,1	2,050340
3,049167	0,1	2,024528
3,050833	0,1	2,022294
3,052500	0,1	1,999353
3,054167	0,1	2,007375
3,055833	0,1	2,006806
3,057500	0,1	2,008093
3,059167	0,1	2,018640
3,060833	0,1	1,981709
3,062500	0,1	1,990879
3,064167	0,1	1,983782
3,065833	0,1	1,962056
3,067500	0,1	1,969862
3,069167	0,1	1,944986
3,070833	0,1	1,963261
3,072500	0,1	1,917740
3,074167	0,1	1,880657
3,075833	0,1	1,898935
3,077500	0,1	1,891409
3,079167	0,1	1,914780
3,080833	0,1	1,898017
3,082500	0,1	1,864524
3,084167	0,1	1,864658
3,085833	0,1	1,877921
3,087500	0,1	1,938941
3,089167	0,1	1,902246
3,090833	0,1	1,885028
3,092500	0,1	1,849547
3,094167	0,1	1,881002
3,095833	0,1	1,876638
3,097500	0,1	1,862442
3,099167	0,1	1,870328
3,100833	0,1	1,859498
3,102500	0,1	1,878781
3,104167	0,1	1,869611
3,105833	0,1	1,841509
3,107500	0,1	1,837622
3,109167	0,1	1,862928
3,110833	0,1	1,869683
3,112500	0,1	1,869396
3,114167	0,1	1,881652
3,115833	0,1	1,846314
3,117500	0,1	1,877634
3,119167	0,1	1,838138
3,120833	0,1	1,868381
3,122500	0,1	1,888175
3,124167	0,1	1,905753
3,125833	0,1	1,882380
3,127500	0,1	1,911195
3,129167	0,1	1,908117
3,130833	0,1	1,978889
3,132500	0,1	1,920105
3,134167	0,1	1,920020
3,135833	0,1	1,951782
3,137500	0,1	1,931144
3,139167	0,1	1,958887
3,140833	0,1	2,020276
3,142500	0,1	1,951520
3,144167	0,1	2,010019
3,145833	0,1	1,972170
3,147500	0,1	2,031035
3,149167	0,1	1,984005
3,150833	0,1	2,002999
3,152500	0,1	2,008238
3,154167	0,1	2,025594
3,155833	0,1	2,026958
3,157500	0,1	2,018570
3,159167	0,1	2,081968
3,160833	0,1	2,060109
3,162500	0,1	2,086137
3,164167	0,1	2,093748
3,165833	0,1	2,070150
3,167500	0,1	2,077318
3,169167	0,1	2,081551
3,170833	0,1	2,105437
3,172500	0,1	2,115269
3,174167	0,1	2,141954
3,175833	0,1	2,069445
3,177500	0,1	2,115619
3,179167	0,1	2,093827
3,180833	0,1	2,104006
3,182500	0,1	2,096980
3,184167	0,1	2,108813
3,185833	0,1	2,148482
3,187500	0,1	2,148922
3,189167	0,1	2,091610
3,190833	0,1	2,146254
3,192500	0,1	2,107892
3,194167	0,1	2,094901
3,195833	0,1	2,120431
3,197500	0,1	2,102005
3,199167	0,1	2,125743
3,200833	0,1	2,145256
3,202500	0,1	2,102799
3,204167	0,1	2,054230
3,205833	0,1	2,093955
3,207500	0,1	2,091597
3,209167	0,1	2,093748
3,210833	0,1	2,091596
3,212500	0,1	2,078544
3,214167	0,1	2,034430
3,215833	0,1	2,078887
3,217500	0,1	2,081481
3,219167	0,1	2,044187
3,220833	0,1	2,071073
3,222500	0,1	1,997065
3,224167	0,1	2,036635
3,225833	0,1	1,992040
3,227500	0,1	2,038428
3,229167	0,1	1,970454
3,230833	0,1	2,058650
3,232500	0,1	1,985235
3,234167	0,1	1,949860
3,235833	0,1	1,970433
3,237500	0,1	1,951149
3,239167	0,1	1,940032
3,240833	0,1	1,925620
3,242500	0,1	1,917228
3,244167	0,1	1,910057
3,245833	0,1	1,852985
3,247500	0,1	1,859711
3,249167	0,1	1,855126
3,250833	0,1	1,880511
3,252500	0,1	1,827464
3,254167	0,1	1,835404
3,255833	0,1	1,816411
3,257500	0,1	1,833678
3,259167	0,1	1,800424
3,260833	0,1	1,792463
3,262500	0,1	1,760489
3,264167	0,1	1,740780
3,265833	0,1	1,724937
3,267500	0,1	1,722207
3,269167	0,1	1,731671
3,270833	0,1	1,690386
3,272500	0,1	1,688232
3,274167	0,1	1,675333
3,275833	0,1	1,662721
3,277500	0,1	1,646952
3,279167	0,1	1,624458
3,280833	0,1	1,622787
3,282500	0,1	1,597707
3,284167	0,1	1,621134
3,285833	0,1	1,598363
3,287500	0,1	1,572505
3,289167	0,1	1,573442
3,290833	0,1	1,541890
3,292500	0,1	1,552427
3,294167	0,1	1,535538
3,295833	0,1	1,506491
3,297500	0,1	1,511872
3,299167	0,1	1,501545
3,300833	0,1	1,493889
3,302500	0,1	1,505076
3,304167	0,1	1,494120
3,305833	0,1	1,476713
3,307500	0,1	1,444122
3,309167	0,1	1,424973
3,310833	0,1	1,377782
3,312500	0,1	1,396255
3,314167	0,1	1,403898
3,315833	0,1	1,412141
3,317500	0,1	1,380917
3,319167	0,1	1,415232
3,320833	0,1	1,399898
3,322500	0,1	1,384289
3,324167	0,1	1,309212
3,325833	0,1	1,353841
3,327500	0,1	1,354906
3,329167	0,1	1,336657
3,330833	0,1	1,337503
3,332500	0,1	1,332839
3,334167	0,1	1,346674
3,335833	0,1	1,299145
3,337500	0,1	1,337741
3,339167	0,1	1,348334
3,340833	0,1	1,325578
3,342500	0,1	1,356572
3,344167	0,1	1,291211
3,345833	0,1	1,262641
3,347500	0,1	1,313587
3,349167	0,1	1,277144
3,350833	0,1	1,319762
3,352500	0,1	1,305104
3,354167	0,1	1,323195
3,355833	0,1	1,328286
3,357500	0,1	1,296069
3,359167	0,1	1,298284
3,360833	0,1	1,273088
3,362500	0,1	1,261824
3,364167	0,1	1,271161
3,365833	0,1	1,259551
3,367500	0,1	1,259327
3,369167	0,1	1,236558
3,370833	0,1	1,260237
3,372500	0,1	1,318485
3,374167	0,1	1,304307
3,375833	0,1	1,214224
3,377500	0,1	1,236208
3,379167	0,1	1,206052
3,380833	0,1	1,270031
3,382500	0,1	1,279183
3,384167	0,1	1,235969
3,385833	0,1	1,215919
3,387500	0,1	1,240667
3,389167	0,1	1,210122
3,390833	0,1	1,227509
3,392500	0,1	1,220494
3,394167	0,1	1,232819
3,395833	0,1	1,257455
3,397500	0,1	1,227098
3,399167	0,1	1,210917
3,400833	0,1	1,199841
3,402500	0,1	1,192786
3,404167	0,1	1,228081
3,405833	0,1	1,221292
3,407500	0,1	1,190233
3,409167	0,1	1,203448
3,410833	0,1	1,181548
3,412500	0,1	1,209599
3,414167	0,1	1,208471
3,415833	0,1	1,239410
3,417500	0,1	1,198525
3,419167	0,1	1,178835
3,420833	0,1	1,172285
3,422500	0,1	1,213293
3,424167	0,1	1,148917
3,425833	0,1	1,202150
3,427500	0,1	1,180633
3,429167	0,1	1,209124
3,430833	0,1	1,183517
3,432500	0,1	1,161641
3,434167	0,1	1,204052
3,435833	0,1	1,220387
3,437500	0,1	1,223732
3,439167	0,1	1,201268
3,440833	0,1	1,221862
3,442500	0,1	1,178822
3,444167	0,1	1,186406
3,445833	0,1	1,206074
3,447500	0,1	1,208369
3,449167	0,1	1,201995
3,450833	0,1	1,185632
3,452500	0,1	1,155574
3,454167	0,1	1,220868
3,455833	0,1	1,183975
3,457500	0,1	1,240557
3,459167	0,1	1,192373
3,460833	0,1	1,207925
3,462500	0,1	1,240819
3,464167	0,1	1,222245
3,465833	0,1	1,178332
3,467500	0,1	1,271717
3,469167	0,1	1,203518
3,470833	0,1	1,226015
3,472500	0,1	1,247518
3,474167	0,1	1,258951
3,475833	0,1	1,237320
3,477500	0,1	1,253727
3,479167	0,1	1,294544
3,480833	0,1	1,266254
3,482500	0,1	1,268130
3,484167	0,1	1,321761
3,485833	0,1	1,262799
3,487500	0,1	1,294038
3,489167	0,1	1,339591
3,490833	0,1	1,333022
3,492500	0,1	1,344112
3,494167	0,1	1,357579
3,495833	0,1	1,341456
3,497500	0,1	1,331649
3,499167	0,1	1,393952
3,500833	0,1	1,407791
3,502500	0,1	1,382933
3,504167	0,1	1,394898
3,505833	0,1	1,394367
3,507500	0,1	1,401319
3,509167	0,1	1,421259
3,510833	0,1	1,385144
3,512500	0,1	1,455484
3,514167	0,1	1,441263
3,515833	0,1	1,401041
3,517500	0,1	1,432422
3,519167	0,1	1,413354
3,520833	0,1	1,395878
3,522500	0,1	1,449686
3,524167	0,1	1,425630
3,525833	0,1	1,454629
3,527500	0,1	1,424331
3,529167	0,1	1,437283
3,530833	0,1	1,506984
3,532500	0,1	1,484001
3,534167	0,1	1,483650
3,535833	0,1	1,445746
3,537500	0,1	1,501253
3,539167	0,1	1,487581
3,540833	0,1	1,472520
3,542500	0,1	1,477684
3,544167	0,1	1,471966
3,545833	0,1	1,481920
3,547500	0,1	1,488208
3,549167	0,1	1,493011
3,550833	0,1	1,462380
3,552500	0,1	1,507509
3,554167	0,1	1,479915
3,555833	0,1	1,502689
3,557500	0,1	1,499333
3,559167	0,1	1,478049
3,560833	0,1	1,493331
3,562500	0,1	1,499251
3,564167	0,1	1,485577
3,565833	0,1	1,471530
3,567500	0,1	1,515465
3,569167	0,1	1,496481
3,570833	0,1	1,487073
3,572500	0,1	1,454344
3,574167	0,1	1,443172
3,575833	0,1	1,459548
3,577500	0,1	1,472468
3,579167	0,1	1,456632
3,580833	0,1	1,461947
3,582500	0,1	1,453925
3,584167	0,1	1,421752
3,585833	0,1	1,421962
3,587500	0,1	1,398226
3,589167	0,1	1,442089
3,590833	0,1	1,399573
3,592500	0,1	1,420737
3,594167	0,1	1,427201
3,595833	0,1	1,413284
3,597500	0,1	1,390078
3,599167	0,1	1,398877
3,600833	0,1	1,358345
3,602500	0,1	1,382346
3,604167	0,1	1,340339
3,605833	0,1	1,384206
3,607500	0,1	1,345260
3,609167	0,1	1,335653
3,610833	0,1	1,307366
3,612500	0,1	1,313448
3,614167	0,1	1,271058
3,615833	0,1	1,324394
3,617500	0,1	1,310601
3,619167	0,1	1,326541
3,620833	0,1	1,293985
3,622500	0,1	1,306015
3,624167	0,1	1,331572
3,625833	0,1	1,277384
3,627500	0,1	1,282239
3,629167	0,1	1,272880
3,630833	0,1	1,233171
3,632500	0,1	1,215394
3,634167	0,1	1,291631
3,635833	0,1	1,226462
3,637500	0,1	1,213832
3,639167	0,1	1,220645
3,640833	0,1	1,200472
3,642500	0,1	1,184208
3,644167	0,1	1,183934
3,645833	0,1	1,202260
3,647500	0,1	1,168577
3,649167	0,1	1,166772
3,650833	0,1	1,149925
3,652500	0,1	1,159380
3,654167	0,1	1,147501
3,655833	0,1	1,128664
3,657500	0,1	1,113491
3,659167	0,1	1,122417
3,660833	0,1	1,142983
3,662500	0,1	1,118715
3,664167	0,1	1,079709
3,665833	0,1	1,082583
3,667500	0,1	1,088476
3,669167	0,1	1,085479
3,670833	0,1	1,118903
3,672500	0,1	1,022461
3,674167	0,1	1,054725
3,675833	0,1	1,028773
3,677500	0,1	1,076976
3,679167	0,1	1,018609
3,680833	0,1	1,044908
3,682500	0,1	1,015433
3,684167	0,1	1,026810
3,685833	0,1	1,013491
3,687500	0,1	1,012397
3,689167	0,1	0,997946
3,690833	0,1	0,980244
3,692500	0,1	1,014123
3,694167	0,1	0,973232
3,695833	0,1	0,993516
3,697500	0,1	0,956820
3,699167	0,1	0,962873
3,700833	0,1	0,988429
3,702500	0,1	0,952956
3,704167	0,1	1,003413
3,705833	0,1	0,951185
3,707500	0,1	0,936053
3,709167	0,1	0,907390
3,710833	0,1	0,957577
3,712500	0,1	0,953682
3,714167	0,1	0,947730
3,715833	0,1	0,925062
3,717500	0,1	0,936467
3,719167	0,1	0,906789
3,720833	0,1	0,940126
3,722500	0,1	0,947971
3,724167	0,1	0,905371
3,725833	0,1	0,914797
3,727500	0,1	0,948409
3,729167	0,1	0,914786
3,730833	0,1	0,875883
3,732500	0,1	0,883888
3,734167	0,1	0,878163
3,735833	0,1	0,861557
3,737500	0,1	0,903552
3,739167	0,1	0,933666
3,740833	0,1	0,894868
3,742500	0,1	0,889620
3,744167	0,1	0,928313
3,745833	0,1	0,882547
3,747500	0,1	0,897920
3,749167	0,1	0,862783
3,750833	0,1	0,907527
3,752500	0,1	0,900324
3,754167	0,1	0,941747
3,755833	0,1	0,897312
3,757500	0,1	0,885493
3,759167	0,1	0,891019
3,760833	0,1	0,899189
3,762500	0,1	0,888779
3,764167	0,1	0,878943
3,765833	0,1	0,895344
3,767500	0,1	0,870596
3,769167	0,1	0,894966
3,770833	0,1	0,936218
3,772500	0,1	0,890940
3,774167	0,1	0,858430
3,775833	0,1	0,858201
3,777500	0,1	0,881577
3,779167	0,1	0,879961
3,780833	0,1	0,870948
3,782500	0,1	0,904622
3,784167	0,1	0,879502
3,785833	0,1	0,930930
3,787500	0,1	0,862905
3,789167	0,1	0,874986
3,790833	0,1	0,908552
3,792500	0,1	0,911823
3,794167	0,1	0,836797
3,795833	0,1	0,900061
3,797500	0,1	0,867312
3,799167	0,1	0,865439
3,800833	0,1	0,871589
3,802500	0,1	0,881202
3,804167	0,1	0,856497
3,805833	0,1	0,905661
3,807500	0,1	0,896771
3,809167	0,1	0,874417
3,810833	0,1	0,889505
3,812500	0,1	0,884491
3,814167	0,1	0,851216
3,815833	0,1	0,892406
3,817500	0,1	0,856014
3,819167	0,1	0,880712
3,820833	0,1	0,888219
3,822500	0,1	0,893948
3,824167	0,1	0,820718
3,825833	0,1	0,889114
3,827500	0,1	0,850062
3,829167	0,1	0,859509
3,830833	0,1	0,858580
3,832500	0,1	0,863241
3,834167	0,1	0,848239
3,835833	0,1	0,868479
3,837500	0,1	0,887373
3,839167	0,1	0,849171
3,840833	0,1	0,837690
3,842500	0,1	0,885412
3,844167	0,1	0,838434
3,845833	0,1	0,872718
3,847500	0,1	0,869839
3,849167	0,1	0,847111
3,850833	0,1	0,863330
3,852500	0,1	0,830061
3,854167	0,1	0,852317
3,855833	0,1	0,839357
3,857500	0,1	0,828455
3,859167	0,1	0,846968
3,860833	0,1	0,815319
3,862500	0,1	0,849003
3,864167	0,1	0,872298
3,865833	0,1	0,824931
3,867500	0,1	0,859216
3,869167	0,1	0,836850
3,870833	0,1	0,842333
3,872500	0,1	0,794762
3,874167	0,1	0,782061
3,875833	0,1	0,813554
3,877500	0,1	0,789723
3,879167	0,1	0,810008
3,880833	0,1	0,768840
3,882500	0,1	0,770446
3,884167	0,1	0,795151
3,885833	0,1	0,813086
3,887500	0,1	0,795713
3,889167	0,1	0,791203
3,890833	0,1	0,829935
3,892500	0,1	0,736956
3,894167	0,1	0,763294
3,895833	0,1	0,759346
3,897500	0,1	0,794149
3,899167	0,1	0,787012
3,900833	0,1	0,785435
3,902500	0,1	0,794181
3,904167	0,1	0,761730
3,905833	0,1	0,732566
3,907500	0,1	0,790165
3,909167	0,1	0,746955
3,910833	0,1	0,761916
3,912500	0,1	0,761815
3,914167	0,1	0,730282
3,915833	0,1	0,756410
3,917500	0,1	0,733630
3,919167	0,1	0,711942
3,920833	0,1	0,732647
3,922500	0,1	0,732874
3,924167	0,1	0,690482
3,925833	0,1	0,718039
3,927500	0,1	0,741368
3,929167	0,1	0,739587
3,930833	0,1	0,716408
3,932500	0,1	0,721525
3,934167	0,1	0,682366
3,935833	0,1	0,706204
3,937500	0,1	0,697227
3,939167	0,1	0,694335
3,940833	0,1	0,700310
3,942500	0,1	0,696807
3,944167	0,1	0,720102
3,945833	0,1	0,685266
3,947500	0,1	0,699049
3,949167	0,1	0,697737
3,950833	0,1	0,709282
3,952500	0,1	0,698776
3,954167	0,1	0,684712
3,955833	0,1	0,678863
3,957500	0,1	0,734570
3,959167	0,1	0,689894
3,960833	0,1	0,651540
3,962500	0,1	0,654813
3,964167	0,1	0,717609
3,965833	0,1	0,653189
3,967500	0,1	0,698082
3,969167	0,1	0,689438
3,970833	0,1	0,714374
3,972500	0,1	0,696007
3,974167	0,1	0,663384
3,975833	0,1	0,683442
3,977500	0,1	0,689659
3,979167	0,1	0,670253
3,980833	0,1	0,699857
3,982500	0,1	0,658107
3,984167	0,1	0,655496
3,985833	0,1	0,669220
3,987500	0,1	0,668645
3,989167	0,1	0,712820
3,990833	0,1	0,683166
3,992500	0,1	0,705745
3,994167	0,1	0,657847
3,995833	0,1	0,640437
3,997500	0,1	0,678078
3,999167	0,1	0,700175
4,000833	0,1	0,681782
4,002500	0,1	0,685573
4,004167	0,1	0,707992
4,005833	0,1	0,647171
4,007500	0,1	0,673852
4,009167	0,1	0,649840
4,010833	0,1	0,666684
4,012500	0,1	0,710442
4,014167	0,1	0,674707
4,015833	0,1	0,675266
4,017500	0,1	0,671547
4,019167	0,1	0,676955
4,020833	0,1	0,669683
4,022500	0,1	0,680975
4,024167	0,1	0,678234
4,025833	0,1	0,716749
4,027500	0,1	0,716218
4,029167	0,1	0,703757
4,030833	0,1	0,716124
4,032500	0,1	0,680463
4,034167	0,1	0,722541
4,035833	0,1	0,733003
4,037500	0,1	0,716631
4,039167	0,1	0,747225
4,040833	0,1	0,741558
4,042500	0,1	0,789220
4,044167	0,1	0,781928
4,045833	0,1	0,745061
4,047500	0,1	0,743280
4,049167	0,1	0,789194
4,050833	0,1	0,745049
4,052500	0,1	0,774302
4,054167	0,1	0,796083
4,055833	0,1	0,787985
4,057500	0,1	0,772538
4,059167	0,1	0,806710
4,060833	0,1	0,829470
4,062500	0,1	0,863102
4,064167	0,1	0,797078
4,065833	0,1	0,865050
4,067500	0,1	0,882488
4,069167	0,1	0,877920
4,070833	0,1	0,886818
4,072500	0,1	0,861515
4,074167	0,1	0,883396
4,075833	0,1	0,887421
4,077500	0,1	0,897565
4,079167	0,1	0,933576
4,080833	0,1	0,984959
4,082500	0,1	0,936926
4,084167	0,1	0,991422
4,085833	0,1	1,024537
4,087500	0,1	1,010580
4,089167	0,1	1,030806
4,090833	0,1	1,006919
4,092500	0,1	1,056277
4,094167	0,1	1,040450
4,095833	0,1	1,028506
4,097500	0,1	1,108622
4,099167	0,1	1,129184
4,100833	0,1	1,138223
4,102500	0,1	1,154311
4,104167	0,1	1,139568
4,105833	0,1	1,139258
4,107500	0,1	1,189653
4,109167	0,1	1,193378
4,110833	0,1	1,233457
4,112500	0,1	1,244130
4,114167	0,1	1,264495
4,115833	0,1	1,263111
4,117500	0,1	1,292477
4,119167	0,1	1,269424
4,120833	0,1	1,354065
4,122500	0,1	1,361955
4,124167	0,1	1,375914
4,125833	0,1	1,363508
4,127500	0,1	1,398390
4,129167	0,1	1,402690
4,130833	0,1	1,439512
4,132500	0,1	1,456649
4,134167	0,1	1,457135
4,135833	0,1	1,505206
4,137500	0,1	1,504734
4,139167	0,1	1,508302
4,140833	0,1	1,490161
4,142500	0,1	1,567472
4,144167	0,1	1,564385
4,145833	0,1	1,586821
4,147500	0,1	1,592560
4,149167	0,1	1,616627
4,150833	0,1	1,604312
4,152500	0,1	1,623367
4,154167	0,1	1,649392
4,155833	0,1	1,651752
4,157500	0,1	1,643307
4,159167	0,1	1,664648
4,160833	0,1	1,708228
4,162500	0,1	1,708448
4,164167	0,1	1,662998
4,165833	0,1	1,727156
4,167500	0,1	1,760474
4,169167	0,1	1,703292
4,170833	0,1	1,732737
4,172500	0,1	1,758623
4,174167	0,1	1,758902
4,175833	0,1	1,791449
4,177500	0,1	1,801715
4,179167	0,1	1,764515
4,180833	0,1	1,828158
4,182500	0,1	1,822078
4,184167	0,1	1,801129
4,185833	0,1	1,868602
4,187500	0,1	1,811192
4,189167	0,1	1,825582
4,190833	0,1	1,858132
4,192500	0,1	1,867308
4,194167	0,1	1,888681
4,195833	0,1	1,875358
4,197500	0,1	1,901160
4,199167	0,1	1,874783
4,200833	0,1	1,882803
4,202500	0,1	1,916073
4,204167	0,1	1,923541
4,205833	0,1	1,904393
4,207500	0,1	1,907040
4,209167	0,1	1,882955
4,210833	0,1	1,879012
4,212500	0,1	1,896141
4,214167	0,1	1,899371
4,215833	0,1	1,895354
4,217500	0,1	1,875427
4,219167	0,1	1,883301
4,220833	0,1	1,914424
4,222500	0,1	1,881304
4,224167	0,1	1,907897
4,225833	0,1	1,885174
4,227500	0,1	1,880366
4,229167	0,1	1,918798
4,230833	0,1	1,923182
4,232500	0,1	1,860881
4,234167	0,1	1,890183
4,235833	0,1	1,898153
4,237500	0,1	1,870411
4,239167	0,1	1,897070
4,240833	0,1	1,857215
4,242500	0,1	1,879077
4,244167	0,1	1,828256
4,245833	0,1	1,872972
4,247500	0,1	1,789682
4,249167	0,1	1,817835
4,250833	0,1	1,824364
4,252500	0,1	1,809821
4,254167	0,1	1,793908
4,255833	0,1	1,817198
4,257500	0,1	1,778492
4,259167	0,1	1,795766
4,260833	0,1	1,733329
4,262500	0,1	1,733600
4,264167	0,1	1,754241
4,265833	0,1	1,750524
4,267500	0,1	1,753902
4,269167	0,1	1,739054
4,270833	0,1	1,715690
4,272500	0,1	1,704805
4,274167	0,1	1,709014
4,275833	0,1	1,680996
4,277500	0,1	1,680071
4,279167	0,1	1,658783
4,280833	0,1	1,678481
4,282500	0,1	1,636578
4,284167	0,1	1,621797
4,285833	0,1	1,632626
4,287500	0,1	1,608474
4,289167	0,1	1,632246
4,290833	0,1	1,556673
4,292500	0,1	1,613988
4,294167	0,1	1,588550
4,295833	0,1	1,552598
4,297500	0,1	1,553776
4,299167	0,1	1,599872
4,300833	0,1	1,530093
4,302500	0,1	1,512154
4,304167	0,1	1,534229
4,305833	0,1	1,537458
4,307500	0,1	1,489534
4,309167	0,1	1,495416
4,310833	0,1	1,515655
4,312500	0,1	1,453731
4,314167	0,1	1,447640
4,315833	0,1	1,448203
4,317500	0,1	1,460725
4,319167	0,1	1,427429
4,320833	0,1	1,427859
4,322500	0,1	1,428492
4,324167	0,1	1,390589
4,325833	0,1	1,408927
4,327500	0,1	1,389597
4,329167	0,1	1,371973
4,330833	0,1	1,341407
4,332500	0,1	1,361800
4,334167	0,1	1,373694
4,335833	0,1	1,345342
4,337500	0,1	1,277577
4,339167	0,1	1,327988
4,340833	0,1	1,307547
4,342500	0,1	1,299589
4,344167	0,1	1,256082
4,345833	0,1	1,260328
4,347500	0,1	1,235116
4,349167	0,1	1,289027
4,350833	0,1	1,249823
4,352500	0,1	1,262123
4,354167	0,1	1,214501
4,355833	0,1	1,235105
4,357500	0,1	1,242333
4,359167	0,1	1,240130
4,360833	0,1	1,238637
4,362500	0,1	1,199493
4,364167	0,1	1,219014
4,365833	0,1	1,185501
4,367500	0,1	1,168390
4,369167	0,1	1,178506
4,370833	0,1	1,156082
4,372500	0,1	1,152873
4,374167	0,1	1,172128
4,375833	0,1	1,158896
4,377500	0,1	1,131753
4,379167	0,1	1,128613
4,380833	0,1	1,099322
4,382500	0,1	1,071487
4,384167	0,1	1,094906
4,385833	0,1	1,088786
4,387500	0,1	1,087143
4,389167	0,1	1,109040
4,390833	0,1	1,043910
4,392500	0,1	1,054421
4,394167	0,1	1,045252
4,395833	0,1	1,033036
4,397500	0,1	1,070693
4,399167	0,1	1,022383
4,400833	0,1	1,032696
4,402500	0,1	1,008430
4,404167	0,1	1,021280
4,405833	0,1	1,040624
4,407500	0,1	1,029191
4,409167	0,1	1,017176
4,410833	0,1	0,994260
4,412500	0,1	0,994232
4,414167	0,1	0,973984
4,415833	0,1	0,965809
4,417500	0,1	0,951419
4,419167	0,1	0,954391
4,420833	0,1	0,962916
4,422500	0,1	0,999909
4,424167	0,1	0,969966
4,425833	0,1	0,972023
4,427500	0,1	0,913812
4,429167	0,1	0,953605
4,430833	0,1	0,935343
4,432500	0,1	0,898665
4,434167	0,1	0,911755
4,435833	0,1	0,903232
4,437500	0,1	0,884959
4,439167	0,1	0,899031
4,440833	0,1	0,879211
4,442500	0,1	0,869617
4,444167	0,1	0,858208
4,445833	0,1	0,860710
4,447500	0,1	0,861443
4,449167	0,1	0,881423
4,450833	0,1	0,843384
4,452500	0,1	0,862973
4,454167	0,1	0,870480
4,455833	0,1	0,836342
4,457500	0,1	0,844190
4,459167	0,1	0,823264
4,460833	0,1	0,806897
4,462500	0,1	0,807742
4,464167	0,1	0,797131
4,465833	0,1	0,802089
4,467500	0,1	0,831489
4,469167	0,1	0,825258
4,470833	0,1	0,799356
4,472500	0,1	0,780817
4,474167	0,1	0,787916
4,475833	0,1	0,790073
4,477500	0,1	0,762465
4,479167	0,1	0,779572
4,480833	0,1	0,775358
4,482500	0,1	0,752072
4,484167	0,1	0,738068
4,485833	0,1	0,749451
4,487500	0,1	0,744883
4,489167	0,1	0,744277
4,490833	0,1	0,745169
4,492500	0,1	0,704551
4,494167	0,1	0,726052
4,495833	0,1	0,717863
4,497500	0,1	0,678766
4,499167	0,1	0,687121
4,500833	0,1	0,701530
4,502500	0,1	0,745553
4,504167	0,1	0,730922
4,505833	0,1	0,727373
4,507500	0,1	0,708461
4,509167	0,1	0,649679
4,510833	0,1	0,693970
4,512500	0,1	0,646720
4,514167	0,1	0,677818
4,515833	0,1	0,647676
4,517500	0,1	0,637609
4,519167	0,1	0,656730
4,520833	0,1	0,669968
4,522500	0,1	0,614127
4,524167	0,1	0,650943
4,525833	0,1	0,622513
4,527500	0,1	0,637369
4,529167	0,1	0,597328
4,530833	0,1	0,626903
4,532500	0,1	0,571918
4,534167	0,1	0,598989
4,535833	0,1	0,607482
4,537500	0,1	0,601246
4,539167	0,1	0,593039
4,540833	0,1	0,563158
4,542500	0,1	0,623109
4,544167	0,1	0,585129
4,545833	0,1	0,595060
4,547500	0,1	0,590204
4,549167	0,1	0,568362
4,550833	0,1	0,586375
4,552500	0,1	0,586314
4,554167	0,1	0,542702
4,555833	0,1	0,567936
4,557500	0,1	0,548611
4,559167	0,1	0,540569
4,560833	0,1	0,545038
4,562500	0,1	0,554039
4,564167	0,1	0,541371
4,565833	0,1	0,543428
4,567500	0,1	0,535261
4,569167	0,1	0,529016
4,570833	0,1	0,545770
4,572500	0,1	0,514322
4,574167	0,1	0,509367
4,575833	0,1	0,530167
4,577500	0,1	0,508882
4,579167	0,1	0,511967
4,580833	0,1	0,479202
4,582500	0,1	0,465107
4,584167	0,1	0,460217
4,585833	0,1	0,477225
4,587500	0,1	0,502344
4,589167	0,1	0,466623
4,590833	0,1	0,458738
4,592500	0,1	0,458959
4,594167	0,1	0,486549
4,595833	0,1	0,445945
4,597500	0,1	0,500792
4,599167	0,1	0,483828
4,600833	0,1	0,477777
4,602500	0,1	0,443594
4,604167	0,1	0,471560
4,605833	0,1	0,488352
4,607500	0,1	0,469996
4,609167	0,1	0,444655
4,610833	0,1	0,436127
4,612500	0,1	0,374362
4,614167	0,1	0,445854
4,615833	0,1	0,438669
4,617500	0,1	0,416481
4,619167	0,1	0,438949
4,620833	0,1	0,409567
4,622500	0,1	0,405286
4,624167	0,1	0,443448
4,625833	0,1	0,436546
4,627500	0,1	0,408088
4,629167	0,1	0,386732
4,630833	0,1	0,372968
4,632500	0,1	0,429326
4,634167	0,1	0,402074
4,635833	0,1	0,402005
4,637500	0,1	0,421231
4,639167	0,1	0,400144
4,640833	0,1	0,391039
4,642500	0,1	0,424475
4,644167	0,1	0,438951
4,645833	0,1	0,407703
4,647500	0,1	0,396347
4,649167	0,1	0,394189
4,650833	0,1	0,333334
4,652500	0,1	0,389320
4,654167	0,1	0,412514
4,655833	0,1	0,360566
4,657500	0,1	0,359715
4,659167	0,1	0,370840
4,660833	0,1	0,400678
4,662500	0,1	0,374193
4,664167	0,1	0,346507
4,665833	0,1	0,360678
4,667500	0,1	0,354606
4,669167	0,1	0,348077
4,670833	0,1	0,346856
4,672500	0,1	0,326123
4,674167	0,1	0,311714
4,675833	0,1	0,341349
4,677500	0,1	0,300243
4,679167	0,1	0,354013
4,680833	0,1	0,334643
4,682500	0,1	0,368297
4,684167	0,1	0,332361
4,685833	0,1	0,320073
4,687500	0,1	0,344182
4,689167	0,1	0,307930
4,690833	0,1	0,293482
4,692500	0,1	0,345685
4,694167	0,1	0,350390
4,695833	0,1	0,330593
4,697500	0,1	0,326634
4,699167	0,1	0,343768
4,700833	0,1	0,366722
4,702500	0,1	0,313494
4,704167	0,1	0,302583
4,705833	0,1	0,345339
4,707500	0,1	0,308537
4,709167	0,1	0,299692
4,710833	0,1	0,310039
4,712500	0,1	0,329716
4,714167	0,1	0,307411
4,715833	0,1	0,290622
4,717500	0,1	0,326461
4,719167	0,1	0,305510
4,720833	0,1	0,314633
4,722500	0,1	0,309624
4,724167	0,1	0,301648
4,725833	0,1	0,299080
4,727500	0,1	0,306018
4,729167	0,1	0,257646
4,730833	0,1	0,294919
4,732500	0,1	0,281816
4,734167	0,1	0,308430
4,735833	0,1	0,319075
4,737500	0,1	0,309597
4,739167	0,1	0,278639
4,740833	0,1	0,263586
4,742500	0,1	0,305882
4,744167	0,1	0,276867
4,745833	0,1	0,239421
4,747500	0,1	0,296685
4,749167	0,1	0,246271
4,750833	0,1	0,263966
4,752500	0,1	0,233146
4,754167	0,1	0,247886
4,755833	0,1	0,247056
4,757500	0,1	0,299937
4,759167	0,1	0,270528
4,760833	0,1	0,261726
4,762500	0,1	0,276120
4,764167	0,1	0,225661
4,765833	0,1	0,288361
4,767500	0,1	0,270786
4,769167	0,1	0,249987
4,770833	0,1	0,282645
4,772500	0,1	0,263784
4,774167	0,1	0,248798
4,775833	0,1	0,278661
4,777500	0,1	0,257546
4,779167	0,1	0,233914
4,780833	0,1	0,262262
4,782500	0,1	0,276311
4,784167	0,1	0,211194
4,785833	0,1	0,227836
4,787500	0,1	0,260748
4,789167	0,1	0,225847
4,790833	0,1	0,237409
4,792500	0,1	0,259076
4,794167	0,1	0,262396
4,795833	0,1	0,266414
4,797500	0,1	0,194319
4,799167	0,1	0,260452
4,800833	0,1	0,218045
4,802500	0,1	0,263960
4,804167	0,1	0,221703
4,805833	0,1	0,208005
4,807500	0,1	0,256280
4,809167	0,1	0,276959
4,810833	0,1	0,240643
4,812500	0,1	0,237838
4,814167	0,1	0,223216
4,815833	0,1	0,208937
4,817500	0,1	0,262163
4,819167	0,1	0,236748
4,820833	0,1	0,222792
4,822500	0,1	0,232845
4,824167	0,1	0,243267
4,825833	0,1	0,218240
4,827500	0,1	0,211896
4,829167	0,1	0,209994
4,830833	0,1	0,214338
4,832500	0,1	0,181888
4,834167	0,1	0,246053
4,835833	0,1	0,258663
4,837500	0,1	0,204547
4,839167	0,1	0,238951
4,840833	0,1	0,252177
4,842500	0,1	0,217147
4,844167	0,1	0,257539
4,845833	0,1	0,230066
4,847500	0,1	0,230377
4,849167	0,1	0,256540
4,850833	0,1	0,189375
4,852500	0,1	0,223585
4,854167	0,1	0,232883
4,855833	0,1	0,216724
4,857500	0,1	0,205180
4,859167	0,1	0,202343
4,860833	0,1	0,229275
4,862500	0,1	0,219522
4,864167	0,1	0,251974
4,865833	0,1	0,193129
4,867500	0,1	0,202186
4,869167	0,1	0,238924
4,870833	0,1	0,249408
4,872500	0,1	0,216212
4,874167	0,1	0,214403
4,875833	0,1	0,231566
4,877500	0,1	0,199009
4,879167	0,1	0,229473
4,880833	0,1	0,181719
4,882500	0,1	0,198254
4,884167	0,1	0,213113
4,885833	0,1	0,198208
4,887500	0,1	0,184708
4,889167	0,1	0,227985
4,890833	0,1	0,234783
4,892500	0,1	0,215794
4,894167	0,1	0,186830
4,895833	0,1	0,227377
4,897500	0,1	0,199170
4,899167	0,1	0,190836
4,900833	0,1	0,161597
4,902500	0,1	0,209628
4,904167	0,1	0,240854
4,905833	0,1	0,183949
4,907500	0,1	0,212504
4,909167	0,1	0,240755
4,910833	0,1	0,199753
4,912500	0,1	0,239593
4,914167	0,1	0,230549
4,915833	0,1	0,190454
4,917500	0,1	0,215429
4,919167	0,1	0,192098
4,920833	0,1	0,211953
4,922500	0,1	0,216811
4,924167	0,1	0,182232
4,925833	0,1	0,157992
4,927500	0,1	0,181639
4,929167	0,1	0,187654
4,930833	0,1	0,210024
4,932500	0,1	0,193736
4,934167	0,1	0,169788
4,935833	0,1	0,195211
4,937500	0,1	0,195407
4,939167	0,1	0,165328
4,940833	0,1	0,229753
4,942500	0,1	0,228030
4,944167	0,1	0,190046
4,945833	0,1	0,194146
4,947500	0,1	0,196619
4,949167	0,1	0,182063
4,950833	0,1	0,222750
4,952500	0,1	0,195730
4,954167	0,1	0,202477
4,955833	0,1	0,182833
4,957500	0,1	0,195594
4,959167	0,1	0,239917
4,960833	0,1	0,209203
4,962500	0,1	0,217035
4,964167	0,1	0,186767
4,965833	0,1	0,207136
4,967500	0,1	0,252296
4,969167	0,1	0,204736
4,970833	0,1	0,191807
4,972500	0,1	0,184316
4,974167	0,1	0,218416
4,975833	0,1	0,198335
4,977500	0,1	0,197526
4,979167	0,1	0,221053
4,980833	0,1	0,198073
4,982500	0,1	0,197688
4,984167	0,1	0,216491
4,985833	0,1	0,204664
4,987500	0,1	0,186855
4,989167	0,1	0,193730
4,990833	0,1	0,208034
4,992500	0,1	0,230697
4,994167	0,1	0,215603
4,995833	0,1	0,193636
4,997500	0,1	0,220055
4,999167	0,1	0,204763
5,000833	0,1	0,234777
5,002500	0,1	0,218327
5,004167	0,1	0,227549
5,005833	0,1	0,219965
5,007500	0,1	0,187020
5,009167	0,1	0,227859
5,010833	0,1	0,242885
5,012500	0,1	0,200750
5,014167	0,1	0,246664
5,015833	0,1	0,221218
5,017500	0,1	0,256863
5,019167	0,1	0,237001
5,020833	0,1	0,236134
5,022500	0,1	0,201870
5,024167	0,1	0,235411
5,025833	0,1	0,255028
5,027500	0,1	0,240413
5,029167	0,1	0,235720
5,030833	0,1	0,215912
5,032500	0,1	0,203052
5,034167	0,1	0,236253
5,035833	0,1	0,259120
5,037500	0,1	0,215825
5,039167	0,1	0,221210
5,040833	0,1	0,232430
5,042500	0,1	0,255480
5,044167	0,1	0,260466
5,045833	0,1	0,225242
5,047500	0,1	0,234684
5,049167	0,1	0,292381
5,050833	0,1	0,236917
5,052500	0,1	0,251470
5,054167	0,1	0,264711
5,055833	0,1	0,227298
5,057500	0,1	0,284053
5,059167	0,1	0,231004
5,060833	0,1	0,264669
5,062500	0,1	0,260659
5,064167	0,1	0,292099
5,065833	0,1	0,231614
5,067500	0,1	0,253771
5,069167	0,1	0,279432
5,070833	0,1	0,257067
5,072500	0,1	0,299494
5,074167	0,1	0,302422
5,075833	0,1	0,272400
5,077500	0,1	0,258053
5,079167	0,1	0,308006
5,080833	0,1	0,269994
5,082500	0,1	0,283930
5,084167	0,1	0,313028
5,085833	0,1	0,252539
5,087500	0,1	0,276924
5,089167	0,1	0,261918
5,090833	0,1	0,295117
5,092500	0,1	0,315632
5,094167	0,1	0,290148
5,095833	0,1	0,274778
5,097500	0,1	0,287567
5,099167	0,1	0,297822
5,100833	0,1	0,297824
5,102500	0,1	0,277803
5,104167	0,1	0,232732
5,105833	0,1	0,299319
5,107500	0,1	0,263691
5,109167	0,1	0,247994
5,110833	0,1	0,293340
5,112500	0,1	0,302838
5,114167	0,1	0,274231
5,115833	0,1	0,290717
5,117500	0,1	0,279538
5,119167	0,1	0,283162
5,120833	0,1	0,272686
5,122500	0,1	0,268184
5,124167	0,1	0,270627
5,125833	0,1	0,303731
5,127500	0,1	0,287319
5,129167	0,1	0,281496
5,130833	0,1	0,294964
5,132500	0,1	0,275288
5,134167	0,1	0,261466
5,135833	0,1	0,317744
5,137500	0,1	0,286291
5,139167	0,1	0,278945
5,140833	0,1	0,282616
5,142500	0,1	0,296280
5,144167	0,1	0,305602
5,145833	0,1	0,337718
5,147500	0,1	0,342421
5,149167	0,1	0,251324
5,150833	0,1	0,291130
5,152500	0,1	0,268731
5,154167	0,1	0,276476
5,155833	0,1	0,282072
5,157500	0,1	0,285506
5,159167	0,1	0,281304
5,160833	0,1	0,258507
5,162500	0,1	0,297912
5,164167	0,1	0,265201
5,165833	0,1	0,247512
5,167500	0,1	0,303057
5,169167	0,1	0,295160
5,170833	0,1	0,244597
5,172500	0,1	0,259369
5,174167	0,1	0,264358
5,175833	0,1	0,249766
5,177500	0,1	0,294568
5,179167	0,1	0,283199
5,180833	0,1	0,227464
5,182500	0,1	0,267276
5,184167	0,1	0,267313
5,185833	0,1	0,283708
5,187500	0,1	0,282172
5,189167	0,1	0,262599
5,190833	0,1	0,250509
5,192500	0,1	0,304662
5,194167	0,1	0,321936
5,195833	0,1	0,258815
5,197500	0,1	0,260531
5,199167	0,1	0,248707
5,200833	0,1	0,221898
5,202500	0,1	0,279197
5,204167	0,1	0,256298
5,205833	0,1	0,229296
5,207500	0,1	0,258884
5,209167	0,1	0,248479
5,210833	0,1	0,236264
5,212500	0,1	0,229453
5,214167	0,1	0,248020
5,215833	0,1	0,222576
5,217500	0,1	0,252589
5,219167	0,1	0,228209
5,220833	0,1	0,265318
5,222500	0,1	0,209048
5,224167	0,1	0,180882
5,225833	0,1	0,203949
5,227500	0,1	0,210835
5,229167	0,1	0,234335
5,230833	0,1	0,199273
5,232500	0,1	0,224366
5,234167	0,1	0,226202
5,235833	0,1	0,205660
5,237500	0,1	0,205240
5,239167	0,1	0,198975
5,240833	0,1	0,220509
5,242500	0,1	0,212703
5,244167	0,1	0,199103
5,245833	0,1	0,235321
5,247500	0,1	0,194005
5,249167	0,1	0,215585
5,250833	0,1	0,174756
5,252500	0,1	0,201323
5,254167	0,1	0,189840
5,255833	0,1	0,184544
5,257500	0,1	0,164002
5,259167	0,1	0,216318
5,260833	0,1	0,163279
5,262500	0,1	0,196268
5,264167	0,1	0,178280
5,265833	0,1	0,157096
5,267500	0,1	0,225831
5,269167	0,1	0,167035
5,270833	0,1	0,174228
5,272500	0,1	0,163974
5,274167	0,1	0,176471
5,275833	0,1	0,186241
5,277500	0,1	0,207553
5,279167	0,1	0,136751
5,280833	0,1	0,170038
5,282500	0,1	0,182927
5,284167	0,1	0,177409
5,285833	0,1	0,167730
5,287500	0,1	0,178944
5,289167	0,1	0,160598
5,290833	0,1	0,172804
5,292500	0,1	0,131969
5,294167	0,1	0,157727
5,295833	0,1	0,120170
5,297500	0,1	0,156640
5,299167	0,1	0,170913
5,300833	0,1	0,192097
5,302500	0,1	0,165816
5,304167	0,1	0,124709
5,305833	0,1	0,126790
5,307500	0,1	0,150404
5,309167	0,1	0,146200
5,310833	0,1	0,138160
5,312500	0,1	0,139621
5,314167	0,1	0,151918
5,315833	0,1	0,141729
5,317500	0,1	0,132313
5,319167	0,1	0,134529
5,320833	0,1	0,131833
5,322500	0,1	0,097876
5,324167	0,1	0,133236
5,325833	0,1	0,108597
5,327500	0,1	0,136641
5,329167	0,1	0,142341
5,330833	0,1	0,132806
5,332500	0,1	0,152685
5,334167	0,1	0,123799
5,335833	0,1	0,163935
5,337500	0,1	0,156197
5,339167	0,1	0,105327
5,340833	0,1	0,115824
5,342500	0,1	0,107510
5,344167	0,1	0,114954
5,345833	0,1	0,125112
5,347500	0,1	0,101113
5,349167	0,1	0,113253
5,350833	0,1	0,129775
5,352500	0,1	0,119951
5,354167	0,1	0,101426
5,355833	0,1	0,091092
5,357500	0,1	0,137063
5,359167	0,1	0,097777
5,360833	0,1	0,078931
5,362500	0,1	0,085515
5,364167	0,1	0,111561
5,365833	0,1	0,097480
5,367500	0,1	0,107241
5,369167	0,1	0,064547
5,370833	0,1	0,048662
5,372500	0,1	0,091102
5,374167	0,1	0,104543
5,375833	0,1	0,072334
5,377500	0,1	0,078006
5,379167	0,1	0,100913
5,380833	0,1	0,078492
5,382500	0,1	0,084787
5,384167	0,1	0,088227
5,385833	0,1	0,098017
5,387500	0,1	0,124730
5,389167	0,1	0,045894
5,390833	0,1	0,066231
5,392500	0,1	0,062687
5,394167	0,1	0,122631
5,395833	0,1	0,078498
5,397500	0,1	0,082922
5,399167	0,1	0,066265
5,400833	0,1	0,083662
5,402500	0,1	0,088164
5,404167	0,1	0,077924
5,405833	0,1	0,042961
5,407500	0,1	0,099454
5,409167	0,1	0,033556
5,410833	0,1	0,061480
5,412500	0,1	0,089672
5,414167	0,1	0,023736
5,415833	0,1	0,062599
5,417500	0,1	0,082956
5,419167	0,1	0,057057
5,420833	0,1	0,083245
5,422500	0,1	0,037265
5,424167	0,1	0,048568
5,425833	0,1	0,052426
5,427500	0,1	0,086520
5,429167	0,1	0,048604
5,430833	0,1	0,026251
5,432500	0,1	0,054097
5,434167	0,1	0,069877
5,435833	0,1	0,076203
5,437500	0,1	0,077593
5,439167	0,1	0,109545
5,440833	0,1	0,054885
5,442500	0,1	0,070621
5,444167	0,1	0,060902
5,445833	0,1	0,052099
5,447500	0,1	0,057795
5,449167	0,1	0,022044
5,450833	0,1	0,087506
5,452500	0,1	0,072142
5,454167	0,1	0,065462
5,455833	0,1	0,007687
5,457500	0,1	0,051422
5,459167	0,1	0,047640
5,460833	0,1	0,040447
5,462500	0,1	0,002562
5,464167	0,1	0,044620
5,465833	0,1	0,021506
5,467500	0,1	0,060499
5,469167	0,1	0,042416
5,470833	0,1	0,011432
5,472500	0,1	0,045349
5,474167	0,1	0,042600
5,475833	0,1	0,047513
5,477500	0,1	0,040196
5,479167	0,1	0,048443
5,480833	0,1	0,081730
5,482500	0,1	0,044185
5,484167	0,1	0,047325
5,485833	0,1	0,060050
5,487500	0,1	0,055077
5,489167	0,1	0,049027
5,490833	0,1	0,011082
5,492500	0,1	0,020231
5,494167	0,1	0,012149
5,495833	0,1	0,017890
5,497500	0,1	0,004793
5,499167	0,1	0,050049
5,500833	0,1	-0,018986
5,502500	0,1	0,051250
5,504167	0,1	-0,001891
5,505833	0,1	0,037035
5,507500	0,1	0,033048
5,509167	0,1	0,025542
5,510833	0,1	-0,002539
5,512500	0,1	0,028972
5,514167	0,1	0,006206
5,515833	0,1	-0,002523
5,517500	0,1	0,041987
5,519167	0,1	0,016839
5,520833	0,1	-0,010955
5,522500	0,1	0,035231
5,524167	0,1	0,018622
5,525833	0,1	0,030866
5,527500	0,1	0,022642
5,529167	0,1	0,045205
5,530833	0,1	0,004696
5,532500	0,1	0,026984
5,534167	0,1	-0,026513
5,535833	0,1	0,025361
5,537500	0,1	0,020588
5,539167	0,1	-0,009482
5,540833	0,1	0,023313
5,542500	0,1	-0,000199
5,544167	0,1	0,031066
5,545833	0,1	0,031237
5,547500	0,1	0,018617
5,549167	0,1	0,036460
5,550833	0,1	0,037725
5,552500	0,1	0,015115
5,554167	0,1	-0,000820
5,555833	0,1	0,050464
5,557500	0,1	0,013379
5,559167	0,1	0,054385
5,560833	0,1	0,023971
5,562500	0,1	-0,020215
5,564167	0,1	0,019643
5,565833	0,1	-0,001381
5,567500	0,1	0,030115
5,569167	0,1	0,020339
5,570833	0,1	0,018330
5,572500	0,1	-0,012655
5,574167	0,1	-0,003420
5,575833	0,1	-0,007480
5,577500	0,1	-0,027102
5,579167	0,1	0,042912
5,580833	0,1	0,025232
5,582500	0,1	-0,058012
5,584167	0,1	0,027298
5,585833	0,1	0,032896
5,587500	0,1	0,032835
5,589167	0,1	0,042864
5,590833	0,1	0,038432
5,592500	0,1	0,027863
5,594167	0,1	0,008838
5,595833	0,1	0,024352
5,597500	0,1	-0,013915
5,599167	0,1	0,009800
5,600833	0,1	0,058857
5,602500	0,1	-0,011836
5,604167	0,1	-0,006278
5,605833	0,1	0,022296
5,607500	0,1	0,070465
5,609167	0,1	-0,006570
5,610833	0,1	-0,025073
5,612500	0,1	-0,002967
5,614167	0,1	0,003753
5,615833	0,1	0,014777
5,617500	0,1	0,019089
5,619167	0,1	-0,002790
5,620833	0,1	0,023873
5,622500	0,1	-0,038162
5,624167	0,1	-0,012253
5,625833	0,1	0,012016
5,627500	0,1	-0,006376
5,629167	0,1	0,001825
5,630833	0,1	0,017676
5,632500	0,1	0,020955
5,634167	0,1	0,022594
5,635833	0,1	0,009416
5,637500	0,1	0,027088
5,639167	0,1	-0,026661
5,640833	0,1	0,017881
5,642500	0,1	0,026407
5,644167	0,1	-0,008737
5,645833	0,1	-0,009905
5,647500	0,1	0,009367
5,649167	0,1	0,029141
5,650833	0,1	0,023551
5,652500	0,1	0,035631
5,654167	0,1	-0,017561
5,655833	0,1	0,028388
5,657500	0,1	0,025541
5,659167	0,1	0,008400
5,660833	0,1	0,007837
5,662500	0,1	0,004625
5,664167	0,1	-0,006815
5,665833	0,1	0,009698
5,667500	0,1	0,030777
5,669167	0,1	0,008485
5,670833	0,1	0,035336
5,672500	0,1	0,014559
5,674167	0,1	0,031007
5,675833	0,1	0,030014
5,677500	0,1	0,017023
5,679167	0,1	0,014617
5,680833	0,1	0,032292
5,682500	0,1	0,036627
5,684167	0,1	0,047449
5,685833	0,1	0,021878
5,687500	0,1	0,006243
5,689167	0,1	0,023091
5,690833	0,1	0,049514
5,692500	0,1	0,001940
5,694167	0,1	0,004397
5,695833	0,1	0,013930
5,697500	0,1	0,018221
5,699167	0,1	0,018698
5,700833	0,1	-0,003576
5,702500	0,1	0,049492
5,704167	0,1	0,028859
5,705833	0,1	0,067176
5,707500	0,1	-0,010985
5,709167	0,1	0,027417
5,710833	0,1	0,034205
5,712500	0,1	0,055612
5,714167	0,1	0,023329
5,715833	0,1	0,036586
5,717500	0,1	0,057023
5,719167	0,1	0,025649
5,720833	0,1	-0,004404
5,722500	0,1	0,044289
5,724167	0,1	-0,007362
5,725833	0,1	0,073467
5,727500	0,1	0,036057
5,729167	0,1	0,028981
5,730833	0,1	0,080377
5,732500	0,1	0,033818
5,734167	0,1	0,016194
5,735833	0,1	0,040603
5,737500	0,1	0,032548
5,739167	0,1	-0,000797
5,740833	0,1	0,032889
5,742500	0,1	0,062100
5,744167	0,1	0,016906
5,745833	0,1	0,022802
5,747500	0,1	0,045431
5,749167	0,1	0,075304
5,750833	0,1	0,041009
5,752500	0,1	0,079738
5,754167	0,1	0,011420
5,755833	0,1	0,013557
5,757500	0,1	0,042758
5,759167	0,1	0,033480
5,760833	0,1	0,035922
5,762500	0,1	0,054679
5,764167	0,1	0,054809
5,765833	0,1	0,024700
5,767500	0,1	0,013146
5,769167	0,1	0,037948
5,770833	0,1	0,004775
5,772500	0,1	0,052102
5,774167	0,1	0,043285
5,775833	0,1	0,041935
5,777500	0,1	0,041543
5,779167	0,1	0,082057
5,780833	0,1	0,028099
5,782500	0,1	0,028878
5,784167	0,1	0,053558
5,785833	0,1	0,058187
5,787500	0,1	0,027497
5,789167	0,1	0,055094
5,790833	0,1	0,023182
5,792500	0,1	0,039736
5,794167	0,1	0,025936
5,795833	0,1	0,034306
5,797500	0,1	0,015864
5,799167	0,1	0,043690
5,800833	0,1	0,050450
5,802500	0,1	0,052592
5,804167	0,1	0,058726
5,805833	0,1	0,020159
5,807500	0,1	0,061617
5,809167	0,1	0,085048
5,810833	0,1	0,055233
5,812500	0,1	0,005570
5,814167	0,1	0,025181
5,815833	0,1	0,026307
5,817500	0,1	0,033146
5,819167	0,1	0,000550
5,820833	0,1	0,050919
5,822500	0,1	0,052733
5,824167	0,1	0,021817
5,825833	0,1	0,081535
5,827500	0,1	0,053468
5,829167	0,1	0,054849
5,830833	0,1	0,006399
5,832500	0,1	0,072928
5,834167	0,1	0,054500
5,835833	0,1	0,032135
5,837500	0,1	0,058032
5,839167	0,1	0,008060
5,840833	0,1	0,004125
5,842500	0,1	0,050879
5,844167	0,1	0,070582
5,845833	0,1	0,049689
5,847500	0,1	0,079943
5,849167	0,1	0,040743
5,850833	0,1	0,017481
5,852500	0,1	0,040933
5,854167	0,1	0,028215
5,855833	0,1	0,030844
5,857500	0,1	-0,029747
5,859167	0,1	0,026562
5,860833	0,1	0,037393
5,862500	0,1	0,046994
5,864167	0,1	0,012964
5,865833	0,1	0,006285
5,867500	0,1	0,032061
5,869167	0,1	0,004381
5,870833	0,1	0,003856
5,872500	0,1	0,034859
5,874167	0,1	0,041187
5,875833	0,1	0,021853
5,877500	0,1	0,043566
5,879167	0,1	0,022395
5,880833	0,1	0,027175
5,882500	0,1	0,041994
5,884167	0,1	0,025065
5,885833	0,1	0,032089
5,887500	0,1	-0,020485
5,889167	0,1	0,054456
5,890833	0,1	0,035184
5,892500	0,1	-0,020960
5,894167	0,1	-0,021947
5,895833	0,1	0,028411
5,897500	0,1	0,009001
5,899167	0,1	0,034318
5,900833	0,1	0,039009
5,902500	0,1	0,044087
5,904167	0,1	0,016134
5,905833	0,1	0,061804
5,907500	0,1	-0,013120
5,909167	0,1	0,026566
5,910833	0,1	0,049703
5,912500	0,1	0,028445
5,914167	0,1	0,005995
5,915833	0,1	0,046344
5,917500	0,1	0,000530
5,919167	0,1	-0,023124
5,920833	0,1	0,029422
5,922500	0,1	0,053684
5,924167	0,1	0,021567
5,925833	0,1	0,004378
5,927500	0,1	0,031497
5,929167	0,1	0,006001
5,930833	0,1	0,018406
5,932500	0,1	0,032644
5,934167	0,1	0,023114
5,935833	0,1	-0,027285
5,937500	0,1	0,034105
5,939167	0,1	0,012444
5,940833	0,1	0,043893
5,942500	0,1	0,024111
5,944167	0,1	-0,001049
5,945833	0,1	-0,018173
5,947500	0,1	0,037548
5,949167	0,1	-0,011116
5,950833	0,1	0,011936
5,952500	0,1	-0,000826
5,954167	0,1	0,027086
5,955833	0,1	-0,028877
5,957500	0,1	-0,002638
5,959167	0,1	-0,000187
5,960833	0,1	0,000126
5,962500	0,1	0,007029
5,964167	0,1	-0,015578
5,965833	0,1	0,022915
5,967500	0,1	-0,008197
5,969167	0,1	-0,027581
5,970833	0,1	-0,015423
5,972500	0,1	-0,013867
5,974167	0,1	0,000495
5,975833	0,1	0,007627
5,977500	0,1	-0,027390
5,979167	0,1	-0,021430
5,980833	0,1	-0,008893
5,982500	0,1	0,004870
5,984167	0,1	-0,028387
5,985833	0,1	-0,018242
5,987500	0,1	-0,008105
5,989167	0,1	-0,032657
5,990833	0,1	-0,031109
5,992500	0,1	0,022211
5,994167	0,1	-0,028566
5,995833	0,1	0,000824
5,997500	0,1	-0,002589
5,999167	0,1	-0,039224
6,000833	0,1	0,015159
