File Path	chrom://chromeleon01/ikbm_chromeleon/2022/Rezex/Esteban/220612_chitin_4_7.seq/862.smp/UV_VIS_1.channel/UV_VIS_1.chm
Channel	UV_VIS_1

Injection Information:
Data Vault	ikbm_chromeleon
Injection	4_04h-EGS_3
Injection Number	77
Position	GC5
Comment	
Processing Method	New ProcMethod
Instrument Method	Short_Rezex_6min_194nm
Type	Unknown
Status	Finished
Injection Date	13.06.2022
Injection Time	01:25:58
Injection Volume (µl)	8,000
Dilution Factor	1,0000
Weight	1,0000

Chromatogram Data Information:
Time Min. (min)	0,000833
Time Max. (min)	6,000833
Data Points	3601
Detector	UV
Generating Data System	Chromeleon 7.2.9.11323
Exporting Data System	Chromeleon 7.2.9.0
Operator	Instrument Controller
Signal Quantity	Absorbance
Signal Unit	mAU
Signal Min.	-0,096471
Signal Max.	119,647565
Channel	UV_VIS_1
Driver Name	VWD3000.dll
Channel Type	Evaluation
Min. Step (s)	0,1
Max. Step (s)	0,1
Average Step (s)	0,1

Signal Parameter Information:
Signal Info	WVL:194 nm

Chromatogram Data:
Time (min)	Step (s)	Value (mAU)
0,000833	n.a.	-0,018016
0,002500	0,1	-0,015860
0,004167	0,1	-0,040371
0,005833	0,1	-0,038264
0,007500	0,1	-0,001549
0,009167	0,1	0,004219
0,010833	0,1	-0,039391
0,012500	0,1	0,022112
0,014167	0,1	-0,015208
0,015833	0,1	-0,021351
0,017500	0,1	-0,026966
0,019167	0,1	-0,000758
0,020833	0,1	-0,046622
0,022500	0,1	-0,022166
0,024167	0,1	0,017702
0,025833	0,1	-0,036280
0,027500	0,1	-0,029458
0,029167	0,1	-0,037615
0,030833	0,1	-0,041555
0,032500	0,1	-0,058587
0,034167	0,1	-0,042636
0,035833	0,1	-0,075638
0,037500	0,1	-0,085402
0,039167	0,1	-0,090769
0,040833	0,1	-0,096471
0,042500	0,1	-0,071217
0,044167	0,1	-0,036655
0,045833	0,1	-0,050838
0,047500	0,1	-0,075595
0,049167	0,1	-0,071958
0,050833	0,1	-0,060126
0,052500	0,1	-0,030456
0,054167	0,1	-0,068094
0,055833	0,1	-0,016350
0,057500	0,1	-0,038692
0,059167	0,1	-0,056494
0,060833	0,1	-0,008286
0,062500	0,1	-0,041424
0,064167	0,1	-0,042676
0,065833	0,1	0,020247
0,067500	0,1	-0,047530
0,069167	0,1	-0,056785
0,070833	0,1	-0,035842
0,072500	0,1	-0,041369
0,074167	0,1	-0,033769
0,075833	0,1	-0,018765
0,077500	0,1	-0,033596
0,079167	0,1	-0,034118
0,080833	0,1	-0,014167
0,082500	0,1	0,036230
0,084167	0,1	-0,024715
0,085833	0,1	-0,012961
0,087500	0,1	-0,002185
0,089167	0,1	-0,002762
0,090833	0,1	-0,022074
0,092500	0,1	-0,037968
0,094167	0,1	0,037634
0,095833	0,1	0,010465
0,097500	0,1	-0,005267
0,099167	0,1	0,026223
0,100833	0,1	0,011582
0,102500	0,1	-0,007153
0,104167	0,1	0,008922
0,105833	0,1	-0,026648
0,107500	0,1	-0,012756
0,109167	0,1	-0,012130
0,110833	0,1	-0,046377
0,112500	0,1	-0,053117
0,114167	0,1	-0,058153
0,115833	0,1	-0,063334
0,117500	0,1	-0,042575
0,119167	0,1	-0,022000
0,120833	0,1	-0,020481
0,122500	0,1	-0,045843
0,124167	0,1	-0,034554
0,125833	0,1	-0,066892
0,127500	0,1	-0,028593
0,129167	0,1	-0,069150
0,130833	0,1	-0,063047
0,132500	0,1	-0,012846
0,134167	0,1	0,002270
0,135833	0,1	-0,022570
0,137500	0,1	-0,010329
0,139167	0,1	-0,044741
0,140833	0,1	-0,012717
0,142500	0,1	-0,042439
0,144167	0,1	-0,007808
0,145833	0,1	-0,006515
0,147500	0,1	-0,015693
0,149167	0,1	0,015321
0,150833	0,1	-0,002427
0,152500	0,1	0,026204
0,154167	0,1	0,010609
0,155833	0,1	-0,029279
0,157500	0,1	-0,008425
0,159167	0,1	0,012278
0,160833	0,1	0,014168
0,162500	0,1	0,009050
0,164167	0,1	-0,029798
0,165833	0,1	-0,011597
0,167500	0,1	0,026553
0,169167	0,1	-0,002237
0,170833	0,1	-0,020312
0,172500	0,1	-0,016317
0,174167	0,1	-0,022658
0,175833	0,1	0,029782
0,177500	0,1	-0,014294
0,179167	0,1	-0,005750
0,180833	0,1	0,007160
0,182500	0,1	0,014622
0,184167	0,1	0,000286
0,185833	0,1	-0,038835
0,187500	0,1	0,004024
0,189167	0,1	0,015968
0,190833	0,1	0,022810
0,192500	0,1	-0,004662
0,194167	0,1	0,045639
0,195833	0,1	0,020828
0,197500	0,1	0,035222
0,199167	0,1	-0,001636
0,200833	0,1	0,017127
0,202500	0,1	-0,010177
0,204167	0,1	-0,012150
0,205833	0,1	0,014329
0,207500	0,1	0,020510
0,209167	0,1	-0,014796
0,210833	0,1	0,008029
0,212500	0,1	0,003414
0,214167	0,1	-0,002243
0,215833	0,1	0,019696
0,217500	0,1	-0,000790
0,219167	0,1	0,013916
0,220833	0,1	0,018540
0,222500	0,1	0,042058
0,224167	0,1	0,001909
0,225833	0,1	0,036109
0,227500	0,1	0,018234
0,229167	0,1	0,055217
0,230833	0,1	-0,000179
0,232500	0,1	0,014351
0,234167	0,1	0,042431
0,235833	0,1	0,013637
0,237500	0,1	0,048605
0,239167	0,1	0,016497
0,240833	0,1	0,041894
0,242500	0,1	0,024619
0,244167	0,1	0,020181
0,245833	0,1	0,030166
0,247500	0,1	0,026045
0,249167	0,1	0,032923
0,250833	0,1	-0,012534
0,252500	0,1	-0,021577
0,254167	0,1	0,020665
0,255833	0,1	0,015910
0,257500	0,1	0,009735
0,259167	0,1	-0,021367
0,260833	0,1	0,002371
0,262500	0,1	0,064332
0,264167	0,1	0,043666
0,265833	0,1	0,003485
0,267500	0,1	-0,012852
0,269167	0,1	-0,000506
0,270833	0,1	0,029230
0,272500	0,1	0,035287
0,274167	0,1	0,039329
0,275833	0,1	0,049938
0,277500	0,1	0,010863
0,279167	0,1	0,052316
0,280833	0,1	0,024415
0,282500	0,1	0,036010
0,284167	0,1	0,057666
0,285833	0,1	0,013143
0,287500	0,1	0,014872
0,289167	0,1	0,038826
0,290833	0,1	0,064569
0,292500	0,1	0,061964
0,294167	0,1	0,023588
0,295833	0,1	0,036652
0,297500	0,1	0,072215
0,299167	0,1	0,055834
0,300833	0,1	0,042317
0,302500	0,1	0,046872
0,304167	0,1	0,054293
0,305833	0,1	0,073936
0,307500	0,1	0,051252
0,309167	0,1	0,027771
0,310833	0,1	0,062679
0,312500	0,1	0,045281
0,314167	0,1	0,056345
0,315833	0,1	0,087388
0,317500	0,1	0,051340
0,319167	0,1	0,038524
0,320833	0,1	0,080356
0,322500	0,1	0,042988
0,324167	0,1	0,037879
0,325833	0,1	0,083693
0,327500	0,1	0,062198
0,329167	0,1	0,040909
0,330833	0,1	0,033963
0,332500	0,1	0,083879
0,334167	0,1	0,070754
0,335833	0,1	0,034323
0,337500	0,1	0,060839
0,339167	0,1	0,027897
0,340833	0,1	0,048983
0,342500	0,1	0,093088
0,344167	0,1	0,093029
0,345833	0,1	0,059152
0,347500	0,1	0,039378
0,349167	0,1	0,080255
0,350833	0,1	0,093009
0,352500	0,1	0,078260
0,354167	0,1	0,077216
0,355833	0,1	0,052891
0,357500	0,1	0,077647
0,359167	0,1	0,061242
0,360833	0,1	0,057030
0,362500	0,1	0,027730
0,364167	0,1	0,079113
0,365833	0,1	0,086671
0,367500	0,1	0,043858
0,369167	0,1	0,066331
0,370833	0,1	0,049572
0,372500	0,1	0,062458
0,374167	0,1	0,059912
0,375833	0,1	0,064408
0,377500	0,1	0,075205
0,379167	0,1	0,058341
0,380833	0,1	0,023067
0,382500	0,1	0,063879
0,384167	0,1	0,068573
0,385833	0,1	0,073654
0,387500	0,1	0,062856
0,389167	0,1	0,062750
0,390833	0,1	0,076076
0,392500	0,1	0,077135
0,394167	0,1	0,088261
0,395833	0,1	0,110357
0,397500	0,1	0,065934
0,399167	0,1	0,064014
0,400833	0,1	0,054672
0,402500	0,1	0,069008
0,404167	0,1	0,063542
0,405833	0,1	0,083494
0,407500	0,1	0,107890
0,409167	0,1	0,105865
0,410833	0,1	0,050391
0,412500	0,1	0,093377
0,414167	0,1	0,060747
0,415833	0,1	0,071641
0,417500	0,1	0,093650
0,419167	0,1	0,105965
0,420833	0,1	0,067155
0,422500	0,1	0,056514
0,424167	0,1	0,091805
0,425833	0,1	0,084973
0,427500	0,1	0,060726
0,429167	0,1	0,056200
0,430833	0,1	0,079741
0,432500	0,1	0,071646
0,434167	0,1	0,088909
0,435833	0,1	0,150191
0,437500	0,1	0,093960
0,439167	0,1	0,107642
0,440833	0,1	0,103586
0,442500	0,1	0,097661
0,444167	0,1	0,093305
0,445833	0,1	0,096061
0,447500	0,1	0,109115
0,449167	0,1	0,110528
0,450833	0,1	0,115502
0,452500	0,1	0,098073
0,454167	0,1	0,085721
0,455833	0,1	0,087479
0,457500	0,1	0,062592
0,459167	0,1	0,095637
0,460833	0,1	0,128599
0,462500	0,1	0,119653
0,464167	0,1	0,129498
0,465833	0,1	0,089913
0,467500	0,1	0,119847
0,469167	0,1	0,100978
0,470833	0,1	0,113159
0,472500	0,1	0,105907
0,474167	0,1	0,131791
0,475833	0,1	0,101085
0,477500	0,1	0,122896
0,479167	0,1	0,107670
0,480833	0,1	0,110136
0,482500	0,1	0,125242
0,484167	0,1	0,099757
0,485833	0,1	0,080269
0,487500	0,1	0,119679
0,489167	0,1	0,082865
0,490833	0,1	0,080286
0,492500	0,1	0,132506
0,494167	0,1	0,094740
0,495833	0,1	0,112553
0,497500	0,1	0,077748
0,499167	0,1	0,130437
0,500833	0,1	0,118243
0,502500	0,1	0,141469
0,504167	0,1	0,120853
0,505833	0,1	0,124108
0,507500	0,1	0,119651
0,509167	0,1	0,123317
0,510833	0,1	0,090349
0,512500	0,1	0,141965
0,514167	0,1	0,117102
0,515833	0,1	0,119462
0,517500	0,1	0,148186
0,519167	0,1	0,121748
0,520833	0,1	0,151587
0,522500	0,1	0,098604
0,524167	0,1	0,126916
0,525833	0,1	0,132461
0,527500	0,1	0,135261
0,529167	0,1	0,159086
0,530833	0,1	0,090483
0,532500	0,1	0,133424
0,534167	0,1	0,137227
0,535833	0,1	0,128775
0,537500	0,1	0,139733
0,539167	0,1	0,152939
0,540833	0,1	0,112221
0,542500	0,1	0,162305
0,544167	0,1	0,132573
0,545833	0,1	0,102370
0,547500	0,1	0,151959
0,549167	0,1	0,136463
0,550833	0,1	0,158430
0,552500	0,1	0,159078
0,554167	0,1	0,140445
0,555833	0,1	0,132214
0,557500	0,1	0,144193
0,559167	0,1	0,137129
0,560833	0,1	0,126807
0,562500	0,1	0,141973
0,564167	0,1	0,123511
0,565833	0,1	0,163027
0,567500	0,1	0,156472
0,569167	0,1	0,148720
0,570833	0,1	0,181465
0,572500	0,1	0,178813
0,574167	0,1	0,171128
0,575833	0,1	0,223401
0,577500	0,1	0,182364
0,579167	0,1	0,143460
0,580833	0,1	0,170288
0,582500	0,1	0,185464
0,584167	0,1	0,147833
0,585833	0,1	0,166534
0,587500	0,1	0,182628
0,589167	0,1	0,161365
0,590833	0,1	0,165013
0,592500	0,1	0,207436
0,594167	0,1	0,164647
0,595833	0,1	0,168101
0,597500	0,1	0,180058
0,599167	0,1	0,190568
0,600833	0,1	0,175729
0,602500	0,1	0,144618
0,604167	0,1	0,180089
0,605833	0,1	0,201972
0,607500	0,1	0,165702
0,609167	0,1	0,176617
0,610833	0,1	0,205661
0,612500	0,1	0,188622
0,614167	0,1	0,198320
0,615833	0,1	0,204268
0,617500	0,1	0,230415
0,619167	0,1	0,230937
0,620833	0,1	0,184243
0,622500	0,1	0,180162
0,624167	0,1	0,236294
0,625833	0,1	0,234921
0,627500	0,1	0,199199
0,629167	0,1	0,218369
0,630833	0,1	0,206101
0,632500	0,1	0,209335
0,634167	0,1	0,207282
0,635833	0,1	0,228589
0,637500	0,1	0,216094
0,639167	0,1	0,230934
0,640833	0,1	0,222547
0,642500	0,1	0,208054
0,644167	0,1	0,234436
0,645833	0,1	0,261750
0,647500	0,1	0,242512
0,649167	0,1	0,217382
0,650833	0,1	0,191925
0,652500	0,1	0,219803
0,654167	0,1	0,253402
0,655833	0,1	0,214878
0,657500	0,1	0,242691
0,659167	0,1	0,211650
0,660833	0,1	0,247290
0,662500	0,1	0,239032
0,664167	0,1	0,269942
0,665833	0,1	0,248108
0,667500	0,1	0,227429
0,669167	0,1	0,264028
0,670833	0,1	0,246080
0,672500	0,1	0,226281
0,674167	0,1	0,274023
0,675833	0,1	0,293540
0,677500	0,1	0,255373
0,679167	0,1	0,250387
0,680833	0,1	0,241768
0,682500	0,1	0,242219
0,684167	0,1	0,236235
0,685833	0,1	0,285476
0,687500	0,1	0,277450
0,689167	0,1	0,287025
0,690833	0,1	0,308588
0,692500	0,1	0,289467
0,694167	0,1	0,292775
0,695833	0,1	0,241614
0,697500	0,1	0,293824
0,699167	0,1	0,288948
0,700833	0,1	0,277450
0,702500	0,1	0,295634
0,704167	0,1	0,290785
0,705833	0,1	0,281785
0,707500	0,1	0,298713
0,709167	0,1	0,306438
0,710833	0,1	0,282850
0,712500	0,1	0,318935
0,714167	0,1	0,279965
0,715833	0,1	0,329700
0,717500	0,1	0,362464
0,719167	0,1	0,300759
0,720833	0,1	0,348282
0,722500	0,1	0,314903
0,724167	0,1	0,354747
0,725833	0,1	0,349487
0,727500	0,1	0,372945
0,729167	0,1	0,330590
0,730833	0,1	0,352110
0,732500	0,1	0,368604
0,734167	0,1	0,381243
0,735833	0,1	0,362535
0,737500	0,1	0,392073
0,739167	0,1	0,355211
0,740833	0,1	0,380469
0,742500	0,1	0,405483
0,744167	0,1	0,399415
0,745833	0,1	0,370544
0,747500	0,1	0,377897
0,749167	0,1	0,375263
0,750833	0,1	0,353406
0,752500	0,1	0,379566
0,754167	0,1	0,420495
0,755833	0,1	0,433907
0,757500	0,1	0,375409
0,759167	0,1	0,376584
0,760833	0,1	0,411395
0,762500	0,1	0,437699
0,764167	0,1	0,412952
0,765833	0,1	0,442875
0,767500	0,1	0,416138
0,769167	0,1	0,406134
0,770833	0,1	0,467884
0,772500	0,1	0,412447
0,774167	0,1	0,394465
0,775833	0,1	0,417089
0,777500	0,1	0,380995
0,779167	0,1	0,394134
0,780833	0,1	0,415961
0,782500	0,1	0,397101
0,784167	0,1	0,381181
0,785833	0,1	0,412746
0,787500	0,1	0,377136
0,789167	0,1	0,431131
0,790833	0,1	0,427515
0,792500	0,1	0,413208
0,794167	0,1	0,392596
0,795833	0,1	0,382246
0,797500	0,1	0,410431
0,799167	0,1	0,365113
0,800833	0,1	0,400623
0,802500	0,1	0,416192
0,804167	0,1	0,432943
0,805833	0,1	0,423624
0,807500	0,1	0,428378
0,809167	0,1	0,361679
0,810833	0,1	0,414283
0,812500	0,1	0,363928
0,814167	0,1	0,368385
0,815833	0,1	0,396220
0,817500	0,1	0,430044
0,819167	0,1	0,409962
0,820833	0,1	0,415066
0,822500	0,1	0,424681
0,824167	0,1	0,360780
0,825833	0,1	0,411810
0,827500	0,1	0,384307
0,829167	0,1	0,433576
0,830833	0,1	0,415522
0,832500	0,1	0,434904
0,834167	0,1	0,369400
0,835833	0,1	0,399594
0,837500	0,1	0,403942
0,839167	0,1	0,462547
0,840833	0,1	0,418264
0,842500	0,1	0,434326
0,844167	0,1	0,429925
0,845833	0,1	0,455353
0,847500	0,1	0,417136
0,849167	0,1	0,416033
0,850833	0,1	0,440304
0,852500	0,1	0,447254
0,854167	0,1	0,416296
0,855833	0,1	0,441427
0,857500	0,1	0,395143
0,859167	0,1	0,438564
0,860833	0,1	0,415396
0,862500	0,1	0,404237
0,864167	0,1	0,445895
0,865833	0,1	0,463651
0,867500	0,1	0,407428
0,869167	0,1	0,459171
0,870833	0,1	0,398010
0,872500	0,1	0,441008
0,874167	0,1	0,415428
0,875833	0,1	0,441299
0,877500	0,1	0,454777
0,879167	0,1	0,475933
0,880833	0,1	0,470890
0,882500	0,1	0,456198
0,884167	0,1	0,484645
0,885833	0,1	0,432445
0,887500	0,1	0,407068
0,889167	0,1	0,462226
0,890833	0,1	0,446323
0,892500	0,1	0,448733
0,894167	0,1	0,480111
0,895833	0,1	0,485134
0,897500	0,1	0,453372
0,899167	0,1	0,443463
0,900833	0,1	0,475288
0,902500	0,1	0,450475
0,904167	0,1	0,486765
0,905833	0,1	0,450381
0,907500	0,1	0,465097
0,909167	0,1	0,427937
0,910833	0,1	0,452296
0,912500	0,1	0,449634
0,914167	0,1	0,493808
0,915833	0,1	0,520439
0,917500	0,1	0,486525
0,919167	0,1	0,477613
0,920833	0,1	0,506899
0,922500	0,1	0,512340
0,924167	0,1	0,507519
0,925833	0,1	0,467009
0,927500	0,1	0,524194
0,929167	0,1	0,493342
0,930833	0,1	0,486038
0,932500	0,1	0,488865
0,934167	0,1	0,514810
0,935833	0,1	0,507390
0,937500	0,1	0,485557
0,939167	0,1	0,515903
0,940833	0,1	0,498132
0,942500	0,1	0,515489
0,944167	0,1	0,544945
0,945833	0,1	0,516238
0,947500	0,1	0,529447
0,949167	0,1	0,554983
0,950833	0,1	0,546532
0,952500	0,1	0,542187
0,954167	0,1	0,552123
0,955833	0,1	0,509329
0,957500	0,1	0,543400
0,959167	0,1	0,548168
0,960833	0,1	0,540484
0,962500	0,1	0,528683
0,964167	0,1	0,598712
0,965833	0,1	0,533743
0,967500	0,1	0,579484
0,969167	0,1	0,583483
0,970833	0,1	0,561521
0,972500	0,1	0,584539
0,974167	0,1	0,562329
0,975833	0,1	0,578528
0,977500	0,1	0,567502
0,979167	0,1	0,588755
0,980833	0,1	0,589727
0,982500	0,1	0,612682
0,984167	0,1	0,591436
0,985833	0,1	0,616834
0,987500	0,1	0,630926
0,989167	0,1	0,618709
0,990833	0,1	0,626873
0,992500	0,1	0,593785
0,994167	0,1	0,615873
0,995833	0,1	0,607034
0,997500	0,1	0,663534
0,999167	0,1	0,651746
1,000833	0,1	0,636405
1,002500	0,1	0,631162
1,004167	0,1	0,702650
1,005833	0,1	0,655940
1,007500	0,1	0,671655
1,009167	0,1	0,671176
1,010833	0,1	0,714212
1,012500	0,1	0,716992
1,014167	0,1	0,753953
1,015833	0,1	0,709056
1,017500	0,1	0,738836
1,019167	0,1	0,741025
1,020833	0,1	0,752766
1,022500	0,1	0,758505
1,024167	0,1	0,777126
1,025833	0,1	0,833074
1,027500	0,1	0,782107
1,029167	0,1	0,835623
1,030833	0,1	0,803436
1,032500	0,1	0,851231
1,034167	0,1	0,851374
1,035833	0,1	0,884219
1,037500	0,1	0,851274
1,039167	0,1	0,895203
1,040833	0,1	0,920849
1,042500	0,1	0,890804
1,044167	0,1	0,909306
1,045833	0,1	0,967064
1,047500	0,1	0,958020
1,049167	0,1	0,984277
1,050833	0,1	1,030325
1,052500	0,1	1,015929
1,054167	0,1	1,073493
1,055833	0,1	1,101771
1,057500	0,1	1,202749
1,059167	0,1	1,283677
1,060833	0,1	1,379352
1,062500	0,1	1,570070
1,064167	0,1	1,765913
1,065833	0,1	2,050309
1,067500	0,1	2,377972
1,069167	0,1	2,836006
1,070833	0,1	3,374732
1,072500	0,1	4,025561
1,074167	0,1	4,847594
1,075833	0,1	5,830080
1,077500	0,1	6,973694
1,079167	0,1	8,343884
1,080833	0,1	9,878171
1,082500	0,1	11,641757
1,084167	0,1	13,599796
1,085833	0,1	15,771162
1,087500	0,1	18,074557
1,089167	0,1	20,525736
1,090833	0,1	23,162660
1,092500	0,1	25,921311
1,094167	0,1	28,684112
1,095833	0,1	31,509266
1,097500	0,1	34,252935
1,099167	0,1	36,986466
1,100833	0,1	39,655862
1,102500	0,1	42,172245
1,104167	0,1	44,509150
1,105833	0,1	46,590096
1,107500	0,1	48,459672
1,109167	0,1	50,163157
1,110833	0,1	51,574638
1,112500	0,1	52,752107
1,114167	0,1	53,672233
1,115833	0,1	54,366551
1,117500	0,1	54,816026
1,119167	0,1	55,023711
1,120833	0,1	55,048347
1,122500	0,1	54,833939
1,124167	0,1	54,487069
1,125833	0,1	53,992582
1,127500	0,1	53,364903
1,129167	0,1	52,628852
1,130833	0,1	51,821149
1,132500	0,1	50,894089
1,134167	0,1	49,950900
1,135833	0,1	48,925105
1,137500	0,1	47,920561
1,139167	0,1	46,953825
1,140833	0,1	45,966800
1,142500	0,1	44,959349
1,144167	0,1	44,067794
1,145833	0,1	43,151167
1,147500	0,1	42,340290
1,149167	0,1	41,580783
1,150833	0,1	40,905981
1,152500	0,1	40,312248
1,154167	0,1	39,799094
1,155833	0,1	39,300497
1,157500	0,1	38,943571
1,159167	0,1	38,639153
1,160833	0,1	38,429011
1,162500	0,1	38,264559
1,164167	0,1	38,149736
1,165833	0,1	38,126747
1,167500	0,1	38,116715
1,169167	0,1	38,105488
1,170833	0,1	38,114601
1,172500	0,1	38,195071
1,174167	0,1	38,290423
1,175833	0,1	38,352366
1,177500	0,1	38,409468
1,179167	0,1	38,457475
1,180833	0,1	38,496786
1,182500	0,1	38,504796
1,184167	0,1	38,576550
1,185833	0,1	38,615187
1,187500	0,1	38,574953
1,189167	0,1	38,622448
1,190833	0,1	38,658307
1,192500	0,1	38,691016
1,194167	0,1	38,859104
1,195833	0,1	39,003389
1,197500	0,1	39,269568
1,199167	0,1	39,592063
1,200833	0,1	40,075908
1,202500	0,1	40,747821
1,204167	0,1	41,511471
1,205833	0,1	42,489591
1,207500	0,1	43,697259
1,209167	0,1	45,089078
1,210833	0,1	46,717374
1,212500	0,1	48,695089
1,214167	0,1	50,835270
1,215833	0,1	53,255134
1,217500	0,1	55,901797
1,219167	0,1	58,817727
1,220833	0,1	61,881415
1,222500	0,1	65,205022
1,224167	0,1	68,632723
1,225833	0,1	72,197585
1,227500	0,1	75,843025
1,229167	0,1	79,551449
1,230833	0,1	83,292865
1,232500	0,1	86,968923
1,234167	0,1	90,555108
1,235833	0,1	94,034090
1,237500	0,1	97,392984
1,239167	0,1	100,530813
1,240833	0,1	103,544495
1,242500	0,1	106,368324
1,244167	0,1	108,906504
1,245833	0,1	111,192813
1,247500	0,1	113,181845
1,249167	0,1	114,918407
1,250833	0,1	116,398935
1,252500	0,1	117,592809
1,254167	0,1	118,528051
1,255833	0,1	119,189745
1,257500	0,1	119,504277
1,259167	0,1	119,647565
1,260833	0,1	119,475111
1,262500	0,1	119,003687
1,264167	0,1	118,381593
1,265833	0,1	117,508574
1,267500	0,1	116,402353
1,269167	0,1	115,066062
1,270833	0,1	113,575493
1,272500	0,1	111,887994
1,274167	0,1	110,040746
1,275833	0,1	108,047351
1,277500	0,1	105,950612
1,279167	0,1	103,745465
1,280833	0,1	101,458037
1,282500	0,1	99,026206
1,284167	0,1	96,553847
1,285833	0,1	94,098505
1,287500	0,1	91,577725
1,289167	0,1	88,989109
1,290833	0,1	86,483367
1,292500	0,1	83,928995
1,294167	0,1	81,505292
1,295833	0,1	78,965101
1,297500	0,1	76,570382
1,299167	0,1	74,186701
1,300833	0,1	71,907887
1,302500	0,1	69,638003
1,304167	0,1	67,466066
1,305833	0,1	65,396898
1,307500	0,1	63,365626
1,309167	0,1	61,381402
1,310833	0,1	59,554360
1,312500	0,1	57,740886
1,314167	0,1	56,031503
1,315833	0,1	54,413142
1,317500	0,1	52,837134
1,319167	0,1	51,356813
1,320833	0,1	49,911723
1,322500	0,1	48,526714
1,324167	0,1	47,252181
1,325833	0,1	45,940398
1,327500	0,1	44,754573
1,329167	0,1	43,621054
1,330833	0,1	42,585799
1,332500	0,1	41,541791
1,334167	0,1	40,491761
1,335833	0,1	39,503485
1,337500	0,1	38,560185
1,339167	0,1	37,747665
1,340833	0,1	36,819256
1,342500	0,1	35,983683
1,344167	0,1	35,161402
1,345833	0,1	34,374229
1,347500	0,1	33,640180
1,349167	0,1	32,859383
1,350833	0,1	32,168702
1,352500	0,1	31,466078
1,354167	0,1	30,819554
1,355833	0,1	30,116957
1,357500	0,1	29,438273
1,359167	0,1	28,826013
1,360833	0,1	28,188331
1,362500	0,1	27,585598
1,364167	0,1	27,010636
1,365833	0,1	26,422065
1,367500	0,1	25,841111
1,369167	0,1	25,291046
1,370833	0,1	24,743398
1,372500	0,1	24,193548
1,374167	0,1	23,704501
1,375833	0,1	23,217639
1,377500	0,1	22,679872
1,379167	0,1	22,231361
1,380833	0,1	21,755584
1,382500	0,1	21,267846
1,384167	0,1	20,845227
1,385833	0,1	20,418678
1,387500	0,1	19,934009
1,389167	0,1	19,563117
1,390833	0,1	19,135559
1,392500	0,1	18,761561
1,394167	0,1	18,377247
1,395833	0,1	18,014638
1,397500	0,1	17,663883
1,399167	0,1	17,280681
1,400833	0,1	16,977800
1,402500	0,1	16,665498
1,404167	0,1	16,338930
1,405833	0,1	16,087097
1,407500	0,1	15,756709
1,409167	0,1	15,483513
1,410833	0,1	15,208379
1,412500	0,1	14,993521
1,414167	0,1	14,703686
1,415833	0,1	14,443629
1,417500	0,1	14,230929
1,419167	0,1	14,028921
1,420833	0,1	13,782922
1,422500	0,1	13,547373
1,424167	0,1	13,349427
1,425833	0,1	13,210435
1,427500	0,1	12,974871
1,429167	0,1	12,805589
1,430833	0,1	12,610568
1,432500	0,1	12,433624
1,434167	0,1	12,277629
1,435833	0,1	12,109186
1,437500	0,1	11,896142
1,439167	0,1	11,791395
1,440833	0,1	11,558868
1,442500	0,1	11,463701
1,444167	0,1	11,322831
1,445833	0,1	11,149035
1,447500	0,1	10,998711
1,449167	0,1	10,826666
1,450833	0,1	10,726987
1,452500	0,1	10,537621
1,454167	0,1	10,426873
1,455833	0,1	10,293152
1,457500	0,1	10,193761
1,459167	0,1	10,026112
1,460833	0,1	9,935361
1,462500	0,1	9,823026
1,464167	0,1	9,749401
1,465833	0,1	9,609328
1,467500	0,1	9,511361
1,469167	0,1	9,383965
1,470833	0,1	9,265571
1,472500	0,1	9,185952
1,474167	0,1	9,109672
1,475833	0,1	9,015287
1,477500	0,1	8,933439
1,479167	0,1	8,833278
1,480833	0,1	8,760142
1,482500	0,1	8,719972
1,484167	0,1	8,673186
1,485833	0,1	8,584403
1,487500	0,1	8,582870
1,489167	0,1	8,486551
1,490833	0,1	8,431594
1,492500	0,1	8,406773
1,494167	0,1	8,394718
1,495833	0,1	8,306767
1,497500	0,1	8,264650
1,499167	0,1	8,243909
1,500833	0,1	8,253804
1,502500	0,1	8,232383
1,504167	0,1	8,172360
1,505833	0,1	8,156326
1,507500	0,1	8,139441
1,509167	0,1	8,084926
1,510833	0,1	8,074640
1,512500	0,1	8,075947
1,514167	0,1	8,056300
1,515833	0,1	7,992014
1,517500	0,1	8,051798
1,519167	0,1	7,995301
1,520833	0,1	7,960712
1,522500	0,1	7,975885
1,524167	0,1	7,951992
1,525833	0,1	7,942994
1,527500	0,1	7,879492
1,529167	0,1	7,907866
1,530833	0,1	7,887040
1,532500	0,1	7,838178
1,534167	0,1	7,858983
1,535833	0,1	7,816117
1,537500	0,1	7,789478
1,539167	0,1	7,716434
1,540833	0,1	7,744688
1,542500	0,1	7,734900
1,544167	0,1	7,656360
1,545833	0,1	7,668011
1,547500	0,1	7,615943
1,549167	0,1	7,591812
1,550833	0,1	7,553507
1,552500	0,1	7,513076
1,554167	0,1	7,517011
1,555833	0,1	7,477883
1,557500	0,1	7,440734
1,559167	0,1	7,383681
1,560833	0,1	7,392545
1,562500	0,1	7,344194
1,564167	0,1	7,306486
1,565833	0,1	7,282301
1,567500	0,1	7,214014
1,569167	0,1	7,197300
1,570833	0,1	7,139183
1,572500	0,1	7,134410
1,574167	0,1	7,065483
1,575833	0,1	7,077404
1,577500	0,1	7,005043
1,579167	0,1	6,981714
1,580833	0,1	6,931360
1,582500	0,1	6,908975
1,584167	0,1	6,854623
1,585833	0,1	6,808188
1,587500	0,1	6,806968
1,589167	0,1	6,810888
1,590833	0,1	6,728684
1,592500	0,1	6,700064
1,594167	0,1	6,663995
1,595833	0,1	6,628205
1,597500	0,1	6,611984
1,599167	0,1	6,572110
1,600833	0,1	6,513796
1,602500	0,1	6,520406
1,604167	0,1	6,469639
1,605833	0,1	6,443188
1,607500	0,1	6,421375
1,609167	0,1	6,343996
1,610833	0,1	6,332909
1,612500	0,1	6,341288
1,614167	0,1	6,253374
1,615833	0,1	6,239512
1,617500	0,1	6,186263
1,619167	0,1	6,170997
1,620833	0,1	6,115969
1,622500	0,1	6,136812
1,624167	0,1	6,080813
1,625833	0,1	6,025056
1,627500	0,1	5,983454
1,629167	0,1	6,009937
1,630833	0,1	5,953984
1,632500	0,1	5,933564
1,634167	0,1	5,877106
1,635833	0,1	5,865392
1,637500	0,1	5,842973
1,639167	0,1	5,812602
1,640833	0,1	5,832965
1,642500	0,1	5,708391
1,644167	0,1	5,736434
1,645833	0,1	5,730162
1,647500	0,1	5,664522
1,649167	0,1	5,717392
1,650833	0,1	5,679262
1,652500	0,1	5,643037
1,654167	0,1	5,619779
1,655833	0,1	5,593615
1,657500	0,1	5,583072
1,659167	0,1	5,605753
1,660833	0,1	5,579519
1,662500	0,1	5,540155
1,664167	0,1	5,568224
1,665833	0,1	5,534341
1,667500	0,1	5,545845
1,669167	0,1	5,551640
1,670833	0,1	5,558884
1,672500	0,1	5,550493
1,674167	0,1	5,574584
1,675833	0,1	5,615899
1,677500	0,1	5,629834
1,679167	0,1	5,615894
1,680833	0,1	5,683173
1,682500	0,1	5,692687
1,684167	0,1	5,708007
1,685833	0,1	5,755520
1,687500	0,1	5,806141
1,689167	0,1	5,818433
1,690833	0,1	5,884361
1,692500	0,1	5,938313
1,694167	0,1	5,994503
1,695833	0,1	6,077076
1,697500	0,1	6,130582
1,699167	0,1	6,177039
1,700833	0,1	6,247504
1,702500	0,1	6,322647
1,704167	0,1	6,369933
1,705833	0,1	6,447727
1,707500	0,1	6,499514
1,709167	0,1	6,603761
1,710833	0,1	6,740201
1,712500	0,1	6,757930
1,714167	0,1	6,899241
1,715833	0,1	6,914654
1,717500	0,1	7,021229
1,719167	0,1	7,099778
1,720833	0,1	7,144570
1,722500	0,1	7,265196
1,724167	0,1	7,285566
1,725833	0,1	7,356579
1,727500	0,1	7,467757
1,729167	0,1	7,485426
1,730833	0,1	7,567579
1,732500	0,1	7,629414
1,734167	0,1	7,680404
1,735833	0,1	7,695636
1,737500	0,1	7,771407
1,739167	0,1	7,748103
1,740833	0,1	7,832304
1,742500	0,1	7,873260
1,744167	0,1	7,851547
1,745833	0,1	7,926979
1,747500	0,1	7,893501
1,749167	0,1	7,924583
1,750833	0,1	7,917298
1,752500	0,1	7,925520
1,754167	0,1	7,948582
1,755833	0,1	7,912364
1,757500	0,1	7,920440
1,759167	0,1	7,893069
1,760833	0,1	7,857870
1,762500	0,1	7,822073
1,764167	0,1	7,776595
1,765833	0,1	7,790788
1,767500	0,1	7,732329
1,769167	0,1	7,688093
1,770833	0,1	7,658376
1,772500	0,1	7,601146
1,774167	0,1	7,553439
1,775833	0,1	7,513912
1,777500	0,1	7,486738
1,779167	0,1	7,392094
1,780833	0,1	7,304359
1,782500	0,1	7,255633
1,784167	0,1	7,190311
1,785833	0,1	7,155870
1,787500	0,1	7,070057
1,789167	0,1	7,015298
1,790833	0,1	6,940133
1,792500	0,1	6,838229
1,794167	0,1	6,769507
1,795833	0,1	6,702209
1,797500	0,1	6,631101
1,799167	0,1	6,554040
1,800833	0,1	6,477743
1,802500	0,1	6,396994
1,804167	0,1	6,321643
1,805833	0,1	6,244470
1,807500	0,1	6,168405
1,809167	0,1	6,103413
1,810833	0,1	6,044243
1,812500	0,1	5,934073
1,814167	0,1	5,893061
1,815833	0,1	5,819950
1,817500	0,1	5,745997
1,819167	0,1	5,690225
1,820833	0,1	5,601875
1,822500	0,1	5,493867
1,824167	0,1	5,422338
1,825833	0,1	5,390368
1,827500	0,1	5,299155
1,829167	0,1	5,260973
1,830833	0,1	5,181737
1,832500	0,1	5,121730
1,834167	0,1	5,070603
1,835833	0,1	5,019005
1,837500	0,1	4,991339
1,839167	0,1	4,919902
1,840833	0,1	4,896019
1,842500	0,1	4,798863
1,844167	0,1	4,779191
1,845833	0,1	4,781765
1,847500	0,1	4,784280
1,849167	0,1	4,805794
1,850833	0,1	4,743710
1,852500	0,1	4,759696
1,854167	0,1	4,750244
1,855833	0,1	4,746762
1,857500	0,1	4,795079
1,859167	0,1	4,868344
1,860833	0,1	4,855926
1,862500	0,1	4,911364
1,864167	0,1	4,907450
1,865833	0,1	4,985578
1,867500	0,1	4,984184
1,869167	0,1	5,039325
1,870833	0,1	5,065865
1,872500	0,1	5,115739
1,874167	0,1	5,127534
1,875833	0,1	5,149608
1,877500	0,1	5,232779
1,879167	0,1	5,267851
1,880833	0,1	5,291057
1,882500	0,1	5,308088
1,884167	0,1	5,329769
1,885833	0,1	5,324217
1,887500	0,1	5,389741
1,889167	0,1	5,375342
1,890833	0,1	5,423939
1,892500	0,1	5,425406
1,894167	0,1	5,447299
1,895833	0,1	5,466449
1,897500	0,1	5,523041
1,899167	0,1	5,497186
1,900833	0,1	5,547899
1,902500	0,1	5,531387
1,904167	0,1	5,566966
1,905833	0,1	5,559819
1,907500	0,1	5,562332
1,909167	0,1	5,590262
1,910833	0,1	5,585801
1,912500	0,1	5,619438
1,914167	0,1	5,591777
1,915833	0,1	5,583461
1,917500	0,1	5,588818
1,919167	0,1	5,599207
1,920833	0,1	5,622218
1,922500	0,1	5,610774
1,924167	0,1	5,601943
1,925833	0,1	5,585872
1,927500	0,1	5,528424
1,929167	0,1	5,536130
1,930833	0,1	5,574755
1,932500	0,1	5,502359
1,934167	0,1	5,544928
1,935833	0,1	5,506885
1,937500	0,1	5,467460
1,939167	0,1	5,461313
1,940833	0,1	5,426170
1,942500	0,1	5,438540
1,944167	0,1	5,397033
1,945833	0,1	5,355750
1,947500	0,1	5,310236
1,949167	0,1	5,331327
1,950833	0,1	5,328448
1,952500	0,1	5,272768
1,954167	0,1	5,259410
1,955833	0,1	5,262828
1,957500	0,1	5,198413
1,959167	0,1	5,203203
1,960833	0,1	5,161180
1,962500	0,1	5,138057
1,964167	0,1	5,152066
1,965833	0,1	5,104375
1,967500	0,1	5,057717
1,969167	0,1	5,004595
1,970833	0,1	5,016559
1,972500	0,1	4,975546
1,974167	0,1	4,989152
1,975833	0,1	4,978735
1,977500	0,1	4,925913
1,979167	0,1	4,907913
1,980833	0,1	4,892341
1,982500	0,1	4,841873
1,984167	0,1	4,838982
1,985833	0,1	4,831322
1,987500	0,1	4,812486
1,989167	0,1	4,821671
1,990833	0,1	4,778831
1,992500	0,1	4,774872
1,994167	0,1	4,769444
1,995833	0,1	4,767046
1,997500	0,1	4,738506
1,999167	0,1	4,750139
2,000833	0,1	4,718757
2,002500	0,1	4,724060
2,004167	0,1	4,733784
2,005833	0,1	4,696746
2,007500	0,1	4,714750
2,009167	0,1	4,709759
2,010833	0,1	4,699503
2,012500	0,1	4,689877
2,014167	0,1	4,684847
2,015833	0,1	4,657697
2,017500	0,1	4,641143
2,019167	0,1	4,660864
2,020833	0,1	4,653277
2,022500	0,1	4,676384
2,024167	0,1	4,646775
2,025833	0,1	4,610995
2,027500	0,1	4,674758
2,029167	0,1	4,675754
2,030833	0,1	4,671113
2,032500	0,1	4,669330
2,034167	0,1	4,652334
2,035833	0,1	4,658703
2,037500	0,1	4,723597
2,039167	0,1	4,667459
2,040833	0,1	4,685526
2,042500	0,1	4,725785
2,044167	0,1	4,703153
2,045833	0,1	4,771558
2,047500	0,1	4,720362
2,049167	0,1	4,749933
2,050833	0,1	4,782209
2,052500	0,1	4,710757
2,054167	0,1	4,759271
2,055833	0,1	4,767992
2,057500	0,1	4,820046
2,059167	0,1	4,795496
2,060833	0,1	4,810543
2,062500	0,1	4,798258
2,064167	0,1	4,799489
2,065833	0,1	4,837452
2,067500	0,1	4,854883
2,069167	0,1	4,831788
2,070833	0,1	4,884558
2,072500	0,1	4,857061
2,074167	0,1	4,881317
2,075833	0,1	4,894408
2,077500	0,1	4,848222
2,079167	0,1	4,902070
2,080833	0,1	4,853054
2,082500	0,1	4,902072
2,084167	0,1	4,947271
2,085833	0,1	4,948329
2,087500	0,1	4,952059
2,089167	0,1	5,007624
2,090833	0,1	4,962895
2,092500	0,1	4,947767
2,094167	0,1	4,946946
2,095833	0,1	4,953978
2,097500	0,1	4,967002
2,099167	0,1	4,947318
2,100833	0,1	4,940870
2,102500	0,1	5,009143
2,104167	0,1	4,974445
2,105833	0,1	4,990763
2,107500	0,1	4,978957
2,109167	0,1	5,000538
2,110833	0,1	4,981252
2,112500	0,1	4,978842
2,114167	0,1	4,988615
2,115833	0,1	4,986953
2,117500	0,1	4,993137
2,119167	0,1	5,000766
2,120833	0,1	5,011163
2,122500	0,1	4,965740
2,124167	0,1	5,024912
2,125833	0,1	4,995123
2,127500	0,1	4,999040
2,129167	0,1	4,990713
2,130833	0,1	5,010765
2,132500	0,1	5,032043
2,134167	0,1	5,004986
2,135833	0,1	5,010627
2,137500	0,1	4,983228
2,139167	0,1	5,015031
2,140833	0,1	5,006931
2,142500	0,1	4,948711
2,144167	0,1	4,936239
2,145833	0,1	4,967960
2,147500	0,1	4,972967
2,149167	0,1	4,943819
2,150833	0,1	4,983300
2,152500	0,1	4,947635
2,154167	0,1	4,937256
2,155833	0,1	4,927005
2,157500	0,1	4,923839
2,159167	0,1	4,907201
2,160833	0,1	4,887656
2,162500	0,1	4,928971
2,164167	0,1	4,895142
2,165833	0,1	4,904480
2,167500	0,1	4,863782
2,169167	0,1	4,912299
2,170833	0,1	4,876418
2,172500	0,1	4,905409
2,174167	0,1	4,848739
2,175833	0,1	4,868094
2,177500	0,1	4,846729
2,179167	0,1	4,860081
2,180833	0,1	4,814706
2,182500	0,1	4,841972
2,184167	0,1	4,841747
2,185833	0,1	4,848419
2,187500	0,1	4,808292
2,189167	0,1	4,843383
2,190833	0,1	4,827858
2,192500	0,1	4,839176
2,194167	0,1	4,754274
2,195833	0,1	4,808969
2,197500	0,1	4,803088
2,199167	0,1	4,745293
2,200833	0,1	4,781076
2,202500	0,1	4,790176
2,204167	0,1	4,777306
2,205833	0,1	4,763267
2,207500	0,1	4,767527
2,209167	0,1	4,720927
2,210833	0,1	4,764520
2,212500	0,1	4,745933
2,214167	0,1	4,758947
2,215833	0,1	4,763380
2,217500	0,1	4,783710
2,219167	0,1	4,744705
2,220833	0,1	4,747709
2,222500	0,1	4,734890
2,224167	0,1	4,722317
2,225833	0,1	4,729971
2,227500	0,1	4,775325
2,229167	0,1	4,777884
2,230833	0,1	4,766580
2,232500	0,1	4,765080
2,234167	0,1	4,770723
2,235833	0,1	4,749962
2,237500	0,1	4,784306
2,239167	0,1	4,795237
2,240833	0,1	4,783584
2,242500	0,1	4,755310
2,244167	0,1	4,810101
2,245833	0,1	4,796510
2,247500	0,1	4,774078
2,249167	0,1	4,787661
2,250833	0,1	4,854503
2,252500	0,1	4,816767
2,254167	0,1	4,858155
2,255833	0,1	4,821398
2,257500	0,1	4,828900
2,259167	0,1	4,849966
2,260833	0,1	4,836668
2,262500	0,1	4,833565
2,264167	0,1	4,811870
2,265833	0,1	4,859255
2,267500	0,1	4,873325
2,269167	0,1	4,843335
2,270833	0,1	4,831387
2,272500	0,1	4,799061
2,274167	0,1	4,815224
2,275833	0,1	4,843238
2,277500	0,1	4,769675
2,279167	0,1	4,814483
2,280833	0,1	4,812181
2,282500	0,1	4,824865
2,284167	0,1	4,767476
2,285833	0,1	4,749895
2,287500	0,1	4,793531
2,289167	0,1	4,772813
2,290833	0,1	4,765248
2,292500	0,1	4,736808
2,294167	0,1	4,731606
2,295833	0,1	4,767551
2,297500	0,1	4,718413
2,299167	0,1	4,679660
2,300833	0,1	4,710450
2,302500	0,1	4,707893
2,304167	0,1	4,679658
2,305833	0,1	4,667315
2,307500	0,1	4,665967
2,309167	0,1	4,654977
2,310833	0,1	4,603762
2,312500	0,1	4,635252
2,314167	0,1	4,582468
2,315833	0,1	4,579244
2,317500	0,1	4,575469
2,319167	0,1	4,567360
2,320833	0,1	4,585449
2,322500	0,1	4,534353
2,324167	0,1	4,516069
2,325833	0,1	4,532745
2,327500	0,1	4,488774
2,329167	0,1	4,468612
2,330833	0,1	4,446505
2,332500	0,1	4,438753
2,334167	0,1	4,437289
2,335833	0,1	4,382548
2,337500	0,1	4,377508
2,339167	0,1	4,373492
2,340833	0,1	4,336428
2,342500	0,1	4,380855
2,344167	0,1	4,347376
2,345833	0,1	4,326691
2,347500	0,1	4,250310
2,349167	0,1	4,255684
2,350833	0,1	4,261400
2,352500	0,1	4,256537
2,354167	0,1	4,211947
2,355833	0,1	4,236704
2,357500	0,1	4,209916
2,359167	0,1	4,216720
2,360833	0,1	4,146848
2,362500	0,1	4,198546
2,364167	0,1	4,135937
2,365833	0,1	4,117808
2,367500	0,1	4,164252
2,369167	0,1	4,119642
2,370833	0,1	4,074276
2,372500	0,1	4,125332
2,374167	0,1	4,154809
2,375833	0,1	4,111538
2,377500	0,1	4,108366
2,379167	0,1	4,086197
2,380833	0,1	4,134497
2,382500	0,1	4,125797
2,384167	0,1	4,129520
2,385833	0,1	4,103993
2,387500	0,1	4,199712
2,389167	0,1	4,239214
2,390833	0,1	4,244614
2,392500	0,1	4,315277
2,394167	0,1	4,280834
2,395833	0,1	4,367463
2,397500	0,1	4,452845
2,399167	0,1	4,481699
2,400833	0,1	4,568058
2,402500	0,1	4,650078
2,404167	0,1	4,680397
2,405833	0,1	4,808001
2,407500	0,1	4,940561
2,409167	0,1	5,009200
2,410833	0,1	5,106290
2,412500	0,1	5,319146
2,414167	0,1	5,402465
2,415833	0,1	5,600916
2,417500	0,1	5,728672
2,419167	0,1	5,931721
2,420833	0,1	6,141276
2,422500	0,1	6,288265
2,424167	0,1	6,530685
2,425833	0,1	6,706910
2,427500	0,1	6,932880
2,429167	0,1	7,156553
2,430833	0,1	7,404790
2,432500	0,1	7,602018
2,434167	0,1	7,869752
2,435833	0,1	8,159884
2,437500	0,1	8,391427
2,439167	0,1	8,638281
2,440833	0,1	8,898979
2,442500	0,1	9,180203
2,444167	0,1	9,387682
2,445833	0,1	9,687557
2,447500	0,1	9,984310
2,449167	0,1	10,246635
2,450833	0,1	10,459371
2,452500	0,1	10,765243
2,454167	0,1	10,991910
2,455833	0,1	11,261735
2,457500	0,1	11,465425
2,459167	0,1	11,672433
2,460833	0,1	11,928587
2,462500	0,1	12,143677
2,464167	0,1	12,356417
2,465833	0,1	12,566330
2,467500	0,1	12,760669
2,469167	0,1	12,946850
2,470833	0,1	13,133083
2,472500	0,1	13,329510
2,474167	0,1	13,478842
2,475833	0,1	13,696609
2,477500	0,1	13,850949
2,479167	0,1	14,004231
2,480833	0,1	14,123323
2,482500	0,1	14,289655
2,484167	0,1	14,462714
2,485833	0,1	14,635572
2,487500	0,1	14,790329
2,489167	0,1	14,926424
2,490833	0,1	15,053828
2,492500	0,1	15,255396
2,494167	0,1	15,428304
2,495833	0,1	15,593942
2,497500	0,1	15,733013
2,499167	0,1	15,903158
2,500833	0,1	16,126181
2,502500	0,1	16,294515
2,504167	0,1	16,481590
2,505833	0,1	16,741226
2,507500	0,1	16,977201
2,509167	0,1	17,267331
2,510833	0,1	17,476913
2,512500	0,1	17,772599
2,514167	0,1	18,025345
2,515833	0,1	18,399973
2,517500	0,1	18,636948
2,519167	0,1	18,992360
2,520833	0,1	19,377085
2,522500	0,1	19,739501
2,524167	0,1	20,142718
2,525833	0,1	20,525612
2,527500	0,1	20,967789
2,529167	0,1	21,424160
2,530833	0,1	21,825909
2,532500	0,1	22,311257
2,534167	0,1	22,818429
2,535833	0,1	23,257835
2,537500	0,1	23,771854
2,539167	0,1	24,285839
2,540833	0,1	24,853180
2,542500	0,1	25,387043
2,544167	0,1	25,887570
2,545833	0,1	26,427073
2,547500	0,1	27,022115
2,549167	0,1	27,545078
2,550833	0,1	28,102970
2,552500	0,1	28,664951
2,554167	0,1	29,252186
2,555833	0,1	29,752620
2,557500	0,1	30,276194
2,559167	0,1	30,849158
2,560833	0,1	31,361161
2,562500	0,1	31,919790
2,564167	0,1	32,334775
2,565833	0,1	32,861173
2,567500	0,1	33,364868
2,569167	0,1	33,814340
2,570833	0,1	34,285254
2,572500	0,1	34,712008
2,574167	0,1	35,107250
2,575833	0,1	35,527935
2,577500	0,1	35,880867
2,579167	0,1	36,279222
2,580833	0,1	36,592694
2,582500	0,1	36,868619
2,584167	0,1	37,229838
2,585833	0,1	37,468617
2,587500	0,1	37,687375
2,589167	0,1	37,910021
2,590833	0,1	38,098866
2,592500	0,1	38,236629
2,594167	0,1	38,468623
2,595833	0,1	38,576018
2,597500	0,1	38,739194
2,599167	0,1	38,803365
2,600833	0,1	38,888632
2,602500	0,1	38,915553
2,604167	0,1	38,941780
2,605833	0,1	38,930061
2,607500	0,1	38,942934
2,609167	0,1	38,917916
2,610833	0,1	38,882289
2,612500	0,1	38,783749
2,614167	0,1	38,727007
2,615833	0,1	38,624768
2,617500	0,1	38,497701
2,619167	0,1	38,349193
2,620833	0,1	38,203209
2,622500	0,1	38,042871
2,624167	0,1	37,866414
2,625833	0,1	37,655493
2,627500	0,1	37,471507
2,629167	0,1	37,248173
2,630833	0,1	37,010731
2,632500	0,1	36,743829
2,634167	0,1	36,513183
2,635833	0,1	36,199326
2,637500	0,1	35,930788
2,639167	0,1	35,616426
2,640833	0,1	35,282273
2,642500	0,1	34,993897
2,644167	0,1	34,725693
2,645833	0,1	34,354117
2,647500	0,1	34,028174
2,649167	0,1	33,665515
2,650833	0,1	33,334137
2,652500	0,1	32,956462
2,654167	0,1	32,552702
2,655833	0,1	32,226852
2,657500	0,1	31,817982
2,659167	0,1	31,431576
2,660833	0,1	31,042268
2,662500	0,1	30,639978
2,664167	0,1	30,213028
2,665833	0,1	29,819817
2,667500	0,1	29,432253
2,669167	0,1	29,027735
2,670833	0,1	28,672650
2,672500	0,1	28,241817
2,674167	0,1	27,790840
2,675833	0,1	27,337519
2,677500	0,1	26,937587
2,679167	0,1	26,523759
2,680833	0,1	26,131193
2,682500	0,1	25,690422
2,684167	0,1	25,330615
2,685833	0,1	24,854734
2,687500	0,1	24,482737
2,689167	0,1	24,090089
2,690833	0,1	23,641400
2,692500	0,1	23,296408
2,694167	0,1	22,891932
2,695833	0,1	22,488200
2,697500	0,1	22,087001
2,699167	0,1	21,722848
2,700833	0,1	21,357057
2,702500	0,1	20,970538
2,704167	0,1	20,584809
2,705833	0,1	20,267030
2,707500	0,1	19,917276
2,709167	0,1	19,554035
2,710833	0,1	19,179341
2,712500	0,1	18,803580
2,714167	0,1	18,493626
2,715833	0,1	18,232234
2,717500	0,1	17,870621
2,719167	0,1	17,567010
2,720833	0,1	17,194246
2,722500	0,1	16,990779
2,724167	0,1	16,624372
2,725833	0,1	16,347028
2,727500	0,1	16,055106
2,729167	0,1	15,766822
2,730833	0,1	15,528661
2,732500	0,1	15,242734
2,734167	0,1	14,978823
2,735833	0,1	14,709202
2,737500	0,1	14,507051
2,739167	0,1	14,254869
2,740833	0,1	14,012468
2,742500	0,1	13,796905
2,744167	0,1	13,597068
2,745833	0,1	13,380626
2,747500	0,1	13,114410
2,749167	0,1	12,925672
2,750833	0,1	12,729726
2,752500	0,1	12,530639
2,754167	0,1	12,333764
2,755833	0,1	12,135928
2,757500	0,1	11,934913
2,759167	0,1	11,774247
2,760833	0,1	11,602210
2,762500	0,1	11,409165
2,764167	0,1	11,293908
2,765833	0,1	11,088169
2,767500	0,1	10,919157
2,769167	0,1	10,803047
2,770833	0,1	10,608111
2,772500	0,1	10,434793
2,774167	0,1	10,296948
2,775833	0,1	10,141008
2,777500	0,1	10,017938
2,779167	0,1	9,853242
2,780833	0,1	9,745555
2,782500	0,1	9,622759
2,784167	0,1	9,455804
2,785833	0,1	9,345986
2,787500	0,1	9,193188
2,789167	0,1	9,070637
2,790833	0,1	8,912516
2,792500	0,1	8,837618
2,794167	0,1	8,723445
2,795833	0,1	8,599457
2,797500	0,1	8,484023
2,799167	0,1	8,357259
2,800833	0,1	8,277218
2,802500	0,1	8,146535
2,804167	0,1	8,075866
2,805833	0,1	7,937859
2,807500	0,1	7,800333
2,809167	0,1	7,696038
2,810833	0,1	7,600117
2,812500	0,1	7,530530
2,814167	0,1	7,408242
2,815833	0,1	7,328046
2,817500	0,1	7,242846
2,819167	0,1	7,133213
2,820833	0,1	7,030326
2,822500	0,1	6,930630
2,824167	0,1	6,849037
2,825833	0,1	6,791604
2,827500	0,1	6,680699
2,829167	0,1	6,589664
2,830833	0,1	6,502827
2,832500	0,1	6,417485
2,834167	0,1	6,329126
2,835833	0,1	6,284903
2,837500	0,1	6,194766
2,839167	0,1	6,117518
2,840833	0,1	5,980736
2,842500	0,1	5,959926
2,844167	0,1	5,919600
2,845833	0,1	5,777385
2,847500	0,1	5,730455
2,849167	0,1	5,646236
2,850833	0,1	5,610363
2,852500	0,1	5,536713
2,854167	0,1	5,463696
2,855833	0,1	5,385528
2,857500	0,1	5,315679
2,859167	0,1	5,253620
2,860833	0,1	5,258600
2,862500	0,1	5,148535
2,864167	0,1	5,043771
2,865833	0,1	5,002671
2,867500	0,1	4,957750
2,869167	0,1	4,907575
2,870833	0,1	4,823191
2,872500	0,1	4,768455
2,874167	0,1	4,748997
2,875833	0,1	4,692756
2,877500	0,1	4,623847
2,879167	0,1	4,582334
2,880833	0,1	4,519689
2,882500	0,1	4,492218
2,884167	0,1	4,424362
2,885833	0,1	4,356550
2,887500	0,1	4,342384
2,889167	0,1	4,253232
2,890833	0,1	4,265290
2,892500	0,1	4,180784
2,894167	0,1	4,150815
2,895833	0,1	4,117494
2,897500	0,1	4,090175
2,899167	0,1	4,050012
2,900833	0,1	3,939730
2,902500	0,1	3,971622
2,904167	0,1	3,885512
2,905833	0,1	3,875247
2,907500	0,1	3,827011
2,909167	0,1	3,797715
2,910833	0,1	3,755596
2,912500	0,1	3,719691
2,914167	0,1	3,691622
2,915833	0,1	3,669024
2,917500	0,1	3,611355
2,919167	0,1	3,582947
2,920833	0,1	3,575689
2,922500	0,1	3,510624
2,924167	0,1	3,497815
2,925833	0,1	3,497734
2,927500	0,1	3,439935
2,929167	0,1	3,498600
2,930833	0,1	3,392604
2,932500	0,1	3,327716
2,934167	0,1	3,356811
2,935833	0,1	3,353165
2,937500	0,1	3,282667
2,939167	0,1	3,300596
2,940833	0,1	3,261621
2,942500	0,1	3,219782
2,944167	0,1	3,197698
2,945833	0,1	3,188119
2,947500	0,1	3,178260
2,949167	0,1	3,134592
2,950833	0,1	3,108000
2,952500	0,1	3,083378
2,954167	0,1	3,085464
2,955833	0,1	3,072891
2,957500	0,1	3,024891
2,959167	0,1	2,990830
2,960833	0,1	2,979361
2,962500	0,1	2,948922
2,964167	0,1	2,990553
2,965833	0,1	2,917587
2,967500	0,1	2,938545
2,969167	0,1	2,941407
2,970833	0,1	2,882465
2,972500	0,1	2,846953
2,974167	0,1	2,834363
2,975833	0,1	2,813898
2,977500	0,1	2,827531
2,979167	0,1	2,837441
2,980833	0,1	2,796297
2,982500	0,1	2,756425
2,984167	0,1	2,737123
2,985833	0,1	2,764675
2,987500	0,1	2,720448
2,989167	0,1	2,752911
2,990833	0,1	2,710380
2,992500	0,1	2,712033
2,994167	0,1	2,731907
2,995833	0,1	2,692799
2,997500	0,1	2,686538
2,999167	0,1	2,654163
3,000833	0,1	2,632599
3,002500	0,1	2,609933
3,004167	0,1	2,660015
3,005833	0,1	2,586596
3,007500	0,1	2,591888
3,009167	0,1	2,596844
3,010833	0,1	2,572876
3,012500	0,1	2,553194
3,014167	0,1	2,562733
3,015833	0,1	2,536468
3,017500	0,1	2,559138
3,019167	0,1	2,546584
3,020833	0,1	2,531215
3,022500	0,1	2,537679
3,024167	0,1	2,518668
3,025833	0,1	2,501287
3,027500	0,1	2,499258
3,029167	0,1	2,510385
3,030833	0,1	2,503291
3,032500	0,1	2,461523
3,034167	0,1	2,436396
3,035833	0,1	2,469969
3,037500	0,1	2,458431
3,039167	0,1	2,468971
3,040833	0,1	2,456555
3,042500	0,1	2,434961
3,044167	0,1	2,434092
3,045833	0,1	2,404019
3,047500	0,1	2,399060
3,049167	0,1	2,399708
3,050833	0,1	2,383197
3,052500	0,1	2,356798
3,054167	0,1	2,352336
3,055833	0,1	2,359368
3,057500	0,1	2,319342
3,059167	0,1	2,352257
3,060833	0,1	2,355644
3,062500	0,1	2,302843
3,064167	0,1	2,348093
3,065833	0,1	2,323925
3,067500	0,1	2,269761
3,069167	0,1	2,297939
3,070833	0,1	2,249810
3,072500	0,1	2,237103
3,074167	0,1	2,262711
3,075833	0,1	2,258194
3,077500	0,1	2,229572
3,079167	0,1	2,241044
3,080833	0,1	2,224262
3,082500	0,1	2,230927
3,084167	0,1	2,228992
3,085833	0,1	2,254741
3,087500	0,1	2,248656
3,089167	0,1	2,198227
3,090833	0,1	2,220880
3,092500	0,1	2,205822
3,094167	0,1	2,185953
3,095833	0,1	2,206747
3,097500	0,1	2,253012
3,099167	0,1	2,223689
3,100833	0,1	2,232863
3,102500	0,1	2,226197
3,104167	0,1	2,207760
3,105833	0,1	2,179713
3,107500	0,1	2,217576
3,109167	0,1	2,173477
3,110833	0,1	2,233428
3,112500	0,1	2,235523
3,114167	0,1	2,232725
3,115833	0,1	2,198798
3,117500	0,1	2,219375
3,119167	0,1	2,221744
3,120833	0,1	2,233082
3,122500	0,1	2,261559
3,124167	0,1	2,244427
3,125833	0,1	2,271462
3,127500	0,1	2,246648
3,129167	0,1	2,300518
3,130833	0,1	2,284605
3,132500	0,1	2,279292
3,134167	0,1	2,297581
3,135833	0,1	2,295508
3,137500	0,1	2,338261
3,139167	0,1	2,333826
3,140833	0,1	2,357859
3,142500	0,1	2,373008
3,144167	0,1	2,362252
3,145833	0,1	2,347324
3,147500	0,1	2,383475
3,149167	0,1	2,399128
3,150833	0,1	2,411405
3,152500	0,1	2,420950
3,154167	0,1	2,437463
3,155833	0,1	2,438036
3,157500	0,1	2,455041
3,159167	0,1	2,430801
3,160833	0,1	2,471767
3,162500	0,1	2,472922
3,164167	0,1	2,486273
3,165833	0,1	2,460873
3,167500	0,1	2,503645
3,169167	0,1	2,525971
3,170833	0,1	2,473947
3,172500	0,1	2,489222
3,174167	0,1	2,536950
3,175833	0,1	2,565959
3,177500	0,1	2,552479
3,179167	0,1	2,561367
3,180833	0,1	2,538471
3,182500	0,1	2,574154
3,184167	0,1	2,546667
3,185833	0,1	2,545794
3,187500	0,1	2,533006
3,189167	0,1	2,560717
3,190833	0,1	2,569694
3,192500	0,1	2,519327
3,194167	0,1	2,520666
3,195833	0,1	2,542851
3,197500	0,1	2,578440
3,199167	0,1	2,568979
3,200833	0,1	2,523550
3,202500	0,1	2,541986
3,204167	0,1	2,540257
3,205833	0,1	2,561627
3,207500	0,1	2,548807
3,209167	0,1	2,504166
3,210833	0,1	2,532931
3,212500	0,1	2,526263
3,214167	0,1	2,512124
3,215833	0,1	2,508584
3,217500	0,1	2,429661
3,219167	0,1	2,445946
3,220833	0,1	2,478169
3,222500	0,1	2,448453
3,224167	0,1	2,444790
3,225833	0,1	2,444278
3,227500	0,1	2,399291
3,229167	0,1	2,403016
3,230833	0,1	2,395907
3,232500	0,1	2,398770
3,234167	0,1	2,395975
3,235833	0,1	2,384924
3,237500	0,1	2,325160
3,239167	0,1	2,340930
3,240833	0,1	2,325648
3,242500	0,1	2,321772
3,244167	0,1	2,321264
3,245833	0,1	2,306775
3,247500	0,1	2,288833
3,249167	0,1	2,247301
3,250833	0,1	2,239544
3,252500	0,1	2,267226
3,254167	0,1	2,194146
3,255833	0,1	2,160202
3,257500	0,1	2,155747
3,259167	0,1	2,176975
3,260833	0,1	2,147434
3,262500	0,1	2,105185
3,264167	0,1	2,150140
3,265833	0,1	2,134302
3,267500	0,1	2,121536
3,269167	0,1	2,078508
3,270833	0,1	2,099003
3,272500	0,1	2,035054
3,274167	0,1	2,060992
3,275833	0,1	2,057558
3,277500	0,1	2,039988
3,279167	0,1	2,012239
3,280833	0,1	2,000689
3,282500	0,1	1,964989
3,284167	0,1	1,994443
3,285833	0,1	1,947786
3,287500	0,1	1,946980
3,289167	0,1	1,910212
3,290833	0,1	1,919805
3,292500	0,1	1,883758
3,294167	0,1	1,866400
3,295833	0,1	1,856861
3,297500	0,1	1,866041
3,299167	0,1	1,836585
3,300833	0,1	1,799802
3,302500	0,1	1,792424
3,304167	0,1	1,821241
3,305833	0,1	1,821810
3,307500	0,1	1,800673
3,309167	0,1	1,760040
3,310833	0,1	1,776237
3,312500	0,1	1,721564
3,314167	0,1	1,705919
3,315833	0,1	1,704991
3,317500	0,1	1,755573
3,319167	0,1	1,712409
3,320833	0,1	1,703693
3,322500	0,1	1,703213
3,324167	0,1	1,688165
3,325833	0,1	1,681567
3,327500	0,1	1,625179
3,329167	0,1	1,630184
3,330833	0,1	1,654394
3,332500	0,1	1,699769
3,334167	0,1	1,662000
3,335833	0,1	1,642442
3,337500	0,1	1,629911
3,339167	0,1	1,638080
3,340833	0,1	1,605423
3,342500	0,1	1,580046
3,344167	0,1	1,605538
3,345833	0,1	1,597761
3,347500	0,1	1,571586
3,349167	0,1	1,589707
3,350833	0,1	1,562283
3,352500	0,1	1,586482
3,354167	0,1	1,557057
3,355833	0,1	1,614268
3,357500	0,1	1,552253
3,359167	0,1	1,547230
3,360833	0,1	1,547587
3,362500	0,1	1,534407
3,364167	0,1	1,573744
3,365833	0,1	1,570175
3,367500	0,1	1,505123
3,369167	0,1	1,584534
3,370833	0,1	1,556975
3,372500	0,1	1,528102
3,374167	0,1	1,541378
3,375833	0,1	1,513506
3,377500	0,1	1,547971
3,379167	0,1	1,517732
3,380833	0,1	1,528048
3,382500	0,1	1,517865
3,384167	0,1	1,556038
3,385833	0,1	1,536642
3,387500	0,1	1,561074
3,389167	0,1	1,506848
3,390833	0,1	1,531037
3,392500	0,1	1,523804
3,394167	0,1	1,528463
3,395833	0,1	1,525806
3,397500	0,1	1,489233
3,399167	0,1	1,470578
3,400833	0,1	1,498242
3,402500	0,1	1,493806
3,404167	0,1	1,495217
3,405833	0,1	1,470648
3,407500	0,1	1,501833
3,409167	0,1	1,475035
3,410833	0,1	1,455189
3,412500	0,1	1,478810
3,414167	0,1	1,487781
3,415833	0,1	1,447584
3,417500	0,1	1,469168
3,419167	0,1	1,495526
3,420833	0,1	1,449696
3,422500	0,1	1,471869
3,424167	0,1	1,465307
3,425833	0,1	1,451979
3,427500	0,1	1,463068
3,429167	0,1	1,452677
3,430833	0,1	1,460133
3,432500	0,1	1,462864
3,434167	0,1	1,454419
3,435833	0,1	1,477300
3,437500	0,1	1,500890
3,439167	0,1	1,469963
3,440833	0,1	1,485722
3,442500	0,1	1,507486
3,444167	0,1	1,463025
3,445833	0,1	1,479895
3,447500	0,1	1,474618
3,449167	0,1	1,500738
3,450833	0,1	1,490490
3,452500	0,1	1,506255
3,454167	0,1	1,462750
3,455833	0,1	1,507976
3,457500	0,1	1,535617
3,459167	0,1	1,525750
3,460833	0,1	1,489932
3,462500	0,1	1,499521
3,464167	0,1	1,514292
3,465833	0,1	1,515559
3,467500	0,1	1,546438
3,469167	0,1	1,512301
3,470833	0,1	1,529738
3,472500	0,1	1,575217
3,474167	0,1	1,562981
3,475833	0,1	1,544437
3,477500	0,1	1,568787
3,479167	0,1	1,532767
3,480833	0,1	1,602511
3,482500	0,1	1,558857
3,484167	0,1	1,581682
3,485833	0,1	1,625393
3,487500	0,1	1,576023
3,489167	0,1	1,615990
3,490833	0,1	1,608689
3,492500	0,1	1,624297
3,494167	0,1	1,596927
3,495833	0,1	1,624086
3,497500	0,1	1,631979
3,499167	0,1	1,674044
3,500833	0,1	1,662508
3,502500	0,1	1,682909
3,504167	0,1	1,676547
3,505833	0,1	1,703911
3,507500	0,1	1,694891
3,509167	0,1	1,705494
3,510833	0,1	1,689220
3,512500	0,1	1,742603
3,514167	0,1	1,724204
3,515833	0,1	1,794784
3,517500	0,1	1,776744
3,519167	0,1	1,736534
3,520833	0,1	1,725423
3,522500	0,1	1,758361
3,524167	0,1	1,802452
3,525833	0,1	1,795798
3,527500	0,1	1,784833
3,529167	0,1	1,786686
3,530833	0,1	1,798948
3,532500	0,1	1,782470
3,534167	0,1	1,820937
3,535833	0,1	1,819376
3,537500	0,1	1,818731
3,539167	0,1	1,818879
3,540833	0,1	1,834849
3,542500	0,1	1,826622
3,544167	0,1	1,808632
3,545833	0,1	1,825549
3,547500	0,1	1,810054
3,549167	0,1	1,831627
3,550833	0,1	1,838230
3,552500	0,1	1,804190
3,554167	0,1	1,859653
3,555833	0,1	1,846556
3,557500	0,1	1,814665
3,559167	0,1	1,823174
3,560833	0,1	1,836645
3,562500	0,1	1,829699
3,564167	0,1	1,813727
3,565833	0,1	1,833423
3,567500	0,1	1,821103
3,569167	0,1	1,815366
3,570833	0,1	1,813934
3,572500	0,1	1,827043
3,574167	0,1	1,786060
3,575833	0,1	1,790051
3,577500	0,1	1,767925
3,579167	0,1	1,767841
3,580833	0,1	1,742691
3,582500	0,1	1,769419
3,584167	0,1	1,737838
3,585833	0,1	1,763684
3,587500	0,1	1,781172
3,589167	0,1	1,735455
3,590833	0,1	1,757235
3,592500	0,1	1,753286
3,594167	0,1	1,740397
3,595833	0,1	1,720422
3,597500	0,1	1,715102
3,599167	0,1	1,693754
3,600833	0,1	1,704769
3,602500	0,1	1,704633
3,604167	0,1	1,649046
3,605833	0,1	1,695742
3,607500	0,1	1,657208
3,609167	0,1	1,663943
3,610833	0,1	1,618083
3,612500	0,1	1,658399
3,614167	0,1	1,652050
3,615833	0,1	1,633871
3,617500	0,1	1,612214
3,619167	0,1	1,579025
3,620833	0,1	1,644445
3,622500	0,1	1,596954
3,624167	0,1	1,598244
3,625833	0,1	1,578123
3,627500	0,1	1,575172
3,629167	0,1	1,548041
3,630833	0,1	1,553836
3,632500	0,1	1,500702
3,634167	0,1	1,518296
3,635833	0,1	1,532986
3,637500	0,1	1,518235
3,639167	0,1	1,458928
3,640833	0,1	1,513073
3,642500	0,1	1,468978
3,644167	0,1	1,467652
3,645833	0,1	1,416484
3,647500	0,1	1,475811
3,649167	0,1	1,423779
3,650833	0,1	1,443070
3,652500	0,1	1,438386
3,654167	0,1	1,409966
3,655833	0,1	1,391547
3,657500	0,1	1,421757
3,659167	0,1	1,377785
3,660833	0,1	1,383726
3,662500	0,1	1,366127
3,664167	0,1	1,346643
3,665833	0,1	1,361827
3,667500	0,1	1,328467
3,669167	0,1	1,342618
3,670833	0,1	1,329973
3,672500	0,1	1,324323
3,674167	0,1	1,328662
3,675833	0,1	1,311574
3,677500	0,1	1,320149
3,679167	0,1	1,290232
3,680833	0,1	1,256662
3,682500	0,1	1,249975
3,684167	0,1	1,241784
3,685833	0,1	1,288314
3,687500	0,1	1,284800
3,689167	0,1	1,241203
3,690833	0,1	1,230514
3,692500	0,1	1,206698
3,694167	0,1	1,209538
3,695833	0,1	1,247999
3,697500	0,1	1,237617
3,699167	0,1	1,211835
3,700833	0,1	1,227541
3,702500	0,1	1,195395
3,704167	0,1	1,222301
3,705833	0,1	1,172008
3,707500	0,1	1,192313
3,709167	0,1	1,174691
3,710833	0,1	1,182010
3,712500	0,1	1,189231
3,714167	0,1	1,184485
3,715833	0,1	1,173506
3,717500	0,1	1,152349
3,719167	0,1	1,153497
3,720833	0,1	1,174719
3,722500	0,1	1,131273
3,724167	0,1	1,157002
3,725833	0,1	1,139487
3,727500	0,1	1,120587
3,729167	0,1	1,145744
3,730833	0,1	1,123365
3,732500	0,1	1,127974
3,734167	0,1	1,149936
3,735833	0,1	1,108664
3,737500	0,1	1,134123
3,739167	0,1	1,124315
3,740833	0,1	1,123958
3,742500	0,1	1,148272
3,744167	0,1	1,124058
3,745833	0,1	1,112770
3,747500	0,1	1,152104
3,749167	0,1	1,116928
3,750833	0,1	1,106684
3,752500	0,1	1,101329
3,754167	0,1	1,094669
3,755833	0,1	1,141029
3,757500	0,1	1,145049
3,759167	0,1	1,163108
3,760833	0,1	1,127782
3,762500	0,1	1,111725
3,764167	0,1	1,118648
3,765833	0,1	1,115565
3,767500	0,1	1,115612
3,769167	0,1	1,083217
3,770833	0,1	1,099105
3,772500	0,1	1,121865
3,774167	0,1	1,118095
3,775833	0,1	1,133789
3,777500	0,1	1,146073
3,779167	0,1	1,136198
3,780833	0,1	1,068747
3,782500	0,1	1,143068
3,784167	0,1	1,125498
3,785833	0,1	1,111215
3,787500	0,1	1,161455
3,789167	0,1	1,134383
3,790833	0,1	1,151802
3,792500	0,1	1,134469
3,794167	0,1	1,128312
3,795833	0,1	1,127139
3,797500	0,1	1,136279
3,799167	0,1	1,151275
3,800833	0,1	1,149124
3,802500	0,1	1,132823
3,804167	0,1	1,149293
3,805833	0,1	1,187783
3,807500	0,1	1,159744
3,809167	0,1	1,113289
3,810833	0,1	1,136678
3,812500	0,1	1,144988
3,814167	0,1	1,149593
3,815833	0,1	1,165311
3,817500	0,1	1,205394
3,819167	0,1	1,193899
3,820833	0,1	1,154441
3,822500	0,1	1,162715
3,824167	0,1	1,161757
3,825833	0,1	1,130608
3,827500	0,1	1,143323
3,829167	0,1	1,167577
3,830833	0,1	1,148975
3,832500	0,1	1,169394
3,834167	0,1	1,166027
3,835833	0,1	1,159027
3,837500	0,1	1,160392
3,839167	0,1	1,193207
3,840833	0,1	1,179825
3,842500	0,1	1,208263
3,844167	0,1	1,191371
3,845833	0,1	1,179960
3,847500	0,1	1,186347
3,849167	0,1	1,202179
3,850833	0,1	1,165525
3,852500	0,1	1,201820
3,854167	0,1	1,194610
3,855833	0,1	1,185909
3,857500	0,1	1,199114
3,859167	0,1	1,182046
3,860833	0,1	1,150218
3,862500	0,1	1,206054
3,864167	0,1	1,182644
3,865833	0,1	1,198806
3,867500	0,1	1,175134
3,869167	0,1	1,180023
3,870833	0,1	1,162721
3,872500	0,1	1,195379
3,874167	0,1	1,190370
3,875833	0,1	1,148999
3,877500	0,1	1,176949
3,879167	0,1	1,151486
3,880833	0,1	1,153345
3,882500	0,1	1,152008
3,884167	0,1	1,133026
3,885833	0,1	1,146611
3,887500	0,1	1,162175
3,889167	0,1	1,187631
3,890833	0,1	1,140541
3,892500	0,1	1,165153
3,894167	0,1	1,144881
3,895833	0,1	1,150785
3,897500	0,1	1,144704
3,899167	0,1	1,161619
3,900833	0,1	1,110290
3,902500	0,1	1,125886
3,904167	0,1	1,102487
3,905833	0,1	1,108612
3,907500	0,1	1,103350
3,909167	0,1	1,124463
3,910833	0,1	1,100979
3,912500	0,1	1,117090
3,914167	0,1	1,123600
3,915833	0,1	1,110213
3,917500	0,1	1,078460
3,919167	0,1	1,099104
3,920833	0,1	1,094776
3,922500	0,1	1,065714
3,924167	0,1	1,112708
3,925833	0,1	1,088609
3,927500	0,1	1,057256
3,929167	0,1	1,094477
3,930833	0,1	1,072442
3,932500	0,1	1,070374
3,934167	0,1	1,057962
3,935833	0,1	1,062776
3,937500	0,1	1,051212
3,939167	0,1	1,037356
3,940833	0,1	1,050206
3,942500	0,1	1,049031
3,944167	0,1	1,030407
3,945833	0,1	1,024052
3,947500	0,1	1,059105
3,949167	0,1	1,024769
3,950833	0,1	1,037416
3,952500	0,1	1,048627
3,954167	0,1	1,006942
3,955833	0,1	1,034657
3,957500	0,1	1,002876
3,959167	0,1	1,006887
3,960833	0,1	1,028199
3,962500	0,1	1,017925
3,964167	0,1	0,980408
3,965833	0,1	0,994739
3,967500	0,1	1,009793
3,969167	0,1	0,961228
3,970833	0,1	0,969518
3,972500	0,1	0,970944
3,974167	0,1	0,959511
3,975833	0,1	0,976843
3,977500	0,1	0,962109
3,979167	0,1	1,000174
3,980833	0,1	0,972903
3,982500	0,1	0,976493
3,984167	0,1	0,976361
3,985833	0,1	0,970344
3,987500	0,1	0,961796
3,989167	0,1	0,951741
3,990833	0,1	0,953537
3,992500	0,1	0,931253
3,994167	0,1	0,938886
3,995833	0,1	0,968072
3,997500	0,1	0,970699
3,999167	0,1	0,934144
4,000833	0,1	0,946941
4,002500	0,1	0,953334
4,004167	0,1	0,959819
4,005833	0,1	0,913365
4,007500	0,1	0,930779
4,009167	0,1	0,962455
4,010833	0,1	0,940247
4,012500	0,1	0,921106
4,014167	0,1	0,949380
4,015833	0,1	0,938174
4,017500	0,1	0,929119
4,019167	0,1	0,918132
4,020833	0,1	0,912620
4,022500	0,1	0,943453
4,024167	0,1	0,982566
4,025833	0,1	0,964464
4,027500	0,1	0,961774
4,029167	0,1	0,953539
4,030833	0,1	0,927258
4,032500	0,1	0,951089
4,034167	0,1	0,957598
4,035833	0,1	0,940997
4,037500	0,1	0,968027
4,039167	0,1	0,947460
4,040833	0,1	0,941127
4,042500	0,1	0,944589
4,044167	0,1	0,962013
4,045833	0,1	0,926238
4,047500	0,1	1,003717
4,049167	0,1	0,959652
4,050833	0,1	0,946881
4,052500	0,1	0,977550
4,054167	0,1	0,991209
4,055833	0,1	0,997362
4,057500	0,1	0,977608
4,059167	0,1	1,003306
4,060833	0,1	1,015410
4,062500	0,1	0,985980
4,064167	0,1	1,012720
4,065833	0,1	1,000897
4,067500	0,1	1,010970
4,069167	0,1	1,037146
4,070833	0,1	1,062904
4,072500	0,1	1,055829
4,074167	0,1	1,122538
4,075833	0,1	1,056244
4,077500	0,1	1,065927
4,079167	0,1	1,062889
4,080833	0,1	1,115618
4,082500	0,1	1,122982
4,084167	0,1	1,123381
4,085833	0,1	1,118941
4,087500	0,1	1,113834
4,089167	0,1	1,149953
4,090833	0,1	1,178594
4,092500	0,1	1,179195
4,094167	0,1	1,178265
4,095833	0,1	1,231516
4,097500	0,1	1,200423
4,099167	0,1	1,219842
4,100833	0,1	1,232525
4,102500	0,1	1,223053
4,104167	0,1	1,268782
4,105833	0,1	1,303017
4,107500	0,1	1,281684
4,109167	0,1	1,290494
4,110833	0,1	1,312703
4,112500	0,1	1,312300
4,114167	0,1	1,315048
4,115833	0,1	1,316488
4,117500	0,1	1,344783
4,119167	0,1	1,382225
4,120833	0,1	1,422415
4,122500	0,1	1,380038
4,124167	0,1	1,431613
4,125833	0,1	1,473142
4,127500	0,1	1,442452
4,129167	0,1	1,469934
4,130833	0,1	1,490932
4,132500	0,1	1,469522
4,134167	0,1	1,488437
4,135833	0,1	1,493572
4,137500	0,1	1,533612
4,139167	0,1	1,566147
4,140833	0,1	1,578024
4,142500	0,1	1,583574
4,144167	0,1	1,561210
4,145833	0,1	1,616492
4,147500	0,1	1,601598
4,149167	0,1	1,613198
4,150833	0,1	1,625975
4,152500	0,1	1,609565
4,154167	0,1	1,642001
4,155833	0,1	1,665010
4,157500	0,1	1,673407
4,159167	0,1	1,688297
4,160833	0,1	1,707295
4,162500	0,1	1,686136
4,164167	0,1	1,747830
4,165833	0,1	1,725635
4,167500	0,1	1,718258
4,169167	0,1	1,720818
4,170833	0,1	1,756292
4,172500	0,1	1,815855
4,174167	0,1	1,740489
4,175833	0,1	1,753936
4,177500	0,1	1,808760
4,179167	0,1	1,764836
4,180833	0,1	1,828462
4,182500	0,1	1,803829
4,184167	0,1	1,814142
4,185833	0,1	1,827837
4,187500	0,1	1,797660
4,189167	0,1	1,834498
4,190833	0,1	1,856213
4,192500	0,1	1,830707
4,194167	0,1	1,809129
4,195833	0,1	1,842873
4,197500	0,1	1,841669
4,199167	0,1	1,831858
4,200833	0,1	1,838012
4,202500	0,1	1,845678
4,204167	0,1	1,832429
4,205833	0,1	1,846971
4,207500	0,1	1,847690
4,209167	0,1	1,908323
4,210833	0,1	1,876878
4,212500	0,1	1,876941
4,214167	0,1	1,828203
4,215833	0,1	1,862809
4,217500	0,1	1,879236
4,219167	0,1	1,882232
4,220833	0,1	1,863824
4,222500	0,1	1,805627
4,224167	0,1	1,841876
4,225833	0,1	1,820588
4,227500	0,1	1,808272
4,229167	0,1	1,854354
4,230833	0,1	1,810349
4,232500	0,1	1,811550
4,234167	0,1	1,842464
4,235833	0,1	1,848118
4,237500	0,1	1,834939
4,239167	0,1	1,829194
4,240833	0,1	1,790715
4,242500	0,1	1,792851
4,244167	0,1	1,759253
4,245833	0,1	1,847330
4,247500	0,1	1,780617
4,249167	0,1	1,780105
4,250833	0,1	1,783609
4,252500	0,1	1,794728
4,254167	0,1	1,757024
4,255833	0,1	1,716251
4,257500	0,1	1,743324
4,259167	0,1	1,713652
4,260833	0,1	1,748771
4,262500	0,1	1,692950
4,264167	0,1	1,668465
4,265833	0,1	1,672595
4,267500	0,1	1,720249
4,269167	0,1	1,692378
4,270833	0,1	1,697844
4,272500	0,1	1,680705
4,274167	0,1	1,688804
4,275833	0,1	1,721271
4,277500	0,1	1,681008
4,279167	0,1	1,669821
4,280833	0,1	1,628200
4,282500	0,1	1,644882
4,284167	0,1	1,593076
4,285833	0,1	1,630830
4,287500	0,1	1,603616
4,289167	0,1	1,636267
4,290833	0,1	1,580836
4,292500	0,1	1,544810
4,294167	0,1	1,548724
4,295833	0,1	1,533969
4,297500	0,1	1,534335
4,299167	0,1	1,555466
4,300833	0,1	1,539347
4,302500	0,1	1,500547
4,304167	0,1	1,463930
4,305833	0,1	1,491713
4,307500	0,1	1,500329
4,309167	0,1	1,475968
4,310833	0,1	1,459783
4,312500	0,1	1,434057
4,314167	0,1	1,405110
4,315833	0,1	1,430837
4,317500	0,1	1,444525
4,319167	0,1	1,400273
4,320833	0,1	1,411861
4,322500	0,1	1,425697
4,324167	0,1	1,395485
4,325833	0,1	1,399975
4,327500	0,1	1,390448
4,329167	0,1	1,361262
4,330833	0,1	1,382243
4,332500	0,1	1,349073
4,334167	0,1	1,316124
4,335833	0,1	1,305623
4,337500	0,1	1,317928
4,339167	0,1	1,284061
4,340833	0,1	1,280256
4,342500	0,1	1,305954
4,344167	0,1	1,293635
4,345833	0,1	1,265952
4,347500	0,1	1,275098
4,349167	0,1	1,289848
4,350833	0,1	1,269017
4,352500	0,1	1,235181
4,354167	0,1	1,256563
4,355833	0,1	1,261943
4,357500	0,1	1,219212
4,359167	0,1	1,237304
4,360833	0,1	1,260292
4,362500	0,1	1,244398
4,364167	0,1	1,261447
4,365833	0,1	1,210350
4,367500	0,1	1,181020
4,369167	0,1	1,206852
4,370833	0,1	1,194506
4,372500	0,1	1,166436
4,374167	0,1	1,154856
4,375833	0,1	1,193273
4,377500	0,1	1,156391
4,379167	0,1	1,126743
4,380833	0,1	1,166016
4,382500	0,1	1,155298
4,384167	0,1	1,151318
4,385833	0,1	1,169596
4,387500	0,1	1,124592
4,389167	0,1	1,130242
4,390833	0,1	1,106467
4,392500	0,1	1,112610
4,394167	0,1	1,146847
4,395833	0,1	1,116639
4,397500	0,1	1,139938
4,399167	0,1	1,102070
4,400833	0,1	1,077218
4,402500	0,1	1,119418
4,404167	0,1	1,064900
4,405833	0,1	1,057183
4,407500	0,1	1,070412
4,409167	0,1	1,024705
4,410833	0,1	1,041990
4,412500	0,1	0,986096
4,414167	0,1	1,030990
4,415833	0,1	1,062212
4,417500	0,1	1,024614
4,419167	0,1	1,010776
4,420833	0,1	1,032617
4,422500	0,1	1,007094
4,424167	0,1	0,984268
4,425833	0,1	1,014695
4,427500	0,1	1,034592
4,429167	0,1	1,007893
4,430833	0,1	1,046511
4,432500	0,1	0,994311
4,434167	0,1	0,975809
4,435833	0,1	0,985149
4,437500	0,1	0,983731
4,439167	0,1	0,998182
4,440833	0,1	0,990059
4,442500	0,1	0,968262
4,444167	0,1	0,950035
4,445833	0,1	0,966766
4,447500	0,1	0,948190
4,449167	0,1	0,944923
4,450833	0,1	0,961392
4,452500	0,1	0,931633
4,454167	0,1	0,945010
4,455833	0,1	0,913829
4,457500	0,1	0,888831
4,459167	0,1	0,881548
4,460833	0,1	0,918830
4,462500	0,1	0,917732
4,464167	0,1	0,867107
4,465833	0,1	0,900321
4,467500	0,1	0,892135
4,469167	0,1	0,949216
4,470833	0,1	0,897899
4,472500	0,1	0,907804
4,474167	0,1	0,897329
4,475833	0,1	0,869346
4,477500	0,1	0,879124
4,479167	0,1	0,876107
4,480833	0,1	0,866809
4,482500	0,1	0,821918
4,484167	0,1	0,874740
4,485833	0,1	0,863499
4,487500	0,1	0,852475
4,489167	0,1	0,842820
4,490833	0,1	0,796634
4,492500	0,1	0,865263
4,494167	0,1	0,851098
4,495833	0,1	0,831278
4,497500	0,1	0,811482
4,499167	0,1	0,816915
4,500833	0,1	0,797430
4,502500	0,1	0,800089
4,504167	0,1	0,822677
4,505833	0,1	0,779571
4,507500	0,1	0,751383
4,509167	0,1	0,773436
4,510833	0,1	0,756044
4,512500	0,1	0,798702
4,514167	0,1	0,801798
4,515833	0,1	0,765571
4,517500	0,1	0,762317
4,519167	0,1	0,748532
4,520833	0,1	0,761120
4,522500	0,1	0,769803
4,524167	0,1	0,759614
4,525833	0,1	0,693191
4,527500	0,1	0,744892
4,529167	0,1	0,726182
4,530833	0,1	0,719389
4,532500	0,1	0,723472
4,534167	0,1	0,750072
4,535833	0,1	0,719303
4,537500	0,1	0,682302
4,539167	0,1	0,726706
4,540833	0,1	0,663172
4,542500	0,1	0,709753
4,544167	0,1	0,673620
4,545833	0,1	0,689302
4,547500	0,1	0,721022
4,549167	0,1	0,691409
4,550833	0,1	0,681587
4,552500	0,1	0,688408
4,554167	0,1	0,643671
4,555833	0,1	0,676813
4,557500	0,1	0,646460
4,559167	0,1	0,619026
4,560833	0,1	0,629152
4,562500	0,1	0,658611
4,564167	0,1	0,652156
4,565833	0,1	0,653824
4,567500	0,1	0,610861
4,569167	0,1	0,647354
4,570833	0,1	0,634622
4,572500	0,1	0,620439
4,574167	0,1	0,629764
4,575833	0,1	0,630144
4,577500	0,1	0,612686
4,579167	0,1	0,625254
4,580833	0,1	0,557123
4,582500	0,1	0,588842
4,584167	0,1	0,623096
4,585833	0,1	0,623457
4,587500	0,1	0,548763
4,589167	0,1	0,590287
4,590833	0,1	0,616925
4,592500	0,1	0,559917
4,594167	0,1	0,571737
4,595833	0,1	0,588234
4,597500	0,1	0,599429
4,599167	0,1	0,566663
4,600833	0,1	0,582764
4,602500	0,1	0,531006
4,604167	0,1	0,561567
4,605833	0,1	0,581994
4,607500	0,1	0,556244
4,609167	0,1	0,564404
4,610833	0,1	0,531997
4,612500	0,1	0,559253
4,614167	0,1	0,509103
4,615833	0,1	0,539090
4,617500	0,1	0,521735
4,619167	0,1	0,502150
4,620833	0,1	0,516903
4,622500	0,1	0,509222
4,624167	0,1	0,541148
4,625833	0,1	0,521380
4,627500	0,1	0,494884
4,629167	0,1	0,546674
4,630833	0,1	0,470972
4,632500	0,1	0,525093
4,634167	0,1	0,498679
4,635833	0,1	0,521306
4,637500	0,1	0,482282
4,639167	0,1	0,531943
4,640833	0,1	0,523661
4,642500	0,1	0,471931
4,644167	0,1	0,459767
4,645833	0,1	0,460022
4,647500	0,1	0,491624
4,649167	0,1	0,466877
4,650833	0,1	0,482688
4,652500	0,1	0,458870
4,654167	0,1	0,510141
4,655833	0,1	0,455888
4,657500	0,1	0,482202
4,659167	0,1	0,432930
4,660833	0,1	0,466156
4,662500	0,1	0,486289
4,664167	0,1	0,444052
4,665833	0,1	0,457029
4,667500	0,1	0,403960
4,669167	0,1	0,434068
4,670833	0,1	0,473872
4,672500	0,1	0,444436
4,674167	0,1	0,430413
4,675833	0,1	0,448090
4,677500	0,1	0,448639
4,679167	0,1	0,444269
4,680833	0,1	0,475063
4,682500	0,1	0,445175
4,684167	0,1	0,386376
4,685833	0,1	0,398899
4,687500	0,1	0,410250
4,689167	0,1	0,432659
4,690833	0,1	0,417489
4,692500	0,1	0,428737
4,694167	0,1	0,411833
4,695833	0,1	0,407777
4,697500	0,1	0,396944
4,699167	0,1	0,415904
4,700833	0,1	0,396946
4,702500	0,1	0,415264
4,704167	0,1	0,379782
4,705833	0,1	0,407606
4,707500	0,1	0,392348
4,709167	0,1	0,413817
4,710833	0,1	0,371519
4,712500	0,1	0,368300
4,714167	0,1	0,410661
4,715833	0,1	0,399931
4,717500	0,1	0,378365
4,719167	0,1	0,373768
4,720833	0,1	0,372701
4,722500	0,1	0,385720
4,724167	0,1	0,378009
4,725833	0,1	0,411335
4,727500	0,1	0,354776
4,729167	0,1	0,374592
4,730833	0,1	0,374630
4,732500	0,1	0,333268
4,734167	0,1	0,388761
4,735833	0,1	0,347539
4,737500	0,1	0,377837
4,739167	0,1	0,333296
4,740833	0,1	0,402261
4,742500	0,1	0,376565
4,744167	0,1	0,346830
4,745833	0,1	0,367455
4,747500	0,1	0,323009
4,749167	0,1	0,334668
4,750833	0,1	0,372564
4,752500	0,1	0,376881
4,754167	0,1	0,371161
4,755833	0,1	0,346956
4,757500	0,1	0,317481
4,759167	0,1	0,321042
4,760833	0,1	0,335472
4,762500	0,1	0,318828
4,764167	0,1	0,320752
4,765833	0,1	0,351252
4,767500	0,1	0,324716
4,769167	0,1	0,326963
4,770833	0,1	0,313486
4,772500	0,1	0,355204
4,774167	0,1	0,362412
4,775833	0,1	0,356953
4,777500	0,1	0,289433
4,779167	0,1	0,319560
4,780833	0,1	0,343954
4,782500	0,1	0,336156
4,784167	0,1	0,355367
4,785833	0,1	0,319666
4,787500	0,1	0,337406
4,789167	0,1	0,330079
4,790833	0,1	0,308445
4,792500	0,1	0,305967
4,794167	0,1	0,319175
4,795833	0,1	0,345015
4,797500	0,1	0,320377
4,799167	0,1	0,299226
4,800833	0,1	0,322585
4,802500	0,1	0,291289
4,804167	0,1	0,346364
4,805833	0,1	0,298682
4,807500	0,1	0,287808
4,809167	0,1	0,367834
4,810833	0,1	0,333364
4,812500	0,1	0,311858
4,814167	0,1	0,290771
4,815833	0,1	0,283506
4,817500	0,1	0,337652
4,819167	0,1	0,313107
4,820833	0,1	0,312622
4,822500	0,1	0,285756
4,824167	0,1	0,325082
4,825833	0,1	0,305881
4,827500	0,1	0,276432
4,829167	0,1	0,273664
4,830833	0,1	0,332283
4,832500	0,1	0,299456
4,834167	0,1	0,318176
4,835833	0,1	0,311436
4,837500	0,1	0,330427
4,839167	0,1	0,305528
4,840833	0,1	0,335441
4,842500	0,1	0,300777
4,844167	0,1	0,305846
4,845833	0,1	0,324776
4,847500	0,1	0,290774
4,849167	0,1	0,300694
4,850833	0,1	0,299385
4,852500	0,1	0,277661
4,854167	0,1	0,270350
4,855833	0,1	0,323184
4,857500	0,1	0,325188
4,859167	0,1	0,321179
4,860833	0,1	0,297454
4,862500	0,1	0,287462
4,864167	0,1	0,332059
4,865833	0,1	0,301283
4,867500	0,1	0,292025
4,869167	0,1	0,288386
4,870833	0,1	0,307023
4,872500	0,1	0,278974
4,874167	0,1	0,318851
4,875833	0,1	0,305969
4,877500	0,1	0,288905
4,879167	0,1	0,259339
4,880833	0,1	0,273831
4,882500	0,1	0,300918
4,884167	0,1	0,286586
4,885833	0,1	0,276851
4,887500	0,1	0,271673
4,889167	0,1	0,292562
4,890833	0,1	0,304072
4,892500	0,1	0,292253
4,894167	0,1	0,288809
4,895833	0,1	0,299382
4,897500	0,1	0,286142
4,899167	0,1	0,299797
4,900833	0,1	0,268753
4,902500	0,1	0,258527
4,904167	0,1	0,267585
4,905833	0,1	0,279417
4,907500	0,1	0,287296
4,909167	0,1	0,295906
4,910833	0,1	0,293274
4,912500	0,1	0,294233
4,914167	0,1	0,288775
4,915833	0,1	0,257348
4,917500	0,1	0,295645
4,919167	0,1	0,279361
4,920833	0,1	0,292374
4,922500	0,1	0,284982
4,924167	0,1	0,279260
4,925833	0,1	0,284463
4,927500	0,1	0,309339
4,929167	0,1	0,290707
4,930833	0,1	0,302270
4,932500	0,1	0,278068
4,934167	0,1	0,256285
4,935833	0,1	0,247701
4,937500	0,1	0,292231
4,939167	0,1	0,310208
4,940833	0,1	0,297197
4,942500	0,1	0,306065
4,944167	0,1	0,273769
4,945833	0,1	0,308757
4,947500	0,1	0,319183
4,949167	0,1	0,304848
4,950833	0,1	0,235050
4,952500	0,1	0,273879
4,954167	0,1	0,290119
4,955833	0,1	0,261619
4,957500	0,1	0,292687
4,959167	0,1	0,294331
4,960833	0,1	0,315062
4,962500	0,1	0,323972
4,964167	0,1	0,255137
4,965833	0,1	0,262253
4,967500	0,1	0,261812
4,969167	0,1	0,295837
4,970833	0,1	0,278781
4,972500	0,1	0,298412
4,974167	0,1	0,322196
4,975833	0,1	0,300448
4,977500	0,1	0,309433
4,979167	0,1	0,275761
4,980833	0,1	0,275528
4,982500	0,1	0,268848
4,984167	0,1	0,275273
4,985833	0,1	0,326272
4,987500	0,1	0,260317
4,989167	0,1	0,338643
4,990833	0,1	0,315525
4,992500	0,1	0,282091
4,994167	0,1	0,280896
4,995833	0,1	0,299380
4,997500	0,1	0,314383
4,999167	0,1	0,305461
5,000833	0,1	0,300579
5,002500	0,1	0,310437
5,004167	0,1	0,288226
5,005833	0,1	0,321966
5,007500	0,1	0,320083
5,009167	0,1	0,349196
5,010833	0,1	0,299325
5,012500	0,1	0,334090
5,014167	0,1	0,310917
5,015833	0,1	0,327087
5,017500	0,1	0,330077
5,019167	0,1	0,317477
5,020833	0,1	0,365298
5,022500	0,1	0,339727
5,024167	0,1	0,317607
5,025833	0,1	0,331842
5,027500	0,1	0,295436
5,029167	0,1	0,370626
5,030833	0,1	0,286992
5,032500	0,1	0,333026
5,034167	0,1	0,396510
5,035833	0,1	0,322417
5,037500	0,1	0,334829
5,039167	0,1	0,338400
5,040833	0,1	0,313369
5,042500	0,1	0,334602
5,044167	0,1	0,322014
5,045833	0,1	0,335726
5,047500	0,1	0,330497
5,049167	0,1	0,344733
5,050833	0,1	0,368421
5,052500	0,1	0,330920
5,054167	0,1	0,321913
5,055833	0,1	0,329724
5,057500	0,1	0,390046
5,059167	0,1	0,360783
5,060833	0,1	0,373950
5,062500	0,1	0,357019
5,064167	0,1	0,370417
5,065833	0,1	0,364535
5,067500	0,1	0,359524
5,069167	0,1	0,359714
5,070833	0,1	0,364887
5,072500	0,1	0,350653
5,074167	0,1	0,347239
5,075833	0,1	0,365109
5,077500	0,1	0,389187
5,079167	0,1	0,374182
5,080833	0,1	0,364860
5,082500	0,1	0,356341
5,084167	0,1	0,412910
5,085833	0,1	0,402539
5,087500	0,1	0,351463
5,089167	0,1	0,402716
5,090833	0,1	0,366380
5,092500	0,1	0,401465
5,094167	0,1	0,360686
5,095833	0,1	0,419752
5,097500	0,1	0,382905
5,099167	0,1	0,375019
5,100833	0,1	0,390092
5,102500	0,1	0,410989
5,104167	0,1	0,415878
5,105833	0,1	0,366122
5,107500	0,1	0,414934
5,109167	0,1	0,437960
5,110833	0,1	0,415981
5,112500	0,1	0,384700
5,114167	0,1	0,373474
5,115833	0,1	0,397738
5,117500	0,1	0,389323
5,119167	0,1	0,421946
5,120833	0,1	0,417489
5,122500	0,1	0,413145
5,124167	0,1	0,403629
5,125833	0,1	0,398484
5,127500	0,1	0,378683
5,129167	0,1	0,419242
5,130833	0,1	0,427033
5,132500	0,1	0,402862
5,134167	0,1	0,411891
5,135833	0,1	0,380135
5,137500	0,1	0,414294
5,139167	0,1	0,394375
5,140833	0,1	0,414876
5,142500	0,1	0,396107
5,144167	0,1	0,415775
5,145833	0,1	0,414593
5,147500	0,1	0,382544
5,149167	0,1	0,408349
5,150833	0,1	0,376984
5,152500	0,1	0,383984
5,154167	0,1	0,403043
5,155833	0,1	0,409575
5,157500	0,1	0,399256
5,159167	0,1	0,396271
5,160833	0,1	0,393248
5,162500	0,1	0,375856
5,164167	0,1	0,409313
5,165833	0,1	0,379875
5,167500	0,1	0,403333
5,169167	0,1	0,407548
5,170833	0,1	0,368210
5,172500	0,1	0,358201
5,174167	0,1	0,426375
5,175833	0,1	0,375030
5,177500	0,1	0,399028
5,179167	0,1	0,369911
5,180833	0,1	0,394428
5,182500	0,1	0,379680
5,184167	0,1	0,387714
5,185833	0,1	0,358408
5,187500	0,1	0,368871
5,189167	0,1	0,368879
5,190833	0,1	0,388966
5,192500	0,1	0,350174
5,194167	0,1	0,360998
5,195833	0,1	0,344382
5,197500	0,1	0,348368
5,199167	0,1	0,348630
5,200833	0,1	0,355179
5,202500	0,1	0,347404
5,204167	0,1	0,374751
5,205833	0,1	0,337646
5,207500	0,1	0,347172
5,209167	0,1	0,345889
5,210833	0,1	0,352316
5,212500	0,1	0,346469
5,214167	0,1	0,329920
5,215833	0,1	0,317832
5,217500	0,1	0,332511
5,219167	0,1	0,325227
5,220833	0,1	0,347785
5,222500	0,1	0,312919
5,224167	0,1	0,337920
5,225833	0,1	0,351065
5,227500	0,1	0,307553
5,229167	0,1	0,322325
5,230833	0,1	0,298448
5,232500	0,1	0,307313
5,234167	0,1	0,320722
5,235833	0,1	0,313592
5,237500	0,1	0,305299
5,239167	0,1	0,311949
5,240833	0,1	0,319247
5,242500	0,1	0,336857
5,244167	0,1	0,257131
5,245833	0,1	0,325052
5,247500	0,1	0,313041
5,249167	0,1	0,310276
5,250833	0,1	0,333541
5,252500	0,1	0,322205
5,254167	0,1	0,290482
5,255833	0,1	0,268662
5,257500	0,1	0,248761
5,259167	0,1	0,313511
5,260833	0,1	0,282198
5,262500	0,1	0,287487
5,264167	0,1	0,243020
5,265833	0,1	0,287259
5,267500	0,1	0,279840
5,269167	0,1	0,282887
5,270833	0,1	0,273159
5,272500	0,1	0,261371
5,274167	0,1	0,276981
5,275833	0,1	0,286200
5,277500	0,1	0,297036
5,279167	0,1	0,295917
5,280833	0,1	0,276185
5,282500	0,1	0,230127
5,284167	0,1	0,262674
5,285833	0,1	0,268038
5,287500	0,1	0,237685
5,289167	0,1	0,249824
5,290833	0,1	0,221806
5,292500	0,1	0,260517
5,294167	0,1	0,248896
5,295833	0,1	0,248921
5,297500	0,1	0,249247
5,299167	0,1	0,250143
5,300833	0,1	0,247535
5,302500	0,1	0,235426
5,304167	0,1	0,229601
5,305833	0,1	0,211256
5,307500	0,1	0,184742
5,309167	0,1	0,233093
5,310833	0,1	0,211458
5,312500	0,1	0,260226
5,314167	0,1	0,238867
5,315833	0,1	0,231025
5,317500	0,1	0,236770
5,319167	0,1	0,233721
5,320833	0,1	0,154904
5,322500	0,1	0,226798
5,324167	0,1	0,215186
5,325833	0,1	0,211253
5,327500	0,1	0,208682
5,329167	0,1	0,190186
5,330833	0,1	0,221501
5,332500	0,1	0,213182
5,334167	0,1	0,205217
5,335833	0,1	0,181051
5,337500	0,1	0,180502
5,339167	0,1	0,200874
5,340833	0,1	0,177420
5,342500	0,1	0,175855
5,344167	0,1	0,185290
5,345833	0,1	0,187697
5,347500	0,1	0,162931
5,349167	0,1	0,201638
5,350833	0,1	0,209748
5,352500	0,1	0,177574
5,354167	0,1	0,155696
5,355833	0,1	0,168517
5,357500	0,1	0,169414
5,359167	0,1	0,201123
5,360833	0,1	0,204130
5,362500	0,1	0,196421
5,364167	0,1	0,169521
5,365833	0,1	0,214629
5,367500	0,1	0,178457
5,369167	0,1	0,185416
5,370833	0,1	0,193078
5,372500	0,1	0,138039
5,374167	0,1	0,193405
5,375833	0,1	0,184688
5,377500	0,1	0,144901
5,379167	0,1	0,161156
5,380833	0,1	0,133810
5,382500	0,1	0,165588
5,384167	0,1	0,203440
5,385833	0,1	0,180736
5,387500	0,1	0,192170
5,389167	0,1	0,156444
5,390833	0,1	0,174690
5,392500	0,1	0,135036
5,394167	0,1	0,197713
5,395833	0,1	0,118767
5,397500	0,1	0,156489
5,399167	0,1	0,151459
5,400833	0,1	0,158071
5,402500	0,1	0,135360
5,404167	0,1	0,109821
5,405833	0,1	0,170231
5,407500	0,1	0,173041
5,409167	0,1	0,118661
5,410833	0,1	0,125652
5,412500	0,1	0,121156
5,414167	0,1	0,117739
5,415833	0,1	0,120738
5,417500	0,1	0,165773
5,419167	0,1	0,146510
5,420833	0,1	0,151105
5,422500	0,1	0,126152
5,424167	0,1	0,129922
5,425833	0,1	0,190002
5,427500	0,1	0,113525
5,429167	0,1	0,163593
5,430833	0,1	0,131796
5,432500	0,1	0,112932
5,434167	0,1	0,104677
5,435833	0,1	0,143637
5,437500	0,1	0,097993
5,439167	0,1	0,127220
5,440833	0,1	0,120514
5,442500	0,1	0,147244
5,444167	0,1	0,098653
5,445833	0,1	0,108051
5,447500	0,1	0,101714
5,449167	0,1	0,111827
5,450833	0,1	0,098957
5,452500	0,1	0,128029
5,454167	0,1	0,114254
5,455833	0,1	0,050470
5,457500	0,1	0,047929
5,459167	0,1	0,100455
5,460833	0,1	0,124112
5,462500	0,1	0,097779
5,464167	0,1	0,141331
5,465833	0,1	0,093599
5,467500	0,1	0,067477
5,469167	0,1	0,081933
5,470833	0,1	0,129347
5,472500	0,1	0,096541
5,474167	0,1	0,137311
5,475833	0,1	0,104911
5,477500	0,1	0,087348
5,479167	0,1	0,128089
5,480833	0,1	0,085825
5,482500	0,1	0,139501
5,484167	0,1	0,123541
5,485833	0,1	0,091151
5,487500	0,1	0,116235
5,489167	0,1	0,118184
5,490833	0,1	0,085406
5,492500	0,1	0,095551
5,494167	0,1	0,125888
5,495833	0,1	0,094652
5,497500	0,1	0,101852
5,499167	0,1	0,109955
5,500833	0,1	0,098519
5,502500	0,1	0,127487
5,504167	0,1	0,090856
5,505833	0,1	0,096320
5,507500	0,1	0,063749
5,509167	0,1	0,103976
5,510833	0,1	0,125084
5,512500	0,1	0,120843
5,514167	0,1	0,110994
5,515833	0,1	0,112927
5,517500	0,1	0,081471
5,519167	0,1	0,076735
5,520833	0,1	0,077774
5,522500	0,1	0,098386
5,524167	0,1	0,096221
5,525833	0,1	0,060641
5,527500	0,1	0,130464
5,529167	0,1	0,058493
5,530833	0,1	0,109160
5,532500	0,1	0,110395
5,534167	0,1	0,046471
5,535833	0,1	0,034707
5,537500	0,1	0,071733
5,539167	0,1	0,086266
5,540833	0,1	0,090312
5,542500	0,1	0,072781
5,544167	0,1	0,091360
5,545833	0,1	0,035298
5,547500	0,1	0,063071
5,549167	0,1	0,049796
5,550833	0,1	0,084522
5,552500	0,1	0,045534
5,554167	0,1	0,121780
5,555833	0,1	0,095272
5,557500	0,1	0,090831
5,559167	0,1	0,064886
5,560833	0,1	0,030403
5,562500	0,1	0,053786
5,564167	0,1	0,050125
5,565833	0,1	0,075154
5,567500	0,1	0,079201
5,569167	0,1	0,093647
5,570833	0,1	0,123239
5,572500	0,1	0,077887
5,574167	0,1	0,061859
5,575833	0,1	0,097035
5,577500	0,1	0,117975
5,579167	0,1	0,077306
5,580833	0,1	0,115692
5,582500	0,1	0,083440
5,584167	0,1	0,049057
5,585833	0,1	0,107231
5,587500	0,1	0,076616
5,589167	0,1	0,076507
5,590833	0,1	0,075865
5,592500	0,1	0,057050
5,594167	0,1	0,068527
5,595833	0,1	0,044740
5,597500	0,1	0,094962
5,599167	0,1	0,031445
5,600833	0,1	0,085403
5,602500	0,1	0,088447
5,604167	0,1	0,067993
5,605833	0,1	0,081831
5,607500	0,1	0,094557
5,609167	0,1	0,056745
5,610833	0,1	0,113861
5,612500	0,1	0,051754
5,614167	0,1	0,064814
5,615833	0,1	0,053880
5,617500	0,1	0,078741
5,619167	0,1	0,062956
5,620833	0,1	0,067243
5,622500	0,1	0,040142
5,624167	0,1	0,045212
5,625833	0,1	0,055841
5,627500	0,1	0,039353
5,629167	0,1	0,051343
5,630833	0,1	0,097283
5,632500	0,1	0,075454
5,634167	0,1	0,034488
5,635833	0,1	0,083067
5,637500	0,1	0,052389
5,639167	0,1	0,085328
5,640833	0,1	0,055851
5,642500	0,1	0,093475
5,644167	0,1	0,087744
5,645833	0,1	0,047626
5,647500	0,1	0,077057
5,649167	0,1	0,091674
5,650833	0,1	0,047606
5,652500	0,1	0,080706
5,654167	0,1	0,083637
5,655833	0,1	0,076054
5,657500	0,1	0,073459
5,659167	0,1	0,102138
5,660833	0,1	0,091514
5,662500	0,1	0,062486
5,664167	0,1	0,081022
5,665833	0,1	0,083432
5,667500	0,1	0,064388
5,669167	0,1	0,069335
5,670833	0,1	0,073627
5,672500	0,1	0,065774
5,674167	0,1	0,066248
5,675833	0,1	0,084109
5,677500	0,1	0,083700
5,679167	0,1	0,056017
5,680833	0,1	0,083072
5,682500	0,1	0,104397
5,684167	0,1	0,093198
5,685833	0,1	0,068637
5,687500	0,1	0,085231
5,689167	0,1	0,081544
5,690833	0,1	0,090019
5,692500	0,1	0,061326
5,694167	0,1	0,100105
5,695833	0,1	0,120383
5,697500	0,1	0,062306
5,699167	0,1	0,114717
5,700833	0,1	0,101795
5,702500	0,1	0,096527
5,704167	0,1	0,096509
5,705833	0,1	0,094395
5,707500	0,1	0,110620
5,709167	0,1	0,109731
5,710833	0,1	0,116092
5,712500	0,1	0,073014
5,714167	0,1	0,102348
5,715833	0,1	0,105545
5,717500	0,1	0,122020
5,719167	0,1	0,090178
5,720833	0,1	0,078233
5,722500	0,1	0,102594
5,724167	0,1	0,141960
5,725833	0,1	0,087732
5,727500	0,1	0,092569
5,729167	0,1	0,118453
5,730833	0,1	0,092247
5,732500	0,1	0,142552
5,734167	0,1	0,100791
5,735833	0,1	0,134328
5,737500	0,1	0,151202
5,739167	0,1	0,114259
5,740833	0,1	0,089488
5,742500	0,1	0,119776
5,744167	0,1	0,126576
5,745833	0,1	0,108488
5,747500	0,1	0,107433
5,749167	0,1	0,127451
5,750833	0,1	0,140116
5,752500	0,1	0,098488
5,754167	0,1	0,119881
5,755833	0,1	0,097299
5,757500	0,1	0,089985
5,759167	0,1	0,123301
5,760833	0,1	0,146060
5,762500	0,1	0,097823
5,764167	0,1	0,122826
5,765833	0,1	0,082321
5,767500	0,1	0,090106
5,769167	0,1	0,104007
5,770833	0,1	0,138121
5,772500	0,1	0,106713
5,774167	0,1	0,117273
5,775833	0,1	0,100698
5,777500	0,1	0,131655
5,779167	0,1	0,130957
5,780833	0,1	0,107479
5,782500	0,1	0,108655
5,784167	0,1	0,143299
5,785833	0,1	0,107771
5,787500	0,1	0,125978
5,789167	0,1	0,124322
5,790833	0,1	0,108183
5,792500	0,1	0,131281
5,794167	0,1	0,133073
5,795833	0,1	0,115251
5,797500	0,1	0,158390
5,799167	0,1	0,087384
5,800833	0,1	0,145472
5,802500	0,1	0,120848
5,804167	0,1	0,119517
5,805833	0,1	0,160093
5,807500	0,1	0,112187
5,809167	0,1	0,136649
5,810833	0,1	0,141489
5,812500	0,1	0,160715
5,814167	0,1	0,120538
5,815833	0,1	0,100762
5,817500	0,1	0,114890
5,819167	0,1	0,137872
5,820833	0,1	0,105075
5,822500	0,1	0,097671
5,824167	0,1	0,126681
5,825833	0,1	0,115805
5,827500	0,1	0,142455
5,829167	0,1	0,145234
5,830833	0,1	0,098982
5,832500	0,1	0,139050
5,834167	0,1	0,134438
5,835833	0,1	0,141669
5,837500	0,1	0,116513
5,839167	0,1	0,095042
5,840833	0,1	0,112836
5,842500	0,1	0,121294
5,844167	0,1	0,108800
5,845833	0,1	0,128899
5,847500	0,1	0,103208
5,849167	0,1	0,131054
5,850833	0,1	0,110566
5,852500	0,1	0,144772
5,854167	0,1	0,125799
5,855833	0,1	0,107228
5,857500	0,1	0,102664
5,859167	0,1	0,088076
5,860833	0,1	0,106372
5,862500	0,1	0,099599
5,864167	0,1	0,113479
5,865833	0,1	0,094211
5,867500	0,1	0,078233
5,869167	0,1	0,094994
5,870833	0,1	0,106412
5,872500	0,1	0,102272
5,874167	0,1	0,093857
5,875833	0,1	0,128833
5,877500	0,1	0,103749
5,879167	0,1	0,103743
5,880833	0,1	0,066424
5,882500	0,1	0,132063
5,884167	0,1	0,082323
5,885833	0,1	0,072863
5,887500	0,1	0,119546
5,889167	0,1	0,106731
5,890833	0,1	0,126078
5,892500	0,1	0,087752
5,894167	0,1	0,079909
5,895833	0,1	0,043213
5,897500	0,1	0,111225
5,899167	0,1	0,085116
5,900833	0,1	0,092693
5,902500	0,1	0,115405
5,904167	0,1	0,095020
5,905833	0,1	0,098932
5,907500	0,1	0,082502
5,909167	0,1	0,084342
5,910833	0,1	0,101874
5,912500	0,1	0,116983
5,914167	0,1	0,109215
5,915833	0,1	0,060085
5,917500	0,1	0,091111
5,919167	0,1	0,117786
5,920833	0,1	0,084122
5,922500	0,1	0,086082
5,924167	0,1	0,071496
5,925833	0,1	0,062044
5,927500	0,1	0,077292
5,929167	0,1	0,079553
5,930833	0,1	0,062585
5,932500	0,1	0,101453
5,934167	0,1	0,075871
5,935833	0,1	0,097392
5,937500	0,1	0,071579
5,939167	0,1	0,064010
5,940833	0,1	0,079862
5,942500	0,1	0,099963
5,944167	0,1	0,064558
5,945833	0,1	0,097060
5,947500	0,1	0,057905
5,949167	0,1	0,081868
5,950833	0,1	0,063519
5,952500	0,1	0,082990
5,954167	0,1	0,047211
5,955833	0,1	0,073351
5,957500	0,1	0,102906
5,959167	0,1	0,078292
5,960833	0,1	0,101331
5,962500	0,1	0,098416
5,964167	0,1	0,085669
5,965833	0,1	0,119674
5,967500	0,1	0,048213
5,969167	0,1	0,104348
5,970833	0,1	0,118080
5,972500	0,1	0,082111
5,974167	0,1	0,028191
5,975833	0,1	0,048358
5,977500	0,1	0,035993
5,979167	0,1	0,050370
5,980833	0,1	0,065477
5,982500	0,1	0,075987
5,984167	0,1	0,068924
5,985833	0,1	0,059246
5,987500	0,1	0,005312
5,989167	0,1	0,076615
5,990833	0,1	0,026614
5,992500	0,1	0,048191
5,994167	0,1	0,039784
5,995833	0,1	0,068686
5,997500	0,1	0,039727
5,999167	0,1	0,038622
6,000833	0,1	0,051510
