File Path	chrom://chromeleon01/ikbm_chromeleon/2022/Rezex/Esteban/220612_chitin_4_7.seq/860.smp/UV_VIS_1.channel/UV_VIS_1.chm
Channel	UV_VIS_1

Injection Information:
Data Vault	ikbm_chromeleon
Injection	4_06h-ChiBS_3
Injection Number	67
Position	GB4
Comment	
Processing Method	New ProcMethod
Instrument Method	Short_Rezex_6min_194nm
Type	Unknown
Status	Finished
Injection Date	13.06.2022
Injection Time	00:21:14
Injection Volume (µl)	8,000
Dilution Factor	1,0000
Weight	1,0000

Chromatogram Data Information:
Time Min. (min)	0,000833
Time Max. (min)	6,000833
Data Points	3601
Detector	UV
Generating Data System	Chromeleon 7.2.9.11323
Exporting Data System	Chromeleon 7.2.9.0
Operator	Instrument Controller
Signal Quantity	Absorbance
Signal Unit	mAU
Signal Min.	-0,163868
Signal Max.	110,260052
Channel	UV_VIS_1
Driver Name	VWD3000.dll
Channel Type	Evaluation
Min. Step (s)	0,1
Max. Step (s)	0,1
Average Step (s)	0,1

Signal Parameter Information:
Signal Info	WVL:194 nm

Chromatogram Data:
Time (min)	Step (s)	Value (mAU)
0,000833	n.a.	-0,093144
0,002500	0,1	-0,107410
0,004167	0,1	-0,072741
0,005833	0,1	-0,089571
0,007500	0,1	-0,124223
0,009167	0,1	-0,096136
0,010833	0,1	-0,087005
0,012500	0,1	-0,057228
0,014167	0,1	-0,071592
0,015833	0,1	-0,068711
0,017500	0,1	-0,114619
0,019167	0,1	-0,112308
0,020833	0,1	-0,124707
0,022500	0,1	-0,117308
0,024167	0,1	-0,103890
0,025833	0,1	-0,089539
0,027500	0,1	-0,084456
0,029167	0,1	-0,111304
0,030833	0,1	-0,142268
0,032500	0,1	-0,145965
0,034167	0,1	-0,160811
0,035833	0,1	-0,101560
0,037500	0,1	-0,163868
0,039167	0,1	-0,117482
0,040833	0,1	-0,153008
0,042500	0,1	-0,155525
0,044167	0,1	-0,137697
0,045833	0,1	-0,121230
0,047500	0,1	-0,108702
0,049167	0,1	-0,125867
0,050833	0,1	-0,078161
0,052500	0,1	-0,099008
0,054167	0,1	-0,135795
0,055833	0,1	-0,101468
0,057500	0,1	-0,050803
0,059167	0,1	-0,083468
0,060833	0,1	-0,082503
0,062500	0,1	-0,088225
0,064167	0,1	-0,069483
0,065833	0,1	-0,114599
0,067500	0,1	-0,075525
0,069167	0,1	-0,074310
0,070833	0,1	-0,104897
0,072500	0,1	-0,094701
0,074167	0,1	-0,059756
0,075833	0,1	-0,107215
0,077500	0,1	-0,080291
0,079167	0,1	-0,103278
0,080833	0,1	-0,076659
0,082500	0,1	-0,078025
0,084167	0,1	-0,055439
0,085833	0,1	-0,078288
0,087500	0,1	-0,038850
0,089167	0,1	-0,072974
0,090833	0,1	-0,077649
0,092500	0,1	-0,031841
0,094167	0,1	-0,030255
0,095833	0,1	-0,053875
0,097500	0,1	-0,056076
0,099167	0,1	-0,074845
0,100833	0,1	-0,093720
0,102500	0,1	-0,034253
0,104167	0,1	-0,098105
0,105833	0,1	-0,073530
0,107500	0,1	-0,088952
0,109167	0,1	-0,065665
0,110833	0,1	-0,092515
0,112500	0,1	-0,119849
0,114167	0,1	-0,113179
0,115833	0,1	-0,123317
0,117500	0,1	-0,094936
0,119167	0,1	-0,129783
0,120833	0,1	-0,091950
0,122500	0,1	-0,114645
0,124167	0,1	-0,067106
0,125833	0,1	-0,080177
0,127500	0,1	-0,120738
0,129167	0,1	-0,070092
0,130833	0,1	-0,080139
0,132500	0,1	-0,106017
0,134167	0,1	-0,078133
0,135833	0,1	-0,099464
0,137500	0,1	-0,099904
0,139167	0,1	-0,104716
0,140833	0,1	-0,063827
0,142500	0,1	-0,071695
0,144167	0,1	-0,093428
0,145833	0,1	-0,059119
0,147500	0,1	-0,078515
0,149167	0,1	-0,064696
0,150833	0,1	-0,030200
0,152500	0,1	-0,073201
0,154167	0,1	-0,057061
0,155833	0,1	-0,059479
0,157500	0,1	-0,080113
0,159167	0,1	-0,071306
0,160833	0,1	-0,056456
0,162500	0,1	-0,084635
0,164167	0,1	-0,052289
0,165833	0,1	-0,035278
0,167500	0,1	-0,050224
0,169167	0,1	-0,081563
0,170833	0,1	-0,063530
0,172500	0,1	-0,071986
0,174167	0,1	-0,071988
0,175833	0,1	-0,062572
0,177500	0,1	-0,049361
0,179167	0,1	-0,086375
0,180833	0,1	-0,054298
0,182500	0,1	-0,069805
0,184167	0,1	-0,062571
0,185833	0,1	-0,071343
0,187500	0,1	-0,041114
0,189167	0,1	-0,063811
0,190833	0,1	-0,057764
0,192500	0,1	-0,067297
0,194167	0,1	-0,082043
0,195833	0,1	-0,080824
0,197500	0,1	-0,083332
0,199167	0,1	-0,029216
0,200833	0,1	-0,038032
0,202500	0,1	-0,045064
0,204167	0,1	-0,061429
0,205833	0,1	-0,045087
0,207500	0,1	-0,041539
0,209167	0,1	-0,042448
0,210833	0,1	-0,025717
0,212500	0,1	-0,054870
0,214167	0,1	-0,062898
0,215833	0,1	-0,089280
0,217500	0,1	-0,080349
0,219167	0,1	-0,048660
0,220833	0,1	-0,064933
0,222500	0,1	-0,041380
0,224167	0,1	-0,067936
0,225833	0,1	-0,048327
0,227500	0,1	-0,077994
0,229167	0,1	-0,024605
0,230833	0,1	-0,030316
0,232500	0,1	-0,055428
0,234167	0,1	-0,057363
0,235833	0,1	-0,060539
0,237500	0,1	-0,048592
0,239167	0,1	-0,034947
0,240833	0,1	-0,051158
0,242500	0,1	-0,005249
0,244167	0,1	-0,034850
0,245833	0,1	-0,029362
0,247500	0,1	-0,052960
0,249167	0,1	-0,046457
0,250833	0,1	-0,019242
0,252500	0,1	-0,027868
0,254167	0,1	-0,040374
0,255833	0,1	-0,022580
0,257500	0,1	-0,049539
0,259167	0,1	-0,069929
0,260833	0,1	-0,055274
0,262500	0,1	-0,070841
0,264167	0,1	-0,027982
0,265833	0,1	-0,042257
0,267500	0,1	-0,032475
0,269167	0,1	-0,059866
0,270833	0,1	-0,074658
0,272500	0,1	-0,051377
0,274167	0,1	-0,040442
0,275833	0,1	-0,037909
0,277500	0,1	-0,015680
0,279167	0,1	-0,071496
0,280833	0,1	-0,019812
0,282500	0,1	-0,004144
0,284167	0,1	-0,046939
0,285833	0,1	-0,015369
0,287500	0,1	-0,053144
0,289167	0,1	-0,083968
0,290833	0,1	-0,013348
0,292500	0,1	-0,003248
0,294167	0,1	-0,030662
0,295833	0,1	-0,007775
0,297500	0,1	-0,033627
0,299167	0,1	-0,022023
0,300833	0,1	-0,006465
0,302500	0,1	0,001960
0,304167	0,1	-0,007745
0,305833	0,1	-0,048852
0,307500	0,1	-0,076977
0,309167	0,1	-0,033998
0,310833	0,1	-0,033533
0,312500	0,1	-0,044791
0,314167	0,1	-0,039196
0,315833	0,1	-0,050391
0,317500	0,1	-0,018499
0,319167	0,1	-0,043728
0,320833	0,1	-0,012937
0,322500	0,1	-0,034522
0,324167	0,1	-0,011006
0,325833	0,1	0,059803
0,327500	0,1	-0,039688
0,329167	0,1	0,022464
0,330833	0,1	-0,028978
0,332500	0,1	-0,043793
0,334167	0,1	-0,020699
0,335833	0,1	-0,005279
0,337500	0,1	-0,001066
0,339167	0,1	0,009362
0,340833	0,1	-0,024208
0,342500	0,1	-0,015466
0,344167	0,1	-0,029028
0,345833	0,1	-0,006592
0,347500	0,1	0,005215
0,349167	0,1	-0,026844
0,350833	0,1	-0,012996
0,352500	0,1	-0,021062
0,354167	0,1	-0,014948
0,355833	0,1	-0,024214
0,357500	0,1	-0,013638
0,359167	0,1	0,012097
0,360833	0,1	0,047075
0,362500	0,1	-0,003045
0,364167	0,1	-0,032757
0,365833	0,1	-0,026310
0,367500	0,1	0,034080
0,369167	0,1	-0,010801
0,370833	0,1	-0,031448
0,372500	0,1	0,017636
0,374167	0,1	-0,010084
0,375833	0,1	0,007683
0,377500	0,1	-0,017159
0,379167	0,1	-0,020090
0,380833	0,1	-0,015566
0,382500	0,1	-0,005366
0,384167	0,1	0,008907
0,385833	0,1	0,006841
0,387500	0,1	0,019840
0,389167	0,1	-0,016450
0,390833	0,1	0,029581
0,392500	0,1	0,044066
0,394167	0,1	0,005932
0,395833	0,1	-0,013113
0,397500	0,1	-0,009260
0,399167	0,1	0,014049
0,400833	0,1	0,024985
0,402500	0,1	0,038945
0,404167	0,1	0,030855
0,405833	0,1	0,004666
0,407500	0,1	0,031287
0,409167	0,1	0,035960
0,410833	0,1	0,014123
0,412500	0,1	0,030484
0,414167	0,1	-0,028311
0,415833	0,1	-0,006441
0,417500	0,1	-0,006336
0,419167	0,1	0,056917
0,420833	0,1	0,038664
0,422500	0,1	0,029353
0,424167	0,1	0,019557
0,425833	0,1	0,044415
0,427500	0,1	0,021489
0,429167	0,1	0,067918
0,430833	0,1	0,011811
0,432500	0,1	0,020170
0,434167	0,1	0,029388
0,435833	0,1	0,012233
0,437500	0,1	0,034693
0,439167	0,1	0,063634
0,440833	0,1	0,024089
0,442500	0,1	0,015118
0,444167	0,1	0,020170
0,445833	0,1	0,022504
0,447500	0,1	0,037621
0,449167	0,1	0,050648
0,450833	0,1	0,020493
0,452500	0,1	0,037432
0,454167	0,1	0,009851
0,455833	0,1	0,074535
0,457500	0,1	0,043030
0,459167	0,1	0,026404
0,460833	0,1	0,010137
0,462500	0,1	-0,010995
0,464167	0,1	0,039579
0,465833	0,1	0,026632
0,467500	0,1	0,029678
0,469167	0,1	0,014890
0,470833	0,1	0,040520
0,472500	0,1	0,076977
0,474167	0,1	0,014902
0,475833	0,1	0,015907
0,477500	0,1	0,059419
0,479167	0,1	0,040743
0,480833	0,1	0,034120
0,482500	0,1	0,040070
0,484167	0,1	0,048719
0,485833	0,1	0,053286
0,487500	0,1	0,026470
0,489167	0,1	0,001162
0,490833	0,1	0,040036
0,492500	0,1	0,053157
0,494167	0,1	0,051460
0,495833	0,1	0,059881
0,497500	0,1	0,021682
0,499167	0,1	0,096728
0,500833	0,1	0,080178
0,502500	0,1	0,068437
0,504167	0,1	0,024193
0,505833	0,1	0,062699
0,507500	0,1	0,074962
0,509167	0,1	0,046723
0,510833	0,1	0,081100
0,512500	0,1	0,074540
0,514167	0,1	0,127165
0,515833	0,1	0,047670
0,517500	0,1	0,070647
0,519167	0,1	0,054123
0,520833	0,1	0,042545
0,522500	0,1	0,086469
0,524167	0,1	0,045088
0,525833	0,1	0,054345
0,527500	0,1	0,095854
0,529167	0,1	0,084742
0,530833	0,1	0,063420
0,532500	0,1	0,059455
0,534167	0,1	0,091860
0,535833	0,1	0,056790
0,537500	0,1	0,078467
0,539167	0,1	0,056054
0,540833	0,1	0,096536
0,542500	0,1	0,067167
0,544167	0,1	0,042524
0,545833	0,1	0,083861
0,547500	0,1	0,082747
0,549167	0,1	0,096089
0,550833	0,1	0,099786
0,552500	0,1	0,088893
0,554167	0,1	0,095483
0,555833	0,1	0,082777
0,557500	0,1	0,086569
0,559167	0,1	0,094414
0,560833	0,1	0,105247
0,562500	0,1	0,086800
0,564167	0,1	0,116806
0,565833	0,1	0,105037
0,567500	0,1	0,083574
0,569167	0,1	0,074225
0,570833	0,1	0,122971
0,572500	0,1	0,090374
0,574167	0,1	0,083834
0,575833	0,1	0,130589
0,577500	0,1	0,103463
0,579167	0,1	0,084961
0,580833	0,1	0,102394
0,582500	0,1	0,094808
0,584167	0,1	0,133139
0,585833	0,1	0,115404
0,587500	0,1	0,116613
0,589167	0,1	0,108822
0,590833	0,1	0,110117
0,592500	0,1	0,109889
0,594167	0,1	0,133396
0,595833	0,1	0,095585
0,597500	0,1	0,101589
0,599167	0,1	0,116835
0,600833	0,1	0,126966
0,602500	0,1	0,145302
0,604167	0,1	0,128006
0,605833	0,1	0,087891
0,607500	0,1	0,157793
0,609167	0,1	0,113017
0,610833	0,1	0,160118
0,612500	0,1	0,168880
0,614167	0,1	0,119451
0,615833	0,1	0,102455
0,617500	0,1	0,133420
0,619167	0,1	0,187398
0,620833	0,1	0,148940
0,622500	0,1	0,123857
0,624167	0,1	0,151598
0,625833	0,1	0,144048
0,627500	0,1	0,180546
0,629167	0,1	0,163795
0,630833	0,1	0,171651
0,632500	0,1	0,155151
0,634167	0,1	0,168299
0,635833	0,1	0,178813
0,637500	0,1	0,151357
0,639167	0,1	0,132535
0,640833	0,1	0,155104
0,642500	0,1	0,159358
0,644167	0,1	0,176209
0,645833	0,1	0,180618
0,647500	0,1	0,169875
0,649167	0,1	0,125465
0,650833	0,1	0,177199
0,652500	0,1	0,189878
0,654167	0,1	0,160009
0,655833	0,1	0,165529
0,657500	0,1	0,202264
0,659167	0,1	0,184935
0,660833	0,1	0,210661
0,662500	0,1	0,237074
0,664167	0,1	0,216878
0,665833	0,1	0,228006
0,667500	0,1	0,210671
0,669167	0,1	0,168596
0,670833	0,1	0,228157
0,672500	0,1	0,224665
0,674167	0,1	0,216263
0,675833	0,1	0,194939
0,677500	0,1	0,228771
0,679167	0,1	0,214431
0,680833	0,1	0,208192
0,682500	0,1	0,250873
0,684167	0,1	0,209842
0,685833	0,1	0,218483
0,687500	0,1	0,222699
0,689167	0,1	0,237141
0,690833	0,1	0,228812
0,692500	0,1	0,265031
0,694167	0,1	0,235540
0,695833	0,1	0,247727
0,697500	0,1	0,250176
0,699167	0,1	0,233671
0,700833	0,1	0,242581
0,702500	0,1	0,256636
0,704167	0,1	0,285913
0,705833	0,1	0,246226
0,707500	0,1	0,269538
0,709167	0,1	0,264142
0,710833	0,1	0,268477
0,712500	0,1	0,302064
0,714167	0,1	0,298244
0,715833	0,1	0,231719
0,717500	0,1	0,271270
0,719167	0,1	0,263140
0,720833	0,1	0,282537
0,722500	0,1	0,342506
0,724167	0,1	0,231150
0,725833	0,1	0,320489
0,727500	0,1	0,265565
0,729167	0,1	0,314865
0,730833	0,1	0,292102
0,732500	0,1	0,321564
0,734167	0,1	0,352811
0,735833	0,1	0,332323
0,737500	0,1	0,327621
0,739167	0,1	0,360436
0,740833	0,1	0,329720
0,742500	0,1	0,341712
0,744167	0,1	0,396541
0,745833	0,1	0,335229
0,747500	0,1	0,384439
0,749167	0,1	0,363250
0,750833	0,1	0,386667
0,752500	0,1	0,387090
0,754167	0,1	0,360677
0,755833	0,1	0,408161
0,757500	0,1	0,365701
0,759167	0,1	0,395548
0,760833	0,1	0,363284
0,762500	0,1	0,342204
0,764167	0,1	0,360761
0,765833	0,1	0,363438
0,767500	0,1	0,383773
0,769167	0,1	0,372547
0,770833	0,1	0,386895
0,772500	0,1	0,364505
0,774167	0,1	0,340017
0,775833	0,1	0,387337
0,777500	0,1	0,386223
0,779167	0,1	0,351025
0,780833	0,1	0,353364
0,782500	0,1	0,391008
0,784167	0,1	0,401892
0,785833	0,1	0,406208
0,787500	0,1	0,367889
0,789167	0,1	0,400505
0,790833	0,1	0,364348
0,792500	0,1	0,387119
0,794167	0,1	0,320170
0,795833	0,1	0,376297
0,797500	0,1	0,373382
0,799167	0,1	0,373059
0,800833	0,1	0,387765
0,802500	0,1	0,394684
0,804167	0,1	0,420720
0,805833	0,1	0,370402
0,807500	0,1	0,361219
0,809167	0,1	0,377787
0,810833	0,1	0,382648
0,812500	0,1	0,386608
0,814167	0,1	0,427535
0,815833	0,1	0,366573
0,817500	0,1	0,365207
0,819167	0,1	0,385897
0,820833	0,1	0,407747
0,822500	0,1	0,438255
0,824167	0,1	0,368699
0,825833	0,1	0,377661
0,827500	0,1	0,384099
0,829167	0,1	0,352054
0,830833	0,1	0,418036
0,832500	0,1	0,365961
0,834167	0,1	0,386313
0,835833	0,1	0,402055
0,837500	0,1	0,374096
0,839167	0,1	0,384225
0,840833	0,1	0,371068
0,842500	0,1	0,439893
0,844167	0,1	0,383436
0,845833	0,1	0,385417
0,847500	0,1	0,386511
0,849167	0,1	0,371874
0,850833	0,1	0,404688
0,852500	0,1	0,389733
0,854167	0,1	0,371875
0,855833	0,1	0,426921
0,857500	0,1	0,409303
0,859167	0,1	0,417535
0,860833	0,1	0,380439
0,862500	0,1	0,385675
0,864167	0,1	0,417465
0,865833	0,1	0,420112
0,867500	0,1	0,418217
0,869167	0,1	0,434914
0,870833	0,1	0,394889
0,872500	0,1	0,402860
0,874167	0,1	0,396011
0,875833	0,1	0,430537
0,877500	0,1	0,399492
0,879167	0,1	0,420916
0,880833	0,1	0,373234
0,882500	0,1	0,405140
0,884167	0,1	0,395783
0,885833	0,1	0,434394
0,887500	0,1	0,394503
0,889167	0,1	0,413059
0,890833	0,1	0,419114
0,892500	0,1	0,407047
0,894167	0,1	0,424359
0,895833	0,1	0,497957
0,897500	0,1	0,437543
0,899167	0,1	0,407087
0,900833	0,1	0,452324
0,902500	0,1	0,439653
0,904167	0,1	0,429451
0,905833	0,1	0,461854
0,907500	0,1	0,456199
0,909167	0,1	0,449308
0,910833	0,1	0,435630
0,912500	0,1	0,465907
0,914167	0,1	0,475154
0,915833	0,1	0,422570
0,917500	0,1	0,479485
0,919167	0,1	0,493622
0,920833	0,1	0,479342
0,922500	0,1	0,425310
0,924167	0,1	0,461757
0,925833	0,1	0,472480
0,927500	0,1	0,500057
0,929167	0,1	0,491987
0,930833	0,1	0,484360
0,932500	0,1	0,496009
0,934167	0,1	0,476189
0,935833	0,1	0,512483
0,937500	0,1	0,494794
0,939167	0,1	0,540941
0,940833	0,1	0,513765
0,942500	0,1	0,512622
0,944167	0,1	0,502323
0,945833	0,1	0,489258
0,947500	0,1	0,508596
0,949167	0,1	0,484974
0,950833	0,1	0,503220
0,952500	0,1	0,547828
0,954167	0,1	0,508573
0,955833	0,1	0,513237
0,957500	0,1	0,552850
0,959167	0,1	0,534621
0,960833	0,1	0,482765
0,962500	0,1	0,535853
0,964167	0,1	0,519129
0,965833	0,1	0,560550
0,967500	0,1	0,545370
0,969167	0,1	0,551804
0,970833	0,1	0,547392
0,972500	0,1	0,516269
0,974167	0,1	0,546740
0,975833	0,1	0,555433
0,977500	0,1	0,566575
0,979167	0,1	0,541667
0,980833	0,1	0,555405
0,982500	0,1	0,519395
0,984167	0,1	0,602367
0,985833	0,1	0,592981
0,987500	0,1	0,614028
0,989167	0,1	0,601877
0,990833	0,1	0,620731
0,992500	0,1	0,588639
0,994167	0,1	0,631070
0,995833	0,1	0,608767
0,997500	0,1	0,624570
0,999167	0,1	0,624600
1,000833	0,1	0,630985
1,002500	0,1	0,650684
1,004167	0,1	0,668417
1,005833	0,1	0,649052
1,007500	0,1	0,676275
1,009167	0,1	0,706653
1,010833	0,1	0,676040
1,012500	0,1	0,684758
1,014167	0,1	0,672552
1,015833	0,1	0,742435
1,017500	0,1	0,687259
1,019167	0,1	0,739658
1,020833	0,1	0,719640
1,022500	0,1	0,736733
1,024167	0,1	0,769451
1,025833	0,1	0,773168
1,027500	0,1	0,802286
1,029167	0,1	0,768065
1,030833	0,1	0,788427
1,032500	0,1	0,790829
1,034167	0,1	0,821969
1,035833	0,1	0,841791
1,037500	0,1	0,869675
1,039167	0,1	0,858195
1,040833	0,1	0,866945
1,042500	0,1	0,882699
1,044167	0,1	0,902785
1,045833	0,1	0,902213
1,047500	0,1	0,908187
1,049167	0,1	0,900905
1,050833	0,1	0,952913
1,052500	0,1	0,988742
1,054167	0,1	0,998129
1,055833	0,1	1,069158
1,057500	0,1	1,123300
1,059167	0,1	1,212432
1,060833	0,1	1,345317
1,062500	0,1	1,423229
1,064167	0,1	1,646934
1,065833	0,1	1,918912
1,067500	0,1	2,221021
1,069167	0,1	2,631349
1,070833	0,1	3,092984
1,072500	0,1	3,699010
1,074167	0,1	4,510241
1,075833	0,1	5,340627
1,077500	0,1	6,429116
1,079167	0,1	7,638053
1,080833	0,1	9,009716
1,082500	0,1	10,655918
1,084167	0,1	12,442701
1,085833	0,1	14,367541
1,087500	0,1	16,479401
1,089167	0,1	18,740055
1,090833	0,1	21,112775
1,092500	0,1	23,583910
1,094167	0,1	26,085022
1,095833	0,1	28,644774
1,097500	0,1	31,110267
1,099167	0,1	33,598057
1,100833	0,1	35,969681
1,102500	0,1	38,198749
1,104167	0,1	40,298930
1,105833	0,1	42,182469
1,107500	0,1	43,869843
1,109167	0,1	45,341417
1,110833	0,1	46,588034
1,112500	0,1	47,628360
1,114167	0,1	48,420895
1,115833	0,1	48,906038
1,117500	0,1	49,267239
1,119167	0,1	49,393589
1,120833	0,1	49,452707
1,122500	0,1	49,159756
1,124167	0,1	48,737711
1,125833	0,1	48,273999
1,127500	0,1	47,632706
1,129167	0,1	46,920623
1,130833	0,1	46,117061
1,132500	0,1	45,221741
1,134167	0,1	44,265684
1,135833	0,1	43,346364
1,137500	0,1	42,356169
1,139167	0,1	41,373834
1,140833	0,1	40,401176
1,142500	0,1	39,498133
1,144167	0,1	38,591307
1,145833	0,1	37,691868
1,147500	0,1	36,863554
1,149167	0,1	36,174958
1,150833	0,1	35,449812
1,152500	0,1	34,825282
1,154167	0,1	34,322196
1,155833	0,1	33,870524
1,157500	0,1	33,461418
1,159167	0,1	33,129816
1,160833	0,1	32,805817
1,162500	0,1	32,608721
1,164167	0,1	32,479086
1,165833	0,1	32,332998
1,167500	0,1	32,234146
1,169167	0,1	32,227977
1,170833	0,1	32,181971
1,172500	0,1	32,192377
1,174167	0,1	32,235674
1,175833	0,1	32,219183
1,177500	0,1	32,240164
1,179167	0,1	32,242610
1,180833	0,1	32,215844
1,182500	0,1	32,190369
1,184167	0,1	32,218151
1,185833	0,1	32,232727
1,187500	0,1	32,240109
1,189167	0,1	32,211689
1,190833	0,1	32,244134
1,192500	0,1	32,260194
1,194167	0,1	32,333919
1,195833	0,1	32,528033
1,197500	0,1	32,707909
1,199167	0,1	33,081255
1,200833	0,1	33,487638
1,202500	0,1	34,118831
1,204167	0,1	34,864671
1,205833	0,1	35,801251
1,207500	0,1	36,946153
1,209167	0,1	38,255124
1,210833	0,1	39,888293
1,212500	0,1	41,722640
1,214167	0,1	43,754297
1,215833	0,1	46,090804
1,217500	0,1	48,628374
1,219167	0,1	51,365330
1,220833	0,1	54,345368
1,222500	0,1	57,472625
1,224167	0,1	60,781887
1,225833	0,1	64,244510
1,227500	0,1	67,728540
1,229167	0,1	71,267846
1,230833	0,1	74,845431
1,232500	0,1	78,376742
1,234167	0,1	81,853892
1,235833	0,1	85,213440
1,237500	0,1	88,431756
1,239167	0,1	91,544351
1,240833	0,1	94,406532
1,242500	0,1	97,043364
1,244167	0,1	99,559198
1,245833	0,1	101,742649
1,247500	0,1	103,754135
1,249167	0,1	105,433210
1,250833	0,1	106,859347
1,252500	0,1	108,058673
1,254167	0,1	108,988008
1,255833	0,1	109,686026
1,257500	0,1	110,102824
1,259167	0,1	110,260052
1,260833	0,1	110,205412
1,262500	0,1	109,928309
1,264167	0,1	109,335606
1,265833	0,1	108,559144
1,267500	0,1	107,548633
1,269167	0,1	106,425118
1,270833	0,1	105,076974
1,272500	0,1	103,533504
1,274167	0,1	101,897675
1,275833	0,1	100,103090
1,277500	0,1	98,086747
1,279167	0,1	96,111057
1,280833	0,1	94,009356
1,282500	0,1	91,808415
1,284167	0,1	89,462568
1,285833	0,1	87,127629
1,287500	0,1	84,854122
1,289167	0,1	82,546739
1,290833	0,1	80,161186
1,292500	0,1	77,828702
1,294167	0,1	75,492087
1,295833	0,1	73,199869
1,297500	0,1	70,961265
1,299167	0,1	68,829119
1,300833	0,1	66,628336
1,302500	0,1	64,576267
1,304167	0,1	62,522573
1,305833	0,1	60,596973
1,307500	0,1	58,756182
1,309167	0,1	56,974907
1,310833	0,1	55,246261
1,312500	0,1	53,604532
1,314167	0,1	52,005942
1,315833	0,1	50,528834
1,317500	0,1	49,086238
1,319167	0,1	47,671353
1,320833	0,1	46,374325
1,322500	0,1	45,183551
1,324167	0,1	43,983449
1,325833	0,1	42,794881
1,327500	0,1	41,711913
1,329167	0,1	40,670914
1,330833	0,1	39,719127
1,332500	0,1	38,761298
1,334167	0,1	37,826295
1,335833	0,1	36,925412
1,337500	0,1	36,071343
1,339167	0,1	35,257517
1,340833	0,1	34,470091
1,342500	0,1	33,727435
1,344167	0,1	33,020522
1,345833	0,1	32,243612
1,347500	0,1	31,586174
1,349167	0,1	30,886633
1,350833	0,1	30,236504
1,352500	0,1	29,580853
1,354167	0,1	28,917170
1,355833	0,1	28,365641
1,357500	0,1	27,733936
1,359167	0,1	27,178386
1,360833	0,1	26,624881
1,362500	0,1	25,984785
1,364167	0,1	25,526953
1,365833	0,1	24,952157
1,367500	0,1	24,461651
1,369167	0,1	23,922133
1,370833	0,1	23,403044
1,372500	0,1	22,888535
1,374167	0,1	22,434275
1,375833	0,1	21,974112
1,377500	0,1	21,523113
1,379167	0,1	21,056870
1,380833	0,1	20,623296
1,382500	0,1	20,192594
1,384167	0,1	19,778077
1,385833	0,1	19,327992
1,387500	0,1	18,967695
1,389167	0,1	18,552092
1,390833	0,1	18,205801
1,392500	0,1	17,884865
1,394167	0,1	17,513280
1,395833	0,1	17,167108
1,397500	0,1	16,810034
1,399167	0,1	16,465490
1,400833	0,1	16,227549
1,402500	0,1	15,909013
1,404167	0,1	15,660510
1,405833	0,1	15,403772
1,407500	0,1	15,106852
1,409167	0,1	14,838554
1,410833	0,1	14,578561
1,412500	0,1	14,316093
1,414167	0,1	14,067672
1,415833	0,1	13,876797
1,417500	0,1	13,646918
1,419167	0,1	13,447945
1,420833	0,1	13,287388
1,422500	0,1	13,078625
1,424167	0,1	12,893140
1,425833	0,1	12,687523
1,427500	0,1	12,496464
1,429167	0,1	12,355579
1,430833	0,1	12,167128
1,432500	0,1	12,030736
1,434167	0,1	11,831514
1,435833	0,1	11,694069
1,437500	0,1	11,539741
1,439167	0,1	11,348161
1,440833	0,1	11,204563
1,442500	0,1	11,074158
1,444167	0,1	10,924353
1,445833	0,1	10,766768
1,447500	0,1	10,604082
1,449167	0,1	10,537338
1,450833	0,1	10,360048
1,452500	0,1	10,225096
1,454167	0,1	10,079438
1,455833	0,1	10,004845
1,457500	0,1	9,853698
1,459167	0,1	9,721318
1,460833	0,1	9,580923
1,462500	0,1	9,469611
1,464167	0,1	9,344512
1,465833	0,1	9,267694
1,467500	0,1	9,190521
1,469167	0,1	9,028057
1,470833	0,1	8,927941
1,472500	0,1	8,876935
1,474167	0,1	8,748674
1,475833	0,1	8,690538
1,477500	0,1	8,633213
1,479167	0,1	8,537937
1,480833	0,1	8,441487
1,482500	0,1	8,352541
1,484167	0,1	8,303900
1,485833	0,1	8,240468
1,487500	0,1	8,205860
1,489167	0,1	8,155744
1,490833	0,1	8,105707
1,492500	0,1	8,026103
1,494167	0,1	8,012133
1,495833	0,1	7,945251
1,497500	0,1	7,906882
1,499167	0,1	7,876378
1,500833	0,1	7,811197
1,502500	0,1	7,739444
1,504167	0,1	7,742158
1,505833	0,1	7,773772
1,507500	0,1	7,702882
1,509167	0,1	7,679960
1,510833	0,1	7,645116
1,512500	0,1	7,672456
1,514167	0,1	7,655884
1,515833	0,1	7,598058
1,517500	0,1	7,543947
1,519167	0,1	7,565962
1,520833	0,1	7,539070
1,522500	0,1	7,482344
1,524167	0,1	7,472595
1,525833	0,1	7,439908
1,527500	0,1	7,445661
1,529167	0,1	7,392130
1,530833	0,1	7,438658
1,532500	0,1	7,378309
1,534167	0,1	7,346077
1,535833	0,1	7,341387
1,537500	0,1	7,305246
1,539167	0,1	7,244619
1,540833	0,1	7,273738
1,542500	0,1	7,238727
1,544167	0,1	7,163460
1,545833	0,1	7,166777
1,547500	0,1	7,167259
1,549167	0,1	7,093682
1,550833	0,1	7,088248
1,552500	0,1	7,060521
1,554167	0,1	6,996761
1,555833	0,1	6,974251
1,557500	0,1	6,978446
1,559167	0,1	6,902199
1,560833	0,1	6,868211
1,562500	0,1	6,876415
1,564167	0,1	6,809703
1,565833	0,1	6,805861
1,567500	0,1	6,765464
1,569167	0,1	6,741664
1,570833	0,1	6,725148
1,572500	0,1	6,710407
1,574167	0,1	6,640725
1,575833	0,1	6,592312
1,577500	0,1	6,566461
1,579167	0,1	6,585106
1,580833	0,1	6,508479
1,582500	0,1	6,456983
1,584167	0,1	6,446815
1,585833	0,1	6,411764
1,587500	0,1	6,346125
1,589167	0,1	6,343492
1,590833	0,1	6,323002
1,592500	0,1	6,314629
1,594167	0,1	6,247152
1,595833	0,1	6,245179
1,597500	0,1	6,223103
1,599167	0,1	6,167543
1,600833	0,1	6,164850
1,602500	0,1	6,081926
1,604167	0,1	6,102883
1,605833	0,1	6,051065
1,607500	0,1	6,002936
1,609167	0,1	5,988200
1,610833	0,1	5,941634
1,612500	0,1	5,935131
1,614167	0,1	5,883971
1,615833	0,1	5,870953
1,617500	0,1	5,837597
1,619167	0,1	5,820011
1,620833	0,1	5,794209
1,622500	0,1	5,734276
1,624167	0,1	5,684575
1,625833	0,1	5,705884
1,627500	0,1	5,679077
1,629167	0,1	5,645303
1,630833	0,1	5,610459
1,632500	0,1	5,577127
1,634167	0,1	5,563042
1,635833	0,1	5,529789
1,637500	0,1	5,563702
1,639167	0,1	5,453850
1,640833	0,1	5,466388
1,642500	0,1	5,447638
1,644167	0,1	5,424263
1,645833	0,1	5,418744
1,647500	0,1	5,389339
1,649167	0,1	5,353791
1,650833	0,1	5,330523
1,652500	0,1	5,299387
1,654167	0,1	5,282544
1,655833	0,1	5,319032
1,657500	0,1	5,293762
1,659167	0,1	5,231155
1,660833	0,1	5,198533
1,662500	0,1	5,232912
1,664167	0,1	5,222461
1,665833	0,1	5,235559
1,667500	0,1	5,196104
1,669167	0,1	5,188665
1,670833	0,1	5,230259
1,672500	0,1	5,201098
1,674167	0,1	5,237359
1,675833	0,1	5,197036
1,677500	0,1	5,241435
1,679167	0,1	5,229449
1,680833	0,1	5,225015
1,682500	0,1	5,292853
1,684167	0,1	5,246945
1,685833	0,1	5,314769
1,687500	0,1	5,359067
1,689167	0,1	5,375113
1,690833	0,1	5,403172
1,692500	0,1	5,401293
1,694167	0,1	5,439897
1,695833	0,1	5,505579
1,697500	0,1	5,555386
1,699167	0,1	5,561434
1,700833	0,1	5,657159
1,702500	0,1	5,693715
1,704167	0,1	5,724851
1,705833	0,1	5,752519
1,707500	0,1	5,853313
1,709167	0,1	5,874767
1,710833	0,1	5,906872
1,712500	0,1	5,983435
1,714167	0,1	6,038809
1,715833	0,1	6,092912
1,717500	0,1	6,105754
1,719167	0,1	6,195305
1,720833	0,1	6,192782
1,722500	0,1	6,299487
1,724167	0,1	6,335492
1,725833	0,1	6,420415
1,727500	0,1	6,391056
1,729167	0,1	6,415470
1,730833	0,1	6,436174
1,732500	0,1	6,489967
1,734167	0,1	6,487100
1,735833	0,1	6,527370
1,737500	0,1	6,594429
1,739167	0,1	6,605633
1,740833	0,1	6,619162
1,742500	0,1	6,607877
1,744167	0,1	6,647886
1,745833	0,1	6,618051
1,747500	0,1	6,629327
1,749167	0,1	6,602188
1,750833	0,1	6,639305
1,752500	0,1	6,644815
1,754167	0,1	6,623179
1,755833	0,1	6,627370
1,757500	0,1	6,594168
1,759167	0,1	6,544927
1,760833	0,1	6,543052
1,762500	0,1	6,520115
1,764167	0,1	6,465279
1,765833	0,1	6,433217
1,767500	0,1	6,425367
1,769167	0,1	6,369909
1,770833	0,1	6,333270
1,772500	0,1	6,279390
1,774167	0,1	6,258215
1,775833	0,1	6,230462
1,777500	0,1	6,156569
1,779167	0,1	6,136135
1,780833	0,1	6,075412
1,782500	0,1	6,025579
1,784167	0,1	5,931839
1,785833	0,1	5,889836
1,787500	0,1	5,858010
1,789167	0,1	5,817127
1,790833	0,1	5,693593
1,792500	0,1	5,642262
1,794167	0,1	5,590460
1,795833	0,1	5,557818
1,797500	0,1	5,484968
1,799167	0,1	5,447120
1,800833	0,1	5,379865
1,802500	0,1	5,335282
1,804167	0,1	5,219946
1,805833	0,1	5,191729
1,807500	0,1	5,102906
1,809167	0,1	5,058649
1,810833	0,1	5,009094
1,812500	0,1	4,960301
1,814167	0,1	4,918191
1,815833	0,1	4,824526
1,817500	0,1	4,782468
1,819167	0,1	4,754264
1,820833	0,1	4,673768
1,822500	0,1	4,613962
1,824167	0,1	4,568297
1,825833	0,1	4,482907
1,827500	0,1	4,430626
1,829167	0,1	4,394926
1,830833	0,1	4,343702
1,832500	0,1	4,360723
1,834167	0,1	4,247713
1,835833	0,1	4,280666
1,837500	0,1	4,190725
1,839167	0,1	4,197801
1,840833	0,1	4,155445
1,842500	0,1	4,109229
1,844167	0,1	4,151247
1,845833	0,1	4,116083
1,847500	0,1	4,089992
1,849167	0,1	4,150632
1,850833	0,1	4,190204
1,852500	0,1	4,153781
1,854167	0,1	4,218035
1,855833	0,1	4,232456
1,857500	0,1	4,277385
1,859167	0,1	4,316199
1,860833	0,1	4,333645
1,862500	0,1	4,384156
1,864167	0,1	4,374344
1,865833	0,1	4,455212
1,867500	0,1	4,451251
1,869167	0,1	4,510068
1,870833	0,1	4,580617
1,872500	0,1	4,617588
1,874167	0,1	4,623411
1,875833	0,1	4,642960
1,877500	0,1	4,678857
1,879167	0,1	4,693948
1,880833	0,1	4,764015
1,882500	0,1	4,745799
1,884167	0,1	4,814677
1,885833	0,1	4,858759
1,887500	0,1	4,867818
1,889167	0,1	4,863297
1,890833	0,1	4,915793
1,892500	0,1	4,912186
1,894167	0,1	4,950496
1,895833	0,1	4,970666
1,897500	0,1	5,023237
1,899167	0,1	4,996893
1,900833	0,1	5,019261
1,902500	0,1	5,034253
1,904167	0,1	5,048790
1,905833	0,1	5,065478
1,907500	0,1	5,080562
1,909167	0,1	5,111901
1,910833	0,1	5,073417
1,912500	0,1	5,094762
1,914167	0,1	5,150682
1,915833	0,1	5,138447
1,917500	0,1	5,121331
1,919167	0,1	5,141409
1,920833	0,1	5,120852
1,922500	0,1	5,107127
1,924167	0,1	5,066602
1,925833	0,1	5,092751
1,927500	0,1	5,063424
1,929167	0,1	5,057676
1,930833	0,1	5,096139
1,932500	0,1	5,085175
1,934167	0,1	5,003048
1,935833	0,1	5,012952
1,937500	0,1	5,009333
1,939167	0,1	5,004044
1,940833	0,1	4,945202
1,942500	0,1	4,935322
1,944167	0,1	4,886861
1,945833	0,1	4,890355
1,947500	0,1	4,877098
1,949167	0,1	4,835062
1,950833	0,1	4,833661
1,952500	0,1	4,819533
1,954167	0,1	4,787278
1,955833	0,1	4,768274
1,957500	0,1	4,737832
1,959167	0,1	4,737091
1,960833	0,1	4,740801
1,962500	0,1	4,679896
1,964167	0,1	4,653152
1,965833	0,1	4,629769
1,967500	0,1	4,574930
1,969167	0,1	4,606989
1,970833	0,1	4,565178
1,972500	0,1	4,566903
1,974167	0,1	4,544481
1,975833	0,1	4,545573
1,977500	0,1	4,461182
1,979167	0,1	4,456922
1,980833	0,1	4,427868
1,982500	0,1	4,449484
1,984167	0,1	4,416786
1,985833	0,1	4,414207
1,987500	0,1	4,418551
1,989167	0,1	4,384541
1,990833	0,1	4,373410
1,992500	0,1	4,341459
1,994167	0,1	4,349244
1,995833	0,1	4,321404
1,997500	0,1	4,287392
1,999167	0,1	4,285840
2,000833	0,1	4,223268
2,002500	0,1	4,293534
2,004167	0,1	4,273792
2,005833	0,1	4,295216
2,007500	0,1	4,274922
2,009167	0,1	4,295747
2,010833	0,1	4,265837
2,012500	0,1	4,254832
2,014167	0,1	4,280228
2,015833	0,1	4,243312
2,017500	0,1	4,241192
2,019167	0,1	4,223295
2,020833	0,1	4,233923
2,022500	0,1	4,268296
2,024167	0,1	4,205531
2,025833	0,1	4,235699
2,027500	0,1	4,205074
2,029167	0,1	4,188229
2,030833	0,1	4,274696
2,032500	0,1	4,237990
2,034167	0,1	4,232865
2,035833	0,1	4,255510
2,037500	0,1	4,236813
2,039167	0,1	4,282089
2,040833	0,1	4,234669
2,042500	0,1	4,257791
2,044167	0,1	4,257791
2,045833	0,1	4,257182
2,047500	0,1	4,283675
2,049167	0,1	4,293713
2,050833	0,1	4,306538
2,052500	0,1	4,284300
2,054167	0,1	4,300206
2,055833	0,1	4,314614
2,057500	0,1	4,337592
2,059167	0,1	4,330821
2,060833	0,1	4,367672
2,062500	0,1	4,334111
2,064167	0,1	4,380497
2,065833	0,1	4,365286
2,067500	0,1	4,413663
2,069167	0,1	4,359202
2,070833	0,1	4,372351
2,072500	0,1	4,415011
2,074167	0,1	4,407794
2,075833	0,1	4,397446
2,077500	0,1	4,438682
2,079167	0,1	4,419856
2,080833	0,1	4,443081
2,082500	0,1	4,421971
2,084167	0,1	4,472950
2,085833	0,1	4,441666
2,087500	0,1	4,452582
2,089167	0,1	4,442476
2,090833	0,1	4,510301
2,092500	0,1	4,470373
2,094167	0,1	4,481372
2,095833	0,1	4,503496
2,097500	0,1	4,508085
2,099167	0,1	4,499322
2,100833	0,1	4,466083
2,102500	0,1	4,510154
2,104167	0,1	4,475416
2,105833	0,1	4,531065
2,107500	0,1	4,536925
2,109167	0,1	4,530928
2,110833	0,1	4,546670
2,112500	0,1	4,514555
2,114167	0,1	4,567208
2,115833	0,1	4,529968
2,117500	0,1	4,513252
2,119167	0,1	4,514196
2,120833	0,1	4,528406
2,122500	0,1	4,518864
2,124167	0,1	4,510217
2,125833	0,1	4,506281
2,127500	0,1	4,548213
2,129167	0,1	4,521633
2,130833	0,1	4,523543
2,132500	0,1	4,475386
2,134167	0,1	4,543008
2,135833	0,1	4,498078
2,137500	0,1	4,512927
2,139167	0,1	4,502572
2,140833	0,1	4,481579
2,142500	0,1	4,459620
2,144167	0,1	4,493995
2,145833	0,1	4,481875
2,147500	0,1	4,493539
2,149167	0,1	4,463554
2,150833	0,1	4,446989
2,152500	0,1	4,440289
2,154167	0,1	4,447587
2,155833	0,1	4,421168
2,157500	0,1	4,404476
2,159167	0,1	4,473111
2,160833	0,1	4,413015
2,162500	0,1	4,414371
2,164167	0,1	4,433336
2,165833	0,1	4,408778
2,167500	0,1	4,350356
2,169167	0,1	4,380263
2,170833	0,1	4,394356
2,172500	0,1	4,414897
2,174167	0,1	4,362414
2,175833	0,1	4,379379
2,177500	0,1	4,399580
2,179167	0,1	4,370451
2,180833	0,1	4,321535
2,182500	0,1	4,325376
2,184167	0,1	4,328667
2,185833	0,1	4,358177
2,187500	0,1	4,321047
2,189167	0,1	4,288041
2,190833	0,1	4,313761
2,192500	0,1	4,300338
2,194167	0,1	4,327848
2,195833	0,1	4,296193
2,197500	0,1	4,329341
2,199167	0,1	4,311741
2,200833	0,1	4,287023
2,202500	0,1	4,274276
2,204167	0,1	4,292323
2,205833	0,1	4,216978
2,207500	0,1	4,249866
2,209167	0,1	4,254097
2,210833	0,1	4,252509
2,212500	0,1	4,236163
2,214167	0,1	4,240415
2,215833	0,1	4,269878
2,217500	0,1	4,254184
2,219167	0,1	4,255193
2,220833	0,1	4,264038
2,222500	0,1	4,256576
2,224167	0,1	4,266675
2,225833	0,1	4,253167
2,227500	0,1	4,276210
2,229167	0,1	4,260432
2,230833	0,1	4,250613
2,232500	0,1	4,269395
2,234167	0,1	4,241966
2,235833	0,1	4,255921
2,237500	0,1	4,238235
2,239167	0,1	4,312047
2,240833	0,1	4,274359
2,242500	0,1	4,295740
2,244167	0,1	4,269891
2,245833	0,1	4,278812
2,247500	0,1	4,334457
2,249167	0,1	4,344083
2,250833	0,1	4,280009
2,252500	0,1	4,297444
2,254167	0,1	4,291407
2,255833	0,1	4,327153
2,257500	0,1	4,309136
2,259167	0,1	4,266207
2,260833	0,1	4,286199
2,262500	0,1	4,276585
2,264167	0,1	4,298181
2,265833	0,1	4,272980
2,267500	0,1	4,313794
2,269167	0,1	4,272210
2,270833	0,1	4,285147
2,272500	0,1	4,268754
2,274167	0,1	4,278938
2,275833	0,1	4,254349
2,277500	0,1	4,258844
2,279167	0,1	4,314561
2,280833	0,1	4,250745
2,282500	0,1	4,207274
2,284167	0,1	4,291507
2,285833	0,1	4,271429
2,287500	0,1	4,248826
2,289167	0,1	4,185236
2,290833	0,1	4,191432
2,292500	0,1	4,185914
2,294167	0,1	4,195814
2,295833	0,1	4,179180
2,297500	0,1	4,134955
2,299167	0,1	4,205373
2,300833	0,1	4,094758
2,302500	0,1	4,099761
2,304167	0,1	4,104630
2,305833	0,1	4,094653
2,307500	0,1	4,066175
2,309167	0,1	4,085031
2,310833	0,1	4,086416
2,312500	0,1	4,081710
2,314167	0,1	4,048611
2,315833	0,1	4,020534
2,317500	0,1	3,983335
2,319167	0,1	3,957738
2,320833	0,1	3,964262
2,322500	0,1	3,988319
2,324167	0,1	3,964269
2,325833	0,1	3,913656
2,327500	0,1	3,888228
2,329167	0,1	3,882864
2,330833	0,1	3,889598
2,332500	0,1	3,889512
2,334167	0,1	3,862629
2,335833	0,1	3,869732
2,337500	0,1	3,826059
2,339167	0,1	3,776846
2,340833	0,1	3,703244
2,342500	0,1	3,774700
2,344167	0,1	3,740790
2,345833	0,1	3,758894
2,347500	0,1	3,715826
2,349167	0,1	3,705282
2,350833	0,1	3,694480
2,352500	0,1	3,676698
2,354167	0,1	3,660895
2,355833	0,1	3,673496
2,357500	0,1	3,623401
2,359167	0,1	3,640105
2,360833	0,1	3,615170
2,362500	0,1	3,579744
2,364167	0,1	3,619282
2,365833	0,1	3,615339
2,367500	0,1	3,596678
2,369167	0,1	3,565890
2,370833	0,1	3,537961
2,372500	0,1	3,564629
2,374167	0,1	3,553537
2,375833	0,1	3,589836
2,377500	0,1	3,538997
2,379167	0,1	3,591885
2,380833	0,1	3,556275
2,382500	0,1	3,602644
2,384167	0,1	3,606417
2,385833	0,1	3,662333
2,387500	0,1	3,673591
2,389167	0,1	3,667932
2,390833	0,1	3,706409
2,392500	0,1	3,733389
2,394167	0,1	3,786679
2,395833	0,1	3,845305
2,397500	0,1	3,889662
2,399167	0,1	3,940566
2,400833	0,1	4,035558
2,402500	0,1	4,098167
2,404167	0,1	4,150148
2,405833	0,1	4,256707
2,407500	0,1	4,365503
2,409167	0,1	4,416236
2,410833	0,1	4,568666
2,412500	0,1	4,685023
2,414167	0,1	4,829893
2,415833	0,1	4,984014
2,417500	0,1	5,128142
2,419167	0,1	5,301377
2,420833	0,1	5,459688
2,422500	0,1	5,683172
2,424167	0,1	5,817900
2,425833	0,1	6,063240
2,427500	0,1	6,251169
2,429167	0,1	6,455066
2,430833	0,1	6,658480
2,432500	0,1	6,903894
2,434167	0,1	7,130025
2,435833	0,1	7,347229
2,437500	0,1	7,597426
2,439167	0,1	7,838905
2,440833	0,1	8,090883
2,442500	0,1	8,339749
2,444167	0,1	8,562303
2,445833	0,1	8,812441
2,447500	0,1	9,060169
2,449167	0,1	9,276098
2,450833	0,1	9,532008
2,452500	0,1	9,719481
2,454167	0,1	9,971802
2,455833	0,1	10,228570
2,457500	0,1	10,479226
2,459167	0,1	10,657100
2,460833	0,1	10,883094
2,462500	0,1	11,068016
2,464167	0,1	11,268382
2,465833	0,1	11,463717
2,467500	0,1	11,653609
2,469167	0,1	11,812535
2,470833	0,1	12,041034
2,472500	0,1	12,217460
2,474167	0,1	12,351376
2,475833	0,1	12,508956
2,477500	0,1	12,690021
2,479167	0,1	12,837926
2,480833	0,1	12,968022
2,482500	0,1	13,107905
2,484167	0,1	13,286594
2,485833	0,1	13,406320
2,487500	0,1	13,595553
2,489167	0,1	13,725395
2,490833	0,1	13,922307
2,492500	0,1	14,083378
2,494167	0,1	14,236369
2,495833	0,1	14,438602
2,497500	0,1	14,628238
2,499167	0,1	14,822782
2,500833	0,1	14,999133
2,502500	0,1	15,269738
2,504167	0,1	15,445111
2,505833	0,1	15,681329
2,507500	0,1	15,987454
2,509167	0,1	16,250031
2,510833	0,1	16,522111
2,512500	0,1	16,867862
2,514167	0,1	17,187126
2,515833	0,1	17,501853
2,517500	0,1	17,902547
2,519167	0,1	18,284159
2,520833	0,1	18,678506
2,522500	0,1	19,086362
2,524167	0,1	19,534090
2,525833	0,1	20,008905
2,527500	0,1	20,476711
2,529167	0,1	21,001497
2,530833	0,1	21,489454
2,532500	0,1	22,035269
2,534167	0,1	22,521966
2,535833	0,1	23,126287
2,537500	0,1	23,689462
2,539167	0,1	24,285324
2,540833	0,1	24,872016
2,542500	0,1	25,477232
2,544167	0,1	26,093443
2,545833	0,1	26,731023
2,547500	0,1	27,360442
2,549167	0,1	27,978184
2,550833	0,1	28,643467
2,552500	0,1	29,285595
2,554167	0,1	29,898211
2,555833	0,1	30,563760
2,557500	0,1	31,164946
2,559167	0,1	31,770843
2,560833	0,1	32,438842
2,562500	0,1	33,014226
2,564167	0,1	33,605045
2,565833	0,1	34,207601
2,567500	0,1	34,769981
2,569167	0,1	35,237671
2,570833	0,1	35,800630
2,572500	0,1	36,296541
2,574167	0,1	36,800696
2,575833	0,1	37,248928
2,577500	0,1	37,702035
2,579167	0,1	38,115355
2,580833	0,1	38,489711
2,582500	0,1	38,932415
2,584167	0,1	39,247440
2,585833	0,1	39,549965
2,587500	0,1	39,852086
2,589167	0,1	40,138603
2,590833	0,1	40,393209
2,592500	0,1	40,592684
2,594167	0,1	40,809233
2,595833	0,1	41,010170
2,597500	0,1	41,137819
2,599167	0,1	41,311282
2,600833	0,1	41,354379
2,602500	0,1	41,454085
2,604167	0,1	41,507508
2,605833	0,1	41,553324
2,607500	0,1	41,567579
2,609167	0,1	41,516733
2,610833	0,1	41,476820
2,612500	0,1	41,437951
2,614167	0,1	41,373111
2,615833	0,1	41,317192
2,617500	0,1	41,218990
2,619167	0,1	41,060640
2,620833	0,1	40,932056
2,622500	0,1	40,751000
2,624167	0,1	40,569298
2,625833	0,1	40,387393
2,627500	0,1	40,236080
2,629167	0,1	39,974791
2,630833	0,1	39,708962
2,632500	0,1	39,477210
2,634167	0,1	39,201141
2,635833	0,1	38,917127
2,637500	0,1	38,620450
2,639167	0,1	38,382844
2,640833	0,1	37,992709
2,642500	0,1	37,649393
2,644167	0,1	37,346977
2,645833	0,1	37,007436
2,647500	0,1	36,610562
2,649167	0,1	36,222894
2,650833	0,1	35,879325
2,652500	0,1	35,499048
2,654167	0,1	35,094541
2,655833	0,1	34,681229
2,657500	0,1	34,255114
2,659167	0,1	33,908538
2,660833	0,1	33,431284
2,662500	0,1	33,035805
2,664167	0,1	32,609017
2,665833	0,1	32,164817
2,667500	0,1	31,743703
2,669167	0,1	31,288594
2,670833	0,1	30,831467
2,672500	0,1	30,408766
2,674167	0,1	29,983135
2,675833	0,1	29,478940
2,677500	0,1	29,061043
2,679167	0,1	28,571589
2,680833	0,1	28,168463
2,682500	0,1	27,754169
2,684167	0,1	27,259295
2,685833	0,1	26,804031
2,687500	0,1	26,411829
2,689167	0,1	25,956729
2,690833	0,1	25,533047
2,692500	0,1	25,061630
2,694167	0,1	24,611716
2,695833	0,1	24,206308
2,697500	0,1	23,786309
2,699167	0,1	23,350512
2,700833	0,1	22,951751
2,702500	0,1	22,501931
2,704167	0,1	22,149211
2,705833	0,1	21,754723
2,707500	0,1	21,387738
2,709167	0,1	20,981831
2,710833	0,1	20,594487
2,712500	0,1	20,271596
2,714167	0,1	19,855440
2,715833	0,1	19,469801
2,717500	0,1	19,088604
2,719167	0,1	18,760479
2,720833	0,1	18,458636
2,722500	0,1	18,114958
2,724167	0,1	17,785220
2,725833	0,1	17,494189
2,727500	0,1	17,152197
2,729167	0,1	16,876691
2,730833	0,1	16,528127
2,732500	0,1	16,242819
2,734167	0,1	15,968250
2,735833	0,1	15,682520
2,737500	0,1	15,378988
2,739167	0,1	15,144102
2,740833	0,1	14,896049
2,742500	0,1	14,656010
2,744167	0,1	14,390440
2,745833	0,1	14,132573
2,747500	0,1	13,898291
2,749167	0,1	13,659258
2,750833	0,1	13,476039
2,752500	0,1	13,237384
2,754167	0,1	13,011507
2,755833	0,1	12,794089
2,757500	0,1	12,591733
2,759167	0,1	12,368428
2,760833	0,1	12,163399
2,762500	0,1	11,970512
2,764167	0,1	11,797341
2,765833	0,1	11,587179
2,767500	0,1	11,451666
2,769167	0,1	11,264835
2,770833	0,1	11,088651
2,772500	0,1	10,904153
2,774167	0,1	10,740942
2,775833	0,1	10,574921
2,777500	0,1	10,387985
2,779167	0,1	10,258675
2,780833	0,1	10,139948
2,782500	0,1	9,940541
2,784167	0,1	9,791893
2,785833	0,1	9,661093
2,787500	0,1	9,533797
2,789167	0,1	9,370491
2,790833	0,1	9,267455
2,792500	0,1	9,132704
2,794167	0,1	8,987448
2,795833	0,1	8,842713
2,797500	0,1	8,723433
2,799167	0,1	8,591580
2,800833	0,1	8,481085
2,802500	0,1	8,367503
2,804167	0,1	8,192314
2,805833	0,1	8,127829
2,807500	0,1	8,037915
2,809167	0,1	7,917101
2,810833	0,1	7,805120
2,812500	0,1	7,666716
2,814167	0,1	7,532272
2,815833	0,1	7,472799
2,817500	0,1	7,331544
2,819167	0,1	7,264511
2,820833	0,1	7,126014
2,822500	0,1	7,019275
2,824167	0,1	6,953536
2,825833	0,1	6,848162
2,827500	0,1	6,776296
2,829167	0,1	6,690083
2,830833	0,1	6,581506
2,832500	0,1	6,488427
2,834167	0,1	6,384364
2,835833	0,1	6,298987
2,837500	0,1	6,229512
2,839167	0,1	6,130284
2,840833	0,1	6,089944
2,842500	0,1	6,006729
2,844167	0,1	5,869323
2,845833	0,1	5,850274
2,847500	0,1	5,791181
2,849167	0,1	5,691157
2,850833	0,1	5,619800
2,852500	0,1	5,528658
2,854167	0,1	5,479381
2,855833	0,1	5,388987
2,857500	0,1	5,307643
2,859167	0,1	5,284804
2,860833	0,1	5,185618
2,862500	0,1	5,117645
2,864167	0,1	5,038122
2,865833	0,1	5,028090
2,867500	0,1	4,927934
2,869167	0,1	4,851888
2,870833	0,1	4,823154
2,872500	0,1	4,740729
2,874167	0,1	4,701691
2,875833	0,1	4,625415
2,877500	0,1	4,561168
2,879167	0,1	4,574414
2,880833	0,1	4,483877
2,882500	0,1	4,401526
2,884167	0,1	4,385186
2,885833	0,1	4,337198
2,887500	0,1	4,302488
2,889167	0,1	4,250737
2,890833	0,1	4,155419
2,892500	0,1	4,130363
2,894167	0,1	4,082532
2,895833	0,1	4,051611
2,897500	0,1	3,983950
2,899167	0,1	3,963780
2,900833	0,1	3,907782
2,902500	0,1	3,879625
2,904167	0,1	3,856557
2,905833	0,1	3,768128
2,907500	0,1	3,740458
2,909167	0,1	3,730199
2,910833	0,1	3,689485
2,912500	0,1	3,638031
2,914167	0,1	3,617084
2,915833	0,1	3,568204
2,917500	0,1	3,562975
2,919167	0,1	3,517788
2,920833	0,1	3,468232
2,922500	0,1	3,471925
2,924167	0,1	3,435114
2,925833	0,1	3,421082
2,927500	0,1	3,357811
2,929167	0,1	3,293085
2,930833	0,1	3,300118
2,932500	0,1	3,270451
2,934167	0,1	3,239845
2,935833	0,1	3,231023
2,937500	0,1	3,211073
2,939167	0,1	3,167860
2,940833	0,1	3,172690
2,942500	0,1	3,110200
2,944167	0,1	3,109441
2,945833	0,1	3,079673
2,947500	0,1	3,049153
2,949167	0,1	3,003941
2,950833	0,1	2,999115
2,952500	0,1	2,995209
2,954167	0,1	2,937858
2,955833	0,1	2,956181
2,957500	0,1	2,952702
2,959167	0,1	2,937680
2,960833	0,1	2,884465
2,962500	0,1	2,856816
2,964167	0,1	2,795753
2,965833	0,1	2,842499
2,967500	0,1	2,798084
2,969167	0,1	2,748821
2,970833	0,1	2,765194
2,972500	0,1	2,756999
2,974167	0,1	2,748886
2,975833	0,1	2,738591
2,977500	0,1	2,710633
2,979167	0,1	2,669720
2,980833	0,1	2,673019
2,982500	0,1	2,675818
2,984167	0,1	2,662794
2,985833	0,1	2,620408
2,987500	0,1	2,634990
2,989167	0,1	2,612480
2,990833	0,1	2,594671
2,992500	0,1	2,579357
2,994167	0,1	2,564042
2,995833	0,1	2,494342
2,997500	0,1	2,567457
2,999167	0,1	2,505465
3,000833	0,1	2,528582
3,002500	0,1	2,461366
3,004167	0,1	2,476212
3,005833	0,1	2,481510
3,007500	0,1	2,492301
3,009167	0,1	2,418526
3,010833	0,1	2,446172
3,012500	0,1	2,406592
3,014167	0,1	2,402563
3,015833	0,1	2,394230
3,017500	0,1	2,416850
3,019167	0,1	2,370887
3,020833	0,1	2,386098
3,022500	0,1	2,367927
3,024167	0,1	2,377986
3,025833	0,1	2,332732
3,027500	0,1	2,347741
3,029167	0,1	2,313626
3,030833	0,1	2,295446
3,032500	0,1	2,324809
3,034167	0,1	2,286181
3,035833	0,1	2,289758
3,037500	0,1	2,282941
3,039167	0,1	2,249407
3,040833	0,1	2,285871
3,042500	0,1	2,215581
3,044167	0,1	2,237181
3,045833	0,1	2,231865
3,047500	0,1	2,244862
3,049167	0,1	2,222683
3,050833	0,1	2,225898
3,052500	0,1	2,213265
3,054167	0,1	2,176148
3,055833	0,1	2,205433
3,057500	0,1	2,198615
3,059167	0,1	2,155467
3,060833	0,1	2,163066
3,062500	0,1	2,167377
3,064167	0,1	2,137227
3,065833	0,1	2,117330
3,067500	0,1	2,138357
3,069167	0,1	2,127456
3,070833	0,1	2,096077
3,072500	0,1	2,121551
3,074167	0,1	2,109137
3,075833	0,1	2,082076
3,077500	0,1	2,069510
3,079167	0,1	2,066565
3,080833	0,1	2,053858
3,082500	0,1	2,038137
3,084167	0,1	2,063971
3,085833	0,1	2,049192
3,087500	0,1	2,027801
3,089167	0,1	2,002603
3,090833	0,1	2,044943
3,092500	0,1	2,057153
3,094167	0,1	2,061606
3,095833	0,1	2,012946
3,097500	0,1	2,001020
3,099167	0,1	2,019320
3,100833	0,1	2,015305
3,102500	0,1	2,020757
3,104167	0,1	2,035832
3,105833	0,1	1,991195
3,107500	0,1	2,014150
3,109167	0,1	2,017671
3,110833	0,1	2,022195
3,112500	0,1	2,047461
3,114167	0,1	2,025000
3,115833	0,1	2,006408
3,117500	0,1	1,995135
3,119167	0,1	2,045659
3,120833	0,1	2,080556
3,122500	0,1	2,050128
3,124167	0,1	2,034476
3,125833	0,1	2,049401
3,127500	0,1	2,054716
3,129167	0,1	2,047825
3,130833	0,1	2,074096
3,132500	0,1	2,111930
3,134167	0,1	2,095427
3,135833	0,1	2,095496
3,137500	0,1	2,122341
3,139167	0,1	2,099093
3,140833	0,1	2,115383
3,142500	0,1	2,119838
3,144167	0,1	2,138716
3,145833	0,1	2,134487
3,147500	0,1	2,139442
3,149167	0,1	2,165568
3,150833	0,1	2,167161
3,152500	0,1	2,189199
3,154167	0,1	2,179004
3,155833	0,1	2,232780
3,157500	0,1	2,267618
3,159167	0,1	2,212777
3,160833	0,1	2,238540
3,162500	0,1	2,278029
3,164167	0,1	2,245880
3,165833	0,1	2,229355
3,167500	0,1	2,282488
3,169167	0,1	2,253855
3,170833	0,1	2,280914
3,172500	0,1	2,278043
3,174167	0,1	2,268646
3,175833	0,1	2,278988
3,177500	0,1	2,263767
3,179167	0,1	2,281715
3,180833	0,1	2,283652
3,182500	0,1	2,296366
3,184167	0,1	2,264554
3,185833	0,1	2,278195
3,187500	0,1	2,285450
3,189167	0,1	2,296283
3,190833	0,1	2,283019
3,192500	0,1	2,305196
3,194167	0,1	2,272030
3,195833	0,1	2,331048
3,197500	0,1	2,260193
3,199167	0,1	2,274021
3,200833	0,1	2,309426
3,202500	0,1	2,302909
3,204167	0,1	2,264638
3,205833	0,1	2,271149
3,207500	0,1	2,304266
3,209167	0,1	2,259750
3,210833	0,1	2,249317
3,212500	0,1	2,257934
3,214167	0,1	2,247025
3,215833	0,1	2,219231
3,217500	0,1	2,234306
3,219167	0,1	2,246434
3,220833	0,1	2,188143
3,222500	0,1	2,183606
3,224167	0,1	2,229337
3,225833	0,1	2,218801
3,227500	0,1	2,136805
3,229167	0,1	2,164068
3,230833	0,1	2,152874
3,232500	0,1	2,141167
3,234167	0,1	2,138513
3,235833	0,1	2,105341
3,237500	0,1	2,074683
3,239167	0,1	2,115879
3,240833	0,1	2,038151
3,242500	0,1	2,105313
3,244167	0,1	2,054942
3,245833	0,1	2,008494
3,247500	0,1	2,022837
3,249167	0,1	2,023917
3,250833	0,1	2,021190
3,252500	0,1	2,035329
3,254167	0,1	1,952513
3,255833	0,1	1,963904
3,257500	0,1	1,935493
3,259167	0,1	1,986220
3,260833	0,1	1,898330
3,262500	0,1	1,893499
3,264167	0,1	1,912442
3,265833	0,1	1,876713
3,267500	0,1	1,874552
3,269167	0,1	1,838750
3,270833	0,1	1,824253
3,272500	0,1	1,766637
3,274167	0,1	1,856233
3,275833	0,1	1,820951
3,277500	0,1	1,770372
3,279167	0,1	1,759745
3,280833	0,1	1,789881
3,282500	0,1	1,767001
3,284167	0,1	1,755235
3,285833	0,1	1,712688
3,287500	0,1	1,739588
3,289167	0,1	1,687875
3,290833	0,1	1,701558
3,292500	0,1	1,707305
3,294167	0,1	1,624479
3,295833	0,1	1,621448
3,297500	0,1	1,618361
3,299167	0,1	1,642743
3,300833	0,1	1,634065
3,302500	0,1	1,581295
3,304167	0,1	1,577191
3,305833	0,1	1,539626
3,307500	0,1	1,571314
3,309167	0,1	1,581070
3,310833	0,1	1,536254
3,312500	0,1	1,521045
3,314167	0,1	1,517757
3,315833	0,1	1,539989
3,317500	0,1	1,505503
3,319167	0,1	1,511221
3,320833	0,1	1,498388
3,322500	0,1	1,474596
3,324167	0,1	1,483969
3,325833	0,1	1,450931
3,327500	0,1	1,490643
3,329167	0,1	1,496896
3,330833	0,1	1,435371
3,332500	0,1	1,473221
3,334167	0,1	1,470083
3,335833	0,1	1,433014
3,337500	0,1	1,405821
3,339167	0,1	1,444323
3,340833	0,1	1,440126
3,342500	0,1	1,433813
3,344167	0,1	1,409853
3,345833	0,1	1,395219
3,347500	0,1	1,410847
3,349167	0,1	1,422692
3,350833	0,1	1,384754
3,352500	0,1	1,386197
3,354167	0,1	1,384469
3,355833	0,1	1,369207
3,357500	0,1	1,425803
3,359167	0,1	1,406926
3,360833	0,1	1,385775
3,362500	0,1	1,392796
3,364167	0,1	1,383329
3,365833	0,1	1,368920
3,367500	0,1	1,388473
3,369167	0,1	1,383397
3,370833	0,1	1,406340
3,372500	0,1	1,341961
3,374167	0,1	1,372366
3,375833	0,1	1,382980
3,377500	0,1	1,365475
3,379167	0,1	1,320038
3,380833	0,1	1,365611
3,382500	0,1	1,369078
3,384167	0,1	1,306207
3,385833	0,1	1,349083
3,387500	0,1	1,354585
3,389167	0,1	1,348561
3,390833	0,1	1,369187
3,392500	0,1	1,321547
3,394167	0,1	1,379111
3,395833	0,1	1,365843
3,397500	0,1	1,347933
3,399167	0,1	1,324190
3,400833	0,1	1,342750
3,402500	0,1	1,346337
3,404167	0,1	1,285361
3,405833	0,1	1,330857
3,407500	0,1	1,306419
3,409167	0,1	1,325115
3,410833	0,1	1,327493
3,412500	0,1	1,292505
3,414167	0,1	1,308783
3,415833	0,1	1,358087
3,417500	0,1	1,337556
3,419167	0,1	1,299202
3,420833	0,1	1,342563
3,422500	0,1	1,320347
3,424167	0,1	1,302341
3,425833	0,1	1,336791
3,427500	0,1	1,320264
3,429167	0,1	1,319189
3,430833	0,1	1,324912
3,432500	0,1	1,310794
3,434167	0,1	1,332442
3,435833	0,1	1,312674
3,437500	0,1	1,310639
3,439167	0,1	1,312218
3,440833	0,1	1,281318
3,442500	0,1	1,321019
3,444167	0,1	1,347991
3,445833	0,1	1,332231
3,447500	0,1	1,345690
3,449167	0,1	1,369074
3,450833	0,1	1,353532
3,452500	0,1	1,314244
3,454167	0,1	1,382610
3,455833	0,1	1,383134
3,457500	0,1	1,352601
3,459167	0,1	1,365330
3,460833	0,1	1,380881
3,462500	0,1	1,375011
3,464167	0,1	1,392148
3,465833	0,1	1,383467
3,467500	0,1	1,392219
3,469167	0,1	1,405180
3,470833	0,1	1,439012
3,472500	0,1	1,416604
3,474167	0,1	1,431264
3,475833	0,1	1,430069
3,477500	0,1	1,417017
3,479167	0,1	1,432277
3,480833	0,1	1,493784
3,482500	0,1	1,445138
3,484167	0,1	1,498878
3,485833	0,1	1,490733
3,487500	0,1	1,502474
3,489167	0,1	1,499815
3,490833	0,1	1,538684
3,492500	0,1	1,557049
3,494167	0,1	1,516683
3,495833	0,1	1,535444
3,497500	0,1	1,568565
3,499167	0,1	1,562148
3,500833	0,1	1,575268
3,502500	0,1	1,602233
3,504167	0,1	1,626255
3,505833	0,1	1,594555
3,507500	0,1	1,657155
3,509167	0,1	1,651437
3,510833	0,1	1,651071
3,512500	0,1	1,637363
3,514167	0,1	1,691525
3,515833	0,1	1,689300
3,517500	0,1	1,667355
3,519167	0,1	1,696613
3,520833	0,1	1,707815
3,522500	0,1	1,687586
3,524167	0,1	1,724009
3,525833	0,1	1,715701
3,527500	0,1	1,715847
3,529167	0,1	1,739512
3,530833	0,1	1,761250
3,532500	0,1	1,740305
3,534167	0,1	1,770725
3,535833	0,1	1,765921
3,537500	0,1	1,764346
3,539167	0,1	1,771155
3,540833	0,1	1,769207
3,542500	0,1	1,762044
3,544167	0,1	1,800709
3,545833	0,1	1,813053
3,547500	0,1	1,740170
3,549167	0,1	1,762464
3,550833	0,1	1,784578
3,552500	0,1	1,775826
3,554167	0,1	1,800709
3,555833	0,1	1,773318
3,557500	0,1	1,803869
3,559167	0,1	1,806235
3,560833	0,1	1,731067
3,562500	0,1	1,731695
3,564167	0,1	1,699918
3,565833	0,1	1,729462
3,567500	0,1	1,755371
3,569167	0,1	1,765985
3,570833	0,1	1,754875
3,572500	0,1	1,752862
3,574167	0,1	1,741817
3,575833	0,1	1,772945
3,577500	0,1	1,744756
3,579167	0,1	1,716852
3,580833	0,1	1,708172
3,582500	0,1	1,718568
3,584167	0,1	1,672161
3,585833	0,1	1,707004
3,587500	0,1	1,710745
3,589167	0,1	1,658241
3,590833	0,1	1,649860
3,592500	0,1	1,647984
3,594167	0,1	1,686562
3,595833	0,1	1,634945
3,597500	0,1	1,651847
3,599167	0,1	1,673014
3,600833	0,1	1,619658
3,602500	0,1	1,597205
3,604167	0,1	1,573246
3,605833	0,1	1,583868
3,607500	0,1	1,651919
3,609167	0,1	1,586103
3,610833	0,1	1,572676
3,612500	0,1	1,553534
3,614167	0,1	1,571108
3,615833	0,1	1,542118
3,617500	0,1	1,533506
3,619167	0,1	1,554170
3,620833	0,1	1,485565
3,622500	0,1	1,479166
3,624167	0,1	1,472288
3,625833	0,1	1,485406
3,627500	0,1	1,473083
3,629167	0,1	1,465995
3,630833	0,1	1,450867
3,632500	0,1	1,447041
3,634167	0,1	1,464123
3,635833	0,1	1,425341
3,637500	0,1	1,417384
3,639167	0,1	1,400912
3,640833	0,1	1,400183
3,642500	0,1	1,367414
3,644167	0,1	1,359379
3,645833	0,1	1,338244
3,647500	0,1	1,363830
3,649167	0,1	1,307209
3,650833	0,1	1,346905
3,652500	0,1	1,347063
3,654167	0,1	1,313090
3,655833	0,1	1,260260
3,657500	0,1	1,283268
3,659167	0,1	1,264740
3,660833	0,1	1,282419
3,662500	0,1	1,234270
3,664167	0,1	1,220841
3,665833	0,1	1,251718
3,667500	0,1	1,234757
3,669167	0,1	1,245509
3,670833	0,1	1,245883
3,672500	0,1	1,231258
3,674167	0,1	1,190180
3,675833	0,1	1,187759
3,677500	0,1	1,144974
3,679167	0,1	1,183948
3,680833	0,1	1,200365
3,682500	0,1	1,129371
3,684167	0,1	1,161993
3,685833	0,1	1,109582
3,687500	0,1	1,109215
3,689167	0,1	1,072965
3,690833	0,1	1,121334
3,692500	0,1	1,140548
3,694167	0,1	1,118417
3,695833	0,1	1,079074
3,697500	0,1	1,065445
3,699167	0,1	1,096329
3,700833	0,1	1,085650
3,702500	0,1	1,081645
3,704167	0,1	1,084799
3,705833	0,1	1,077642
3,707500	0,1	1,055794
3,709167	0,1	1,060540
3,710833	0,1	1,012728
3,712500	0,1	1,013187
3,714167	0,1	1,012822
3,715833	0,1	1,040379
3,717500	0,1	1,032200
3,719167	0,1	1,002275
3,720833	0,1	1,004018
3,722500	0,1	1,000690
3,724167	0,1	0,990466
3,725833	0,1	1,006083
3,727500	0,1	0,982399
3,729167	0,1	1,016969
3,730833	0,1	0,984738
3,732500	0,1	0,962088
3,734167	0,1	0,978810
3,735833	0,1	0,959751
3,737500	0,1	0,986899
3,739167	0,1	0,993792
3,740833	0,1	0,958600
3,742500	0,1	0,962498
3,744167	0,1	1,010144
3,745833	0,1	0,949940
3,747500	0,1	0,986252
3,749167	0,1	0,969996
3,750833	0,1	0,999096
3,752500	0,1	0,941204
3,754167	0,1	0,944345
3,755833	0,1	0,913976
3,757500	0,1	0,938520
3,759167	0,1	0,945614
3,760833	0,1	0,943992
3,762500	0,1	0,993137
3,764167	0,1	0,937847
3,765833	0,1	0,936392
3,767500	0,1	0,973871
3,769167	0,1	0,967880
3,770833	0,1	0,984812
3,772500	0,1	0,913676
3,774167	0,1	0,935050
3,775833	0,1	0,946876
3,777500	0,1	0,928640
3,779167	0,1	0,913772
3,780833	0,1	0,936319
3,782500	0,1	0,956634
3,784167	0,1	0,919822
3,785833	0,1	0,967893
3,787500	0,1	0,932620
3,789167	0,1	0,957184
3,790833	0,1	0,922065
3,792500	0,1	0,889465
3,794167	0,1	0,921982
3,795833	0,1	0,890820
3,797500	0,1	0,933580
3,799167	0,1	0,915238
3,800833	0,1	0,933586
3,802500	0,1	0,968380
3,804167	0,1	0,916378
3,805833	0,1	0,899882
3,807500	0,1	0,966439
3,809167	0,1	0,948816
3,810833	0,1	0,945523
3,812500	0,1	0,900199
3,814167	0,1	0,903744
3,815833	0,1	0,932780
3,817500	0,1	0,876249
3,819167	0,1	0,887832
3,820833	0,1	0,943266
3,822500	0,1	0,911419
3,824167	0,1	0,891038
3,825833	0,1	0,934534
3,827500	0,1	0,861121
3,829167	0,1	0,875898
3,830833	0,1	0,904739
3,832500	0,1	0,820130
3,834167	0,1	0,900546
3,835833	0,1	0,864402
3,837500	0,1	0,872657
3,839167	0,1	0,901317
3,840833	0,1	0,899812
3,842500	0,1	0,902946
3,844167	0,1	0,875621
3,845833	0,1	0,892585
3,847500	0,1	0,861134
3,849167	0,1	0,848775
3,850833	0,1	0,852392
3,852500	0,1	0,858369
3,854167	0,1	0,855660
3,855833	0,1	0,798218
3,857500	0,1	0,840497
3,859167	0,1	0,854456
3,860833	0,1	0,812588
3,862500	0,1	0,851162
3,864167	0,1	0,825802
3,865833	0,1	0,835949
3,867500	0,1	0,773803
3,869167	0,1	0,799354
3,870833	0,1	0,799691
3,872500	0,1	0,811822
3,874167	0,1	0,809157
3,875833	0,1	0,833592
3,877500	0,1	0,810675
3,879167	0,1	0,798718
3,880833	0,1	0,792053
3,882500	0,1	0,765997
3,884167	0,1	0,771765
3,885833	0,1	0,789650
3,887500	0,1	0,791694
3,889167	0,1	0,815395
3,890833	0,1	0,768605
3,892500	0,1	0,767147
3,894167	0,1	0,764306
3,895833	0,1	0,795155
3,897500	0,1	0,756271
3,899167	0,1	0,755511
3,900833	0,1	0,783493
3,902500	0,1	0,754362
3,904167	0,1	0,717266
3,905833	0,1	0,742109
3,907500	0,1	0,730166
3,909167	0,1	0,738668
3,910833	0,1	0,714000
3,912500	0,1	0,726626
3,914167	0,1	0,724301
3,915833	0,1	0,729032
3,917500	0,1	0,757172
3,919167	0,1	0,724556
3,920833	0,1	0,728230
3,922500	0,1	0,704155
3,924167	0,1	0,718608
3,925833	0,1	0,719411
3,927500	0,1	0,730359
3,929167	0,1	0,680263
3,930833	0,1	0,681698
3,932500	0,1	0,675127
3,934167	0,1	0,684955
3,935833	0,1	0,696731
3,937500	0,1	0,685302
3,939167	0,1	0,695956
3,940833	0,1	0,702556
3,942500	0,1	0,701483
3,944167	0,1	0,681834
3,945833	0,1	0,660764
3,947500	0,1	0,681403
3,949167	0,1	0,668819
3,950833	0,1	0,647724
3,952500	0,1	0,683109
3,954167	0,1	0,654298
3,955833	0,1	0,662965
3,957500	0,1	0,667368
3,959167	0,1	0,685187
3,960833	0,1	0,649174
3,962500	0,1	0,660572
3,964167	0,1	0,671480
3,965833	0,1	0,675848
3,967500	0,1	0,626490
3,969167	0,1	0,629566
3,970833	0,1	0,665968
3,972500	0,1	0,666437
3,974167	0,1	0,654162
3,975833	0,1	0,659560
3,977500	0,1	0,610378
3,979167	0,1	0,621901
3,980833	0,1	0,688701
3,982500	0,1	0,620792
3,984167	0,1	0,658634
3,985833	0,1	0,645502
3,987500	0,1	0,617955
3,989167	0,1	0,640379
3,990833	0,1	0,628954
3,992500	0,1	0,613433
3,994167	0,1	0,606188
3,995833	0,1	0,608735
3,997500	0,1	0,655148
3,999167	0,1	0,652715
4,000833	0,1	0,619914
4,002500	0,1	0,611089
4,004167	0,1	0,638696
4,005833	0,1	0,656758
4,007500	0,1	0,630061
4,009167	0,1	0,612539
4,010833	0,1	0,634123
4,012500	0,1	0,619425
4,014167	0,1	0,651156
4,015833	0,1	0,639193
4,017500	0,1	0,655931
4,019167	0,1	0,650271
4,020833	0,1	0,649429
4,022500	0,1	0,645984
4,024167	0,1	0,684580
4,025833	0,1	0,611711
4,027500	0,1	0,667934
4,029167	0,1	0,656042
4,030833	0,1	0,667591
4,032500	0,1	0,633730
4,034167	0,1	0,672513
4,035833	0,1	0,671944
4,037500	0,1	0,687820
4,039167	0,1	0,657178
4,040833	0,1	0,607825
4,042500	0,1	0,674414
4,044167	0,1	0,702567
4,045833	0,1	0,645657
4,047500	0,1	0,750447
4,049167	0,1	0,665879
4,050833	0,1	0,742856
4,052500	0,1	0,639924
4,054167	0,1	0,733652
4,055833	0,1	0,715015
4,057500	0,1	0,759159
4,059167	0,1	0,741921
4,060833	0,1	0,747175
4,062500	0,1	0,749646
4,064167	0,1	0,740093
4,065833	0,1	0,759768
4,067500	0,1	0,763462
4,069167	0,1	0,757775
4,070833	0,1	0,789846
4,072500	0,1	0,793295
4,074167	0,1	0,787941
4,075833	0,1	0,759846
4,077500	0,1	0,797039
4,079167	0,1	0,839453
4,080833	0,1	0,820916
4,082500	0,1	0,824444
4,084167	0,1	0,911700
4,085833	0,1	0,866447
4,087500	0,1	0,895871
4,089167	0,1	0,846095
4,090833	0,1	0,875163
4,092500	0,1	0,915114
4,094167	0,1	0,916633
4,095833	0,1	0,924278
4,097500	0,1	0,922080
4,099167	0,1	0,926810
4,100833	0,1	0,948826
4,102500	0,1	0,958302
4,104167	0,1	0,959526
4,105833	0,1	0,963929
4,107500	0,1	0,992834
4,109167	0,1	1,016040
4,110833	0,1	1,020641
4,112500	0,1	1,008246
4,114167	0,1	1,048094
4,115833	0,1	1,067746
4,117500	0,1	1,051503
4,119167	0,1	1,103976
4,120833	0,1	1,112317
4,122500	0,1	1,114388
4,124167	0,1	1,101939
4,125833	0,1	1,105855
4,127500	0,1	1,136269
4,129167	0,1	1,159671
4,130833	0,1	1,149208
4,132500	0,1	1,205787
4,134167	0,1	1,170750
4,135833	0,1	1,215037
4,137500	0,1	1,233458
4,139167	0,1	1,229646
4,140833	0,1	1,236617
4,142500	0,1	1,257731
4,144167	0,1	1,271564
4,145833	0,1	1,277015
4,147500	0,1	1,305761
4,149167	0,1	1,323837
4,150833	0,1	1,303850
4,152500	0,1	1,324043
4,154167	0,1	1,309627
4,155833	0,1	1,353203
4,157500	0,1	1,342456
4,159167	0,1	1,330584
4,160833	0,1	1,387912
4,162500	0,1	1,411928
4,164167	0,1	1,380098
4,165833	0,1	1,397436
4,167500	0,1	1,446395
4,169167	0,1	1,430349
4,170833	0,1	1,459245
4,172500	0,1	1,451857
4,174167	0,1	1,435304
4,175833	0,1	1,446968
4,177500	0,1	1,498005
4,179167	0,1	1,499119
4,180833	0,1	1,447213
4,182500	0,1	1,508637
4,184167	0,1	1,507272
4,185833	0,1	1,492800
4,187500	0,1	1,488915
4,189167	0,1	1,506511
4,190833	0,1	1,493952
4,192500	0,1	1,511079
4,194167	0,1	1,526725
4,195833	0,1	1,555309
4,197500	0,1	1,543067
4,199167	0,1	1,519775
4,200833	0,1	1,540991
4,202500	0,1	1,531160
4,204167	0,1	1,535814
4,205833	0,1	1,537515
4,207500	0,1	1,560065
4,209167	0,1	1,543721
4,210833	0,1	1,539402
4,212500	0,1	1,540552
4,214167	0,1	1,536043
4,215833	0,1	1,522416
4,217500	0,1	1,557767
4,219167	0,1	1,537774
4,220833	0,1	1,530166
4,222500	0,1	1,540994
4,224167	0,1	1,515389
4,225833	0,1	1,527580
4,227500	0,1	1,566376
4,229167	0,1	1,538465
4,230833	0,1	1,515180
4,232500	0,1	1,494587
4,234167	0,1	1,490712
4,235833	0,1	1,497232
4,237500	0,1	1,519686
4,239167	0,1	1,503115
4,240833	0,1	1,481473
4,242500	0,1	1,505636
4,244167	0,1	1,470588
4,245833	0,1	1,523134
4,247500	0,1	1,497042
4,249167	0,1	1,451083
4,250833	0,1	1,477521
4,252500	0,1	1,471145
4,254167	0,1	1,474071
4,255833	0,1	1,449787
4,257500	0,1	1,423103
4,259167	0,1	1,469128
4,260833	0,1	1,445063
4,262500	0,1	1,439667
4,264167	0,1	1,402391
4,265833	0,1	1,425109
4,267500	0,1	1,368492
4,269167	0,1	1,409574
4,270833	0,1	1,361901
4,272500	0,1	1,384601
4,274167	0,1	1,360373
4,275833	0,1	1,366059
4,277500	0,1	1,411427
4,279167	0,1	1,375757
4,280833	0,1	1,363251
4,282500	0,1	1,318241
4,284167	0,1	1,356524
4,285833	0,1	1,322189
4,287500	0,1	1,319121
4,289167	0,1	1,347702
4,290833	0,1	1,332394
4,292500	0,1	1,297609
4,294167	0,1	1,313818
4,295833	0,1	1,273033
4,297500	0,1	1,281558
4,299167	0,1	1,259513
4,300833	0,1	1,259631
4,302500	0,1	1,201232
4,304167	0,1	1,236034
4,305833	0,1	1,210980
4,307500	0,1	1,231250
4,309167	0,1	1,179169
4,310833	0,1	1,224437
4,312500	0,1	1,184816
4,314167	0,1	1,200197
4,315833	0,1	1,158039
4,317500	0,1	1,162474
4,319167	0,1	1,159760
4,320833	0,1	1,173297
4,322500	0,1	1,143987
4,324167	0,1	1,132071
4,325833	0,1	1,137734
4,327500	0,1	1,102283
4,329167	0,1	1,117898
4,330833	0,1	1,102500
4,332500	0,1	1,100495
4,334167	0,1	1,071116
4,335833	0,1	1,077774
4,337500	0,1	1,044888
4,339167	0,1	1,067897
4,340833	0,1	1,005035
4,342500	0,1	1,062019
4,344167	0,1	1,036524
4,345833	0,1	1,017983
4,347500	0,1	1,019200
4,349167	0,1	1,052001
4,350833	0,1	1,009234
4,352500	0,1	0,995730
4,354167	0,1	1,021908
4,355833	0,1	0,995117
4,357500	0,1	1,038836
4,359167	0,1	0,972607
4,360833	0,1	0,958550
4,362500	0,1	0,959921
4,364167	0,1	0,977327
4,365833	0,1	0,986815
4,367500	0,1	0,974815
4,369167	0,1	0,990546
4,370833	0,1	0,951801
4,372500	0,1	0,899293
4,374167	0,1	0,961423
4,375833	0,1	0,889208
4,377500	0,1	0,907096
4,379167	0,1	0,902413
4,380833	0,1	0,879907
4,382500	0,1	0,890076
4,384167	0,1	0,899542
4,385833	0,1	0,852117
4,387500	0,1	0,896822
4,389167	0,1	0,882816
4,390833	0,1	0,891522
4,392500	0,1	0,885946
4,394167	0,1	0,878925
4,395833	0,1	0,883212
4,397500	0,1	0,850225
4,399167	0,1	0,890158
4,400833	0,1	0,842473
4,402500	0,1	0,790330
4,404167	0,1	0,856645
4,405833	0,1	0,836534
4,407500	0,1	0,813385
4,409167	0,1	0,851273
4,410833	0,1	0,816210
4,412500	0,1	0,838747
4,414167	0,1	0,806745
4,415833	0,1	0,813557
4,417500	0,1	0,806274
4,419167	0,1	0,802383
4,420833	0,1	0,800137
4,422500	0,1	0,799871
4,424167	0,1	0,776775
4,425833	0,1	0,769726
4,427500	0,1	0,739520
4,429167	0,1	0,740711
4,430833	0,1	0,759478
4,432500	0,1	0,729279
4,434167	0,1	0,737224
4,435833	0,1	0,724230
4,437500	0,1	0,759209
4,439167	0,1	0,735481
4,440833	0,1	0,734739
4,442500	0,1	0,709781
4,444167	0,1	0,760693
4,445833	0,1	0,726035
4,447500	0,1	0,735803
4,449167	0,1	0,750552
4,450833	0,1	0,702411
4,452500	0,1	0,694358
4,454167	0,1	0,684606
4,455833	0,1	0,703749
4,457500	0,1	0,692965
4,459167	0,1	0,673801
4,460833	0,1	0,686650
4,462500	0,1	0,635982
4,464167	0,1	0,641737
4,465833	0,1	0,687616
4,467500	0,1	0,703222
4,469167	0,1	0,656787
4,470833	0,1	0,669011
4,472500	0,1	0,608907
4,474167	0,1	0,592677
4,475833	0,1	0,655366
4,477500	0,1	0,646564
4,479167	0,1	0,644974
4,480833	0,1	0,606038
4,482500	0,1	0,620957
4,484167	0,1	0,619410
4,485833	0,1	0,593210
4,487500	0,1	0,613108
4,489167	0,1	0,591735
4,490833	0,1	0,615643
4,492500	0,1	0,598818
4,494167	0,1	0,592954
4,495833	0,1	0,562021
4,497500	0,1	0,545949
4,499167	0,1	0,590879
4,500833	0,1	0,559633
4,502500	0,1	0,592654
4,504167	0,1	0,533305
4,505833	0,1	0,526788
4,507500	0,1	0,554728
4,509167	0,1	0,596189
4,510833	0,1	0,521784
4,512500	0,1	0,564701
4,514167	0,1	0,515723
4,515833	0,1	0,550827
4,517500	0,1	0,499151
4,519167	0,1	0,516864
4,520833	0,1	0,524723
4,522500	0,1	0,518939
4,524167	0,1	0,559775
4,525833	0,1	0,539960
4,527500	0,1	0,490326
4,529167	0,1	0,507467
4,530833	0,1	0,521820
4,532500	0,1	0,493060
4,534167	0,1	0,506341
4,535833	0,1	0,477834
4,537500	0,1	0,470711
4,539167	0,1	0,443325
4,540833	0,1	0,462400
4,542500	0,1	0,507525
4,544167	0,1	0,482210
4,545833	0,1	0,464826
4,547500	0,1	0,503818
4,549167	0,1	0,471457
4,550833	0,1	0,478150
4,552500	0,1	0,442522
4,554167	0,1	0,485991
4,555833	0,1	0,453496
4,557500	0,1	0,431251
4,559167	0,1	0,445599
4,560833	0,1	0,470638
4,562500	0,1	0,419287
4,564167	0,1	0,440702
4,565833	0,1	0,430123
4,567500	0,1	0,438749
4,569167	0,1	0,412750
4,570833	0,1	0,368855
4,572500	0,1	0,374216
4,574167	0,1	0,399379
4,575833	0,1	0,400769
4,577500	0,1	0,394237
4,579167	0,1	0,430335
4,580833	0,1	0,398878
4,582500	0,1	0,394783
4,584167	0,1	0,374642
4,585833	0,1	0,400760
4,587500	0,1	0,355434
4,589167	0,1	0,390270
4,590833	0,1	0,389343
4,592500	0,1	0,402053
4,594167	0,1	0,366374
4,595833	0,1	0,364018
4,597500	0,1	0,398281
4,599167	0,1	0,380497
4,600833	0,1	0,357681
4,602500	0,1	0,335189
4,604167	0,1	0,341006
4,605833	0,1	0,350049
4,607500	0,1	0,362791
4,609167	0,1	0,362761
4,610833	0,1	0,325861
4,612500	0,1	0,310570
4,614167	0,1	0,312014
4,615833	0,1	0,301110
4,617500	0,1	0,312527
4,619167	0,1	0,347983
4,620833	0,1	0,348408
4,622500	0,1	0,304496
4,624167	0,1	0,340903
4,625833	0,1	0,332804
4,627500	0,1	0,306004
4,629167	0,1	0,318383
4,630833	0,1	0,299406
4,632500	0,1	0,268201
4,634167	0,1	0,284017
4,635833	0,1	0,323719
4,637500	0,1	0,303270
4,639167	0,1	0,322115
4,640833	0,1	0,289981
4,642500	0,1	0,265046
4,644167	0,1	0,297237
4,645833	0,1	0,288400
4,647500	0,1	0,289393
4,649167	0,1	0,275688
4,650833	0,1	0,272471
4,652500	0,1	0,260666
4,654167	0,1	0,282021
4,655833	0,1	0,273887
4,657500	0,1	0,269961
4,659167	0,1	0,254424
4,660833	0,1	0,280864
4,662500	0,1	0,228955
4,664167	0,1	0,253643
4,665833	0,1	0,254808
4,667500	0,1	0,228015
4,669167	0,1	0,259241
4,670833	0,1	0,288423
4,672500	0,1	0,255041
4,674167	0,1	0,229945
4,675833	0,1	0,233474
4,677500	0,1	0,290926
4,679167	0,1	0,234811
4,680833	0,1	0,230550
4,682500	0,1	0,252582
4,684167	0,1	0,234251
4,685833	0,1	0,231290
4,687500	0,1	0,221640
4,689167	0,1	0,217518
4,690833	0,1	0,277639
4,692500	0,1	0,194508
4,694167	0,1	0,223789
4,695833	0,1	0,216714
4,697500	0,1	0,210441
4,699167	0,1	0,216653
4,700833	0,1	0,231413
4,702500	0,1	0,221097
4,704167	0,1	0,187697
4,705833	0,1	0,222112
4,707500	0,1	0,209835
4,709167	0,1	0,258434
4,710833	0,1	0,170444
4,712500	0,1	0,188107
4,714167	0,1	0,187602
4,715833	0,1	0,186055
4,717500	0,1	0,215812
4,719167	0,1	0,183073
4,720833	0,1	0,190847
4,722500	0,1	0,262286
4,724167	0,1	0,222455
4,725833	0,1	0,195818
4,727500	0,1	0,206676
4,729167	0,1	0,215590
4,730833	0,1	0,241486
4,732500	0,1	0,251848
4,734167	0,1	0,214315
4,735833	0,1	0,246504
4,737500	0,1	0,172796
4,739167	0,1	0,212332
4,740833	0,1	0,178506
4,742500	0,1	0,206353
4,744167	0,1	0,217742
4,745833	0,1	0,170789
4,747500	0,1	0,183967
4,749167	0,1	0,187186
4,750833	0,1	0,165472
4,752500	0,1	0,155792
4,754167	0,1	0,218145
4,755833	0,1	0,189348
4,757500	0,1	0,187730
4,759167	0,1	0,155925
4,760833	0,1	0,178844
4,762500	0,1	0,163442
4,764167	0,1	0,165114
4,765833	0,1	0,162449
4,767500	0,1	0,137394
4,769167	0,1	0,165886
4,770833	0,1	0,182770
4,772500	0,1	0,130360
4,774167	0,1	0,162885
4,775833	0,1	0,104079
4,777500	0,1	0,176359
4,779167	0,1	0,168431
4,780833	0,1	0,164472
4,782500	0,1	0,149196
4,784167	0,1	0,186639
4,785833	0,1	0,169593
4,787500	0,1	0,168593
4,789167	0,1	0,168620
4,790833	0,1	0,158175
4,792500	0,1	0,189143
4,794167	0,1	0,151068
4,795833	0,1	0,144564
4,797500	0,1	0,169103
4,799167	0,1	0,144407
4,800833	0,1	0,108323
4,802500	0,1	0,143648
4,804167	0,1	0,132054
4,805833	0,1	0,125845
4,807500	0,1	0,137103
4,809167	0,1	0,153375
4,810833	0,1	0,141061
4,812500	0,1	0,138874
4,814167	0,1	0,188398
4,815833	0,1	0,130398
4,817500	0,1	0,139325
4,819167	0,1	0,149482
4,820833	0,1	0,162419
4,822500	0,1	0,154124
4,824167	0,1	0,120253
4,825833	0,1	0,137456
4,827500	0,1	0,184502
4,829167	0,1	0,120805
4,830833	0,1	0,140961
4,832500	0,1	0,136147
4,834167	0,1	0,144696
4,835833	0,1	0,112017
4,837500	0,1	0,127934
4,839167	0,1	0,120991
4,840833	0,1	0,154721
4,842500	0,1	0,128614
4,844167	0,1	0,162377
4,845833	0,1	0,127874
4,847500	0,1	0,114940
4,849167	0,1	0,129095
4,850833	0,1	0,112694
4,852500	0,1	0,124048
4,854167	0,1	0,129993
4,855833	0,1	0,091382
4,857500	0,1	0,109758
4,859167	0,1	0,098377
4,860833	0,1	0,088085
4,862500	0,1	0,092721
4,864167	0,1	0,118888
4,865833	0,1	0,122791
4,867500	0,1	0,136107
4,869167	0,1	0,116944
4,870833	0,1	0,126070
4,872500	0,1	0,132792
4,874167	0,1	0,090819
4,875833	0,1	0,124233
4,877500	0,1	0,108163
4,879167	0,1	0,122117
4,880833	0,1	0,167719
4,882500	0,1	0,110736
4,884167	0,1	0,124880
4,885833	0,1	0,123056
4,887500	0,1	0,110120
4,889167	0,1	0,094483
4,890833	0,1	0,141499
4,892500	0,1	0,148340
4,894167	0,1	0,136212
4,895833	0,1	0,125530
4,897500	0,1	0,154116
4,899167	0,1	0,138333
4,900833	0,1	0,120512
4,902500	0,1	0,123698
4,904167	0,1	0,088028
4,905833	0,1	0,133426
4,907500	0,1	0,131472
4,909167	0,1	0,081019
4,910833	0,1	0,106452
4,912500	0,1	0,066893
4,914167	0,1	0,144581
4,915833	0,1	0,127461
4,917500	0,1	0,115076
4,919167	0,1	0,105715
4,920833	0,1	0,140605
4,922500	0,1	0,151509
4,924167	0,1	0,145796
4,925833	0,1	0,107452
4,927500	0,1	0,110152
4,929167	0,1	0,123749
4,930833	0,1	0,145527
4,932500	0,1	0,117526
4,934167	0,1	0,094657
4,935833	0,1	0,081843
4,937500	0,1	0,142555
4,939167	0,1	0,113049
4,940833	0,1	0,123595
4,942500	0,1	0,095972
4,944167	0,1	0,150085
4,945833	0,1	0,142254
4,947500	0,1	0,109745
4,949167	0,1	0,132208
4,950833	0,1	0,110502
4,952500	0,1	0,103522
4,954167	0,1	0,087960
4,955833	0,1	0,116705
4,957500	0,1	0,120054
4,959167	0,1	0,090409
4,960833	0,1	0,117465
4,962500	0,1	0,181770
4,964167	0,1	0,119616
4,965833	0,1	0,115517
4,967500	0,1	0,109184
4,969167	0,1	0,126809
4,970833	0,1	0,142793
4,972500	0,1	0,094427
4,974167	0,1	0,174787
4,975833	0,1	0,152487
4,977500	0,1	0,118361
4,979167	0,1	0,103498
4,980833	0,1	0,138865
4,982500	0,1	0,125204
4,984167	0,1	0,158843
4,985833	0,1	0,139703
4,987500	0,1	0,100893
4,989167	0,1	0,122369
4,990833	0,1	0,139441
4,992500	0,1	0,158494
4,994167	0,1	0,129194
4,995833	0,1	0,114170
4,997500	0,1	0,145816
4,999167	0,1	0,152734
5,000833	0,1	0,148360
5,002500	0,1	0,130389
5,004167	0,1	0,112340
5,005833	0,1	0,162754
5,007500	0,1	0,161652
5,009167	0,1	0,123987
5,010833	0,1	0,139992
5,012500	0,1	0,145268
5,014167	0,1	0,172544
5,015833	0,1	0,162260
5,017500	0,1	0,174740
5,019167	0,1	0,090739
5,020833	0,1	0,139053
5,022500	0,1	0,149897
5,024167	0,1	0,124500
5,025833	0,1	0,128036
5,027500	0,1	0,177913
5,029167	0,1	0,180334
5,030833	0,1	0,172807
5,032500	0,1	0,132451
5,034167	0,1	0,157460
5,035833	0,1	0,174386
5,037500	0,1	0,168303
5,039167	0,1	0,181648
5,040833	0,1	0,142706
5,042500	0,1	0,149546
5,044167	0,1	0,174830
5,045833	0,1	0,168404
5,047500	0,1	0,137557
5,049167	0,1	0,154309
5,050833	0,1	0,177628
5,052500	0,1	0,188632
5,054167	0,1	0,170236
5,055833	0,1	0,152252
5,057500	0,1	0,171323
5,059167	0,1	0,171428
5,060833	0,1	0,212141
5,062500	0,1	0,149436
5,064167	0,1	0,177395
5,065833	0,1	0,185389
5,067500	0,1	0,194777
5,069167	0,1	0,194397
5,070833	0,1	0,192850
5,072500	0,1	0,188792
5,074167	0,1	0,211338
5,075833	0,1	0,194650
5,077500	0,1	0,219447
5,079167	0,1	0,175198
5,080833	0,1	0,208989
5,082500	0,1	0,204431
5,084167	0,1	0,216136
5,085833	0,1	0,233991
5,087500	0,1	0,196880
5,089167	0,1	0,168888
5,090833	0,1	0,198696
5,092500	0,1	0,206549
5,094167	0,1	0,220575
5,095833	0,1	0,228494
5,097500	0,1	0,243998
5,099167	0,1	0,212765
5,100833	0,1	0,206298
5,102500	0,1	0,208035
5,104167	0,1	0,182944
5,105833	0,1	0,197216
5,107500	0,1	0,243376
5,109167	0,1	0,271180
5,110833	0,1	0,207790
5,112500	0,1	0,247785
5,114167	0,1	0,205663
5,115833	0,1	0,254732
5,117500	0,1	0,222841
5,119167	0,1	0,191406
5,120833	0,1	0,234177
5,122500	0,1	0,192052
5,124167	0,1	0,209925
5,125833	0,1	0,220767
5,127500	0,1	0,248336
5,129167	0,1	0,220549
5,130833	0,1	0,211473
5,132500	0,1	0,204687
5,134167	0,1	0,218709
5,135833	0,1	0,189060
5,137500	0,1	0,254377
5,139167	0,1	0,223287
5,140833	0,1	0,228459
5,142500	0,1	0,218651
5,144167	0,1	0,213855
5,145833	0,1	0,220865
5,147500	0,1	0,214498
5,149167	0,1	0,252229
5,150833	0,1	0,224318
5,152500	0,1	0,256987
5,154167	0,1	0,251920
5,155833	0,1	0,225737
5,157500	0,1	0,174523
5,159167	0,1	0,251768
5,160833	0,1	0,236280
5,162500	0,1	0,195242
5,164167	0,1	0,196291
5,165833	0,1	0,192525
5,167500	0,1	0,199345
5,169167	0,1	0,159922
5,170833	0,1	0,221595
5,172500	0,1	0,177999
5,174167	0,1	0,166756
5,175833	0,1	0,200689
5,177500	0,1	0,183521
5,179167	0,1	0,176858
5,180833	0,1	0,203780
5,182500	0,1	0,203171
5,184167	0,1	0,197777
5,185833	0,1	0,187993
5,187500	0,1	0,191984
5,189167	0,1	0,151069
5,190833	0,1	0,194960
5,192500	0,1	0,150879
5,194167	0,1	0,162636
5,195833	0,1	0,198919
5,197500	0,1	0,188476
5,199167	0,1	0,155489
5,200833	0,1	0,148842
5,202500	0,1	0,196825
5,204167	0,1	0,163679
5,205833	0,1	0,176056
5,207500	0,1	0,142514
5,209167	0,1	0,127324
5,210833	0,1	0,155720
5,212500	0,1	0,153027
5,214167	0,1	0,174801
5,215833	0,1	0,170757
5,217500	0,1	0,176375
5,219167	0,1	0,185734
5,220833	0,1	0,155451
5,222500	0,1	0,140545
5,224167	0,1	0,103050
5,225833	0,1	0,161855
5,227500	0,1	0,161742
5,229167	0,1	0,155119
5,230833	0,1	0,116784
5,232500	0,1	0,108000
5,234167	0,1	0,133984
5,235833	0,1	0,147940
5,237500	0,1	0,132001
5,239167	0,1	0,132314
5,240833	0,1	0,118138
5,242500	0,1	0,155781
5,244167	0,1	0,123960
5,245833	0,1	0,116903
5,247500	0,1	0,134076
5,249167	0,1	0,076746
5,250833	0,1	0,115352
5,252500	0,1	0,132763
5,254167	0,1	0,157558
5,255833	0,1	0,132863
5,257500	0,1	0,118683
5,259167	0,1	0,092630
5,260833	0,1	0,099887
5,262500	0,1	0,074809
5,264167	0,1	0,091432
5,265833	0,1	0,139832
5,267500	0,1	0,133574
5,269167	0,1	0,094081
5,270833	0,1	0,090277
5,272500	0,1	0,077920
5,274167	0,1	0,110208
5,275833	0,1	0,083234
5,277500	0,1	0,097084
5,279167	0,1	0,048481
5,280833	0,1	0,061873
5,282500	0,1	0,095125
5,284167	0,1	0,073533
5,285833	0,1	0,068637
5,287500	0,1	0,087283
5,289167	0,1	0,079206
5,290833	0,1	0,067088
5,292500	0,1	0,072265
5,294167	0,1	0,090409
5,295833	0,1	0,071982
5,297500	0,1	0,054842
5,299167	0,1	0,121335
5,300833	0,1	0,068837
5,302500	0,1	0,062596
5,304167	0,1	0,046381
5,305833	0,1	0,063032
5,307500	0,1	0,043620
5,309167	0,1	0,094035
5,310833	0,1	0,080985
5,312500	0,1	0,025041
5,314167	0,1	0,045110
5,315833	0,1	0,032142
5,317500	0,1	0,086632
5,319167	0,1	0,045074
5,320833	0,1	0,049655
5,322500	0,1	0,026406
5,324167	0,1	0,034444
5,325833	0,1	0,041810
5,327500	0,1	0,012941
5,329167	0,1	0,017687
5,330833	0,1	0,024648
5,332500	0,1	0,053571
5,334167	0,1	0,023623
5,335833	0,1	0,017312
5,337500	0,1	0,023740
5,339167	0,1	0,030523
5,340833	0,1	-0,009627
5,342500	0,1	0,022408
5,344167	0,1	0,008891
5,345833	0,1	0,042510
5,347500	0,1	0,039240
5,349167	0,1	0,057734
5,350833	0,1	0,030633
5,352500	0,1	0,051693
5,354167	0,1	-0,008125
5,355833	0,1	0,041548
5,357500	0,1	-0,022005
5,359167	0,1	0,041631
5,360833	0,1	-0,005061
5,362500	0,1	0,036014
5,364167	0,1	0,011277
5,365833	0,1	0,045865
5,367500	0,1	0,001658
5,369167	0,1	-0,010302
5,370833	0,1	-0,011628
5,372500	0,1	-0,021689
5,374167	0,1	-0,002153
5,375833	0,1	0,053349
5,377500	0,1	0,013170
5,379167	0,1	-0,002082
5,380833	0,1	0,017595
5,382500	0,1	0,010253
5,384167	0,1	0,012328
5,385833	0,1	-0,005548
5,387500	0,1	0,013510
5,389167	0,1	-0,002458
5,390833	0,1	-0,052645
5,392500	0,1	0,008732
5,394167	0,1	0,004904
5,395833	0,1	-0,022719
5,397500	0,1	-0,047155
5,399167	0,1	0,016715
5,400833	0,1	0,018899
5,402500	0,1	-0,048328
5,404167	0,1	-0,005045
5,405833	0,1	0,032647
5,407500	0,1	-0,053985
5,409167	0,1	-0,037291
5,410833	0,1	-0,049873
5,412500	0,1	-0,024683
5,414167	0,1	-0,037597
5,415833	0,1	-0,041106
5,417500	0,1	-0,035133
5,419167	0,1	-0,055474
5,420833	0,1	-0,032644
5,422500	0,1	-0,048858
5,424167	0,1	-0,030322
5,425833	0,1	-0,015390
5,427500	0,1	-0,018397
5,429167	0,1	-0,030048
5,430833	0,1	-0,060553
5,432500	0,1	-0,028129
5,434167	0,1	-0,060615
5,435833	0,1	0,020103
5,437500	0,1	-0,076487
5,439167	0,1	-0,022990
5,440833	0,1	-0,069301
5,442500	0,1	-0,050756
5,444167	0,1	-0,034782
5,445833	0,1	-0,079300
5,447500	0,1	-0,032822
5,449167	0,1	-0,043715
5,450833	0,1	-0,045834
5,452500	0,1	-0,086293
5,454167	0,1	-0,013145
5,455833	0,1	-0,035252
5,457500	0,1	-0,054935
5,459167	0,1	-0,044158
5,460833	0,1	-0,040983
5,462500	0,1	-0,050357
5,464167	0,1	-0,016931
5,465833	0,1	-0,050123
5,467500	0,1	-0,081357
5,469167	0,1	-0,050656
5,470833	0,1	-0,065638
5,472500	0,1	-0,042257
5,474167	0,1	-0,022110
5,475833	0,1	-0,041784
5,477500	0,1	-0,083221
5,479167	0,1	-0,080990
5,480833	0,1	-0,036058
5,482500	0,1	-0,041520
5,484167	0,1	-0,025575
5,485833	0,1	-0,058022
5,487500	0,1	-0,057659
5,489167	0,1	-0,082871
5,490833	0,1	-0,099301
5,492500	0,1	-0,089434
5,494167	0,1	-0,028638
5,495833	0,1	-0,052259
5,497500	0,1	-0,094338
5,499167	0,1	-0,081493
5,500833	0,1	-0,068342
5,502500	0,1	-0,076695
5,504167	0,1	-0,095505
5,505833	0,1	-0,041888
5,507500	0,1	-0,059044
5,509167	0,1	-0,099170
5,510833	0,1	-0,049829
5,512500	0,1	-0,051683
5,514167	0,1	-0,042480
5,515833	0,1	-0,066922
5,517500	0,1	-0,028670
5,519167	0,1	-0,074633
5,520833	0,1	-0,078170
5,522500	0,1	-0,090881
5,524167	0,1	-0,081076
5,525833	0,1	-0,071642
5,527500	0,1	-0,032136
5,529167	0,1	-0,080978
5,530833	0,1	-0,063387
5,532500	0,1	-0,092246
5,534167	0,1	-0,086674
5,535833	0,1	-0,065647
5,537500	0,1	-0,080945
5,539167	0,1	-0,076410
5,540833	0,1	-0,064383
5,542500	0,1	-0,068588
5,544167	0,1	-0,113376
5,545833	0,1	-0,104077
5,547500	0,1	-0,100943
5,549167	0,1	-0,062728
5,550833	0,1	-0,093781
5,552500	0,1	-0,068345
5,554167	0,1	-0,066848
5,555833	0,1	-0,107653
5,557500	0,1	-0,076041
5,559167	0,1	-0,116487
5,560833	0,1	-0,069118
5,562500	0,1	-0,108130
5,564167	0,1	-0,086058
5,565833	0,1	-0,073155
5,567500	0,1	-0,104316
5,569167	0,1	-0,040626
5,570833	0,1	-0,076650
5,572500	0,1	-0,066600
5,574167	0,1	-0,105558
5,575833	0,1	-0,092837
5,577500	0,1	-0,098618
5,579167	0,1	-0,062106
5,580833	0,1	-0,115779
5,582500	0,1	-0,092652
5,584167	0,1	-0,059887
5,585833	0,1	-0,093779
5,587500	0,1	-0,064842
5,589167	0,1	-0,086048
5,590833	0,1	-0,087132
5,592500	0,1	-0,099653
5,594167	0,1	-0,117135
5,595833	0,1	-0,067419
5,597500	0,1	-0,095399
5,599167	0,1	-0,092545
5,600833	0,1	-0,072681
5,602500	0,1	-0,041115
5,604167	0,1	-0,101570
5,605833	0,1	-0,068308
5,607500	0,1	-0,092745
5,609167	0,1	-0,078174
5,610833	0,1	-0,081302
5,612500	0,1	-0,109129
5,614167	0,1	-0,082639
5,615833	0,1	-0,109025
5,617500	0,1	-0,115603
5,619167	0,1	-0,080938
5,620833	0,1	-0,097104
5,622500	0,1	-0,071435
5,624167	0,1	-0,103175
5,625833	0,1	-0,077201
5,627500	0,1	-0,114477
5,629167	0,1	-0,099059
5,630833	0,1	-0,093108
5,632500	0,1	-0,100714
5,634167	0,1	-0,077887
5,635833	0,1	-0,120947
5,637500	0,1	-0,083323
5,639167	0,1	-0,046674
5,640833	0,1	-0,069643
5,642500	0,1	-0,099629
5,644167	0,1	-0,125202
5,645833	0,1	-0,070736
5,647500	0,1	-0,102139
5,649167	0,1	-0,139073
5,650833	0,1	-0,092782
5,652500	0,1	-0,105439
5,654167	0,1	-0,072371
5,655833	0,1	-0,069024
5,657500	0,1	-0,083871
5,659167	0,1	-0,059923
5,660833	0,1	-0,100601
5,662500	0,1	-0,083836
5,664167	0,1	-0,059367
5,665833	0,1	-0,062346
5,667500	0,1	-0,050817
5,669167	0,1	-0,038271
5,670833	0,1	-0,107066
5,672500	0,1	-0,062399
5,674167	0,1	-0,062906
5,675833	0,1	-0,080842
5,677500	0,1	-0,112156
5,679167	0,1	-0,051698
5,680833	0,1	-0,079388
5,682500	0,1	-0,092292
5,684167	0,1	-0,062872
5,685833	0,1	-0,053531
5,687500	0,1	-0,088304
5,689167	0,1	-0,094597
5,690833	0,1	-0,070854
5,692500	0,1	-0,089490
5,694167	0,1	-0,054618
5,695833	0,1	-0,022223
5,697500	0,1	-0,098726
5,699167	0,1	-0,087942
5,700833	0,1	-0,037779
5,702500	0,1	-0,013573
5,704167	0,1	-0,081224
5,705833	0,1	-0,068633
5,707500	0,1	-0,028068
5,709167	0,1	-0,060076
5,710833	0,1	-0,038069
5,712500	0,1	-0,044985
5,714167	0,1	-0,074597
5,715833	0,1	-0,038315
5,717500	0,1	-0,055225
5,719167	0,1	-0,089715
5,720833	0,1	-0,081388
5,722500	0,1	-0,051465
5,724167	0,1	-0,077626
5,725833	0,1	-0,023178
5,727500	0,1	-0,078324
5,729167	0,1	-0,039313
5,730833	0,1	-0,050089
5,732500	0,1	-0,069063
5,734167	0,1	-0,055177
5,735833	0,1	-0,036194
5,737500	0,1	-0,069971
5,739167	0,1	-0,062988
5,740833	0,1	-0,044514
5,742500	0,1	-0,012492
5,744167	0,1	-0,071477
5,745833	0,1	-0,031760
5,747500	0,1	-0,036046
5,749167	0,1	-0,025448
5,750833	0,1	-0,057880
5,752500	0,1	-0,017880
5,754167	0,1	-0,033221
5,755833	0,1	-0,071443
5,757500	0,1	-0,033626
5,759167	0,1	-0,039114
5,760833	0,1	-0,034182
5,762500	0,1	-0,092343
5,764167	0,1	-0,063619
5,765833	0,1	-0,074539
5,767500	0,1	-0,022347
5,769167	0,1	-0,061736
5,770833	0,1	-0,072837
5,772500	0,1	-0,068152
5,774167	0,1	-0,080326
5,775833	0,1	-0,059262
5,777500	0,1	-0,086627
5,779167	0,1	-0,054264
5,780833	0,1	-0,067898
5,782500	0,1	-0,048536
5,784167	0,1	-0,042395
5,785833	0,1	-0,086456
5,787500	0,1	-0,045656
5,789167	0,1	-0,016513
5,790833	0,1	-0,046244
5,792500	0,1	-0,042996
5,794167	0,1	-0,022048
5,795833	0,1	-0,023933
5,797500	0,1	-0,070486
5,799167	0,1	-0,095337
5,800833	0,1	0,001388
5,802500	0,1	-0,011939
5,804167	0,1	-0,030978
5,805833	0,1	-0,069535
5,807500	0,1	-0,034105
5,809167	0,1	-0,055224
5,810833	0,1	-0,052060
5,812500	0,1	-0,021432
5,814167	0,1	-0,018499
5,815833	0,1	-0,055908
5,817500	0,1	-0,043102
5,819167	0,1	-0,039656
5,820833	0,1	-0,036770
5,822500	0,1	-0,018151
5,824167	0,1	-0,005766
5,825833	0,1	-0,045206
5,827500	0,1	-0,038951
5,829167	0,1	-0,031652
5,830833	0,1	-0,027125
5,832500	0,1	0,001618
5,834167	0,1	-0,072345
5,835833	0,1	-0,045427
5,837500	0,1	-0,014484
5,839167	0,1	-0,066689
5,840833	0,1	-0,035265
5,842500	0,1	-0,064081
5,844167	0,1	-0,049366
5,845833	0,1	-0,043430
5,847500	0,1	-0,036858
5,849167	0,1	-0,037954
5,850833	0,1	-0,053883
5,852500	0,1	-0,084799
5,854167	0,1	-0,011091
5,855833	0,1	-0,070004
5,857500	0,1	-0,035037
5,859167	0,1	-0,057632
5,860833	0,1	-0,064792
5,862500	0,1	-0,080364
5,864167	0,1	-0,038796
5,865833	0,1	-0,085500
5,867500	0,1	-0,062433
5,869167	0,1	-0,078953
5,870833	0,1	-0,052003
5,872500	0,1	-0,051684
5,874167	0,1	-0,039658
5,875833	0,1	-0,063919
5,877500	0,1	-0,056728
5,879167	0,1	-0,042129
5,880833	0,1	-0,049031
5,882500	0,1	-0,035220
5,884167	0,1	-0,066715
5,885833	0,1	-0,058554
5,887500	0,1	-0,070140
5,889167	0,1	-0,053453
5,890833	0,1	-0,030078
5,892500	0,1	-0,063500
5,894167	0,1	-0,028239
5,895833	0,1	-0,048197
5,897500	0,1	-0,059915
5,899167	0,1	-0,085237
5,900833	0,1	-0,069527
5,902500	0,1	-0,057599
5,904167	0,1	-0,033732
5,905833	0,1	-0,045918
5,907500	0,1	-0,063253
5,909167	0,1	-0,081568
5,910833	0,1	-0,084435
5,912500	0,1	-0,103863
5,914167	0,1	-0,047839
5,915833	0,1	-0,034304
5,917500	0,1	-0,083508
5,919167	0,1	-0,064715
5,920833	0,1	-0,034935
5,922500	0,1	-0,044195
5,924167	0,1	-0,042001
5,925833	0,1	-0,060910
5,927500	0,1	-0,044991
5,929167	0,1	-0,022716
5,930833	0,1	-0,073220
5,932500	0,1	-0,043270
5,934167	0,1	-0,092241
5,935833	0,1	-0,081719
5,937500	0,1	-0,072490
5,939167	0,1	-0,044642
5,940833	0,1	-0,084302
5,942500	0,1	-0,050469
5,944167	0,1	-0,094564
5,945833	0,1	-0,067042
5,947500	0,1	-0,052622
5,949167	0,1	-0,102776
5,950833	0,1	-0,100529
5,952500	0,1	-0,050184
5,954167	0,1	-0,125748
5,955833	0,1	-0,074906
5,957500	0,1	-0,072364
5,959167	0,1	-0,085571
5,960833	0,1	-0,069010
5,962500	0,1	-0,061167
5,964167	0,1	-0,088287
5,965833	0,1	-0,088913
5,967500	0,1	-0,107098
5,969167	0,1	-0,087468
5,970833	0,1	-0,089493
5,972500	0,1	-0,064386
5,974167	0,1	-0,088619
5,975833	0,1	-0,067701
5,977500	0,1	-0,098363
5,979167	0,1	-0,110645
5,980833	0,1	-0,101879
5,982500	0,1	-0,088068
5,984167	0,1	-0,094678
5,985833	0,1	-0,085724
5,987500	0,1	-0,082672
5,989167	0,1	-0,107139
5,990833	0,1	-0,082469
5,992500	0,1	-0,065027
5,994167	0,1	-0,110368
5,995833	0,1	-0,073845
5,997500	0,1	-0,076179
5,999167	0,1	-0,115244
6,000833	0,1	-0,095059
