File Path	chrom://chromeleon01/ikbm_chromeleon/2022/Rezex/Esteban/220612_chitin_4_7.seq/867.smp/UV_VIS_1.channel/UV_VIS_1.chm
Channel	UV_VIS_1

Injection Information:
Data Vault	ikbm_chromeleon
Injection	4_06h-ChiBS_2
Injection Number	66
Position	GB3
Comment	
Processing Method	New ProcMethod
Instrument Method	Short_Rezex_6min_194nm
Type	Unknown
Status	Finished
Injection Date	13.06.2022
Injection Time	00:14:44
Injection Volume (µl)	8,000
Dilution Factor	1,0000
Weight	1,0000

Chromatogram Data Information:
Time Min. (min)	0,000833
Time Max. (min)	6,000833
Data Points	3601
Detector	UV
Generating Data System	Chromeleon 7.2.9.11323
Exporting Data System	Chromeleon 7.2.9.0
Operator	Instrument Controller
Signal Quantity	Absorbance
Signal Unit	mAU
Signal Min.	-0,116864
Signal Max.	105,918354
Channel	UV_VIS_1
Driver Name	VWD3000.dll
Channel Type	Evaluation
Min. Step (s)	0,1
Max. Step (s)	0,1
Average Step (s)	0,1

Signal Parameter Information:
Signal Info	WVL:194 nm

Chromatogram Data:
Time (min)	Step (s)	Value (mAU)
0,000833	n.a.	-0,055643
0,002500	0,1	-0,065609
0,004167	0,1	-0,107057
0,005833	0,1	-0,058948
0,007500	0,1	-0,034620
0,009167	0,1	-0,041746
0,010833	0,1	-0,046474
0,012500	0,1	-0,066064
0,014167	0,1	-0,050108
0,015833	0,1	-0,047823
0,017500	0,1	-0,067184
0,019167	0,1	-0,077039
0,020833	0,1	-0,073952
0,022500	0,1	-0,044264
0,024167	0,1	-0,059390
0,025833	0,1	-0,044859
0,027500	0,1	-0,066936
0,029167	0,1	-0,077682
0,030833	0,1	-0,072375
0,032500	0,1	-0,094911
0,034167	0,1	-0,108577
0,035833	0,1	-0,081399
0,037500	0,1	-0,072499
0,039167	0,1	-0,116864
0,040833	0,1	-0,103442
0,042500	0,1	-0,092779
0,044167	0,1	-0,061120
0,045833	0,1	-0,106183
0,047500	0,1	-0,079655
0,049167	0,1	-0,069664
0,050833	0,1	-0,074160
0,052500	0,1	-0,054441
0,054167	0,1	-0,066506
0,055833	0,1	-0,074325
0,057500	0,1	-0,054627
0,059167	0,1	-0,074174
0,060833	0,1	-0,068728
0,062500	0,1	-0,034640
0,064167	0,1	-0,050057
0,065833	0,1	-0,043510
0,067500	0,1	-0,071126
0,069167	0,1	-0,052409
0,070833	0,1	-0,057859
0,072500	0,1	-0,076913
0,074167	0,1	-0,033525
0,075833	0,1	-0,047200
0,077500	0,1	-0,027937
0,079167	0,1	-0,041057
0,080833	0,1	-0,063413
0,082500	0,1	-0,047269
0,084167	0,1	-0,029746
0,085833	0,1	-0,079935
0,087500	0,1	-0,018761
0,089167	0,1	-0,024345
0,090833	0,1	-0,027831
0,092500	0,1	0,005405
0,094167	0,1	-0,044864
0,095833	0,1	-0,026279
0,097500	0,1	-0,053312
0,099167	0,1	-0,061320
0,100833	0,1	-0,052967
0,102500	0,1	-0,027402
0,104167	0,1	-0,044271
0,105833	0,1	-0,072428
0,107500	0,1	-0,049900
0,109167	0,1	-0,079086
0,110833	0,1	-0,081187
0,112500	0,1	-0,068705
0,114167	0,1	-0,096150
0,115833	0,1	-0,049140
0,117500	0,1	-0,098988
0,119167	0,1	-0,086333
0,120833	0,1	-0,084983
0,122500	0,1	-0,086287
0,124167	0,1	-0,052306
0,125833	0,1	-0,049191
0,127500	0,1	-0,074049
0,129167	0,1	-0,083088
0,130833	0,1	-0,078909
0,132500	0,1	-0,053490
0,134167	0,1	-0,057711
0,135833	0,1	-0,047763
0,137500	0,1	-0,090653
0,139167	0,1	-0,086129
0,140833	0,1	-0,056434
0,142500	0,1	-0,062606
0,144167	0,1	-0,049692
0,145833	0,1	-0,072887
0,147500	0,1	-0,034104
0,149167	0,1	-0,060631
0,150833	0,1	-0,056077
0,152500	0,1	-0,050786
0,154167	0,1	-0,055494
0,155833	0,1	-0,013241
0,157500	0,1	-0,016280
0,159167	0,1	-0,076648
0,160833	0,1	-0,071151
0,162500	0,1	-0,064706
0,164167	0,1	-0,077636
0,165833	0,1	-0,015985
0,167500	0,1	-0,051918
0,169167	0,1	-0,052428
0,170833	0,1	-0,069798
0,172500	0,1	-0,034184
0,174167	0,1	-0,026197
0,175833	0,1	-0,058639
0,177500	0,1	-0,062441
0,179167	0,1	-0,042227
0,180833	0,1	-0,065878
0,182500	0,1	-0,045627
0,184167	0,1	-0,051327
0,185833	0,1	-0,041396
0,187500	0,1	-0,045498
0,189167	0,1	-0,028997
0,190833	0,1	-0,048275
0,192500	0,1	-0,066999
0,194167	0,1	-0,054896
0,195833	0,1	-0,031281
0,197500	0,1	-0,012074
0,199167	0,1	-0,042112
0,200833	0,1	-0,052092
0,202500	0,1	-0,012743
0,204167	0,1	-0,062825
0,205833	0,1	-0,048303
0,207500	0,1	-0,056012
0,209167	0,1	-0,012952
0,210833	0,1	-0,048106
0,212500	0,1	-0,042186
0,214167	0,1	-0,047408
0,215833	0,1	-0,049918
0,217500	0,1	-0,013966
0,219167	0,1	-0,063011
0,220833	0,1	-0,022990
0,222500	0,1	-0,027312
0,224167	0,1	-0,043029
0,225833	0,1	-0,037228
0,227500	0,1	-0,054872
0,229167	0,1	-0,024748
0,230833	0,1	-0,077380
0,232500	0,1	-0,050400
0,234167	0,1	-0,077571
0,235833	0,1	-0,027240
0,237500	0,1	-0,011079
0,239167	0,1	-0,022892
0,240833	0,1	-0,046699
0,242500	0,1	-0,070731
0,244167	0,1	-0,012146
0,245833	0,1	-0,058017
0,247500	0,1	-0,014030
0,249167	0,1	-0,036661
0,250833	0,1	-0,037536
0,252500	0,1	0,006915
0,254167	0,1	-0,031762
0,255833	0,1	-0,044378
0,257500	0,1	-0,050330
0,259167	0,1	-0,047039
0,260833	0,1	0,013279
0,262500	0,1	-0,053197
0,264167	0,1	-0,008161
0,265833	0,1	-0,046565
0,267500	0,1	-0,027960
0,269167	0,1	-0,054265
0,270833	0,1	-0,048838
0,272500	0,1	-0,061363
0,274167	0,1	-0,023983
0,275833	0,1	-0,042651
0,277500	0,1	-0,066125
0,279167	0,1	-0,047493
0,280833	0,1	-0,050455
0,282500	0,1	-0,063890
0,284167	0,1	-0,033521
0,285833	0,1	-0,012075
0,287500	0,1	-0,022893
0,289167	0,1	-0,040001
0,290833	0,1	-0,042909
0,292500	0,1	-0,004302
0,294167	0,1	-0,038790
0,295833	0,1	-0,049044
0,297500	0,1	-0,004365
0,299167	0,1	-0,015862
0,300833	0,1	-0,047068
0,302500	0,1	0,000196
0,304167	0,1	-0,017270
0,305833	0,1	-0,036910
0,307500	0,1	-0,025678
0,309167	0,1	-0,017382
0,310833	0,1	-0,028015
0,312500	0,1	-0,048003
0,314167	0,1	-0,006936
0,315833	0,1	-0,033570
0,317500	0,1	-0,017341
0,319167	0,1	-0,011534
0,320833	0,1	-0,027972
0,322500	0,1	-0,038820
0,324167	0,1	-0,044088
0,325833	0,1	-0,012844
0,327500	0,1	-0,048123
0,329167	0,1	0,004695
0,330833	0,1	-0,015819
0,332500	0,1	-0,009375
0,334167	0,1	0,003047
0,335833	0,1	-0,026497
0,337500	0,1	-0,024120
0,339167	0,1	-0,053539
0,340833	0,1	0,005045
0,342500	0,1	-0,006467
0,344167	0,1	-0,035707
0,345833	0,1	-0,016056
0,347500	0,1	-0,024367
0,349167	0,1	-0,033055
0,350833	0,1	-0,036271
0,352500	0,1	0,039616
0,354167	0,1	0,005421
0,355833	0,1	-0,020421
0,357500	0,1	-0,031167
0,359167	0,1	-0,022730
0,360833	0,1	-0,017152
0,362500	0,1	0,001197
0,364167	0,1	-0,028821
0,365833	0,1	-0,009794
0,367500	0,1	-0,013375
0,369167	0,1	0,003645
0,370833	0,1	0,034152
0,372500	0,1	-0,018880
0,374167	0,1	-0,028826
0,375833	0,1	-0,058702
0,377500	0,1	0,027004
0,379167	0,1	0,003469
0,380833	0,1	-0,056746
0,382500	0,1	-0,020665
0,384167	0,1	-0,013711
0,385833	0,1	-0,006058
0,387500	0,1	0,004870
0,389167	0,1	-0,015633
0,390833	0,1	0,017661
0,392500	0,1	-0,039286
0,394167	0,1	0,008948
0,395833	0,1	-0,059105
0,397500	0,1	-0,001921
0,399167	0,1	-0,047478
0,400833	0,1	-0,029994
0,402500	0,1	0,003995
0,404167	0,1	-0,051958
0,405833	0,1	-0,013365
0,407500	0,1	0,008601
0,409167	0,1	-0,015446
0,410833	0,1	0,041258
0,412500	0,1	-0,064988
0,414167	0,1	-0,009139
0,415833	0,1	-0,041657
0,417500	0,1	-0,029244
0,419167	0,1	0,014155
0,420833	0,1	-0,036987
0,422500	0,1	-0,003741
0,424167	0,1	-0,021708
0,425833	0,1	0,020191
0,427500	0,1	0,008982
0,429167	0,1	-0,014055
0,430833	0,1	-0,032286
0,432500	0,1	-0,012428
0,434167	0,1	-0,018935
0,435833	0,1	-0,030338
0,437500	0,1	0,019359
0,439167	0,1	-0,011566
0,440833	0,1	-0,005766
0,442500	0,1	-0,017396
0,444167	0,1	-0,022646
0,445833	0,1	0,001364
0,447500	0,1	-0,017603
0,449167	0,1	0,046422
0,450833	0,1	0,023917
0,452500	0,1	0,015972
0,454167	0,1	-0,000369
0,455833	0,1	0,032554
0,457500	0,1	0,000318
0,459167	0,1	0,014743
0,460833	0,1	0,036828
0,462500	0,1	-0,005630
0,464167	0,1	0,010304
0,465833	0,1	0,012525
0,467500	0,1	-0,007732
0,469167	0,1	0,026166
0,470833	0,1	0,002037
0,472500	0,1	0,024342
0,474167	0,1	0,016677
0,475833	0,1	0,036539
0,477500	0,1	0,010044
0,479167	0,1	0,022685
0,480833	0,1	-0,014113
0,482500	0,1	0,041320
0,484167	0,1	-0,009362
0,485833	0,1	0,023448
0,487500	0,1	0,009544
0,489167	0,1	0,002014
0,490833	0,1	0,024240
0,492500	0,1	0,006827
0,494167	0,1	-0,013766
0,495833	0,1	0,028340
0,497500	0,1	-0,011998
0,499167	0,1	-0,006990
0,500833	0,1	0,026995
0,502500	0,1	0,028267
0,504167	0,1	0,052052
0,505833	0,1	0,006067
0,507500	0,1	0,056753
0,509167	0,1	0,038851
0,510833	0,1	0,058358
0,512500	0,1	0,003103
0,514167	0,1	0,029901
0,515833	0,1	0,004236
0,517500	0,1	0,048107
0,519167	0,1	-0,009714
0,520833	0,1	0,005347
0,522500	0,1	0,005413
0,524167	0,1	0,034276
0,525833	0,1	0,023999
0,527500	0,1	0,023000
0,529167	0,1	0,048111
0,530833	0,1	-0,009112
0,532500	0,1	0,036077
0,534167	0,1	0,051535
0,535833	0,1	0,040693
0,537500	0,1	0,008095
0,539167	0,1	0,046428
0,540833	0,1	0,079553
0,542500	0,1	0,019218
0,544167	0,1	0,063889
0,545833	0,1	0,032319
0,547500	0,1	0,045148
0,549167	0,1	0,042662
0,550833	0,1	0,035798
0,552500	0,1	-0,005922
0,554167	0,1	0,064093
0,555833	0,1	0,046898
0,557500	0,1	0,037044
0,559167	0,1	0,047098
0,560833	0,1	0,054526
0,562500	0,1	0,023650
0,564167	0,1	0,070798
0,565833	0,1	0,071452
0,567500	0,1	0,058553
0,569167	0,1	0,041236
0,570833	0,1	0,043823
0,572500	0,1	0,024685
0,574167	0,1	0,062979
0,575833	0,1	0,038209
0,577500	0,1	0,069060
0,579167	0,1	0,074210
0,580833	0,1	0,060108
0,582500	0,1	0,061203
0,584167	0,1	0,108883
0,585833	0,1	0,030693
0,587500	0,1	0,047595
0,589167	0,1	0,023670
0,590833	0,1	0,075878
0,592500	0,1	0,069712
0,594167	0,1	0,050071
0,595833	0,1	0,082251
0,597500	0,1	0,056918
0,599167	0,1	0,076693
0,600833	0,1	0,050095
0,602500	0,1	0,066035
0,604167	0,1	0,070267
0,605833	0,1	0,045509
0,607500	0,1	0,086065
0,609167	0,1	0,072535
0,610833	0,1	0,083438
0,612500	0,1	0,119484
0,614167	0,1	0,076689
0,615833	0,1	0,051256
0,617500	0,1	0,113444
0,619167	0,1	0,100517
0,620833	0,1	0,128198
0,622500	0,1	0,081522
0,624167	0,1	0,075187
0,625833	0,1	0,082113
0,627500	0,1	0,102688
0,629167	0,1	0,079070
0,630833	0,1	0,069257
0,632500	0,1	0,106793
0,634167	0,1	0,066007
0,635833	0,1	0,079415
0,637500	0,1	0,096258
0,639167	0,1	0,089708
0,640833	0,1	0,105095
0,642500	0,1	0,069968
0,644167	0,1	0,116037
0,645833	0,1	0,082600
0,647500	0,1	0,125559
0,649167	0,1	0,107592
0,650833	0,1	0,112088
0,652500	0,1	0,099644
0,654167	0,1	0,121438
0,655833	0,1	0,129864
0,657500	0,1	0,155020
0,659167	0,1	0,127944
0,660833	0,1	0,117031
0,662500	0,1	0,173789
0,664167	0,1	0,129776
0,665833	0,1	0,121525
0,667500	0,1	0,139236
0,669167	0,1	0,151315
0,670833	0,1	0,136944
0,672500	0,1	0,149345
0,674167	0,1	0,115625
0,675833	0,1	0,114269
0,677500	0,1	0,119412
0,679167	0,1	0,172755
0,680833	0,1	0,115340
0,682500	0,1	0,154791
0,684167	0,1	0,158643
0,685833	0,1	0,195523
0,687500	0,1	0,162157
0,689167	0,1	0,147423
0,690833	0,1	0,194273
0,692500	0,1	0,179015
0,694167	0,1	0,160530
0,695833	0,1	0,137489
0,697500	0,1	0,208544
0,699167	0,1	0,158694
0,700833	0,1	0,202218
0,702500	0,1	0,174416
0,704167	0,1	0,184180
0,705833	0,1	0,191999
0,707500	0,1	0,173707
0,709167	0,1	0,199713
0,710833	0,1	0,152513
0,712500	0,1	0,173846
0,714167	0,1	0,230063
0,715833	0,1	0,196865
0,717500	0,1	0,235832
0,719167	0,1	0,221934
0,720833	0,1	0,218045
0,722500	0,1	0,225157
0,724167	0,1	0,240846
0,725833	0,1	0,243584
0,727500	0,1	0,232652
0,729167	0,1	0,240216
0,730833	0,1	0,238869
0,732500	0,1	0,234506
0,734167	0,1	0,261464
0,735833	0,1	0,267522
0,737500	0,1	0,208764
0,739167	0,1	0,229846
0,740833	0,1	0,252044
0,742500	0,1	0,272402
0,744167	0,1	0,291448
0,745833	0,1	0,255563
0,747500	0,1	0,261043
0,749167	0,1	0,257197
0,750833	0,1	0,273527
0,752500	0,1	0,269282
0,754167	0,1	0,276356
0,755833	0,1	0,253883
0,757500	0,1	0,269566
0,759167	0,1	0,243819
0,760833	0,1	0,302692
0,762500	0,1	0,270738
0,764167	0,1	0,250212
0,765833	0,1	0,231683
0,767500	0,1	0,254062
0,769167	0,1	0,240952
0,770833	0,1	0,272880
0,772500	0,1	0,278775
0,774167	0,1	0,254375
0,775833	0,1	0,248078
0,777500	0,1	0,236638
0,779167	0,1	0,245829
0,780833	0,1	0,237028
0,782500	0,1	0,279210
0,784167	0,1	0,244011
0,785833	0,1	0,265135
0,787500	0,1	0,264525
0,789167	0,1	0,244714
0,790833	0,1	0,251567
0,792500	0,1	0,190652
0,794167	0,1	0,240912
0,795833	0,1	0,266294
0,797500	0,1	0,253402
0,799167	0,1	0,237736
0,800833	0,1	0,221971
0,802500	0,1	0,237476
0,804167	0,1	0,227671
0,805833	0,1	0,269243
0,807500	0,1	0,226669
0,809167	0,1	0,232423
0,810833	0,1	0,258919
0,812500	0,1	0,236025
0,814167	0,1	0,240305
0,815833	0,1	0,273533
0,817500	0,1	0,272635
0,819167	0,1	0,240893
0,820833	0,1	0,224835
0,822500	0,1	0,257993
0,824167	0,1	0,250954
0,825833	0,1	0,274369
0,827500	0,1	0,217189
0,829167	0,1	0,234828
0,830833	0,1	0,220269
0,832500	0,1	0,233933
0,834167	0,1	0,258476
0,835833	0,1	0,240942
0,837500	0,1	0,293760
0,839167	0,1	0,280421
0,840833	0,1	0,240505
0,842500	0,1	0,239500
0,844167	0,1	0,225830
0,845833	0,1	0,246318
0,847500	0,1	0,248896
0,849167	0,1	0,256133
0,850833	0,1	0,221660
0,852500	0,1	0,239030
0,854167	0,1	0,252525
0,855833	0,1	0,284070
0,857500	0,1	0,275147
0,859167	0,1	0,268865
0,860833	0,1	0,230338
0,862500	0,1	0,258574
0,864167	0,1	0,273011
0,865833	0,1	0,301938
0,867500	0,1	0,258682
0,869167	0,1	0,274523
0,870833	0,1	0,278540
0,872500	0,1	0,277455
0,874167	0,1	0,270025
0,875833	0,1	0,295941
0,877500	0,1	0,285602
0,879167	0,1	0,297240
0,880833	0,1	0,291292
0,882500	0,1	0,319465
0,884167	0,1	0,292483
0,885833	0,1	0,243407
0,887500	0,1	0,324789
0,889167	0,1	0,289623
0,890833	0,1	0,278063
0,892500	0,1	0,278133
0,894167	0,1	0,301705
0,895833	0,1	0,292516
0,897500	0,1	0,282376
0,899167	0,1	0,307014
0,900833	0,1	0,305381
0,902500	0,1	0,307048
0,904167	0,1	0,316668
0,905833	0,1	0,305058
0,907500	0,1	0,328926
0,909167	0,1	0,304417
0,910833	0,1	0,308461
0,912500	0,1	0,315699
0,914167	0,1	0,300717
0,915833	0,1	0,345967
0,917500	0,1	0,352608
0,919167	0,1	0,304965
0,920833	0,1	0,310074
0,922500	0,1	0,300652
0,924167	0,1	0,298140
0,925833	0,1	0,301583
0,927500	0,1	0,330301
0,929167	0,1	0,308955
0,930833	0,1	0,328347
0,932500	0,1	0,333815
0,934167	0,1	0,301681
0,935833	0,1	0,343230
0,937500	0,1	0,351602
0,939167	0,1	0,304005
0,940833	0,1	0,335964
0,942500	0,1	0,346230
0,944167	0,1	0,303868
0,945833	0,1	0,355969
0,947500	0,1	0,354215
0,949167	0,1	0,358363
0,950833	0,1	0,357489
0,952500	0,1	0,364954
0,954167	0,1	0,332665
0,955833	0,1	0,358294
0,957500	0,1	0,358230
0,959167	0,1	0,328478
0,960833	0,1	0,358477
0,962500	0,1	0,358943
0,964167	0,1	0,343846
0,965833	0,1	0,377498
0,967500	0,1	0,357819
0,969167	0,1	0,376985
0,970833	0,1	0,357302
0,972500	0,1	0,398759
0,974167	0,1	0,404015
0,975833	0,1	0,375322
0,977500	0,1	0,339579
0,979167	0,1	0,424652
0,980833	0,1	0,372110
0,982500	0,1	0,403079
0,984167	0,1	0,412800
0,985833	0,1	0,440950
0,987500	0,1	0,440313
0,989167	0,1	0,431722
0,990833	0,1	0,441726
0,992500	0,1	0,385236
0,994167	0,1	0,425374
0,995833	0,1	0,467234
0,997500	0,1	0,437228
0,999167	0,1	0,498445
1,000833	0,1	0,445218
1,002500	0,1	0,464729
1,004167	0,1	0,462160
1,005833	0,1	0,453635
1,007500	0,1	0,508778
1,009167	0,1	0,462812
1,010833	0,1	0,539411
1,012500	0,1	0,528619
1,014167	0,1	0,517805
1,015833	0,1	0,558763
1,017500	0,1	0,543198
1,019167	0,1	0,577627
1,020833	0,1	0,598681
1,022500	0,1	0,557209
1,024167	0,1	0,559287
1,025833	0,1	0,603343
1,027500	0,1	0,611750
1,029167	0,1	0,605838
1,030833	0,1	0,590615
1,032500	0,1	0,644840
1,034167	0,1	0,654474
1,035833	0,1	0,658918
1,037500	0,1	0,664264
1,039167	0,1	0,661334
1,040833	0,1	0,669319
1,042500	0,1	0,661431
1,044167	0,1	0,686889
1,045833	0,1	0,698195
1,047500	0,1	0,774196
1,049167	0,1	0,731824
1,050833	0,1	0,748646
1,052500	0,1	0,773761
1,054167	0,1	0,809171
1,055833	0,1	0,887340
1,057500	0,1	0,978222
1,059167	0,1	1,019055
1,060833	0,1	1,156199
1,062500	0,1	1,337463
1,064167	0,1	1,516936
1,065833	0,1	1,823907
1,067500	0,1	2,150268
1,069167	0,1	2,590525
1,070833	0,1	3,105114
1,072500	0,1	3,772273
1,074167	0,1	4,554451
1,075833	0,1	5,480048
1,077500	0,1	6,634876
1,079167	0,1	7,886120
1,080833	0,1	9,333065
1,082500	0,1	10,954950
1,084167	0,1	12,760958
1,085833	0,1	14,738351
1,087500	0,1	16,851852
1,089167	0,1	19,114851
1,090833	0,1	21,413709
1,092500	0,1	23,907175
1,094167	0,1	26,334145
1,095833	0,1	28,790176
1,097500	0,1	31,179165
1,099167	0,1	33,538361
1,100833	0,1	35,763250
1,102500	0,1	37,875245
1,104167	0,1	39,768331
1,105833	0,1	41,504980
1,107500	0,1	43,066844
1,109167	0,1	44,314999
1,110833	0,1	45,379966
1,112500	0,1	46,229699
1,114167	0,1	46,892730
1,115833	0,1	47,288133
1,117500	0,1	47,488019
1,119167	0,1	47,524226
1,120833	0,1	47,349671
1,122500	0,1	47,041567
1,124167	0,1	46,597494
1,125833	0,1	46,079125
1,127500	0,1	45,343451
1,129167	0,1	44,612012
1,130833	0,1	43,826887
1,132500	0,1	42,901583
1,134167	0,1	42,019275
1,135833	0,1	41,111107
1,137500	0,1	40,169639
1,139167	0,1	39,192995
1,140833	0,1	38,350848
1,142500	0,1	37,398517
1,144167	0,1	36,579652
1,145833	0,1	35,825174
1,147500	0,1	35,045052
1,149167	0,1	34,377868
1,150833	0,1	33,750895
1,152500	0,1	33,230226
1,154167	0,1	32,706574
1,155833	0,1	32,332883
1,157500	0,1	31,995987
1,159167	0,1	31,676373
1,160833	0,1	31,503521
1,162500	0,1	31,328599
1,164167	0,1	31,149390
1,165833	0,1	31,124973
1,167500	0,1	31,096133
1,169167	0,1	31,043693
1,170833	0,1	31,038680
1,172500	0,1	31,034705
1,174167	0,1	31,069055
1,175833	0,1	31,074065
1,177500	0,1	31,113793
1,179167	0,1	31,081092
1,180833	0,1	31,137331
1,182500	0,1	31,096115
1,184167	0,1	31,086294
1,185833	0,1	31,074386
1,187500	0,1	31,099012
1,189167	0,1	31,122646
1,190833	0,1	31,133178
1,192500	0,1	31,194398
1,194167	0,1	31,279611
1,195833	0,1	31,511682
1,197500	0,1	31,714908
1,199167	0,1	32,105349
1,200833	0,1	32,550044
1,202500	0,1	33,201779
1,204167	0,1	34,063375
1,205833	0,1	35,046730
1,207500	0,1	36,203761
1,209167	0,1	37,630883
1,210833	0,1	39,274555
1,212500	0,1	41,164375
1,214167	0,1	43,282762
1,215833	0,1	45,645734
1,217500	0,1	48,197000
1,219167	0,1	51,002305
1,220833	0,1	53,895996
1,222500	0,1	57,074855
1,224167	0,1	60,330333
1,225833	0,1	63,650973
1,227500	0,1	67,024510
1,229167	0,1	70,450238
1,230833	0,1	73,912298
1,232500	0,1	77,309980
1,234167	0,1	80,528807
1,235833	0,1	83,660874
1,237500	0,1	86,685452
1,239167	0,1	89,561522
1,240833	0,1	92,207408
1,242500	0,1	94,586492
1,244167	0,1	96,883470
1,245833	0,1	98,858993
1,247500	0,1	100,618300
1,249167	0,1	102,109182
1,250833	0,1	103,358594
1,252500	0,1	104,321740
1,254167	0,1	105,110772
1,255833	0,1	105,595827
1,257500	0,1	105,898907
1,259167	0,1	105,918354
1,260833	0,1	105,656998
1,262500	0,1	105,257905
1,264167	0,1	104,607869
1,265833	0,1	103,725722
1,267500	0,1	102,704782
1,269167	0,1	101,465870
1,270833	0,1	100,130643
1,272500	0,1	98,537543
1,274167	0,1	96,877190
1,275833	0,1	95,112440
1,277500	0,1	93,162185
1,279167	0,1	91,119589
1,280833	0,1	89,033048
1,282500	0,1	86,947988
1,284167	0,1	84,691281
1,285833	0,1	82,494323
1,287500	0,1	80,184423
1,289167	0,1	77,973825
1,290833	0,1	75,675385
1,292500	0,1	73,477115
1,294167	0,1	71,249663
1,295833	0,1	69,115468
1,297500	0,1	66,977308
1,299167	0,1	64,876687
1,300833	0,1	62,836058
1,302500	0,1	60,829584
1,304167	0,1	58,983610
1,305833	0,1	57,148790
1,307500	0,1	55,380847
1,309167	0,1	53,677454
1,310833	0,1	52,107631
1,312500	0,1	50,558288
1,314167	0,1	49,078189
1,315833	0,1	47,702194
1,317500	0,1	46,308595
1,319167	0,1	45,011311
1,320833	0,1	43,803344
1,322500	0,1	42,631531
1,324167	0,1	41,529262
1,325833	0,1	40,495981
1,327500	0,1	39,421538
1,329167	0,1	38,461410
1,330833	0,1	37,500371
1,332500	0,1	36,643541
1,334167	0,1	35,757253
1,335833	0,1	34,928702
1,337500	0,1	34,102722
1,339167	0,1	33,339980
1,340833	0,1	32,618990
1,342500	0,1	31,840587
1,344167	0,1	31,167878
1,345833	0,1	30,507456
1,347500	0,1	29,800001
1,349167	0,1	29,211046
1,350833	0,1	28,575371
1,352500	0,1	27,945375
1,354167	0,1	27,379348
1,355833	0,1	26,782226
1,357500	0,1	26,166138
1,359167	0,1	25,600244
1,360833	0,1	25,148652
1,362500	0,1	24,556713
1,364167	0,1	24,051150
1,365833	0,1	23,575413
1,367500	0,1	23,036159
1,369167	0,1	22,571675
1,370833	0,1	22,048511
1,372500	0,1	21,603979
1,374167	0,1	21,163729
1,375833	0,1	20,699852
1,377500	0,1	20,224731
1,379167	0,1	19,823409
1,380833	0,1	19,426063
1,382500	0,1	18,943579
1,384167	0,1	18,583071
1,385833	0,1	18,224430
1,387500	0,1	17,837319
1,389167	0,1	17,514218
1,390833	0,1	17,125240
1,392500	0,1	16,802961
1,394167	0,1	16,436673
1,395833	0,1	16,125494
1,397500	0,1	15,791205
1,399167	0,1	15,494359
1,400833	0,1	15,195821
1,402500	0,1	14,941703
1,404167	0,1	14,675708
1,405833	0,1	14,406643
1,407500	0,1	14,178293
1,409167	0,1	13,928110
1,410833	0,1	13,702885
1,412500	0,1	13,486733
1,414167	0,1	13,232963
1,415833	0,1	13,070046
1,417500	0,1	12,867544
1,419167	0,1	12,619223
1,420833	0,1	12,468202
1,422500	0,1	12,252895
1,424167	0,1	12,059474
1,425833	0,1	11,920162
1,427500	0,1	11,737421
1,429167	0,1	11,547193
1,430833	0,1	11,340758
1,432500	0,1	11,207588
1,434167	0,1	11,070836
1,435833	0,1	10,898578
1,437500	0,1	10,746196
1,439167	0,1	10,621104
1,440833	0,1	10,492103
1,442500	0,1	10,360518
1,444167	0,1	10,188026
1,445833	0,1	10,067623
1,447500	0,1	9,923569
1,449167	0,1	9,769592
1,450833	0,1	9,699562
1,452500	0,1	9,506152
1,454167	0,1	9,414163
1,455833	0,1	9,300149
1,457500	0,1	9,161001
1,459167	0,1	9,041265
1,460833	0,1	8,881542
1,462500	0,1	8,837072
1,464167	0,1	8,730455
1,465833	0,1	8,564036
1,467500	0,1	8,493657
1,469167	0,1	8,391602
1,470833	0,1	8,351726
1,472500	0,1	8,226070
1,474167	0,1	8,156450
1,475833	0,1	8,041245
1,477500	0,1	7,966807
1,479167	0,1	7,920267
1,480833	0,1	7,850177
1,482500	0,1	7,807038
1,484167	0,1	7,717093
1,485833	0,1	7,654169
1,487500	0,1	7,587000
1,489167	0,1	7,537529
1,490833	0,1	7,516414
1,492500	0,1	7,468928
1,494167	0,1	7,388699
1,495833	0,1	7,363936
1,497500	0,1	7,370072
1,499167	0,1	7,294809
1,500833	0,1	7,287791
1,502500	0,1	7,255771
1,504167	0,1	7,228495
1,505833	0,1	7,214028
1,507500	0,1	7,169017
1,509167	0,1	7,205601
1,510833	0,1	7,106199
1,512500	0,1	7,098238
1,514167	0,1	7,096372
1,515833	0,1	7,038882
1,517500	0,1	7,051746
1,519167	0,1	7,046242
1,520833	0,1	7,030282
1,522500	0,1	6,996966
1,524167	0,1	6,957115
1,525833	0,1	6,961956
1,527500	0,1	6,916798
1,529167	0,1	6,899903
1,530833	0,1	6,862302
1,532500	0,1	6,876569
1,534167	0,1	6,812482
1,535833	0,1	6,778336
1,537500	0,1	6,797360
1,539167	0,1	6,755673
1,540833	0,1	6,727495
1,542500	0,1	6,680674
1,544167	0,1	6,697174
1,545833	0,1	6,644112
1,547500	0,1	6,603452
1,549167	0,1	6,593104
1,550833	0,1	6,538093
1,552500	0,1	6,544057
1,554167	0,1	6,465741
1,555833	0,1	6,461362
1,557500	0,1	6,418958
1,559167	0,1	6,389867
1,560833	0,1	6,382783
1,562500	0,1	6,353061
1,564167	0,1	6,294157
1,565833	0,1	6,246481
1,567500	0,1	6,250067
1,569167	0,1	6,211598
1,570833	0,1	6,191413
1,572500	0,1	6,137836
1,574167	0,1	6,127010
1,575833	0,1	6,087524
1,577500	0,1	6,037225
1,579167	0,1	6,051029
1,580833	0,1	5,996661
1,582500	0,1	5,951105
1,584167	0,1	5,937619
1,585833	0,1	5,892290
1,587500	0,1	5,845918
1,589167	0,1	5,828478
1,590833	0,1	5,803877
1,592500	0,1	5,721996
1,594167	0,1	5,685135
1,595833	0,1	5,716900
1,597500	0,1	5,692035
1,599167	0,1	5,665826
1,600833	0,1	5,624019
1,602500	0,1	5,587653
1,604167	0,1	5,520416
1,605833	0,1	5,528364
1,607500	0,1	5,484059
1,609167	0,1	5,506484
1,610833	0,1	5,414758
1,612500	0,1	5,386726
1,614167	0,1	5,373274
1,615833	0,1	5,347192
1,617500	0,1	5,319661
1,619167	0,1	5,285734
1,620833	0,1	5,297095
1,622500	0,1	5,252145
1,624167	0,1	5,203970
1,625833	0,1	5,221746
1,627500	0,1	5,181281
1,629167	0,1	5,181212
1,630833	0,1	5,113824
1,632500	0,1	5,082931
1,634167	0,1	5,039130
1,635833	0,1	5,039146
1,637500	0,1	5,011582
1,639167	0,1	4,954497
1,640833	0,1	4,997936
1,642500	0,1	4,981808
1,644167	0,1	4,886263
1,645833	0,1	4,920302
1,647500	0,1	4,901543
1,649167	0,1	4,866407
1,650833	0,1	4,855631
1,652500	0,1	4,843081
1,654167	0,1	4,848958
1,655833	0,1	4,774871
1,657500	0,1	4,812765
1,659167	0,1	4,788310
1,660833	0,1	4,814217
1,662500	0,1	4,738654
1,664167	0,1	4,728176
1,665833	0,1	4,743835
1,667500	0,1	4,761716
1,669167	0,1	4,752790
1,670833	0,1	4,737558
1,672500	0,1	4,772929
1,674167	0,1	4,777685
1,675833	0,1	4,724183
1,677500	0,1	4,757295
1,679167	0,1	4,810425
1,680833	0,1	4,804672
1,682500	0,1	4,821852
1,684167	0,1	4,834989
1,685833	0,1	4,849754
1,687500	0,1	4,866509
1,689167	0,1	4,879462
1,690833	0,1	4,913486
1,692500	0,1	4,940202
1,694167	0,1	5,021652
1,695833	0,1	5,066738
1,697500	0,1	5,104522
1,699167	0,1	5,150538
1,700833	0,1	5,186888
1,702500	0,1	5,197762
1,704167	0,1	5,216374
1,705833	0,1	5,283278
1,707500	0,1	5,355851
1,709167	0,1	5,360487
1,710833	0,1	5,455920
1,712500	0,1	5,477595
1,714167	0,1	5,571538
1,715833	0,1	5,599750
1,717500	0,1	5,650311
1,719167	0,1	5,635190
1,720833	0,1	5,688342
1,722500	0,1	5,760801
1,724167	0,1	5,821994
1,725833	0,1	5,836412
1,727500	0,1	5,908996
1,729167	0,1	5,921199
1,730833	0,1	5,972430
1,732500	0,1	5,991590
1,734167	0,1	6,015322
1,735833	0,1	6,035265
1,737500	0,1	6,010593
1,739167	0,1	6,082665
1,740833	0,1	6,065173
1,742500	0,1	6,062473
1,744167	0,1	6,088443
1,745833	0,1	6,095694
1,747500	0,1	6,088195
1,749167	0,1	6,073546
1,750833	0,1	6,040747
1,752500	0,1	6,043079
1,754167	0,1	6,039198
1,755833	0,1	6,051682
1,757500	0,1	6,027393
1,759167	0,1	5,961153
1,760833	0,1	5,935964
1,762500	0,1	5,948750
1,764167	0,1	5,926719
1,765833	0,1	5,872323
1,767500	0,1	5,831090
1,769167	0,1	5,740206
1,770833	0,1	5,736627
1,772500	0,1	5,689133
1,774167	0,1	5,654494
1,775833	0,1	5,563681
1,777500	0,1	5,520303
1,779167	0,1	5,516451
1,780833	0,1	5,484597
1,782500	0,1	5,421872
1,784167	0,1	5,290878
1,785833	0,1	5,289364
1,787500	0,1	5,202170
1,789167	0,1	5,165580
1,790833	0,1	5,100532
1,792500	0,1	5,033336
1,794167	0,1	4,995217
1,795833	0,1	4,915748
1,797500	0,1	4,879893
1,799167	0,1	4,843151
1,800833	0,1	4,771387
1,802500	0,1	4,708973
1,804167	0,1	4,654502
1,805833	0,1	4,581022
1,807500	0,1	4,532929
1,809167	0,1	4,494353
1,810833	0,1	4,404569
1,812500	0,1	4,371231
1,814167	0,1	4,307481
1,815833	0,1	4,257161
1,817500	0,1	4,169937
1,819167	0,1	4,135323
1,820833	0,1	4,070309
1,822500	0,1	4,019450
1,824167	0,1	3,982703
1,825833	0,1	3,926595
1,827500	0,1	3,867028
1,829167	0,1	3,849188
1,830833	0,1	3,809331
1,832500	0,1	3,769659
1,834167	0,1	3,742656
1,835833	0,1	3,732925
1,837500	0,1	3,689489
1,839167	0,1	3,694094
1,840833	0,1	3,680090
1,842500	0,1	3,689182
1,844167	0,1	3,676172
1,845833	0,1	3,687609
1,847500	0,1	3,662853
1,849167	0,1	3,736087
1,850833	0,1	3,749181
1,852500	0,1	3,719725
1,854167	0,1	3,798451
1,855833	0,1	3,832361
1,857500	0,1	3,857451
1,859167	0,1	3,877877
1,860833	0,1	3,921493
1,862500	0,1	3,952672
1,864167	0,1	3,990026
1,865833	0,1	4,031917
1,867500	0,1	4,081028
1,869167	0,1	4,126383
1,870833	0,1	4,131785
1,872500	0,1	4,170152
1,874167	0,1	4,179812
1,875833	0,1	4,254654
1,877500	0,1	4,264327
1,879167	0,1	4,256865
1,880833	0,1	4,333541
1,882500	0,1	4,321349
1,884167	0,1	4,403270
1,885833	0,1	4,421996
1,887500	0,1	4,426665
1,889167	0,1	4,441846
1,890833	0,1	4,533745
1,892500	0,1	4,511521
1,894167	0,1	4,510866
1,895833	0,1	4,554052
1,897500	0,1	4,553660
1,899167	0,1	4,582689
1,900833	0,1	4,556559
1,902500	0,1	4,624049
1,904167	0,1	4,615632
1,905833	0,1	4,660042
1,907500	0,1	4,638497
1,909167	0,1	4,648638
1,910833	0,1	4,670577
1,912500	0,1	4,650406
1,914167	0,1	4,673776
1,915833	0,1	4,710732
1,917500	0,1	4,666893
1,919167	0,1	4,679179
1,920833	0,1	4,639351
1,922500	0,1	4,632609
1,924167	0,1	4,652511
1,925833	0,1	4,623281
1,927500	0,1	4,623250
1,929167	0,1	4,631943
1,930833	0,1	4,602714
1,932500	0,1	4,570926
1,934167	0,1	4,556474
1,935833	0,1	4,556743
1,937500	0,1	4,532265
1,939167	0,1	4,528251
1,940833	0,1	4,505600
1,942500	0,1	4,551772
1,944167	0,1	4,456932
1,945833	0,1	4,469700
1,947500	0,1	4,447254
1,949167	0,1	4,400781
1,950833	0,1	4,422764
1,952500	0,1	4,369573
1,954167	0,1	4,364163
1,955833	0,1	4,330201
1,957500	0,1	4,319318
1,959167	0,1	4,304224
1,960833	0,1	4,298254
1,962500	0,1	4,286936
1,964167	0,1	4,250017
1,965833	0,1	4,237596
1,967500	0,1	4,226883
1,969167	0,1	4,199621
1,970833	0,1	4,167207
1,972500	0,1	4,164035
1,974167	0,1	4,168136
1,975833	0,1	4,166187
1,977500	0,1	4,111921
1,979167	0,1	4,099494
1,980833	0,1	4,084574
1,982500	0,1	4,121071
1,984167	0,1	4,023835
1,985833	0,1	4,030139
1,987500	0,1	4,013228
1,989167	0,1	4,051144
1,990833	0,1	4,049776
1,992500	0,1	4,002988
1,994167	0,1	3,976303
1,995833	0,1	4,016344
1,997500	0,1	3,968023
1,999167	0,1	3,997893
2,000833	0,1	3,958937
2,002500	0,1	3,979685
2,004167	0,1	3,979450
2,005833	0,1	3,920176
2,007500	0,1	3,955810
2,009167	0,1	3,946433
2,010833	0,1	3,982935
2,012500	0,1	3,974795
2,014167	0,1	3,917466
2,015833	0,1	3,936706
2,017500	0,1	3,951549
2,019167	0,1	3,968087
2,020833	0,1	3,961409
2,022500	0,1	3,958813
2,024167	0,1	3,997492
2,025833	0,1	3,983879
2,027500	0,1	3,970450
2,029167	0,1	3,931097
2,030833	0,1	3,974249
2,032500	0,1	4,016504
2,034167	0,1	4,003869
2,035833	0,1	3,976622
2,037500	0,1	3,989712
2,039167	0,1	4,000733
2,040833	0,1	4,003250
2,042500	0,1	4,022312
2,044167	0,1	4,002358
2,045833	0,1	4,050608
2,047500	0,1	4,074028
2,049167	0,1	4,036841
2,050833	0,1	4,085250
2,052500	0,1	4,059100
2,054167	0,1	4,095957
2,055833	0,1	4,098401
2,057500	0,1	4,118313
2,059167	0,1	4,114059
2,060833	0,1	4,141149
2,062500	0,1	4,141844
2,064167	0,1	4,139209
2,065833	0,1	4,164233
2,067500	0,1	4,183180
2,069167	0,1	4,194337
2,070833	0,1	4,220626
2,072500	0,1	4,216776
2,074167	0,1	4,234300
2,075833	0,1	4,264241
2,077500	0,1	4,239909
2,079167	0,1	4,262214
2,080833	0,1	4,227089
2,082500	0,1	4,258926
2,084167	0,1	4,290739
2,085833	0,1	4,300443
2,087500	0,1	4,236996
2,089167	0,1	4,323229
2,090833	0,1	4,313394
2,092500	0,1	4,308766
2,094167	0,1	4,331688
2,095833	0,1	4,299359
2,097500	0,1	4,331928
2,099167	0,1	4,345813
2,100833	0,1	4,301835
2,102500	0,1	4,317365
2,104167	0,1	4,379977
2,105833	0,1	4,317789
2,107500	0,1	4,365166
2,109167	0,1	4,360959
2,110833	0,1	4,322774
2,112500	0,1	4,363464
2,114167	0,1	4,380841
2,115833	0,1	4,343635
2,117500	0,1	4,380469
2,119167	0,1	4,382990
2,120833	0,1	4,326595
2,122500	0,1	4,401114
2,124167	0,1	4,343882
2,125833	0,1	4,385745
2,127500	0,1	4,368507
2,129167	0,1	4,325778
2,130833	0,1	4,355269
2,132500	0,1	4,351297
2,134167	0,1	4,344076
2,135833	0,1	4,306379
2,137500	0,1	4,300894
2,139167	0,1	4,346984
2,140833	0,1	4,322246
2,142500	0,1	4,345286
2,144167	0,1	4,297332
2,145833	0,1	4,342439
2,147500	0,1	4,313967
2,149167	0,1	4,360414
2,150833	0,1	4,310400
2,152500	0,1	4,289779
2,154167	0,1	4,295087
2,155833	0,1	4,274115
2,157500	0,1	4,277193
2,159167	0,1	4,267133
2,160833	0,1	4,293825
2,162500	0,1	4,240119
2,164167	0,1	4,271586
2,165833	0,1	4,246685
2,167500	0,1	4,247530
2,169167	0,1	4,223722
2,170833	0,1	4,271501
2,172500	0,1	4,236625
2,174167	0,1	4,196742
2,175833	0,1	4,179452
2,177500	0,1	4,217864
2,179167	0,1	4,186477
2,180833	0,1	4,187318
2,182500	0,1	4,191500
2,184167	0,1	4,209628
2,185833	0,1	4,138777
2,187500	0,1	4,201019
2,189167	0,1	4,166558
2,190833	0,1	4,145946
2,192500	0,1	4,156972
2,194167	0,1	4,116053
2,195833	0,1	4,129428
2,197500	0,1	4,140055
2,199167	0,1	4,149147
2,200833	0,1	4,127290
2,202500	0,1	4,113004
2,204167	0,1	4,099702
2,205833	0,1	4,112393
2,207500	0,1	4,087616
2,209167	0,1	4,118432
2,210833	0,1	4,115110
2,212500	0,1	4,094432
2,214167	0,1	4,066399
2,215833	0,1	4,082167
2,217500	0,1	4,069808
2,219167	0,1	4,108573
2,220833	0,1	4,090094
2,222500	0,1	4,067943
2,224167	0,1	4,088459
2,225833	0,1	4,086437
2,227500	0,1	4,098523
2,229167	0,1	4,145405
2,230833	0,1	4,087945
2,232500	0,1	4,108256
2,234167	0,1	4,102657
2,235833	0,1	4,115111
2,237500	0,1	4,100191
2,239167	0,1	4,071553
2,240833	0,1	4,119685
2,242500	0,1	4,128902
2,244167	0,1	4,098935
2,245833	0,1	4,093811
2,247500	0,1	4,125164
2,249167	0,1	4,145250
2,250833	0,1	4,145089
2,252500	0,1	4,117711
2,254167	0,1	4,125536
2,255833	0,1	4,139893
2,257500	0,1	4,137992
2,259167	0,1	4,145129
2,260833	0,1	4,120715
2,262500	0,1	4,164958
2,264167	0,1	4,133294
2,265833	0,1	4,135273
2,267500	0,1	4,125947
2,269167	0,1	4,108950
2,270833	0,1	4,150474
2,272500	0,1	4,074809
2,274167	0,1	4,104315
2,275833	0,1	4,090976
2,277500	0,1	4,115147
2,279167	0,1	4,067256
2,280833	0,1	4,148646
2,282500	0,1	4,102190
2,284167	0,1	4,082503
2,285833	0,1	4,055454
2,287500	0,1	4,043164
2,289167	0,1	4,019558
2,290833	0,1	4,039663
2,292500	0,1	4,011650
2,294167	0,1	4,005928
2,295833	0,1	3,993797
2,297500	0,1	4,003977
2,299167	0,1	3,993886
2,300833	0,1	3,998674
2,302500	0,1	3,966812
2,304167	0,1	3,957883
2,305833	0,1	3,931686
2,307500	0,1	3,932623
2,309167	0,1	3,935663
2,310833	0,1	3,913076
2,312500	0,1	3,926463
2,314167	0,1	3,849315
2,315833	0,1	3,858817
2,317500	0,1	3,838559
2,319167	0,1	3,855255
2,320833	0,1	3,803338
2,322500	0,1	3,815235
2,324167	0,1	3,807835
2,325833	0,1	3,742618
2,327500	0,1	3,808070
2,329167	0,1	3,729239
2,330833	0,1	3,735593
2,332500	0,1	3,733002
2,334167	0,1	3,668098
2,335833	0,1	3,697852
2,337500	0,1	3,680436
2,339167	0,1	3,672957
2,340833	0,1	3,689494
2,342500	0,1	3,636427
2,344167	0,1	3,643103
2,345833	0,1	3,627007
2,347500	0,1	3,597062
2,349167	0,1	3,595652
2,350833	0,1	3,554541
2,352500	0,1	3,575035
2,354167	0,1	3,547150
2,355833	0,1	3,531071
2,357500	0,1	3,534955
2,359167	0,1	3,512226
2,360833	0,1	3,485473
2,362500	0,1	3,508846
2,364167	0,1	3,512972
2,365833	0,1	3,471530
2,367500	0,1	3,472428
2,369167	0,1	3,466391
2,370833	0,1	3,503112
2,372500	0,1	3,474328
2,374167	0,1	3,481863
2,375833	0,1	3,440788
2,377500	0,1	3,451144
2,379167	0,1	3,497665
2,380833	0,1	3,500605
2,382500	0,1	3,521522
2,384167	0,1	3,533190
2,385833	0,1	3,540943
2,387500	0,1	3,592477
2,389167	0,1	3,553840
2,390833	0,1	3,636059
2,392500	0,1	3,706213
2,394167	0,1	3,696063
2,395833	0,1	3,739711
2,397500	0,1	3,852796
2,399167	0,1	3,870743
2,400833	0,1	3,932506
2,402500	0,1	4,040497
2,404167	0,1	4,107230
2,405833	0,1	4,196105
2,407500	0,1	4,304395
2,409167	0,1	4,444213
2,410833	0,1	4,567273
2,412500	0,1	4,636655
2,414167	0,1	4,776004
2,415833	0,1	4,966380
2,417500	0,1	5,107298
2,419167	0,1	5,268929
2,420833	0,1	5,460673
2,422500	0,1	5,606953
2,424167	0,1	5,771434
2,425833	0,1	5,971548
2,427500	0,1	6,115158
2,429167	0,1	6,415812
2,430833	0,1	6,591480
2,432500	0,1	6,824925
2,434167	0,1	7,027897
2,435833	0,1	7,273244
2,437500	0,1	7,487722
2,439167	0,1	7,742875
2,440833	0,1	7,965185
2,442500	0,1	8,191565
2,444167	0,1	8,365717
2,445833	0,1	8,630316
2,447500	0,1	8,854916
2,449167	0,1	9,087798
2,450833	0,1	9,329758
2,452500	0,1	9,525039
2,454167	0,1	9,764216
2,455833	0,1	9,932170
2,457500	0,1	10,174739
2,459167	0,1	10,370151
2,460833	0,1	10,606690
2,462500	0,1	10,807117
2,464167	0,1	10,977538
2,465833	0,1	11,153665
2,467500	0,1	11,283204
2,469167	0,1	11,468272
2,470833	0,1	11,624725
2,472500	0,1	11,800748
2,474167	0,1	11,960802
2,475833	0,1	12,128025
2,477500	0,1	12,241649
2,479167	0,1	12,411717
2,480833	0,1	12,551338
2,482500	0,1	12,727149
2,484167	0,1	12,862500
2,485833	0,1	13,005348
2,487500	0,1	13,154758
2,489167	0,1	13,287320
2,490833	0,1	13,401971
2,492500	0,1	13,624268
2,494167	0,1	13,800482
2,495833	0,1	13,983079
2,497500	0,1	14,166306
2,499167	0,1	14,350362
2,500833	0,1	14,580563
2,502500	0,1	14,800705
2,504167	0,1	15,018692
2,505833	0,1	15,268417
2,507500	0,1	15,577496
2,509167	0,1	15,866933
2,510833	0,1	16,079709
2,512500	0,1	16,471319
2,514167	0,1	16,798657
2,515833	0,1	17,129174
2,517500	0,1	17,505115
2,519167	0,1	17,873540
2,520833	0,1	18,274100
2,522500	0,1	18,731593
2,524167	0,1	19,169008
2,525833	0,1	19,599904
2,527500	0,1	20,098277
2,529167	0,1	20,569300
2,530833	0,1	21,151116
2,532500	0,1	21,620880
2,534167	0,1	22,200599
2,535833	0,1	22,719691
2,537500	0,1	23,300012
2,539167	0,1	23,899387
2,540833	0,1	24,470929
2,542500	0,1	25,109009
2,544167	0,1	25,711208
2,545833	0,1	26,290827
2,547500	0,1	26,928618
2,549167	0,1	27,554817
2,550833	0,1	28,181272
2,552500	0,1	28,748356
2,554167	0,1	29,408824
2,555833	0,1	30,020085
2,557500	0,1	30,635370
2,559167	0,1	31,242228
2,560833	0,1	31,798125
2,562500	0,1	32,383035
2,564167	0,1	32,949419
2,565833	0,1	33,502012
2,567500	0,1	34,061512
2,569167	0,1	34,544537
2,570833	0,1	35,066020
2,572500	0,1	35,525740
2,574167	0,1	35,983869
2,575833	0,1	36,438105
2,577500	0,1	36,823982
2,579167	0,1	37,219074
2,580833	0,1	37,648617
2,582500	0,1	37,967314
2,584167	0,1	38,292053
2,585833	0,1	38,591298
2,587500	0,1	38,845995
2,589167	0,1	39,100578
2,590833	0,1	39,323524
2,592500	0,1	39,562632
2,594167	0,1	39,708531
2,595833	0,1	39,903676
2,597500	0,1	40,026565
2,599167	0,1	40,115655
2,600833	0,1	40,211911
2,602500	0,1	40,264715
2,604167	0,1	40,342510
2,605833	0,1	40,348920
2,607500	0,1	40,336575
2,609167	0,1	40,337677
2,610833	0,1	40,269803
2,612500	0,1	40,178728
2,614167	0,1	40,142439
2,615833	0,1	40,024360
2,617500	0,1	39,914225
2,619167	0,1	39,764714
2,620833	0,1	39,615822
2,622500	0,1	39,466263
2,624167	0,1	39,290543
2,625833	0,1	39,078829
2,627500	0,1	38,896686
2,629167	0,1	38,670053
2,630833	0,1	38,402392
2,632500	0,1	38,138893
2,634167	0,1	37,878345
2,635833	0,1	37,628023
2,637500	0,1	37,296074
2,639167	0,1	37,001700
2,640833	0,1	36,741588
2,642500	0,1	36,357666
2,644167	0,1	36,058340
2,645833	0,1	35,658551
2,647500	0,1	35,328539
2,649167	0,1	34,969292
2,650833	0,1	34,619509
2,652500	0,1	34,241641
2,654167	0,1	33,817618
2,655833	0,1	33,444143
2,657500	0,1	33,014908
2,659167	0,1	32,613593
2,660833	0,1	32,221970
2,662500	0,1	31,766449
2,664167	0,1	31,365215
2,665833	0,1	30,973780
2,667500	0,1	30,568177
2,669167	0,1	30,082710
2,670833	0,1	29,645360
2,672500	0,1	29,268024
2,674167	0,1	28,790664
2,675833	0,1	28,377011
2,677500	0,1	27,927432
2,679167	0,1	27,521064
2,680833	0,1	27,049977
2,682500	0,1	26,611743
2,684167	0,1	26,220898
2,685833	0,1	25,753078
2,687500	0,1	25,349414
2,689167	0,1	24,915943
2,690833	0,1	24,459159
2,692500	0,1	24,032351
2,694167	0,1	23,640303
2,695833	0,1	23,252004
2,697500	0,1	22,832985
2,699167	0,1	22,410471
2,700833	0,1	22,018881
2,702500	0,1	21,655478
2,704167	0,1	21,277583
2,705833	0,1	20,843022
2,707500	0,1	20,507283
2,709167	0,1	20,099736
2,710833	0,1	19,740596
2,712500	0,1	19,380479
2,714167	0,1	19,030250
2,715833	0,1	18,707324
2,717500	0,1	18,314850
2,719167	0,1	17,975520
2,720833	0,1	17,637122
2,722500	0,1	17,366759
2,724167	0,1	17,084043
2,725833	0,1	16,771150
2,727500	0,1	16,434245
2,729167	0,1	16,162951
2,730833	0,1	15,874001
2,732500	0,1	15,584965
2,734167	0,1	15,329012
2,735833	0,1	15,043414
2,737500	0,1	14,778336
2,739167	0,1	14,524198
2,740833	0,1	14,276571
2,742500	0,1	14,029140
2,744167	0,1	13,809786
2,745833	0,1	13,505813
2,747500	0,1	13,308620
2,749167	0,1	13,134640
2,750833	0,1	12,884777
2,752500	0,1	12,665531
2,754167	0,1	12,457076
2,755833	0,1	12,274039
2,757500	0,1	12,068624
2,759167	0,1	11,846814
2,760833	0,1	11,709455
2,762500	0,1	11,498596
2,764167	0,1	11,306988
2,765833	0,1	11,176314
2,767500	0,1	11,001509
2,769167	0,1	10,814737
2,770833	0,1	10,660368
2,772500	0,1	10,452614
2,774167	0,1	10,278404
2,775833	0,1	10,140286
2,777500	0,1	9,984693
2,779167	0,1	9,829833
2,780833	0,1	9,751823
2,782500	0,1	9,569389
2,784167	0,1	9,419881
2,785833	0,1	9,300945
2,787500	0,1	9,169850
2,789167	0,1	9,050987
2,790833	0,1	8,881053
2,792500	0,1	8,718605
2,794167	0,1	8,633351
2,795833	0,1	8,487606
2,797500	0,1	8,345272
2,799167	0,1	8,268946
2,800833	0,1	8,167882
2,802500	0,1	8,044014
2,804167	0,1	7,906540
2,805833	0,1	7,788414
2,807500	0,1	7,691907
2,809167	0,1	7,547635
2,810833	0,1	7,449769
2,812500	0,1	7,331528
2,814167	0,1	7,240836
2,815833	0,1	7,128230
2,817500	0,1	7,080600
2,819167	0,1	6,956108
2,820833	0,1	6,851316
2,822500	0,1	6,751778
2,824167	0,1	6,704379
2,825833	0,1	6,580193
2,827500	0,1	6,482661
2,829167	0,1	6,416371
2,830833	0,1	6,319446
2,832500	0,1	6,217505
2,834167	0,1	6,135834
2,835833	0,1	6,021327
2,837500	0,1	6,021743
2,839167	0,1	5,873240
2,840833	0,1	5,813748
2,842500	0,1	5,740239
2,844167	0,1	5,671738
2,845833	0,1	5,570022
2,847500	0,1	5,493573
2,849167	0,1	5,432287
2,850833	0,1	5,358318
2,852500	0,1	5,291382
2,854167	0,1	5,206692
2,855833	0,1	5,144087
2,857500	0,1	5,079913
2,859167	0,1	5,022705
2,860833	0,1	4,940290
2,862500	0,1	4,915345
2,864167	0,1	4,884338
2,865833	0,1	4,764099
2,867500	0,1	4,734763
2,869167	0,1	4,664170
2,870833	0,1	4,615029
2,872500	0,1	4,566537
2,874167	0,1	4,488716
2,875833	0,1	4,425382
2,877500	0,1	4,432591
2,879167	0,1	4,310051
2,880833	0,1	4,292738
2,882500	0,1	4,237281
2,884167	0,1	4,224449
2,885833	0,1	4,134928
2,887500	0,1	4,125791
2,889167	0,1	4,046630
2,890833	0,1	3,960859
2,892500	0,1	3,943612
2,894167	0,1	3,921839
2,895833	0,1	3,880884
2,897500	0,1	3,821293
2,899167	0,1	3,811980
2,900833	0,1	3,789807
2,902500	0,1	3,720952
2,904167	0,1	3,695292
2,905833	0,1	3,656394
2,907500	0,1	3,594706
2,909167	0,1	3,562782
2,910833	0,1	3,578901
2,912500	0,1	3,555624
2,914167	0,1	3,476804
2,915833	0,1	3,429619
2,917500	0,1	3,395012
2,919167	0,1	3,393297
2,920833	0,1	3,354226
2,922500	0,1	3,297812
2,924167	0,1	3,250754
2,925833	0,1	3,226324
2,927500	0,1	3,217635
2,929167	0,1	3,195828
2,930833	0,1	3,163564
2,932500	0,1	3,114583
2,934167	0,1	3,139095
2,935833	0,1	3,098621
2,937500	0,1	3,082637
2,939167	0,1	3,050900
2,940833	0,1	3,007227
2,942500	0,1	3,007022
2,944167	0,1	2,964505
2,945833	0,1	2,926405
2,947500	0,1	2,950760
2,949167	0,1	2,913686
2,950833	0,1	2,878138
2,952500	0,1	2,859094
2,954167	0,1	2,840118
2,955833	0,1	2,899818
2,957500	0,1	2,819338
2,959167	0,1	2,772333
2,960833	0,1	2,754718
2,962500	0,1	2,791063
2,964167	0,1	2,750260
2,965833	0,1	2,712439
2,967500	0,1	2,722046
2,969167	0,1	2,695544
2,970833	0,1	2,652660
2,972500	0,1	2,644587
2,974167	0,1	2,624834
2,975833	0,1	2,639832
2,977500	0,1	2,624840
2,979167	0,1	2,569082
2,980833	0,1	2,540042
2,982500	0,1	2,541035
2,984167	0,1	2,528752
2,985833	0,1	2,494345
2,987500	0,1	2,523422
2,989167	0,1	2,515957
2,990833	0,1	2,499514
2,992500	0,1	2,511860
2,994167	0,1	2,459936
2,995833	0,1	2,460712
2,997500	0,1	2,462443
2,999167	0,1	2,438458
3,000833	0,1	2,426086
3,002500	0,1	2,411300
3,004167	0,1	2,412875
3,005833	0,1	2,378627
3,007500	0,1	2,374952
3,009167	0,1	2,379695
3,010833	0,1	2,356714
3,012500	0,1	2,321886
3,014167	0,1	2,342983
3,015833	0,1	2,330856
3,017500	0,1	2,320727
3,019167	0,1	2,300129
3,020833	0,1	2,264655
3,022500	0,1	2,253807
3,024167	0,1	2,280075
3,025833	0,1	2,293942
3,027500	0,1	2,281377
3,029167	0,1	2,265651
3,030833	0,1	2,222507
3,032500	0,1	2,215392
3,034167	0,1	2,201465
3,035833	0,1	2,218975
3,037500	0,1	2,198737
3,039167	0,1	2,185382
3,040833	0,1	2,177485
3,042500	0,1	2,187532
3,044167	0,1	2,142246
3,045833	0,1	2,185514
3,047500	0,1	2,153658
3,049167	0,1	2,144677
3,050833	0,1	2,119557
3,052500	0,1	2,141370
3,054167	0,1	2,137283
3,055833	0,1	2,103049
3,057500	0,1	2,113808
3,059167	0,1	2,106489
3,060833	0,1	2,063506
3,062500	0,1	2,056962
3,064167	0,1	2,073462
3,065833	0,1	2,065432
3,067500	0,1	2,039455
3,069167	0,1	2,069374
3,070833	0,1	2,055311
3,072500	0,1	1,999211
3,074167	0,1	2,033126
3,075833	0,1	2,004365
3,077500	0,1	2,031912
3,079167	0,1	2,020217
3,080833	0,1	1,988574
3,082500	0,1	1,982175
3,084167	0,1	1,997973
3,085833	0,1	1,979032
3,087500	0,1	1,981542
3,089167	0,1	1,978312
3,090833	0,1	1,952627
3,092500	0,1	1,988494
3,094167	0,1	1,972290
3,095833	0,1	1,968053
3,097500	0,1	1,952548
3,099167	0,1	1,977518
3,100833	0,1	1,956288
3,102500	0,1	1,930886
3,104167	0,1	1,972562
3,105833	0,1	1,959657
3,107500	0,1	1,968197
3,109167	0,1	1,961304
3,110833	0,1	1,961016
3,112500	0,1	1,976087
3,114167	0,1	1,978739
3,115833	0,1	1,957353
3,117500	0,1	2,002553
3,119167	0,1	1,977241
3,120833	0,1	1,996250
3,122500	0,1	1,973862
3,124167	0,1	2,029753
3,125833	0,1	2,014766
3,127500	0,1	2,022229
3,129167	0,1	1,996401
3,130833	0,1	2,057237
3,132500	0,1	2,016135
3,134167	0,1	2,073315
3,135833	0,1	2,069382
3,137500	0,1	2,043475
3,139167	0,1	2,070809
3,140833	0,1	2,061636
3,142500	0,1	2,066720
3,144167	0,1	2,107052
3,145833	0,1	2,141081
3,147500	0,1	2,138573
3,149167	0,1	2,144747
3,150833	0,1	2,154653
3,152500	0,1	2,150635
3,154167	0,1	2,131115
3,155833	0,1	2,142375
3,157500	0,1	2,192403
3,159167	0,1	2,162629
3,160833	0,1	2,188318
3,162500	0,1	2,216172
3,164167	0,1	2,225869
3,165833	0,1	2,230538
3,167500	0,1	2,227309
3,169167	0,1	2,212807
3,170833	0,1	2,247475
3,172500	0,1	2,211020
3,174167	0,1	2,243884
3,175833	0,1	2,280433
3,177500	0,1	2,262925
3,179167	0,1	2,212029
3,180833	0,1	2,208857
3,182500	0,1	2,236203
3,184167	0,1	2,271314
3,185833	0,1	2,262782
3,187500	0,1	2,219708
3,189167	0,1	2,298374
3,190833	0,1	2,251012
3,192500	0,1	2,233990
3,194167	0,1	2,254227
3,195833	0,1	2,253802
3,197500	0,1	2,276772
3,199167	0,1	2,271681
3,200833	0,1	2,270171
3,202500	0,1	2,239163
3,204167	0,1	2,233487
3,205833	0,1	2,258464
3,207500	0,1	2,225809
3,209167	0,1	2,208931
3,210833	0,1	2,214959
3,212500	0,1	2,208499
3,214167	0,1	2,165935
3,215833	0,1	2,170806
3,217500	0,1	2,194994
3,219167	0,1	2,183731
3,220833	0,1	2,155091
3,222500	0,1	2,125446
3,224167	0,1	2,121707
3,225833	0,1	2,105917
3,227500	0,1	2,113880
3,229167	0,1	2,106561
3,230833	0,1	2,080793
3,232500	0,1	2,147460
3,234167	0,1	2,091718
3,235833	0,1	2,068955
3,237500	0,1	2,073616
3,239167	0,1	2,023385
3,240833	0,1	2,036145
3,242500	0,1	2,038523
3,244167	0,1	2,051007
3,245833	0,1	2,001715
3,247500	0,1	1,949620
3,249167	0,1	1,962384
3,250833	0,1	1,990436
3,252500	0,1	1,978314
3,254167	0,1	1,953780
3,255833	0,1	1,970702
3,257500	0,1	1,901980
3,259167	0,1	1,897381
3,260833	0,1	1,877080
3,262500	0,1	1,895428
3,264167	0,1	1,872350
3,265833	0,1	1,848022
3,267500	0,1	1,828083
3,269167	0,1	1,817878
3,270833	0,1	1,858560
3,272500	0,1	1,790716
3,274167	0,1	1,840122
3,275833	0,1	1,789786
3,277500	0,1	1,754636
3,279167	0,1	1,754557
3,280833	0,1	1,756852
3,282500	0,1	1,735557
3,284167	0,1	1,687942
3,285833	0,1	1,667700
3,287500	0,1	1,678901
3,289167	0,1	1,718908
3,290833	0,1	1,654257
3,292500	0,1	1,614104
3,294167	0,1	1,637102
3,295833	0,1	1,625495
3,297500	0,1	1,595380
3,299167	0,1	1,603400
3,300833	0,1	1,593933
3,302500	0,1	1,602340
3,304167	0,1	1,590777
3,305833	0,1	1,572874
3,307500	0,1	1,566270
3,309167	0,1	1,541030
3,310833	0,1	1,571779
3,312500	0,1	1,534433
3,314167	0,1	1,529344
3,315833	0,1	1,504765
3,317500	0,1	1,509918
3,319167	0,1	1,485400
3,320833	0,1	1,478533
3,322500	0,1	1,482469
3,324167	0,1	1,528918
3,325833	0,1	1,443417
3,327500	0,1	1,412170
3,329167	0,1	1,449685
3,330833	0,1	1,444482
3,332500	0,1	1,480965
3,334167	0,1	1,455232
3,335833	0,1	1,451658
3,337500	0,1	1,438268
3,339167	0,1	1,458240
3,340833	0,1	1,422354
3,342500	0,1	1,399269
3,344167	0,1	1,390114
3,345833	0,1	1,391303
3,347500	0,1	1,439886
3,349167	0,1	1,385869
3,350833	0,1	1,419386
3,352500	0,1	1,467977
3,354167	0,1	1,349838
3,355833	0,1	1,367505
3,357500	0,1	1,389871
3,359167	0,1	1,396666
3,360833	0,1	1,376542
3,362500	0,1	1,399447
3,364167	0,1	1,387368
3,365833	0,1	1,403788
3,367500	0,1	1,394188
3,369167	0,1	1,409208
3,370833	0,1	1,370234
3,372500	0,1	1,359009
3,374167	0,1	1,376397
3,375833	0,1	1,387720
3,377500	0,1	1,388944
3,379167	0,1	1,389944
3,380833	0,1	1,375032
3,382500	0,1	1,389889
3,384167	0,1	1,354568
3,385833	0,1	1,359360
3,387500	0,1	1,380569
3,389167	0,1	1,341876
3,390833	0,1	1,360070
3,392500	0,1	1,275742
3,394167	0,1	1,343581
3,395833	0,1	1,347176
3,397500	0,1	1,356135
3,399167	0,1	1,374008
3,400833	0,1	1,369240
3,402500	0,1	1,358210
3,404167	0,1	1,378498
3,405833	0,1	1,353853
3,407500	0,1	1,341089
3,409167	0,1	1,288408
3,410833	0,1	1,344941
3,412500	0,1	1,331008
3,414167	0,1	1,356267
3,415833	0,1	1,328095
3,417500	0,1	1,359339
3,419167	0,1	1,339919
3,420833	0,1	1,324814
3,422500	0,1	1,336501
3,424167	0,1	1,324542
3,425833	0,1	1,318382
3,427500	0,1	1,324658
3,429167	0,1	1,376914
3,430833	0,1	1,291183
3,432500	0,1	1,312403
3,434167	0,1	1,312592
3,435833	0,1	1,343794
3,437500	0,1	1,299895
3,439167	0,1	1,343214
3,440833	0,1	1,319658
3,442500	0,1	1,346306
3,444167	0,1	1,337050
3,445833	0,1	1,364073
3,447500	0,1	1,357360
3,449167	0,1	1,370815
3,450833	0,1	1,362047
3,452500	0,1	1,362449
3,454167	0,1	1,363571
3,455833	0,1	1,335392
3,457500	0,1	1,351382
3,459167	0,1	1,380485
3,460833	0,1	1,363984
3,462500	0,1	1,419684
3,464167	0,1	1,385151
3,465833	0,1	1,412306
3,467500	0,1	1,421272
3,469167	0,1	1,398774
3,470833	0,1	1,392618
3,472500	0,1	1,436646
3,474167	0,1	1,422457
3,475833	0,1	1,444270
3,477500	0,1	1,484739
3,479167	0,1	1,486051
3,480833	0,1	1,472729
3,482500	0,1	1,512766
3,484167	0,1	1,477936
3,485833	0,1	1,524540
3,487500	0,1	1,548336
3,489167	0,1	1,547338
3,490833	0,1	1,572346
3,492500	0,1	1,565267
3,494167	0,1	1,558804
3,495833	0,1	1,554367
3,497500	0,1	1,607988
3,499167	0,1	1,623067
3,500833	0,1	1,637680
3,502500	0,1	1,642199
3,504167	0,1	1,620830
3,505833	0,1	1,617957
3,507500	0,1	1,656874
3,509167	0,1	1,675324
3,510833	0,1	1,672531
3,512500	0,1	1,686923
3,514167	0,1	1,691740
3,515833	0,1	1,725469
3,517500	0,1	1,716261
3,519167	0,1	1,720783
3,520833	0,1	1,748392
3,522500	0,1	1,701425
3,524167	0,1	1,742573
3,525833	0,1	1,755006
3,527500	0,1	1,774712
3,529167	0,1	1,765829
3,530833	0,1	1,768976
3,532500	0,1	1,745100
3,534167	0,1	1,753257
3,535833	0,1	1,821123
3,537500	0,1	1,779891
3,539167	0,1	1,775214
3,540833	0,1	1,811938
3,542500	0,1	1,769267
3,544167	0,1	1,797458
3,545833	0,1	1,800522
3,547500	0,1	1,784193
3,549167	0,1	1,821033
3,550833	0,1	1,811079
3,552500	0,1	1,768062
3,554167	0,1	1,816735
3,555833	0,1	1,807206
3,557500	0,1	1,747541
3,559167	0,1	1,786753
3,560833	0,1	1,803046
3,562500	0,1	1,765330
3,564167	0,1	1,800675
3,565833	0,1	1,793228
3,567500	0,1	1,761814
3,569167	0,1	1,777861
3,570833	0,1	1,790508
3,572500	0,1	1,767473
3,574167	0,1	1,749827
3,575833	0,1	1,765832
3,577500	0,1	1,781549
3,579167	0,1	1,753562
3,580833	0,1	1,760149
3,582500	0,1	1,705447
3,584167	0,1	1,754904
3,585833	0,1	1,697922
3,587500	0,1	1,691028
3,589167	0,1	1,684635
3,590833	0,1	1,690101
3,592500	0,1	1,692525
3,594167	0,1	1,666072
3,595833	0,1	1,690078
3,597500	0,1	1,660276
3,599167	0,1	1,677748
3,600833	0,1	1,631667
3,602500	0,1	1,671289
3,604167	0,1	1,653045
3,605833	0,1	1,639921
3,607500	0,1	1,573438
3,609167	0,1	1,590552
3,610833	0,1	1,599450
3,612500	0,1	1,578036
3,614167	0,1	1,538822
3,615833	0,1	1,589333
3,617500	0,1	1,574591
3,619167	0,1	1,546644
3,620833	0,1	1,530981
3,622500	0,1	1,512011
3,624167	0,1	1,549496
3,625833	0,1	1,482746
3,627500	0,1	1,488343
3,629167	0,1	1,509903
3,630833	0,1	1,465282
3,632500	0,1	1,462748
3,634167	0,1	1,456024
3,635833	0,1	1,439159
3,637500	0,1	1,397694
3,639167	0,1	1,441669
3,640833	0,1	1,438524
3,642500	0,1	1,395281
3,644167	0,1	1,401842
3,645833	0,1	1,387931
3,647500	0,1	1,357047
3,649167	0,1	1,351473
3,650833	0,1	1,326701
3,652500	0,1	1,369229
3,654167	0,1	1,342314
3,655833	0,1	1,328361
3,657500	0,1	1,311631
3,659167	0,1	1,318361
3,660833	0,1	1,298532
3,662500	0,1	1,286992
3,664167	0,1	1,312775
3,665833	0,1	1,302975
3,667500	0,1	1,293149
3,669167	0,1	1,246313
3,670833	0,1	1,271305
3,672500	0,1	1,260979
3,674167	0,1	1,213771
3,675833	0,1	1,209316
3,677500	0,1	1,221156
3,679167	0,1	1,171802
3,680833	0,1	1,187785
3,682500	0,1	1,188483
3,684167	0,1	1,220284
3,685833	0,1	1,193088
3,687500	0,1	1,180663
3,689167	0,1	1,141128
3,690833	0,1	1,143715
3,692500	0,1	1,124807
3,694167	0,1	1,110821
3,695833	0,1	1,087560
3,697500	0,1	1,143992
3,699167	0,1	1,158396
3,700833	0,1	1,095747
3,702500	0,1	1,138924
3,704167	0,1	1,078345
3,705833	0,1	1,085371
3,707500	0,1	1,095462
3,709167	0,1	1,094019
3,710833	0,1	1,081465
3,712500	0,1	1,074466
3,714167	0,1	1,066576
3,715833	0,1	1,067972
3,717500	0,1	1,087904
3,719167	0,1	1,046696
3,720833	0,1	1,068235
3,722500	0,1	1,081149
3,724167	0,1	1,052336
3,725833	0,1	1,064727
3,727500	0,1	1,049644
3,729167	0,1	1,026781
3,730833	0,1	1,053211
3,732500	0,1	1,044154
3,734167	0,1	1,044085
3,735833	0,1	1,012761
3,737500	0,1	1,021706
3,739167	0,1	1,007357
3,740833	0,1	1,039366
3,742500	0,1	1,026468
3,744167	0,1	1,035482
3,745833	0,1	0,997077
3,747500	0,1	1,045873
3,749167	0,1	1,044129
3,750833	0,1	1,012761
3,752500	0,1	0,988606
3,754167	0,1	0,998732
3,755833	0,1	0,999246
3,757500	0,1	1,015705
3,759167	0,1	1,048234
3,760833	0,1	1,027135
3,762500	0,1	1,021065
3,764167	0,1	1,024596
3,765833	0,1	1,037237
3,767500	0,1	1,022245
3,769167	0,1	1,033528
3,770833	0,1	1,048305
3,772500	0,1	1,020272
3,774167	0,1	1,029705
3,775833	0,1	1,038684
3,777500	0,1	1,013561
3,779167	0,1	1,012509
3,780833	0,1	1,016863
3,782500	0,1	1,040547
3,784167	0,1	1,006163
3,785833	0,1	1,012241
3,787500	0,1	1,048654
3,789167	0,1	1,016073
3,790833	0,1	1,029483
3,792500	0,1	1,011913
3,794167	0,1	1,034991
3,795833	0,1	1,037330
3,797500	0,1	1,002875
3,799167	0,1	1,041832
3,800833	0,1	0,994701
3,802500	0,1	1,009041
3,804167	0,1	1,023193
3,805833	0,1	0,984256
3,807500	0,1	0,991757
3,809167	0,1	0,994602
3,810833	0,1	1,036943
3,812500	0,1	0,972465
3,814167	0,1	0,953012
3,815833	0,1	1,024913
3,817500	0,1	0,986389
3,819167	0,1	0,985469
3,820833	0,1	0,976871
3,822500	0,1	0,975069
3,824167	0,1	0,983135
3,825833	0,1	0,969386
3,827500	0,1	0,978180
3,829167	0,1	0,970652
3,830833	0,1	0,999015
3,832500	0,1	0,946113
3,834167	0,1	0,931087
3,835833	0,1	0,983080
3,837500	0,1	1,000152
3,839167	0,1	0,954661
3,840833	0,1	0,931262
3,842500	0,1	0,964998
3,844167	0,1	0,949812
3,845833	0,1	0,961715
3,847500	0,1	0,991062
3,849167	0,1	0,932518
3,850833	0,1	0,941563
3,852500	0,1	0,948120
3,854167	0,1	0,955671
3,855833	0,1	0,944037
3,857500	0,1	0,932548
3,859167	0,1	0,938589
3,860833	0,1	0,932060
3,862500	0,1	0,953583
3,864167	0,1	0,928734
3,865833	0,1	0,932172
3,867500	0,1	0,910893
3,869167	0,1	0,936007
3,870833	0,1	0,916782
3,872500	0,1	0,893922
3,874167	0,1	0,902950
3,875833	0,1	0,906519
3,877500	0,1	0,852966
3,879167	0,1	0,923442
3,880833	0,1	0,899968
3,882500	0,1	0,884770
3,884167	0,1	0,898357
3,885833	0,1	0,889211
3,887500	0,1	0,875817
3,889167	0,1	0,889362
3,890833	0,1	0,902354
3,892500	0,1	0,888700
3,894167	0,1	0,885121
3,895833	0,1	0,891206
3,897500	0,1	0,850791
3,899167	0,1	0,860822
3,900833	0,1	0,835527
3,902500	0,1	0,874450
3,904167	0,1	0,875705
3,905833	0,1	0,832535
3,907500	0,1	0,828371
3,909167	0,1	0,832721
3,910833	0,1	0,843891
3,912500	0,1	0,803917
3,914167	0,1	0,813961
3,915833	0,1	0,808379
3,917500	0,1	0,848369
3,919167	0,1	0,829755
3,920833	0,1	0,833653
3,922500	0,1	0,817161
3,924167	0,1	0,817513
3,925833	0,1	0,826082
3,927500	0,1	0,844758
3,929167	0,1	0,799594
3,930833	0,1	0,761503
3,932500	0,1	0,815409
3,934167	0,1	0,796789
3,935833	0,1	0,806825
3,937500	0,1	0,779718
3,939167	0,1	0,826492
3,940833	0,1	0,802456
3,942500	0,1	0,787994
3,944167	0,1	0,797677
3,945833	0,1	0,775471
3,947500	0,1	0,818632
3,949167	0,1	0,778721
3,950833	0,1	0,764874
3,952500	0,1	0,753151
3,954167	0,1	0,745712
3,955833	0,1	0,756300
3,957500	0,1	0,780692
3,959167	0,1	0,787595
3,960833	0,1	0,800080
3,962500	0,1	0,806469
3,964167	0,1	0,787760
3,965833	0,1	0,753277
3,967500	0,1	0,761649
3,969167	0,1	0,757788
3,970833	0,1	0,769743
3,972500	0,1	0,783282
3,974167	0,1	0,769935
3,975833	0,1	0,809262
3,977500	0,1	0,737654
3,979167	0,1	0,766890
3,980833	0,1	0,787788
3,982500	0,1	0,794626
3,984167	0,1	0,737287
3,985833	0,1	0,760030
3,987500	0,1	0,720119
3,989167	0,1	0,769040
3,990833	0,1	0,767185
3,992500	0,1	0,755187
3,994167	0,1	0,777353
3,995833	0,1	0,737310
3,997500	0,1	0,752882
3,999167	0,1	0,768312
4,000833	0,1	0,787986
4,002500	0,1	0,760173
4,004167	0,1	0,759784
4,005833	0,1	0,741207
4,007500	0,1	0,733356
4,009167	0,1	0,763473
4,010833	0,1	0,759589
4,012500	0,1	0,754149
4,014167	0,1	0,767618
4,015833	0,1	0,747357
4,017500	0,1	0,736789
4,019167	0,1	0,758585
4,020833	0,1	0,793647
4,022500	0,1	0,768097
4,024167	0,1	0,748132
4,025833	0,1	0,765474
4,027500	0,1	0,756948
4,029167	0,1	0,768023
4,030833	0,1	0,795384
4,032500	0,1	0,802986
4,034167	0,1	0,752395
4,035833	0,1	0,793449
4,037500	0,1	0,796153
4,039167	0,1	0,813236
4,040833	0,1	0,792794
4,042500	0,1	0,809306
4,044167	0,1	0,798982
4,045833	0,1	0,831385
4,047500	0,1	0,811800
4,049167	0,1	0,813530
4,050833	0,1	0,874049
4,052500	0,1	0,811219
4,054167	0,1	0,831204
4,055833	0,1	0,852948
4,057500	0,1	0,830307
4,059167	0,1	0,871609
4,060833	0,1	0,880740
4,062500	0,1	0,851565
4,064167	0,1	0,853951
4,065833	0,1	0,864216
4,067500	0,1	0,892067
4,069167	0,1	0,920081
4,070833	0,1	0,914622
4,072500	0,1	0,915199
4,074167	0,1	0,913597
4,075833	0,1	0,901914
4,077500	0,1	0,898361
4,079167	0,1	0,937781
4,080833	0,1	0,955915
4,082500	0,1	0,959007
4,084167	0,1	0,952099
4,085833	0,1	0,949297
4,087500	0,1	0,983616
4,089167	0,1	0,995685
4,090833	0,1	0,996956
4,092500	0,1	1,030277
4,094167	0,1	1,027397
4,095833	0,1	1,059677
4,097500	0,1	1,079434
4,099167	0,1	1,094214
4,100833	0,1	1,036743
4,102500	0,1	1,103026
4,104167	0,1	1,142814
4,105833	0,1	1,135714
4,107500	0,1	1,109293
4,109167	0,1	1,154106
4,110833	0,1	1,113680
4,112500	0,1	1,155106
4,114167	0,1	1,164245
4,115833	0,1	1,155858
4,117500	0,1	1,178943
4,119167	0,1	1,219964
4,120833	0,1	1,221803
4,122500	0,1	1,208164
4,124167	0,1	1,255775
4,125833	0,1	1,272020
4,127500	0,1	1,277961
4,129167	0,1	1,294587
4,130833	0,1	1,305938
4,132500	0,1	1,299155
4,134167	0,1	1,329554
4,135833	0,1	1,329478
4,137500	0,1	1,325915
4,139167	0,1	1,363798
4,140833	0,1	1,361296
4,142500	0,1	1,393769
4,144167	0,1	1,408524
4,145833	0,1	1,383351
4,147500	0,1	1,419112
4,149167	0,1	1,396416
4,150833	0,1	1,479882
4,152500	0,1	1,464508
4,154167	0,1	1,490354
4,155833	0,1	1,492447
4,157500	0,1	1,508995
4,159167	0,1	1,504855
4,160833	0,1	1,492355
4,162500	0,1	1,496974
4,164167	0,1	1,517149
4,165833	0,1	1,539315
4,167500	0,1	1,542683
4,169167	0,1	1,542108
4,170833	0,1	1,561965
4,172500	0,1	1,573225
4,174167	0,1	1,571072
4,175833	0,1	1,585493
4,177500	0,1	1,574152
4,179167	0,1	1,591774
4,180833	0,1	1,600602
4,182500	0,1	1,610441
4,184167	0,1	1,618609
4,185833	0,1	1,615216
4,187500	0,1	1,617380
4,189167	0,1	1,648634
4,190833	0,1	1,625555
4,192500	0,1	1,644797
4,194167	0,1	1,667293
4,195833	0,1	1,675396
4,197500	0,1	1,691459
4,199167	0,1	1,673250
4,200833	0,1	1,643061
4,202500	0,1	1,716974
4,204167	0,1	1,640491
4,205833	0,1	1,658040
4,207500	0,1	1,643573
4,209167	0,1	1,633723
4,210833	0,1	1,660827
4,212500	0,1	1,720003
4,214167	0,1	1,716564
4,215833	0,1	1,674972
4,217500	0,1	1,665353
4,219167	0,1	1,658196
4,220833	0,1	1,672229
4,222500	0,1	1,712263
4,224167	0,1	1,661997
4,225833	0,1	1,688133
4,227500	0,1	1,673685
4,229167	0,1	1,682784
4,230833	0,1	1,710828
4,232500	0,1	1,657759
4,234167	0,1	1,660485
4,235833	0,1	1,644864
4,237500	0,1	1,637824
4,239167	0,1	1,647291
4,240833	0,1	1,639262
4,242500	0,1	1,637177
4,244167	0,1	1,645127
4,245833	0,1	1,672157
4,247500	0,1	1,652539
4,249167	0,1	1,644515
4,250833	0,1	1,634746
4,252500	0,1	1,589218
4,254167	0,1	1,606486
4,255833	0,1	1,660762
4,257500	0,1	1,610455
4,259167	0,1	1,602126
4,260833	0,1	1,579903
4,262500	0,1	1,569622
4,264167	0,1	1,565117
4,265833	0,1	1,513020
4,267500	0,1	1,576945
4,269167	0,1	1,566282
4,270833	0,1	1,552954
4,272500	0,1	1,533750
4,274167	0,1	1,532224
4,275833	0,1	1,491511
4,277500	0,1	1,490788
4,279167	0,1	1,529909
4,280833	0,1	1,496464
4,282500	0,1	1,476132
4,284167	0,1	1,496093
4,285833	0,1	1,489938
4,287500	0,1	1,470876
4,289167	0,1	1,434375
4,290833	0,1	1,437756
4,292500	0,1	1,434312
4,294167	0,1	1,469519
4,295833	0,1	1,445145
4,297500	0,1	1,426878
4,299167	0,1	1,429932
4,300833	0,1	1,419244
4,302500	0,1	1,369083
4,304167	0,1	1,366305
4,305833	0,1	1,388567
4,307500	0,1	1,369533
4,309167	0,1	1,385170
4,310833	0,1	1,344320
4,312500	0,1	1,352996
4,314167	0,1	1,350183
4,315833	0,1	1,328617
4,317500	0,1	1,302538
4,319167	0,1	1,296933
4,320833	0,1	1,314286
4,322500	0,1	1,295647
4,324167	0,1	1,252096
4,325833	0,1	1,284554
4,327500	0,1	1,289770
4,329167	0,1	1,290280
4,330833	0,1	1,273808
4,332500	0,1	1,245087
4,334167	0,1	1,238651
4,335833	0,1	1,228098
4,337500	0,1	1,234406
4,339167	0,1	1,215986
4,340833	0,1	1,201907
4,342500	0,1	1,218508
4,344167	0,1	1,191953
4,345833	0,1	1,198017
4,347500	0,1	1,157127
4,349167	0,1	1,189033
4,350833	0,1	1,158963
4,352500	0,1	1,194977
4,354167	0,1	1,152771
4,355833	0,1	1,153827
4,357500	0,1	1,139537
4,359167	0,1	1,109274
4,360833	0,1	1,136350
4,362500	0,1	1,135465
4,364167	0,1	1,106916
4,365833	0,1	1,112354
4,367500	0,1	1,127660
4,369167	0,1	1,097558
4,370833	0,1	1,111150
4,372500	0,1	1,087602
4,374167	0,1	1,083488
4,375833	0,1	1,073532
4,377500	0,1	1,087571
4,379167	0,1	1,087064
4,380833	0,1	1,060312
4,382500	0,1	1,050354
4,384167	0,1	1,039866
4,385833	0,1	1,055524
4,387500	0,1	1,026692
4,389167	0,1	1,057187
4,390833	0,1	1,039355
4,392500	0,1	1,061746
4,394167	0,1	1,042290
4,395833	0,1	1,015827
4,397500	0,1	1,022063
4,399167	0,1	1,014289
4,400833	0,1	0,975590
4,402500	0,1	1,018231
4,404167	0,1	0,998316
4,405833	0,1	0,994201
4,407500	0,1	1,014194
4,409167	0,1	1,000226
4,410833	0,1	1,000755
4,412500	0,1	0,986429
4,414167	0,1	1,020479
4,415833	0,1	0,952515
4,417500	0,1	0,938395
4,419167	0,1	0,952960
4,420833	0,1	0,962606
4,422500	0,1	0,948681
4,424167	0,1	0,927444
4,425833	0,1	0,931149
4,427500	0,1	0,930016
4,429167	0,1	0,936103
4,430833	0,1	0,904453
4,432500	0,1	0,901622
4,434167	0,1	0,878039
4,435833	0,1	0,939533
4,437500	0,1	0,868454
4,439167	0,1	0,895001
4,440833	0,1	0,921034
4,442500	0,1	0,851484
4,444167	0,1	0,855661
4,445833	0,1	0,879250
4,447500	0,1	0,910550
4,449167	0,1	0,826603
4,450833	0,1	0,890192
4,452500	0,1	0,829935
4,454167	0,1	0,825348
4,455833	0,1	0,833389
4,457500	0,1	0,876695
4,459167	0,1	0,866402
4,460833	0,1	0,797892
4,462500	0,1	0,800686
4,464167	0,1	0,846816
4,465833	0,1	0,807993
4,467500	0,1	0,815355
4,469167	0,1	0,808786
4,470833	0,1	0,810979
4,472500	0,1	0,813780
4,474167	0,1	0,756094
4,475833	0,1	0,779324
4,477500	0,1	0,763681
4,479167	0,1	0,790522
4,480833	0,1	0,783261
4,482500	0,1	0,780960
4,484167	0,1	0,797741
4,485833	0,1	0,771622
4,487500	0,1	0,744811
4,489167	0,1	0,762254
4,490833	0,1	0,722220
4,492500	0,1	0,772838
4,494167	0,1	0,762577
4,495833	0,1	0,767474
4,497500	0,1	0,752918
4,499167	0,1	0,719830
4,500833	0,1	0,753038
4,502500	0,1	0,734020
4,504167	0,1	0,716698
4,505833	0,1	0,730383
4,507500	0,1	0,729508
4,509167	0,1	0,735749
4,510833	0,1	0,694746
4,512500	0,1	0,703078
4,514167	0,1	0,720975
4,515833	0,1	0,711806
4,517500	0,1	0,647079
4,519167	0,1	0,727082
4,520833	0,1	0,741124
4,522500	0,1	0,665976
4,524167	0,1	0,679157
4,525833	0,1	0,672819
4,527500	0,1	0,649932
4,529167	0,1	0,660609
4,530833	0,1	0,630975
4,532500	0,1	0,660063
4,534167	0,1	0,664186
4,535833	0,1	0,644397
4,537500	0,1	0,608927
4,539167	0,1	0,637428
4,540833	0,1	0,636892
4,542500	0,1	0,620477
4,544167	0,1	0,623691
4,545833	0,1	0,623562
4,547500	0,1	0,629035
4,549167	0,1	0,627139
4,550833	0,1	0,617933
4,552500	0,1	0,604187
4,554167	0,1	0,641867
4,555833	0,1	0,596085
4,557500	0,1	0,588190
4,559167	0,1	0,579243
4,560833	0,1	0,611226
4,562500	0,1	0,591926
4,564167	0,1	0,546392
4,565833	0,1	0,574116
4,567500	0,1	0,580044
4,569167	0,1	0,576184
4,570833	0,1	0,545229
4,572500	0,1	0,555068
4,574167	0,1	0,586796
4,575833	0,1	0,558875
4,577500	0,1	0,582709
4,579167	0,1	0,524091
4,580833	0,1	0,535852
4,582500	0,1	0,547374
4,584167	0,1	0,555036
4,585833	0,1	0,542649
4,587500	0,1	0,529679
4,589167	0,1	0,534536
4,590833	0,1	0,515811
4,592500	0,1	0,527068
4,594167	0,1	0,523627
4,595833	0,1	0,476494
4,597500	0,1	0,499099
4,599167	0,1	0,489517
4,600833	0,1	0,501032
4,602500	0,1	0,558340
4,604167	0,1	0,487441
4,605833	0,1	0,473589
4,607500	0,1	0,467312
4,609167	0,1	0,528502
4,610833	0,1	0,522662
4,612500	0,1	0,474273
4,614167	0,1	0,471592
4,615833	0,1	0,472459
4,617500	0,1	0,497424
4,619167	0,1	0,499072
4,620833	0,1	0,485141
4,622500	0,1	0,462039
4,624167	0,1	0,471913
4,625833	0,1	0,450038
4,627500	0,1	0,452607
4,629167	0,1	0,478922
4,630833	0,1	0,457181
4,632500	0,1	0,455150
4,634167	0,1	0,466794
4,635833	0,1	0,449618
4,637500	0,1	0,435428
4,639167	0,1	0,473128
4,640833	0,1	0,467506
4,642500	0,1	0,468182
4,644167	0,1	0,421734
4,645833	0,1	0,435165
4,647500	0,1	0,447648
4,649167	0,1	0,421306
4,650833	0,1	0,432880
4,652500	0,1	0,445205
4,654167	0,1	0,428158
4,655833	0,1	0,436325
4,657500	0,1	0,423848
4,659167	0,1	0,401968
4,660833	0,1	0,403121
4,662500	0,1	0,439216
4,664167	0,1	0,428028
4,665833	0,1	0,379035
4,667500	0,1	0,437050
4,669167	0,1	0,392066
4,670833	0,1	0,380992
4,672500	0,1	0,439341
4,674167	0,1	0,359897
4,675833	0,1	0,405105
4,677500	0,1	0,388620
4,679167	0,1	0,415213
4,680833	0,1	0,396725
4,682500	0,1	0,401867
4,684167	0,1	0,379644
4,685833	0,1	0,407780
4,687500	0,1	0,403991
4,689167	0,1	0,410167
4,690833	0,1	0,364108
4,692500	0,1	0,407521
4,694167	0,1	0,401713
4,695833	0,1	0,402767
4,697500	0,1	0,370059
4,699167	0,1	0,335153
4,700833	0,1	0,377923
4,702500	0,1	0,356348
4,704167	0,1	0,404014
4,705833	0,1	0,379836
4,707500	0,1	0,339179
4,709167	0,1	0,372842
4,710833	0,1	0,415178
4,712500	0,1	0,323714
4,714167	0,1	0,388376
4,715833	0,1	0,318916
4,717500	0,1	0,343214
4,719167	0,1	0,340124
4,720833	0,1	0,360557
4,722500	0,1	0,372006
4,724167	0,1	0,346316
4,725833	0,1	0,335982
4,727500	0,1	0,345537
4,729167	0,1	0,331225
4,730833	0,1	0,338460
4,732500	0,1	0,351156
4,734167	0,1	0,354030
4,735833	0,1	0,322286
4,737500	0,1	0,347427
4,739167	0,1	0,351165
4,740833	0,1	0,321705
4,742500	0,1	0,330994
4,744167	0,1	0,339231
4,745833	0,1	0,322700
4,747500	0,1	0,326391
4,749167	0,1	0,296907
4,750833	0,1	0,321311
4,752500	0,1	0,323411
4,754167	0,1	0,330767
4,755833	0,1	0,355891
4,757500	0,1	0,330812
4,759167	0,1	0,327306
4,760833	0,1	0,276352
4,762500	0,1	0,317955
4,764167	0,1	0,328047
4,765833	0,1	0,339294
4,767500	0,1	0,293403
4,769167	0,1	0,320768
4,770833	0,1	0,317876
4,772500	0,1	0,311986
4,774167	0,1	0,286813
4,775833	0,1	0,337934
4,777500	0,1	0,312253
4,779167	0,1	0,323980
4,780833	0,1	0,302124
4,782500	0,1	0,285613
4,784167	0,1	0,331057
4,785833	0,1	0,293211
4,787500	0,1	0,343788
4,789167	0,1	0,316884
4,790833	0,1	0,263789
4,792500	0,1	0,306963
4,794167	0,1	0,293468
4,795833	0,1	0,263077
4,797500	0,1	0,312299
4,799167	0,1	0,318226
4,800833	0,1	0,319487
4,802500	0,1	0,312984
4,804167	0,1	0,298643
4,805833	0,1	0,293694
4,807500	0,1	0,262332
4,809167	0,1	0,282099
4,810833	0,1	0,314524
4,812500	0,1	0,322702
4,814167	0,1	0,273589
4,815833	0,1	0,298279
4,817500	0,1	0,291185
4,819167	0,1	0,322858
4,820833	0,1	0,324824
4,822500	0,1	0,306681
4,824167	0,1	0,270886
4,825833	0,1	0,310472
4,827500	0,1	0,277999
4,829167	0,1	0,301905
4,830833	0,1	0,313822
4,832500	0,1	0,279676
4,834167	0,1	0,266215
4,835833	0,1	0,250814
4,837500	0,1	0,292196
4,839167	0,1	0,275067
4,840833	0,1	0,318055
4,842500	0,1	0,324307
4,844167	0,1	0,298418
4,845833	0,1	0,287161
4,847500	0,1	0,299188
4,849167	0,1	0,285929
4,850833	0,1	0,307450
4,852500	0,1	0,256185
4,854167	0,1	0,293104
4,855833	0,1	0,300023
4,857500	0,1	0,323143
4,859167	0,1	0,302539
4,860833	0,1	0,278260
4,862500	0,1	0,308345
4,864167	0,1	0,242148
4,865833	0,1	0,256595
4,867500	0,1	0,325452
4,869167	0,1	0,242342
4,870833	0,1	0,293643
4,872500	0,1	0,306365
4,874167	0,1	0,294555
4,875833	0,1	0,268738
4,877500	0,1	0,295996
4,879167	0,1	0,259029
4,880833	0,1	0,305252
4,882500	0,1	0,272962
4,884167	0,1	0,299692
4,885833	0,1	0,276520
4,887500	0,1	0,268924
4,889167	0,1	0,301975
4,890833	0,1	0,282787
4,892500	0,1	0,268145
4,894167	0,1	0,258306
4,895833	0,1	0,289407
4,897500	0,1	0,259053
4,899167	0,1	0,288919
4,900833	0,1	0,282622
4,902500	0,1	0,280590
4,904167	0,1	0,281081
4,905833	0,1	0,274042
4,907500	0,1	0,283461
4,909167	0,1	0,291470
4,910833	0,1	0,277414
4,912500	0,1	0,267283
4,914167	0,1	0,305326
4,915833	0,1	0,297326
4,917500	0,1	0,251819
4,919167	0,1	0,290068
4,920833	0,1	0,293429
4,922500	0,1	0,298410
4,924167	0,1	0,298132
4,925833	0,1	0,270441
4,927500	0,1	0,280372
4,929167	0,1	0,316643
4,930833	0,1	0,308109
4,932500	0,1	0,289663
4,934167	0,1	0,294325
4,935833	0,1	0,278185
4,937500	0,1	0,285645
4,939167	0,1	0,262910
4,940833	0,1	0,264999
4,942500	0,1	0,273096
4,944167	0,1	0,263578
4,945833	0,1	0,291946
4,947500	0,1	0,268510
4,949167	0,1	0,282009
4,950833	0,1	0,265345
4,952500	0,1	0,258467
4,954167	0,1	0,237472
4,955833	0,1	0,271776
4,957500	0,1	0,255580
4,959167	0,1	0,290142
4,960833	0,1	0,259506
4,962500	0,1	0,285894
4,964167	0,1	0,271499
4,965833	0,1	0,223226
4,967500	0,1	0,261346
4,969167	0,1	0,312552
4,970833	0,1	0,271340
4,972500	0,1	0,253904
4,974167	0,1	0,309698
4,975833	0,1	0,283334
4,977500	0,1	0,273009
4,979167	0,1	0,286930
4,980833	0,1	0,285837
4,982500	0,1	0,284133
4,984167	0,1	0,231111
4,985833	0,1	0,286793
4,987500	0,1	0,342343
4,989167	0,1	0,292380
4,990833	0,1	0,274424
4,992500	0,1	0,312203
4,994167	0,1	0,269955
4,995833	0,1	0,284129
4,997500	0,1	0,287123
4,999167	0,1	0,325133
5,000833	0,1	0,276615
5,002500	0,1	0,307800
5,004167	0,1	0,254671
5,005833	0,1	0,301654
5,007500	0,1	0,284364
5,009167	0,1	0,297575
5,010833	0,1	0,245715
5,012500	0,1	0,278816
5,014167	0,1	0,276505
5,015833	0,1	0,311370
5,017500	0,1	0,283876
5,019167	0,1	0,302656
5,020833	0,1	0,309537
5,022500	0,1	0,292337
5,024167	0,1	0,305294
5,025833	0,1	0,301087
5,027500	0,1	0,264365
5,029167	0,1	0,312942
5,030833	0,1	0,311921
5,032500	0,1	0,334504
5,034167	0,1	0,314473
5,035833	0,1	0,290599
5,037500	0,1	0,318348
5,039167	0,1	0,323473
5,040833	0,1	0,328556
5,042500	0,1	0,320323
5,044167	0,1	0,327748
5,045833	0,1	0,337816
5,047500	0,1	0,280866
5,049167	0,1	0,330828
5,050833	0,1	0,358139
5,052500	0,1	0,322549
5,054167	0,1	0,337460
5,055833	0,1	0,375159
5,057500	0,1	0,329593
5,059167	0,1	0,365475
5,060833	0,1	0,313837
5,062500	0,1	0,367853
5,064167	0,1	0,336050
5,065833	0,1	0,350907
5,067500	0,1	0,363232
5,069167	0,1	0,328050
5,070833	0,1	0,344085
5,072500	0,1	0,325698
5,074167	0,1	0,338975
5,075833	0,1	0,350174
5,077500	0,1	0,369953
5,079167	0,1	0,343552
5,080833	0,1	0,335020
5,082500	0,1	0,392366
5,084167	0,1	0,338184
5,085833	0,1	0,373033
5,087500	0,1	0,335827
5,089167	0,1	0,339105
5,090833	0,1	0,332801
5,092500	0,1	0,351389
5,094167	0,1	0,370626
5,095833	0,1	0,351234
5,097500	0,1	0,373391
5,099167	0,1	0,354903
5,100833	0,1	0,373813
5,102500	0,1	0,353942
5,104167	0,1	0,347568
5,105833	0,1	0,367148
5,107500	0,1	0,365129
5,109167	0,1	0,325668
5,110833	0,1	0,377377
5,112500	0,1	0,360693
5,114167	0,1	0,360980
5,115833	0,1	0,329852
5,117500	0,1	0,381717
5,119167	0,1	0,382728
5,120833	0,1	0,409647
5,122500	0,1	0,353173
5,124167	0,1	0,384970
5,125833	0,1	0,398583
5,127500	0,1	0,399294
5,129167	0,1	0,378193
5,130833	0,1	0,364653
5,132500	0,1	0,380215
5,134167	0,1	0,381150
5,135833	0,1	0,331715
5,137500	0,1	0,372488
5,139167	0,1	0,377996
5,140833	0,1	0,378449
5,142500	0,1	0,414732
5,144167	0,1	0,366364
5,145833	0,1	0,380603
5,147500	0,1	0,354043
5,149167	0,1	0,402244
5,150833	0,1	0,338504
5,152500	0,1	0,334375
5,154167	0,1	0,401596
5,155833	0,1	0,356424
5,157500	0,1	0,344282
5,159167	0,1	0,301866
5,160833	0,1	0,386760
5,162500	0,1	0,364045
5,164167	0,1	0,378706
5,165833	0,1	0,328181
5,167500	0,1	0,335341
5,169167	0,1	0,295940
5,170833	0,1	0,380974
5,172500	0,1	0,297047
5,174167	0,1	0,363508
5,175833	0,1	0,334673
5,177500	0,1	0,359657
5,179167	0,1	0,371405
5,180833	0,1	0,296338
5,182500	0,1	0,347012
5,184167	0,1	0,335185
5,185833	0,1	0,379986
5,187500	0,1	0,358318
5,189167	0,1	0,346956
5,190833	0,1	0,335155
5,192500	0,1	0,330163
5,194167	0,1	0,348785
5,195833	0,1	0,314693
5,197500	0,1	0,349552
5,199167	0,1	0,325635
5,200833	0,1	0,296688
5,202500	0,1	0,321756
5,204167	0,1	0,309261
5,205833	0,1	0,323598
5,207500	0,1	0,325177
5,209167	0,1	0,349591
5,210833	0,1	0,336472
5,212500	0,1	0,288393
5,214167	0,1	0,309279
5,215833	0,1	0,306521
5,217500	0,1	0,339359
5,219167	0,1	0,321549
5,220833	0,1	0,304658
5,222500	0,1	0,232907
5,224167	0,1	0,317410
5,225833	0,1	0,271605
5,227500	0,1	0,311758
5,229167	0,1	0,283271
5,230833	0,1	0,333374
5,232500	0,1	0,306764
5,234167	0,1	0,264240
5,235833	0,1	0,288214
5,237500	0,1	0,293971
5,239167	0,1	0,267705
5,240833	0,1	0,309773
5,242500	0,1	0,282409
5,244167	0,1	0,289857
5,245833	0,1	0,290603
5,247500	0,1	0,318067
5,249167	0,1	0,264204
5,250833	0,1	0,284102
5,252500	0,1	0,288726
5,254167	0,1	0,233949
5,255833	0,1	0,233191
5,257500	0,1	0,254021
5,259167	0,1	0,298828
5,260833	0,1	0,278738
5,262500	0,1	0,244625
5,264167	0,1	0,248906
5,265833	0,1	0,280303
5,267500	0,1	0,272530
5,269167	0,1	0,230856
5,270833	0,1	0,262039
5,272500	0,1	0,257408
5,274167	0,1	0,254972
5,275833	0,1	0,238656
5,277500	0,1	0,260200
5,279167	0,1	0,241355
5,280833	0,1	0,207409
5,282500	0,1	0,202220
5,284167	0,1	0,208333
5,285833	0,1	0,250648
5,287500	0,1	0,217423
5,289167	0,1	0,255858
5,290833	0,1	0,221270
5,292500	0,1	0,225219
5,294167	0,1	0,202904
5,295833	0,1	0,202219
5,297500	0,1	0,214826
5,299167	0,1	0,222834
5,300833	0,1	0,229720
5,302500	0,1	0,222751
5,304167	0,1	0,177664
5,305833	0,1	0,220355
5,307500	0,1	0,196347
5,309167	0,1	0,183507
5,310833	0,1	0,196629
5,312500	0,1	0,211130
5,314167	0,1	0,206672
5,315833	0,1	0,216567
5,317500	0,1	0,184633
5,319167	0,1	0,183542
5,320833	0,1	0,213990
5,322500	0,1	0,184029
5,324167	0,1	0,184436
5,325833	0,1	0,175397
5,327500	0,1	0,226533
5,329167	0,1	0,190044
5,330833	0,1	0,226371
5,332500	0,1	0,148748
5,334167	0,1	0,217903
5,335833	0,1	0,177083
5,337500	0,1	0,216371
5,339167	0,1	0,186764
5,340833	0,1	0,169460
5,342500	0,1	0,172131
5,344167	0,1	0,172405
5,345833	0,1	0,212095
5,347500	0,1	0,202258
5,349167	0,1	0,188172
5,350833	0,1	0,173444
5,352500	0,1	0,168171
5,354167	0,1	0,185632
5,355833	0,1	0,188649
5,357500	0,1	0,179068
5,359167	0,1	0,183792
5,360833	0,1	0,182724
5,362500	0,1	0,149569
5,364167	0,1	0,192737
5,365833	0,1	0,163575
5,367500	0,1	0,162156
5,369167	0,1	0,130879
5,370833	0,1	0,178714
5,372500	0,1	0,113275
5,374167	0,1	0,138378
5,375833	0,1	0,195786
5,377500	0,1	0,190077
5,379167	0,1	0,157763
5,380833	0,1	0,162798
5,382500	0,1	0,131193
5,384167	0,1	0,171541
5,385833	0,1	0,147371
5,387500	0,1	0,152170
5,389167	0,1	0,156530
5,390833	0,1	0,146950
5,392500	0,1	0,159430
5,394167	0,1	0,149046
5,395833	0,1	0,173309
5,397500	0,1	0,155666
5,399167	0,1	0,142183
5,400833	0,1	0,165983
5,402500	0,1	0,159914
5,404167	0,1	0,137019
5,405833	0,1	0,218732
5,407500	0,1	0,162561
5,409167	0,1	0,149423
5,410833	0,1	0,148877
5,412500	0,1	0,162999
5,414167	0,1	0,132786
5,415833	0,1	0,160509
5,417500	0,1	0,117733
5,419167	0,1	0,108306
5,420833	0,1	0,156874
5,422500	0,1	0,144065
5,424167	0,1	0,137555
5,425833	0,1	0,167371
5,427500	0,1	0,146993
5,429167	0,1	0,104042
5,430833	0,1	0,152018
5,432500	0,1	0,163869
5,434167	0,1	0,082853
5,435833	0,1	0,126752
5,437500	0,1	0,100969
5,439167	0,1	0,132316
5,440833	0,1	0,110654
5,442500	0,1	0,142894
5,444167	0,1	0,102487
5,445833	0,1	0,092294
5,447500	0,1	0,128291
5,449167	0,1	0,089211
5,450833	0,1	0,139448
5,452500	0,1	0,107709
5,454167	0,1	0,118897
5,455833	0,1	0,076290
5,457500	0,1	0,104462
5,459167	0,1	0,137749
5,460833	0,1	0,122369
5,462500	0,1	0,149906
5,464167	0,1	0,137823
5,465833	0,1	0,102337
5,467500	0,1	0,099900
5,469167	0,1	0,112989
5,470833	0,1	0,104510
5,472500	0,1	0,122963
5,474167	0,1	0,095411
5,475833	0,1	0,103779
5,477500	0,1	0,098951
5,479167	0,1	0,109837
5,480833	0,1	0,083108
5,482500	0,1	0,110556
5,484167	0,1	0,102001
5,485833	0,1	0,116558
5,487500	0,1	0,129395
5,489167	0,1	0,142773
5,490833	0,1	0,039866
5,492500	0,1	0,099766
5,494167	0,1	0,118979
5,495833	0,1	0,065198
5,497500	0,1	0,100847
5,499167	0,1	0,097579
5,500833	0,1	0,086530
5,502500	0,1	0,106268
5,504167	0,1	0,107309
5,505833	0,1	0,073551
5,507500	0,1	0,095087
5,509167	0,1	0,098720
5,510833	0,1	0,091236
5,512500	0,1	0,095050
5,514167	0,1	0,122005
5,515833	0,1	0,099848
5,517500	0,1	0,098409
5,519167	0,1	0,099239
5,520833	0,1	0,065836
5,522500	0,1	0,109203
5,524167	0,1	0,103720
5,525833	0,1	0,093330
5,527500	0,1	0,077301
5,529167	0,1	0,078687
5,530833	0,1	0,102698
5,532500	0,1	0,113507
5,534167	0,1	0,096734
5,535833	0,1	0,105854
5,537500	0,1	0,112201
5,539167	0,1	0,100506
5,540833	0,1	0,096525
5,542500	0,1	0,095360
5,544167	0,1	0,079477
5,545833	0,1	0,055359
5,547500	0,1	0,080048
5,549167	0,1	0,079474
5,550833	0,1	0,105225
5,552500	0,1	0,092562
5,554167	0,1	0,075060
5,555833	0,1	0,060170
5,557500	0,1	0,056349
5,559167	0,1	0,079114
5,560833	0,1	0,064171
5,562500	0,1	0,050503
5,564167	0,1	0,089171
5,565833	0,1	0,092951
5,567500	0,1	0,082462
5,569167	0,1	0,087643
5,570833	0,1	0,007010
5,572500	0,1	0,103490
5,574167	0,1	0,089990
5,575833	0,1	0,057228
5,577500	0,1	0,061490
5,579167	0,1	0,085150
5,580833	0,1	0,073336
5,582500	0,1	0,101224
5,584167	0,1	0,051610
5,585833	0,1	0,076440
5,587500	0,1	0,105123
5,589167	0,1	0,101374
5,590833	0,1	0,064197
5,592500	0,1	0,090293
5,594167	0,1	0,107965
5,595833	0,1	0,074046
5,597500	0,1	0,088698
5,599167	0,1	0,091046
5,600833	0,1	0,109046
5,602500	0,1	0,082882
5,604167	0,1	0,077814
5,605833	0,1	0,081235
5,607500	0,1	0,104106
5,609167	0,1	0,039710
5,610833	0,1	0,099971
5,612500	0,1	0,041512
5,614167	0,1	0,084896
5,615833	0,1	0,083121
5,617500	0,1	0,104999
5,619167	0,1	0,072864
5,620833	0,1	0,111488
5,622500	0,1	0,075624
5,624167	0,1	0,077377
5,625833	0,1	0,049843
5,627500	0,1	0,090394
5,629167	0,1	0,087291
5,630833	0,1	0,052459
5,632500	0,1	0,075943
5,634167	0,1	0,092597
5,635833	0,1	0,065316
5,637500	0,1	0,060912
5,639167	0,1	0,086352
5,640833	0,1	0,069708
5,642500	0,1	0,098755
5,644167	0,1	0,059841
5,645833	0,1	0,075924
5,647500	0,1	0,087975
5,649167	0,1	0,095567
5,650833	0,1	0,118047
5,652500	0,1	0,091030
5,654167	0,1	0,075203
5,655833	0,1	0,062967
5,657500	0,1	0,096388
5,659167	0,1	0,088498
5,660833	0,1	0,112611
5,662500	0,1	0,089105
5,664167	0,1	0,085425
5,665833	0,1	0,115473
5,667500	0,1	0,048940
5,669167	0,1	0,102277
5,670833	0,1	0,077033
5,672500	0,1	0,147072
5,674167	0,1	0,109018
5,675833	0,1	0,104902
5,677500	0,1	0,090407
5,679167	0,1	0,146041
5,680833	0,1	0,072127
5,682500	0,1	0,104125
5,684167	0,1	0,123606
5,685833	0,1	0,100906
5,687500	0,1	0,119772
5,689167	0,1	0,095949
5,690833	0,1	0,101003
5,692500	0,1	0,104031
5,694167	0,1	0,122195
5,695833	0,1	0,103393
5,697500	0,1	0,109362
5,699167	0,1	0,086926
5,700833	0,1	0,092394
5,702500	0,1	0,087479
5,704167	0,1	0,108031
5,705833	0,1	0,068865
5,707500	0,1	0,116275
5,709167	0,1	0,119547
5,710833	0,1	0,115958
5,712500	0,1	0,110901
5,714167	0,1	0,121616
5,715833	0,1	0,093646
5,717500	0,1	0,121800
5,719167	0,1	0,113120
5,720833	0,1	0,098373
5,722500	0,1	0,095798
5,724167	0,1	0,102247
5,725833	0,1	0,092169
5,727500	0,1	0,114227
5,729167	0,1	0,128792
5,730833	0,1	0,135224
5,732500	0,1	0,131039
5,734167	0,1	0,121496
5,735833	0,1	0,099143
5,737500	0,1	0,105212
5,739167	0,1	0,139553
5,740833	0,1	0,109454
5,742500	0,1	0,103804
5,744167	0,1	0,120290
5,745833	0,1	0,114877
5,747500	0,1	0,090493
5,749167	0,1	0,119849
5,750833	0,1	0,080501
5,752500	0,1	0,154813
5,754167	0,1	0,122498
5,755833	0,1	0,091822
5,757500	0,1	0,130966
5,759167	0,1	0,147502
5,760833	0,1	0,146180
5,762500	0,1	0,136144
5,764167	0,1	0,149683
5,765833	0,1	0,090608
5,767500	0,1	0,121407
5,769167	0,1	0,112330
5,770833	0,1	0,085436
5,772500	0,1	0,150101
5,774167	0,1	0,142881
5,775833	0,1	0,192093
5,777500	0,1	0,147853
5,779167	0,1	0,132783
5,780833	0,1	0,129423
5,782500	0,1	0,101591
5,784167	0,1	0,125409
5,785833	0,1	0,097424
5,787500	0,1	0,164853
5,789167	0,1	0,110082
5,790833	0,1	0,158678
5,792500	0,1	0,112464
5,794167	0,1	0,136857
5,795833	0,1	0,099022
5,797500	0,1	0,132087
5,799167	0,1	0,148004
5,800833	0,1	0,113848
5,802500	0,1	0,097730
5,804167	0,1	0,170639
5,805833	0,1	0,102557
5,807500	0,1	0,125033
5,809167	0,1	0,157207
5,810833	0,1	0,111946
5,812500	0,1	0,134185
5,814167	0,1	0,145559
5,815833	0,1	0,104417
5,817500	0,1	0,132998
5,819167	0,1	0,134542
5,820833	0,1	0,148209
5,822500	0,1	0,123845
5,824167	0,1	0,145014
5,825833	0,1	0,163412
5,827500	0,1	0,165471
5,829167	0,1	0,123040
5,830833	0,1	0,161353
5,832500	0,1	0,153004
5,834167	0,1	0,136208
5,835833	0,1	0,162416
5,837500	0,1	0,138556
5,839167	0,1	0,121498
5,840833	0,1	0,158695
5,842500	0,1	0,139402
5,844167	0,1	0,122683
5,845833	0,1	0,130290
5,847500	0,1	0,130809
5,849167	0,1	0,137630
5,850833	0,1	0,137923
5,852500	0,1	0,126352
5,854167	0,1	0,114344
5,855833	0,1	0,123633
5,857500	0,1	0,146654
5,859167	0,1	0,114098
5,860833	0,1	0,129418
5,862500	0,1	0,140885
5,864167	0,1	0,119820
5,865833	0,1	0,138145
5,867500	0,1	0,152459
5,869167	0,1	0,113873
5,870833	0,1	0,126329
5,872500	0,1	0,145761
5,874167	0,1	0,116255
5,875833	0,1	0,097088
5,877500	0,1	0,106810
5,879167	0,1	0,124336
5,880833	0,1	0,175083
5,882500	0,1	0,156702
5,884167	0,1	0,092536
5,885833	0,1	0,133224
5,887500	0,1	0,122101
5,889167	0,1	0,136138
5,890833	0,1	0,141097
5,892500	0,1	0,118518
5,894167	0,1	0,116788
5,895833	0,1	0,190386
5,897500	0,1	0,112180
5,899167	0,1	0,140260
5,900833	0,1	0,146962
5,902500	0,1	0,111339
5,904167	0,1	0,112036
5,905833	0,1	0,116452
5,907500	0,1	0,086449
5,909167	0,1	0,111866
5,910833	0,1	0,114170
5,912500	0,1	0,112537
5,914167	0,1	0,097046
5,915833	0,1	0,135552
5,917500	0,1	0,045627
5,919167	0,1	0,134128
5,920833	0,1	0,125253
5,922500	0,1	0,109013
5,924167	0,1	0,141256
5,925833	0,1	0,099683
5,927500	0,1	0,101168
5,929167	0,1	0,107950
5,930833	0,1	0,120188
5,932500	0,1	0,066297
5,934167	0,1	0,094817
5,935833	0,1	0,102681
5,937500	0,1	0,107888
5,939167	0,1	0,080310
5,940833	0,1	0,126956
5,942500	0,1	0,114611
5,944167	0,1	0,079315
5,945833	0,1	0,083393
5,947500	0,1	0,131065
5,949167	0,1	0,103621
5,950833	0,1	0,093871
5,952500	0,1	0,125368
5,954167	0,1	0,099206
5,955833	0,1	0,098057
5,957500	0,1	0,121488
5,959167	0,1	0,080022
5,960833	0,1	0,082458
5,962500	0,1	0,072674
5,964167	0,1	0,115407
5,965833	0,1	0,128313
5,967500	0,1	0,105031
5,969167	0,1	0,106540
5,970833	0,1	0,105214
5,972500	0,1	0,105772
5,974167	0,1	0,122628
5,975833	0,1	0,093108
5,977500	0,1	0,101041
5,979167	0,1	0,102495
5,980833	0,1	0,115436
5,982500	0,1	0,072887
5,984167	0,1	0,095188
5,985833	0,1	0,113523
5,987500	0,1	0,066357
5,989167	0,1	0,098526
5,990833	0,1	0,095030
5,992500	0,1	0,093431
5,994167	0,1	0,076119
5,995833	0,1	0,122894
5,997500	0,1	0,058521
5,999167	0,1	0,104247
6,000833	0,1	0,113094
