File Path	chrom://chromeleon01/ikbm_chromeleon/2022/Rezex/Esteban/220612_chitin_4_7.seq/298.smp/UV_VIS_1.channel/UV_VIS_1.chm
Channel	UV_VIS_1

Injection Information:
Data Vault	ikbm_chromeleon
Injection	4_06h-ChiBS_1
Injection Number	65
Position	GB2
Comment	
Processing Method	New ProcMethod
Instrument Method	Short_Rezex_6min_194nm
Type	Unknown
Status	Finished
Injection Date	13.06.2022
Injection Time	00:08:14
Injection Volume (µl)	8,000
Dilution Factor	1,0000
Weight	1,0000

Chromatogram Data Information:
Time Min. (min)	0,000833
Time Max. (min)	6,000833
Data Points	3601
Detector	UV
Generating Data System	Chromeleon 7.2.9.11323
Exporting Data System	Chromeleon 7.2.9.0
Operator	Instrument Controller
Signal Quantity	Absorbance
Signal Unit	mAU
Signal Min.	-0,088988
Signal Max.	114,447662
Channel	UV_VIS_1
Driver Name	VWD3000.dll
Channel Type	Evaluation
Min. Step (s)	0,1
Max. Step (s)	0,1
Average Step (s)	0,1

Signal Parameter Information:
Signal Info	WVL:194 nm

Chromatogram Data:
Time (min)	Step (s)	Value (mAU)
0,000833	n.a.	-0,022024
0,002500	0,1	-0,011760
0,004167	0,1	0,016960
0,005833	0,1	-0,002214
0,007500	0,1	-0,025294
0,009167	0,1	-0,040267
0,010833	0,1	-0,039838
0,012500	0,1	-0,017900
0,014167	0,1	-0,016901
0,015833	0,1	-0,021442
0,017500	0,1	-0,013087
0,019167	0,1	0,031078
0,020833	0,1	0,004692
0,022500	0,1	-0,004313
0,024167	0,1	-0,025710
0,025833	0,1	-0,003220
0,027500	0,1	0,005037
0,029167	0,1	-0,060139
0,030833	0,1	-0,020038
0,032500	0,1	-0,017878
0,034167	0,1	-0,068648
0,035833	0,1	-0,046951
0,037500	0,1	-0,050554
0,039167	0,1	-0,024910
0,040833	0,1	-0,043789
0,042500	0,1	-0,040748
0,044167	0,1	-0,043880
0,045833	0,1	-0,020286
0,047500	0,1	-0,042794
0,049167	0,1	-0,060177
0,050833	0,1	-0,036913
0,052500	0,1	0,001173
0,054167	0,1	-0,066486
0,055833	0,1	-0,041958
0,057500	0,1	-0,026070
0,059167	0,1	0,002959
0,060833	0,1	-0,023508
0,062500	0,1	-0,024763
0,064167	0,1	-0,037943
0,065833	0,1	0,000076
0,067500	0,1	-0,030912
0,069167	0,1	-0,053826
0,070833	0,1	-0,007788
0,072500	0,1	-0,016792
0,074167	0,1	-0,007841
0,075833	0,1	-0,042606
0,077500	0,1	-0,010893
0,079167	0,1	0,010200
0,080833	0,1	-0,012976
0,082500	0,1	-0,047482
0,084167	0,1	-0,022421
0,085833	0,1	0,029418
0,087500	0,1	0,010352
0,089167	0,1	-0,002198
0,090833	0,1	0,008793
0,092500	0,1	0,006762
0,094167	0,1	-0,002508
0,095833	0,1	-0,018929
0,097500	0,1	0,015691
0,099167	0,1	-0,006672
0,100833	0,1	0,017623
0,102500	0,1	0,010974
0,104167	0,1	-0,009718
0,105833	0,1	-0,019326
0,107500	0,1	-0,041946
0,109167	0,1	-0,046512
0,110833	0,1	-0,063284
0,112500	0,1	-0,065111
0,114167	0,1	-0,041272
0,115833	0,1	-0,013030
0,117500	0,1	-0,052870
0,119167	0,1	-0,027148
0,120833	0,1	-0,052935
0,122500	0,1	-0,062247
0,124167	0,1	-0,005281
0,125833	0,1	-0,042543
0,127500	0,1	-0,088988
0,129167	0,1	-0,032676
0,130833	0,1	-0,033508
0,132500	0,1	-0,033887
0,134167	0,1	-0,045676
0,135833	0,1	-0,022919
0,137500	0,1	-0,017211
0,139167	0,1	-0,060002
0,140833	0,1	-0,010756
0,142500	0,1	-0,010119
0,144167	0,1	-0,045907
0,145833	0,1	-0,057438
0,147500	0,1	0,003576
0,149167	0,1	-0,041756
0,150833	0,1	-0,011993
0,152500	0,1	-0,022145
0,154167	0,1	0,000265
0,155833	0,1	-0,013849
0,157500	0,1	-0,033091
0,159167	0,1	-0,019950
0,160833	0,1	-0,016049
0,162500	0,1	0,017164
0,164167	0,1	-0,034287
0,165833	0,1	-0,049743
0,167500	0,1	-0,054764
0,169167	0,1	-0,006273
0,170833	0,1	-0,062985
0,172500	0,1	0,009563
0,174167	0,1	-0,011647
0,175833	0,1	0,006385
0,177500	0,1	-0,032794
0,179167	0,1	-0,019555
0,180833	0,1	-0,003986
0,182500	0,1	-0,003463
0,184167	0,1	-0,016482
0,185833	0,1	-0,006679
0,187500	0,1	-0,032965
0,189167	0,1	0,016540
0,190833	0,1	0,019972
0,192500	0,1	0,000152
0,194167	0,1	-0,029812
0,195833	0,1	0,019754
0,197500	0,1	0,007118
0,199167	0,1	-0,034166
0,200833	0,1	0,001073
0,202500	0,1	-0,007108
0,204167	0,1	0,005473
0,205833	0,1	0,006389
0,207500	0,1	-0,013015
0,209167	0,1	-0,054279
0,210833	0,1	-0,010211
0,212500	0,1	0,002158
0,214167	0,1	0,009478
0,215833	0,1	-0,008100
0,217500	0,1	-0,014328
0,219167	0,1	0,011712
0,220833	0,1	-0,022493
0,222500	0,1	0,026204
0,224167	0,1	-0,022259
0,225833	0,1	-0,020590
0,227500	0,1	-0,028013
0,229167	0,1	-0,018522
0,230833	0,1	0,010632
0,232500	0,1	-0,048489
0,234167	0,1	0,009092
0,235833	0,1	-0,034890
0,237500	0,1	0,029020
0,239167	0,1	0,008491
0,240833	0,1	0,029820
0,242500	0,1	0,005296
0,244167	0,1	-0,021333
0,245833	0,1	-0,011575
0,247500	0,1	0,001930
0,249167	0,1	-0,003108
0,250833	0,1	0,002322
0,252500	0,1	0,017253
0,254167	0,1	-0,028646
0,255833	0,1	-0,003988
0,257500	0,1	-0,008770
0,259167	0,1	0,022994
0,260833	0,1	0,030072
0,262500	0,1	0,015827
0,264167	0,1	-0,024395
0,265833	0,1	-0,022563
0,267500	0,1	-0,002182
0,269167	0,1	0,009020
0,270833	0,1	0,012732
0,272500	0,1	0,016861
0,274167	0,1	0,004898
0,275833	0,1	-0,021288
0,277500	0,1	0,015278
0,279167	0,1	-0,010360
0,280833	0,1	-0,008730
0,282500	0,1	0,012005
0,284167	0,1	-0,017307
0,285833	0,1	-0,025545
0,287500	0,1	-0,031499
0,289167	0,1	0,001074
0,290833	0,1	-0,023323
0,292500	0,1	-0,006637
0,294167	0,1	-0,021978
0,295833	0,1	-0,041781
0,297500	0,1	0,031652
0,299167	0,1	-0,006190
0,300833	0,1	-0,002178
0,302500	0,1	0,011653
0,304167	0,1	0,016465
0,305833	0,1	-0,008184
0,307500	0,1	0,044267
0,309167	0,1	0,002044
0,310833	0,1	0,002385
0,312500	0,1	0,021729
0,314167	0,1	-0,007788
0,315833	0,1	-0,013623
0,317500	0,1	0,015941
0,319167	0,1	0,014104
0,320833	0,1	0,004587
0,322500	0,1	0,050158
0,324167	0,1	-0,001354
0,325833	0,1	0,017748
0,327500	0,1	-0,012287
0,329167	0,1	0,002735
0,330833	0,1	-0,007754
0,332500	0,1	0,028384
0,334167	0,1	0,009234
0,335833	0,1	0,038443
0,337500	0,1	0,035674
0,339167	0,1	-0,018569
0,340833	0,1	0,023049
0,342500	0,1	0,001290
0,344167	0,1	-0,012835
0,345833	0,1	0,006757
0,347500	0,1	0,007280
0,349167	0,1	0,055447
0,350833	0,1	-0,013237
0,352500	0,1	0,031513
0,354167	0,1	0,011372
0,355833	0,1	0,018043
0,357500	0,1	0,006431
0,359167	0,1	0,042901
0,360833	0,1	0,001233
0,362500	0,1	0,038131
0,364167	0,1	0,002105
0,365833	0,1	0,002633
0,367500	0,1	0,006427
0,369167	0,1	-0,018391
0,370833	0,1	-0,022253
0,372500	0,1	0,032526
0,374167	0,1	0,017051
0,375833	0,1	0,052648
0,377500	0,1	0,026325
0,379167	0,1	0,022710
0,380833	0,1	0,001768
0,382500	0,1	0,048064
0,384167	0,1	0,006397
0,385833	0,1	0,039812
0,387500	0,1	0,020391
0,389167	0,1	0,036042
0,390833	0,1	0,033950
0,392500	0,1	0,024951
0,394167	0,1	0,018937
0,395833	0,1	0,004028
0,397500	0,1	0,047835
0,399167	0,1	0,018756
0,400833	0,1	0,026586
0,402500	0,1	0,011495
0,404167	0,1	-0,011523
0,405833	0,1	0,058302
0,407500	0,1	-0,012426
0,409167	0,1	0,015755
0,410833	0,1	0,010806
0,412500	0,1	0,030087
0,414167	0,1	0,034653
0,415833	0,1	0,037806
0,417500	0,1	0,039735
0,419167	0,1	0,017053
0,420833	0,1	0,084127
0,422500	0,1	0,055754
0,424167	0,1	0,016600
0,425833	0,1	0,000233
0,427500	0,1	0,013456
0,429167	0,1	0,027622
0,430833	0,1	-0,014114
0,432500	0,1	0,029087
0,434167	0,1	0,092487
0,435833	0,1	0,067140
0,437500	0,1	0,066451
0,439167	0,1	0,042646
0,440833	0,1	0,046456
0,442500	0,1	0,039737
0,444167	0,1	0,018214
0,445833	0,1	0,046056
0,447500	0,1	0,070759
0,449167	0,1	0,018594
0,450833	0,1	0,016116
0,452500	0,1	0,030979
0,454167	0,1	-0,005238
0,455833	0,1	0,068113
0,457500	0,1	0,013970
0,459167	0,1	0,022375
0,460833	0,1	0,051966
0,462500	0,1	0,033022
0,464167	0,1	0,017694
0,465833	0,1	0,017711
0,467500	0,1	-0,006108
0,469167	0,1	0,098533
0,470833	0,1	0,029403
0,472500	0,1	0,038097
0,474167	0,1	0,063208
0,475833	0,1	0,013285
0,477500	0,1	0,029218
0,479167	0,1	0,041537
0,480833	0,1	0,037870
0,482500	0,1	0,047886
0,484167	0,1	0,035176
0,485833	0,1	0,069927
0,487500	0,1	0,062905
0,489167	0,1	0,053696
0,490833	0,1	0,041524
0,492500	0,1	0,070302
0,494167	0,1	0,046171
0,495833	0,1	0,072045
0,497500	0,1	0,072051
0,499167	0,1	0,073169
0,500833	0,1	0,013411
0,502500	0,1	0,059699
0,504167	0,1	0,065847
0,505833	0,1	0,030268
0,507500	0,1	0,072290
0,509167	0,1	0,062844
0,510833	0,1	0,026057
0,512500	0,1	0,071273
0,514167	0,1	0,044429
0,515833	0,1	0,049565
0,517500	0,1	0,059457
0,519167	0,1	0,058298
0,520833	0,1	0,041088
0,522500	0,1	0,079259
0,524167	0,1	0,029004
0,525833	0,1	0,043714
0,527500	0,1	0,057548
0,529167	0,1	0,033374
0,530833	0,1	0,072206
0,532500	0,1	0,054652
0,534167	0,1	0,037811
0,535833	0,1	0,073617
0,537500	0,1	0,081858
0,539167	0,1	0,044059
0,540833	0,1	0,058129
0,542500	0,1	0,077272
0,544167	0,1	0,027638
0,545833	0,1	0,077058
0,547500	0,1	0,055752
0,549167	0,1	0,060207
0,550833	0,1	0,033832
0,552500	0,1	0,079051
0,554167	0,1	0,046008
0,555833	0,1	0,054813
0,557500	0,1	0,058278
0,559167	0,1	0,072855
0,560833	0,1	0,097617
0,562500	0,1	0,109132
0,564167	0,1	0,087488
0,565833	0,1	0,102826
0,567500	0,1	0,052898
0,569167	0,1	0,056514
0,570833	0,1	0,060601
0,572500	0,1	0,067424
0,574167	0,1	0,089800
0,575833	0,1	0,082009
0,577500	0,1	0,084516
0,579167	0,1	0,120581
0,580833	0,1	0,077349
0,582500	0,1	0,061538
0,584167	0,1	0,074245
0,585833	0,1	0,087126
0,587500	0,1	0,108116
0,589167	0,1	0,076166
0,590833	0,1	0,065251
0,592500	0,1	0,137310
0,594167	0,1	0,094543
0,595833	0,1	0,070833
0,597500	0,1	0,101166
0,599167	0,1	0,128318
0,600833	0,1	0,108933
0,602500	0,1	0,109634
0,604167	0,1	0,104078
0,605833	0,1	0,065671
0,607500	0,1	0,069767
0,609167	0,1	0,099237
0,610833	0,1	0,107703
0,612500	0,1	0,064470
0,614167	0,1	0,088701
0,615833	0,1	0,081304
0,617500	0,1	0,079869
0,619167	0,1	0,088393
0,620833	0,1	0,124189
0,622500	0,1	0,089378
0,624167	0,1	0,122425
0,625833	0,1	0,108893
0,627500	0,1	0,102648
0,629167	0,1	0,112371
0,630833	0,1	0,114427
0,632500	0,1	0,101216
0,634167	0,1	0,131348
0,635833	0,1	0,086063
0,637500	0,1	0,118111
0,639167	0,1	0,117164
0,640833	0,1	0,100927
0,642500	0,1	0,130267
0,644167	0,1	0,116648
0,645833	0,1	0,102689
0,647500	0,1	0,126866
0,649167	0,1	0,137078
0,650833	0,1	0,130755
0,652500	0,1	0,122789
0,654167	0,1	0,127224
0,655833	0,1	0,128282
0,657500	0,1	0,125318
0,659167	0,1	0,133675
0,660833	0,1	0,162547
0,662500	0,1	0,128603
0,664167	0,1	0,149767
0,665833	0,1	0,150522
0,667500	0,1	0,188625
0,669167	0,1	0,178236
0,670833	0,1	0,136902
0,672500	0,1	0,116712
0,674167	0,1	0,152172
0,675833	0,1	0,167821
0,677500	0,1	0,150113
0,679167	0,1	0,201877
0,680833	0,1	0,156818
0,682500	0,1	0,187754
0,684167	0,1	0,145304
0,685833	0,1	0,171442
0,687500	0,1	0,157663
0,689167	0,1	0,127334
0,690833	0,1	0,172999
0,692500	0,1	0,174939
0,694167	0,1	0,199310
0,695833	0,1	0,146388
0,697500	0,1	0,180240
0,699167	0,1	0,181433
0,700833	0,1	0,197760
0,702500	0,1	0,180340
0,704167	0,1	0,171271
0,705833	0,1	0,234802
0,707500	0,1	0,196173
0,709167	0,1	0,188799
0,710833	0,1	0,197799
0,712500	0,1	0,191223
0,714167	0,1	0,186351
0,715833	0,1	0,252647
0,717500	0,1	0,218480
0,719167	0,1	0,212558
0,720833	0,1	0,223526
0,722500	0,1	0,222697
0,724167	0,1	0,240185
0,725833	0,1	0,233116
0,727500	0,1	0,218867
0,729167	0,1	0,240161
0,730833	0,1	0,220217
0,732500	0,1	0,195219
0,734167	0,1	0,240281
0,735833	0,1	0,235210
0,737500	0,1	0,270098
0,739167	0,1	0,247661
0,740833	0,1	0,300883
0,742500	0,1	0,285927
0,744167	0,1	0,242318
0,745833	0,1	0,271665
0,747500	0,1	0,240777
0,749167	0,1	0,289835
0,750833	0,1	0,291914
0,752500	0,1	0,264603
0,754167	0,1	0,287496
0,755833	0,1	0,288145
0,757500	0,1	0,304994
0,759167	0,1	0,277922
0,760833	0,1	0,258483
0,762500	0,1	0,270963
0,764167	0,1	0,266665
0,765833	0,1	0,269363
0,767500	0,1	0,297244
0,769167	0,1	0,292748
0,770833	0,1	0,248979
0,772500	0,1	0,309069
0,774167	0,1	0,266738
0,775833	0,1	0,270259
0,777500	0,1	0,261193
0,779167	0,1	0,265401
0,780833	0,1	0,288076
0,782500	0,1	0,263643
0,784167	0,1	0,257913
0,785833	0,1	0,304442
0,787500	0,1	0,266382
0,789167	0,1	0,273222
0,790833	0,1	0,243854
0,792500	0,1	0,257328
0,794167	0,1	0,270431
0,795833	0,1	0,275152
0,797500	0,1	0,244056
0,799167	0,1	0,275422
0,800833	0,1	0,255821
0,802500	0,1	0,228870
0,804167	0,1	0,239795
0,805833	0,1	0,279583
0,807500	0,1	0,253163
0,809167	0,1	0,292411
0,810833	0,1	0,232031
0,812500	0,1	0,266239
0,814167	0,1	0,256916
0,815833	0,1	0,287014
0,817500	0,1	0,283970
0,819167	0,1	0,266732
0,820833	0,1	0,254923
0,822500	0,1	0,240382
0,824167	0,1	0,261411
0,825833	0,1	0,251051
0,827500	0,1	0,271703
0,829167	0,1	0,253287
0,830833	0,1	0,250899
0,832500	0,1	0,242601
0,834167	0,1	0,283404
0,835833	0,1	0,248788
0,837500	0,1	0,275435
0,839167	0,1	0,226428
0,840833	0,1	0,253754
0,842500	0,1	0,255046
0,844167	0,1	0,232830
0,845833	0,1	0,234628
0,847500	0,1	0,229988
0,849167	0,1	0,249872
0,850833	0,1	0,243307
0,852500	0,1	0,255209
0,854167	0,1	0,270418
0,855833	0,1	0,250071
0,857500	0,1	0,253408
0,859167	0,1	0,266081
0,860833	0,1	0,265982
0,862500	0,1	0,235922
0,864167	0,1	0,239459
0,865833	0,1	0,224301
0,867500	0,1	0,248217
0,869167	0,1	0,253016
0,870833	0,1	0,288868
0,872500	0,1	0,266832
0,874167	0,1	0,267722
0,875833	0,1	0,249931
0,877500	0,1	0,267845
0,879167	0,1	0,263158
0,880833	0,1	0,274090
0,882500	0,1	0,259944
0,884167	0,1	0,272904
0,885833	0,1	0,262870
0,887500	0,1	0,271328
0,889167	0,1	0,243538
0,890833	0,1	0,269709
0,892500	0,1	0,286981
0,894167	0,1	0,248146
0,895833	0,1	0,262498
0,897500	0,1	0,233349
0,899167	0,1	0,252243
0,900833	0,1	0,297946
0,902500	0,1	0,273064
0,904167	0,1	0,247310
0,905833	0,1	0,243330
0,907500	0,1	0,245272
0,909167	0,1	0,265171
0,910833	0,1	0,287722
0,912500	0,1	0,255181
0,914167	0,1	0,281994
0,915833	0,1	0,287374
0,917500	0,1	0,276668
0,919167	0,1	0,295217
0,920833	0,1	0,292649
0,922500	0,1	0,284414
0,924167	0,1	0,253290
0,925833	0,1	0,314960
0,927500	0,1	0,339733
0,929167	0,1	0,283529
0,930833	0,1	0,258623
0,932500	0,1	0,274416
0,934167	0,1	0,241712
0,935833	0,1	0,289393
0,937500	0,1	0,286342
0,939167	0,1	0,273124
0,940833	0,1	0,287661
0,942500	0,1	0,336646
0,944167	0,1	0,308510
0,945833	0,1	0,267570
0,947500	0,1	0,235681
0,949167	0,1	0,273755
0,950833	0,1	0,286501
0,952500	0,1	0,298182
0,954167	0,1	0,282510
0,955833	0,1	0,314513
0,957500	0,1	0,286195
0,959167	0,1	0,263126
0,960833	0,1	0,318267
0,962500	0,1	0,301785
0,964167	0,1	0,323079
0,965833	0,1	0,321345
0,967500	0,1	0,307964
0,969167	0,1	0,326677
0,970833	0,1	0,359303
0,972500	0,1	0,338565
0,974167	0,1	0,317198
0,975833	0,1	0,321315
0,977500	0,1	0,325973
0,979167	0,1	0,343947
0,980833	0,1	0,296039
0,982500	0,1	0,323610
0,984167	0,1	0,329216
0,985833	0,1	0,402358
0,987500	0,1	0,349826
0,989167	0,1	0,368531
0,990833	0,1	0,347799
0,992500	0,1	0,308540
0,994167	0,1	0,366456
0,995833	0,1	0,359974
0,997500	0,1	0,363933
0,999167	0,1	0,376926
1,000833	0,1	0,382012
1,002500	0,1	0,343960
1,004167	0,1	0,382738
1,005833	0,1	0,401637
1,007500	0,1	0,415242
1,009167	0,1	0,429654
1,010833	0,1	0,406342
1,012500	0,1	0,421097
1,014167	0,1	0,406693
1,015833	0,1	0,486403
1,017500	0,1	0,457273
1,019167	0,1	0,500733
1,020833	0,1	0,467120
1,022500	0,1	0,476894
1,024167	0,1	0,530625
1,025833	0,1	0,513620
1,027500	0,1	0,523783
1,029167	0,1	0,522884
1,030833	0,1	0,568123
1,032500	0,1	0,565881
1,034167	0,1	0,554779
1,035833	0,1	0,531351
1,037500	0,1	0,602330
1,039167	0,1	0,570877
1,040833	0,1	0,572027
1,042500	0,1	0,601020
1,044167	0,1	0,609526
1,045833	0,1	0,611359
1,047500	0,1	0,671090
1,049167	0,1	0,633681
1,050833	0,1	0,680652
1,052500	0,1	0,664670
1,054167	0,1	0,722769
1,055833	0,1	0,782556
1,057500	0,1	0,788470
1,059167	0,1	0,936328
1,060833	0,1	1,004132
1,062500	0,1	1,140741
1,064167	0,1	1,348882
1,065833	0,1	1,611278
1,067500	0,1	1,885160
1,069167	0,1	2,328790
1,070833	0,1	2,828535
1,072500	0,1	3,479583
1,074167	0,1	4,202453
1,075833	0,1	5,122487
1,077500	0,1	6,187194
1,079167	0,1	7,464357
1,080833	0,1	8,899250
1,082500	0,1	10,612625
1,084167	0,1	12,357983
1,085833	0,1	14,397414
1,087500	0,1	16,575475
1,089167	0,1	18,922645
1,090833	0,1	21,388731
1,092500	0,1	23,913759
1,094167	0,1	26,514447
1,095833	0,1	29,117687
1,097500	0,1	31,727291
1,099167	0,1	34,297749
1,100833	0,1	36,751845
1,102500	0,1	39,116043
1,104167	0,1	41,261864
1,105833	0,1	43,257131
1,107500	0,1	44,968738
1,109167	0,1	46,576226
1,110833	0,1	47,860152
1,112500	0,1	48,950054
1,114167	0,1	49,808008
1,115833	0,1	50,394288
1,117500	0,1	50,762032
1,119167	0,1	50,953722
1,120833	0,1	50,862384
1,122500	0,1	50,716668
1,124167	0,1	50,301917
1,125833	0,1	49,811078
1,127500	0,1	49,237630
1,129167	0,1	48,427989
1,130833	0,1	47,645162
1,132500	0,1	46,708070
1,134167	0,1	45,768739
1,135833	0,1	44,798582
1,137500	0,1	43,775322
1,139167	0,1	42,720467
1,140833	0,1	41,782721
1,142500	0,1	40,795574
1,144167	0,1	39,850085
1,145833	0,1	38,943903
1,147500	0,1	38,120225
1,149167	0,1	37,360093
1,150833	0,1	36,551867
1,152500	0,1	35,918264
1,154167	0,1	35,347221
1,155833	0,1	34,840730
1,157500	0,1	34,377063
1,159167	0,1	33,965942
1,160833	0,1	33,698869
1,162500	0,1	33,426380
1,164167	0,1	33,192886
1,165833	0,1	33,042713
1,167500	0,1	32,923084
1,169167	0,1	32,844422
1,170833	0,1	32,776983
1,172500	0,1	32,729997
1,174167	0,1	32,683415
1,175833	0,1	32,678396
1,177500	0,1	32,662531
1,179167	0,1	32,608438
1,180833	0,1	32,578634
1,182500	0,1	32,557236
1,184167	0,1	32,477128
1,185833	0,1	32,508992
1,187500	0,1	32,463564
1,189167	0,1	32,448105
1,190833	0,1	32,485223
1,192500	0,1	32,507734
1,194167	0,1	32,592012
1,195833	0,1	32,765270
1,197500	0,1	32,997319
1,199167	0,1	33,393135
1,200833	0,1	33,766698
1,202500	0,1	34,447494
1,204167	0,1	35,248339
1,205833	0,1	36,239435
1,207500	0,1	37,451645
1,209167	0,1	38,860340
1,210833	0,1	40,466534
1,212500	0,1	42,412764
1,214167	0,1	44,590599
1,215833	0,1	46,984956
1,217500	0,1	49,662452
1,219167	0,1	52,614770
1,220833	0,1	55,682037
1,222500	0,1	59,031839
1,224167	0,1	62,479605
1,225833	0,1	66,046821
1,227500	0,1	69,765883
1,229167	0,1	73,476027
1,230833	0,1	77,162943
1,232500	0,1	80,922392
1,234167	0,1	84,506175
1,235833	0,1	88,029493
1,237500	0,1	91,421360
1,239167	0,1	94,662677
1,240833	0,1	97,614600
1,242500	0,1	100,453887
1,244167	0,1	103,086751
1,245833	0,1	105,394864
1,247500	0,1	107,466485
1,249167	0,1	109,226190
1,250833	0,1	110,833427
1,252500	0,1	112,130909
1,254167	0,1	113,083094
1,255833	0,1	113,838737
1,257500	0,1	114,271444
1,259167	0,1	114,447662
1,260833	0,1	114,427569
1,262500	0,1	114,090076
1,264167	0,1	113,595770
1,265833	0,1	112,834090
1,267500	0,1	111,805891
1,269167	0,1	110,653763
1,270833	0,1	109,283989
1,272500	0,1	107,657222
1,274167	0,1	105,939703
1,275833	0,1	104,053629
1,277500	0,1	102,076633
1,279167	0,1	99,943462
1,280833	0,1	97,764828
1,282500	0,1	95,454700
1,284167	0,1	93,140682
1,285833	0,1	90,753987
1,287500	0,1	88,288031
1,289167	0,1	85,837763
1,290833	0,1	83,445137
1,292500	0,1	80,988039
1,294167	0,1	78,577652
1,295833	0,1	76,155168
1,297500	0,1	73,852141
1,299167	0,1	71,530969
1,300833	0,1	69,280630
1,302500	0,1	67,110117
1,304167	0,1	65,036317
1,305833	0,1	63,024872
1,307500	0,1	61,031484
1,309167	0,1	59,171371
1,310833	0,1	57,396450
1,312500	0,1	55,693895
1,314167	0,1	54,034147
1,315833	0,1	52,526299
1,317500	0,1	50,959656
1,319167	0,1	49,496705
1,320833	0,1	48,137935
1,322500	0,1	46,816639
1,324167	0,1	45,585809
1,325833	0,1	44,463629
1,327500	0,1	43,248041
1,329167	0,1	42,210619
1,330833	0,1	41,144792
1,332500	0,1	40,150493
1,334167	0,1	39,176281
1,335833	0,1	38,273312
1,337500	0,1	37,406126
1,339167	0,1	36,515535
1,340833	0,1	35,736345
1,342500	0,1	34,895341
1,344167	0,1	34,128765
1,345833	0,1	33,350951
1,347500	0,1	32,648180
1,349167	0,1	31,972666
1,350833	0,1	31,287353
1,352500	0,1	30,592037
1,354167	0,1	29,973538
1,355833	0,1	29,326276
1,357500	0,1	28,668395
1,359167	0,1	28,066737
1,360833	0,1	27,474632
1,362500	0,1	26,877792
1,364167	0,1	26,341620
1,365833	0,1	25,751867
1,367500	0,1	25,206594
1,369167	0,1	24,663772
1,370833	0,1	24,129875
1,372500	0,1	23,617415
1,374167	0,1	23,069559
1,375833	0,1	22,548000
1,377500	0,1	22,106276
1,379167	0,1	21,615807
1,380833	0,1	21,178718
1,382500	0,1	20,712813
1,384167	0,1	20,298996
1,385833	0,1	19,838467
1,387500	0,1	19,429459
1,389167	0,1	19,016028
1,390833	0,1	18,584019
1,392500	0,1	18,176579
1,394167	0,1	17,820663
1,395833	0,1	17,451567
1,397500	0,1	17,137751
1,399167	0,1	16,780219
1,400833	0,1	16,441289
1,402500	0,1	16,097998
1,404167	0,1	15,790680
1,405833	0,1	15,548467
1,407500	0,1	15,194708
1,409167	0,1	14,922455
1,410833	0,1	14,700345
1,412500	0,1	14,382696
1,414167	0,1	14,117965
1,415833	0,1	13,906998
1,417500	0,1	13,669402
1,419167	0,1	13,459100
1,420833	0,1	13,223421
1,422500	0,1	12,988539
1,424167	0,1	12,748946
1,425833	0,1	12,562726
1,427500	0,1	12,406638
1,429167	0,1	12,193943
1,430833	0,1	11,986621
1,432500	0,1	11,775462
1,434167	0,1	11,610665
1,435833	0,1	11,464401
1,437500	0,1	11,279592
1,439167	0,1	11,101875
1,440833	0,1	10,955373
1,442500	0,1	10,802181
1,444167	0,1	10,627077
1,445833	0,1	10,514155
1,447500	0,1	10,364519
1,449167	0,1	10,163056
1,450833	0,1	10,007046
1,452500	0,1	9,878332
1,454167	0,1	9,718607
1,455833	0,1	9,577337
1,457500	0,1	9,505371
1,459167	0,1	9,283409
1,460833	0,1	9,173613
1,462500	0,1	9,040217
1,464167	0,1	8,959099
1,465833	0,1	8,857118
1,467500	0,1	8,700780
1,469167	0,1	8,574158
1,470833	0,1	8,513545
1,472500	0,1	8,422274
1,474167	0,1	8,287543
1,475833	0,1	8,218455
1,477500	0,1	8,122919
1,479167	0,1	8,055239
1,480833	0,1	7,945452
1,482500	0,1	7,874543
1,484167	0,1	7,808804
1,485833	0,1	7,773614
1,487500	0,1	7,694155
1,489167	0,1	7,625671
1,490833	0,1	7,562962
1,492500	0,1	7,511182
1,494167	0,1	7,454833
1,495833	0,1	7,402981
1,497500	0,1	7,363283
1,499167	0,1	7,348046
1,500833	0,1	7,281016
1,502500	0,1	7,226756
1,504167	0,1	7,215822
1,505833	0,1	7,186036
1,507500	0,1	7,168482
1,509167	0,1	7,098290
1,510833	0,1	7,105181
1,512500	0,1	7,068224
1,514167	0,1	7,044792
1,515833	0,1	7,016604
1,517500	0,1	7,015386
1,519167	0,1	6,992338
1,520833	0,1	6,971061
1,522500	0,1	6,925338
1,524167	0,1	6,909187
1,525833	0,1	6,862822
1,527500	0,1	6,852369
1,529167	0,1	6,879692
1,530833	0,1	6,816554
1,532500	0,1	6,788736
1,534167	0,1	6,775496
1,535833	0,1	6,728404
1,537500	0,1	6,713009
1,539167	0,1	6,672162
1,540833	0,1	6,700312
1,542500	0,1	6,679348
1,544167	0,1	6,644468
1,545833	0,1	6,599438
1,547500	0,1	6,527822
1,549167	0,1	6,524361
1,550833	0,1	6,475349
1,552500	0,1	6,494817
1,554167	0,1	6,473385
1,555833	0,1	6,428642
1,557500	0,1	6,360989
1,559167	0,1	6,344659
1,560833	0,1	6,275519
1,562500	0,1	6,285868
1,564167	0,1	6,242633
1,565833	0,1	6,223639
1,567500	0,1	6,178919
1,569167	0,1	6,135218
1,570833	0,1	6,114053
1,572500	0,1	6,081664
1,574167	0,1	6,076012
1,575833	0,1	5,999539
1,577500	0,1	5,937674
1,579167	0,1	5,918709
1,580833	0,1	5,903333
1,582500	0,1	5,877640
1,584167	0,1	5,877861
1,585833	0,1	5,775858
1,587500	0,1	5,765588
1,589167	0,1	5,747525
1,590833	0,1	5,730626
1,592500	0,1	5,678897
1,594167	0,1	5,647979
1,595833	0,1	5,607189
1,597500	0,1	5,551496
1,599167	0,1	5,543671
1,600833	0,1	5,489124
1,602500	0,1	5,481081
1,604167	0,1	5,412743
1,605833	0,1	5,410994
1,607500	0,1	5,352971
1,609167	0,1	5,380250
1,610833	0,1	5,311432
1,612500	0,1	5,283501
1,614167	0,1	5,238351
1,615833	0,1	5,204487
1,617500	0,1	5,212367
1,619167	0,1	5,176881
1,620833	0,1	5,114040
1,622500	0,1	5,104328
1,624167	0,1	5,112695
1,625833	0,1	5,062854
1,627500	0,1	4,990810
1,629167	0,1	4,968290
1,630833	0,1	4,939451
1,632500	0,1	4,932670
1,634167	0,1	4,886056
1,635833	0,1	4,891278
1,637500	0,1	4,840982
1,639167	0,1	4,829637
1,640833	0,1	4,778712
1,642500	0,1	4,743646
1,644167	0,1	4,745670
1,645833	0,1	4,710687
1,647500	0,1	4,698348
1,649167	0,1	4,687950
1,650833	0,1	4,622465
1,652500	0,1	4,627234
1,654167	0,1	4,601297
1,655833	0,1	4,590688
1,657500	0,1	4,543437
1,659167	0,1	4,546552
1,660833	0,1	4,557019
1,662500	0,1	4,527400
1,664167	0,1	4,483718
1,665833	0,1	4,537402
1,667500	0,1	4,491103
1,669167	0,1	4,485493
1,670833	0,1	4,520032
1,672500	0,1	4,502467
1,674167	0,1	4,506434
1,675833	0,1	4,521007
1,677500	0,1	4,586240
1,679167	0,1	4,551476
1,680833	0,1	4,555491
1,682500	0,1	4,534462
1,684167	0,1	4,598724
1,685833	0,1	4,619138
1,687500	0,1	4,671524
1,689167	0,1	4,683160
1,690833	0,1	4,723232
1,692500	0,1	4,768975
1,694167	0,1	4,767852
1,695833	0,1	4,830270
1,697500	0,1	4,849667
1,699167	0,1	4,946950
1,700833	0,1	4,946293
1,702500	0,1	5,018088
1,704167	0,1	5,101335
1,705833	0,1	5,095020
1,707500	0,1	5,186210
1,709167	0,1	5,221586
1,710833	0,1	5,280285
1,712500	0,1	5,353221
1,714167	0,1	5,400324
1,715833	0,1	5,451835
1,717500	0,1	5,532951
1,719167	0,1	5,567473
1,720833	0,1	5,663122
1,722500	0,1	5,664924
1,724167	0,1	5,740833
1,725833	0,1	5,769119
1,727500	0,1	5,850494
1,729167	0,1	5,869738
1,730833	0,1	5,918236
1,732500	0,1	5,929306
1,734167	0,1	5,961904
1,735833	0,1	6,004356
1,737500	0,1	6,027738
1,739167	0,1	6,062237
1,740833	0,1	6,067300
1,742500	0,1	6,085105
1,744167	0,1	6,061808
1,745833	0,1	6,088910
1,747500	0,1	6,146765
1,749167	0,1	6,114839
1,750833	0,1	6,094598
1,752500	0,1	6,122711
1,754167	0,1	6,110538
1,755833	0,1	6,078878
1,757500	0,1	6,077315
1,759167	0,1	6,039012
1,760833	0,1	6,045918
1,762500	0,1	6,022179
1,764167	0,1	5,969463
1,765833	0,1	5,914454
1,767500	0,1	5,893383
1,769167	0,1	5,856103
1,770833	0,1	5,829406
1,772500	0,1	5,763997
1,774167	0,1	5,689458
1,775833	0,1	5,655405
1,777500	0,1	5,629916
1,779167	0,1	5,563894
1,780833	0,1	5,532718
1,782500	0,1	5,468146
1,784167	0,1	5,381418
1,785833	0,1	5,320713
1,787500	0,1	5,293287
1,789167	0,1	5,223253
1,790833	0,1	5,185479
1,792500	0,1	5,102055
1,794167	0,1	5,069860
1,795833	0,1	4,977977
1,797500	0,1	4,928016
1,799167	0,1	4,870721
1,800833	0,1	4,796686
1,802500	0,1	4,709297
1,804167	0,1	4,685851
1,805833	0,1	4,601421
1,807500	0,1	4,535967
1,809167	0,1	4,479781
1,810833	0,1	4,427012
1,812500	0,1	4,339108
1,814167	0,1	4,283708
1,815833	0,1	4,202646
1,817500	0,1	4,202957
1,819167	0,1	4,115112
1,820833	0,1	4,045503
1,822500	0,1	3,975349
1,824167	0,1	3,929613
1,825833	0,1	3,870099
1,827500	0,1	3,838281
1,829167	0,1	3,785598
1,830833	0,1	3,729500
1,832500	0,1	3,683050
1,834167	0,1	3,669919
1,835833	0,1	3,622525
1,837500	0,1	3,613412
1,839167	0,1	3,491457
1,840833	0,1	3,502471
1,842500	0,1	3,478086
1,844167	0,1	3,522864
1,845833	0,1	3,511293
1,847500	0,1	3,495736
1,849167	0,1	3,554621
1,850833	0,1	3,497120
1,852500	0,1	3,543606
1,854167	0,1	3,576041
1,855833	0,1	3,598757
1,857500	0,1	3,680061
1,859167	0,1	3,713525
1,860833	0,1	3,703496
1,862500	0,1	3,725120
1,864167	0,1	3,749374
1,865833	0,1	3,787060
1,867500	0,1	3,822160
1,869167	0,1	3,901580
1,870833	0,1	3,918094
1,872500	0,1	3,927416
1,874167	0,1	4,005455
1,875833	0,1	4,032103
1,877500	0,1	4,056192
1,879167	0,1	4,098333
1,880833	0,1	4,131593
1,882500	0,1	4,196612
1,884167	0,1	4,216257
1,885833	0,1	4,259949
1,887500	0,1	4,280162
1,889167	0,1	4,283775
1,890833	0,1	4,309902
1,892500	0,1	4,362044
1,894167	0,1	4,377596
1,895833	0,1	4,411398
1,897500	0,1	4,433244
1,899167	0,1	4,468876
1,900833	0,1	4,483252
1,902500	0,1	4,494823
1,904167	0,1	4,502618
1,905833	0,1	4,519058
1,907500	0,1	4,523362
1,909167	0,1	4,571622
1,910833	0,1	4,585035
1,912500	0,1	4,567658
1,914167	0,1	4,625780
1,915833	0,1	4,609329
1,917500	0,1	4,636231
1,919167	0,1	4,661584
1,920833	0,1	4,653663
1,922500	0,1	4,658257
1,924167	0,1	4,653711
1,925833	0,1	4,642453
1,927500	0,1	4,666216
1,929167	0,1	4,664708
1,930833	0,1	4,643601
1,932500	0,1	4,610999
1,934167	0,1	4,637907
1,935833	0,1	4,609651
1,937500	0,1	4,647804
1,939167	0,1	4,629178
1,940833	0,1	4,633105
1,942500	0,1	4,614455
1,944167	0,1	4,616921
1,945833	0,1	4,619272
1,947500	0,1	4,564227
1,949167	0,1	4,606870
1,950833	0,1	4,542134
1,952500	0,1	4,582633
1,954167	0,1	4,554147
1,955833	0,1	4,478814
1,957500	0,1	4,544060
1,959167	0,1	4,469470
1,960833	0,1	4,504882
1,962500	0,1	4,538385
1,964167	0,1	4,479497
1,965833	0,1	4,511214
1,967500	0,1	4,474377
1,969167	0,1	4,477491
1,970833	0,1	4,475625
1,972500	0,1	4,488448
1,974167	0,1	4,486704
1,975833	0,1	4,485690
1,977500	0,1	4,469865
1,979167	0,1	4,459635
1,980833	0,1	4,480898
1,982500	0,1	4,417922
1,984167	0,1	4,455196
1,985833	0,1	4,474931
1,987500	0,1	4,489058
1,989167	0,1	4,483457
1,990833	0,1	4,486993
1,992500	0,1	4,512560
1,994167	0,1	4,495846
1,995833	0,1	4,516905
1,997500	0,1	4,496054
1,999167	0,1	4,515203
2,000833	0,1	4,520196
2,002500	0,1	4,559328
2,004167	0,1	4,548058
2,005833	0,1	4,562297
2,007500	0,1	4,544326
2,009167	0,1	4,611742
2,010833	0,1	4,600149
2,012500	0,1	4,626459
2,014167	0,1	4,659419
2,015833	0,1	4,608322
2,017500	0,1	4,634695
2,019167	0,1	4,623185
2,020833	0,1	4,718205
2,022500	0,1	4,702165
2,024167	0,1	4,771621
2,025833	0,1	4,770786
2,027500	0,1	4,768653
2,029167	0,1	4,788829
2,030833	0,1	4,821527
2,032500	0,1	4,840765
2,034167	0,1	4,860415
2,035833	0,1	4,845107
2,037500	0,1	4,927762
2,039167	0,1	4,905200
2,040833	0,1	4,905793
2,042500	0,1	4,932495
2,044167	0,1	4,934283
2,045833	0,1	4,994229
2,047500	0,1	5,037467
2,049167	0,1	5,052517
2,050833	0,1	5,022864
2,052500	0,1	5,063736
2,054167	0,1	5,092723
2,055833	0,1	5,160844
2,057500	0,1	5,131737
2,059167	0,1	5,166341
2,060833	0,1	5,208512
2,062500	0,1	5,210954
2,064167	0,1	5,279626
2,065833	0,1	5,277914
2,067500	0,1	5,286291
2,069167	0,1	5,303431
2,070833	0,1	5,349408
2,072500	0,1	5,357990
2,074167	0,1	5,376433
2,075833	0,1	5,409366
2,077500	0,1	5,408932
2,079167	0,1	5,430564
2,080833	0,1	5,449898
2,082500	0,1	5,438141
2,084167	0,1	5,486127
2,085833	0,1	5,527017
2,087500	0,1	5,548290
2,089167	0,1	5,539009
2,090833	0,1	5,586330
2,092500	0,1	5,551906
2,094167	0,1	5,552265
2,095833	0,1	5,590610
2,097500	0,1	5,585281
2,099167	0,1	5,605678
2,100833	0,1	5,616294
2,102500	0,1	5,640623
2,104167	0,1	5,623921
2,105833	0,1	5,666908
2,107500	0,1	5,637706
2,109167	0,1	5,670214
2,110833	0,1	5,641224
2,112500	0,1	5,676446
2,114167	0,1	5,647562
2,115833	0,1	5,652548
2,117500	0,1	5,708025
2,119167	0,1	5,663022
2,120833	0,1	5,696441
2,122500	0,1	5,672639
2,124167	0,1	5,666860
2,125833	0,1	5,699156
2,127500	0,1	5,667362
2,129167	0,1	5,697202
2,130833	0,1	5,708581
2,132500	0,1	5,655841
2,134167	0,1	5,675166
2,135833	0,1	5,634498
2,137500	0,1	5,657561
2,139167	0,1	5,634906
2,140833	0,1	5,650720
2,142500	0,1	5,662316
2,144167	0,1	5,664945
2,145833	0,1	5,633322
2,147500	0,1	5,620361
2,149167	0,1	5,634333
2,150833	0,1	5,602174
2,152500	0,1	5,630877
2,154167	0,1	5,630839
2,155833	0,1	5,596160
2,157500	0,1	5,592116
2,159167	0,1	5,545938
2,160833	0,1	5,550594
2,162500	0,1	5,573727
2,164167	0,1	5,548624
2,165833	0,1	5,539919
2,167500	0,1	5,545537
2,169167	0,1	5,508370
2,170833	0,1	5,475274
2,172500	0,1	5,490214
2,174167	0,1	5,491847
2,175833	0,1	5,488374
2,177500	0,1	5,451667
2,179167	0,1	5,447667
2,180833	0,1	5,471685
2,182500	0,1	5,447108
2,184167	0,1	5,425910
2,185833	0,1	5,417898
2,187500	0,1	5,402820
2,189167	0,1	5,376873
2,190833	0,1	5,351969
2,192500	0,1	5,359795
2,194167	0,1	5,352787
2,195833	0,1	5,359600
2,197500	0,1	5,284616
2,199167	0,1	5,324336
2,200833	0,1	5,324089
2,202500	0,1	5,254795
2,204167	0,1	5,289395
2,205833	0,1	5,280125
2,207500	0,1	5,282920
2,209167	0,1	5,227659
2,210833	0,1	5,237176
2,212500	0,1	5,247217
2,214167	0,1	5,212690
2,215833	0,1	5,225574
2,217500	0,1	5,191078
2,219167	0,1	5,204504
2,220833	0,1	5,204533
2,222500	0,1	5,182534
2,224167	0,1	5,228734
2,225833	0,1	5,208922
2,227500	0,1	5,196474
2,229167	0,1	5,198252
2,230833	0,1	5,181881
2,232500	0,1	5,135672
2,234167	0,1	5,168999
2,235833	0,1	5,212529
2,237500	0,1	5,208516
2,239167	0,1	5,176707
2,240833	0,1	5,122183
2,242500	0,1	5,156413
2,244167	0,1	5,186990
2,245833	0,1	5,172178
2,247500	0,1	5,167197
2,249167	0,1	5,156875
2,250833	0,1	5,171210
2,252500	0,1	5,167932
2,254167	0,1	5,154924
2,255833	0,1	5,164281
2,257500	0,1	5,195051
2,259167	0,1	5,156486
2,260833	0,1	5,168693
2,262500	0,1	5,150062
2,264167	0,1	5,153168
2,265833	0,1	5,121103
2,267500	0,1	5,122765
2,269167	0,1	5,142189
2,270833	0,1	5,136596
2,272500	0,1	5,127744
2,274167	0,1	5,083099
2,275833	0,1	5,086990
2,277500	0,1	5,089731
2,279167	0,1	5,087954
2,280833	0,1	5,064176
2,282500	0,1	5,096570
2,284167	0,1	5,054963
2,285833	0,1	5,051955
2,287500	0,1	5,028379
2,289167	0,1	5,045331
2,290833	0,1	5,023429
2,292500	0,1	5,025940
2,294167	0,1	5,007259
2,295833	0,1	4,994331
2,297500	0,1	4,941784
2,299167	0,1	4,948389
2,300833	0,1	4,974613
2,302500	0,1	4,992884
2,304167	0,1	4,945570
2,305833	0,1	4,923572
2,307500	0,1	4,939649
2,309167	0,1	4,904154
2,310833	0,1	4,902343
2,312500	0,1	4,853417
2,314167	0,1	4,837904
2,315833	0,1	4,873595
2,317500	0,1	4,824081
2,319167	0,1	4,810888
2,320833	0,1	4,818200
2,322500	0,1	4,774414
2,324167	0,1	4,803610
2,325833	0,1	4,774327
2,327500	0,1	4,743064
2,329167	0,1	4,745890
2,330833	0,1	4,703189
2,332500	0,1	4,721072
2,334167	0,1	4,702852
2,335833	0,1	4,659970
2,337500	0,1	4,689429
2,339167	0,1	4,657274
2,340833	0,1	4,591551
2,342500	0,1	4,638660
2,344167	0,1	4,571906
2,345833	0,1	4,633129
2,347500	0,1	4,568401
2,349167	0,1	4,570745
2,350833	0,1	4,515864
2,352500	0,1	4,541507
2,354167	0,1	4,521045
2,355833	0,1	4,512562
2,357500	0,1	4,472506
2,359167	0,1	4,506063
2,360833	0,1	4,467146
2,362500	0,1	4,456628
2,364167	0,1	4,481699
2,365833	0,1	4,483658
2,367500	0,1	4,471081
2,369167	0,1	4,478701
2,370833	0,1	4,485806
2,372500	0,1	4,461941
2,374167	0,1	4,442870
2,375833	0,1	4,466439
2,377500	0,1	4,467508
2,379167	0,1	4,483861
2,380833	0,1	4,500257
2,382500	0,1	4,522626
2,384167	0,1	4,553475
2,385833	0,1	4,562043
2,387500	0,1	4,586205
2,389167	0,1	4,596603
2,390833	0,1	4,627581
2,392500	0,1	4,655533
2,394167	0,1	4,690575
2,395833	0,1	4,811054
2,397500	0,1	4,863924
2,399167	0,1	4,889786
2,400833	0,1	4,995832
2,402500	0,1	5,065142
2,404167	0,1	5,156739
2,405833	0,1	5,247144
2,407500	0,1	5,340004
2,409167	0,1	5,449813
2,410833	0,1	5,574504
2,412500	0,1	5,690949
2,414167	0,1	5,864611
2,415833	0,1	5,991434
2,417500	0,1	6,144313
2,419167	0,1	6,329256
2,420833	0,1	6,552839
2,422500	0,1	6,749804
2,424167	0,1	6,897213
2,425833	0,1	7,140873
2,427500	0,1	7,337064
2,429167	0,1	7,545132
2,430833	0,1	7,761783
2,432500	0,1	7,995563
2,434167	0,1	8,286611
2,435833	0,1	8,494169
2,437500	0,1	8,765863
2,439167	0,1	8,999477
2,440833	0,1	9,254263
2,442500	0,1	9,499551
2,444167	0,1	9,729414
2,445833	0,1	9,998622
2,447500	0,1	10,256737
2,449167	0,1	10,493545
2,450833	0,1	10,734809
2,452500	0,1	10,984673
2,454167	0,1	11,244069
2,455833	0,1	11,458555
2,457500	0,1	11,679626
2,459167	0,1	11,930740
2,460833	0,1	12,106354
2,462500	0,1	12,313726
2,464167	0,1	12,515401
2,465833	0,1	12,746523
2,467500	0,1	12,938160
2,469167	0,1	13,142760
2,470833	0,1	13,281615
2,472500	0,1	13,480785
2,474167	0,1	13,632083
2,475833	0,1	13,780794
2,477500	0,1	13,951316
2,479167	0,1	14,135394
2,480833	0,1	14,312006
2,482500	0,1	14,424645
2,484167	0,1	14,592769
2,485833	0,1	14,758538
2,487500	0,1	14,900716
2,489167	0,1	15,058282
2,490833	0,1	15,258788
2,492500	0,1	15,454712
2,494167	0,1	15,532269
2,495833	0,1	15,727499
2,497500	0,1	15,921241
2,499167	0,1	16,134024
2,500833	0,1	16,386398
2,502500	0,1	16,538416
2,504167	0,1	16,778985
2,505833	0,1	17,069697
2,507500	0,1	17,304717
2,509167	0,1	17,614317
2,510833	0,1	17,927809
2,512500	0,1	18,184343
2,514167	0,1	18,540834
2,515833	0,1	18,904743
2,517500	0,1	19,300768
2,519167	0,1	19,650095
2,520833	0,1	20,011632
2,522500	0,1	20,449813
2,524167	0,1	20,933902
2,525833	0,1	21,399579
2,527500	0,1	21,903979
2,529167	0,1	22,387256
2,530833	0,1	22,929177
2,532500	0,1	23,435212
2,534167	0,1	23,976716
2,535833	0,1	24,637210
2,537500	0,1	25,185710
2,539167	0,1	25,764906
2,540833	0,1	26,376682
2,542500	0,1	26,997577
2,544167	0,1	27,595758
2,545833	0,1	28,272018
2,547500	0,1	28,885251
2,549167	0,1	29,588210
2,550833	0,1	30,190996
2,552500	0,1	30,883651
2,554167	0,1	31,454798
2,555833	0,1	32,142494
2,557500	0,1	32,784252
2,559167	0,1	33,391527
2,560833	0,1	34,036373
2,562500	0,1	34,600686
2,564167	0,1	35,225880
2,565833	0,1	35,765798
2,567500	0,1	36,328066
2,569167	0,1	36,913480
2,570833	0,1	37,463004
2,572500	0,1	37,957578
2,574167	0,1	38,464162
2,575833	0,1	38,914394
2,577500	0,1	39,375356
2,579167	0,1	39,785075
2,580833	0,1	40,207252
2,582500	0,1	40,579432
2,584167	0,1	40,895805
2,585833	0,1	41,237817
2,587500	0,1	41,558244
2,589167	0,1	41,793352
2,590833	0,1	42,081184
2,592500	0,1	42,318036
2,594167	0,1	42,510799
2,595833	0,1	42,665046
2,597500	0,1	42,799558
2,599167	0,1	42,930707
2,600833	0,1	43,073887
2,602500	0,1	43,160433
2,604167	0,1	43,197568
2,605833	0,1	43,276605
2,607500	0,1	43,226623
2,609167	0,1	43,205129
2,610833	0,1	43,201678
2,612500	0,1	43,131666
2,614167	0,1	43,046783
2,615833	0,1	42,979499
2,617500	0,1	42,873254
2,619167	0,1	42,715848
2,620833	0,1	42,602965
2,622500	0,1	42,405552
2,624167	0,1	42,190294
2,625833	0,1	42,017072
2,627500	0,1	41,815051
2,629167	0,1	41,590513
2,630833	0,1	41,343637
2,632500	0,1	41,039056
2,634167	0,1	40,814942
2,635833	0,1	40,524724
2,637500	0,1	40,164611
2,639167	0,1	39,874408
2,640833	0,1	39,542666
2,642500	0,1	39,224747
2,644167	0,1	38,854531
2,645833	0,1	38,503886
2,647500	0,1	38,109384
2,649167	0,1	37,743859
2,650833	0,1	37,354386
2,652500	0,1	36,976703
2,654167	0,1	36,540394
2,655833	0,1	36,168771
2,657500	0,1	35,710941
2,659167	0,1	35,291219
2,660833	0,1	34,814369
2,662500	0,1	34,432082
2,664167	0,1	33,965675
2,665833	0,1	33,500530
2,667500	0,1	33,052752
2,669167	0,1	32,611387
2,670833	0,1	32,126760
2,672500	0,1	31,702013
2,674167	0,1	31,225277
2,675833	0,1	30,789655
2,677500	0,1	30,296839
2,679167	0,1	29,840644
2,680833	0,1	29,368925
2,682500	0,1	28,909854
2,684167	0,1	28,426062
2,685833	0,1	27,950008
2,687500	0,1	27,495266
2,689167	0,1	27,098460
2,690833	0,1	26,597316
2,692500	0,1	26,138416
2,694167	0,1	25,720594
2,695833	0,1	25,277849
2,697500	0,1	24,841370
2,699167	0,1	24,370963
2,700833	0,1	23,973795
2,702500	0,1	23,544518
2,704167	0,1	23,078362
2,705833	0,1	22,717416
2,707500	0,1	22,283042
2,709167	0,1	21,925690
2,710833	0,1	21,493000
2,712500	0,1	21,100186
2,714167	0,1	20,719737
2,715833	0,1	20,306624
2,717500	0,1	19,981002
2,719167	0,1	19,633847
2,720833	0,1	19,258839
2,722500	0,1	18,908388
2,724167	0,1	18,540307
2,725833	0,1	18,201720
2,727500	0,1	17,920945
2,729167	0,1	17,566627
2,730833	0,1	17,252533
2,732500	0,1	16,966997
2,734167	0,1	16,623743
2,735833	0,1	16,358887
2,737500	0,1	16,062215
2,739167	0,1	15,793603
2,740833	0,1	15,549680
2,742500	0,1	15,268742
2,744167	0,1	14,974267
2,745833	0,1	14,713620
2,747500	0,1	14,469401
2,749167	0,1	14,211054
2,750833	0,1	13,971686
2,752500	0,1	13,743750
2,754167	0,1	13,566868
2,755833	0,1	13,274198
2,757500	0,1	13,071815
2,759167	0,1	12,882983
2,760833	0,1	12,674715
2,762500	0,1	12,460815
2,764167	0,1	12,260258
2,765833	0,1	12,085366
2,767500	0,1	11,869252
2,769167	0,1	11,724578
2,770833	0,1	11,501610
2,772500	0,1	11,319162
2,774167	0,1	11,156651
2,775833	0,1	10,967637
2,777500	0,1	10,846274
2,779167	0,1	10,647562
2,780833	0,1	10,503079
2,782500	0,1	10,343462
2,784167	0,1	10,183721
2,785833	0,1	10,027777
2,787500	0,1	9,850152
2,789167	0,1	9,709399
2,790833	0,1	9,570925
2,792500	0,1	9,425411
2,794167	0,1	9,283390
2,795833	0,1	9,155097
2,797500	0,1	9,052795
2,799167	0,1	8,869226
2,800833	0,1	8,753545
2,802500	0,1	8,641822
2,804167	0,1	8,531847
2,805833	0,1	8,405262
2,807500	0,1	8,268801
2,809167	0,1	8,177774
2,810833	0,1	8,040834
2,812500	0,1	7,942998
2,814167	0,1	7,811621
2,815833	0,1	7,739366
2,817500	0,1	7,629947
2,819167	0,1	7,526590
2,820833	0,1	7,406647
2,822500	0,1	7,288211
2,824167	0,1	7,178021
2,825833	0,1	7,135057
2,827500	0,1	6,981360
2,829167	0,1	6,901183
2,830833	0,1	6,820760
2,832500	0,1	6,710246
2,834167	0,1	6,627600
2,835833	0,1	6,542859
2,837500	0,1	6,441325
2,839167	0,1	6,368457
2,840833	0,1	6,227018
2,842500	0,1	6,200648
2,844167	0,1	6,087683
2,845833	0,1	6,037385
2,847500	0,1	5,928137
2,849167	0,1	5,865584
2,850833	0,1	5,810024
2,852500	0,1	5,707587
2,854167	0,1	5,633030
2,855833	0,1	5,578998
2,857500	0,1	5,501240
2,859167	0,1	5,456399
2,860833	0,1	5,363810
2,862500	0,1	5,300506
2,864167	0,1	5,240642
2,865833	0,1	5,173633
2,867500	0,1	5,075842
2,869167	0,1	5,020751
2,870833	0,1	4,983259
2,872500	0,1	4,927765
2,874167	0,1	4,827892
2,875833	0,1	4,845331
2,877500	0,1	4,712309
2,879167	0,1	4,671464
2,880833	0,1	4,645870
2,882500	0,1	4,570244
2,884167	0,1	4,559258
2,885833	0,1	4,457059
2,887500	0,1	4,414137
2,889167	0,1	4,417736
2,890833	0,1	4,324986
2,892500	0,1	4,310278
2,894167	0,1	4,266299
2,895833	0,1	4,218305
2,897500	0,1	4,148861
2,899167	0,1	4,114421
2,900833	0,1	4,063402
2,902500	0,1	4,032562
2,904167	0,1	3,992142
2,905833	0,1	3,933146
2,907500	0,1	3,875905
2,909167	0,1	3,883654
2,910833	0,1	3,823055
2,912500	0,1	3,754584
2,914167	0,1	3,762554
2,915833	0,1	3,717904
2,917500	0,1	3,674905
2,919167	0,1	3,654954
2,920833	0,1	3,612644
2,922500	0,1	3,601719
2,924167	0,1	3,548917
2,925833	0,1	3,535556
2,927500	0,1	3,488333
2,929167	0,1	3,488609
2,930833	0,1	3,416670
2,932500	0,1	3,404761
2,934167	0,1	3,409500
2,935833	0,1	3,382275
2,937500	0,1	3,376285
2,939167	0,1	3,309707
2,940833	0,1	3,292228
2,942500	0,1	3,280262
2,944167	0,1	3,202045
2,945833	0,1	3,209968
2,947500	0,1	3,153434
2,949167	0,1	3,188782
2,950833	0,1	3,103299
2,952500	0,1	3,095947
2,954167	0,1	3,081478
2,955833	0,1	3,080468
2,957500	0,1	3,083704
2,959167	0,1	3,041573
2,960833	0,1	3,025352
2,962500	0,1	3,010569
2,964167	0,1	2,977140
2,965833	0,1	2,927803
2,967500	0,1	2,968950
2,969167	0,1	2,892638
2,970833	0,1	2,861291
2,972500	0,1	2,851419
2,974167	0,1	2,864864
2,975833	0,1	2,843085
2,977500	0,1	2,814627
2,979167	0,1	2,787801
2,980833	0,1	2,763364
2,982500	0,1	2,774270
2,984167	0,1	2,763871
2,985833	0,1	2,763783
2,987500	0,1	2,735410
2,989167	0,1	2,708451
2,990833	0,1	2,728282
2,992500	0,1	2,687248
2,994167	0,1	2,721226
2,995833	0,1	2,674450
2,997500	0,1	2,652667
2,999167	0,1	2,650076
3,000833	0,1	2,660207
3,002500	0,1	2,575669
3,004167	0,1	2,623259
3,005833	0,1	2,576301
3,007500	0,1	2,581168
3,009167	0,1	2,562999
3,010833	0,1	2,583531
3,012500	0,1	2,552289
3,014167	0,1	2,546032
3,015833	0,1	2,516379
3,017500	0,1	2,510615
3,019167	0,1	2,513919
3,020833	0,1	2,500203
3,022500	0,1	2,462136
3,024167	0,1	2,478568
3,025833	0,1	2,475137
3,027500	0,1	2,449774
3,029167	0,1	2,519565
3,030833	0,1	2,425583
3,032500	0,1	2,430876
3,034167	0,1	2,409627
3,035833	0,1	2,436694
3,037500	0,1	2,436119
3,039167	0,1	2,385851
3,040833	0,1	2,372419
3,042500	0,1	2,398765
3,044167	0,1	2,373930
3,045833	0,1	2,390720
3,047500	0,1	2,364870
3,049167	0,1	2,362285
3,050833	0,1	2,311528
3,052500	0,1	2,361048
3,054167	0,1	2,328327
3,055833	0,1	2,295367
3,057500	0,1	2,311656
3,059167	0,1	2,293136
3,060833	0,1	2,287461
3,062500	0,1	2,260754
3,064167	0,1	2,277260
3,065833	0,1	2,261974
3,067500	0,1	2,254145
3,069167	0,1	2,258090
3,070833	0,1	2,238208
3,072500	0,1	2,238921
3,074167	0,1	2,207700
3,075833	0,1	2,216162
3,077500	0,1	2,244444
3,079167	0,1	2,173608
3,080833	0,1	2,209335
3,082500	0,1	2,183648
3,084167	0,1	2,176823
3,085833	0,1	2,207039
3,087500	0,1	2,149413
3,089167	0,1	2,190954
3,090833	0,1	2,118410
3,092500	0,1	2,127289
3,094167	0,1	2,160522
3,095833	0,1	2,155074
3,097500	0,1	2,153421
3,099167	0,1	2,139857
3,100833	0,1	2,150477
3,102500	0,1	2,142943
3,104167	0,1	2,130384
3,105833	0,1	2,117460
3,107500	0,1	2,114375
3,109167	0,1	2,134752
3,110833	0,1	2,154208
3,112500	0,1	2,128446
3,114167	0,1	2,151766
3,115833	0,1	2,162248
3,117500	0,1	2,136776
3,119167	0,1	2,151765
3,120833	0,1	2,157010
3,122500	0,1	2,179687
3,124167	0,1	2,193187
3,125833	0,1	2,179124
3,127500	0,1	2,180840
3,129167	0,1	2,217878
3,130833	0,1	2,210494
3,132500	0,1	2,219391
3,134167	0,1	2,247530
3,135833	0,1	2,199735
3,137500	0,1	2,231736
3,139167	0,1	2,265050
3,140833	0,1	2,176985
3,142500	0,1	2,262667
3,144167	0,1	2,290831
3,145833	0,1	2,257885
3,147500	0,1	2,253929
3,149167	0,1	2,299150
3,150833	0,1	2,327305
3,152500	0,1	2,293572
3,154167	0,1	2,317326
3,155833	0,1	2,317332
3,157500	0,1	2,317762
3,159167	0,1	2,352654
3,160833	0,1	2,351442
3,162500	0,1	2,368961
3,164167	0,1	2,358698
3,165833	0,1	2,366168
3,167500	0,1	2,349725
3,169167	0,1	2,375134
3,170833	0,1	2,370979
3,172500	0,1	2,407100
3,174167	0,1	2,390948
3,175833	0,1	2,408313
3,177500	0,1	2,433891
3,179167	0,1	2,423548
3,180833	0,1	2,405816
3,182500	0,1	2,481713
3,184167	0,1	2,405401
3,185833	0,1	2,406886
3,187500	0,1	2,454276
3,189167	0,1	2,450706
3,190833	0,1	2,421188
3,192500	0,1	2,427143
3,194167	0,1	2,436402
3,195833	0,1	2,363171
3,197500	0,1	2,395679
3,199167	0,1	2,418158
3,200833	0,1	2,433739
3,202500	0,1	2,404947
3,204167	0,1	2,419739
3,205833	0,1	2,399635
3,207500	0,1	2,376660
3,209167	0,1	2,401997
3,210833	0,1	2,380677
3,212500	0,1	2,410189
3,214167	0,1	2,336233
3,215833	0,1	2,369889
3,217500	0,1	2,312179
3,219167	0,1	2,309938
3,220833	0,1	2,332408
3,222500	0,1	2,296735
3,224167	0,1	2,321348
3,225833	0,1	2,270672
3,227500	0,1	2,313729
3,229167	0,1	2,292490
3,230833	0,1	2,251641
3,232500	0,1	2,226580
3,234167	0,1	2,241503
3,235833	0,1	2,220118
3,237500	0,1	2,224132
3,239167	0,1	2,227218
3,240833	0,1	2,183293
3,242500	0,1	2,192541
3,244167	0,1	2,161755
3,245833	0,1	2,165263
3,247500	0,1	2,144884
3,249167	0,1	2,117607
3,250833	0,1	2,113155
3,252500	0,1	2,087673
3,254167	0,1	2,096429
3,255833	0,1	2,081288
3,257500	0,1	2,093553
3,259167	0,1	2,038381
3,260833	0,1	2,056018
3,262500	0,1	2,026395
3,264167	0,1	2,010317
3,265833	0,1	1,994811
3,267500	0,1	1,954200
3,269167	0,1	1,987625
3,270833	0,1	1,948398
3,272500	0,1	1,942579
3,274167	0,1	1,964174
3,275833	0,1	1,881518
3,277500	0,1	1,907402
3,279167	0,1	1,893149
3,280833	0,1	1,869179
3,282500	0,1	1,865581
3,284167	0,1	1,816106
3,285833	0,1	1,848801
3,287500	0,1	1,802193
3,289167	0,1	1,835112
3,290833	0,1	1,790790
3,292500	0,1	1,828570
3,294167	0,1	1,763545
3,295833	0,1	1,745313
3,297500	0,1	1,740958
3,299167	0,1	1,743094
3,300833	0,1	1,748553
3,302500	0,1	1,732830
3,304167	0,1	1,713043
3,305833	0,1	1,715411
3,307500	0,1	1,691249
3,309167	0,1	1,669665
3,310833	0,1	1,653025
3,312500	0,1	1,679919
3,314167	0,1	1,696839
3,315833	0,1	1,629816
3,317500	0,1	1,652093
3,319167	0,1	1,593726
3,320833	0,1	1,613872
3,322500	0,1	1,622908
3,324167	0,1	1,561561
3,325833	0,1	1,604971
3,327500	0,1	1,621247
3,329167	0,1	1,597751
3,330833	0,1	1,583993
3,332500	0,1	1,580833
3,334167	0,1	1,567301
3,335833	0,1	1,537545
3,337500	0,1	1,547419
3,339167	0,1	1,556727
3,340833	0,1	1,560174
3,342500	0,1	1,564057
3,344167	0,1	1,527019
3,345833	0,1	1,559410
3,347500	0,1	1,495252
3,349167	0,1	1,515450
3,350833	0,1	1,517939
3,352500	0,1	1,506713
3,354167	0,1	1,532867
3,355833	0,1	1,508075
3,357500	0,1	1,534802
3,359167	0,1	1,539735
3,360833	0,1	1,524627
3,362500	0,1	1,538042
3,364167	0,1	1,545567
3,365833	0,1	1,502769
3,367500	0,1	1,500603
3,369167	0,1	1,514024
3,370833	0,1	1,515673
3,372500	0,1	1,489808
3,374167	0,1	1,473627
3,375833	0,1	1,495384
3,377500	0,1	1,495881
3,379167	0,1	1,470936
3,380833	0,1	1,458322
3,382500	0,1	1,475675
3,384167	0,1	1,482925
3,385833	0,1	1,489582
3,387500	0,1	1,453714
3,389167	0,1	1,451003
3,390833	0,1	1,468443
3,392500	0,1	1,458390
3,394167	0,1	1,450154
3,395833	0,1	1,432097
3,397500	0,1	1,443836
3,399167	0,1	1,474232
3,400833	0,1	1,461697
3,402500	0,1	1,403373
3,404167	0,1	1,458608
3,405833	0,1	1,454821
3,407500	0,1	1,461708
3,409167	0,1	1,450800
3,410833	0,1	1,450250
3,412500	0,1	1,453953
3,414167	0,1	1,437696
3,415833	0,1	1,427648
3,417500	0,1	1,402112
3,419167	0,1	1,458963
3,420833	0,1	1,467663
3,422500	0,1	1,435120
3,424167	0,1	1,409238
3,425833	0,1	1,430237
3,427500	0,1	1,415040
3,429167	0,1	1,444288
3,430833	0,1	1,445432
3,432500	0,1	1,399515
3,434167	0,1	1,439648
3,435833	0,1	1,467356
3,437500	0,1	1,420511
3,439167	0,1	1,458900
3,440833	0,1	1,407613
3,442500	0,1	1,449360
3,444167	0,1	1,464218
3,445833	0,1	1,435887
3,447500	0,1	1,445446
3,449167	0,1	1,458179
3,450833	0,1	1,483195
3,452500	0,1	1,440283
3,454167	0,1	1,474163
3,455833	0,1	1,505921
3,457500	0,1	1,528859
3,459167	0,1	1,475268
3,460833	0,1	1,494094
3,462500	0,1	1,502467
3,464167	0,1	1,499123
3,465833	0,1	1,509769
3,467500	0,1	1,525704
3,469167	0,1	1,543340
3,470833	0,1	1,536031
3,472500	0,1	1,555035
3,474167	0,1	1,515244
3,475833	0,1	1,577454
3,477500	0,1	1,557654
3,479167	0,1	1,609867
3,480833	0,1	1,624118
3,482500	0,1	1,616666
3,484167	0,1	1,600275
3,485833	0,1	1,612376
3,487500	0,1	1,632008
3,489167	0,1	1,656172
3,490833	0,1	1,652823
3,492500	0,1	1,685774
3,494167	0,1	1,723950
3,495833	0,1	1,697277
3,497500	0,1	1,684138
3,499167	0,1	1,713259
3,500833	0,1	1,701910
3,502500	0,1	1,733823
3,504167	0,1	1,731528
3,505833	0,1	1,762868
3,507500	0,1	1,803689
3,509167	0,1	1,803053
3,510833	0,1	1,767899
3,512500	0,1	1,817383
3,514167	0,1	1,787778
3,515833	0,1	1,793928
3,517500	0,1	1,799528
3,519167	0,1	1,848005
3,520833	0,1	1,820410
3,522500	0,1	1,839914
3,524167	0,1	1,861000
3,525833	0,1	1,892058
3,527500	0,1	1,840218
3,529167	0,1	1,852098
3,530833	0,1	1,893852
3,532500	0,1	1,877149
3,534167	0,1	1,913582
3,535833	0,1	1,877224
3,537500	0,1	1,906329
3,539167	0,1	1,911442
3,540833	0,1	1,926142
3,542500	0,1	1,925066
3,544167	0,1	1,918183
3,545833	0,1	1,951684
3,547500	0,1	1,919199
3,549167	0,1	1,938123
3,550833	0,1	1,899172
3,552500	0,1	1,910571
3,554167	0,1	1,892715
3,555833	0,1	1,917452
3,557500	0,1	1,859146
3,559167	0,1	1,930719
3,560833	0,1	1,913090
3,562500	0,1	1,895516
3,564167	0,1	1,881803
3,565833	0,1	1,911154
3,567500	0,1	1,921994
3,569167	0,1	1,871482
3,570833	0,1	1,856413
3,572500	0,1	1,831004
3,574167	0,1	1,895783
3,575833	0,1	1,895505
3,577500	0,1	1,885106
3,579167	0,1	1,890702
3,580833	0,1	1,856213
3,582500	0,1	1,862154
3,584167	0,1	1,842287
3,585833	0,1	1,852898
3,587500	0,1	1,820125
3,589167	0,1	1,845288
3,590833	0,1	1,769705
3,592500	0,1	1,808574
3,594167	0,1	1,790627
3,595833	0,1	1,775012
3,597500	0,1	1,853028
3,599167	0,1	1,751865
3,600833	0,1	1,781658
3,602500	0,1	1,719229
3,604167	0,1	1,774419
3,605833	0,1	1,709240
3,607500	0,1	1,718277
3,609167	0,1	1,715559
3,610833	0,1	1,721636
3,612500	0,1	1,686942
3,614167	0,1	1,716058
3,615833	0,1	1,726659
3,617500	0,1	1,666240
3,619167	0,1	1,688945
3,620833	0,1	1,632177
3,622500	0,1	1,644859
3,624167	0,1	1,629218
3,625833	0,1	1,671239
3,627500	0,1	1,571179
3,629167	0,1	1,605135
3,630833	0,1	1,561669
3,632500	0,1	1,564252
3,634167	0,1	1,578041
3,635833	0,1	1,567699
3,637500	0,1	1,551872
3,639167	0,1	1,517040
3,640833	0,1	1,496669
3,642500	0,1	1,497336
3,644167	0,1	1,490436
3,645833	0,1	1,488923
3,647500	0,1	1,469302
3,649167	0,1	1,465923
3,650833	0,1	1,464880
3,652500	0,1	1,481178
3,654167	0,1	1,468890
3,655833	0,1	1,394907
3,657500	0,1	1,386576
3,659167	0,1	1,401503
3,660833	0,1	1,386731
3,662500	0,1	1,416333
3,664167	0,1	1,388228
3,665833	0,1	1,359833
3,667500	0,1	1,394813
3,669167	0,1	1,326786
3,670833	0,1	1,369116
3,672500	0,1	1,327798
3,674167	0,1	1,320342
3,675833	0,1	1,322478
3,677500	0,1	1,312248
3,679167	0,1	1,337726
3,680833	0,1	1,285278
3,682500	0,1	1,289642
3,684167	0,1	1,317024
3,685833	0,1	1,248619
3,687500	0,1	1,254690
3,689167	0,1	1,286583
3,690833	0,1	1,236008
3,692500	0,1	1,237065
3,694167	0,1	1,205041
3,695833	0,1	1,246628
3,697500	0,1	1,224379
3,699167	0,1	1,198948
3,700833	0,1	1,234938
3,702500	0,1	1,228598
3,704167	0,1	1,178259
3,705833	0,1	1,234646
3,707500	0,1	1,229638
3,709167	0,1	1,204636
3,710833	0,1	1,179697
3,712500	0,1	1,154290
3,714167	0,1	1,158486
3,715833	0,1	1,162044
3,717500	0,1	1,149351
3,719167	0,1	1,115244
3,720833	0,1	1,152476
3,722500	0,1	1,160728
3,724167	0,1	1,139577
3,725833	0,1	1,152903
3,727500	0,1	1,126529
3,729167	0,1	1,139100
3,730833	0,1	1,106842
3,732500	0,1	1,121167
3,734167	0,1	1,097195
3,735833	0,1	1,085946
3,737500	0,1	1,107607
3,739167	0,1	1,112656
3,740833	0,1	1,129654
3,742500	0,1	1,116127
3,744167	0,1	1,089306
3,745833	0,1	1,092698
3,747500	0,1	1,100187
3,749167	0,1	1,135316
3,750833	0,1	1,088579
3,752500	0,1	1,102920
3,754167	0,1	1,077995
3,755833	0,1	1,115380
3,757500	0,1	1,073555
3,759167	0,1	1,109003
3,760833	0,1	1,119520
3,762500	0,1	1,099505
3,764167	0,1	1,109676
3,765833	0,1	1,108767
3,767500	0,1	1,115945
3,769167	0,1	1,075021
3,770833	0,1	1,120046
3,772500	0,1	1,123346
3,774167	0,1	1,094596
3,775833	0,1	1,136891
3,777500	0,1	1,102087
3,779167	0,1	1,101478
3,780833	0,1	1,092057
3,782500	0,1	1,120539
3,784167	0,1	1,095262
3,785833	0,1	1,104277
3,787500	0,1	1,101078
3,789167	0,1	1,092347
3,790833	0,1	1,107318
3,792500	0,1	1,123120
3,794167	0,1	1,109349
3,795833	0,1	1,133921
3,797500	0,1	1,113394
3,799167	0,1	1,103503
3,800833	0,1	1,127186
3,802500	0,1	1,109062
3,804167	0,1	1,097791
3,805833	0,1	1,103633
3,807500	0,1	1,109010
3,809167	0,1	1,085949
3,810833	0,1	1,111095
3,812500	0,1	1,104992
3,814167	0,1	1,120742
3,815833	0,1	1,129723
3,817500	0,1	1,128724
3,819167	0,1	1,119482
3,820833	0,1	1,127256
3,822500	0,1	1,131769
3,824167	0,1	1,148170
3,825833	0,1	1,100490
3,827500	0,1	1,155296
3,829167	0,1	1,157574
3,830833	0,1	1,119756
3,832500	0,1	1,136144
3,834167	0,1	1,125905
3,835833	0,1	1,138611
3,837500	0,1	1,113108
3,839167	0,1	1,139808
3,840833	0,1	1,141237
3,842500	0,1	1,119061
3,844167	0,1	1,112035
3,845833	0,1	1,129498
3,847500	0,1	1,076890
3,849167	0,1	1,126510
3,850833	0,1	1,149767
3,852500	0,1	1,102311
3,854167	0,1	1,134073
3,855833	0,1	1,145922
3,857500	0,1	1,140393
3,859167	0,1	1,147037
3,860833	0,1	1,150503
3,862500	0,1	1,086893
3,864167	0,1	1,150402
3,865833	0,1	1,127219
3,867500	0,1	1,116614
3,869167	0,1	1,106038
3,870833	0,1	1,116388
3,872500	0,1	1,094817
3,874167	0,1	1,107652
3,875833	0,1	1,107923
3,877500	0,1	1,104124
3,879167	0,1	1,106747
3,880833	0,1	1,135786
3,882500	0,1	1,079091
3,884167	0,1	1,102584
3,885833	0,1	1,072907
3,887500	0,1	1,132732
3,889167	0,1	1,078824
3,890833	0,1	1,098050
3,892500	0,1	1,053756
3,894167	0,1	1,103155
3,895833	0,1	1,100700
3,897500	0,1	1,095789
3,899167	0,1	1,074615
3,900833	0,1	1,071366
3,902500	0,1	1,075521
3,904167	0,1	1,074367
3,905833	0,1	1,056237
3,907500	0,1	1,046547
3,909167	0,1	1,080269
3,910833	0,1	1,058238
3,912500	0,1	1,113198
3,914167	0,1	1,059023
3,915833	0,1	1,080893
3,917500	0,1	1,065125
3,919167	0,1	1,058191
3,920833	0,1	1,019000
3,922500	0,1	1,063688
3,924167	0,1	1,056745
3,925833	0,1	1,015068
3,927500	0,1	0,977095
3,929167	0,1	1,030002
3,930833	0,1	1,052251
3,932500	0,1	1,034085
3,934167	0,1	1,008421
3,935833	0,1	1,008747
3,937500	0,1	0,971476
3,939167	0,1	0,992459
3,940833	0,1	1,010833
3,942500	0,1	0,982895
3,944167	0,1	0,995260
3,945833	0,1	0,999636
3,947500	0,1	0,985668
3,949167	0,1	1,012299
3,950833	0,1	0,991247
3,952500	0,1	0,951059
3,954167	0,1	0,965887
3,955833	0,1	0,948698
3,957500	0,1	0,947960
3,959167	0,1	0,941766
3,960833	0,1	0,950178
3,962500	0,1	0,955960
3,964167	0,1	0,953138
3,965833	0,1	0,959446
3,967500	0,1	0,941125
3,969167	0,1	0,923929
3,970833	0,1	0,940512
3,972500	0,1	0,941120
3,974167	0,1	0,920682
3,975833	0,1	0,961816
3,977500	0,1	0,938153
3,979167	0,1	0,890147
3,980833	0,1	0,943527
3,982500	0,1	0,934036
3,984167	0,1	0,934100
3,985833	0,1	0,929037
3,987500	0,1	0,957203
3,989167	0,1	0,940587
3,990833	0,1	0,955777
3,992500	0,1	0,882686
3,994167	0,1	0,919340
3,995833	0,1	0,911446
3,997500	0,1	0,885054
3,999167	0,1	0,913412
4,000833	0,1	0,895584
4,002500	0,1	0,885643
4,004167	0,1	0,916078
4,005833	0,1	0,888697
4,007500	0,1	0,889203
4,009167	0,1	0,914147
4,010833	0,1	0,918820
4,012500	0,1	0,912222
4,014167	0,1	0,914707
4,015833	0,1	0,904559
4,017500	0,1	0,913549
4,019167	0,1	0,899828
4,020833	0,1	0,910393
4,022500	0,1	0,880573
4,024167	0,1	0,928340
4,025833	0,1	0,873598
4,027500	0,1	0,904681
4,029167	0,1	0,956751
4,030833	0,1	0,932841
4,032500	0,1	0,921638
4,034167	0,1	0,908005
4,035833	0,1	0,904374
4,037500	0,1	0,929832
4,039167	0,1	0,928012
4,040833	0,1	0,910466
4,042500	0,1	0,919949
4,044167	0,1	0,920991
4,045833	0,1	0,932099
4,047500	0,1	0,960729
4,049167	0,1	0,927375
4,050833	0,1	0,954667
4,052500	0,1	0,949762
4,054167	0,1	0,958844
4,055833	0,1	0,965667
4,057500	0,1	0,960292
4,059167	0,1	0,949895
4,060833	0,1	1,008069
4,062500	0,1	1,013414
4,064167	0,1	1,018436
4,065833	0,1	0,982537
4,067500	0,1	1,016206
4,069167	0,1	1,010441
4,070833	0,1	1,036407
4,072500	0,1	1,028060
4,074167	0,1	1,057871
4,075833	0,1	1,073873
4,077500	0,1	1,076920
4,079167	0,1	1,076233
4,080833	0,1	1,062193
4,082500	0,1	1,070586
4,084167	0,1	1,083275
4,085833	0,1	1,084567
4,087500	0,1	1,152468
4,089167	0,1	1,179215
4,090833	0,1	1,128004
4,092500	0,1	1,144657
4,094167	0,1	1,189900
4,095833	0,1	1,142161
4,097500	0,1	1,212636
4,099167	0,1	1,202967
4,100833	0,1	1,203830
4,102500	0,1	1,241924
4,104167	0,1	1,242712
4,105833	0,1	1,261540
4,107500	0,1	1,239881
4,109167	0,1	1,299964
4,110833	0,1	1,271664
4,112500	0,1	1,296375
4,114167	0,1	1,312497
4,115833	0,1	1,336267
4,117500	0,1	1,360669
4,119167	0,1	1,384225
4,120833	0,1	1,387422
4,122500	0,1	1,397399
4,124167	0,1	1,381519
4,125833	0,1	1,411651
4,127500	0,1	1,436109
4,129167	0,1	1,441394
4,130833	0,1	1,475505
4,132500	0,1	1,479672
4,134167	0,1	1,465812
4,135833	0,1	1,481194
4,137500	0,1	1,511356
4,139167	0,1	1,505930
4,140833	0,1	1,543736
4,142500	0,1	1,581468
4,144167	0,1	1,567562
4,145833	0,1	1,585033
4,147500	0,1	1,570926
4,149167	0,1	1,619510
4,150833	0,1	1,649025
4,152500	0,1	1,626510
4,154167	0,1	1,668498
4,155833	0,1	1,656389
4,157500	0,1	1,703841
4,159167	0,1	1,709740
4,160833	0,1	1,674729
4,162500	0,1	1,694306
4,164167	0,1	1,707802
4,165833	0,1	1,715181
4,167500	0,1	1,750175
4,169167	0,1	1,736991
4,170833	0,1	1,760934
4,172500	0,1	1,736279
4,174167	0,1	1,738645
4,175833	0,1	1,765232
4,177500	0,1	1,823206
4,179167	0,1	1,814665
4,180833	0,1	1,839919
4,182500	0,1	1,837688
4,184167	0,1	1,821832
4,185833	0,1	1,824200
4,187500	0,1	1,816392
4,189167	0,1	1,828707
4,190833	0,1	1,827995
4,192500	0,1	1,836394
4,194167	0,1	1,815813
4,195833	0,1	1,815303
4,197500	0,1	1,855249
4,199167	0,1	1,850165
4,200833	0,1	1,858485
4,202500	0,1	1,856045
4,204167	0,1	1,857622
4,205833	0,1	1,860507
4,207500	0,1	1,908841
4,209167	0,1	1,880388
4,210833	0,1	1,872552
4,212500	0,1	1,854912
4,214167	0,1	1,878566
4,215833	0,1	1,878712
4,217500	0,1	1,865597
4,219167	0,1	1,880940
4,220833	0,1	1,905696
4,222500	0,1	1,898320
4,224167	0,1	1,874990
4,225833	0,1	1,880947
4,227500	0,1	1,852689
4,229167	0,1	1,863865
4,230833	0,1	1,820468
4,232500	0,1	1,871892
4,234167	0,1	1,843434
4,235833	0,1	1,835308
4,237500	0,1	1,820337
4,239167	0,1	1,845434
4,240833	0,1	1,805619
4,242500	0,1	1,827353
4,244167	0,1	1,827715
4,245833	0,1	1,834753
4,247500	0,1	1,799678
4,249167	0,1	1,826496
4,250833	0,1	1,805468
4,252500	0,1	1,834754
4,254167	0,1	1,770697
4,255833	0,1	1,800455
4,257500	0,1	1,786054
4,259167	0,1	1,784683
4,260833	0,1	1,795165
4,262500	0,1	1,761740
4,264167	0,1	1,736576
4,265833	0,1	1,768755
4,267500	0,1	1,687738
4,269167	0,1	1,688502
4,270833	0,1	1,695391
4,272500	0,1	1,694878
4,274167	0,1	1,697548
4,275833	0,1	1,663272
4,277500	0,1	1,697055
4,279167	0,1	1,684069
4,280833	0,1	1,662853
4,282500	0,1	1,663840
4,284167	0,1	1,631652
4,285833	0,1	1,606416
4,287500	0,1	1,661764
4,289167	0,1	1,600572
4,290833	0,1	1,594579
4,292500	0,1	1,622465
4,294167	0,1	1,629742
4,295833	0,1	1,574024
4,297500	0,1	1,594584
4,299167	0,1	1,571805
4,300833	0,1	1,609940
4,302500	0,1	1,578604
4,304167	0,1	1,506990
4,305833	0,1	1,535103
4,307500	0,1	1,570870
4,309167	0,1	1,494968
4,310833	0,1	1,501109
4,312500	0,1	1,494359
4,314167	0,1	1,475602
4,315833	0,1	1,481523
4,317500	0,1	1,470811
4,319167	0,1	1,451955
4,320833	0,1	1,420476
4,322500	0,1	1,428388
4,324167	0,1	1,459546
4,325833	0,1	1,411278
4,327500	0,1	1,421855
4,329167	0,1	1,398750
4,330833	0,1	1,415419
4,332500	0,1	1,408398
4,334167	0,1	1,346809
4,335833	0,1	1,364778
4,337500	0,1	1,394527
4,339167	0,1	1,388087
4,340833	0,1	1,329144
4,342500	0,1	1,323090
4,344167	0,1	1,344854
4,345833	0,1	1,331543
4,347500	0,1	1,315574
4,349167	0,1	1,290516
4,350833	0,1	1,338078
4,352500	0,1	1,324194
4,354167	0,1	1,284292
4,355833	0,1	1,273459
4,357500	0,1	1,272167
4,359167	0,1	1,268724
4,360833	0,1	1,272487
4,362500	0,1	1,245453
4,364167	0,1	1,289246
4,365833	0,1	1,220965
4,367500	0,1	1,220304
4,369167	0,1	1,208614
4,370833	0,1	1,223013
4,372500	0,1	1,189744
4,374167	0,1	1,202779
4,375833	0,1	1,171432
4,377500	0,1	1,187154
4,379167	0,1	1,194180
4,380833	0,1	1,177472
4,382500	0,1	1,189358
4,384167	0,1	1,140404
4,385833	0,1	1,147260
4,387500	0,1	1,157330
4,389167	0,1	1,136954
4,390833	0,1	1,104153
4,392500	0,1	1,179713
4,394167	0,1	1,108096
4,395833	0,1	1,132230
4,397500	0,1	1,166341
4,399167	0,1	1,118780
4,400833	0,1	1,128077
4,402500	0,1	1,084532
4,404167	0,1	1,104785
4,405833	0,1	1,106056
4,407500	0,1	1,060422
4,409167	0,1	1,103357
4,410833	0,1	1,025564
4,412500	0,1	1,111658
4,414167	0,1	1,053091
4,415833	0,1	1,080027
4,417500	0,1	1,070702
4,419167	0,1	1,036176
4,420833	0,1	1,044764
4,422500	0,1	1,046145
4,424167	0,1	1,013598
4,425833	0,1	1,038939
4,427500	0,1	1,044789
4,429167	0,1	1,025153
4,430833	0,1	1,039764
4,432500	0,1	1,009266
4,434167	0,1	0,993444
4,435833	0,1	0,937401
4,437500	0,1	1,017953
4,439167	0,1	0,989600
4,440833	0,1	0,971406
4,442500	0,1	0,967577
4,444167	0,1	0,959004
4,445833	0,1	0,967780
4,447500	0,1	0,995256
4,449167	0,1	0,955551
4,450833	0,1	0,981594
4,452500	0,1	0,926422
4,454167	0,1	0,930654
4,455833	0,1	0,945296
4,457500	0,1	0,900165
4,459167	0,1	0,921210
4,460833	0,1	0,934031
4,462500	0,1	0,888241
4,464167	0,1	0,890135
4,465833	0,1	0,925766
4,467500	0,1	0,907230
4,469167	0,1	0,907067
4,470833	0,1	0,904928
4,472500	0,1	0,850843
4,474167	0,1	0,868558
4,475833	0,1	0,852647
4,477500	0,1	0,883423
4,479167	0,1	0,877239
4,480833	0,1	0,866844
4,482500	0,1	0,844644
4,484167	0,1	0,884933
4,485833	0,1	0,820639
4,487500	0,1	0,832844
4,489167	0,1	0,860366
4,490833	0,1	0,838637
4,492500	0,1	0,804123
4,494167	0,1	0,789975
4,495833	0,1	0,827226
4,497500	0,1	0,820087
4,499167	0,1	0,780612
4,500833	0,1	0,787339
4,502500	0,1	0,808065
4,504167	0,1	0,766098
4,505833	0,1	0,786551
4,507500	0,1	0,810837
4,509167	0,1	0,774302
4,510833	0,1	0,778735
4,512500	0,1	0,750538
4,514167	0,1	0,747926
4,515833	0,1	0,751044
4,517500	0,1	0,756483
4,519167	0,1	0,743999
4,520833	0,1	0,780816
4,522500	0,1	0,779511
4,524167	0,1	0,782207
4,525833	0,1	0,742009
4,527500	0,1	0,748532
4,529167	0,1	0,717054
4,530833	0,1	0,742572
4,532500	0,1	0,713573
4,534167	0,1	0,719330
4,535833	0,1	0,728374
4,537500	0,1	0,696644
4,539167	0,1	0,691356
4,540833	0,1	0,736288
4,542500	0,1	0,688311
4,544167	0,1	0,675165
4,545833	0,1	0,687718
4,547500	0,1	0,720155
4,549167	0,1	0,696571
4,550833	0,1	0,667090
4,552500	0,1	0,693114
4,554167	0,1	0,664992
4,555833	0,1	0,631260
4,557500	0,1	0,632316
4,559167	0,1	0,631414
4,560833	0,1	0,646731
4,562500	0,1	0,618674
4,564167	0,1	0,613454
4,565833	0,1	0,644731
4,567500	0,1	0,635182
4,569167	0,1	0,633439
4,570833	0,1	0,612749
4,572500	0,1	0,640744
4,574167	0,1	0,599493
4,575833	0,1	0,595237
4,577500	0,1	0,545390
4,579167	0,1	0,592936
4,580833	0,1	0,600898
4,582500	0,1	0,618240
4,584167	0,1	0,581468
4,585833	0,1	0,581554
4,587500	0,1	0,581876
4,589167	0,1	0,580106
4,590833	0,1	0,559802
4,592500	0,1	0,555454
4,594167	0,1	0,578749
4,595833	0,1	0,556069
4,597500	0,1	0,589497
4,599167	0,1	0,581588
4,600833	0,1	0,583583
4,602500	0,1	0,553658
4,604167	0,1	0,542484
4,605833	0,1	0,532669
4,607500	0,1	0,538361
4,609167	0,1	0,597054
4,610833	0,1	0,542400
4,612500	0,1	0,551491
4,614167	0,1	0,559344
4,615833	0,1	0,499952
4,617500	0,1	0,519724
4,619167	0,1	0,503290
4,620833	0,1	0,538161
4,622500	0,1	0,524206
4,624167	0,1	0,538809
4,625833	0,1	0,518221
4,627500	0,1	0,473465
4,629167	0,1	0,495622
4,630833	0,1	0,513321
4,632500	0,1	0,499332
4,634167	0,1	0,492443
4,635833	0,1	0,497138
4,637500	0,1	0,530150
4,639167	0,1	0,518348
4,640833	0,1	0,467259
4,642500	0,1	0,481014
4,644167	0,1	0,476318
4,645833	0,1	0,478055
4,647500	0,1	0,442537
4,649167	0,1	0,500409
4,650833	0,1	0,488585
4,652500	0,1	0,459080
4,654167	0,1	0,497388
4,655833	0,1	0,456377
4,657500	0,1	0,449358
4,659167	0,1	0,467014
4,660833	0,1	0,514087
4,662500	0,1	0,488423
4,664167	0,1	0,428773
4,665833	0,1	0,467720
4,667500	0,1	0,471427
4,669167	0,1	0,467504
4,670833	0,1	0,428316
4,672500	0,1	0,439824
4,674167	0,1	0,420695
4,675833	0,1	0,400196
4,677500	0,1	0,434351
4,679167	0,1	0,450447
4,680833	0,1	0,407507
4,682500	0,1	0,406140
4,684167	0,1	0,462440
4,685833	0,1	0,447656
4,687500	0,1	0,440860
4,689167	0,1	0,423939
4,690833	0,1	0,404284
4,692500	0,1	0,442332
4,694167	0,1	0,439960
4,695833	0,1	0,379488
4,697500	0,1	0,422771
4,699167	0,1	0,407048
4,700833	0,1	0,449474
4,702500	0,1	0,448620
4,704167	0,1	0,399750
4,705833	0,1	0,406687
4,707500	0,1	0,396885
4,709167	0,1	0,397617
4,710833	0,1	0,395560
4,712500	0,1	0,381182
4,714167	0,1	0,379574
4,715833	0,1	0,386650
4,717500	0,1	0,409740
4,719167	0,1	0,405057
4,720833	0,1	0,399133
4,722500	0,1	0,384434
4,724167	0,1	0,367253
4,725833	0,1	0,365483
4,727500	0,1	0,355281
4,729167	0,1	0,396038
4,730833	0,1	0,406143
4,732500	0,1	0,371274
4,734167	0,1	0,386259
4,735833	0,1	0,335473
4,737500	0,1	0,365947
4,739167	0,1	0,354837
4,740833	0,1	0,366475
4,742500	0,1	0,338367
4,744167	0,1	0,367687
4,745833	0,1	0,328139
4,747500	0,1	0,375927
4,749167	0,1	0,366735
4,750833	0,1	0,372368
4,752500	0,1	0,396968
4,754167	0,1	0,341492
4,755833	0,1	0,373159
4,757500	0,1	0,365575
4,759167	0,1	0,337951
4,760833	0,1	0,356506
4,762500	0,1	0,354699
4,764167	0,1	0,395295
4,765833	0,1	0,345351
4,767500	0,1	0,355178
4,769167	0,1	0,360334
4,770833	0,1	0,331718
4,772500	0,1	0,354214
4,774167	0,1	0,335664
4,775833	0,1	0,351777
4,777500	0,1	0,355222
4,779167	0,1	0,367219
4,780833	0,1	0,377032
4,782500	0,1	0,346795
4,784167	0,1	0,314048
4,785833	0,1	0,363313
4,787500	0,1	0,338268
4,789167	0,1	0,348326
4,790833	0,1	0,362297
4,792500	0,1	0,340714
4,794167	0,1	0,348880
4,795833	0,1	0,334405
4,797500	0,1	0,336657
4,799167	0,1	0,327970
4,800833	0,1	0,306135
4,802500	0,1	0,335301
4,804167	0,1	0,302341
4,805833	0,1	0,302751
4,807500	0,1	0,295097
4,809167	0,1	0,322143
4,810833	0,1	0,327713
4,812500	0,1	0,328358
4,814167	0,1	0,340705
4,815833	0,1	0,313413
4,817500	0,1	0,362733
4,819167	0,1	0,319587
4,820833	0,1	0,335529
4,822500	0,1	0,328132
4,824167	0,1	0,321752
4,825833	0,1	0,304685
4,827500	0,1	0,306864
4,829167	0,1	0,332085
4,830833	0,1	0,307777
4,832500	0,1	0,303659
4,834167	0,1	0,320760
4,835833	0,1	0,349518
4,837500	0,1	0,319938
4,839167	0,1	0,307774
4,840833	0,1	0,344531
4,842500	0,1	0,282079
4,844167	0,1	0,291838
4,845833	0,1	0,324126
4,847500	0,1	0,272502
4,849167	0,1	0,303134
4,850833	0,1	0,317354
4,852500	0,1	0,319059
4,854167	0,1	0,287383
4,855833	0,1	0,341339
4,857500	0,1	0,294878
4,859167	0,1	0,339030
4,860833	0,1	0,304651
4,862500	0,1	0,316395
4,864167	0,1	0,280155
4,865833	0,1	0,330818
4,867500	0,1	0,330088
4,869167	0,1	0,313955
4,870833	0,1	0,302916
4,872500	0,1	0,306294
4,874167	0,1	0,309019
4,875833	0,1	0,324393
4,877500	0,1	0,338946
4,879167	0,1	0,342736
4,880833	0,1	0,276014
4,882500	0,1	0,321270
4,884167	0,1	0,323246
4,885833	0,1	0,310636
4,887500	0,1	0,304040
4,889167	0,1	0,309936
4,890833	0,1	0,311631
4,892500	0,1	0,313044
4,894167	0,1	0,325627
4,895833	0,1	0,316073
4,897500	0,1	0,300471
4,899167	0,1	0,318250
4,900833	0,1	0,324560
4,902500	0,1	0,336427
4,904167	0,1	0,313830
4,905833	0,1	0,310029
4,907500	0,1	0,340964
4,909167	0,1	0,313213
4,910833	0,1	0,319448
4,912500	0,1	0,315138
4,914167	0,1	0,274393
4,915833	0,1	0,254156
4,917500	0,1	0,265627
4,919167	0,1	0,324709
4,920833	0,1	0,295808
4,922500	0,1	0,308057
4,924167	0,1	0,286421
4,925833	0,1	0,330439
4,927500	0,1	0,302087
4,929167	0,1	0,311249
4,930833	0,1	0,287065
4,932500	0,1	0,296580
4,934167	0,1	0,281400
4,935833	0,1	0,281385
4,937500	0,1	0,327095
4,939167	0,1	0,283021
4,940833	0,1	0,357164
4,942500	0,1	0,286422
4,944167	0,1	0,319442
4,945833	0,1	0,295164
4,947500	0,1	0,283392
4,949167	0,1	0,308219
4,950833	0,1	0,305034
4,952500	0,1	0,294138
4,954167	0,1	0,355852
4,955833	0,1	0,318752
4,957500	0,1	0,315692
4,959167	0,1	0,285527
4,960833	0,1	0,278861
4,962500	0,1	0,338773
4,964167	0,1	0,293981
4,965833	0,1	0,267503
4,967500	0,1	0,287269
4,969167	0,1	0,322623
4,970833	0,1	0,306236
4,972500	0,1	0,311075
4,974167	0,1	0,327584
4,975833	0,1	0,344184
4,977500	0,1	0,316113
4,979167	0,1	0,286159
4,980833	0,1	0,302646
4,982500	0,1	0,289281
4,984167	0,1	0,331599
4,985833	0,1	0,295582
4,987500	0,1	0,297794
4,989167	0,1	0,261879
4,990833	0,1	0,286990
4,992500	0,1	0,304804
4,994167	0,1	0,347882
4,995833	0,1	0,312093
4,997500	0,1	0,302853
4,999167	0,1	0,318803
5,000833	0,1	0,305844
5,002500	0,1	0,318803
5,004167	0,1	0,320501
5,005833	0,1	0,320131
5,007500	0,1	0,318961
5,009167	0,1	0,318001
5,010833	0,1	0,336879
5,012500	0,1	0,316783
5,014167	0,1	0,321115
5,015833	0,1	0,342025
5,017500	0,1	0,320253
5,019167	0,1	0,362962
5,020833	0,1	0,330169
5,022500	0,1	0,301799
5,024167	0,1	0,300025
5,025833	0,1	0,338161
5,027500	0,1	0,354152
5,029167	0,1	0,343899
5,030833	0,1	0,370560
5,032500	0,1	0,351976
5,034167	0,1	0,344444
5,035833	0,1	0,355123
5,037500	0,1	0,344897
5,039167	0,1	0,310869
5,040833	0,1	0,353791
5,042500	0,1	0,367762
5,044167	0,1	0,366126
5,045833	0,1	0,324280
5,047500	0,1	0,329615
5,049167	0,1	0,377016
5,050833	0,1	0,373522
5,052500	0,1	0,371173
5,054167	0,1	0,351812
5,055833	0,1	0,362679
5,057500	0,1	0,352580
5,059167	0,1	0,341000
5,060833	0,1	0,369011
5,062500	0,1	0,389609
5,064167	0,1	0,459735
5,065833	0,1	0,360902
5,067500	0,1	0,376996
5,069167	0,1	0,394268
5,070833	0,1	0,394463
5,072500	0,1	0,374559
5,074167	0,1	0,383107
5,075833	0,1	0,330808
5,077500	0,1	0,383994
5,079167	0,1	0,367544
5,080833	0,1	0,386872
5,082500	0,1	0,374266
5,084167	0,1	0,391533
5,085833	0,1	0,401412
5,087500	0,1	0,429756
5,089167	0,1	0,416317
5,090833	0,1	0,390093
5,092500	0,1	0,410099
5,094167	0,1	0,400293
5,095833	0,1	0,409325
5,097500	0,1	0,385715
5,099167	0,1	0,413281
5,100833	0,1	0,406761
5,102500	0,1	0,402286
5,104167	0,1	0,393115
5,105833	0,1	0,400550
5,107500	0,1	0,375267
5,109167	0,1	0,420163
5,110833	0,1	0,392737
5,112500	0,1	0,427597
5,114167	0,1	0,362853
5,115833	0,1	0,385161
5,117500	0,1	0,407491
5,119167	0,1	0,401161
5,120833	0,1	0,444749
5,122500	0,1	0,384056
5,124167	0,1	0,419586
5,125833	0,1	0,391671
5,127500	0,1	0,438278
5,129167	0,1	0,418537
5,130833	0,1	0,391035
5,132500	0,1	0,371884
5,134167	0,1	0,393369
5,135833	0,1	0,381796
5,137500	0,1	0,366093
5,139167	0,1	0,383430
5,140833	0,1	0,406371
5,142500	0,1	0,376873
5,144167	0,1	0,374129
5,145833	0,1	0,390535
5,147500	0,1	0,409938
5,149167	0,1	0,392474
5,150833	0,1	0,371432
5,152500	0,1	0,353834
5,154167	0,1	0,405496
5,155833	0,1	0,394148
5,157500	0,1	0,404501
5,159167	0,1	0,379988
5,160833	0,1	0,380464
5,162500	0,1	0,376194
5,164167	0,1	0,395202
5,165833	0,1	0,372947
5,167500	0,1	0,349912
5,169167	0,1	0,358040
5,170833	0,1	0,375964
5,172500	0,1	0,356027
5,174167	0,1	0,395231
5,175833	0,1	0,389227
5,177500	0,1	0,375844
5,179167	0,1	0,366862
5,180833	0,1	0,357989
5,182500	0,1	0,360915
5,184167	0,1	0,379144
5,185833	0,1	0,361979
5,187500	0,1	0,353414
5,189167	0,1	0,377021
5,190833	0,1	0,329973
5,192500	0,1	0,332506
5,194167	0,1	0,328194
5,195833	0,1	0,364767
5,197500	0,1	0,357248
5,199167	0,1	0,334315
5,200833	0,1	0,366571
5,202500	0,1	0,343966
5,204167	0,1	0,358818
5,205833	0,1	0,341581
5,207500	0,1	0,374898
5,209167	0,1	0,312996
5,210833	0,1	0,331507
5,212500	0,1	0,358307
5,214167	0,1	0,311769
5,215833	0,1	0,356880
5,217500	0,1	0,345342
5,219167	0,1	0,310315
5,220833	0,1	0,303295
5,222500	0,1	0,321955
5,224167	0,1	0,320990
5,225833	0,1	0,313500
5,227500	0,1	0,323082
5,229167	0,1	0,350260
5,230833	0,1	0,301803
5,232500	0,1	0,324274
5,234167	0,1	0,299024
5,235833	0,1	0,272586
5,237500	0,1	0,316992
5,239167	0,1	0,317938
5,240833	0,1	0,309830
5,242500	0,1	0,324067
5,244167	0,1	0,291595
5,245833	0,1	0,285420
5,247500	0,1	0,302266
5,249167	0,1	0,297315
5,250833	0,1	0,332853
5,252500	0,1	0,272026
5,254167	0,1	0,300424
5,255833	0,1	0,271364
5,257500	0,1	0,255631
5,259167	0,1	0,273508
5,260833	0,1	0,305507
5,262500	0,1	0,298261
5,264167	0,1	0,279191
5,265833	0,1	0,302718
5,267500	0,1	0,281528
5,269167	0,1	0,260009
5,270833	0,1	0,284315
5,272500	0,1	0,287221
5,274167	0,1	0,241841
5,275833	0,1	0,257529
5,277500	0,1	0,275374
5,279167	0,1	0,226631
5,280833	0,1	0,278267
5,282500	0,1	0,276086
5,284167	0,1	0,261231
5,285833	0,1	0,224824
5,287500	0,1	0,259769
5,289167	0,1	0,243890
5,290833	0,1	0,290048
5,292500	0,1	0,271851
5,294167	0,1	0,218499
5,295833	0,1	0,263348
5,297500	0,1	0,268656
5,299167	0,1	0,262969
5,300833	0,1	0,214764
5,302500	0,1	0,238685
5,304167	0,1	0,223532
5,305833	0,1	0,176902
5,307500	0,1	0,243555
5,309167	0,1	0,183519
5,310833	0,1	0,219472
5,312500	0,1	0,265542
5,314167	0,1	0,209972
5,315833	0,1	0,242025
5,317500	0,1	0,220169
5,319167	0,1	0,240967
5,320833	0,1	0,224985
5,322500	0,1	0,223983
5,324167	0,1	0,239141
5,325833	0,1	0,216851
5,327500	0,1	0,164575
5,329167	0,1	0,267004
5,330833	0,1	0,213657
5,332500	0,1	0,196785
5,334167	0,1	0,208318
5,335833	0,1	0,231798
5,337500	0,1	0,177666
5,339167	0,1	0,228739
5,340833	0,1	0,189842
5,342500	0,1	0,190475
5,344167	0,1	0,209100
5,345833	0,1	0,183156
5,347500	0,1	0,194623
5,349167	0,1	0,198672
5,350833	0,1	0,196619
5,352500	0,1	0,197465
5,354167	0,1	0,204749
5,355833	0,1	0,204210
5,357500	0,1	0,172892
5,359167	0,1	0,180497
5,360833	0,1	0,199601
5,362500	0,1	0,155594
5,364167	0,1	0,142537
5,365833	0,1	0,188660
5,367500	0,1	0,169587
5,369167	0,1	0,186424
5,370833	0,1	0,140428
5,372500	0,1	0,174201
5,374167	0,1	0,163262
5,375833	0,1	0,155836
5,377500	0,1	0,182500
5,379167	0,1	0,150714
5,380833	0,1	0,177647
5,382500	0,1	0,156232
5,384167	0,1	0,146019
5,385833	0,1	0,133368
5,387500	0,1	0,176646
5,389167	0,1	0,159776
5,390833	0,1	0,136335
5,392500	0,1	0,183594
5,394167	0,1	0,185574
5,395833	0,1	0,161023
5,397500	0,1	0,165017
5,399167	0,1	0,146436
5,400833	0,1	0,191854
5,402500	0,1	0,140474
5,404167	0,1	0,121419
5,405833	0,1	0,162005
5,407500	0,1	0,216809
5,409167	0,1	0,143775
5,410833	0,1	0,162277
5,412500	0,1	0,163835
5,414167	0,1	0,146123
5,415833	0,1	0,164850
5,417500	0,1	0,145674
5,419167	0,1	0,176940
5,420833	0,1	0,114692
5,422500	0,1	0,130538
5,424167	0,1	0,139442
5,425833	0,1	0,150019
5,427500	0,1	0,139696
5,429167	0,1	0,108356
5,430833	0,1	0,161501
5,432500	0,1	0,169087
5,434167	0,1	0,101891
5,435833	0,1	0,120522
5,437500	0,1	0,161629
5,439167	0,1	0,125238
5,440833	0,1	0,128841
5,442500	0,1	0,106198
5,444167	0,1	0,090183
5,445833	0,1	0,157309
5,447500	0,1	0,110226
5,449167	0,1	0,097938
5,450833	0,1	0,108159
5,452500	0,1	0,149535
5,454167	0,1	0,153983
5,455833	0,1	0,088555
5,457500	0,1	0,141274
5,459167	0,1	0,149936
5,460833	0,1	0,089715
5,462500	0,1	0,110166
5,464167	0,1	0,116126
5,465833	0,1	0,127910
5,467500	0,1	0,140185
5,469167	0,1	0,078122
5,470833	0,1	0,124142
5,472500	0,1	0,121108
5,474167	0,1	0,114093
5,475833	0,1	0,132883
5,477500	0,1	0,097819
5,479167	0,1	0,108512
5,480833	0,1	0,118033
5,482500	0,1	0,118218
5,484167	0,1	0,107271
5,485833	0,1	0,097170
5,487500	0,1	0,136299
5,489167	0,1	0,087472
5,490833	0,1	0,121014
5,492500	0,1	0,113992
5,494167	0,1	0,108949
5,495833	0,1	0,122448
5,497500	0,1	0,111857
5,499167	0,1	0,073159
5,500833	0,1	0,100730
5,502500	0,1	0,124294
5,504167	0,1	0,123055
5,505833	0,1	0,088964
5,507500	0,1	0,113154
5,509167	0,1	0,118927
5,510833	0,1	0,081226
5,512500	0,1	0,124307
5,514167	0,1	0,089273
5,515833	0,1	0,074751
5,517500	0,1	0,126258
5,519167	0,1	0,073806
5,520833	0,1	0,087043
5,522500	0,1	0,107513
5,524167	0,1	0,084336
5,525833	0,1	0,076262
5,527500	0,1	0,096788
5,529167	0,1	0,039793
5,530833	0,1	0,089026
5,532500	0,1	0,089327
5,534167	0,1	0,079002
5,535833	0,1	0,101892
5,537500	0,1	0,079687
5,539167	0,1	0,111392
5,540833	0,1	0,110962
5,542500	0,1	0,122367
5,544167	0,1	0,093690
5,545833	0,1	0,087297
5,547500	0,1	0,057829
5,549167	0,1	0,099336
5,550833	0,1	0,139285
5,552500	0,1	0,077272
5,554167	0,1	0,066599
5,555833	0,1	0,104648
5,557500	0,1	0,072079
5,559167	0,1	0,091937
5,560833	0,1	0,094824
5,562500	0,1	0,086779
5,564167	0,1	0,105564
5,565833	0,1	0,080747
5,567500	0,1	0,079705
5,569167	0,1	0,097848
5,570833	0,1	0,138249
5,572500	0,1	0,073560
5,574167	0,1	0,109087
5,575833	0,1	0,087072
5,577500	0,1	0,076368
5,579167	0,1	0,110787
5,580833	0,1	0,106564
5,582500	0,1	0,052713
5,584167	0,1	0,101761
5,585833	0,1	0,108116
5,587500	0,1	0,084480
5,589167	0,1	0,100732
5,590833	0,1	0,080477
5,592500	0,1	0,094011
5,594167	0,1	0,059386
5,595833	0,1	0,083557
5,597500	0,1	0,063697
5,599167	0,1	0,111053
5,600833	0,1	0,074652
5,602500	0,1	0,081527
5,604167	0,1	0,073959
5,605833	0,1	0,103984
5,607500	0,1	0,125143
5,609167	0,1	0,103894
5,610833	0,1	0,073614
5,612500	0,1	0,084823
5,614167	0,1	0,112281
5,615833	0,1	0,057378
5,617500	0,1	0,099086
5,619167	0,1	0,077863
5,620833	0,1	0,076074
5,622500	0,1	0,069792
5,624167	0,1	0,090650
5,625833	0,1	0,028905
5,627500	0,1	0,063622
5,629167	0,1	0,127892
5,630833	0,1	0,122059
5,632500	0,1	0,090227
5,634167	0,1	0,125119
5,635833	0,1	0,096488
5,637500	0,1	0,078941
5,639167	0,1	0,100088
5,640833	0,1	0,076266
5,642500	0,1	0,080222
5,644167	0,1	0,069646
5,645833	0,1	0,091313
5,647500	0,1	0,102994
5,649167	0,1	0,102062
5,650833	0,1	0,090927
5,652500	0,1	0,102515
5,654167	0,1	0,112577
5,655833	0,1	0,083858
5,657500	0,1	0,121760
5,659167	0,1	0,074883
5,660833	0,1	0,117632
5,662500	0,1	0,088339
5,664167	0,1	0,066185
5,665833	0,1	0,105124
5,667500	0,1	0,108720
5,669167	0,1	0,118073
5,670833	0,1	0,121643
5,672500	0,1	0,137716
5,674167	0,1	0,119946
5,675833	0,1	0,090000
5,677500	0,1	0,099406
5,679167	0,1	0,090553
5,680833	0,1	0,102082
5,682500	0,1	0,148828
5,684167	0,1	0,110867
5,685833	0,1	0,068908
5,687500	0,1	0,134715
5,689167	0,1	0,112730
5,690833	0,1	0,086554
5,692500	0,1	0,098513
5,694167	0,1	0,098040
5,695833	0,1	0,105194
5,697500	0,1	0,126720
5,699167	0,1	0,141700
5,700833	0,1	0,106470
5,702500	0,1	0,089062
5,704167	0,1	0,111764
5,705833	0,1	0,111957
5,707500	0,1	0,132404
5,709167	0,1	0,103315
5,710833	0,1	0,148992
5,712500	0,1	0,112588
5,714167	0,1	0,088525
5,715833	0,1	0,162615
5,717500	0,1	0,132377
5,719167	0,1	0,115114
5,720833	0,1	0,100324
5,722500	0,1	0,125892
5,724167	0,1	0,092094
5,725833	0,1	0,118899
5,727500	0,1	0,139870
5,729167	0,1	0,098650
5,730833	0,1	0,100257
5,732500	0,1	0,140015
5,734167	0,1	0,140435
5,735833	0,1	0,098549
5,737500	0,1	0,119959
5,739167	0,1	0,120920
5,740833	0,1	0,147359
5,742500	0,1	0,108233
5,744167	0,1	0,149699
5,745833	0,1	0,098033
5,747500	0,1	0,114692
5,749167	0,1	0,146903
5,750833	0,1	0,135377
5,752500	0,1	0,107360
5,754167	0,1	0,131346
5,755833	0,1	0,148773
5,757500	0,1	0,154710
5,759167	0,1	0,131339
5,760833	0,1	0,131560
5,762500	0,1	0,140790
5,764167	0,1	0,141394
5,765833	0,1	0,142698
5,767500	0,1	0,121545
5,769167	0,1	0,141868
5,770833	0,1	0,140439
5,772500	0,1	0,172626
5,774167	0,1	0,120953
5,775833	0,1	0,153333
5,777500	0,1	0,147701
5,779167	0,1	0,137288
5,780833	0,1	0,135875
5,782500	0,1	0,117024
5,784167	0,1	0,134254
5,785833	0,1	0,149086
5,787500	0,1	0,123082
5,789167	0,1	0,112646
5,790833	0,1	0,124713
5,792500	0,1	0,127225
5,794167	0,1	0,131913
5,795833	0,1	0,125235
5,797500	0,1	0,143444
5,799167	0,1	0,145207
5,800833	0,1	0,129864
5,802500	0,1	0,124199
5,804167	0,1	0,155347
5,805833	0,1	0,128456
5,807500	0,1	0,138611
5,809167	0,1	0,140479
5,810833	0,1	0,126586
5,812500	0,1	0,104331
5,814167	0,1	0,152207
5,815833	0,1	0,121383
5,817500	0,1	0,147280
5,819167	0,1	0,128412
5,820833	0,1	0,103046
5,822500	0,1	0,128237
5,824167	0,1	0,165447
5,825833	0,1	0,128458
5,827500	0,1	0,121666
5,829167	0,1	0,154783
5,830833	0,1	0,183598
5,832500	0,1	0,138088
5,834167	0,1	0,130898
5,835833	0,1	0,127141
5,837500	0,1	0,167910
5,839167	0,1	0,137191
5,840833	0,1	0,119701
5,842500	0,1	0,163102
5,844167	0,1	0,136297
5,845833	0,1	0,096740
5,847500	0,1	0,148372
5,849167	0,1	0,173663
5,850833	0,1	0,128936
5,852500	0,1	0,124943
5,854167	0,1	0,165071
5,855833	0,1	0,107180
5,857500	0,1	0,124274
5,859167	0,1	0,143336
5,860833	0,1	0,147740
5,862500	0,1	0,162216
5,864167	0,1	0,110664
5,865833	0,1	0,112206
5,867500	0,1	0,137422
5,869167	0,1	0,071424
5,870833	0,1	0,121259
5,872500	0,1	0,163909
5,874167	0,1	0,126529
5,875833	0,1	0,102380
5,877500	0,1	0,142774
5,879167	0,1	0,081045
5,880833	0,1	0,077485
5,882500	0,1	0,114169
5,884167	0,1	0,106151
5,885833	0,1	0,139061
5,887500	0,1	0,090418
5,889167	0,1	0,097166
5,890833	0,1	0,098122
5,892500	0,1	0,122656
5,894167	0,1	0,093110
5,895833	0,1	0,110086
5,897500	0,1	0,113698
5,899167	0,1	0,127803
5,900833	0,1	0,089585
5,902500	0,1	0,140694
5,904167	0,1	0,110285
5,905833	0,1	0,102376
5,907500	0,1	0,110606
5,909167	0,1	0,119340
5,910833	0,1	0,116583
5,912500	0,1	0,076375
5,914167	0,1	0,106185
5,915833	0,1	0,089934
5,917500	0,1	0,106894
5,919167	0,1	0,087071
5,920833	0,1	0,126386
5,922500	0,1	0,090228
5,924167	0,1	0,080868
5,925833	0,1	0,123232
5,927500	0,1	0,081519
5,929167	0,1	0,121717
5,930833	0,1	0,141368
5,932500	0,1	0,095023
5,934167	0,1	0,110834
5,935833	0,1	0,090266
5,937500	0,1	0,091898
5,939167	0,1	0,088871
5,940833	0,1	0,067533
5,942500	0,1	0,064792
5,944167	0,1	0,075844
5,945833	0,1	0,071927
5,947500	0,1	0,104918
5,949167	0,1	0,073407
5,950833	0,1	0,092911
5,952500	0,1	0,078960
5,954167	0,1	0,050486
5,955833	0,1	0,075673
5,957500	0,1	0,075244
5,959167	0,1	0,105706
5,960833	0,1	0,101193
5,962500	0,1	0,101710
5,964167	0,1	0,098041
5,965833	0,1	0,104986
5,967500	0,1	0,094598
5,969167	0,1	0,097623
5,970833	0,1	0,118694
5,972500	0,1	0,111026
5,974167	0,1	0,076062
5,975833	0,1	0,094840
5,977500	0,1	0,078380
5,979167	0,1	0,064587
5,980833	0,1	0,090275
5,982500	0,1	0,122092
5,984167	0,1	0,108433
5,985833	0,1	0,055803
5,987500	0,1	0,105639
5,989167	0,1	0,087300
5,990833	0,1	0,110832
5,992500	0,1	0,060821
5,994167	0,1	0,091665
5,995833	0,1	0,108199
5,997500	0,1	0,069551
5,999167	0,1	0,073625
6,000833	0,1	0,092766
