File Path	chrom://chromeleon01/ikbm_chromeleon/2022/Rezex/Esteban/220612_chitin_4_7.seq/622.smp/UV_VIS_1.channel/UV_VIS_1.chm
Channel	UV_VIS_1

Injection Information:
Data Vault	ikbm_chromeleon
Injection	4_24h-ChiBS_3
Injection Number	17
Position	RB6
Comment	
Processing Method	New ProcMethod
Instrument Method	Short_Rezex_6min_194nm
Type	Unknown
Status	Finished
Injection Date	12.06.2022
Injection Time	18:57:47
Injection Volume (µl)	8,000
Dilution Factor	1,0000
Weight	1,0000

Chromatogram Data Information:
Time Min. (min)	0,000833
Time Max. (min)	6,000833
Data Points	3601
Detector	UV
Generating Data System	Chromeleon 7.2.9.11323
Exporting Data System	Chromeleon 7.2.9.0
Operator	Instrument Controller
Signal Quantity	Absorbance
Signal Unit	mAU
Signal Min.	-0,094454
Signal Max.	122,977620
Channel	UV_VIS_1
Driver Name	VWD3000.dll
Channel Type	Evaluation
Min. Step (s)	0,1
Max. Step (s)	0,1
Average Step (s)	0,1

Signal Parameter Information:
Signal Info	WVL:194 nm

Chromatogram Data:
Time (min)	Step (s)	Value (mAU)
0,000833	n.a.	-0,056042
0,002500	0,1	-0,016107
0,004167	0,1	-0,062181
0,005833	0,1	-0,062545
0,007500	0,1	-0,046734
0,009167	0,1	-0,040640
0,010833	0,1	-0,063242
0,012500	0,1	-0,017164
0,014167	0,1	-0,028980
0,015833	0,1	-0,020553
0,017500	0,1	-0,013873
0,019167	0,1	-0,083376
0,020833	0,1	-0,046795
0,022500	0,1	-0,039351
0,024167	0,1	-0,036306
0,025833	0,1	-0,040579
0,027500	0,1	-0,074133
0,029167	0,1	-0,027121
0,030833	0,1	-0,054571
0,032500	0,1	-0,062831
0,034167	0,1	-0,041990
0,035833	0,1	-0,043448
0,037500	0,1	-0,082561
0,039167	0,1	-0,090826
0,040833	0,1	-0,082106
0,042500	0,1	-0,074314
0,044167	0,1	-0,034322
0,045833	0,1	-0,043974
0,047500	0,1	-0,056802
0,049167	0,1	-0,083681
0,050833	0,1	0,018553
0,052500	0,1	-0,065099
0,054167	0,1	-0,094454
0,055833	0,1	-0,032747
0,057500	0,1	-0,028985
0,059167	0,1	-0,025705
0,060833	0,1	-0,008313
0,062500	0,1	-0,040747
0,064167	0,1	-0,016454
0,065833	0,1	-0,067509
0,067500	0,1	-0,046736
0,069167	0,1	-0,054870
0,070833	0,1	0,001401
0,072500	0,1	-0,046192
0,074167	0,1	-0,015578
0,075833	0,1	-0,055740
0,077500	0,1	-0,045384
0,079167	0,1	-0,067224
0,080833	0,1	-0,031452
0,082500	0,1	-0,038879
0,084167	0,1	-0,041870
0,085833	0,1	-0,028284
0,087500	0,1	-0,050296
0,089167	0,1	-0,009841
0,090833	0,1	-0,019377
0,092500	0,1	-0,023536
0,094167	0,1	-0,032028
0,095833	0,1	-0,002927
0,097500	0,1	-0,059602
0,099167	0,1	-0,022608
0,100833	0,1	-0,045437
0,102500	0,1	0,007436
0,104167	0,1	-0,013808
0,105833	0,1	-0,037822
0,107500	0,1	-0,057911
0,109167	0,1	-0,030162
0,110833	0,1	-0,051116
0,112500	0,1	-0,055224
0,114167	0,1	-0,052938
0,115833	0,1	-0,043043
0,117500	0,1	-0,072492
0,119167	0,1	-0,070684
0,120833	0,1	-0,056045
0,122500	0,1	-0,057446
0,124167	0,1	-0,058324
0,125833	0,1	-0,019854
0,127500	0,1	-0,032671
0,129167	0,1	-0,031209
0,130833	0,1	-0,073425
0,132500	0,1	-0,032625
0,134167	0,1	-0,066341
0,135833	0,1	-0,052005
0,137500	0,1	-0,035371
0,139167	0,1	-0,027405
0,140833	0,1	-0,045788
0,142500	0,1	-0,046028
0,144167	0,1	-0,007205
0,145833	0,1	-0,033664
0,147500	0,1	-0,049362
0,149167	0,1	0,018736
0,150833	0,1	0,006397
0,152500	0,1	0,008033
0,154167	0,1	-0,048414
0,155833	0,1	-0,015344
0,157500	0,1	-0,056912
0,159167	0,1	-0,048138
0,160833	0,1	-0,047844
0,162500	0,1	-0,046848
0,164167	0,1	-0,034843
0,165833	0,1	0,006383
0,167500	0,1	0,021796
0,169167	0,1	-0,017261
0,170833	0,1	0,023253
0,172500	0,1	-0,008184
0,174167	0,1	-0,014399
0,175833	0,1	0,046854
0,177500	0,1	-0,013742
0,179167	0,1	0,013651
0,180833	0,1	-0,044196
0,182500	0,1	-0,064473
0,184167	0,1	-0,004456
0,185833	0,1	-0,004793
0,187500	0,1	0,003053
0,189167	0,1	0,001415
0,190833	0,1	-0,008891
0,192500	0,1	-0,015277
0,194167	0,1	-0,014810
0,195833	0,1	0,009374
0,197500	0,1	-0,020836
0,199167	0,1	-0,008546
0,200833	0,1	0,014002
0,202500	0,1	0,016586
0,204167	0,1	0,013657
0,205833	0,1	-0,004556
0,207500	0,1	0,004985
0,209167	0,1	-0,000517
0,210833	0,1	0,012599
0,212500	0,1	-0,035592
0,214167	0,1	-0,031386
0,215833	0,1	-0,043742
0,217500	0,1	0,029688
0,219167	0,1	0,014890
0,220833	0,1	-0,006488
0,222500	0,1	0,025247
0,224167	0,1	0,006282
0,225833	0,1	-0,030555
0,227500	0,1	-0,019497
0,229167	0,1	-0,013288
0,230833	0,1	-0,003801
0,232500	0,1	-0,020779
0,234167	0,1	0,038362
0,235833	0,1	-0,030843
0,237500	0,1	-0,029042
0,239167	0,1	-0,043564
0,240833	0,1	0,022955
0,242500	0,1	-0,008124
0,244167	0,1	-0,029272
0,245833	0,1	-0,001169
0,247500	0,1	-0,018906
0,249167	0,1	-0,009365
0,250833	0,1	0,003812
0,252500	0,1	-0,054975
0,254167	0,1	0,000464
0,255833	0,1	-0,018496
0,257500	0,1	-0,005793
0,259167	0,1	-0,010824
0,260833	0,1	0,010197
0,262500	0,1	-0,001102
0,264167	0,1	-0,014220
0,265833	0,1	-0,004153
0,267500	0,1	0,002176
0,269167	0,1	0,010961
0,270833	0,1	0,012603
0,272500	0,1	0,000364
0,274167	0,1	0,004460
0,275833	0,1	-0,023062
0,277500	0,1	0,013179
0,279167	0,1	0,005633
0,280833	0,1	0,013421
0,282500	0,1	-0,016268
0,284167	0,1	0,016342
0,285833	0,1	0,020158
0,287500	0,1	0,053889
0,289167	0,1	-0,012625
0,290833	0,1	0,028934
0,292500	0,1	0,040073
0,294167	0,1	0,028011
0,295833	0,1	0,020218
0,297500	0,1	-0,014976
0,299167	0,1	0,027061
0,300833	0,1	0,002006
0,302500	0,1	0,036141
0,304167	0,1	0,022740
0,305833	0,1	0,024786
0,307500	0,1	-0,005841
0,309167	0,1	0,014061
0,310833	0,1	0,014125
0,312500	0,1	0,003117
0,314167	0,1	-0,000224
0,315833	0,1	-0,013635
0,317500	0,1	0,035495
0,319167	0,1	0,031524
0,320833	0,1	0,006225
0,322500	0,1	0,007154
0,324167	0,1	-0,002214
0,325833	0,1	0,012657
0,327500	0,1	-0,029209
0,329167	0,1	0,039415
0,330833	0,1	0,047160
0,332500	0,1	0,025261
0,334167	0,1	-0,012048
0,335833	0,1	0,055817
0,337500	0,1	0,009040
0,339167	0,1	0,047035
0,340833	0,1	0,032757
0,342500	0,1	0,036558
0,344167	0,1	0,034160
0,345833	0,1	0,023676
0,347500	0,1	0,019692
0,349167	0,1	0,052777
0,350833	0,1	0,043942
0,352500	0,1	0,021161
0,354167	0,1	0,036496
0,355833	0,1	0,039077
0,357500	0,1	0,059403
0,359167	0,1	0,023095
0,360833	0,1	0,017466
0,362500	0,1	0,075674
0,364167	0,1	0,044769
0,365833	0,1	0,038904
0,367500	0,1	0,053017
0,369167	0,1	0,042243
0,370833	0,1	0,055242
0,372500	0,1	0,024970
0,374167	0,1	0,033745
0,375833	0,1	0,049209
0,377500	0,1	0,061100
0,379167	0,1	0,051205
0,380833	0,1	0,047866
0,382500	0,1	0,011616
0,384167	0,1	0,082822
0,385833	0,1	0,032998
0,387500	0,1	0,020455
0,389167	0,1	0,071227
0,390833	0,1	0,044826
0,392500	0,1	0,103035
0,394167	0,1	0,053441
0,395833	0,1	0,073227
0,397500	0,1	0,075047
0,399167	0,1	0,057241
0,400833	0,1	0,009685
0,402500	0,1	0,072687
0,404167	0,1	0,012559
0,405833	0,1	0,077141
0,407500	0,1	0,075575
0,409167	0,1	0,068252
0,410833	0,1	0,083127
0,412500	0,1	0,028724
0,414167	0,1	0,035270
0,415833	0,1	0,020864
0,417500	0,1	0,112511
0,419167	0,1	0,040738
0,420833	0,1	0,053718
0,422500	0,1	0,007224
0,424167	0,1	0,046684
0,425833	0,1	0,080132
0,427500	0,1	0,062220
0,429167	0,1	0,067254
0,430833	0,1	0,081193
0,432500	0,1	0,058884
0,434167	0,1	0,074867
0,435833	0,1	0,068778
0,437500	0,1	0,067841
0,439167	0,1	0,040081
0,440833	0,1	0,081717
0,442500	0,1	0,061111
0,444167	0,1	0,055540
0,445833	0,1	0,101690
0,447500	0,1	0,082785
0,449167	0,1	0,097657
0,450833	0,1	0,051101
0,452500	0,1	0,063798
0,454167	0,1	0,089218
0,455833	0,1	0,082256
0,457500	0,1	0,057187
0,459167	0,1	0,089685
0,460833	0,1	0,072238
0,462500	0,1	0,077329
0,464167	0,1	0,100877
0,465833	0,1	0,069255
0,467500	0,1	0,062279
0,469167	0,1	0,083655
0,470833	0,1	0,059117
0,472500	0,1	0,086405
0,474167	0,1	0,060291
0,475833	0,1	0,102394
0,477500	0,1	0,081146
0,479167	0,1	0,072295
0,480833	0,1	0,088223
0,482500	0,1	0,104683
0,484167	0,1	0,073769
0,485833	0,1	0,079674
0,487500	0,1	0,099413
0,489167	0,1	0,081087
0,490833	0,1	0,027903
0,492500	0,1	0,111878
0,494167	0,1	0,083546
0,495833	0,1	0,100470
0,497500	0,1	0,105802
0,499167	0,1	0,081674
0,500833	0,1	0,130513
0,502500	0,1	0,122970
0,504167	0,1	0,110027
0,505833	0,1	0,092624
0,507500	0,1	0,084071
0,509167	0,1	0,091624
0,510833	0,1	0,071127
0,512500	0,1	0,075164
0,514167	0,1	0,058998
0,515833	0,1	0,105320
0,517500	0,1	0,105571
0,519167	0,1	0,089755
0,520833	0,1	0,128641
0,522500	0,1	0,126420
0,524167	0,1	0,082205
0,525833	0,1	0,100054
0,527500	0,1	0,104045
0,529167	0,1	0,122201
0,530833	0,1	0,107567
0,532500	0,1	0,106098
0,534167	0,1	0,123667
0,535833	0,1	0,129942
0,537500	0,1	0,074593
0,539167	0,1	0,094376
0,540833	0,1	0,095197
0,542500	0,1	0,098831
0,544167	0,1	0,115997
0,545833	0,1	0,108733
0,547500	0,1	0,121558
0,549167	0,1	0,130054
0,550833	0,1	0,119398
0,552500	0,1	0,133275
0,554167	0,1	0,080157
0,555833	0,1	0,136842
0,557500	0,1	0,165439
0,559167	0,1	0,107868
0,560833	0,1	0,105745
0,562500	0,1	0,137025
0,564167	0,1	0,096500
0,565833	0,1	0,148621
0,567500	0,1	0,140198
0,569167	0,1	0,123443
0,570833	0,1	0,131226
0,572500	0,1	0,125025
0,574167	0,1	0,160222
0,575833	0,1	0,140255
0,577500	0,1	0,141947
0,579167	0,1	0,095676
0,580833	0,1	0,099417
0,582500	0,1	0,143875
0,584167	0,1	0,158701
0,585833	0,1	0,147755
0,587500	0,1	0,110151
0,589167	0,1	0,144346
0,590833	0,1	0,154669
0,592500	0,1	0,121455
0,594167	0,1	0,152081
0,595833	0,1	0,148400
0,597500	0,1	0,112492
0,599167	0,1	0,150907
0,600833	0,1	0,181315
0,602500	0,1	0,162055
0,604167	0,1	0,162690
0,605833	0,1	0,150743
0,607500	0,1	0,172943
0,609167	0,1	0,121754
0,610833	0,1	0,139139
0,612500	0,1	0,211546
0,614167	0,1	0,134824
0,615833	0,1	0,145522
0,617500	0,1	0,172885
0,619167	0,1	0,189231
0,620833	0,1	0,145299
0,622500	0,1	0,185705
0,624167	0,1	0,168856
0,625833	0,1	0,215235
0,627500	0,1	0,147828
0,629167	0,1	0,177927
0,630833	0,1	0,185719
0,632500	0,1	0,204928
0,634167	0,1	0,181740
0,635833	0,1	0,172775
0,637500	0,1	0,148403
0,639167	0,1	0,190867
0,640833	0,1	0,168444
0,642500	0,1	0,186183
0,644167	0,1	0,192224
0,645833	0,1	0,191703
0,647500	0,1	0,200894
0,649167	0,1	0,198378
0,650833	0,1	0,213606
0,652500	0,1	0,183446
0,654167	0,1	0,209445
0,655833	0,1	0,195274
0,657500	0,1	0,249285
0,659167	0,1	0,214441
0,660833	0,1	0,190589
0,662500	0,1	0,206168
0,664167	0,1	0,247180
0,665833	0,1	0,232086
0,667500	0,1	0,219014
0,669167	0,1	0,230195
0,670833	0,1	0,204304
0,672500	0,1	0,240448
0,674167	0,1	0,228971
0,675833	0,1	0,241213
0,677500	0,1	0,206881
0,679167	0,1	0,220882
0,680833	0,1	0,219477
0,682500	0,1	0,274026
0,684167	0,1	0,171980
0,685833	0,1	0,211091
0,687500	0,1	0,226851
0,689167	0,1	0,260130
0,690833	0,1	0,235186
0,692500	0,1	0,263598
0,694167	0,1	0,211407
0,695833	0,1	0,259780
0,697500	0,1	0,254051
0,699167	0,1	0,216967
0,700833	0,1	0,236233
0,702500	0,1	0,277419
0,704167	0,1	0,279132
0,705833	0,1	0,241229
0,707500	0,1	0,251826
0,709167	0,1	0,286792
0,710833	0,1	0,293366
0,712500	0,1	0,280191
0,714167	0,1	0,238182
0,715833	0,1	0,255041
0,717500	0,1	0,292548
0,719167	0,1	0,325131
0,720833	0,1	0,254536
0,722500	0,1	0,322139
0,724167	0,1	0,288816
0,725833	0,1	0,301474
0,727500	0,1	0,314999
0,729167	0,1	0,308266
0,730833	0,1	0,318224
0,732500	0,1	0,306213
0,734167	0,1	0,308623
0,735833	0,1	0,302403
0,737500	0,1	0,333762
0,739167	0,1	0,320869
0,740833	0,1	0,316233
0,742500	0,1	0,342017
0,744167	0,1	0,335046
0,745833	0,1	0,366278
0,747500	0,1	0,375611
0,749167	0,1	0,378012
0,750833	0,1	0,344971
0,752500	0,1	0,382690
0,754167	0,1	0,329905
0,755833	0,1	0,339382
0,757500	0,1	0,384099
0,759167	0,1	0,372693
0,760833	0,1	0,379300
0,762500	0,1	0,377077
0,764167	0,1	0,390031
0,765833	0,1	0,413293
0,767500	0,1	0,415002
0,769167	0,1	0,401524
0,770833	0,1	0,390983
0,772500	0,1	0,403219
0,774167	0,1	0,381724
0,775833	0,1	0,373217
0,777500	0,1	0,411072
0,779167	0,1	0,382724
0,780833	0,1	0,404284
0,782500	0,1	0,383771
0,784167	0,1	0,376975
0,785833	0,1	0,380247
0,787500	0,1	0,401867
0,789167	0,1	0,401691
0,790833	0,1	0,386399
0,792500	0,1	0,418168
0,794167	0,1	0,411377
0,795833	0,1	0,379087
0,797500	0,1	0,397010
0,799167	0,1	0,384233
0,800833	0,1	0,408024
0,802500	0,1	0,392806
0,804167	0,1	0,427377
0,805833	0,1	0,391754
0,807500	0,1	0,401416
0,809167	0,1	0,415825
0,810833	0,1	0,409099
0,812500	0,1	0,393149
0,814167	0,1	0,379376
0,815833	0,1	0,370517
0,817500	0,1	0,414830
0,819167	0,1	0,388336
0,820833	0,1	0,432122
0,822500	0,1	0,427971
0,824167	0,1	0,409434
0,825833	0,1	0,388707
0,827500	0,1	0,412418
0,829167	0,1	0,391861
0,830833	0,1	0,401466
0,832500	0,1	0,407916
0,834167	0,1	0,405097
0,835833	0,1	0,365015
0,837500	0,1	0,409369
0,839167	0,1	0,430907
0,840833	0,1	0,400710
0,842500	0,1	0,413951
0,844167	0,1	0,418992
0,845833	0,1	0,404526
0,847500	0,1	0,437808
0,849167	0,1	0,459507
0,850833	0,1	0,402783
0,852500	0,1	0,435531
0,854167	0,1	0,426210
0,855833	0,1	0,418471
0,857500	0,1	0,433287
0,859167	0,1	0,479485
0,860833	0,1	0,442510
0,862500	0,1	0,417597
0,864167	0,1	0,435826
0,865833	0,1	0,455810
0,867500	0,1	0,416544
0,869167	0,1	0,492912
0,870833	0,1	0,423936
0,872500	0,1	0,453349
0,874167	0,1	0,456861
0,875833	0,1	0,455291
0,877500	0,1	0,401602
0,879167	0,1	0,433173
0,880833	0,1	0,428556
0,882500	0,1	0,436827
0,884167	0,1	0,465443
0,885833	0,1	0,487681
0,887500	0,1	0,433617
0,889167	0,1	0,460604
0,890833	0,1	0,429328
0,892500	0,1	0,473339
0,894167	0,1	0,468945
0,895833	0,1	0,493448
0,897500	0,1	0,467478
0,899167	0,1	0,478214
0,900833	0,1	0,504693
0,902500	0,1	0,469670
0,904167	0,1	0,467485
0,905833	0,1	0,489882
0,907500	0,1	0,494975
0,909167	0,1	0,485546
0,910833	0,1	0,523653
0,912500	0,1	0,498731
0,914167	0,1	0,488005
0,915833	0,1	0,483026
0,917500	0,1	0,463983
0,919167	0,1	0,496259
0,920833	0,1	0,565745
0,922500	0,1	0,461142
0,924167	0,1	0,518889
0,925833	0,1	0,542303
0,927500	0,1	0,521378
0,929167	0,1	0,530755
0,930833	0,1	0,510583
0,932500	0,1	0,474428
0,934167	0,1	0,492281
0,935833	0,1	0,539642
0,937500	0,1	0,528593
0,939167	0,1	0,524295
0,940833	0,1	0,532093
0,942500	0,1	0,561227
0,944167	0,1	0,556696
0,945833	0,1	0,547762
0,947500	0,1	0,531163
0,949167	0,1	0,565353
0,950833	0,1	0,530595
0,952500	0,1	0,542134
0,954167	0,1	0,533827
0,955833	0,1	0,563174
0,957500	0,1	0,550622
0,959167	0,1	0,540788
0,960833	0,1	0,543476
0,962500	0,1	0,550388
0,964167	0,1	0,592801
0,965833	0,1	0,586930
0,967500	0,1	0,594085
0,969167	0,1	0,586885
0,970833	0,1	0,620640
0,972500	0,1	0,612786
0,974167	0,1	0,619202
0,975833	0,1	0,598024
0,977500	0,1	0,585874
0,979167	0,1	0,628916
0,980833	0,1	0,668632
0,982500	0,1	0,604609
0,984167	0,1	0,631778
0,985833	0,1	0,624612
0,987500	0,1	0,624181
0,989167	0,1	0,650919
0,990833	0,1	0,616141
0,992500	0,1	0,648614
0,994167	0,1	0,659021
0,995833	0,1	0,654999
0,997500	0,1	0,628365
0,999167	0,1	0,633964
1,000833	0,1	0,672272
1,002500	0,1	0,681190
1,004167	0,1	0,698074
1,005833	0,1	0,685146
1,007500	0,1	0,669475
1,009167	0,1	0,696814
1,010833	0,1	0,761597
1,012500	0,1	0,713117
1,014167	0,1	0,743156
1,015833	0,1	0,788481
1,017500	0,1	0,789030
1,019167	0,1	0,802209
1,020833	0,1	0,740427
1,022500	0,1	0,786855
1,024167	0,1	0,810159
1,025833	0,1	0,799298
1,027500	0,1	0,793173
1,029167	0,1	0,822819
1,030833	0,1	0,812252
1,032500	0,1	0,848470
1,034167	0,1	0,850000
1,035833	0,1	0,844192
1,037500	0,1	0,924972
1,039167	0,1	0,903483
1,040833	0,1	0,947579
1,042500	0,1	0,955210
1,044167	0,1	0,960337
1,045833	0,1	0,950175
1,047500	0,1	0,978475
1,049167	0,1	0,990912
1,050833	0,1	0,972428
1,052500	0,1	1,079531
1,054167	0,1	1,081581
1,055833	0,1	1,176324
1,057500	0,1	1,249079
1,059167	0,1	1,331269
1,060833	0,1	1,485444
1,062500	0,1	1,614962
1,064167	0,1	1,850078
1,065833	0,1	2,146969
1,067500	0,1	2,491037
1,069167	0,1	2,944836
1,070833	0,1	3,501877
1,072500	0,1	4,203650
1,074167	0,1	5,005520
1,075833	0,1	6,011148
1,077500	0,1	7,167805
1,079167	0,1	8,505837
1,080833	0,1	9,994505
1,082500	0,1	11,678643
1,084167	0,1	13,557333
1,085833	0,1	15,600578
1,087500	0,1	17,799802
1,089167	0,1	20,125589
1,090833	0,1	22,606532
1,092500	0,1	25,089666
1,094167	0,1	27,623945
1,095833	0,1	30,221671
1,097500	0,1	32,754850
1,099167	0,1	35,205445
1,100833	0,1	37,540257
1,102500	0,1	39,797964
1,104167	0,1	41,825477
1,105833	0,1	43,722720
1,107500	0,1	45,403400
1,109167	0,1	46,738986
1,110833	0,1	47,992578
1,112500	0,1	48,922377
1,114167	0,1	49,652219
1,115833	0,1	50,111787
1,117500	0,1	50,369562
1,119167	0,1	50,430996
1,120833	0,1	50,258190
1,122500	0,1	49,853929
1,124167	0,1	49,337055
1,125833	0,1	48,662092
1,127500	0,1	47,881420
1,129167	0,1	46,937710
1,130833	0,1	45,849248
1,132500	0,1	44,735131
1,134167	0,1	43,558828
1,135833	0,1	42,314956
1,137500	0,1	41,084602
1,139167	0,1	39,821149
1,140833	0,1	38,506217
1,142500	0,1	37,208522
1,144167	0,1	35,972850
1,145833	0,1	34,684275
1,147500	0,1	33,498318
1,149167	0,1	32,327230
1,150833	0,1	31,217497
1,152500	0,1	30,151810
1,154167	0,1	29,204516
1,155833	0,1	28,232348
1,157500	0,1	27,368753
1,159167	0,1	26,498293
1,160833	0,1	25,742815
1,162500	0,1	25,055281
1,164167	0,1	24,380167
1,165833	0,1	23,747608
1,167500	0,1	23,214267
1,169167	0,1	22,641916
1,170833	0,1	22,177105
1,172500	0,1	21,705009
1,174167	0,1	21,299581
1,175833	0,1	20,890622
1,177500	0,1	20,543254
1,179167	0,1	20,225735
1,180833	0,1	19,895307
1,182500	0,1	19,587813
1,184167	0,1	19,372019
1,185833	0,1	19,181173
1,187500	0,1	18,982481
1,189167	0,1	18,866803
1,190833	0,1	18,790358
1,192500	0,1	18,841338
1,194167	0,1	18,984367
1,195833	0,1	19,286556
1,197500	0,1	19,595984
1,199167	0,1	20,098773
1,200833	0,1	20,791742
1,202500	0,1	21,703785
1,204167	0,1	22,839615
1,205833	0,1	24,213429
1,207500	0,1	25,841909
1,209167	0,1	27,756442
1,210833	0,1	29,967559
1,212500	0,1	32,448352
1,214167	0,1	35,261324
1,215833	0,1	38,354976
1,217500	0,1	41,682925
1,219167	0,1	45,371839
1,220833	0,1	49,238480
1,222500	0,1	53,299226
1,224167	0,1	57,543026
1,225833	0,1	61,973554
1,227500	0,1	66,476528
1,229167	0,1	70,990140
1,230833	0,1	75,587643
1,232500	0,1	80,113461
1,234167	0,1	84,567148
1,235833	0,1	88,913922
1,237500	0,1	93,036391
1,239167	0,1	97,026812
1,240833	0,1	100,745382
1,242500	0,1	104,297951
1,244167	0,1	107,513002
1,245833	0,1	110,454776
1,247500	0,1	113,093577
1,249167	0,1	115,404155
1,250833	0,1	117,459447
1,252500	0,1	119,192664
1,254167	0,1	120,552155
1,255833	0,1	121,620140
1,257500	0,1	122,397733
1,259167	0,1	122,829027
1,260833	0,1	122,977620
1,262500	0,1	122,829001
1,264167	0,1	122,412772
1,265833	0,1	121,698155
1,267500	0,1	120,765800
1,269167	0,1	119,630524
1,270833	0,1	118,204796
1,272500	0,1	116,574914
1,274167	0,1	114,823423
1,275833	0,1	112,877069
1,277500	0,1	110,759840
1,279167	0,1	108,570053
1,280833	0,1	106,236515
1,282500	0,1	103,772037
1,284167	0,1	101,204455
1,285833	0,1	98,728596
1,287500	0,1	96,064684
1,289167	0,1	93,433750
1,290833	0,1	90,852864
1,292500	0,1	88,239042
1,294167	0,1	85,629263
1,295833	0,1	83,110782
1,297500	0,1	80,552891
1,299167	0,1	78,052988
1,300833	0,1	75,619667
1,302500	0,1	73,257011
1,304167	0,1	70,988692
1,305833	0,1	68,817239
1,307500	0,1	66,657630
1,309167	0,1	64,608445
1,310833	0,1	62,643096
1,312500	0,1	60,693521
1,314167	0,1	58,893470
1,315833	0,1	57,161292
1,317500	0,1	55,499692
1,319167	0,1	53,950687
1,320833	0,1	52,389030
1,322500	0,1	51,007052
1,324167	0,1	49,588869
1,325833	0,1	48,259585
1,327500	0,1	47,036266
1,329167	0,1	45,788325
1,330833	0,1	44,648461
1,332500	0,1	43,470291
1,334167	0,1	42,451452
1,335833	0,1	41,373423
1,337500	0,1	40,387809
1,339167	0,1	39,431652
1,340833	0,1	38,492519
1,342500	0,1	37,591623
1,344167	0,1	36,768812
1,345833	0,1	35,914884
1,347500	0,1	35,143908
1,349167	0,1	34,366137
1,350833	0,1	33,556894
1,352500	0,1	32,821931
1,354167	0,1	32,146347
1,355833	0,1	31,399969
1,357500	0,1	30,766463
1,359167	0,1	30,106581
1,360833	0,1	29,451020
1,362500	0,1	28,859253
1,364167	0,1	28,169910
1,365833	0,1	27,622387
1,367500	0,1	27,059873
1,369167	0,1	26,500993
1,370833	0,1	25,940128
1,372500	0,1	25,386301
1,374167	0,1	24,867580
1,375833	0,1	24,368878
1,377500	0,1	23,883792
1,379167	0,1	23,388005
1,380833	0,1	22,879724
1,382500	0,1	22,465819
1,384167	0,1	22,003324
1,385833	0,1	21,528739
1,387500	0,1	21,138617
1,389167	0,1	20,757093
1,390833	0,1	20,359644
1,392500	0,1	19,994928
1,394167	0,1	19,629026
1,395833	0,1	19,267006
1,397500	0,1	18,900870
1,399167	0,1	18,577037
1,400833	0,1	18,245554
1,402500	0,1	17,894928
1,404167	0,1	17,612518
1,405833	0,1	17,350398
1,407500	0,1	17,020749
1,409167	0,1	16,725094
1,410833	0,1	16,509931
1,412500	0,1	16,252628
1,414167	0,1	15,985309
1,415833	0,1	15,722676
1,417500	0,1	15,547969
1,419167	0,1	15,270015
1,420833	0,1	15,053840
1,422500	0,1	14,841912
1,424167	0,1	14,647680
1,425833	0,1	14,448874
1,427500	0,1	14,260861
1,429167	0,1	14,060673
1,430833	0,1	13,890271
1,432500	0,1	13,708741
1,434167	0,1	13,486634
1,435833	0,1	13,286294
1,437500	0,1	13,155315
1,439167	0,1	12,947484
1,440833	0,1	12,820430
1,442500	0,1	12,637218
1,444167	0,1	12,504425
1,445833	0,1	12,340820
1,447500	0,1	12,204080
1,449167	0,1	12,022823
1,450833	0,1	11,867692
1,452500	0,1	11,748734
1,454167	0,1	11,573485
1,455833	0,1	11,474831
1,457500	0,1	11,321566
1,459167	0,1	11,163323
1,460833	0,1	11,085198
1,462500	0,1	10,955976
1,464167	0,1	10,822730
1,465833	0,1	10,706125
1,467500	0,1	10,624029
1,469167	0,1	10,485671
1,470833	0,1	10,370914
1,472500	0,1	10,289431
1,474167	0,1	10,210104
1,475833	0,1	10,089145
1,477500	0,1	10,014839
1,479167	0,1	9,945930
1,480833	0,1	9,880119
1,482500	0,1	9,761149
1,484167	0,1	9,696832
1,485833	0,1	9,636764
1,487500	0,1	9,564590
1,489167	0,1	9,505264
1,490833	0,1	9,444203
1,492500	0,1	9,406441
1,494167	0,1	9,325424
1,495833	0,1	9,272381
1,497500	0,1	9,227940
1,499167	0,1	9,230739
1,500833	0,1	9,165290
1,502500	0,1	9,133400
1,504167	0,1	9,117128
1,505833	0,1	9,050575
1,507500	0,1	9,043678
1,509167	0,1	8,977138
1,510833	0,1	8,978961
1,512500	0,1	8,930980
1,514167	0,1	8,927203
1,515833	0,1	8,880540
1,517500	0,1	8,877506
1,519167	0,1	8,855879
1,520833	0,1	8,830183
1,522500	0,1	8,786655
1,524167	0,1	8,760563
1,525833	0,1	8,729136
1,527500	0,1	8,706284
1,529167	0,1	8,686479
1,530833	0,1	8,643680
1,532500	0,1	8,647782
1,534167	0,1	8,630054
1,535833	0,1	8,583962
1,537500	0,1	8,527304
1,539167	0,1	8,518633
1,540833	0,1	8,466250
1,542500	0,1	8,434643
1,544167	0,1	8,401878
1,545833	0,1	8,388650
1,547500	0,1	8,361170
1,549167	0,1	8,297378
1,550833	0,1	8,341531
1,552500	0,1	8,307030
1,554167	0,1	8,280665
1,555833	0,1	8,209498
1,557500	0,1	8,182183
1,559167	0,1	8,177296
1,560833	0,1	8,120394
1,562500	0,1	8,102181
1,564167	0,1	8,092989
1,565833	0,1	8,068329
1,567500	0,1	8,056322
1,569167	0,1	8,059600
1,570833	0,1	7,979375
1,572500	0,1	7,959298
1,574167	0,1	7,968478
1,575833	0,1	7,937176
1,577500	0,1	7,876167
1,579167	0,1	7,874841
1,580833	0,1	7,838392
1,582500	0,1	7,814401
1,584167	0,1	7,795096
1,585833	0,1	7,789470
1,587500	0,1	7,745159
1,589167	0,1	7,729228
1,590833	0,1	7,694099
1,592500	0,1	7,650445
1,594167	0,1	7,629175
1,595833	0,1	7,648372
1,597500	0,1	7,629181
1,599167	0,1	7,568302
1,600833	0,1	7,524289
1,602500	0,1	7,515278
1,604167	0,1	7,502076
1,605833	0,1	7,493179
1,607500	0,1	7,432806
1,609167	0,1	7,429344
1,610833	0,1	7,384686
1,612500	0,1	7,365027
1,614167	0,1	7,399098
1,615833	0,1	7,309624
1,617500	0,1	7,296013
1,619167	0,1	7,250268
1,620833	0,1	7,235950
1,622500	0,1	7,230424
1,624167	0,1	7,198443
1,625833	0,1	7,163799
1,627500	0,1	7,188292
1,629167	0,1	7,143781
1,630833	0,1	7,136206
1,632500	0,1	7,063788
1,634167	0,1	7,074179
1,635833	0,1	7,060693
1,637500	0,1	7,005238
1,639167	0,1	6,992032
1,640833	0,1	6,977475
1,642500	0,1	6,948081
1,644167	0,1	6,932200
1,645833	0,1	6,863559
1,647500	0,1	6,835347
1,649167	0,1	6,897564
1,650833	0,1	6,861112
1,652500	0,1	6,813069
1,654167	0,1	6,813801
1,655833	0,1	6,774471
1,657500	0,1	6,753091
1,659167	0,1	6,722372
1,660833	0,1	6,732969
1,662500	0,1	6,707815
1,664167	0,1	6,707970
1,665833	0,1	6,713769
1,667500	0,1	6,665932
1,669167	0,1	6,676579
1,670833	0,1	6,682752
1,672500	0,1	6,669407
1,674167	0,1	6,662455
1,675833	0,1	6,651494
1,677500	0,1	6,648610
1,679167	0,1	6,644067
1,680833	0,1	6,660876
1,682500	0,1	6,694804
1,684167	0,1	6,685654
1,685833	0,1	6,717988
1,687500	0,1	6,696056
1,689167	0,1	6,708903
1,690833	0,1	6,676465
1,692500	0,1	6,753844
1,694167	0,1	6,741326
1,695833	0,1	6,763776
1,697500	0,1	6,783693
1,699167	0,1	6,796395
1,700833	0,1	6,825218
1,702500	0,1	6,862314
1,704167	0,1	6,892632
1,705833	0,1	6,904968
1,707500	0,1	6,956970
1,709167	0,1	6,960987
1,710833	0,1	6,981664
1,712500	0,1	7,011034
1,714167	0,1	7,068534
1,715833	0,1	7,063705
1,717500	0,1	7,088108
1,719167	0,1	7,092493
1,720833	0,1	7,099031
1,722500	0,1	7,140202
1,724167	0,1	7,138260
1,725833	0,1	7,169035
1,727500	0,1	7,182510
1,729167	0,1	7,207318
1,730833	0,1	7,207688
1,732500	0,1	7,184677
1,734167	0,1	7,243229
1,735833	0,1	7,229025
1,737500	0,1	7,178023
1,739167	0,1	7,187672
1,740833	0,1	7,178022
1,742500	0,1	7,205515
1,744167	0,1	7,147995
1,745833	0,1	7,190655
1,747500	0,1	7,136567
1,749167	0,1	7,158467
1,750833	0,1	7,062023
1,752500	0,1	7,097725
1,754167	0,1	7,066331
1,755833	0,1	7,043424
1,757500	0,1	6,984108
1,759167	0,1	6,952883
1,760833	0,1	6,955646
1,762500	0,1	6,898337
1,764167	0,1	6,912941
1,765833	0,1	6,863746
1,767500	0,1	6,789904
1,769167	0,1	6,722170
1,770833	0,1	6,673341
1,772500	0,1	6,619591
1,774167	0,1	6,608744
1,775833	0,1	6,562769
1,777500	0,1	6,552102
1,779167	0,1	6,493925
1,780833	0,1	6,445729
1,782500	0,1	6,354641
1,784167	0,1	6,364009
1,785833	0,1	6,305343
1,787500	0,1	6,228960
1,789167	0,1	6,213223
1,790833	0,1	6,118894
1,792500	0,1	6,099817
1,794167	0,1	6,042390
1,795833	0,1	5,999300
1,797500	0,1	5,954371
1,799167	0,1	5,894429
1,800833	0,1	5,824220
1,802500	0,1	5,817107
1,804167	0,1	5,731935
1,805833	0,1	5,712567
1,807500	0,1	5,656457
1,809167	0,1	5,639059
1,810833	0,1	5,560475
1,812500	0,1	5,505241
1,814167	0,1	5,495111
1,815833	0,1	5,464784
1,817500	0,1	5,406160
1,819167	0,1	5,359275
1,820833	0,1	5,303394
1,822500	0,1	5,283367
1,824167	0,1	5,249784
1,825833	0,1	5,233032
1,827500	0,1	5,149755
1,829167	0,1	5,121995
1,830833	0,1	5,119909
1,832500	0,1	5,081092
1,834167	0,1	5,029193
1,835833	0,1	5,005360
1,837500	0,1	5,021602
1,839167	0,1	5,009792
1,840833	0,1	4,995050
1,842500	0,1	4,996639
1,844167	0,1	5,021519
1,845833	0,1	5,025192
1,847500	0,1	5,040950
1,849167	0,1	5,061398
1,850833	0,1	5,095944
1,852500	0,1	5,132736
1,854167	0,1	5,184563
1,855833	0,1	5,246542
1,857500	0,1	5,300546
1,859167	0,1	5,331292
1,860833	0,1	5,365373
1,862500	0,1	5,441676
1,864167	0,1	5,476025
1,865833	0,1	5,553897
1,867500	0,1	5,620830
1,869167	0,1	5,686637
1,870833	0,1	5,759126
1,872500	0,1	5,817123
1,874167	0,1	5,865160
1,875833	0,1	5,914111
1,877500	0,1	5,951511
1,879167	0,1	6,024974
1,880833	0,1	6,073806
1,882500	0,1	6,076601
1,884167	0,1	6,146041
1,885833	0,1	6,203662
1,887500	0,1	6,205895
1,889167	0,1	6,255663
1,890833	0,1	6,297215
1,892500	0,1	6,378069
1,894167	0,1	6,388439
1,895833	0,1	6,411058
1,897500	0,1	6,426011
1,899167	0,1	6,488949
1,900833	0,1	6,480962
1,902500	0,1	6,483319
1,904167	0,1	6,541054
1,905833	0,1	6,570512
1,907500	0,1	6,559364
1,909167	0,1	6,608923
1,910833	0,1	6,656236
1,912500	0,1	6,631253
1,914167	0,1	6,621878
1,915833	0,1	6,632269
1,917500	0,1	6,639522
1,919167	0,1	6,641626
1,920833	0,1	6,696957
1,922500	0,1	6,691737
1,924167	0,1	6,652279
1,925833	0,1	6,639013
1,927500	0,1	6,672824
1,929167	0,1	6,652700
1,930833	0,1	6,578456
1,932500	0,1	6,589221
1,934167	0,1	6,525405
1,935833	0,1	6,528729
1,937500	0,1	6,495793
1,939167	0,1	6,481949
1,940833	0,1	6,457472
1,942500	0,1	6,488187
1,944167	0,1	6,406483
1,945833	0,1	6,371581
1,947500	0,1	6,373578
1,949167	0,1	6,331227
1,950833	0,1	6,318034
1,952500	0,1	6,290128
1,954167	0,1	6,230091
1,955833	0,1	6,186188
1,957500	0,1	6,205384
1,959167	0,1	6,111311
1,960833	0,1	6,124319
1,962500	0,1	6,090159
1,964167	0,1	6,037613
1,965833	0,1	6,043961
1,967500	0,1	5,998476
1,969167	0,1	5,969788
1,970833	0,1	5,915299
1,972500	0,1	5,855905
1,974167	0,1	5,879761
1,975833	0,1	5,849337
1,977500	0,1	5,823786
1,979167	0,1	5,752686
1,980833	0,1	5,736773
1,982500	0,1	5,694664
1,984167	0,1	5,704043
1,985833	0,1	5,684280
1,987500	0,1	5,639100
1,989167	0,1	5,644341
1,990833	0,1	5,583880
1,992500	0,1	5,593553
1,994167	0,1	5,539754
1,995833	0,1	5,530641
1,997500	0,1	5,556534
1,999167	0,1	5,498634
2,000833	0,1	5,527689
2,002500	0,1	5,454318
2,004167	0,1	5,443654
2,005833	0,1	5,411656
2,007500	0,1	5,420862
2,009167	0,1	5,402806
2,010833	0,1	5,399990
2,012500	0,1	5,401771
2,014167	0,1	5,422640
2,015833	0,1	5,395054
2,017500	0,1	5,352218
2,019167	0,1	5,361623
2,020833	0,1	5,320551
2,022500	0,1	5,330524
2,024167	0,1	5,343689
2,025833	0,1	5,341166
2,027500	0,1	5,354042
2,029167	0,1	5,384813
2,030833	0,1	5,358893
2,032500	0,1	5,321645
2,034167	0,1	5,337045
2,035833	0,1	5,389660
2,037500	0,1	5,385512
2,039167	0,1	5,330780
2,040833	0,1	5,357870
2,042500	0,1	5,385587
2,044167	0,1	5,375122
2,045833	0,1	5,336323
2,047500	0,1	5,360802
2,049167	0,1	5,386644
2,050833	0,1	5,386621
2,052500	0,1	5,383316
2,054167	0,1	5,357762
2,055833	0,1	5,397169
2,057500	0,1	5,408266
2,059167	0,1	5,401664
2,060833	0,1	5,464392
2,062500	0,1	5,453108
2,064167	0,1	5,451609
2,065833	0,1	5,454586
2,067500	0,1	5,466860
2,069167	0,1	5,496560
2,070833	0,1	5,453447
2,072500	0,1	5,469754
2,074167	0,1	5,515656
2,075833	0,1	5,508289
2,077500	0,1	5,512521
2,079167	0,1	5,558389
2,080833	0,1	5,518653
2,082500	0,1	5,512370
2,084167	0,1	5,514326
2,085833	0,1	5,580035
2,087500	0,1	5,545974
2,089167	0,1	5,582854
2,090833	0,1	5,584952
2,092500	0,1	5,571454
2,094167	0,1	5,572839
2,095833	0,1	5,601965
2,097500	0,1	5,633407
2,099167	0,1	5,611900
2,100833	0,1	5,570037
2,102500	0,1	5,598451
2,104167	0,1	5,578432
2,105833	0,1	5,605312
2,107500	0,1	5,585208
2,109167	0,1	5,583413
2,110833	0,1	5,645332
2,112500	0,1	5,624115
2,114167	0,1	5,608132
2,115833	0,1	5,630348
2,117500	0,1	5,593863
2,119167	0,1	5,637320
2,120833	0,1	5,628648
2,122500	0,1	5,588595
2,124167	0,1	5,580855
2,125833	0,1	5,556579
2,127500	0,1	5,564521
2,129167	0,1	5,560123
2,130833	0,1	5,558901
2,132500	0,1	5,555472
2,134167	0,1	5,578540
2,135833	0,1	5,572522
2,137500	0,1	5,519156
2,139167	0,1	5,527347
2,140833	0,1	5,525086
2,142500	0,1	5,496919
2,144167	0,1	5,483866
2,145833	0,1	5,472857
2,147500	0,1	5,523319
2,149167	0,1	5,448862
2,150833	0,1	5,425308
2,152500	0,1	5,476139
2,154167	0,1	5,459561
2,155833	0,1	5,485196
2,157500	0,1	5,442843
2,159167	0,1	5,438278
2,160833	0,1	5,443495
2,162500	0,1	5,404364
2,164167	0,1	5,358501
2,165833	0,1	5,398309
2,167500	0,1	5,422770
2,169167	0,1	5,371870
2,170833	0,1	5,389217
2,172500	0,1	5,384326
2,174167	0,1	5,333749
2,175833	0,1	5,349430
2,177500	0,1	5,324168
2,179167	0,1	5,363003
2,180833	0,1	5,339656
2,182500	0,1	5,309860
2,184167	0,1	5,290418
2,185833	0,1	5,280350
2,187500	0,1	5,274845
2,189167	0,1	5,315674
2,190833	0,1	5,233252
2,192500	0,1	5,281964
2,194167	0,1	5,257041
2,195833	0,1	5,260574
2,197500	0,1	5,267627
2,199167	0,1	5,226721
2,200833	0,1	5,214773
2,202500	0,1	5,231965
2,204167	0,1	5,257555
2,205833	0,1	5,221136
2,207500	0,1	5,208048
2,209167	0,1	5,254247
2,210833	0,1	5,226022
2,212500	0,1	5,198394
2,214167	0,1	5,214073
2,215833	0,1	5,233228
2,217500	0,1	5,219218
2,219167	0,1	5,263259
2,220833	0,1	5,219874
2,222500	0,1	5,231840
2,224167	0,1	5,245126
2,225833	0,1	5,242645
2,227500	0,1	5,270800
2,229167	0,1	5,248485
2,230833	0,1	5,268154
2,232500	0,1	5,286979
2,234167	0,1	5,281203
2,235833	0,1	5,322278
2,237500	0,1	5,255621
2,239167	0,1	5,344847
2,240833	0,1	5,323396
2,242500	0,1	5,313857
2,244167	0,1	5,311652
2,245833	0,1	5,331947
2,247500	0,1	5,304977
2,249167	0,1	5,325507
2,250833	0,1	5,309211
2,252500	0,1	5,362466
2,254167	0,1	5,369046
2,255833	0,1	5,355833
2,257500	0,1	5,395735
2,259167	0,1	5,347452
2,260833	0,1	5,418807
2,262500	0,1	5,358827
2,264167	0,1	5,371406
2,265833	0,1	5,366927
2,267500	0,1	5,354858
2,269167	0,1	5,394634
2,270833	0,1	5,332820
2,272500	0,1	5,340555
2,274167	0,1	5,363576
2,275833	0,1	5,332365
2,277500	0,1	5,372869
2,279167	0,1	5,347565
2,280833	0,1	5,295073
2,282500	0,1	5,277579
2,284167	0,1	5,326924
2,285833	0,1	5,295678
2,287500	0,1	5,274807
2,289167	0,1	5,267143
2,290833	0,1	5,218042
2,292500	0,1	5,190041
2,294167	0,1	5,233096
2,295833	0,1	5,208253
2,297500	0,1	5,191626
2,299167	0,1	5,140824
2,300833	0,1	5,134131
2,302500	0,1	5,139751
2,304167	0,1	5,122113
2,305833	0,1	5,085410
2,307500	0,1	5,052494
2,309167	0,1	5,054768
2,310833	0,1	5,043283
2,312500	0,1	5,012454
2,314167	0,1	4,990414
2,315833	0,1	4,959701
2,317500	0,1	4,977613
2,319167	0,1	4,926918
2,320833	0,1	4,896012
2,322500	0,1	4,885333
2,324167	0,1	4,828296
2,325833	0,1	4,815668
2,327500	0,1	4,807210
2,329167	0,1	4,803860
2,330833	0,1	4,791406
2,332500	0,1	4,702559
2,334167	0,1	4,708906
2,335833	0,1	4,694042
2,337500	0,1	4,688450
2,339167	0,1	4,637508
2,340833	0,1	4,647880
2,342500	0,1	4,605745
2,344167	0,1	4,576662
2,345833	0,1	4,559002
2,347500	0,1	4,552204
2,349167	0,1	4,539914
2,350833	0,1	4,515888
2,352500	0,1	4,511553
2,354167	0,1	4,488848
2,355833	0,1	4,486767
2,357500	0,1	4,475203
2,359167	0,1	4,441729
2,360833	0,1	4,415954
2,362500	0,1	4,392446
2,364167	0,1	4,384788
2,365833	0,1	4,369744
2,367500	0,1	4,369819
2,369167	0,1	4,366385
2,370833	0,1	4,353945
2,372500	0,1	4,363803
2,374167	0,1	4,375154
2,375833	0,1	4,376430
2,377500	0,1	4,355483
2,379167	0,1	4,368906
2,380833	0,1	4,394230
2,382500	0,1	4,389162
2,384167	0,1	4,423020
2,385833	0,1	4,433649
2,387500	0,1	4,488048
2,389167	0,1	4,500404
2,390833	0,1	4,532191
2,392500	0,1	4,557069
2,394167	0,1	4,607895
2,395833	0,1	4,663894
2,397500	0,1	4,687379
2,399167	0,1	4,793378
2,400833	0,1	4,840134
2,402500	0,1	4,969324
2,404167	0,1	4,988040
2,405833	0,1	5,129816
2,407500	0,1	5,204644
2,409167	0,1	5,297276
2,410833	0,1	5,429137
2,412500	0,1	5,523994
2,414167	0,1	5,635230
2,415833	0,1	5,813322
2,417500	0,1	5,970026
2,419167	0,1	6,100169
2,420833	0,1	6,242373
2,422500	0,1	6,395989
2,424167	0,1	6,576081
2,425833	0,1	6,801447
2,427500	0,1	6,981843
2,429167	0,1	7,105191
2,430833	0,1	7,352985
2,432500	0,1	7,587251
2,434167	0,1	7,785487
2,435833	0,1	8,021847
2,437500	0,1	8,211657
2,439167	0,1	8,497498
2,440833	0,1	8,677485
2,442500	0,1	8,892711
2,444167	0,1	9,129310
2,445833	0,1	9,359312
2,447500	0,1	9,598028
2,449167	0,1	9,802890
2,450833	0,1	10,054353
2,452500	0,1	10,276441
2,454167	0,1	10,466651
2,455833	0,1	10,684594
2,457500	0,1	10,937123
2,459167	0,1	11,119237
2,460833	0,1	11,370799
2,462500	0,1	11,603431
2,464167	0,1	11,807510
2,465833	0,1	12,040127
2,467500	0,1	12,309385
2,469167	0,1	12,481323
2,470833	0,1	12,683568
2,472500	0,1	12,936172
2,474167	0,1	13,145732
2,475833	0,1	13,406082
2,477500	0,1	13,638084
2,479167	0,1	13,965920
2,480833	0,1	14,201813
2,482500	0,1	14,476946
2,484167	0,1	14,754340
2,485833	0,1	15,124297
2,487500	0,1	15,474189
2,489167	0,1	15,839108
2,490833	0,1	16,235767
2,492500	0,1	16,663187
2,494167	0,1	17,154669
2,495833	0,1	17,640704
2,497500	0,1	18,168870
2,499167	0,1	18,711125
2,500833	0,1	19,344724
2,502500	0,1	19,975954
2,504167	0,1	20,766507
2,505833	0,1	21,416825
2,507500	0,1	22,236542
2,509167	0,1	23,089908
2,510833	0,1	23,957100
2,512500	0,1	24,913080
2,514167	0,1	25,900749
2,515833	0,1	26,972458
2,517500	0,1	28,089171
2,519167	0,1	29,286616
2,520833	0,1	30,516129
2,522500	0,1	31,798088
2,524167	0,1	33,144567
2,525833	0,1	34,542286
2,527500	0,1	35,986941
2,529167	0,1	37,468843
2,530833	0,1	38,936555
2,532500	0,1	40,578200
2,534167	0,1	42,223418
2,535833	0,1	43,869201
2,537500	0,1	45,634139
2,539167	0,1	47,275000
2,540833	0,1	49,082915
2,542500	0,1	50,858592
2,544167	0,1	52,676447
2,545833	0,1	54,455633
2,547500	0,1	56,319491
2,549167	0,1	58,168481
2,550833	0,1	59,983107
2,552500	0,1	61,815625
2,554167	0,1	63,645565
2,555833	0,1	65,416098
2,557500	0,1	67,198699
2,559167	0,1	68,986685
2,560833	0,1	70,740040
2,562500	0,1	72,411840
2,564167	0,1	74,094381
2,565833	0,1	75,705862
2,567500	0,1	77,266276
2,569167	0,1	78,773511
2,570833	0,1	80,235344
2,572500	0,1	81,688542
2,574167	0,1	83,040607
2,575833	0,1	84,317629
2,577500	0,1	85,552801
2,579167	0,1	86,743701
2,580833	0,1	87,871248
2,582500	0,1	88,914579
2,584167	0,1	89,886140
2,585833	0,1	90,819601
2,587500	0,1	91,662134
2,589167	0,1	92,427603
2,590833	0,1	93,146131
2,592500	0,1	93,780108
2,594167	0,1	94,391966
2,595833	0,1	94,939991
2,597500	0,1	95,389972
2,599167	0,1	95,719694
2,600833	0,1	96,063281
2,602500	0,1	96,362910
2,604167	0,1	96,575983
2,605833	0,1	96,733626
2,607500	0,1	96,828088
2,609167	0,1	96,864997
2,610833	0,1	96,762284
2,612500	0,1	96,741423
2,614167	0,1	96,605185
2,615833	0,1	96,449512
2,617500	0,1	96,258219
2,619167	0,1	95,918129
2,620833	0,1	95,622272
2,622500	0,1	95,276789
2,624167	0,1	94,823191
2,625833	0,1	94,407407
2,627500	0,1	93,912818
2,629167	0,1	93,385617
2,630833	0,1	92,836193
2,632500	0,1	92,173203
2,634167	0,1	91,605336
2,635833	0,1	90,937087
2,637500	0,1	90,248972
2,639167	0,1	89,473492
2,640833	0,1	88,744933
2,642500	0,1	87,987560
2,644167	0,1	87,115061
2,645833	0,1	86,248906
2,647500	0,1	85,443549
2,649167	0,1	84,530841
2,650833	0,1	83,603273
2,652500	0,1	82,695601
2,654167	0,1	81,728738
2,655833	0,1	80,747706
2,657500	0,1	79,777798
2,659167	0,1	78,802904
2,660833	0,1	77,748631
2,662500	0,1	76,778563
2,664167	0,1	75,692449
2,665833	0,1	74,697118
2,667500	0,1	73,610888
2,669167	0,1	72,562702
2,670833	0,1	71,505430
2,672500	0,1	70,402518
2,674167	0,1	69,336404
2,675833	0,1	68,285532
2,677500	0,1	67,218219
2,679167	0,1	66,087446
2,680833	0,1	65,027666
2,682500	0,1	63,958362
2,684167	0,1	62,932295
2,685833	0,1	61,819924
2,687500	0,1	60,787107
2,689167	0,1	59,709673
2,690833	0,1	58,615578
2,692500	0,1	57,599224
2,694167	0,1	56,522639
2,695833	0,1	55,486309
2,697500	0,1	54,487755
2,699167	0,1	53,513924
2,700833	0,1	52,497667
2,702500	0,1	51,531499
2,704167	0,1	50,522856
2,705833	0,1	49,613637
2,707500	0,1	48,620962
2,709167	0,1	47,706015
2,710833	0,1	46,801866
2,712500	0,1	45,895665
2,714167	0,1	45,011753
2,715833	0,1	44,142660
2,717500	0,1	43,256219
2,719167	0,1	42,416136
2,720833	0,1	41,558134
2,722500	0,1	40,795871
2,724167	0,1	39,935625
2,725833	0,1	39,184948
2,727500	0,1	38,422744
2,729167	0,1	37,708221
2,730833	0,1	36,958890
2,732500	0,1	36,226758
2,734167	0,1	35,521433
2,735833	0,1	34,848166
2,737500	0,1	34,127726
2,739167	0,1	33,492008
2,740833	0,1	32,840056
2,742500	0,1	32,239835
2,744167	0,1	31,645210
2,745833	0,1	31,014620
2,747500	0,1	30,446110
2,749167	0,1	29,824073
2,750833	0,1	29,331930
2,752500	0,1	28,732800
2,754167	0,1	28,232159
2,755833	0,1	27,713907
2,757500	0,1	27,181430
2,759167	0,1	26,673869
2,760833	0,1	26,230703
2,762500	0,1	25,774509
2,764167	0,1	25,265045
2,765833	0,1	24,831461
2,767500	0,1	24,366662
2,769167	0,1	23,959353
2,770833	0,1	23,523730
2,772500	0,1	23,099680
2,774167	0,1	22,678719
2,775833	0,1	22,314011
2,777500	0,1	21,867391
2,779167	0,1	21,546345
2,780833	0,1	21,147267
2,782500	0,1	20,794796
2,784167	0,1	20,455614
2,785833	0,1	20,065661
2,787500	0,1	19,734870
2,789167	0,1	19,407191
2,790833	0,1	19,091150
2,792500	0,1	18,766158
2,794167	0,1	18,397350
2,795833	0,1	18,168821
2,797500	0,1	17,802800
2,799167	0,1	17,539170
2,800833	0,1	17,278836
2,802500	0,1	16,976629
2,804167	0,1	16,664836
2,805833	0,1	16,430852
2,807500	0,1	16,137892
2,809167	0,1	15,874796
2,810833	0,1	15,617634
2,812500	0,1	15,363286
2,814167	0,1	15,116506
2,815833	0,1	14,855316
2,817500	0,1	14,652744
2,819167	0,1	14,376319
2,820833	0,1	14,165819
2,822500	0,1	13,927809
2,824167	0,1	13,708875
2,825833	0,1	13,505081
2,827500	0,1	13,242259
2,829167	0,1	13,009653
2,830833	0,1	12,860028
2,832500	0,1	12,627725
2,834167	0,1	12,476369
2,835833	0,1	12,255796
2,837500	0,1	12,076835
2,839167	0,1	11,896748
2,840833	0,1	11,713106
2,842500	0,1	11,533948
2,844167	0,1	11,312438
2,845833	0,1	11,180862
2,847500	0,1	11,012007
2,849167	0,1	10,859114
2,850833	0,1	10,702446
2,852500	0,1	10,562441
2,854167	0,1	10,386947
2,855833	0,1	10,243023
2,857500	0,1	10,077671
2,859167	0,1	9,926112
2,860833	0,1	9,781991
2,862500	0,1	9,685558
2,864167	0,1	9,520133
2,865833	0,1	9,389656
2,867500	0,1	9,261960
2,869167	0,1	9,163485
2,870833	0,1	8,971773
2,872500	0,1	8,889116
2,874167	0,1	8,761666
2,875833	0,1	8,666607
2,877500	0,1	8,530449
2,879167	0,1	8,401141
2,880833	0,1	8,341549
2,882500	0,1	8,229720
2,884167	0,1	8,099852
2,885833	0,1	8,022677
2,887500	0,1	7,922662
2,889167	0,1	7,854051
2,890833	0,1	7,735156
2,892500	0,1	7,635204
2,894167	0,1	7,527410
2,895833	0,1	7,489182
2,897500	0,1	7,389222
2,899167	0,1	7,291389
2,900833	0,1	7,225144
2,902500	0,1	7,146641
2,904167	0,1	7,050925
2,905833	0,1	7,000319
2,907500	0,1	6,878952
2,909167	0,1	6,829879
2,910833	0,1	6,731106
2,912500	0,1	6,630000
2,914167	0,1	6,655146
2,915833	0,1	6,545037
2,917500	0,1	6,479037
2,919167	0,1	6,440101
2,920833	0,1	6,441225
2,922500	0,1	6,320658
2,924167	0,1	6,251449
2,925833	0,1	6,167582
2,927500	0,1	6,125691
2,929167	0,1	6,045970
2,930833	0,1	6,013382
2,932500	0,1	5,959314
2,934167	0,1	5,881292
2,935833	0,1	5,896402
2,937500	0,1	5,804162
2,939167	0,1	5,748122
2,940833	0,1	5,701257
2,942500	0,1	5,651568
2,944167	0,1	5,592882
2,945833	0,1	5,581912
2,947500	0,1	5,531562
2,949167	0,1	5,454308
2,950833	0,1	5,452808
2,952500	0,1	5,397384
2,954167	0,1	5,347033
2,955833	0,1	5,289733
2,957500	0,1	5,257687
2,959167	0,1	5,216324
2,960833	0,1	5,195174
2,962500	0,1	5,108890
2,964167	0,1	5,114002
2,965833	0,1	5,040161
2,967500	0,1	5,046254
2,969167	0,1	4,999791
2,970833	0,1	4,961948
2,972500	0,1	4,961697
2,974167	0,1	4,886204
2,975833	0,1	4,881804
2,977500	0,1	4,790761
2,979167	0,1	4,787655
2,980833	0,1	4,772037
2,982500	0,1	4,758818
2,984167	0,1	4,698119
2,985833	0,1	4,670601
2,987500	0,1	4,680614
2,989167	0,1	4,621455
2,990833	0,1	4,579478
2,992500	0,1	4,585917
2,994167	0,1	4,530595
2,995833	0,1	4,507804
2,997500	0,1	4,475836
2,999167	0,1	4,420804
3,000833	0,1	4,453193
3,002500	0,1	4,426939
3,004167	0,1	4,398408
3,005833	0,1	4,392129
3,007500	0,1	4,378152
3,009167	0,1	4,346687
3,010833	0,1	4,290034
3,012500	0,1	4,244125
3,014167	0,1	4,243386
3,015833	0,1	4,245702
3,017500	0,1	4,178298
3,019167	0,1	4,198264
3,020833	0,1	4,155681
3,022500	0,1	4,139468
3,024167	0,1	4,088825
3,025833	0,1	4,143431
3,027500	0,1	4,037925
3,029167	0,1	4,046656
3,030833	0,1	4,041917
3,032500	0,1	3,999432
3,034167	0,1	3,968563
3,035833	0,1	3,963989
3,037500	0,1	3,932349
3,039167	0,1	3,932956
3,040833	0,1	3,929361
3,042500	0,1	3,882644
3,044167	0,1	3,865483
3,045833	0,1	3,819249
3,047500	0,1	3,878281
3,049167	0,1	3,824299
3,050833	0,1	3,837495
3,052500	0,1	3,766601
3,054167	0,1	3,787525
3,055833	0,1	3,742366
3,057500	0,1	3,746649
3,059167	0,1	3,735257
3,060833	0,1	3,692505
3,062500	0,1	3,722841
3,064167	0,1	3,648984
3,065833	0,1	3,616067
3,067500	0,1	3,595438
3,069167	0,1	3,616830
3,070833	0,1	3,570111
3,072500	0,1	3,550403
3,074167	0,1	3,552421
3,075833	0,1	3,531337
3,077500	0,1	3,501954
3,079167	0,1	3,513207
3,080833	0,1	3,464098
3,082500	0,1	3,460050
3,084167	0,1	3,477727
3,085833	0,1	3,453914
3,087500	0,1	3,417554
3,089167	0,1	3,418976
3,090833	0,1	3,393393
3,092500	0,1	3,400140
3,094167	0,1	3,392794
3,095833	0,1	3,379595
3,097500	0,1	3,340794
3,099167	0,1	3,351459
3,100833	0,1	3,360181
3,102500	0,1	3,322037
3,104167	0,1	3,353916
3,105833	0,1	3,356586
3,107500	0,1	3,325721
3,109167	0,1	3,350512
3,110833	0,1	3,278127
3,112500	0,1	3,297788
3,114167	0,1	3,298375
3,115833	0,1	3,294036
3,117500	0,1	3,276742
3,119167	0,1	3,312715
3,120833	0,1	3,287779
3,122500	0,1	3,312871
3,124167	0,1	3,301268
3,125833	0,1	3,304148
3,127500	0,1	3,254678
3,129167	0,1	3,303331
3,130833	0,1	3,285025
3,132500	0,1	3,277322
3,134167	0,1	3,280851
3,135833	0,1	3,315454
3,137500	0,1	3,295417
3,139167	0,1	3,306303
3,140833	0,1	3,282089
3,142500	0,1	3,310340
3,144167	0,1	3,313592
3,145833	0,1	3,317064
3,147500	0,1	3,333284
3,149167	0,1	3,330827
3,150833	0,1	3,282881
3,152500	0,1	3,326345
3,154167	0,1	3,315103
3,155833	0,1	3,319943
3,157500	0,1	3,348642
3,159167	0,1	3,366174
3,160833	0,1	3,349224
3,162500	0,1	3,331058
3,164167	0,1	3,370929
3,165833	0,1	3,325006
3,167500	0,1	3,360106
3,169167	0,1	3,352112
3,170833	0,1	3,325867
3,172500	0,1	3,399199
3,174167	0,1	3,303602
3,175833	0,1	3,339265
3,177500	0,1	3,310218
3,179167	0,1	3,329457
3,180833	0,1	3,352979
3,182500	0,1	3,279651
3,184167	0,1	3,354535
3,185833	0,1	3,328603
3,187500	0,1	3,349937
3,189167	0,1	3,289013
3,190833	0,1	3,345389
3,192500	0,1	3,323042
3,194167	0,1	3,292607
3,195833	0,1	3,276885
3,197500	0,1	3,239892
3,199167	0,1	3,250918
3,200833	0,1	3,283584
3,202500	0,1	3,231677
3,204167	0,1	3,240168
3,205833	0,1	3,218179
3,207500	0,1	3,216015
3,209167	0,1	3,229782
3,210833	0,1	3,196407
3,212500	0,1	3,176208
3,214167	0,1	3,157535
3,215833	0,1	3,126250
3,217500	0,1	3,131501
3,219167	0,1	3,129559
3,220833	0,1	3,095030
3,222500	0,1	3,108577
3,224167	0,1	3,067639
3,225833	0,1	3,038225
3,227500	0,1	3,039659
3,229167	0,1	3,035337
3,230833	0,1	3,009896
3,232500	0,1	3,026609
3,234167	0,1	2,940719
3,235833	0,1	2,969163
3,237500	0,1	2,957064
3,239167	0,1	2,946614
3,240833	0,1	2,899920
3,242500	0,1	2,878150
3,244167	0,1	2,862227
3,245833	0,1	2,860349
3,247500	0,1	2,817637
3,249167	0,1	2,827346
3,250833	0,1	2,785065
3,252500	0,1	2,813502
3,254167	0,1	2,767280
3,255833	0,1	2,773822
3,257500	0,1	2,743642
3,259167	0,1	2,741627
3,260833	0,1	2,720160
3,262500	0,1	2,669026
3,264167	0,1	2,660730
3,265833	0,1	2,647190
3,267500	0,1	2,650747
3,269167	0,1	2,632503
3,270833	0,1	2,636268
3,272500	0,1	2,601553
3,274167	0,1	2,552235
3,275833	0,1	2,566834
3,277500	0,1	2,552812
3,279167	0,1	2,520110
3,280833	0,1	2,471714
3,282500	0,1	2,521116
3,284167	0,1	2,462437
3,285833	0,1	2,451573
3,287500	0,1	2,470424
3,289167	0,1	2,419838
3,290833	0,1	2,387306
3,292500	0,1	2,407734
3,294167	0,1	2,410617
3,295833	0,1	2,342360
3,297500	0,1	2,380152
3,299167	0,1	2,400758
3,300833	0,1	2,357278
3,302500	0,1	2,288685
3,304167	0,1	2,310271
3,305833	0,1	2,303814
3,307500	0,1	2,304735
3,309167	0,1	2,314835
3,310833	0,1	2,307769
3,312500	0,1	2,292600
3,314167	0,1	2,263173
3,315833	0,1	2,292795
3,317500	0,1	2,276106
3,319167	0,1	2,245384
3,320833	0,1	2,263077
3,322500	0,1	2,276899
3,324167	0,1	2,228278
3,325833	0,1	2,251823
3,327500	0,1	2,270505
3,329167	0,1	2,254735
3,330833	0,1	2,231578
3,332500	0,1	2,255883
3,334167	0,1	2,234593
3,335833	0,1	2,238352
3,337500	0,1	2,225237
3,339167	0,1	2,261146
3,340833	0,1	2,269061
3,342500	0,1	2,190629
3,344167	0,1	2,233642
3,345833	0,1	2,261933
3,347500	0,1	2,247200
3,349167	0,1	2,218338
3,350833	0,1	2,220989
3,352500	0,1	2,227175
3,354167	0,1	2,234709
3,355833	0,1	2,255031
3,357500	0,1	2,260352
3,359167	0,1	2,212073
3,360833	0,1	2,237614
3,362500	0,1	2,250842
3,364167	0,1	2,268548
3,365833	0,1	2,226982
3,367500	0,1	2,258373
3,369167	0,1	2,236248
3,370833	0,1	2,244437
3,372500	0,1	2,227113
3,374167	0,1	2,212424
3,375833	0,1	2,297854
3,377500	0,1	2,236699
3,379167	0,1	2,237469
3,380833	0,1	2,257415
3,382500	0,1	2,236248
3,384167	0,1	2,215832
3,385833	0,1	2,244599
3,387500	0,1	2,250060
3,389167	0,1	2,234883
3,390833	0,1	2,209905
3,392500	0,1	2,232283
3,394167	0,1	2,242630
3,395833	0,1	2,215560
3,397500	0,1	2,264022
3,399167	0,1	2,242874
3,400833	0,1	2,224332
3,402500	0,1	2,238059
3,404167	0,1	2,222511
3,405833	0,1	2,227107
3,407500	0,1	2,226270
3,409167	0,1	2,232781
3,410833	0,1	2,205456
3,412500	0,1	2,231581
3,414167	0,1	2,204452
3,415833	0,1	2,215875
3,417500	0,1	2,218704
3,419167	0,1	2,194091
3,420833	0,1	2,177902
3,422500	0,1	2,195902
3,424167	0,1	2,171377
3,425833	0,1	2,190416
3,427500	0,1	2,189194
3,429167	0,1	2,209347
3,430833	0,1	2,182657
3,432500	0,1	2,186638
3,434167	0,1	2,217266
3,435833	0,1	2,197054
3,437500	0,1	2,256857
3,439167	0,1	2,195327
3,440833	0,1	2,198549
3,442500	0,1	2,166252
3,444167	0,1	2,206788
3,445833	0,1	2,220134
3,447500	0,1	2,203018
3,449167	0,1	2,200270
3,450833	0,1	2,185313
3,452500	0,1	2,180573
3,454167	0,1	2,225343
3,455833	0,1	2,196528
3,457500	0,1	2,181855
3,459167	0,1	2,253038
3,460833	0,1	2,240062
3,462500	0,1	2,256686
3,464167	0,1	2,239758
3,465833	0,1	2,257608
3,467500	0,1	2,248891
3,469167	0,1	2,276896
3,470833	0,1	2,278129
3,472500	0,1	2,307775
3,474167	0,1	2,308277
3,475833	0,1	2,320223
3,477500	0,1	2,350936
3,479167	0,1	2,345556
3,480833	0,1	2,315189
3,482500	0,1	2,329853
3,484167	0,1	2,390893
3,485833	0,1	2,376635
3,487500	0,1	2,409235
3,489167	0,1	2,419397
3,490833	0,1	2,392832
3,492500	0,1	2,459121
3,494167	0,1	2,464549
3,495833	0,1	2,485834
3,497500	0,1	2,416524
3,499167	0,1	2,466390
3,500833	0,1	2,473679
3,502500	0,1	2,489317
3,504167	0,1	2,538533
3,505833	0,1	2,557182
3,507500	0,1	2,534581
3,509167	0,1	2,536092
3,510833	0,1	2,579227
3,512500	0,1	2,592108
3,514167	0,1	2,611409
3,515833	0,1	2,628838
3,517500	0,1	2,595220
3,519167	0,1	2,630561
3,520833	0,1	2,636331
3,522500	0,1	2,648425
3,524167	0,1	2,627184
3,525833	0,1	2,647050
3,527500	0,1	2,669313
3,529167	0,1	2,633311
3,530833	0,1	2,652593
3,532500	0,1	2,675640
3,534167	0,1	2,697756
3,535833	0,1	2,684786
3,537500	0,1	2,644682
3,539167	0,1	2,689613
3,540833	0,1	2,731397
3,542500	0,1	2,676960
3,544167	0,1	2,719504
3,545833	0,1	2,690919
3,547500	0,1	2,683651
3,549167	0,1	2,701068
3,550833	0,1	2,735434
3,552500	0,1	2,636191
3,554167	0,1	2,708045
3,555833	0,1	2,711444
3,557500	0,1	2,714191
3,559167	0,1	2,696252
3,560833	0,1	2,744425
3,562500	0,1	2,666821
3,564167	0,1	2,668647
3,565833	0,1	2,636909
3,567500	0,1	2,684074
3,569167	0,1	2,626108
3,570833	0,1	2,639264
3,572500	0,1	2,660676
3,574167	0,1	2,650867
3,575833	0,1	2,620495
3,577500	0,1	2,609385
3,579167	0,1	2,615301
3,580833	0,1	2,610907
3,582500	0,1	2,626537
3,584167	0,1	2,605736
3,585833	0,1	2,590889
3,587500	0,1	2,563324
3,589167	0,1	2,557688
3,590833	0,1	2,527684
3,592500	0,1	2,529612
3,594167	0,1	2,513336
3,595833	0,1	2,552563
3,597500	0,1	2,488528
3,599167	0,1	2,514354
3,600833	0,1	2,483603
3,602500	0,1	2,436196
3,604167	0,1	2,444535
3,605833	0,1	2,408683
3,607500	0,1	2,431505
3,609167	0,1	2,438473
3,610833	0,1	2,412499
3,612500	0,1	2,378433
3,614167	0,1	2,365706
3,615833	0,1	2,373693
3,617500	0,1	2,358720
3,619167	0,1	2,288120
3,620833	0,1	2,288697
3,622500	0,1	2,280212
3,624167	0,1	2,263664
3,625833	0,1	2,257682
3,627500	0,1	2,195974
3,629167	0,1	2,238227
3,630833	0,1	2,236668
3,632500	0,1	2,236685
3,634167	0,1	2,203889
3,635833	0,1	2,145318
3,637500	0,1	2,166035
3,639167	0,1	2,172649
3,640833	0,1	2,147679
3,642500	0,1	2,100238
3,644167	0,1	2,111261
3,645833	0,1	2,100213
3,647500	0,1	2,102304
3,649167	0,1	2,043618
3,650833	0,1	2,078840
3,652500	0,1	2,047477
3,654167	0,1	2,063926
3,655833	0,1	2,011033
3,657500	0,1	1,972442
3,659167	0,1	1,980040
3,660833	0,1	1,996508
3,662500	0,1	1,918987
3,664167	0,1	1,960329
3,665833	0,1	1,910367
3,667500	0,1	1,910445
3,669167	0,1	1,888964
3,670833	0,1	1,905443
3,672500	0,1	1,878479
3,674167	0,1	1,838033
3,675833	0,1	1,852320
3,677500	0,1	1,832832
3,679167	0,1	1,820292
3,680833	0,1	1,845827
3,682500	0,1	1,771342
3,684167	0,1	1,785245
3,685833	0,1	1,795970
3,687500	0,1	1,803781
3,689167	0,1	1,809157
3,690833	0,1	1,737441
3,692500	0,1	1,723357
3,694167	0,1	1,737420
3,695833	0,1	1,748931
3,697500	0,1	1,710004
3,699167	0,1	1,722637
3,700833	0,1	1,710328
3,702500	0,1	1,678642
3,704167	0,1	1,684613
3,705833	0,1	1,685195
3,707500	0,1	1,661471
3,709167	0,1	1,654577
3,710833	0,1	1,669935
3,712500	0,1	1,644143
3,714167	0,1	1,629980
3,715833	0,1	1,578933
3,717500	0,1	1,644925
3,719167	0,1	1,630652
3,720833	0,1	1,621112
3,722500	0,1	1,627414
3,724167	0,1	1,572695
3,725833	0,1	1,561598
3,727500	0,1	1,580013
3,729167	0,1	1,579409
3,730833	0,1	1,562499
3,732500	0,1	1,569155
3,734167	0,1	1,581701
3,735833	0,1	1,622616
3,737500	0,1	1,591899
3,739167	0,1	1,540695
3,740833	0,1	1,533404
3,742500	0,1	1,536765
3,744167	0,1	1,563078
3,745833	0,1	1,563788
3,747500	0,1	1,550795
3,749167	0,1	1,487236
3,750833	0,1	1,526450
3,752500	0,1	1,525449
3,754167	0,1	1,482864
3,755833	0,1	1,550291
3,757500	0,1	1,489268
3,759167	0,1	1,489089
3,760833	0,1	1,523734
3,762500	0,1	1,560997
3,764167	0,1	1,465099
3,765833	0,1	1,514708
3,767500	0,1	1,524961
3,769167	0,1	1,445674
3,770833	0,1	1,481292
3,772500	0,1	1,487894
3,774167	0,1	1,476680
3,775833	0,1	1,487278
3,777500	0,1	1,457777
3,779167	0,1	1,477579
3,780833	0,1	1,460071
3,782500	0,1	1,443200
3,784167	0,1	1,476638
3,785833	0,1	1,460331
3,787500	0,1	1,496741
3,789167	0,1	1,451578
3,790833	0,1	1,435960
3,792500	0,1	1,453112
3,794167	0,1	1,450271
3,795833	0,1	1,424169
3,797500	0,1	1,419702
3,799167	0,1	1,451296
3,800833	0,1	1,408985
3,802500	0,1	1,417438
3,804167	0,1	1,447392
3,805833	0,1	1,422746
3,807500	0,1	1,434242
3,809167	0,1	1,409496
3,810833	0,1	1,444480
3,812500	0,1	1,409338
3,814167	0,1	1,400896
3,815833	0,1	1,397276
3,817500	0,1	1,428582
3,819167	0,1	1,374733
3,820833	0,1	1,415718
3,822500	0,1	1,408264
3,824167	0,1	1,404612
3,825833	0,1	1,390395
3,827500	0,1	1,380378
3,829167	0,1	1,350880
3,830833	0,1	1,356528
3,832500	0,1	1,400723
3,834167	0,1	1,395014
3,835833	0,1	1,380669
3,837500	0,1	1,341642
3,839167	0,1	1,399557
3,840833	0,1	1,298267
3,842500	0,1	1,315717
3,844167	0,1	1,378582
3,845833	0,1	1,370133
3,847500	0,1	1,328524
3,849167	0,1	1,299250
3,850833	0,1	1,341946
3,852500	0,1	1,288563
3,854167	0,1	1,303958
3,855833	0,1	1,318884
3,857500	0,1	1,294953
3,859167	0,1	1,306382
3,860833	0,1	1,269076
3,862500	0,1	1,308896
3,864167	0,1	1,266207
3,865833	0,1	1,256798
3,867500	0,1	1,264936
3,869167	0,1	1,303239
3,870833	0,1	1,220957
3,872500	0,1	1,238696
3,874167	0,1	1,223171
3,875833	0,1	1,243452
3,877500	0,1	1,225692
3,879167	0,1	1,273197
3,880833	0,1	1,189396
3,882500	0,1	1,221454
3,884167	0,1	1,240350
3,885833	0,1	1,216619
3,887500	0,1	1,186870
3,889167	0,1	1,225614
3,890833	0,1	1,217880
3,892500	0,1	1,213966
3,894167	0,1	1,205925
3,895833	0,1	1,181510
3,897500	0,1	1,184832
3,899167	0,1	1,227713
3,900833	0,1	1,182323
3,902500	0,1	1,149050
3,904167	0,1	1,169545
3,905833	0,1	1,125056
3,907500	0,1	1,177324
3,909167	0,1	1,147277
3,910833	0,1	1,162094
3,912500	0,1	1,128600
3,914167	0,1	1,145519
3,915833	0,1	1,141267
3,917500	0,1	1,131605
3,919167	0,1	1,136225
3,920833	0,1	1,116780
3,922500	0,1	1,140513
3,924167	0,1	1,121566
3,925833	0,1	1,106382
3,927500	0,1	1,106897
3,929167	0,1	1,124113
3,930833	0,1	1,094569
3,932500	0,1	1,098473
3,934167	0,1	1,099729
3,935833	0,1	1,076711
3,937500	0,1	1,068415
3,939167	0,1	1,060107
3,940833	0,1	1,095263
3,942500	0,1	1,107830
3,944167	0,1	1,038079
3,945833	0,1	1,074177
3,947500	0,1	1,054463
3,949167	0,1	1,067788
3,950833	0,1	1,046335
3,952500	0,1	1,037252
3,954167	0,1	1,051556
3,955833	0,1	1,034444
3,957500	0,1	1,041439
3,959167	0,1	1,033087
3,960833	0,1	1,030274
3,962500	0,1	1,035478
3,964167	0,1	1,039769
3,965833	0,1	1,032795
3,967500	0,1	1,033312
3,969167	0,1	1,023528
3,970833	0,1	1,029147
3,972500	0,1	1,019134
3,974167	0,1	1,031498
3,975833	0,1	0,997185
3,977500	0,1	0,957822
3,979167	0,1	0,970181
3,980833	0,1	1,013907
3,982500	0,1	1,006840
3,984167	0,1	1,026724
3,985833	0,1	1,015880
3,987500	0,1	1,000095
3,989167	0,1	1,034762
3,990833	0,1	1,034604
3,992500	0,1	0,987793
3,994167	0,1	1,016327
3,995833	0,1	0,954452
3,997500	0,1	1,005660
3,999167	0,1	1,023040
4,000833	0,1	1,004197
4,002500	0,1	0,970026
4,004167	0,1	0,991336
4,005833	0,1	1,020824
4,007500	0,1	0,990665
4,009167	0,1	0,983053
4,010833	0,1	0,988027
4,012500	0,1	1,011022
4,014167	0,1	1,034561
4,015833	0,1	1,028062
4,017500	0,1	0,984816
4,019167	0,1	0,933602
4,020833	0,1	1,001681
4,022500	0,1	1,032203
4,024167	0,1	0,983999
4,025833	0,1	1,018162
4,027500	0,1	1,061589
4,029167	0,1	1,018827
4,030833	0,1	0,988687
4,032500	0,1	1,045442
4,034167	0,1	1,027026
4,035833	0,1	1,033830
4,037500	0,1	1,022338
4,039167	0,1	1,001740
4,040833	0,1	1,008216
4,042500	0,1	1,024914
4,044167	0,1	1,025084
4,045833	0,1	1,040325
4,047500	0,1	1,000249
4,049167	0,1	1,044116
4,050833	0,1	1,001100
4,052500	0,1	1,082918
4,054167	0,1	1,034222
4,055833	0,1	1,057200
4,057500	0,1	1,108833
4,059167	0,1	1,028774
4,060833	0,1	1,051870
4,062500	0,1	1,053583
4,064167	0,1	1,064016
4,065833	0,1	1,060954
4,067500	0,1	1,054827
4,069167	0,1	1,070726
4,070833	0,1	1,040282
4,072500	0,1	1,072886
4,074167	0,1	1,075363
4,075833	0,1	1,085379
4,077500	0,1	1,062277
4,079167	0,1	1,073854
4,080833	0,1	1,098305
4,082500	0,1	1,089144
4,084167	0,1	1,085787
4,085833	0,1	1,094623
4,087500	0,1	1,134960
4,089167	0,1	1,092406
4,090833	0,1	1,109904
4,092500	0,1	1,101958
4,094167	0,1	1,145258
4,095833	0,1	1,147041
4,097500	0,1	1,144750
4,099167	0,1	1,154398
4,100833	0,1	1,172483
4,102500	0,1	1,124220
4,104167	0,1	1,145225
4,105833	0,1	1,141066
4,107500	0,1	1,163085
4,109167	0,1	1,159670
4,110833	0,1	1,203810
4,112500	0,1	1,148438
4,114167	0,1	1,202418
4,115833	0,1	1,198300
4,117500	0,1	1,222132
4,119167	0,1	1,212861
4,120833	0,1	1,188004
4,122500	0,1	1,227552
4,124167	0,1	1,198788
4,125833	0,1	1,217029
4,127500	0,1	1,240510
4,129167	0,1	1,235471
4,130833	0,1	1,240259
4,132500	0,1	1,253011
4,134167	0,1	1,264610
4,135833	0,1	1,262286
4,137500	0,1	1,285543
4,139167	0,1	1,286355
4,140833	0,1	1,257282
4,142500	0,1	1,273654
4,144167	0,1	1,294782
4,145833	0,1	1,300507
4,147500	0,1	1,311712
4,149167	0,1	1,289752
4,150833	0,1	1,291588
4,152500	0,1	1,257125
4,154167	0,1	1,257890
4,155833	0,1	1,321070
4,157500	0,1	1,336494
4,159167	0,1	1,346348
4,160833	0,1	1,336758
4,162500	0,1	1,311073
4,164167	0,1	1,318433
4,165833	0,1	1,316110
4,167500	0,1	1,359686
4,169167	0,1	1,321966
4,170833	0,1	1,358813
4,172500	0,1	1,344513
4,174167	0,1	1,348451
4,175833	0,1	1,363213
4,177500	0,1	1,341737
4,179167	0,1	1,318732
4,180833	0,1	1,357843
4,182500	0,1	1,370258
4,184167	0,1	1,332823
4,185833	0,1	1,351420
4,187500	0,1	1,310336
4,189167	0,1	1,397804
4,190833	0,1	1,349334
4,192500	0,1	1,326647
4,194167	0,1	1,370121
4,195833	0,1	1,344580
4,197500	0,1	1,409507
4,199167	0,1	1,337902
4,200833	0,1	1,353584
4,202500	0,1	1,330558
4,204167	0,1	1,347187
4,205833	0,1	1,314083
4,207500	0,1	1,344309
4,209167	0,1	1,338339
4,210833	0,1	1,341052
4,212500	0,1	1,335818
4,214167	0,1	1,324287
4,215833	0,1	1,369508
4,217500	0,1	1,345162
4,219167	0,1	1,343637
4,220833	0,1	1,371999
4,222500	0,1	1,324781
4,224167	0,1	1,368991
4,225833	0,1	1,290704
4,227500	0,1	1,320722
4,229167	0,1	1,359588
4,230833	0,1	1,331464
4,232500	0,1	1,308812
4,234167	0,1	1,295176
4,235833	0,1	1,345370
4,237500	0,1	1,352716
4,239167	0,1	1,319510
4,240833	0,1	1,306453
4,242500	0,1	1,298052
4,244167	0,1	1,284616
4,245833	0,1	1,327666
4,247500	0,1	1,285462
4,249167	0,1	1,299046
4,250833	0,1	1,270277
4,252500	0,1	1,288546
4,254167	0,1	1,293850
4,255833	0,1	1,318173
4,257500	0,1	1,282808
4,259167	0,1	1,258286
4,260833	0,1	1,281987
4,262500	0,1	1,250732
4,264167	0,1	1,272524
4,265833	0,1	1,247467
4,267500	0,1	1,246069
4,269167	0,1	1,267809
4,270833	0,1	1,254471
4,272500	0,1	1,246914
4,274167	0,1	1,248199
4,275833	0,1	1,264063
4,277500	0,1	1,254570
4,279167	0,1	1,173799
4,280833	0,1	1,241438
4,282500	0,1	1,177152
4,284167	0,1	1,233658
4,285833	0,1	1,224532
4,287500	0,1	1,225785
4,289167	0,1	1,212451
4,290833	0,1	1,178891
4,292500	0,1	1,205016
4,294167	0,1	1,172341
4,295833	0,1	1,232167
4,297500	0,1	1,153319
4,299167	0,1	1,175648
4,300833	0,1	1,171787
4,302500	0,1	1,164975
4,304167	0,1	1,153830
4,305833	0,1	1,185635
4,307500	0,1	1,168398
4,309167	0,1	1,167774
4,310833	0,1	1,164745
4,312500	0,1	1,112112
4,314167	0,1	1,131700
4,315833	0,1	1,136416
4,317500	0,1	1,094343
4,319167	0,1	1,116971
4,320833	0,1	1,153173
4,322500	0,1	1,136001
4,324167	0,1	1,132224
4,325833	0,1	1,119563
4,327500	0,1	1,078855
4,329167	0,1	1,108129
4,330833	0,1	1,093476
4,332500	0,1	1,120881
4,334167	0,1	1,106100
4,335833	0,1	1,091083
4,337500	0,1	1,100765
4,339167	0,1	1,083005
4,340833	0,1	1,056655
4,342500	0,1	1,070384
4,344167	0,1	1,084971
4,345833	0,1	1,076910
4,347500	0,1	1,100861
4,349167	0,1	1,082776
4,350833	0,1	1,033135
4,352500	0,1	1,077127
4,354167	0,1	1,082327
4,355833	0,1	1,116979
4,357500	0,1	1,075273
4,359167	0,1	1,044148
4,360833	0,1	1,082711
4,362500	0,1	1,036655
4,364167	0,1	1,080582
4,365833	0,1	1,023388
4,367500	0,1	1,083973
4,369167	0,1	1,040882
4,370833	0,1	1,026632
4,372500	0,1	1,079023
4,374167	0,1	1,034629
4,375833	0,1	1,043263
4,377500	0,1	1,014908
4,379167	0,1	1,062297
4,380833	0,1	1,034321
4,382500	0,1	1,041036
4,384167	0,1	1,001871
4,385833	0,1	1,047002
4,387500	0,1	0,981587
4,389167	0,1	1,032717
4,390833	0,1	1,028021
4,392500	0,1	0,971591
4,394167	0,1	1,002084
4,395833	0,1	1,016749
4,397500	0,1	1,054590
4,399167	0,1	0,968080
4,400833	0,1	0,995879
4,402500	0,1	0,972874
4,404167	0,1	1,001933
4,405833	0,1	1,018953
4,407500	0,1	0,997513
4,409167	0,1	0,974270
4,410833	0,1	0,980301
4,412500	0,1	0,969307
4,414167	0,1	1,009805
4,415833	0,1	0,990096
4,417500	0,1	0,975660
4,419167	0,1	1,011642
4,420833	0,1	0,953011
4,422500	0,1	0,975613
4,424167	0,1	0,995189
4,425833	0,1	0,992092
4,427500	0,1	1,001150
4,429167	0,1	0,931064
4,430833	0,1	0,952535
4,432500	0,1	0,992292
4,434167	0,1	0,973142
4,435833	0,1	0,986214
4,437500	0,1	0,967582
4,439167	0,1	0,945443
4,440833	0,1	0,971361
4,442500	0,1	0,923190
4,444167	0,1	0,946577
4,445833	0,1	0,954579
4,447500	0,1	0,967033
4,449167	0,1	0,961060
4,450833	0,1	0,957517
4,452500	0,1	0,983067
4,454167	0,1	0,940451
4,455833	0,1	0,949892
4,457500	0,1	0,887895
4,459167	0,1	0,907367
4,460833	0,1	0,946197
4,462500	0,1	0,918811
4,464167	0,1	0,928838
4,465833	0,1	0,921760
4,467500	0,1	0,935895
4,469167	0,1	0,907566
4,470833	0,1	0,909555
4,472500	0,1	0,940433
4,474167	0,1	0,887310
4,475833	0,1	0,927872
4,477500	0,1	0,925279
4,479167	0,1	0,909144
4,480833	0,1	0,868606
4,482500	0,1	0,917208
4,484167	0,1	0,918635
4,485833	0,1	0,928149
4,487500	0,1	0,858369
4,489167	0,1	0,886435
4,490833	0,1	0,883340
4,492500	0,1	0,935345
4,494167	0,1	0,849732
4,495833	0,1	0,856520
4,497500	0,1	0,873612
4,499167	0,1	0,836019
4,500833	0,1	0,863740
4,502500	0,1	0,863226
4,504167	0,1	0,891954
4,505833	0,1	0,837669
4,507500	0,1	0,824315
4,509167	0,1	0,836199
4,510833	0,1	0,835512
4,512500	0,1	0,842631
4,514167	0,1	0,830872
4,515833	0,1	0,853872
4,517500	0,1	0,818677
4,519167	0,1	0,808656
4,520833	0,1	0,830240
4,522500	0,1	0,797230
4,524167	0,1	0,825972
4,525833	0,1	0,782352
4,527500	0,1	0,788627
4,529167	0,1	0,813003
4,530833	0,1	0,797623
4,532500	0,1	0,836441
4,534167	0,1	0,758043
4,535833	0,1	0,826001
4,537500	0,1	0,807664
4,539167	0,1	0,795835
4,540833	0,1	0,765677
4,542500	0,1	0,780464
4,544167	0,1	0,751118
4,545833	0,1	0,750864
4,547500	0,1	0,782582
4,549167	0,1	0,739904
4,550833	0,1	0,746928
4,552500	0,1	0,719726
4,554167	0,1	0,779146
4,555833	0,1	0,714249
4,557500	0,1	0,743465
4,559167	0,1	0,735483
4,560833	0,1	0,708387
4,562500	0,1	0,759055
4,564167	0,1	0,776282
4,565833	0,1	0,736429
4,567500	0,1	0,712612
4,569167	0,1	0,754814
4,570833	0,1	0,731661
4,572500	0,1	0,751345
4,574167	0,1	0,691988
4,575833	0,1	0,712460
4,577500	0,1	0,692087
4,579167	0,1	0,686675
4,580833	0,1	0,703613
4,582500	0,1	0,682054
4,584167	0,1	0,702170
4,585833	0,1	0,670736
4,587500	0,1	0,641348
4,589167	0,1	0,673701
4,590833	0,1	0,745772
4,592500	0,1	0,641076
4,594167	0,1	0,725581
4,595833	0,1	0,664998
4,597500	0,1	0,655721
4,599167	0,1	0,647627
4,600833	0,1	0,659450
4,602500	0,1	0,607211
4,604167	0,1	0,664123
4,605833	0,1	0,654171
4,607500	0,1	0,619293
4,609167	0,1	0,631845
4,610833	0,1	0,637517
4,612500	0,1	0,628918
4,614167	0,1	0,629592
4,615833	0,1	0,597114
4,617500	0,1	0,633271
4,619167	0,1	0,623680
4,620833	0,1	0,608398
4,622500	0,1	0,642010
4,624167	0,1	0,606378
4,625833	0,1	0,615243
4,627500	0,1	0,593730
4,629167	0,1	0,579647
4,630833	0,1	0,606240
4,632500	0,1	0,617578
4,634167	0,1	0,606691
4,635833	0,1	0,654018
4,637500	0,1	0,594895
4,639167	0,1	0,567162
4,640833	0,1	0,593719
4,642500	0,1	0,589767
4,644167	0,1	0,585496
4,645833	0,1	0,567500
4,647500	0,1	0,611764
4,649167	0,1	0,561167
4,650833	0,1	0,571439
4,652500	0,1	0,559066
4,654167	0,1	0,584614
4,655833	0,1	0,585605
4,657500	0,1	0,600389
4,659167	0,1	0,537744
4,660833	0,1	0,559872
4,662500	0,1	0,545862
4,664167	0,1	0,558877
4,665833	0,1	0,517379
4,667500	0,1	0,579064
4,669167	0,1	0,538018
4,670833	0,1	0,516499
4,672500	0,1	0,579491
4,674167	0,1	0,520206
4,675833	0,1	0,519766
4,677500	0,1	0,515277
4,679167	0,1	0,544500
4,680833	0,1	0,505077
4,682500	0,1	0,518365
4,684167	0,1	0,500496
4,685833	0,1	0,584173
4,687500	0,1	0,548859
4,689167	0,1	0,543570
4,690833	0,1	0,551368
4,692500	0,1	0,552695
4,694167	0,1	0,516209
4,695833	0,1	0,480447
4,697500	0,1	0,492858
4,699167	0,1	0,527328
4,700833	0,1	0,483137
4,702500	0,1	0,463382
4,704167	0,1	0,482126
4,705833	0,1	0,485293
4,707500	0,1	0,512945
4,709167	0,1	0,460629
4,710833	0,1	0,518756
4,712500	0,1	0,470192
4,714167	0,1	0,471860
4,715833	0,1	0,493794
4,717500	0,1	0,473691
4,719167	0,1	0,499658
4,720833	0,1	0,485346
4,722500	0,1	0,491205
4,724167	0,1	0,450469
4,725833	0,1	0,479774
4,727500	0,1	0,492810
4,729167	0,1	0,474224
4,730833	0,1	0,460399
4,732500	0,1	0,485167
4,734167	0,1	0,478786
4,735833	0,1	0,439587
4,737500	0,1	0,514055
4,739167	0,1	0,443222
4,740833	0,1	0,461208
4,742500	0,1	0,452186
4,744167	0,1	0,476308
4,745833	0,1	0,442862
4,747500	0,1	0,482644
4,749167	0,1	0,459323
4,750833	0,1	0,469935
4,752500	0,1	0,431256
4,754167	0,1	0,476303
4,755833	0,1	0,434944
4,757500	0,1	0,436575
4,759167	0,1	0,432546
4,760833	0,1	0,484806
4,762500	0,1	0,436929
4,764167	0,1	0,400485
4,765833	0,1	0,442389
4,767500	0,1	0,459031
4,769167	0,1	0,425339
4,770833	0,1	0,452922
4,772500	0,1	0,457451
4,774167	0,1	0,455094
4,775833	0,1	0,427082
4,777500	0,1	0,467872
4,779167	0,1	0,457969
4,780833	0,1	0,394508
4,782500	0,1	0,437915
4,784167	0,1	0,429665
4,785833	0,1	0,455039
4,787500	0,1	0,408396
4,789167	0,1	0,422869
4,790833	0,1	0,439674
4,792500	0,1	0,427369
4,794167	0,1	0,430661
4,795833	0,1	0,452984
4,797500	0,1	0,421642
4,799167	0,1	0,430599
4,800833	0,1	0,413426
4,802500	0,1	0,404751
4,804167	0,1	0,434815
4,805833	0,1	0,390805
4,807500	0,1	0,430693
4,809167	0,1	0,435868
4,810833	0,1	0,400244
4,812500	0,1	0,424087
4,814167	0,1	0,436986
4,815833	0,1	0,409500
4,817500	0,1	0,415588
4,819167	0,1	0,438213
4,820833	0,1	0,427913
4,822500	0,1	0,417345
4,824167	0,1	0,403926
4,825833	0,1	0,453169
4,827500	0,1	0,399713
4,829167	0,1	0,388813
4,830833	0,1	0,385818
4,832500	0,1	0,424435
4,834167	0,1	0,411260
4,835833	0,1	0,430243
4,837500	0,1	0,446295
4,839167	0,1	0,401193
4,840833	0,1	0,375096
4,842500	0,1	0,406555
4,844167	0,1	0,380081
4,845833	0,1	0,372924
4,847500	0,1	0,452668
4,849167	0,1	0,366909
4,850833	0,1	0,399300
4,852500	0,1	0,401362
4,854167	0,1	0,393205
4,855833	0,1	0,404203
4,857500	0,1	0,376970
4,859167	0,1	0,427889
4,860833	0,1	0,381195
4,862500	0,1	0,372212
4,864167	0,1	0,392784
4,865833	0,1	0,431177
4,867500	0,1	0,394260
4,869167	0,1	0,438027
4,870833	0,1	0,382830
4,872500	0,1	0,422903
4,874167	0,1	0,380549
4,875833	0,1	0,404159
4,877500	0,1	0,363845
4,879167	0,1	0,392431
4,880833	0,1	0,404675
4,882500	0,1	0,390386
4,884167	0,1	0,418404
4,885833	0,1	0,416465
4,887500	0,1	0,407259
4,889167	0,1	0,393309
4,890833	0,1	0,395601
4,892500	0,1	0,391561
4,894167	0,1	0,382708
4,895833	0,1	0,399345
4,897500	0,1	0,373445
4,899167	0,1	0,382282
4,900833	0,1	0,407906
4,902500	0,1	0,423787
4,904167	0,1	0,420274
4,905833	0,1	0,408610
4,907500	0,1	0,422265
4,909167	0,1	0,397300
4,910833	0,1	0,404747
4,912500	0,1	0,380484
4,914167	0,1	0,449555
4,915833	0,1	0,399705
4,917500	0,1	0,373332
4,919167	0,1	0,401568
4,920833	0,1	0,400820
4,922500	0,1	0,385168
4,924167	0,1	0,413758
4,925833	0,1	0,394841
4,927500	0,1	0,413368
4,929167	0,1	0,396300
4,930833	0,1	0,411586
4,932500	0,1	0,401045
4,934167	0,1	0,402098
4,935833	0,1	0,413249
4,937500	0,1	0,370346
4,939167	0,1	0,388777
4,940833	0,1	0,405793
4,942500	0,1	0,382418
4,944167	0,1	0,394540
4,945833	0,1	0,423965
4,947500	0,1	0,368121
4,949167	0,1	0,394114
4,950833	0,1	0,381488
4,952500	0,1	0,402809
4,954167	0,1	0,380958
4,955833	0,1	0,419792
4,957500	0,1	0,372993
4,959167	0,1	0,387688
4,960833	0,1	0,392366
4,962500	0,1	0,415291
4,964167	0,1	0,389039
4,965833	0,1	0,345503
4,967500	0,1	0,425243
4,969167	0,1	0,439626
4,970833	0,1	0,364619
4,972500	0,1	0,371811
4,974167	0,1	0,353645
4,975833	0,1	0,420721
4,977500	0,1	0,373511
4,979167	0,1	0,444054
4,980833	0,1	0,384354
4,982500	0,1	0,409961
4,984167	0,1	0,365489
4,985833	0,1	0,389329
4,987500	0,1	0,406981
4,989167	0,1	0,423957
4,990833	0,1	0,453809
4,992500	0,1	0,439754
4,994167	0,1	0,396909
4,995833	0,1	0,413599
4,997500	0,1	0,433116
4,999167	0,1	0,416721
5,000833	0,1	0,428241
5,002500	0,1	0,436745
5,004167	0,1	0,397071
5,005833	0,1	0,444192
5,007500	0,1	0,440799
5,009167	0,1	0,422736
5,010833	0,1	0,444299
5,012500	0,1	0,438169
5,014167	0,1	0,437695
5,015833	0,1	0,386131
5,017500	0,1	0,456136
5,019167	0,1	0,439219
5,020833	0,1	0,469213
5,022500	0,1	0,459198
5,024167	0,1	0,419004
5,025833	0,1	0,448638
5,027500	0,1	0,404940
5,029167	0,1	0,465106
5,030833	0,1	0,471447
5,032500	0,1	0,454816
5,034167	0,1	0,448316
5,035833	0,1	0,459375
5,037500	0,1	0,438515
5,039167	0,1	0,446539
5,040833	0,1	0,425457
5,042500	0,1	0,477189
5,044167	0,1	0,463480
5,045833	0,1	0,473732
5,047500	0,1	0,464478
5,049167	0,1	0,451058
5,050833	0,1	0,449605
5,052500	0,1	0,475200
5,054167	0,1	0,453830
5,055833	0,1	0,479251
5,057500	0,1	0,480802
5,059167	0,1	0,465306
5,060833	0,1	0,501152
5,062500	0,1	0,470772
5,064167	0,1	0,505643
5,065833	0,1	0,475969
5,067500	0,1	0,536521
5,069167	0,1	0,508772
5,070833	0,1	0,514264
5,072500	0,1	0,497721
5,074167	0,1	0,478205
5,075833	0,1	0,535232
5,077500	0,1	0,526340
5,079167	0,1	0,514927
5,080833	0,1	0,539184
5,082500	0,1	0,564482
5,084167	0,1	0,536713
5,085833	0,1	0,558861
5,087500	0,1	0,510822
5,089167	0,1	0,579490
5,090833	0,1	0,530280
5,092500	0,1	0,575870
5,094167	0,1	0,550487
5,095833	0,1	0,554289
5,097500	0,1	0,520712
5,099167	0,1	0,523818
5,100833	0,1	0,508222
5,102500	0,1	0,555984
5,104167	0,1	0,546871
5,105833	0,1	0,563098
5,107500	0,1	0,534912
5,109167	0,1	0,565187
5,110833	0,1	0,554368
5,112500	0,1	0,560460
5,114167	0,1	0,549925
5,115833	0,1	0,552354
5,117500	0,1	0,556407
5,119167	0,1	0,555594
5,120833	0,1	0,561262
5,122500	0,1	0,544706
5,124167	0,1	0,568596
5,125833	0,1	0,573192
5,127500	0,1	0,572182
5,129167	0,1	0,560865
5,130833	0,1	0,566619
5,132500	0,1	0,568323
5,134167	0,1	0,562398
5,135833	0,1	0,596853
5,137500	0,1	0,568074
5,139167	0,1	0,550973
5,140833	0,1	0,577321
5,142500	0,1	0,549953
5,144167	0,1	0,545165
5,145833	0,1	0,587604
5,147500	0,1	0,558193
5,149167	0,1	0,555133
5,150833	0,1	0,554473
5,152500	0,1	0,526942
5,154167	0,1	0,548032
5,155833	0,1	0,565129
5,157500	0,1	0,543234
5,159167	0,1	0,549555
5,160833	0,1	0,573989
5,162500	0,1	0,535437
5,164167	0,1	0,542632
5,165833	0,1	0,486668
5,167500	0,1	0,549652
5,169167	0,1	0,558878
5,170833	0,1	0,557991
5,172500	0,1	0,579978
5,174167	0,1	0,568558
5,175833	0,1	0,525058
5,177500	0,1	0,542081
5,179167	0,1	0,525223
5,180833	0,1	0,546667
5,182500	0,1	0,524056
5,184167	0,1	0,543077
5,185833	0,1	0,497910
5,187500	0,1	0,520527
5,189167	0,1	0,543613
5,190833	0,1	0,494395
5,192500	0,1	0,459446
5,194167	0,1	0,501114
5,195833	0,1	0,517111
5,197500	0,1	0,467712
5,199167	0,1	0,505568
5,200833	0,1	0,453475
5,202500	0,1	0,469069
5,204167	0,1	0,514767
5,205833	0,1	0,469524
5,207500	0,1	0,535279
5,209167	0,1	0,444577
5,210833	0,1	0,480940
5,212500	0,1	0,442932
5,214167	0,1	0,459322
5,215833	0,1	0,488147
5,217500	0,1	0,459494
5,219167	0,1	0,495713
5,220833	0,1	0,420766
5,222500	0,1	0,429008
5,224167	0,1	0,456135
5,225833	0,1	0,491479
5,227500	0,1	0,415729
5,229167	0,1	0,413947
5,230833	0,1	0,419567
5,232500	0,1	0,431647
5,234167	0,1	0,414011
5,235833	0,1	0,379207
5,237500	0,1	0,424425
5,239167	0,1	0,430931
5,240833	0,1	0,385364
5,242500	0,1	0,446224
5,244167	0,1	0,479166
5,245833	0,1	0,461244
5,247500	0,1	0,419054
5,249167	0,1	0,429359
5,250833	0,1	0,424546
5,252500	0,1	0,396905
5,254167	0,1	0,375396
5,255833	0,1	0,397357
5,257500	0,1	0,412996
5,259167	0,1	0,391617
5,260833	0,1	0,384590
5,262500	0,1	0,367924
5,264167	0,1	0,379781
5,265833	0,1	0,390320
5,267500	0,1	0,405450
5,269167	0,1	0,368952
5,270833	0,1	0,371504
5,272500	0,1	0,384163
5,274167	0,1	0,388335
5,275833	0,1	0,391370
5,277500	0,1	0,360903
5,279167	0,1	0,406601
5,280833	0,1	0,391375
5,282500	0,1	0,354931
5,284167	0,1	0,385218
5,285833	0,1	0,347376
5,287500	0,1	0,366927
5,289167	0,1	0,347902
5,290833	0,1	0,329371
5,292500	0,1	0,309267
5,294167	0,1	0,337405
5,295833	0,1	0,364517
5,297500	0,1	0,352518
5,299167	0,1	0,353279
5,300833	0,1	0,320874
5,302500	0,1	0,339797
5,304167	0,1	0,341675
5,305833	0,1	0,320115
5,307500	0,1	0,318821
5,309167	0,1	0,301134
5,310833	0,1	0,311368
5,312500	0,1	0,329191
5,314167	0,1	0,283323
5,315833	0,1	0,341999
5,317500	0,1	0,288775
5,319167	0,1	0,298122
5,320833	0,1	0,310138
5,322500	0,1	0,308267
5,324167	0,1	0,271892
5,325833	0,1	0,358477
5,327500	0,1	0,317008
5,329167	0,1	0,255311
5,330833	0,1	0,308539
5,332500	0,1	0,282442
5,334167	0,1	0,232924
5,335833	0,1	0,270811
5,337500	0,1	0,267253
5,339167	0,1	0,279966
5,340833	0,1	0,248161
5,342500	0,1	0,265899
5,344167	0,1	0,271934
5,345833	0,1	0,257174
5,347500	0,1	0,262094
5,349167	0,1	0,236152
5,350833	0,1	0,247093
5,352500	0,1	0,282188
5,354167	0,1	0,274404
5,355833	0,1	0,273583
5,357500	0,1	0,286347
5,359167	0,1	0,270471
5,360833	0,1	0,214711
5,362500	0,1	0,227638
5,364167	0,1	0,247850
5,365833	0,1	0,264025
5,367500	0,1	0,239833
5,369167	0,1	0,265192
5,370833	0,1	0,239602
5,372500	0,1	0,253176
5,374167	0,1	0,276083
5,375833	0,1	0,243464
5,377500	0,1	0,256398
5,379167	0,1	0,254473
5,380833	0,1	0,240594
5,382500	0,1	0,232799
5,384167	0,1	0,220788
5,385833	0,1	0,251071
5,387500	0,1	0,229758
5,389167	0,1	0,216396
5,390833	0,1	0,224710
5,392500	0,1	0,242229
5,394167	0,1	0,208780
5,395833	0,1	0,189451
5,397500	0,1	0,201626
5,399167	0,1	0,233731
5,400833	0,1	0,179323
5,402500	0,1	0,211689
5,404167	0,1	0,224702
5,405833	0,1	0,175509
5,407500	0,1	0,202792
5,409167	0,1	0,177849
5,410833	0,1	0,233890
5,412500	0,1	0,236253
5,414167	0,1	0,196596
5,415833	0,1	0,141067
5,417500	0,1	0,248295
5,419167	0,1	0,186872
5,420833	0,1	0,185334
5,422500	0,1	0,218378
5,424167	0,1	0,196072
5,425833	0,1	0,192955
5,427500	0,1	0,219896
5,429167	0,1	0,184180
5,430833	0,1	0,195235
5,432500	0,1	0,157526
5,434167	0,1	0,188379
5,435833	0,1	0,206189
5,437500	0,1	0,162034
5,439167	0,1	0,161258
5,440833	0,1	0,172100
5,442500	0,1	0,178896
5,444167	0,1	0,189085
5,445833	0,1	0,166184
5,447500	0,1	0,172619
5,449167	0,1	0,185802
5,450833	0,1	0,164606
5,452500	0,1	0,179180
5,454167	0,1	0,170285
5,455833	0,1	0,171517
5,457500	0,1	0,201269
5,459167	0,1	0,185979
5,460833	0,1	0,175729
5,462500	0,1	0,180999
5,464167	0,1	0,158866
5,465833	0,1	0,175372
5,467500	0,1	0,167704
5,469167	0,1	0,175377
5,470833	0,1	0,183056
5,472500	0,1	0,181058
5,474167	0,1	0,146274
5,475833	0,1	0,174202
5,477500	0,1	0,160560
5,479167	0,1	0,133091
5,480833	0,1	0,159615
5,482500	0,1	0,127823
5,484167	0,1	0,081842
5,485833	0,1	0,165045
5,487500	0,1	0,145622
5,489167	0,1	0,166589
5,490833	0,1	0,111424
5,492500	0,1	0,137470
5,494167	0,1	0,168571
5,495833	0,1	0,159623
5,497500	0,1	0,148550
5,499167	0,1	0,158796
5,500833	0,1	0,093323
5,502500	0,1	0,165463
5,504167	0,1	0,111307
5,505833	0,1	0,173837
5,507500	0,1	0,143170
5,509167	0,1	0,141225
5,510833	0,1	0,120846
5,512500	0,1	0,081667
5,514167	0,1	0,154330
5,515833	0,1	0,142812
5,517500	0,1	0,104446
5,519167	0,1	0,124760
5,520833	0,1	0,125876
5,522500	0,1	0,127283
5,524167	0,1	0,133607
5,525833	0,1	0,158674
5,527500	0,1	0,105511
5,529167	0,1	0,109826
5,530833	0,1	0,143498
5,532500	0,1	0,122429
5,534167	0,1	0,146780
5,535833	0,1	0,110598
5,537500	0,1	0,130147
5,539167	0,1	0,125759
5,540833	0,1	0,131262
5,542500	0,1	0,134075
5,544167	0,1	0,136010
5,545833	0,1	0,109484
5,547500	0,1	0,117907
5,549167	0,1	0,115687
5,550833	0,1	0,096478
5,552500	0,1	0,117554
5,554167	0,1	0,137880
5,555833	0,1	0,124355
5,557500	0,1	0,154046
5,559167	0,1	0,109662
5,560833	0,1	0,130790
5,562500	0,1	0,121078
5,564167	0,1	0,121366
5,565833	0,1	0,132963
5,567500	0,1	0,127988
5,569167	0,1	0,159317
5,570833	0,1	0,164131
5,572500	0,1	0,079801
5,574167	0,1	0,097467
5,575833	0,1	0,107425
5,577500	0,1	0,083592
5,579167	0,1	0,078960
5,580833	0,1	0,084874
5,582500	0,1	0,147244
5,584167	0,1	0,144329
5,585833	0,1	0,135309
5,587500	0,1	0,092091
5,589167	0,1	0,128973
5,590833	0,1	0,129512
5,592500	0,1	0,073289
5,594167	0,1	0,105953
5,595833	0,1	0,089916
5,597500	0,1	0,141565
5,599167	0,1	0,130746
5,600833	0,1	0,099758
5,602500	0,1	0,117437
5,604167	0,1	0,126343
5,605833	0,1	0,119490
5,607500	0,1	0,137236
5,609167	0,1	0,113640
5,610833	0,1	0,136181
5,612500	0,1	0,089747
5,614167	0,1	0,130024
5,615833	0,1	0,110186
5,617500	0,1	0,140336
5,619167	0,1	0,112529
5,620833	0,1	0,139283
5,622500	0,1	0,111299
5,624167	0,1	0,110535
5,625833	0,1	0,103798
5,627500	0,1	0,133773
5,629167	0,1	0,129391
5,630833	0,1	0,118207
5,632500	0,1	0,144440
5,634167	0,1	0,121486
5,635833	0,1	0,137585
5,637500	0,1	0,101813
5,639167	0,1	0,136178
5,640833	0,1	0,091973
5,642500	0,1	0,113979
5,644167	0,1	0,108776
5,645833	0,1	0,113107
5,647500	0,1	0,114568
5,649167	0,1	0,125988
5,650833	0,1	0,132667
5,652500	0,1	0,120490
5,654167	0,1	0,101868
5,655833	0,1	0,081309
5,657500	0,1	0,110814
5,659167	0,1	0,169683
5,660833	0,1	0,109193
5,662500	0,1	0,103154
5,664167	0,1	0,097583
5,665833	0,1	0,117023
5,667500	0,1	0,152406
5,669167	0,1	0,133319
5,670833	0,1	0,137710
5,672500	0,1	0,137830
5,674167	0,1	0,102866
5,675833	0,1	0,132900
5,677500	0,1	0,129335
5,679167	0,1	0,096422
5,680833	0,1	0,137761
5,682500	0,1	0,153640
5,684167	0,1	0,126935
5,685833	0,1	0,110648
5,687500	0,1	0,134072
5,689167	0,1	0,126347
5,690833	0,1	0,141515
5,692500	0,1	0,116394
5,694167	0,1	0,152401
5,695833	0,1	0,158331
5,697500	0,1	0,150187
5,699167	0,1	0,130859
5,700833	0,1	0,143330
5,702500	0,1	0,155865
5,704167	0,1	0,111303
5,705833	0,1	0,145495
5,707500	0,1	0,121549
5,709167	0,1	0,170564
5,710833	0,1	0,179828
5,712500	0,1	0,150194
5,714167	0,1	0,142454
5,715833	0,1	0,159849
5,717500	0,1	0,100935
5,719167	0,1	0,140630
5,720833	0,1	0,132265
5,722500	0,1	0,153056
5,724167	0,1	0,182689
5,725833	0,1	0,114590
5,727500	0,1	0,101455
5,729167	0,1	0,131788
5,730833	0,1	0,164465
5,732500	0,1	0,131039
5,734167	0,1	0,193117
5,735833	0,1	0,151072
5,737500	0,1	0,171097
5,739167	0,1	0,180820
5,740833	0,1	0,166767
5,742500	0,1	0,166001
5,744167	0,1	0,103167
5,745833	0,1	0,104268
5,747500	0,1	0,124760
5,749167	0,1	0,169272
5,750833	0,1	0,147674
5,752500	0,1	0,119967
5,754167	0,1	0,188836
5,755833	0,1	0,169699
5,757500	0,1	0,141698
5,759167	0,1	0,173554
5,760833	0,1	0,131396
5,762500	0,1	0,159846
5,764167	0,1	0,145851
5,765833	0,1	0,186909
5,767500	0,1	0,126890
5,769167	0,1	0,136245
5,770833	0,1	0,150418
5,772500	0,1	0,153060
5,774167	0,1	0,191071
5,775833	0,1	0,160976
5,777500	0,1	0,183980
5,779167	0,1	0,162554
5,780833	0,1	0,141346
5,782500	0,1	0,189485
5,784167	0,1	0,189260
5,785833	0,1	0,133037
5,787500	0,1	0,143037
5,789167	0,1	0,150067
5,790833	0,1	0,194232
5,792500	0,1	0,185045
5,794167	0,1	0,169698
5,795833	0,1	0,134730
5,797500	0,1	0,148014
5,799167	0,1	0,169573
5,800833	0,1	0,130633
5,802500	0,1	0,135015
5,804167	0,1	0,168052
5,805833	0,1	0,179946
5,807500	0,1	0,192488
5,809167	0,1	0,174506
5,810833	0,1	0,173850
5,812500	0,1	0,142171
5,814167	0,1	0,188951
5,815833	0,1	0,192953
5,817500	0,1	0,155588
5,819167	0,1	0,177185
5,820833	0,1	0,134730
5,822500	0,1	0,140816
5,824167	0,1	0,183627
5,825833	0,1	0,152831
5,827500	0,1	0,181457
5,829167	0,1	0,167528
5,830833	0,1	0,127005
5,832500	0,1	0,161013
5,834167	0,1	0,120323
5,835833	0,1	0,194810
5,837500	0,1	0,147619
5,839167	0,1	0,168988
5,840833	0,1	0,124427
5,842500	0,1	0,169210
5,844167	0,1	0,164484
5,845833	0,1	0,142813
5,847500	0,1	0,142518
5,849167	0,1	0,182862
5,850833	0,1	0,127588
5,852500	0,1	0,174076
5,854167	0,1	0,121611
5,855833	0,1	0,155742
5,857500	0,1	0,167996
5,859167	0,1	0,166584
5,860833	0,1	0,156515
5,862500	0,1	0,154407
5,864167	0,1	0,124951
5,865833	0,1	0,145671
5,867500	0,1	0,144914
5,869167	0,1	0,170972
5,870833	0,1	0,115172
5,872500	0,1	0,113108
5,874167	0,1	0,124823
5,875833	0,1	0,135776
5,877500	0,1	0,121838
5,879167	0,1	0,154164
5,880833	0,1	0,113876
5,882500	0,1	0,137471
5,884167	0,1	0,138007
5,885833	0,1	0,120554
5,887500	0,1	0,146433
5,889167	0,1	0,109546
5,890833	0,1	0,158901
5,892500	0,1	0,174256
5,894167	0,1	0,164603
5,895833	0,1	0,138533
5,897500	0,1	0,150189
5,899167	0,1	0,145853
5,900833	0,1	0,130922
5,902500	0,1	0,146080
5,904167	0,1	0,128980
5,905833	0,1	0,138586
5,907500	0,1	0,109662
5,909167	0,1	0,135183
5,910833	0,1	0,144390
5,912500	0,1	0,146787
5,914167	0,1	0,112763
5,915833	0,1	0,124527
5,917500	0,1	0,139814
5,919167	0,1	0,124414
5,920833	0,1	0,172261
5,922500	0,1	0,138307
5,924167	0,1	0,129686
5,925833	0,1	0,119727
5,927500	0,1	0,113635
5,929167	0,1	0,129912
5,930833	0,1	0,102864
5,932500	0,1	0,124230
5,934167	0,1	0,126810
5,935833	0,1	0,152756
5,937500	0,1	0,142043
5,939167	0,1	0,107376
5,940833	0,1	0,125460
5,942500	0,1	0,129972
5,944167	0,1	0,127286
5,945833	0,1	0,119730
5,947500	0,1	0,115800
5,949167	0,1	0,083301
5,950833	0,1	0,140394
5,952500	0,1	0,119792
5,954167	0,1	0,104205
5,955833	0,1	0,136823
5,957500	0,1	0,088635
5,959167	0,1	0,078376
5,960833	0,1	0,113450
5,962500	0,1	0,117912
5,964167	0,1	0,109770
5,965833	0,1	0,083884
5,967500	0,1	0,104196
5,969167	0,1	0,072347
5,970833	0,1	0,090961
5,972500	0,1	0,087686
5,974167	0,1	0,109410
5,975833	0,1	0,106021
5,977500	0,1	0,128100
5,979167	0,1	0,149005
5,980833	0,1	0,090040
5,982500	0,1	0,110230
5,984167	0,1	0,114219
5,985833	0,1	0,056247
5,987500	0,1	0,106008
5,989167	0,1	0,091083
5,990833	0,1	0,132487
5,992500	0,1	0,091152
5,994167	0,1	0,084115
5,995833	0,1	0,124578
5,997500	0,1	0,103036
5,999167	0,1	0,137993
6,000833	0,1	0,083073
