File Path	chrom://chromeleon01/ikbm_chromeleon/2022/Rezex/Esteban/220612_chitin_4_7.seq/995.smp/UV_VIS_1.channel/UV_VIS_1.chm
Channel	UV_VIS_1

Injection Information:
Data Vault	ikbm_chromeleon
Injection	4_24h-ChiBS_2
Injection Number	16
Position	RB5
Comment	
Processing Method	New ProcMethod
Instrument Method	Short_Rezex_6min_194nm
Type	Unknown
Status	Finished
Injection Date	12.06.2022
Injection Time	18:51:18
Injection Volume (µl)	8,000
Dilution Factor	1,0000
Weight	1,0000

Chromatogram Data Information:
Time Min. (min)	0,000833
Time Max. (min)	6,000833
Data Points	3601
Detector	UV
Generating Data System	Chromeleon 7.2.9.11323
Exporting Data System	Chromeleon 7.2.9.0
Operator	Instrument Controller
Signal Quantity	Absorbance
Signal Unit	mAU
Signal Min.	-0,130417
Signal Max.	117,439565
Channel	UV_VIS_1
Driver Name	VWD3000.dll
Channel Type	Evaluation
Min. Step (s)	0,1
Max. Step (s)	0,1
Average Step (s)	0,1

Signal Parameter Information:
Signal Info	WVL:194 nm

Chromatogram Data:
Time (min)	Step (s)	Value (mAU)
0,000833	n.a.	-0,065541
0,002500	0,1	-0,073978
0,004167	0,1	-0,083462
0,005833	0,1	-0,046810
0,007500	0,1	-0,064424
0,009167	0,1	-0,075261
0,010833	0,1	-0,073864
0,012500	0,1	-0,036270
0,014167	0,1	-0,092527
0,015833	0,1	-0,042009
0,017500	0,1	-0,048964
0,019167	0,1	-0,053828
0,020833	0,1	-0,039485
0,022500	0,1	-0,080175
0,024167	0,1	-0,029885
0,025833	0,1	-0,057746
0,027500	0,1	-0,036852
0,029167	0,1	-0,056931
0,030833	0,1	-0,084152
0,032500	0,1	-0,098158
0,034167	0,1	-0,111804
0,035833	0,1	-0,077557
0,037500	0,1	-0,078836
0,039167	0,1	-0,130417
0,040833	0,1	-0,103902
0,042500	0,1	-0,108412
0,044167	0,1	-0,066665
0,045833	0,1	-0,080418
0,047500	0,1	-0,077730
0,049167	0,1	-0,078716
0,050833	0,1	-0,066486
0,052500	0,1	-0,091359
0,054167	0,1	-0,073335
0,055833	0,1	-0,094410
0,057500	0,1	-0,075442
0,059167	0,1	-0,042595
0,060833	0,1	-0,028533
0,062500	0,1	-0,042817
0,064167	0,1	-0,093527
0,065833	0,1	-0,070116
0,067500	0,1	-0,074623
0,069167	0,1	-0,051376
0,070833	0,1	-0,099273
0,072500	0,1	-0,068189
0,074167	0,1	-0,045697
0,075833	0,1	-0,068056
0,077500	0,1	-0,042593
0,079167	0,1	-0,055702
0,080833	0,1	-0,080532
0,082500	0,1	-0,049619
0,084167	0,1	-0,043349
0,085833	0,1	-0,054883
0,087500	0,1	-0,072977
0,089167	0,1	-0,032405
0,090833	0,1	-0,018280
0,092500	0,1	-0,022611
0,094167	0,1	-0,056050
0,095833	0,1	-0,040892
0,097500	0,1	-0,052486
0,099167	0,1	-0,080357
0,100833	0,1	-0,060630
0,102500	0,1	-0,080533
0,104167	0,1	-0,090374
0,105833	0,1	-0,090497
0,107500	0,1	-0,051320
0,109167	0,1	-0,061737
0,110833	0,1	-0,056177
0,112500	0,1	-0,064663
0,114167	0,1	-0,057814
0,115833	0,1	-0,068353
0,117500	0,1	-0,058047
0,119167	0,1	-0,080416
0,120833	0,1	-0,051317
0,122500	0,1	-0,057167
0,124167	0,1	-0,092653
0,125833	0,1	-0,075388
0,127500	0,1	-0,083344
0,129167	0,1	-0,038206
0,130833	0,1	-0,082635
0,132500	0,1	-0,026433
0,134167	0,1	-0,088137
0,135833	0,1	-0,074801
0,137500	0,1	-0,085105
0,139167	0,1	-0,050328
0,140833	0,1	-0,066125
0,142500	0,1	-0,033106
0,144167	0,1	-0,042755
0,145833	0,1	-0,058167
0,147500	0,1	-0,000779
0,149167	0,1	-0,046084
0,150833	0,1	-0,026831
0,152500	0,1	-0,066705
0,154167	0,1	-0,057993
0,155833	0,1	-0,079360
0,157500	0,1	-0,035803
0,159167	0,1	-0,031811
0,160833	0,1	-0,068411
0,162500	0,1	-0,067770
0,164167	0,1	-0,027251
0,165833	0,1	-0,075430
0,167500	0,1	-0,053192
0,169167	0,1	-0,028125
0,170833	0,1	-0,029112
0,172500	0,1	-0,079761
0,174167	0,1	-0,027898
0,175833	0,1	0,005667
0,177500	0,1	-0,005741
0,179167	0,1	-0,055403
0,180833	0,1	-0,066951
0,182500	0,1	-0,041363
0,184167	0,1	-0,031521
0,185833	0,1	-0,029586
0,187500	0,1	0,003090
0,189167	0,1	-0,007441
0,190833	0,1	-0,014704
0,192500	0,1	-0,048841
0,194167	0,1	-0,039544
0,195833	0,1	-0,034563
0,197500	0,1	-0,046393
0,199167	0,1	-0,036268
0,200833	0,1	-0,021742
0,202500	0,1	-0,019566
0,204167	0,1	-0,060379
0,205833	0,1	-0,057581
0,207500	0,1	-0,023384
0,209167	0,1	-0,054234
0,210833	0,1	-0,063202
0,212500	0,1	0,011223
0,214167	0,1	-0,025475
0,215833	0,1	-0,001945
0,217500	0,1	-0,009786
0,219167	0,1	-0,017281
0,220833	0,1	-0,018749
0,222500	0,1	-0,044277
0,224167	0,1	-0,055703
0,225833	0,1	-0,034919
0,227500	0,1	-0,035206
0,229167	0,1	0,015681
0,230833	0,1	-0,055746
0,232500	0,1	-0,039487
0,234167	0,1	-0,056698
0,235833	0,1	-0,009097
0,237500	0,1	-0,029286
0,239167	0,1	-0,020332
0,240833	0,1	-0,010140
0,242500	0,1	-0,035727
0,244167	0,1	-0,053181
0,245833	0,1	-0,063728
0,247500	0,1	-0,018233
0,249167	0,1	-0,035904
0,250833	0,1	0,008067
0,252500	0,1	-0,017983
0,254167	0,1	0,003562
0,255833	0,1	-0,012653
0,257500	0,1	-0,003580
0,259167	0,1	0,001928
0,260833	0,1	-0,010491
0,262500	0,1	0,002626
0,264167	0,1	-0,020677
0,265833	0,1	0,000749
0,267500	0,1	-0,035961
0,269167	0,1	-0,017757
0,270833	0,1	-0,027825
0,272500	0,1	-0,034265
0,274167	0,1	-0,038368
0,275833	0,1	-0,005872
0,277500	0,1	-0,026181
0,279167	0,1	-0,041645
0,280833	0,1	-0,044927
0,282500	0,1	0,039104
0,284167	0,1	0,000122
0,285833	0,1	-0,005510
0,287500	0,1	-0,024133
0,289167	0,1	0,006137
0,290833	0,1	-0,032678
0,292500	0,1	0,027159
0,294167	0,1	-0,011300
0,295833	0,1	0,000285
0,297500	0,1	-0,000593
0,299167	0,1	-0,030394
0,300833	0,1	-0,035675
0,302500	0,1	-0,000896
0,304167	0,1	-0,003167
0,305833	0,1	-0,008731
0,307500	0,1	-0,001061
0,309167	0,1	0,003097
0,310833	0,1	0,008426
0,312500	0,1	-0,041225
0,314167	0,1	0,002269
0,315833	0,1	0,021310
0,317500	0,1	-0,017393
0,319167	0,1	-0,047913
0,320833	0,1	-0,000488
0,322500	0,1	-0,023841
0,324167	0,1	-0,043107
0,325833	0,1	-0,015182
0,327500	0,1	0,003621
0,329167	0,1	0,016040
0,330833	0,1	0,017684
0,332500	0,1	-0,006266
0,334167	0,1	-0,008263
0,335833	0,1	0,025464
0,337500	0,1	0,007671
0,339167	0,1	0,014636
0,340833	0,1	0,008604
0,342500	0,1	-0,002462
0,344167	0,1	-0,023313
0,345833	0,1	0,022067
0,347500	0,1	0,010774
0,349167	0,1	0,037476
0,350833	0,1	0,027235
0,352500	0,1	0,031623
0,354167	0,1	0,022958
0,355833	0,1	0,008140
0,357500	0,1	-0,001934
0,359167	0,1	-0,007734
0,360833	0,1	0,024997
0,362500	0,1	0,030161
0,364167	0,1	0,008436
0,365833	0,1	0,009835
0,367500	0,1	0,018793
0,369167	0,1	0,005326
0,370833	0,1	0,008604
0,372500	0,1	0,042630
0,374167	0,1	0,011307
0,375833	0,1	0,043392
0,377500	0,1	0,008905
0,379167	0,1	0,042278
0,380833	0,1	0,002169
0,382500	0,1	-0,016052
0,384167	0,1	0,031731
0,385833	0,1	0,043865
0,387500	0,1	0,009141
0,389167	0,1	0,056452
0,390833	0,1	0,050547
0,392500	0,1	0,041058
0,394167	0,1	0,027644
0,395833	0,1	0,020205
0,397500	0,1	0,016746
0,399167	0,1	0,021138
0,400833	0,1	0,031154
0,402500	0,1	0,027350
0,404167	0,1	0,032501
0,405833	0,1	0,020617
0,407500	0,1	0,055106
0,409167	0,1	0,013653
0,410833	0,1	0,062602
0,412500	0,1	0,051954
0,414167	0,1	0,029346
0,415833	0,1	0,003279
0,417500	0,1	0,016976
0,419167	0,1	0,024242
0,420833	0,1	0,057275
0,422500	0,1	0,025424
0,424167	0,1	0,013879
0,425833	0,1	0,074490
0,427500	0,1	0,057462
0,429167	0,1	0,082408
0,430833	0,1	0,034213
0,432500	0,1	0,019621
0,434167	0,1	0,076015
0,435833	0,1	0,025603
0,437500	0,1	0,051945
0,439167	0,1	0,018278
0,440833	0,1	0,080816
0,442500	0,1	0,036437
0,444167	0,1	0,047790
0,445833	0,1	0,082582
0,447500	0,1	0,032632
0,449167	0,1	0,040878
0,450833	0,1	0,031568
0,452500	0,1	0,049605
0,454167	0,1	0,074500
0,455833	0,1	0,039660
0,457500	0,1	0,041992
0,459167	0,1	0,044512
0,460833	0,1	0,052828
0,462500	0,1	0,052303
0,464167	0,1	0,045801
0,465833	0,1	0,079243
0,467500	0,1	0,076380
0,469167	0,1	0,077082
0,470833	0,1	0,065839
0,472500	0,1	0,050550
0,474167	0,1	0,043343
0,475833	0,1	0,057864
0,477500	0,1	0,053416
0,479167	0,1	0,062085
0,480833	0,1	0,076553
0,482500	0,1	0,084404
0,484167	0,1	0,080832
0,485833	0,1	0,090966
0,487500	0,1	0,094481
0,489167	0,1	0,084173
0,490833	0,1	0,095476
0,492500	0,1	0,083882
0,494167	0,1	0,062735
0,495833	0,1	0,089379
0,497500	0,1	0,091551
0,499167	0,1	0,073807
0,500833	0,1	0,089323
0,502500	0,1	0,101628
0,504167	0,1	0,060338
0,505833	0,1	0,069583
0,507500	0,1	0,058692
0,509167	0,1	0,068176
0,510833	0,1	0,099923
0,512500	0,1	0,088158
0,514167	0,1	0,067715
0,515833	0,1	0,096175
0,517500	0,1	0,105787
0,519167	0,1	0,098703
0,520833	0,1	0,083824
0,522500	0,1	0,070819
0,524167	0,1	0,065367
0,525833	0,1	0,104492
0,527500	0,1	0,138591
0,529167	0,1	0,078270
0,530833	0,1	0,125287
0,532500	0,1	0,095486
0,534167	0,1	0,117150
0,535833	0,1	0,138359
0,537500	0,1	0,111479
0,539167	0,1	0,101223
0,540833	0,1	0,083239
0,542500	0,1	0,093425
0,544167	0,1	0,099930
0,545833	0,1	0,113814
0,547500	0,1	0,140468
0,549167	0,1	0,135261
0,550833	0,1	0,100584
0,552500	0,1	0,111997
0,554167	0,1	0,079902
0,555833	0,1	0,087744
0,557500	0,1	0,135363
0,559167	0,1	0,117454
0,560833	0,1	0,088691
0,562500	0,1	0,132962
0,564167	0,1	0,138540
0,565833	0,1	0,123839
0,567500	0,1	0,126295
0,569167	0,1	0,121553
0,570833	0,1	0,145507
0,572500	0,1	0,102051
0,574167	0,1	0,130447
0,575833	0,1	0,145388
0,577500	0,1	0,146684
0,579167	0,1	0,160978
0,580833	0,1	0,112423
0,582500	0,1	0,164368
0,584167	0,1	0,197010
0,585833	0,1	0,172761
0,587500	0,1	0,145578
0,589167	0,1	0,108318
0,590833	0,1	0,154525
0,592500	0,1	0,149381
0,594167	0,1	0,163143
0,595833	0,1	0,166019
0,597500	0,1	0,161980
0,599167	0,1	0,134739
0,600833	0,1	0,175270
0,602500	0,1	0,177797
0,604167	0,1	0,173927
0,605833	0,1	0,190626
0,607500	0,1	0,167318
0,609167	0,1	0,176975
0,610833	0,1	0,178792
0,612500	0,1	0,172643
0,614167	0,1	0,119513
0,615833	0,1	0,172397
0,617500	0,1	0,172818
0,619167	0,1	0,155829
0,620833	0,1	0,180253
0,622500	0,1	0,248682
0,624167	0,1	0,186251
0,625833	0,1	0,189458
0,627500	0,1	0,135508
0,629167	0,1	0,174857
0,630833	0,1	0,171884
0,632500	0,1	0,166374
0,634167	0,1	0,195137
0,635833	0,1	0,223793
0,637500	0,1	0,209269
0,639167	0,1	0,218577
0,640833	0,1	0,151506
0,642500	0,1	0,213353
0,644167	0,1	0,189171
0,645833	0,1	0,212068
0,647500	0,1	0,212723
0,649167	0,1	0,190578
0,650833	0,1	0,212718
0,652500	0,1	0,187182
0,654167	0,1	0,207208
0,655833	0,1	0,221688
0,657500	0,1	0,194918
0,659167	0,1	0,206215
0,660833	0,1	0,255139
0,662500	0,1	0,191114
0,664167	0,1	0,197957
0,665833	0,1	0,218463
0,667500	0,1	0,232644
0,669167	0,1	0,221699
0,670833	0,1	0,220637
0,672500	0,1	0,217298
0,674167	0,1	0,230535
0,675833	0,1	0,223627
0,677500	0,1	0,238038
0,679167	0,1	0,237745
0,680833	0,1	0,284848
0,682500	0,1	0,258384
0,684167	0,1	0,240857
0,685833	0,1	0,246653
0,687500	0,1	0,266928
0,689167	0,1	0,270275
0,690833	0,1	0,220999
0,692500	0,1	0,255968
0,694167	0,1	0,260426
0,695833	0,1	0,284156
0,697500	0,1	0,262132
0,699167	0,1	0,282693
0,700833	0,1	0,278067
0,702500	0,1	0,312056
0,704167	0,1	0,281888
0,705833	0,1	0,331801
0,707500	0,1	0,310660
0,709167	0,1	0,298300
0,710833	0,1	0,310716
0,712500	0,1	0,320611
0,714167	0,1	0,274615
0,715833	0,1	0,296406
0,717500	0,1	0,299638
0,719167	0,1	0,245740
0,720833	0,1	0,333321
0,722500	0,1	0,366924
0,724167	0,1	0,339211
0,725833	0,1	0,318815
0,727500	0,1	0,368509
0,729167	0,1	0,343890
0,730833	0,1	0,337165
0,732500	0,1	0,306686
0,734167	0,1	0,365163
0,735833	0,1	0,368512
0,737500	0,1	0,387908
0,739167	0,1	0,380536
0,740833	0,1	0,385863
0,742500	0,1	0,412823
0,744167	0,1	0,387754
0,745833	0,1	0,384284
0,747500	0,1	0,374553
0,749167	0,1	0,371438
0,750833	0,1	0,345950
0,752500	0,1	0,400632
0,754167	0,1	0,362082
0,755833	0,1	0,421783
0,757500	0,1	0,412771
0,759167	0,1	0,403923
0,760833	0,1	0,411357
0,762500	0,1	0,397820
0,764167	0,1	0,417880
0,765833	0,1	0,402110
0,767500	0,1	0,365822
0,769167	0,1	0,372680
0,770833	0,1	0,410534
0,772500	0,1	0,436213
0,774167	0,1	0,414365
0,775833	0,1	0,419975
0,777500	0,1	0,423036
0,779167	0,1	0,456446
0,780833	0,1	0,424395
0,782500	0,1	0,409384
0,784167	0,1	0,421925
0,785833	0,1	0,444074
0,787500	0,1	0,408504
0,789167	0,1	0,391906
0,790833	0,1	0,445165
0,792500	0,1	0,419181
0,794167	0,1	0,399945
0,795833	0,1	0,436976
0,797500	0,1	0,428773
0,799167	0,1	0,416478
0,800833	0,1	0,397236
0,802500	0,1	0,443130
0,804167	0,1	0,429600
0,805833	0,1	0,403171
0,807500	0,1	0,408891
0,809167	0,1	0,375209
0,810833	0,1	0,436102
0,812500	0,1	0,366783
0,814167	0,1	0,443596
0,815833	0,1	0,455271
0,817500	0,1	0,454278
0,819167	0,1	0,425390
0,820833	0,1	0,482813
0,822500	0,1	0,436883
0,824167	0,1	0,428199
0,825833	0,1	0,443611
0,827500	0,1	0,422104
0,829167	0,1	0,435348
0,830833	0,1	0,467057
0,832500	0,1	0,472981
0,834167	0,1	0,422532
0,835833	0,1	0,461612
0,837500	0,1	0,427971
0,839167	0,1	0,447470
0,840833	0,1	0,435765
0,842500	0,1	0,457626
0,844167	0,1	0,462024
0,845833	0,1	0,478429
0,847500	0,1	0,471460
0,849167	0,1	0,472296
0,850833	0,1	0,458350
0,852500	0,1	0,452937
0,854167	0,1	0,462728
0,855833	0,1	0,438358
0,857500	0,1	0,485125
0,859167	0,1	0,487240
0,860833	0,1	0,502355
0,862500	0,1	0,484484
0,864167	0,1	0,508633
0,865833	0,1	0,475982
0,867500	0,1	0,497677
0,869167	0,1	0,494337
0,870833	0,1	0,517492
0,872500	0,1	0,466191
0,874167	0,1	0,497836
0,875833	0,1	0,509451
0,877500	0,1	0,495287
0,879167	0,1	0,495344
0,880833	0,1	0,475929
0,882500	0,1	0,523685
0,884167	0,1	0,545694
0,885833	0,1	0,558234
0,887500	0,1	0,504730
0,889167	0,1	0,548512
0,890833	0,1	0,550275
0,892500	0,1	0,541358
0,894167	0,1	0,537144
0,895833	0,1	0,541438
0,897500	0,1	0,576889
0,899167	0,1	0,566224
0,900833	0,1	0,510427
0,902500	0,1	0,545471
0,904167	0,1	0,550214
0,905833	0,1	0,530758
0,907500	0,1	0,537675
0,909167	0,1	0,555493
0,910833	0,1	0,577122
0,912500	0,1	0,573221
0,914167	0,1	0,551814
0,915833	0,1	0,582184
0,917500	0,1	0,563780
0,919167	0,1	0,577965
0,920833	0,1	0,568926
0,922500	0,1	0,554393
0,924167	0,1	0,594440
0,925833	0,1	0,567663
0,927500	0,1	0,622352
0,929167	0,1	0,560028
0,930833	0,1	0,642795
0,932500	0,1	0,579798
0,934167	0,1	0,618714
0,935833	0,1	0,640182
0,937500	0,1	0,625290
0,939167	0,1	0,588361
0,940833	0,1	0,572386
0,942500	0,1	0,627988
0,944167	0,1	0,633734
0,945833	0,1	0,660413
0,947500	0,1	0,631757
0,949167	0,1	0,651287
0,950833	0,1	0,597398
0,952500	0,1	0,627153
0,954167	0,1	0,654606
0,955833	0,1	0,634676
0,957500	0,1	0,646099
0,959167	0,1	0,663119
0,960833	0,1	0,673277
0,962500	0,1	0,664967
0,964167	0,1	0,676932
0,965833	0,1	0,637445
0,967500	0,1	0,693025
0,969167	0,1	0,689581
0,970833	0,1	0,675232
0,972500	0,1	0,676167
0,974167	0,1	0,706645
0,975833	0,1	0,654870
0,977500	0,1	0,683904
0,979167	0,1	0,686876
0,980833	0,1	0,725065
0,982500	0,1	0,718024
0,984167	0,1	0,752650
0,985833	0,1	0,710257
0,987500	0,1	0,745656
0,989167	0,1	0,764025
0,990833	0,1	0,729924
0,992500	0,1	0,753668
0,994167	0,1	0,773952
0,995833	0,1	0,782513
0,997500	0,1	0,768028
0,999167	0,1	0,820462
1,000833	0,1	0,811980
1,002500	0,1	0,834423
1,004167	0,1	0,800446
1,005833	0,1	0,824156
1,007500	0,1	0,820202
1,009167	0,1	0,844894
1,010833	0,1	0,858433
1,012500	0,1	0,875573
1,014167	0,1	0,867559
1,015833	0,1	0,912989
1,017500	0,1	0,918601
1,019167	0,1	0,962853
1,020833	0,1	0,932668
1,022500	0,1	0,957817
1,024167	0,1	0,974898
1,025833	0,1	0,968967
1,027500	0,1	1,000537
1,029167	0,1	1,015708
1,030833	0,1	1,025357
1,032500	0,1	1,059683
1,034167	0,1	1,001936
1,035833	0,1	1,015000
1,037500	0,1	1,024042
1,039167	0,1	1,086046
1,040833	0,1	1,079299
1,042500	0,1	1,068257
1,044167	0,1	1,123371
1,045833	0,1	1,121346
1,047500	0,1	1,119306
1,049167	0,1	1,160551
1,050833	0,1	1,193727
1,052500	0,1	1,212785
1,054167	0,1	1,303913
1,055833	0,1	1,353136
1,057500	0,1	1,409333
1,059167	0,1	1,485933
1,060833	0,1	1,622315
1,062500	0,1	1,842072
1,064167	0,1	2,052120
1,065833	0,1	2,353356
1,067500	0,1	2,747017
1,069167	0,1	3,215243
1,070833	0,1	3,821736
1,072500	0,1	4,557031
1,074167	0,1	5,331214
1,075833	0,1	6,397231
1,077500	0,1	7,622912
1,079167	0,1	9,004215
1,080833	0,1	10,548443
1,082500	0,1	12,259413
1,084167	0,1	14,170967
1,085833	0,1	16,243807
1,087500	0,1	18,456139
1,089167	0,1	20,812908
1,090833	0,1	23,244286
1,092500	0,1	25,725915
1,094167	0,1	28,276054
1,095833	0,1	30,792652
1,097500	0,1	33,222243
1,099167	0,1	35,549399
1,100833	0,1	37,836386
1,102500	0,1	39,929855
1,104167	0,1	41,838679
1,105833	0,1	43,535159
1,107500	0,1	45,030146
1,109167	0,1	46,235450
1,110833	0,1	47,289173
1,112500	0,1	48,088411
1,114167	0,1	48,622786
1,115833	0,1	48,912769
1,117500	0,1	49,039096
1,119167	0,1	48,952741
1,120833	0,1	48,644443
1,122500	0,1	48,202578
1,124167	0,1	47,608442
1,125833	0,1	46,833820
1,127500	0,1	45,951078
1,129167	0,1	44,994288
1,130833	0,1	43,923343
1,132500	0,1	42,803426
1,134167	0,1	41,611954
1,135833	0,1	40,357860
1,137500	0,1	39,178398
1,139167	0,1	37,887157
1,140833	0,1	36,588276
1,142500	0,1	35,439085
1,144167	0,1	34,226388
1,145833	0,1	33,008955
1,147500	0,1	31,946480
1,149167	0,1	30,841849
1,150833	0,1	29,708758
1,152500	0,1	28,764333
1,154167	0,1	27,799633
1,155833	0,1	26,987456
1,157500	0,1	26,195825
1,159167	0,1	25,411119
1,160833	0,1	24,726206
1,162500	0,1	24,033375
1,164167	0,1	23,451861
1,165833	0,1	22,871189
1,167500	0,1	22,344875
1,169167	0,1	21,835189
1,170833	0,1	21,415615
1,172500	0,1	20,991441
1,174167	0,1	20,562031
1,175833	0,1	20,252595
1,177500	0,1	19,857666
1,179167	0,1	19,566529
1,180833	0,1	19,298100
1,182500	0,1	19,016755
1,184167	0,1	18,743635
1,185833	0,1	18,558733
1,187500	0,1	18,435376
1,189167	0,1	18,317734
1,190833	0,1	18,279693
1,192500	0,1	18,321587
1,194167	0,1	18,463529
1,195833	0,1	18,733977
1,197500	0,1	19,141863
1,199167	0,1	19,656461
1,200833	0,1	20,351755
1,202500	0,1	21,288161
1,204167	0,1	22,509381
1,205833	0,1	23,881127
1,207500	0,1	25,545046
1,209167	0,1	27,514018
1,210833	0,1	29,733585
1,212500	0,1	32,241305
1,214167	0,1	35,055137
1,215833	0,1	38,145359
1,217500	0,1	41,542760
1,219167	0,1	45,127692
1,220833	0,1	48,975306
1,222500	0,1	53,019846
1,224167	0,1	57,220007
1,225833	0,1	61,497810
1,227500	0,1	65,903356
1,229167	0,1	70,259944
1,230833	0,1	74,683445
1,232500	0,1	79,001768
1,234167	0,1	83,208601
1,235833	0,1	87,280723
1,237500	0,1	91,212150
1,239167	0,1	94,913397
1,240833	0,1	98,414895
1,242500	0,1	101,626173
1,244167	0,1	104,510141
1,245833	0,1	107,129759
1,247500	0,1	109,536767
1,249167	0,1	111,552444
1,250833	0,1	113,277533
1,252500	0,1	114,742335
1,254167	0,1	115,900521
1,255833	0,1	116,651066
1,257500	0,1	117,178206
1,259167	0,1	117,439565
1,260833	0,1	117,416925
1,262500	0,1	117,065633
1,264167	0,1	116,542106
1,265833	0,1	115,682380
1,267500	0,1	114,648667
1,269167	0,1	113,395829
1,270833	0,1	111,950275
1,272500	0,1	110,319656
1,274167	0,1	108,493798
1,275833	0,1	106,531436
1,277500	0,1	104,443890
1,279167	0,1	102,219917
1,280833	0,1	99,934156
1,282500	0,1	97,583855
1,284167	0,1	95,131386
1,285833	0,1	92,692249
1,287500	0,1	90,140671
1,289167	0,1	87,653884
1,290833	0,1	85,165619
1,292500	0,1	82,684081
1,294167	0,1	80,213638
1,295833	0,1	77,707843
1,297500	0,1	75,423405
1,299167	0,1	73,025802
1,300833	0,1	70,723623
1,302500	0,1	68,586847
1,304167	0,1	66,409896
1,305833	0,1	64,378449
1,307500	0,1	62,423452
1,309167	0,1	60,479048
1,310833	0,1	58,713781
1,312500	0,1	56,960837
1,314167	0,1	55,251779
1,315833	0,1	53,662384
1,317500	0,1	52,104883
1,319167	0,1	50,666055
1,320833	0,1	49,242782
1,322500	0,1	47,923259
1,324167	0,1	46,647945
1,325833	0,1	45,425156
1,327500	0,1	44,265267
1,329167	0,1	43,149574
1,330833	0,1	42,058274
1,332500	0,1	41,067011
1,334167	0,1	40,086285
1,335833	0,1	39,142349
1,337500	0,1	38,245509
1,339167	0,1	37,344222
1,340833	0,1	36,398274
1,342500	0,1	35,652493
1,344167	0,1	34,833773
1,345833	0,1	34,081089
1,347500	0,1	33,332999
1,349167	0,1	32,577636
1,350833	0,1	31,872776
1,352500	0,1	31,198168
1,354167	0,1	30,504418
1,355833	0,1	29,878259
1,357500	0,1	29,226568
1,359167	0,1	28,567672
1,360833	0,1	27,999591
1,362500	0,1	27,478285
1,364167	0,1	26,883377
1,365833	0,1	26,309703
1,367500	0,1	25,782182
1,369167	0,1	25,214002
1,370833	0,1	24,717380
1,372500	0,1	24,209247
1,374167	0,1	23,741220
1,375833	0,1	23,222074
1,377500	0,1	22,823378
1,379167	0,1	22,278869
1,380833	0,1	21,881161
1,382500	0,1	21,458105
1,384167	0,1	21,040450
1,385833	0,1	20,597080
1,387500	0,1	20,238097
1,389167	0,1	19,873411
1,390833	0,1	19,522793
1,392500	0,1	19,116105
1,394167	0,1	18,748852
1,395833	0,1	18,422777
1,397500	0,1	18,121991
1,399167	0,1	17,815231
1,400833	0,1	17,494098
1,402500	0,1	17,188205
1,404167	0,1	16,913863
1,405833	0,1	16,656437
1,407500	0,1	16,359691
1,409167	0,1	16,121436
1,410833	0,1	15,862632
1,412500	0,1	15,627594
1,414167	0,1	15,397643
1,415833	0,1	15,132941
1,417500	0,1	14,902472
1,419167	0,1	14,750307
1,420833	0,1	14,489227
1,422500	0,1	14,315251
1,424167	0,1	14,091187
1,425833	0,1	13,933979
1,427500	0,1	13,757235
1,429167	0,1	13,561886
1,430833	0,1	13,370770
1,432500	0,1	13,231082
1,434167	0,1	13,028594
1,435833	0,1	12,871657
1,437500	0,1	12,695348
1,439167	0,1	12,536792
1,440833	0,1	12,391903
1,442500	0,1	12,204154
1,444167	0,1	12,061194
1,445833	0,1	11,921052
1,447500	0,1	11,803291
1,449167	0,1	11,633966
1,450833	0,1	11,448986
1,452500	0,1	11,352171
1,454167	0,1	11,202538
1,455833	0,1	11,049680
1,457500	0,1	10,945632
1,459167	0,1	10,854303
1,460833	0,1	10,718147
1,462500	0,1	10,593693
1,464167	0,1	10,484613
1,465833	0,1	10,380091
1,467500	0,1	10,267687
1,469167	0,1	10,122546
1,470833	0,1	10,117378
1,472500	0,1	9,963334
1,474167	0,1	9,875534
1,475833	0,1	9,810749
1,477500	0,1	9,715519
1,479167	0,1	9,646237
1,480833	0,1	9,593739
1,482500	0,1	9,453787
1,484167	0,1	9,453351
1,485833	0,1	9,409627
1,487500	0,1	9,298231
1,489167	0,1	9,250267
1,490833	0,1	9,175708
1,492500	0,1	9,161334
1,494167	0,1	9,076174
1,495833	0,1	9,060927
1,497500	0,1	9,029601
1,499167	0,1	9,000278
1,500833	0,1	8,927744
1,502500	0,1	8,940415
1,504167	0,1	8,921056
1,505833	0,1	8,863046
1,507500	0,1	8,853240
1,509167	0,1	8,806117
1,510833	0,1	8,767899
1,512500	0,1	8,756435
1,514167	0,1	8,735122
1,515833	0,1	8,692473
1,517500	0,1	8,628746
1,519167	0,1	8,616137
1,520833	0,1	8,627304
1,522500	0,1	8,584128
1,524167	0,1	8,522084
1,525833	0,1	8,545072
1,527500	0,1	8,494207
1,529167	0,1	8,452805
1,530833	0,1	8,400184
1,532500	0,1	8,397994
1,534167	0,1	8,379894
1,535833	0,1	8,366187
1,537500	0,1	8,332621
1,539167	0,1	8,283918
1,540833	0,1	8,276594
1,542500	0,1	8,248072
1,544167	0,1	8,187781
1,545833	0,1	8,148669
1,547500	0,1	8,179783
1,549167	0,1	8,135242
1,550833	0,1	8,153236
1,552500	0,1	8,104395
1,554167	0,1	8,060234
1,555833	0,1	8,003136
1,557500	0,1	8,016622
1,559167	0,1	7,951204
1,560833	0,1	7,952780
1,562500	0,1	7,938253
1,564167	0,1	7,936843
1,565833	0,1	7,883240
1,567500	0,1	7,822234
1,569167	0,1	7,806573
1,570833	0,1	7,779961
1,572500	0,1	7,786327
1,574167	0,1	7,722066
1,575833	0,1	7,715217
1,577500	0,1	7,709309
1,579167	0,1	7,648227
1,580833	0,1	7,647477
1,582500	0,1	7,576957
1,584167	0,1	7,594168
1,585833	0,1	7,551191
1,587500	0,1	7,500434
1,589167	0,1	7,505854
1,590833	0,1	7,513738
1,592500	0,1	7,402406
1,594167	0,1	7,451726
1,595833	0,1	7,439022
1,597500	0,1	7,393885
1,599167	0,1	7,354930
1,600833	0,1	7,328176
1,602500	0,1	7,332356
1,604167	0,1	7,301786
1,605833	0,1	7,253763
1,607500	0,1	7,196380
1,609167	0,1	7,241869
1,610833	0,1	7,189375
1,612500	0,1	7,150704
1,614167	0,1	7,158869
1,615833	0,1	7,106745
1,617500	0,1	7,107003
1,619167	0,1	7,089248
1,620833	0,1	7,054106
1,622500	0,1	7,044136
1,624167	0,1	7,015137
1,625833	0,1	6,987368
1,627500	0,1	7,002519
1,629167	0,1	6,963992
1,630833	0,1	6,888702
1,632500	0,1	6,934824
1,634167	0,1	6,859826
1,635833	0,1	6,853385
1,637500	0,1	6,841946
1,639167	0,1	6,823159
1,640833	0,1	6,841388
1,642500	0,1	6,794864
1,644167	0,1	6,751073
1,645833	0,1	6,760503
1,647500	0,1	6,733417
1,649167	0,1	6,704080
1,650833	0,1	6,671279
1,652500	0,1	6,653238
1,654167	0,1	6,650052
1,655833	0,1	6,599585
1,657500	0,1	6,605526
1,659167	0,1	6,561692
1,660833	0,1	6,583741
1,662500	0,1	6,554337
1,664167	0,1	6,557903
1,665833	0,1	6,569236
1,667500	0,1	6,543736
1,669167	0,1	6,504893
1,670833	0,1	6,496364
1,672500	0,1	6,523886
1,674167	0,1	6,537955
1,675833	0,1	6,523614
1,677500	0,1	6,513149
1,679167	0,1	6,508938
1,680833	0,1	6,522190
1,682500	0,1	6,517095
1,684167	0,1	6,529098
1,685833	0,1	6,503757
1,687500	0,1	6,537688
1,689167	0,1	6,554501
1,690833	0,1	6,542209
1,692500	0,1	6,579461
1,694167	0,1	6,577136
1,695833	0,1	6,620935
1,697500	0,1	6,668572
1,699167	0,1	6,660910
1,700833	0,1	6,697345
1,702500	0,1	6,722369
1,704167	0,1	6,713605
1,705833	0,1	6,737615
1,707500	0,1	6,791761
1,709167	0,1	6,781128
1,710833	0,1	6,793734
1,712500	0,1	6,847020
1,714167	0,1	6,845603
1,715833	0,1	6,873934
1,717500	0,1	6,871340
1,719167	0,1	6,892323
1,720833	0,1	6,939748
1,722500	0,1	6,909104
1,724167	0,1	6,939500
1,725833	0,1	6,957907
1,727500	0,1	6,981055
1,729167	0,1	6,958303
1,730833	0,1	6,962314
1,732500	0,1	6,982325
1,734167	0,1	6,977643
1,735833	0,1	6,995420
1,737500	0,1	6,986631
1,739167	0,1	7,003126
1,740833	0,1	6,964365
1,742500	0,1	6,965369
1,744167	0,1	6,929874
1,745833	0,1	6,938403
1,747500	0,1	6,889381
1,749167	0,1	6,916037
1,750833	0,1	6,838067
1,752500	0,1	6,821302
1,754167	0,1	6,799229
1,755833	0,1	6,741507
1,757500	0,1	6,782797
1,759167	0,1	6,721682
1,760833	0,1	6,661082
1,762500	0,1	6,583217
1,764167	0,1	6,643406
1,765833	0,1	6,564463
1,767500	0,1	6,498227
1,769167	0,1	6,438085
1,770833	0,1	6,403335
1,772500	0,1	6,395549
1,774167	0,1	6,347871
1,775833	0,1	6,321417
1,777500	0,1	6,226554
1,779167	0,1	6,231070
1,780833	0,1	6,129603
1,782500	0,1	6,099469
1,784167	0,1	6,074357
1,785833	0,1	5,991714
1,787500	0,1	5,976163
1,789167	0,1	5,919717
1,790833	0,1	5,862162
1,792500	0,1	5,830642
1,794167	0,1	5,762262
1,795833	0,1	5,735717
1,797500	0,1	5,666665
1,799167	0,1	5,667504
1,800833	0,1	5,624552
1,802500	0,1	5,565570
1,804167	0,1	5,512962
1,805833	0,1	5,470384
1,807500	0,1	5,395827
1,809167	0,1	5,357450
1,810833	0,1	5,331521
1,812500	0,1	5,286277
1,814167	0,1	5,270700
1,815833	0,1	5,222085
1,817500	0,1	5,145074
1,819167	0,1	5,128801
1,820833	0,1	5,102724
1,822500	0,1	5,014785
1,824167	0,1	5,029954
1,825833	0,1	5,000029
1,827500	0,1	4,960278
1,829167	0,1	4,918206
1,830833	0,1	4,888667
1,832500	0,1	4,892042
1,834167	0,1	4,804760
1,835833	0,1	4,843454
1,837500	0,1	4,882099
1,839167	0,1	4,850306
1,840833	0,1	4,877668
1,842500	0,1	4,864155
1,844167	0,1	4,901693
1,845833	0,1	4,930240
1,847500	0,1	4,950971
1,849167	0,1	4,957365
1,850833	0,1	5,008431
1,852500	0,1	5,056876
1,854167	0,1	5,145480
1,855833	0,1	5,194676
1,857500	0,1	5,217586
1,859167	0,1	5,248437
1,860833	0,1	5,327709
1,862500	0,1	5,396563
1,864167	0,1	5,440848
1,865833	0,1	5,490846
1,867500	0,1	5,555967
1,869167	0,1	5,615690
1,870833	0,1	5,660763
1,872500	0,1	5,689656
1,874167	0,1	5,763934
1,875833	0,1	5,839083
1,877500	0,1	5,834954
1,879167	0,1	5,884655
1,880833	0,1	5,950499
1,882500	0,1	5,981207
1,884167	0,1	6,008133
1,885833	0,1	6,029949
1,887500	0,1	6,115551
1,889167	0,1	6,125060
1,890833	0,1	6,171467
1,892500	0,1	6,234350
1,894167	0,1	6,250874
1,895833	0,1	6,240681
1,897500	0,1	6,280628
1,899167	0,1	6,321881
1,900833	0,1	6,371803
1,902500	0,1	6,393841
1,904167	0,1	6,400644
1,905833	0,1	6,386918
1,907500	0,1	6,481839
1,909167	0,1	6,478288
1,910833	0,1	6,446426
1,912500	0,1	6,463199
1,914167	0,1	6,507991
1,915833	0,1	6,480865
1,917500	0,1	6,504593
1,919167	0,1	6,476704
1,920833	0,1	6,502064
1,922500	0,1	6,456174
1,924167	0,1	6,487173
1,925833	0,1	6,425880
1,927500	0,1	6,422312
1,929167	0,1	6,453540
1,930833	0,1	6,376299
1,932500	0,1	6,409687
1,934167	0,1	6,357072
1,935833	0,1	6,371811
1,937500	0,1	6,324950
1,939167	0,1	6,272089
1,940833	0,1	6,293508
1,942500	0,1	6,192906
1,944167	0,1	6,260517
1,945833	0,1	6,206162
1,947500	0,1	6,169330
1,949167	0,1	6,130610
1,950833	0,1	6,095267
1,952500	0,1	6,059816
1,954167	0,1	6,034958
1,955833	0,1	6,027426
1,957500	0,1	5,989318
1,959167	0,1	5,959778
1,960833	0,1	5,919742
1,962500	0,1	5,891881
1,964167	0,1	5,838084
1,965833	0,1	5,834491
1,967500	0,1	5,769863
1,969167	0,1	5,771385
1,970833	0,1	5,779808
1,972500	0,1	5,718351
1,974167	0,1	5,684316
1,975833	0,1	5,604309
1,977500	0,1	5,639026
1,979167	0,1	5,589680
1,980833	0,1	5,566809
1,982500	0,1	5,511385
1,984167	0,1	5,517610
1,985833	0,1	5,502976
1,987500	0,1	5,467416
1,989167	0,1	5,438264
1,990833	0,1	5,437231
1,992500	0,1	5,404050
1,994167	0,1	5,405877
1,995833	0,1	5,381095
1,997500	0,1	5,389155
1,999167	0,1	5,297341
2,000833	0,1	5,293523
2,002500	0,1	5,345568
2,004167	0,1	5,299727
2,005833	0,1	5,250129
2,007500	0,1	5,283690
2,009167	0,1	5,249021
2,010833	0,1	5,197185
2,012500	0,1	5,293008
2,014167	0,1	5,236473
2,015833	0,1	5,206634
2,017500	0,1	5,226510
2,019167	0,1	5,235684
2,020833	0,1	5,199505
2,022500	0,1	5,210211
2,024167	0,1	5,182835
2,025833	0,1	5,226097
2,027500	0,1	5,182555
2,029167	0,1	5,178307
2,030833	0,1	5,181849
2,032500	0,1	5,186658
2,034167	0,1	5,175170
2,035833	0,1	5,173580
2,037500	0,1	5,191056
2,039167	0,1	5,181406
2,040833	0,1	5,183033
2,042500	0,1	5,181850
2,044167	0,1	5,227035
2,045833	0,1	5,200765
2,047500	0,1	5,183037
2,049167	0,1	5,239461
2,050833	0,1	5,210507
2,052500	0,1	5,216325
2,054167	0,1	5,214169
2,055833	0,1	5,263509
2,057500	0,1	5,249466
2,059167	0,1	5,264085
2,060833	0,1	5,242703
2,062500	0,1	5,277496
2,064167	0,1	5,266014
2,065833	0,1	5,265804
2,067500	0,1	5,315319
2,069167	0,1	5,333990
2,070833	0,1	5,282000
2,072500	0,1	5,307458
2,074167	0,1	5,339006
2,075833	0,1	5,345288
2,077500	0,1	5,345576
2,079167	0,1	5,379522
2,080833	0,1	5,369508
2,082500	0,1	5,389850
2,084167	0,1	5,416505
2,085833	0,1	5,352930
2,087500	0,1	5,355359
2,089167	0,1	5,369584
2,090833	0,1	5,375951
2,092500	0,1	5,379049
2,094167	0,1	5,388301
2,095833	0,1	5,424532
2,097500	0,1	5,432984
2,099167	0,1	5,385699
2,100833	0,1	5,378316
2,102500	0,1	5,398324
2,104167	0,1	5,404940
2,105833	0,1	5,433502
2,107500	0,1	5,410893
2,109167	0,1	5,405721
2,110833	0,1	5,387939
2,112500	0,1	5,386594
2,114167	0,1	5,411527
2,115833	0,1	5,453649
2,117500	0,1	5,402298
2,119167	0,1	5,399064
2,120833	0,1	5,392262
2,122500	0,1	5,416348
2,124167	0,1	5,375432
2,125833	0,1	5,377790
2,127500	0,1	5,379530
2,129167	0,1	5,355490
2,130833	0,1	5,341753
2,132500	0,1	5,357970
2,134167	0,1	5,340367
2,135833	0,1	5,376020
2,137500	0,1	5,358954
2,139167	0,1	5,360044
2,140833	0,1	5,327809
2,142500	0,1	5,335877
2,144167	0,1	5,306897
2,145833	0,1	5,337701
2,147500	0,1	5,290679
2,149167	0,1	5,291852
2,150833	0,1	5,269152
2,152500	0,1	5,268331
2,154167	0,1	5,246534
2,155833	0,1	5,259241
2,157500	0,1	5,244940
2,159167	0,1	5,270000
2,160833	0,1	5,259204
2,162500	0,1	5,227745
2,164167	0,1	5,205860
2,165833	0,1	5,204182
2,167500	0,1	5,196034
2,169167	0,1	5,187476
2,170833	0,1	5,167879
2,172500	0,1	5,197736
2,174167	0,1	5,161403
2,175833	0,1	5,154060
2,177500	0,1	5,154468
2,179167	0,1	5,122691
2,180833	0,1	5,134377
2,182500	0,1	5,094661
2,184167	0,1	5,105856
2,185833	0,1	5,133762
2,187500	0,1	5,127086
2,189167	0,1	5,058002
2,190833	0,1	5,104908
2,192500	0,1	5,110626
2,194167	0,1	5,061296
2,195833	0,1	5,062588
2,197500	0,1	5,090409
2,199167	0,1	5,030421
2,200833	0,1	5,077210
2,202500	0,1	5,044144
2,204167	0,1	5,032445
2,205833	0,1	5,059692
2,207500	0,1	5,011149
2,209167	0,1	5,049547
2,210833	0,1	5,006666
2,212500	0,1	5,036307
2,214167	0,1	5,067067
2,215833	0,1	5,024835
2,217500	0,1	5,015741
2,219167	0,1	5,031948
2,220833	0,1	5,067026
2,222500	0,1	5,037463
2,224167	0,1	5,021776
2,225833	0,1	5,056103
2,227500	0,1	5,050493
2,229167	0,1	5,069106
2,230833	0,1	5,108703
2,232500	0,1	5,074253
2,234167	0,1	5,094690
2,235833	0,1	5,100028
2,237500	0,1	5,120642
2,239167	0,1	5,118816
2,240833	0,1	5,137267
2,242500	0,1	5,112583
2,244167	0,1	5,128874
2,245833	0,1	5,128716
2,247500	0,1	5,119467
2,249167	0,1	5,151934
2,250833	0,1	5,161311
2,252500	0,1	5,176794
2,254167	0,1	5,180261
2,255833	0,1	5,166818
2,257500	0,1	5,174187
2,259167	0,1	5,168934
2,260833	0,1	5,162373
2,262500	0,1	5,165836
2,264167	0,1	5,192846
2,265833	0,1	5,145801
2,267500	0,1	5,191864
2,269167	0,1	5,158021
2,270833	0,1	5,154754
2,272500	0,1	5,156994
2,274167	0,1	5,150599
2,275833	0,1	5,164814
2,277500	0,1	5,135366
2,279167	0,1	5,124523
2,280833	0,1	5,087125
2,282500	0,1	5,089598
2,284167	0,1	5,097179
2,285833	0,1	5,111438
2,287500	0,1	5,072012
2,289167	0,1	5,027320
2,290833	0,1	5,022305
2,292500	0,1	5,007069
2,294167	0,1	4,991918
2,295833	0,1	4,985686
2,297500	0,1	4,951395
2,299167	0,1	4,943201
2,300833	0,1	4,929107
2,302500	0,1	4,912052
2,304167	0,1	4,912859
2,305833	0,1	4,852531
2,307500	0,1	4,877461
2,309167	0,1	4,832443
2,310833	0,1	4,819614
2,312500	0,1	4,821689
2,314167	0,1	4,738887
2,315833	0,1	4,763344
2,317500	0,1	4,750674
2,319167	0,1	4,763472
2,320833	0,1	4,725850
2,322500	0,1	4,731512
2,324167	0,1	4,666114
2,325833	0,1	4,658681
2,327500	0,1	4,649596
2,329167	0,1	4,591307
2,330833	0,1	4,592752
2,332500	0,1	4,580621
2,334167	0,1	4,583321
2,335833	0,1	4,513081
2,337500	0,1	4,506736
2,339167	0,1	4,508216
2,340833	0,1	4,446811
2,342500	0,1	4,445884
2,344167	0,1	4,433259
2,345833	0,1	4,432397
2,347500	0,1	4,393825
2,349167	0,1	4,372787
2,350833	0,1	4,371297
2,352500	0,1	4,366144
2,354167	0,1	4,334813
2,355833	0,1	4,335378
2,357500	0,1	4,305089
2,359167	0,1	4,280873
2,360833	0,1	4,246634
2,362500	0,1	4,264311
2,364167	0,1	4,291875
2,365833	0,1	4,232481
2,367500	0,1	4,237879
2,369167	0,1	4,221388
2,370833	0,1	4,258946
2,372500	0,1	4,216156
2,374167	0,1	4,215684
2,375833	0,1	4,220545
2,377500	0,1	4,225330
2,379167	0,1	4,265748
2,380833	0,1	4,281468
2,382500	0,1	4,247801
2,384167	0,1	4,276284
2,385833	0,1	4,325551
2,387500	0,1	4,317571
2,389167	0,1	4,363816
2,390833	0,1	4,446436
2,392500	0,1	4,439376
2,394167	0,1	4,479828
2,395833	0,1	4,543984
2,397500	0,1	4,618386
2,399167	0,1	4,658925
2,400833	0,1	4,700588
2,402500	0,1	4,789304
2,404167	0,1	4,854443
2,405833	0,1	4,988301
2,407500	0,1	5,067420
2,409167	0,1	5,168867
2,410833	0,1	5,308809
2,412500	0,1	5,396021
2,414167	0,1	5,546798
2,415833	0,1	5,697160
2,417500	0,1	5,819021
2,419167	0,1	5,988444
2,420833	0,1	6,121449
2,422500	0,1	6,303582
2,424167	0,1	6,462554
2,425833	0,1	6,690278
2,427500	0,1	6,825370
2,429167	0,1	6,993985
2,430833	0,1	7,233950
2,432500	0,1	7,457872
2,434167	0,1	7,610259
2,435833	0,1	7,838470
2,437500	0,1	8,044322
2,439167	0,1	8,309339
2,440833	0,1	8,482966
2,442500	0,1	8,699165
2,444167	0,1	8,920076
2,445833	0,1	9,155635
2,447500	0,1	9,361764
2,449167	0,1	9,586048
2,450833	0,1	9,761356
2,452500	0,1	10,011856
2,454167	0,1	10,211364
2,455833	0,1	10,451107
2,457500	0,1	10,660704
2,459167	0,1	10,848094
2,460833	0,1	11,059843
2,462500	0,1	11,264223
2,464167	0,1	11,476237
2,465833	0,1	11,662172
2,467500	0,1	11,868201
2,469167	0,1	12,096638
2,470833	0,1	12,303044
2,472500	0,1	12,529290
2,474167	0,1	12,754859
2,475833	0,1	13,003103
2,477500	0,1	13,217041
2,479167	0,1	13,509804
2,480833	0,1	13,759100
2,482500	0,1	14,083491
2,484167	0,1	14,358455
2,485833	0,1	14,704658
2,487500	0,1	15,028954
2,489167	0,1	15,409170
2,490833	0,1	15,766675
2,492500	0,1	16,257181
2,494167	0,1	16,674219
2,495833	0,1	17,206754
2,497500	0,1	17,694049
2,499167	0,1	18,297824
2,500833	0,1	18,935139
2,502500	0,1	19,562876
2,504167	0,1	20,273914
2,505833	0,1	21,002780
2,507500	0,1	21,834320
2,509167	0,1	22,667223
2,510833	0,1	23,536799
2,512500	0,1	24,514429
2,514167	0,1	25,507890
2,515833	0,1	26,586292
2,517500	0,1	27,669602
2,519167	0,1	28,861110
2,520833	0,1	30,100251
2,522500	0,1	31,312372
2,524167	0,1	32,667317
2,525833	0,1	34,012271
2,527500	0,1	35,505213
2,529167	0,1	36,896414
2,530833	0,1	38,401162
2,532500	0,1	39,978176
2,534167	0,1	41,576010
2,535833	0,1	43,229707
2,537500	0,1	44,877906
2,539167	0,1	46,586789
2,540833	0,1	48,330817
2,542500	0,1	50,038322
2,544167	0,1	51,772676
2,545833	0,1	53,549319
2,547500	0,1	55,338200
2,549167	0,1	57,097656
2,550833	0,1	58,867553
2,552500	0,1	60,584707
2,554167	0,1	62,297878
2,555833	0,1	64,062737
2,557500	0,1	65,752564
2,559167	0,1	67,406874
2,560833	0,1	69,093541
2,562500	0,1	70,646553
2,564167	0,1	72,233837
2,565833	0,1	73,766856
2,567500	0,1	75,248468
2,569167	0,1	76,643785
2,570833	0,1	78,066744
2,572500	0,1	79,352433
2,574167	0,1	80,612357
2,575833	0,1	81,868766
2,577500	0,1	82,980478
2,579167	0,1	84,057782
2,580833	0,1	85,075089
2,582500	0,1	85,997047
2,584167	0,1	86,922967
2,585833	0,1	87,747448
2,587500	0,1	88,545946
2,589167	0,1	89,223369
2,590833	0,1	89,848805
2,592500	0,1	90,438585
2,594167	0,1	90,894222
2,595833	0,1	91,418042
2,597500	0,1	91,797533
2,599167	0,1	92,098422
2,600833	0,1	92,369358
2,602500	0,1	92,631032
2,604167	0,1	92,766512
2,605833	0,1	92,850250
2,607500	0,1	92,890294
2,609167	0,1	92,851017
2,610833	0,1	92,814220
2,612500	0,1	92,732207
2,614167	0,1	92,531335
2,615833	0,1	92,360137
2,617500	0,1	92,161333
2,619167	0,1	91,817942
2,620833	0,1	91,516910
2,622500	0,1	91,135344
2,624167	0,1	90,657460
2,625833	0,1	90,230853
2,627500	0,1	89,773747
2,629167	0,1	89,232864
2,630833	0,1	88,648901
2,632500	0,1	88,030006
2,634167	0,1	87,446609
2,635833	0,1	86,756080
2,637500	0,1	86,091884
2,639167	0,1	85,341419
2,640833	0,1	84,584907
2,642500	0,1	83,829840
2,644167	0,1	83,056130
2,645833	0,1	82,217411
2,647500	0,1	81,405524
2,649167	0,1	80,503914
2,650833	0,1	79,597686
2,652500	0,1	78,733311
2,654167	0,1	77,765421
2,655833	0,1	76,831499
2,657500	0,1	75,888843
2,659167	0,1	74,943225
2,660833	0,1	73,992240
2,662500	0,1	73,009095
2,664167	0,1	71,978779
2,665833	0,1	70,989192
2,667500	0,1	69,952100
2,669167	0,1	68,924868
2,670833	0,1	67,869956
2,672500	0,1	66,871904
2,674167	0,1	65,798577
2,675833	0,1	64,776311
2,677500	0,1	63,717291
2,679167	0,1	62,661975
2,680833	0,1	61,655690
2,682500	0,1	60,658154
2,684167	0,1	59,623451
2,685833	0,1	58,574085
2,687500	0,1	57,566831
2,689167	0,1	56,543676
2,690833	0,1	55,561899
2,692500	0,1	54,528435
2,694167	0,1	53,533950
2,695833	0,1	52,617983
2,697500	0,1	51,639705
2,699167	0,1	50,639596
2,700833	0,1	49,672529
2,702500	0,1	48,755528
2,704167	0,1	47,839385
2,705833	0,1	46,922339
2,707500	0,1	46,075122
2,709167	0,1	45,131864
2,710833	0,1	44,285609
2,712500	0,1	43,394043
2,714167	0,1	42,605649
2,715833	0,1	41,731245
2,717500	0,1	40,902702
2,719167	0,1	40,132395
2,720833	0,1	39,358513
2,722500	0,1	38,600218
2,724167	0,1	37,788874
2,725833	0,1	37,093818
2,727500	0,1	36,358370
2,729167	0,1	35,640908
2,730833	0,1	34,962743
2,732500	0,1	34,273404
2,734167	0,1	33,626464
2,735833	0,1	33,013558
2,737500	0,1	32,361374
2,739167	0,1	31,690738
2,740833	0,1	31,096615
2,742500	0,1	30,503400
2,744167	0,1	29,959695
2,745833	0,1	29,405012
2,747500	0,1	28,827110
2,749167	0,1	28,285924
2,750833	0,1	27,756257
2,752500	0,1	27,267305
2,754167	0,1	26,707253
2,755833	0,1	26,295332
2,757500	0,1	25,738712
2,759167	0,1	25,308777
2,760833	0,1	24,857115
2,762500	0,1	24,377357
2,764167	0,1	23,957343
2,765833	0,1	23,503186
2,767500	0,1	23,101643
2,769167	0,1	22,695096
2,770833	0,1	22,310067
2,772500	0,1	21,962607
2,774167	0,1	21,514610
2,775833	0,1	21,185789
2,777500	0,1	20,777967
2,779167	0,1	20,422297
2,780833	0,1	20,073834
2,782500	0,1	19,774233
2,784167	0,1	19,393048
2,785833	0,1	19,087369
2,787500	0,1	18,717490
2,789167	0,1	18,412034
2,790833	0,1	18,172563
2,792500	0,1	17,856157
2,794167	0,1	17,524286
2,795833	0,1	17,229875
2,797500	0,1	16,928198
2,799167	0,1	16,649882
2,800833	0,1	16,374558
2,802500	0,1	16,117198
2,804167	0,1	15,866527
2,805833	0,1	15,598639
2,807500	0,1	15,306883
2,809167	0,1	15,079219
2,810833	0,1	14,829844
2,812500	0,1	14,603799
2,814167	0,1	14,336633
2,815833	0,1	14,117227
2,817500	0,1	13,885343
2,819167	0,1	13,640134
2,820833	0,1	13,482493
2,822500	0,1	13,243092
2,824167	0,1	12,999785
2,825833	0,1	12,810619
2,827500	0,1	12,616473
2,829167	0,1	12,407806
2,830833	0,1	12,219683
2,832500	0,1	12,061721
2,834167	0,1	11,859356
2,835833	0,1	11,689441
2,837500	0,1	11,480030
2,839167	0,1	11,280407
2,840833	0,1	11,111497
2,842500	0,1	10,954587
2,844167	0,1	10,820411
2,845833	0,1	10,606340
2,847500	0,1	10,487443
2,849167	0,1	10,320543
2,850833	0,1	10,137521
2,852500	0,1	9,965151
2,854167	0,1	9,860817
2,855833	0,1	9,704002
2,857500	0,1	9,597400
2,859167	0,1	9,415004
2,860833	0,1	9,295378
2,862500	0,1	9,149185
2,864167	0,1	9,024244
2,865833	0,1	8,910526
2,867500	0,1	8,789419
2,869167	0,1	8,696781
2,870833	0,1	8,588248
2,872500	0,1	8,467628
2,874167	0,1	8,375306
2,875833	0,1	8,230366
2,877500	0,1	8,141632
2,879167	0,1	8,028930
2,880833	0,1	7,937708
2,882500	0,1	7,831055
2,884167	0,1	7,690045
2,885833	0,1	7,654606
2,887500	0,1	7,544776
2,889167	0,1	7,467134
2,890833	0,1	7,349655
2,892500	0,1	7,263035
2,894167	0,1	7,203538
2,895833	0,1	7,089091
2,897500	0,1	7,035596
2,899167	0,1	6,941507
2,900833	0,1	6,849954
2,902500	0,1	6,836774
2,904167	0,1	6,724665
2,905833	0,1	6,646799
2,907500	0,1	6,546499
2,909167	0,1	6,473358
2,910833	0,1	6,425375
2,912500	0,1	6,378931
2,914167	0,1	6,291410
2,915833	0,1	6,254746
2,917500	0,1	6,189138
2,919167	0,1	6,142309
2,920833	0,1	6,081125
2,922500	0,1	6,020964
2,924167	0,1	5,942781
2,925833	0,1	5,878527
2,927500	0,1	5,824940
2,929167	0,1	5,779568
2,930833	0,1	5,722215
2,932500	0,1	5,672853
2,934167	0,1	5,624353
2,935833	0,1	5,552820
2,937500	0,1	5,524547
2,939167	0,1	5,496561
2,940833	0,1	5,418449
2,942500	0,1	5,398947
2,944167	0,1	5,348197
2,945833	0,1	5,272016
2,947500	0,1	5,255781
2,949167	0,1	5,179873
2,950833	0,1	5,191996
2,952500	0,1	5,118427
2,954167	0,1	5,074782
2,955833	0,1	5,078644
2,957500	0,1	5,016740
2,959167	0,1	4,995707
2,960833	0,1	4,960936
2,962500	0,1	4,911087
2,964167	0,1	4,888811
2,965833	0,1	4,814555
2,967500	0,1	4,817049
2,969167	0,1	4,776910
2,970833	0,1	4,675143
2,972500	0,1	4,697591
2,974167	0,1	4,686228
2,975833	0,1	4,626756
2,977500	0,1	4,612448
2,979167	0,1	4,579711
2,980833	0,1	4,547341
2,982500	0,1	4,496668
2,984167	0,1	4,494003
2,985833	0,1	4,479813
2,987500	0,1	4,411482
2,989167	0,1	4,394548
2,990833	0,1	4,388377
2,992500	0,1	4,334948
2,994167	0,1	4,349274
2,995833	0,1	4,318568
2,997500	0,1	4,282109
2,999167	0,1	4,226702
3,000833	0,1	4,251923
3,002500	0,1	4,176824
3,004167	0,1	4,152590
3,005833	0,1	4,199751
3,007500	0,1	4,124999
3,009167	0,1	4,086043
3,010833	0,1	4,109841
3,012500	0,1	4,026951
3,014167	0,1	4,009588
3,015833	0,1	4,027329
3,017500	0,1	3,992914
3,019167	0,1	3,949429
3,020833	0,1	3,972862
3,022500	0,1	3,945069
3,024167	0,1	3,921952
3,025833	0,1	3,899924
3,027500	0,1	3,867937
3,029167	0,1	3,900469
3,030833	0,1	3,867136
3,032500	0,1	3,815053
3,034167	0,1	3,827387
3,035833	0,1	3,781057
3,037500	0,1	3,789178
3,039167	0,1	3,745600
3,040833	0,1	3,733895
3,042500	0,1	3,701260
3,044167	0,1	3,665950
3,045833	0,1	3,673749
3,047500	0,1	3,652751
3,049167	0,1	3,611891
3,050833	0,1	3,611103
3,052500	0,1	3,596517
3,054167	0,1	3,597876
3,055833	0,1	3,516495
3,057500	0,1	3,543248
3,059167	0,1	3,533712
3,060833	0,1	3,495553
3,062500	0,1	3,497344
3,064167	0,1	3,469921
3,065833	0,1	3,429031
3,067500	0,1	3,408099
3,069167	0,1	3,439022
3,070833	0,1	3,407011
3,072500	0,1	3,348372
3,074167	0,1	3,361989
3,075833	0,1	3,367332
3,077500	0,1	3,344175
3,079167	0,1	3,314604
3,080833	0,1	3,279258
3,082500	0,1	3,297354
3,084167	0,1	3,252140
3,085833	0,1	3,254224
3,087500	0,1	3,274771
3,089167	0,1	3,262732
3,090833	0,1	3,238864
3,092500	0,1	3,221051
3,094167	0,1	3,201870
3,095833	0,1	3,192923
3,097500	0,1	3,154425
3,099167	0,1	3,184911
3,100833	0,1	3,175907
3,102500	0,1	3,176553
3,104167	0,1	3,165306
3,105833	0,1	3,167464
3,107500	0,1	3,153842
3,109167	0,1	3,156504
3,110833	0,1	3,124571
3,112500	0,1	3,134944
3,114167	0,1	3,156644
3,115833	0,1	3,122985
3,117500	0,1	3,112309
3,119167	0,1	3,146331
3,120833	0,1	3,105035
3,122500	0,1	3,125496
3,124167	0,1	3,170626
3,125833	0,1	3,135964
3,127500	0,1	3,128964
3,129167	0,1	3,142440
3,130833	0,1	3,150590
3,132500	0,1	3,148935
3,134167	0,1	3,145980
3,135833	0,1	3,153330
3,137500	0,1	3,168759
3,139167	0,1	3,166312
3,140833	0,1	3,172658
3,142500	0,1	3,175759
3,144167	0,1	3,170569
3,145833	0,1	3,159320
3,147500	0,1	3,149009
3,149167	0,1	3,187215
3,150833	0,1	3,129841
3,152500	0,1	3,175746
3,154167	0,1	3,178065
3,155833	0,1	3,175326
3,157500	0,1	3,179939
3,159167	0,1	3,227593
3,160833	0,1	3,198261
3,162500	0,1	3,204674
3,164167	0,1	3,211668
3,165833	0,1	3,173315
3,167500	0,1	3,195728
3,169167	0,1	3,163077
3,170833	0,1	3,189600
3,172500	0,1	3,171725
3,174167	0,1	3,190900
3,175833	0,1	3,180592
3,177500	0,1	3,185276
3,179167	0,1	3,161777
3,180833	0,1	3,150954
3,182500	0,1	3,200334
3,184167	0,1	3,229546
3,185833	0,1	3,173678
3,187500	0,1	3,140363
3,189167	0,1	3,156067
3,190833	0,1	3,173015
3,192500	0,1	3,151895
3,194167	0,1	3,151096
3,195833	0,1	3,100999
3,197500	0,1	3,189364
3,199167	0,1	3,117874
3,200833	0,1	3,127517
3,202500	0,1	3,089820
3,204167	0,1	3,079650
3,205833	0,1	3,049015
3,207500	0,1	3,064358
3,209167	0,1	3,028761
3,210833	0,1	3,054046
3,212500	0,1	3,025225
3,214167	0,1	3,027380
3,215833	0,1	3,019381
3,217500	0,1	3,001509
3,219167	0,1	2,967275
3,220833	0,1	2,964024
3,222500	0,1	2,962798
3,224167	0,1	2,930369
3,225833	0,1	2,924816
3,227500	0,1	2,870132
3,229167	0,1	2,873577
3,230833	0,1	2,878406
3,232500	0,1	2,848005
3,234167	0,1	2,833303
3,235833	0,1	2,855055
3,237500	0,1	2,777552
3,239167	0,1	2,799935
3,240833	0,1	2,748576
3,242500	0,1	2,755769
3,244167	0,1	2,706081
3,245833	0,1	2,710521
3,247500	0,1	2,722336
3,249167	0,1	2,647157
3,250833	0,1	2,699721
3,252500	0,1	2,671935
3,254167	0,1	2,660841
3,255833	0,1	2,566859
3,257500	0,1	2,667814
3,259167	0,1	2,621811
3,260833	0,1	2,569442
3,262500	0,1	2,573267
3,264167	0,1	2,549066
3,265833	0,1	2,501973
3,267500	0,1	2,515845
3,269167	0,1	2,502927
3,270833	0,1	2,500471
3,272500	0,1	2,432742
3,274167	0,1	2,450655
3,275833	0,1	2,448483
3,277500	0,1	2,388522
3,279167	0,1	2,368940
3,280833	0,1	2,416958
3,282500	0,1	2,320887
3,284167	0,1	2,377205
3,285833	0,1	2,362310
3,287500	0,1	2,312030
3,289167	0,1	2,335909
3,290833	0,1	2,301372
3,292500	0,1	2,270711
3,294167	0,1	2,282273
3,295833	0,1	2,257142
3,297500	0,1	2,277686
3,299167	0,1	2,227496
3,300833	0,1	2,204995
3,302500	0,1	2,188377
3,304167	0,1	2,233726
3,305833	0,1	2,235100
3,307500	0,1	2,195457
3,309167	0,1	2,206434
3,310833	0,1	2,165620
3,312500	0,1	2,170908
3,314167	0,1	2,198727
3,315833	0,1	2,179348
3,317500	0,1	2,145087
3,319167	0,1	2,171599
3,320833	0,1	2,171130
3,322500	0,1	2,161592
3,324167	0,1	2,159459
3,325833	0,1	2,159168
3,327500	0,1	2,103539
3,329167	0,1	2,111766
3,330833	0,1	2,136432
3,332500	0,1	2,116152
3,334167	0,1	2,142567
3,335833	0,1	2,117245
3,337500	0,1	2,088739
3,339167	0,1	2,113975
3,340833	0,1	2,096999
3,342500	0,1	2,142922
3,344167	0,1	2,127059
3,345833	0,1	2,142366
3,347500	0,1	2,108898
3,349167	0,1	2,137387
3,350833	0,1	2,096908
3,352500	0,1	2,106587
3,354167	0,1	2,083039
3,355833	0,1	2,081409
3,357500	0,1	2,118001
3,359167	0,1	2,116359
3,360833	0,1	2,154287
3,362500	0,1	2,158315
3,364167	0,1	2,142289
3,365833	0,1	2,136731
3,367500	0,1	2,103719
3,369167	0,1	2,137145
3,370833	0,1	2,125214
3,372500	0,1	2,134087
3,374167	0,1	2,100191
3,375833	0,1	2,121118
3,377500	0,1	2,130812
3,379167	0,1	2,140765
3,380833	0,1	2,095711
3,382500	0,1	2,130623
3,384167	0,1	2,056382
3,385833	0,1	2,126662
3,387500	0,1	2,125741
3,389167	0,1	2,157765
3,390833	0,1	2,116398
3,392500	0,1	2,105114
3,394167	0,1	2,113593
3,395833	0,1	2,111160
3,397500	0,1	2,110900
3,399167	0,1	2,104089
3,400833	0,1	2,101093
3,402500	0,1	2,108067
3,404167	0,1	2,107922
3,405833	0,1	2,075031
3,407500	0,1	2,079177
3,409167	0,1	2,100266
3,410833	0,1	2,093866
3,412500	0,1	2,078350
3,414167	0,1	2,081119
3,415833	0,1	2,064554
3,417500	0,1	2,099971
3,419167	0,1	2,107988
3,420833	0,1	2,094157
3,422500	0,1	2,075675
3,424167	0,1	2,077545
3,425833	0,1	2,087474
3,427500	0,1	2,094731
3,429167	0,1	2,082389
3,430833	0,1	2,070069
3,432500	0,1	2,087966
3,434167	0,1	2,057553
3,435833	0,1	2,076449
3,437500	0,1	2,079196
3,439167	0,1	2,075690
3,440833	0,1	2,077235
3,442500	0,1	2,089107
3,444167	0,1	2,052335
3,445833	0,1	2,065580
3,447500	0,1	2,069709
3,449167	0,1	2,045657
3,450833	0,1	2,104344
3,452500	0,1	2,103217
3,454167	0,1	2,110133
3,455833	0,1	2,107237
3,457500	0,1	2,067063
3,459167	0,1	2,125235
3,460833	0,1	2,156335
3,462500	0,1	2,101800
3,464167	0,1	2,142343
3,465833	0,1	2,130055
3,467500	0,1	2,150290
3,469167	0,1	2,146971
3,470833	0,1	2,198536
3,472500	0,1	2,169825
3,474167	0,1	2,197587
3,475833	0,1	2,163097
3,477500	0,1	2,221948
3,479167	0,1	2,201228
3,480833	0,1	2,241857
3,482500	0,1	2,262722
3,484167	0,1	2,269849
3,485833	0,1	2,285085
3,487500	0,1	2,337060
3,489167	0,1	2,313898
3,490833	0,1	2,298252
3,492500	0,1	2,335906
3,494167	0,1	2,323457
3,495833	0,1	2,323578
3,497500	0,1	2,366074
3,499167	0,1	2,379891
3,500833	0,1	2,399750
3,502500	0,1	2,405391
3,504167	0,1	2,404703
3,505833	0,1	2,408328
3,507500	0,1	2,392413
3,509167	0,1	2,453250
3,510833	0,1	2,451748
3,512500	0,1	2,453007
3,514167	0,1	2,479614
3,515833	0,1	2,444523
3,517500	0,1	2,485326
3,519167	0,1	2,496498
3,520833	0,1	2,503256
3,522500	0,1	2,516436
3,524167	0,1	2,531132
3,525833	0,1	2,570957
3,527500	0,1	2,534324
3,529167	0,1	2,542081
3,530833	0,1	2,538125
3,532500	0,1	2,520193
3,534167	0,1	2,552743
3,535833	0,1	2,598246
3,537500	0,1	2,519778
3,539167	0,1	2,592973
3,540833	0,1	2,545761
3,542500	0,1	2,582333
3,544167	0,1	2,570011
3,545833	0,1	2,581243
3,547500	0,1	2,585084
3,549167	0,1	2,605889
3,550833	0,1	2,619948
3,552500	0,1	2,568735
3,554167	0,1	2,576867
3,555833	0,1	2,606315
3,557500	0,1	2,562680
3,559167	0,1	2,575070
3,560833	0,1	2,568585
3,562500	0,1	2,571463
3,564167	0,1	2,542946
3,565833	0,1	2,551023
3,567500	0,1	2,550377
3,569167	0,1	2,533292
3,570833	0,1	2,501044
3,572500	0,1	2,545751
3,574167	0,1	2,519499
3,575833	0,1	2,502604
3,577500	0,1	2,484564
3,579167	0,1	2,502837
3,580833	0,1	2,454616
3,582500	0,1	2,510604
3,584167	0,1	2,446405
3,585833	0,1	2,491398
3,587500	0,1	2,446193
3,589167	0,1	2,428679
3,590833	0,1	2,428853
3,592500	0,1	2,410055
3,594167	0,1	2,434514
3,595833	0,1	2,393274
3,597500	0,1	2,339814
3,599167	0,1	2,352972
3,600833	0,1	2,321381
3,602500	0,1	2,333968
3,604167	0,1	2,320814
3,605833	0,1	2,312294
3,607500	0,1	2,297649
3,609167	0,1	2,328080
3,610833	0,1	2,270239
3,612500	0,1	2,272150
3,614167	0,1	2,276463
3,615833	0,1	2,264756
3,617500	0,1	2,220576
3,619167	0,1	2,199950
3,620833	0,1	2,211633
3,622500	0,1	2,160802
3,624167	0,1	2,180549
3,625833	0,1	2,155597
3,627500	0,1	2,170634
3,629167	0,1	2,138049
3,630833	0,1	2,097091
3,632500	0,1	2,109534
3,634167	0,1	2,086546
3,635833	0,1	2,062816
3,637500	0,1	2,083520
3,639167	0,1	2,049718
3,640833	0,1	2,060240
3,642500	0,1	2,026685
3,644167	0,1	2,019937
3,645833	0,1	2,021492
3,647500	0,1	2,002909
3,649167	0,1	2,028343
3,650833	0,1	1,991130
3,652500	0,1	1,937328
3,654167	0,1	1,953714
3,655833	0,1	1,922618
3,657500	0,1	1,886450
3,659167	0,1	1,877985
3,660833	0,1	1,909685
3,662500	0,1	1,875361
3,664167	0,1	1,869620
3,665833	0,1	1,844543
3,667500	0,1	1,832113
3,669167	0,1	1,820361
3,670833	0,1	1,828608
3,672500	0,1	1,787904
3,674167	0,1	1,806410
3,675833	0,1	1,765130
3,677500	0,1	1,773513
3,679167	0,1	1,725752
3,680833	0,1	1,771852
3,682500	0,1	1,746075
3,684167	0,1	1,735709
3,685833	0,1	1,713312
3,687500	0,1	1,726912
3,689167	0,1	1,698700
3,690833	0,1	1,680708
3,692500	0,1	1,673421
3,694167	0,1	1,674657
3,695833	0,1	1,659047
3,697500	0,1	1,646046
3,699167	0,1	1,633431
3,700833	0,1	1,646359
3,702500	0,1	1,570599
3,704167	0,1	1,641395
3,705833	0,1	1,639502
3,707500	0,1	1,600101
3,709167	0,1	1,604232
3,710833	0,1	1,585100
3,712500	0,1	1,539780
3,714167	0,1	1,589479
3,715833	0,1	1,574138
3,717500	0,1	1,570545
3,719167	0,1	1,546332
3,720833	0,1	1,565687
3,722500	0,1	1,497729
3,724167	0,1	1,505180
3,725833	0,1	1,523601
3,727500	0,1	1,548815
3,729167	0,1	1,503220
3,730833	0,1	1,528348
3,732500	0,1	1,507964
3,734167	0,1	1,491284
3,735833	0,1	1,527247
3,737500	0,1	1,474679
3,739167	0,1	1,485070
3,740833	0,1	1,474896
3,742500	0,1	1,530089
3,744167	0,1	1,472157
3,745833	0,1	1,474504
3,747500	0,1	1,481516
3,749167	0,1	1,481938
3,750833	0,1	1,455989
3,752500	0,1	1,460735
3,754167	0,1	1,469943
3,755833	0,1	1,417827
3,757500	0,1	1,468223
3,759167	0,1	1,431817
3,760833	0,1	1,454103
3,762500	0,1	1,443220
3,764167	0,1	1,468551
3,765833	0,1	1,411559
3,767500	0,1	1,449058
3,769167	0,1	1,450909
3,770833	0,1	1,458826
3,772500	0,1	1,481867
3,774167	0,1	1,455441
3,775833	0,1	1,426062
3,777500	0,1	1,445992
3,779167	0,1	1,457306
3,780833	0,1	1,426484
3,782500	0,1	1,399723
3,784167	0,1	1,389539
3,785833	0,1	1,395515
3,787500	0,1	1,401233
3,789167	0,1	1,426760
3,790833	0,1	1,383181
3,792500	0,1	1,382556
3,794167	0,1	1,422555
3,795833	0,1	1,388769
3,797500	0,1	1,413639
3,799167	0,1	1,416811
3,800833	0,1	1,383373
3,802500	0,1	1,369115
3,804167	0,1	1,391470
3,805833	0,1	1,383397
3,807500	0,1	1,408631
3,809167	0,1	1,383790
3,810833	0,1	1,361169
3,812500	0,1	1,369338
3,814167	0,1	1,329799
3,815833	0,1	1,366167
3,817500	0,1	1,363267
3,819167	0,1	1,337936
3,820833	0,1	1,328820
3,822500	0,1	1,354955
3,824167	0,1	1,361393
3,825833	0,1	1,365657
3,827500	0,1	1,348923
3,829167	0,1	1,358319
3,830833	0,1	1,295357
3,832500	0,1	1,340961
3,834167	0,1	1,349532
3,835833	0,1	1,308571
3,837500	0,1	1,327297
3,839167	0,1	1,306856
3,840833	0,1	1,337926
3,842500	0,1	1,297196
3,844167	0,1	1,285040
3,845833	0,1	1,300932
3,847500	0,1	1,249575
3,849167	0,1	1,303315
3,850833	0,1	1,255326
3,852500	0,1	1,238064
3,854167	0,1	1,282186
3,855833	0,1	1,253127
3,857500	0,1	1,254704
3,859167	0,1	1,277314
3,860833	0,1	1,227934
3,862500	0,1	1,233935
3,864167	0,1	1,249532
3,865833	0,1	1,256867
3,867500	0,1	1,227156
3,869167	0,1	1,250177
3,870833	0,1	1,213237
3,872500	0,1	1,241840
3,874167	0,1	1,202573
3,875833	0,1	1,191657
3,877500	0,1	1,230242
3,879167	0,1	1,218327
3,880833	0,1	1,208380
3,882500	0,1	1,179805
3,884167	0,1	1,237081
3,885833	0,1	1,189880
3,887500	0,1	1,152956
3,889167	0,1	1,204916
3,890833	0,1	1,155124
3,892500	0,1	1,179400
3,894167	0,1	1,147887
3,895833	0,1	1,192834
3,897500	0,1	1,135596
3,899167	0,1	1,163376
3,900833	0,1	1,166739
3,902500	0,1	1,154381
3,904167	0,1	1,118341
3,905833	0,1	1,111582
3,907500	0,1	1,110519
3,909167	0,1	1,124332
3,910833	0,1	1,132058
3,912500	0,1	1,100129
3,914167	0,1	1,138094
3,915833	0,1	1,123314
3,917500	0,1	1,119828
3,919167	0,1	1,070424
3,920833	0,1	1,054938
3,922500	0,1	1,069076
3,924167	0,1	1,052317
3,925833	0,1	1,058288
3,927500	0,1	1,082510
3,929167	0,1	1,103053
3,930833	0,1	1,099892
3,932500	0,1	1,059150
3,934167	0,1	1,061559
3,935833	0,1	1,058851
3,937500	0,1	1,041062
3,939167	0,1	1,068279
3,940833	0,1	1,061331
3,942500	0,1	1,044772
3,944167	0,1	1,051728
3,945833	0,1	1,058722
3,947500	0,1	1,090526
3,949167	0,1	1,019370
3,950833	0,1	1,054510
3,952500	0,1	1,039479
3,954167	0,1	1,028312
3,955833	0,1	1,015293
3,957500	0,1	1,028202
3,959167	0,1	1,007232
3,960833	0,1	1,036303
3,962500	0,1	0,970105
3,964167	0,1	0,992456
3,965833	0,1	1,027111
3,967500	0,1	0,989116
3,969167	0,1	1,003349
3,970833	0,1	0,976970
3,972500	0,1	1,014760
3,974167	0,1	0,999482
3,975833	0,1	0,962662
3,977500	0,1	0,972962
3,979167	0,1	1,012801
3,980833	0,1	1,012542
3,982500	0,1	0,959896
3,984167	0,1	1,023128
3,985833	0,1	0,979327
3,987500	0,1	0,980983
3,989167	0,1	1,025754
3,990833	0,1	1,016251
3,992500	0,1	0,986782
3,994167	0,1	0,978027
3,995833	0,1	1,020406
3,997500	0,1	1,005648
3,999167	0,1	0,983654
4,000833	0,1	0,995601
4,002500	0,1	0,988588
4,004167	0,1	1,044046
4,005833	0,1	0,975729
4,007500	0,1	1,024713
4,009167	0,1	1,023890
4,010833	0,1	1,031662
4,012500	0,1	1,004964
4,014167	0,1	0,994942
4,015833	0,1	0,988983
4,017500	0,1	0,995395
4,019167	0,1	1,068268
4,020833	0,1	1,004847
4,022500	0,1	1,052837
4,024167	0,1	1,010758
4,025833	0,1	1,012021
4,027500	0,1	0,997881
4,029167	0,1	0,972513
4,030833	0,1	1,001139
4,032500	0,1	1,047734
4,034167	0,1	1,004157
4,035833	0,1	1,019680
4,037500	0,1	1,043052
4,039167	0,1	1,012194
4,040833	0,1	1,040823
4,042500	0,1	1,041640
4,044167	0,1	1,064389
4,045833	0,1	1,034631
4,047500	0,1	1,059553
4,049167	0,1	1,059685
4,050833	0,1	1,086362
4,052500	0,1	1,098054
4,054167	0,1	1,070189
4,055833	0,1	1,080765
4,057500	0,1	1,061602
4,059167	0,1	1,089818
4,060833	0,1	1,107385
4,062500	0,1	1,125433
4,064167	0,1	1,135997
4,065833	0,1	1,092152
4,067500	0,1	1,163595
4,069167	0,1	1,149480
4,070833	0,1	1,160606
4,072500	0,1	1,158964
4,074167	0,1	1,172018
4,075833	0,1	1,171464
4,077500	0,1	1,144695
4,079167	0,1	1,210199
4,080833	0,1	1,212871
4,082500	0,1	1,168537
4,084167	0,1	1,232302
4,085833	0,1	1,218982
4,087500	0,1	1,229467
4,089167	0,1	1,260930
4,090833	0,1	1,250929
4,092500	0,1	1,242750
4,094167	0,1	1,328257
4,095833	0,1	1,301460
4,097500	0,1	1,299254
4,099167	0,1	1,343511
4,100833	0,1	1,322655
4,102500	0,1	1,315410
4,104167	0,1	1,336022
4,105833	0,1	1,362710
4,107500	0,1	1,395992
4,109167	0,1	1,382722
4,110833	0,1	1,406981
4,112500	0,1	1,426115
4,114167	0,1	1,424538
4,115833	0,1	1,467511
4,117500	0,1	1,452593
4,119167	0,1	1,465839
4,120833	0,1	1,468392
4,122500	0,1	1,517190
4,124167	0,1	1,539018
4,125833	0,1	1,543252
4,127500	0,1	1,555119
4,129167	0,1	1,527393
4,130833	0,1	1,581196
4,132500	0,1	1,556231
4,134167	0,1	1,602275
4,135833	0,1	1,599157
4,137500	0,1	1,620329
4,139167	0,1	1,620007
4,140833	0,1	1,673866
4,142500	0,1	1,645207
4,144167	0,1	1,667435
4,145833	0,1	1,669633
4,147500	0,1	1,681692
4,149167	0,1	1,707055
4,150833	0,1	1,731371
4,152500	0,1	1,752282
4,154167	0,1	1,775541
4,155833	0,1	1,751949
4,157500	0,1	1,708011
4,159167	0,1	1,778000
4,160833	0,1	1,744453
4,162500	0,1	1,775514
4,164167	0,1	1,823538
4,165833	0,1	1,804637
4,167500	0,1	1,768653
4,169167	0,1	1,822866
4,170833	0,1	1,800690
4,172500	0,1	1,834407
4,174167	0,1	1,841282
4,175833	0,1	1,832941
4,177500	0,1	1,869676
4,179167	0,1	1,901808
4,180833	0,1	1,862644
4,182500	0,1	1,817914
4,184167	0,1	1,892067
4,185833	0,1	1,903820
4,187500	0,1	1,894500
4,189167	0,1	1,890616
4,190833	0,1	1,925837
4,192500	0,1	1,883908
4,194167	0,1	1,914258
4,195833	0,1	1,900079
4,197500	0,1	1,940720
4,199167	0,1	1,927411
4,200833	0,1	1,907219
4,202500	0,1	1,926446
4,204167	0,1	1,942845
4,205833	0,1	1,928438
4,207500	0,1	1,890800
4,209167	0,1	1,936903
4,210833	0,1	1,927322
4,212500	0,1	1,949027
4,214167	0,1	1,936628
4,215833	0,1	1,932184
4,217500	0,1	1,909628
4,219167	0,1	1,941748
4,220833	0,1	1,943697
4,222500	0,1	1,915745
4,224167	0,1	1,977736
4,225833	0,1	1,936969
4,227500	0,1	1,970356
4,229167	0,1	1,892395
4,230833	0,1	1,926463
4,232500	0,1	1,921138
4,234167	0,1	1,892872
4,235833	0,1	1,896324
4,237500	0,1	1,912052
4,239167	0,1	1,888141
4,240833	0,1	1,913523
4,242500	0,1	1,900011
4,244167	0,1	1,935544
4,245833	0,1	1,925669
4,247500	0,1	1,880182
4,249167	0,1	1,843525
4,250833	0,1	1,909653
4,252500	0,1	1,898649
4,254167	0,1	1,814546
4,255833	0,1	1,845782
4,257500	0,1	1,872400
4,259167	0,1	1,815551
4,260833	0,1	1,838442
4,262500	0,1	1,811191
4,264167	0,1	1,808804
4,265833	0,1	1,820554
4,267500	0,1	1,823659
4,269167	0,1	1,827407
4,270833	0,1	1,812200
4,272500	0,1	1,797244
4,274167	0,1	1,780502
4,275833	0,1	1,774070
4,277500	0,1	1,751104
4,279167	0,1	1,770475
4,280833	0,1	1,731505
4,282500	0,1	1,747004
4,284167	0,1	1,758568
4,285833	0,1	1,744317
4,287500	0,1	1,721944
4,289167	0,1	1,691995
4,290833	0,1	1,680246
4,292500	0,1	1,704497
4,294167	0,1	1,692666
4,295833	0,1	1,697782
4,297500	0,1	1,680416
4,299167	0,1	1,665635
4,300833	0,1	1,699029
4,302500	0,1	1,648603
4,304167	0,1	1,666498
4,305833	0,1	1,645842
4,307500	0,1	1,683666
4,309167	0,1	1,618636
4,310833	0,1	1,641594
4,312500	0,1	1,579714
4,314167	0,1	1,575136
4,315833	0,1	1,592779
4,317500	0,1	1,574073
4,319167	0,1	1,589742
4,320833	0,1	1,568640
4,322500	0,1	1,574422
4,324167	0,1	1,551864
4,325833	0,1	1,565079
4,327500	0,1	1,538287
4,329167	0,1	1,530264
4,330833	0,1	1,555893
4,332500	0,1	1,530398
4,334167	0,1	1,516688
4,335833	0,1	1,529709
4,337500	0,1	1,546132
4,339167	0,1	1,474974
4,340833	0,1	1,495992
4,342500	0,1	1,479550
4,344167	0,1	1,474311
4,345833	0,1	1,459252
4,347500	0,1	1,445289
4,349167	0,1	1,470328
4,350833	0,1	1,419927
4,352500	0,1	1,415197
4,354167	0,1	1,431158
4,355833	0,1	1,457367
4,357500	0,1	1,435756
4,359167	0,1	1,451034
4,360833	0,1	1,375400
4,362500	0,1	1,391312
4,364167	0,1	1,395676
4,365833	0,1	1,392738
4,367500	0,1	1,402074
4,369167	0,1	1,378814
4,370833	0,1	1,383237
4,372500	0,1	1,347472
4,374167	0,1	1,354670
4,375833	0,1	1,390434
4,377500	0,1	1,309845
4,379167	0,1	1,332919
4,380833	0,1	1,316158
4,382500	0,1	1,318126
4,384167	0,1	1,322259
4,385833	0,1	1,324422
4,387500	0,1	1,310539
4,389167	0,1	1,279229
4,390833	0,1	1,317122
4,392500	0,1	1,294707
4,394167	0,1	1,288242
4,395833	0,1	1,344154
4,397500	0,1	1,304148
4,399167	0,1	1,285660
4,400833	0,1	1,281487
4,402500	0,1	1,270831
4,404167	0,1	1,241896
4,405833	0,1	1,252472
4,407500	0,1	1,236262
4,409167	0,1	1,250987
4,410833	0,1	1,249664
4,412500	0,1	1,263327
4,414167	0,1	1,244699
4,415833	0,1	1,253516
4,417500	0,1	1,258295
4,419167	0,1	1,193252
4,420833	0,1	1,254923
4,422500	0,1	1,167065
4,424167	0,1	1,202400
4,425833	0,1	1,153162
4,427500	0,1	1,199548
4,429167	0,1	1,165012
4,430833	0,1	1,193586
4,432500	0,1	1,167530
4,434167	0,1	1,187964
4,435833	0,1	1,176090
4,437500	0,1	1,129614
4,439167	0,1	1,124147
4,440833	0,1	1,150659
4,442500	0,1	1,148767
4,444167	0,1	1,169330
4,445833	0,1	1,111468
4,447500	0,1	1,113951
4,449167	0,1	1,081840
4,450833	0,1	1,130277
4,452500	0,1	1,152510
4,454167	0,1	1,084155
4,455833	0,1	1,151525
4,457500	0,1	1,089966
4,459167	0,1	1,080039
4,460833	0,1	1,102357
4,462500	0,1	1,062316
4,464167	0,1	1,035235
4,465833	0,1	1,046845
4,467500	0,1	1,077799
4,469167	0,1	1,066310
4,470833	0,1	1,061409
4,472500	0,1	1,044416
4,474167	0,1	1,050469
4,475833	0,1	1,039374
4,477500	0,1	1,009464
4,479167	0,1	1,000419
4,480833	0,1	1,047671
4,482500	0,1	1,035684
4,484167	0,1	0,977788
4,485833	0,1	1,009574
4,487500	0,1	0,989026
4,489167	0,1	1,000184
4,490833	0,1	0,971638
4,492500	0,1	0,993622
4,494167	0,1	0,972426
4,495833	0,1	0,958928
4,497500	0,1	0,976561
4,499167	0,1	0,952767
4,500833	0,1	0,969897
4,502500	0,1	0,981626
4,504167	0,1	0,939671
4,505833	0,1	0,922982
4,507500	0,1	0,936742
4,509167	0,1	0,914382
4,510833	0,1	0,875192
4,512500	0,1	0,928941
4,514167	0,1	0,918567
4,515833	0,1	0,881295
4,517500	0,1	0,886263
4,519167	0,1	0,899172
4,520833	0,1	0,861325
4,522500	0,1	0,861795
4,524167	0,1	0,904642
4,525833	0,1	0,879894
4,527500	0,1	0,858218
4,529167	0,1	0,848533
4,530833	0,1	0,843872
4,532500	0,1	0,836065
4,534167	0,1	0,876029
4,535833	0,1	0,798372
4,537500	0,1	0,822689
4,539167	0,1	0,832453
4,540833	0,1	0,821237
4,542500	0,1	0,824692
4,544167	0,1	0,795150
4,545833	0,1	0,798369
4,547500	0,1	0,778490
4,549167	0,1	0,805154
4,550833	0,1	0,760410
4,552500	0,1	0,807607
4,554167	0,1	0,792363
4,555833	0,1	0,774602
4,557500	0,1	0,802652
4,559167	0,1	0,770103
4,560833	0,1	0,802262
4,562500	0,1	0,764908
4,564167	0,1	0,757819
4,565833	0,1	0,762704
4,567500	0,1	0,708431
4,569167	0,1	0,739201
4,570833	0,1	0,744678
4,572500	0,1	0,736462
4,574167	0,1	0,747243
4,575833	0,1	0,770473
4,577500	0,1	0,710891
4,579167	0,1	0,741031
4,580833	0,1	0,706139
4,582500	0,1	0,707943
4,584167	0,1	0,715316
4,585833	0,1	0,697330
4,587500	0,1	0,688771
4,589167	0,1	0,650648
4,590833	0,1	0,662128
4,592500	0,1	0,688408
4,594167	0,1	0,652889
4,595833	0,1	0,691157
4,597500	0,1	0,710042
4,599167	0,1	0,646661
4,600833	0,1	0,631932
4,602500	0,1	0,646703
4,604167	0,1	0,662724
4,605833	0,1	0,646005
4,607500	0,1	0,641437
4,609167	0,1	0,602906
4,610833	0,1	0,627358
4,612500	0,1	0,618516
4,614167	0,1	0,598508
4,615833	0,1	0,566316
4,617500	0,1	0,641173
4,619167	0,1	0,645477
4,620833	0,1	0,648886
4,622500	0,1	0,589084
4,624167	0,1	0,606302
4,625833	0,1	0,621786
4,627500	0,1	0,592837
4,629167	0,1	0,577863
4,630833	0,1	0,586889
4,632500	0,1	0,584433
4,634167	0,1	0,579954
4,635833	0,1	0,611602
4,637500	0,1	0,602423
4,639167	0,1	0,580141
4,640833	0,1	0,561858
4,642500	0,1	0,581080
4,644167	0,1	0,546649
4,645833	0,1	0,536699
4,647500	0,1	0,569756
4,649167	0,1	0,565020
4,650833	0,1	0,530303
4,652500	0,1	0,551467
4,654167	0,1	0,514995
4,655833	0,1	0,521093
4,657500	0,1	0,547330
4,659167	0,1	0,572618
4,660833	0,1	0,529560
4,662500	0,1	0,500985
4,664167	0,1	0,531798
4,665833	0,1	0,519029
4,667500	0,1	0,477246
4,669167	0,1	0,548338
4,670833	0,1	0,514410
4,672500	0,1	0,519146
4,674167	0,1	0,549104
4,675833	0,1	0,557543
4,677500	0,1	0,485113
4,679167	0,1	0,504259
4,680833	0,1	0,534390
4,682500	0,1	0,511101
4,684167	0,1	0,519036
4,685833	0,1	0,496872
4,687500	0,1	0,506599
4,689167	0,1	0,508376
4,690833	0,1	0,488144
4,692500	0,1	0,458951
4,694167	0,1	0,460294
4,695833	0,1	0,515909
4,697500	0,1	0,479220
4,699167	0,1	0,512408
4,700833	0,1	0,478997
4,702500	0,1	0,487311
4,704167	0,1	0,457129
4,705833	0,1	0,457122
4,707500	0,1	0,401563
4,709167	0,1	0,474861
4,710833	0,1	0,466444
4,712500	0,1	0,478866
4,714167	0,1	0,473529
4,715833	0,1	0,454487
4,717500	0,1	0,468072
4,719167	0,1	0,452782
4,720833	0,1	0,458874
4,722500	0,1	0,424068
4,724167	0,1	0,438020
4,725833	0,1	0,450901
4,727500	0,1	0,454591
4,729167	0,1	0,446168
4,730833	0,1	0,406658
4,732500	0,1	0,454117
4,734167	0,1	0,425409
4,735833	0,1	0,419480
4,737500	0,1	0,423998
4,739167	0,1	0,479851
4,740833	0,1	0,430513
4,742500	0,1	0,457519
4,744167	0,1	0,422477
4,745833	0,1	0,352382
4,747500	0,1	0,420708
4,749167	0,1	0,417431
4,750833	0,1	0,464850
4,752500	0,1	0,419549
4,754167	0,1	0,433205
4,755833	0,1	0,413756
4,757500	0,1	0,381157
4,759167	0,1	0,426327
4,760833	0,1	0,395109
4,762500	0,1	0,436475
4,764167	0,1	0,372083
4,765833	0,1	0,403170
4,767500	0,1	0,405642
4,769167	0,1	0,407397
4,770833	0,1	0,416887
4,772500	0,1	0,393286
4,774167	0,1	0,406114
4,775833	0,1	0,449777
4,777500	0,1	0,380917
4,779167	0,1	0,386606
4,780833	0,1	0,395324
4,782500	0,1	0,416429
4,784167	0,1	0,390938
4,785833	0,1	0,373242
4,787500	0,1	0,386244
4,789167	0,1	0,364621
4,790833	0,1	0,375814
4,792500	0,1	0,393681
4,794167	0,1	0,367141
4,795833	0,1	0,404518
4,797500	0,1	0,364565
4,799167	0,1	0,406571
4,800833	0,1	0,400486
4,802500	0,1	0,378395
4,804167	0,1	0,367317
4,805833	0,1	0,358823
4,807500	0,1	0,394501
4,809167	0,1	0,357826
4,810833	0,1	0,376217
4,812500	0,1	0,361509
4,814167	0,1	0,398016
4,815833	0,1	0,363859
4,817500	0,1	0,362570
4,819167	0,1	0,338480
4,820833	0,1	0,395606
4,822500	0,1	0,394157
4,824167	0,1	0,359640
4,825833	0,1	0,373528
4,827500	0,1	0,385660
4,829167	0,1	0,376464
4,830833	0,1	0,358406
4,832500	0,1	0,354009
4,834167	0,1	0,360985
4,835833	0,1	0,389051
4,837500	0,1	0,375685
4,839167	0,1	0,333028
4,840833	0,1	0,382891
4,842500	0,1	0,345866
4,844167	0,1	0,356411
4,845833	0,1	0,342286
4,847500	0,1	0,398837
4,849167	0,1	0,392412
4,850833	0,1	0,371938
4,852500	0,1	0,347798
4,854167	0,1	0,346630
4,855833	0,1	0,313577
4,857500	0,1	0,382473
4,859167	0,1	0,365025
4,860833	0,1	0,361207
4,862500	0,1	0,367952
4,864167	0,1	0,370772
4,865833	0,1	0,340057
4,867500	0,1	0,376213
4,869167	0,1	0,360930
4,870833	0,1	0,373454
4,872500	0,1	0,311416
4,874167	0,1	0,314153
4,875833	0,1	0,393426
4,877500	0,1	0,368251
4,879167	0,1	0,375524
4,880833	0,1	0,332615
4,882500	0,1	0,385755
4,884167	0,1	0,369832
4,885833	0,1	0,367195
4,887500	0,1	0,353606
4,889167	0,1	0,389214
4,890833	0,1	0,332041
4,892500	0,1	0,342286
4,894167	0,1	0,337823
4,895833	0,1	0,341232
4,897500	0,1	0,306013
4,899167	0,1	0,333596
4,900833	0,1	0,393671
4,902500	0,1	0,359640
4,904167	0,1	0,360747
4,905833	0,1	0,315335
4,907500	0,1	0,357627
4,909167	0,1	0,341468
4,910833	0,1	0,366598
4,912500	0,1	0,364197
4,914167	0,1	0,366498
4,915833	0,1	0,357346
4,917500	0,1	0,368895
4,919167	0,1	0,349499
4,920833	0,1	0,334136
4,922500	0,1	0,360615
4,924167	0,1	0,352307
4,925833	0,1	0,338192
4,927500	0,1	0,380710
4,929167	0,1	0,347979
4,930833	0,1	0,372692
4,932500	0,1	0,324648
4,934167	0,1	0,351423
4,935833	0,1	0,362793
4,937500	0,1	0,310005
4,939167	0,1	0,349425
4,940833	0,1	0,379612
4,942500	0,1	0,357469
4,944167	0,1	0,351430
4,945833	0,1	0,316395
4,947500	0,1	0,289196
4,949167	0,1	0,336700
4,950833	0,1	0,338295
4,952500	0,1	0,356575
4,954167	0,1	0,355989
4,955833	0,1	0,332379
4,957500	0,1	0,330623
4,959167	0,1	0,337773
4,960833	0,1	0,402628
4,962500	0,1	0,356538
4,964167	0,1	0,349496
4,965833	0,1	0,315452
4,967500	0,1	0,316904
4,969167	0,1	0,350662
4,970833	0,1	0,357111
4,972500	0,1	0,360680
4,974167	0,1	0,372464
4,975833	0,1	0,384370
4,977500	0,1	0,370236
4,979167	0,1	0,348151
4,980833	0,1	0,374866
4,982500	0,1	0,368591
4,984167	0,1	0,388468
4,985833	0,1	0,373991
4,987500	0,1	0,385711
4,989167	0,1	0,363970
4,990833	0,1	0,344048
4,992500	0,1	0,381836
4,994167	0,1	0,357170
4,995833	0,1	0,329340
4,997500	0,1	0,350706
4,999167	0,1	0,371292
5,000833	0,1	0,371694
5,002500	0,1	0,368659
5,004167	0,1	0,340241
5,005833	0,1	0,360317
5,007500	0,1	0,372755
5,009167	0,1	0,408327
5,010833	0,1	0,376238
5,012500	0,1	0,388824
5,014167	0,1	0,370357
5,015833	0,1	0,371822
5,017500	0,1	0,364498
5,019167	0,1	0,383955
5,020833	0,1	0,385489
5,022500	0,1	0,384133
5,024167	0,1	0,392580
5,025833	0,1	0,415904
5,027500	0,1	0,442747
5,029167	0,1	0,418899
5,030833	0,1	0,406575
5,032500	0,1	0,387182
5,034167	0,1	0,436697
5,035833	0,1	0,427459
5,037500	0,1	0,427861
5,039167	0,1	0,415499
5,040833	0,1	0,450725
5,042500	0,1	0,437477
5,044167	0,1	0,452484
5,045833	0,1	0,387028
5,047500	0,1	0,414149
5,049167	0,1	0,423930
5,050833	0,1	0,429554
5,052500	0,1	0,441752
5,054167	0,1	0,449261
5,055833	0,1	0,450379
5,057500	0,1	0,435483
5,059167	0,1	0,465661
5,060833	0,1	0,447563
5,062500	0,1	0,437374
5,064167	0,1	0,446490
5,065833	0,1	0,429627
5,067500	0,1	0,489496
5,069167	0,1	0,448214
5,070833	0,1	0,455306
5,072500	0,1	0,456598
5,074167	0,1	0,453424
5,075833	0,1	0,415385
5,077500	0,1	0,439874
5,079167	0,1	0,508851
5,080833	0,1	0,441771
5,082500	0,1	0,454419
5,084167	0,1	0,504836
5,085833	0,1	0,467895
5,087500	0,1	0,429582
5,089167	0,1	0,485112
5,090833	0,1	0,490879
5,092500	0,1	0,487193
5,094167	0,1	0,511683
5,095833	0,1	0,497394
5,097500	0,1	0,477290
5,099167	0,1	0,454134
5,100833	0,1	0,467265
5,102500	0,1	0,493564
5,104167	0,1	0,483032
5,105833	0,1	0,507632
5,107500	0,1	0,516929
5,109167	0,1	0,503671
5,110833	0,1	0,526639
5,112500	0,1	0,502859
5,114167	0,1	0,498912
5,115833	0,1	0,485552
5,117500	0,1	0,456613
5,119167	0,1	0,455479
5,120833	0,1	0,485360
5,122500	0,1	0,532681
5,124167	0,1	0,495232
5,125833	0,1	0,478228
5,127500	0,1	0,511451
5,129167	0,1	0,507127
5,130833	0,1	0,505191
5,132500	0,1	0,499678
5,134167	0,1	0,487023
5,135833	0,1	0,548550
5,137500	0,1	0,499216
5,139167	0,1	0,529096
5,140833	0,1	0,477712
5,142500	0,1	0,507691
5,144167	0,1	0,505031
5,145833	0,1	0,495930
5,147500	0,1	0,493933
5,149167	0,1	0,484785
5,150833	0,1	0,469440
5,152500	0,1	0,507822
5,154167	0,1	0,487298
5,155833	0,1	0,483574
5,157500	0,1	0,518727
5,159167	0,1	0,489074
5,160833	0,1	0,493459
5,162500	0,1	0,486650
5,164167	0,1	0,472423
5,165833	0,1	0,510381
5,167500	0,1	0,456902
5,169167	0,1	0,483728
5,170833	0,1	0,492410
5,172500	0,1	0,487424
5,174167	0,1	0,465794
5,175833	0,1	0,453641
5,177500	0,1	0,452778
5,179167	0,1	0,492633
5,180833	0,1	0,431522
5,182500	0,1	0,466365
5,184167	0,1	0,418260
5,185833	0,1	0,490803
5,187500	0,1	0,433144
5,189167	0,1	0,455646
5,190833	0,1	0,417269
5,192500	0,1	0,445266
5,194167	0,1	0,407122
5,195833	0,1	0,426858
5,197500	0,1	0,444322
5,199167	0,1	0,426455
5,200833	0,1	0,438176
5,202500	0,1	0,439469
5,204167	0,1	0,459516
5,205833	0,1	0,403137
5,207500	0,1	0,388365
5,209167	0,1	0,407642
5,210833	0,1	0,436245
5,212500	0,1	0,406295
5,214167	0,1	0,420351
5,215833	0,1	0,408399
5,217500	0,1	0,444488
5,219167	0,1	0,388951
5,220833	0,1	0,419745
5,222500	0,1	0,422822
5,224167	0,1	0,417365
5,225833	0,1	0,415256
5,227500	0,1	0,390872
5,229167	0,1	0,384486
5,230833	0,1	0,399071
5,232500	0,1	0,404412
5,234167	0,1	0,359049
5,235833	0,1	0,399523
5,237500	0,1	0,393737
5,239167	0,1	0,359055
5,240833	0,1	0,355299
5,242500	0,1	0,362913
5,244167	0,1	0,398946
5,245833	0,1	0,364444
5,247500	0,1	0,331510
5,249167	0,1	0,365711
5,250833	0,1	0,370583
5,252500	0,1	0,361560
5,254167	0,1	0,322824
5,255833	0,1	0,351768
5,257500	0,1	0,362613
5,259167	0,1	0,356474
5,260833	0,1	0,313162
5,262500	0,1	0,340693
5,264167	0,1	0,288491
5,265833	0,1	0,299491
5,267500	0,1	0,337223
5,269167	0,1	0,324639
5,270833	0,1	0,314324
5,272500	0,1	0,296036
5,274167	0,1	0,333240
5,275833	0,1	0,308573
5,277500	0,1	0,283209
5,279167	0,1	0,296088
5,280833	0,1	0,335114
5,282500	0,1	0,299328
5,284167	0,1	0,311971
5,285833	0,1	0,317357
5,287500	0,1	0,298675
5,289167	0,1	0,294688
5,290833	0,1	0,277990
5,292500	0,1	0,325795
5,294167	0,1	0,300961
5,295833	0,1	0,267626
5,297500	0,1	0,265560
5,299167	0,1	0,329890
5,300833	0,1	0,283680
5,302500	0,1	0,276695
5,304167	0,1	0,250974
5,305833	0,1	0,268606
5,307500	0,1	0,295158
5,309167	0,1	0,241787
5,310833	0,1	0,249621
5,312500	0,1	0,289695
5,314167	0,1	0,304875
5,315833	0,1	0,218408
5,317500	0,1	0,235616
5,319167	0,1	0,278031
5,320833	0,1	0,258474
5,322500	0,1	0,239433
5,324167	0,1	0,226125
5,325833	0,1	0,237251
5,327500	0,1	0,208612
5,329167	0,1	0,231043
5,330833	0,1	0,223723
5,332500	0,1	0,262962
5,334167	0,1	0,218403
5,335833	0,1	0,192794
5,337500	0,1	0,216803
5,339167	0,1	0,250785
5,340833	0,1	0,256005
5,342500	0,1	0,223025
5,344167	0,1	0,241061
5,345833	0,1	0,221792
5,347500	0,1	0,245512
5,349167	0,1	0,237785
5,350833	0,1	0,234625
5,352500	0,1	0,211836
5,354167	0,1	0,208895
5,355833	0,1	0,234322
5,357500	0,1	0,212473
5,359167	0,1	0,204860
5,360833	0,1	0,201345
5,362500	0,1	0,175625
5,364167	0,1	0,220428
5,365833	0,1	0,190739
5,367500	0,1	0,178145
5,369167	0,1	0,154824
5,370833	0,1	0,194127
5,372500	0,1	0,164206
5,374167	0,1	0,180184
5,375833	0,1	0,205786
5,377500	0,1	0,196947
5,379167	0,1	0,221485
5,380833	0,1	0,209253
5,382500	0,1	0,205265
5,384167	0,1	0,189329
5,385833	0,1	0,172518
5,387500	0,1	0,164840
5,389167	0,1	0,173914
5,390833	0,1	0,179951
5,392500	0,1	0,163612
5,394167	0,1	0,153941
5,395833	0,1	0,196055
5,397500	0,1	0,173920
5,399167	0,1	0,174269
5,400833	0,1	0,168708
5,402500	0,1	0,204140
5,404167	0,1	0,181774
5,405833	0,1	0,128763
5,407500	0,1	0,168987
5,409167	0,1	0,153239
5,410833	0,1	0,143865
5,412500	0,1	0,167992
5,414167	0,1	0,197926
5,415833	0,1	0,114828
5,417500	0,1	0,188077
5,419167	0,1	0,172458
5,420833	0,1	0,160330
5,422500	0,1	0,163780
5,424167	0,1	0,148496
5,425833	0,1	0,172681
5,427500	0,1	0,151896
5,429167	0,1	0,113761
5,430833	0,1	0,161664
5,432500	0,1	0,150015
5,434167	0,1	0,151246
5,435833	0,1	0,160030
5,437500	0,1	0,137188
5,439167	0,1	0,123421
5,440833	0,1	0,132611
5,442500	0,1	0,140406
5,444167	0,1	0,181989
5,445833	0,1	0,150024
5,447500	0,1	0,121727
5,449167	0,1	0,169394
5,450833	0,1	0,132975
5,452500	0,1	0,116566
5,454167	0,1	0,117150
5,455833	0,1	0,143094
5,457500	0,1	0,115457
5,459167	0,1	0,152522
5,460833	0,1	0,106440
5,462500	0,1	0,110470
5,464167	0,1	0,116740
5,465833	0,1	0,093197
5,467500	0,1	0,132957
5,469167	0,1	0,155339
5,470833	0,1	0,103805
5,472500	0,1	0,136534
5,474167	0,1	0,107903
5,475833	0,1	0,113986
5,477500	0,1	0,077853
5,479167	0,1	0,104605
5,480833	0,1	0,097703
5,482500	0,1	0,115798
5,484167	0,1	0,095538
5,485833	0,1	0,119957
5,487500	0,1	0,129156
5,489167	0,1	0,132613
5,490833	0,1	0,131619
5,492500	0,1	0,086289
5,494167	0,1	0,107771
5,495833	0,1	0,090500
5,497500	0,1	0,100627
5,499167	0,1	0,080835
5,500833	0,1	0,068825
5,502500	0,1	0,130433
5,504167	0,1	0,113695
5,505833	0,1	0,084118
5,507500	0,1	0,085282
5,509167	0,1	0,132370
5,510833	0,1	0,071063
5,512500	0,1	0,088616
5,514167	0,1	0,096470
5,515833	0,1	0,101331
5,517500	0,1	0,088565
5,519167	0,1	0,117200
5,520833	0,1	0,082596
5,522500	0,1	0,094007
5,524167	0,1	0,131257
5,525833	0,1	0,082306
5,527500	0,1	0,078078
5,529167	0,1	0,119130
5,530833	0,1	0,099989
5,532500	0,1	0,062095
5,534167	0,1	0,099625
5,535833	0,1	0,096003
5,537500	0,1	0,055478
5,539167	0,1	0,064545
5,540833	0,1	0,100388
5,542500	0,1	0,047630
5,544167	0,1	0,079242
5,545833	0,1	0,101384
5,547500	0,1	0,107305
5,549167	0,1	0,067134
5,550833	0,1	0,057051
5,552500	0,1	0,078072
5,554167	0,1	0,089673
5,555833	0,1	0,071872
5,557500	0,1	0,061270
5,559167	0,1	0,075730
5,560833	0,1	0,080712
5,562500	0,1	0,095003
5,564167	0,1	0,061510
5,565833	0,1	0,094412
5,567500	0,1	0,100569
5,569167	0,1	0,082181
5,570833	0,1	0,050907
5,572500	0,1	0,084455
5,574167	0,1	0,072926
5,575833	0,1	0,055063
5,577500	0,1	0,109812
5,579167	0,1	0,051849
5,580833	0,1	0,097982
5,582500	0,1	0,073748
5,584167	0,1	0,033982
5,585833	0,1	0,074085
5,587500	0,1	0,071050
5,589167	0,1	0,030876
5,590833	0,1	0,046325
5,592500	0,1	0,065771
5,594167	0,1	0,062555
5,595833	0,1	0,039716
5,597500	0,1	0,082343
5,599167	0,1	0,080655
5,600833	0,1	0,087506
5,602500	0,1	0,047452
5,604167	0,1	0,076080
5,605833	0,1	0,060509
5,607500	0,1	0,066887
5,609167	0,1	0,066597
5,610833	0,1	0,083813
5,612500	0,1	0,049150
5,614167	0,1	0,062200
5,615833	0,1	0,028533
5,617500	0,1	0,046618
5,619167	0,1	0,101437
5,620833	0,1	0,068480
5,622500	0,1	0,077372
5,624167	0,1	0,069352
5,625833	0,1	0,089789
5,627500	0,1	0,091432
5,629167	0,1	0,085693
5,630833	0,1	0,069296
5,632500	0,1	0,045107
5,634167	0,1	0,066534
5,635833	0,1	0,093652
5,637500	0,1	0,073514
5,639167	0,1	0,077960
5,640833	0,1	0,072865
5,642500	0,1	0,060450
5,644167	0,1	0,089551
5,645833	0,1	0,104901
5,647500	0,1	0,080544
5,649167	0,1	0,065078
5,650833	0,1	0,069407
5,652500	0,1	0,087387
5,654167	0,1	0,081477
5,655833	0,1	0,081065
5,657500	0,1	0,067889
5,659167	0,1	0,056935
5,660833	0,1	0,071162
5,662500	0,1	0,101676
5,664167	0,1	0,108186
5,665833	0,1	0,098757
5,667500	0,1	0,115270
5,669167	0,1	0,062977
5,670833	0,1	0,075498
5,672500	0,1	0,059748
5,674167	0,1	0,114969
5,675833	0,1	0,074280
5,677500	0,1	0,050730
5,679167	0,1	0,089198
5,680833	0,1	0,074626
5,682500	0,1	0,082411
5,684167	0,1	0,081944
5,685833	0,1	0,105896
5,687500	0,1	0,103852
5,689167	0,1	0,122884
5,690833	0,1	0,067079
5,692500	0,1	0,075206
5,694167	0,1	0,080888
5,695833	0,1	0,062384
5,697500	0,1	0,099332
5,699167	0,1	0,092607
5,700833	0,1	0,101800
5,702500	0,1	0,126225
5,704167	0,1	0,071647
5,705833	0,1	0,107650
5,707500	0,1	0,079899
5,709167	0,1	0,099921
5,710833	0,1	0,078259
5,712500	0,1	0,111399
5,714167	0,1	0,061513
5,715833	0,1	0,120003
5,717500	0,1	0,113227
5,719167	0,1	0,102097
5,720833	0,1	0,091963
5,722500	0,1	0,089558
5,724167	0,1	0,065021
5,725833	0,1	0,087035
5,727500	0,1	0,097113
5,729167	0,1	0,116617
5,730833	0,1	0,102098
5,732500	0,1	0,115212
5,734167	0,1	0,089449
5,735833	0,1	0,081770
5,737500	0,1	0,111753
5,739167	0,1	0,145670
5,740833	0,1	0,087288
5,742500	0,1	0,103906
5,744167	0,1	0,132256
5,745833	0,1	0,058356
5,747500	0,1	0,133828
5,749167	0,1	0,102805
5,750833	0,1	0,115915
5,752500	0,1	0,133724
5,754167	0,1	0,114225
5,755833	0,1	0,129564
5,757500	0,1	0,095484
5,759167	0,1	0,137062
5,760833	0,1	0,164651
5,762500	0,1	0,129108
5,764167	0,1	0,122425
5,765833	0,1	0,124706
5,767500	0,1	0,138472
5,769167	0,1	0,098472
5,770833	0,1	0,137115
5,772500	0,1	0,093904
5,774167	0,1	0,115856
5,775833	0,1	0,144909
5,777500	0,1	0,143336
5,779167	0,1	0,141109
5,780833	0,1	0,131094
5,782500	0,1	0,096538
5,784167	0,1	0,104905
5,785833	0,1	0,112638
5,787500	0,1	0,099344
5,789167	0,1	0,132432
5,790833	0,1	0,104446
5,792500	0,1	0,113926
5,794167	0,1	0,113811
5,795833	0,1	0,125054
5,797500	0,1	0,130214
5,799167	0,1	0,071649
5,800833	0,1	0,123464
5,802500	0,1	0,105614
5,804167	0,1	0,089738
5,805833	0,1	0,141450
5,807500	0,1	0,072764
5,809167	0,1	0,086509
5,810833	0,1	0,115210
5,812500	0,1	0,135657
5,814167	0,1	0,168053
5,815833	0,1	0,137602
5,817500	0,1	0,118444
5,819167	0,1	0,115335
5,820833	0,1	0,079550
5,822500	0,1	0,109234
5,824167	0,1	0,088566
5,825833	0,1	0,131258
5,827500	0,1	0,064563
5,829167	0,1	0,108118
5,830833	0,1	0,142801
5,832500	0,1	0,124184
5,834167	0,1	0,098001
5,835833	0,1	0,117146
5,837500	0,1	0,139696
5,839167	0,1	0,074052
5,840833	0,1	0,126042
5,842500	0,1	0,117503
5,844167	0,1	0,072407
5,845833	0,1	0,157435
5,847500	0,1	0,113645
5,849167	0,1	0,076563
5,850833	0,1	0,097346
5,852500	0,1	0,112342
5,854167	0,1	0,120309
5,855833	0,1	0,105611
5,857500	0,1	0,127573
5,859167	0,1	0,121018
5,860833	0,1	0,094603
5,862500	0,1	0,115678
5,864167	0,1	0,110357
5,865833	0,1	0,139992
5,867500	0,1	0,110302
5,869167	0,1	0,135244
5,870833	0,1	0,114166
5,872500	0,1	0,076505
5,874167	0,1	0,088619
5,875833	0,1	0,082238
5,877500	0,1	0,144256
5,879167	0,1	0,134725
5,880833	0,1	0,084005
5,882500	0,1	0,077904
5,884167	0,1	0,128446
5,885833	0,1	0,102336
5,887500	0,1	0,116152
5,889167	0,1	0,105495
5,890833	0,1	0,106313
5,892500	0,1	0,097527
5,894167	0,1	0,056415
5,895833	0,1	0,115085
5,897500	0,1	0,056360
5,899167	0,1	0,103078
5,900833	0,1	0,092608
5,902500	0,1	0,095182
5,904167	0,1	0,115506
5,905833	0,1	0,111411
5,907500	0,1	0,102508
5,909167	0,1	0,087747
5,910833	0,1	0,068182
5,912500	0,1	0,085805
5,914167	0,1	0,106367
5,915833	0,1	0,097059
5,917500	0,1	0,096003
5,919167	0,1	0,099751
5,920833	0,1	0,093719
5,922500	0,1	0,069472
5,924167	0,1	0,117430
5,925833	0,1	0,073811
5,927500	0,1	0,052778
5,929167	0,1	0,068351
5,930833	0,1	0,084753
5,932500	0,1	0,103028
5,934167	0,1	0,072111
5,935833	0,1	0,107006
5,937500	0,1	0,120249
5,939167	0,1	0,073812
5,940833	0,1	0,078310
5,942500	0,1	0,106775
5,944167	0,1	0,076914
5,945833	0,1	0,077432
5,947500	0,1	0,087915
5,949167	0,1	0,087861
5,950833	0,1	0,080364
5,952500	0,1	0,078897
5,954167	0,1	0,073685
5,955833	0,1	0,088677
5,957500	0,1	0,098049
5,959167	0,1	0,101978
5,960833	0,1	0,063619
5,962500	0,1	0,087327
5,964167	0,1	0,058168
5,965833	0,1	0,093123
5,967500	0,1	0,100686
5,969167	0,1	0,084409
5,970833	0,1	0,058110
5,972500	0,1	0,082348
5,974167	0,1	0,063438
5,975833	0,1	0,076493
5,977500	0,1	0,095061
5,979167	0,1	0,031820
5,980833	0,1	0,072797
5,982500	0,1	0,068706
5,984167	0,1	0,097577
5,985833	0,1	0,084056
5,987500	0,1	0,092603
5,989167	0,1	0,055944
5,990833	0,1	0,050314
5,992500	0,1	0,059506
5,994167	0,1	0,086564
5,995833	0,1	0,057584
5,997500	0,1	0,073387
5,999167	0,1	0,021275
6,000833	0,1	0,091006
