File Path	chrom://chromeleon01/ikbm_chromeleon/2022/Rezex/Esteban/220612_chitin_4_7.seq/477.smp/UV_VIS_1.channel/UV_VIS_1.chm
Channel	UV_VIS_1

Injection Information:
Data Vault	ikbm_chromeleon
Injection	4_24h-ChiBS_NA
Injection Number	18
Position	RB7
Comment	
Processing Method	New ProcMethod
Instrument Method	Short_Rezex_6min_194nm
Type	Unknown
Status	Finished
Injection Date	12.06.2022
Injection Time	19:04:15
Injection Volume (µl)	8,000
Dilution Factor	1,0000
Weight	1,0000

Chromatogram Data Information:
Time Min. (min)	0,000833
Time Max. (min)	6,000833
Data Points	3601
Detector	UV
Generating Data System	Chromeleon 7.2.9.11323
Exporting Data System	Chromeleon 7.2.9.0
Operator	Instrument Controller
Signal Quantity	Absorbance
Signal Unit	mAU
Signal Min.	-0,134772
Signal Max.	92,422807
Channel	UV_VIS_1
Driver Name	VWD3000.dll
Channel Type	Evaluation
Min. Step (s)	0,1
Max. Step (s)	0,1
Average Step (s)	0,1

Signal Parameter Information:
Signal Info	WVL:194 nm

Chromatogram Data:
Time (min)	Step (s)	Value (mAU)
0,000833	n.a.	-0,049743
0,002500	0,1	-0,088680
0,004167	0,1	-0,073935
0,005833	0,1	-0,064913
0,007500	0,1	-0,081658
0,009167	0,1	-0,081369
0,010833	0,1	-0,102446
0,012500	0,1	-0,043783
0,014167	0,1	-0,057238
0,015833	0,1	0,007401
0,017500	0,1	-0,041180
0,019167	0,1	-0,059461
0,020833	0,1	-0,016605
0,022500	0,1	-0,068238
0,024167	0,1	-0,041553
0,025833	0,1	-0,072460
0,027500	0,1	-0,093309
0,029167	0,1	-0,096534
0,030833	0,1	-0,095364
0,032500	0,1	-0,108947
0,034167	0,1	-0,121655
0,035833	0,1	-0,063051
0,037500	0,1	-0,093307
0,039167	0,1	-0,115973
0,040833	0,1	-0,114045
0,042500	0,1	-0,112114
0,044167	0,1	-0,085124
0,045833	0,1	-0,113394
0,047500	0,1	-0,111235
0,049167	0,1	-0,119781
0,050833	0,1	-0,134772
0,052500	0,1	-0,093266
0,054167	0,1	-0,109063
0,055833	0,1	-0,081784
0,057500	0,1	-0,066908
0,059167	0,1	-0,078262
0,060833	0,1	-0,058534
0,062500	0,1	-0,068014
0,064167	0,1	-0,055897
0,065833	0,1	-0,101853
0,067500	0,1	-0,034006
0,069167	0,1	-0,058287
0,070833	0,1	-0,058469
0,072500	0,1	-0,070004
0,074167	0,1	-0,046589
0,075833	0,1	-0,046816
0,077500	0,1	-0,037213
0,079167	0,1	-0,069239
0,080833	0,1	-0,042548
0,082500	0,1	-0,042247
0,084167	0,1	-0,026907
0,085833	0,1	-0,061682
0,087500	0,1	-0,044537
0,089167	0,1	-0,037036
0,090833	0,1	-0,034517
0,092500	0,1	-0,002079
0,094167	0,1	-0,042706
0,095833	0,1	-0,035104
0,097500	0,1	-0,045758
0,099167	0,1	-0,024037
0,100833	0,1	-0,017709
0,102500	0,1	-0,033695
0,104167	0,1	-0,030008
0,105833	0,1	-0,021163
0,107500	0,1	-0,054713
0,109167	0,1	-0,056772
0,110833	0,1	-0,058762
0,112500	0,1	-0,050448
0,114167	0,1	-0,052320
0,115833	0,1	-0,060107
0,117500	0,1	-0,095299
0,119167	0,1	-0,034414
0,120833	0,1	-0,051789
0,122500	0,1	-0,096936
0,124167	0,1	-0,094897
0,125833	0,1	-0,066384
0,127500	0,1	-0,083823
0,129167	0,1	-0,050924
0,130833	0,1	-0,065729
0,132500	0,1	-0,062452
0,134167	0,1	-0,090555
0,135833	0,1	-0,063104
0,137500	0,1	-0,071704
0,139167	0,1	-0,059586
0,140833	0,1	-0,047345
0,142500	0,1	-0,026732
0,144167	0,1	-0,045290
0,145833	0,1	-0,054427
0,147500	0,1	-0,078377
0,149167	0,1	-0,040615
0,150833	0,1	-0,049626
0,152500	0,1	-0,059522
0,154167	0,1	-0,036572
0,155833	0,1	-0,031884
0,157500	0,1	-0,067655
0,159167	0,1	-0,040848
0,160833	0,1	-0,038735
0,162500	0,1	-0,021459
0,164167	0,1	-0,037440
0,165833	0,1	-0,037326
0,167500	0,1	-0,086452
0,169167	0,1	-0,037573
0,170833	0,1	-0,046285
0,172500	0,1	-0,075094
0,174167	0,1	-0,032827
0,175833	0,1	-0,039667
0,177500	0,1	-0,014783
0,179167	0,1	-0,032695
0,180833	0,1	0,000557
0,182500	0,1	-0,038664
0,184167	0,1	-0,012732
0,185833	0,1	-0,019638
0,187500	0,1	0,024453
0,189167	0,1	-0,012835
0,190833	0,1	-0,006932
0,192500	0,1	-0,034801
0,194167	0,1	-0,016835
0,195833	0,1	-0,007165
0,197500	0,1	-0,059218
0,199167	0,1	-0,018537
0,200833	0,1	-0,006816
0,202500	0,1	-0,023619
0,204167	0,1	-0,024911
0,205833	0,1	-0,001955
0,207500	0,1	-0,008509
0,209167	0,1	-0,021922
0,210833	0,1	0,011569
0,212500	0,1	-0,016997
0,214167	0,1	-0,011439
0,215833	0,1	-0,066012
0,217500	0,1	-0,006301
0,219167	0,1	-0,020457
0,220833	0,1	-0,023740
0,222500	0,1	0,003489
0,224167	0,1	-0,028125
0,225833	0,1	-0,005236
0,227500	0,1	-0,003592
0,229167	0,1	-0,018465
0,230833	0,1	-0,030531
0,232500	0,1	-0,015133
0,234167	0,1	-0,039077
0,235833	0,1	-0,044120
0,237500	0,1	-0,008578
0,239167	0,1	0,016612
0,240833	0,1	-0,034561
0,242500	0,1	-0,036390
0,244167	0,1	-0,005649
0,245833	0,1	-0,000724
0,247500	0,1	0,029787
0,249167	0,1	-0,018281
0,250833	0,1	0,030718
0,252500	0,1	-0,041877
0,254167	0,1	0,019416
0,255833	0,1	-0,013657
0,257500	0,1	0,029313
0,259167	0,1	-0,029113
0,260833	0,1	0,007643
0,262500	0,1	0,028388
0,264167	0,1	0,023647
0,265833	0,1	0,021950
0,267500	0,1	-0,002532
0,269167	0,1	-0,022971
0,270833	0,1	0,003371
0,272500	0,1	-0,029528
0,274167	0,1	0,012624
0,275833	0,1	0,016322
0,277500	0,1	-0,008213
0,279167	0,1	-0,013373
0,280833	0,1	0,012160
0,282500	0,1	-0,015767
0,284167	0,1	0,050568
0,285833	0,1	-0,016461
0,287500	0,1	-0,011207
0,289167	0,1	-0,001253
0,290833	0,1	-0,000075
0,292500	0,1	0,031897
0,294167	0,1	-0,023548
0,295833	0,1	0,025096
0,297500	0,1	0,016738
0,299167	0,1	0,004320
0,300833	0,1	-0,014775
0,302500	0,1	-0,004415
0,304167	0,1	0,008003
0,305833	0,1	0,015559
0,307500	0,1	0,036469
0,309167	0,1	0,011411
0,310833	0,1	0,017198
0,312500	0,1	0,006252
0,314167	0,1	0,042383
0,315833	0,1	0,031145
0,317500	0,1	0,012756
0,319167	0,1	0,008829
0,320833	0,1	0,010116
0,322500	0,1	0,001977
0,324167	0,1	0,038158
0,325833	0,1	0,061949
0,327500	0,1	0,026174
0,329167	0,1	0,048357
0,330833	0,1	0,040632
0,332500	0,1	0,026867
0,334167	0,1	0,040339
0,335833	0,1	0,013694
0,337500	0,1	0,007713
0,339167	0,1	0,019074
0,340833	0,1	-0,011901
0,342500	0,1	0,038277
0,344167	0,1	0,029567
0,345833	0,1	0,025231
0,347500	0,1	-0,012131
0,349167	0,1	0,024808
0,350833	0,1	0,023936
0,352500	0,1	0,026804
0,354167	0,1	0,020309
0,355833	0,1	0,038285
0,357500	0,1	0,029325
0,359167	0,1	-0,022087
0,360833	0,1	0,023517
0,362500	0,1	0,049351
0,364167	0,1	-0,014526
0,365833	0,1	0,066503
0,367500	0,1	0,041217
0,369167	0,1	0,023006
0,370833	0,1	0,041861
0,372500	0,1	0,046723
0,374167	0,1	0,037353
0,375833	0,1	0,007896
0,377500	0,1	0,036640
0,379167	0,1	0,070262
0,380833	0,1	0,047376
0,382500	0,1	0,063707
0,384167	0,1	0,046783
0,385833	0,1	0,060774
0,387500	0,1	0,028692
0,389167	0,1	0,049061
0,390833	0,1	0,017270
0,392500	0,1	0,071665
0,394167	0,1	0,037241
0,395833	0,1	0,060251
0,397500	0,1	0,008899
0,399167	0,1	0,056670
0,400833	0,1	0,067522
0,402500	0,1	0,055104
0,404167	0,1	0,048955
0,405833	0,1	0,054337
0,407500	0,1	0,036478
0,409167	0,1	0,074306
0,410833	0,1	0,053233
0,412500	0,1	0,030735
0,414167	0,1	0,038405
0,415833	0,1	0,074069
0,417500	0,1	0,090305
0,419167	0,1	0,036777
0,420833	0,1	0,031965
0,422500	0,1	0,098965
0,424167	0,1	0,068352
0,425833	0,1	0,076068
0,427500	0,1	0,086084
0,429167	0,1	0,072735
0,430833	0,1	0,065939
0,432500	0,1	0,077240
0,434167	0,1	0,124851
0,435833	0,1	0,107066
0,437500	0,1	0,064659
0,439167	0,1	0,109038
0,440833	0,1	0,066417
0,442500	0,1	0,093293
0,444167	0,1	0,077069
0,445833	0,1	0,094576
0,447500	0,1	0,106824
0,449167	0,1	0,069282
0,450833	0,1	0,090830
0,452500	0,1	0,105422
0,454167	0,1	0,028821
0,455833	0,1	0,088887
0,457500	0,1	0,105246
0,459167	0,1	0,073152
0,460833	0,1	0,087377
0,462500	0,1	0,083397
0,464167	0,1	0,124099
0,465833	0,1	0,108001
0,467500	0,1	0,061149
0,469167	0,1	0,096041
0,470833	0,1	0,091189
0,472500	0,1	0,060266
0,474167	0,1	0,108636
0,475833	0,1	0,116730
0,477500	0,1	0,073807
0,479167	0,1	0,072500
0,480833	0,1	0,073500
0,482500	0,1	0,100729
0,484167	0,1	0,085683
0,485833	0,1	0,092297
0,487500	0,1	0,086509
0,489167	0,1	0,108230
0,490833	0,1	0,113445
0,492500	0,1	0,131428
0,494167	0,1	0,111928
0,495833	0,1	0,125272
0,497500	0,1	0,143498
0,499167	0,1	0,080421
0,500833	0,1	0,131711
0,502500	0,1	0,114684
0,504167	0,1	0,104367
0,505833	0,1	0,088673
0,507500	0,1	0,111799
0,509167	0,1	0,118422
0,510833	0,1	0,091426
0,512500	0,1	0,135645
0,514167	0,1	0,135180
0,515833	0,1	0,111647
0,517500	0,1	0,156318
0,519167	0,1	0,121892
0,520833	0,1	0,173723
0,522500	0,1	0,073578
0,524167	0,1	0,124628
0,525833	0,1	0,133482
0,527500	0,1	0,155333
0,529167	0,1	0,107489
0,530833	0,1	0,131317
0,532500	0,1	0,133309
0,534167	0,1	0,104025
0,535833	0,1	0,100502
0,537500	0,1	0,154089
0,539167	0,1	0,150183
0,540833	0,1	0,119492
0,542500	0,1	0,138402
0,544167	0,1	0,151240
0,545833	0,1	0,151643
0,547500	0,1	0,121068
0,549167	0,1	0,118785
0,550833	0,1	0,106423
0,552500	0,1	0,114852
0,554167	0,1	0,148896
0,555833	0,1	0,146904
0,557500	0,1	0,151295
0,559167	0,1	0,142282
0,560833	0,1	0,166814
0,562500	0,1	0,138532
0,564167	0,1	0,199729
0,565833	0,1	0,192250
0,567500	0,1	0,154702
0,569167	0,1	0,162251
0,570833	0,1	0,191365
0,572500	0,1	0,152948
0,574167	0,1	0,145445
0,575833	0,1	0,167173
0,577500	0,1	0,159851
0,579167	0,1	0,113467
0,580833	0,1	0,174599
0,582500	0,1	0,126823
0,584167	0,1	0,188724
0,585833	0,1	0,180362
0,587500	0,1	0,175212
0,589167	0,1	0,175796
0,590833	0,1	0,189726
0,592500	0,1	0,207901
0,594167	0,1	0,185052
0,595833	0,1	0,172862
0,597500	0,1	0,147387
0,599167	0,1	0,155049
0,600833	0,1	0,163607
0,602500	0,1	0,183167
0,604167	0,1	0,162545
0,605833	0,1	0,175427
0,607500	0,1	0,205192
0,609167	0,1	0,204090
0,610833	0,1	0,209134
0,612500	0,1	0,159746
0,614167	0,1	0,225759
0,615833	0,1	0,213656
0,617500	0,1	0,215392
0,619167	0,1	0,228410
0,620833	0,1	0,185872
0,622500	0,1	0,196711
0,624167	0,1	0,218326
0,625833	0,1	0,210252
0,627500	0,1	0,196891
0,629167	0,1	0,215628
0,630833	0,1	0,198825
0,632500	0,1	0,240523
0,634167	0,1	0,214883
0,635833	0,1	0,248140
0,637500	0,1	0,263041
0,639167	0,1	0,225835
0,640833	0,1	0,207611
0,642500	0,1	0,228640
0,644167	0,1	0,266370
0,645833	0,1	0,235917
0,647500	0,1	0,227126
0,649167	0,1	0,221435
0,650833	0,1	0,263559
0,652500	0,1	0,247517
0,654167	0,1	0,248868
0,655833	0,1	0,284018
0,657500	0,1	0,259834
0,659167	0,1	0,273527
0,660833	0,1	0,228191
0,662500	0,1	0,238716
0,664167	0,1	0,269020
0,665833	0,1	0,282442
0,667500	0,1	0,302477
0,669167	0,1	0,274947
0,670833	0,1	0,294276
0,672500	0,1	0,277816
0,674167	0,1	0,305175
0,675833	0,1	0,297800
0,677500	0,1	0,315029
0,679167	0,1	0,288899
0,680833	0,1	0,300141
0,682500	0,1	0,295331
0,684167	0,1	0,281390
0,685833	0,1	0,292638
0,687500	0,1	0,284612
0,689167	0,1	0,330094
0,690833	0,1	0,342565
0,692500	0,1	0,321768
0,694167	0,1	0,366061
0,695833	0,1	0,307182
0,697500	0,1	0,328851
0,699167	0,1	0,349253
0,700833	0,1	0,338711
0,702500	0,1	0,356286
0,704167	0,1	0,325700
0,705833	0,1	0,346493
0,707500	0,1	0,355813
0,709167	0,1	0,364719
0,710833	0,1	0,343348
0,712500	0,1	0,353657
0,714167	0,1	0,369231
0,715833	0,1	0,385888
0,717500	0,1	0,352088
0,719167	0,1	0,394811
0,720833	0,1	0,393519
0,722500	0,1	0,346227
0,724167	0,1	0,357929
0,725833	0,1	0,416075
0,727500	0,1	0,384852
0,729167	0,1	0,382205
0,730833	0,1	0,387946
0,732500	0,1	0,412143
0,734167	0,1	0,436879
0,735833	0,1	0,372012
0,737500	0,1	0,389939
0,739167	0,1	0,438760
0,740833	0,1	0,445571
0,742500	0,1	0,426133
0,744167	0,1	0,407309
0,745833	0,1	0,468085
0,747500	0,1	0,402221
0,749167	0,1	0,443982
0,750833	0,1	0,452679
0,752500	0,1	0,480104
0,754167	0,1	0,481583
0,755833	0,1	0,493774
0,757500	0,1	0,458907
0,759167	0,1	0,482819
0,760833	0,1	0,493435
0,762500	0,1	0,481354
0,764167	0,1	0,516452
0,765833	0,1	0,497007
0,767500	0,1	0,512173
0,769167	0,1	0,535590
0,770833	0,1	0,514714
0,772500	0,1	0,524843
0,774167	0,1	0,507755
0,775833	0,1	0,547137
0,777500	0,1	0,512292
0,779167	0,1	0,489864
0,780833	0,1	0,524805
0,782500	0,1	0,520177
0,784167	0,1	0,555694
0,785833	0,1	0,518772
0,787500	0,1	0,539277
0,789167	0,1	0,523514
0,790833	0,1	0,552041
0,792500	0,1	0,519954
0,794167	0,1	0,538172
0,795833	0,1	0,560719
0,797500	0,1	0,596505
0,799167	0,1	0,602488
0,800833	0,1	0,540451
0,802500	0,1	0,570287
0,804167	0,1	0,549748
0,805833	0,1	0,564438
0,807500	0,1	0,573242
0,809167	0,1	0,540519
0,810833	0,1	0,581082
0,812500	0,1	0,586421
0,814167	0,1	0,592720
0,815833	0,1	0,567966
0,817500	0,1	0,595003
0,819167	0,1	0,612348
0,820833	0,1	0,573145
0,822500	0,1	0,584669
0,824167	0,1	0,605541
0,825833	0,1	0,602306
0,827500	0,1	0,574524
0,829167	0,1	0,578357
0,830833	0,1	0,574228
0,832500	0,1	0,581966
0,834167	0,1	0,563571
0,835833	0,1	0,579859
0,837500	0,1	0,618104
0,839167	0,1	0,595308
0,840833	0,1	0,593980
0,842500	0,1	0,648224
0,844167	0,1	0,606969
0,845833	0,1	0,599266
0,847500	0,1	0,644142
0,849167	0,1	0,586958
0,850833	0,1	0,590340
0,852500	0,1	0,647056
0,854167	0,1	0,638515
0,855833	0,1	0,642985
0,857500	0,1	0,656560
0,859167	0,1	0,657931
0,860833	0,1	0,664092
0,862500	0,1	0,622534
0,864167	0,1	0,668059
0,865833	0,1	0,622658
0,867500	0,1	0,625104
0,869167	0,1	0,682500
0,870833	0,1	0,657142
0,872500	0,1	0,677620
0,874167	0,1	0,701416
0,875833	0,1	0,708245
0,877500	0,1	0,680418
0,879167	0,1	0,685429
0,880833	0,1	0,664099
0,882500	0,1	0,676537
0,884167	0,1	0,718852
0,885833	0,1	0,690495
0,887500	0,1	0,666847
0,889167	0,1	0,720909
0,890833	0,1	0,721923
0,892500	0,1	0,730018
0,894167	0,1	0,704443
0,895833	0,1	0,724331
0,897500	0,1	0,729124
0,899167	0,1	0,704232
0,900833	0,1	0,722978
0,902500	0,1	0,727040
0,904167	0,1	0,779306
0,905833	0,1	0,785378
0,907500	0,1	0,764604
0,909167	0,1	0,735189
0,910833	0,1	0,761823
0,912500	0,1	0,772322
0,914167	0,1	0,734753
0,915833	0,1	0,774937
0,917500	0,1	0,778382
0,919167	0,1	0,799988
0,920833	0,1	0,831864
0,922500	0,1	0,806184
0,924167	0,1	0,801911
0,925833	0,1	0,821082
0,927500	0,1	0,812532
0,929167	0,1	0,828891
0,930833	0,1	0,854979
0,932500	0,1	0,803733
0,934167	0,1	0,841775
0,935833	0,1	0,877972
0,937500	0,1	0,847332
0,939167	0,1	0,862271
0,940833	0,1	0,861234
0,942500	0,1	0,848018
0,944167	0,1	0,876762
0,945833	0,1	0,860616
0,947500	0,1	0,921134
0,949167	0,1	0,894395
0,950833	0,1	0,907005
0,952500	0,1	0,904845
0,954167	0,1	0,924728
0,955833	0,1	0,945742
0,957500	0,1	0,943418
0,959167	0,1	0,964923
0,960833	0,1	0,980448
0,962500	0,1	0,998984
0,964167	0,1	0,949303
0,965833	0,1	0,980608
0,967500	0,1	0,969704
0,969167	0,1	1,013549
0,970833	0,1	0,997345
0,972500	0,1	0,979708
0,974167	0,1	1,020173
0,975833	0,1	1,039795
0,977500	0,1	1,063245
0,979167	0,1	1,092661
0,980833	0,1	1,065357
0,982500	0,1	1,046362
0,984167	0,1	1,086301
0,985833	0,1	1,036774
0,987500	0,1	1,110991
0,989167	0,1	1,105523
0,990833	0,1	1,179371
0,992500	0,1	1,139504
0,994167	0,1	1,110178
0,995833	0,1	1,132100
0,997500	0,1	1,216739
0,999167	0,1	1,186984
1,000833	0,1	1,184907
1,002500	0,1	1,197146
1,004167	0,1	1,232032
1,005833	0,1	1,268796
1,007500	0,1	1,197135
1,009167	0,1	1,247211
1,010833	0,1	1,271996
1,012500	0,1	1,315868
1,014167	0,1	1,325216
1,015833	0,1	1,319498
1,017500	0,1	1,308872
1,019167	0,1	1,357195
1,020833	0,1	1,357723
1,022500	0,1	1,391486
1,024167	0,1	1,375441
1,025833	0,1	1,433205
1,027500	0,1	1,430889
1,029167	0,1	1,479162
1,030833	0,1	1,479754
1,032500	0,1	1,432969
1,034167	0,1	1,450573
1,035833	0,1	1,491613
1,037500	0,1	1,523163
1,039167	0,1	1,498330
1,040833	0,1	1,547608
1,042500	0,1	1,566646
1,044167	0,1	1,588247
1,045833	0,1	1,600073
1,047500	0,1	1,571711
1,049167	0,1	1,653150
1,050833	0,1	1,661681
1,052500	0,1	1,705231
1,054167	0,1	1,782934
1,055833	0,1	1,869607
1,057500	0,1	1,939498
1,059167	0,1	2,044681
1,060833	0,1	2,232826
1,062500	0,1	2,435687
1,064167	0,1	2,682589
1,065833	0,1	2,981820
1,067500	0,1	3,453130
1,069167	0,1	3,909884
1,070833	0,1	4,571318
1,072500	0,1	5,355663
1,074167	0,1	6,328053
1,075833	0,1	7,388316
1,077500	0,1	8,706227
1,079167	0,1	10,145423
1,080833	0,1	11,815575
1,082500	0,1	13,701873
1,084167	0,1	15,716651
1,085833	0,1	17,991370
1,087500	0,1	20,312950
1,089167	0,1	22,820564
1,090833	0,1	25,397081
1,092500	0,1	28,071723
1,094167	0,1	30,719237
1,095833	0,1	33,375881
1,097500	0,1	35,958885
1,099167	0,1	38,513235
1,100833	0,1	40,820816
1,102500	0,1	42,979762
1,104167	0,1	45,035664
1,105833	0,1	46,778776
1,107500	0,1	48,375544
1,109167	0,1	49,639147
1,110833	0,1	50,734405
1,112500	0,1	51,493171
1,114167	0,1	52,040039
1,115833	0,1	52,346901
1,117500	0,1	52,390880
1,119167	0,1	52,215720
1,120833	0,1	51,858118
1,122500	0,1	51,249786
1,124167	0,1	50,540569
1,125833	0,1	49,616055
1,127500	0,1	48,574700
1,129167	0,1	47,416242
1,130833	0,1	46,122733
1,132500	0,1	44,769770
1,134167	0,1	43,337960
1,135833	0,1	41,791825
1,137500	0,1	40,303924
1,139167	0,1	38,720336
1,140833	0,1	37,173041
1,142500	0,1	35,606871
1,144167	0,1	34,057719
1,145833	0,1	32,516517
1,147500	0,1	31,018745
1,149167	0,1	29,576276
1,150833	0,1	28,148445
1,152500	0,1	26,821988
1,154167	0,1	25,513043
1,155833	0,1	24,304731
1,157500	0,1	23,064503
1,159167	0,1	22,001777
1,160833	0,1	20,908282
1,162500	0,1	19,931721
1,164167	0,1	18,979134
1,165833	0,1	18,123494
1,167500	0,1	17,266680
1,169167	0,1	16,458656
1,170833	0,1	15,706888
1,172500	0,1	15,043144
1,174167	0,1	14,389685
1,175833	0,1	13,794178
1,177500	0,1	13,283197
1,179167	0,1	12,720245
1,180833	0,1	12,235906
1,182500	0,1	11,781876
1,184167	0,1	11,329049
1,185833	0,1	10,913687
1,187500	0,1	10,474733
1,189167	0,1	10,205426
1,190833	0,1	9,832776
1,192500	0,1	9,547309
1,194167	0,1	9,251887
1,195833	0,1	8,954590
1,197500	0,1	8,687742
1,199167	0,1	8,469448
1,200833	0,1	8,231906
1,202500	0,1	8,048464
1,204167	0,1	7,842621
1,205833	0,1	7,664223
1,207500	0,1	7,484495
1,209167	0,1	7,360534
1,210833	0,1	7,211540
1,212500	0,1	7,030877
1,214167	0,1	6,955727
1,215833	0,1	6,777911
1,217500	0,1	6,700852
1,219167	0,1	6,568081
1,220833	0,1	6,526396
1,222500	0,1	6,395310
1,224167	0,1	6,316954
1,225833	0,1	6,271602
1,227500	0,1	6,173299
1,229167	0,1	6,096164
1,230833	0,1	6,025175
1,232500	0,1	5,956648
1,234167	0,1	5,925825
1,235833	0,1	5,831605
1,237500	0,1	5,825425
1,239167	0,1	5,793721
1,240833	0,1	5,743825
1,242500	0,1	5,677921
1,244167	0,1	5,650591
1,245833	0,1	5,648028
1,247500	0,1	5,537412
1,249167	0,1	5,521060
1,250833	0,1	5,509516
1,252500	0,1	5,470543
1,254167	0,1	5,432301
1,255833	0,1	5,432279
1,257500	0,1	5,359617
1,259167	0,1	5,359316
1,260833	0,1	5,325609
1,262500	0,1	5,302118
1,264167	0,1	5,268422
1,265833	0,1	5,213171
1,267500	0,1	5,220201
1,269167	0,1	5,174617
1,270833	0,1	5,166333
1,272500	0,1	5,178423
1,274167	0,1	5,157615
1,275833	0,1	5,130278
1,277500	0,1	5,110310
1,279167	0,1	5,085742
1,280833	0,1	5,063458
1,282500	0,1	5,067566
1,284167	0,1	5,017759
1,285833	0,1	5,014163
1,287500	0,1	4,996446
1,289167	0,1	4,998032
1,290833	0,1	4,990376
1,292500	0,1	5,009840
1,294167	0,1	4,939763
1,295833	0,1	4,966377
1,297500	0,1	4,928880
1,299167	0,1	4,917557
1,300833	0,1	4,944264
1,302500	0,1	4,918536
1,304167	0,1	4,914092
1,305833	0,1	4,906355
1,307500	0,1	4,891087
1,309167	0,1	4,921295
1,310833	0,1	4,821761
1,312500	0,1	4,860687
1,314167	0,1	4,840438
1,315833	0,1	4,831108
1,317500	0,1	4,848166
1,319167	0,1	4,824877
1,320833	0,1	4,812416
1,322500	0,1	4,786362
1,324167	0,1	4,768165
1,325833	0,1	4,779954
1,327500	0,1	4,799879
1,329167	0,1	4,765564
1,330833	0,1	4,763271
1,332500	0,1	4,723400
1,334167	0,1	4,752898
1,335833	0,1	4,723146
1,337500	0,1	4,720694
1,339167	0,1	4,737260
1,340833	0,1	4,720414
1,342500	0,1	4,737510
1,344167	0,1	4,744881
1,345833	0,1	4,653672
1,347500	0,1	4,690886
1,349167	0,1	4,707664
1,350833	0,1	4,706653
1,352500	0,1	4,684799
1,354167	0,1	4,696309
1,355833	0,1	4,704537
1,357500	0,1	4,660664
1,359167	0,1	4,704928
1,360833	0,1	4,655456
1,362500	0,1	4,660666
1,364167	0,1	4,679695
1,365833	0,1	4,674171
1,367500	0,1	4,689509
1,369167	0,1	4,676890
1,370833	0,1	4,688574
1,372500	0,1	4,665643
1,374167	0,1	4,685760
1,375833	0,1	4,680432
1,377500	0,1	4,694731
1,379167	0,1	4,676208
1,380833	0,1	4,666390
1,382500	0,1	4,747949
1,384167	0,1	4,703611
1,385833	0,1	4,711905
1,387500	0,1	4,670956
1,389167	0,1	4,718157
1,390833	0,1	4,719300
1,392500	0,1	4,724716
1,394167	0,1	4,731080
1,395833	0,1	4,753942
1,397500	0,1	4,764901
1,399167	0,1	4,754201
1,400833	0,1	4,781959
1,402500	0,1	4,766658
1,404167	0,1	4,799385
1,405833	0,1	4,824908
1,407500	0,1	4,806723
1,409167	0,1	4,808137
1,410833	0,1	4,829185
1,412500	0,1	4,838921
1,414167	0,1	4,839078
1,415833	0,1	4,813151
1,417500	0,1	4,825359
1,419167	0,1	4,827725
1,420833	0,1	4,851496
1,422500	0,1	4,819265
1,424167	0,1	4,827314
1,425833	0,1	4,871203
1,427500	0,1	4,873129
1,429167	0,1	4,830913
1,430833	0,1	4,830938
1,432500	0,1	4,839202
1,434167	0,1	4,846288
1,435833	0,1	4,852516
1,437500	0,1	4,811522
1,439167	0,1	4,850598
1,440833	0,1	4,826509
1,442500	0,1	4,855403
1,444167	0,1	4,815634
1,445833	0,1	4,829267
1,447500	0,1	4,884025
1,449167	0,1	4,837303
1,450833	0,1	4,848935
1,452500	0,1	4,869452
1,454167	0,1	4,833671
1,455833	0,1	4,875639
1,457500	0,1	4,835963
1,459167	0,1	4,848321
1,460833	0,1	4,866201
1,462500	0,1	4,851344
1,464167	0,1	4,823288
1,465833	0,1	4,870712
1,467500	0,1	4,834410
1,469167	0,1	4,881502
1,470833	0,1	4,862059
1,472500	0,1	4,825245
1,474167	0,1	4,878243
1,475833	0,1	4,868282
1,477500	0,1	4,892750
1,479167	0,1	4,850325
1,480833	0,1	4,855657
1,482500	0,1	4,834487
1,484167	0,1	4,862899
1,485833	0,1	4,900196
1,487500	0,1	4,888318
1,489167	0,1	4,879313
1,490833	0,1	4,886278
1,492500	0,1	4,908023
1,494167	0,1	4,888927
1,495833	0,1	4,927846
1,497500	0,1	4,876358
1,499167	0,1	4,890141
1,500833	0,1	4,935873
1,502500	0,1	4,912752
1,504167	0,1	4,934244
1,505833	0,1	4,928795
1,507500	0,1	4,912711
1,509167	0,1	4,966941
1,510833	0,1	4,964915
1,512500	0,1	4,976767
1,514167	0,1	4,981127
1,515833	0,1	4,986056
1,517500	0,1	4,981129
1,519167	0,1	4,961661
1,520833	0,1	4,981777
1,522500	0,1	4,986582
1,524167	0,1	4,982881
1,525833	0,1	4,999615
1,527500	0,1	4,994324
1,529167	0,1	5,006541
1,530833	0,1	5,011881
1,532500	0,1	5,019455
1,534167	0,1	5,041694
1,535833	0,1	5,036118
1,537500	0,1	5,041616
1,539167	0,1	5,010789
1,540833	0,1	5,059123
1,542500	0,1	5,081657
1,544167	0,1	5,064638
1,545833	0,1	5,035798
1,547500	0,1	5,075664
1,549167	0,1	5,068263
1,550833	0,1	5,078768
1,552500	0,1	5,068019
1,554167	0,1	5,111228
1,555833	0,1	5,116496
1,557500	0,1	5,122319
1,559167	0,1	5,126681
1,560833	0,1	5,132261
1,562500	0,1	5,144322
1,564167	0,1	5,143062
1,565833	0,1	5,115811
1,567500	0,1	5,112098
1,569167	0,1	5,143706
1,570833	0,1	5,155975
1,572500	0,1	5,184088
1,574167	0,1	5,148163
1,575833	0,1	5,172885
1,577500	0,1	5,173210
1,579167	0,1	5,204503
1,580833	0,1	5,180311
1,582500	0,1	5,182748
1,584167	0,1	5,181893
1,585833	0,1	5,210004
1,587500	0,1	5,247695
1,589167	0,1	5,220127
1,590833	0,1	5,196369
1,592500	0,1	5,237014
1,594167	0,1	5,201829
1,595833	0,1	5,232624
1,597500	0,1	5,287835
1,599167	0,1	5,234840
1,600833	0,1	5,215232
1,602500	0,1	5,245379
1,604167	0,1	5,266249
1,605833	0,1	5,282627
1,607500	0,1	5,288251
1,609167	0,1	5,320330
1,610833	0,1	5,304690
1,612500	0,1	5,303547
1,614167	0,1	5,307825
1,615833	0,1	5,311124
1,617500	0,1	5,301885
1,619167	0,1	5,346985
1,620833	0,1	5,358495
1,622500	0,1	5,367296
1,624167	0,1	5,351362
1,625833	0,1	5,374064
1,627500	0,1	5,395744
1,629167	0,1	5,372070
1,630833	0,1	5,358335
1,632500	0,1	5,358984
1,634167	0,1	5,393618
1,635833	0,1	5,376362
1,637500	0,1	5,387196
1,639167	0,1	5,353582
1,640833	0,1	5,375772
1,642500	0,1	5,355514
1,644167	0,1	5,407109
1,645833	0,1	5,341601
1,647500	0,1	5,392439
1,649167	0,1	5,412501
1,650833	0,1	5,400850
1,652500	0,1	5,378355
1,654167	0,1	5,396609
1,655833	0,1	5,400680
1,657500	0,1	5,407286
1,659167	0,1	5,413323
1,660833	0,1	5,403958
1,662500	0,1	5,403506
1,664167	0,1	5,406718
1,665833	0,1	5,420817
1,667500	0,1	5,402679
1,669167	0,1	5,394932
1,670833	0,1	5,404073
1,672500	0,1	5,396935
1,674167	0,1	5,408589
1,675833	0,1	5,420131
1,677500	0,1	5,445672
1,679167	0,1	5,395607
1,680833	0,1	5,418824
1,682500	0,1	5,401587
1,684167	0,1	5,368739
1,685833	0,1	5,382094
1,687500	0,1	5,409287
1,689167	0,1	5,392338
1,690833	0,1	5,406182
1,692500	0,1	5,358675
1,694167	0,1	5,399084
1,695833	0,1	5,390982
1,697500	0,1	5,405979
1,699167	0,1	5,418410
1,700833	0,1	5,418676
1,702500	0,1	5,406638
1,704167	0,1	5,396167
1,705833	0,1	5,401535
1,707500	0,1	5,371882
1,709167	0,1	5,370477
1,710833	0,1	5,395137
1,712500	0,1	5,424407
1,714167	0,1	5,381990
1,715833	0,1	5,393872
1,717500	0,1	5,351002
1,719167	0,1	5,358165
1,720833	0,1	5,406743
1,722500	0,1	5,369595
1,724167	0,1	5,398078
1,725833	0,1	5,307968
1,727500	0,1	5,321436
1,729167	0,1	5,328649
1,730833	0,1	5,363542
1,732500	0,1	5,302092
1,734167	0,1	5,310305
1,735833	0,1	5,325717
1,737500	0,1	5,261908
1,739167	0,1	5,308871
1,740833	0,1	5,258644
1,742500	0,1	5,273820
1,744167	0,1	5,246901
1,745833	0,1	5,228634
1,747500	0,1	5,164063
1,749167	0,1	5,213905
1,750833	0,1	5,192698
1,752500	0,1	5,171630
1,754167	0,1	5,172764
1,755833	0,1	5,160868
1,757500	0,1	5,096793
1,759167	0,1	5,094618
1,760833	0,1	5,125125
1,762500	0,1	5,080166
1,764167	0,1	5,103981
1,765833	0,1	5,066639
1,767500	0,1	5,078562
1,769167	0,1	5,006887
1,770833	0,1	5,007929
1,772500	0,1	4,990500
1,774167	0,1	4,988829
1,775833	0,1	4,972417
1,777500	0,1	4,957226
1,779167	0,1	4,937520
1,780833	0,1	4,913939
1,782500	0,1	4,879814
1,784167	0,1	4,904478
1,785833	0,1	4,853027
1,787500	0,1	4,819469
1,789167	0,1	4,808711
1,790833	0,1	4,797387
1,792500	0,1	4,773914
1,794167	0,1	4,749518
1,795833	0,1	4,766543
1,797500	0,1	4,764013
1,799167	0,1	4,718020
1,800833	0,1	4,702553
1,802500	0,1	4,703076
1,804167	0,1	4,662423
1,805833	0,1	4,635815
1,807500	0,1	4,664727
1,809167	0,1	4,639708
1,810833	0,1	4,620996
1,812500	0,1	4,604385
1,814167	0,1	4,558087
1,815833	0,1	4,564330
1,817500	0,1	4,509137
1,819167	0,1	4,534809
1,820833	0,1	4,492415
1,822500	0,1	4,499071
1,824167	0,1	4,465934
1,825833	0,1	4,461813
1,827500	0,1	4,461161
1,829167	0,1	4,406996
1,830833	0,1	4,415314
1,832500	0,1	4,378308
1,834167	0,1	4,326459
1,835833	0,1	4,368185
1,837500	0,1	4,380092
1,839167	0,1	4,357867
1,840833	0,1	4,316906
1,842500	0,1	4,304015
1,844167	0,1	4,286216
1,845833	0,1	4,275048
1,847500	0,1	4,281706
1,849167	0,1	4,288213
1,850833	0,1	4,283114
1,852500	0,1	4,283140
1,854167	0,1	4,271094
1,855833	0,1	4,318368
1,857500	0,1	4,335268
1,859167	0,1	4,341906
1,860833	0,1	4,341986
1,862500	0,1	4,435155
1,864167	0,1	4,452726
1,865833	0,1	4,486905
1,867500	0,1	4,549822
1,869167	0,1	4,545819
1,870833	0,1	4,573043
1,872500	0,1	4,566604
1,874167	0,1	4,647371
1,875833	0,1	4,689846
1,877500	0,1	4,690336
1,879167	0,1	4,757198
1,880833	0,1	4,788194
1,882500	0,1	4,810300
1,884167	0,1	4,838794
1,885833	0,1	4,841039
1,887500	0,1	4,902923
1,889167	0,1	4,952851
1,890833	0,1	5,012886
1,892500	0,1	4,962404
1,894167	0,1	5,031499
1,895833	0,1	5,057661
1,897500	0,1	5,081289
1,899167	0,1	5,093066
1,900833	0,1	5,140235
1,902500	0,1	5,180454
1,904167	0,1	5,169590
1,905833	0,1	5,158465
1,907500	0,1	5,254553
1,909167	0,1	5,226776
1,910833	0,1	5,303316
1,912500	0,1	5,270901
1,914167	0,1	5,282224
1,915833	0,1	5,382962
1,917500	0,1	5,387173
1,919167	0,1	5,377488
1,920833	0,1	5,417050
1,922500	0,1	5,414500
1,924167	0,1	5,427862
1,925833	0,1	5,444517
1,927500	0,1	5,489460
1,929167	0,1	5,436622
1,930833	0,1	5,506719
1,932500	0,1	5,498539
1,934167	0,1	5,503286
1,935833	0,1	5,505045
1,937500	0,1	5,521906
1,939167	0,1	5,529871
1,940833	0,1	5,499566
1,942500	0,1	5,543917
1,944167	0,1	5,540866
1,945833	0,1	5,601622
1,947500	0,1	5,561504
1,949167	0,1	5,557901
1,950833	0,1	5,564988
1,952500	0,1	5,583309
1,954167	0,1	5,596446
1,955833	0,1	5,621494
1,957500	0,1	5,591053
1,959167	0,1	5,620955
1,960833	0,1	5,620868
1,962500	0,1	5,651599
1,964167	0,1	5,658815
1,965833	0,1	5,660091
1,967500	0,1	5,666533
1,969167	0,1	5,695507
1,970833	0,1	5,663594
1,972500	0,1	5,697318
1,974167	0,1	5,695001
1,975833	0,1	5,700643
1,977500	0,1	5,715346
1,979167	0,1	5,696249
1,980833	0,1	5,710884
1,982500	0,1	5,800650
1,984167	0,1	5,743771
1,985833	0,1	5,753434
1,987500	0,1	5,811104
1,989167	0,1	5,835610
1,990833	0,1	5,774427
1,992500	0,1	5,818540
1,994167	0,1	5,872935
1,995833	0,1	5,858558
1,997500	0,1	5,900676
1,999167	0,1	5,907842
2,000833	0,1	5,895068
2,002500	0,1	5,902332
2,004167	0,1	5,992298
2,005833	0,1	5,995247
2,007500	0,1	5,962882
2,009167	0,1	5,990669
2,010833	0,1	6,004898
2,012500	0,1	6,026968
2,014167	0,1	6,043978
2,015833	0,1	6,028428
2,017500	0,1	6,017039
2,019167	0,1	6,111707
2,020833	0,1	6,106159
2,022500	0,1	6,120873
2,024167	0,1	6,182811
2,025833	0,1	6,147515
2,027500	0,1	6,240484
2,029167	0,1	6,178086
2,030833	0,1	6,236415
2,032500	0,1	6,238719
2,034167	0,1	6,234602
2,035833	0,1	6,300553
2,037500	0,1	6,306387
2,039167	0,1	6,293405
2,040833	0,1	6,300568
2,042500	0,1	6,353461
2,044167	0,1	6,364542
2,045833	0,1	6,368967
2,047500	0,1	6,356596
2,049167	0,1	6,374347
2,050833	0,1	6,422019
2,052500	0,1	6,403473
2,054167	0,1	6,426387
2,055833	0,1	6,480085
2,057500	0,1	6,442554
2,059167	0,1	6,485671
2,060833	0,1	6,468440
2,062500	0,1	6,465059
2,064167	0,1	6,500470
2,065833	0,1	6,520092
2,067500	0,1	6,505147
2,069167	0,1	6,543418
2,070833	0,1	6,596356
2,072500	0,1	6,563815
2,074167	0,1	6,558507
2,075833	0,1	6,659778
2,077500	0,1	6,559662
2,079167	0,1	6,606241
2,080833	0,1	6,592466
2,082500	0,1	6,598472
2,084167	0,1	6,586137
2,085833	0,1	6,597162
2,087500	0,1	6,575711
2,089167	0,1	6,604088
2,090833	0,1	6,598086
2,092500	0,1	6,620072
2,094167	0,1	6,636919
2,095833	0,1	6,639505
2,097500	0,1	6,607815
2,099167	0,1	6,635751
2,100833	0,1	6,662517
2,102500	0,1	6,620723
2,104167	0,1	6,602475
2,105833	0,1	6,623697
2,107500	0,1	6,624445
2,109167	0,1	6,638671
2,110833	0,1	6,584450
2,112500	0,1	6,581468
2,114167	0,1	6,575035
2,115833	0,1	6,619905
2,117500	0,1	6,549896
2,119167	0,1	6,534946
2,120833	0,1	6,525098
2,122500	0,1	6,532697
2,124167	0,1	6,485341
2,125833	0,1	6,525194
2,127500	0,1	6,508611
2,129167	0,1	6,466182
2,130833	0,1	6,463733
2,132500	0,1	6,487482
2,134167	0,1	6,423051
2,135833	0,1	6,412295
2,137500	0,1	6,409656
2,139167	0,1	6,411617
2,140833	0,1	6,392270
2,142500	0,1	6,358562
2,144167	0,1	6,347680
2,145833	0,1	6,356261
2,147500	0,1	6,299014
2,149167	0,1	6,303642
2,150833	0,1	6,276328
2,152500	0,1	6,275929
2,154167	0,1	6,260615
2,155833	0,1	6,248873
2,157500	0,1	6,268974
2,159167	0,1	6,183366
2,160833	0,1	6,156945
2,162500	0,1	6,157096
2,164167	0,1	6,168202
2,165833	0,1	6,100898
2,167500	0,1	6,079944
2,169167	0,1	6,083917
2,170833	0,1	6,048305
2,172500	0,1	6,050772
2,174167	0,1	6,032994
2,175833	0,1	6,006129
2,177500	0,1	5,987843
2,179167	0,1	5,953454
2,180833	0,1	5,971044
2,182500	0,1	5,934885
2,184167	0,1	5,951083
2,185833	0,1	5,891873
2,187500	0,1	5,879255
2,189167	0,1	5,839686
2,190833	0,1	5,849893
2,192500	0,1	5,818620
2,194167	0,1	5,792159
2,195833	0,1	5,776233
2,197500	0,1	5,747488
2,199167	0,1	5,751682
2,200833	0,1	5,720634
2,202500	0,1	5,707374
2,204167	0,1	5,703234
2,205833	0,1	5,668058
2,207500	0,1	5,633825
2,209167	0,1	5,622072
2,210833	0,1	5,656546
2,212500	0,1	5,579066
2,214167	0,1	5,596075
2,215833	0,1	5,543773
2,217500	0,1	5,549496
2,219167	0,1	5,491625
2,220833	0,1	5,492633
2,222500	0,1	5,483685
2,224167	0,1	5,474519
2,225833	0,1	5,481858
2,227500	0,1	5,440067
2,229167	0,1	5,404924
2,230833	0,1	5,413559
2,232500	0,1	5,396925
2,234167	0,1	5,408174
2,235833	0,1	5,334466
2,237500	0,1	5,322949
2,239167	0,1	5,313202
2,240833	0,1	5,295182
2,242500	0,1	5,318770
2,244167	0,1	5,277177
2,245833	0,1	5,276066
2,247500	0,1	5,246407
2,249167	0,1	5,249531
2,250833	0,1	5,209286
2,252500	0,1	5,221656
2,254167	0,1	5,154194
2,255833	0,1	5,177281
2,257500	0,1	5,165550
2,259167	0,1	5,154587
2,260833	0,1	5,143668
2,262500	0,1	5,106196
2,264167	0,1	5,107243
2,265833	0,1	5,096488
2,267500	0,1	5,057840
2,269167	0,1	5,061089
2,270833	0,1	5,027979
2,272500	0,1	5,039904
2,274167	0,1	5,013313
2,275833	0,1	4,975029
2,277500	0,1	4,978034
2,279167	0,1	5,002550
2,280833	0,1	4,983376
2,282500	0,1	4,924902
2,284167	0,1	4,912629
2,285833	0,1	4,938650
2,287500	0,1	4,913697
2,289167	0,1	4,945772
2,290833	0,1	4,884382
2,292500	0,1	4,847570
2,294167	0,1	4,863150
2,295833	0,1	4,825662
2,297500	0,1	4,876581
2,299167	0,1	4,823508
2,300833	0,1	4,845317
2,302500	0,1	4,828147
2,304167	0,1	4,795134
2,305833	0,1	4,796259
2,307500	0,1	4,769479
2,309167	0,1	4,811561
2,310833	0,1	4,806487
2,312500	0,1	4,755443
2,314167	0,1	4,744441
2,315833	0,1	4,746766
2,317500	0,1	4,737480
2,319167	0,1	4,758441
2,320833	0,1	4,723776
2,322500	0,1	4,709477
2,324167	0,1	4,736947
2,325833	0,1	4,693534
2,327500	0,1	4,758475
2,329167	0,1	4,720601
2,330833	0,1	4,641881
2,332500	0,1	4,669902
2,334167	0,1	4,701287
2,335833	0,1	4,689335
2,337500	0,1	4,673912
2,339167	0,1	4,663983
2,340833	0,1	4,657333
2,342500	0,1	4,660839
2,344167	0,1	4,653152
2,345833	0,1	4,691676
2,347500	0,1	4,690588
2,349167	0,1	4,692588
2,350833	0,1	4,674312
2,352500	0,1	4,707479
2,354167	0,1	4,677698
2,355833	0,1	4,706828
2,357500	0,1	4,695149
2,359167	0,1	4,701772
2,360833	0,1	4,703739
2,362500	0,1	4,675412
2,364167	0,1	4,716994
2,365833	0,1	4,725709
2,367500	0,1	4,707364
2,369167	0,1	4,727795
2,370833	0,1	4,751677
2,372500	0,1	4,769024
2,374167	0,1	4,763121
2,375833	0,1	4,804120
2,377500	0,1	4,775379
2,379167	0,1	4,784211
2,380833	0,1	4,850238
2,382500	0,1	4,779911
2,384167	0,1	4,898645
2,385833	0,1	4,873061
2,387500	0,1	4,900573
2,389167	0,1	4,949843
2,390833	0,1	4,920052
2,392500	0,1	4,963896
2,394167	0,1	4,954945
2,395833	0,1	4,966710
2,397500	0,1	5,005478
2,399167	0,1	4,977432
2,400833	0,1	5,006336
2,402500	0,1	5,038391
2,404167	0,1	5,046830
2,405833	0,1	5,039420
2,407500	0,1	5,071712
2,409167	0,1	5,098481
2,410833	0,1	5,139461
2,412500	0,1	5,141511
2,414167	0,1	5,163222
2,415833	0,1	5,186856
2,417500	0,1	5,195166
2,419167	0,1	5,206612
2,420833	0,1	5,218149
2,422500	0,1	5,308072
2,424167	0,1	5,264661
2,425833	0,1	5,288368
2,427500	0,1	5,269632
2,429167	0,1	5,345735
2,430833	0,1	5,323236
2,432500	0,1	5,378313
2,434167	0,1	5,386449
2,435833	0,1	5,407507
2,437500	0,1	5,405082
2,439167	0,1	5,424160
2,440833	0,1	5,436496
2,442500	0,1	5,494227
2,444167	0,1	5,521151
2,445833	0,1	5,521659
2,447500	0,1	5,589416
2,449167	0,1	5,611518
2,450833	0,1	5,627149
2,452500	0,1	5,620143
2,454167	0,1	5,702759
2,455833	0,1	5,730896
2,457500	0,1	5,735471
2,459167	0,1	5,785671
2,460833	0,1	5,873466
2,462500	0,1	5,955071
2,464167	0,1	5,987515
2,465833	0,1	6,076280
2,467500	0,1	6,178621
2,469167	0,1	6,243429
2,470833	0,1	6,352839
2,472500	0,1	6,542022
2,474167	0,1	6,635665
2,475833	0,1	6,774265
2,477500	0,1	6,971637
2,479167	0,1	7,187351
2,480833	0,1	7,390896
2,482500	0,1	7,622634
2,484167	0,1	7,877084
2,485833	0,1	8,146407
2,487500	0,1	8,474237
2,489167	0,1	8,847699
2,490833	0,1	9,244044
2,492500	0,1	9,667000
2,494167	0,1	10,114452
2,495833	0,1	10,612614
2,497500	0,1	11,172127
2,499167	0,1	11,752216
2,500833	0,1	12,412863
2,502500	0,1	13,071029
2,504167	0,1	13,799443
2,505833	0,1	14,595549
2,507500	0,1	15,444152
2,509167	0,1	16,322172
2,510833	0,1	17,342736
2,512500	0,1	18,343966
2,514167	0,1	19,414093
2,515833	0,1	20,547457
2,517500	0,1	21,713575
2,519167	0,1	23,020760
2,520833	0,1	24,320399
2,522500	0,1	25,696098
2,524167	0,1	27,087019
2,525833	0,1	28,561674
2,527500	0,1	30,085819
2,529167	0,1	31,677351
2,530833	0,1	33,350903
2,532500	0,1	34,993893
2,534167	0,1	36,722675
2,535833	0,1	38,442042
2,537500	0,1	40,219326
2,539167	0,1	42,019904
2,540833	0,1	43,850380
2,542500	0,1	45,740138
2,544167	0,1	47,608894
2,545833	0,1	49,489880
2,547500	0,1	51,360312
2,549167	0,1	53,245990
2,550833	0,1	55,169667
2,552500	0,1	57,068657
2,554167	0,1	58,912929
2,555833	0,1	60,738539
2,557500	0,1	62,547942
2,559167	0,1	64,333171
2,560833	0,1	66,122376
2,562500	0,1	67,858327
2,564167	0,1	69,529197
2,565833	0,1	71,180850
2,567500	0,1	72,718084
2,569167	0,1	74,288244
2,570833	0,1	75,779789
2,572500	0,1	77,223886
2,574167	0,1	78,594072
2,575833	0,1	79,910313
2,577500	0,1	81,100979
2,579167	0,1	82,339924
2,580833	0,1	83,415572
2,582500	0,1	84,485899
2,584167	0,1	85,436524
2,585833	0,1	86,410897
2,587500	0,1	87,263410
2,589167	0,1	87,981598
2,590833	0,1	88,707256
2,592500	0,1	89,353799
2,594167	0,1	89,913811
2,595833	0,1	90,448297
2,597500	0,1	90,868164
2,599167	0,1	91,281100
2,600833	0,1	91,628119
2,602500	0,1	91,896499
2,604167	0,1	92,121855
2,605833	0,1	92,246376
2,607500	0,1	92,358253
2,609167	0,1	92,325801
2,610833	0,1	92,422807
2,612500	0,1	92,326710
2,614167	0,1	92,245391
2,615833	0,1	92,047985
2,617500	0,1	91,828317
2,619167	0,1	91,605469
2,620833	0,1	91,282415
2,622500	0,1	90,938588
2,624167	0,1	90,553976
2,625833	0,1	90,125886
2,627500	0,1	89,663452
2,629167	0,1	89,147909
2,630833	0,1	88,614511
2,632500	0,1	88,074309
2,634167	0,1	87,425866
2,635833	0,1	86,849323
2,637500	0,1	86,153624
2,639167	0,1	85,417302
2,640833	0,1	84,692811
2,642500	0,1	83,954978
2,644167	0,1	83,181887
2,645833	0,1	82,361932
2,647500	0,1	81,518924
2,649167	0,1	80,702484
2,650833	0,1	79,795484
2,652500	0,1	78,905019
2,654167	0,1	77,967482
2,655833	0,1	77,086093
2,657500	0,1	76,161140
2,659167	0,1	75,207196
2,660833	0,1	74,207669
2,662500	0,1	73,235771
2,664167	0,1	72,249013
2,665833	0,1	71,208681
2,667500	0,1	70,208254
2,669167	0,1	69,217545
2,670833	0,1	68,197697
2,672500	0,1	67,188023
2,674167	0,1	66,150423
2,675833	0,1	65,116584
2,677500	0,1	64,080504
2,679167	0,1	63,030300
2,680833	0,1	62,018687
2,682500	0,1	60,989381
2,684167	0,1	59,933953
2,685833	0,1	58,926462
2,687500	0,1	57,933325
2,689167	0,1	56,968679
2,690833	0,1	55,903409
2,692500	0,1	54,930352
2,694167	0,1	53,932600
2,695833	0,1	52,956005
2,697500	0,1	51,934279
2,699167	0,1	51,014457
2,700833	0,1	50,065684
2,702500	0,1	49,162607
2,704167	0,1	48,209156
2,705833	0,1	47,287514
2,707500	0,1	46,350418
2,709167	0,1	45,485758
2,710833	0,1	44,597882
2,712500	0,1	43,756657
2,714167	0,1	42,935742
2,715833	0,1	42,061708
2,717500	0,1	41,270239
2,719167	0,1	40,448884
2,720833	0,1	39,635918
2,722500	0,1	38,874784
2,724167	0,1	38,137508
2,725833	0,1	37,351431
2,727500	0,1	36,645506
2,729167	0,1	35,917891
2,730833	0,1	35,201638
2,732500	0,1	34,511132
2,734167	0,1	33,862191
2,735833	0,1	33,195094
2,737500	0,1	32,541904
2,739167	0,1	31,921915
2,740833	0,1	31,284663
2,742500	0,1	30,666481
2,744167	0,1	30,094654
2,745833	0,1	29,488176
2,747500	0,1	28,951713
2,749167	0,1	28,401481
2,750833	0,1	27,856069
2,752500	0,1	27,363101
2,754167	0,1	26,787880
2,755833	0,1	26,311967
2,757500	0,1	25,847108
2,759167	0,1	25,328837
2,760833	0,1	24,901858
2,762500	0,1	24,425503
2,764167	0,1	23,995357
2,765833	0,1	23,556366
2,767500	0,1	23,117506
2,769167	0,1	22,690617
2,770833	0,1	22,276771
2,772500	0,1	21,864734
2,774167	0,1	21,524501
2,775833	0,1	21,118907
2,777500	0,1	20,724013
2,779167	0,1	20,386436
2,780833	0,1	20,023089
2,782500	0,1	19,629223
2,784167	0,1	19,338645
2,785833	0,1	18,991023
2,787500	0,1	18,649301
2,789167	0,1	18,304092
2,790833	0,1	18,004731
2,792500	0,1	17,716928
2,794167	0,1	17,379903
2,795833	0,1	17,082569
2,797500	0,1	16,828823
2,799167	0,1	16,519702
2,800833	0,1	16,275913
2,802500	0,1	15,999241
2,804167	0,1	15,718082
2,805833	0,1	15,424028
2,807500	0,1	15,207157
2,809167	0,1	14,928789
2,810833	0,1	14,705192
2,812500	0,1	14,436360
2,814167	0,1	14,194749
2,815833	0,1	13,953443
2,817500	0,1	13,736922
2,819167	0,1	13,501853
2,820833	0,1	13,325566
2,822500	0,1	13,095020
2,824167	0,1	12,876526
2,825833	0,1	12,656076
2,827500	0,1	12,491851
2,829167	0,1	12,273319
2,830833	0,1	12,089356
2,832500	0,1	11,903552
2,834167	0,1	11,723035
2,835833	0,1	11,503546
2,837500	0,1	11,359786
2,839167	0,1	11,201005
2,840833	0,1	10,992448
2,842500	0,1	10,850138
2,844167	0,1	10,672725
2,845833	0,1	10,515783
2,847500	0,1	10,368300
2,849167	0,1	10,246892
2,850833	0,1	10,058800
2,852500	0,1	9,950946
2,854167	0,1	9,782810
2,855833	0,1	9,625159
2,857500	0,1	9,508083
2,859167	0,1	9,386613
2,860833	0,1	9,270524
2,862500	0,1	9,111169
2,864167	0,1	9,051483
2,865833	0,1	8,895626
2,867500	0,1	8,753633
2,869167	0,1	8,681471
2,870833	0,1	8,511801
2,872500	0,1	8,420852
2,874167	0,1	8,310815
2,875833	0,1	8,233883
2,877500	0,1	8,113865
2,879167	0,1	8,062177
2,880833	0,1	7,901169
2,882500	0,1	7,828804
2,884167	0,1	7,758628
2,885833	0,1	7,641731
2,887500	0,1	7,544149
2,889167	0,1	7,463422
2,890833	0,1	7,336308
2,892500	0,1	7,257209
2,894167	0,1	7,214466
2,895833	0,1	7,107813
2,897500	0,1	7,086719
2,899167	0,1	6,998828
2,900833	0,1	6,886244
2,902500	0,1	6,825574
2,904167	0,1	6,829395
2,905833	0,1	6,720209
2,907500	0,1	6,622201
2,909167	0,1	6,539312
2,910833	0,1	6,507432
2,912500	0,1	6,402132
2,914167	0,1	6,413072
2,915833	0,1	6,335603
2,917500	0,1	6,277141
2,919167	0,1	6,205281
2,920833	0,1	6,154828
2,922500	0,1	6,093647
2,924167	0,1	6,065734
2,925833	0,1	5,982568
2,927500	0,1	5,967722
2,929167	0,1	5,907995
2,930833	0,1	5,868159
2,932500	0,1	5,816300
2,934167	0,1	5,759929
2,935833	0,1	5,711168
2,937500	0,1	5,633193
2,939167	0,1	5,602963
2,940833	0,1	5,547135
2,942500	0,1	5,508786
2,944167	0,1	5,446701
2,945833	0,1	5,415999
2,947500	0,1	5,396631
2,949167	0,1	5,362090
2,950833	0,1	5,273636
2,952500	0,1	5,289657
2,954167	0,1	5,258542
2,955833	0,1	5,153388
2,957500	0,1	5,172955
2,959167	0,1	5,144689
2,960833	0,1	5,073284
2,962500	0,1	5,060358
2,964167	0,1	5,010756
2,965833	0,1	5,010621
2,967500	0,1	4,954108
2,969167	0,1	4,907878
2,970833	0,1	4,914551
2,972500	0,1	4,879578
2,974167	0,1	4,840543
2,975833	0,1	4,777270
2,977500	0,1	4,749014
2,979167	0,1	4,729554
2,980833	0,1	4,689686
2,982500	0,1	4,685850
2,984167	0,1	4,655810
2,985833	0,1	4,623905
2,987500	0,1	4,603432
2,989167	0,1	4,584282
2,990833	0,1	4,517017
2,992500	0,1	4,505672
2,994167	0,1	4,506715
2,995833	0,1	4,415202
2,997500	0,1	4,477252
2,999167	0,1	4,412877
3,000833	0,1	4,372341
3,002500	0,1	4,371158
3,004167	0,1	4,375662
3,005833	0,1	4,342823
3,007500	0,1	4,325121
3,009167	0,1	4,265666
3,010833	0,1	4,294114
3,012500	0,1	4,233271
3,014167	0,1	4,218011
3,015833	0,1	4,193868
3,017500	0,1	4,197919
3,019167	0,1	4,164286
3,020833	0,1	4,171491
3,022500	0,1	4,109692
3,024167	0,1	4,099901
3,025833	0,1	4,079370
3,027500	0,1	4,084655
3,029167	0,1	4,020130
3,030833	0,1	4,040247
3,032500	0,1	3,983699
3,034167	0,1	3,986571
3,035833	0,1	3,984238
3,037500	0,1	3,951149
3,039167	0,1	3,956110
3,040833	0,1	3,939194
3,042500	0,1	3,918469
3,044167	0,1	3,898166
3,045833	0,1	3,873450
3,047500	0,1	3,868017
3,049167	0,1	3,809630
3,050833	0,1	3,807576
3,052500	0,1	3,743198
3,054167	0,1	3,738380
3,055833	0,1	3,775150
3,057500	0,1	3,731180
3,059167	0,1	3,750418
3,060833	0,1	3,673107
3,062500	0,1	3,691501
3,064167	0,1	3,656193
3,065833	0,1	3,614133
3,067500	0,1	3,620242
3,069167	0,1	3,601485
3,070833	0,1	3,588718
3,072500	0,1	3,567924
3,074167	0,1	3,528545
3,075833	0,1	3,539476
3,077500	0,1	3,545845
3,079167	0,1	3,532136
3,080833	0,1	3,512794
3,082500	0,1	3,480539
3,084167	0,1	3,491356
3,085833	0,1	3,426374
3,087500	0,1	3,450174
3,089167	0,1	3,414320
3,090833	0,1	3,409348
3,092500	0,1	3,399148
3,094167	0,1	3,430247
3,095833	0,1	3,391939
3,097500	0,1	3,353874
3,099167	0,1	3,395546
3,100833	0,1	3,385376
3,102500	0,1	3,383147
3,104167	0,1	3,378455
3,105833	0,1	3,342831
3,107500	0,1	3,355433
3,109167	0,1	3,374907
3,110833	0,1	3,324363
3,112500	0,1	3,315920
3,114167	0,1	3,321251
3,115833	0,1	3,316061
3,117500	0,1	3,320446
3,119167	0,1	3,301857
3,120833	0,1	3,349450
3,122500	0,1	3,323861
3,124167	0,1	3,291120
3,125833	0,1	3,334800
3,127500	0,1	3,340215
3,129167	0,1	3,327030
3,130833	0,1	3,330626
3,132500	0,1	3,320753
3,134167	0,1	3,332064
3,135833	0,1	3,346778
3,137500	0,1	3,321480
3,139167	0,1	3,331849
3,140833	0,1	3,356802
3,142500	0,1	3,314054
3,144167	0,1	3,357438
3,145833	0,1	3,332441
3,147500	0,1	3,370950
3,149167	0,1	3,382848
3,150833	0,1	3,332439
3,152500	0,1	3,359678
3,154167	0,1	3,379812
3,155833	0,1	3,374691
3,157500	0,1	3,369151
3,159167	0,1	3,374400
3,160833	0,1	3,396405
3,162500	0,1	3,389179
3,164167	0,1	3,384651
3,165833	0,1	3,400581
3,167500	0,1	3,335829
3,169167	0,1	3,356235
3,170833	0,1	3,369863
3,172500	0,1	3,404405
3,174167	0,1	3,375632
3,175833	0,1	3,354718
3,177500	0,1	3,311030
3,179167	0,1	3,352196
3,180833	0,1	3,348813
3,182500	0,1	3,353931
3,184167	0,1	3,370939
3,185833	0,1	3,305975
3,187500	0,1	3,301712
3,189167	0,1	3,332862
3,190833	0,1	3,328025
3,192500	0,1	3,318584
3,194167	0,1	3,321464
3,195833	0,1	3,315698
3,197500	0,1	3,275683
3,199167	0,1	3,302132
3,200833	0,1	3,241497
3,202500	0,1	3,247182
3,204167	0,1	3,260590
3,205833	0,1	3,234203
3,207500	0,1	3,197879
3,209167	0,1	3,201827
3,210833	0,1	3,200530
3,212500	0,1	3,182797
3,214167	0,1	3,190358
3,215833	0,1	3,133490
3,217500	0,1	3,095786
3,219167	0,1	3,112350
3,220833	0,1	3,115670
3,222500	0,1	3,081728
3,224167	0,1	3,050007
3,225833	0,1	3,096912
3,227500	0,1	3,034372
3,229167	0,1	3,031908
3,230833	0,1	3,009712
3,232500	0,1	2,991910
3,234167	0,1	3,003360
3,235833	0,1	2,966328
3,237500	0,1	2,937572
3,239167	0,1	2,922653
3,240833	0,1	2,898011
3,242500	0,1	2,887631
3,244167	0,1	2,881578
3,245833	0,1	2,811057
3,247500	0,1	2,845255
3,249167	0,1	2,837846
3,250833	0,1	2,794342
3,252500	0,1	2,803545
3,254167	0,1	2,777690
3,255833	0,1	2,702072
3,257500	0,1	2,717318
3,259167	0,1	2,716680
3,260833	0,1	2,711353
3,262500	0,1	2,687884
3,264167	0,1	2,629902
3,265833	0,1	2,646523
3,267500	0,1	2,618814
3,269167	0,1	2,638835
3,270833	0,1	2,588572
3,272500	0,1	2,538956
3,274167	0,1	2,559611
3,275833	0,1	2,534421
3,277500	0,1	2,542259
3,279167	0,1	2,543587
3,280833	0,1	2,513049
3,282500	0,1	2,488707
3,284167	0,1	2,464596
3,285833	0,1	2,400243
3,287500	0,1	2,454720
3,289167	0,1	2,442338
3,290833	0,1	2,417503
3,292500	0,1	2,414488
3,294167	0,1	2,390178
3,295833	0,1	2,398660
3,297500	0,1	2,394559
3,299167	0,1	2,331722
3,300833	0,1	2,325093
3,302500	0,1	2,349292
3,304167	0,1	2,350374
3,305833	0,1	2,285740
3,307500	0,1	2,339015
3,309167	0,1	2,281147
3,310833	0,1	2,299691
3,312500	0,1	2,294414
3,314167	0,1	2,318412
3,315833	0,1	2,305482
3,317500	0,1	2,273358
3,319167	0,1	2,271282
3,320833	0,1	2,293955
3,322500	0,1	2,271880
3,324167	0,1	2,268347
3,325833	0,1	2,253651
3,327500	0,1	2,262366
3,329167	0,1	2,257120
3,330833	0,1	2,271787
3,332500	0,1	2,278486
3,334167	0,1	2,243308
3,335833	0,1	2,266593
3,337500	0,1	2,288183
3,339167	0,1	2,283946
3,340833	0,1	2,253157
3,342500	0,1	2,262282
3,344167	0,1	2,258898
3,345833	0,1	2,294309
3,347500	0,1	2,226536
3,349167	0,1	2,244715
3,350833	0,1	2,258039
3,352500	0,1	2,261996
3,354167	0,1	2,294008
3,355833	0,1	2,245805
3,357500	0,1	2,244954
3,359167	0,1	2,274898
3,360833	0,1	2,260938
3,362500	0,1	2,281212
3,364167	0,1	2,285829
3,365833	0,1	2,257980
3,367500	0,1	2,280538
3,369167	0,1	2,253792
3,370833	0,1	2,245079
3,372500	0,1	2,286744
3,374167	0,1	2,290075
3,375833	0,1	2,259345
3,377500	0,1	2,244019
3,379167	0,1	2,268121
3,380833	0,1	2,236241
3,382500	0,1	2,232280
3,384167	0,1	2,250405
3,385833	0,1	2,262270
3,387500	0,1	2,234325
3,389167	0,1	2,248973
3,390833	0,1	2,265395
3,392500	0,1	2,286127
3,394167	0,1	2,250928
3,395833	0,1	2,258412
3,397500	0,1	2,217465
3,399167	0,1	2,237742
3,400833	0,1	2,238547
3,402500	0,1	2,226026
3,404167	0,1	2,161789
3,405833	0,1	2,252756
3,407500	0,1	2,212063
3,409167	0,1	2,202428
3,410833	0,1	2,172869
3,412500	0,1	2,202196
3,414167	0,1	2,168080
3,415833	0,1	2,160960
3,417500	0,1	2,189757
3,419167	0,1	2,203730
3,420833	0,1	2,185305
3,422500	0,1	2,162098
3,424167	0,1	2,176828
3,425833	0,1	2,171349
3,427500	0,1	2,142496
3,429167	0,1	2,156111
3,430833	0,1	2,146389
3,432500	0,1	2,135980
3,434167	0,1	2,130563
3,435833	0,1	2,141975
3,437500	0,1	2,134380
3,439167	0,1	2,145480
3,440833	0,1	2,126614
3,442500	0,1	2,116679
3,444167	0,1	2,129347
3,445833	0,1	2,085105
3,447500	0,1	2,150287
3,449167	0,1	2,101206
3,450833	0,1	2,150427
3,452500	0,1	2,136255
3,454167	0,1	2,154884
3,455833	0,1	2,130582
3,457500	0,1	2,145599
3,459167	0,1	2,117043
3,460833	0,1	2,123864
3,462500	0,1	2,164436
3,464167	0,1	2,133259
3,465833	0,1	2,133593
3,467500	0,1	2,180140
3,469167	0,1	2,154131
3,470833	0,1	2,156183
3,472500	0,1	2,178615
3,474167	0,1	2,168555
3,475833	0,1	2,168978
3,477500	0,1	2,200557
3,479167	0,1	2,196818
3,480833	0,1	2,219680
3,482500	0,1	2,239960
3,484167	0,1	2,204955
3,485833	0,1	2,235950
3,487500	0,1	2,269276
3,489167	0,1	2,228472
3,490833	0,1	2,234301
3,492500	0,1	2,311937
3,494167	0,1	2,286113
3,495833	0,1	2,303809
3,497500	0,1	2,320578
3,499167	0,1	2,344411
3,500833	0,1	2,310447
3,502500	0,1	2,342350
3,504167	0,1	2,322436
3,505833	0,1	2,380941
3,507500	0,1	2,395780
3,509167	0,1	2,380450
3,510833	0,1	2,405912
3,512500	0,1	2,408439
3,514167	0,1	2,391532
3,515833	0,1	2,409809
3,517500	0,1	2,418811
3,519167	0,1	2,426227
3,520833	0,1	2,454078
3,522500	0,1	2,469987
3,524167	0,1	2,443148
3,525833	0,1	2,474150
3,527500	0,1	2,476749
3,529167	0,1	2,470570
3,530833	0,1	2,481502
3,532500	0,1	2,471999
3,534167	0,1	2,452426
3,535833	0,1	2,455598
3,537500	0,1	2,522822
3,539167	0,1	2,454451
3,540833	0,1	2,487258
3,542500	0,1	2,488411
3,544167	0,1	2,484087
3,545833	0,1	2,475824
3,547500	0,1	2,501451
3,549167	0,1	2,480144
3,550833	0,1	2,530952
3,552500	0,1	2,500021
3,554167	0,1	2,484965
3,555833	0,1	2,490644
3,557500	0,1	2,468115
3,559167	0,1	2,433134
3,560833	0,1	2,493370
3,562500	0,1	2,437453
3,564167	0,1	2,442652
3,565833	0,1	2,470702
3,567500	0,1	2,442989
3,569167	0,1	2,460409
3,570833	0,1	2,436022
3,572500	0,1	2,418738
3,574167	0,1	2,383555
3,575833	0,1	2,427802
3,577500	0,1	2,387800
3,579167	0,1	2,379662
3,580833	0,1	2,407666
3,582500	0,1	2,368797
3,584167	0,1	2,380523
3,585833	0,1	2,299507
3,587500	0,1	2,329352
3,589167	0,1	2,343409
3,590833	0,1	2,315986
3,592500	0,1	2,268622
3,594167	0,1	2,289190
3,595833	0,1	2,283092
3,597500	0,1	2,296315
3,599167	0,1	2,284374
3,600833	0,1	2,270116
3,602500	0,1	2,261942
3,604167	0,1	2,245467
3,605833	0,1	2,212724
3,607500	0,1	2,195101
3,609167	0,1	2,201158
3,610833	0,1	2,186736
3,612500	0,1	2,156190
3,614167	0,1	2,145012
3,615833	0,1	2,119700
3,617500	0,1	2,140998
3,619167	0,1	2,120666
3,620833	0,1	2,102526
3,622500	0,1	2,043036
3,624167	0,1	2,071887
3,625833	0,1	2,036251
3,627500	0,1	2,061157
3,629167	0,1	2,032317
3,630833	0,1	2,019948
3,632500	0,1	2,009301
3,634167	0,1	1,995440
3,635833	0,1	1,965405
3,637500	0,1	1,939812
3,639167	0,1	1,978825
3,640833	0,1	1,970153
3,642500	0,1	1,937852
3,644167	0,1	1,889040
3,645833	0,1	1,898151
3,647500	0,1	1,862732
3,649167	0,1	1,880613
3,650833	0,1	1,865247
3,652500	0,1	1,891542
3,654167	0,1	1,806730
3,655833	0,1	1,809454
3,657500	0,1	1,802629
3,659167	0,1	1,807110
3,660833	0,1	1,807179
3,662500	0,1	1,783318
3,664167	0,1	1,762528
3,665833	0,1	1,728005
3,667500	0,1	1,767913
3,669167	0,1	1,763396
3,670833	0,1	1,725419
3,672500	0,1	1,697655
3,674167	0,1	1,701679
3,675833	0,1	1,687746
3,677500	0,1	1,703176
3,679167	0,1	1,686791
3,680833	0,1	1,648934
3,682500	0,1	1,655231
3,684167	0,1	1,638491
3,685833	0,1	1,602800
3,687500	0,1	1,603055
3,689167	0,1	1,653125
3,690833	0,1	1,616826
3,692500	0,1	1,600434
3,694167	0,1	1,630864
3,695833	0,1	1,531793
3,697500	0,1	1,540500
3,699167	0,1	1,543470
3,700833	0,1	1,568744
3,702500	0,1	1,537540
3,704167	0,1	1,555552
3,705833	0,1	1,528449
3,707500	0,1	1,502459
3,709167	0,1	1,522517
3,710833	0,1	1,515094
3,712500	0,1	1,506596
3,714167	0,1	1,475247
3,715833	0,1	1,518698
3,717500	0,1	1,472992
3,719167	0,1	1,487481
3,720833	0,1	1,493366
3,722500	0,1	1,464511
3,724167	0,1	1,491103
3,725833	0,1	1,438737
3,727500	0,1	1,417366
3,729167	0,1	1,444593
3,730833	0,1	1,424541
3,732500	0,1	1,475161
3,734167	0,1	1,436918
3,735833	0,1	1,441273
3,737500	0,1	1,449283
3,739167	0,1	1,393046
3,740833	0,1	1,413703
3,742500	0,1	1,416488
3,744167	0,1	1,415712
3,745833	0,1	1,374979
3,747500	0,1	1,372059
3,749167	0,1	1,387114
3,750833	0,1	1,378942
3,752500	0,1	1,341278
3,754167	0,1	1,392759
3,755833	0,1	1,341346
3,757500	0,1	1,379158
3,759167	0,1	1,377229
3,760833	0,1	1,359074
3,762500	0,1	1,338465
3,764167	0,1	1,395724
3,765833	0,1	1,321577
3,767500	0,1	1,353795
3,769167	0,1	1,348505
3,770833	0,1	1,360648
3,772500	0,1	1,318890
3,774167	0,1	1,333446
3,775833	0,1	1,344464
3,777500	0,1	1,337039
3,779167	0,1	1,314297
3,780833	0,1	1,351436
3,782500	0,1	1,301154
3,784167	0,1	1,315968
3,785833	0,1	1,336386
3,787500	0,1	1,286357
3,789167	0,1	1,289544
3,790833	0,1	1,306792
3,792500	0,1	1,268910
3,794167	0,1	1,347517
3,795833	0,1	1,312587
3,797500	0,1	1,277955
3,799167	0,1	1,299942
3,800833	0,1	1,277629
3,802500	0,1	1,340380
3,804167	0,1	1,279933
3,805833	0,1	1,311828
3,807500	0,1	1,273821
3,809167	0,1	1,265771
3,810833	0,1	1,277556
3,812500	0,1	1,250172
3,814167	0,1	1,248909
3,815833	0,1	1,242545
3,817500	0,1	1,263826
3,819167	0,1	1,256274
3,820833	0,1	1,270449
3,822500	0,1	1,230407
3,824167	0,1	1,247966
3,825833	0,1	1,264569
3,827500	0,1	1,255918
3,829167	0,1	1,243937
3,830833	0,1	1,226073
3,832500	0,1	1,242895
3,834167	0,1	1,229206
3,835833	0,1	1,229106
3,837500	0,1	1,183898
3,839167	0,1	1,227803
3,840833	0,1	1,240570
3,842500	0,1	1,203599
3,844167	0,1	1,207562
3,845833	0,1	1,183279
3,847500	0,1	1,193028
3,849167	0,1	1,167648
3,850833	0,1	1,167867
3,852500	0,1	1,186663
3,854167	0,1	1,166098
3,855833	0,1	1,186180
3,857500	0,1	1,154375
3,859167	0,1	1,133448
3,860833	0,1	1,119947
3,862500	0,1	1,175930
3,864167	0,1	1,154088
3,865833	0,1	1,152466
3,867500	0,1	1,131419
3,869167	0,1	1,158341
3,870833	0,1	1,123084
3,872500	0,1	1,118589
3,874167	0,1	1,127628
3,875833	0,1	1,118526
3,877500	0,1	1,080494
3,879167	0,1	1,092752
3,880833	0,1	1,088401
3,882500	0,1	1,094920
3,884167	0,1	1,076352
3,885833	0,1	1,060597
3,887500	0,1	1,055785
3,889167	0,1	1,091328
3,890833	0,1	1,069839
3,892500	0,1	1,059342
3,894167	0,1	1,063630
3,895833	0,1	1,118164
3,897500	0,1	1,070393
3,899167	0,1	1,015698
3,900833	0,1	1,023139
3,902500	0,1	1,048773
3,904167	0,1	1,053753
3,905833	0,1	1,002226
3,907500	0,1	1,039285
3,909167	0,1	1,060916
3,910833	0,1	0,991812
3,912500	0,1	0,996604
3,914167	0,1	1,012337
3,915833	0,1	0,995254
3,917500	0,1	1,007035
3,919167	0,1	0,993027
3,920833	0,1	0,983504
3,922500	0,1	0,964517
3,924167	0,1	0,949707
3,925833	0,1	1,002252
3,927500	0,1	0,984761
3,929167	0,1	0,968011
3,930833	0,1	1,017329
3,932500	0,1	1,002938
3,934167	0,1	0,971395
3,935833	0,1	0,954011
3,937500	0,1	0,955031
3,939167	0,1	0,972877
3,940833	0,1	0,956240
3,942500	0,1	0,935465
3,944167	0,1	0,917341
3,945833	0,1	0,904250
3,947500	0,1	0,959411
3,949167	0,1	0,917851
3,950833	0,1	0,941076
3,952500	0,1	0,924719
3,954167	0,1	0,905124
3,955833	0,1	0,929796
3,957500	0,1	0,892800
3,959167	0,1	0,913191
3,960833	0,1	0,930662
3,962500	0,1	0,943801
3,964167	0,1	0,911292
3,965833	0,1	0,932268
3,967500	0,1	0,902560
3,969167	0,1	0,914295
3,970833	0,1	0,895025
3,972500	0,1	0,901096
3,974167	0,1	0,885380
3,975833	0,1	0,887022
3,977500	0,1	0,841645
3,979167	0,1	0,904207
3,980833	0,1	0,881760
3,982500	0,1	0,870871
3,984167	0,1	0,883814
3,985833	0,1	0,913671
3,987500	0,1	0,860736
3,989167	0,1	0,870322
3,990833	0,1	0,843846
3,992500	0,1	0,879935
3,994167	0,1	0,926971
3,995833	0,1	0,883718
3,997500	0,1	0,869078
3,999167	0,1	0,904443
4,000833	0,1	0,859900
4,002500	0,1	0,879918
4,004167	0,1	0,919619
4,005833	0,1	0,872519
4,007500	0,1	0,868012
4,009167	0,1	0,896406
4,010833	0,1	0,848808
4,012500	0,1	0,890177
4,014167	0,1	0,877177
4,015833	0,1	0,899613
4,017500	0,1	0,857986
4,019167	0,1	0,936380
4,020833	0,1	0,895298
4,022500	0,1	0,879508
4,024167	0,1	0,897117
4,025833	0,1	0,908801
4,027500	0,1	0,878450
4,029167	0,1	0,924931
4,030833	0,1	0,945483
4,032500	0,1	0,915244
4,034167	0,1	0,926609
4,035833	0,1	0,922590
4,037500	0,1	0,896733
4,039167	0,1	0,910485
4,040833	0,1	0,908095
4,042500	0,1	0,928432
4,044167	0,1	0,936790
4,045833	0,1	0,937437
4,047500	0,1	0,922467
4,049167	0,1	0,945368
4,050833	0,1	0,930213
4,052500	0,1	0,911453
4,054167	0,1	0,936682
4,055833	0,1	0,911848
4,057500	0,1	0,945859
4,059167	0,1	0,937376
4,060833	0,1	1,004958
4,062500	0,1	0,983609
4,064167	0,1	1,024461
4,065833	0,1	1,003042
4,067500	0,1	1,043324
4,069167	0,1	1,035030
4,070833	0,1	1,032220
4,072500	0,1	1,032890
4,074167	0,1	1,055078
4,075833	0,1	1,059011
4,077500	0,1	1,046037
4,079167	0,1	1,135103
4,080833	0,1	1,083246
4,082500	0,1	1,072776
4,084167	0,1	1,078520
4,085833	0,1	1,144540
4,087500	0,1	1,140712
4,089167	0,1	1,181265
4,090833	0,1	1,182759
4,092500	0,1	1,156573
4,094167	0,1	1,173840
4,095833	0,1	1,183949
4,097500	0,1	1,215888
4,099167	0,1	1,177148
4,100833	0,1	1,201647
4,102500	0,1	1,264429
4,104167	0,1	1,211095
4,105833	0,1	1,260685
4,107500	0,1	1,273390
4,109167	0,1	1,279788
4,110833	0,1	1,331013
4,112500	0,1	1,323403
4,114167	0,1	1,356766
4,115833	0,1	1,349798
4,117500	0,1	1,343887
4,119167	0,1	1,382353
4,120833	0,1	1,389143
4,122500	0,1	1,410958
4,124167	0,1	1,462553
4,125833	0,1	1,396921
4,127500	0,1	1,483070
4,129167	0,1	1,480375
4,130833	0,1	1,455020
4,132500	0,1	1,502816
4,134167	0,1	1,494567
4,135833	0,1	1,502031
4,137500	0,1	1,535113
4,139167	0,1	1,527563
4,140833	0,1	1,544457
4,142500	0,1	1,600178
4,144167	0,1	1,515759
4,145833	0,1	1,607308
4,147500	0,1	1,615126
4,149167	0,1	1,624758
4,150833	0,1	1,606279
4,152500	0,1	1,628385
4,154167	0,1	1,657176
4,155833	0,1	1,682528
4,157500	0,1	1,695125
4,159167	0,1	1,684584
4,160833	0,1	1,692184
4,162500	0,1	1,734773
4,164167	0,1	1,726597
4,165833	0,1	1,733910
4,167500	0,1	1,743075
4,169167	0,1	1,773736
4,170833	0,1	1,770890
4,172500	0,1	1,775082
4,174167	0,1	1,748234
4,175833	0,1	1,736746
4,177500	0,1	1,753398
4,179167	0,1	1,812025
4,180833	0,1	1,792193
4,182500	0,1	1,776647
4,184167	0,1	1,810158
4,185833	0,1	1,840628
4,187500	0,1	1,831494
4,189167	0,1	1,814188
4,190833	0,1	1,855370
4,192500	0,1	1,852684
4,194167	0,1	1,808439
4,195833	0,1	1,825264
4,197500	0,1	1,835103
4,199167	0,1	1,861465
4,200833	0,1	1,860824
4,202500	0,1	1,849653
4,204167	0,1	1,873824
4,205833	0,1	1,861877
4,207500	0,1	1,852976
4,209167	0,1	1,850387
4,210833	0,1	1,881877
4,212500	0,1	1,887949
4,214167	0,1	1,870910
4,215833	0,1	1,885027
4,217500	0,1	1,875504
4,219167	0,1	1,867141
4,220833	0,1	1,869214
4,222500	0,1	1,836229
4,224167	0,1	1,858589
4,225833	0,1	1,870708
4,227500	0,1	1,891630
4,229167	0,1	1,862772
4,230833	0,1	1,836094
4,232500	0,1	1,846321
4,234167	0,1	1,834036
4,235833	0,1	1,838607
4,237500	0,1	1,853772
4,239167	0,1	1,868072
4,240833	0,1	1,815377
4,242500	0,1	1,838712
4,244167	0,1	1,810933
4,245833	0,1	1,823324
4,247500	0,1	1,822235
4,249167	0,1	1,835504
4,250833	0,1	1,818357
4,252500	0,1	1,826851
4,254167	0,1	1,828546
4,255833	0,1	1,828211
4,257500	0,1	1,800962
4,259167	0,1	1,825329
4,260833	0,1	1,768829
4,262500	0,1	1,756976
4,264167	0,1	1,740741
4,265833	0,1	1,746957
4,267500	0,1	1,734939
4,269167	0,1	1,760468
4,270833	0,1	1,726759
4,272500	0,1	1,713172
4,274167	0,1	1,706105
4,275833	0,1	1,708556
4,277500	0,1	1,689312
4,279167	0,1	1,684250
4,280833	0,1	1,682062
4,282500	0,1	1,698025
4,284167	0,1	1,669963
4,285833	0,1	1,659970
4,287500	0,1	1,674148
4,289167	0,1	1,617902
4,290833	0,1	1,643100
4,292500	0,1	1,641482
4,294167	0,1	1,625212
4,295833	0,1	1,627902
4,297500	0,1	1,610714
4,299167	0,1	1,609813
4,300833	0,1	1,604561
4,302500	0,1	1,599824
4,304167	0,1	1,571343
4,305833	0,1	1,576560
4,307500	0,1	1,571456
4,309167	0,1	1,566508
4,310833	0,1	1,552934
4,312500	0,1	1,514679
4,314167	0,1	1,529852
4,315833	0,1	1,478775
4,317500	0,1	1,550579
4,319167	0,1	1,520035
4,320833	0,1	1,511983
4,322500	0,1	1,514567
4,324167	0,1	1,475952
4,325833	0,1	1,485150
4,327500	0,1	1,462121
4,329167	0,1	1,472484
4,330833	0,1	1,460629
4,332500	0,1	1,402154
4,334167	0,1	1,492184
4,335833	0,1	1,418535
4,337500	0,1	1,468624
4,339167	0,1	1,416299
4,340833	0,1	1,430858
4,342500	0,1	1,391739
4,344167	0,1	1,418772
4,345833	0,1	1,382212
4,347500	0,1	1,398094
4,349167	0,1	1,349259
4,350833	0,1	1,416858
4,352500	0,1	1,375621
4,354167	0,1	1,342796
4,355833	0,1	1,370208
4,357500	0,1	1,344373
4,359167	0,1	1,345143
4,360833	0,1	1,322566
4,362500	0,1	1,380665
4,364167	0,1	1,316438
4,365833	0,1	1,333443
4,367500	0,1	1,337356
4,369167	0,1	1,313520
4,370833	0,1	1,312899
4,372500	0,1	1,323364
4,374167	0,1	1,283287
4,375833	0,1	1,295356
4,377500	0,1	1,290063
4,379167	0,1	1,266874
4,380833	0,1	1,257533
4,382500	0,1	1,235184
4,384167	0,1	1,266537
4,385833	0,1	1,271970
4,387500	0,1	1,277397
4,389167	0,1	1,236417
4,390833	0,1	1,262758
4,392500	0,1	1,254562
4,394167	0,1	1,250783
4,395833	0,1	1,263085
4,397500	0,1	1,227923
4,399167	0,1	1,236503
4,400833	0,1	1,186972
4,402500	0,1	1,182568
4,404167	0,1	1,184408
4,405833	0,1	1,220154
4,407500	0,1	1,183772
4,409167	0,1	1,176270
4,410833	0,1	1,171326
4,412500	0,1	1,156157
4,414167	0,1	1,211428
4,415833	0,1	1,171303
4,417500	0,1	1,138462
4,419167	0,1	1,170676
4,420833	0,1	1,151504
4,422500	0,1	1,160155
4,424167	0,1	1,170745
4,425833	0,1	1,130132
4,427500	0,1	1,136259
4,429167	0,1	1,107326
4,430833	0,1	1,127406
4,432500	0,1	1,121990
4,434167	0,1	1,119114
4,435833	0,1	1,107911
4,437500	0,1	1,109008
4,439167	0,1	1,099614
4,440833	0,1	1,119202
4,442500	0,1	1,109266
4,444167	0,1	1,115075
4,445833	0,1	1,051451
4,447500	0,1	1,052173
4,449167	0,1	1,056600
4,450833	0,1	1,036007
4,452500	0,1	1,064534
4,454167	0,1	1,018607
4,455833	0,1	1,036898
4,457500	0,1	1,033321
4,459167	0,1	1,080647
4,460833	0,1	1,035558
4,462500	0,1	1,030358
4,464167	0,1	1,042494
4,465833	0,1	0,986098
4,467500	0,1	0,991287
4,469167	0,1	1,007944
4,470833	0,1	0,994164
4,472500	0,1	0,978151
4,474167	0,1	0,990993
4,475833	0,1	0,998678
4,477500	0,1	0,971344
4,479167	0,1	0,979120
4,480833	0,1	0,960467
4,482500	0,1	0,956111
4,484167	0,1	0,954260
4,485833	0,1	0,962664
4,487500	0,1	0,933508
4,489167	0,1	0,921127
4,490833	0,1	0,917961
4,492500	0,1	0,896522
4,494167	0,1	0,870766
4,495833	0,1	0,916822
4,497500	0,1	0,908616
4,499167	0,1	0,904365
4,500833	0,1	0,917916
4,502500	0,1	0,899141
4,504167	0,1	0,856633
4,505833	0,1	0,923816
4,507500	0,1	0,876871
4,509167	0,1	0,867197
4,510833	0,1	0,858248
4,512500	0,1	0,884930
4,514167	0,1	0,858873
4,515833	0,1	0,856412
4,517500	0,1	0,853893
4,519167	0,1	0,831621
4,520833	0,1	0,815298
4,522500	0,1	0,839794
4,524167	0,1	0,804456
4,525833	0,1	0,836083
4,527500	0,1	0,809617
4,529167	0,1	0,821224
4,530833	0,1	0,808698
4,532500	0,1	0,826511
4,534167	0,1	0,756190
4,535833	0,1	0,765579
4,537500	0,1	0,783502
4,539167	0,1	0,772704
4,540833	0,1	0,765979
4,542500	0,1	0,805874
4,544167	0,1	0,756830
4,545833	0,1	0,764790
4,547500	0,1	0,757820
4,549167	0,1	0,771117
4,550833	0,1	0,745147
4,552500	0,1	0,728226
4,554167	0,1	0,721747
4,555833	0,1	0,747760
4,557500	0,1	0,719841
4,559167	0,1	0,684039
4,560833	0,1	0,730395
4,562500	0,1	0,712510
4,564167	0,1	0,707718
4,565833	0,1	0,718062
4,567500	0,1	0,692072
4,569167	0,1	0,697040
4,570833	0,1	0,697500
4,572500	0,1	0,653489
4,574167	0,1	0,699028
4,575833	0,1	0,705655
4,577500	0,1	0,643215
4,579167	0,1	0,679426
4,580833	0,1	0,673337
4,582500	0,1	0,651221
4,584167	0,1	0,653752
4,585833	0,1	0,629075
4,587500	0,1	0,631924
4,589167	0,1	0,595428
4,590833	0,1	0,662212
4,592500	0,1	0,625359
4,594167	0,1	0,628485
4,595833	0,1	0,570567
4,597500	0,1	0,598928
4,599167	0,1	0,651001
4,600833	0,1	0,611186
4,602500	0,1	0,643775
4,604167	0,1	0,617140
4,605833	0,1	0,526377
4,607500	0,1	0,569068
4,609167	0,1	0,609707
4,610833	0,1	0,576335
4,612500	0,1	0,603396
4,614167	0,1	0,553136
4,615833	0,1	0,582081
4,617500	0,1	0,578157
4,619167	0,1	0,590593
4,620833	0,1	0,540865
4,622500	0,1	0,544554
4,624167	0,1	0,566234
4,625833	0,1	0,537007
4,627500	0,1	0,557832
4,629167	0,1	0,572208
4,630833	0,1	0,576988
4,632500	0,1	0,547617
4,634167	0,1	0,525212
4,635833	0,1	0,528844
4,637500	0,1	0,522168
4,639167	0,1	0,538931
4,640833	0,1	0,524043
4,642500	0,1	0,531239
4,644167	0,1	0,544352
4,645833	0,1	0,461700
4,647500	0,1	0,514292
4,649167	0,1	0,521980
4,650833	0,1	0,527724
4,652500	0,1	0,508966
4,654167	0,1	0,521625
4,655833	0,1	0,499428
4,657500	0,1	0,517219
4,659167	0,1	0,481240
4,660833	0,1	0,488213
4,662500	0,1	0,489043
4,664167	0,1	0,458573
4,665833	0,1	0,484034
4,667500	0,1	0,477132
4,669167	0,1	0,444727
4,670833	0,1	0,460238
4,672500	0,1	0,481314
4,674167	0,1	0,502398
4,675833	0,1	0,454511
4,677500	0,1	0,455022
4,679167	0,1	0,447021
4,680833	0,1	0,491478
4,682500	0,1	0,450533
4,684167	0,1	0,454086
4,685833	0,1	0,446412
4,687500	0,1	0,437969
4,689167	0,1	0,411146
4,690833	0,1	0,404451
4,692500	0,1	0,457821
4,694167	0,1	0,427085
4,695833	0,1	0,460187
4,697500	0,1	0,377926
4,699167	0,1	0,417689
4,700833	0,1	0,463577
4,702500	0,1	0,384592
4,704167	0,1	0,423955
4,705833	0,1	0,443669
4,707500	0,1	0,434745
4,709167	0,1	0,414649
4,710833	0,1	0,396352
4,712500	0,1	0,406965
4,714167	0,1	0,420494
4,715833	0,1	0,383644
4,717500	0,1	0,392076
4,719167	0,1	0,357867
4,720833	0,1	0,373147
4,722500	0,1	0,376422
4,724167	0,1	0,371629
4,725833	0,1	0,387915
4,727500	0,1	0,375439
4,729167	0,1	0,388681
4,730833	0,1	0,399289
4,732500	0,1	0,400095
4,734167	0,1	0,388748
4,735833	0,1	0,401857
4,737500	0,1	0,354072
4,739167	0,1	0,389965
4,740833	0,1	0,389269
4,742500	0,1	0,380548
4,744167	0,1	0,369173
4,745833	0,1	0,343964
4,747500	0,1	0,371903
4,749167	0,1	0,350821
4,750833	0,1	0,372609
4,752500	0,1	0,385276
4,754167	0,1	0,358047
4,755833	0,1	0,340678
4,757500	0,1	0,341207
4,759167	0,1	0,389866
4,760833	0,1	0,347080
4,762500	0,1	0,343544
4,764167	0,1	0,369446
4,765833	0,1	0,366874
4,767500	0,1	0,336460
4,769167	0,1	0,352637
4,770833	0,1	0,346880
4,772500	0,1	0,300726
4,774167	0,1	0,311904
4,775833	0,1	0,316418
4,777500	0,1	0,377930
4,779167	0,1	0,363290
4,780833	0,1	0,337929
4,782500	0,1	0,329484
4,784167	0,1	0,327318
4,785833	0,1	0,321921
4,787500	0,1	0,323913
4,789167	0,1	0,340549
4,790833	0,1	0,315962
4,792500	0,1	0,371835
4,794167	0,1	0,293696
4,795833	0,1	0,342243
4,797500	0,1	0,316124
4,799167	0,1	0,361232
4,800833	0,1	0,302312
4,802500	0,1	0,310443
4,804167	0,1	0,358299
4,805833	0,1	0,320749
4,807500	0,1	0,376036
4,809167	0,1	0,328909
4,810833	0,1	0,302637
4,812500	0,1	0,333979
4,814167	0,1	0,321097
4,815833	0,1	0,294740
4,817500	0,1	0,272833
4,819167	0,1	0,318222
4,820833	0,1	0,321052
4,822500	0,1	0,264625
4,824167	0,1	0,300133
4,825833	0,1	0,313081
4,827500	0,1	0,284823
4,829167	0,1	0,316231
4,830833	0,1	0,310438
4,832500	0,1	0,260189
4,834167	0,1	0,287275
4,835833	0,1	0,287876
4,837500	0,1	0,282600
4,839167	0,1	0,264263
4,840833	0,1	0,284305
4,842500	0,1	0,290513
4,844167	0,1	0,264401
4,845833	0,1	0,279192
4,847500	0,1	0,294722
4,849167	0,1	0,320684
4,850833	0,1	0,298598
4,852500	0,1	0,295491
4,854167	0,1	0,312013
4,855833	0,1	0,315412
4,857500	0,1	0,273232
4,859167	0,1	0,294728
4,860833	0,1	0,316535
4,862500	0,1	0,261185
4,864167	0,1	0,301101
4,865833	0,1	0,266380
4,867500	0,1	0,299460
4,869167	0,1	0,270951
4,870833	0,1	0,266193
4,872500	0,1	0,302622
4,874167	0,1	0,251269
4,875833	0,1	0,244100
4,877500	0,1	0,302507
4,879167	0,1	0,282303
4,880833	0,1	0,259925
4,882500	0,1	0,296247
4,884167	0,1	0,228250
4,885833	0,1	0,301678
4,887500	0,1	0,287767
4,889167	0,1	0,312656
4,890833	0,1	0,263866
4,892500	0,1	0,294708
4,894167	0,1	0,275050
4,895833	0,1	0,295305
4,897500	0,1	0,301340
4,899167	0,1	0,281846
4,900833	0,1	0,273053
4,902500	0,1	0,280774
4,904167	0,1	0,293373
4,905833	0,1	0,276105
4,907500	0,1	0,283593
4,909167	0,1	0,284299
4,910833	0,1	0,246230
4,912500	0,1	0,287523
4,914167	0,1	0,289629
4,915833	0,1	0,282721
4,917500	0,1	0,237853
4,919167	0,1	0,264382
4,920833	0,1	0,288041
4,922500	0,1	0,285288
4,924167	0,1	0,309252
4,925833	0,1	0,292151
4,927500	0,1	0,250622
4,929167	0,1	0,303907
4,930833	0,1	0,303286
4,932500	0,1	0,264267
4,934167	0,1	0,302983
4,935833	0,1	0,268958
4,937500	0,1	0,284409
4,939167	0,1	0,287865
4,940833	0,1	0,278029
4,942500	0,1	0,312996
4,944167	0,1	0,265455
4,945833	0,1	0,291797
4,947500	0,1	0,267136
4,949167	0,1	0,289925
4,950833	0,1	0,287533
4,952500	0,1	0,318135
4,954167	0,1	0,244011
4,955833	0,1	0,290210
4,957500	0,1	0,258879
4,959167	0,1	0,308379
4,960833	0,1	0,285243
4,962500	0,1	0,263258
4,964167	0,1	0,301574
4,965833	0,1	0,287405
4,967500	0,1	0,281886
4,969167	0,1	0,298005
4,970833	0,1	0,251088
4,972500	0,1	0,280254
4,974167	0,1	0,249451
4,975833	0,1	0,278725
4,977500	0,1	0,300993
4,979167	0,1	0,279913
4,980833	0,1	0,316339
4,982500	0,1	0,275346
4,984167	0,1	0,288415
4,985833	0,1	0,327660
4,987500	0,1	0,309736
4,989167	0,1	0,357633
4,990833	0,1	0,309088
4,992500	0,1	0,268960
4,994167	0,1	0,337423
4,995833	0,1	0,323777
4,997500	0,1	0,320922
4,999167	0,1	0,288295
5,000833	0,1	0,295840
5,002500	0,1	0,306043
5,004167	0,1	0,302752
5,005833	0,1	0,334865
5,007500	0,1	0,345052
5,009167	0,1	0,338218
5,010833	0,1	0,328609
5,012500	0,1	0,331004
5,014167	0,1	0,326603
5,015833	0,1	0,342311
5,017500	0,1	0,347229
5,019167	0,1	0,328713
5,020833	0,1	0,364788
5,022500	0,1	0,350629
5,024167	0,1	0,349225
5,025833	0,1	0,362941
5,027500	0,1	0,319935
5,029167	0,1	0,368262
5,030833	0,1	0,362301
5,032500	0,1	0,372309
5,034167	0,1	0,395809
5,035833	0,1	0,348894
5,037500	0,1	0,344906
5,039167	0,1	0,365288
5,040833	0,1	0,398385
5,042500	0,1	0,398940
5,044167	0,1	0,375904
5,045833	0,1	0,363692
5,047500	0,1	0,412748
5,049167	0,1	0,411056
5,050833	0,1	0,377771
5,052500	0,1	0,440445
5,054167	0,1	0,397125
5,055833	0,1	0,416624
5,057500	0,1	0,417735
5,059167	0,1	0,422721
5,060833	0,1	0,368357
5,062500	0,1	0,441403
5,064167	0,1	0,453913
5,065833	0,1	0,438201
5,067500	0,1	0,398717
5,069167	0,1	0,421670
5,070833	0,1	0,430629
5,072500	0,1	0,438718
5,074167	0,1	0,446542
5,075833	0,1	0,451675
5,077500	0,1	0,478230
5,079167	0,1	0,455042
5,080833	0,1	0,416297
5,082500	0,1	0,437851
5,084167	0,1	0,449048
5,085833	0,1	0,485214
5,087500	0,1	0,457684
5,089167	0,1	0,469621
5,090833	0,1	0,439969
5,092500	0,1	0,466562
5,094167	0,1	0,482334
5,095833	0,1	0,496873
5,097500	0,1	0,490322
5,099167	0,1	0,442796
5,100833	0,1	0,469847
5,102500	0,1	0,468747
5,104167	0,1	0,494352
5,105833	0,1	0,500976
5,107500	0,1	0,495310
5,109167	0,1	0,510049
5,110833	0,1	0,515516
5,112500	0,1	0,519402
5,114167	0,1	0,464090
5,115833	0,1	0,512636
5,117500	0,1	0,518450
5,119167	0,1	0,545071
5,120833	0,1	0,533810
5,122500	0,1	0,536922
5,124167	0,1	0,458327
5,125833	0,1	0,506200
5,127500	0,1	0,505337
5,129167	0,1	0,491687
5,130833	0,1	0,477317
5,132500	0,1	0,523523
5,134167	0,1	0,509854
5,135833	0,1	0,474608
5,137500	0,1	0,516858
5,139167	0,1	0,515701
5,140833	0,1	0,502516
5,142500	0,1	0,517497
5,144167	0,1	0,505740
5,145833	0,1	0,483294
5,147500	0,1	0,490502
5,149167	0,1	0,477934
5,150833	0,1	0,498516
5,152500	0,1	0,507792
5,154167	0,1	0,502404
5,155833	0,1	0,527658
5,157500	0,1	0,492264
5,159167	0,1	0,527946
5,160833	0,1	0,502287
5,162500	0,1	0,506610
5,164167	0,1	0,508071
5,165833	0,1	0,511112
5,167500	0,1	0,500871
5,169167	0,1	0,530405
5,170833	0,1	0,490975
5,172500	0,1	0,486987
5,174167	0,1	0,496596
5,175833	0,1	0,518446
5,177500	0,1	0,470571
5,179167	0,1	0,439981
5,180833	0,1	0,478643
5,182500	0,1	0,434048
5,184167	0,1	0,471367
5,185833	0,1	0,490839
5,187500	0,1	0,459544
5,189167	0,1	0,419471
5,190833	0,1	0,459832
5,192500	0,1	0,473964
5,194167	0,1	0,437256
5,195833	0,1	0,470200
5,197500	0,1	0,476750
5,199167	0,1	0,434241
5,200833	0,1	0,433318
5,202500	0,1	0,445226
5,204167	0,1	0,433700
5,205833	0,1	0,432870
5,207500	0,1	0,436043
5,209167	0,1	0,429124
5,210833	0,1	0,417688
5,212500	0,1	0,448459
5,214167	0,1	0,391156
5,215833	0,1	0,382348
5,217500	0,1	0,408774
5,219167	0,1	0,427353
5,220833	0,1	0,433864
5,222500	0,1	0,428637
5,224167	0,1	0,439193
5,225833	0,1	0,386118
5,227500	0,1	0,412170
5,229167	0,1	0,399112
5,230833	0,1	0,409082
5,232500	0,1	0,396546
5,234167	0,1	0,397637
5,235833	0,1	0,377889
5,237500	0,1	0,402145
5,239167	0,1	0,411114
5,240833	0,1	0,355524
5,242500	0,1	0,391766
5,244167	0,1	0,404946
5,245833	0,1	0,393640
5,247500	0,1	0,328028
5,249167	0,1	0,378516
5,250833	0,1	0,376132
5,252500	0,1	0,351346
5,254167	0,1	0,373184
5,255833	0,1	0,344961
5,257500	0,1	0,349940
5,259167	0,1	0,372076
5,260833	0,1	0,363773
5,262500	0,1	0,399614
5,264167	0,1	0,299390
5,265833	0,1	0,292458
5,267500	0,1	0,294269
5,269167	0,1	0,325889
5,270833	0,1	0,342423
5,272500	0,1	0,311733
5,274167	0,1	0,288112
5,275833	0,1	0,324832
5,277500	0,1	0,312958
5,279167	0,1	0,293509
5,280833	0,1	0,302285
5,282500	0,1	0,308905
5,284167	0,1	0,299350
5,285833	0,1	0,296023
5,287500	0,1	0,314994
5,289167	0,1	0,312854
5,290833	0,1	0,310720
5,292500	0,1	0,275404
5,294167	0,1	0,310659
5,295833	0,1	0,268436
5,297500	0,1	0,299521
5,299167	0,1	0,263572
5,300833	0,1	0,299056
5,302500	0,1	0,258761
5,304167	0,1	0,277137
5,305833	0,1	0,280088
5,307500	0,1	0,256529
5,309167	0,1	0,276613
5,310833	0,1	0,244115
5,312500	0,1	0,270938
5,314167	0,1	0,263144
5,315833	0,1	0,290087
5,317500	0,1	0,254134
5,319167	0,1	0,241756
5,320833	0,1	0,219787
5,322500	0,1	0,225346
5,324167	0,1	0,269060
5,325833	0,1	0,274158
5,327500	0,1	0,243521
5,329167	0,1	0,219967
5,330833	0,1	0,266121
5,332500	0,1	0,231921
5,334167	0,1	0,234499
5,335833	0,1	0,234670
5,337500	0,1	0,253470
5,339167	0,1	0,179444
5,340833	0,1	0,223233
5,342500	0,1	0,254172
5,344167	0,1	0,244574
5,345833	0,1	0,219614
5,347500	0,1	0,264591
5,349167	0,1	0,191098
5,350833	0,1	0,222127
5,352500	0,1	0,221430
5,354167	0,1	0,225236
5,355833	0,1	0,224592
5,357500	0,1	0,222186
5,359167	0,1	0,192675
5,360833	0,1	0,195710
5,362500	0,1	0,181477
5,364167	0,1	0,198277
5,365833	0,1	0,179896
5,367500	0,1	0,169758
5,369167	0,1	0,189088
5,370833	0,1	0,201973
5,372500	0,1	0,205078
5,374167	0,1	0,203855
5,375833	0,1	0,212756
5,377500	0,1	0,194884
5,379167	0,1	0,182301
5,380833	0,1	0,175962
5,382500	0,1	0,170938
5,384167	0,1	0,184347
5,385833	0,1	0,141007
5,387500	0,1	0,139589
5,389167	0,1	0,145272
5,390833	0,1	0,158385
5,392500	0,1	0,173205
5,394167	0,1	0,191998
5,395833	0,1	0,182518
5,397500	0,1	0,193596
5,399167	0,1	0,129879
5,400833	0,1	0,167340
5,402500	0,1	0,157514
5,404167	0,1	0,168576
5,405833	0,1	0,188379
5,407500	0,1	0,146501
5,409167	0,1	0,146211
5,410833	0,1	0,157103
5,412500	0,1	0,116640
5,414167	0,1	0,153284
5,415833	0,1	0,182927
5,417500	0,1	0,182929
5,419167	0,1	0,137141
5,420833	0,1	0,133671
5,422500	0,1	0,131266
5,424167	0,1	0,153056
5,425833	0,1	0,140296
5,427500	0,1	0,136487
5,429167	0,1	0,137589
5,430833	0,1	0,178648
5,432500	0,1	0,135846
5,434167	0,1	0,109193
5,435833	0,1	0,099705
5,437500	0,1	0,138057
5,439167	0,1	0,150891
5,440833	0,1	0,102992
5,442500	0,1	0,128979
5,444167	0,1	0,122950
5,445833	0,1	0,116979
5,447500	0,1	0,148077
5,449167	0,1	0,135081
5,450833	0,1	0,149824
5,452500	0,1	0,146146
5,454167	0,1	0,121553
5,455833	0,1	0,144028
5,457500	0,1	0,118682
5,459167	0,1	0,118210
5,460833	0,1	0,112056
5,462500	0,1	0,143024
5,464167	0,1	0,091277
5,465833	0,1	0,138174
5,467500	0,1	0,114866
5,469167	0,1	0,111996
5,470833	0,1	0,109131
5,472500	0,1	0,135769
5,474167	0,1	0,093499
5,475833	0,1	0,112056
5,477500	0,1	0,115747
5,479167	0,1	0,108900
5,480833	0,1	0,104449
5,482500	0,1	0,094839
5,484167	0,1	0,113633
5,485833	0,1	0,104147
5,487500	0,1	0,096421
5,489167	0,1	0,129380
5,490833	0,1	0,135417
5,492500	0,1	0,114524
5,494167	0,1	0,098478
5,495833	0,1	0,073816
5,497500	0,1	0,080313
5,499167	0,1	0,091553
5,500833	0,1	0,049571
5,502500	0,1	0,073982
5,504167	0,1	0,089328
5,505833	0,1	0,075043
5,507500	0,1	0,085933
5,509167	0,1	0,072113
5,510833	0,1	0,100510
5,512500	0,1	0,077444
5,514167	0,1	0,083473
5,515833	0,1	0,090732
5,517500	0,1	0,107947
5,519167	0,1	0,070191
5,520833	0,1	0,093483
5,522500	0,1	0,131014
5,524167	0,1	0,067383
5,525833	0,1	0,043302
5,527500	0,1	0,105127
5,529167	0,1	0,110643
5,530833	0,1	0,041556
5,532500	0,1	0,065548
5,534167	0,1	0,069939
5,535833	0,1	0,103667
5,537500	0,1	0,071880
5,539167	0,1	0,083234
5,540833	0,1	0,103205
5,542500	0,1	0,078792
5,544167	0,1	0,086637
5,545833	0,1	0,077737
5,547500	0,1	0,068542
5,549167	0,1	0,081360
5,550833	0,1	0,046875
5,552500	0,1	0,101614
5,554167	0,1	0,059588
5,555833	0,1	0,026205
5,557500	0,1	0,062496
5,559167	0,1	0,103897
5,560833	0,1	0,055487
5,562500	0,1	0,058816
5,564167	0,1	0,089613
5,565833	0,1	0,038858
5,567500	0,1	0,031240
5,569167	0,1	0,036150
5,570833	0,1	0,080005
5,572500	0,1	0,050329
5,574167	0,1	0,066196
5,575833	0,1	0,077498
5,577500	0,1	0,065964
5,579167	0,1	0,063032
5,580833	0,1	0,081181
5,582500	0,1	0,057532
5,584167	0,1	0,049272
5,585833	0,1	0,089551
5,587500	0,1	0,116148
5,589167	0,1	0,048992
5,590833	0,1	0,056120
5,592500	0,1	0,071114
5,594167	0,1	0,084466
5,595833	0,1	0,068305
5,597500	0,1	0,063558
5,599167	0,1	0,046172
5,600833	0,1	0,071279
5,602500	0,1	0,038033
5,604167	0,1	0,057936
5,605833	0,1	0,045112
5,607500	0,1	0,047633
5,609167	0,1	0,038848
5,610833	0,1	0,061330
5,612500	0,1	0,050379
5,614167	0,1	0,099976
5,615833	0,1	0,063682
5,617500	0,1	0,067596
5,619167	0,1	0,043011
5,620833	0,1	0,043886
5,622500	0,1	0,116891
5,624167	0,1	0,049459
5,625833	0,1	0,059050
5,627500	0,1	0,072282
5,629167	0,1	0,040318
5,630833	0,1	0,071226
5,632500	0,1	0,103959
5,634167	0,1	0,062278
5,635833	0,1	0,043189
5,637500	0,1	0,087558
5,639167	0,1	0,048984
5,640833	0,1	0,083638
5,642500	0,1	0,064092
5,644167	0,1	0,061565
5,645833	0,1	0,055946
5,647500	0,1	0,063792
5,649167	0,1	0,041019
5,650833	0,1	0,072865
5,652500	0,1	0,079548
5,654167	0,1	0,080892
5,655833	0,1	0,086163
5,657500	0,1	0,056951
5,659167	0,1	0,046932
5,660833	0,1	0,044586
5,662500	0,1	0,046870
5,664167	0,1	0,079129
5,665833	0,1	0,103026
5,667500	0,1	0,068665
5,669167	0,1	0,082703
5,670833	0,1	0,084822
5,672500	0,1	0,058528
5,674167	0,1	0,066781
5,675833	0,1	0,060513
5,677500	0,1	0,078607
5,679167	0,1	0,110758
5,680833	0,1	0,092730
5,682500	0,1	0,101037
5,684167	0,1	0,073693
5,685833	0,1	0,071703
5,687500	0,1	0,046524
5,689167	0,1	0,083053
5,690833	0,1	0,098343
5,692500	0,1	0,053672
5,694167	0,1	0,065723
5,695833	0,1	0,095821
5,697500	0,1	0,085291
5,699167	0,1	0,071177
5,700833	0,1	0,068363
5,702500	0,1	0,074335
5,704167	0,1	0,123240
5,705833	0,1	0,052627
5,707500	0,1	0,091487
5,709167	0,1	0,102735
5,710833	0,1	0,101040
5,712500	0,1	0,089860
5,714167	0,1	0,113278
5,715833	0,1	0,079964
5,717500	0,1	0,073523
5,719167	0,1	0,133184
5,720833	0,1	0,101166
5,722500	0,1	0,102627
5,724167	0,1	0,102565
5,725833	0,1	0,052037
5,727500	0,1	0,095061
5,729167	0,1	0,127973
5,730833	0,1	0,102108
5,732500	0,1	0,086988
5,734167	0,1	0,106655
5,735833	0,1	0,106431
5,737500	0,1	0,127979
5,739167	0,1	0,084892
5,740833	0,1	0,127508
5,742500	0,1	0,113634
5,744167	0,1	0,090443
5,745833	0,1	0,136290
5,747500	0,1	0,126054
5,749167	0,1	0,090858
5,750833	0,1	0,116208
5,752500	0,1	0,105967
5,754167	0,1	0,134193
5,755833	0,1	0,113111
5,757500	0,1	0,090392
5,759167	0,1	0,085883
5,760833	0,1	0,101570
5,762500	0,1	0,108243
5,764167	0,1	0,111231
5,765833	0,1	0,096829
5,767500	0,1	0,100572
5,769167	0,1	0,080783
5,770833	0,1	0,120134
5,772500	0,1	0,115684
5,774167	0,1	0,106255
5,775833	0,1	0,111409
5,777500	0,1	0,134835
5,779167	0,1	0,079862
5,780833	0,1	0,109470
5,782500	0,1	0,100807
5,784167	0,1	0,129153
5,785833	0,1	0,092091
5,787500	0,1	0,104142
5,789167	0,1	0,134074
5,790833	0,1	0,086648
5,792500	0,1	0,115732
5,794167	0,1	0,137461
5,795833	0,1	0,089346
5,797500	0,1	0,124635
5,799167	0,1	0,097358
5,800833	0,1	0,113577
5,802500	0,1	0,119844
5,804167	0,1	0,124058
5,805833	0,1	0,071833
5,807500	0,1	0,092311
5,809167	0,1	0,125227
5,810833	0,1	0,141864
5,812500	0,1	0,126527
5,814167	0,1	0,109948
5,815833	0,1	0,129383
5,817500	0,1	0,108606
5,819167	0,1	0,105965
5,820833	0,1	0,110940
5,822500	0,1	0,079972
5,824167	0,1	0,097941
5,825833	0,1	0,133781
5,827500	0,1	0,120609
5,829167	0,1	0,121953
5,830833	0,1	0,088165
5,832500	0,1	0,106842
5,834167	0,1	0,124877
5,835833	0,1	0,120319
5,837500	0,1	0,107723
5,839167	0,1	0,085175
5,840833	0,1	0,128559
5,842500	0,1	0,121017
5,844167	0,1	0,103217
5,845833	0,1	0,119838
5,847500	0,1	0,123711
5,849167	0,1	0,126761
5,850833	0,1	0,128981
5,852500	0,1	0,107140
5,854167	0,1	0,086938
5,855833	0,1	0,121711
5,857500	0,1	0,129039
5,859167	0,1	0,102219
5,860833	0,1	0,083597
5,862500	0,1	0,104265
5,864167	0,1	0,080369
5,865833	0,1	0,128504
5,867500	0,1	0,129507
5,869167	0,1	0,143504
5,870833	0,1	0,118332
5,872500	0,1	0,094020
5,874167	0,1	0,065733
5,875833	0,1	0,105661
5,877500	0,1	0,108016
5,879167	0,1	0,105375
5,880833	0,1	0,096534
5,882500	0,1	0,084175
5,884167	0,1	0,124287
5,885833	0,1	0,141160
5,887500	0,1	0,079853
5,889167	0,1	0,089915
5,890833	0,1	0,097002
5,892500	0,1	0,108186
5,894167	0,1	0,088102
5,895833	0,1	0,071822
5,897500	0,1	0,094421
5,899167	0,1	0,078497
5,900833	0,1	0,092138
5,902500	0,1	0,095243
5,904167	0,1	0,155211
5,905833	0,1	0,068443
5,907500	0,1	0,080956
5,909167	0,1	0,094715
5,910833	0,1	0,111228
5,912500	0,1	0,160774
5,914167	0,1	0,095675
5,915833	0,1	0,108014
5,917500	0,1	0,109418
5,919167	0,1	0,090560
5,920833	0,1	0,067025
5,922500	0,1	0,133238
5,924167	0,1	0,152453
5,925833	0,1	0,072015
5,927500	0,1	0,064144
5,929167	0,1	0,120711
5,930833	0,1	0,046358
5,932500	0,1	0,101560
5,934167	0,1	0,063334
5,935833	0,1	0,086164
5,937500	0,1	0,051562
5,939167	0,1	0,062798
5,940833	0,1	0,075384
5,942500	0,1	0,083526
5,944167	0,1	0,064028
5,945833	0,1	0,054545
5,947500	0,1	0,062153
5,949167	0,1	0,071396
5,950833	0,1	0,072640
5,952500	0,1	0,078319
5,954167	0,1	0,079023
5,955833	0,1	0,084635
5,957500	0,1	0,048223
5,959167	0,1	0,075788
5,960833	0,1	0,089442
5,962500	0,1	0,074631
5,964167	0,1	0,084289
5,965833	0,1	0,067194
5,967500	0,1	0,065317
5,969167	0,1	0,054133
5,970833	0,1	0,073509
5,972500	0,1	0,071582
5,974167	0,1	0,067193
5,975833	0,1	0,059930
5,977500	0,1	0,085048
5,979167	0,1	0,065494
5,980833	0,1	0,042185
5,982500	0,1	0,039255
5,984167	0,1	0,062499
5,985833	0,1	0,069649
5,987500	0,1	0,083347
5,989167	0,1	0,041900
5,990833	0,1	0,064492
5,992500	0,1	0,072811
5,994167	0,1	0,033878
5,995833	0,1	0,066479
5,997500	0,1	0,072345
5,999167	0,1	0,035398
6,000833	0,1	0,070581
