File Path	chrom://chromeleon01/ikbm_chromeleon/2022/Rezex/Esteban/220612_chitin_4_7.seq/707.smp/UV_VIS_1.channel/UV_VIS_1.chm
Channel	UV_VIS_1

Injection Information:
Data Vault	ikbm_chromeleon
Injection	4_24h-ChiBI_3
Injection Number	45
Position	RE8
Comment	
Processing Method	New ProcMethod
Instrument Method	Short_Rezex_6min_194nm
Type	Unknown
Status	Finished
Injection Date	12.06.2022
Injection Time	21:59:07
Injection Volume (µl)	8,000
Dilution Factor	1,0000
Weight	1,0000

Chromatogram Data Information:
Time Min. (min)	0,000833
Time Max. (min)	6,000833
Data Points	3601
Detector	UV
Generating Data System	Chromeleon 7.2.9.11323
Exporting Data System	Chromeleon 7.2.9.0
Operator	Instrument Controller
Signal Quantity	Absorbance
Signal Unit	mAU
Signal Min.	-0,145126
Signal Max.	198,308267
Channel	UV_VIS_1
Driver Name	VWD3000.dll
Channel Type	Evaluation
Min. Step (s)	0,1
Max. Step (s)	0,1
Average Step (s)	0,1

Signal Parameter Information:
Signal Info	WVL:194 nm

Chromatogram Data:
Time (min)	Step (s)	Value (mAU)
0,000833	n.a.	-0,094123
0,002500	0,1	-0,096539
0,004167	0,1	-0,090002
0,005833	0,1	-0,087072
0,007500	0,1	-0,097696
0,009167	0,1	-0,090196
0,010833	0,1	-0,035167
0,012500	0,1	-0,108726
0,014167	0,1	-0,069785
0,015833	0,1	-0,101458
0,017500	0,1	-0,087075
0,019167	0,1	-0,080825
0,020833	0,1	-0,082111
0,022500	0,1	-0,100850
0,024167	0,1	-0,063279
0,025833	0,1	-0,045174
0,027500	0,1	-0,114429
0,029167	0,1	-0,116055
0,030833	0,1	-0,115411
0,032500	0,1	-0,109002
0,034167	0,1	-0,140262
0,035833	0,1	-0,106659
0,037500	0,1	-0,128159
0,039167	0,1	-0,145126
0,040833	0,1	-0,142814
0,042500	0,1	-0,115319
0,044167	0,1	-0,130349
0,045833	0,1	-0,128581
0,047500	0,1	-0,113868
0,049167	0,1	-0,109486
0,050833	0,1	-0,122105
0,052500	0,1	-0,115605
0,054167	0,1	-0,114316
0,055833	0,1	-0,127709
0,057500	0,1	-0,114866
0,059167	0,1	-0,126582
0,060833	0,1	-0,106914
0,062500	0,1	-0,090489
0,064167	0,1	-0,084432
0,065833	0,1	-0,104586
0,067500	0,1	-0,091807
0,069167	0,1	-0,113183
0,070833	0,1	-0,065794
0,072500	0,1	-0,082172
0,074167	0,1	-0,095215
0,075833	0,1	-0,107614
0,077500	0,1	-0,106137
0,079167	0,1	-0,087656
0,080833	0,1	-0,058833
0,082500	0,1	-0,095080
0,084167	0,1	-0,095831
0,085833	0,1	-0,082146
0,087500	0,1	-0,047755
0,089167	0,1	-0,069062
0,090833	0,1	-0,069646
0,092500	0,1	-0,078212
0,094167	0,1	-0,079342
0,095833	0,1	-0,045823
0,097500	0,1	-0,106474
0,099167	0,1	-0,064762
0,100833	0,1	-0,067361
0,102500	0,1	-0,060084
0,104167	0,1	-0,074281
0,105833	0,1	-0,094375
0,107500	0,1	-0,085108
0,109167	0,1	-0,082465
0,110833	0,1	-0,129729
0,112500	0,1	-0,105112
0,114167	0,1	-0,095382
0,115833	0,1	-0,134466
0,117500	0,1	-0,089431
0,119167	0,1	-0,117142
0,120833	0,1	-0,140651
0,122500	0,1	-0,134028
0,124167	0,1	-0,097837
0,125833	0,1	-0,123551
0,127500	0,1	-0,082539
0,129167	0,1	-0,117623
0,130833	0,1	-0,092519
0,132500	0,1	-0,117562
0,134167	0,1	-0,098186
0,135833	0,1	-0,098760
0,137500	0,1	-0,116083
0,139167	0,1	-0,114059
0,140833	0,1	-0,091874
0,142500	0,1	-0,056387
0,144167	0,1	-0,084004
0,145833	0,1	-0,075510
0,147500	0,1	-0,079985
0,149167	0,1	-0,099176
0,150833	0,1	-0,043251
0,152500	0,1	-0,066003
0,154167	0,1	-0,055028
0,155833	0,1	-0,114913
0,157500	0,1	-0,051691
0,159167	0,1	-0,093825
0,160833	0,1	-0,072293
0,162500	0,1	-0,039251
0,164167	0,1	-0,031901
0,165833	0,1	-0,069445
0,167500	0,1	-0,041861
0,169167	0,1	-0,080266
0,170833	0,1	-0,057865
0,172500	0,1	-0,056862
0,174167	0,1	-0,047942
0,175833	0,1	-0,080202
0,177500	0,1	-0,106582
0,179167	0,1	-0,056809
0,180833	0,1	-0,032099
0,182500	0,1	-0,075660
0,184167	0,1	-0,104134
0,185833	0,1	-0,067693
0,187500	0,1	-0,036868
0,189167	0,1	-0,060786
0,190833	0,1	-0,041794
0,192500	0,1	-0,037217
0,194167	0,1	-0,071669
0,195833	0,1	-0,056479
0,197500	0,1	-0,056282
0,199167	0,1	-0,078723
0,200833	0,1	-0,039834
0,202500	0,1	-0,062268
0,204167	0,1	-0,083555
0,205833	0,1	-0,102299
0,207500	0,1	-0,047213
0,209167	0,1	-0,042435
0,210833	0,1	-0,087640
0,212500	0,1	-0,092545
0,214167	0,1	-0,061314
0,215833	0,1	-0,061306
0,217500	0,1	-0,072285
0,219167	0,1	-0,072288
0,220833	0,1	-0,025920
0,222500	0,1	-0,036149
0,224167	0,1	-0,020471
0,225833	0,1	-0,067093
0,227500	0,1	-0,049265
0,229167	0,1	-0,030326
0,230833	0,1	-0,033509
0,232500	0,1	-0,053860
0,234167	0,1	-0,017673
0,235833	0,1	-0,080968
0,237500	0,1	-0,013718
0,239167	0,1	-0,026648
0,240833	0,1	-0,038596
0,242500	0,1	-0,047005
0,244167	0,1	-0,020827
0,245833	0,1	-0,034830
0,247500	0,1	-0,051254
0,249167	0,1	-0,066199
0,250833	0,1	-0,060694
0,252500	0,1	-0,038219
0,254167	0,1	-0,049194
0,255833	0,1	-0,057955
0,257500	0,1	-0,051806
0,259167	0,1	0,000105
0,260833	0,1	-0,091493
0,262500	0,1	-0,038002
0,264167	0,1	-0,029904
0,265833	0,1	-0,017150
0,267500	0,1	-0,011221
0,269167	0,1	-0,028129
0,270833	0,1	-0,045457
0,272500	0,1	-0,045332
0,274167	0,1	-0,034545
0,275833	0,1	-0,011840
0,277500	0,1	-0,026712
0,279167	0,1	-0,040334
0,280833	0,1	-0,015544
0,282500	0,1	-0,037017
0,284167	0,1	-0,010261
0,285833	0,1	-0,059522
0,287500	0,1	-0,003408
0,289167	0,1	-0,059005
0,290833	0,1	-0,033935
0,292500	0,1	-0,014545
0,294167	0,1	-0,069505
0,295833	0,1	-0,044788
0,297500	0,1	-0,020023
0,299167	0,1	-0,065321
0,300833	0,1	-0,041632
0,302500	0,1	-0,023143
0,304167	0,1	-0,038274
0,305833	0,1	0,016499
0,307500	0,1	-0,046862
0,309167	0,1	-0,037604
0,310833	0,1	-0,005947
0,312500	0,1	-0,020141
0,314167	0,1	-0,008778
0,315833	0,1	-0,066896
0,317500	0,1	-0,058925
0,319167	0,1	-0,040471
0,320833	0,1	0,017239
0,322500	0,1	-0,025931
0,324167	0,1	-0,001821
0,325833	0,1	-0,004071
0,327500	0,1	-0,012026
0,329167	0,1	-0,036017
0,330833	0,1	-0,032544
0,332500	0,1	-0,017024
0,334167	0,1	-0,025713
0,335833	0,1	-0,026136
0,337500	0,1	0,009769
0,339167	0,1	-0,003391
0,340833	0,1	-0,000912
0,342500	0,1	-0,021748
0,344167	0,1	-0,009357
0,345833	0,1	-0,019142
0,347500	0,1	-0,041493
0,349167	0,1	-0,014867
0,350833	0,1	0,006325
0,352500	0,1	-0,029734
0,354167	0,1	-0,022690
0,355833	0,1	-0,036857
0,357500	0,1	0,009446
0,359167	0,1	-0,001909
0,360833	0,1	0,014801
0,362500	0,1	-0,016689
0,364167	0,1	0,023974
0,365833	0,1	0,013613
0,367500	0,1	-0,021842
0,369167	0,1	-0,022400
0,370833	0,1	0,017726
0,372500	0,1	0,037734
0,374167	0,1	0,038323
0,375833	0,1	0,035233
0,377500	0,1	-0,005703
0,379167	0,1	0,010836
0,380833	0,1	0,031352
0,382500	0,1	0,005951
0,384167	0,1	0,004466
0,385833	0,1	0,052806
0,387500	0,1	0,017197
0,389167	0,1	-0,015209
0,390833	0,1	0,008872
0,392500	0,1	0,032423
0,394167	0,1	0,039026
0,395833	0,1	0,007112
0,397500	0,1	0,007978
0,399167	0,1	-0,025160
0,400833	0,1	0,002203
0,402500	0,1	0,043917
0,404167	0,1	0,021509
0,405833	0,1	0,049358
0,407500	0,1	0,054749
0,409167	0,1	0,035811
0,410833	0,1	0,056772
0,412500	0,1	0,067278
0,414167	0,1	0,058228
0,415833	0,1	0,020063
0,417500	0,1	-0,000651
0,419167	0,1	0,002532
0,420833	0,1	0,036447
0,422500	0,1	0,053037
0,424167	0,1	0,011623
0,425833	0,1	0,034606
0,427500	0,1	0,026373
0,429167	0,1	0,023535
0,430833	0,1	0,053997
0,432500	0,1	0,040223
0,434167	0,1	0,035387
0,435833	0,1	0,046016
0,437500	0,1	0,028084
0,439167	0,1	0,050718
0,440833	0,1	0,071851
0,442500	0,1	0,025319
0,444167	0,1	0,045370
0,445833	0,1	0,101962
0,447500	0,1	0,061557
0,449167	0,1	0,067505
0,450833	0,1	0,038136
0,452500	0,1	0,084118
0,454167	0,1	0,028478
0,455833	0,1	0,063856
0,457500	0,1	0,028988
0,459167	0,1	0,051552
0,460833	0,1	0,082963
0,462500	0,1	0,038399
0,464167	0,1	0,069525
0,465833	0,1	0,062447
0,467500	0,1	0,067890
0,469167	0,1	0,076234
0,470833	0,1	0,092697
0,472500	0,1	0,051827
0,474167	0,1	0,075202
0,475833	0,1	0,031891
0,477500	0,1	0,090977
0,479167	0,1	0,084868
0,480833	0,1	0,087611
0,482500	0,1	0,079909
0,484167	0,1	0,090475
0,485833	0,1	0,072991
0,487500	0,1	0,086861
0,489167	0,1	0,040008
0,490833	0,1	0,060864
0,492500	0,1	0,110862
0,494167	0,1	0,082587
0,495833	0,1	0,070694
0,497500	0,1	0,051438
0,499167	0,1	0,066503
0,500833	0,1	0,080715
0,502500	0,1	0,122303
0,504167	0,1	0,062302
0,505833	0,1	0,120330
0,507500	0,1	0,111708
0,509167	0,1	0,112350
0,510833	0,1	0,062333
0,512500	0,1	0,074272
0,514167	0,1	0,095143
0,515833	0,1	0,122784
0,517500	0,1	0,088973
0,519167	0,1	0,122979
0,520833	0,1	0,087010
0,522500	0,1	0,092279
0,524167	0,1	0,099627
0,525833	0,1	0,139984
0,527500	0,1	0,113355
0,529167	0,1	0,094516
0,530833	0,1	0,143270
0,532500	0,1	0,134811
0,534167	0,1	0,118985
0,535833	0,1	0,116383
0,537500	0,1	0,105779
0,539167	0,1	0,130610
0,540833	0,1	0,096568
0,542500	0,1	0,123943
0,544167	0,1	0,099113
0,545833	0,1	0,180283
0,547500	0,1	0,120320
0,549167	0,1	0,140568
0,550833	0,1	0,146473
0,552500	0,1	0,130462
0,554167	0,1	0,125109
0,555833	0,1	0,132622
0,557500	0,1	0,117862
0,559167	0,1	0,152753
0,560833	0,1	0,139035
0,562500	0,1	0,145867
0,564167	0,1	0,173983
0,565833	0,1	0,200763
0,567500	0,1	0,157600
0,569167	0,1	0,149437
0,570833	0,1	0,156653
0,572500	0,1	0,175274
0,574167	0,1	0,163841
0,575833	0,1	0,145059
0,577500	0,1	0,181481
0,579167	0,1	0,153730
0,580833	0,1	0,215960
0,582500	0,1	0,176158
0,584167	0,1	0,152253
0,585833	0,1	0,194471
0,587500	0,1	0,186658
0,589167	0,1	0,208946
0,590833	0,1	0,171198
0,592500	0,1	0,241148
0,594167	0,1	0,209866
0,595833	0,1	0,176957
0,597500	0,1	0,165905
0,599167	0,1	0,200761
0,600833	0,1	0,173745
0,602500	0,1	0,219094
0,604167	0,1	0,201854
0,605833	0,1	0,212118
0,607500	0,1	0,194235
0,609167	0,1	0,224372
0,610833	0,1	0,203800
0,612500	0,1	0,199006
0,614167	0,1	0,205514
0,615833	0,1	0,236815
0,617500	0,1	0,235863
0,619167	0,1	0,227420
0,620833	0,1	0,231969
0,622500	0,1	0,225039
0,624167	0,1	0,223814
0,625833	0,1	0,240859
0,627500	0,1	0,215916
0,629167	0,1	0,243435
0,630833	0,1	0,266443
0,632500	0,1	0,236739
0,634167	0,1	0,261823
0,635833	0,1	0,264397
0,637500	0,1	0,227690
0,639167	0,1	0,256416
0,640833	0,1	0,242419
0,642500	0,1	0,299642
0,644167	0,1	0,269877
0,645833	0,1	0,255955
0,647500	0,1	0,278889
0,649167	0,1	0,274053
0,650833	0,1	0,254875
0,652500	0,1	0,275112
0,654167	0,1	0,293096
0,655833	0,1	0,293077
0,657500	0,1	0,284368
0,659167	0,1	0,317126
0,660833	0,1	0,310087
0,662500	0,1	0,296055
0,664167	0,1	0,308966
0,665833	0,1	0,308407
0,667500	0,1	0,303234
0,669167	0,1	0,293343
0,670833	0,1	0,316858
0,672500	0,1	0,327688
0,674167	0,1	0,302148
0,675833	0,1	0,346779
0,677500	0,1	0,321894
0,679167	0,1	0,365874
0,680833	0,1	0,351078
0,682500	0,1	0,327895
0,684167	0,1	0,339756
0,685833	0,1	0,344319
0,687500	0,1	0,404959
0,689167	0,1	0,348623
0,690833	0,1	0,371062
0,692500	0,1	0,361882
0,694167	0,1	0,330384
0,695833	0,1	0,374433
0,697500	0,1	0,341857
0,699167	0,1	0,369945
0,700833	0,1	0,349351
0,702500	0,1	0,394999
0,704167	0,1	0,360267
0,705833	0,1	0,405895
0,707500	0,1	0,397547
0,709167	0,1	0,418419
0,710833	0,1	0,406841
0,712500	0,1	0,392835
0,714167	0,1	0,411305
0,715833	0,1	0,436652
0,717500	0,1	0,439969
0,719167	0,1	0,429700
0,720833	0,1	0,461400
0,722500	0,1	0,429927
0,724167	0,1	0,426206
0,725833	0,1	0,445237
0,727500	0,1	0,461360
0,729167	0,1	0,469588
0,730833	0,1	0,430840
0,732500	0,1	0,438812
0,734167	0,1	0,469316
0,735833	0,1	0,492758
0,737500	0,1	0,515734
0,739167	0,1	0,508666
0,740833	0,1	0,512958
0,742500	0,1	0,531391
0,744167	0,1	0,543580
0,745833	0,1	0,517480
0,747500	0,1	0,537416
0,749167	0,1	0,537334
0,750833	0,1	0,510452
0,752500	0,1	0,514159
0,754167	0,1	0,532010
0,755833	0,1	0,535600
0,757500	0,1	0,567796
0,759167	0,1	0,515685
0,760833	0,1	0,536394
0,762500	0,1	0,560241
0,764167	0,1	0,546011
0,765833	0,1	0,538559
0,767500	0,1	0,566220
0,769167	0,1	0,581059
0,770833	0,1	0,576056
0,772500	0,1	0,556045
0,774167	0,1	0,569140
0,775833	0,1	0,560133
0,777500	0,1	0,538675
0,779167	0,1	0,551078
0,780833	0,1	0,539205
0,782500	0,1	0,567085
0,784167	0,1	0,595248
0,785833	0,1	0,592983
0,787500	0,1	0,576771
0,789167	0,1	0,550327
0,790833	0,1	0,545632
0,792500	0,1	0,591777
0,794167	0,1	0,617199
0,795833	0,1	0,596259
0,797500	0,1	0,608441
0,799167	0,1	0,605084
0,800833	0,1	0,610563
0,802500	0,1	0,591743
0,804167	0,1	0,562409
0,805833	0,1	0,580817
0,807500	0,1	0,581438
0,809167	0,1	0,583979
0,810833	0,1	0,602634
0,812500	0,1	0,613757
0,814167	0,1	0,625129
0,815833	0,1	0,641159
0,817500	0,1	0,648441
0,819167	0,1	0,639432
0,820833	0,1	0,674464
0,822500	0,1	0,604264
0,824167	0,1	0,633492
0,825833	0,1	0,607872
0,827500	0,1	0,616656
0,829167	0,1	0,603961
0,830833	0,1	0,641830
0,832500	0,1	0,660051
0,834167	0,1	0,644865
0,835833	0,1	0,656010
0,837500	0,1	0,642149
0,839167	0,1	0,649001
0,840833	0,1	0,664329
0,842500	0,1	0,636954
0,844167	0,1	0,646555
0,845833	0,1	0,658543
0,847500	0,1	0,682990
0,849167	0,1	0,674407
0,850833	0,1	0,630456
0,852500	0,1	0,667127
0,854167	0,1	0,668511
0,855833	0,1	0,696064
0,857500	0,1	0,678483
0,859167	0,1	0,711598
0,860833	0,1	0,691830
0,862500	0,1	0,685356
0,864167	0,1	0,663896
0,865833	0,1	0,713378
0,867500	0,1	0,690370
0,869167	0,1	0,706933
0,870833	0,1	0,701181
0,872500	0,1	0,735372
0,874167	0,1	0,724226
0,875833	0,1	0,703342
0,877500	0,1	0,693167
0,879167	0,1	0,718765
0,880833	0,1	0,668252
0,882500	0,1	0,784703
0,884167	0,1	0,737700
0,885833	0,1	0,709491
0,887500	0,1	0,732675
0,889167	0,1	0,752322
0,890833	0,1	0,757284
0,892500	0,1	0,766081
0,894167	0,1	0,725065
0,895833	0,1	0,789591
0,897500	0,1	0,723882
0,899167	0,1	0,744735
0,900833	0,1	0,801514
0,902500	0,1	0,813992
0,904167	0,1	0,804975
0,905833	0,1	0,785586
0,907500	0,1	0,843094
0,909167	0,1	0,833882
0,910833	0,1	0,824406
0,912500	0,1	0,792551
0,914167	0,1	0,816473
0,915833	0,1	0,790750
0,917500	0,1	0,826386
0,919167	0,1	0,811622
0,920833	0,1	0,826118
0,922500	0,1	0,829416
0,924167	0,1	0,862820
0,925833	0,1	0,822601
0,927500	0,1	0,887192
0,929167	0,1	0,878226
0,930833	0,1	0,865922
0,932500	0,1	0,866373
0,934167	0,1	0,885417
0,935833	0,1	0,878899
0,937500	0,1	0,901981
0,939167	0,1	0,875003
0,940833	0,1	0,906085
0,942500	0,1	0,933255
0,944167	0,1	0,887369
0,945833	0,1	0,923884
0,947500	0,1	0,925158
0,949167	0,1	0,917124
0,950833	0,1	0,950699
0,952500	0,1	0,889515
0,954167	0,1	0,926510
0,955833	0,1	0,951484
0,957500	0,1	0,938882
0,959167	0,1	0,962391
0,960833	0,1	0,926734
0,962500	0,1	0,978374
0,964167	0,1	0,982836
0,965833	0,1	0,968049
0,967500	0,1	0,979675
0,969167	0,1	0,986986
0,970833	0,1	0,953215
0,972500	0,1	1,047745
0,974167	0,1	1,019557
0,975833	0,1	1,013107
0,977500	0,1	1,010187
0,979167	0,1	1,034708
0,980833	0,1	1,055234
0,982500	0,1	1,036782
0,984167	0,1	1,047983
0,985833	0,1	1,048908
0,987500	0,1	1,045741
0,989167	0,1	1,077733
0,990833	0,1	1,103448
0,992500	0,1	1,099669
0,994167	0,1	1,086658
0,995833	0,1	1,117281
0,997500	0,1	1,087942
0,999167	0,1	1,148651
1,000833	0,1	1,128718
1,002500	0,1	1,160005
1,004167	0,1	1,157779
1,005833	0,1	1,153747
1,007500	0,1	1,178303
1,009167	0,1	1,193296
1,010833	0,1	1,227676
1,012500	0,1	1,185914
1,014167	0,1	1,223574
1,015833	0,1	1,252587
1,017500	0,1	1,281086
1,019167	0,1	1,282596
1,020833	0,1	1,310092
1,022500	0,1	1,281386
1,024167	0,1	1,343547
1,025833	0,1	1,340682
1,027500	0,1	1,348437
1,029167	0,1	1,411906
1,030833	0,1	1,398062
1,032500	0,1	1,414645
1,034167	0,1	1,455570
1,035833	0,1	1,456512
1,037500	0,1	1,436053
1,039167	0,1	1,445514
1,040833	0,1	1,468645
1,042500	0,1	1,434331
1,044167	0,1	1,523791
1,045833	0,1	1,520726
1,047500	0,1	1,551677
1,049167	0,1	1,589463
1,050833	0,1	1,643055
1,052500	0,1	1,652409
1,054167	0,1	1,726407
1,055833	0,1	1,803953
1,057500	0,1	1,876631
1,059167	0,1	2,039964
1,060833	0,1	2,201167
1,062500	0,1	2,408251
1,064167	0,1	2,687315
1,065833	0,1	3,058978
1,067500	0,1	3,520135
1,069167	0,1	4,095768
1,070833	0,1	4,812058
1,072500	0,1	5,738252
1,074167	0,1	6,783085
1,075833	0,1	8,105661
1,077500	0,1	9,578624
1,079167	0,1	11,299709
1,080833	0,1	13,209136
1,082500	0,1	15,402479
1,084167	0,1	17,885141
1,085833	0,1	20,507823
1,087500	0,1	23,341188
1,089167	0,1	26,367289
1,090833	0,1	29,458298
1,092500	0,1	32,672794
1,094167	0,1	35,935857
1,095833	0,1	39,202551
1,097500	0,1	42,387063
1,099167	0,1	45,515185
1,100833	0,1	48,487335
1,102500	0,1	51,222845
1,104167	0,1	53,826465
1,105833	0,1	56,156980
1,107500	0,1	58,217840
1,109167	0,1	59,955584
1,110833	0,1	61,410688
1,112500	0,1	62,610307
1,114167	0,1	63,423038
1,115833	0,1	64,034248
1,117500	0,1	64,298143
1,119167	0,1	64,339470
1,120833	0,1	64,098115
1,122500	0,1	63,626747
1,124167	0,1	62,938070
1,125833	0,1	62,004205
1,127500	0,1	60,951568
1,129167	0,1	59,745136
1,130833	0,1	58,398474
1,132500	0,1	56,913158
1,134167	0,1	55,319807
1,135833	0,1	53,724691
1,137500	0,1	52,047520
1,139167	0,1	50,301117
1,140833	0,1	48,557140
1,142500	0,1	46,772420
1,144167	0,1	45,042648
1,145833	0,1	43,400231
1,147500	0,1	41,687558
1,149167	0,1	39,993358
1,150833	0,1	38,402845
1,152500	0,1	36,885566
1,154167	0,1	35,419910
1,155833	0,1	34,024450
1,157500	0,1	32,671952
1,159167	0,1	31,410325
1,160833	0,1	30,220892
1,162500	0,1	29,115305
1,164167	0,1	28,062699
1,165833	0,1	27,033019
1,167500	0,1	26,071056
1,169167	0,1	25,139640
1,170833	0,1	24,371581
1,172500	0,1	23,586241
1,174167	0,1	22,833535
1,175833	0,1	22,121333
1,177500	0,1	21,501818
1,179167	0,1	20,891183
1,180833	0,1	20,336672
1,182500	0,1	19,844678
1,184167	0,1	19,402638
1,185833	0,1	19,038029
1,187500	0,1	18,684882
1,189167	0,1	18,427614
1,190833	0,1	18,271076
1,192500	0,1	18,246363
1,194167	0,1	18,281928
1,195833	0,1	18,497854
1,197500	0,1	18,899403
1,199167	0,1	19,449465
1,200833	0,1	20,221334
1,202500	0,1	21,252769
1,204167	0,1	22,487242
1,205833	0,1	24,029380
1,207500	0,1	25,819890
1,209167	0,1	28,022748
1,210833	0,1	30,480012
1,212500	0,1	33,253699
1,214167	0,1	36,351778
1,215833	0,1	39,777723
1,217500	0,1	43,505655
1,219167	0,1	47,473944
1,220833	0,1	51,773631
1,222500	0,1	56,153011
1,224167	0,1	60,826710
1,225833	0,1	65,589256
1,227500	0,1	70,427402
1,229167	0,1	75,318424
1,230833	0,1	80,192459
1,232500	0,1	85,063078
1,234167	0,1	89,728596
1,235833	0,1	94,291227
1,237500	0,1	98,653240
1,239167	0,1	102,804157
1,240833	0,1	106,647829
1,242500	0,1	110,307131
1,244167	0,1	113,649276
1,245833	0,1	116,605087
1,247500	0,1	119,312805
1,249167	0,1	121,655716
1,250833	0,1	123,701184
1,252500	0,1	125,411789
1,254167	0,1	126,753566
1,255833	0,1	127,794319
1,257500	0,1	128,459940
1,259167	0,1	128,855971
1,260833	0,1	128,906328
1,262500	0,1	128,731671
1,264167	0,1	128,239501
1,265833	0,1	127,415934
1,267500	0,1	126,366527
1,269167	0,1	125,130958
1,270833	0,1	123,592037
1,272500	0,1	121,864096
1,274167	0,1	119,933900
1,275833	0,1	117,908467
1,277500	0,1	115,677623
1,279167	0,1	113,327087
1,280833	0,1	110,871713
1,282500	0,1	108,290889
1,284167	0,1	105,702352
1,285833	0,1	102,927082
1,287500	0,1	100,266385
1,289167	0,1	97,523631
1,290833	0,1	94,768034
1,292500	0,1	92,044578
1,294167	0,1	89,335115
1,295833	0,1	86,646082
1,297500	0,1	84,060201
1,299167	0,1	81,523378
1,300833	0,1	79,020427
1,302500	0,1	76,612138
1,304167	0,1	74,210112
1,305833	0,1	72,008421
1,307500	0,1	69,768759
1,309167	0,1	67,692084
1,310833	0,1	65,632283
1,312500	0,1	63,692155
1,314167	0,1	61,804588
1,315833	0,1	60,014979
1,317500	0,1	58,389906
1,319167	0,1	56,693677
1,320833	0,1	55,153642
1,322500	0,1	53,708754
1,324167	0,1	52,189223
1,325833	0,1	50,870877
1,327500	0,1	49,593434
1,329167	0,1	48,349488
1,330833	0,1	47,147333
1,332500	0,1	45,965458
1,334167	0,1	44,908823
1,335833	0,1	43,784549
1,337500	0,1	42,808309
1,339167	0,1	41,811828
1,340833	0,1	40,859436
1,342500	0,1	40,005229
1,344167	0,1	39,059528
1,345833	0,1	38,214338
1,347500	0,1	37,373314
1,349167	0,1	36,594432
1,350833	0,1	35,788758
1,352500	0,1	35,034351
1,354167	0,1	34,268431
1,355833	0,1	33,574725
1,357500	0,1	32,899966
1,359167	0,1	32,192479
1,360833	0,1	31,520468
1,362500	0,1	30,908956
1,364167	0,1	30,271138
1,365833	0,1	29,676311
1,367500	0,1	29,046458
1,369167	0,1	28,507308
1,370833	0,1	27,908964
1,372500	0,1	27,364226
1,374167	0,1	26,863397
1,375833	0,1	26,356886
1,377500	0,1	25,815020
1,379167	0,1	25,332246
1,380833	0,1	24,836705
1,382500	0,1	24,391287
1,384167	0,1	23,903422
1,385833	0,1	23,467072
1,387500	0,1	23,065979
1,389167	0,1	22,650853
1,390833	0,1	22,233231
1,392500	0,1	21,811306
1,394167	0,1	21,438716
1,395833	0,1	21,112469
1,397500	0,1	20,704710
1,399167	0,1	20,404645
1,400833	0,1	20,098257
1,402500	0,1	19,765814
1,404167	0,1	19,467537
1,405833	0,1	19,136822
1,407500	0,1	18,846788
1,409167	0,1	18,575662
1,410833	0,1	18,275290
1,412500	0,1	18,043106
1,414167	0,1	17,727361
1,415833	0,1	17,461652
1,417500	0,1	17,252159
1,419167	0,1	17,034461
1,420833	0,1	16,804616
1,422500	0,1	16,541117
1,424167	0,1	16,371132
1,425833	0,1	16,149534
1,427500	0,1	15,946692
1,429167	0,1	15,705254
1,430833	0,1	15,502119
1,432500	0,1	15,359771
1,434167	0,1	15,150814
1,435833	0,1	14,963140
1,437500	0,1	14,780331
1,439167	0,1	14,578034
1,440833	0,1	14,389372
1,442500	0,1	14,238528
1,444167	0,1	14,062270
1,445833	0,1	13,914308
1,447500	0,1	13,707085
1,449167	0,1	13,567611
1,450833	0,1	13,434483
1,452500	0,1	13,265508
1,454167	0,1	13,117721
1,455833	0,1	13,007768
1,457500	0,1	12,838306
1,459167	0,1	12,705703
1,460833	0,1	12,533873
1,462500	0,1	12,404464
1,464167	0,1	12,297718
1,465833	0,1	12,175440
1,467500	0,1	12,047982
1,469167	0,1	11,953851
1,470833	0,1	11,861439
1,472500	0,1	11,709669
1,474167	0,1	11,629736
1,475833	0,1	11,535168
1,477500	0,1	11,435365
1,479167	0,1	11,342933
1,480833	0,1	11,265383
1,482500	0,1	11,196471
1,484167	0,1	11,073895
1,485833	0,1	11,043838
1,487500	0,1	10,938098
1,489167	0,1	10,903433
1,490833	0,1	10,803276
1,492500	0,1	10,750735
1,494167	0,1	10,710406
1,495833	0,1	10,642521
1,497500	0,1	10,601247
1,499167	0,1	10,543773
1,500833	0,1	10,469647
1,502500	0,1	10,445818
1,504167	0,1	10,405793
1,505833	0,1	10,351966
1,507500	0,1	10,347611
1,509167	0,1	10,314743
1,510833	0,1	10,282419
1,512500	0,1	10,239436
1,514167	0,1	10,182664
1,515833	0,1	10,149574
1,517500	0,1	10,094631
1,519167	0,1	10,087859
1,520833	0,1	10,113180
1,522500	0,1	10,033374
1,524167	0,1	10,043462
1,525833	0,1	9,960585
1,527500	0,1	9,977918
1,529167	0,1	9,923994
1,530833	0,1	9,904103
1,532500	0,1	9,878187
1,534167	0,1	9,845842
1,535833	0,1	9,843472
1,537500	0,1	9,834144
1,539167	0,1	9,783527
1,540833	0,1	9,739267
1,542500	0,1	9,711095
1,544167	0,1	9,709554
1,545833	0,1	9,699398
1,547500	0,1	9,690226
1,549167	0,1	9,648674
1,550833	0,1	9,637155
1,552500	0,1	9,660859
1,554167	0,1	9,569171
1,555833	0,1	9,582437
1,557500	0,1	9,569810
1,559167	0,1	9,561750
1,560833	0,1	9,527105
1,562500	0,1	9,512519
1,564167	0,1	9,516251
1,565833	0,1	9,538420
1,567500	0,1	9,469364
1,569167	0,1	9,447397
1,570833	0,1	9,413915
1,572500	0,1	9,450889
1,574167	0,1	9,400645
1,575833	0,1	9,408289
1,577500	0,1	9,398002
1,579167	0,1	9,359490
1,580833	0,1	9,301678
1,582500	0,1	9,311660
1,584167	0,1	9,335050
1,585833	0,1	9,269069
1,587500	0,1	9,255916
1,589167	0,1	9,278662
1,590833	0,1	9,247238
1,592500	0,1	9,208010
1,594167	0,1	9,241402
1,595833	0,1	9,194873
1,597500	0,1	9,205920
1,599167	0,1	9,140310
1,600833	0,1	9,114772
1,602500	0,1	9,132395
1,604167	0,1	9,079125
1,605833	0,1	9,067995
1,607500	0,1	9,028089
1,609167	0,1	9,012601
1,610833	0,1	8,984954
1,612500	0,1	8,971757
1,614167	0,1	8,961721
1,615833	0,1	8,915936
1,617500	0,1	8,850503
1,619167	0,1	8,870685
1,620833	0,1	8,872324
1,622500	0,1	8,849004
1,624167	0,1	8,785938
1,625833	0,1	8,798995
1,627500	0,1	8,761468
1,629167	0,1	8,720095
1,630833	0,1	8,696497
1,632500	0,1	8,702545
1,634167	0,1	8,642511
1,635833	0,1	8,580947
1,637500	0,1	8,634531
1,639167	0,1	8,605188
1,640833	0,1	8,545232
1,642500	0,1	8,522916
1,644167	0,1	8,508421
1,645833	0,1	8,500267
1,647500	0,1	8,409261
1,649167	0,1	8,417324
1,650833	0,1	8,408511
1,652500	0,1	8,369666
1,654167	0,1	8,348297
1,655833	0,1	8,322965
1,657500	0,1	8,310513
1,659167	0,1	8,300458
1,660833	0,1	8,267475
1,662500	0,1	8,237708
1,664167	0,1	8,213165
1,665833	0,1	8,212097
1,667500	0,1	8,226333
1,669167	0,1	8,235822
1,670833	0,1	8,197783
1,672500	0,1	8,180561
1,674167	0,1	8,155747
1,675833	0,1	8,176917
1,677500	0,1	8,169196
1,679167	0,1	8,148323
1,680833	0,1	8,161517
1,682500	0,1	8,187800
1,684167	0,1	8,163726
1,685833	0,1	8,148626
1,687500	0,1	8,196503
1,689167	0,1	8,203052
1,690833	0,1	8,242915
1,692500	0,1	8,259104
1,694167	0,1	8,266559
1,695833	0,1	8,226521
1,697500	0,1	8,291673
1,699167	0,1	8,277070
1,700833	0,1	8,318703
1,702500	0,1	8,332646
1,704167	0,1	8,359552
1,705833	0,1	8,385413
1,707500	0,1	8,386178
1,709167	0,1	8,435119
1,710833	0,1	8,436752
1,712500	0,1	8,471353
1,714167	0,1	8,465964
1,715833	0,1	8,521964
1,717500	0,1	8,489454
1,719167	0,1	8,516059
1,720833	0,1	8,510841
1,722500	0,1	8,564426
1,724167	0,1	8,604549
1,725833	0,1	8,580349
1,727500	0,1	8,572292
1,729167	0,1	8,604514
1,730833	0,1	8,598505
1,732500	0,1	8,620530
1,734167	0,1	8,589556
1,735833	0,1	8,598399
1,737500	0,1	8,614861
1,739167	0,1	8,585200
1,740833	0,1	8,608704
1,742500	0,1	8,555285
1,744167	0,1	8,551544
1,745833	0,1	8,543145
1,747500	0,1	8,538022
1,749167	0,1	8,531118
1,750833	0,1	8,495264
1,752500	0,1	8,451111
1,754167	0,1	8,456743
1,755833	0,1	8,408943
1,757500	0,1	8,371884
1,759167	0,1	8,318944
1,760833	0,1	8,315604
1,762500	0,1	8,254055
1,764167	0,1	8,210387
1,765833	0,1	8,214786
1,767500	0,1	8,170444
1,769167	0,1	8,083332
1,770833	0,1	8,071248
1,772500	0,1	8,020018
1,774167	0,1	7,918580
1,775833	0,1	7,918224
1,777500	0,1	7,874590
1,779167	0,1	7,837498
1,780833	0,1	7,792557
1,782500	0,1	7,747803
1,784167	0,1	7,721029
1,785833	0,1	7,624757
1,787500	0,1	7,611489
1,789167	0,1	7,517394
1,790833	0,1	7,457104
1,792500	0,1	7,444116
1,794167	0,1	7,402431
1,795833	0,1	7,330949
1,797500	0,1	7,277694
1,799167	0,1	7,221528
1,800833	0,1	7,174016
1,802500	0,1	7,148433
1,804167	0,1	7,097083
1,805833	0,1	7,087432
1,807500	0,1	7,007108
1,809167	0,1	6,954730
1,810833	0,1	6,904528
1,812500	0,1	6,895516
1,814167	0,1	6,794584
1,815833	0,1	6,788386
1,817500	0,1	6,719611
1,819167	0,1	6,719964
1,820833	0,1	6,658574
1,822500	0,1	6,602885
1,824167	0,1	6,555604
1,825833	0,1	6,515525
1,827500	0,1	6,484041
1,829167	0,1	6,496548
1,830833	0,1	6,445094
1,832500	0,1	6,411091
1,834167	0,1	6,399690
1,835833	0,1	6,340774
1,837500	0,1	6,377078
1,839167	0,1	6,328352
1,840833	0,1	6,318163
1,842500	0,1	6,280632
1,844167	0,1	6,317594
1,845833	0,1	6,322549
1,847500	0,1	6,293983
1,849167	0,1	6,354753
1,850833	0,1	6,369518
1,852500	0,1	6,434136
1,854167	0,1	6,445360
1,855833	0,1	6,497190
1,857500	0,1	6,568089
1,859167	0,1	6,597449
1,860833	0,1	6,657903
1,862500	0,1	6,687069
1,864167	0,1	6,766963
1,865833	0,1	6,874640
1,867500	0,1	6,899567
1,869167	0,1	6,974801
1,870833	0,1	7,047752
1,872500	0,1	7,051705
1,874167	0,1	7,111740
1,875833	0,1	7,202668
1,877500	0,1	7,232463
1,879167	0,1	7,333220
1,880833	0,1	7,388141
1,882500	0,1	7,434127
1,884167	0,1	7,460164
1,885833	0,1	7,497012
1,887500	0,1	7,516385
1,889167	0,1	7,607712
1,890833	0,1	7,657787
1,892500	0,1	7,673788
1,894167	0,1	7,716344
1,895833	0,1	7,761771
1,897500	0,1	7,764286
1,899167	0,1	7,814697
1,900833	0,1	7,893029
1,902500	0,1	7,899962
1,904167	0,1	7,928623
1,905833	0,1	7,955953
1,907500	0,1	8,016206
1,909167	0,1	8,007114
1,910833	0,1	8,061186
1,912500	0,1	8,074954
1,914167	0,1	8,096913
1,915833	0,1	8,105247
1,917500	0,1	8,158727
1,919167	0,1	8,147738
1,920833	0,1	8,151850
1,922500	0,1	8,158110
1,924167	0,1	8,189463
1,925833	0,1	8,182299
1,927500	0,1	8,186565
1,929167	0,1	8,193786
1,930833	0,1	8,174377
1,932500	0,1	8,180502
1,934167	0,1	8,161727
1,935833	0,1	8,168232
1,937500	0,1	8,170129
1,939167	0,1	8,184289
1,940833	0,1	8,168618
1,942500	0,1	8,169019
1,944167	0,1	8,100998
1,945833	0,1	8,118978
1,947500	0,1	8,095282
1,949167	0,1	8,161958
1,950833	0,1	8,110838
1,952500	0,1	8,048998
1,954167	0,1	8,055116
1,955833	0,1	8,040859
1,957500	0,1	8,015901
1,959167	0,1	8,021696
1,960833	0,1	8,023341
1,962500	0,1	8,017937
1,964167	0,1	8,019199
1,965833	0,1	7,991392
1,967500	0,1	7,959266
1,969167	0,1	7,946702
1,970833	0,1	7,965012
1,972500	0,1	7,944904
1,974167	0,1	7,995192
1,975833	0,1	7,924531
1,977500	0,1	7,895124
1,979167	0,1	7,893149
1,980833	0,1	7,906953
1,982500	0,1	7,887805
1,984167	0,1	7,878018
1,985833	0,1	7,920847
1,987500	0,1	7,906249
1,989167	0,1	7,927790
1,990833	0,1	7,903551
1,992500	0,1	7,919788
1,994167	0,1	7,920602
1,995833	0,1	7,907050
1,997500	0,1	7,925066
1,999167	0,1	7,962436
2,000833	0,1	7,977756
2,002500	0,1	7,942940
2,004167	0,1	7,930723
2,005833	0,1	7,967353
2,007500	0,1	7,964584
2,009167	0,1	7,976746
2,010833	0,1	8,042859
2,012500	0,1	8,008000
2,014167	0,1	8,054248
2,015833	0,1	8,059105
2,017500	0,1	8,075913
2,019167	0,1	8,054012
2,020833	0,1	8,076769
2,022500	0,1	8,083084
2,024167	0,1	8,184953
2,025833	0,1	8,151783
2,027500	0,1	8,225329
2,029167	0,1	8,218892
2,030833	0,1	8,243168
2,032500	0,1	8,298065
2,034167	0,1	8,260237
2,035833	0,1	8,261236
2,037500	0,1	8,316481
2,039167	0,1	8,312831
2,040833	0,1	8,402282
2,042500	0,1	8,412623
2,044167	0,1	8,409855
2,045833	0,1	8,467652
2,047500	0,1	8,467790
2,049167	0,1	8,506232
2,050833	0,1	8,540610
2,052500	0,1	8,545286
2,054167	0,1	8,560634
2,055833	0,1	8,615784
2,057500	0,1	8,631772
2,059167	0,1	8,675795
2,060833	0,1	8,698286
2,062500	0,1	8,710153
2,064167	0,1	8,738965
2,065833	0,1	8,721575
2,067500	0,1	8,789330
2,069167	0,1	8,814561
2,070833	0,1	8,823978
2,072500	0,1	8,830177
2,074167	0,1	8,872727
2,075833	0,1	8,904775
2,077500	0,1	8,889872
2,079167	0,1	8,936746
2,080833	0,1	8,921818
2,082500	0,1	8,936553
2,084167	0,1	9,007766
2,085833	0,1	8,960548
2,087500	0,1	9,011097
2,089167	0,1	9,045581
2,090833	0,1	9,049193
2,092500	0,1	9,017972
2,094167	0,1	9,058077
2,095833	0,1	9,083328
2,097500	0,1	9,057238
2,099167	0,1	9,075396
2,100833	0,1	9,107838
2,102500	0,1	9,090194
2,104167	0,1	9,102538
2,105833	0,1	9,129655
2,107500	0,1	9,136239
2,109167	0,1	9,141143
2,110833	0,1	9,146109
2,112500	0,1	9,079153
2,114167	0,1	9,134846
2,115833	0,1	9,079597
2,117500	0,1	9,138964
2,119167	0,1	9,139084
2,120833	0,1	9,120707
2,122500	0,1	9,132589
2,124167	0,1	9,126397
2,125833	0,1	9,098682
2,127500	0,1	9,120721
2,129167	0,1	9,071099
2,130833	0,1	9,089552
2,132500	0,1	9,061568
2,134167	0,1	9,061942
2,135833	0,1	9,055311
2,137500	0,1	9,045946
2,139167	0,1	9,009107
2,140833	0,1	9,003955
2,142500	0,1	8,980177
2,144167	0,1	8,956633
2,145833	0,1	8,958705
2,147500	0,1	8,938916
2,149167	0,1	8,896245
2,150833	0,1	8,905372
2,152500	0,1	8,859702
2,154167	0,1	8,889482
2,155833	0,1	8,861536
2,157500	0,1	8,841527
2,159167	0,1	8,808245
2,160833	0,1	8,836322
2,162500	0,1	8,784621
2,164167	0,1	8,770390
2,165833	0,1	8,808496
2,167500	0,1	8,694168
2,169167	0,1	8,686980
2,170833	0,1	8,669413
2,172500	0,1	8,676117
2,174167	0,1	8,604571
2,175833	0,1	8,611024
2,177500	0,1	8,578596
2,179167	0,1	8,599919
2,180833	0,1	8,612130
2,182500	0,1	8,554667
2,184167	0,1	8,528070
2,185833	0,1	8,501515
2,187500	0,1	8,484914
2,189167	0,1	8,438365
2,190833	0,1	8,431602
2,192500	0,1	8,417185
2,194167	0,1	8,411342
2,195833	0,1	8,392895
2,197500	0,1	8,400042
2,199167	0,1	8,388194
2,200833	0,1	8,323835
2,202500	0,1	8,350605
2,204167	0,1	8,305063
2,205833	0,1	8,283215
2,207500	0,1	8,301635
2,209167	0,1	8,281640
2,210833	0,1	8,258559
2,212500	0,1	8,232150
2,214167	0,1	8,192186
2,215833	0,1	8,225846
2,217500	0,1	8,246888
2,219167	0,1	8,181508
2,220833	0,1	8,180861
2,222500	0,1	8,214279
2,224167	0,1	8,169991
2,225833	0,1	8,211274
2,227500	0,1	8,187812
2,229167	0,1	8,185282
2,230833	0,1	8,151074
2,232500	0,1	8,226115
2,234167	0,1	8,181224
2,235833	0,1	8,163068
2,237500	0,1	8,171818
2,239167	0,1	8,164224
2,240833	0,1	8,171717
2,242500	0,1	8,184290
2,244167	0,1	8,165390
2,245833	0,1	8,193476
2,247500	0,1	8,165290
2,249167	0,1	8,136280
2,250833	0,1	8,140461
2,252500	0,1	8,164771
2,254167	0,1	8,131664
2,255833	0,1	8,139301
2,257500	0,1	8,155684
2,259167	0,1	8,149503
2,260833	0,1	8,133375
2,262500	0,1	8,093950
2,264167	0,1	8,116300
2,265833	0,1	8,134854
2,267500	0,1	8,093368
2,269167	0,1	8,081826
2,270833	0,1	8,048361
2,272500	0,1	8,042347
2,274167	0,1	8,038433
2,275833	0,1	8,035252
2,277500	0,1	8,005504
2,279167	0,1	7,994722
2,280833	0,1	8,003828
2,282500	0,1	7,978500
2,284167	0,1	7,979527
2,285833	0,1	7,892013
2,287500	0,1	7,914191
2,289167	0,1	7,892018
2,290833	0,1	7,883921
2,292500	0,1	7,833210
2,294167	0,1	7,838956
2,295833	0,1	7,797189
2,297500	0,1	7,823865
2,299167	0,1	7,772667
2,300833	0,1	7,758786
2,302500	0,1	7,712112
2,304167	0,1	7,713334
2,305833	0,1	7,627199
2,307500	0,1	7,680496
2,309167	0,1	7,630654
2,310833	0,1	7,612660
2,312500	0,1	7,617270
2,314167	0,1	7,534484
2,315833	0,1	7,570438
2,317500	0,1	7,505164
2,319167	0,1	7,440903
2,320833	0,1	7,430338
2,322500	0,1	7,378023
2,324167	0,1	7,375540
2,325833	0,1	7,413602
2,327500	0,1	7,353667
2,329167	0,1	7,317474
2,330833	0,1	7,344376
2,332500	0,1	7,295647
2,334167	0,1	7,258498
2,335833	0,1	7,268788
2,337500	0,1	7,191878
2,339167	0,1	7,180812
2,340833	0,1	7,156498
2,342500	0,1	7,180148
2,344167	0,1	7,124597
2,345833	0,1	7,172527
2,347500	0,1	7,107102
2,349167	0,1	7,082948
2,350833	0,1	7,108755
2,352500	0,1	7,055089
2,354167	0,1	7,031242
2,355833	0,1	7,011495
2,357500	0,1	7,018506
2,359167	0,1	6,974010
2,360833	0,1	6,984365
2,362500	0,1	6,979587
2,364167	0,1	6,941740
2,365833	0,1	6,980623
2,367500	0,1	6,951094
2,369167	0,1	6,998193
2,370833	0,1	6,938489
2,372500	0,1	6,984357
2,374167	0,1	7,008123
2,375833	0,1	6,961467
2,377500	0,1	6,982889
2,379167	0,1	6,992222
2,380833	0,1	7,020842
2,382500	0,1	7,038145
2,384167	0,1	7,082029
2,385833	0,1	7,129811
2,387500	0,1	7,187601
2,389167	0,1	7,181746
2,390833	0,1	7,243868
2,392500	0,1	7,283931
2,394167	0,1	7,352732
2,395833	0,1	7,380722
2,397500	0,1	7,461199
2,399167	0,1	7,507513
2,400833	0,1	7,617595
2,402500	0,1	7,733595
2,404167	0,1	7,802709
2,405833	0,1	7,932101
2,407500	0,1	7,996471
2,409167	0,1	8,133667
2,410833	0,1	8,262823
2,412500	0,1	8,394102
2,414167	0,1	8,530658
2,415833	0,1	8,704752
2,417500	0,1	8,855784
2,419167	0,1	9,023119
2,420833	0,1	9,174428
2,422500	0,1	9,377330
2,424167	0,1	9,535848
2,425833	0,1	9,754575
2,427500	0,1	9,964031
2,429167	0,1	10,175780
2,430833	0,1	10,346584
2,432500	0,1	10,590791
2,434167	0,1	10,794618
2,435833	0,1	11,040246
2,437500	0,1	11,244768
2,439167	0,1	11,502784
2,440833	0,1	11,730448
2,442500	0,1	11,966284
2,444167	0,1	12,183244
2,445833	0,1	12,480390
2,447500	0,1	12,676735
2,449167	0,1	12,947428
2,450833	0,1	13,176317
2,452500	0,1	13,438104
2,454167	0,1	13,665128
2,455833	0,1	13,939755
2,457500	0,1	14,173440
2,459167	0,1	14,477197
2,460833	0,1	14,679336
2,462500	0,1	14,970885
2,464167	0,1	15,256641
2,465833	0,1	15,541657
2,467500	0,1	15,851954
2,469167	0,1	16,164242
2,470833	0,1	16,525157
2,472500	0,1	16,858160
2,474167	0,1	17,219133
2,475833	0,1	17,596124
2,477500	0,1	18,033490
2,479167	0,1	18,509186
2,480833	0,1	18,970761
2,482500	0,1	19,522111
2,484167	0,1	20,094566
2,485833	0,1	20,662823
2,487500	0,1	21,429184
2,489167	0,1	22,141946
2,490833	0,1	22,928482
2,492500	0,1	23,813680
2,494167	0,1	24,748272
2,495833	0,1	25,796998
2,497500	0,1	26,850753
2,499167	0,1	28,084666
2,500833	0,1	29,299362
2,502500	0,1	30,697685
2,504167	0,1	32,162898
2,505833	0,1	33,763777
2,507500	0,1	35,500248
2,509167	0,1	37,252191
2,510833	0,1	39,181705
2,512500	0,1	41,189726
2,514167	0,1	43,380265
2,515833	0,1	45,617293
2,517500	0,1	48,056643
2,519167	0,1	50,544676
2,520833	0,1	53,185138
2,522500	0,1	55,958728
2,524167	0,1	58,855183
2,525833	0,1	61,802346
2,527500	0,1	64,903150
2,529167	0,1	68,088844
2,530833	0,1	71,398403
2,532500	0,1	74,823189
2,534167	0,1	78,340368
2,535833	0,1	81,890637
2,537500	0,1	85,556566
2,539167	0,1	89,286540
2,540833	0,1	93,037765
2,542500	0,1	96,920745
2,544167	0,1	100,813279
2,545833	0,1	104,734065
2,547500	0,1	108,651008
2,549167	0,1	112,610027
2,550833	0,1	116,545871
2,552500	0,1	120,523265
2,554167	0,1	124,440449
2,555833	0,1	128,254624
2,557500	0,1	132,134343
2,559167	0,1	135,955400
2,560833	0,1	139,649617
2,562500	0,1	143,339197
2,564167	0,1	146,927757
2,565833	0,1	150,429627
2,567500	0,1	153,846751
2,569167	0,1	157,186891
2,570833	0,1	160,418532
2,572500	0,1	163,442468
2,574167	0,1	166,465674
2,575833	0,1	169,268648
2,577500	0,1	171,998706
2,579167	0,1	174,630418
2,580833	0,1	177,101915
2,582500	0,1	179,398416
2,584167	0,1	181,561307
2,585833	0,1	183,663935
2,587500	0,1	185,637067
2,589167	0,1	187,344005
2,590833	0,1	188,990495
2,592500	0,1	190,475354
2,594167	0,1	191,854952
2,595833	0,1	193,063210
2,597500	0,1	194,151047
2,599167	0,1	195,122790
2,600833	0,1	195,891415
2,602500	0,1	196,624678
2,604167	0,1	197,213173
2,605833	0,1	197,666702
2,607500	0,1	197,955053
2,609167	0,1	198,212030
2,610833	0,1	198,308267
2,612500	0,1	198,225002
2,614167	0,1	198,086550
2,615833	0,1	197,891920
2,617500	0,1	197,596170
2,619167	0,1	197,187115
2,620833	0,1	196,599279
2,622500	0,1	196,014673
2,624167	0,1	195,231100
2,625833	0,1	194,470146
2,627500	0,1	193,557025
2,629167	0,1	192,617635
2,630833	0,1	191,520124
2,632500	0,1	190,363387
2,634167	0,1	189,169641
2,635833	0,1	187,901569
2,637500	0,1	186,528338
2,639167	0,1	185,132011
2,640833	0,1	183,643069
2,642500	0,1	182,076393
2,644167	0,1	180,455630
2,645833	0,1	178,755919
2,647500	0,1	177,090622
2,649167	0,1	175,287550
2,650833	0,1	173,526509
2,652500	0,1	171,622959
2,654167	0,1	169,711353
2,655833	0,1	167,803534
2,657500	0,1	165,775653
2,659167	0,1	163,802273
2,660833	0,1	161,723817
2,662500	0,1	159,614322
2,664167	0,1	157,547388
2,665833	0,1	155,430337
2,667500	0,1	153,222462
2,669167	0,1	151,063575
2,670833	0,1	148,882137
2,672500	0,1	146,658759
2,674167	0,1	144,448600
2,675833	0,1	142,275805
2,677500	0,1	140,068669
2,679167	0,1	137,854581
2,680833	0,1	135,601820
2,682500	0,1	133,363051
2,684167	0,1	131,096793
2,685833	0,1	128,905809
2,687500	0,1	126,668900
2,689167	0,1	124,472444
2,690833	0,1	122,342320
2,692500	0,1	120,168210
2,694167	0,1	117,953307
2,695833	0,1	115,845134
2,697500	0,1	113,720234
2,699167	0,1	111,625790
2,700833	0,1	109,527933
2,702500	0,1	107,459748
2,704167	0,1	105,426446
2,705833	0,1	103,434593
2,707500	0,1	101,495023
2,709167	0,1	99,546192
2,710833	0,1	97,579472
2,712500	0,1	95,638374
2,714167	0,1	93,777742
2,715833	0,1	91,951590
2,717500	0,1	90,146084
2,719167	0,1	88,354026
2,720833	0,1	86,588741
2,722500	0,1	84,863422
2,724167	0,1	83,204330
2,725833	0,1	81,562498
2,727500	0,1	79,949782
2,729167	0,1	78,389020
2,730833	0,1	76,808706
2,732500	0,1	75,268511
2,734167	0,1	73,834118
2,735833	0,1	72,379710
2,737500	0,1	70,891046
2,739167	0,1	69,497822
2,740833	0,1	68,126929
2,742500	0,1	66,819059
2,744167	0,1	65,472732
2,745833	0,1	64,197484
2,747500	0,1	62,984081
2,749167	0,1	61,735770
2,750833	0,1	60,534270
2,752500	0,1	59,366657
2,754167	0,1	58,243256
2,755833	0,1	57,097537
2,757500	0,1	56,040578
2,759167	0,1	54,958071
2,760833	0,1	53,951725
2,762500	0,1	52,920335
2,764167	0,1	51,936773
2,765833	0,1	50,986780
2,767500	0,1	49,992094
2,769167	0,1	49,084204
2,770833	0,1	48,158403
2,772500	0,1	47,287584
2,774167	0,1	46,387899
2,775833	0,1	45,553577
2,777500	0,1	44,784853
2,779167	0,1	43,932132
2,780833	0,1	43,142036
2,782500	0,1	42,373509
2,784167	0,1	41,565256
2,785833	0,1	40,814321
2,787500	0,1	40,070062
2,789167	0,1	39,363832
2,790833	0,1	38,661454
2,792500	0,1	37,964670
2,794167	0,1	37,321774
2,795833	0,1	36,659355
2,797500	0,1	36,001192
2,799167	0,1	35,367756
2,800833	0,1	34,752272
2,802500	0,1	34,147375
2,804167	0,1	33,550545
2,805833	0,1	32,958449
2,807500	0,1	32,371324
2,809167	0,1	31,850067
2,810833	0,1	31,267588
2,812500	0,1	30,685266
2,814167	0,1	30,144330
2,815833	0,1	29,667919
2,817500	0,1	29,171312
2,819167	0,1	28,693957
2,820833	0,1	28,161858
2,822500	0,1	27,668265
2,824167	0,1	27,186747
2,825833	0,1	26,748890
2,827500	0,1	26,305403
2,829167	0,1	25,841047
2,830833	0,1	25,432388
2,832500	0,1	24,984631
2,834167	0,1	24,596888
2,835833	0,1	24,186435
2,837500	0,1	23,736189
2,839167	0,1	23,338743
2,840833	0,1	22,975370
2,842500	0,1	22,594496
2,844167	0,1	22,226259
2,845833	0,1	21,855143
2,847500	0,1	21,556745
2,849167	0,1	21,172741
2,850833	0,1	20,845434
2,852500	0,1	20,548116
2,854167	0,1	20,197411
2,855833	0,1	19,905066
2,857500	0,1	19,577803
2,859167	0,1	19,262208
2,860833	0,1	18,971943
2,862500	0,1	18,652779
2,864167	0,1	18,381538
2,865833	0,1	18,143765
2,867500	0,1	17,832752
2,869167	0,1	17,611630
2,870833	0,1	17,326662
2,872500	0,1	17,081144
2,874167	0,1	16,840639
2,875833	0,1	16,599492
2,877500	0,1	16,379880
2,879167	0,1	16,145821
2,880833	0,1	15,950016
2,882500	0,1	15,722621
2,884167	0,1	15,513061
2,885833	0,1	15,299068
2,887500	0,1	15,086776
2,889167	0,1	14,924055
2,890833	0,1	14,688908
2,892500	0,1	14,547380
2,894167	0,1	14,362510
2,895833	0,1	14,140506
2,897500	0,1	14,005741
2,899167	0,1	13,822800
2,900833	0,1	13,699674
2,902500	0,1	13,459000
2,904167	0,1	13,320984
2,905833	0,1	13,179058
2,907500	0,1	13,024305
2,909167	0,1	12,876862
2,910833	0,1	12,678820
2,912500	0,1	12,587970
2,914167	0,1	12,491693
2,915833	0,1	12,312075
2,917500	0,1	12,179319
2,919167	0,1	12,082165
2,920833	0,1	11,918585
2,922500	0,1	11,815561
2,924167	0,1	11,679614
2,925833	0,1	11,594048
2,927500	0,1	11,499952
2,929167	0,1	11,328984
2,930833	0,1	11,191503
2,932500	0,1	11,108912
2,934167	0,1	11,028404
2,935833	0,1	10,916983
2,937500	0,1	10,790281
2,939167	0,1	10,696440
2,940833	0,1	10,628464
2,942500	0,1	10,487409
2,944167	0,1	10,381730
2,945833	0,1	10,325903
2,947500	0,1	10,230874
2,949167	0,1	10,112118
2,950833	0,1	10,003440
2,952500	0,1	9,962773
2,954167	0,1	9,853487
2,955833	0,1	9,788304
2,957500	0,1	9,694425
2,959167	0,1	9,590225
2,960833	0,1	9,531900
2,962500	0,1	9,406618
2,964167	0,1	9,370822
2,965833	0,1	9,291278
2,967500	0,1	9,197177
2,969167	0,1	9,097239
2,970833	0,1	9,038407
2,972500	0,1	8,999952
2,974167	0,1	8,915392
2,975833	0,1	8,840783
2,977500	0,1	8,746467
2,979167	0,1	8,732611
2,980833	0,1	8,641619
2,982500	0,1	8,607884
2,984167	0,1	8,540493
2,985833	0,1	8,474077
2,987500	0,1	8,418406
2,989167	0,1	8,346995
2,990833	0,1	8,269862
2,992500	0,1	8,203632
2,994167	0,1	8,153708
2,995833	0,1	8,108465
2,997500	0,1	8,017935
2,999167	0,1	7,994851
3,000833	0,1	7,936663
3,002500	0,1	7,864122
3,004167	0,1	7,859705
3,005833	0,1	7,773946
3,007500	0,1	7,748631
3,009167	0,1	7,678101
3,010833	0,1	7,620876
3,012500	0,1	7,585604
3,014167	0,1	7,512161
3,015833	0,1	7,457744
3,017500	0,1	7,427607
3,019167	0,1	7,383608
3,020833	0,1	7,313231
3,022500	0,1	7,256286
3,024167	0,1	7,227950
3,025833	0,1	7,182421
3,027500	0,1	7,164417
3,029167	0,1	7,073625
3,030833	0,1	7,037407
3,032500	0,1	7,016914
3,034167	0,1	6,952220
3,035833	0,1	6,910680
3,037500	0,1	6,865057
3,039167	0,1	6,808588
3,040833	0,1	6,801366
3,042500	0,1	6,783999
3,044167	0,1	6,716520
3,045833	0,1	6,636250
3,047500	0,1	6,635015
3,049167	0,1	6,565231
3,050833	0,1	6,535423
3,052500	0,1	6,471718
3,054167	0,1	6,458439
3,055833	0,1	6,423140
3,057500	0,1	6,355810
3,059167	0,1	6,346085
3,060833	0,1	6,265331
3,062500	0,1	6,243004
3,064167	0,1	6,222086
3,065833	0,1	6,177377
3,067500	0,1	6,156846
3,069167	0,1	6,048496
3,070833	0,1	6,041572
3,072500	0,1	6,032993
3,074167	0,1	6,004246
3,075833	0,1	5,966639
3,077500	0,1	5,894089
3,079167	0,1	5,859729
3,080833	0,1	5,831096
3,082500	0,1	5,780630
3,084167	0,1	5,750885
3,085833	0,1	5,732313
3,087500	0,1	5,698755
3,089167	0,1	5,694381
3,090833	0,1	5,646084
3,092500	0,1	5,625091
3,094167	0,1	5,577035
3,095833	0,1	5,557134
3,097500	0,1	5,520676
3,099167	0,1	5,506728
3,100833	0,1	5,485927
3,102500	0,1	5,480553
3,104167	0,1	5,407555
3,105833	0,1	5,395563
3,107500	0,1	5,346696
3,109167	0,1	5,351160
3,110833	0,1	5,332712
3,112500	0,1	5,333407
3,114167	0,1	5,310540
3,115833	0,1	5,286935
3,117500	0,1	5,247501
3,119167	0,1	5,272827
3,120833	0,1	5,284108
3,122500	0,1	5,197483
3,124167	0,1	5,185694
3,125833	0,1	5,191698
3,127500	0,1	5,195698
3,129167	0,1	5,176517
3,130833	0,1	5,112709
3,132500	0,1	5,152081
3,134167	0,1	5,154489
3,135833	0,1	5,101821
3,137500	0,1	5,095008
3,139167	0,1	5,121659
3,140833	0,1	5,083002
3,142500	0,1	5,123348
3,144167	0,1	5,061080
3,145833	0,1	5,064782
3,147500	0,1	5,058635
3,149167	0,1	5,075119
3,150833	0,1	5,064239
3,152500	0,1	5,007032
3,154167	0,1	5,005389
3,155833	0,1	5,020701
3,157500	0,1	4,989453
3,159167	0,1	5,003537
3,160833	0,1	5,031234
3,162500	0,1	4,969389
3,164167	0,1	4,984552
3,165833	0,1	4,952244
3,167500	0,1	4,947329
3,169167	0,1	4,918254
3,170833	0,1	4,874169
3,172500	0,1	4,935585
3,174167	0,1	4,905592
3,175833	0,1	4,895727
3,177500	0,1	4,868807
3,179167	0,1	4,838011
3,180833	0,1	4,840633
3,182500	0,1	4,853854
3,184167	0,1	4,812694
3,185833	0,1	4,809798
3,187500	0,1	4,792914
3,189167	0,1	4,792540
3,190833	0,1	4,788805
3,192500	0,1	4,719475
3,194167	0,1	4,729962
3,195833	0,1	4,699929
3,197500	0,1	4,677786
3,199167	0,1	4,661899
3,200833	0,1	4,636987
3,202500	0,1	4,640776
3,204167	0,1	4,609531
3,205833	0,1	4,601941
3,207500	0,1	4,580061
3,209167	0,1	4,543072
3,210833	0,1	4,539240
3,212500	0,1	4,527809
3,214167	0,1	4,484317
3,215833	0,1	4,447756
3,217500	0,1	4,496126
3,219167	0,1	4,428264
3,220833	0,1	4,418094
3,222500	0,1	4,370003
3,224167	0,1	4,335995
3,225833	0,1	4,332281
3,227500	0,1	4,298540
3,229167	0,1	4,285942
3,230833	0,1	4,308684
3,232500	0,1	4,218922
3,234167	0,1	4,177545
3,235833	0,1	4,191392
3,237500	0,1	4,169985
3,239167	0,1	4,136853
3,240833	0,1	4,082881
3,242500	0,1	4,117810
3,244167	0,1	4,060806
3,245833	0,1	4,043773
3,247500	0,1	4,012154
3,249167	0,1	4,020879
3,250833	0,1	3,959463
3,252500	0,1	3,944062
3,254167	0,1	3,943526
3,255833	0,1	3,854213
3,257500	0,1	3,891596
3,259167	0,1	3,830322
3,260833	0,1	3,827500
3,262500	0,1	3,775850
3,264167	0,1	3,775636
3,265833	0,1	3,722567
3,267500	0,1	3,714028
3,269167	0,1	3,693120
3,270833	0,1	3,671842
3,272500	0,1	3,670091
3,274167	0,1	3,672445
3,275833	0,1	3,584527
3,277500	0,1	3,606787
3,279167	0,1	3,547252
3,280833	0,1	3,541679
3,282500	0,1	3,522767
3,284167	0,1	3,506451
3,285833	0,1	3,489084
3,287500	0,1	3,472040
3,289167	0,1	3,441231
3,290833	0,1	3,417001
3,292500	0,1	3,412975
3,294167	0,1	3,364657
3,295833	0,1	3,360624
3,297500	0,1	3,408667
3,299167	0,1	3,368071
3,300833	0,1	3,319338
3,302500	0,1	3,303626
3,304167	0,1	3,299204
3,305833	0,1	3,213120
3,307500	0,1	3,299813
3,309167	0,1	3,281364
3,310833	0,1	3,269316
3,312500	0,1	3,209394
3,314167	0,1	3,229019
3,315833	0,1	3,219894
3,317500	0,1	3,234530
3,319167	0,1	3,177643
3,320833	0,1	3,222905
3,322500	0,1	3,182562
3,324167	0,1	3,138812
3,325833	0,1	3,196482
3,327500	0,1	3,163852
3,329167	0,1	3,164002
3,330833	0,1	3,168701
3,332500	0,1	3,150537
3,334167	0,1	3,172813
3,335833	0,1	3,132530
3,337500	0,1	3,188902
3,339167	0,1	3,137409
3,340833	0,1	3,141415
3,342500	0,1	3,113778
3,344167	0,1	3,156015
3,345833	0,1	3,128496
3,347500	0,1	3,140304
3,349167	0,1	3,128551
3,350833	0,1	3,130955
3,352500	0,1	3,127586
3,354167	0,1	3,145355
3,355833	0,1	3,124963
3,357500	0,1	3,107239
3,359167	0,1	3,152849
3,360833	0,1	3,141104
3,362500	0,1	3,111862
3,364167	0,1	3,118971
3,365833	0,1	3,117310
3,367500	0,1	3,136920
3,369167	0,1	3,103043
3,370833	0,1	3,106742
3,372500	0,1	3,109386
3,374167	0,1	3,086536
3,375833	0,1	3,125677
3,377500	0,1	3,109547
3,379167	0,1	3,124385
3,380833	0,1	3,080750
3,382500	0,1	3,099984
3,384167	0,1	3,127657
3,385833	0,1	3,099248
3,387500	0,1	3,091222
3,389167	0,1	3,107565
3,390833	0,1	3,100198
3,392500	0,1	3,108971
3,394167	0,1	3,084010
3,395833	0,1	3,121862
3,397500	0,1	3,045362
3,399167	0,1	3,076320
3,400833	0,1	3,066625
3,402500	0,1	3,071106
3,404167	0,1	3,114047
3,405833	0,1	3,056308
3,407500	0,1	3,070898
3,409167	0,1	3,025736
3,410833	0,1	3,049722
3,412500	0,1	3,027520
3,414167	0,1	3,036494
3,415833	0,1	3,016361
3,417500	0,1	3,023878
3,419167	0,1	3,019708
3,420833	0,1	2,995370
3,422500	0,1	3,000396
3,424167	0,1	2,998894
3,425833	0,1	3,056537
3,427500	0,1	3,046636
3,429167	0,1	3,036078
3,430833	0,1	3,010313
3,432500	0,1	3,021517
3,434167	0,1	2,992336
3,435833	0,1	3,038554
3,437500	0,1	3,001446
3,439167	0,1	2,984239
3,440833	0,1	3,024780
3,442500	0,1	3,048217
3,444167	0,1	3,037454
3,445833	0,1	3,018229
3,447500	0,1	3,028552
3,449167	0,1	3,000276
3,450833	0,1	3,031086
3,452500	0,1	3,061320
3,454167	0,1	3,054912
3,455833	0,1	2,990789
3,457500	0,1	3,014121
3,459167	0,1	3,033348
3,460833	0,1	3,045703
3,462500	0,1	3,072685
3,464167	0,1	3,016549
3,465833	0,1	3,088716
3,467500	0,1	3,076309
3,469167	0,1	3,074973
3,470833	0,1	3,066911
3,472500	0,1	3,101258
3,474167	0,1	3,099763
3,475833	0,1	3,125286
3,477500	0,1	3,177348
3,479167	0,1	3,114513
3,480833	0,1	3,150826
3,482500	0,1	3,182164
3,484167	0,1	3,207966
3,485833	0,1	3,193287
3,487500	0,1	3,204883
3,489167	0,1	3,209665
3,490833	0,1	3,225522
3,492500	0,1	3,255899
3,494167	0,1	3,258785
3,495833	0,1	3,270846
3,497500	0,1	3,250606
3,499167	0,1	3,286291
3,500833	0,1	3,336841
3,502500	0,1	3,348742
3,504167	0,1	3,387619
3,505833	0,1	3,335966
3,507500	0,1	3,394666
3,509167	0,1	3,360439
3,510833	0,1	3,384559
3,512500	0,1	3,405383
3,514167	0,1	3,439836
3,515833	0,1	3,455711
3,517500	0,1	3,447470
3,519167	0,1	3,425842
3,520833	0,1	3,460171
3,522500	0,1	3,457377
3,524167	0,1	3,475351
3,525833	0,1	3,477667
3,527500	0,1	3,476487
3,529167	0,1	3,493615
3,530833	0,1	3,504984
3,532500	0,1	3,503811
3,534167	0,1	3,488187
3,535833	0,1	3,525926
3,537500	0,1	3,514570
3,539167	0,1	3,521704
3,540833	0,1	3,560750
3,542500	0,1	3,536041
3,544167	0,1	3,527997
3,545833	0,1	3,507786
3,547500	0,1	3,491871
3,549167	0,1	3,548159
3,550833	0,1	3,506296
3,552500	0,1	3,554290
3,554167	0,1	3,537790
3,555833	0,1	3,537051
3,557500	0,1	3,524756
3,559167	0,1	3,504217
3,560833	0,1	3,516876
3,562500	0,1	3,481530
3,564167	0,1	3,497592
3,565833	0,1	3,469641
3,567500	0,1	3,450310
3,569167	0,1	3,491623
3,570833	0,1	3,491472
3,572500	0,1	3,464686
3,574167	0,1	3,430433
3,575833	0,1	3,452834
3,577500	0,1	3,392817
3,579167	0,1	3,399746
3,580833	0,1	3,401822
3,582500	0,1	3,411513
3,584167	0,1	3,405184
3,585833	0,1	3,351877
3,587500	0,1	3,379455
3,589167	0,1	3,359819
3,590833	0,1	3,358244
3,592500	0,1	3,336858
3,594167	0,1	3,327563
3,595833	0,1	3,303879
3,597500	0,1	3,290325
3,599167	0,1	3,309664
3,600833	0,1	3,280924
3,602500	0,1	3,226362
3,604167	0,1	3,224877
3,605833	0,1	3,225654
3,607500	0,1	3,231905
3,609167	0,1	3,175822
3,610833	0,1	3,173894
3,612500	0,1	3,149731
3,614167	0,1	3,128966
3,615833	0,1	3,147381
3,617500	0,1	3,070299
3,619167	0,1	3,046490
3,620833	0,1	3,091523
3,622500	0,1	3,038947
3,624167	0,1	3,036881
3,625833	0,1	2,957167
3,627500	0,1	2,957718
3,629167	0,1	3,046463
3,630833	0,1	2,982693
3,632500	0,1	2,980368
3,634167	0,1	2,926365
3,635833	0,1	2,962718
3,637500	0,1	2,909893
3,639167	0,1	2,870588
3,640833	0,1	2,892572
3,642500	0,1	2,880181
3,644167	0,1	2,837910
3,645833	0,1	2,816685
3,647500	0,1	2,796014
3,649167	0,1	2,789119
3,650833	0,1	2,744978
3,652500	0,1	2,733905
3,654167	0,1	2,722807
3,655833	0,1	2,701625
3,657500	0,1	2,667066
3,659167	0,1	2,668485
3,660833	0,1	2,679007
3,662500	0,1	2,598661
3,664167	0,1	2,662505
3,665833	0,1	2,606203
3,667500	0,1	2,603771
3,669167	0,1	2,558854
3,670833	0,1	2,571059
3,672500	0,1	2,529029
3,674167	0,1	2,537001
3,675833	0,1	2,499222
3,677500	0,1	2,543911
3,679167	0,1	2,466398
3,680833	0,1	2,501609
3,682500	0,1	2,484432
3,684167	0,1	2,422585
3,685833	0,1	2,401965
3,687500	0,1	2,436343
3,689167	0,1	2,423837
3,690833	0,1	2,374629
3,692500	0,1	2,365129
3,694167	0,1	2,396544
3,695833	0,1	2,380587
3,697500	0,1	2,338567
3,699167	0,1	2,360423
3,700833	0,1	2,299152
3,702500	0,1	2,313327
3,704167	0,1	2,312003
3,705833	0,1	2,302773
3,707500	0,1	2,271919
3,709167	0,1	2,269834
3,710833	0,1	2,274365
3,712500	0,1	2,261853
3,714167	0,1	2,284599
3,715833	0,1	2,205533
3,717500	0,1	2,226866
3,719167	0,1	2,224492
3,720833	0,1	2,189909
3,722500	0,1	2,221968
3,724167	0,1	2,171137
3,725833	0,1	2,171412
3,727500	0,1	2,177099
3,729167	0,1	2,178670
3,730833	0,1	2,160844
3,732500	0,1	2,122653
3,734167	0,1	2,135790
3,735833	0,1	2,143497
3,737500	0,1	2,155224
3,739167	0,1	2,070009
3,740833	0,1	2,101838
3,742500	0,1	2,091862
3,744167	0,1	2,075467
3,745833	0,1	2,030665
3,747500	0,1	2,044039
3,749167	0,1	2,044738
3,750833	0,1	2,074227
3,752500	0,1	2,033615
3,754167	0,1	2,071562
3,755833	0,1	2,028002
3,757500	0,1	2,020079
3,759167	0,1	2,029357
3,760833	0,1	2,002766
3,762500	0,1	2,042073
3,764167	0,1	2,016988
3,765833	0,1	1,989093
3,767500	0,1	1,994851
3,769167	0,1	1,998572
3,770833	0,1	2,026616
3,772500	0,1	1,994060
3,774167	0,1	1,993601
3,775833	0,1	1,991890
3,777500	0,1	1,961561
3,779167	0,1	1,919295
3,780833	0,1	1,932218
3,782500	0,1	1,958526
3,784167	0,1	1,921938
3,785833	0,1	1,956877
3,787500	0,1	1,948453
3,789167	0,1	1,917412
3,790833	0,1	1,930204
3,792500	0,1	1,899082
3,794167	0,1	1,913746
3,795833	0,1	1,908555
3,797500	0,1	1,894981
3,799167	0,1	1,863564
3,800833	0,1	1,934785
3,802500	0,1	1,927400
3,804167	0,1	1,946064
3,805833	0,1	1,884786
3,807500	0,1	1,857375
3,809167	0,1	1,854141
3,810833	0,1	1,893523
3,812500	0,1	1,861268
3,814167	0,1	1,819930
3,815833	0,1	1,844795
3,817500	0,1	1,825610
3,819167	0,1	1,833299
3,820833	0,1	1,840479
3,822500	0,1	1,843792
3,824167	0,1	1,806851
3,825833	0,1	1,761435
3,827500	0,1	1,820704
3,829167	0,1	1,829475
3,830833	0,1	1,798796
3,832500	0,1	1,754102
3,834167	0,1	1,788729
3,835833	0,1	1,822864
3,837500	0,1	1,746064
3,839167	0,1	1,763567
3,840833	0,1	1,733691
3,842500	0,1	1,750347
3,844167	0,1	1,708538
3,845833	0,1	1,703572
3,847500	0,1	1,745813
3,849167	0,1	1,689284
3,850833	0,1	1,688049
3,852500	0,1	1,670018
3,854167	0,1	1,691274
3,855833	0,1	1,688408
3,857500	0,1	1,685243
3,859167	0,1	1,682656
3,860833	0,1	1,671382
3,862500	0,1	1,620881
3,864167	0,1	1,667918
3,865833	0,1	1,618724
3,867500	0,1	1,633867
3,869167	0,1	1,644719
3,870833	0,1	1,648240
3,872500	0,1	1,622310
3,874167	0,1	1,614475
3,875833	0,1	1,617058
3,877500	0,1	1,594003
3,879167	0,1	1,575325
3,880833	0,1	1,576108
3,882500	0,1	1,583580
3,884167	0,1	1,569648
3,885833	0,1	1,536249
3,887500	0,1	1,552903
3,889167	0,1	1,504573
3,890833	0,1	1,564674
3,892500	0,1	1,542638
3,894167	0,1	1,550751
3,895833	0,1	1,524899
3,897500	0,1	1,519291
3,899167	0,1	1,507585
3,900833	0,1	1,544925
3,902500	0,1	1,510966
3,904167	0,1	1,487691
3,905833	0,1	1,536012
3,907500	0,1	1,500120
3,909167	0,1	1,463779
3,910833	0,1	1,469157
3,912500	0,1	1,475617
3,914167	0,1	1,477485
3,915833	0,1	1,488329
3,917500	0,1	1,461765
3,919167	0,1	1,431602
3,920833	0,1	1,480996
3,922500	0,1	1,446977
3,924167	0,1	1,432456
3,925833	0,1	1,422263
3,927500	0,1	1,398931
3,929167	0,1	1,437549
3,930833	0,1	1,420539
3,932500	0,1	1,410061
3,934167	0,1	1,363390
3,935833	0,1	1,408897
3,937500	0,1	1,411779
3,939167	0,1	1,395548
3,940833	0,1	1,327848
3,942500	0,1	1,385198
3,944167	0,1	1,394680
3,945833	0,1	1,373576
3,947500	0,1	1,327126
3,949167	0,1	1,350372
3,950833	0,1	1,341047
3,952500	0,1	1,349376
3,954167	0,1	1,321312
3,955833	0,1	1,329270
3,957500	0,1	1,340335
3,959167	0,1	1,345570
3,960833	0,1	1,339252
3,962500	0,1	1,361868
3,964167	0,1	1,348378
3,965833	0,1	1,339825
3,967500	0,1	1,353756
3,969167	0,1	1,296465
3,970833	0,1	1,320658
3,972500	0,1	1,332998
3,974167	0,1	1,308089
3,975833	0,1	1,313398
3,977500	0,1	1,336590
3,979167	0,1	1,330418
3,980833	0,1	1,324743
3,982500	0,1	1,329563
3,984167	0,1	1,294540
3,985833	0,1	1,310028
3,987500	0,1	1,324466
3,989167	0,1	1,288354
3,990833	0,1	1,305212
3,992500	0,1	1,326399
3,994167	0,1	1,292301
3,995833	0,1	1,321369
3,997500	0,1	1,313123
3,999167	0,1	1,286414
4,000833	0,1	1,358266
4,002500	0,1	1,288726
4,004167	0,1	1,295388
4,005833	0,1	1,283391
4,007500	0,1	1,297752
4,009167	0,1	1,299623
4,010833	0,1	1,297317
4,012500	0,1	1,308380
4,014167	0,1	1,309734
4,015833	0,1	1,296814
4,017500	0,1	1,318921
4,019167	0,1	1,292158
4,020833	0,1	1,325316
4,022500	0,1	1,316849
4,024167	0,1	1,341039
4,025833	0,1	1,312326
4,027500	0,1	1,297172
4,029167	0,1	1,340099
4,030833	0,1	1,345203
4,032500	0,1	1,331577
4,034167	0,1	1,310683
4,035833	0,1	1,339604
4,037500	0,1	1,354535
4,039167	0,1	1,344564
4,040833	0,1	1,301779
4,042500	0,1	1,328693
4,044167	0,1	1,365745
4,045833	0,1	1,370486
4,047500	0,1	1,368181
4,049167	0,1	1,345432
4,050833	0,1	1,363224
4,052500	0,1	1,366028
4,054167	0,1	1,381969
4,055833	0,1	1,433810
4,057500	0,1	1,390886
4,059167	0,1	1,448752
4,060833	0,1	1,424418
4,062500	0,1	1,418734
4,064167	0,1	1,455286
4,065833	0,1	1,469944
4,067500	0,1	1,435266
4,069167	0,1	1,454857
4,070833	0,1	1,507352
4,072500	0,1	1,489915
4,074167	0,1	1,493435
4,075833	0,1	1,496231
4,077500	0,1	1,511814
4,079167	0,1	1,518856
4,080833	0,1	1,575881
4,082500	0,1	1,535027
4,084167	0,1	1,564752
4,085833	0,1	1,577973
4,087500	0,1	1,551617
4,089167	0,1	1,595854
4,090833	0,1	1,606137
4,092500	0,1	1,650026
4,094167	0,1	1,683008
4,095833	0,1	1,676627
4,097500	0,1	1,712327
4,099167	0,1	1,668154
4,100833	0,1	1,720442
4,102500	0,1	1,675772
4,104167	0,1	1,704858
4,105833	0,1	1,750417
4,107500	0,1	1,761276
4,109167	0,1	1,778880
4,110833	0,1	1,744617
4,112500	0,1	1,794106
4,114167	0,1	1,817845
4,115833	0,1	1,794347
4,117500	0,1	1,857433
4,119167	0,1	1,888073
4,120833	0,1	1,891102
4,122500	0,1	1,919847
4,124167	0,1	1,938895
4,125833	0,1	1,943001
4,127500	0,1	1,938699
4,129167	0,1	1,956734
4,130833	0,1	1,972692
4,132500	0,1	2,033081
4,134167	0,1	2,051214
4,135833	0,1	2,026277
4,137500	0,1	2,055530
4,139167	0,1	2,088892
4,140833	0,1	2,106373
4,142500	0,1	2,133420
4,144167	0,1	2,102712
4,145833	0,1	2,113792
4,147500	0,1	2,140256
4,149167	0,1	2,169664
4,150833	0,1	2,183264
4,152500	0,1	2,165228
4,154167	0,1	2,233540
4,155833	0,1	2,241051
4,157500	0,1	2,234942
4,159167	0,1	2,208907
4,160833	0,1	2,283639
4,162500	0,1	2,288735
4,164167	0,1	2,293506
4,165833	0,1	2,292784
4,167500	0,1	2,316231
4,169167	0,1	2,372931
4,170833	0,1	2,349273
4,172500	0,1	2,363242
4,174167	0,1	2,340581
4,175833	0,1	2,368646
4,177500	0,1	2,363969
4,179167	0,1	2,420790
4,180833	0,1	2,405443
4,182500	0,1	2,474273
4,184167	0,1	2,438019
4,185833	0,1	2,443569
4,187500	0,1	2,460923
4,189167	0,1	2,473124
4,190833	0,1	2,467945
4,192500	0,1	2,493872
4,194167	0,1	2,485018
4,195833	0,1	2,472652
4,197500	0,1	2,479259
4,199167	0,1	2,507494
4,200833	0,1	2,499367
4,202500	0,1	2,511350
4,204167	0,1	2,559862
4,205833	0,1	2,532073
4,207500	0,1	2,535706
4,209167	0,1	2,516804
4,210833	0,1	2,563331
4,212500	0,1	2,508601
4,214167	0,1	2,538748
4,215833	0,1	2,578829
4,217500	0,1	2,576171
4,219167	0,1	2,550960
4,220833	0,1	2,551335
4,222500	0,1	2,533483
4,224167	0,1	2,518595
4,225833	0,1	2,590563
4,227500	0,1	2,554947
4,229167	0,1	2,563988
4,230833	0,1	2,567250
4,232500	0,1	2,565498
4,234167	0,1	2,564163
4,235833	0,1	2,550233
4,237500	0,1	2,511457
4,239167	0,1	2,535053
4,240833	0,1	2,555696
4,242500	0,1	2,541981
4,244167	0,1	2,505986
4,245833	0,1	2,502681
4,247500	0,1	2,509063
4,249167	0,1	2,542657
4,250833	0,1	2,499205
4,252500	0,1	2,504319
4,254167	0,1	2,485172
4,255833	0,1	2,474595
4,257500	0,1	2,492215
4,259167	0,1	2,496468
4,260833	0,1	2,455545
4,262500	0,1	2,463425
4,264167	0,1	2,445803
4,265833	0,1	2,455381
4,267500	0,1	2,463365
4,269167	0,1	2,441269
4,270833	0,1	2,440390
4,272500	0,1	2,428673
4,274167	0,1	2,386725
4,275833	0,1	2,404578
4,277500	0,1	2,463092
4,279167	0,1	2,367606
4,280833	0,1	2,385398
4,282500	0,1	2,353537
4,284167	0,1	2,365019
4,285833	0,1	2,348774
4,287500	0,1	2,390485
4,289167	0,1	2,331644
4,290833	0,1	2,305880
4,292500	0,1	2,335371
4,294167	0,1	2,316391
4,295833	0,1	2,301147
4,297500	0,1	2,309955
4,299167	0,1	2,288619
4,300833	0,1	2,279064
4,302500	0,1	2,271415
4,304167	0,1	2,202666
4,305833	0,1	2,242477
4,307500	0,1	2,241715
4,309167	0,1	2,198541
4,310833	0,1	2,210033
4,312500	0,1	2,171357
4,314167	0,1	2,165884
4,315833	0,1	2,171696
4,317500	0,1	2,180028
4,319167	0,1	2,111527
4,320833	0,1	2,135193
4,322500	0,1	2,144133
4,324167	0,1	2,112952
4,325833	0,1	2,140467
4,327500	0,1	2,105228
4,329167	0,1	2,073262
4,330833	0,1	2,093859
4,332500	0,1	2,068922
4,334167	0,1	2,095070
4,335833	0,1	2,058846
4,337500	0,1	2,091703
4,339167	0,1	2,013198
4,340833	0,1	2,016907
4,342500	0,1	2,025041
4,344167	0,1	1,970200
4,345833	0,1	2,001228
4,347500	0,1	2,009713
4,349167	0,1	1,999363
4,350833	0,1	2,000155
4,352500	0,1	1,931224
4,354167	0,1	1,935595
4,355833	0,1	1,967791
4,357500	0,1	1,922885
4,359167	0,1	1,916974
4,360833	0,1	1,894844
4,362500	0,1	1,891677
4,364167	0,1	1,877219
4,365833	0,1	1,897988
4,367500	0,1	1,855235
4,369167	0,1	1,878943
4,370833	0,1	1,833021
4,372500	0,1	1,840556
4,374167	0,1	1,848319
4,375833	0,1	1,838971
4,377500	0,1	1,845513
4,379167	0,1	1,807994
4,380833	0,1	1,785574
4,382500	0,1	1,795131
4,384167	0,1	1,822789
4,385833	0,1	1,778895
4,387500	0,1	1,772138
4,389167	0,1	1,776148
4,390833	0,1	1,749064
4,392500	0,1	1,702434
4,394167	0,1	1,740066
4,395833	0,1	1,712560
4,397500	0,1	1,721532
4,399167	0,1	1,723476
4,400833	0,1	1,713343
4,402500	0,1	1,692726
4,404167	0,1	1,704644
4,405833	0,1	1,670236
4,407500	0,1	1,648248
4,409167	0,1	1,678627
4,410833	0,1	1,662329
4,412500	0,1	1,648388
4,414167	0,1	1,670583
4,415833	0,1	1,657513
4,417500	0,1	1,645439
4,419167	0,1	1,640052
4,420833	0,1	1,623961
4,422500	0,1	1,611818
4,424167	0,1	1,601328
4,425833	0,1	1,583656
4,427500	0,1	1,535893
4,429167	0,1	1,575596
4,430833	0,1	1,546878
4,432500	0,1	1,532366
4,434167	0,1	1,543277
4,435833	0,1	1,520946
4,437500	0,1	1,568987
4,439167	0,1	1,562606
4,440833	0,1	1,513195
4,442500	0,1	1,526898
4,444167	0,1	1,499614
4,445833	0,1	1,473039
4,447500	0,1	1,511738
4,449167	0,1	1,497168
4,450833	0,1	1,481583
4,452500	0,1	1,482871
4,454167	0,1	1,450564
4,455833	0,1	1,436911
4,457500	0,1	1,447826
4,459167	0,1	1,413433
4,460833	0,1	1,408043
4,462500	0,1	1,442857
4,464167	0,1	1,404175
4,465833	0,1	1,405742
4,467500	0,1	1,366752
4,469167	0,1	1,406810
4,470833	0,1	1,391533
4,472500	0,1	1,388010
4,474167	0,1	1,395117
4,475833	0,1	1,374866
4,477500	0,1	1,391518
4,479167	0,1	1,371068
4,480833	0,1	1,331361
4,482500	0,1	1,363436
4,484167	0,1	1,340690
4,485833	0,1	1,357771
4,487500	0,1	1,332862
4,489167	0,1	1,330645
4,490833	0,1	1,293676
4,492500	0,1	1,311038
4,494167	0,1	1,268902
4,495833	0,1	1,284676
4,497500	0,1	1,269408
4,499167	0,1	1,271906
4,500833	0,1	1,287696
4,502500	0,1	1,265961
4,504167	0,1	1,253595
4,505833	0,1	1,237814
4,507500	0,1	1,208375
4,509167	0,1	1,244116
4,510833	0,1	1,242825
4,512500	0,1	1,234442
4,514167	0,1	1,232067
4,515833	0,1	1,217352
4,517500	0,1	1,227752
4,519167	0,1	1,178531
4,520833	0,1	1,209098
4,522500	0,1	1,141203
4,524167	0,1	1,196102
4,525833	0,1	1,168766
4,527500	0,1	1,151822
4,529167	0,1	1,123692
4,530833	0,1	1,147805
4,532500	0,1	1,138379
4,534167	0,1	1,118593
4,535833	0,1	1,151321
4,537500	0,1	1,129783
4,539167	0,1	1,103828
4,540833	0,1	1,146805
4,542500	0,1	1,070180
4,544167	0,1	1,099792
4,545833	0,1	1,104041
4,547500	0,1	1,088167
4,549167	0,1	1,077338
4,550833	0,1	1,076241
4,552500	0,1	1,062902
4,554167	0,1	1,072325
4,555833	0,1	1,037085
4,557500	0,1	1,025538
4,559167	0,1	1,029327
4,560833	0,1	1,049770
4,562500	0,1	1,078906
4,564167	0,1	1,034942
4,565833	0,1	1,010044
4,567500	0,1	1,028828
4,569167	0,1	1,029419
4,570833	0,1	1,001799
4,572500	0,1	0,994405
4,574167	0,1	1,032131
4,575833	0,1	1,013800
4,577500	0,1	0,950871
4,579167	0,1	1,011463
4,580833	0,1	0,995916
4,582500	0,1	0,948398
4,584167	0,1	0,938004
4,585833	0,1	0,954794
4,587500	0,1	0,949911
4,589167	0,1	0,957818
4,590833	0,1	0,924025
4,592500	0,1	0,959171
4,594167	0,1	0,950927
4,595833	0,1	0,899142
4,597500	0,1	0,905294
4,599167	0,1	0,924726
4,600833	0,1	0,888081
4,602500	0,1	0,860914
4,604167	0,1	0,892954
4,605833	0,1	0,891396
4,607500	0,1	0,907518
4,609167	0,1	0,899777
4,610833	0,1	0,916748
4,612500	0,1	0,888876
4,614167	0,1	0,871885
4,615833	0,1	0,896748
4,617500	0,1	0,836789
4,619167	0,1	0,859748
4,620833	0,1	0,864764
4,622500	0,1	0,863845
4,624167	0,1	0,840819
4,625833	0,1	0,849081
4,627500	0,1	0,796650
4,629167	0,1	0,877025
4,630833	0,1	0,830650
4,632500	0,1	0,801009
4,634167	0,1	0,813839
4,635833	0,1	0,814214
4,637500	0,1	0,814723
4,639167	0,1	0,827970
4,640833	0,1	0,808038
4,642500	0,1	0,788488
4,644167	0,1	0,767501
4,645833	0,1	0,824611
4,647500	0,1	0,805678
4,649167	0,1	0,852284
4,650833	0,1	0,796156
4,652500	0,1	0,809542
4,654167	0,1	0,801666
4,655833	0,1	0,768909
4,657500	0,1	0,779719
4,659167	0,1	0,790349
4,660833	0,1	0,753203
4,662500	0,1	0,785096
4,664167	0,1	0,735783
4,665833	0,1	0,772241
4,667500	0,1	0,766458
4,669167	0,1	0,746219
4,670833	0,1	0,765297
4,672500	0,1	0,761226
4,674167	0,1	0,745895
4,675833	0,1	0,755468
4,677500	0,1	0,733807
4,679167	0,1	0,782101
4,680833	0,1	0,753032
4,682500	0,1	0,776321
4,684167	0,1	0,755795
4,685833	0,1	0,702875
4,687500	0,1	0,741993
4,689167	0,1	0,712684
4,690833	0,1	0,750604
4,692500	0,1	0,638572
4,694167	0,1	0,720721
4,695833	0,1	0,741284
4,697500	0,1	0,691463
4,699167	0,1	0,717255
4,700833	0,1	0,678692
4,702500	0,1	0,718576
4,704167	0,1	0,691051
4,705833	0,1	0,699208
4,707500	0,1	0,673391
4,709167	0,1	0,686660
4,710833	0,1	0,704707
4,712500	0,1	0,713607
4,714167	0,1	0,671544
4,715833	0,1	0,655391
4,717500	0,1	0,711151
4,719167	0,1	0,680913
4,720833	0,1	0,681518
4,722500	0,1	0,708866
4,724167	0,1	0,668963
4,725833	0,1	0,634105
4,727500	0,1	0,638950
4,729167	0,1	0,632315
4,730833	0,1	0,680303
4,732500	0,1	0,639065
4,734167	0,1	0,651513
4,735833	0,1	0,627958
4,737500	0,1	0,648573
4,739167	0,1	0,667523
4,740833	0,1	0,624362
4,742500	0,1	0,645434
4,744167	0,1	0,620572
4,745833	0,1	0,656176
4,747500	0,1	0,662519
4,749167	0,1	0,626229
4,750833	0,1	0,622620
4,752500	0,1	0,630646
4,754167	0,1	0,637524
4,755833	0,1	0,612388
4,757500	0,1	0,636162
4,759167	0,1	0,618213
4,760833	0,1	0,607446
4,762500	0,1	0,624230
4,764167	0,1	0,623099
4,765833	0,1	0,615272
4,767500	0,1	0,579646
4,769167	0,1	0,607725
4,770833	0,1	0,622363
4,772500	0,1	0,590013
4,774167	0,1	0,582355
4,775833	0,1	0,599968
4,777500	0,1	0,607712
4,779167	0,1	0,592986
4,780833	0,1	0,582866
4,782500	0,1	0,586800
4,784167	0,1	0,582266
4,785833	0,1	0,612530
4,787500	0,1	0,582311
4,789167	0,1	0,622357
4,790833	0,1	0,607090
4,792500	0,1	0,600194
4,794167	0,1	0,592829
4,795833	0,1	0,564943
4,797500	0,1	0,553194
4,799167	0,1	0,602406
4,800833	0,1	0,574310
4,802500	0,1	0,582149
4,804167	0,1	0,622444
4,805833	0,1	0,597773
4,807500	0,1	0,595273
4,809167	0,1	0,560026
4,810833	0,1	0,568004
4,812500	0,1	0,561221
4,814167	0,1	0,579584
4,815833	0,1	0,536458
4,817500	0,1	0,559596
4,819167	0,1	0,569804
4,820833	0,1	0,600358
4,822500	0,1	0,506040
4,824167	0,1	0,563678
4,825833	0,1	0,581452
4,827500	0,1	0,533409
4,829167	0,1	0,594102
4,830833	0,1	0,577196
4,832500	0,1	0,543793
4,834167	0,1	0,593903
4,835833	0,1	0,602387
4,837500	0,1	0,574551
4,839167	0,1	0,578145
4,840833	0,1	0,607032
4,842500	0,1	0,560808
4,844167	0,1	0,555195
4,845833	0,1	0,586032
4,847500	0,1	0,567185
4,849167	0,1	0,570316
4,850833	0,1	0,561087
4,852500	0,1	0,562973
4,854167	0,1	0,555128
4,855833	0,1	0,557880
4,857500	0,1	0,586929
4,859167	0,1	0,567029
4,860833	0,1	0,612632
4,862500	0,1	0,583072
4,864167	0,1	0,574498
4,865833	0,1	0,527980
4,867500	0,1	0,567238
4,869167	0,1	0,490557
4,870833	0,1	0,540950
4,872500	0,1	0,527171
4,874167	0,1	0,508091
4,875833	0,1	0,531457
4,877500	0,1	0,524813
4,879167	0,1	0,556226
4,880833	0,1	0,558947
4,882500	0,1	0,524261
4,884167	0,1	0,556919
4,885833	0,1	0,580653
4,887500	0,1	0,521735
4,889167	0,1	0,556582
4,890833	0,1	0,527022
4,892500	0,1	0,520566
4,894167	0,1	0,577958
4,895833	0,1	0,572745
4,897500	0,1	0,525822
4,899167	0,1	0,553050
4,900833	0,1	0,543518
4,902500	0,1	0,584768
4,904167	0,1	0,556799
4,905833	0,1	0,543363
4,907500	0,1	0,486884
4,909167	0,1	0,525157
4,910833	0,1	0,530257
4,912500	0,1	0,546380
4,914167	0,1	0,537423
4,915833	0,1	0,524169
4,917500	0,1	0,543557
4,919167	0,1	0,531976
4,920833	0,1	0,514253
4,922500	0,1	0,569900
4,924167	0,1	0,544100
4,925833	0,1	0,551743
4,927500	0,1	0,517811
4,929167	0,1	0,513579
4,930833	0,1	0,549178
4,932500	0,1	0,529954
4,934167	0,1	0,565041
4,935833	0,1	0,580875
4,937500	0,1	0,516065
4,939167	0,1	0,530571
4,940833	0,1	0,530105
4,942500	0,1	0,548959
4,944167	0,1	0,524083
4,945833	0,1	0,517495
4,947500	0,1	0,550496
4,949167	0,1	0,502737
4,950833	0,1	0,514977
4,952500	0,1	0,520739
4,954167	0,1	0,527368
4,955833	0,1	0,547158
4,957500	0,1	0,560060
4,959167	0,1	0,546301
4,960833	0,1	0,545895
4,962500	0,1	0,575800
4,964167	0,1	0,542481
4,965833	0,1	0,539337
4,967500	0,1	0,568732
4,969167	0,1	0,560463
4,970833	0,1	0,554657
4,972500	0,1	0,530420
4,974167	0,1	0,541288
4,975833	0,1	0,555988
4,977500	0,1	0,574608
4,979167	0,1	0,594218
4,980833	0,1	0,596072
4,982500	0,1	0,587091
4,984167	0,1	0,541839
4,985833	0,1	0,551541
4,987500	0,1	0,598507
4,989167	0,1	0,572992
4,990833	0,1	0,556555
4,992500	0,1	0,547281
4,994167	0,1	0,557575
4,995833	0,1	0,557706
4,997500	0,1	0,572181
4,999167	0,1	0,586440
5,000833	0,1	0,589870
5,002500	0,1	0,558117
5,004167	0,1	0,628851
5,005833	0,1	0,585674
5,007500	0,1	0,582017
5,009167	0,1	0,598051
5,010833	0,1	0,589316
5,012500	0,1	0,591671
5,014167	0,1	0,612310
5,015833	0,1	0,605510
5,017500	0,1	0,589297
5,019167	0,1	0,594675
5,020833	0,1	0,652590
5,022500	0,1	0,656677
5,024167	0,1	0,585152
5,025833	0,1	0,621675
5,027500	0,1	0,635536
5,029167	0,1	0,596197
5,030833	0,1	0,619050
5,032500	0,1	0,624928
5,034167	0,1	0,656583
5,035833	0,1	0,675197
5,037500	0,1	0,640439
5,039167	0,1	0,654007
5,040833	0,1	0,672752
5,042500	0,1	0,678952
5,044167	0,1	0,665172
5,045833	0,1	0,646224
5,047500	0,1	0,701506
5,049167	0,1	0,711689
5,050833	0,1	0,719585
5,052500	0,1	0,684736
5,054167	0,1	0,693962
5,055833	0,1	0,706373
5,057500	0,1	0,724525
5,059167	0,1	0,699778
5,060833	0,1	0,694747
5,062500	0,1	0,671387
5,064167	0,1	0,671924
5,065833	0,1	0,703296
5,067500	0,1	0,734251
5,069167	0,1	0,729165
5,070833	0,1	0,715922
5,072500	0,1	0,722490
5,074167	0,1	0,702271
5,075833	0,1	0,739480
5,077500	0,1	0,767248
5,079167	0,1	0,703063
5,080833	0,1	0,743996
5,082500	0,1	0,715790
5,084167	0,1	0,733440
5,085833	0,1	0,746329
5,087500	0,1	0,791819
5,089167	0,1	0,780469
5,090833	0,1	0,758975
5,092500	0,1	0,740207
5,094167	0,1	0,747672
5,095833	0,1	0,767469
5,097500	0,1	0,758155
5,099167	0,1	0,769561
5,100833	0,1	0,788189
5,102500	0,1	0,745884
5,104167	0,1	0,798135
5,105833	0,1	0,784262
5,107500	0,1	0,784731
5,109167	0,1	0,788670
5,110833	0,1	0,770773
5,112500	0,1	0,773608
5,114167	0,1	0,755102
5,115833	0,1	0,781279
5,117500	0,1	0,760721
5,119167	0,1	0,789972
5,120833	0,1	0,791133
5,122500	0,1	0,748670
5,124167	0,1	0,743143
5,125833	0,1	0,797526
5,127500	0,1	0,757552
5,129167	0,1	0,779685
5,130833	0,1	0,770435
5,132500	0,1	0,784204
5,134167	0,1	0,757733
5,135833	0,1	0,788035
5,137500	0,1	0,785476
5,139167	0,1	0,804392
5,140833	0,1	0,791188
5,142500	0,1	0,760132
5,144167	0,1	0,785575
5,145833	0,1	0,799162
5,147500	0,1	0,767467
5,149167	0,1	0,769514
5,150833	0,1	0,760704
5,152500	0,1	0,747493
5,154167	0,1	0,771104
5,155833	0,1	0,774117
5,157500	0,1	0,756476
5,159167	0,1	0,762804
5,160833	0,1	0,762280
5,162500	0,1	0,747949
5,164167	0,1	0,774330
5,165833	0,1	0,726680
5,167500	0,1	0,772390
5,169167	0,1	0,776849
5,170833	0,1	0,751673
5,172500	0,1	0,729373
5,174167	0,1	0,736125
5,175833	0,1	0,766008
5,177500	0,1	0,758986
5,179167	0,1	0,758917
5,180833	0,1	0,721618
5,182500	0,1	0,728060
5,184167	0,1	0,732525
5,185833	0,1	0,718284
5,187500	0,1	0,733473
5,189167	0,1	0,751677
5,190833	0,1	0,716013
5,192500	0,1	0,685158
5,194167	0,1	0,716387
5,195833	0,1	0,753354
5,197500	0,1	0,699717
5,199167	0,1	0,678687
5,200833	0,1	0,698341
5,202500	0,1	0,702454
5,204167	0,1	0,722792
5,205833	0,1	0,685295
5,207500	0,1	0,693299
5,209167	0,1	0,691487
5,210833	0,1	0,664137
5,212500	0,1	0,679224
5,214167	0,1	0,649298
5,215833	0,1	0,680491
5,217500	0,1	0,660128
5,219167	0,1	0,669222
5,220833	0,1	0,646225
5,222500	0,1	0,622625
5,224167	0,1	0,625996
5,225833	0,1	0,673119
5,227500	0,1	0,632306
5,229167	0,1	0,646540
5,230833	0,1	0,609388
5,232500	0,1	0,617659
5,234167	0,1	0,600419
5,235833	0,1	0,585582
5,237500	0,1	0,655184
5,239167	0,1	0,646103
5,240833	0,1	0,637939
5,242500	0,1	0,621708
5,244167	0,1	0,581360
5,245833	0,1	0,571744
5,247500	0,1	0,559470
5,249167	0,1	0,559486
5,250833	0,1	0,568737
5,252500	0,1	0,577545
5,254167	0,1	0,606320
5,255833	0,1	0,533549
5,257500	0,1	0,567576
5,259167	0,1	0,574919
5,260833	0,1	0,556332
5,262500	0,1	0,546829
5,264167	0,1	0,544382
5,265833	0,1	0,550387
5,267500	0,1	0,527020
5,269167	0,1	0,500931
5,270833	0,1	0,527806
5,272500	0,1	0,548354
5,274167	0,1	0,561882
5,275833	0,1	0,572405
5,277500	0,1	0,530135
5,279167	0,1	0,486856
5,280833	0,1	0,529913
5,282500	0,1	0,502512
5,284167	0,1	0,539615
5,285833	0,1	0,495575
5,287500	0,1	0,469109
5,289167	0,1	0,491134
5,290833	0,1	0,506592
5,292500	0,1	0,514819
5,294167	0,1	0,493233
5,295833	0,1	0,521155
5,297500	0,1	0,462999
5,299167	0,1	0,507942
5,300833	0,1	0,437429
5,302500	0,1	0,453375
5,304167	0,1	0,437794
5,305833	0,1	0,466493
5,307500	0,1	0,450204
5,309167	0,1	0,421900
5,310833	0,1	0,498813
5,312500	0,1	0,467486
5,314167	0,1	0,442822
5,315833	0,1	0,463447
5,317500	0,1	0,424636
5,319167	0,1	0,485388
5,320833	0,1	0,449785
5,322500	0,1	0,465183
5,324167	0,1	0,442444
5,325833	0,1	0,410249
5,327500	0,1	0,396615
5,329167	0,1	0,440072
5,330833	0,1	0,454020
5,332500	0,1	0,448200
5,334167	0,1	0,409584
5,335833	0,1	0,396416
5,337500	0,1	0,379647
5,339167	0,1	0,412613
5,340833	0,1	0,456438
5,342500	0,1	0,418345
5,344167	0,1	0,408620
5,345833	0,1	0,400749
5,347500	0,1	0,422977
5,349167	0,1	0,357562
5,350833	0,1	0,387420
5,352500	0,1	0,418661
5,354167	0,1	0,415733
5,355833	0,1	0,409510
5,357500	0,1	0,398861
5,359167	0,1	0,366603
5,360833	0,1	0,370820
5,362500	0,1	0,373109
5,364167	0,1	0,343194
5,365833	0,1	0,358254
5,367500	0,1	0,377798
5,369167	0,1	0,415302
5,370833	0,1	0,379300
5,372500	0,1	0,373310
5,374167	0,1	0,421969
5,375833	0,1	0,373923
5,377500	0,1	0,329834
5,379167	0,1	0,370454
5,380833	0,1	0,353904
5,382500	0,1	0,353678
5,384167	0,1	0,356636
5,385833	0,1	0,360659
5,387500	0,1	0,350100
5,389167	0,1	0,344454
5,390833	0,1	0,318182
5,392500	0,1	0,306816
5,394167	0,1	0,318861
5,395833	0,1	0,333910
5,397500	0,1	0,339228
5,399167	0,1	0,360367
5,400833	0,1	0,322410
5,402500	0,1	0,324110
5,404167	0,1	0,338357
5,405833	0,1	0,279239
5,407500	0,1	0,347749
5,409167	0,1	0,332628
5,410833	0,1	0,303290
5,412500	0,1	0,312728
5,414167	0,1	0,271325
5,415833	0,1	0,313918
5,417500	0,1	0,353204
5,419167	0,1	0,327564
5,420833	0,1	0,324649
5,422500	0,1	0,297173
5,424167	0,1	0,307191
5,425833	0,1	0,292393
5,427500	0,1	0,298232
5,429167	0,1	0,294589
5,430833	0,1	0,278898
5,432500	0,1	0,286982
5,434167	0,1	0,293968
5,435833	0,1	0,292813
5,437500	0,1	0,270610
5,439167	0,1	0,302028
5,440833	0,1	0,273124
5,442500	0,1	0,295607
5,444167	0,1	0,277726
5,445833	0,1	0,285719
5,447500	0,1	0,284813
5,449167	0,1	0,278830
5,450833	0,1	0,325662
5,452500	0,1	0,272395
5,454167	0,1	0,273315
5,455833	0,1	0,275050
5,457500	0,1	0,298764
5,459167	0,1	0,256856
5,460833	0,1	0,286293
5,462500	0,1	0,244581
5,464167	0,1	0,234814
5,465833	0,1	0,258944
5,467500	0,1	0,231870
5,469167	0,1	0,241190
5,470833	0,1	0,238022
5,472500	0,1	0,246188
5,474167	0,1	0,248019
5,475833	0,1	0,228975
5,477500	0,1	0,242108
5,479167	0,1	0,214218
5,480833	0,1	0,276457
5,482500	0,1	0,243962
5,484167	0,1	0,240112
5,485833	0,1	0,257867
5,487500	0,1	0,231911
5,489167	0,1	0,233246
5,490833	0,1	0,247371
5,492500	0,1	0,240023
5,494167	0,1	0,241269
5,495833	0,1	0,230709
5,497500	0,1	0,207352
5,499167	0,1	0,274863
5,500833	0,1	0,235965
5,502500	0,1	0,247777
5,504167	0,1	0,250268
5,505833	0,1	0,211839
5,507500	0,1	0,232478
5,509167	0,1	0,218660
5,510833	0,1	0,202220
5,512500	0,1	0,215300
5,514167	0,1	0,206151
5,515833	0,1	0,222351
5,517500	0,1	0,192818
5,519167	0,1	0,247098
5,520833	0,1	0,239022
5,522500	0,1	0,219241
5,524167	0,1	0,206217
5,525833	0,1	0,217972
5,527500	0,1	0,190661
5,529167	0,1	0,216745
5,530833	0,1	0,253943
5,532500	0,1	0,191077
5,534167	0,1	0,236930
5,535833	0,1	0,223685
5,537500	0,1	0,254167
5,539167	0,1	0,189854
5,540833	0,1	0,185143
5,542500	0,1	0,204698
5,544167	0,1	0,227794
5,545833	0,1	0,196713
5,547500	0,1	0,194260
5,549167	0,1	0,224031
5,550833	0,1	0,209190
5,552500	0,1	0,181020
5,554167	0,1	0,223803
5,555833	0,1	0,193043
5,557500	0,1	0,206658
5,559167	0,1	0,218773
5,560833	0,1	0,233440
5,562500	0,1	0,218714
5,564167	0,1	0,215069
5,565833	0,1	0,183758
5,567500	0,1	0,184974
5,569167	0,1	0,212258
5,570833	0,1	0,219550
5,572500	0,1	0,194528
5,574167	0,1	0,202123
5,575833	0,1	0,214458
5,577500	0,1	0,189372
5,579167	0,1	0,191221
5,580833	0,1	0,193101
5,582500	0,1	0,205791
5,584167	0,1	0,179126
5,585833	0,1	0,198988
5,587500	0,1	0,184595
5,589167	0,1	0,189430
5,590833	0,1	0,219282
5,592500	0,1	0,182733
5,594167	0,1	0,196571
5,595833	0,1	0,167897
5,597500	0,1	0,173737
5,599167	0,1	0,181171
5,600833	0,1	0,211719
5,602500	0,1	0,162244
5,604167	0,1	0,185519
5,605833	0,1	0,207144
5,607500	0,1	0,204532
5,609167	0,1	0,184557
5,610833	0,1	0,150444
5,612500	0,1	0,213185
5,614167	0,1	0,214752
5,615833	0,1	0,202797
5,617500	0,1	0,169318
5,619167	0,1	0,219186
5,620833	0,1	0,197815
5,622500	0,1	0,199900
5,624167	0,1	0,177257
5,625833	0,1	0,175766
5,627500	0,1	0,201868
5,629167	0,1	0,173090
5,630833	0,1	0,166574
5,632500	0,1	0,190583
5,634167	0,1	0,206238
5,635833	0,1	0,234817
5,637500	0,1	0,231064
5,639167	0,1	0,203971
5,640833	0,1	0,209989
5,642500	0,1	0,162924
5,644167	0,1	0,171711
5,645833	0,1	0,191098
5,647500	0,1	0,211775
5,649167	0,1	0,234530
5,650833	0,1	0,205551
5,652500	0,1	0,215867
5,654167	0,1	0,200511
5,655833	0,1	0,217430
5,657500	0,1	0,214712
5,659167	0,1	0,204546
5,660833	0,1	0,200705
5,662500	0,1	0,186303
5,664167	0,1	0,192968
5,665833	0,1	0,205435
5,667500	0,1	0,236684
5,669167	0,1	0,156778
5,670833	0,1	0,188385
5,672500	0,1	0,198346
5,674167	0,1	0,184108
5,675833	0,1	0,185236
5,677500	0,1	0,237364
5,679167	0,1	0,190560
5,680833	0,1	0,177768
5,682500	0,1	0,206458
5,684167	0,1	0,210593
5,685833	0,1	0,211436
5,687500	0,1	0,212015
5,689167	0,1	0,194580
5,690833	0,1	0,163659
5,692500	0,1	0,203561
5,694167	0,1	0,244260
5,695833	0,1	0,187352
5,697500	0,1	0,186563
5,699167	0,1	0,218571
5,700833	0,1	0,193239
5,702500	0,1	0,219902
5,704167	0,1	0,211307
5,705833	0,1	0,225809
5,707500	0,1	0,201971
5,709167	0,1	0,222166
5,710833	0,1	0,210440
5,712500	0,1	0,191144
5,714167	0,1	0,212998
5,715833	0,1	0,202600
5,717500	0,1	0,207792
5,719167	0,1	0,225598
5,720833	0,1	0,243212
5,722500	0,1	0,202029
5,724167	0,1	0,211105
5,725833	0,1	0,204598
5,727500	0,1	0,192907
5,729167	0,1	0,207921
5,730833	0,1	0,213697
5,732500	0,1	0,191199
5,734167	0,1	0,211497
5,735833	0,1	0,221839
5,737500	0,1	0,211269
5,739167	0,1	0,241525
5,740833	0,1	0,222069
5,742500	0,1	0,229377
5,744167	0,1	0,233336
5,745833	0,1	0,234285
5,747500	0,1	0,233153
5,749167	0,1	0,264310
5,750833	0,1	0,160677
5,752500	0,1	0,261319
5,754167	0,1	0,191538
5,755833	0,1	0,234920
5,757500	0,1	0,210694
5,759167	0,1	0,215593
5,760833	0,1	0,185597
5,762500	0,1	0,220742
5,764167	0,1	0,187560
5,765833	0,1	0,232078
5,767500	0,1	0,247042
5,769167	0,1	0,233118
5,770833	0,1	0,202038
5,772500	0,1	0,236014
5,774167	0,1	0,240045
5,775833	0,1	0,190153
5,777500	0,1	0,223386
5,779167	0,1	0,200473
5,780833	0,1	0,212985
5,782500	0,1	0,206991
5,784167	0,1	0,232859
5,785833	0,1	0,203814
5,787500	0,1	0,213420
5,789167	0,1	0,185859
5,790833	0,1	0,200897
5,792500	0,1	0,219325
5,794167	0,1	0,220421
5,795833	0,1	0,212242
5,797500	0,1	0,237527
5,799167	0,1	0,218624
5,800833	0,1	0,213530
5,802500	0,1	0,236463
5,804167	0,1	0,210284
5,805833	0,1	0,210056
5,807500	0,1	0,243485
5,809167	0,1	0,231894
5,810833	0,1	0,217925
5,812500	0,1	0,237410
5,814167	0,1	0,216281
5,815833	0,1	0,200970
5,817500	0,1	0,211171
5,819167	0,1	0,219168
5,820833	0,1	0,219933
5,822500	0,1	0,192751
5,824167	0,1	0,249964
5,825833	0,1	0,228687
5,827500	0,1	0,248552
5,829167	0,1	0,209315
5,830833	0,1	0,202508
5,832500	0,1	0,208988
5,834167	0,1	0,231661
5,835833	0,1	0,234954
5,837500	0,1	0,206643
5,839167	0,1	0,258372
5,840833	0,1	0,230806
5,842500	0,1	0,198265
5,844167	0,1	0,212499
5,845833	0,1	0,241591
5,847500	0,1	0,202450
5,849167	0,1	0,223968
5,850833	0,1	0,196750
5,852500	0,1	0,230081
5,854167	0,1	0,242070
5,855833	0,1	0,202738
5,857500	0,1	0,220008
5,859167	0,1	0,191437
5,860833	0,1	0,210852
5,862500	0,1	0,199865
5,864167	0,1	0,215208
5,865833	0,1	0,189397
5,867500	0,1	0,202409
5,869167	0,1	0,232120
5,870833	0,1	0,206089
5,872500	0,1	0,181609
5,874167	0,1	0,173124
5,875833	0,1	0,194188
5,877500	0,1	0,222320
5,879167	0,1	0,171227
5,880833	0,1	0,193766
5,882500	0,1	0,200255
5,884167	0,1	0,160017
5,885833	0,1	0,168805
5,887500	0,1	0,188939
5,889167	0,1	0,149549
5,890833	0,1	0,152460
5,892500	0,1	0,244247
5,894167	0,1	0,206671
5,895833	0,1	0,198904
5,897500	0,1	0,224019
5,899167	0,1	0,158931
5,900833	0,1	0,161678
5,902500	0,1	0,198405
5,904167	0,1	0,174192
5,905833	0,1	0,202881
5,907500	0,1	0,190814
5,909167	0,1	0,219651
5,910833	0,1	0,233427
5,912500	0,1	0,215085
5,914167	0,1	0,197905
5,915833	0,1	0,175968
5,917500	0,1	0,205562
5,919167	0,1	0,173025
5,920833	0,1	0,186522
5,922500	0,1	0,186234
5,924167	0,1	0,179962
5,925833	0,1	0,197055
5,927500	0,1	0,184332
5,929167	0,1	0,156700
5,930833	0,1	0,155889
5,932500	0,1	0,143134
5,934167	0,1	0,160163
5,935833	0,1	0,190673
5,937500	0,1	0,178925
5,939167	0,1	0,139695
5,940833	0,1	0,169023
5,942500	0,1	0,189834
5,944167	0,1	0,159240
5,945833	0,1	0,192802
5,947500	0,1	0,170586
5,949167	0,1	0,183365
5,950833	0,1	0,146130
5,952500	0,1	0,149882
5,954167	0,1	0,178614
5,955833	0,1	0,144222
5,957500	0,1	0,144606
5,959167	0,1	0,157325
5,960833	0,1	0,156458
5,962500	0,1	0,167029
5,964167	0,1	0,154884
5,965833	0,1	0,166609
5,967500	0,1	0,168451
5,969167	0,1	0,174894
5,970833	0,1	0,157921
5,972500	0,1	0,170447
5,974167	0,1	0,198855
5,975833	0,1	0,161913
5,977500	0,1	0,187583
5,979167	0,1	0,182172
5,980833	0,1	0,156951
5,982500	0,1	0,222562
5,984167	0,1	0,190269
5,985833	0,1	0,136402
5,987500	0,1	0,112644
5,989167	0,1	0,145524
5,990833	0,1	0,140836
5,992500	0,1	0,145737
5,994167	0,1	0,150853
5,995833	0,1	0,149435
5,997500	0,1	0,157195
5,999167	0,1	0,140390
6,000833	0,1	0,174047
