File Path	chrom://chromeleon01/ikbm_chromeleon/2022/Rezex/Esteban/220612_chitin_4_7.seq/629.smp/UV_VIS_1.channel/UV_VIS_1.chm
Channel	UV_VIS_1

Injection Information:
Data Vault	ikbm_chromeleon
Injection	4_24h-NT_2
Injection Number	30
Position	RD2
Comment	
Processing Method	New ProcMethod
Instrument Method	Short_Rezex_6min_194nm
Type	Unknown
Status	Finished
Injection Date	12.06.2022
Injection Time	20:22:05
Injection Volume (µl)	8,000
Dilution Factor	1,0000
Weight	1,0000

Chromatogram Data Information:
Time Min. (min)	0,000833
Time Max. (min)	6,000833
Data Points	3601
Detector	UV
Generating Data System	Chromeleon 7.2.9.11323
Exporting Data System	Chromeleon 7.2.9.0
Operator	Instrument Controller
Signal Quantity	Absorbance
Signal Unit	mAU
Signal Min.	-0,117410
Signal Max.	121,749351
Channel	UV_VIS_1
Driver Name	VWD3000.dll
Channel Type	Evaluation
Min. Step (s)	0,1
Max. Step (s)	0,1
Average Step (s)	0,1

Signal Parameter Information:
Signal Info	WVL:194 nm

Chromatogram Data:
Time (min)	Step (s)	Value (mAU)
0,000833	n.a.	-0,034958
0,002500	0,1	-0,062435
0,004167	0,1	-0,066329
0,005833	0,1	-0,055490
0,007500	0,1	-0,059289
0,009167	0,1	-0,047470
0,010833	0,1	-0,033363
0,012500	0,1	-0,074630
0,014167	0,1	-0,076369
0,015833	0,1	-0,048596
0,017500	0,1	-0,046743
0,019167	0,1	-0,062048
0,020833	0,1	-0,048758
0,022500	0,1	-0,090342
0,024167	0,1	-0,057180
0,025833	0,1	-0,051625
0,027500	0,1	-0,048404
0,029167	0,1	-0,096569
0,030833	0,1	-0,083060
0,032500	0,1	-0,098278
0,034167	0,1	-0,095583
0,035833	0,1	-0,087522
0,037500	0,1	-0,099629
0,039167	0,1	-0,094748
0,040833	0,1	-0,117410
0,042500	0,1	-0,112177
0,044167	0,1	-0,089935
0,045833	0,1	-0,115416
0,047500	0,1	-0,083082
0,049167	0,1	-0,060893
0,050833	0,1	-0,096361
0,052500	0,1	-0,093960
0,054167	0,1	-0,077158
0,055833	0,1	-0,068618
0,057500	0,1	-0,041177
0,059167	0,1	-0,046635
0,060833	0,1	-0,109666
0,062500	0,1	-0,063207
0,064167	0,1	-0,081615
0,065833	0,1	-0,085941
0,067500	0,1	-0,078216
0,069167	0,1	-0,040288
0,070833	0,1	-0,046322
0,072500	0,1	-0,071352
0,074167	0,1	-0,025290
0,075833	0,1	-0,053814
0,077500	0,1	-0,083632
0,079167	0,1	-0,047785
0,080833	0,1	-0,039988
0,082500	0,1	-0,073344
0,084167	0,1	-0,011786
0,085833	0,1	-0,074439
0,087500	0,1	-0,078733
0,089167	0,1	-0,036923
0,090833	0,1	-0,028812
0,092500	0,1	-0,036058
0,094167	0,1	-0,056127
0,095833	0,1	-0,030290
0,097500	0,1	-0,026004
0,099167	0,1	-0,041067
0,100833	0,1	-0,035665
0,102500	0,1	-0,046530
0,104167	0,1	-0,041609
0,105833	0,1	-0,050685
0,107500	0,1	-0,034070
0,109167	0,1	-0,078431
0,110833	0,1	-0,043587
0,112500	0,1	-0,066678
0,114167	0,1	-0,032558
0,115833	0,1	-0,081237
0,117500	0,1	-0,047599
0,119167	0,1	-0,051702
0,120833	0,1	-0,039593
0,122500	0,1	-0,094652
0,124167	0,1	-0,031357
0,125833	0,1	-0,083626
0,127500	0,1	-0,051859
0,129167	0,1	-0,074716
0,130833	0,1	-0,079110
0,132500	0,1	-0,079482
0,134167	0,1	-0,047247
0,135833	0,1	-0,090482
0,137500	0,1	-0,086067
0,139167	0,1	-0,068372
0,140833	0,1	-0,026701
0,142500	0,1	-0,037366
0,144167	0,1	-0,050456
0,145833	0,1	-0,055610
0,147500	0,1	-0,040820
0,149167	0,1	-0,029643
0,150833	0,1	-0,043038
0,152500	0,1	-0,034112
0,154167	0,1	-0,047965
0,155833	0,1	-0,044082
0,157500	0,1	-0,038575
0,159167	0,1	-0,046717
0,160833	0,1	-0,020319
0,162500	0,1	-0,010943
0,164167	0,1	-0,050987
0,165833	0,1	-0,073805
0,167500	0,1	-0,077285
0,169167	0,1	-0,051337
0,170833	0,1	-0,006402
0,172500	0,1	-0,041142
0,174167	0,1	-0,059867
0,175833	0,1	-0,040989
0,177500	0,1	-0,031096
0,179167	0,1	-0,025218
0,180833	0,1	-0,054712
0,182500	0,1	-0,037458
0,184167	0,1	-0,085143
0,185833	0,1	-0,040623
0,187500	0,1	-0,022996
0,189167	0,1	-0,030181
0,190833	0,1	-0,050620
0,192500	0,1	-0,022189
0,194167	0,1	-0,013208
0,195833	0,1	-0,028141
0,197500	0,1	0,007605
0,199167	0,1	-0,025356
0,200833	0,1	-0,014932
0,202500	0,1	-0,031009
0,204167	0,1	-0,075546
0,205833	0,1	-0,027512
0,207500	0,1	-0,029081
0,209167	0,1	-0,055127
0,210833	0,1	-0,030313
0,212500	0,1	-0,032404
0,214167	0,1	-0,012420
0,215833	0,1	-0,043471
0,217500	0,1	-0,009514
0,219167	0,1	-0,084431
0,220833	0,1	-0,050467
0,222500	0,1	-0,061967
0,224167	0,1	-0,020966
0,225833	0,1	-0,010424
0,227500	0,1	-0,033230
0,229167	0,1	-0,015578
0,230833	0,1	-0,018025
0,232500	0,1	-0,045386
0,234167	0,1	-0,024472
0,235833	0,1	-0,046861
0,237500	0,1	-0,022455
0,239167	0,1	-0,009096
0,240833	0,1	-0,024152
0,242500	0,1	-0,000662
0,244167	0,1	-0,020349
0,245833	0,1	-0,004939
0,247500	0,1	-0,032023
0,249167	0,1	-0,040610
0,250833	0,1	-0,016143
0,252500	0,1	-0,011296
0,254167	0,1	-0,019085
0,255833	0,1	-0,031406
0,257500	0,1	-0,035601
0,259167	0,1	-0,008352
0,260833	0,1	-0,030884
0,262500	0,1	-0,032798
0,264167	0,1	-0,015640
0,265833	0,1	-0,057389
0,267500	0,1	-0,023644
0,269167	0,1	0,001042
0,270833	0,1	-0,036739
0,272500	0,1	-0,038884
0,274167	0,1	-0,009059
0,275833	0,1	-0,030072
0,277500	0,1	0,002973
0,279167	0,1	-0,012434
0,280833	0,1	-0,016364
0,282500	0,1	-0,026668
0,284167	0,1	0,005963
0,285833	0,1	0,020263
0,287500	0,1	-0,018079
0,289167	0,1	0,000773
0,290833	0,1	-0,039604
0,292500	0,1	-0,007043
0,294167	0,1	0,001025
0,295833	0,1	-0,033475
0,297500	0,1	-0,046113
0,299167	0,1	0,009284
0,300833	0,1	-0,050865
0,302500	0,1	-0,038515
0,304167	0,1	-0,002119
0,305833	0,1	0,001816
0,307500	0,1	-0,022529
0,309167	0,1	-0,020207
0,310833	0,1	-0,017612
0,312500	0,1	-0,024113
0,314167	0,1	0,000834
0,315833	0,1	0,000445
0,317500	0,1	0,033496
0,319167	0,1	0,008326
0,320833	0,1	-0,019995
0,322500	0,1	-0,031339
0,324167	0,1	-0,007894
0,325833	0,1	-0,006809
0,327500	0,1	-0,011646
0,329167	0,1	0,007547
0,330833	0,1	0,023277
0,332500	0,1	0,023385
0,334167	0,1	-0,003684
0,335833	0,1	0,026993
0,337500	0,1	0,003422
0,339167	0,1	-0,016297
0,340833	0,1	-0,045114
0,342500	0,1	0,011484
0,344167	0,1	0,007095
0,345833	0,1	0,020306
0,347500	0,1	0,008862
0,349167	0,1	-0,001382
0,350833	0,1	-0,063139
0,352500	0,1	-0,032309
0,354167	0,1	-0,024678
0,355833	0,1	0,025013
0,357500	0,1	0,000096
0,359167	0,1	-0,006474
0,360833	0,1	0,003414
0,362500	0,1	-0,006243
0,364167	0,1	-0,001716
0,365833	0,1	-0,015676
0,367500	0,1	0,005820
0,369167	0,1	0,014302
0,370833	0,1	0,023964
0,372500	0,1	0,013663
0,374167	0,1	-0,018977
0,375833	0,1	0,030644
0,377500	0,1	-0,034570
0,379167	0,1	0,018032
0,380833	0,1	0,030570
0,382500	0,1	0,031260
0,384167	0,1	0,025132
0,385833	0,1	0,023448
0,387500	0,1	0,045988
0,389167	0,1	0,063110
0,390833	0,1	0,026614
0,392500	0,1	-0,017996
0,394167	0,1	0,038769
0,395833	0,1	0,043810
0,397500	0,1	-0,000605
0,399167	0,1	0,065281
0,400833	0,1	0,040573
0,402500	0,1	0,008098
0,404167	0,1	0,015112
0,405833	0,1	0,029117
0,407500	0,1	0,027126
0,409167	0,1	0,037741
0,410833	0,1	0,009034
0,412500	0,1	0,042639
0,414167	0,1	0,049357
0,415833	0,1	0,040343
0,417500	0,1	0,029767
0,419167	0,1	-0,006756
0,420833	0,1	-0,008573
0,422500	0,1	0,066235
0,424167	0,1	0,045104
0,425833	0,1	0,039468
0,427500	0,1	0,046780
0,429167	0,1	0,033527
0,430833	0,1	0,016553
0,432500	0,1	0,008030
0,434167	0,1	0,027971
0,435833	0,1	0,051536
0,437500	0,1	0,045807
0,439167	0,1	0,037371
0,440833	0,1	0,041398
0,442500	0,1	0,006021
0,444167	0,1	0,021863
0,445833	0,1	0,038654
0,447500	0,1	0,037202
0,449167	0,1	0,043580
0,450833	0,1	0,011422
0,452500	0,1	0,008508
0,454167	0,1	0,094826
0,455833	0,1	0,035865
0,457500	0,1	0,046323
0,459167	0,1	0,067036
0,460833	0,1	0,040721
0,462500	0,1	0,052682
0,464167	0,1	0,020004
0,465833	0,1	0,020973
0,467500	0,1	0,049247
0,469167	0,1	0,023888
0,470833	0,1	0,042745
0,472500	0,1	0,050563
0,474167	0,1	0,046264
0,475833	0,1	0,079923
0,477500	0,1	0,024581
0,479167	0,1	0,050372
0,480833	0,1	0,057502
0,482500	0,1	0,080502
0,484167	0,1	0,062517
0,485833	0,1	0,022086
0,487500	0,1	0,080869
0,489167	0,1	0,060066
0,490833	0,1	0,076849
0,492500	0,1	0,037628
0,494167	0,1	0,068385
0,495833	0,1	0,022522
0,497500	0,1	0,043701
0,499167	0,1	0,039510
0,500833	0,1	0,065353
0,502500	0,1	0,054598
0,504167	0,1	0,076099
0,505833	0,1	0,062310
0,507500	0,1	0,091765
0,509167	0,1	0,054127
0,510833	0,1	0,068827
0,512500	0,1	0,045063
0,514167	0,1	0,080311
0,515833	0,1	0,089154
0,517500	0,1	0,079057
0,519167	0,1	0,069477
0,520833	0,1	0,086200
0,522500	0,1	0,059880
0,524167	0,1	0,075955
0,525833	0,1	0,083419
0,527500	0,1	0,046998
0,529167	0,1	0,054862
0,530833	0,1	0,033592
0,532500	0,1	0,094296
0,534167	0,1	0,104404
0,535833	0,1	0,053467
0,537500	0,1	0,070469
0,539167	0,1	0,092641
0,540833	0,1	0,066841
0,542500	0,1	0,052791
0,544167	0,1	0,121785
0,545833	0,1	0,025090
0,547500	0,1	0,081827
0,549167	0,1	0,066839
0,550833	0,1	0,078947
0,552500	0,1	0,110866
0,554167	0,1	0,091174
0,555833	0,1	0,107544
0,557500	0,1	0,115838
0,559167	0,1	0,083074
0,560833	0,1	0,077207
0,562500	0,1	0,092395
0,564167	0,1	0,099919
0,565833	0,1	0,108584
0,567500	0,1	0,081015
0,569167	0,1	0,116434
0,570833	0,1	0,114033
0,572500	0,1	0,114071
0,574167	0,1	0,077921
0,575833	0,1	0,104400
0,577500	0,1	0,099362
0,579167	0,1	0,107814
0,580833	0,1	0,122301
0,582500	0,1	0,125298
0,584167	0,1	0,116674
0,585833	0,1	0,104204
0,587500	0,1	0,123504
0,589167	0,1	0,124717
0,590833	0,1	0,111270
0,592500	0,1	0,095123
0,594167	0,1	0,122879
0,595833	0,1	0,108425
0,597500	0,1	0,158933
0,599167	0,1	0,113650
0,600833	0,1	0,109419
0,602500	0,1	0,147424
0,604167	0,1	0,104292
0,605833	0,1	0,113055
0,607500	0,1	0,117048
0,609167	0,1	0,124298
0,610833	0,1	0,127499
0,612500	0,1	0,142378
0,614167	0,1	0,105373
0,615833	0,1	0,135136
0,617500	0,1	0,117383
0,619167	0,1	0,148299
0,620833	0,1	0,139618
0,622500	0,1	0,139867
0,624167	0,1	0,146661
0,625833	0,1	0,175489
0,627500	0,1	0,156710
0,629167	0,1	0,155254
0,630833	0,1	0,212731
0,632500	0,1	0,114370
0,634167	0,1	0,146011
0,635833	0,1	0,162478
0,637500	0,1	0,147640
0,639167	0,1	0,144464
0,640833	0,1	0,162289
0,642500	0,1	0,132268
0,644167	0,1	0,147759
0,645833	0,1	0,159320
0,647500	0,1	0,197535
0,649167	0,1	0,169803
0,650833	0,1	0,175760
0,652500	0,1	0,137032
0,654167	0,1	0,187624
0,655833	0,1	0,189646
0,657500	0,1	0,229654
0,659167	0,1	0,185816
0,660833	0,1	0,204918
0,662500	0,1	0,197583
0,664167	0,1	0,196217
0,665833	0,1	0,231146
0,667500	0,1	0,210046
0,669167	0,1	0,233979
0,670833	0,1	0,209718
0,672500	0,1	0,209397
0,674167	0,1	0,203887
0,675833	0,1	0,206111
0,677500	0,1	0,204292
0,679167	0,1	0,225337
0,680833	0,1	0,199800
0,682500	0,1	0,214801
0,684167	0,1	0,247701
0,685833	0,1	0,227027
0,687500	0,1	0,212875
0,689167	0,1	0,221955
0,690833	0,1	0,232820
0,692500	0,1	0,274796
0,694167	0,1	0,250003
0,695833	0,1	0,226890
0,697500	0,1	0,246478
0,699167	0,1	0,262782
0,700833	0,1	0,269620
0,702500	0,1	0,236080
0,704167	0,1	0,243223
0,705833	0,1	0,258334
0,707500	0,1	0,274910
0,709167	0,1	0,282320
0,710833	0,1	0,231763
0,712500	0,1	0,300343
0,714167	0,1	0,261823
0,715833	0,1	0,281066
0,717500	0,1	0,318564
0,719167	0,1	0,299402
0,720833	0,1	0,301593
0,722500	0,1	0,296176
0,724167	0,1	0,263565
0,725833	0,1	0,301903
0,727500	0,1	0,332717
0,729167	0,1	0,299596
0,730833	0,1	0,315190
0,732500	0,1	0,306463
0,734167	0,1	0,320927
0,735833	0,1	0,296281
0,737500	0,1	0,335642
0,739167	0,1	0,329858
0,740833	0,1	0,359089
0,742500	0,1	0,338595
0,744167	0,1	0,351090
0,745833	0,1	0,330342
0,747500	0,1	0,349480
0,749167	0,1	0,311780
0,750833	0,1	0,336361
0,752500	0,1	0,338717
0,754167	0,1	0,326184
0,755833	0,1	0,362080
0,757500	0,1	0,359735
0,759167	0,1	0,351323
0,760833	0,1	0,358827
0,762500	0,1	0,371302
0,764167	0,1	0,368535
0,765833	0,1	0,323775
0,767500	0,1	0,373905
0,769167	0,1	0,353260
0,770833	0,1	0,356350
0,772500	0,1	0,338170
0,774167	0,1	0,379070
0,775833	0,1	0,335924
0,777500	0,1	0,364335
0,779167	0,1	0,366983
0,780833	0,1	0,325318
0,782500	0,1	0,361724
0,784167	0,1	0,348135
0,785833	0,1	0,333500
0,787500	0,1	0,329559
0,789167	0,1	0,353313
0,790833	0,1	0,331632
0,792500	0,1	0,333361
0,794167	0,1	0,348739
0,795833	0,1	0,316291
0,797500	0,1	0,362524
0,799167	0,1	0,366755
0,800833	0,1	0,340822
0,802500	0,1	0,354058
0,804167	0,1	0,359508
0,805833	0,1	0,344912
0,807500	0,1	0,392665
0,809167	0,1	0,392196
0,810833	0,1	0,341499
0,812500	0,1	0,348479
0,814167	0,1	0,352126
0,815833	0,1	0,360186
0,817500	0,1	0,335691
0,819167	0,1	0,396822
0,820833	0,1	0,352718
0,822500	0,1	0,366464
0,824167	0,1	0,378266
0,825833	0,1	0,339888
0,827500	0,1	0,371325
0,829167	0,1	0,369597
0,830833	0,1	0,330021
0,832500	0,1	0,382477
0,834167	0,1	0,370377
0,835833	0,1	0,359412
0,837500	0,1	0,410780
0,839167	0,1	0,404091
0,840833	0,1	0,398736
0,842500	0,1	0,364447
0,844167	0,1	0,403883
0,845833	0,1	0,366063
0,847500	0,1	0,373074
0,849167	0,1	0,413622
0,850833	0,1	0,365612
0,852500	0,1	0,422512
0,854167	0,1	0,390942
0,855833	0,1	0,408470
0,857500	0,1	0,399382
0,859167	0,1	0,430708
0,860833	0,1	0,374861
0,862500	0,1	0,420517
0,864167	0,1	0,381402
0,865833	0,1	0,392449
0,867500	0,1	0,402829
0,869167	0,1	0,388971
0,870833	0,1	0,427258
0,872500	0,1	0,429101
0,874167	0,1	0,439547
0,875833	0,1	0,381859
0,877500	0,1	0,447592
0,879167	0,1	0,390979
0,880833	0,1	0,435413
0,882500	0,1	0,386625
0,884167	0,1	0,430544
0,885833	0,1	0,430844
0,887500	0,1	0,428201
0,889167	0,1	0,441093
0,890833	0,1	0,410639
0,892500	0,1	0,446665
0,894167	0,1	0,419405
0,895833	0,1	0,453724
0,897500	0,1	0,434845
0,899167	0,1	0,441642
0,900833	0,1	0,451765
0,902500	0,1	0,426208
0,904167	0,1	0,454340
0,905833	0,1	0,446256
0,907500	0,1	0,500470
0,909167	0,1	0,460481
0,910833	0,1	0,469884
0,912500	0,1	0,447003
0,914167	0,1	0,460241
0,915833	0,1	0,456828
0,917500	0,1	0,489417
0,919167	0,1	0,505251
0,920833	0,1	0,473506
0,922500	0,1	0,482781
0,924167	0,1	0,499287
0,925833	0,1	0,489523
0,927500	0,1	0,470309
0,929167	0,1	0,478912
0,930833	0,1	0,501994
0,932500	0,1	0,506995
0,934167	0,1	0,495262
0,935833	0,1	0,477243
0,937500	0,1	0,472562
0,939167	0,1	0,507215
0,940833	0,1	0,497552
0,942500	0,1	0,454903
0,944167	0,1	0,494025
0,945833	0,1	0,520888
0,947500	0,1	0,535208
0,949167	0,1	0,547978
0,950833	0,1	0,486989
0,952500	0,1	0,542967
0,954167	0,1	0,552364
0,955833	0,1	0,537116
0,957500	0,1	0,550587
0,959167	0,1	0,525962
0,960833	0,1	0,537788
0,962500	0,1	0,539822
0,964167	0,1	0,559099
0,965833	0,1	0,589701
0,967500	0,1	0,561496
0,969167	0,1	0,561009
0,970833	0,1	0,592087
0,972500	0,1	0,604606
0,974167	0,1	0,581427
0,975833	0,1	0,554051
0,977500	0,1	0,625581
0,979167	0,1	0,572307
0,980833	0,1	0,590994
0,982500	0,1	0,607989
0,984167	0,1	0,578849
0,985833	0,1	0,594703
0,987500	0,1	0,644524
0,989167	0,1	0,605653
0,990833	0,1	0,615507
0,992500	0,1	0,631470
0,994167	0,1	0,621480
0,995833	0,1	0,665913
0,997500	0,1	0,623845
0,999167	0,1	0,667457
1,000833	0,1	0,638062
1,002500	0,1	0,687231
1,004167	0,1	0,715398
1,005833	0,1	0,698476
1,007500	0,1	0,702922
1,009167	0,1	0,702052
1,010833	0,1	0,700117
1,012500	0,1	0,678897
1,014167	0,1	0,751285
1,015833	0,1	0,780397
1,017500	0,1	0,780113
1,019167	0,1	0,777741
1,020833	0,1	0,792448
1,022500	0,1	0,787897
1,024167	0,1	0,836665
1,025833	0,1	0,840746
1,027500	0,1	0,843196
1,029167	0,1	0,867466
1,030833	0,1	0,860623
1,032500	0,1	0,867891
1,034167	0,1	0,882512
1,035833	0,1	0,849514
1,037500	0,1	0,888206
1,039167	0,1	0,928158
1,040833	0,1	0,944235
1,042500	0,1	0,959839
1,044167	0,1	0,980897
1,045833	0,1	0,982862
1,047500	0,1	0,945938
1,049167	0,1	0,991132
1,050833	0,1	1,054420
1,052500	0,1	1,058910
1,054167	0,1	1,088138
1,055833	0,1	1,116909
1,057500	0,1	1,216554
1,059167	0,1	1,282180
1,060833	0,1	1,389185
1,062500	0,1	1,510624
1,064167	0,1	1,650622
1,065833	0,1	1,886996
1,067500	0,1	2,154257
1,069167	0,1	2,518824
1,070833	0,1	2,880569
1,072500	0,1	3,419511
1,074167	0,1	4,012169
1,075833	0,1	4,771045
1,077500	0,1	5,586675
1,079167	0,1	6,583396
1,080833	0,1	7,683685
1,082500	0,1	8,851307
1,084167	0,1	10,266208
1,085833	0,1	11,689934
1,087500	0,1	13,272526
1,089167	0,1	14,936217
1,090833	0,1	16,690937
1,092500	0,1	18,399343
1,094167	0,1	20,249458
1,095833	0,1	22,026468
1,097500	0,1	23,783837
1,099167	0,1	25,436961
1,100833	0,1	27,051358
1,102500	0,1	28,565284
1,104167	0,1	29,990988
1,105833	0,1	31,142852
1,107500	0,1	32,256033
1,109167	0,1	33,206267
1,110833	0,1	34,003017
1,112500	0,1	34,531795
1,114167	0,1	34,985199
1,115833	0,1	35,280474
1,117500	0,1	35,485233
1,119167	0,1	35,470904
1,120833	0,1	35,351172
1,122500	0,1	35,151897
1,124167	0,1	34,828396
1,125833	0,1	34,412806
1,127500	0,1	33,945586
1,129167	0,1	33,397141
1,130833	0,1	32,843284
1,132500	0,1	32,149998
1,134167	0,1	31,526274
1,135833	0,1	30,879862
1,137500	0,1	30,287581
1,139167	0,1	29,626221
1,140833	0,1	29,076194
1,142500	0,1	28,414831
1,144167	0,1	27,969652
1,145833	0,1	27,520498
1,147500	0,1	27,084512
1,149167	0,1	26,673654
1,150833	0,1	26,348362
1,152500	0,1	26,159087
1,154167	0,1	25,877691
1,155833	0,1	25,731416
1,157500	0,1	25,660111
1,159167	0,1	25,623095
1,160833	0,1	25,617552
1,162500	0,1	25,680361
1,164167	0,1	25,722090
1,165833	0,1	25,822553
1,167500	0,1	25,907442
1,169167	0,1	26,081360
1,170833	0,1	26,171995
1,172500	0,1	26,315236
1,174167	0,1	26,497184
1,175833	0,1	26,638366
1,177500	0,1	26,775859
1,179167	0,1	26,874642
1,180833	0,1	26,984919
1,182500	0,1	27,093540
1,184167	0,1	27,159056
1,185833	0,1	27,296450
1,187500	0,1	27,428101
1,189167	0,1	27,602278
1,190833	0,1	27,765601
1,192500	0,1	28,011641
1,194167	0,1	28,352153
1,195833	0,1	28,800316
1,197500	0,1	29,260365
1,199167	0,1	29,930260
1,200833	0,1	30,715197
1,202500	0,1	31,683110
1,204167	0,1	32,837608
1,205833	0,1	34,225839
1,207500	0,1	35,893050
1,209167	0,1	37,755873
1,210833	0,1	39,920996
1,212500	0,1	42,289959
1,214167	0,1	44,946725
1,215833	0,1	47,893134
1,217500	0,1	51,092845
1,219167	0,1	54,455395
1,220833	0,1	58,042241
1,222500	0,1	61,804961
1,224167	0,1	65,737467
1,225833	0,1	69,742783
1,227500	0,1	73,866465
1,229167	0,1	77,904224
1,230833	0,1	82,026299
1,232500	0,1	86,030987
1,234167	0,1	90,012374
1,235833	0,1	93,782887
1,237500	0,1	97,478408
1,239167	0,1	100,914382
1,240833	0,1	104,151252
1,242500	0,1	107,157209
1,244167	0,1	109,839295
1,245833	0,1	112,347707
1,247500	0,1	114,519565
1,249167	0,1	116,495153
1,250833	0,1	118,073230
1,252500	0,1	119,364352
1,254167	0,1	120,407697
1,255833	0,1	121,162387
1,257500	0,1	121,610126
1,259167	0,1	121,749351
1,260833	0,1	121,619725
1,262500	0,1	121,312164
1,264167	0,1	120,665456
1,265833	0,1	119,708506
1,267500	0,1	118,605851
1,269167	0,1	117,273985
1,270833	0,1	115,823415
1,272500	0,1	114,091897
1,274167	0,1	112,212190
1,275833	0,1	110,188838
1,277500	0,1	108,037959
1,279167	0,1	105,715455
1,280833	0,1	103,418267
1,282500	0,1	100,884306
1,284167	0,1	98,468871
1,285833	0,1	95,888785
1,287500	0,1	93,317811
1,289167	0,1	90,740733
1,290833	0,1	88,179558
1,292500	0,1	85,559074
1,294167	0,1	83,053120
1,295833	0,1	80,496141
1,297500	0,1	78,075289
1,299167	0,1	75,708393
1,300833	0,1	73,313592
1,302500	0,1	71,112558
1,304167	0,1	68,871928
1,305833	0,1	66,741622
1,307500	0,1	64,739420
1,309167	0,1	62,739752
1,310833	0,1	60,871325
1,312500	0,1	59,068996
1,314167	0,1	57,347460
1,315833	0,1	55,670955
1,317500	0,1	54,097169
1,319167	0,1	52,604433
1,320833	0,1	51,212578
1,322500	0,1	49,811652
1,324167	0,1	48,518816
1,325833	0,1	47,248534
1,327500	0,1	46,042997
1,329167	0,1	44,942486
1,330833	0,1	43,823149
1,332500	0,1	42,765433
1,334167	0,1	41,758506
1,335833	0,1	40,810550
1,337500	0,1	39,850455
1,339167	0,1	39,007206
1,340833	0,1	38,098402
1,342500	0,1	37,270102
1,344167	0,1	36,516274
1,345833	0,1	35,689450
1,347500	0,1	34,972543
1,349167	0,1	34,187682
1,350833	0,1	33,485802
1,352500	0,1	32,800139
1,354167	0,1	32,103285
1,355833	0,1	31,418706
1,357500	0,1	30,800371
1,359167	0,1	30,124916
1,360833	0,1	29,544732
1,362500	0,1	28,974727
1,364167	0,1	28,325822
1,365833	0,1	27,749418
1,367500	0,1	27,193680
1,369167	0,1	26,656824
1,370833	0,1	26,108348
1,372500	0,1	25,568848
1,374167	0,1	25,032858
1,375833	0,1	24,580018
1,377500	0,1	24,077646
1,379167	0,1	23,572928
1,380833	0,1	23,129595
1,382500	0,1	22,653544
1,384167	0,1	22,185698
1,385833	0,1	21,756508
1,387500	0,1	21,387357
1,389167	0,1	20,949419
1,390833	0,1	20,596955
1,392500	0,1	20,140283
1,394167	0,1	19,775034
1,395833	0,1	19,439249
1,397500	0,1	19,058763
1,399167	0,1	18,723010
1,400833	0,1	18,437399
1,402500	0,1	18,123000
1,404167	0,1	17,814717
1,405833	0,1	17,495701
1,407500	0,1	17,245697
1,409167	0,1	17,015068
1,410833	0,1	16,719247
1,412500	0,1	16,503612
1,414167	0,1	16,223795
1,415833	0,1	15,962311
1,417500	0,1	15,731421
1,419167	0,1	15,539642
1,420833	0,1	15,287499
1,422500	0,1	15,092333
1,424167	0,1	14,903245
1,425833	0,1	14,724201
1,427500	0,1	14,492800
1,429167	0,1	14,315309
1,430833	0,1	14,151094
1,432500	0,1	13,974609
1,434167	0,1	13,805415
1,435833	0,1	13,600781
1,437500	0,1	13,477112
1,439167	0,1	13,294378
1,440833	0,1	13,116425
1,442500	0,1	12,948859
1,444167	0,1	12,802186
1,445833	0,1	12,623724
1,447500	0,1	12,481833
1,449167	0,1	12,328581
1,450833	0,1	12,176818
1,452500	0,1	12,021760
1,454167	0,1	11,864575
1,455833	0,1	11,728072
1,457500	0,1	11,596878
1,459167	0,1	11,470086
1,460833	0,1	11,305924
1,462500	0,1	11,221275
1,464167	0,1	11,113608
1,465833	0,1	10,910323
1,467500	0,1	10,800893
1,469167	0,1	10,716759
1,470833	0,1	10,634623
1,472500	0,1	10,504015
1,474167	0,1	10,346889
1,475833	0,1	10,282175
1,477500	0,1	10,175786
1,479167	0,1	10,097059
1,480833	0,1	9,953720
1,482500	0,1	9,910209
1,484167	0,1	9,806581
1,485833	0,1	9,722980
1,487500	0,1	9,655007
1,489167	0,1	9,598948
1,490833	0,1	9,513493
1,492500	0,1	9,445593
1,494167	0,1	9,411104
1,495833	0,1	9,384047
1,497500	0,1	9,278080
1,499167	0,1	9,225392
1,500833	0,1	9,199627
1,502500	0,1	9,126721
1,504167	0,1	9,075197
1,505833	0,1	9,055571
1,507500	0,1	9,002997
1,509167	0,1	8,982985
1,510833	0,1	8,970808
1,512500	0,1	8,956827
1,514167	0,1	8,915629
1,515833	0,1	8,853851
1,517500	0,1	8,833084
1,519167	0,1	8,806941
1,520833	0,1	8,775622
1,522500	0,1	8,742030
1,524167	0,1	8,682206
1,525833	0,1	8,669686
1,527500	0,1	8,679964
1,529167	0,1	8,643055
1,530833	0,1	8,598353
1,532500	0,1	8,550168
1,534167	0,1	8,509037
1,535833	0,1	8,505542
1,537500	0,1	8,498573
1,539167	0,1	8,475109
1,540833	0,1	8,379311
1,542500	0,1	8,373737
1,544167	0,1	8,354199
1,545833	0,1	8,342198
1,547500	0,1	8,307984
1,549167	0,1	8,260041
1,550833	0,1	8,227971
1,552500	0,1	8,188906
1,554167	0,1	8,183429
1,555833	0,1	8,138369
1,557500	0,1	8,118837
1,559167	0,1	8,055949
1,560833	0,1	8,033893
1,562500	0,1	7,975541
1,564167	0,1	7,980984
1,565833	0,1	7,942637
1,567500	0,1	7,901226
1,569167	0,1	7,872921
1,570833	0,1	7,828982
1,572500	0,1	7,835250
1,574167	0,1	7,765851
1,575833	0,1	7,727521
1,577500	0,1	7,707760
1,579167	0,1	7,715396
1,580833	0,1	7,614686
1,582500	0,1	7,656028
1,584167	0,1	7,643585
1,585833	0,1	7,540613
1,587500	0,1	7,564911
1,589167	0,1	7,519250
1,590833	0,1	7,489005
1,592500	0,1	7,486739
1,594167	0,1	7,446504
1,595833	0,1	7,431619
1,597500	0,1	7,373319
1,599167	0,1	7,323709
1,600833	0,1	7,294232
1,602500	0,1	7,291520
1,604167	0,1	7,258206
1,605833	0,1	7,223403
1,607500	0,1	7,205251
1,609167	0,1	7,181306
1,610833	0,1	7,133975
1,612500	0,1	7,123213
1,614167	0,1	7,113109
1,615833	0,1	7,042137
1,617500	0,1	7,069513
1,619167	0,1	7,042969
1,620833	0,1	6,994626
1,622500	0,1	6,944787
1,624167	0,1	6,989368
1,625833	0,1	6,905438
1,627500	0,1	6,915139
1,629167	0,1	6,872708
1,630833	0,1	6,856057
1,632500	0,1	6,854935
1,634167	0,1	6,830726
1,635833	0,1	6,800356
1,637500	0,1	6,783526
1,639167	0,1	6,699622
1,640833	0,1	6,710065
1,642500	0,1	6,728751
1,644167	0,1	6,699888
1,645833	0,1	6,680724
1,647500	0,1	6,634659
1,649167	0,1	6,637934
1,650833	0,1	6,630079
1,652500	0,1	6,621301
1,654167	0,1	6,599612
1,655833	0,1	6,580390
1,657500	0,1	6,551150
1,659167	0,1	6,546658
1,660833	0,1	6,553194
1,662500	0,1	6,557131
1,664167	0,1	6,502208
1,665833	0,1	6,488825
1,667500	0,1	6,500505
1,669167	0,1	6,479682
1,670833	0,1	6,508170
1,672500	0,1	6,520583
1,674167	0,1	6,462608
1,675833	0,1	6,529745
1,677500	0,1	6,486119
1,679167	0,1	6,524037
1,680833	0,1	6,530954
1,682500	0,1	6,589428
1,684167	0,1	6,552263
1,685833	0,1	6,608492
1,687500	0,1	6,617560
1,689167	0,1	6,659232
1,690833	0,1	6,665689
1,692500	0,1	6,669964
1,694167	0,1	6,722107
1,695833	0,1	6,739780
1,697500	0,1	6,773696
1,699167	0,1	6,825946
1,700833	0,1	6,884370
1,702500	0,1	6,903820
1,704167	0,1	6,944019
1,705833	0,1	7,000679
1,707500	0,1	7,024907
1,709167	0,1	7,049874
1,710833	0,1	7,102155
1,712500	0,1	7,122923
1,714167	0,1	7,221588
1,715833	0,1	7,254736
1,717500	0,1	7,291042
1,719167	0,1	7,313500
1,720833	0,1	7,370849
1,722500	0,1	7,369462
1,724167	0,1	7,438998
1,725833	0,1	7,449679
1,727500	0,1	7,502564
1,729167	0,1	7,531022
1,730833	0,1	7,521952
1,732500	0,1	7,536835
1,734167	0,1	7,619107
1,735833	0,1	7,614925
1,737500	0,1	7,623829
1,739167	0,1	7,598551
1,740833	0,1	7,631689
1,742500	0,1	7,654153
1,744167	0,1	7,639190
1,745833	0,1	7,606911
1,747500	0,1	7,630659
1,749167	0,1	7,586198
1,750833	0,1	7,578605
1,752500	0,1	7,603879
1,754167	0,1	7,533962
1,755833	0,1	7,555376
1,757500	0,1	7,521005
1,759167	0,1	7,442037
1,760833	0,1	7,432838
1,762500	0,1	7,384549
1,764167	0,1	7,418031
1,765833	0,1	7,355727
1,767500	0,1	7,294426
1,769167	0,1	7,247635
1,770833	0,1	7,211244
1,772500	0,1	7,168306
1,774167	0,1	7,084601
1,775833	0,1	7,092429
1,777500	0,1	6,985103
1,779167	0,1	6,968624
1,780833	0,1	6,886547
1,782500	0,1	6,813823
1,784167	0,1	6,797458
1,785833	0,1	6,748763
1,787500	0,1	6,658591
1,789167	0,1	6,645504
1,790833	0,1	6,566110
1,792500	0,1	6,521826
1,794167	0,1	6,449429
1,795833	0,1	6,351201
1,797500	0,1	6,309540
1,799167	0,1	6,296775
1,800833	0,1	6,198195
1,802500	0,1	6,119139
1,804167	0,1	6,069029
1,805833	0,1	6,030876
1,807500	0,1	5,957162
1,809167	0,1	5,910159
1,810833	0,1	5,841628
1,812500	0,1	5,775256
1,814167	0,1	5,728419
1,815833	0,1	5,696223
1,817500	0,1	5,642630
1,819167	0,1	5,545511
1,820833	0,1	5,536638
1,822500	0,1	5,453334
1,824167	0,1	5,392634
1,825833	0,1	5,390271
1,827500	0,1	5,279259
1,829167	0,1	5,316380
1,830833	0,1	5,184615
1,832500	0,1	5,176283
1,834167	0,1	5,130468
1,835833	0,1	5,066177
1,837500	0,1	5,076106
1,839167	0,1	5,032487
1,840833	0,1	5,027660
1,842500	0,1	5,011119
1,844167	0,1	4,964496
1,845833	0,1	4,998642
1,847500	0,1	5,014453
1,849167	0,1	4,979816
1,850833	0,1	5,005896
1,852500	0,1	5,007487
1,854167	0,1	5,075695
1,855833	0,1	5,101546
1,857500	0,1	5,143254
1,859167	0,1	5,184147
1,860833	0,1	5,203568
1,862500	0,1	5,268245
1,864167	0,1	5,375725
1,865833	0,1	5,365099
1,867500	0,1	5,440470
1,869167	0,1	5,497418
1,870833	0,1	5,586959
1,872500	0,1	5,641689
1,874167	0,1	5,660950
1,875833	0,1	5,702448
1,877500	0,1	5,783635
1,879167	0,1	5,799513
1,880833	0,1	5,854992
1,882500	0,1	5,939524
1,884167	0,1	6,018809
1,885833	0,1	5,963954
1,887500	0,1	6,049593
1,889167	0,1	6,114289
1,890833	0,1	6,135178
1,892500	0,1	6,182749
1,894167	0,1	6,211795
1,895833	0,1	6,211149
1,897500	0,1	6,281613
1,899167	0,1	6,280856
1,900833	0,1	6,346587
1,902500	0,1	6,442314
1,904167	0,1	6,399847
1,905833	0,1	6,374514
1,907500	0,1	6,426528
1,909167	0,1	6,476584
1,910833	0,1	6,536931
1,912500	0,1	6,532749
1,914167	0,1	6,576077
1,915833	0,1	6,530025
1,917500	0,1	6,499010
1,919167	0,1	6,548136
1,920833	0,1	6,545533
1,922500	0,1	6,527494
1,924167	0,1	6,566827
1,925833	0,1	6,578134
1,927500	0,1	6,559452
1,929167	0,1	6,510601
1,930833	0,1	6,507715
1,932500	0,1	6,504437
1,934167	0,1	6,507242
1,935833	0,1	6,491829
1,937500	0,1	6,434282
1,939167	0,1	6,430844
1,940833	0,1	6,392366
1,942500	0,1	6,351289
1,944167	0,1	6,359673
1,945833	0,1	6,336815
1,947500	0,1	6,263058
1,949167	0,1	6,219733
1,950833	0,1	6,224779
1,952500	0,1	6,194541
1,954167	0,1	6,168676
1,955833	0,1	6,141442
1,957500	0,1	6,078802
1,959167	0,1	6,102900
1,960833	0,1	6,038898
1,962500	0,1	5,997273
1,964167	0,1	5,931161
1,965833	0,1	5,904228
1,967500	0,1	5,849497
1,969167	0,1	5,861742
1,970833	0,1	5,833503
1,972500	0,1	5,816209
1,974167	0,1	5,758180
1,975833	0,1	5,732418
1,977500	0,1	5,686525
1,979167	0,1	5,656044
1,980833	0,1	5,631374
1,982500	0,1	5,649528
1,984167	0,1	5,585255
1,985833	0,1	5,568301
1,987500	0,1	5,499556
1,989167	0,1	5,514105
1,990833	0,1	5,435268
1,992500	0,1	5,418209
1,994167	0,1	5,396231
1,995833	0,1	5,424414
1,997500	0,1	5,372110
1,999167	0,1	5,344913
2,000833	0,1	5,334536
2,002500	0,1	5,352728
2,004167	0,1	5,325756
2,005833	0,1	5,292210
2,007500	0,1	5,293369
2,009167	0,1	5,219579
2,010833	0,1	5,224460
2,012500	0,1	5,209358
2,014167	0,1	5,168810
2,015833	0,1	5,232860
2,017500	0,1	5,202561
2,019167	0,1	5,176993
2,020833	0,1	5,174070
2,022500	0,1	5,155145
2,024167	0,1	5,149757
2,025833	0,1	5,179134
2,027500	0,1	5,163729
2,029167	0,1	5,178176
2,030833	0,1	5,168034
2,032500	0,1	5,169335
2,034167	0,1	5,163385
2,035833	0,1	5,166616
2,037500	0,1	5,154887
2,039167	0,1	5,163382
2,040833	0,1	5,157664
2,042500	0,1	5,162506
2,044167	0,1	5,148936
2,045833	0,1	5,168764
2,047500	0,1	5,176845
2,049167	0,1	5,223232
2,050833	0,1	5,188392
2,052500	0,1	5,220766
2,054167	0,1	5,212050
2,055833	0,1	5,210573
2,057500	0,1	5,194393
2,059167	0,1	5,252171
2,060833	0,1	5,250762
2,062500	0,1	5,259972
2,064167	0,1	5,277350
2,065833	0,1	5,304524
2,067500	0,1	5,274949
2,069167	0,1	5,285320
2,070833	0,1	5,301252
2,072500	0,1	5,293004
2,074167	0,1	5,330245
2,075833	0,1	5,301227
2,077500	0,1	5,346286
2,079167	0,1	5,334858
2,080833	0,1	5,302568
2,082500	0,1	5,344699
2,084167	0,1	5,370074
2,085833	0,1	5,381029
2,087500	0,1	5,345174
2,089167	0,1	5,414038
2,090833	0,1	5,376782
2,092500	0,1	5,408501
2,094167	0,1	5,417990
2,095833	0,1	5,414159
2,097500	0,1	5,416860
2,099167	0,1	5,435918
2,100833	0,1	5,382803
2,102500	0,1	5,416388
2,104167	0,1	5,437420
2,105833	0,1	5,373269
2,107500	0,1	5,418429
2,109167	0,1	5,416162
2,110833	0,1	5,429916
2,112500	0,1	5,428900
2,114167	0,1	5,437509
2,115833	0,1	5,446616
2,117500	0,1	5,440184
2,119167	0,1	5,397518
2,120833	0,1	5,420571
2,122500	0,1	5,411660
2,124167	0,1	5,380275
2,125833	0,1	5,399828
2,127500	0,1	5,423738
2,129167	0,1	5,406492
2,130833	0,1	5,421941
2,132500	0,1	5,394755
2,134167	0,1	5,378488
2,135833	0,1	5,371731
2,137500	0,1	5,333583
2,139167	0,1	5,364942
2,140833	0,1	5,354076
2,142500	0,1	5,340578
2,144167	0,1	5,337229
2,145833	0,1	5,337142
2,147500	0,1	5,328435
2,149167	0,1	5,347657
2,150833	0,1	5,308746
2,152500	0,1	5,294111
2,154167	0,1	5,295068
2,155833	0,1	5,296321
2,157500	0,1	5,266621
2,159167	0,1	5,256690
2,160833	0,1	5,273720
2,162500	0,1	5,214840
2,164167	0,1	5,235025
2,165833	0,1	5,254102
2,167500	0,1	5,213276
2,169167	0,1	5,237690
2,170833	0,1	5,256006
2,172500	0,1	5,207186
2,174167	0,1	5,258178
2,175833	0,1	5,173639
2,177500	0,1	5,145200
2,179167	0,1	5,144993
2,180833	0,1	5,166413
2,182500	0,1	5,183390
2,184167	0,1	5,163133
2,185833	0,1	5,116298
2,187500	0,1	5,112520
2,189167	0,1	5,109573
2,190833	0,1	5,122460
2,192500	0,1	5,096741
2,194167	0,1	5,135263
2,195833	0,1	5,073884
2,197500	0,1	5,081999
2,199167	0,1	5,067838
2,200833	0,1	5,042341
2,202500	0,1	5,031286
2,204167	0,1	5,028793
2,205833	0,1	5,011460
2,207500	0,1	5,022333
2,209167	0,1	5,058929
2,210833	0,1	5,033360
2,212500	0,1	5,091905
2,214167	0,1	5,022660
2,215833	0,1	5,033495
2,217500	0,1	5,009648
2,219167	0,1	5,027374
2,220833	0,1	5,044231
2,222500	0,1	5,017522
2,224167	0,1	5,009757
2,225833	0,1	5,012358
2,227500	0,1	5,060797
2,229167	0,1	5,049506
2,230833	0,1	5,036758
2,232500	0,1	5,064487
2,234167	0,1	5,044553
2,235833	0,1	5,044883
2,237500	0,1	5,069189
2,239167	0,1	5,089223
2,240833	0,1	5,104128
2,242500	0,1	5,077136
2,244167	0,1	5,069424
2,245833	0,1	5,089280
2,247500	0,1	5,093872
2,249167	0,1	5,073167
2,250833	0,1	5,096957
2,252500	0,1	5,081268
2,254167	0,1	5,083674
2,255833	0,1	5,124382
2,257500	0,1	5,100169
2,259167	0,1	5,082657
2,260833	0,1	5,120839
2,262500	0,1	5,104163
2,264167	0,1	5,101638
2,265833	0,1	5,080308
2,267500	0,1	5,064722
2,269167	0,1	5,082818
2,270833	0,1	5,089283
2,272500	0,1	5,070333
2,274167	0,1	5,084095
2,275833	0,1	5,069228
2,277500	0,1	5,008720
2,279167	0,1	5,019526
2,280833	0,1	5,052047
2,282500	0,1	5,039931
2,284167	0,1	4,977900
2,285833	0,1	4,981455
2,287500	0,1	4,976305
2,289167	0,1	4,939117
2,290833	0,1	4,952018
2,292500	0,1	4,970605
2,294167	0,1	4,904649
2,295833	0,1	4,902942
2,297500	0,1	4,894758
2,299167	0,1	4,879526
2,300833	0,1	4,872926
2,302500	0,1	4,875781
2,304167	0,1	4,818415
2,305833	0,1	4,792474
2,307500	0,1	4,818608
2,309167	0,1	4,781955
2,310833	0,1	4,772630
2,312500	0,1	4,705974
2,314167	0,1	4,725707
2,315833	0,1	4,695664
2,317500	0,1	4,715607
2,319167	0,1	4,651019
2,320833	0,1	4,653641
2,322500	0,1	4,609196
2,324167	0,1	4,542200
2,325833	0,1	4,584996
2,327500	0,1	4,568617
2,329167	0,1	4,529617
2,330833	0,1	4,503901
2,332500	0,1	4,458844
2,334167	0,1	4,473834
2,335833	0,1	4,429680
2,337500	0,1	4,427916
2,339167	0,1	4,464504
2,340833	0,1	4,372310
2,342500	0,1	4,385869
2,344167	0,1	4,370830
2,345833	0,1	4,367772
2,347500	0,1	4,315215
2,349167	0,1	4,340892
2,350833	0,1	4,346341
2,352500	0,1	4,283543
2,354167	0,1	4,293201
2,355833	0,1	4,223908
2,357500	0,1	4,246528
2,359167	0,1	4,220278
2,360833	0,1	4,229987
2,362500	0,1	4,189064
2,364167	0,1	4,187268
2,365833	0,1	4,159512
2,367500	0,1	4,162757
2,369167	0,1	4,191325
2,370833	0,1	4,199177
2,372500	0,1	4,193203
2,374167	0,1	4,171173
2,375833	0,1	4,165158
2,377500	0,1	4,165884
2,379167	0,1	4,172511
2,380833	0,1	4,195147
2,382500	0,1	4,212587
2,384167	0,1	4,252947
2,385833	0,1	4,271652
2,387500	0,1	4,279867
2,389167	0,1	4,271457
2,390833	0,1	4,367468
2,392500	0,1	4,392696
2,394167	0,1	4,454704
2,395833	0,1	4,469235
2,397500	0,1	4,496244
2,399167	0,1	4,632125
2,400833	0,1	4,726222
2,402500	0,1	4,773352
2,404167	0,1	4,874971
2,405833	0,1	4,985170
2,407500	0,1	5,102176
2,409167	0,1	5,195867
2,410833	0,1	5,352743
2,412500	0,1	5,464722
2,414167	0,1	5,618718
2,415833	0,1	5,749366
2,417500	0,1	5,975316
2,419167	0,1	6,117063
2,420833	0,1	6,318360
2,422500	0,1	6,500766
2,424167	0,1	6,718799
2,425833	0,1	6,914626
2,427500	0,1	7,153363
2,429167	0,1	7,376984
2,430833	0,1	7,614019
2,432500	0,1	7,883945
2,434167	0,1	8,120888
2,435833	0,1	8,331024
2,437500	0,1	8,600931
2,439167	0,1	8,868309
2,440833	0,1	9,124669
2,442500	0,1	9,395478
2,444167	0,1	9,679421
2,445833	0,1	9,883428
2,447500	0,1	10,179263
2,449167	0,1	10,468337
2,450833	0,1	10,756443
2,452500	0,1	10,979355
2,454167	0,1	11,243183
2,455833	0,1	11,516400
2,457500	0,1	11,740025
2,459167	0,1	11,999692
2,460833	0,1	12,260504
2,462500	0,1	12,527239
2,464167	0,1	12,732515
2,465833	0,1	12,985981
2,467500	0,1	13,238705
2,469167	0,1	13,495624
2,470833	0,1	13,726934
2,472500	0,1	14,011641
2,474167	0,1	14,244020
2,475833	0,1	14,509089
2,477500	0,1	14,767272
2,479167	0,1	15,061286
2,480833	0,1	15,349457
2,482500	0,1	15,650754
2,484167	0,1	15,969115
2,485833	0,1	16,314979
2,487500	0,1	16,686820
2,489167	0,1	17,071568
2,490833	0,1	17,449882
2,492500	0,1	17,852776
2,494167	0,1	18,329701
2,495833	0,1	18,864541
2,497500	0,1	19,342589
2,499167	0,1	19,937993
2,500833	0,1	20,567262
2,502500	0,1	21,206913
2,504167	0,1	21,937136
2,505833	0,1	22,662004
2,507500	0,1	23,441564
2,509167	0,1	24,312095
2,510833	0,1	25,186959
2,512500	0,1	26,146656
2,514167	0,1	27,155406
2,515833	0,1	28,226836
2,517500	0,1	29,322425
2,519167	0,1	30,526776
2,520833	0,1	31,811739
2,522500	0,1	33,092441
2,524167	0,1	34,438331
2,525833	0,1	35,872831
2,527500	0,1	37,363609
2,529167	0,1	38,871776
2,530833	0,1	40,408579
2,532500	0,1	42,048477
2,534167	0,1	43,745529
2,535833	0,1	45,423104
2,537500	0,1	47,209405
2,539167	0,1	48,937389
2,540833	0,1	50,819438
2,542500	0,1	52,632514
2,544167	0,1	54,454625
2,545833	0,1	56,365043
2,547500	0,1	58,278135
2,549167	0,1	60,200043
2,550833	0,1	62,071487
2,552500	0,1	63,961886
2,554167	0,1	65,906528
2,555833	0,1	67,762866
2,557500	0,1	69,675956
2,559167	0,1	71,476097
2,560833	0,1	73,298551
2,562500	0,1	75,068290
2,564167	0,1	76,846468
2,565833	0,1	78,524867
2,567500	0,1	80,199011
2,569167	0,1	81,778628
2,570833	0,1	83,400061
2,572500	0,1	84,897656
2,574167	0,1	86,357514
2,575833	0,1	87,740025
2,577500	0,1	89,062814
2,579167	0,1	90,322907
2,580833	0,1	91,583528
2,582500	0,1	92,675980
2,584167	0,1	93,759076
2,585833	0,1	94,744932
2,587500	0,1	95,703332
2,589167	0,1	96,522003
2,590833	0,1	97,316634
2,592500	0,1	98,008895
2,594167	0,1	98,715098
2,595833	0,1	99,315100
2,597500	0,1	99,808015
2,599167	0,1	100,263411
2,600833	0,1	100,669215
2,602500	0,1	100,995214
2,604167	0,1	101,205830
2,605833	0,1	101,432424
2,607500	0,1	101,577119
2,609167	0,1	101,639527
2,610833	0,1	101,644582
2,612500	0,1	101,621351
2,614167	0,1	101,493086
2,615833	0,1	101,340716
2,617500	0,1	101,201002
2,619167	0,1	100,899351
2,620833	0,1	100,584371
2,622500	0,1	100,251286
2,624167	0,1	99,861475
2,625833	0,1	99,397636
2,627500	0,1	98,973044
2,629167	0,1	98,412420
2,630833	0,1	97,888222
2,632500	0,1	97,263186
2,634167	0,1	96,597679
2,635833	0,1	95,863005
2,637500	0,1	95,203669
2,639167	0,1	94,443816
2,640833	0,1	93,703430
2,642500	0,1	92,854039
2,644167	0,1	92,025001
2,645833	0,1	91,193011
2,647500	0,1	90,251216
2,649167	0,1	89,362345
2,650833	0,1	88,425088
2,652500	0,1	87,422402
2,654167	0,1	86,505383
2,655833	0,1	85,430960
2,657500	0,1	84,412138
2,659167	0,1	83,415069
2,660833	0,1	82,298383
2,662500	0,1	81,295899
2,664167	0,1	80,167337
2,665833	0,1	79,072676
2,667500	0,1	77,936238
2,669167	0,1	76,842686
2,670833	0,1	75,756882
2,672500	0,1	74,639168
2,674167	0,1	73,481651
2,675833	0,1	72,376000
2,677500	0,1	71,238386
2,679167	0,1	70,088116
2,680833	0,1	68,949020
2,682500	0,1	67,796075
2,684167	0,1	66,668118
2,685833	0,1	65,563319
2,687500	0,1	64,458946
2,689167	0,1	63,294906
2,690833	0,1	62,218243
2,692500	0,1	61,100409
2,694167	0,1	60,003425
2,695833	0,1	58,897458
2,697500	0,1	57,792697
2,699167	0,1	56,725397
2,700833	0,1	55,703821
2,702500	0,1	54,668518
2,704167	0,1	53,608576
2,705833	0,1	52,581585
2,707500	0,1	51,583333
2,709167	0,1	50,595789
2,710833	0,1	49,609033
2,712500	0,1	48,658750
2,714167	0,1	47,679523
2,715833	0,1	46,735351
2,717500	0,1	45,848205
2,719167	0,1	44,914521
2,720833	0,1	44,088603
2,722500	0,1	43,179116
2,724167	0,1	42,361122
2,725833	0,1	41,498273
2,727500	0,1	40,651805
2,729167	0,1	39,833209
2,730833	0,1	39,105421
2,732500	0,1	38,307006
2,734167	0,1	37,594185
2,735833	0,1	36,859242
2,737500	0,1	36,121067
2,739167	0,1	35,390441
2,740833	0,1	34,724798
2,742500	0,1	34,028749
2,744167	0,1	33,392044
2,745833	0,1	32,776186
2,747500	0,1	32,097618
2,749167	0,1	31,528686
2,750833	0,1	30,914308
2,752500	0,1	30,308547
2,754167	0,1	29,761151
2,755833	0,1	29,239394
2,757500	0,1	28,605078
2,759167	0,1	28,155891
2,760833	0,1	27,614350
2,762500	0,1	27,135632
2,764167	0,1	26,600892
2,765833	0,1	26,092172
2,767500	0,1	25,639165
2,769167	0,1	25,181410
2,770833	0,1	24,715058
2,772500	0,1	24,247938
2,774167	0,1	23,824849
2,775833	0,1	23,420865
2,777500	0,1	23,025056
2,779167	0,1	22,586104
2,780833	0,1	22,174983
2,782500	0,1	21,782685
2,784167	0,1	21,456367
2,785833	0,1	21,061129
2,787500	0,1	20,713393
2,789167	0,1	20,301352
2,790833	0,1	20,006017
2,792500	0,1	19,650497
2,794167	0,1	19,313374
2,795833	0,1	18,987983
2,797500	0,1	18,665723
2,799167	0,1	18,363779
2,800833	0,1	18,038057
2,802500	0,1	17,758728
2,804167	0,1	17,434045
2,805833	0,1	17,123923
2,807500	0,1	16,872712
2,809167	0,1	16,583778
2,810833	0,1	16,285170
2,812500	0,1	16,051710
2,814167	0,1	15,798886
2,815833	0,1	15,491481
2,817500	0,1	15,282313
2,819167	0,1	15,033036
2,820833	0,1	14,728402
2,822500	0,1	14,523599
2,824167	0,1	14,263947
2,825833	0,1	14,031145
2,827500	0,1	13,838066
2,829167	0,1	13,613436
2,830833	0,1	13,365810
2,832500	0,1	13,166754
2,834167	0,1	12,963346
2,835833	0,1	12,777269
2,837500	0,1	12,532073
2,839167	0,1	12,347571
2,840833	0,1	12,122597
2,842500	0,1	11,978879
2,844167	0,1	11,782795
2,845833	0,1	11,641294
2,847500	0,1	11,427577
2,849167	0,1	11,288518
2,850833	0,1	11,129852
2,852500	0,1	10,916923
2,854167	0,1	10,732785
2,855833	0,1	10,614116
2,857500	0,1	10,431337
2,859167	0,1	10,279992
2,860833	0,1	10,157351
2,862500	0,1	9,979014
2,864167	0,1	9,864797
2,865833	0,1	9,709718
2,867500	0,1	9,608795
2,869167	0,1	9,469644
2,870833	0,1	9,326439
2,872500	0,1	9,196466
2,874167	0,1	9,090592
2,875833	0,1	8,959485
2,877500	0,1	8,827268
2,879167	0,1	8,713255
2,880833	0,1	8,621613
2,882500	0,1	8,535552
2,884167	0,1	8,383941
2,885833	0,1	8,326551
2,887500	0,1	8,141748
2,889167	0,1	8,095776
2,890833	0,1	7,958376
2,892500	0,1	7,907565
2,894167	0,1	7,826719
2,895833	0,1	7,702605
2,897500	0,1	7,630123
2,899167	0,1	7,546034
2,900833	0,1	7,449713
2,902500	0,1	7,383886
2,904167	0,1	7,302006
2,905833	0,1	7,211439
2,907500	0,1	7,135665
2,909167	0,1	7,056913
2,910833	0,1	6,941440
2,912500	0,1	6,876355
2,914167	0,1	6,841949
2,915833	0,1	6,743178
2,917500	0,1	6,666071
2,919167	0,1	6,593115
2,920833	0,1	6,530051
2,922500	0,1	6,458028
2,924167	0,1	6,405278
2,925833	0,1	6,402271
2,927500	0,1	6,312387
2,929167	0,1	6,218269
2,930833	0,1	6,164684
2,932500	0,1	6,129158
2,934167	0,1	6,010413
2,935833	0,1	6,046444
2,937500	0,1	5,928206
2,939167	0,1	5,886015
2,940833	0,1	5,854836
2,942500	0,1	5,801823
2,944167	0,1	5,742409
2,945833	0,1	5,695855
2,947500	0,1	5,686222
2,949167	0,1	5,578699
2,950833	0,1	5,555299
2,952500	0,1	5,502466
2,954167	0,1	5,491956
2,955833	0,1	5,429243
2,957500	0,1	5,380170
2,959167	0,1	5,312123
2,960833	0,1	5,284189
2,962500	0,1	5,238049
2,964167	0,1	5,205703
2,965833	0,1	5,146878
2,967500	0,1	5,170716
2,969167	0,1	5,101569
2,970833	0,1	5,045040
2,972500	0,1	5,001351
2,974167	0,1	5,025249
2,975833	0,1	4,923475
2,977500	0,1	4,901528
2,979167	0,1	4,907047
2,980833	0,1	4,858228
2,982500	0,1	4,808994
2,984167	0,1	4,767028
2,985833	0,1	4,779089
2,987500	0,1	4,757906
2,989167	0,1	4,685976
2,990833	0,1	4,664714
2,992500	0,1	4,645315
2,994167	0,1	4,610484
2,995833	0,1	4,611363
2,997500	0,1	4,540642
2,999167	0,1	4,534477
3,000833	0,1	4,501657
3,002500	0,1	4,471774
3,004167	0,1	4,498224
3,005833	0,1	4,420250
3,007500	0,1	4,360757
3,009167	0,1	4,398463
3,010833	0,1	4,376803
3,012500	0,1	4,343590
3,014167	0,1	4,310816
3,015833	0,1	4,297802
3,017500	0,1	4,286214
3,019167	0,1	4,249306
3,020833	0,1	4,220282
3,022500	0,1	4,194795
3,024167	0,1	4,176867
3,025833	0,1	4,141347
3,027500	0,1	4,094372
3,029167	0,1	4,097897
3,030833	0,1	4,123905
3,032500	0,1	4,056632
3,034167	0,1	4,039430
3,035833	0,1	4,027115
3,037500	0,1	4,002824
3,039167	0,1	4,016109
3,040833	0,1	3,976417
3,042500	0,1	3,963660
3,044167	0,1	3,887016
3,045833	0,1	3,853167
3,047500	0,1	3,851224
3,049167	0,1	3,849910
3,050833	0,1	3,840258
3,052500	0,1	3,794117
3,054167	0,1	3,808176
3,055833	0,1	3,769963
3,057500	0,1	3,717422
3,059167	0,1	3,747384
3,060833	0,1	3,713315
3,062500	0,1	3,680520
3,064167	0,1	3,681032
3,065833	0,1	3,658381
3,067500	0,1	3,614685
3,069167	0,1	3,650515
3,070833	0,1	3,592399
3,072500	0,1	3,612878
3,074167	0,1	3,534505
3,075833	0,1	3,542277
3,077500	0,1	3,553080
3,079167	0,1	3,561548
3,080833	0,1	3,530728
3,082500	0,1	3,484941
3,084167	0,1	3,475531
3,085833	0,1	3,474620
3,087500	0,1	3,442503
3,089167	0,1	3,438107
3,090833	0,1	3,397161
3,092500	0,1	3,416622
3,094167	0,1	3,407648
3,095833	0,1	3,395499
3,097500	0,1	3,379860
3,099167	0,1	3,410861
3,100833	0,1	3,360425
3,102500	0,1	3,360237
3,104167	0,1	3,320962
3,105833	0,1	3,346337
3,107500	0,1	3,341327
3,109167	0,1	3,328063
3,110833	0,1	3,334140
3,112500	0,1	3,310233
3,114167	0,1	3,311842
3,115833	0,1	3,264544
3,117500	0,1	3,303748
3,119167	0,1	3,321663
3,120833	0,1	3,300705
3,122500	0,1	3,287833
3,124167	0,1	3,312091
3,125833	0,1	3,263300
3,127500	0,1	3,308302
3,129167	0,1	3,299614
3,130833	0,1	3,302933
3,132500	0,1	3,298677
3,134167	0,1	3,343164
3,135833	0,1	3,325995
3,137500	0,1	3,330323
3,139167	0,1	3,307536
3,140833	0,1	3,348488
3,142500	0,1	3,348213
3,144167	0,1	3,309279
3,145833	0,1	3,384700
3,147500	0,1	3,324399
3,149167	0,1	3,377385
3,150833	0,1	3,346635
3,152500	0,1	3,365240
3,154167	0,1	3,351715
3,155833	0,1	3,348158
3,157500	0,1	3,363819
3,159167	0,1	3,394400
3,160833	0,1	3,377943
3,162500	0,1	3,399433
3,164167	0,1	3,389002
3,165833	0,1	3,352215
3,167500	0,1	3,383257
3,169167	0,1	3,432202
3,170833	0,1	3,363706
3,172500	0,1	3,394602
3,174167	0,1	3,395698
3,175833	0,1	3,409667
3,177500	0,1	3,412790
3,179167	0,1	3,402794
3,180833	0,1	3,381709
3,182500	0,1	3,394297
3,184167	0,1	3,404142
3,185833	0,1	3,391629
3,187500	0,1	3,348146
3,189167	0,1	3,347200
3,190833	0,1	3,303801
3,192500	0,1	3,346179
3,194167	0,1	3,341678
3,195833	0,1	3,366336
3,197500	0,1	3,336582
3,199167	0,1	3,329996
3,200833	0,1	3,275612
3,202500	0,1	3,325593
3,204167	0,1	3,271619
3,205833	0,1	3,268615
3,207500	0,1	3,265271
3,209167	0,1	3,232413
3,210833	0,1	3,195868
3,212500	0,1	3,251859
3,214167	0,1	3,238703
3,215833	0,1	3,171143
3,217500	0,1	3,187840
3,219167	0,1	3,176834
3,220833	0,1	3,174295
3,222500	0,1	3,138123
3,224167	0,1	3,163831
3,225833	0,1	3,120169
3,227500	0,1	3,080789
3,229167	0,1	3,103041
3,230833	0,1	3,091409
3,232500	0,1	3,051028
3,234167	0,1	3,037704
3,235833	0,1	3,017389
3,237500	0,1	3,015119
3,239167	0,1	2,958305
3,240833	0,1	2,956481
3,242500	0,1	2,954250
3,244167	0,1	2,907648
3,245833	0,1	2,878991
3,247500	0,1	2,875641
3,249167	0,1	2,833445
3,250833	0,1	2,851160
3,252500	0,1	2,849931
3,254167	0,1	2,838474
3,255833	0,1	2,800232
3,257500	0,1	2,791736
3,259167	0,1	2,786326
3,260833	0,1	2,744859
3,262500	0,1	2,745986
3,264167	0,1	2,722721
3,265833	0,1	2,688386
3,267500	0,1	2,714168
3,269167	0,1	2,663541
3,270833	0,1	2,632143
3,272500	0,1	2,604511
3,274167	0,1	2,572541
3,275833	0,1	2,581387
3,277500	0,1	2,563473
3,279167	0,1	2,554238
3,280833	0,1	2,525103
3,282500	0,1	2,509051
3,284167	0,1	2,500109
3,285833	0,1	2,470902
3,287500	0,1	2,451534
3,289167	0,1	2,443978
3,290833	0,1	2,402314
3,292500	0,1	2,418425
3,294167	0,1	2,368210
3,295833	0,1	2,378623
3,297500	0,1	2,345249
3,299167	0,1	2,321649
3,300833	0,1	2,298633
3,302500	0,1	2,304663
3,304167	0,1	2,304882
3,305833	0,1	2,240369
3,307500	0,1	2,277677
3,309167	0,1	2,264667
3,310833	0,1	2,257400
3,312500	0,1	2,242583
3,314167	0,1	2,225392
3,315833	0,1	2,224955
3,317500	0,1	2,201223
3,319167	0,1	2,181371
3,320833	0,1	2,196682
3,322500	0,1	2,169793
3,324167	0,1	2,153680
3,325833	0,1	2,165036
3,327500	0,1	2,162020
3,329167	0,1	2,149076
3,330833	0,1	2,123907
3,332500	0,1	2,099888
3,334167	0,1	2,174444
3,335833	0,1	2,118737
3,337500	0,1	2,089030
3,339167	0,1	2,126051
3,340833	0,1	2,092338
3,342500	0,1	2,100169
3,344167	0,1	2,058186
3,345833	0,1	2,080675
3,347500	0,1	2,052931
3,349167	0,1	2,013602
3,350833	0,1	2,034224
3,352500	0,1	2,063272
3,354167	0,1	2,066803
3,355833	0,1	2,051133
3,357500	0,1	2,015614
3,359167	0,1	2,063486
3,360833	0,1	2,029777
3,362500	0,1	2,021146
3,364167	0,1	2,015108
3,365833	0,1	2,030560
3,367500	0,1	2,016327
3,369167	0,1	2,003242
3,370833	0,1	2,024883
3,372500	0,1	2,023594
3,374167	0,1	2,024379
3,375833	0,1	1,954223
3,377500	0,1	2,002296
3,379167	0,1	2,008128
3,380833	0,1	1,980604
3,382500	0,1	1,995191
3,384167	0,1	2,020704
3,385833	0,1	1,979597
3,387500	0,1	1,991887
3,389167	0,1	2,004386
3,390833	0,1	1,952207
3,392500	0,1	1,984332
3,394167	0,1	2,003310
3,395833	0,1	1,979020
3,397500	0,1	1,950481
3,399167	0,1	2,002651
3,400833	0,1	1,936617
3,402500	0,1	2,015234
3,404167	0,1	1,959472
3,405833	0,1	1,952701
3,407500	0,1	1,990722
3,409167	0,1	1,947604
3,410833	0,1	1,971675
3,412500	0,1	1,953421
3,414167	0,1	1,950112
3,415833	0,1	1,944295
3,417500	0,1	1,998992
3,419167	0,1	1,980097
3,420833	0,1	1,897657
3,422500	0,1	1,958578
3,424167	0,1	1,946451
3,425833	0,1	1,947957
3,427500	0,1	1,924238
3,429167	0,1	1,934233
3,430833	0,1	1,914593
3,432500	0,1	1,964623
3,434167	0,1	1,956872
3,435833	0,1	1,955358
3,437500	0,1	1,941349
3,439167	0,1	1,958594
3,440833	0,1	1,978796
3,442500	0,1	1,949400
3,444167	0,1	1,951765
3,445833	0,1	1,962841
3,447500	0,1	2,019555
3,449167	0,1	2,001160
3,450833	0,1	1,959968
3,452500	0,1	2,008836
3,454167	0,1	2,051338
3,455833	0,1	2,055872
3,457500	0,1	2,037683
3,459167	0,1	2,032145
3,460833	0,1	2,073416
3,462500	0,1	2,093909
3,464167	0,1	2,062714
3,465833	0,1	2,084558
3,467500	0,1	2,080324
3,469167	0,1	2,088806
3,470833	0,1	2,133312
3,472500	0,1	2,102046
3,474167	0,1	2,156396
3,475833	0,1	2,137428
3,477500	0,1	2,154175
3,479167	0,1	2,175967
3,480833	0,1	2,184457
3,482500	0,1	2,210061
3,484167	0,1	2,222218
3,485833	0,1	2,236246
3,487500	0,1	2,224887
3,489167	0,1	2,286302
3,490833	0,1	2,318035
3,492500	0,1	2,311647
3,494167	0,1	2,289274
3,495833	0,1	2,350837
3,497500	0,1	2,350713
3,499167	0,1	2,368332
3,500833	0,1	2,400499
3,502500	0,1	2,414096
3,504167	0,1	2,441880
3,505833	0,1	2,411385
3,507500	0,1	2,445117
3,509167	0,1	2,428152
3,510833	0,1	2,470091
3,512500	0,1	2,466220
3,514167	0,1	2,526084
3,515833	0,1	2,564233
3,517500	0,1	2,568203
3,519167	0,1	2,561167
3,520833	0,1	2,558000
3,522500	0,1	2,590815
3,524167	0,1	2,610962
3,525833	0,1	2,594641
3,527500	0,1	2,562675
3,529167	0,1	2,576277
3,530833	0,1	2,627671
3,532500	0,1	2,635958
3,534167	0,1	2,627898
3,535833	0,1	2,614432
3,537500	0,1	2,659500
3,539167	0,1	2,647627
3,540833	0,1	2,658120
3,542500	0,1	2,638934
3,544167	0,1	2,687367
3,545833	0,1	2,690341
3,547500	0,1	2,710185
3,549167	0,1	2,658950
3,550833	0,1	2,683909
3,552500	0,1	2,687580
3,554167	0,1	2,704799
3,555833	0,1	2,665065
3,557500	0,1	2,686363
3,559167	0,1	2,673623
3,560833	0,1	2,680959
3,562500	0,1	2,694484
3,564167	0,1	2,692193
3,565833	0,1	2,667857
3,567500	0,1	2,669806
3,569167	0,1	2,625472
3,570833	0,1	2,679920
3,572500	0,1	2,650298
3,574167	0,1	2,613732
3,575833	0,1	2,614083
3,577500	0,1	2,630476
3,579167	0,1	2,556928
3,580833	0,1	2,618957
3,582500	0,1	2,610838
3,584167	0,1	2,585703
3,585833	0,1	2,559081
3,587500	0,1	2,556057
3,589167	0,1	2,556194
3,590833	0,1	2,575480
3,592500	0,1	2,558063
3,594167	0,1	2,503078
3,595833	0,1	2,500694
3,597500	0,1	2,505440
3,599167	0,1	2,503925
3,600833	0,1	2,488809
3,602500	0,1	2,469316
3,604167	0,1	2,439021
3,605833	0,1	2,450666
3,607500	0,1	2,407861
3,609167	0,1	2,402448
3,610833	0,1	2,402086
3,612500	0,1	2,411658
3,614167	0,1	2,366409
3,615833	0,1	2,379059
3,617500	0,1	2,327556
3,619167	0,1	2,376821
3,620833	0,1	2,351074
3,622500	0,1	2,358904
3,624167	0,1	2,298561
3,625833	0,1	2,289986
3,627500	0,1	2,224754
3,629167	0,1	2,268108
3,630833	0,1	2,254880
3,632500	0,1	2,245460
3,634167	0,1	2,190658
3,635833	0,1	2,224225
3,637500	0,1	2,209780
3,639167	0,1	2,200068
3,640833	0,1	2,125285
3,642500	0,1	2,131236
3,644167	0,1	2,116570
3,645833	0,1	2,121239
3,647500	0,1	2,108657
3,649167	0,1	2,082918
3,650833	0,1	2,070043
3,652500	0,1	2,051709
3,654167	0,1	2,022444
3,655833	0,1	1,982192
3,657500	0,1	2,033140
3,659167	0,1	2,004545
3,660833	0,1	1,974063
3,662500	0,1	1,984406
3,664167	0,1	1,937546
3,665833	0,1	1,943790
3,667500	0,1	1,911520
3,669167	0,1	1,884917
3,670833	0,1	1,939755
3,672500	0,1	1,912317
3,674167	0,1	1,895343
3,675833	0,1	1,903832
3,677500	0,1	1,881552
3,679167	0,1	1,847690
3,680833	0,1	1,838633
3,682500	0,1	1,808669
3,684167	0,1	1,793073
3,685833	0,1	1,792063
3,687500	0,1	1,828000
3,689167	0,1	1,794722
3,690833	0,1	1,778930
3,692500	0,1	1,760737
3,694167	0,1	1,738041
3,695833	0,1	1,744197
3,697500	0,1	1,747438
3,699167	0,1	1,721299
3,700833	0,1	1,685421
3,702500	0,1	1,714243
3,704167	0,1	1,713027
3,705833	0,1	1,658358
3,707500	0,1	1,667266
3,709167	0,1	1,678177
3,710833	0,1	1,669339
3,712500	0,1	1,671067
3,714167	0,1	1,604920
3,715833	0,1	1,635570
3,717500	0,1	1,641336
3,719167	0,1	1,634297
3,720833	0,1	1,601251
3,722500	0,1	1,639606
3,724167	0,1	1,603989
3,725833	0,1	1,592855
3,727500	0,1	1,564486
3,729167	0,1	1,608943
3,730833	0,1	1,579930
3,732500	0,1	1,615699
3,734167	0,1	1,584941
3,735833	0,1	1,581633
3,737500	0,1	1,600246
3,739167	0,1	1,601634
3,740833	0,1	1,583690
3,742500	0,1	1,565983
3,744167	0,1	1,543637
3,745833	0,1	1,539616
3,747500	0,1	1,541634
3,749167	0,1	1,512406
3,750833	0,1	1,547374
3,752500	0,1	1,542873
3,754167	0,1	1,508418
3,755833	0,1	1,516494
3,757500	0,1	1,512125
3,759167	0,1	1,511339
3,760833	0,1	1,514915
3,762500	0,1	1,522079
3,764167	0,1	1,492934
3,765833	0,1	1,479881
3,767500	0,1	1,506947
3,769167	0,1	1,485478
3,770833	0,1	1,503278
3,772500	0,1	1,492599
3,774167	0,1	1,479881
3,775833	0,1	1,513753
3,777500	0,1	1,438330
3,779167	0,1	1,463715
3,780833	0,1	1,457547
3,782500	0,1	1,465355
3,784167	0,1	1,457314
3,785833	0,1	1,430920
3,787500	0,1	1,440604
3,789167	0,1	1,469007
3,790833	0,1	1,459487
3,792500	0,1	1,431332
3,794167	0,1	1,438791
3,795833	0,1	1,482093
3,797500	0,1	1,463504
3,799167	0,1	1,413054
3,800833	0,1	1,445687
3,802500	0,1	1,433557
3,804167	0,1	1,428894
3,805833	0,1	1,383519
3,807500	0,1	1,388662
3,809167	0,1	1,419275
3,810833	0,1	1,428108
3,812500	0,1	1,390170
3,814167	0,1	1,399235
3,815833	0,1	1,416543
3,817500	0,1	1,438787
3,819167	0,1	1,352023
3,820833	0,1	1,383364
3,822500	0,1	1,381943
3,824167	0,1	1,394339
3,825833	0,1	1,380927
3,827500	0,1	1,334332
3,829167	0,1	1,356929
3,830833	0,1	1,372383
3,832500	0,1	1,359826
3,834167	0,1	1,371109
3,835833	0,1	1,365312
3,837500	0,1	1,304157
3,839167	0,1	1,341792
3,840833	0,1	1,348838
3,842500	0,1	1,326147
3,844167	0,1	1,293900
3,845833	0,1	1,398596
3,847500	0,1	1,300919
3,849167	0,1	1,372728
3,850833	0,1	1,281655
3,852500	0,1	1,292715
3,854167	0,1	1,271235
3,855833	0,1	1,345455
3,857500	0,1	1,299411
3,859167	0,1	1,296952
3,860833	0,1	1,285682
3,862500	0,1	1,273884
3,864167	0,1	1,281020
3,865833	0,1	1,267153
3,867500	0,1	1,275988
3,869167	0,1	1,255954
3,870833	0,1	1,246414
3,872500	0,1	1,226289
3,874167	0,1	1,236517
3,875833	0,1	1,238457
3,877500	0,1	1,195003
3,879167	0,1	1,257581
3,880833	0,1	1,252313
3,882500	0,1	1,250595
3,884167	0,1	1,175567
3,885833	0,1	1,207034
3,887500	0,1	1,178246
3,889167	0,1	1,199564
3,890833	0,1	1,201266
3,892500	0,1	1,190407
3,894167	0,1	1,141660
3,895833	0,1	1,216904
3,897500	0,1	1,181899
3,899167	0,1	1,180975
3,900833	0,1	1,179481
3,902500	0,1	1,190642
3,904167	0,1	1,144377
3,905833	0,1	1,149868
3,907500	0,1	1,156028
3,909167	0,1	1,156859
3,910833	0,1	1,130986
3,912500	0,1	1,148748
3,914167	0,1	1,144233
3,915833	0,1	1,158282
3,917500	0,1	1,143409
3,919167	0,1	1,127292
3,920833	0,1	1,110858
3,922500	0,1	1,110029
3,924167	0,1	1,102327
3,925833	0,1	1,092466
3,927500	0,1	1,097938
3,929167	0,1	1,086568
3,930833	0,1	1,086761
3,932500	0,1	1,078437
3,934167	0,1	1,076808
3,935833	0,1	1,100894
3,937500	0,1	1,083626
3,939167	0,1	1,081085
3,940833	0,1	1,080796
3,942500	0,1	1,074006
3,944167	0,1	1,078213
3,945833	0,1	1,058935
3,947500	0,1	1,041037
3,949167	0,1	1,073284
3,950833	0,1	1,063519
3,952500	0,1	1,046446
3,954167	0,1	1,086618
3,955833	0,1	1,052328
3,957500	0,1	1,031241
3,959167	0,1	1,042231
3,960833	0,1	1,079826
3,962500	0,1	1,047896
3,964167	0,1	1,053185
3,965833	0,1	1,058929
3,967500	0,1	1,038275
3,969167	0,1	1,045350
3,970833	0,1	1,052650
3,972500	0,1	1,005578
3,974167	0,1	1,021260
3,975833	0,1	1,018036
3,977500	0,1	1,034038
3,979167	0,1	1,014455
3,980833	0,1	1,002766
3,982500	0,1	1,003342
3,984167	0,1	1,005969
3,985833	0,1	1,028447
3,987500	0,1	1,012450
3,989167	0,1	1,045454
3,990833	0,1	1,013879
3,992500	0,1	1,035595
3,994167	0,1	1,037758
3,995833	0,1	1,030191
3,997500	0,1	0,997540
3,999167	0,1	1,021234
4,000833	0,1	1,043186
4,002500	0,1	1,001482
4,004167	0,1	1,046897
4,005833	0,1	1,008025
4,007500	0,1	1,001428
4,009167	0,1	1,027289
4,010833	0,1	1,013008
4,012500	0,1	0,983491
4,014167	0,1	1,062875
4,015833	0,1	1,014441
4,017500	0,1	1,030897
4,019167	0,1	1,034663
4,020833	0,1	1,017237
4,022500	0,1	1,031790
4,024167	0,1	1,044680
4,025833	0,1	1,015882
4,027500	0,1	1,005369
4,029167	0,1	1,068489
4,030833	0,1	1,066856
4,032500	0,1	1,049250
4,034167	0,1	1,045885
4,035833	0,1	1,061155
4,037500	0,1	1,074580
4,039167	0,1	1,066370
4,040833	0,1	1,040147
4,042500	0,1	1,030036
4,044167	0,1	1,117003
4,045833	0,1	1,118046
4,047500	0,1	1,055520
4,049167	0,1	1,070171
4,050833	0,1	1,109911
4,052500	0,1	1,131244
4,054167	0,1	1,107833
4,055833	0,1	1,084654
4,057500	0,1	1,112254
4,059167	0,1	1,127263
4,060833	0,1	1,129938
4,062500	0,1	1,168088
4,064167	0,1	1,166345
4,065833	0,1	1,189926
4,067500	0,1	1,153147
4,069167	0,1	1,182820
4,070833	0,1	1,145330
4,072500	0,1	1,197822
4,074167	0,1	1,187080
4,075833	0,1	1,211712
4,077500	0,1	1,265744
4,079167	0,1	1,260846
4,080833	0,1	1,249867
4,082500	0,1	1,253467
4,084167	0,1	1,233055
4,085833	0,1	1,293995
4,087500	0,1	1,322155
4,089167	0,1	1,307647
4,090833	0,1	1,279498
4,092500	0,1	1,329955
4,094167	0,1	1,278687
4,095833	0,1	1,370853
4,097500	0,1	1,371484
4,099167	0,1	1,350478
4,100833	0,1	1,388326
4,102500	0,1	1,400664
4,104167	0,1	1,404047
4,105833	0,1	1,425931
4,107500	0,1	1,439036
4,109167	0,1	1,437582
4,110833	0,1	1,472802
4,112500	0,1	1,480947
4,114167	0,1	1,462074
4,115833	0,1	1,527907
4,117500	0,1	1,525051
4,119167	0,1	1,542912
4,120833	0,1	1,556913
4,122500	0,1	1,576663
4,124167	0,1	1,584434
4,125833	0,1	1,616117
4,127500	0,1	1,594497
4,129167	0,1	1,617977
4,130833	0,1	1,637662
4,132500	0,1	1,642757
4,134167	0,1	1,688524
4,135833	0,1	1,714331
4,137500	0,1	1,704721
4,139167	0,1	1,683566
4,140833	0,1	1,736303
4,142500	0,1	1,698303
4,144167	0,1	1,739756
4,145833	0,1	1,771780
4,147500	0,1	1,765331
4,149167	0,1	1,808657
4,150833	0,1	1,797037
4,152500	0,1	1,824689
4,154167	0,1	1,845313
4,155833	0,1	1,824688
4,157500	0,1	1,852137
4,159167	0,1	1,861480
4,160833	0,1	1,875651
4,162500	0,1	1,874003
4,164167	0,1	1,877448
4,165833	0,1	1,884057
4,167500	0,1	1,931990
4,169167	0,1	1,893701
4,170833	0,1	1,906697
4,172500	0,1	1,945073
4,174167	0,1	1,987207
4,175833	0,1	1,921084
4,177500	0,1	1,983677
4,179167	0,1	2,005829
4,180833	0,1	1,965720
4,182500	0,1	1,957159
4,184167	0,1	1,947168
4,185833	0,1	2,001505
4,187500	0,1	1,994407
4,189167	0,1	1,978520
4,190833	0,1	2,035081
4,192500	0,1	2,008713
4,194167	0,1	2,035736
4,195833	0,1	2,041349
4,197500	0,1	2,049905
4,199167	0,1	2,026617
4,200833	0,1	2,050335
4,202500	0,1	2,031436
4,204167	0,1	2,042715
4,205833	0,1	2,043944
4,207500	0,1	2,047751
4,209167	0,1	2,044517
4,210833	0,1	2,025825
4,212500	0,1	2,055438
4,214167	0,1	2,055012
4,215833	0,1	2,044446
4,217500	0,1	2,028413
4,219167	0,1	2,031426
4,220833	0,1	2,027473
4,222500	0,1	2,059535
4,224167	0,1	2,060407
4,225833	0,1	2,023532
4,227500	0,1	2,054357
4,229167	0,1	2,047682
4,230833	0,1	2,023524
4,232500	0,1	2,000661
4,234167	0,1	2,008563
4,235833	0,1	2,009934
4,237500	0,1	2,028406
4,239167	0,1	2,037542
4,240833	0,1	2,028697
4,242500	0,1	2,009001
4,244167	0,1	2,010581
4,245833	0,1	2,016975
4,247500	0,1	2,062482
4,249167	0,1	1,959562
4,250833	0,1	1,979156
4,252500	0,1	2,012160
4,254167	0,1	1,954157
4,255833	0,1	1,935678
4,257500	0,1	1,946377
4,259167	0,1	1,938405
4,260833	0,1	1,917777
4,262500	0,1	1,928339
4,264167	0,1	1,942571
4,265833	0,1	1,896860
4,267500	0,1	1,892328
4,269167	0,1	1,896565
4,270833	0,1	1,868752
4,272500	0,1	1,909854
4,274167	0,1	1,869120
4,275833	0,1	1,882907
4,277500	0,1	1,870917
4,279167	0,1	1,867183
4,280833	0,1	1,850145
4,282500	0,1	1,822833
4,284167	0,1	1,799050
4,285833	0,1	1,804934
4,287500	0,1	1,778136
4,289167	0,1	1,789552
4,290833	0,1	1,808311
4,292500	0,1	1,752712
4,294167	0,1	1,742425
4,295833	0,1	1,742056
4,297500	0,1	1,744518
4,299167	0,1	1,707994
4,300833	0,1	1,739401
4,302500	0,1	1,682301
4,304167	0,1	1,699575
4,305833	0,1	1,707355
4,307500	0,1	1,698226
4,309167	0,1	1,679558
4,310833	0,1	1,683939
4,312500	0,1	1,655270
4,314167	0,1	1,668996
4,315833	0,1	1,652472
4,317500	0,1	1,601823
4,319167	0,1	1,614192
4,320833	0,1	1,590975
4,322500	0,1	1,613741
4,324167	0,1	1,602492
4,325833	0,1	1,605295
4,327500	0,1	1,564637
4,329167	0,1	1,528371
4,330833	0,1	1,566142
4,332500	0,1	1,541146
4,334167	0,1	1,541659
4,335833	0,1	1,524985
4,337500	0,1	1,492165
4,339167	0,1	1,514471
4,340833	0,1	1,487582
4,342500	0,1	1,456701
4,344167	0,1	1,475995
4,345833	0,1	1,447572
4,347500	0,1	1,430340
4,349167	0,1	1,435916
4,350833	0,1	1,392192
4,352500	0,1	1,442080
4,354167	0,1	1,413239
4,355833	0,1	1,392272
4,357500	0,1	1,444761
4,359167	0,1	1,389589
4,360833	0,1	1,361988
4,362500	0,1	1,409868
4,364167	0,1	1,410115
4,365833	0,1	1,379092
4,367500	0,1	1,390052
4,369167	0,1	1,327754
4,370833	0,1	1,347967
4,372500	0,1	1,340406
4,374167	0,1	1,352287
4,375833	0,1	1,363728
4,377500	0,1	1,307725
4,379167	0,1	1,326611
4,380833	0,1	1,295293
4,382500	0,1	1,252016
4,384167	0,1	1,302463
4,385833	0,1	1,254668
4,387500	0,1	1,274338
4,389167	0,1	1,296452
4,390833	0,1	1,269808
4,392500	0,1	1,299306
4,394167	0,1	1,271475
4,395833	0,1	1,213657
4,397500	0,1	1,258250
4,399167	0,1	1,232958
4,400833	0,1	1,204147
4,402500	0,1	1,242527
4,404167	0,1	1,241196
4,405833	0,1	1,231338
4,407500	0,1	1,235007
4,409167	0,1	1,181037
4,410833	0,1	1,188385
4,412500	0,1	1,181285
4,414167	0,1	1,213550
4,415833	0,1	1,182409
4,417500	0,1	1,180591
4,419167	0,1	1,166057
4,420833	0,1	1,150115
4,422500	0,1	1,180612
4,424167	0,1	1,173758
4,425833	0,1	1,129591
4,427500	0,1	1,148836
4,429167	0,1	1,153580
4,430833	0,1	1,144659
4,432500	0,1	1,147037
4,434167	0,1	1,108926
4,435833	0,1	1,131158
4,437500	0,1	1,106206
4,439167	0,1	1,090863
4,440833	0,1	1,085896
4,442500	0,1	1,079238
4,444167	0,1	1,108529
4,445833	0,1	1,111010
4,447500	0,1	1,091199
4,449167	0,1	1,087900
4,450833	0,1	1,084294
4,452500	0,1	1,041308
4,454167	0,1	1,062310
4,455833	0,1	1,051252
4,457500	0,1	1,036183
4,459167	0,1	1,029434
4,460833	0,1	1,000967
4,462500	0,1	0,992415
4,464167	0,1	1,024126
4,465833	0,1	1,065089
4,467500	0,1	1,045979
4,469167	0,1	1,017308
4,470833	0,1	1,024089
4,472500	0,1	0,987969
4,474167	0,1	0,991276
4,475833	0,1	0,963212
4,477500	0,1	0,982212
4,479167	0,1	0,921934
4,480833	0,1	0,969383
4,482500	0,1	0,965993
4,484167	0,1	0,971130
4,485833	0,1	1,026302
4,487500	0,1	0,979914
4,489167	0,1	0,940157
4,490833	0,1	0,959865
4,492500	0,1	0,955599
4,494167	0,1	0,920527
4,495833	0,1	0,941345
4,497500	0,1	0,932098
4,499167	0,1	0,904407
4,500833	0,1	0,946061
4,502500	0,1	0,892266
4,504167	0,1	0,897482
4,505833	0,1	0,876613
4,507500	0,1	0,853222
4,509167	0,1	0,893088
4,510833	0,1	0,880127
4,512500	0,1	0,885245
4,514167	0,1	0,868619
4,515833	0,1	0,880898
4,517500	0,1	0,860503
4,519167	0,1	0,854493
4,520833	0,1	0,870598
4,522500	0,1	0,840344
4,524167	0,1	0,815083
4,525833	0,1	0,846071
4,527500	0,1	0,818376
4,529167	0,1	0,828930
4,530833	0,1	0,817306
4,532500	0,1	0,818910
4,534167	0,1	0,794725
4,535833	0,1	0,805592
4,537500	0,1	0,808044
4,539167	0,1	0,774750
4,540833	0,1	0,787749
4,542500	0,1	0,774494
4,544167	0,1	0,799715
4,545833	0,1	0,810491
4,547500	0,1	0,768985
4,549167	0,1	0,794738
4,550833	0,1	0,782750
4,552500	0,1	0,762462
4,554167	0,1	0,758810
4,555833	0,1	0,770420
4,557500	0,1	0,735247
4,559167	0,1	0,724813
4,560833	0,1	0,765805
4,562500	0,1	0,710277
4,564167	0,1	0,723059
4,565833	0,1	0,711753
4,567500	0,1	0,735026
4,569167	0,1	0,738480
4,570833	0,1	0,723806
4,572500	0,1	0,738254
4,574167	0,1	0,715196
4,575833	0,1	0,736503
4,577500	0,1	0,699428
4,579167	0,1	0,693136
4,580833	0,1	0,668468
4,582500	0,1	0,631732
4,584167	0,1	0,710310
4,585833	0,1	0,696102
4,587500	0,1	0,687069
4,589167	0,1	0,671466
4,590833	0,1	0,666724
4,592500	0,1	0,677491
4,594167	0,1	0,685747
4,595833	0,1	0,645154
4,597500	0,1	0,641790
4,599167	0,1	0,640239
4,600833	0,1	0,656940
4,602500	0,1	0,645916
4,604167	0,1	0,618866
4,605833	0,1	0,604122
4,607500	0,1	0,611341
4,609167	0,1	0,632914
4,610833	0,1	0,633499
4,612500	0,1	0,608735
4,614167	0,1	0,610924
4,615833	0,1	0,609635
4,617500	0,1	0,594868
4,619167	0,1	0,591220
4,620833	0,1	0,618078
4,622500	0,1	0,608927
4,624167	0,1	0,597768
4,625833	0,1	0,604473
4,627500	0,1	0,554149
4,629167	0,1	0,636544
4,630833	0,1	0,557542
4,632500	0,1	0,562360
4,634167	0,1	0,585441
4,635833	0,1	0,539830
4,637500	0,1	0,597914
4,639167	0,1	0,560789
4,640833	0,1	0,554298
4,642500	0,1	0,558165
4,644167	0,1	0,540374
4,645833	0,1	0,556486
4,647500	0,1	0,526864
4,649167	0,1	0,556547
4,650833	0,1	0,545947
4,652500	0,1	0,545236
4,654167	0,1	0,570834
4,655833	0,1	0,523063
4,657500	0,1	0,511804
4,659167	0,1	0,517281
4,660833	0,1	0,489948
4,662500	0,1	0,540550
4,664167	0,1	0,517932
4,665833	0,1	0,518959
4,667500	0,1	0,543489
4,669167	0,1	0,506037
4,670833	0,1	0,531721
4,672500	0,1	0,487889
4,674167	0,1	0,486362
4,675833	0,1	0,506251
4,677500	0,1	0,493200
4,679167	0,1	0,493648
4,680833	0,1	0,488847
4,682500	0,1	0,498675
4,684167	0,1	0,488461
4,685833	0,1	0,481948
4,687500	0,1	0,524268
4,689167	0,1	0,474059
4,690833	0,1	0,484361
4,692500	0,1	0,497032
4,694167	0,1	0,440759
4,695833	0,1	0,470268
4,697500	0,1	0,460765
4,699167	0,1	0,494607
4,700833	0,1	0,445142
4,702500	0,1	0,493185
4,704167	0,1	0,484592
4,705833	0,1	0,468441
4,707500	0,1	0,484165
4,709167	0,1	0,426575
4,710833	0,1	0,487314
4,712500	0,1	0,492520
4,714167	0,1	0,450975
4,715833	0,1	0,473911
4,717500	0,1	0,441558
4,719167	0,1	0,455121
4,720833	0,1	0,476332
4,722500	0,1	0,432955
4,724167	0,1	0,448318
4,725833	0,1	0,477813
4,727500	0,1	0,428831
4,729167	0,1	0,415377
4,730833	0,1	0,420658
4,732500	0,1	0,398937
4,734167	0,1	0,390716
4,735833	0,1	0,431193
4,737500	0,1	0,472103
4,739167	0,1	0,424578
4,740833	0,1	0,410544
4,742500	0,1	0,460722
4,744167	0,1	0,412133
4,745833	0,1	0,407702
4,747500	0,1	0,407317
4,749167	0,1	0,456370
4,750833	0,1	0,410907
4,752500	0,1	0,416180
4,754167	0,1	0,410445
4,755833	0,1	0,421693
4,757500	0,1	0,378957
4,759167	0,1	0,393967
4,760833	0,1	0,414920
4,762500	0,1	0,442865
4,764167	0,1	0,363536
4,765833	0,1	0,404020
4,767500	0,1	0,422464
4,769167	0,1	0,426884
4,770833	0,1	0,399523
4,772500	0,1	0,393235
4,774167	0,1	0,402285
4,775833	0,1	0,404773
4,777500	0,1	0,425463
4,779167	0,1	0,406196
4,780833	0,1	0,401355
4,782500	0,1	0,388656
4,784167	0,1	0,386527
4,785833	0,1	0,380662
4,787500	0,1	0,418880
4,789167	0,1	0,391690
4,790833	0,1	0,424139
4,792500	0,1	0,350254
4,794167	0,1	0,389257
4,795833	0,1	0,396583
4,797500	0,1	0,400580
4,799167	0,1	0,393236
4,800833	0,1	0,408122
4,802500	0,1	0,384279
4,804167	0,1	0,386235
4,805833	0,1	0,375540
4,807500	0,1	0,362550
4,809167	0,1	0,377301
4,810833	0,1	0,375149
4,812500	0,1	0,421720
4,814167	0,1	0,382121
4,815833	0,1	0,370158
4,817500	0,1	0,438281
4,819167	0,1	0,388281
4,820833	0,1	0,349665
4,822500	0,1	0,359739
4,824167	0,1	0,390451
4,825833	0,1	0,370613
4,827500	0,1	0,343116
4,829167	0,1	0,350107
4,830833	0,1	0,335280
4,832500	0,1	0,368794
4,834167	0,1	0,370991
4,835833	0,1	0,384559
4,837500	0,1	0,398904
4,839167	0,1	0,379021
4,840833	0,1	0,370285
4,842500	0,1	0,346311
4,844167	0,1	0,395284
4,845833	0,1	0,342541
4,847500	0,1	0,395444
4,849167	0,1	0,325823
4,850833	0,1	0,350613
4,852500	0,1	0,357806
4,854167	0,1	0,384586
4,855833	0,1	0,347539
4,857500	0,1	0,364599
4,859167	0,1	0,369445
4,860833	0,1	0,388681
4,862500	0,1	0,381916
4,864167	0,1	0,345343
4,865833	0,1	0,389576
4,867500	0,1	0,377377
4,869167	0,1	0,398351
4,870833	0,1	0,333520
4,872500	0,1	0,355515
4,874167	0,1	0,349875
4,875833	0,1	0,379270
4,877500	0,1	0,379858
4,879167	0,1	0,351949
4,880833	0,1	0,366992
4,882500	0,1	0,367838
4,884167	0,1	0,379338
4,885833	0,1	0,353365
4,887500	0,1	0,355392
4,889167	0,1	0,345146
4,890833	0,1	0,344690
4,892500	0,1	0,374271
4,894167	0,1	0,382726
4,895833	0,1	0,345471
4,897500	0,1	0,406245
4,899167	0,1	0,390687
4,900833	0,1	0,367129
4,902500	0,1	0,354651
4,904167	0,1	0,340470
4,905833	0,1	0,324847
4,907500	0,1	0,380839
4,909167	0,1	0,355916
4,910833	0,1	0,373535
4,912500	0,1	0,359583
4,914167	0,1	0,338122
4,915833	0,1	0,378786
4,917500	0,1	0,391586
4,919167	0,1	0,343319
4,920833	0,1	0,364412
4,922500	0,1	0,362639
4,924167	0,1	0,342214
4,925833	0,1	0,348392
4,927500	0,1	0,342757
4,929167	0,1	0,325001
4,930833	0,1	0,371694
4,932500	0,1	0,355078
4,934167	0,1	0,389066
4,935833	0,1	0,392228
4,937500	0,1	0,362746
4,939167	0,1	0,361642
4,940833	0,1	0,352625
4,942500	0,1	0,342148
4,944167	0,1	0,378590
4,945833	0,1	0,333968
4,947500	0,1	0,369049
4,949167	0,1	0,327585
4,950833	0,1	0,384676
4,952500	0,1	0,359075
4,954167	0,1	0,410656
4,955833	0,1	0,304553
4,957500	0,1	0,370748
4,959167	0,1	0,377500
4,960833	0,1	0,398223
4,962500	0,1	0,343350
4,964167	0,1	0,375274
4,965833	0,1	0,404831
4,967500	0,1	0,377350
4,969167	0,1	0,388330
4,970833	0,1	0,383241
4,972500	0,1	0,384528
4,974167	0,1	0,367608
4,975833	0,1	0,381138
4,977500	0,1	0,409569
4,979167	0,1	0,368487
4,980833	0,1	0,337698
4,982500	0,1	0,346457
4,984167	0,1	0,363343
4,985833	0,1	0,350750
4,987500	0,1	0,392191
4,989167	0,1	0,399515
4,990833	0,1	0,405029
4,992500	0,1	0,330172
4,994167	0,1	0,391958
4,995833	0,1	0,361427
4,997500	0,1	0,428094
4,999167	0,1	0,418186
5,000833	0,1	0,441515
5,002500	0,1	0,381156
5,004167	0,1	0,412951
5,005833	0,1	0,356951
5,007500	0,1	0,391612
5,009167	0,1	0,415368
5,010833	0,1	0,397751
5,012500	0,1	0,398291
5,014167	0,1	0,403192
5,015833	0,1	0,413280
5,017500	0,1	0,381149
5,019167	0,1	0,380114
5,020833	0,1	0,389520
5,022500	0,1	0,393965
5,024167	0,1	0,404416
5,025833	0,1	0,419306
5,027500	0,1	0,432877
5,029167	0,1	0,425338
5,030833	0,1	0,408642
5,032500	0,1	0,429267
5,034167	0,1	0,437263
5,035833	0,1	0,412220
5,037500	0,1	0,432776
5,039167	0,1	0,402875
5,040833	0,1	0,463877
5,042500	0,1	0,473657
5,044167	0,1	0,471501
5,045833	0,1	0,450486
5,047500	0,1	0,466692
5,049167	0,1	0,458866
5,050833	0,1	0,432049
5,052500	0,1	0,457083
5,054167	0,1	0,454866
5,055833	0,1	0,453801
5,057500	0,1	0,460667
5,059167	0,1	0,451967
5,060833	0,1	0,436137
5,062500	0,1	0,428398
5,064167	0,1	0,470524
5,065833	0,1	0,450130
5,067500	0,1	0,412287
5,069167	0,1	0,464685
5,070833	0,1	0,498123
5,072500	0,1	0,472086
5,074167	0,1	0,485778
5,075833	0,1	0,503092
5,077500	0,1	0,506641
5,079167	0,1	0,474699
5,080833	0,1	0,461864
5,082500	0,1	0,463472
5,084167	0,1	0,470340
5,085833	0,1	0,523877
5,087500	0,1	0,495365
5,089167	0,1	0,554377
5,090833	0,1	0,524607
5,092500	0,1	0,466001
5,094167	0,1	0,491192
5,095833	0,1	0,509540
5,097500	0,1	0,509833
5,099167	0,1	0,541939
5,100833	0,1	0,513451
5,102500	0,1	0,505032
5,104167	0,1	0,532461
5,105833	0,1	0,493400
5,107500	0,1	0,514020
5,109167	0,1	0,507805
5,110833	0,1	0,530849
5,112500	0,1	0,548971
5,114167	0,1	0,496853
5,115833	0,1	0,545288
5,117500	0,1	0,541690
5,119167	0,1	0,499430
5,120833	0,1	0,519759
5,122500	0,1	0,476829
5,124167	0,1	0,554019
5,125833	0,1	0,531991
5,127500	0,1	0,520186
5,129167	0,1	0,502713
5,130833	0,1	0,508769
5,132500	0,1	0,520632
5,134167	0,1	0,497716
5,135833	0,1	0,528720
5,137500	0,1	0,511483
5,139167	0,1	0,511574
5,140833	0,1	0,499746
5,142500	0,1	0,525142
5,144167	0,1	0,482601
5,145833	0,1	0,502155
5,147500	0,1	0,526013
5,149167	0,1	0,486500
5,150833	0,1	0,537711
5,152500	0,1	0,502232
5,154167	0,1	0,539585
5,155833	0,1	0,524315
5,157500	0,1	0,523697
5,159167	0,1	0,517219
5,160833	0,1	0,467515
5,162500	0,1	0,451675
5,164167	0,1	0,486354
5,165833	0,1	0,455290
5,167500	0,1	0,487097
5,169167	0,1	0,472954
5,170833	0,1	0,483909
5,172500	0,1	0,481883
5,174167	0,1	0,471890
5,175833	0,1	0,465378
5,177500	0,1	0,493288
5,179167	0,1	0,479789
5,180833	0,1	0,470085
5,182500	0,1	0,467343
5,184167	0,1	0,477654
5,185833	0,1	0,491937
5,187500	0,1	0,452069
5,189167	0,1	0,446065
5,190833	0,1	0,427887
5,192500	0,1	0,460080
5,194167	0,1	0,475976
5,195833	0,1	0,470823
5,197500	0,1	0,430442
5,199167	0,1	0,467366
5,200833	0,1	0,450902
5,202500	0,1	0,446904
5,204167	0,1	0,439457
5,205833	0,1	0,486158
5,207500	0,1	0,438855
5,209167	0,1	0,431400
5,210833	0,1	0,432043
5,212500	0,1	0,477840
5,214167	0,1	0,429344
5,215833	0,1	0,455440
5,217500	0,1	0,432661
5,219167	0,1	0,400942
5,220833	0,1	0,400261
5,222500	0,1	0,411410
5,224167	0,1	0,383251
5,225833	0,1	0,391715
5,227500	0,1	0,415920
5,229167	0,1	0,392846
5,230833	0,1	0,404510
5,232500	0,1	0,405383
5,234167	0,1	0,418889
5,235833	0,1	0,429427
5,237500	0,1	0,368136
5,239167	0,1	0,404056
5,240833	0,1	0,389689
5,242500	0,1	0,348957
5,244167	0,1	0,374306
5,245833	0,1	0,396224
5,247500	0,1	0,382278
5,249167	0,1	0,365583
5,250833	0,1	0,323556
5,252500	0,1	0,387706
5,254167	0,1	0,358076
5,255833	0,1	0,345173
5,257500	0,1	0,340958
5,259167	0,1	0,350298
5,260833	0,1	0,345887
5,262500	0,1	0,371472
5,264167	0,1	0,285539
5,265833	0,1	0,338910
5,267500	0,1	0,337862
5,269167	0,1	0,326360
5,270833	0,1	0,286045
5,272500	0,1	0,330731
5,274167	0,1	0,319753
5,275833	0,1	0,316528
5,277500	0,1	0,303794
5,279167	0,1	0,274350
5,280833	0,1	0,319066
5,282500	0,1	0,287231
5,284167	0,1	0,305601
5,285833	0,1	0,266129
5,287500	0,1	0,320082
5,289167	0,1	0,295681
5,290833	0,1	0,293389
5,292500	0,1	0,298188
5,294167	0,1	0,302310
5,295833	0,1	0,292674
5,297500	0,1	0,275763
5,299167	0,1	0,314039
5,300833	0,1	0,283691
5,302500	0,1	0,302534
5,304167	0,1	0,284624
5,305833	0,1	0,312264
5,307500	0,1	0,266194
5,309167	0,1	0,253234
5,310833	0,1	0,282070
5,312500	0,1	0,294510
5,314167	0,1	0,216477
5,315833	0,1	0,273332
5,317500	0,1	0,283201
5,319167	0,1	0,275345
5,320833	0,1	0,309430
5,322500	0,1	0,274552
5,324167	0,1	0,259045
5,325833	0,1	0,261935
5,327500	0,1	0,216774
5,329167	0,1	0,255190
5,330833	0,1	0,255555
5,332500	0,1	0,246736
5,334167	0,1	0,241340
5,335833	0,1	0,247401
5,337500	0,1	0,267214
5,339167	0,1	0,268933
5,340833	0,1	0,227119
5,342500	0,1	0,259361
5,344167	0,1	0,225010
5,345833	0,1	0,227552
5,347500	0,1	0,263188
5,349167	0,1	0,201704
5,350833	0,1	0,288564
5,352500	0,1	0,247022
5,354167	0,1	0,178762
5,355833	0,1	0,237698
5,357500	0,1	0,195154
5,359167	0,1	0,235516
5,360833	0,1	0,219760
5,362500	0,1	0,199078
5,364167	0,1	0,164287
5,365833	0,1	0,214754
5,367500	0,1	0,233422
5,369167	0,1	0,219835
5,370833	0,1	0,210195
5,372500	0,1	0,211189
5,374167	0,1	0,233939
5,375833	0,1	0,219470
5,377500	0,1	0,183327
5,379167	0,1	0,210717
5,380833	0,1	0,237642
5,382500	0,1	0,173377
5,384167	0,1	0,134942
5,385833	0,1	0,155708
5,387500	0,1	0,217934
5,389167	0,1	0,205330
5,390833	0,1	0,180747
5,392500	0,1	0,192085
5,394167	0,1	0,169375
5,395833	0,1	0,190023
5,397500	0,1	0,182510
5,399167	0,1	0,201128
5,400833	0,1	0,180594
5,402500	0,1	0,163460
5,404167	0,1	0,143250
5,405833	0,1	0,187048
5,407500	0,1	0,160648
5,409167	0,1	0,158065
5,410833	0,1	0,125905
5,412500	0,1	0,168818
5,414167	0,1	0,140408
5,415833	0,1	0,155129
5,417500	0,1	0,137803
5,419167	0,1	0,168351
5,420833	0,1	0,113953
5,422500	0,1	0,145941
5,424167	0,1	0,135162
5,425833	0,1	0,144469
5,427500	0,1	0,139796
5,429167	0,1	0,119664
5,430833	0,1	0,164079
5,432500	0,1	0,157837
5,434167	0,1	0,126046
5,435833	0,1	0,173161
5,437500	0,1	0,118092
5,439167	0,1	0,147560
5,440833	0,1	0,135313
5,442500	0,1	0,130110
5,444167	0,1	0,114217
5,445833	0,1	0,109352
5,447500	0,1	0,136881
5,449167	0,1	0,113553
5,450833	0,1	0,122398
5,452500	0,1	0,152485
5,454167	0,1	0,102983
5,455833	0,1	0,075608
5,457500	0,1	0,132569
5,459167	0,1	0,106488
5,460833	0,1	0,113420
5,462500	0,1	0,109210
5,464167	0,1	0,158545
5,465833	0,1	0,117900
5,467500	0,1	0,094351
5,469167	0,1	0,107705
5,470833	0,1	0,138955
5,472500	0,1	0,115736
5,474167	0,1	0,101624
5,475833	0,1	0,105359
5,477500	0,1	0,100828
5,479167	0,1	0,126213
5,480833	0,1	0,069632
5,482500	0,1	0,145324
5,484167	0,1	0,109753
5,485833	0,1	0,107127
5,487500	0,1	0,124809
5,489167	0,1	0,060177
5,490833	0,1	0,134230
5,492500	0,1	0,105263
5,494167	0,1	0,072120
5,495833	0,1	0,114951
5,497500	0,1	0,098135
5,499167	0,1	0,071805
5,500833	0,1	0,144617
5,502500	0,1	0,066333
5,504167	0,1	0,092634
5,505833	0,1	0,106833
5,507500	0,1	0,090067
5,509167	0,1	0,115536
5,510833	0,1	0,098090
5,512500	0,1	0,093536
5,514167	0,1	0,084581
5,515833	0,1	0,096463
5,517500	0,1	0,110156
5,519167	0,1	0,097490
5,520833	0,1	0,123660
5,522500	0,1	0,067678
5,524167	0,1	0,150705
5,525833	0,1	0,079358
5,527500	0,1	0,087902
5,529167	0,1	0,088068
5,530833	0,1	0,104688
5,532500	0,1	0,110614
5,534167	0,1	0,085041
5,535833	0,1	0,082852
5,537500	0,1	0,103485
5,539167	0,1	0,078372
5,540833	0,1	0,088835
5,542500	0,1	0,072447
5,544167	0,1	0,093741
5,545833	0,1	0,077600
5,547500	0,1	0,098951
5,549167	0,1	0,066072
5,550833	0,1	0,067996
5,552500	0,1	0,062283
5,554167	0,1	0,072503
5,555833	0,1	0,062159
5,557500	0,1	0,073666
5,559167	0,1	0,077572
5,560833	0,1	0,066523
5,562500	0,1	0,092258
5,564167	0,1	0,097190
5,565833	0,1	0,095760
5,567500	0,1	0,083522
5,569167	0,1	0,043049
5,570833	0,1	0,087374
5,572500	0,1	0,112542
5,574167	0,1	0,075861
5,575833	0,1	0,066356
5,577500	0,1	0,105807
5,579167	0,1	0,059610
5,580833	0,1	0,076075
5,582500	0,1	0,068163
5,584167	0,1	0,060975
5,585833	0,1	0,056340
5,587500	0,1	0,073104
5,589167	0,1	0,111250
5,590833	0,1	0,076254
5,592500	0,1	0,057340
5,594167	0,1	0,063548
5,595833	0,1	0,080271
5,597500	0,1	0,049636
5,599167	0,1	0,076716
5,600833	0,1	0,080817
5,602500	0,1	0,075603
5,604167	0,1	0,056446
5,605833	0,1	0,040591
5,607500	0,1	0,084630
5,609167	0,1	0,040660
5,610833	0,1	0,055918
5,612500	0,1	0,062841
5,614167	0,1	0,086711
5,615833	0,1	0,077763
5,617500	0,1	0,048659
5,619167	0,1	0,099755
5,620833	0,1	0,094699
5,622500	0,1	0,077309
5,624167	0,1	0,045189
5,625833	0,1	0,056067
5,627500	0,1	0,043042
5,629167	0,1	0,088057
5,630833	0,1	0,044298
5,632500	0,1	0,061715
5,634167	0,1	0,053577
5,635833	0,1	0,075015
5,637500	0,1	0,105809
5,639167	0,1	0,094074
5,640833	0,1	0,056473
5,642500	0,1	0,059165
5,644167	0,1	0,084677
5,645833	0,1	0,098748
5,647500	0,1	0,050822
5,649167	0,1	0,055921
5,650833	0,1	0,058041
5,652500	0,1	0,066187
5,654167	0,1	0,064546
5,655833	0,1	0,053098
5,657500	0,1	0,045640
5,659167	0,1	0,094397
5,660833	0,1	0,069666
5,662500	0,1	0,048697
5,664167	0,1	0,070756
5,665833	0,1	0,096892
5,667500	0,1	0,103858
5,669167	0,1	0,060441
5,670833	0,1	0,085217
5,672500	0,1	0,051796
5,674167	0,1	0,108481
5,675833	0,1	0,092062
5,677500	0,1	0,070930
5,679167	0,1	0,083305
5,680833	0,1	0,082476
5,682500	0,1	0,107639
5,684167	0,1	0,093061
5,685833	0,1	0,105270
5,687500	0,1	0,112382
5,689167	0,1	0,075673
5,690833	0,1	0,088691
5,692500	0,1	0,065652
5,694167	0,1	0,078796
5,695833	0,1	0,074233
5,697500	0,1	0,069119
5,699167	0,1	0,096499
5,700833	0,1	0,046834
5,702500	0,1	0,066080
5,704167	0,1	0,094026
5,705833	0,1	0,128168
5,707500	0,1	0,148747
5,709167	0,1	0,083368
5,710833	0,1	0,102361
5,712500	0,1	0,090710
5,714167	0,1	0,135667
5,715833	0,1	0,081206
5,717500	0,1	0,106100
5,719167	0,1	0,100953
5,720833	0,1	0,125097
5,722500	0,1	0,116001
5,724167	0,1	0,113381
5,725833	0,1	0,116601
5,727500	0,1	0,132808
5,729167	0,1	0,115255
5,730833	0,1	0,147182
5,732500	0,1	0,121762
5,734167	0,1	0,104532
5,735833	0,1	0,122311
5,737500	0,1	0,065329
5,739167	0,1	0,112599
5,740833	0,1	0,072497
5,742500	0,1	0,092635
5,744167	0,1	0,110548
5,745833	0,1	0,134094
5,747500	0,1	0,117416
5,749167	0,1	0,133766
5,750833	0,1	0,082014
5,752500	0,1	0,122139
5,754167	0,1	0,097218
5,755833	0,1	0,122394
5,757500	0,1	0,095372
5,759167	0,1	0,092870
5,760833	0,1	0,084849
5,762500	0,1	0,092245
5,764167	0,1	0,147757
5,765833	0,1	0,119578
5,767500	0,1	0,120775
5,769167	0,1	0,093872
5,770833	0,1	0,091540
5,772500	0,1	0,084416
5,774167	0,1	0,162075
5,775833	0,1	0,072942
5,777500	0,1	0,096499
5,779167	0,1	0,169289
5,780833	0,1	0,100098
5,782500	0,1	0,080760
5,784167	0,1	0,102071
5,785833	0,1	0,103695
5,787500	0,1	0,134335
5,789167	0,1	0,115318
5,790833	0,1	0,083921
5,792500	0,1	0,122391
5,794167	0,1	0,128489
5,795833	0,1	0,104680
5,797500	0,1	0,133031
5,799167	0,1	0,131523
5,800833	0,1	0,125309
5,802500	0,1	0,101626
5,804167	0,1	0,113088
5,805833	0,1	0,075423
5,807500	0,1	0,112556
5,809167	0,1	0,124141
5,810833	0,1	0,126431
5,812500	0,1	0,066887
5,814167	0,1	0,162174
5,815833	0,1	0,120933
5,817500	0,1	0,131417
5,819167	0,1	0,102310
5,820833	0,1	0,123102
5,822500	0,1	0,102496
5,824167	0,1	0,140242
5,825833	0,1	0,095290
5,827500	0,1	0,122292
5,829167	0,1	0,140184
5,830833	0,1	0,118911
5,832500	0,1	0,110680
5,834167	0,1	0,087909
5,835833	0,1	0,105624
5,837500	0,1	0,150674
5,839167	0,1	0,106618
5,840833	0,1	0,101764
5,842500	0,1	0,145787
5,844167	0,1	0,100820
5,845833	0,1	0,109843
5,847500	0,1	0,098214
5,849167	0,1	0,124138
5,850833	0,1	0,104696
5,852500	0,1	0,125553
5,854167	0,1	0,134136
5,855833	0,1	0,097576
5,857500	0,1	0,081818
5,859167	0,1	0,097876
5,860833	0,1	0,107141
5,862500	0,1	0,117762
5,864167	0,1	0,085853
5,865833	0,1	0,122934
5,867500	0,1	0,130154
5,869167	0,1	0,082368
5,870833	0,1	0,105581
5,872500	0,1	0,098982
5,874167	0,1	0,076189
5,875833	0,1	0,092761
5,877500	0,1	0,100762
5,879167	0,1	0,100851
5,880833	0,1	0,070061
5,882500	0,1	0,092864
5,884167	0,1	0,107432
5,885833	0,1	0,134194
5,887500	0,1	0,086439
5,889167	0,1	0,065631
5,890833	0,1	0,090474
5,892500	0,1	0,128770
5,894167	0,1	0,088391
5,895833	0,1	0,053833
5,897500	0,1	0,079562
5,899167	0,1	0,059627
5,900833	0,1	0,087354
5,902500	0,1	0,079594
5,904167	0,1	0,098019
5,905833	0,1	0,045609
5,907500	0,1	0,109666
5,909167	0,1	0,068421
5,910833	0,1	0,081834
5,912500	0,1	0,078719
5,914167	0,1	0,128557
5,915833	0,1	0,079809
5,917500	0,1	0,085925
5,919167	0,1	0,088547
5,920833	0,1	0,073028
5,922500	0,1	0,041531
5,924167	0,1	0,112280
5,925833	0,1	0,076711
5,927500	0,1	0,040369
5,929167	0,1	0,104882
5,930833	0,1	0,047624
5,932500	0,1	0,053948
5,934167	0,1	0,081163
5,935833	0,1	0,086301
5,937500	0,1	0,076892
5,939167	0,1	0,088214
5,940833	0,1	0,054579
5,942500	0,1	0,059684
5,944167	0,1	0,079399
5,945833	0,1	0,062743
5,947500	0,1	0,029563
5,949167	0,1	0,073179
5,950833	0,1	0,086257
5,952500	0,1	0,069952
5,954167	0,1	0,064714
5,955833	0,1	0,050920
5,957500	0,1	0,073828
5,959167	0,1	0,029897
5,960833	0,1	0,063206
5,962500	0,1	0,032576
5,964167	0,1	0,050643
5,965833	0,1	0,051248
5,967500	0,1	0,051041
5,969167	0,1	0,086252
5,970833	0,1	0,063099
5,972500	0,1	0,057047
5,974167	0,1	0,060660
5,975833	0,1	0,102334
5,977500	0,1	0,047853
5,979167	0,1	0,088246
5,980833	0,1	0,071448
5,982500	0,1	0,067041
5,984167	0,1	0,079959
5,985833	0,1	0,018453
5,987500	0,1	0,091459
5,989167	0,1	0,112898
5,990833	0,1	0,078124
5,992500	0,1	0,061786
5,994167	0,1	0,074685
5,995833	0,1	0,066481
5,997500	0,1	0,040906
5,999167	0,1	0,016991
6,000833	0,1	0,040582
