File Path	chrom://chromeleon01/ikbm_chromeleon/2022/Rezex/Esteban/220612_chitin_4_7.seq/325.smp/UV_VIS_1.channel/UV_VIS_1.chm
Channel	UV_VIS_1

Injection Information:
Data Vault	ikbm_chromeleon
Injection	4_24h-ChiBS_1
Injection Number	15
Position	RB4
Comment	
Processing Method	New ProcMethod
Instrument Method	Short_Rezex_6min_194nm
Type	Unknown
Status	Finished
Injection Date	12.06.2022
Injection Time	18:44:49
Injection Volume (µl)	8,000
Dilution Factor	1,0000
Weight	1,0000

Chromatogram Data Information:
Time Min. (min)	0,000833
Time Max. (min)	6,000833
Data Points	3601
Detector	UV
Generating Data System	Chromeleon 7.2.9.11323
Exporting Data System	Chromeleon 7.2.9.0
Operator	Instrument Controller
Signal Quantity	Absorbance
Signal Unit	mAU
Signal Min.	-0,038725
Signal Max.	118,134583
Channel	UV_VIS_1
Driver Name	VWD3000.dll
Channel Type	Evaluation
Min. Step (s)	0,1
Max. Step (s)	0,1
Average Step (s)	0,1

Signal Parameter Information:
Signal Info	WVL:194 nm

Chromatogram Data:
Time (min)	Step (s)	Value (mAU)
0,000833	n.a.	0,013114
0,002500	0,1	0,091808
0,004167	0,1	0,043346
0,005833	0,1	0,018826
0,007500	0,1	0,063290
0,009167	0,1	0,034324
0,010833	0,1	0,063651
0,012500	0,1	0,017121
0,014167	0,1	0,021664
0,015833	0,1	0,014485
0,017500	0,1	0,052823
0,019167	0,1	0,020800
0,020833	0,1	0,020444
0,022500	0,1	0,070797
0,024167	0,1	0,033568
0,025833	0,1	0,063838
0,027500	0,1	0,020746
0,029167	0,1	0,019277
0,030833	0,1	-0,007886
0,032500	0,1	-0,016841
0,034167	0,1	0,006049
0,035833	0,1	-0,030093
0,037500	0,1	-0,015567
0,039167	0,1	0,005928
0,040833	0,1	0,045272
0,042500	0,1	-0,028663
0,044167	0,1	0,035549
0,045833	0,1	0,015598
0,047500	0,1	0,060250
0,049167	0,1	0,013019
0,050833	0,1	0,025600
0,052500	0,1	0,021267
0,054167	0,1	0,013777
0,055833	0,1	0,040996
0,057500	0,1	0,043571
0,059167	0,1	0,035665
0,060833	0,1	0,031621
0,062500	0,1	0,024903
0,064167	0,1	0,037249
0,065833	0,1	0,008922
0,067500	0,1	0,012714
0,069167	0,1	0,050247
0,070833	0,1	0,016937
0,072500	0,1	0,029001
0,074167	0,1	0,087241
0,075833	0,1	0,058985
0,077500	0,1	0,055515
0,079167	0,1	0,030925
0,080833	0,1	0,046379
0,082500	0,1	0,002184
0,084167	0,1	0,030919
0,085833	0,1	0,055632
0,087500	0,1	0,083032
0,089167	0,1	0,064187
0,090833	0,1	0,047970
0,092500	0,1	0,029170
0,094167	0,1	0,077702
0,095833	0,1	0,050955
0,097500	0,1	0,034794
0,099167	0,1	0,045444
0,100833	0,1	0,062833
0,102500	0,1	0,051661
0,104167	0,1	0,034747
0,105833	0,1	0,048026
0,107500	0,1	0,039180
0,109167	0,1	0,032501
0,110833	0,1	0,036493
0,112500	0,1	0,020340
0,114167	0,1	0,035773
0,115833	0,1	0,032453
0,117500	0,1	-0,012552
0,119167	0,1	-0,031184
0,120833	0,1	0,012826
0,122500	0,1	-0,038725
0,124167	0,1	0,049176
0,125833	0,1	0,061022
0,127500	0,1	0,002244
0,129167	0,1	-0,010401
0,130833	0,1	0,026768
0,132500	0,1	0,012491
0,134167	0,1	0,020620
0,135833	0,1	0,062068
0,137500	0,1	0,046682
0,139167	0,1	0,025192
0,140833	0,1	0,053004
0,142500	0,1	0,053955
0,144167	0,1	0,051121
0,145833	0,1	0,059671
0,147500	0,1	0,038123
0,149167	0,1	0,053979
0,150833	0,1	0,044567
0,152500	0,1	0,033162
0,154167	0,1	0,059553
0,155833	0,1	0,042409
0,157500	0,1	0,016764
0,159167	0,1	0,056744
0,160833	0,1	0,046166
0,162500	0,1	0,071024
0,164167	0,1	0,045574
0,165833	0,1	0,029236
0,167500	0,1	0,060024
0,169167	0,1	0,083677
0,170833	0,1	0,051853
0,172500	0,1	0,061953
0,174167	0,1	0,102889
0,175833	0,1	0,066659
0,177500	0,1	0,070336
0,179167	0,1	0,068934
0,180833	0,1	0,045567
0,182500	0,1	0,017449
0,184167	0,1	0,062654
0,185833	0,1	0,068337
0,187500	0,1	0,029942
0,189167	0,1	0,045792
0,190833	0,1	0,080568
0,192500	0,1	0,058391
0,194167	0,1	0,008333
0,195833	0,1	0,012714
0,197500	0,1	0,071202
0,199167	0,1	0,052356
0,200833	0,1	0,028765
0,202500	0,1	0,024772
0,204167	0,1	0,018627
0,205833	0,1	0,061896
0,207500	0,1	0,045270
0,209167	0,1	0,044216
0,210833	0,1	0,047908
0,212500	0,1	0,061660
0,214167	0,1	0,083041
0,215833	0,1	0,042579
0,217500	0,1	0,051248
0,219167	0,1	0,048903
0,220833	0,1	0,100597
0,222500	0,1	0,055296
0,224167	0,1	0,039426
0,225833	0,1	0,050841
0,227500	0,1	0,094859
0,229167	0,1	0,070048
0,230833	0,1	0,059153
0,232500	0,1	0,078061
0,234167	0,1	0,086200
0,235833	0,1	0,054005
0,237500	0,1	0,074082
0,239167	0,1	0,065372
0,240833	0,1	0,055468
0,242500	0,1	0,042874
0,244167	0,1	0,015419
0,245833	0,1	0,021331
0,247500	0,1	0,051008
0,249167	0,1	0,083683
0,250833	0,1	0,061268
0,252500	0,1	0,051303
0,254167	0,1	0,055456
0,255833	0,1	0,044333
0,257500	0,1	0,054811
0,259167	0,1	0,047029
0,260833	0,1	0,083616
0,262500	0,1	0,106344
0,264167	0,1	0,064370
0,265833	0,1	0,062079
0,267500	0,1	0,039827
0,269167	0,1	0,109254
0,270833	0,1	0,060916
0,272500	0,1	0,058621
0,274167	0,1	0,100013
0,275833	0,1	0,066423
0,277500	0,1	0,077010
0,279167	0,1	0,073850
0,280833	0,1	0,042469
0,282500	0,1	0,085247
0,284167	0,1	0,027002
0,285833	0,1	0,070318
0,287500	0,1	0,061036
0,289167	0,1	0,105814
0,290833	0,1	0,047450
0,292500	0,1	0,053710
0,294167	0,1	0,085665
0,295833	0,1	0,064660
0,297500	0,1	0,068160
0,299167	0,1	0,065420
0,300833	0,1	0,078827
0,302500	0,1	0,047907
0,304167	0,1	0,092645
0,305833	0,1	0,107634
0,307500	0,1	0,057173
0,309167	0,1	0,094981
0,310833	0,1	0,070042
0,312500	0,1	0,011375
0,314167	0,1	0,077520
0,315833	0,1	0,076011
0,317500	0,1	0,043415
0,319167	0,1	0,048079
0,320833	0,1	0,109088
0,322500	0,1	0,063025
0,324167	0,1	0,052477
0,325833	0,1	0,107030
0,327500	0,1	0,093290
0,329167	0,1	0,078771
0,330833	0,1	0,083037
0,332500	0,1	0,102243
0,334167	0,1	0,083100
0,335833	0,1	0,004551
0,337500	0,1	0,060247
0,339167	0,1	0,073775
0,340833	0,1	0,081814
0,342500	0,1	0,086080
0,344167	0,1	0,091648
0,345833	0,1	0,110854
0,347500	0,1	0,080469
0,349167	0,1	0,075482
0,350833	0,1	0,059792
0,352500	0,1	0,069275
0,354167	0,1	0,073433
0,355833	0,1	0,070280
0,357500	0,1	0,140473
0,359167	0,1	0,072529
0,360833	0,1	0,063540
0,362500	0,1	0,054881
0,364167	0,1	0,091403
0,365833	0,1	0,095033
0,367500	0,1	0,088946
0,369167	0,1	0,070519
0,370833	0,1	0,101883
0,372500	0,1	0,112087
0,374167	0,1	0,084099
0,375833	0,1	0,073151
0,377500	0,1	0,095923
0,379167	0,1	0,072796
0,380833	0,1	0,068111
0,382500	0,1	0,052942
0,384167	0,1	0,103231
0,385833	0,1	0,073607
0,387500	0,1	0,111436
0,389167	0,1	0,071225
0,390833	0,1	0,128823
0,392500	0,1	0,087565
0,394167	0,1	0,096863
0,395833	0,1	0,117000
0,397500	0,1	0,078834
0,399167	0,1	0,105641
0,400833	0,1	0,080877
0,402500	0,1	0,103468
0,404167	0,1	0,116300
0,405833	0,1	0,118587
0,407500	0,1	0,113895
0,409167	0,1	0,094637
0,410833	0,1	0,095227
0,412500	0,1	0,146221
0,414167	0,1	0,122988
0,415833	0,1	0,144177
0,417500	0,1	0,096876
0,419167	0,1	0,088952
0,420833	0,1	0,083970
0,422500	0,1	0,128941
0,424167	0,1	0,103369
0,425833	0,1	0,076604
0,427500	0,1	0,115415
0,429167	0,1	0,100957
0,430833	0,1	0,108158
0,432500	0,1	0,124554
0,434167	0,1	0,141364
0,435833	0,1	0,110571
0,437500	0,1	0,121397
0,439167	0,1	0,128019
0,440833	0,1	0,089082
0,442500	0,1	0,135624
0,444167	0,1	0,132174
0,445833	0,1	0,117940
0,447500	0,1	0,121513
0,449167	0,1	0,095812
0,450833	0,1	0,065764
0,452500	0,1	0,114646
0,454167	0,1	0,127723
0,455833	0,1	0,132689
0,457500	0,1	0,062845
0,459167	0,1	0,109259
0,460833	0,1	0,101834
0,462500	0,1	0,149443
0,464167	0,1	0,131004
0,465833	0,1	0,103772
0,467500	0,1	0,096853
0,469167	0,1	0,099907
0,470833	0,1	0,148385
0,472500	0,1	0,100269
0,474167	0,1	0,140829
0,475833	0,1	0,111797
0,477500	0,1	0,115658
0,479167	0,1	0,109621
0,480833	0,1	0,119517
0,482500	0,1	0,120520
0,484167	0,1	0,125845
0,485833	0,1	0,127426
0,487500	0,1	0,134154
0,489167	0,1	0,115135
0,490833	0,1	0,119396
0,492500	0,1	0,148447
0,494167	0,1	0,126615
0,495833	0,1	0,144293
0,497500	0,1	0,101965
0,499167	0,1	0,161791
0,500833	0,1	0,156647
0,502500	0,1	0,150676
0,504167	0,1	0,127370
0,505833	0,1	0,132406
0,507500	0,1	0,127370
0,509167	0,1	0,137025
0,510833	0,1	0,134049
0,512500	0,1	0,093297
0,514167	0,1	0,155698
0,515833	0,1	0,126375
0,517500	0,1	0,138789
0,519167	0,1	0,167895
0,520833	0,1	0,157770
0,522500	0,1	0,148802
0,524167	0,1	0,144068
0,525833	0,1	0,149202
0,527500	0,1	0,172746
0,529167	0,1	0,139141
0,530833	0,1	0,168245
0,532500	0,1	0,182710
0,534167	0,1	0,112213
0,535833	0,1	0,160092
0,537500	0,1	0,125095
0,539167	0,1	0,168058
0,540833	0,1	0,156716
0,542500	0,1	0,173113
0,544167	0,1	0,165494
0,545833	0,1	0,155424
0,547500	0,1	0,165082
0,549167	0,1	0,138794
0,550833	0,1	0,119057
0,552500	0,1	0,131227
0,554167	0,1	0,166368
0,555833	0,1	0,167251
0,557500	0,1	0,165729
0,559167	0,1	0,147458
0,560833	0,1	0,173870
0,562500	0,1	0,150572
0,564167	0,1	0,129774
0,565833	0,1	0,157646
0,567500	0,1	0,187158
0,569167	0,1	0,145233
0,570833	0,1	0,144636
0,572500	0,1	0,169290
0,574167	0,1	0,224057
0,575833	0,1	0,184713
0,577500	0,1	0,176330
0,579167	0,1	0,160342
0,580833	0,1	0,160921
0,582500	0,1	0,202441
0,584167	0,1	0,199109
0,585833	0,1	0,156598
0,587500	0,1	0,204719
0,589167	0,1	0,176104
0,590833	0,1	0,173989
0,592500	0,1	0,160107
0,594167	0,1	0,171582
0,595833	0,1	0,190728
0,597500	0,1	0,193202
0,599167	0,1	0,219727
0,600833	0,1	0,191095
0,602500	0,1	0,175925
0,604167	0,1	0,192956
0,605833	0,1	0,207073
0,607500	0,1	0,198937
0,609167	0,1	0,193259
0,610833	0,1	0,186522
0,612500	0,1	0,188742
0,614167	0,1	0,221005
0,615833	0,1	0,208434
0,617500	0,1	0,165210
0,619167	0,1	0,221122
0,620833	0,1	0,193317
0,622500	0,1	0,193608
0,624167	0,1	0,210470
0,625833	0,1	0,201217
0,627500	0,1	0,205319
0,629167	0,1	0,218319
0,630833	0,1	0,217147
0,632500	0,1	0,220254
0,634167	0,1	0,221309
0,635833	0,1	0,186645
0,637500	0,1	0,163273
0,639167	0,1	0,229498
0,640833	0,1	0,209485
0,642500	0,1	0,210590
0,644167	0,1	0,217734
0,645833	0,1	0,228628
0,647500	0,1	0,220025
0,649167	0,1	0,215454
0,650833	0,1	0,224007
0,652500	0,1	0,251412
0,654167	0,1	0,234904
0,655833	0,1	0,230273
0,657500	0,1	0,254809
0,659167	0,1	0,189515
0,660833	0,1	0,264464
0,662500	0,1	0,249311
0,664167	0,1	0,239239
0,665833	0,1	0,272326
0,667500	0,1	0,281058
0,669167	0,1	0,242873
0,670833	0,1	0,239997
0,672500	0,1	0,267812
0,674167	0,1	0,250368
0,675833	0,1	0,249370
0,677500	0,1	0,275782
0,679167	0,1	0,276841
0,680833	0,1	0,264779
0,682500	0,1	0,278479
0,684167	0,1	0,246564
0,685833	0,1	0,283396
0,687500	0,1	0,244689
0,689167	0,1	0,260843
0,690833	0,1	0,300441
0,692500	0,1	0,242818
0,694167	0,1	0,278824
0,695833	0,1	0,258860
0,697500	0,1	0,250598
0,699167	0,1	0,273148
0,700833	0,1	0,289139
0,702500	0,1	0,227936
0,704167	0,1	0,275420
0,705833	0,1	0,293591
0,707500	0,1	0,277311
0,709167	0,1	0,273678
0,710833	0,1	0,349413
0,712500	0,1	0,282482
0,714167	0,1	0,297400
0,715833	0,1	0,293596
0,717500	0,1	0,308119
0,719167	0,1	0,286862
0,720833	0,1	0,353047
0,722500	0,1	0,345096
0,724167	0,1	0,340172
0,725833	0,1	0,288627
0,727500	0,1	0,279362
0,729167	0,1	0,307941
0,730833	0,1	0,315682
0,732500	0,1	0,317439
0,734167	0,1	0,331554
0,735833	0,1	0,311819
0,737500	0,1	0,325697
0,739167	0,1	0,362780
0,740833	0,1	0,338010
0,742500	0,1	0,374498
0,744167	0,1	0,352422
0,745833	0,1	0,339766
0,747500	0,1	0,382174
0,749167	0,1	0,346273
0,750833	0,1	0,362139
0,752500	0,1	0,335197
0,754167	0,1	0,413163
0,755833	0,1	0,375220
0,757500	0,1	0,377435
0,759167	0,1	0,370758
0,760833	0,1	0,373862
0,762500	0,1	0,352364
0,764167	0,1	0,383700
0,765833	0,1	0,378902
0,767500	0,1	0,409657
0,769167	0,1	0,358171
0,770833	0,1	0,410649
0,772500	0,1	0,401639
0,774167	0,1	0,380138
0,775833	0,1	0,399464
0,777500	0,1	0,356528
0,779167	0,1	0,386103
0,780833	0,1	0,347212
0,782500	0,1	0,413283
0,784167	0,1	0,373285
0,785833	0,1	0,402098
0,787500	0,1	0,396247
0,789167	0,1	0,374453
0,790833	0,1	0,404209
0,792500	0,1	0,389863
0,794167	0,1	0,396713
0,795833	0,1	0,390096
0,797500	0,1	0,377557
0,799167	0,1	0,399699
0,800833	0,1	0,419564
0,802500	0,1	0,365144
0,804167	0,1	0,353123
0,805833	0,1	0,391490
0,807500	0,1	0,388335
0,809167	0,1	0,389741
0,810833	0,1	0,417569
0,812500	0,1	0,386643
0,814167	0,1	0,365839
0,815833	0,1	0,361089
0,817500	0,1	0,410589
0,819167	0,1	0,379672
0,820833	0,1	0,394659
0,822500	0,1	0,380018
0,824167	0,1	0,413232
0,825833	0,1	0,378441
0,827500	0,1	0,411533
0,829167	0,1	0,395019
0,830833	0,1	0,420851
0,832500	0,1	0,378209
0,834167	0,1	0,395303
0,835833	0,1	0,433270
0,837500	0,1	0,369074
0,839167	0,1	0,395769
0,840833	0,1	0,400815
0,842500	0,1	0,398240
0,844167	0,1	0,397944
0,845833	0,1	0,421553
0,847500	0,1	0,413945
0,849167	0,1	0,404100
0,850833	0,1	0,405563
0,852500	0,1	0,417516
0,854167	0,1	0,428414
0,855833	0,1	0,407503
0,857500	0,1	0,392383
0,859167	0,1	0,412649
0,860833	0,1	0,408026
0,862500	0,1	0,418686
0,864167	0,1	0,428355
0,865833	0,1	0,410374
0,867500	0,1	0,450380
0,869167	0,1	0,411022
0,870833	0,1	0,446925
0,872500	0,1	0,470485
0,874167	0,1	0,483912
0,875833	0,1	0,459483
0,877500	0,1	0,436978
0,879167	0,1	0,451561
0,880833	0,1	0,445590
0,882500	0,1	0,444065
0,884167	0,1	0,447987
0,885833	0,1	0,419166
0,887500	0,1	0,439138
0,889167	0,1	0,463398
0,890833	0,1	0,435982
0,892500	0,1	0,476932
0,894167	0,1	0,471726
0,895833	0,1	0,434989
0,897500	0,1	0,480681
0,899167	0,1	0,488486
0,900833	0,1	0,464758
0,902500	0,1	0,439499
0,904167	0,1	0,498025
0,905833	0,1	0,472667
0,907500	0,1	0,477644
0,909167	0,1	0,493406
0,910833	0,1	0,477822
0,912500	0,1	0,481335
0,914167	0,1	0,502608
0,915833	0,1	0,494291
0,917500	0,1	0,472848
0,919167	0,1	0,515083
0,920833	0,1	0,473670
0,922500	0,1	0,537118
0,924167	0,1	0,511703
0,925833	0,1	0,482929
0,927500	0,1	0,489250
0,929167	0,1	0,507122
0,930833	0,1	0,555880
0,932500	0,1	0,527765
0,934167	0,1	0,538836
0,935833	0,1	0,570304
0,937500	0,1	0,530582
0,939167	0,1	0,569539
0,940833	0,1	0,567558
0,942500	0,1	0,518506
0,944167	0,1	0,525938
0,945833	0,1	0,517267
0,947500	0,1	0,578392
0,949167	0,1	0,589713
0,950833	0,1	0,592831
0,952500	0,1	0,586904
0,954167	0,1	0,589596
0,955833	0,1	0,604370
0,957500	0,1	0,560947
0,959167	0,1	0,596041
0,960833	0,1	0,575538
0,962500	0,1	0,572786
0,964167	0,1	0,606187
0,965833	0,1	0,623425
0,967500	0,1	0,617805
0,969167	0,1	0,626651
0,970833	0,1	0,617918
0,972500	0,1	0,596993
0,974167	0,1	0,566047
0,975833	0,1	0,628864
0,977500	0,1	0,574729
0,979167	0,1	0,608126
0,980833	0,1	0,638486
0,982500	0,1	0,607020
0,984167	0,1	0,630868
0,985833	0,1	0,672726
0,987500	0,1	0,648997
0,989167	0,1	0,671329
0,990833	0,1	0,684807
0,992500	0,1	0,670752
0,994167	0,1	0,701753
0,995833	0,1	0,702459
0,997500	0,1	0,690792
0,999167	0,1	0,689215
1,000833	0,1	0,698593
1,002500	0,1	0,705645
1,004167	0,1	0,709389
1,005833	0,1	0,752539
1,007500	0,1	0,755835
1,009167	0,1	0,775355
1,010833	0,1	0,759951
1,012500	0,1	0,764100
1,014167	0,1	0,787571
1,015833	0,1	0,830713
1,017500	0,1	0,844161
1,019167	0,1	0,840597
1,020833	0,1	0,843336
1,022500	0,1	0,862044
1,024167	0,1	0,897531
1,025833	0,1	0,914082
1,027500	0,1	0,919845
1,029167	0,1	0,891044
1,030833	0,1	0,910563
1,032500	0,1	0,941828
1,034167	0,1	0,892815
1,035833	0,1	0,975255
1,037500	0,1	0,982311
1,039167	0,1	0,978580
1,040833	0,1	0,968871
1,042500	0,1	1,018433
1,044167	0,1	0,975469
1,045833	0,1	0,994417
1,047500	0,1	1,035877
1,049167	0,1	1,064806
1,050833	0,1	1,057898
1,052500	0,1	1,095393
1,054167	0,1	1,188419
1,055833	0,1	1,183502
1,057500	0,1	1,309640
1,059167	0,1	1,418072
1,060833	0,1	1,559389
1,062500	0,1	1,736436
1,064167	0,1	1,988066
1,065833	0,1	2,298777
1,067500	0,1	2,709086
1,069167	0,1	3,243271
1,070833	0,1	3,828089
1,072500	0,1	4,572709
1,074167	0,1	5,532297
1,075833	0,1	6,586667
1,077500	0,1	7,853144
1,079167	0,1	9,255061
1,080833	0,1	10,844543
1,082500	0,1	12,652113
1,084167	0,1	14,652947
1,085833	0,1	16,823190
1,087500	0,1	19,077847
1,089167	0,1	21,493985
1,090833	0,1	23,966155
1,092500	0,1	26,513988
1,094167	0,1	29,097906
1,095833	0,1	31,703663
1,097500	0,1	34,148486
1,099167	0,1	36,584306
1,100833	0,1	38,861081
1,102500	0,1	40,978267
1,104167	0,1	42,890351
1,105833	0,1	44,574957
1,107500	0,1	46,067289
1,109167	0,1	47,353498
1,110833	0,1	48,328400
1,112500	0,1	49,060665
1,114167	0,1	49,633187
1,115833	0,1	49,894883
1,117500	0,1	49,942984
1,119167	0,1	49,829979
1,120833	0,1	49,539977
1,122500	0,1	49,004804
1,124167	0,1	48,340027
1,125833	0,1	47,536012
1,127500	0,1	46,666566
1,129167	0,1	45,623974
1,130833	0,1	44,540127
1,132500	0,1	43,388791
1,134167	0,1	42,167220
1,135833	0,1	40,922500
1,137500	0,1	39,673257
1,139167	0,1	38,370182
1,140833	0,1	37,071649
1,142500	0,1	35,807215
1,144167	0,1	34,670734
1,145833	0,1	33,420774
1,147500	0,1	32,274495
1,149167	0,1	31,188433
1,150833	0,1	30,107275
1,152500	0,1	29,126600
1,154167	0,1	28,195232
1,155833	0,1	27,292773
1,157500	0,1	26,525621
1,159167	0,1	25,718626
1,160833	0,1	24,992743
1,162500	0,1	24,353886
1,164167	0,1	23,739515
1,165833	0,1	23,131434
1,167500	0,1	22,602229
1,169167	0,1	22,153011
1,170833	0,1	21,658197
1,172500	0,1	21,202237
1,174167	0,1	20,819273
1,175833	0,1	20,472568
1,177500	0,1	20,115583
1,179167	0,1	19,730926
1,180833	0,1	19,425171
1,182500	0,1	19,179274
1,184167	0,1	18,912073
1,185833	0,1	18,718934
1,187500	0,1	18,568242
1,189167	0,1	18,452099
1,190833	0,1	18,419002
1,192500	0,1	18,448032
1,194167	0,1	18,564053
1,195833	0,1	18,849961
1,197500	0,1	19,206533
1,199167	0,1	19,732757
1,200833	0,1	20,470207
1,202500	0,1	21,460691
1,204167	0,1	22,578630
1,205833	0,1	24,002249
1,207500	0,1	25,703850
1,209167	0,1	27,647840
1,210833	0,1	29,885353
1,212500	0,1	32,464093
1,214167	0,1	35,322823
1,215833	0,1	38,455890
1,217500	0,1	41,878779
1,219167	0,1	45,508416
1,220833	0,1	49,405250
1,222500	0,1	53,496624
1,224167	0,1	57,708099
1,225833	0,1	62,126660
1,227500	0,1	66,545063
1,229167	0,1	70,996565
1,230833	0,1	75,423593
1,232500	0,1	79,793946
1,234167	0,1	84,009545
1,235833	0,1	88,143856
1,237500	0,1	92,114625
1,239167	0,1	95,797614
1,240833	0,1	99,306594
1,242500	0,1	102,468564
1,244167	0,1	105,415792
1,245833	0,1	108,039871
1,247500	0,1	110,377614
1,249167	0,1	112,408588
1,250833	0,1	114,123770
1,252500	0,1	115,567198
1,254167	0,1	116,656651
1,255833	0,1	117,393602
1,257500	0,1	117,908699
1,259167	0,1	118,134583
1,260833	0,1	118,095964
1,262500	0,1	117,734438
1,264167	0,1	117,144305
1,265833	0,1	116,267345
1,267500	0,1	115,161997
1,269167	0,1	113,875948
1,270833	0,1	112,375654
1,272500	0,1	110,701259
1,274167	0,1	108,874056
1,275833	0,1	106,904866
1,277500	0,1	104,753303
1,279167	0,1	102,527669
1,280833	0,1	100,222998
1,282500	0,1	97,778365
1,284167	0,1	95,329116
1,285833	0,1	92,815138
1,287500	0,1	90,296097
1,289167	0,1	87,766082
1,290833	0,1	85,214036
1,292500	0,1	82,671695
1,294167	0,1	80,180464
1,295833	0,1	77,738962
1,297500	0,1	75,363428
1,299167	0,1	73,025826
1,300833	0,1	70,712290
1,302500	0,1	68,511890
1,304167	0,1	66,362790
1,305833	0,1	64,340375
1,307500	0,1	62,313715
1,309167	0,1	60,401746
1,310833	0,1	58,587404
1,312500	0,1	56,838811
1,314167	0,1	55,179967
1,315833	0,1	53,547843
1,317500	0,1	52,013227
1,319167	0,1	50,565123
1,320833	0,1	49,197675
1,322500	0,1	47,857664
1,324167	0,1	46,586032
1,325833	0,1	45,385022
1,327500	0,1	44,205257
1,329167	0,1	43,091160
1,330833	0,1	41,976829
1,332500	0,1	40,949884
1,334167	0,1	39,991258
1,335833	0,1	39,019410
1,337500	0,1	38,116677
1,339167	0,1	37,207621
1,340833	0,1	36,396914
1,342500	0,1	35,525328
1,344167	0,1	34,746464
1,345833	0,1	33,972237
1,347500	0,1	33,232098
1,349167	0,1	32,488132
1,350833	0,1	31,796720
1,352500	0,1	31,115136
1,354167	0,1	30,447423
1,355833	0,1	29,777003
1,357500	0,1	29,132086
1,359167	0,1	28,494994
1,360833	0,1	27,915023
1,362500	0,1	27,288101
1,364167	0,1	26,727391
1,365833	0,1	26,121123
1,367500	0,1	25,576830
1,369167	0,1	25,091765
1,370833	0,1	24,549558
1,372500	0,1	24,027023
1,374167	0,1	23,495061
1,375833	0,1	23,053870
1,377500	0,1	22,548457
1,379167	0,1	22,108554
1,380833	0,1	21,596139
1,382500	0,1	21,221429
1,384167	0,1	20,780944
1,385833	0,1	20,394015
1,387500	0,1	19,951242
1,389167	0,1	19,549391
1,390833	0,1	19,184088
1,392500	0,1	18,805756
1,394167	0,1	18,479825
1,395833	0,1	18,156048
1,397500	0,1	17,832246
1,399167	0,1	17,464624
1,400833	0,1	17,190092
1,402500	0,1	16,827405
1,404167	0,1	16,555294
1,405833	0,1	16,256881
1,407500	0,1	16,027913
1,409167	0,1	15,745778
1,410833	0,1	15,478569
1,412500	0,1	15,252153
1,414167	0,1	15,022352
1,415833	0,1	14,786323
1,417500	0,1	14,604062
1,419167	0,1	14,363532
1,420833	0,1	14,085554
1,422500	0,1	13,953773
1,424167	0,1	13,714589
1,425833	0,1	13,494810
1,427500	0,1	13,306297
1,429167	0,1	13,165031
1,430833	0,1	12,938869
1,432500	0,1	12,769020
1,434167	0,1	12,581013
1,435833	0,1	12,392951
1,437500	0,1	12,282675
1,439167	0,1	12,106777
1,440833	0,1	11,937245
1,442500	0,1	11,798206
1,444167	0,1	11,624383
1,445833	0,1	11,444451
1,447500	0,1	11,330356
1,449167	0,1	11,189150
1,450833	0,1	10,978090
1,452500	0,1	10,840654
1,454167	0,1	10,734739
1,455833	0,1	10,597605
1,457500	0,1	10,516053
1,459167	0,1	10,349952
1,460833	0,1	10,227877
1,462500	0,1	10,138681
1,464167	0,1	9,988969
1,465833	0,1	9,847292
1,467500	0,1	9,790168
1,469167	0,1	9,663306
1,470833	0,1	9,565457
1,472500	0,1	9,431670
1,474167	0,1	9,399083
1,475833	0,1	9,323082
1,477500	0,1	9,212091
1,479167	0,1	9,126191
1,480833	0,1	9,009180
1,482500	0,1	8,976533
1,484167	0,1	8,914007
1,485833	0,1	8,892403
1,487500	0,1	8,808391
1,489167	0,1	8,717818
1,490833	0,1	8,678270
1,492500	0,1	8,659515
1,494167	0,1	8,598255
1,495833	0,1	8,557330
1,497500	0,1	8,505812
1,499167	0,1	8,479925
1,500833	0,1	8,456755
1,502500	0,1	8,372922
1,504167	0,1	8,352650
1,505833	0,1	8,351513
1,507500	0,1	8,332198
1,509167	0,1	8,262541
1,510833	0,1	8,272933
1,512500	0,1	8,247999
1,514167	0,1	8,228402
1,515833	0,1	8,185003
1,517500	0,1	8,155378
1,519167	0,1	8,127257
1,520833	0,1	8,095297
1,522500	0,1	8,083765
1,524167	0,1	8,034379
1,525833	0,1	7,979477
1,527500	0,1	7,997727
1,529167	0,1	7,962505
1,530833	0,1	7,944432
1,532500	0,1	7,916698
1,534167	0,1	7,895431
1,535833	0,1	7,832210
1,537500	0,1	7,827222
1,539167	0,1	7,811776
1,540833	0,1	7,807460
1,542500	0,1	7,750061
1,544167	0,1	7,736475
1,545833	0,1	7,699474
1,547500	0,1	7,698377
1,549167	0,1	7,627110
1,550833	0,1	7,609322
1,552500	0,1	7,573920
1,554167	0,1	7,563721
1,555833	0,1	7,554556
1,557500	0,1	7,521577
1,559167	0,1	7,476586
1,560833	0,1	7,479489
1,562500	0,1	7,452352
1,564167	0,1	7,452459
1,565833	0,1	7,384971
1,567500	0,1	7,406295
1,569167	0,1	7,361872
1,570833	0,1	7,312267
1,572500	0,1	7,279621
1,574167	0,1	7,268292
1,575833	0,1	7,241656
1,577500	0,1	7,212563
1,579167	0,1	7,215369
1,580833	0,1	7,198084
1,582500	0,1	7,155327
1,584167	0,1	7,137080
1,585833	0,1	7,115760
1,587500	0,1	7,091437
1,589167	0,1	7,060233
1,590833	0,1	7,064594
1,592500	0,1	6,995451
1,594167	0,1	7,016724
1,595833	0,1	6,951355
1,597500	0,1	6,948778
1,599167	0,1	6,936155
1,600833	0,1	6,963645
1,602500	0,1	6,888494
1,604167	0,1	6,861766
1,605833	0,1	6,852537
1,607500	0,1	6,807455
1,609167	0,1	6,808227
1,610833	0,1	6,761232
1,612500	0,1	6,736373
1,614167	0,1	6,705112
1,615833	0,1	6,671454
1,617500	0,1	6,655975
1,619167	0,1	6,638848
1,620833	0,1	6,649806
1,622500	0,1	6,584592
1,624167	0,1	6,583355
1,625833	0,1	6,546962
1,627500	0,1	6,529331
1,629167	0,1	6,521424
1,630833	0,1	6,470707
1,632500	0,1	6,453447
1,634167	0,1	6,441707
1,635833	0,1	6,406764
1,637500	0,1	6,405931
1,639167	0,1	6,358750
1,640833	0,1	6,348371
1,642500	0,1	6,326811
1,644167	0,1	6,334872
1,645833	0,1	6,306188
1,647500	0,1	6,253387
1,649167	0,1	6,257776
1,650833	0,1	6,263745
1,652500	0,1	6,179347
1,654167	0,1	6,178368
1,655833	0,1	6,154489
1,657500	0,1	6,111590
1,659167	0,1	6,104596
1,660833	0,1	6,097665
1,662500	0,1	6,085460
1,664167	0,1	6,047042
1,665833	0,1	6,066398
1,667500	0,1	6,043605
1,669167	0,1	6,071421
1,670833	0,1	6,030550
1,672500	0,1	6,051748
1,674167	0,1	6,065547
1,675833	0,1	6,068478
1,677500	0,1	6,046534
1,679167	0,1	6,062248
1,680833	0,1	6,062083
1,682500	0,1	6,080764
1,684167	0,1	6,098177
1,685833	0,1	6,113165
1,687500	0,1	6,105409
1,689167	0,1	6,125426
1,690833	0,1	6,127316
1,692500	0,1	6,162820
1,694167	0,1	6,200422
1,695833	0,1	6,204947
1,697500	0,1	6,184928
1,699167	0,1	6,237798
1,700833	0,1	6,279214
1,702500	0,1	6,294445
1,704167	0,1	6,330121
1,705833	0,1	6,367425
1,707500	0,1	6,368596
1,709167	0,1	6,395639
1,710833	0,1	6,454565
1,712500	0,1	6,466227
1,714167	0,1	6,513962
1,715833	0,1	6,538413
1,717500	0,1	6,524926
1,719167	0,1	6,599336
1,720833	0,1	6,630903
1,722500	0,1	6,613582
1,724167	0,1	6,604452
1,725833	0,1	6,647113
1,727500	0,1	6,651960
1,729167	0,1	6,705332
1,730833	0,1	6,681855
1,732500	0,1	6,693549
1,734167	0,1	6,721556
1,735833	0,1	6,664573
1,737500	0,1	6,737199
1,739167	0,1	6,658739
1,740833	0,1	6,727825
1,742500	0,1	6,641653
1,744167	0,1	6,642286
1,745833	0,1	6,653660
1,747500	0,1	6,662515
1,749167	0,1	6,585989
1,750833	0,1	6,604382
1,752500	0,1	6,608567
1,754167	0,1	6,550940
1,755833	0,1	6,487447
1,757500	0,1	6,437459
1,759167	0,1	6,441506
1,760833	0,1	6,418385
1,762500	0,1	6,379318
1,764167	0,1	6,375161
1,765833	0,1	6,285752
1,767500	0,1	6,258097
1,769167	0,1	6,239947
1,770833	0,1	6,171820
1,772500	0,1	6,132287
1,774167	0,1	6,060943
1,775833	0,1	6,023818
1,777500	0,1	5,984409
1,779167	0,1	5,949036
1,780833	0,1	5,907911
1,782500	0,1	5,845792
1,784167	0,1	5,802582
1,785833	0,1	5,749736
1,787500	0,1	5,690602
1,789167	0,1	5,620602
1,790833	0,1	5,624778
1,792500	0,1	5,537234
1,794167	0,1	5,501106
1,795833	0,1	5,436352
1,797500	0,1	5,409038
1,799167	0,1	5,365809
1,800833	0,1	5,320791
1,802500	0,1	5,233853
1,804167	0,1	5,232733
1,805833	0,1	5,159394
1,807500	0,1	5,123479
1,809167	0,1	5,075174
1,810833	0,1	5,012381
1,812500	0,1	4,976565
1,814167	0,1	4,929179
1,815833	0,1	4,889371
1,817500	0,1	4,895221
1,819167	0,1	4,819078
1,820833	0,1	4,777111
1,822500	0,1	4,731724
1,824167	0,1	4,728822
1,825833	0,1	4,639118
1,827500	0,1	4,658330
1,829167	0,1	4,597534
1,830833	0,1	4,579224
1,832500	0,1	4,526918
1,834167	0,1	4,545718
1,835833	0,1	4,513041
1,837500	0,1	4,540685
1,839167	0,1	4,530185
1,840833	0,1	4,501845
1,842500	0,1	4,545655
1,844167	0,1	4,571303
1,845833	0,1	4,561705
1,847500	0,1	4,617502
1,849167	0,1	4,643436
1,850833	0,1	4,670595
1,852500	0,1	4,717509
1,854167	0,1	4,769773
1,855833	0,1	4,855527
1,857500	0,1	4,874143
1,859167	0,1	4,861834
1,860833	0,1	4,969078
1,862500	0,1	5,029051
1,864167	0,1	5,104177
1,865833	0,1	5,154151
1,867500	0,1	5,167066
1,869167	0,1	5,226040
1,870833	0,1	5,296235
1,872500	0,1	5,295835
1,874167	0,1	5,397598
1,875833	0,1	5,369104
1,877500	0,1	5,431307
1,879167	0,1	5,507399
1,880833	0,1	5,549186
1,882500	0,1	5,576546
1,884167	0,1	5,642212
1,885833	0,1	5,610439
1,887500	0,1	5,680184
1,889167	0,1	5,727573
1,890833	0,1	5,756207
1,892500	0,1	5,813248
1,894167	0,1	5,804697
1,895833	0,1	5,832800
1,897500	0,1	5,902143
1,899167	0,1	5,859423
1,900833	0,1	5,911986
1,902500	0,1	5,975611
1,904167	0,1	5,995057
1,905833	0,1	6,008351
1,907500	0,1	6,018515
1,909167	0,1	6,063611
1,910833	0,1	6,024421
1,912500	0,1	6,099385
1,914167	0,1	6,053891
1,915833	0,1	6,091525
1,917500	0,1	6,091019
1,919167	0,1	6,098917
1,920833	0,1	6,094874
1,922500	0,1	6,077709
1,924167	0,1	6,115320
1,925833	0,1	6,065562
1,927500	0,1	6,118919
1,929167	0,1	6,046494
1,930833	0,1	6,048553
1,932500	0,1	5,993821
1,934167	0,1	6,045895
1,935833	0,1	6,024029
1,937500	0,1	6,004259
1,939167	0,1	5,989308
1,940833	0,1	5,958843
1,942500	0,1	5,973883
1,944167	0,1	5,957151
1,945833	0,1	5,944779
1,947500	0,1	5,895775
1,949167	0,1	5,858636
1,950833	0,1	5,861973
1,952500	0,1	5,806926
1,954167	0,1	5,856611
1,955833	0,1	5,815444
1,957500	0,1	5,810901
1,959167	0,1	5,780484
1,960833	0,1	5,735087
1,962500	0,1	5,760766
1,964167	0,1	5,713646
1,965833	0,1	5,704209
1,967500	0,1	5,730291
1,969167	0,1	5,677350
1,970833	0,1	5,710633
1,972500	0,1	5,644405
1,974167	0,1	5,614595
1,975833	0,1	5,633053
1,977500	0,1	5,621602
1,979167	0,1	5,585079
1,980833	0,1	5,603658
1,982500	0,1	5,552595
1,984167	0,1	5,588323
1,985833	0,1	5,567996
1,987500	0,1	5,573126
1,989167	0,1	5,570192
1,990833	0,1	5,582824
1,992500	0,1	5,556012
1,994167	0,1	5,542068
1,995833	0,1	5,516022
1,997500	0,1	5,544951
1,999167	0,1	5,536398
2,000833	0,1	5,521645
2,002500	0,1	5,553714
2,004167	0,1	5,573486
2,005833	0,1	5,571373
2,007500	0,1	5,560574
2,009167	0,1	5,584249
2,010833	0,1	5,581076
2,012500	0,1	5,582829
2,014167	0,1	5,594282
2,015833	0,1	5,582058
2,017500	0,1	5,580709
2,019167	0,1	5,595995
2,020833	0,1	5,644049
2,022500	0,1	5,640882
2,024167	0,1	5,643983
2,025833	0,1	5,624906
2,027500	0,1	5,661708
2,029167	0,1	5,649447
2,030833	0,1	5,709375
2,032500	0,1	5,707913
2,034167	0,1	5,759041
2,035833	0,1	5,741036
2,037500	0,1	5,713469
2,039167	0,1	5,758565
2,040833	0,1	5,753513
2,042500	0,1	5,802891
2,044167	0,1	5,835361
2,045833	0,1	5,815794
2,047500	0,1	5,852947
2,049167	0,1	5,875010
2,050833	0,1	5,916142
2,052500	0,1	5,938243
2,054167	0,1	5,914435
2,055833	0,1	5,966342
2,057500	0,1	5,927294
2,059167	0,1	6,003566
2,060833	0,1	6,034414
2,062500	0,1	6,052550
2,064167	0,1	6,051398
2,065833	0,1	6,055449
2,067500	0,1	6,105416
2,069167	0,1	6,092106
2,070833	0,1	6,130825
2,072500	0,1	6,128307
2,074167	0,1	6,155299
2,075833	0,1	6,219564
2,077500	0,1	6,206180
2,079167	0,1	6,203364
2,080833	0,1	6,243256
2,082500	0,1	6,226060
2,084167	0,1	6,263367
2,085833	0,1	6,295097
2,087500	0,1	6,261396
2,089167	0,1	6,279251
2,090833	0,1	6,312112
2,092500	0,1	6,275170
2,094167	0,1	6,305806
2,095833	0,1	6,325665
2,097500	0,1	6,328539
2,099167	0,1	6,327658
2,100833	0,1	6,329390
2,102500	0,1	6,302353
2,104167	0,1	6,376193
2,105833	0,1	6,346272
2,107500	0,1	6,335274
2,109167	0,1	6,310506
2,110833	0,1	6,381848
2,112500	0,1	6,341247
2,114167	0,1	6,355524
2,115833	0,1	6,346099
2,117500	0,1	6,326584
2,119167	0,1	6,337343
2,120833	0,1	6,361287
2,122500	0,1	6,352859
2,124167	0,1	6,331414
2,125833	0,1	6,344928
2,127500	0,1	6,341238
2,129167	0,1	6,353423
2,130833	0,1	6,291142
2,132500	0,1	6,318079
2,134167	0,1	6,282785
2,135833	0,1	6,283171
2,137500	0,1	6,271473
2,139167	0,1	6,278740
2,140833	0,1	6,295186
2,142500	0,1	6,208097
2,144167	0,1	6,236187
2,145833	0,1	6,249595
2,147500	0,1	6,242046
2,149167	0,1	6,230800
2,150833	0,1	6,224044
2,152500	0,1	6,204190
2,154167	0,1	6,199844
2,155833	0,1	6,152198
2,157500	0,1	6,158232
2,159167	0,1	6,159172
2,160833	0,1	6,151935
2,162500	0,1	6,104639
2,164167	0,1	6,100731
2,165833	0,1	6,047932
2,167500	0,1	6,057524
2,169167	0,1	6,043417
2,170833	0,1	6,038527
2,172500	0,1	6,036250
2,174167	0,1	6,022438
2,175833	0,1	6,032311
2,177500	0,1	5,995322
2,179167	0,1	5,971715
2,180833	0,1	5,973349
2,182500	0,1	5,948917
2,184167	0,1	6,003101
2,185833	0,1	5,944001
2,187500	0,1	5,936140
2,189167	0,1	5,933209
2,190833	0,1	5,881402
2,192500	0,1	5,883550
2,194167	0,1	5,881792
2,195833	0,1	5,834455
2,197500	0,1	5,863558
2,199167	0,1	5,845283
2,200833	0,1	5,853404
2,202500	0,1	5,841649
2,204167	0,1	5,821147
2,205833	0,1	5,763479
2,207500	0,1	5,810429
2,209167	0,1	5,779290
2,210833	0,1	5,821404
2,212500	0,1	5,770573
2,214167	0,1	5,720455
2,215833	0,1	5,800108
2,217500	0,1	5,742276
2,219167	0,1	5,756293
2,220833	0,1	5,783522
2,222500	0,1	5,746552
2,224167	0,1	5,738349
2,225833	0,1	5,760354
2,227500	0,1	5,789513
2,229167	0,1	5,738847
2,230833	0,1	5,779897
2,232500	0,1	5,728368
2,234167	0,1	5,809126
2,235833	0,1	5,807151
2,237500	0,1	5,793926
2,239167	0,1	5,743340
2,240833	0,1	5,821893
2,242500	0,1	5,759040
2,244167	0,1	5,741815
2,245833	0,1	5,782711
2,247500	0,1	5,797882
2,249167	0,1	5,824802
2,250833	0,1	5,791037
2,252500	0,1	5,809021
2,254167	0,1	5,803640
2,255833	0,1	5,785536
2,257500	0,1	5,747767
2,259167	0,1	5,787801
2,260833	0,1	5,787966
2,262500	0,1	5,801678
2,264167	0,1	5,804291
2,265833	0,1	5,785775
2,267500	0,1	5,775663
2,269167	0,1	5,765104
2,270833	0,1	5,755433
2,272500	0,1	5,738882
2,274167	0,1	5,777682
2,275833	0,1	5,723022
2,277500	0,1	5,714529
2,279167	0,1	5,654107
2,280833	0,1	5,684873
2,282500	0,1	5,654312
2,284167	0,1	5,693428
2,285833	0,1	5,672566
2,287500	0,1	5,630989
2,289167	0,1	5,610031
2,290833	0,1	5,618216
2,292500	0,1	5,613899
2,294167	0,1	5,560257
2,295833	0,1	5,575607
2,297500	0,1	5,567666
2,299167	0,1	5,526095
2,300833	0,1	5,530853
2,302500	0,1	5,506402
2,304167	0,1	5,480848
2,305833	0,1	5,452604
2,307500	0,1	5,451699
2,309167	0,1	5,420778
2,310833	0,1	5,436740
2,312500	0,1	5,402847
2,314167	0,1	5,358552
2,315833	0,1	5,336592
2,317500	0,1	5,346642
2,319167	0,1	5,268645
2,320833	0,1	5,268018
2,322500	0,1	5,261949
2,324167	0,1	5,245907
2,325833	0,1	5,252339
2,327500	0,1	5,218288
2,329167	0,1	5,198045
2,330833	0,1	5,188635
2,332500	0,1	5,146491
2,334167	0,1	5,143211
2,335833	0,1	5,093861
2,337500	0,1	5,090814
2,339167	0,1	5,122045
2,340833	0,1	5,028483
2,342500	0,1	5,091828
2,344167	0,1	5,036959
2,345833	0,1	5,047892
2,347500	0,1	4,992347
2,349167	0,1	4,998018
2,350833	0,1	4,973529
2,352500	0,1	4,982068
2,354167	0,1	4,976241
2,355833	0,1	4,926910
2,357500	0,1	4,927498
2,359167	0,1	4,948149
2,360833	0,1	4,853725
2,362500	0,1	4,860728
2,364167	0,1	4,866331
2,365833	0,1	4,865473
2,367500	0,1	4,859220
2,369167	0,1	4,879064
2,370833	0,1	4,860683
2,372500	0,1	4,901044
2,374167	0,1	4,855352
2,375833	0,1	4,881668
2,377500	0,1	4,890268
2,379167	0,1	4,924699
2,380833	0,1	4,878923
2,382500	0,1	4,931701
2,384167	0,1	4,956918
2,385833	0,1	4,963625
2,387500	0,1	5,027985
2,389167	0,1	5,018090
2,390833	0,1	5,066124
2,392500	0,1	5,121502
2,394167	0,1	5,131559
2,395833	0,1	5,205879
2,397500	0,1	5,282062
2,399167	0,1	5,343011
2,400833	0,1	5,416760
2,402500	0,1	5,520311
2,404167	0,1	5,575884
2,405833	0,1	5,657783
2,407500	0,1	5,780392
2,409167	0,1	5,871779
2,410833	0,1	6,000875
2,412500	0,1	6,095041
2,414167	0,1	6,242012
2,415833	0,1	6,395205
2,417500	0,1	6,564454
2,419167	0,1	6,641636
2,420833	0,1	6,824362
2,422500	0,1	7,021688
2,424167	0,1	7,182476
2,425833	0,1	7,369791
2,427500	0,1	7,573092
2,429167	0,1	7,766503
2,430833	0,1	7,952624
2,432500	0,1	8,190935
2,434167	0,1	8,351281
2,435833	0,1	8,613714
2,437500	0,1	8,829775
2,439167	0,1	9,023691
2,440833	0,1	9,256413
2,442500	0,1	9,432937
2,444167	0,1	9,681142
2,445833	0,1	9,860694
2,447500	0,1	10,123303
2,449167	0,1	10,333277
2,450833	0,1	10,554625
2,452500	0,1	10,753683
2,454167	0,1	10,987469
2,455833	0,1	11,121666
2,457500	0,1	11,376961
2,459167	0,1	11,612899
2,460833	0,1	11,778175
2,462500	0,1	12,008581
2,464167	0,1	12,206898
2,465833	0,1	12,435667
2,467500	0,1	12,625254
2,469167	0,1	12,846358
2,470833	0,1	13,050317
2,472500	0,1	13,266372
2,474167	0,1	13,512897
2,475833	0,1	13,696636
2,477500	0,1	13,939393
2,479167	0,1	14,239403
2,480833	0,1	14,509158
2,482500	0,1	14,800850
2,484167	0,1	15,087478
2,485833	0,1	15,412357
2,487500	0,1	15,752669
2,489167	0,1	16,132330
2,490833	0,1	16,506485
2,492500	0,1	16,925240
2,494167	0,1	17,390918
2,495833	0,1	17,888787
2,497500	0,1	18,429099
2,499167	0,1	18,950734
2,500833	0,1	19,554052
2,502500	0,1	20,234444
2,504167	0,1	20,926494
2,505833	0,1	21,616220
2,507500	0,1	22,444877
2,509167	0,1	23,229516
2,510833	0,1	24,152587
2,512500	0,1	25,112038
2,514167	0,1	26,078436
2,515833	0,1	27,105961
2,517500	0,1	28,232052
2,519167	0,1	29,375042
2,520833	0,1	30,594609
2,522500	0,1	31,819822
2,524167	0,1	33,119817
2,525833	0,1	34,458346
2,527500	0,1	35,905244
2,529167	0,1	37,380229
2,530833	0,1	38,847128
2,532500	0,1	40,327038
2,534167	0,1	41,890707
2,535833	0,1	43,515428
2,537500	0,1	45,141384
2,539167	0,1	46,784058
2,540833	0,1	48,483140
2,542500	0,1	50,146041
2,544167	0,1	51,868085
2,545833	0,1	53,605435
2,547500	0,1	55,374205
2,549167	0,1	57,033190
2,550833	0,1	58,757140
2,552500	0,1	60,466603
2,554167	0,1	62,148635
2,555833	0,1	63,818937
2,557500	0,1	65,465144
2,559167	0,1	67,107139
2,560833	0,1	68,720615
2,562500	0,1	70,237952
2,564167	0,1	71,801415
2,565833	0,1	73,221170
2,567500	0,1	74,624144
2,569167	0,1	76,053314
2,570833	0,1	77,394343
2,572500	0,1	78,676144
2,574167	0,1	79,859278
2,575833	0,1	80,989233
2,577500	0,1	82,139369
2,579167	0,1	83,128754
2,580833	0,1	84,122383
2,582500	0,1	85,075988
2,584167	0,1	85,924466
2,585833	0,1	86,662572
2,587500	0,1	87,436142
2,589167	0,1	88,071432
2,590833	0,1	88,662379
2,592500	0,1	89,204008
2,594167	0,1	89,678292
2,595833	0,1	90,096542
2,597500	0,1	90,456454
2,599167	0,1	90,738161
2,600833	0,1	91,007543
2,602500	0,1	91,201494
2,604167	0,1	91,326102
2,605833	0,1	91,390612
2,607500	0,1	91,405186
2,609167	0,1	91,403773
2,610833	0,1	91,315981
2,612500	0,1	91,205031
2,614167	0,1	91,043897
2,615833	0,1	90,804586
2,617500	0,1	90,586458
2,619167	0,1	90,230817
2,620833	0,1	89,917631
2,622500	0,1	89,546428
2,624167	0,1	89,105320
2,625833	0,1	88,632822
2,627500	0,1	88,146143
2,629167	0,1	87,653109
2,630833	0,1	87,099711
2,632500	0,1	86,443120
2,634167	0,1	85,826538
2,635833	0,1	85,154546
2,637500	0,1	84,479163
2,639167	0,1	83,769848
2,640833	0,1	83,041703
2,642500	0,1	82,305184
2,644167	0,1	81,468203
2,645833	0,1	80,664670
2,647500	0,1	79,847122
2,649167	0,1	78,962649
2,650833	0,1	78,108936
2,652500	0,1	77,199468
2,654167	0,1	76,323565
2,655833	0,1	75,356688
2,657500	0,1	74,421668
2,659167	0,1	73,497903
2,660833	0,1	72,526665
2,662500	0,1	71,552605
2,664167	0,1	70,613719
2,665833	0,1	69,594841
2,667500	0,1	68,583983
2,669167	0,1	67,570168
2,670833	0,1	66,602253
2,672500	0,1	65,556969
2,674167	0,1	64,562515
2,675833	0,1	63,557507
2,677500	0,1	62,510889
2,679167	0,1	61,495527
2,680833	0,1	60,480876
2,682500	0,1	59,479667
2,684167	0,1	58,481696
2,685833	0,1	57,434399
2,687500	0,1	56,454849
2,689167	0,1	55,457350
2,690833	0,1	54,499549
2,692500	0,1	53,556360
2,694167	0,1	52,498476
2,695833	0,1	51,527742
2,697500	0,1	50,642256
2,699167	0,1	49,669693
2,700833	0,1	48,817752
2,702500	0,1	47,806627
2,704167	0,1	46,955086
2,705833	0,1	46,071812
2,707500	0,1	45,167040
2,709167	0,1	44,313310
2,710833	0,1	43,453449
2,712500	0,1	42,592203
2,714167	0,1	41,779156
2,715833	0,1	41,004682
2,717500	0,1	40,206159
2,719167	0,1	39,391178
2,720833	0,1	38,616531
2,722500	0,1	37,851700
2,724167	0,1	37,119565
2,725833	0,1	36,421997
2,727500	0,1	35,707569
2,729167	0,1	34,974185
2,730833	0,1	34,300788
2,732500	0,1	33,673628
2,734167	0,1	33,023800
2,735833	0,1	32,379935
2,737500	0,1	31,772908
2,739167	0,1	31,151994
2,740833	0,1	30,549153
2,742500	0,1	29,996530
2,744167	0,1	29,405980
2,745833	0,1	28,865856
2,747500	0,1	28,334475
2,749167	0,1	27,816916
2,750833	0,1	27,271498
2,752500	0,1	26,803655
2,754167	0,1	26,277214
2,755833	0,1	25,841022
2,757500	0,1	25,322901
2,759167	0,1	24,859259
2,760833	0,1	24,427086
2,762500	0,1	23,946119
2,764167	0,1	23,530658
2,765833	0,1	23,162075
2,767500	0,1	22,719143
2,769167	0,1	22,375222
2,770833	0,1	21,942864
2,772500	0,1	21,551308
2,774167	0,1	21,216905
2,775833	0,1	20,821054
2,777500	0,1	20,454122
2,779167	0,1	20,111627
2,780833	0,1	19,750429
2,782500	0,1	19,413904
2,784167	0,1	19,099936
2,785833	0,1	18,750788
2,787500	0,1	18,432538
2,789167	0,1	18,125721
2,790833	0,1	17,825082
2,792500	0,1	17,473958
2,794167	0,1	17,258933
2,795833	0,1	16,990890
2,797500	0,1	16,685798
2,799167	0,1	16,400040
2,800833	0,1	16,107495
2,802500	0,1	15,882219
2,804167	0,1	15,609668
2,805833	0,1	15,366167
2,807500	0,1	15,077094
2,809167	0,1	14,851875
2,810833	0,1	14,601891
2,812500	0,1	14,373139
2,814167	0,1	14,127220
2,815833	0,1	13,902589
2,817500	0,1	13,679849
2,819167	0,1	13,485645
2,820833	0,1	13,262999
2,822500	0,1	13,024893
2,824167	0,1	12,891521
2,825833	0,1	12,674622
2,827500	0,1	12,405630
2,829167	0,1	12,256583
2,830833	0,1	12,059211
2,832500	0,1	11,843773
2,834167	0,1	11,675611
2,835833	0,1	11,493310
2,837500	0,1	11,327441
2,839167	0,1	11,167234
2,840833	0,1	11,005245
2,842500	0,1	10,865462
2,844167	0,1	10,647316
2,845833	0,1	10,520473
2,847500	0,1	10,320369
2,849167	0,1	10,199420
2,850833	0,1	10,057131
2,852500	0,1	9,857492
2,854167	0,1	9,764504
2,855833	0,1	9,603609
2,857500	0,1	9,476667
2,859167	0,1	9,330991
2,860833	0,1	9,182596
2,862500	0,1	9,112968
2,864167	0,1	8,964500
2,865833	0,1	8,830409
2,867500	0,1	8,692243
2,869167	0,1	8,604596
2,870833	0,1	8,497271
2,872500	0,1	8,342449
2,874167	0,1	8,304342
2,875833	0,1	8,162439
2,877500	0,1	8,021577
2,879167	0,1	7,947175
2,880833	0,1	7,874101
2,882500	0,1	7,784100
2,884167	0,1	7,658717
2,885833	0,1	7,540006
2,887500	0,1	7,496374
2,889167	0,1	7,371126
2,890833	0,1	7,276909
2,892500	0,1	7,196374
2,894167	0,1	7,081709
2,895833	0,1	7,041803
2,897500	0,1	6,980666
2,899167	0,1	6,888969
2,900833	0,1	6,816723
2,902500	0,1	6,758793
2,904167	0,1	6,685882
2,905833	0,1	6,650629
2,907500	0,1	6,551555
2,909167	0,1	6,455876
2,910833	0,1	6,395883
2,912500	0,1	6,333780
2,914167	0,1	6,280575
2,915833	0,1	6,175870
2,917500	0,1	6,138351
2,919167	0,1	6,053072
2,920833	0,1	5,996800
2,922500	0,1	5,993137
2,924167	0,1	5,924125
2,925833	0,1	5,856710
2,927500	0,1	5,826394
2,929167	0,1	5,765620
2,930833	0,1	5,663288
2,932500	0,1	5,701251
2,934167	0,1	5,590555
2,935833	0,1	5,572106
2,937500	0,1	5,530453
2,939167	0,1	5,451602
2,940833	0,1	5,426201
2,942500	0,1	5,367165
2,944167	0,1	5,338516
2,945833	0,1	5,269354
2,947500	0,1	5,258957
2,949167	0,1	5,194273
2,950833	0,1	5,152779
2,952500	0,1	5,102168
2,954167	0,1	5,126177
2,955833	0,1	5,042781
2,957500	0,1	5,022351
2,959167	0,1	4,983925
2,960833	0,1	4,914581
2,962500	0,1	4,914770
2,964167	0,1	4,867769
2,965833	0,1	4,819743
2,967500	0,1	4,799579
2,969167	0,1	4,752633
2,970833	0,1	4,752440
2,972500	0,1	4,698815
2,974167	0,1	4,672485
2,975833	0,1	4,641013
2,977500	0,1	4,623493
2,979167	0,1	4,539919
2,980833	0,1	4,497901
2,982500	0,1	4,494443
2,984167	0,1	4,509094
2,985833	0,1	4,471241
2,987500	0,1	4,452006
2,989167	0,1	4,424441
2,990833	0,1	4,391230
2,992500	0,1	4,350064
2,994167	0,1	4,329914
2,995833	0,1	4,324860
2,997500	0,1	4,334002
2,999167	0,1	4,227069
3,000833	0,1	4,217336
3,002500	0,1	4,197396
3,004167	0,1	4,192023
3,005833	0,1	4,205249
3,007500	0,1	4,180628
3,009167	0,1	4,113168
3,010833	0,1	4,094242
3,012500	0,1	4,083506
3,014167	0,1	4,073290
3,015833	0,1	4,026643
3,017500	0,1	4,041101
3,019167	0,1	3,990401
3,020833	0,1	3,991188
3,022500	0,1	3,957554
3,024167	0,1	3,948088
3,025833	0,1	3,957234
3,027500	0,1	3,899434
3,029167	0,1	3,876917
3,030833	0,1	3,880151
3,032500	0,1	3,890322
3,034167	0,1	3,838930
3,035833	0,1	3,838342
3,037500	0,1	3,820241
3,039167	0,1	3,767139
3,040833	0,1	3,785377
3,042500	0,1	3,739338
3,044167	0,1	3,758599
3,045833	0,1	3,712576
3,047500	0,1	3,668489
3,049167	0,1	3,647631
3,050833	0,1	3,635950
3,052500	0,1	3,577519
3,054167	0,1	3,612051
3,055833	0,1	3,607443
3,057500	0,1	3,587314
3,059167	0,1	3,571803
3,060833	0,1	3,497600
3,062500	0,1	3,520006
3,064167	0,1	3,496649
3,065833	0,1	3,480350
3,067500	0,1	3,456478
3,069167	0,1	3,491583
3,070833	0,1	3,438095
3,072500	0,1	3,413355
3,074167	0,1	3,402608
3,075833	0,1	3,395180
3,077500	0,1	3,398998
3,079167	0,1	3,358344
3,080833	0,1	3,395242
3,082500	0,1	3,362236
3,084167	0,1	3,318474
3,085833	0,1	3,303042
3,087500	0,1	3,299867
3,089167	0,1	3,264980
3,090833	0,1	3,296540
3,092500	0,1	3,273702
3,094167	0,1	3,281480
3,095833	0,1	3,255895
3,097500	0,1	3,255679
3,099167	0,1	3,248836
3,100833	0,1	3,241188
3,102500	0,1	3,239390
3,104167	0,1	3,199608
3,105833	0,1	3,224392
3,107500	0,1	3,236352
3,109167	0,1	3,216329
3,110833	0,1	3,211784
3,112500	0,1	3,184174
3,114167	0,1	3,170336
3,115833	0,1	3,166584
3,117500	0,1	3,213138
3,119167	0,1	3,193259
3,120833	0,1	3,197296
3,122500	0,1	3,149589
3,124167	0,1	3,181998
3,125833	0,1	3,191958
3,127500	0,1	3,184460
3,129167	0,1	3,161406
3,130833	0,1	3,222145
3,132500	0,1	3,211356
3,134167	0,1	3,196575
3,135833	0,1	3,195710
3,137500	0,1	3,218697
3,139167	0,1	3,194921
3,140833	0,1	3,222588
3,142500	0,1	3,223029
3,144167	0,1	3,199393
3,145833	0,1	3,201610
3,147500	0,1	3,228206
3,149167	0,1	3,199387
3,150833	0,1	3,252704
3,152500	0,1	3,181374
3,154167	0,1	3,232741
3,155833	0,1	3,246593
3,157500	0,1	3,248328
3,159167	0,1	3,222019
3,160833	0,1	3,245361
3,162500	0,1	3,242199
3,164167	0,1	3,220511
3,165833	0,1	3,230804
3,167500	0,1	3,185120
3,169167	0,1	3,226035
3,170833	0,1	3,250116
3,172500	0,1	3,221442
3,174167	0,1	3,246513
3,175833	0,1	3,248977
3,177500	0,1	3,244147
3,179167	0,1	3,178636
3,180833	0,1	3,225751
3,182500	0,1	3,175392
3,184167	0,1	3,227617
3,185833	0,1	3,206014
3,187500	0,1	3,222515
3,189167	0,1	3,173514
3,190833	0,1	3,191671
3,192500	0,1	3,196064
3,194167	0,1	3,161696
3,195833	0,1	3,175012
3,197500	0,1	3,163494
3,199167	0,1	3,155639
3,200833	0,1	3,145972
3,202500	0,1	3,128174
3,204167	0,1	3,115932
3,205833	0,1	3,132791
3,207500	0,1	3,116586
3,209167	0,1	3,127321
3,210833	0,1	3,055778
3,212500	0,1	3,080697
3,214167	0,1	3,048424
3,215833	0,1	3,063544
3,217500	0,1	3,055261
3,219167	0,1	3,070548
3,220833	0,1	3,018109
3,222500	0,1	2,981789
3,224167	0,1	2,968676
3,225833	0,1	2,946917
3,227500	0,1	2,933283
3,229167	0,1	2,913078
3,230833	0,1	2,910750
3,232500	0,1	2,917241
3,234167	0,1	2,860146
3,235833	0,1	2,869841
3,237500	0,1	2,835629
3,239167	0,1	2,839149
3,240833	0,1	2,877034
3,242500	0,1	2,785681
3,244167	0,1	2,820867
3,245833	0,1	2,826638
3,247500	0,1	2,785682
3,249167	0,1	2,786677
3,250833	0,1	2,691821
3,252500	0,1	2,728142
3,254167	0,1	2,709932
3,255833	0,1	2,712821
3,257500	0,1	2,677250
3,259167	0,1	2,645050
3,260833	0,1	2,662765
3,262500	0,1	2,618217
3,264167	0,1	2,585330
3,265833	0,1	2,590060
3,267500	0,1	2,563496
3,269167	0,1	2,564781
3,270833	0,1	2,542596
3,272500	0,1	2,549782
3,274167	0,1	2,511052
3,275833	0,1	2,488433
3,277500	0,1	2,477728
3,279167	0,1	2,454947
3,280833	0,1	2,439232
3,282500	0,1	2,428087
3,284167	0,1	2,394182
3,285833	0,1	2,416830
3,287500	0,1	2,414064
3,289167	0,1	2,356144
3,290833	0,1	2,340798
3,292500	0,1	2,367594
3,294167	0,1	2,354790
3,295833	0,1	2,352711
3,297500	0,1	2,294198
3,299167	0,1	2,307728
3,300833	0,1	2,305098
3,302500	0,1	2,318755
3,304167	0,1	2,301731
3,305833	0,1	2,281911
3,307500	0,1	2,302413
3,309167	0,1	2,301771
3,310833	0,1	2,245049
3,312500	0,1	2,255744
3,314167	0,1	2,236981
3,315833	0,1	2,283926
3,317500	0,1	2,243124
3,319167	0,1	2,199137
3,320833	0,1	2,265530
3,322500	0,1	2,236270
3,324167	0,1	2,221471
3,325833	0,1	2,190587
3,327500	0,1	2,229067
3,329167	0,1	2,149648
3,330833	0,1	2,186199
3,332500	0,1	2,185627
3,334167	0,1	2,188929
3,335833	0,1	2,224249
3,337500	0,1	2,203908
3,339167	0,1	2,226102
3,340833	0,1	2,243244
3,342500	0,1	2,223034
3,344167	0,1	2,204332
3,345833	0,1	2,205802
3,347500	0,1	2,231926
3,349167	0,1	2,206676
3,350833	0,1	2,206403
3,352500	0,1	2,243464
3,354167	0,1	2,204693
3,355833	0,1	2,253972
3,357500	0,1	2,247492
3,359167	0,1	2,198962
3,360833	0,1	2,204840
3,362500	0,1	2,202254
3,364167	0,1	2,253102
3,365833	0,1	2,228213
3,367500	0,1	2,189875
3,369167	0,1	2,194461
3,370833	0,1	2,229360
3,372500	0,1	2,217810
3,374167	0,1	2,221087
3,375833	0,1	2,212476
3,377500	0,1	2,231439
3,379167	0,1	2,206765
3,380833	0,1	2,222825
3,382500	0,1	2,215666
3,384167	0,1	2,211001
3,385833	0,1	2,243910
3,387500	0,1	2,225331
3,389167	0,1	2,228875
3,390833	0,1	2,227715
3,392500	0,1	2,224972
3,394167	0,1	2,238134
3,395833	0,1	2,163957
3,397500	0,1	2,210163
3,399167	0,1	2,197568
3,400833	0,1	2,233756
3,402500	0,1	2,239968
3,404167	0,1	2,217679
3,405833	0,1	2,233828
3,407500	0,1	2,218056
3,409167	0,1	2,173275
3,410833	0,1	2,216882
3,412500	0,1	2,211695
3,414167	0,1	2,209372
3,415833	0,1	2,189537
3,417500	0,1	2,177531
3,419167	0,1	2,202047
3,420833	0,1	2,216867
3,422500	0,1	2,196433
3,424167	0,1	2,199572
3,425833	0,1	2,186524
3,427500	0,1	2,167826
3,429167	0,1	2,187919
3,430833	0,1	2,192967
3,432500	0,1	2,161913
3,434167	0,1	2,217571
3,435833	0,1	2,149179
3,437500	0,1	2,202174
3,439167	0,1	2,159775
3,440833	0,1	2,192204
3,442500	0,1	2,217934
3,444167	0,1	2,182555
3,445833	0,1	2,167848
3,447500	0,1	2,202692
3,449167	0,1	2,197724
3,450833	0,1	2,187418
3,452500	0,1	2,238371
3,454167	0,1	2,192445
3,455833	0,1	2,222576
3,457500	0,1	2,201233
3,459167	0,1	2,210931
3,460833	0,1	2,228850
3,462500	0,1	2,242911
3,464167	0,1	2,216339
3,465833	0,1	2,266336
3,467500	0,1	2,245708
3,469167	0,1	2,326258
3,470833	0,1	2,287673
3,472500	0,1	2,291882
3,474167	0,1	2,256224
3,475833	0,1	2,311510
3,477500	0,1	2,292290
3,479167	0,1	2,353364
3,480833	0,1	2,362885
3,482500	0,1	2,332271
3,484167	0,1	2,363708
3,485833	0,1	2,356618
3,487500	0,1	2,403507
3,489167	0,1	2,372633
3,490833	0,1	2,388894
3,492500	0,1	2,451553
3,494167	0,1	2,447345
3,495833	0,1	2,483869
3,497500	0,1	2,462514
3,499167	0,1	2,473206
3,500833	0,1	2,438965
3,502500	0,1	2,514520
3,504167	0,1	2,477155
3,505833	0,1	2,493212
3,507500	0,1	2,498039
3,509167	0,1	2,551304
3,510833	0,1	2,558986
3,512500	0,1	2,578857
3,514167	0,1	2,587637
3,515833	0,1	2,570838
3,517500	0,1	2,600535
3,519167	0,1	2,569884
3,520833	0,1	2,595665
3,522500	0,1	2,621470
3,524167	0,1	2,622343
3,525833	0,1	2,609018
3,527500	0,1	2,615271
3,529167	0,1	2,683582
3,530833	0,1	2,653376
3,532500	0,1	2,643144
3,534167	0,1	2,648460
3,535833	0,1	2,675651
3,537500	0,1	2,687386
3,539167	0,1	2,673305
3,540833	0,1	2,654336
3,542500	0,1	2,713966
3,544167	0,1	2,661264
3,545833	0,1	2,679485
3,547500	0,1	2,663778
3,549167	0,1	2,673740
3,550833	0,1	2,672266
3,552500	0,1	2,698976
3,554167	0,1	2,664956
3,555833	0,1	2,696755
3,557500	0,1	2,688342
3,559167	0,1	2,661631
3,560833	0,1	2,690937
3,562500	0,1	2,646431
3,564167	0,1	2,648173
3,565833	0,1	2,639257
3,567500	0,1	2,645649
3,569167	0,1	2,637824
3,570833	0,1	2,605136
3,572500	0,1	2,635210
3,574167	0,1	2,635230
3,575833	0,1	2,624512
3,577500	0,1	2,583337
3,579167	0,1	2,608004
3,580833	0,1	2,606304
3,582500	0,1	2,542145
3,584167	0,1	2,599781
3,585833	0,1	2,555638
3,587500	0,1	2,561150
3,589167	0,1	2,547265
3,590833	0,1	2,523883
3,592500	0,1	2,487057
3,594167	0,1	2,485736
3,595833	0,1	2,472701
3,597500	0,1	2,443344
3,599167	0,1	2,448330
3,600833	0,1	2,447734
3,602500	0,1	2,479201
3,604167	0,1	2,418919
3,605833	0,1	2,426344
3,607500	0,1	2,416026
3,609167	0,1	2,409174
3,610833	0,1	2,389212
3,612500	0,1	2,388986
3,614167	0,1	2,335177
3,615833	0,1	2,372724
3,617500	0,1	2,332760
3,619167	0,1	2,288479
3,620833	0,1	2,305203
3,622500	0,1	2,277559
3,624167	0,1	2,329860
3,625833	0,1	2,221537
3,627500	0,1	2,252794
3,629167	0,1	2,219735
3,630833	0,1	2,225973
3,632500	0,1	2,169015
3,634167	0,1	2,193501
3,635833	0,1	2,170863
3,637500	0,1	2,137815
3,639167	0,1	2,162147
3,640833	0,1	2,162553
3,642500	0,1	2,168001
3,644167	0,1	2,123407
3,645833	0,1	2,080505
3,647500	0,1	2,086515
3,649167	0,1	2,097197
3,650833	0,1	2,061967
3,652500	0,1	2,060123
3,654167	0,1	2,030239
3,655833	0,1	2,049503
3,657500	0,1	1,991763
3,659167	0,1	1,969312
3,660833	0,1	2,001247
3,662500	0,1	1,922328
3,664167	0,1	1,947693
3,665833	0,1	1,959076
3,667500	0,1	1,934153
3,669167	0,1	1,952157
3,670833	0,1	1,881037
3,672500	0,1	1,909207
3,674167	0,1	1,920178
3,675833	0,1	1,882484
3,677500	0,1	1,894432
3,679167	0,1	1,883675
3,680833	0,1	1,820446
3,682500	0,1	1,852815
3,684167	0,1	1,789767
3,685833	0,1	1,842305
3,687500	0,1	1,837341
3,689167	0,1	1,773310
3,690833	0,1	1,784866
3,692500	0,1	1,799347
3,694167	0,1	1,775402
3,695833	0,1	1,758947
3,697500	0,1	1,710115
3,699167	0,1	1,767656
3,700833	0,1	1,745953
3,702500	0,1	1,752833
3,704167	0,1	1,731248
3,705833	0,1	1,724004
3,707500	0,1	1,708751
3,709167	0,1	1,702154
3,710833	0,1	1,700632
3,712500	0,1	1,712299
3,714167	0,1	1,666416
3,715833	0,1	1,636226
3,717500	0,1	1,687662
3,719167	0,1	1,699854
3,720833	0,1	1,625997
3,722500	0,1	1,665103
3,724167	0,1	1,680171
3,725833	0,1	1,682438
3,727500	0,1	1,620306
3,729167	0,1	1,632568
3,730833	0,1	1,627209
3,732500	0,1	1,634898
3,734167	0,1	1,606272
3,735833	0,1	1,591987
3,737500	0,1	1,659282
3,739167	0,1	1,635065
3,740833	0,1	1,617805
3,742500	0,1	1,615575
3,744167	0,1	1,582163
3,745833	0,1	1,582872
3,747500	0,1	1,599451
3,749167	0,1	1,601357
3,750833	0,1	1,564688
3,752500	0,1	1,597700
3,754167	0,1	1,570893
3,755833	0,1	1,609621
3,757500	0,1	1,552998
3,759167	0,1	1,566522
3,760833	0,1	1,546144
3,762500	0,1	1,545839
3,764167	0,1	1,545719
3,765833	0,1	1,585286
3,767500	0,1	1,570499
3,769167	0,1	1,535800
3,770833	0,1	1,540222
3,772500	0,1	1,517358
3,774167	0,1	1,549817
3,775833	0,1	1,547951
3,777500	0,1	1,542035
3,779167	0,1	1,525075
3,780833	0,1	1,472975
3,782500	0,1	1,541754
3,784167	0,1	1,580705
3,785833	0,1	1,562880
3,787500	0,1	1,522013
3,789167	0,1	1,520676
3,790833	0,1	1,586712
3,792500	0,1	1,544110
3,794167	0,1	1,511764
3,795833	0,1	1,534601
3,797500	0,1	1,547200
3,799167	0,1	1,469778
3,800833	0,1	1,544765
3,802500	0,1	1,520061
3,804167	0,1	1,493516
3,805833	0,1	1,511660
3,807500	0,1	1,495617
3,809167	0,1	1,512243
3,810833	0,1	1,504396
3,812500	0,1	1,463954
3,814167	0,1	1,488536
3,815833	0,1	1,484885
3,817500	0,1	1,470116
3,819167	0,1	1,519508
3,820833	0,1	1,487032
3,822500	0,1	1,501959
3,824167	0,1	1,465991
3,825833	0,1	1,440463
3,827500	0,1	1,490193
3,829167	0,1	1,444384
3,830833	0,1	1,459138
3,832500	0,1	1,455622
3,834167	0,1	1,494856
3,835833	0,1	1,440510
3,837500	0,1	1,456125
3,839167	0,1	1,468500
3,840833	0,1	1,437477
3,842500	0,1	1,447764
3,844167	0,1	1,448412
3,845833	0,1	1,434963
3,847500	0,1	1,400020
3,849167	0,1	1,430962
3,850833	0,1	1,467103
3,852500	0,1	1,413997
3,854167	0,1	1,427889
3,855833	0,1	1,402552
3,857500	0,1	1,440943
3,859167	0,1	1,427097
3,860833	0,1	1,423345
3,862500	0,1	1,411073
3,864167	0,1	1,393028
3,865833	0,1	1,403798
3,867500	0,1	1,382968
3,869167	0,1	1,425931
3,870833	0,1	1,403247
3,872500	0,1	1,390962
3,874167	0,1	1,419578
3,875833	0,1	1,382178
3,877500	0,1	1,372063
3,879167	0,1	1,395498
3,880833	0,1	1,334803
3,882500	0,1	1,371179
3,884167	0,1	1,370186
3,885833	0,1	1,395349
3,887500	0,1	1,368318
3,889167	0,1	1,347878
3,890833	0,1	1,381467
3,892500	0,1	1,368315
3,894167	0,1	1,355957
3,895833	0,1	1,332919
3,897500	0,1	1,333663
3,899167	0,1	1,304921
3,900833	0,1	1,331552
3,902500	0,1	1,327789
3,904167	0,1	1,307314
3,905833	0,1	1,309704
3,907500	0,1	1,307830
3,909167	0,1	1,303851
3,910833	0,1	1,314970
3,912500	0,1	1,322578
3,914167	0,1	1,261598
3,915833	0,1	1,300424
3,917500	0,1	1,308474
3,919167	0,1	1,292687
3,920833	0,1	1,293415
3,922500	0,1	1,294142
3,924167	0,1	1,270337
3,925833	0,1	1,279308
3,927500	0,1	1,298491
3,929167	0,1	1,289229
3,930833	0,1	1,240869
3,932500	0,1	1,265617
3,934167	0,1	1,242382
3,935833	0,1	1,269784
3,937500	0,1	1,262334
3,939167	0,1	1,246423
3,940833	0,1	1,265556
3,942500	0,1	1,260356
3,944167	0,1	1,254044
3,945833	0,1	1,260018
3,947500	0,1	1,267309
3,949167	0,1	1,244319
3,950833	0,1	1,275823
3,952500	0,1	1,250174
3,954167	0,1	1,254875
3,955833	0,1	1,258206
3,957500	0,1	1,216932
3,959167	0,1	1,239913
3,960833	0,1	1,211620
3,962500	0,1	1,296224
3,964167	0,1	1,225333
3,965833	0,1	1,282337
3,967500	0,1	1,267647
3,969167	0,1	1,244340
3,970833	0,1	1,231278
3,972500	0,1	1,238750
3,974167	0,1	1,234797
3,975833	0,1	1,266594
3,977500	0,1	1,254171
3,979167	0,1	1,295069
3,980833	0,1	1,239161
3,982500	0,1	1,245001
3,984167	0,1	1,246793
3,985833	0,1	1,247002
3,987500	0,1	1,234631
3,989167	0,1	1,254578
3,990833	0,1	1,257540
3,992500	0,1	1,242860
3,994167	0,1	1,241503
3,995833	0,1	1,244771
3,997500	0,1	1,256392
3,999167	0,1	1,222991
4,000833	0,1	1,238312
4,002500	0,1	1,253933
4,004167	0,1	1,238110
4,005833	0,1	1,260139
4,007500	0,1	1,230345
4,009167	0,1	1,262532
4,010833	0,1	1,250546
4,012500	0,1	1,286800
4,014167	0,1	1,258695
4,015833	0,1	1,262456
4,017500	0,1	1,249505
4,019167	0,1	1,281031
4,020833	0,1	1,258048
4,022500	0,1	1,260291
4,024167	0,1	1,271120
4,025833	0,1	1,281350
4,027500	0,1	1,274958
4,029167	0,1	1,263731
4,030833	0,1	1,283055
4,032500	0,1	1,337920
4,034167	0,1	1,299671
4,035833	0,1	1,295228
4,037500	0,1	1,342443
4,039167	0,1	1,306923
4,040833	0,1	1,349091
4,042500	0,1	1,339290
4,044167	0,1	1,309670
4,045833	0,1	1,330325
4,047500	0,1	1,344490
4,049167	0,1	1,344933
4,050833	0,1	1,351848
4,052500	0,1	1,365686
4,054167	0,1	1,401639
4,055833	0,1	1,389923
4,057500	0,1	1,409547
4,059167	0,1	1,364740
4,060833	0,1	1,398892
4,062500	0,1	1,415045
4,064167	0,1	1,449304
4,065833	0,1	1,412638
4,067500	0,1	1,428941
4,069167	0,1	1,466948
4,070833	0,1	1,462436
4,072500	0,1	1,481268
4,074167	0,1	1,503005
4,075833	0,1	1,455949
4,077500	0,1	1,499607
4,079167	0,1	1,498653
4,080833	0,1	1,551785
4,082500	0,1	1,509965
4,084167	0,1	1,548103
4,085833	0,1	1,549880
4,087500	0,1	1,602899
4,089167	0,1	1,635056
4,090833	0,1	1,642364
4,092500	0,1	1,643365
4,094167	0,1	1,637068
4,095833	0,1	1,647341
4,097500	0,1	1,633092
4,099167	0,1	1,673573
4,100833	0,1	1,663986
4,102500	0,1	1,688510
4,104167	0,1	1,705962
4,105833	0,1	1,738571
4,107500	0,1	1,730469
4,109167	0,1	1,755574
4,110833	0,1	1,742396
4,112500	0,1	1,828974
4,114167	0,1	1,792956
4,115833	0,1	1,810789
4,117500	0,1	1,812668
4,119167	0,1	1,835976
4,120833	0,1	1,876027
4,122500	0,1	1,829490
4,124167	0,1	1,918342
4,125833	0,1	1,877246
4,127500	0,1	1,895367
4,129167	0,1	1,956346
4,130833	0,1	1,936739
4,132500	0,1	1,952253
4,134167	0,1	1,992693
4,135833	0,1	1,983594
4,137500	0,1	1,985269
4,139167	0,1	2,022910
4,140833	0,1	2,025204
4,142500	0,1	2,060629
4,144167	0,1	2,046106
4,145833	0,1	2,114636
4,147500	0,1	2,088821
4,149167	0,1	2,099835
4,150833	0,1	2,096630
4,152500	0,1	2,141104
4,154167	0,1	2,147451
4,155833	0,1	2,171365
4,157500	0,1	2,178710
4,159167	0,1	2,194239
4,160833	0,1	2,172312
4,162500	0,1	2,223130
4,164167	0,1	2,204312
4,165833	0,1	2,203436
4,167500	0,1	2,210197
4,169167	0,1	2,232911
4,170833	0,1	2,283724
4,172500	0,1	2,219117
4,174167	0,1	2,271915
4,175833	0,1	2,237498
4,177500	0,1	2,271072
4,179167	0,1	2,278399
4,180833	0,1	2,255954
4,182500	0,1	2,274111
4,184167	0,1	2,303950
4,185833	0,1	2,323125
4,187500	0,1	2,309405
4,189167	0,1	2,341360
4,190833	0,1	2,326861
4,192500	0,1	2,302155
4,194167	0,1	2,339215
4,195833	0,1	2,371490
4,197500	0,1	2,324369
4,199167	0,1	2,357814
4,200833	0,1	2,315821
4,202500	0,1	2,354171
4,204167	0,1	2,343043
4,205833	0,1	2,348442
4,207500	0,1	2,339072
4,209167	0,1	2,387940
4,210833	0,1	2,335378
4,212500	0,1	2,343888
4,214167	0,1	2,388880
4,215833	0,1	2,374099
4,217500	0,1	2,416564
4,219167	0,1	2,396867
4,220833	0,1	2,381908
4,222500	0,1	2,354120
4,224167	0,1	2,351079
4,225833	0,1	2,348848
4,227500	0,1	2,311000
4,229167	0,1	2,348838
4,230833	0,1	2,335410
4,232500	0,1	2,323892
4,234167	0,1	2,363747
4,235833	0,1	2,363176
4,237500	0,1	2,324681
4,239167	0,1	2,300035
4,240833	0,1	2,306390
4,242500	0,1	2,321877
4,244167	0,1	2,343372
4,245833	0,1	2,327575
4,247500	0,1	2,296911
4,249167	0,1	2,351046
4,250833	0,1	2,316063
4,252500	0,1	2,274326
4,254167	0,1	2,282460
4,255833	0,1	2,279763
4,257500	0,1	2,299957
4,259167	0,1	2,265240
4,260833	0,1	2,253718
4,262500	0,1	2,281852
4,264167	0,1	2,255442
4,265833	0,1	2,229954
4,267500	0,1	2,270781
4,269167	0,1	2,238816
4,270833	0,1	2,208532
4,272500	0,1	2,222625
4,274167	0,1	2,215891
4,275833	0,1	2,217272
4,277500	0,1	2,193312
4,279167	0,1	2,193440
4,280833	0,1	2,183224
4,282500	0,1	2,157655
4,284167	0,1	2,163513
4,285833	0,1	2,160105
4,287500	0,1	2,169228
4,289167	0,1	2,149822
4,290833	0,1	2,118940
4,292500	0,1	2,157862
4,294167	0,1	2,143218
4,295833	0,1	2,119993
4,297500	0,1	2,125494
4,299167	0,1	2,113428
4,300833	0,1	2,126611
4,302500	0,1	2,141377
4,304167	0,1	2,099426
4,305833	0,1	2,085277
4,307500	0,1	2,054506
4,309167	0,1	2,073690
4,310833	0,1	2,032409
4,312500	0,1	2,055550
4,314167	0,1	2,046592
4,315833	0,1	2,024048
4,317500	0,1	2,010474
4,319167	0,1	2,011209
4,320833	0,1	2,022482
4,322500	0,1	1,966142
4,324167	0,1	1,999623
4,325833	0,1	1,958311
4,327500	0,1	1,969586
4,329167	0,1	1,937931
4,330833	0,1	1,932208
4,332500	0,1	1,917624
4,334167	0,1	1,963727
4,335833	0,1	1,903792
4,337500	0,1	1,909466
4,339167	0,1	1,886780
4,340833	0,1	1,874065
4,342500	0,1	1,889162
4,344167	0,1	1,917156
4,345833	0,1	1,915354
4,347500	0,1	1,858265
4,349167	0,1	1,884141
4,350833	0,1	1,855833
4,352500	0,1	1,860966
4,354167	0,1	1,854860
4,355833	0,1	1,849205
4,357500	0,1	1,815263
4,359167	0,1	1,864901
4,360833	0,1	1,801757
4,362500	0,1	1,813182
4,364167	0,1	1,816998
4,365833	0,1	1,764483
4,367500	0,1	1,781952
4,369167	0,1	1,781118
4,370833	0,1	1,769646
4,372500	0,1	1,774133
4,374167	0,1	1,788194
4,375833	0,1	1,775365
4,377500	0,1	1,745084
4,379167	0,1	1,727174
4,380833	0,1	1,703582
4,382500	0,1	1,750914
4,384167	0,1	1,716383
4,385833	0,1	1,721157
4,387500	0,1	1,741581
4,389167	0,1	1,642193
4,390833	0,1	1,668923
4,392500	0,1	1,666216
4,394167	0,1	1,720693
4,395833	0,1	1,692854
4,397500	0,1	1,675011
4,399167	0,1	1,656686
4,400833	0,1	1,693871
4,402500	0,1	1,657144
4,404167	0,1	1,651898
4,405833	0,1	1,657908
4,407500	0,1	1,621080
4,409167	0,1	1,603428
4,410833	0,1	1,596061
4,412500	0,1	1,601100
4,414167	0,1	1,658478
4,415833	0,1	1,622051
4,417500	0,1	1,561080
4,419167	0,1	1,639248
4,420833	0,1	1,577589
4,422500	0,1	1,535165
4,424167	0,1	1,548045
4,425833	0,1	1,551826
4,427500	0,1	1,595018
4,429167	0,1	1,550381
4,430833	0,1	1,521100
4,432500	0,1	1,568688
4,434167	0,1	1,538783
4,435833	0,1	1,482451
4,437500	0,1	1,506655
4,439167	0,1	1,511345
4,440833	0,1	1,493489
4,442500	0,1	1,518839
4,444167	0,1	1,500240
4,445833	0,1	1,475754
4,447500	0,1	1,460666
4,449167	0,1	1,496388
4,450833	0,1	1,429797
4,452500	0,1	1,452802
4,454167	0,1	1,474172
4,455833	0,1	1,464768
4,457500	0,1	1,423787
4,459167	0,1	1,452876
4,460833	0,1	1,451302
4,462500	0,1	1,457304
4,464167	0,1	1,423492
4,465833	0,1	1,418254
4,467500	0,1	1,418772
4,469167	0,1	1,426422
4,470833	0,1	1,390865
4,472500	0,1	1,389668
4,474167	0,1	1,347464
4,475833	0,1	1,373246
4,477500	0,1	1,378764
4,479167	0,1	1,391350
4,480833	0,1	1,335905
4,482500	0,1	1,350491
4,484167	0,1	1,354536
4,485833	0,1	1,312131
4,487500	0,1	1,339383
4,489167	0,1	1,350240
4,490833	0,1	1,329730
4,492500	0,1	1,317395
4,494167	0,1	1,284006
4,495833	0,1	1,330503
4,497500	0,1	1,294465
4,499167	0,1	1,304261
4,500833	0,1	1,296830
4,502500	0,1	1,254343
4,504167	0,1	1,282281
4,505833	0,1	1,295763
4,507500	0,1	1,270130
4,509167	0,1	1,249172
4,510833	0,1	1,247648
4,512500	0,1	1,242399
4,514167	0,1	1,270637
4,515833	0,1	1,228162
4,517500	0,1	1,215824
4,519167	0,1	1,267924
4,520833	0,1	1,215834
4,522500	0,1	1,235478
4,524167	0,1	1,204456
4,525833	0,1	1,226811
4,527500	0,1	1,207121
4,529167	0,1	1,182731
4,530833	0,1	1,167569
4,532500	0,1	1,171793
4,534167	0,1	1,175729
4,535833	0,1	1,128738
4,537500	0,1	1,165118
4,539167	0,1	1,173249
4,540833	0,1	1,134712
4,542500	0,1	1,150300
4,544167	0,1	1,159985
4,545833	0,1	1,121342
4,547500	0,1	1,129413
4,549167	0,1	1,111452
4,550833	0,1	1,110571
4,552500	0,1	1,113002
4,554167	0,1	1,110838
4,555833	0,1	1,092227
4,557500	0,1	1,059283
4,559167	0,1	1,062639
4,560833	0,1	1,107688
4,562500	0,1	1,043952
4,564167	0,1	1,066214
4,565833	0,1	1,045479
4,567500	0,1	1,011092
4,569167	0,1	1,029150
4,570833	0,1	1,057238
4,572500	0,1	1,000371
4,574167	0,1	1,039041
4,575833	0,1	1,031738
4,577500	0,1	1,049618
4,579167	0,1	1,025980
4,580833	0,1	1,008400
4,582500	0,1	1,007904
4,584167	0,1	1,001391
4,585833	0,1	1,003386
4,587500	0,1	1,015383
4,589167	0,1	1,010593
4,590833	0,1	0,965091
4,592500	0,1	0,981393
4,594167	0,1	0,961813
4,595833	0,1	0,984360
4,597500	0,1	0,962336
4,599167	0,1	0,937388
4,600833	0,1	0,964951
4,602500	0,1	0,969413
4,604167	0,1	0,960749
4,605833	0,1	0,923161
4,607500	0,1	0,965364
4,609167	0,1	0,931121
4,610833	0,1	0,927289
4,612500	0,1	0,896631
4,614167	0,1	0,930216
4,615833	0,1	0,899394
4,617500	0,1	0,908833
4,619167	0,1	0,874537
4,620833	0,1	0,944937
4,622500	0,1	0,933575
4,624167	0,1	0,897338
4,625833	0,1	0,871943
4,627500	0,1	0,892797
4,629167	0,1	0,893106
4,630833	0,1	0,855916
4,632500	0,1	0,878968
4,634167	0,1	0,845179
4,635833	0,1	0,879317
4,637500	0,1	0,870818
4,639167	0,1	0,871268
4,640833	0,1	0,893843
4,642500	0,1	0,856683
4,644167	0,1	0,881001
4,645833	0,1	0,873510
4,647500	0,1	0,831292
4,649167	0,1	0,850994
4,650833	0,1	0,888435
4,652500	0,1	0,850254
4,654167	0,1	0,817976
4,655833	0,1	0,881927
4,657500	0,1	0,834410
4,659167	0,1	0,827655
4,660833	0,1	0,827593
4,662500	0,1	0,815875
4,664167	0,1	0,837827
4,665833	0,1	0,785808
4,667500	0,1	0,817606
4,669167	0,1	0,827712
4,670833	0,1	0,776174
4,672500	0,1	0,813613
4,674167	0,1	0,775062
4,675833	0,1	0,790277
4,677500	0,1	0,801778
4,679167	0,1	0,835294
4,680833	0,1	0,778110
4,682500	0,1	0,798269
4,684167	0,1	0,758222
4,685833	0,1	0,802122
4,687500	0,1	0,778808
4,689167	0,1	0,817716
4,690833	0,1	0,793068
4,692500	0,1	0,772769
4,694167	0,1	0,781783
4,695833	0,1	0,736726
4,697500	0,1	0,781017
4,699167	0,1	0,725282
4,700833	0,1	0,778254
4,702500	0,1	0,759920
4,704167	0,1	0,734415
4,705833	0,1	0,735879
4,707500	0,1	0,736644
4,709167	0,1	0,744262
4,710833	0,1	0,729072
4,712500	0,1	0,784756
4,714167	0,1	0,694050
4,715833	0,1	0,754621
4,717500	0,1	0,732068
4,719167	0,1	0,759797
4,720833	0,1	0,721820
4,722500	0,1	0,734346
4,724167	0,1	0,746437
4,725833	0,1	0,696446
4,727500	0,1	0,735105
4,729167	0,1	0,733998
4,730833	0,1	0,718463
4,732500	0,1	0,688403
4,734167	0,1	0,742961
4,735833	0,1	0,712609
4,737500	0,1	0,685007
4,739167	0,1	0,706792
4,740833	0,1	0,683947
4,742500	0,1	0,683995
4,744167	0,1	0,686394
4,745833	0,1	0,690674
4,747500	0,1	0,704499
4,749167	0,1	0,718756
4,750833	0,1	0,696200
4,752500	0,1	0,693375
4,754167	0,1	0,701690
4,755833	0,1	0,687934
4,757500	0,1	0,664182
4,759167	0,1	0,712299
4,760833	0,1	0,717639
4,762500	0,1	0,689047
4,764167	0,1	0,699761
4,765833	0,1	0,702102
4,767500	0,1	0,636345
4,769167	0,1	0,694119
4,770833	0,1	0,666365
4,772500	0,1	0,688210
4,774167	0,1	0,656168
4,775833	0,1	0,674783
4,777500	0,1	0,680530
4,779167	0,1	0,656332
4,780833	0,1	0,666288
4,782500	0,1	0,686915
4,784167	0,1	0,692893
4,785833	0,1	0,692364
4,787500	0,1	0,685632
4,789167	0,1	0,675440
4,790833	0,1	0,673258
4,792500	0,1	0,682994
4,794167	0,1	0,630658
4,795833	0,1	0,678000
4,797500	0,1	0,644660
4,799167	0,1	0,667800
4,800833	0,1	0,630547
4,802500	0,1	0,662647
4,804167	0,1	0,666110
4,805833	0,1	0,660948
4,807500	0,1	0,678532
4,809167	0,1	0,645663
4,810833	0,1	0,621040
4,812500	0,1	0,627420
4,814167	0,1	0,631178
4,815833	0,1	0,634108
4,817500	0,1	0,668157
4,819167	0,1	0,658900
4,820833	0,1	0,665644
4,822500	0,1	0,652572
4,824167	0,1	0,620564
4,825833	0,1	0,643006
4,827500	0,1	0,621158
4,829167	0,1	0,637384
4,830833	0,1	0,652386
4,832500	0,1	0,620284
4,834167	0,1	0,630758
4,835833	0,1	0,640375
4,837500	0,1	0,612252
4,839167	0,1	0,604744
4,840833	0,1	0,623496
4,842500	0,1	0,594606
4,844167	0,1	0,611890
4,845833	0,1	0,581361
4,847500	0,1	0,627351
4,849167	0,1	0,595951
4,850833	0,1	0,623546
4,852500	0,1	0,628825
4,854167	0,1	0,627250
4,855833	0,1	0,609324
4,857500	0,1	0,598351
4,859167	0,1	0,619847
4,860833	0,1	0,612422
4,862500	0,1	0,633108
4,864167	0,1	0,646172
4,865833	0,1	0,656144
4,867500	0,1	0,611439
4,869167	0,1	0,587810
4,870833	0,1	0,618447
4,872500	0,1	0,609669
4,874167	0,1	0,605437
4,875833	0,1	0,606092
4,877500	0,1	0,634448
4,879167	0,1	0,627543
4,880833	0,1	0,597013
4,882500	0,1	0,612648
4,884167	0,1	0,608844
4,885833	0,1	0,625658
4,887500	0,1	0,623262
4,889167	0,1	0,603045
4,890833	0,1	0,638775
4,892500	0,1	0,614473
4,894167	0,1	0,588098
4,895833	0,1	0,627766
4,897500	0,1	0,613713
4,899167	0,1	0,598645
4,900833	0,1	0,639603
4,902500	0,1	0,602702
4,904167	0,1	0,635497
4,905833	0,1	0,617695
4,907500	0,1	0,605390
4,909167	0,1	0,604564
4,910833	0,1	0,603219
4,912500	0,1	0,600987
4,914167	0,1	0,632991
4,915833	0,1	0,595427
4,917500	0,1	0,583056
4,919167	0,1	0,606605
4,920833	0,1	0,559567
4,922500	0,1	0,561955
4,924167	0,1	0,637835
4,925833	0,1	0,601461
4,927500	0,1	0,611415
4,929167	0,1	0,590206
4,930833	0,1	0,605377
4,932500	0,1	0,612352
4,934167	0,1	0,635853
4,935833	0,1	0,589458
4,937500	0,1	0,568993
4,939167	0,1	0,588910
4,940833	0,1	0,579009
4,942500	0,1	0,609778
4,944167	0,1	0,588857
4,945833	0,1	0,577957
4,947500	0,1	0,581406
4,949167	0,1	0,624959
4,950833	0,1	0,555641
4,952500	0,1	0,605662
4,954167	0,1	0,621789
4,955833	0,1	0,612005
4,957500	0,1	0,625353
4,959167	0,1	0,613008
4,960833	0,1	0,622906
4,962500	0,1	0,589683
4,964167	0,1	0,619386
4,965833	0,1	0,563434
4,967500	0,1	0,595876
4,969167	0,1	0,601041
4,970833	0,1	0,618863
4,972500	0,1	0,554588
4,974167	0,1	0,601620
4,975833	0,1	0,590908
4,977500	0,1	0,576080
4,979167	0,1	0,591659
4,980833	0,1	0,577076
4,982500	0,1	0,589970
4,984167	0,1	0,582178
4,985833	0,1	0,629512
4,987500	0,1	0,577854
4,989167	0,1	0,585864
4,990833	0,1	0,592372
4,992500	0,1	0,604494
4,994167	0,1	0,591851
4,995833	0,1	0,628643
4,997500	0,1	0,602819
4,999167	0,1	0,639134
5,000833	0,1	0,594490
5,002500	0,1	0,640951
5,004167	0,1	0,611142
5,005833	0,1	0,597300
5,007500	0,1	0,657947
5,009167	0,1	0,653449
5,010833	0,1	0,643305
5,012500	0,1	0,610546
5,014167	0,1	0,673249
5,015833	0,1	0,644427
5,017500	0,1	0,630119
5,019167	0,1	0,616232
5,020833	0,1	0,614001
5,022500	0,1	0,634330
5,024167	0,1	0,661824
5,025833	0,1	0,649117
5,027500	0,1	0,630311
5,029167	0,1	0,682213
5,030833	0,1	0,622923
5,032500	0,1	0,651572
5,034167	0,1	0,647697
5,035833	0,1	0,665581
5,037500	0,1	0,622341
5,039167	0,1	0,646635
5,040833	0,1	0,665934
5,042500	0,1	0,666404
5,044167	0,1	0,681523
5,045833	0,1	0,629548
5,047500	0,1	0,627477
5,049167	0,1	0,659535
5,050833	0,1	0,680466
5,052500	0,1	0,667238
5,054167	0,1	0,618120
5,055833	0,1	0,657786
5,057500	0,1	0,661849
5,059167	0,1	0,670631
5,060833	0,1	0,686916
5,062500	0,1	0,687031
5,064167	0,1	0,712355
5,065833	0,1	0,684287
5,067500	0,1	0,672262
5,069167	0,1	0,688625
5,070833	0,1	0,671573
5,072500	0,1	0,729993
5,074167	0,1	0,717172
5,075833	0,1	0,728655
5,077500	0,1	0,703572
5,079167	0,1	0,708440
5,080833	0,1	0,701649
5,082500	0,1	0,704802
5,084167	0,1	0,723089
5,085833	0,1	0,701412
5,087500	0,1	0,733980
5,089167	0,1	0,705103
5,090833	0,1	0,701819
5,092500	0,1	0,723543
5,094167	0,1	0,704380
5,095833	0,1	0,704158
5,097500	0,1	0,714534
5,099167	0,1	0,665312
5,100833	0,1	0,724016
5,102500	0,1	0,713078
5,104167	0,1	0,726315
5,105833	0,1	0,734941
5,107500	0,1	0,753926
5,109167	0,1	0,709043
5,110833	0,1	0,725669
5,112500	0,1	0,759253
5,114167	0,1	0,698308
5,115833	0,1	0,717636
5,117500	0,1	0,739917
5,119167	0,1	0,739044
5,120833	0,1	0,754511
5,122500	0,1	0,684828
5,124167	0,1	0,743073
5,125833	0,1	0,694265
5,127500	0,1	0,728476
5,129167	0,1	0,715538
5,130833	0,1	0,750474
5,132500	0,1	0,770514
5,134167	0,1	0,720706
5,135833	0,1	0,762245
5,137500	0,1	0,724874
5,139167	0,1	0,706871
5,140833	0,1	0,756386
5,142500	0,1	0,749184
5,144167	0,1	0,697550
5,145833	0,1	0,725373
5,147500	0,1	0,741198
5,149167	0,1	0,745262
5,150833	0,1	0,723744
5,152500	0,1	0,703587
5,154167	0,1	0,712953
5,155833	0,1	0,725610
5,157500	0,1	0,693376
5,159167	0,1	0,726662
5,160833	0,1	0,714893
5,162500	0,1	0,677675
5,164167	0,1	0,717925
5,165833	0,1	0,742323
5,167500	0,1	0,696955
5,169167	0,1	0,717275
5,170833	0,1	0,727666
5,172500	0,1	0,692687
5,174167	0,1	0,723017
5,175833	0,1	0,699349
5,177500	0,1	0,683226
5,179167	0,1	0,726368
5,180833	0,1	0,716233
5,182500	0,1	0,740441
5,184167	0,1	0,716357
5,185833	0,1	0,736048
5,187500	0,1	0,678025
5,189167	0,1	0,676662
5,190833	0,1	0,698273
5,192500	0,1	0,667250
5,194167	0,1	0,707837
5,195833	0,1	0,651938
5,197500	0,1	0,680590
5,199167	0,1	0,662240
5,200833	0,1	0,653570
5,202500	0,1	0,721898
5,204167	0,1	0,666537
5,205833	0,1	0,667979
5,207500	0,1	0,653691
5,209167	0,1	0,666461
5,210833	0,1	0,654561
5,212500	0,1	0,677301
5,214167	0,1	0,637509
5,215833	0,1	0,624726
5,217500	0,1	0,631941
5,219167	0,1	0,646058
5,220833	0,1	0,630649
5,222500	0,1	0,640495
5,224167	0,1	0,625260
5,225833	0,1	0,616343
5,227500	0,1	0,625958
5,229167	0,1	0,656776
5,230833	0,1	0,647114
5,232500	0,1	0,605450
5,234167	0,1	0,605317
5,235833	0,1	0,600111
5,237500	0,1	0,590213
5,239167	0,1	0,614695
5,240833	0,1	0,596723
5,242500	0,1	0,622783
5,244167	0,1	0,591274
5,245833	0,1	0,583462
5,247500	0,1	0,572919
5,249167	0,1	0,579775
5,250833	0,1	0,590139
5,252500	0,1	0,559147
5,254167	0,1	0,562888
5,255833	0,1	0,574550
5,257500	0,1	0,574553
5,259167	0,1	0,605671
5,260833	0,1	0,596763
5,262500	0,1	0,540754
5,264167	0,1	0,542502
5,265833	0,1	0,596628
5,267500	0,1	0,569696
5,269167	0,1	0,561717
5,270833	0,1	0,562948
5,272500	0,1	0,526389
5,274167	0,1	0,534114
5,275833	0,1	0,523219
5,277500	0,1	0,520928
5,279167	0,1	0,541904
5,280833	0,1	0,514961
5,282500	0,1	0,543429
5,284167	0,1	0,518066
5,285833	0,1	0,534754
5,287500	0,1	0,496270
5,289167	0,1	0,509503
5,290833	0,1	0,535515
5,292500	0,1	0,517774
5,294167	0,1	0,525732
5,295833	0,1	0,527432
5,297500	0,1	0,489002
5,299167	0,1	0,532750
5,300833	0,1	0,527261
5,302500	0,1	0,489002
5,304167	0,1	0,501586
5,305833	0,1	0,507630
5,307500	0,1	0,463393
5,309167	0,1	0,515350
5,310833	0,1	0,491518
5,312500	0,1	0,512542
5,314167	0,1	0,508862
5,315833	0,1	0,492336
5,317500	0,1	0,471711
5,319167	0,1	0,468779
5,320833	0,1	0,509667
5,322500	0,1	0,471248
5,324167	0,1	0,477624
5,325833	0,1	0,479206
5,327500	0,1	0,456243
5,329167	0,1	0,471172
5,330833	0,1	0,457295
5,332500	0,1	0,462917
5,334167	0,1	0,496488
5,335833	0,1	0,443595
5,337500	0,1	0,479606
5,339167	0,1	0,435683
5,340833	0,1	0,500401
5,342500	0,1	0,466617
5,344167	0,1	0,448622
5,345833	0,1	0,429817
5,347500	0,1	0,419856
5,349167	0,1	0,428054
5,350833	0,1	0,452541
5,352500	0,1	0,455360
5,354167	0,1	0,464670
5,355833	0,1	0,434272
5,357500	0,1	0,427001
5,359167	0,1	0,480541
5,360833	0,1	0,458291
5,362500	0,1	0,425542
5,364167	0,1	0,484814
5,365833	0,1	0,426425
5,367500	0,1	0,440413
5,369167	0,1	0,405505
5,370833	0,1	0,447731
5,372500	0,1	0,493670
5,374167	0,1	0,450856
5,375833	0,1	0,426187
5,377500	0,1	0,413936
5,379167	0,1	0,373286
5,380833	0,1	0,393600
5,382500	0,1	0,408950
5,384167	0,1	0,411122
5,385833	0,1	0,393668
5,387500	0,1	0,426114
5,389167	0,1	0,390977
5,390833	0,1	0,424766
5,392500	0,1	0,406381
5,394167	0,1	0,419089
5,395833	0,1	0,388749
5,397500	0,1	0,378084
5,399167	0,1	0,398638
5,400833	0,1	0,369006
5,402500	0,1	0,417673
5,404167	0,1	0,372175
5,405833	0,1	0,430617
5,407500	0,1	0,391681
5,409167	0,1	0,418732
5,410833	0,1	0,408606
5,412500	0,1	0,363388
5,414167	0,1	0,415325
5,415833	0,1	0,406378
5,417500	0,1	0,393550
5,419167	0,1	0,403504
5,420833	0,1	0,383767
5,422500	0,1	0,395827
5,424167	0,1	0,361626
5,425833	0,1	0,401916
5,427500	0,1	0,366255
5,429167	0,1	0,340301
5,430833	0,1	0,332272
5,432500	0,1	0,375199
5,434167	0,1	0,420017
5,435833	0,1	0,413350
5,437500	0,1	0,357298
5,439167	0,1	0,366479
5,440833	0,1	0,365955
5,442500	0,1	0,378781
5,444167	0,1	0,381946
5,445833	0,1	0,391025
5,447500	0,1	0,354598
5,449167	0,1	0,372101
5,450833	0,1	0,353363
5,452500	0,1	0,362495
5,454167	0,1	0,371575
5,455833	0,1	0,344521
5,457500	0,1	0,387442
5,459167	0,1	0,342182
5,460833	0,1	0,350544
5,462500	0,1	0,319507
5,464167	0,1	0,343864
5,465833	0,1	0,288058
5,467500	0,1	0,360488
5,469167	0,1	0,338602
5,470833	0,1	0,334381
5,472500	0,1	0,320208
5,474167	0,1	0,373440
5,475833	0,1	0,354066
5,477500	0,1	0,336728
5,479167	0,1	0,373151
5,480833	0,1	0,345691
5,482500	0,1	0,338188
5,484167	0,1	0,358978
5,485833	0,1	0,337782
5,487500	0,1	0,353179
5,489167	0,1	0,302177
5,490833	0,1	0,348662
5,492500	0,1	0,350195
5,494167	0,1	0,351367
5,495833	0,1	0,341764
5,497500	0,1	0,309904
5,499167	0,1	0,327463
5,500833	0,1	0,303281
5,502500	0,1	0,324418
5,504167	0,1	0,345562
5,505833	0,1	0,351132
5,507500	0,1	0,301882
5,509167	0,1	0,341692
5,510833	0,1	0,319447
5,512500	0,1	0,325417
5,514167	0,1	0,319035
5,515833	0,1	0,289224
5,517500	0,1	0,301750
5,519167	0,1	0,339467
5,520833	0,1	0,288356
5,522500	0,1	0,309069
5,524167	0,1	0,353640
5,525833	0,1	0,310198
5,527500	0,1	0,312412
5,529167	0,1	0,319381
5,530833	0,1	0,353292
5,532500	0,1	0,353477
5,534167	0,1	0,331691
5,535833	0,1	0,292448
5,537500	0,1	0,355688
5,539167	0,1	0,306331
5,540833	0,1	0,314637
5,542500	0,1	0,309075
5,544167	0,1	0,345267
5,545833	0,1	0,319450
5,547500	0,1	0,321962
5,549167	0,1	0,302930
5,550833	0,1	0,311358
5,552500	0,1	0,310832
5,554167	0,1	0,289750
5,555833	0,1	0,314106
5,557500	0,1	0,323952
5,559167	0,1	0,316691
5,560833	0,1	0,297775
5,562500	0,1	0,295955
5,564167	0,1	0,329979
5,565833	0,1	0,313533
5,567500	0,1	0,323188
5,569167	0,1	0,347086
5,570833	0,1	0,282262
5,572500	0,1	0,308893
5,574167	0,1	0,310890
5,575833	0,1	0,277158
5,577500	0,1	0,288042
5,579167	0,1	0,292029
5,580833	0,1	0,273879
5,582500	0,1	0,278791
5,584167	0,1	0,324529
5,585833	0,1	0,275349
5,587500	0,1	0,284530
5,589167	0,1	0,281839
5,590833	0,1	0,297883
5,592500	0,1	0,296658
5,594167	0,1	0,316626
5,595833	0,1	0,336483
5,597500	0,1	0,285895
5,599167	0,1	0,286349
5,600833	0,1	0,312409
5,602500	0,1	0,288171
5,604167	0,1	0,269128
5,605833	0,1	0,333310
5,607500	0,1	0,332153
5,609167	0,1	0,312770
5,610833	0,1	0,254325
5,612500	0,1	0,297230
5,614167	0,1	0,279851
5,615833	0,1	0,281547
5,617500	0,1	0,299583
5,619167	0,1	0,309657
5,620833	0,1	0,266444
5,622500	0,1	0,302389
5,624167	0,1	0,341225
5,625833	0,1	0,273185
5,627500	0,1	0,271822
5,629167	0,1	0,293667
5,630833	0,1	0,272533
5,632500	0,1	0,276975
5,634167	0,1	0,316388
5,635833	0,1	0,296956
5,637500	0,1	0,305151
5,639167	0,1	0,312235
5,640833	0,1	0,329338
5,642500	0,1	0,296785
5,644167	0,1	0,302749
5,645833	0,1	0,319148
5,647500	0,1	0,287820
5,649167	0,1	0,300109
5,650833	0,1	0,285825
5,652500	0,1	0,287463
5,654167	0,1	0,272299
5,655833	0,1	0,294898
5,657500	0,1	0,290626
5,659167	0,1	0,263395
5,660833	0,1	0,285874
5,662500	0,1	0,287986
5,664167	0,1	0,316449
5,665833	0,1	0,303925
5,667500	0,1	0,275810
5,669167	0,1	0,296947
5,670833	0,1	0,304620
5,672500	0,1	0,329161
5,674167	0,1	0,298423
5,675833	0,1	0,303041
5,677500	0,1	0,310422
5,679167	0,1	0,337303
5,680833	0,1	0,327647
5,682500	0,1	0,315756
5,684167	0,1	0,301055
5,685833	0,1	0,308606
5,687500	0,1	0,275521
5,689167	0,1	0,302980
5,690833	0,1	0,333143
5,692500	0,1	0,331395
5,694167	0,1	0,316987
5,695833	0,1	0,344860
5,697500	0,1	0,309496
5,699167	0,1	0,278217
5,700833	0,1	0,359725
5,702500	0,1	0,305108
5,704167	0,1	0,323481
5,705833	0,1	0,321552
5,707500	0,1	0,295375
5,709167	0,1	0,376421
5,710833	0,1	0,314243
5,712500	0,1	0,315575
5,714167	0,1	0,321901
5,715833	0,1	0,324598
5,717500	0,1	0,329752
5,719167	0,1	0,307266
5,720833	0,1	0,336659
5,722500	0,1	0,356108
5,724167	0,1	0,292220
5,725833	0,1	0,325527
5,727500	0,1	0,336780
5,729167	0,1	0,297664
5,730833	0,1	0,357210
5,732500	0,1	0,309380
5,734167	0,1	0,307083
5,735833	0,1	0,330331
5,737500	0,1	0,308555
5,739167	0,1	0,333788
5,740833	0,1	0,348551
5,742500	0,1	0,335964
5,744167	0,1	0,336488
5,745833	0,1	0,312007
5,747500	0,1	0,317918
5,749167	0,1	0,365885
5,750833	0,1	0,349614
5,752500	0,1	0,339654
5,754167	0,1	0,340588
5,755833	0,1	0,299947
5,757500	0,1	0,331326
5,759167	0,1	0,325244
5,760833	0,1	0,404132
5,762500	0,1	0,322391
5,764167	0,1	0,329397
5,765833	0,1	0,342109
5,767500	0,1	0,336665
5,769167	0,1	0,349022
5,770833	0,1	0,297372
5,772500	0,1	0,307786
5,774167	0,1	0,315224
5,775833	0,1	0,358680
5,777500	0,1	0,390198
5,779167	0,1	0,362505
5,780833	0,1	0,308446
5,782500	0,1	0,333672
5,784167	0,1	0,349371
5,785833	0,1	0,297373
5,787500	0,1	0,363888
5,789167	0,1	0,344519
5,790833	0,1	0,375377
5,792500	0,1	0,340248
5,794167	0,1	0,314648
5,795833	0,1	0,358972
5,797500	0,1	0,348325
5,799167	0,1	0,357927
5,800833	0,1	0,369760
5,802500	0,1	0,348972
5,804167	0,1	0,336902
5,805833	0,1	0,321495
5,807500	0,1	0,346616
5,809167	0,1	0,362084
5,810833	0,1	0,321734
5,812500	0,1	0,336602
5,814167	0,1	0,353415
5,815833	0,1	0,320505
5,817500	0,1	0,322138
5,819167	0,1	0,299065
5,820833	0,1	0,356099
5,822500	0,1	0,344926
5,824167	0,1	0,297607
5,825833	0,1	0,349949
5,827500	0,1	0,338191
5,829167	0,1	0,313768
5,830833	0,1	0,284364
5,832500	0,1	0,342392
5,834167	0,1	0,326183
5,835833	0,1	0,372212
5,837500	0,1	0,329588
5,839167	0,1	0,332036
5,840833	0,1	0,372213
5,842500	0,1	0,361446
5,844167	0,1	0,323844
5,845833	0,1	0,329224
5,847500	0,1	0,370513
5,849167	0,1	0,321036
5,850833	0,1	0,330220
5,852500	0,1	0,347263
5,854167	0,1	0,356578
5,855833	0,1	0,324781
5,857500	0,1	0,332679
5,859167	0,1	0,322901
5,860833	0,1	0,338770
5,862500	0,1	0,329345
5,864167	0,1	0,277515
5,865833	0,1	0,309477
5,867500	0,1	0,325648
5,869167	0,1	0,344041
5,870833	0,1	0,302058
5,872500	0,1	0,338354
5,874167	0,1	0,354586
5,875833	0,1	0,331400
5,877500	0,1	0,350074
5,879167	0,1	0,331807
5,880833	0,1	0,263931
5,882500	0,1	0,306311
5,884167	0,1	0,321840
5,885833	0,1	0,309724
5,887500	0,1	0,329629
5,889167	0,1	0,325242
5,890833	0,1	0,329341
5,892500	0,1	0,323428
5,894167	0,1	0,343396
5,895833	0,1	0,302702
5,897500	0,1	0,304796
5,899167	0,1	0,315986
5,900833	0,1	0,339294
5,902500	0,1	0,307854
5,904167	0,1	0,333261
5,905833	0,1	0,306212
5,907500	0,1	0,302402
5,909167	0,1	0,341106
5,910833	0,1	0,323020
5,912500	0,1	0,279680
5,914167	0,1	0,316508
5,915833	0,1	0,320437
5,917500	0,1	0,307966
5,919167	0,1	0,329806
5,920833	0,1	0,305742
5,922500	0,1	0,317272
5,924167	0,1	0,301757
5,925833	0,1	0,293969
5,927500	0,1	0,324766
5,929167	0,1	0,286358
5,930833	0,1	0,322363
5,932500	0,1	0,285538
5,934167	0,1	0,325702
5,935833	0,1	0,298480
5,937500	0,1	0,310774
5,939167	0,1	0,310130
5,940833	0,1	0,317801
5,942500	0,1	0,315168
5,944167	0,1	0,306735
5,945833	0,1	0,309837
5,947500	0,1	0,341402
5,949167	0,1	0,311895
5,950833	0,1	0,312590
5,952500	0,1	0,318271
5,954167	0,1	0,275173
5,955833	0,1	0,330737
5,957500	0,1	0,287003
5,959167	0,1	0,329978
5,960833	0,1	0,300122
5,962500	0,1	0,284186
5,964167	0,1	0,286938
5,965833	0,1	0,324884
5,967500	0,1	0,284484
5,969167	0,1	0,294311
5,970833	0,1	0,294783
5,972500	0,1	0,302282
5,974167	0,1	0,307493
5,975833	0,1	0,296427
5,977500	0,1	0,323892
5,979167	0,1	0,286828
5,980833	0,1	0,325644
5,982500	0,1	0,272653
5,984167	0,1	0,303679
5,985833	0,1	0,286881
5,987500	0,1	0,284067
5,989167	0,1	0,281199
5,990833	0,1	0,271648
5,992500	0,1	0,302801
5,994167	0,1	0,335602
5,995833	0,1	0,275644
5,997500	0,1	0,264447
5,999167	0,1	0,277853
6,000833	0,1	0,321131
