File Path	chrom://chromeleon01/ikbm_chromeleon/2022/Rezex/Esteban/220612_chitin_4_7.seq/460.smp/UV_VIS_1.channel/UV_VIS_1.chm
Channel	UV_VIS_1

Injection Information:
Data Vault	ikbm_chromeleon
Injection	4_24h-ChiBI_1
Injection Number	43
Position	RE6
Comment	
Processing Method	New ProcMethod
Instrument Method	Short_Rezex_6min_194nm
Type	Unknown
Status	Finished
Injection Date	12.06.2022
Injection Time	21:46:08
Injection Volume (µl)	8,000
Dilution Factor	1,0000
Weight	1,0000

Chromatogram Data Information:
Time Min. (min)	0,000833
Time Max. (min)	6,000833
Data Points	3601
Detector	UV
Generating Data System	Chromeleon 7.2.9.11323
Exporting Data System	Chromeleon 7.2.9.0
Operator	Instrument Controller
Signal Quantity	Absorbance
Signal Unit	mAU
Signal Min.	-0,008878
Signal Max.	180,345805
Channel	UV_VIS_1
Driver Name	VWD3000.dll
Channel Type	Evaluation
Min. Step (s)	0,1
Max. Step (s)	0,1
Average Step (s)	0,1

Signal Parameter Information:
Signal Info	WVL:194 nm

Chromatogram Data:
Time (min)	Step (s)	Value (mAU)
0,000833	n.a.	0,025789
0,002500	0,1	-0,006663
0,004167	0,1	0,044685
0,005833	0,1	0,058021
0,007500	0,1	0,021517
0,009167	0,1	0,053281
0,010833	0,1	0,038990
0,012500	0,1	0,067613
0,014167	0,1	0,047208
0,015833	0,1	0,023319
0,017500	0,1	0,006927
0,019167	0,1	0,025784
0,020833	0,1	0,022379
0,022500	0,1	0,062006
0,024167	0,1	0,040796
0,025833	0,1	0,013470
0,027500	0,1	-0,008878
0,029167	0,1	-0,002093
0,030833	0,1	0,046645
0,032500	0,1	0,023735
0,034167	0,1	-0,005720
0,035833	0,1	-0,000641
0,037500	0,1	0,005607
0,039167	0,1	0,017578
0,040833	0,1	0,037637
0,042500	0,1	0,046302
0,044167	0,1	0,003751
0,045833	0,1	0,019771
0,047500	0,1	0,043304
0,049167	0,1	0,043692
0,050833	0,1	0,065652
0,052500	0,1	0,047561
0,054167	0,1	0,047523
0,055833	0,1	0,057441
0,057500	0,1	0,086673
0,059167	0,1	0,053685
0,060833	0,1	0,059727
0,062500	0,1	0,083199
0,064167	0,1	0,106933
0,065833	0,1	0,081695
0,067500	0,1	0,065784
0,069167	0,1	0,090091
0,070833	0,1	0,082946
0,072500	0,1	0,097463
0,074167	0,1	0,112891
0,075833	0,1	0,067271
0,077500	0,1	0,059244
0,079167	0,1	0,046208
0,080833	0,1	0,052254
0,082500	0,1	0,091020
0,084167	0,1	0,116689
0,085833	0,1	0,090491
0,087500	0,1	0,107835
0,089167	0,1	0,102944
0,090833	0,1	0,094219
0,092500	0,1	0,108028
0,094167	0,1	0,090710
0,095833	0,1	0,125349
0,097500	0,1	0,125585
0,099167	0,1	0,130317
0,100833	0,1	0,089235
0,102500	0,1	0,046379
0,104167	0,1	0,119802
0,105833	0,1	0,093160
0,107500	0,1	0,088294
0,109167	0,1	0,083525
0,110833	0,1	0,082397
0,112500	0,1	0,088000
0,114167	0,1	0,087937
0,115833	0,1	0,061958
0,117500	0,1	0,087675
0,119167	0,1	0,081238
0,120833	0,1	0,106740
0,122500	0,1	0,084174
0,124167	0,1	0,120615
0,125833	0,1	0,057359
0,127500	0,1	0,090378
0,129167	0,1	0,117269
0,130833	0,1	0,102558
0,132500	0,1	0,106422
0,134167	0,1	0,074323
0,135833	0,1	0,126152
0,137500	0,1	0,096541
0,139167	0,1	0,123582
0,140833	0,1	0,102015
0,142500	0,1	0,138295
0,144167	0,1	0,108423
0,145833	0,1	0,151919
0,147500	0,1	0,120052
0,149167	0,1	0,122556
0,150833	0,1	0,144128
0,152500	0,1	0,153632
0,154167	0,1	0,157820
0,155833	0,1	0,142172
0,157500	0,1	0,167027
0,159167	0,1	0,151062
0,160833	0,1	0,202965
0,162500	0,1	0,133296
0,164167	0,1	0,161357
0,165833	0,1	0,183101
0,167500	0,1	0,151098
0,169167	0,1	0,137890
0,170833	0,1	0,201159
0,172500	0,1	0,177989
0,174167	0,1	0,145203
0,175833	0,1	0,114995
0,177500	0,1	0,165765
0,179167	0,1	0,188156
0,180833	0,1	0,166458
0,182500	0,1	0,184905
0,184167	0,1	0,174605
0,185833	0,1	0,198012
0,187500	0,1	0,183785
0,189167	0,1	0,206515
0,190833	0,1	0,165175
0,192500	0,1	0,183553
0,194167	0,1	0,192831
0,195833	0,1	0,221429
0,197500	0,1	0,219471
0,199167	0,1	0,182373
0,200833	0,1	0,216274
0,202500	0,1	0,224077
0,204167	0,1	0,261271
0,205833	0,1	0,237386
0,207500	0,1	0,227174
0,209167	0,1	0,248778
0,210833	0,1	0,232842
0,212500	0,1	0,231552
0,214167	0,1	0,223823
0,215833	0,1	0,245945
0,217500	0,1	0,208850
0,219167	0,1	0,218180
0,220833	0,1	0,203110
0,222500	0,1	0,256340
0,224167	0,1	0,274939
0,225833	0,1	0,250883
0,227500	0,1	0,269525
0,229167	0,1	0,234232
0,230833	0,1	0,283948
0,232500	0,1	0,263930
0,234167	0,1	0,210787
0,235833	0,1	0,215539
0,237500	0,1	0,225107
0,239167	0,1	0,258954
0,240833	0,1	0,244341
0,242500	0,1	0,308754
0,244167	0,1	0,231665
0,245833	0,1	0,272068
0,247500	0,1	0,248209
0,249167	0,1	0,243730
0,250833	0,1	0,283890
0,252500	0,1	0,296783
0,254167	0,1	0,261777
0,255833	0,1	0,303381
0,257500	0,1	0,284260
0,259167	0,1	0,296175
0,260833	0,1	0,301586
0,262500	0,1	0,321717
0,264167	0,1	0,291415
0,265833	0,1	0,289086
0,267500	0,1	0,282713
0,269167	0,1	0,310413
0,270833	0,1	0,288994
0,272500	0,1	0,267314
0,274167	0,1	0,262573
0,275833	0,1	0,367581
0,277500	0,1	0,286657
0,279167	0,1	0,310117
0,280833	0,1	0,313700
0,282500	0,1	0,343559
0,284167	0,1	0,314061
0,285833	0,1	0,299528
0,287500	0,1	0,357722
0,289167	0,1	0,308012
0,290833	0,1	0,342046
0,292500	0,1	0,293937
0,294167	0,1	0,339500
0,295833	0,1	0,338997
0,297500	0,1	0,351783
0,299167	0,1	0,317126
0,300833	0,1	0,351003
0,302500	0,1	0,322924
0,304167	0,1	0,328685
0,305833	0,1	0,336222
0,307500	0,1	0,330781
0,309167	0,1	0,384509
0,310833	0,1	0,385773
0,312500	0,1	0,349251
0,314167	0,1	0,408764
0,315833	0,1	0,390906
0,317500	0,1	0,358338
0,319167	0,1	0,373179
0,320833	0,1	0,400432
0,322500	0,1	0,400474
0,324167	0,1	0,381761
0,325833	0,1	0,402786
0,327500	0,1	0,342103
0,329167	0,1	0,407165
0,330833	0,1	0,369679
0,332500	0,1	0,367962
0,334167	0,1	0,406949
0,335833	0,1	0,357923
0,337500	0,1	0,406067
0,339167	0,1	0,406406
0,340833	0,1	0,371902
0,342500	0,1	0,432621
0,344167	0,1	0,408319
0,345833	0,1	0,372256
0,347500	0,1	0,399057
0,349167	0,1	0,406377
0,350833	0,1	0,399449
0,352500	0,1	0,447438
0,354167	0,1	0,433480
0,355833	0,1	0,410569
0,357500	0,1	0,424897
0,359167	0,1	0,441880
0,360833	0,1	0,431574
0,362500	0,1	0,439370
0,364167	0,1	0,422748
0,365833	0,1	0,419559
0,367500	0,1	0,410144
0,369167	0,1	0,471324
0,370833	0,1	0,474047
0,372500	0,1	0,441969
0,374167	0,1	0,434610
0,375833	0,1	0,424903
0,377500	0,1	0,467592
0,379167	0,1	0,420832
0,380833	0,1	0,454004
0,382500	0,1	0,448172
0,384167	0,1	0,485154
0,385833	0,1	0,446024
0,387500	0,1	0,454101
0,389167	0,1	0,466347
0,390833	0,1	0,472532
0,392500	0,1	0,430722
0,394167	0,1	0,466974
0,395833	0,1	0,471916
0,397500	0,1	0,453463
0,399167	0,1	0,477659
0,400833	0,1	0,494776
0,402500	0,1	0,509985
0,404167	0,1	0,439137
0,405833	0,1	0,494531
0,407500	0,1	0,461176
0,409167	0,1	0,508556
0,410833	0,1	0,477066
0,412500	0,1	0,498420
0,414167	0,1	0,498609
0,415833	0,1	0,511946
0,417500	0,1	0,480436
0,419167	0,1	0,530211
0,420833	0,1	0,504418
0,422500	0,1	0,491941
0,424167	0,1	0,496872
0,425833	0,1	0,489427
0,427500	0,1	0,557548
0,429167	0,1	0,550500
0,430833	0,1	0,498147
0,432500	0,1	0,521323
0,434167	0,1	0,509901
0,435833	0,1	0,475805
0,437500	0,1	0,508362
0,439167	0,1	0,498848
0,440833	0,1	0,507962
0,442500	0,1	0,546001
0,444167	0,1	0,515510
0,445833	0,1	0,502165
0,447500	0,1	0,486825
0,449167	0,1	0,546880
0,450833	0,1	0,525310
0,452500	0,1	0,546995
0,454167	0,1	0,530044
0,455833	0,1	0,509941
0,457500	0,1	0,505214
0,459167	0,1	0,533241
0,460833	0,1	0,538815
0,462500	0,1	0,522861
0,464167	0,1	0,546955
0,465833	0,1	0,528886
0,467500	0,1	0,554757
0,469167	0,1	0,538937
0,470833	0,1	0,522425
0,472500	0,1	0,532262
0,474167	0,1	0,536551
0,475833	0,1	0,529133
0,477500	0,1	0,523279
0,479167	0,1	0,511281
0,480833	0,1	0,519407
0,482500	0,1	0,591520
0,484167	0,1	0,527674
0,485833	0,1	0,538511
0,487500	0,1	0,505064
0,489167	0,1	0,537189
0,490833	0,1	0,570163
0,492500	0,1	0,536297
0,494167	0,1	0,538726
0,495833	0,1	0,532661
0,497500	0,1	0,573607
0,499167	0,1	0,546940
0,500833	0,1	0,532334
0,502500	0,1	0,535460
0,504167	0,1	0,548220
0,505833	0,1	0,533728
0,507500	0,1	0,533158
0,509167	0,1	0,534933
0,510833	0,1	0,515968
0,512500	0,1	0,564198
0,514167	0,1	0,519801
0,515833	0,1	0,551754
0,517500	0,1	0,541134
0,519167	0,1	0,522505
0,520833	0,1	0,527657
0,522500	0,1	0,561070
0,524167	0,1	0,531072
0,525833	0,1	0,570912
0,527500	0,1	0,559121
0,529167	0,1	0,531914
0,530833	0,1	0,517703
0,532500	0,1	0,514082
0,534167	0,1	0,554595
0,535833	0,1	0,556581
0,537500	0,1	0,556275
0,539167	0,1	0,544937
0,540833	0,1	0,582519
0,542500	0,1	0,589627
0,544167	0,1	0,548614
0,545833	0,1	0,541343
0,547500	0,1	0,577212
0,549167	0,1	0,515688
0,550833	0,1	0,517987
0,552500	0,1	0,527590
0,554167	0,1	0,584607
0,555833	0,1	0,538944
0,557500	0,1	0,539263
0,559167	0,1	0,518638
0,560833	0,1	0,560910
0,562500	0,1	0,529783
0,564167	0,1	0,555534
0,565833	0,1	0,564968
0,567500	0,1	0,522289
0,569167	0,1	0,535551
0,570833	0,1	0,547404
0,572500	0,1	0,515708
0,574167	0,1	0,555845
0,575833	0,1	0,569143
0,577500	0,1	0,515713
0,579167	0,1	0,525539
0,580833	0,1	0,528434
0,582500	0,1	0,559821
0,584167	0,1	0,527444
0,585833	0,1	0,535525
0,587500	0,1	0,529660
0,589167	0,1	0,561087
0,590833	0,1	0,535005
0,592500	0,1	0,534711
0,594167	0,1	0,571988
0,595833	0,1	0,548031
0,597500	0,1	0,559010
0,599167	0,1	0,521643
0,600833	0,1	0,528368
0,602500	0,1	0,530947
0,604167	0,1	0,533685
0,605833	0,1	0,523636
0,607500	0,1	0,533063
0,609167	0,1	0,548957
0,610833	0,1	0,519731
0,612500	0,1	0,551218
0,614167	0,1	0,552631
0,615833	0,1	0,520931
0,617500	0,1	0,568870
0,619167	0,1	0,593731
0,620833	0,1	0,566002
0,622500	0,1	0,569972
0,624167	0,1	0,526695
0,625833	0,1	0,539734
0,627500	0,1	0,556247
0,629167	0,1	0,526535
0,630833	0,1	0,571605
0,632500	0,1	0,529537
0,634167	0,1	0,525396
0,635833	0,1	0,518398
0,637500	0,1	0,569223
0,639167	0,1	0,534207
0,640833	0,1	0,562559
0,642500	0,1	0,534916
0,644167	0,1	0,583855
0,645833	0,1	0,517716
0,647500	0,1	0,552332
0,649167	0,1	0,541937
0,650833	0,1	0,559338
0,652500	0,1	0,545162
0,654167	0,1	0,559941
0,655833	0,1	0,520933
0,657500	0,1	0,532774
0,659167	0,1	0,591590
0,660833	0,1	0,527964
0,662500	0,1	0,541575
0,664167	0,1	0,553759
0,665833	0,1	0,548647
0,667500	0,1	0,527598
0,669167	0,1	0,591142
0,670833	0,1	0,532303
0,672500	0,1	0,553799
0,674167	0,1	0,545383
0,675833	0,1	0,531110
0,677500	0,1	0,543063
0,679167	0,1	0,561603
0,680833	0,1	0,574837
0,682500	0,1	0,549678
0,684167	0,1	0,558117
0,685833	0,1	0,581348
0,687500	0,1	0,546852
0,689167	0,1	0,588122
0,690833	0,1	0,530698
0,692500	0,1	0,554179
0,694167	0,1	0,547961
0,695833	0,1	0,558983
0,697500	0,1	0,579060
0,699167	0,1	0,555033
0,700833	0,1	0,585794
0,702500	0,1	0,539919
0,704167	0,1	0,546552
0,705833	0,1	0,537937
0,707500	0,1	0,557139
0,709167	0,1	0,565524
0,710833	0,1	0,527196
0,712500	0,1	0,564938
0,714167	0,1	0,520446
0,715833	0,1	0,526922
0,717500	0,1	0,565424
0,719167	0,1	0,532773
0,720833	0,1	0,561600
0,722500	0,1	0,594374
0,724167	0,1	0,615548
0,725833	0,1	0,566288
0,727500	0,1	0,584193
0,729167	0,1	0,568951
0,730833	0,1	0,576237
0,732500	0,1	0,572305
0,734167	0,1	0,575923
0,735833	0,1	0,600691
0,737500	0,1	0,549145
0,739167	0,1	0,573703
0,740833	0,1	0,575858
0,742500	0,1	0,600023
0,744167	0,1	0,590360
0,745833	0,1	0,602491
0,747500	0,1	0,612765
0,749167	0,1	0,569685
0,750833	0,1	0,638014
0,752500	0,1	0,573741
0,754167	0,1	0,604602
0,755833	0,1	0,640601
0,757500	0,1	0,622801
0,759167	0,1	0,636936
0,760833	0,1	0,626445
0,762500	0,1	0,629605
0,764167	0,1	0,619708
0,765833	0,1	0,638424
0,767500	0,1	0,642388
0,769167	0,1	0,598949
0,770833	0,1	0,652628
0,772500	0,1	0,635234
0,774167	0,1	0,638627
0,775833	0,1	0,634472
0,777500	0,1	0,660395
0,779167	0,1	0,618961
0,780833	0,1	0,661169
0,782500	0,1	0,608425
0,784167	0,1	0,593807
0,785833	0,1	0,616988
0,787500	0,1	0,597743
0,789167	0,1	0,621701
0,790833	0,1	0,637979
0,792500	0,1	0,615956
0,794167	0,1	0,614661
0,795833	0,1	0,615413
0,797500	0,1	0,608745
0,799167	0,1	0,663457
0,800833	0,1	0,624052
0,802500	0,1	0,671976
0,804167	0,1	0,624054
0,805833	0,1	0,614597
0,807500	0,1	0,617173
0,809167	0,1	0,630333
0,810833	0,1	0,605102
0,812500	0,1	0,620303
0,814167	0,1	0,616125
0,815833	0,1	0,616438
0,817500	0,1	0,646783
0,819167	0,1	0,634610
0,820833	0,1	0,588831
0,822500	0,1	0,599109
0,824167	0,1	0,600228
0,825833	0,1	0,614813
0,827500	0,1	0,618017
0,829167	0,1	0,624664
0,830833	0,1	0,615393
0,832500	0,1	0,591339
0,834167	0,1	0,614431
0,835833	0,1	0,634223
0,837500	0,1	0,573582
0,839167	0,1	0,626189
0,840833	0,1	0,628490
0,842500	0,1	0,622574
0,844167	0,1	0,571225
0,845833	0,1	0,616873
0,847500	0,1	0,629423
0,849167	0,1	0,596721
0,850833	0,1	0,602515
0,852500	0,1	0,620682
0,854167	0,1	0,602812
0,855833	0,1	0,660943
0,857500	0,1	0,610761
0,859167	0,1	0,592204
0,860833	0,1	0,628194
0,862500	0,1	0,615170
0,864167	0,1	0,644851
0,865833	0,1	0,630207
0,867500	0,1	0,672801
0,869167	0,1	0,605377
0,870833	0,1	0,614766
0,872500	0,1	0,608281
0,874167	0,1	0,587023
0,875833	0,1	0,621721
0,877500	0,1	0,651253
0,879167	0,1	0,590859
0,880833	0,1	0,625747
0,882500	0,1	0,627955
0,884167	0,1	0,607481
0,885833	0,1	0,636174
0,887500	0,1	0,654325
0,889167	0,1	0,617091
0,890833	0,1	0,646896
0,892500	0,1	0,655526
0,894167	0,1	0,631565
0,895833	0,1	0,659349
0,897500	0,1	0,642147
0,899167	0,1	0,643366
0,900833	0,1	0,590255
0,902500	0,1	0,640418
0,904167	0,1	0,644635
0,905833	0,1	0,641787
0,907500	0,1	0,668511
0,909167	0,1	0,639725
0,910833	0,1	0,671556
0,912500	0,1	0,657092
0,914167	0,1	0,653040
0,915833	0,1	0,635386
0,917500	0,1	0,700859
0,919167	0,1	0,690535
0,920833	0,1	0,648023
0,922500	0,1	0,659129
0,924167	0,1	0,697439
0,925833	0,1	0,689735
0,927500	0,1	0,652512
0,929167	0,1	0,658372
0,930833	0,1	0,711425
0,932500	0,1	0,702522
0,934167	0,1	0,712882
0,935833	0,1	0,680155
0,937500	0,1	0,677235
0,939167	0,1	0,676810
0,940833	0,1	0,720835
0,942500	0,1	0,698389
0,944167	0,1	0,711368
0,945833	0,1	0,723222
0,947500	0,1	0,698478
0,949167	0,1	0,682642
0,950833	0,1	0,688575
0,952500	0,1	0,750791
0,954167	0,1	0,693550
0,955833	0,1	0,682151
0,957500	0,1	0,732423
0,959167	0,1	0,732011
0,960833	0,1	0,749799
0,962500	0,1	0,700552
0,964167	0,1	0,747971
0,965833	0,1	0,763546
0,967500	0,1	0,727815
0,969167	0,1	0,745331
0,970833	0,1	0,739197
0,972500	0,1	0,760588
0,974167	0,1	0,777625
0,975833	0,1	0,795665
0,977500	0,1	0,765182
0,979167	0,1	0,744896
0,980833	0,1	0,769040
0,982500	0,1	0,770801
0,984167	0,1	0,732154
0,985833	0,1	0,793633
0,987500	0,1	0,755799
0,989167	0,1	0,794303
0,990833	0,1	0,805123
0,992500	0,1	0,773301
0,994167	0,1	0,813435
0,995833	0,1	0,807417
0,997500	0,1	0,800697
0,999167	0,1	0,786003
1,000833	0,1	0,837523
1,002500	0,1	0,843389
1,004167	0,1	0,832954
1,005833	0,1	0,843590
1,007500	0,1	0,810985
1,009167	0,1	0,831464
1,010833	0,1	0,945058
1,012500	0,1	0,916460
1,014167	0,1	0,868207
1,015833	0,1	0,910686
1,017500	0,1	0,905417
1,019167	0,1	0,904022
1,020833	0,1	0,951408
1,022500	0,1	0,886105
1,024167	0,1	0,973798
1,025833	0,1	0,981629
1,027500	0,1	0,972039
1,029167	0,1	0,989881
1,030833	0,1	0,982652
1,032500	0,1	1,005165
1,034167	0,1	0,975796
1,035833	0,1	1,037989
1,037500	0,1	1,056482
1,039167	0,1	1,064518
1,040833	0,1	1,032916
1,042500	0,1	1,035063
1,044167	0,1	1,086031
1,045833	0,1	1,085056
1,047500	0,1	1,115510
1,049167	0,1	1,117757
1,050833	0,1	1,167896
1,052500	0,1	1,182385
1,054167	0,1	1,220914
1,055833	0,1	1,257919
1,057500	0,1	1,366854
1,059167	0,1	1,499869
1,060833	0,1	1,625514
1,062500	0,1	1,863905
1,064167	0,1	2,066877
1,065833	0,1	2,384295
1,067500	0,1	2,795508
1,069167	0,1	3,299507
1,070833	0,1	3,923714
1,072500	0,1	4,745684
1,074167	0,1	5,711399
1,075833	0,1	6,791626
1,077500	0,1	8,101197
1,079167	0,1	9,620572
1,080833	0,1	11,335586
1,082500	0,1	13,291845
1,084167	0,1	15,362282
1,085833	0,1	17,668003
1,087500	0,1	20,157620
1,089167	0,1	22,781215
1,090833	0,1	25,534966
1,092500	0,1	28,328310
1,094167	0,1	31,227649
1,095833	0,1	34,091487
1,097500	0,1	36,917340
1,099167	0,1	39,641079
1,100833	0,1	42,277474
1,102500	0,1	44,753860
1,104167	0,1	46,969285
1,105833	0,1	49,003431
1,107500	0,1	50,813716
1,109167	0,1	52,327042
1,110833	0,1	53,580036
1,112500	0,1	54,580307
1,114167	0,1	55,323895
1,115833	0,1	55,733819
1,117500	0,1	55,932613
1,119167	0,1	55,869568
1,120833	0,1	55,653200
1,122500	0,1	55,156455
1,124167	0,1	54,547747
1,125833	0,1	53,633535
1,127500	0,1	52,691800
1,129167	0,1	51,557050
1,130833	0,1	50,349214
1,132500	0,1	48,992606
1,134167	0,1	47,633941
1,135833	0,1	46,143485
1,137500	0,1	44,671071
1,139167	0,1	43,193180
1,140833	0,1	41,583025
1,142500	0,1	40,081279
1,144167	0,1	38,552987
1,145833	0,1	37,070742
1,147500	0,1	35,593760
1,149167	0,1	34,184020
1,150833	0,1	32,802359
1,152500	0,1	31,481599
1,154167	0,1	30,226027
1,155833	0,1	29,013810
1,157500	0,1	27,864291
1,159167	0,1	26,838085
1,160833	0,1	25,794190
1,162500	0,1	24,799155
1,164167	0,1	23,884755
1,165833	0,1	23,002814
1,167500	0,1	22,267537
1,169167	0,1	21,500778
1,170833	0,1	20,765355
1,172500	0,1	20,112668
1,174167	0,1	19,470319
1,175833	0,1	18,879069
1,177500	0,1	18,315433
1,179167	0,1	17,821326
1,180833	0,1	17,377510
1,182500	0,1	16,927265
1,184167	0,1	16,591500
1,185833	0,1	16,176301
1,187500	0,1	15,903134
1,189167	0,1	15,692377
1,190833	0,1	15,596348
1,192500	0,1	15,506121
1,194167	0,1	15,561343
1,195833	0,1	15,744349
1,197500	0,1	16,046483
1,199167	0,1	16,545156
1,200833	0,1	17,184418
1,202500	0,1	18,045517
1,204167	0,1	19,152169
1,205833	0,1	20,461019
1,207500	0,1	22,055444
1,209167	0,1	23,975052
1,210833	0,1	26,195602
1,212500	0,1	28,562132
1,214167	0,1	31,388883
1,215833	0,1	34,410508
1,217500	0,1	37,761419
1,219167	0,1	41,336536
1,220833	0,1	45,178664
1,222500	0,1	49,222399
1,224167	0,1	53,370306
1,225833	0,1	57,730024
1,227500	0,1	62,150596
1,229167	0,1	66,628156
1,230833	0,1	71,088484
1,232500	0,1	75,487181
1,234167	0,1	79,815496
1,235833	0,1	84,034328
1,237500	0,1	88,076598
1,239167	0,1	91,918404
1,240833	0,1	95,576813
1,242500	0,1	98,951817
1,244167	0,1	102,141554
1,245833	0,1	104,942198
1,247500	0,1	107,493148
1,249167	0,1	109,752216
1,250833	0,1	111,697044
1,252500	0,1	113,330610
1,254167	0,1	114,615314
1,255833	0,1	115,632220
1,257500	0,1	116,393646
1,259167	0,1	116,798742
1,260833	0,1	116,938057
1,262500	0,1	116,819091
1,264167	0,1	116,403940
1,265833	0,1	115,718166
1,267500	0,1	114,844698
1,269167	0,1	113,710648
1,270833	0,1	112,309103
1,272500	0,1	110,778113
1,274167	0,1	109,085588
1,275833	0,1	107,160879
1,277500	0,1	105,170486
1,279167	0,1	102,997865
1,280833	0,1	100,763519
1,282500	0,1	98,423465
1,284167	0,1	95,982005
1,285833	0,1	93,539011
1,287500	0,1	91,077896
1,289167	0,1	88,495672
1,290833	0,1	86,047091
1,292500	0,1	83,489960
1,294167	0,1	81,021218
1,295833	0,1	78,556443
1,297500	0,1	76,159534
1,299167	0,1	73,777202
1,300833	0,1	71,450579
1,302500	0,1	69,286579
1,304167	0,1	67,079288
1,305833	0,1	64,969417
1,307500	0,1	62,956438
1,309167	0,1	61,053426
1,310833	0,1	59,198574
1,312500	0,1	57,398198
1,314167	0,1	55,688866
1,315833	0,1	54,036157
1,317500	0,1	52,485218
1,319167	0,1	51,001974
1,320833	0,1	49,544681
1,322500	0,1	48,190391
1,324167	0,1	46,841868
1,325833	0,1	45,613804
1,327500	0,1	44,480157
1,329167	0,1	43,328607
1,330833	0,1	42,212745
1,332500	0,1	41,172939
1,334167	0,1	40,159575
1,335833	0,1	39,142564
1,337500	0,1	38,201660
1,339167	0,1	37,330629
1,340833	0,1	36,474453
1,342500	0,1	35,581524
1,344167	0,1	34,772681
1,345833	0,1	34,044804
1,347500	0,1	33,261904
1,349167	0,1	32,510025
1,350833	0,1	31,831273
1,352500	0,1	31,114888
1,354167	0,1	30,508341
1,355833	0,1	29,810820
1,357500	0,1	29,168984
1,359167	0,1	28,530833
1,360833	0,1	27,910720
1,362500	0,1	27,312299
1,364167	0,1	26,759642
1,365833	0,1	26,186465
1,367500	0,1	25,681486
1,369167	0,1	25,102737
1,370833	0,1	24,622620
1,372500	0,1	24,102062
1,374167	0,1	23,606306
1,375833	0,1	23,171637
1,377500	0,1	22,665277
1,379167	0,1	22,218430
1,380833	0,1	21,736717
1,382500	0,1	21,345388
1,384167	0,1	20,887863
1,385833	0,1	20,492630
1,387500	0,1	20,076300
1,389167	0,1	19,705127
1,390833	0,1	19,309317
1,392500	0,1	18,964168
1,394167	0,1	18,638498
1,395833	0,1	18,290523
1,397500	0,1	17,973403
1,399167	0,1	17,655678
1,400833	0,1	17,336032
1,402500	0,1	17,046084
1,404167	0,1	16,772453
1,405833	0,1	16,452393
1,407500	0,1	16,215933
1,409167	0,1	15,948679
1,410833	0,1	15,679029
1,412500	0,1	15,448901
1,414167	0,1	15,191301
1,415833	0,1	14,983427
1,417500	0,1	14,715710
1,419167	0,1	14,538799
1,420833	0,1	14,314786
1,422500	0,1	14,131924
1,424167	0,1	13,916048
1,425833	0,1	13,701901
1,427500	0,1	13,535247
1,429167	0,1	13,325101
1,430833	0,1	13,129146
1,432500	0,1	12,954211
1,434167	0,1	12,823016
1,435833	0,1	12,612788
1,437500	0,1	12,458984
1,439167	0,1	12,267007
1,440833	0,1	12,121558
1,442500	0,1	11,970077
1,444167	0,1	11,802495
1,445833	0,1	11,673913
1,447500	0,1	11,467985
1,449167	0,1	11,336707
1,450833	0,1	11,173380
1,452500	0,1	11,094794
1,454167	0,1	10,931704
1,455833	0,1	10,799764
1,457500	0,1	10,638557
1,459167	0,1	10,528699
1,460833	0,1	10,377385
1,462500	0,1	10,280436
1,464167	0,1	10,169467
1,465833	0,1	10,050118
1,467500	0,1	9,943767
1,469167	0,1	9,818375
1,470833	0,1	9,727772
1,472500	0,1	9,660194
1,474167	0,1	9,569382
1,475833	0,1	9,449264
1,477500	0,1	9,310647
1,479167	0,1	9,336867
1,480833	0,1	9,243090
1,482500	0,1	9,155948
1,484167	0,1	9,068396
1,485833	0,1	9,026099
1,487500	0,1	8,937227
1,489167	0,1	8,885746
1,490833	0,1	8,807927
1,492500	0,1	8,713112
1,494167	0,1	8,703935
1,495833	0,1	8,648347
1,497500	0,1	8,589438
1,499167	0,1	8,575781
1,500833	0,1	8,532223
1,502500	0,1	8,472472
1,504167	0,1	8,431734
1,505833	0,1	8,445759
1,507500	0,1	8,377503
1,509167	0,1	8,354972
1,510833	0,1	8,351961
1,512500	0,1	8,243187
1,514167	0,1	8,248610
1,515833	0,1	8,193602
1,517500	0,1	8,196438
1,519167	0,1	8,186861
1,520833	0,1	8,113238
1,522500	0,1	8,104338
1,524167	0,1	8,048033
1,525833	0,1	8,031802
1,527500	0,1	8,030467
1,529167	0,1	8,027486
1,530833	0,1	8,001256
1,532500	0,1	7,957992
1,534167	0,1	7,887669
1,535833	0,1	7,900450
1,537500	0,1	7,873160
1,539167	0,1	7,829818
1,540833	0,1	7,848395
1,542500	0,1	7,810517
1,544167	0,1	7,806152
1,545833	0,1	7,793648
1,547500	0,1	7,772654
1,549167	0,1	7,783842
1,550833	0,1	7,689000
1,552500	0,1	7,703968
1,554167	0,1	7,665017
1,555833	0,1	7,660894
1,557500	0,1	7,699522
1,559167	0,1	7,660430
1,560833	0,1	7,599795
1,562500	0,1	7,641962
1,564167	0,1	7,604168
1,565833	0,1	7,579640
1,567500	0,1	7,606103
1,569167	0,1	7,575237
1,570833	0,1	7,596317
1,572500	0,1	7,576627
1,574167	0,1	7,546755
1,575833	0,1	7,524032
1,577500	0,1	7,493508
1,579167	0,1	7,535783
1,580833	0,1	7,487592
1,582500	0,1	7,412787
1,584167	0,1	7,398169
1,585833	0,1	7,423875
1,587500	0,1	7,397055
1,589167	0,1	7,395643
1,590833	0,1	7,384769
1,592500	0,1	7,377757
1,594167	0,1	7,325943
1,595833	0,1	7,311354
1,597500	0,1	7,322461
1,599167	0,1	7,283934
1,600833	0,1	7,222690
1,602500	0,1	7,289513
1,604167	0,1	7,255219
1,605833	0,1	7,203509
1,607500	0,1	7,207590
1,609167	0,1	7,160653
1,610833	0,1	7,135316
1,612500	0,1	7,113619
1,614167	0,1	7,118835
1,615833	0,1	7,081742
1,617500	0,1	7,067880
1,619167	0,1	7,061453
1,620833	0,1	7,002187
1,622500	0,1	6,972174
1,624167	0,1	6,942446
1,625833	0,1	6,916471
1,627500	0,1	6,918884
1,629167	0,1	6,941676
1,630833	0,1	6,908607
1,632500	0,1	6,859366
1,634167	0,1	6,833753
1,635833	0,1	6,801332
1,637500	0,1	6,756206
1,639167	0,1	6,744895
1,640833	0,1	6,707062
1,642500	0,1	6,658957
1,644167	0,1	6,717594
1,645833	0,1	6,626929
1,647500	0,1	6,638299
1,649167	0,1	6,587599
1,650833	0,1	6,600940
1,652500	0,1	6,562940
1,654167	0,1	6,564244
1,655833	0,1	6,501876
1,657500	0,1	6,521094
1,659167	0,1	6,489914
1,660833	0,1	6,456680
1,662500	0,1	6,434173
1,664167	0,1	6,461053
1,665833	0,1	6,440899
1,667500	0,1	6,393663
1,669167	0,1	6,414839
1,670833	0,1	6,382648
1,672500	0,1	6,424739
1,674167	0,1	6,373415
1,675833	0,1	6,372094
1,677500	0,1	6,389640
1,679167	0,1	6,387868
1,680833	0,1	6,394780
1,682500	0,1	6,395901
1,684167	0,1	6,393191
1,685833	0,1	6,384418
1,687500	0,1	6,355106
1,689167	0,1	6,387667
1,690833	0,1	6,421286
1,692500	0,1	6,426047
1,694167	0,1	6,434817
1,695833	0,1	6,439406
1,697500	0,1	6,480659
1,699167	0,1	6,467872
1,700833	0,1	6,515201
1,702500	0,1	6,522219
1,704167	0,1	6,554799
1,705833	0,1	6,556582
1,707500	0,1	6,593371
1,709167	0,1	6,591135
1,710833	0,1	6,658930
1,712500	0,1	6,635318
1,714167	0,1	6,686209
1,715833	0,1	6,688928
1,717500	0,1	6,721056
1,719167	0,1	6,713128
1,720833	0,1	6,721343
1,722500	0,1	6,742264
1,724167	0,1	6,761701
1,725833	0,1	6,754701
1,727500	0,1	6,801219
1,729167	0,1	6,766480
1,730833	0,1	6,772632
1,732500	0,1	6,791412
1,734167	0,1	6,836819
1,735833	0,1	6,741643
1,737500	0,1	6,808307
1,739167	0,1	6,783201
1,740833	0,1	6,783198
1,742500	0,1	6,769092
1,744167	0,1	6,727055
1,745833	0,1	6,730033
1,747500	0,1	6,687447
1,749167	0,1	6,640368
1,750833	0,1	6,666318
1,752500	0,1	6,668378
1,754167	0,1	6,587420
1,755833	0,1	6,556686
1,757500	0,1	6,528199
1,759167	0,1	6,523521
1,760833	0,1	6,497950
1,762500	0,1	6,435774
1,764167	0,1	6,415041
1,765833	0,1	6,375465
1,767500	0,1	6,334206
1,769167	0,1	6,267384
1,770833	0,1	6,231927
1,772500	0,1	6,203628
1,774167	0,1	6,130099
1,775833	0,1	6,104371
1,777500	0,1	6,044106
1,779167	0,1	6,024708
1,780833	0,1	5,958872
1,782500	0,1	5,931828
1,784167	0,1	5,884544
1,785833	0,1	5,850357
1,787500	0,1	5,777074
1,789167	0,1	5,727108
1,790833	0,1	5,700086
1,792500	0,1	5,669692
1,794167	0,1	5,592806
1,795833	0,1	5,567655
1,797500	0,1	5,513302
1,799167	0,1	5,479230
1,800833	0,1	5,421857
1,802500	0,1	5,404436
1,804167	0,1	5,305478
1,805833	0,1	5,312426
1,807500	0,1	5,240382
1,809167	0,1	5,203488
1,810833	0,1	5,131017
1,812500	0,1	5,112998
1,814167	0,1	5,078606
1,815833	0,1	5,055065
1,817500	0,1	5,005060
1,819167	0,1	4,982393
1,820833	0,1	4,921191
1,822500	0,1	4,866598
1,824167	0,1	4,846433
1,825833	0,1	4,806861
1,827500	0,1	4,758544
1,829167	0,1	4,733888
1,830833	0,1	4,735241
1,832500	0,1	4,726524
1,834167	0,1	4,713790
1,835833	0,1	4,712032
1,837500	0,1	4,655274
1,839167	0,1	4,736382
1,840833	0,1	4,718914
1,842500	0,1	4,715825
1,844167	0,1	4,734105
1,845833	0,1	4,761526
1,847500	0,1	4,797388
1,849167	0,1	4,823604
1,850833	0,1	4,895195
1,852500	0,1	4,912132
1,854167	0,1	4,955564
1,855833	0,1	5,032021
1,857500	0,1	5,058472
1,859167	0,1	5,090010
1,860833	0,1	5,141931
1,862500	0,1	5,224314
1,864167	0,1	5,237061
1,865833	0,1	5,314910
1,867500	0,1	5,353944
1,869167	0,1	5,392036
1,870833	0,1	5,442395
1,872500	0,1	5,497660
1,874167	0,1	5,549533
1,875833	0,1	5,595208
1,877500	0,1	5,643330
1,879167	0,1	5,670123
1,880833	0,1	5,735399
1,882500	0,1	5,826988
1,884167	0,1	5,837270
1,885833	0,1	5,888267
1,887500	0,1	5,924903
1,889167	0,1	5,989363
1,890833	0,1	6,013607
1,892500	0,1	6,035044
1,894167	0,1	6,114538
1,895833	0,1	6,082433
1,897500	0,1	6,134110
1,899167	0,1	6,160331
1,900833	0,1	6,234043
1,902500	0,1	6,259530
1,904167	0,1	6,290695
1,905833	0,1	6,347158
1,907500	0,1	6,367132
1,909167	0,1	6,398134
1,910833	0,1	6,413449
1,912500	0,1	6,456573
1,914167	0,1	6,467114
1,915833	0,1	6,483936
1,917500	0,1	6,517072
1,919167	0,1	6,506253
1,920833	0,1	6,554331
1,922500	0,1	6,605693
1,924167	0,1	6,590673
1,925833	0,1	6,569566
1,927500	0,1	6,627642
1,929167	0,1	6,615048
1,930833	0,1	6,634655
1,932500	0,1	6,640169
1,934167	0,1	6,652404
1,935833	0,1	6,658664
1,937500	0,1	6,667256
1,939167	0,1	6,701719
1,940833	0,1	6,669042
1,942500	0,1	6,663057
1,944167	0,1	6,713581
1,945833	0,1	6,738623
1,947500	0,1	6,707247
1,949167	0,1	6,723959
1,950833	0,1	6,766177
1,952500	0,1	6,741719
1,954167	0,1	6,782900
1,955833	0,1	6,758257
1,957500	0,1	6,756756
1,959167	0,1	6,788698
1,960833	0,1	6,789175
1,962500	0,1	6,803092
1,964167	0,1	6,853449
1,965833	0,1	6,821232
1,967500	0,1	6,878312
1,969167	0,1	6,872904
1,970833	0,1	6,890555
1,972500	0,1	6,881686
1,974167	0,1	6,906632
1,975833	0,1	6,944111
1,977500	0,1	6,953275
1,979167	0,1	7,004676
1,980833	0,1	6,957593
1,982500	0,1	6,989915
1,984167	0,1	7,010773
1,985833	0,1	7,082365
1,987500	0,1	7,109688
1,989167	0,1	7,107069
1,990833	0,1	7,135694
1,992500	0,1	7,188130
1,994167	0,1	7,167773
1,995833	0,1	7,232933
1,997500	0,1	7,246041
1,999167	0,1	7,301679
2,000833	0,1	7,261401
2,002500	0,1	7,335908
2,004167	0,1	7,383467
2,005833	0,1	7,422756
2,007500	0,1	7,448756
2,009167	0,1	7,481507
2,010833	0,1	7,526999
2,012500	0,1	7,575818
2,014167	0,1	7,636797
2,015833	0,1	7,622495
2,017500	0,1	7,683162
2,019167	0,1	7,743137
2,020833	0,1	7,753687
2,022500	0,1	7,817230
2,024167	0,1	7,875745
2,025833	0,1	7,882566
2,027500	0,1	7,913895
2,029167	0,1	8,005598
2,030833	0,1	8,067940
2,032500	0,1	8,082141
2,034167	0,1	8,108266
2,035833	0,1	8,178458
2,037500	0,1	8,207749
2,039167	0,1	8,230362
2,040833	0,1	8,316168
2,042500	0,1	8,315936
2,044167	0,1	8,375528
2,045833	0,1	8,444960
2,047500	0,1	8,471565
2,049167	0,1	8,515860
2,050833	0,1	8,576754
2,052500	0,1	8,571764
2,054167	0,1	8,643820
2,055833	0,1	8,677638
2,057500	0,1	8,748938
2,059167	0,1	8,763571
2,060833	0,1	8,791719
2,062500	0,1	8,853133
2,064167	0,1	8,859201
2,065833	0,1	8,942030
2,067500	0,1	8,946683
2,069167	0,1	8,990994
2,070833	0,1	9,037912
2,072500	0,1	9,060897
2,074167	0,1	9,124108
2,075833	0,1	9,138311
2,077500	0,1	9,173721
2,079167	0,1	9,173797
2,080833	0,1	9,255269
2,082500	0,1	9,259565
2,084167	0,1	9,264458
2,085833	0,1	9,334791
2,087500	0,1	9,339915
2,089167	0,1	9,340243
2,090833	0,1	9,398657
2,092500	0,1	9,420744
2,094167	0,1	9,432485
2,095833	0,1	9,452945
2,097500	0,1	9,501999
2,099167	0,1	9,459073
2,100833	0,1	9,506733
2,102500	0,1	9,492461
2,104167	0,1	9,520474
2,105833	0,1	9,560135
2,107500	0,1	9,560080
2,109167	0,1	9,581371
2,110833	0,1	9,540534
2,112500	0,1	9,553175
2,114167	0,1	9,535755
2,115833	0,1	9,539758
2,117500	0,1	9,591177
2,119167	0,1	9,561955
2,120833	0,1	9,568548
2,122500	0,1	9,576873
2,124167	0,1	9,548365
2,125833	0,1	9,532058
2,127500	0,1	9,553725
2,129167	0,1	9,518176
2,130833	0,1	9,535447
2,132500	0,1	9,530100
2,134167	0,1	9,540289
2,135833	0,1	9,484190
2,137500	0,1	9,469660
2,139167	0,1	9,467874
2,140833	0,1	9,430881
2,142500	0,1	9,465891
2,144167	0,1	9,390281
2,145833	0,1	9,401493
2,147500	0,1	9,433073
2,149167	0,1	9,395923
2,150833	0,1	9,326669
2,152500	0,1	9,332728
2,154167	0,1	9,332388
2,155833	0,1	9,316011
2,157500	0,1	9,325898
2,159167	0,1	9,241153
2,160833	0,1	9,266176
2,162500	0,1	9,214708
2,164167	0,1	9,211695
2,165833	0,1	9,170480
2,167500	0,1	9,181506
2,169167	0,1	9,165729
2,170833	0,1	9,090957
2,172500	0,1	9,051429
2,174167	0,1	9,058198
2,175833	0,1	8,997697
2,177500	0,1	9,010204
2,179167	0,1	8,981497
2,180833	0,1	8,957727
2,182500	0,1	8,929221
2,184167	0,1	8,911058
2,185833	0,1	8,921982
2,187500	0,1	8,880036
2,189167	0,1	8,821618
2,190833	0,1	8,844361
2,192500	0,1	8,799248
2,194167	0,1	8,777348
2,195833	0,1	8,762304
2,197500	0,1	8,769114
2,199167	0,1	8,690361
2,200833	0,1	8,655638
2,202500	0,1	8,640105
2,204167	0,1	8,676058
2,205833	0,1	8,594711
2,207500	0,1	8,626764
2,209167	0,1	8,579349
2,210833	0,1	8,569111
2,212500	0,1	8,555276
2,214167	0,1	8,551175
2,215833	0,1	8,493428
2,217500	0,1	8,498056
2,219167	0,1	8,529217
2,220833	0,1	8,493803
2,222500	0,1	8,456682
2,224167	0,1	8,454926
2,225833	0,1	8,457329
2,227500	0,1	8,401511
2,229167	0,1	8,386604
2,230833	0,1	8,416589
2,232500	0,1	8,446561
2,234167	0,1	8,432432
2,235833	0,1	8,396232
2,237500	0,1	8,395110
2,239167	0,1	8,372366
2,240833	0,1	8,394347
2,242500	0,1	8,365147
2,244167	0,1	8,347094
2,245833	0,1	8,383209
2,247500	0,1	8,391344
2,249167	0,1	8,330062
2,250833	0,1	8,359302
2,252500	0,1	8,344845
2,254167	0,1	8,347896
2,255833	0,1	8,335732
2,257500	0,1	8,305746
2,259167	0,1	8,313006
2,260833	0,1	8,311468
2,262500	0,1	8,273813
2,264167	0,1	8,258311
2,265833	0,1	8,258206
2,267500	0,1	8,256286
2,269167	0,1	8,302648
2,270833	0,1	8,262254
2,272500	0,1	8,206733
2,274167	0,1	8,205881
2,275833	0,1	8,204953
2,277500	0,1	8,181561
2,279167	0,1	8,155237
2,280833	0,1	8,164780
2,282500	0,1	8,199217
2,284167	0,1	8,123100
2,285833	0,1	8,055329
2,287500	0,1	8,052113
2,289167	0,1	8,054414
2,290833	0,1	8,064474
2,292500	0,1	8,018015
2,294167	0,1	8,017448
2,295833	0,1	7,990921
2,297500	0,1	8,016229
2,299167	0,1	7,942699
2,300833	0,1	7,952396
2,302500	0,1	7,929749
2,304167	0,1	7,881510
2,305833	0,1	7,893039
2,307500	0,1	7,876195
2,309167	0,1	7,877762
2,310833	0,1	7,832335
2,312500	0,1	7,834406
2,314167	0,1	7,830600
2,315833	0,1	7,811153
2,317500	0,1	7,775101
2,319167	0,1	7,739147
2,320833	0,1	7,748149
2,322500	0,1	7,714877
2,324167	0,1	7,700537
2,325833	0,1	7,652981
2,327500	0,1	7,671625
2,329167	0,1	7,673480
2,330833	0,1	7,652710
2,332500	0,1	7,613774
2,334167	0,1	7,618628
2,335833	0,1	7,531449
2,337500	0,1	7,565198
2,339167	0,1	7,540606
2,340833	0,1	7,525438
2,342500	0,1	7,543093
2,344167	0,1	7,533744
2,345833	0,1	7,515136
2,347500	0,1	7,470292
2,349167	0,1	7,466096
2,350833	0,1	7,476962
2,352500	0,1	7,486667
2,354167	0,1	7,474142
2,355833	0,1	7,479413
2,357500	0,1	7,473278
2,359167	0,1	7,451956
2,360833	0,1	7,442772
2,362500	0,1	7,475137
2,364167	0,1	7,485904
2,365833	0,1	7,459346
2,367500	0,1	7,459884
2,369167	0,1	7,454014
2,370833	0,1	7,467645
2,372500	0,1	7,514234
2,374167	0,1	7,475542
2,375833	0,1	7,485163
2,377500	0,1	7,533621
2,379167	0,1	7,559471
2,380833	0,1	7,566612
2,382500	0,1	7,589234
2,384167	0,1	7,617327
2,385833	0,1	7,662082
2,387500	0,1	7,637306
2,389167	0,1	7,733969
2,390833	0,1	7,795775
2,392500	0,1	7,785420
2,394167	0,1	7,872575
2,395833	0,1	7,978804
2,397500	0,1	8,025665
2,399167	0,1	8,095867
2,400833	0,1	8,146768
2,402500	0,1	8,272793
2,404167	0,1	8,350982
2,405833	0,1	8,416885
2,407500	0,1	8,558918
2,409167	0,1	8,638635
2,410833	0,1	8,767280
2,412500	0,1	8,880966
2,414167	0,1	9,018063
2,415833	0,1	9,220396
2,417500	0,1	9,314075
2,419167	0,1	9,464653
2,420833	0,1	9,590732
2,422500	0,1	9,812066
2,424167	0,1	9,971265
2,425833	0,1	10,151709
2,427500	0,1	10,354984
2,429167	0,1	10,549890
2,430833	0,1	10,726918
2,432500	0,1	10,935673
2,434167	0,1	11,121835
2,435833	0,1	11,314501
2,437500	0,1	11,507488
2,439167	0,1	11,755462
2,440833	0,1	11,977656
2,442500	0,1	12,161598
2,444167	0,1	12,381426
2,445833	0,1	12,622744
2,447500	0,1	12,843882
2,449167	0,1	13,090503
2,450833	0,1	13,298806
2,452500	0,1	13,527471
2,454167	0,1	13,753544
2,455833	0,1	13,997390
2,457500	0,1	14,197549
2,459167	0,1	14,456816
2,460833	0,1	14,708949
2,462500	0,1	14,945991
2,464167	0,1	15,179582
2,465833	0,1	15,449715
2,467500	0,1	15,735771
2,469167	0,1	16,000793
2,470833	0,1	16,294014
2,472500	0,1	16,624600
2,474167	0,1	16,968693
2,475833	0,1	17,290373
2,477500	0,1	17,678860
2,479167	0,1	18,094745
2,480833	0,1	18,552691
2,482500	0,1	19,051223
2,484167	0,1	19,490394
2,485833	0,1	20,109200
2,487500	0,1	20,701336
2,489167	0,1	21,387966
2,490833	0,1	22,114842
2,492500	0,1	22,861340
2,494167	0,1	23,735668
2,495833	0,1	24,608216
2,497500	0,1	25,613566
2,499167	0,1	26,684429
2,500833	0,1	27,815281
2,502500	0,1	29,056150
2,504167	0,1	30,406747
2,505833	0,1	31,842662
2,507500	0,1	33,331833
2,509167	0,1	34,908274
2,510833	0,1	36,640773
2,512500	0,1	38,473580
2,514167	0,1	40,405160
2,515833	0,1	42,460765
2,517500	0,1	44,587869
2,519167	0,1	46,833416
2,520833	0,1	49,221569
2,522500	0,1	51,743206
2,524167	0,1	54,293023
2,525833	0,1	57,017145
2,527500	0,1	59,789182
2,529167	0,1	62,674189
2,530833	0,1	65,635015
2,532500	0,1	68,726298
2,534167	0,1	71,927244
2,535833	0,1	75,148793
2,537500	0,1	78,434838
2,539167	0,1	81,786875
2,540833	0,1	85,227849
2,542500	0,1	88,698397
2,544167	0,1	92,199804
2,545833	0,1	95,706874
2,547500	0,1	99,298393
2,549167	0,1	102,864983
2,550833	0,1	106,467872
2,552500	0,1	109,948265
2,554167	0,1	113,430044
2,555833	0,1	117,033871
2,557500	0,1	120,512173
2,559167	0,1	123,988652
2,560833	0,1	127,300975
2,562500	0,1	130,653523
2,564167	0,1	133,846114
2,565833	0,1	137,026791
2,567500	0,1	140,161250
2,569167	0,1	143,157167
2,570833	0,1	146,029398
2,572500	0,1	148,841918
2,574167	0,1	151,568528
2,575833	0,1	154,108347
2,577500	0,1	156,601853
2,579167	0,1	158,958570
2,580833	0,1	161,244934
2,582500	0,1	163,301401
2,584167	0,1	165,285813
2,585833	0,1	167,145709
2,587500	0,1	168,879726
2,589167	0,1	170,496832
2,590833	0,1	171,960814
2,592500	0,1	173,318726
2,594167	0,1	174,561460
2,595833	0,1	175,630330
2,597500	0,1	176,653375
2,599167	0,1	177,512724
2,600833	0,1	178,252525
2,602500	0,1	178,880385
2,604167	0,1	179,415611
2,605833	0,1	179,827221
2,607500	0,1	180,056538
2,609167	0,1	180,286595
2,610833	0,1	180,345805
2,612500	0,1	180,338707
2,614167	0,1	180,234141
2,615833	0,1	180,020262
2,617500	0,1	179,727521
2,619167	0,1	179,256661
2,620833	0,1	178,769663
2,622500	0,1	178,224652
2,624167	0,1	177,458226
2,625833	0,1	176,778399
2,627500	0,1	175,925045
2,629167	0,1	175,035729
2,630833	0,1	174,083880
2,632500	0,1	173,101272
2,634167	0,1	171,923358
2,635833	0,1	170,715670
2,637500	0,1	169,524904
2,639167	0,1	168,174077
2,640833	0,1	166,861674
2,642500	0,1	165,443108
2,644167	0,1	163,913327
2,645833	0,1	162,402923
2,647500	0,1	160,837201
2,649167	0,1	159,204585
2,650833	0,1	157,533771
2,652500	0,1	155,852747
2,654167	0,1	154,083163
2,655833	0,1	152,341026
2,657500	0,1	150,470314
2,659167	0,1	148,647356
2,660833	0,1	146,772912
2,662500	0,1	144,877526
2,664167	0,1	142,889181
2,665833	0,1	141,018313
2,667500	0,1	139,081327
2,669167	0,1	137,093673
2,670833	0,1	135,062903
2,672500	0,1	133,084821
2,674167	0,1	131,105163
2,675833	0,1	129,049539
2,677500	0,1	127,022165
2,679167	0,1	124,984681
2,680833	0,1	122,968731
2,682500	0,1	120,953484
2,684167	0,1	118,950099
2,685833	0,1	116,852045
2,687500	0,1	114,867828
2,689167	0,1	112,900127
2,690833	0,1	110,911196
2,692500	0,1	108,898201
2,694167	0,1	106,933680
2,695833	0,1	104,995246
2,697500	0,1	103,118753
2,699167	0,1	101,116079
2,700833	0,1	99,245743
2,702500	0,1	97,354263
2,704167	0,1	95,513571
2,705833	0,1	93,671523
2,707500	0,1	91,869368
2,709167	0,1	90,135947
2,710833	0,1	88,355106
2,712500	0,1	86,606536
2,714167	0,1	84,933190
2,715833	0,1	83,259583
2,717500	0,1	81,627511
2,719167	0,1	79,991469
2,720833	0,1	78,396513
2,722500	0,1	76,852942
2,724167	0,1	75,274320
2,725833	0,1	73,803037
2,727500	0,1	72,354075
2,729167	0,1	70,883490
2,730833	0,1	69,432558
2,732500	0,1	68,134534
2,734167	0,1	66,754493
2,735833	0,1	65,387102
2,737500	0,1	64,133386
2,739167	0,1	62,862924
2,740833	0,1	61,604803
2,742500	0,1	60,371563
2,744167	0,1	59,191370
2,745833	0,1	58,045249
2,747500	0,1	56,912621
2,749167	0,1	55,803813
2,750833	0,1	54,716778
2,752500	0,1	53,684811
2,754167	0,1	52,604806
2,755833	0,1	51,579625
2,757500	0,1	50,592112
2,759167	0,1	49,593441
2,760833	0,1	48,691893
2,762500	0,1	47,785547
2,764167	0,1	46,920556
2,765833	0,1	46,003019
2,767500	0,1	45,165114
2,769167	0,1	44,302946
2,770833	0,1	43,462128
2,772500	0,1	42,651339
2,774167	0,1	41,862365
2,775833	0,1	41,091841
2,777500	0,1	40,365831
2,779167	0,1	39,660626
2,780833	0,1	38,915327
2,782500	0,1	38,223599
2,784167	0,1	37,467459
2,785833	0,1	36,833816
2,787500	0,1	36,177592
2,789167	0,1	35,539327
2,790833	0,1	34,885266
2,792500	0,1	34,241709
2,794167	0,1	33,660434
2,795833	0,1	33,068672
2,797500	0,1	32,458774
2,799167	0,1	31,879777
2,800833	0,1	31,330685
2,802500	0,1	30,786583
2,804167	0,1	30,253433
2,805833	0,1	29,687804
2,807500	0,1	29,126128
2,809167	0,1	28,650561
2,810833	0,1	28,176990
2,812500	0,1	27,718667
2,814167	0,1	27,251733
2,815833	0,1	26,719296
2,817500	0,1	26,312599
2,819167	0,1	25,836265
2,820833	0,1	25,385487
2,822500	0,1	24,948372
2,824167	0,1	24,504286
2,825833	0,1	24,128893
2,827500	0,1	23,700028
2,829167	0,1	23,350108
2,830833	0,1	22,937033
2,832500	0,1	22,530439
2,834167	0,1	22,180608
2,835833	0,1	21,758959
2,837500	0,1	21,422260
2,839167	0,1	21,102350
2,840833	0,1	20,714832
2,842500	0,1	20,427958
2,844167	0,1	20,047751
2,845833	0,1	19,753932
2,847500	0,1	19,428559
2,849167	0,1	19,183963
2,850833	0,1	18,805610
2,852500	0,1	18,564889
2,854167	0,1	18,243946
2,855833	0,1	17,929295
2,857500	0,1	17,701069
2,859167	0,1	17,394213
2,860833	0,1	17,166078
2,862500	0,1	16,911041
2,864167	0,1	16,641535
2,865833	0,1	16,402052
2,867500	0,1	16,150585
2,869167	0,1	15,920893
2,870833	0,1	15,681563
2,872500	0,1	15,466511
2,874167	0,1	15,248913
2,875833	0,1	14,987695
2,877500	0,1	14,831092
2,879167	0,1	14,616728
2,880833	0,1	14,391032
2,882500	0,1	14,229357
2,884167	0,1	14,067188
2,885833	0,1	13,887752
2,887500	0,1	13,669362
2,889167	0,1	13,494232
2,890833	0,1	13,335365
2,892500	0,1	13,137727
2,894167	0,1	13,002538
2,895833	0,1	12,812745
2,897500	0,1	12,637156
2,899167	0,1	12,524581
2,900833	0,1	12,413080
2,902500	0,1	12,210389
2,904167	0,1	12,080376
2,905833	0,1	11,951496
2,907500	0,1	11,824008
2,909167	0,1	11,685705
2,910833	0,1	11,558720
2,912500	0,1	11,429533
2,914167	0,1	11,312109
2,915833	0,1	11,179319
2,917500	0,1	11,057494
2,919167	0,1	10,948342
2,920833	0,1	10,848032
2,922500	0,1	10,684580
2,924167	0,1	10,617634
2,925833	0,1	10,513246
2,927500	0,1	10,402374
2,929167	0,1	10,280553
2,930833	0,1	10,224441
2,932500	0,1	10,065176
2,934167	0,1	10,014360
2,935833	0,1	9,903129
2,937500	0,1	9,794948
2,939167	0,1	9,749125
2,940833	0,1	9,628607
2,942500	0,1	9,524688
2,944167	0,1	9,445221
2,945833	0,1	9,361763
2,947500	0,1	9,287422
2,949167	0,1	9,205205
2,950833	0,1	9,125592
2,952500	0,1	9,082468
2,954167	0,1	8,988603
2,955833	0,1	8,843362
2,957500	0,1	8,805193
2,959167	0,1	8,737145
2,960833	0,1	8,687932
2,962500	0,1	8,580752
2,964167	0,1	8,509368
2,965833	0,1	8,462993
2,967500	0,1	8,390404
2,969167	0,1	8,316585
2,970833	0,1	8,234827
2,972500	0,1	8,190451
2,974167	0,1	8,135396
2,975833	0,1	8,027371
2,977500	0,1	8,001613
2,979167	0,1	7,947544
2,980833	0,1	7,862271
2,982500	0,1	7,806194
2,984167	0,1	7,758534
2,985833	0,1	7,698859
2,987500	0,1	7,628045
2,989167	0,1	7,589627
2,990833	0,1	7,522815
2,992500	0,1	7,458129
2,994167	0,1	7,418844
2,995833	0,1	7,380266
2,997500	0,1	7,335177
2,999167	0,1	7,217257
3,000833	0,1	7,237407
3,002500	0,1	7,185712
3,004167	0,1	7,128868
3,005833	0,1	7,090892
3,007500	0,1	7,018079
3,009167	0,1	7,003478
3,010833	0,1	6,933752
3,012500	0,1	6,874779
3,014167	0,1	6,855245
3,015833	0,1	6,788447
3,017500	0,1	6,781513
3,019167	0,1	6,692408
3,020833	0,1	6,670721
3,022500	0,1	6,623370
3,024167	0,1	6,572749
3,025833	0,1	6,543612
3,027500	0,1	6,484136
3,029167	0,1	6,462380
3,030833	0,1	6,417387
3,032500	0,1	6,388062
3,034167	0,1	6,308086
3,035833	0,1	6,267573
3,037500	0,1	6,272429
3,039167	0,1	6,186012
3,040833	0,1	6,184973
3,042500	0,1	6,188435
3,044167	0,1	6,075478
3,045833	0,1	6,015306
3,047500	0,1	6,014839
3,049167	0,1	5,972133
3,050833	0,1	5,869712
3,052500	0,1	5,918687
3,054167	0,1	5,869118
3,055833	0,1	5,798697
3,057500	0,1	5,786565
3,059167	0,1	5,708655
3,060833	0,1	5,730827
3,062500	0,1	5,673303
3,064167	0,1	5,639999
3,065833	0,1	5,559808
3,067500	0,1	5,524772
3,069167	0,1	5,539900
3,070833	0,1	5,491923
3,072500	0,1	5,485373
3,074167	0,1	5,421031
3,075833	0,1	5,410904
3,077500	0,1	5,366757
3,079167	0,1	5,340095
3,080833	0,1	5,321667
3,082500	0,1	5,292270
3,084167	0,1	5,230147
3,085833	0,1	5,184440
3,087500	0,1	5,188425
3,089167	0,1	5,164453
3,090833	0,1	5,101847
3,092500	0,1	5,106978
3,094167	0,1	5,076147
3,095833	0,1	5,035392
3,097500	0,1	5,013829
3,099167	0,1	4,988575
3,100833	0,1	4,975494
3,102500	0,1	4,974693
3,104167	0,1	4,947533
3,105833	0,1	4,904621
3,107500	0,1	4,926424
3,109167	0,1	4,851510
3,110833	0,1	4,831512
3,112500	0,1	4,842914
3,114167	0,1	4,832813
3,115833	0,1	4,820158
3,117500	0,1	4,787583
3,119167	0,1	4,775887
3,120833	0,1	4,711819
3,122500	0,1	4,744544
3,124167	0,1	4,738440
3,125833	0,1	4,693366
3,127500	0,1	4,698589
3,129167	0,1	4,714124
3,130833	0,1	4,647329
3,132500	0,1	4,624569
3,134167	0,1	4,635938
3,135833	0,1	4,643266
3,137500	0,1	4,588785
3,139167	0,1	4,645544
3,140833	0,1	4,606720
3,142500	0,1	4,608892
3,144167	0,1	4,620144
3,145833	0,1	4,588611
3,147500	0,1	4,563819
3,149167	0,1	4,577906
3,150833	0,1	4,534124
3,152500	0,1	4,530107
3,154167	0,1	4,541184
3,155833	0,1	4,529961
3,157500	0,1	4,484479
3,159167	0,1	4,476145
3,160833	0,1	4,479012
3,162500	0,1	4,518921
3,164167	0,1	4,463462
3,165833	0,1	4,491218
3,167500	0,1	4,457152
3,169167	0,1	4,439366
3,170833	0,1	4,420268
3,172500	0,1	4,429253
3,174167	0,1	4,435140
3,175833	0,1	4,414898
3,177500	0,1	4,430869
3,179167	0,1	4,403628
3,180833	0,1	4,383276
3,182500	0,1	4,350344
3,184167	0,1	4,390202
3,185833	0,1	4,321869
3,187500	0,1	4,318151
3,189167	0,1	4,312571
3,190833	0,1	4,280925
3,192500	0,1	4,286805
3,194167	0,1	4,253780
3,195833	0,1	4,235773
3,197500	0,1	4,239514
3,199167	0,1	4,248001
3,200833	0,1	4,185354
3,202500	0,1	4,179535
3,204167	0,1	4,169777
3,205833	0,1	4,146900
3,207500	0,1	4,113316
3,209167	0,1	4,127794
3,210833	0,1	4,076471
3,212500	0,1	4,091154
3,214167	0,1	4,028460
3,215833	0,1	4,068563
3,217500	0,1	4,028859
3,219167	0,1	4,011549
3,220833	0,1	3,976017
3,222500	0,1	3,918721
3,224167	0,1	3,935596
3,225833	0,1	3,908642
3,227500	0,1	3,864349
3,229167	0,1	3,839289
3,230833	0,1	3,803977
3,232500	0,1	3,796295
3,234167	0,1	3,805346
3,235833	0,1	3,724701
3,237500	0,1	3,728620
3,239167	0,1	3,714088
3,240833	0,1	3,678431
3,242500	0,1	3,657250
3,244167	0,1	3,672645
3,245833	0,1	3,608382
3,247500	0,1	3,591104
3,249167	0,1	3,572503
3,250833	0,1	3,577532
3,252500	0,1	3,523016
3,254167	0,1	3,522606
3,255833	0,1	3,510276
3,257500	0,1	3,452709
3,259167	0,1	3,441380
3,260833	0,1	3,467033
3,262500	0,1	3,411301
3,264167	0,1	3,366314
3,265833	0,1	3,362875
3,267500	0,1	3,346557
3,269167	0,1	3,303632
3,270833	0,1	3,309332
3,272500	0,1	3,285077
3,274167	0,1	3,257411
3,275833	0,1	3,256005
3,277500	0,1	3,208661
3,279167	0,1	3,215162
3,280833	0,1	3,209352
3,282500	0,1	3,172699
3,284167	0,1	3,114278
3,285833	0,1	3,123812
3,287500	0,1	3,124540
3,289167	0,1	3,078508
3,290833	0,1	3,093592
3,292500	0,1	3,070150
3,294167	0,1	3,016030
3,295833	0,1	3,011270
3,297500	0,1	3,001723
3,299167	0,1	2,993899
3,300833	0,1	2,944604
3,302500	0,1	3,005419
3,304167	0,1	2,947978
3,305833	0,1	2,990325
3,307500	0,1	2,964519
3,309167	0,1	2,939983
3,310833	0,1	2,918054
3,312500	0,1	2,920814
3,314167	0,1	2,903087
3,315833	0,1	2,903446
3,317500	0,1	2,931502
3,319167	0,1	2,845132
3,320833	0,1	2,861100
3,322500	0,1	2,856873
3,324167	0,1	2,887595
3,325833	0,1	2,844682
3,327500	0,1	2,836650
3,329167	0,1	2,859383
3,330833	0,1	2,848563
3,332500	0,1	2,850619
3,334167	0,1	2,863694
3,335833	0,1	2,811288
3,337500	0,1	2,840929
3,339167	0,1	2,818278
3,340833	0,1	2,812878
3,342500	0,1	2,825132
3,344167	0,1	2,815339
3,345833	0,1	2,821300
3,347500	0,1	2,809943
3,349167	0,1	2,859567
3,350833	0,1	2,818169
3,352500	0,1	2,872015
3,354167	0,1	2,809803
3,355833	0,1	2,829494
3,357500	0,1	2,794074
3,359167	0,1	2,813139
3,360833	0,1	2,850517
3,362500	0,1	2,818756
3,364167	0,1	2,800376
3,365833	0,1	2,820364
3,367500	0,1	2,824160
3,369167	0,1	2,845772
3,370833	0,1	2,802557
3,372500	0,1	2,894940
3,374167	0,1	2,833575
3,375833	0,1	2,819513
3,377500	0,1	2,839007
3,379167	0,1	2,813415
3,380833	0,1	2,770880
3,382500	0,1	2,826608
3,384167	0,1	2,826182
3,385833	0,1	2,802741
3,387500	0,1	2,823033
3,389167	0,1	2,806019
3,390833	0,1	2,834181
3,392500	0,1	2,797506
3,394167	0,1	2,873649
3,395833	0,1	2,815674
3,397500	0,1	2,789192
3,399167	0,1	2,794081
3,400833	0,1	2,760696
3,402500	0,1	2,813419
3,404167	0,1	2,804721
3,405833	0,1	2,842281
3,407500	0,1	2,795373
3,409167	0,1	2,780705
3,410833	0,1	2,799722
3,412500	0,1	2,739209
3,414167	0,1	2,764746
3,415833	0,1	2,745182
3,417500	0,1	2,750303
3,419167	0,1	2,786280
3,420833	0,1	2,743664
3,422500	0,1	2,779192
3,424167	0,1	2,680803
3,425833	0,1	2,716810
3,427500	0,1	2,772212
3,429167	0,1	2,753817
3,430833	0,1	2,737523
3,432500	0,1	2,737133
3,434167	0,1	2,712062
3,435833	0,1	2,741551
3,437500	0,1	2,738774
3,439167	0,1	2,734087
3,440833	0,1	2,732866
3,442500	0,1	2,730275
3,444167	0,1	2,701232
3,445833	0,1	2,734214
3,447500	0,1	2,728870
3,449167	0,1	2,716385
3,450833	0,1	2,729430
3,452500	0,1	2,741438
3,454167	0,1	2,751276
3,455833	0,1	2,735976
3,457500	0,1	2,748702
3,459167	0,1	2,724088
3,460833	0,1	2,746225
3,462500	0,1	2,747905
3,464167	0,1	2,780086
3,465833	0,1	2,762165
3,467500	0,1	2,820661
3,469167	0,1	2,812365
3,470833	0,1	2,793538
3,472500	0,1	2,800888
3,474167	0,1	2,806318
3,475833	0,1	2,847636
3,477500	0,1	2,847323
3,479167	0,1	2,842520
3,480833	0,1	2,839051
3,482500	0,1	2,843128
3,484167	0,1	2,852600
3,485833	0,1	2,903168
3,487500	0,1	2,868052
3,489167	0,1	2,897529
3,490833	0,1	2,924391
3,492500	0,1	2,949826
3,494167	0,1	2,984812
3,495833	0,1	2,935033
3,497500	0,1	2,955071
3,499167	0,1	3,003577
3,500833	0,1	2,989536
3,502500	0,1	3,023373
3,504167	0,1	3,034863
3,505833	0,1	3,066246
3,507500	0,1	3,034719
3,509167	0,1	3,061137
3,510833	0,1	3,053518
3,512500	0,1	3,087881
3,514167	0,1	3,099894
3,515833	0,1	3,065867
3,517500	0,1	3,102505
3,519167	0,1	3,126348
3,520833	0,1	3,101978
3,522500	0,1	3,122796
3,524167	0,1	3,113463
3,525833	0,1	3,149616
3,527500	0,1	3,132379
3,529167	0,1	3,180566
3,530833	0,1	3,136819
3,532500	0,1	3,164745
3,534167	0,1	3,188639
3,535833	0,1	3,175494
3,537500	0,1	3,214453
3,539167	0,1	3,165280
3,540833	0,1	3,184567
3,542500	0,1	3,186854
3,544167	0,1	3,185065
3,545833	0,1	3,159646
3,547500	0,1	3,170353
3,549167	0,1	3,186956
3,550833	0,1	3,177543
3,552500	0,1	3,143408
3,554167	0,1	3,164460
3,555833	0,1	3,182026
3,557500	0,1	3,186985
3,559167	0,1	3,189891
3,560833	0,1	3,139105
3,562500	0,1	3,178802
3,564167	0,1	3,144057
3,565833	0,1	3,146463
3,567500	0,1	3,163555
3,569167	0,1	3,126727
3,570833	0,1	3,097797
3,572500	0,1	3,130886
3,574167	0,1	3,099511
3,575833	0,1	3,089184
3,577500	0,1	3,061459
3,579167	0,1	3,064307
3,580833	0,1	3,091799
3,582500	0,1	3,058063
3,584167	0,1	3,050668
3,585833	0,1	3,043406
3,587500	0,1	3,052116
3,589167	0,1	2,999558
3,590833	0,1	3,030219
3,592500	0,1	2,966439
3,594167	0,1	2,989374
3,595833	0,1	2,987358
3,597500	0,1	2,954665
3,599167	0,1	2,947835
3,600833	0,1	2,930487
3,602500	0,1	2,944435
3,604167	0,1	2,893583
3,605833	0,1	2,904245
3,607500	0,1	2,905769
3,609167	0,1	2,931598
3,610833	0,1	2,836689
3,612500	0,1	2,878958
3,614167	0,1	2,819487
3,615833	0,1	2,846610
3,617500	0,1	2,825521
3,619167	0,1	2,794890
3,620833	0,1	2,783412
3,622500	0,1	2,757899
3,624167	0,1	2,730720
3,625833	0,1	2,716689
3,627500	0,1	2,725224
3,629167	0,1	2,698532
3,630833	0,1	2,693041
3,632500	0,1	2,646001
3,634167	0,1	2,653083
3,635833	0,1	2,634693
3,637500	0,1	2,602444
3,639167	0,1	2,615585
3,640833	0,1	2,572588
3,642500	0,1	2,548366
3,644167	0,1	2,538102
3,645833	0,1	2,540554
3,647500	0,1	2,522335
3,649167	0,1	2,505137
3,650833	0,1	2,510597
3,652500	0,1	2,455665
3,654167	0,1	2,444361
3,655833	0,1	2,483515
3,657500	0,1	2,453981
3,659167	0,1	2,393549
3,660833	0,1	2,373626
3,662500	0,1	2,407333
3,664167	0,1	2,375571
3,665833	0,1	2,379438
3,667500	0,1	2,374047
3,669167	0,1	2,327076
3,670833	0,1	2,318429
3,672500	0,1	2,289544
3,674167	0,1	2,302389
3,675833	0,1	2,265449
3,677500	0,1	2,302310
3,679167	0,1	2,254653
3,680833	0,1	2,250333
3,682500	0,1	2,242862
3,684167	0,1	2,218339
3,685833	0,1	2,201364
3,687500	0,1	2,221564
3,689167	0,1	2,187925
3,690833	0,1	2,187348
3,692500	0,1	2,155715
3,694167	0,1	2,166913
3,695833	0,1	2,102156
3,697500	0,1	2,135570
3,699167	0,1	2,123502
3,700833	0,1	2,073254
3,702500	0,1	2,128718
3,704167	0,1	2,082019
3,705833	0,1	2,104219
3,707500	0,1	2,031637
3,709167	0,1	2,084155
3,710833	0,1	2,051474
3,712500	0,1	2,003315
3,714167	0,1	2,018038
3,715833	0,1	2,034569
3,717500	0,1	2,033996
3,719167	0,1	2,024150
3,720833	0,1	1,938068
3,722500	0,1	1,986763
3,724167	0,1	1,993598
3,725833	0,1	1,993025
3,727500	0,1	1,972331
3,729167	0,1	1,973833
3,730833	0,1	1,960615
3,732500	0,1	1,971388
3,734167	0,1	1,929074
3,735833	0,1	1,942354
3,737500	0,1	1,917717
3,739167	0,1	1,922881
3,740833	0,1	1,913186
3,742500	0,1	1,954709
3,744167	0,1	1,923537
3,745833	0,1	1,927051
3,747500	0,1	1,915267
3,749167	0,1	1,876259
3,750833	0,1	1,931710
3,752500	0,1	1,900257
3,754167	0,1	1,913969
3,755833	0,1	1,885883
3,757500	0,1	1,905919
3,759167	0,1	1,886169
3,760833	0,1	1,882932
3,762500	0,1	1,858508
3,764167	0,1	1,843561
3,765833	0,1	1,848442
3,767500	0,1	1,850166
3,769167	0,1	1,895926
3,770833	0,1	1,855781
3,772500	0,1	1,882275
3,774167	0,1	1,825106
3,775833	0,1	1,846641
3,777500	0,1	1,860366
3,779167	0,1	1,845070
3,780833	0,1	1,841833
3,782500	0,1	1,869991
3,784167	0,1	1,807576
3,785833	0,1	1,850085
3,787500	0,1	1,844349
3,789167	0,1	1,840611
3,790833	0,1	1,822869
3,792500	0,1	1,829113
3,794167	0,1	1,837449
3,795833	0,1	1,844992
3,797500	0,1	1,831347
3,799167	0,1	1,797011
3,800833	0,1	1,821352
3,802500	0,1	1,820351
3,804167	0,1	1,817692
3,805833	0,1	1,779627
3,807500	0,1	1,787518
3,809167	0,1	1,810360
3,810833	0,1	1,772012
3,812500	0,1	1,762596
3,814167	0,1	1,775161
3,815833	0,1	1,789315
3,817500	0,1	1,786730
3,819167	0,1	1,756275
3,820833	0,1	1,757779
3,822500	0,1	1,818827
3,824167	0,1	1,781278
3,825833	0,1	1,761374
3,827500	0,1	1,782988
3,829167	0,1	1,760946
3,830833	0,1	1,757781
3,832500	0,1	1,786651
3,834167	0,1	1,768056
3,835833	0,1	1,735589
3,837500	0,1	1,730771
3,839167	0,1	1,755616
3,840833	0,1	1,784494
3,842500	0,1	1,763892
3,844167	0,1	1,796277
3,845833	0,1	1,738832
3,847500	0,1	1,763378
3,849167	0,1	1,745354
3,850833	0,1	1,767976
3,852500	0,1	1,776241
3,854167	0,1	1,761808
3,855833	0,1	1,758356
3,857500	0,1	1,718355
3,859167	0,1	1,694143
3,860833	0,1	1,704192
3,862500	0,1	1,705198
3,864167	0,1	1,748358
3,865833	0,1	1,727832
3,867500	0,1	1,715121
3,869167	0,1	1,711525
3,870833	0,1	1,687608
3,872500	0,1	1,698878
3,874167	0,1	1,708432
3,875833	0,1	1,700319
3,877500	0,1	1,698448
3,879167	0,1	1,684017
3,880833	0,1	1,676332
3,882500	0,1	1,679128
3,884167	0,1	1,670152
3,885833	0,1	1,680708
3,887500	0,1	1,666706
3,889167	0,1	1,679054
3,890833	0,1	1,650905
3,892500	0,1	1,673668
3,894167	0,1	1,646596
3,895833	0,1	1,688672
3,897500	0,1	1,670446
3,899167	0,1	1,633677
3,900833	0,1	1,625696
3,902500	0,1	1,642792
3,904167	0,1	1,633812
3,905833	0,1	1,638336
3,907500	0,1	1,627066
3,909167	0,1	1,658371
3,910833	0,1	1,636409
3,912500	0,1	1,632235
3,914167	0,1	1,590458
3,915833	0,1	1,597115
3,917500	0,1	1,607965
3,919167	0,1	1,592088
3,920833	0,1	1,629065
3,922500	0,1	1,577384
3,924167	0,1	1,559423
3,925833	0,1	1,549650
3,927500	0,1	1,581605
3,929167	0,1	1,556269
3,930833	0,1	1,563369
3,932500	0,1	1,599124
3,934167	0,1	1,543998
3,935833	0,1	1,531334
3,937500	0,1	1,533065
3,939167	0,1	1,556398
3,940833	0,1	1,567903
3,942500	0,1	1,546998
3,944167	0,1	1,573785
3,945833	0,1	1,487351
3,947500	0,1	1,525526
3,949167	0,1	1,507800
3,950833	0,1	1,484190
3,952500	0,1	1,490144
3,954167	0,1	1,505572
3,955833	0,1	1,533358
3,957500	0,1	1,478733
3,959167	0,1	1,497972
3,960833	0,1	1,527691
3,962500	0,1	1,499697
3,964167	0,1	1,467315
3,965833	0,1	1,487199
3,967500	0,1	1,462861
3,969167	0,1	1,490568
3,970833	0,1	1,465951
3,972500	0,1	1,470040
3,974167	0,1	1,466366
3,975833	0,1	1,416562
3,977500	0,1	1,458112
3,979167	0,1	1,457991
3,980833	0,1	1,468170
3,982500	0,1	1,451160
3,984167	0,1	1,437086
3,985833	0,1	1,454165
3,987500	0,1	1,481313
3,989167	0,1	1,401303
3,990833	0,1	1,443813
3,992500	0,1	1,433515
3,994167	0,1	1,438243
3,995833	0,1	1,438095
3,997500	0,1	1,429333
3,999167	0,1	1,461710
4,000833	0,1	1,445355
4,002500	0,1	1,426045
4,004167	0,1	1,457057
4,005833	0,1	1,463444
4,007500	0,1	1,430647
4,009167	0,1	1,417419
4,010833	0,1	1,447421
4,012500	0,1	1,459481
4,014167	0,1	1,428272
4,015833	0,1	1,426547
4,017500	0,1	1,427052
4,019167	0,1	1,451579
4,020833	0,1	1,438464
4,022500	0,1	1,450001
4,024167	0,1	1,472394
4,025833	0,1	1,440540
4,027500	0,1	1,440103
4,029167	0,1	1,424525
4,030833	0,1	1,442256
4,032500	0,1	1,457543
4,034167	0,1	1,450661
4,035833	0,1	1,445708
4,037500	0,1	1,439172
4,039167	0,1	1,434726
4,040833	0,1	1,489340
4,042500	0,1	1,465670
4,044167	0,1	1,455690
4,045833	0,1	1,438824
4,047500	0,1	1,452234
4,049167	0,1	1,464635
4,050833	0,1	1,472264
4,052500	0,1	1,456251
4,054167	0,1	1,533135
4,055833	0,1	1,494312
4,057500	0,1	1,490441
4,059167	0,1	1,477577
4,060833	0,1	1,484604
4,062500	0,1	1,534218
4,064167	0,1	1,536090
4,065833	0,1	1,543345
4,067500	0,1	1,532576
4,069167	0,1	1,546214
4,070833	0,1	1,536311
4,072500	0,1	1,543913
4,074167	0,1	1,575214
4,075833	0,1	1,578526
4,077500	0,1	1,600702
4,079167	0,1	1,578892
4,080833	0,1	1,585987
4,082500	0,1	1,606590
4,084167	0,1	1,641203
4,085833	0,1	1,577963
4,087500	0,1	1,635806
4,089167	0,1	1,651552
4,090833	0,1	1,639134
4,092500	0,1	1,658298
4,094167	0,1	1,627499
4,095833	0,1	1,689818
4,097500	0,1	1,680423
4,099167	0,1	1,662325
4,100833	0,1	1,687956
4,102500	0,1	1,678839
4,104167	0,1	1,691121
4,105833	0,1	1,764230
4,107500	0,1	1,730630
4,109167	0,1	1,769265
4,110833	0,1	1,776530
4,112500	0,1	1,715773
4,114167	0,1	1,771128
4,115833	0,1	1,761943
4,117500	0,1	1,828167
4,119167	0,1	1,815611
4,120833	0,1	1,848649
4,122500	0,1	1,804269
4,124167	0,1	1,872927
4,125833	0,1	1,820507
4,127500	0,1	1,858204
4,129167	0,1	1,845571
4,130833	0,1	1,852105
4,132500	0,1	1,881631
4,134167	0,1	1,880775
4,135833	0,1	1,888461
4,137500	0,1	1,969499
4,139167	0,1	1,903785
4,140833	0,1	1,942922
4,142500	0,1	1,941209
4,144167	0,1	1,945088
4,145833	0,1	1,938839
4,147500	0,1	2,013556
4,149167	0,1	1,991159
4,150833	0,1	1,977866
4,152500	0,1	2,008754
4,154167	0,1	2,006968
4,155833	0,1	1,997343
4,157500	0,1	2,004093
4,159167	0,1	2,046702
4,160833	0,1	2,040896
4,162500	0,1	2,055123
4,164167	0,1	2,089903
4,165833	0,1	2,066559
4,167500	0,1	2,068424
4,169167	0,1	2,092855
4,170833	0,1	2,095233
4,172500	0,1	2,081076
4,174167	0,1	2,101203
4,175833	0,1	2,095098
4,177500	0,1	2,132261
4,179167	0,1	2,148359
4,180833	0,1	2,113513
4,182500	0,1	2,110559
4,184167	0,1	2,165889
4,185833	0,1	2,134855
4,187500	0,1	2,150943
4,189167	0,1	2,193144
4,190833	0,1	2,168648
4,192500	0,1	2,197682
4,194167	0,1	2,140685
4,195833	0,1	2,166409
4,197500	0,1	2,154043
4,199167	0,1	2,157501
4,200833	0,1	2,175048
4,202500	0,1	2,209256
4,204167	0,1	2,176989
4,205833	0,1	2,188626
4,207500	0,1	2,157363
4,209167	0,1	2,180499
4,210833	0,1	2,178215
4,212500	0,1	2,182812
4,214167	0,1	2,172393
4,215833	0,1	2,214005
4,217500	0,1	2,202883
4,219167	0,1	2,176987
4,220833	0,1	2,193163
4,222500	0,1	2,206741
4,224167	0,1	2,214734
4,225833	0,1	2,192017
4,227500	0,1	2,243200
4,229167	0,1	2,183980
4,230833	0,1	2,187615
4,232500	0,1	2,206965
4,234167	0,1	2,190795
4,235833	0,1	2,157295
4,237500	0,1	2,166063
4,239167	0,1	2,209828
4,240833	0,1	2,190656
4,242500	0,1	2,181154
4,244167	0,1	2,193871
4,245833	0,1	2,129979
4,247500	0,1	2,154468
4,249167	0,1	2,186753
4,250833	0,1	2,171014
4,252500	0,1	2,175901
4,254167	0,1	2,176915
4,255833	0,1	2,197611
4,257500	0,1	2,158232
4,259167	0,1	2,141834
4,260833	0,1	2,118395
4,262500	0,1	2,116591
4,264167	0,1	2,144181
4,265833	0,1	2,122131
4,267500	0,1	2,089852
4,269167	0,1	2,094810
4,270833	0,1	2,093812
4,272500	0,1	2,123193
4,274167	0,1	2,090357
4,275833	0,1	2,065840
4,277500	0,1	2,067702
4,279167	0,1	2,092138
4,280833	0,1	2,053481
4,282500	0,1	2,091202
4,284167	0,1	2,029483
4,285833	0,1	2,059066
4,287500	0,1	2,046858
4,289167	0,1	2,065759
4,290833	0,1	2,033423
4,292500	0,1	2,022707
4,294167	0,1	2,025223
4,295833	0,1	2,042608
4,297500	0,1	2,032634
4,299167	0,1	1,957974
4,300833	0,1	1,987198
4,302500	0,1	1,993670
4,304167	0,1	1,960764
4,305833	0,1	1,954792
4,307500	0,1	1,963341
4,309167	0,1	1,955653
4,310833	0,1	1,925479
4,312500	0,1	1,943719
4,314167	0,1	1,943796
4,315833	0,1	1,944727
4,317500	0,1	1,962905
4,319167	0,1	1,894301
4,320833	0,1	1,905490
4,322500	0,1	1,897376
4,324167	0,1	1,872950
4,325833	0,1	1,890471
4,327500	0,1	1,890331
4,329167	0,1	1,890547
4,330833	0,1	1,855132
4,332500	0,1	1,870210
4,334167	0,1	1,826254
4,335833	0,1	1,862156
4,337500	0,1	1,846507
4,339167	0,1	1,893841
4,340833	0,1	1,800833
4,342500	0,1	1,833706
4,344167	0,1	1,798665
4,345833	0,1	1,821565
4,347500	0,1	1,810154
4,349167	0,1	1,790757
4,350833	0,1	1,785367
4,352500	0,1	1,789100
4,354167	0,1	1,715340
4,355833	0,1	1,728822
4,357500	0,1	1,742471
4,359167	0,1	1,763807
4,360833	0,1	1,762595
4,362500	0,1	1,736376
4,364167	0,1	1,747366
4,365833	0,1	1,754906
4,367500	0,1	1,722588
4,369167	0,1	1,719857
4,370833	0,1	1,739102
4,372500	0,1	1,682727
4,374167	0,1	1,699380
4,375833	0,1	1,681510
4,377500	0,1	1,680564
4,379167	0,1	1,669504
4,380833	0,1	1,685735
4,382500	0,1	1,643802
4,384167	0,1	1,636185
4,385833	0,1	1,645805
4,387500	0,1	1,657942
4,389167	0,1	1,629225
4,390833	0,1	1,636184
4,392500	0,1	1,620174
4,394167	0,1	1,638551
4,395833	0,1	1,630371
4,397500	0,1	1,596414
4,399167	0,1	1,569769
4,400833	0,1	1,607020
4,402500	0,1	1,590159
4,404167	0,1	1,612975
4,405833	0,1	1,584562
4,407500	0,1	1,560651
4,409167	0,1	1,575793
4,410833	0,1	1,599056
4,412500	0,1	1,546507
4,414167	0,1	1,551163
4,415833	0,1	1,572695
4,417500	0,1	1,536094
4,419167	0,1	1,524968
4,420833	0,1	1,546208
4,422500	0,1	1,544561
4,424167	0,1	1,501569
4,425833	0,1	1,506718
4,427500	0,1	1,526471
4,429167	0,1	1,511184
4,430833	0,1	1,514353
4,432500	0,1	1,503640
4,434167	0,1	1,476142
4,435833	0,1	1,457481
4,437500	0,1	1,461492
4,439167	0,1	1,473338
4,440833	0,1	1,450524
4,442500	0,1	1,455110
4,444167	0,1	1,458060
4,445833	0,1	1,423168
4,447500	0,1	1,443424
4,449167	0,1	1,417631
4,450833	0,1	1,422170
4,452500	0,1	1,436573
4,454167	0,1	1,451082
4,455833	0,1	1,393667
4,457500	0,1	1,415559
4,459167	0,1	1,415704
4,460833	0,1	1,403730
4,462500	0,1	1,377221
4,464167	0,1	1,367180
4,465833	0,1	1,393306
4,467500	0,1	1,390879
4,469167	0,1	1,393810
4,470833	0,1	1,384491
4,472500	0,1	1,332233
4,474167	0,1	1,357266
4,475833	0,1	1,347814
4,477500	0,1	1,333169
4,479167	0,1	1,320468
4,480833	0,1	1,337821
4,482500	0,1	1,338341
4,484167	0,1	1,355338
4,485833	0,1	1,293922
4,487500	0,1	1,303571
4,489167	0,1	1,329165
4,490833	0,1	1,241621
4,492500	0,1	1,287577
4,494167	0,1	1,278848
4,495833	0,1	1,279917
4,497500	0,1	1,266234
4,499167	0,1	1,256072
4,500833	0,1	1,262780
4,502500	0,1	1,240393
4,504167	0,1	1,275770
4,505833	0,1	1,228638
4,507500	0,1	1,239038
4,509167	0,1	1,231212
4,510833	0,1	1,254681
4,512500	0,1	1,244934
4,514167	0,1	1,253821
4,515833	0,1	1,212276
4,517500	0,1	1,209709
4,519167	0,1	1,209670
4,520833	0,1	1,174319
4,522500	0,1	1,143822
4,524167	0,1	1,167353
4,525833	0,1	1,193536
4,527500	0,1	1,125165
4,529167	0,1	1,167336
4,530833	0,1	1,177342
4,532500	0,1	1,150854
4,534167	0,1	1,158593
4,535833	0,1	1,104751
4,537500	0,1	1,180321
4,539167	0,1	1,162789
4,540833	0,1	1,099081
4,542500	0,1	1,112645
4,544167	0,1	1,109176
4,545833	0,1	1,089032
4,547500	0,1	1,089451
4,549167	0,1	1,132212
4,550833	0,1	1,084807
4,552500	0,1	1,074030
4,554167	0,1	1,087459
4,555833	0,1	1,064009
4,557500	0,1	1,019107
4,559167	0,1	1,059817
4,560833	0,1	1,055310
4,562500	0,1	1,055599
4,564167	0,1	1,039771
4,565833	0,1	1,101456
4,567500	0,1	1,035384
4,569167	0,1	1,062775
4,570833	0,1	1,041282
4,572500	0,1	0,990221
4,574167	0,1	1,043695
4,575833	0,1	1,019712
4,577500	0,1	1,010285
4,579167	0,1	0,994220
4,580833	0,1	1,006816
4,582500	0,1	1,009788
4,584167	0,1	0,977597
4,585833	0,1	0,998321
4,587500	0,1	0,980514
4,589167	0,1	0,973567
4,590833	0,1	0,975874
4,592500	0,1	0,989661
4,594167	0,1	0,947321
4,595833	0,1	0,971080
4,597500	0,1	0,981323
4,599167	0,1	0,989017
4,600833	0,1	0,943247
4,602500	0,1	0,972657
4,604167	0,1	0,971781
4,605833	0,1	0,928047
4,607500	0,1	0,935846
4,609167	0,1	0,947682
4,610833	0,1	0,905821
4,612500	0,1	0,897067
4,614167	0,1	0,942799
4,615833	0,1	0,950519
4,617500	0,1	0,924717
4,619167	0,1	0,915663
4,620833	0,1	0,897715
4,622500	0,1	0,927759
4,624167	0,1	0,937375
4,625833	0,1	0,906241
4,627500	0,1	0,889924
4,629167	0,1	0,872639
4,630833	0,1	0,898264
4,632500	0,1	0,907338
4,634167	0,1	0,914879
4,635833	0,1	0,865078
4,637500	0,1	0,852415
4,639167	0,1	0,884376
4,640833	0,1	0,874371
4,642500	0,1	0,851042
4,644167	0,1	0,858613
4,645833	0,1	0,852328
4,647500	0,1	0,830263
4,649167	0,1	0,848895
4,650833	0,1	0,854683
4,652500	0,1	0,816698
4,654167	0,1	0,808259
4,655833	0,1	0,868430
4,657500	0,1	0,861265
4,659167	0,1	0,815074
4,660833	0,1	0,830832
4,662500	0,1	0,826697
4,664167	0,1	0,815799
4,665833	0,1	0,788736
4,667500	0,1	0,799444
4,669167	0,1	0,840521
4,670833	0,1	0,841937
4,672500	0,1	0,796366
4,674167	0,1	0,837384
4,675833	0,1	0,807686
4,677500	0,1	0,753131
4,679167	0,1	0,741020
4,680833	0,1	0,776574
4,682500	0,1	0,766619
4,684167	0,1	0,806554
4,685833	0,1	0,777656
4,687500	0,1	0,791817
4,689167	0,1	0,777007
4,690833	0,1	0,755656
4,692500	0,1	0,783004
4,694167	0,1	0,790925
4,695833	0,1	0,740451
4,697500	0,1	0,754338
4,699167	0,1	0,758096
4,700833	0,1	0,788696
4,702500	0,1	0,779809
4,704167	0,1	0,756215
4,705833	0,1	0,730793
4,707500	0,1	0,745328
4,709167	0,1	0,764967
4,710833	0,1	0,724681
4,712500	0,1	0,714442
4,714167	0,1	0,727693
4,715833	0,1	0,758757
4,717500	0,1	0,751228
4,719167	0,1	0,696707
4,720833	0,1	0,745119
4,722500	0,1	0,727543
4,724167	0,1	0,726406
4,725833	0,1	0,707840
4,727500	0,1	0,721287
4,729167	0,1	0,707506
4,730833	0,1	0,671884
4,732500	0,1	0,752784
4,734167	0,1	0,717095
4,735833	0,1	0,697633
4,737500	0,1	0,694471
4,739167	0,1	0,700985
4,740833	0,1	0,731312
4,742500	0,1	0,674514
4,744167	0,1	0,729284
4,745833	0,1	0,723694
4,747500	0,1	0,727050
4,749167	0,1	0,712264
4,750833	0,1	0,685848
4,752500	0,1	0,688821
4,754167	0,1	0,679550
4,755833	0,1	0,677459
4,757500	0,1	0,711073
4,759167	0,1	0,700811
4,760833	0,1	0,708212
4,762500	0,1	0,703477
4,764167	0,1	0,683912
4,765833	0,1	0,665319
4,767500	0,1	0,682280
4,769167	0,1	0,685242
4,770833	0,1	0,661052
4,772500	0,1	0,676652
4,774167	0,1	0,665562
4,775833	0,1	0,665872
4,777500	0,1	0,621632
4,779167	0,1	0,673065
4,780833	0,1	0,685149
4,782500	0,1	0,671903
4,784167	0,1	0,662404
4,785833	0,1	0,624210
4,787500	0,1	0,671419
4,789167	0,1	0,639485
4,790833	0,1	0,647947
4,792500	0,1	0,628966
4,794167	0,1	0,667110
4,795833	0,1	0,651177
4,797500	0,1	0,625585
4,799167	0,1	0,643318
4,800833	0,1	0,692524
4,802500	0,1	0,663390
4,804167	0,1	0,644688
4,805833	0,1	0,635923
4,807500	0,1	0,672914
4,809167	0,1	0,638243
4,810833	0,1	0,615113
4,812500	0,1	0,640518
4,814167	0,1	0,677338
4,815833	0,1	0,605964
4,817500	0,1	0,650451
4,819167	0,1	0,625453
4,820833	0,1	0,629428
4,822500	0,1	0,662219
4,824167	0,1	0,626811
4,825833	0,1	0,613356
4,827500	0,1	0,580651
4,829167	0,1	0,622525
4,830833	0,1	0,617802
4,832500	0,1	0,637785
4,834167	0,1	0,607797
4,835833	0,1	0,639871
4,837500	0,1	0,610955
4,839167	0,1	0,629089
4,840833	0,1	0,620176
4,842500	0,1	0,613156
4,844167	0,1	0,649833
4,845833	0,1	0,643149
4,847500	0,1	0,625030
4,849167	0,1	0,617000
4,850833	0,1	0,659679
4,852500	0,1	0,620165
4,854167	0,1	0,606975
4,855833	0,1	0,624491
4,857500	0,1	0,604662
4,859167	0,1	0,598838
4,860833	0,1	0,614927
4,862500	0,1	0,577123
4,864167	0,1	0,617923
4,865833	0,1	0,593901
4,867500	0,1	0,573622
4,869167	0,1	0,621054
4,870833	0,1	0,617223
4,872500	0,1	0,532705
4,874167	0,1	0,583566
4,875833	0,1	0,572247
4,877500	0,1	0,604186
4,879167	0,1	0,582410
4,880833	0,1	0,612701
4,882500	0,1	0,628559
4,884167	0,1	0,556963
4,885833	0,1	0,600355
4,887500	0,1	0,576515
4,889167	0,1	0,569842
4,890833	0,1	0,586045
4,892500	0,1	0,566423
4,894167	0,1	0,619233
4,895833	0,1	0,628517
4,897500	0,1	0,619314
4,899167	0,1	0,604462
4,900833	0,1	0,589210
4,902500	0,1	0,588941
4,904167	0,1	0,603033
4,905833	0,1	0,570047
4,907500	0,1	0,558040
4,909167	0,1	0,589017
4,910833	0,1	0,597471
4,912500	0,1	0,595878
4,914167	0,1	0,616638
4,915833	0,1	0,541713
4,917500	0,1	0,585816
4,919167	0,1	0,600808
4,920833	0,1	0,593614
4,922500	0,1	0,562888
4,924167	0,1	0,586754
4,925833	0,1	0,572869
4,927500	0,1	0,597913
4,929167	0,1	0,593234
4,930833	0,1	0,600099
4,932500	0,1	0,589632
4,934167	0,1	0,574645
4,935833	0,1	0,587715
4,937500	0,1	0,573802
4,939167	0,1	0,599450
4,940833	0,1	0,586763
4,942500	0,1	0,559819
4,944167	0,1	0,567548
4,945833	0,1	0,604251
4,947500	0,1	0,598945
4,949167	0,1	0,585853
4,950833	0,1	0,576776
4,952500	0,1	0,556819
4,954167	0,1	0,562020
4,955833	0,1	0,588267
4,957500	0,1	0,601611
4,959167	0,1	0,618084
4,960833	0,1	0,589636
4,962500	0,1	0,538682
4,964167	0,1	0,571922
4,965833	0,1	0,590690
4,967500	0,1	0,579762
4,969167	0,1	0,573155
4,970833	0,1	0,567974
4,972500	0,1	0,647310
4,974167	0,1	0,605534
4,975833	0,1	0,629442
4,977500	0,1	0,611158
4,979167	0,1	0,605021
4,980833	0,1	0,604566
4,982500	0,1	0,610773
4,984167	0,1	0,597303
4,985833	0,1	0,572244
4,987500	0,1	0,583714
4,989167	0,1	0,581156
4,990833	0,1	0,626124
4,992500	0,1	0,592927
4,994167	0,1	0,610033
4,995833	0,1	0,609526
4,997500	0,1	0,598350
4,999167	0,1	0,653274
5,000833	0,1	0,599247
5,002500	0,1	0,633979
5,004167	0,1	0,616935
5,005833	0,1	0,637917
5,007500	0,1	0,662620
5,009167	0,1	0,605785
5,010833	0,1	0,617153
5,012500	0,1	0,608396
5,014167	0,1	0,654743
5,015833	0,1	0,632437
5,017500	0,1	0,634473
5,019167	0,1	0,613244
5,020833	0,1	0,592346
5,022500	0,1	0,633753
5,024167	0,1	0,644722
5,025833	0,1	0,668180
5,027500	0,1	0,635995
5,029167	0,1	0,638945
5,030833	0,1	0,659397
5,032500	0,1	0,608314
5,034167	0,1	0,660255
5,035833	0,1	0,631415
5,037500	0,1	0,658663
5,039167	0,1	0,637590
5,040833	0,1	0,663265
5,042500	0,1	0,700066
5,044167	0,1	0,670883
5,045833	0,1	0,693709
5,047500	0,1	0,676817
5,049167	0,1	0,664897
5,050833	0,1	0,697443
5,052500	0,1	0,658476
5,054167	0,1	0,704978
5,055833	0,1	0,688159
5,057500	0,1	0,681550
5,059167	0,1	0,695112
5,060833	0,1	0,711946
5,062500	0,1	0,714329
5,064167	0,1	0,722334
5,065833	0,1	0,737033
5,067500	0,1	0,722029
5,069167	0,1	0,704660
5,070833	0,1	0,713659
5,072500	0,1	0,724135
5,074167	0,1	0,699167
5,075833	0,1	0,740606
5,077500	0,1	0,740705
5,079167	0,1	0,731234
5,080833	0,1	0,737189
5,082500	0,1	0,752646
5,084167	0,1	0,789825
5,085833	0,1	0,720485
5,087500	0,1	0,742769
5,089167	0,1	0,779463
5,090833	0,1	0,736669
5,092500	0,1	0,734367
5,094167	0,1	0,721226
5,095833	0,1	0,776770
5,097500	0,1	0,764751
5,099167	0,1	0,793186
5,100833	0,1	0,779609
5,102500	0,1	0,779296
5,104167	0,1	0,788258
5,105833	0,1	0,784343
5,107500	0,1	0,769066
5,109167	0,1	0,781960
5,110833	0,1	0,741183
5,112500	0,1	0,753359
5,114167	0,1	0,787693
5,115833	0,1	0,748432
5,117500	0,1	0,743688
5,119167	0,1	0,768501
5,120833	0,1	0,736309
5,122500	0,1	0,788535
5,124167	0,1	0,813788
5,125833	0,1	0,773009
5,127500	0,1	0,786966
5,129167	0,1	0,751167
5,130833	0,1	0,749425
5,132500	0,1	0,754273
5,134167	0,1	0,796547
5,135833	0,1	0,770803
5,137500	0,1	0,750519
5,139167	0,1	0,775306
5,140833	0,1	0,755034
5,142500	0,1	0,772373
5,144167	0,1	0,778557
5,145833	0,1	0,756746
5,147500	0,1	0,749203
5,149167	0,1	0,781936
5,150833	0,1	0,773044
5,152500	0,1	0,778918
5,154167	0,1	0,777758
5,155833	0,1	0,753745
5,157500	0,1	0,782179
5,159167	0,1	0,769423
5,160833	0,1	0,738889
5,162500	0,1	0,770744
5,164167	0,1	0,739534
5,165833	0,1	0,737836
5,167500	0,1	0,732656
5,169167	0,1	0,753156
5,170833	0,1	0,746712
5,172500	0,1	0,750513
5,174167	0,1	0,727678
5,175833	0,1	0,744218
5,177500	0,1	0,711934
5,179167	0,1	0,716040
5,180833	0,1	0,711173
5,182500	0,1	0,725624
5,184167	0,1	0,748908
5,185833	0,1	0,683433
5,187500	0,1	0,691420
5,189167	0,1	0,703139
5,190833	0,1	0,713816
5,192500	0,1	0,726580
5,194167	0,1	0,676247
5,195833	0,1	0,735351
5,197500	0,1	0,680808
5,199167	0,1	0,677392
5,200833	0,1	0,665164
5,202500	0,1	0,676254
5,204167	0,1	0,719833
5,205833	0,1	0,689964
5,207500	0,1	0,675748
5,209167	0,1	0,649223
5,210833	0,1	0,636901
5,212500	0,1	0,677782
5,214167	0,1	0,660651
5,215833	0,1	0,631614
5,217500	0,1	0,621760
5,219167	0,1	0,672175
5,220833	0,1	0,613367
5,222500	0,1	0,620842
5,224167	0,1	0,606794
5,225833	0,1	0,611326
5,227500	0,1	0,604748
5,229167	0,1	0,656698
5,230833	0,1	0,618075
5,232500	0,1	0,626270
5,234167	0,1	0,632544
5,235833	0,1	0,616003
5,237500	0,1	0,605751
5,239167	0,1	0,588790
5,240833	0,1	0,583206
5,242500	0,1	0,596410
5,244167	0,1	0,630843
5,245833	0,1	0,564236
5,247500	0,1	0,603894
5,249167	0,1	0,601416
5,250833	0,1	0,567227
5,252500	0,1	0,589713
5,254167	0,1	0,591520
5,255833	0,1	0,537354
5,257500	0,1	0,557462
5,259167	0,1	0,570350
5,260833	0,1	0,529903
5,262500	0,1	0,558120
5,264167	0,1	0,533479
5,265833	0,1	0,551097
5,267500	0,1	0,576348
5,269167	0,1	0,550058
5,270833	0,1	0,505001
5,272500	0,1	0,560769
5,274167	0,1	0,552105
5,275833	0,1	0,562217
5,277500	0,1	0,504069
5,279167	0,1	0,485643
5,280833	0,1	0,501947
5,282500	0,1	0,511314
5,284167	0,1	0,485394
5,285833	0,1	0,516756
5,287500	0,1	0,508268
5,289167	0,1	0,506159
5,290833	0,1	0,474951
5,292500	0,1	0,499391
5,294167	0,1	0,466979
5,295833	0,1	0,492945
5,297500	0,1	0,498529
5,299167	0,1	0,451684
5,300833	0,1	0,488142
5,302500	0,1	0,444040
5,304167	0,1	0,461756
5,305833	0,1	0,481988
5,307500	0,1	0,433965
5,309167	0,1	0,481168
5,310833	0,1	0,446420
5,312500	0,1	0,480380
5,314167	0,1	0,455703
5,315833	0,1	0,478514
5,317500	0,1	0,472905
5,319167	0,1	0,429402
5,320833	0,1	0,434295
5,322500	0,1	0,420019
5,324167	0,1	0,386744
5,325833	0,1	0,460995
5,327500	0,1	0,421641
5,329167	0,1	0,383944
5,330833	0,1	0,413862
5,332500	0,1	0,411778
5,334167	0,1	0,445562
5,335833	0,1	0,433301
5,337500	0,1	0,400307
5,339167	0,1	0,450623
5,340833	0,1	0,413907
5,342500	0,1	0,407360
5,344167	0,1	0,391055
5,345833	0,1	0,405712
5,347500	0,1	0,399561
5,349167	0,1	0,390800
5,350833	0,1	0,372954
5,352500	0,1	0,397685
5,354167	0,1	0,358942
5,355833	0,1	0,424678
5,357500	0,1	0,411481
5,359167	0,1	0,372119
5,360833	0,1	0,391729
5,362500	0,1	0,405926
5,364167	0,1	0,363677
5,365833	0,1	0,370343
5,367500	0,1	0,378329
5,369167	0,1	0,335100
5,370833	0,1	0,353286
5,372500	0,1	0,363694
5,374167	0,1	0,373453
5,375833	0,1	0,342792
5,377500	0,1	0,336993
5,379167	0,1	0,362437
5,380833	0,1	0,357868
5,382500	0,1	0,337576
5,384167	0,1	0,326071
5,385833	0,1	0,346742
5,387500	0,1	0,354803
5,389167	0,1	0,302819
5,390833	0,1	0,330891
5,392500	0,1	0,335761
5,394167	0,1	0,352347
5,395833	0,1	0,332126
5,397500	0,1	0,323521
5,399167	0,1	0,300559
5,400833	0,1	0,301357
5,402500	0,1	0,381683
5,404167	0,1	0,317930
5,405833	0,1	0,341014
5,407500	0,1	0,373129
5,409167	0,1	0,347658
5,410833	0,1	0,326811
5,412500	0,1	0,323746
5,414167	0,1	0,284549
5,415833	0,1	0,344350
5,417500	0,1	0,313248
5,419167	0,1	0,330119
5,420833	0,1	0,306322
5,422500	0,1	0,321967
5,424167	0,1	0,342492
5,425833	0,1	0,286356
5,427500	0,1	0,255748
5,429167	0,1	0,319544
5,430833	0,1	0,358299
5,432500	0,1	0,322465
5,434167	0,1	0,293538
5,435833	0,1	0,312241
5,437500	0,1	0,266542
5,439167	0,1	0,313424
5,440833	0,1	0,331798
5,442500	0,1	0,290863
5,444167	0,1	0,332595
5,445833	0,1	0,304520
5,447500	0,1	0,247441
5,449167	0,1	0,300570
5,450833	0,1	0,283705
5,452500	0,1	0,269432
5,454167	0,1	0,300316
5,455833	0,1	0,319134
5,457500	0,1	0,294436
5,459167	0,1	0,315138
5,460833	0,1	0,252920
5,462500	0,1	0,299184
5,464167	0,1	0,296263
5,465833	0,1	0,258647
5,467500	0,1	0,284079
5,469167	0,1	0,289080
5,470833	0,1	0,256684
5,472500	0,1	0,213295
5,474167	0,1	0,268710
5,475833	0,1	0,257838
5,477500	0,1	0,250074
5,479167	0,1	0,241696
5,480833	0,1	0,247720
5,482500	0,1	0,264144
5,484167	0,1	0,303377
5,485833	0,1	0,234208
5,487500	0,1	0,258503
5,489167	0,1	0,266979
5,490833	0,1	0,269820
5,492500	0,1	0,216711
5,494167	0,1	0,275116
5,495833	0,1	0,244699
5,497500	0,1	0,260923
5,499167	0,1	0,269589
5,500833	0,1	0,247435
5,502500	0,1	0,219638
5,504167	0,1	0,233413
5,505833	0,1	0,271835
5,507500	0,1	0,295838
5,509167	0,1	0,248533
5,510833	0,1	0,243275
5,512500	0,1	0,283043
5,514167	0,1	0,293909
5,515833	0,1	0,260191
5,517500	0,1	0,208852
5,519167	0,1	0,277626
5,520833	0,1	0,254746
5,522500	0,1	0,239571
5,524167	0,1	0,262431
5,525833	0,1	0,224503
5,527500	0,1	0,219598
5,529167	0,1	0,232801
5,530833	0,1	0,233769
5,532500	0,1	0,219988
5,534167	0,1	0,201307
5,535833	0,1	0,215794
5,537500	0,1	0,228934
5,539167	0,1	0,288872
5,540833	0,1	0,208795
5,542500	0,1	0,227872
5,544167	0,1	0,256055
5,545833	0,1	0,198838
5,547500	0,1	0,226259
5,549167	0,1	0,232126
5,550833	0,1	0,213257
5,552500	0,1	0,248387
5,554167	0,1	0,212746
5,555833	0,1	0,205267
5,557500	0,1	0,254923
5,559167	0,1	0,220637
5,560833	0,1	0,241592
5,562500	0,1	0,213484
5,564167	0,1	0,199536
5,565833	0,1	0,249122
5,567500	0,1	0,223051
5,569167	0,1	0,253189
5,570833	0,1	0,203504
5,572500	0,1	0,205909
5,574167	0,1	0,203913
5,575833	0,1	0,191419
5,577500	0,1	0,232665
5,579167	0,1	0,259370
5,580833	0,1	0,236966
5,582500	0,1	0,219601
5,584167	0,1	0,193161
5,585833	0,1	0,209191
5,587500	0,1	0,193190
5,589167	0,1	0,197694
5,590833	0,1	0,173708
5,592500	0,1	0,210861
5,594167	0,1	0,203399
5,595833	0,1	0,219821
5,597500	0,1	0,195253
5,599167	0,1	0,204619
5,600833	0,1	0,222783
5,602500	0,1	0,186302
5,604167	0,1	0,197177
5,605833	0,1	0,218531
5,607500	0,1	0,205171
5,609167	0,1	0,201981
5,610833	0,1	0,228515
5,612500	0,1	0,206332
5,614167	0,1	0,221849
5,615833	0,1	0,188298
5,617500	0,1	0,196662
5,619167	0,1	0,250377
5,620833	0,1	0,216740
5,622500	0,1	0,209421
5,624167	0,1	0,220273
5,625833	0,1	0,251062
5,627500	0,1	0,222052
5,629167	0,1	0,240113
5,630833	0,1	0,201152
5,632500	0,1	0,203685
5,634167	0,1	0,214281
5,635833	0,1	0,223781
5,637500	0,1	0,203820
5,639167	0,1	0,203011
5,640833	0,1	0,220237
5,642500	0,1	0,188040
5,644167	0,1	0,224935
5,645833	0,1	0,199569
5,647500	0,1	0,185300
5,649167	0,1	0,228381
5,650833	0,1	0,232321
5,652500	0,1	0,177322
5,654167	0,1	0,214467
5,655833	0,1	0,198150
5,657500	0,1	0,227096
5,659167	0,1	0,245749
5,660833	0,1	0,226143
5,662500	0,1	0,224914
5,664167	0,1	0,222691
5,665833	0,1	0,199505
5,667500	0,1	0,193543
5,669167	0,1	0,229445
5,670833	0,1	0,199733
5,672500	0,1	0,195313
5,674167	0,1	0,192061
5,675833	0,1	0,229542
5,677500	0,1	0,208458
5,679167	0,1	0,210740
5,680833	0,1	0,240140
5,682500	0,1	0,191587
5,684167	0,1	0,251470
5,685833	0,1	0,227432
5,687500	0,1	0,242397
5,689167	0,1	0,208430
5,690833	0,1	0,209225
5,692500	0,1	0,244103
5,694167	0,1	0,223435
5,695833	0,1	0,214575
5,697500	0,1	0,219918
5,699167	0,1	0,235281
5,700833	0,1	0,216158
5,702500	0,1	0,192998
5,704167	0,1	0,243067
5,705833	0,1	0,271963
5,707500	0,1	0,218871
5,709167	0,1	0,251994
5,710833	0,1	0,231714
5,712500	0,1	0,206656
5,714167	0,1	0,239236
5,715833	0,1	0,239696
5,717500	0,1	0,251740
5,719167	0,1	0,233614
5,720833	0,1	0,204402
5,722500	0,1	0,211671
5,724167	0,1	0,234120
5,725833	0,1	0,212258
5,727500	0,1	0,248063
5,729167	0,1	0,225047
5,730833	0,1	0,256310
5,732500	0,1	0,246077
5,734167	0,1	0,249551
5,735833	0,1	0,185471
5,737500	0,1	0,232986
5,739167	0,1	0,232996
5,740833	0,1	0,198767
5,742500	0,1	0,217337
5,744167	0,1	0,231383
5,745833	0,1	0,245394
5,747500	0,1	0,205950
5,749167	0,1	0,200435
5,750833	0,1	0,277141
5,752500	0,1	0,236391
5,754167	0,1	0,225205
5,755833	0,1	0,250098
5,757500	0,1	0,252389
5,759167	0,1	0,228012
5,760833	0,1	0,232480
5,762500	0,1	0,231421
5,764167	0,1	0,253514
5,765833	0,1	0,260761
5,767500	0,1	0,230332
5,769167	0,1	0,263302
5,770833	0,1	0,232650
5,772500	0,1	0,265653
5,774167	0,1	0,252390
5,775833	0,1	0,221829
5,777500	0,1	0,230675
5,779167	0,1	0,233480
5,780833	0,1	0,243430
5,782500	0,1	0,277605
5,784167	0,1	0,221480
5,785833	0,1	0,212547
5,787500	0,1	0,228870
5,789167	0,1	0,201600
5,790833	0,1	0,224779
5,792500	0,1	0,262207
5,794167	0,1	0,288395
5,795833	0,1	0,240096
5,797500	0,1	0,224467
5,799167	0,1	0,251645
5,800833	0,1	0,253999
5,802500	0,1	0,234612
5,804167	0,1	0,264271
5,805833	0,1	0,210754
5,807500	0,1	0,229484
5,809167	0,1	0,237374
5,810833	0,1	0,233514
5,812500	0,1	0,262303
5,814167	0,1	0,238382
5,815833	0,1	0,245398
5,817500	0,1	0,209139
5,819167	0,1	0,230093
5,820833	0,1	0,264525
5,822500	0,1	0,251587
5,824167	0,1	0,258089
5,825833	0,1	0,211813
5,827500	0,1	0,262683
5,829167	0,1	0,265398
5,830833	0,1	0,265952
5,832500	0,1	0,251296
5,834167	0,1	0,239152
5,835833	0,1	0,205369
5,837500	0,1	0,248126
5,839167	0,1	0,220763
5,840833	0,1	0,239113
5,842500	0,1	0,210908
5,844167	0,1	0,230128
5,845833	0,1	0,249870
5,847500	0,1	0,263142
5,849167	0,1	0,205246
5,850833	0,1	0,228868
5,852500	0,1	0,200086
5,854167	0,1	0,215663
5,855833	0,1	0,223880
5,857500	0,1	0,218729
5,859167	0,1	0,242044
5,860833	0,1	0,216802
5,862500	0,1	0,209776
5,864167	0,1	0,238369
5,865833	0,1	0,219667
5,867500	0,1	0,235733
5,869167	0,1	0,197029
5,870833	0,1	0,243648
5,872500	0,1	0,231422
5,874167	0,1	0,204499
5,875833	0,1	0,270187
5,877500	0,1	0,235516
5,879167	0,1	0,256539
5,880833	0,1	0,232101
5,882500	0,1	0,180573
5,884167	0,1	0,231053
5,885833	0,1	0,233769
5,887500	0,1	0,167340
5,889167	0,1	0,222774
5,890833	0,1	0,216025
5,892500	0,1	0,240206
5,894167	0,1	0,219828
5,895833	0,1	0,203530
5,897500	0,1	0,222267
5,899167	0,1	0,199440
5,900833	0,1	0,242843
5,902500	0,1	0,201668
5,904167	0,1	0,213830
5,905833	0,1	0,216697
5,907500	0,1	0,232154
5,909167	0,1	0,239727
5,910833	0,1	0,196675
5,912500	0,1	0,238848
5,914167	0,1	0,190556
5,915833	0,1	0,198144
5,917500	0,1	0,177860
5,919167	0,1	0,185101
5,920833	0,1	0,183557
5,922500	0,1	0,200688
5,924167	0,1	0,211671
5,925833	0,1	0,183178
5,927500	0,1	0,189675
5,929167	0,1	0,215211
5,930833	0,1	0,215280
5,932500	0,1	0,214541
5,934167	0,1	0,213832
5,935833	0,1	0,206135
5,937500	0,1	0,182081
5,939167	0,1	0,212473
5,940833	0,1	0,204623
5,942500	0,1	0,198147
5,944167	0,1	0,196343
5,945833	0,1	0,169200
5,947500	0,1	0,202840
5,949167	0,1	0,175190
5,950833	0,1	0,183586
5,952500	0,1	0,192058
5,954167	0,1	0,154805
5,955833	0,1	0,164391
5,957500	0,1	0,222193
5,959167	0,1	0,190231
5,960833	0,1	0,202910
5,962500	0,1	0,209579
5,964167	0,1	0,192708
5,965833	0,1	0,209513
5,967500	0,1	0,190163
5,969167	0,1	0,221492
5,970833	0,1	0,190552
5,972500	0,1	0,197307
5,974167	0,1	0,181595
5,975833	0,1	0,200203
5,977500	0,1	0,174481
5,979167	0,1	0,163013
5,980833	0,1	0,145654
5,982500	0,1	0,174563
5,984167	0,1	0,178821
5,985833	0,1	0,152548
5,987500	0,1	0,198941
5,989167	0,1	0,193316
5,990833	0,1	0,216854
5,992500	0,1	0,174356
5,994167	0,1	0,179755
5,995833	0,1	0,179916
5,997500	0,1	0,248861
5,999167	0,1	0,174879
6,000833	0,1	0,188127
