File Path	chrom://chromeleon01/ikbm_chromeleon/2022/Rezex/Esteban/220612_chitin_4_7.seq/355.smp/UV_VIS_1.channel/UV_VIS_1.chm
Channel	UV_VIS_1

Injection Information:
Data Vault	ikbm_chromeleon
Injection	4_24h-ChiBI_2
Injection Number	44
Position	RE7
Comment	
Processing Method	New ProcMethod
Instrument Method	Short_Rezex_6min_194nm
Type	Unknown
Status	Finished
Injection Date	12.06.2022
Injection Time	21:52:37
Injection Volume (µl)	8,000
Dilution Factor	1,0000
Weight	1,0000

Chromatogram Data Information:
Time Min. (min)	0,000833
Time Max. (min)	6,000833
Data Points	3601
Detector	UV
Generating Data System	Chromeleon 7.2.9.11323
Exporting Data System	Chromeleon 7.2.9.0
Operator	Instrument Controller
Signal Quantity	Absorbance
Signal Unit	mAU
Signal Min.	-0,058248
Signal Max.	200,204362
Channel	UV_VIS_1
Driver Name	VWD3000.dll
Channel Type	Evaluation
Min. Step (s)	0,1
Max. Step (s)	0,1
Average Step (s)	0,1

Signal Parameter Information:
Signal Info	WVL:194 nm

Chromatogram Data:
Time (min)	Step (s)	Value (mAU)
0,000833	n.a.	-0,024600
0,002500	0,1	0,031482
0,004167	0,1	-0,012934
0,005833	0,1	0,012328
0,007500	0,1	0,025535
0,009167	0,1	0,007573
0,010833	0,1	-0,003182
0,012500	0,1	0,006214
0,014167	0,1	-0,021246
0,015833	0,1	0,011040
0,017500	0,1	0,006413
0,019167	0,1	-0,003602
0,020833	0,1	0,009565
0,022500	0,1	0,013332
0,024167	0,1	0,008473
0,025833	0,1	0,016135
0,027500	0,1	-0,015221
0,029167	0,1	0,008530
0,030833	0,1	-0,038821
0,032500	0,1	-0,049230
0,034167	0,1	-0,055607
0,035833	0,1	-0,058248
0,037500	0,1	0,019725
0,039167	0,1	-0,049216
0,040833	0,1	-0,002135
0,042500	0,1	0,012720
0,044167	0,1	-0,011103
0,045833	0,1	-0,013812
0,047500	0,1	-0,021987
0,049167	0,1	-0,043979
0,050833	0,1	0,020050
0,052500	0,1	0,004611
0,054167	0,1	-0,035151
0,055833	0,1	0,023979
0,057500	0,1	0,023799
0,059167	0,1	0,025346
0,060833	0,1	0,011696
0,062500	0,1	-0,015155
0,064167	0,1	-0,002867
0,065833	0,1	-0,024884
0,067500	0,1	-0,012852
0,069167	0,1	-0,009469
0,070833	0,1	0,015035
0,072500	0,1	0,011787
0,074167	0,1	0,014912
0,075833	0,1	0,022704
0,077500	0,1	0,032073
0,079167	0,1	0,022194
0,080833	0,1	0,043987
0,082500	0,1	0,000434
0,084167	0,1	0,033647
0,085833	0,1	0,045955
0,087500	0,1	0,037263
0,089167	0,1	0,062472
0,090833	0,1	0,018916
0,092500	0,1	0,041379
0,094167	0,1	0,047889
0,095833	0,1	0,031339
0,097500	0,1	0,021644
0,099167	0,1	0,051296
0,100833	0,1	0,047569
0,102500	0,1	0,058997
0,104167	0,1	0,037395
0,105833	0,1	0,031596
0,107500	0,1	0,047178
0,109167	0,1	-0,001689
0,110833	0,1	0,001835
0,112500	0,1	0,011690
0,114167	0,1	-0,008367
0,115833	0,1	0,001222
0,117500	0,1	-0,001992
0,119167	0,1	0,005766
0,120833	0,1	0,024441
0,122500	0,1	0,039384
0,124167	0,1	-0,007489
0,125833	0,1	-0,003314
0,127500	0,1	0,007761
0,129167	0,1	-0,036215
0,130833	0,1	0,005274
0,132500	0,1	0,020930
0,134167	0,1	0,018425
0,135833	0,1	0,026148
0,137500	0,1	0,046211
0,139167	0,1	0,029345
0,140833	0,1	0,043409
0,142500	0,1	0,009218
0,144167	0,1	0,060404
0,145833	0,1	0,020299
0,147500	0,1	0,035164
0,149167	0,1	0,023481
0,150833	0,1	0,039351
0,152500	0,1	0,054778
0,154167	0,1	0,018465
0,155833	0,1	0,057444
0,157500	0,1	0,034722
0,159167	0,1	-0,012514
0,160833	0,1	0,028717
0,162500	0,1	0,065045
0,164167	0,1	0,023231
0,165833	0,1	0,063176
0,167500	0,1	0,020978
0,169167	0,1	0,071130
0,170833	0,1	0,044354
0,172500	0,1	0,053587
0,174167	0,1	0,069206
0,175833	0,1	0,058392
0,177500	0,1	0,021007
0,179167	0,1	0,055062
0,180833	0,1	0,068980
0,182500	0,1	0,041455
0,184167	0,1	0,086526
0,185833	0,1	0,067828
0,187500	0,1	0,043932
0,189167	0,1	0,031467
0,190833	0,1	0,063341
0,192500	0,1	0,039907
0,194167	0,1	0,045569
0,195833	0,1	0,058450
0,197500	0,1	0,046991
0,199167	0,1	0,076899
0,200833	0,1	0,045867
0,202500	0,1	0,067819
0,204167	0,1	0,057490
0,205833	0,1	0,045863
0,207500	0,1	0,048693
0,209167	0,1	0,060671
0,210833	0,1	0,065890
0,212500	0,1	0,050371
0,214167	0,1	0,039743
0,215833	0,1	0,045020
0,217500	0,1	0,045409
0,219167	0,1	0,085206
0,220833	0,1	0,046160
0,222500	0,1	0,067883
0,224167	0,1	0,069596
0,225833	0,1	0,035080
0,227500	0,1	0,067043
0,229167	0,1	0,084310
0,230833	0,1	0,051986
0,232500	0,1	0,087173
0,234167	0,1	0,042907
0,235833	0,1	0,062537
0,237500	0,1	0,060288
0,239167	0,1	0,097510
0,240833	0,1	0,086733
0,242500	0,1	0,061229
0,244167	0,1	0,056360
0,245833	0,1	0,094675
0,247500	0,1	0,077266
0,249167	0,1	0,080641
0,250833	0,1	0,067119
0,252500	0,1	0,107366
0,254167	0,1	0,064549
0,255833	0,1	0,051242
0,257500	0,1	0,090457
0,259167	0,1	0,065382
0,260833	0,1	0,054880
0,262500	0,1	0,063313
0,264167	0,1	0,069368
0,265833	0,1	0,073332
0,267500	0,1	0,104533
0,269167	0,1	0,153133
0,270833	0,1	0,079565
0,272500	0,1	0,120927
0,274167	0,1	0,069382
0,275833	0,1	0,085890
0,277500	0,1	0,106660
0,279167	0,1	0,093593
0,280833	0,1	0,098356
0,282500	0,1	0,121670
0,284167	0,1	0,115043
0,285833	0,1	0,068093
0,287500	0,1	0,101312
0,289167	0,1	0,085091
0,290833	0,1	0,096228
0,292500	0,1	0,062648
0,294167	0,1	0,113838
0,295833	0,1	0,115877
0,297500	0,1	0,107893
0,299167	0,1	0,090021
0,300833	0,1	0,085057
0,302500	0,1	0,090432
0,304167	0,1	0,113138
0,305833	0,1	0,074403
0,307500	0,1	0,098802
0,309167	0,1	0,085541
0,310833	0,1	0,098194
0,312500	0,1	0,097295
0,314167	0,1	0,089211
0,315833	0,1	0,101995
0,317500	0,1	0,141442
0,319167	0,1	0,093538
0,320833	0,1	0,112781
0,322500	0,1	0,133977
0,324167	0,1	0,097335
0,325833	0,1	0,083931
0,327500	0,1	0,094875
0,329167	0,1	0,115457
0,330833	0,1	0,100486
0,332500	0,1	0,139577
0,334167	0,1	0,108769
0,335833	0,1	0,137550
0,337500	0,1	0,103617
0,339167	0,1	0,134328
0,340833	0,1	0,118622
0,342500	0,1	0,108055
0,344167	0,1	0,106603
0,345833	0,1	0,106346
0,347500	0,1	0,092339
0,349167	0,1	0,097488
0,350833	0,1	0,111464
0,352500	0,1	0,122834
0,354167	0,1	0,123545
0,355833	0,1	0,105706
0,357500	0,1	0,111498
0,359167	0,1	0,140095
0,360833	0,1	0,106837
0,362500	0,1	0,118422
0,364167	0,1	0,130791
0,365833	0,1	0,112663
0,367500	0,1	0,135813
0,369167	0,1	0,133563
0,370833	0,1	0,127188
0,372500	0,1	0,119102
0,374167	0,1	0,116783
0,375833	0,1	0,123091
0,377500	0,1	0,121292
0,379167	0,1	0,112790
0,380833	0,1	0,145442
0,382500	0,1	0,177137
0,384167	0,1	0,127423
0,385833	0,1	0,153592
0,387500	0,1	0,156207
0,389167	0,1	0,153922
0,390833	0,1	0,171087
0,392500	0,1	0,158852
0,394167	0,1	0,158946
0,395833	0,1	0,138109
0,397500	0,1	0,154465
0,399167	0,1	0,151345
0,400833	0,1	0,177624
0,402500	0,1	0,160272
0,404167	0,1	0,176727
0,405833	0,1	0,139340
0,407500	0,1	0,182159
0,409167	0,1	0,133062
0,410833	0,1	0,176011
0,412500	0,1	0,160886
0,414167	0,1	0,169995
0,415833	0,1	0,228415
0,417500	0,1	0,144216
0,419167	0,1	0,171570
0,420833	0,1	0,184459
0,422500	0,1	0,152479
0,424167	0,1	0,151183
0,425833	0,1	0,182291
0,427500	0,1	0,173735
0,429167	0,1	0,186712
0,430833	0,1	0,184107
0,432500	0,1	0,163911
0,434167	0,1	0,209739
0,435833	0,1	0,196578
0,437500	0,1	0,178923
0,439167	0,1	0,182557
0,440833	0,1	0,204649
0,442500	0,1	0,214128
0,444167	0,1	0,198735
0,445833	0,1	0,183887
0,447500	0,1	0,194639
0,449167	0,1	0,222596
0,450833	0,1	0,214262
0,452500	0,1	0,199410
0,454167	0,1	0,197479
0,455833	0,1	0,229429
0,457500	0,1	0,224088
0,459167	0,1	0,233075
0,460833	0,1	0,251239
0,462500	0,1	0,208957
0,464167	0,1	0,183149
0,465833	0,1	0,174314
0,467500	0,1	0,211479
0,469167	0,1	0,217611
0,470833	0,1	0,195650
0,472500	0,1	0,254872
0,474167	0,1	0,238715
0,475833	0,1	0,211336
0,477500	0,1	0,246696
0,479167	0,1	0,226415
0,480833	0,1	0,235364
0,482500	0,1	0,205182
0,484167	0,1	0,223791
0,485833	0,1	0,184277
0,487500	0,1	0,210100
0,489167	0,1	0,222280
0,490833	0,1	0,227307
0,492500	0,1	0,238260
0,494167	0,1	0,221092
0,495833	0,1	0,259004
0,497500	0,1	0,255632
0,499167	0,1	0,202966
0,500833	0,1	0,220997
0,502500	0,1	0,229593
0,504167	0,1	0,260714
0,505833	0,1	0,219911
0,507500	0,1	0,273048
0,509167	0,1	0,275281
0,510833	0,1	0,224387
0,512500	0,1	0,266027
0,514167	0,1	0,283076
0,515833	0,1	0,265976
0,517500	0,1	0,245260
0,519167	0,1	0,255846
0,520833	0,1	0,289098
0,522500	0,1	0,240533
0,524167	0,1	0,281494
0,525833	0,1	0,299413
0,527500	0,1	0,256772
0,529167	0,1	0,299090
0,530833	0,1	0,293815
0,532500	0,1	0,242402
0,534167	0,1	0,235882
0,535833	0,1	0,273152
0,537500	0,1	0,284245
0,539167	0,1	0,285723
0,540833	0,1	0,284052
0,542500	0,1	0,315820
0,544167	0,1	0,284312
0,545833	0,1	0,320779
0,547500	0,1	0,297712
0,549167	0,1	0,278966
0,550833	0,1	0,290746
0,552500	0,1	0,316391
0,554167	0,1	0,332676
0,555833	0,1	0,304197
0,557500	0,1	0,336725
0,559167	0,1	0,324228
0,560833	0,1	0,315055
0,562500	0,1	0,325297
0,564167	0,1	0,285995
0,565833	0,1	0,350056
0,567500	0,1	0,361485
0,569167	0,1	0,322021
0,570833	0,1	0,308873
0,572500	0,1	0,351966
0,574167	0,1	0,323729
0,575833	0,1	0,382507
0,577500	0,1	0,375051
0,579167	0,1	0,337555
0,580833	0,1	0,355551
0,582500	0,1	0,331779
0,584167	0,1	0,346238
0,585833	0,1	0,352488
0,587500	0,1	0,360197
0,589167	0,1	0,339287
0,590833	0,1	0,368177
0,592500	0,1	0,337134
0,594167	0,1	0,377302
0,595833	0,1	0,383073
0,597500	0,1	0,335139
0,599167	0,1	0,371054
0,600833	0,1	0,394315
0,602500	0,1	0,394519
0,604167	0,1	0,373568
0,605833	0,1	0,423119
0,607500	0,1	0,432484
0,609167	0,1	0,401592
0,610833	0,1	0,414184
0,612500	0,1	0,395483
0,614167	0,1	0,416326
0,615833	0,1	0,421502
0,617500	0,1	0,431881
0,619167	0,1	0,419794
0,620833	0,1	0,382124
0,622500	0,1	0,410811
0,624167	0,1	0,468889
0,625833	0,1	0,431679
0,627500	0,1	0,440997
0,629167	0,1	0,420638
0,630833	0,1	0,428865
0,632500	0,1	0,439063
0,634167	0,1	0,405697
0,635833	0,1	0,462707
0,637500	0,1	0,440228
0,639167	0,1	0,441181
0,640833	0,1	0,439422
0,642500	0,1	0,463005
0,644167	0,1	0,444623
0,645833	0,1	0,480830
0,647500	0,1	0,478237
0,649167	0,1	0,449651
0,650833	0,1	0,509326
0,652500	0,1	0,464037
0,654167	0,1	0,497016
0,655833	0,1	0,487222
0,657500	0,1	0,499445
0,659167	0,1	0,468127
0,660833	0,1	0,496596
0,662500	0,1	0,492463
0,664167	0,1	0,480505
0,665833	0,1	0,500353
0,667500	0,1	0,550397
0,669167	0,1	0,515152
0,670833	0,1	0,494294
0,672500	0,1	0,525652
0,674167	0,1	0,517703
0,675833	0,1	0,532840
0,677500	0,1	0,522950
0,679167	0,1	0,521659
0,680833	0,1	0,542799
0,682500	0,1	0,567082
0,684167	0,1	0,534695
0,685833	0,1	0,571526
0,687500	0,1	0,562730
0,689167	0,1	0,582893
0,690833	0,1	0,541079
0,692500	0,1	0,565925
0,694167	0,1	0,599478
0,695833	0,1	0,574720
0,697500	0,1	0,593300
0,699167	0,1	0,571029
0,700833	0,1	0,561885
0,702500	0,1	0,578846
0,704167	0,1	0,653778
0,705833	0,1	0,582648
0,707500	0,1	0,640305
0,709167	0,1	0,585491
0,710833	0,1	0,657180
0,712500	0,1	0,596634
0,714167	0,1	0,598887
0,715833	0,1	0,628414
0,717500	0,1	0,623617
0,719167	0,1	0,660346
0,720833	0,1	0,653597
0,722500	0,1	0,693733
0,724167	0,1	0,621699
0,725833	0,1	0,688235
0,727500	0,1	0,667972
0,729167	0,1	0,647084
0,730833	0,1	0,699535
0,732500	0,1	0,673999
0,734167	0,1	0,699434
0,735833	0,1	0,678379
0,737500	0,1	0,716626
0,739167	0,1	0,688970
0,740833	0,1	0,738557
0,742500	0,1	0,722753
0,744167	0,1	0,730287
0,745833	0,1	0,759467
0,747500	0,1	0,731855
0,749167	0,1	0,749397
0,750833	0,1	0,798646
0,752500	0,1	0,745766
0,754167	0,1	0,792482
0,755833	0,1	0,800234
0,757500	0,1	0,777439
0,759167	0,1	0,738444
0,760833	0,1	0,798711
0,762500	0,1	0,811117
0,764167	0,1	0,778934
0,765833	0,1	0,779724
0,767500	0,1	0,788977
0,769167	0,1	0,836358
0,770833	0,1	0,808053
0,772500	0,1	0,834121
0,774167	0,1	0,842294
0,775833	0,1	0,851634
0,777500	0,1	0,811282
0,779167	0,1	0,847349
0,780833	0,1	0,856065
0,782500	0,1	0,847495
0,784167	0,1	0,858664
0,785833	0,1	0,867918
0,787500	0,1	0,846596
0,789167	0,1	0,848799
0,790833	0,1	0,838104
0,792500	0,1	0,879187
0,794167	0,1	0,906498
0,795833	0,1	0,882328
0,797500	0,1	0,879691
0,799167	0,1	0,885396
0,800833	0,1	0,882612
0,802500	0,1	0,856855
0,804167	0,1	0,875067
0,805833	0,1	0,935024
0,807500	0,1	0,910232
0,809167	0,1	0,881260
0,810833	0,1	0,898452
0,812500	0,1	0,922634
0,814167	0,1	0,900906
0,815833	0,1	0,917236
0,817500	0,1	0,909278
0,819167	0,1	0,941994
0,820833	0,1	0,936893
0,822500	0,1	0,923393
0,824167	0,1	0,967026
0,825833	0,1	0,960379
0,827500	0,1	0,906654
0,829167	0,1	0,945933
0,830833	0,1	0,948288
0,832500	0,1	0,939340
0,834167	0,1	0,928336
0,835833	0,1	0,993691
0,837500	0,1	0,914695
0,839167	0,1	1,005154
0,840833	0,1	0,960443
0,842500	0,1	0,978569
0,844167	0,1	1,004044
0,845833	0,1	0,980871
0,847500	0,1	0,997204
0,849167	0,1	0,996866
0,850833	0,1	1,023615
0,852500	0,1	1,010864
0,854167	0,1	1,020473
0,855833	0,1	0,992902
0,857500	0,1	0,961700
0,859167	0,1	0,992835
0,860833	0,1	1,037003
0,862500	0,1	1,000597
0,864167	0,1	1,034258
0,865833	0,1	1,027496
0,867500	0,1	1,028057
0,869167	0,1	1,063857
0,870833	0,1	1,086746
0,872500	0,1	1,056209
0,874167	0,1	1,056970
0,875833	0,1	1,057409
0,877500	0,1	1,029576
0,879167	0,1	1,046678
0,880833	0,1	1,094705
0,882500	0,1	1,059630
0,884167	0,1	1,045326
0,885833	0,1	1,069701
0,887500	0,1	1,097637
0,889167	0,1	1,080273
0,890833	0,1	1,078126
0,892500	0,1	1,093273
0,894167	0,1	1,095489
0,895833	0,1	1,093321
0,897500	0,1	1,121610
0,899167	0,1	1,123091
0,900833	0,1	1,154079
0,902500	0,1	1,104447
0,904167	0,1	1,141117
0,905833	0,1	1,128778
0,907500	0,1	1,168731
0,909167	0,1	1,154838
0,910833	0,1	1,179782
0,912500	0,1	1,153309
0,914167	0,1	1,143757
0,915833	0,1	1,143488
0,917500	0,1	1,138323
0,919167	0,1	1,194996
0,920833	0,1	1,177131
0,922500	0,1	1,208911
0,924167	0,1	1,198302
0,925833	0,1	1,191831
0,927500	0,1	1,185949
0,929167	0,1	1,213723
0,930833	0,1	1,239774
0,932500	0,1	1,272295
0,934167	0,1	1,221700
0,935833	0,1	1,263529
0,937500	0,1	1,234551
0,939167	0,1	1,240406
0,940833	0,1	1,242642
0,942500	0,1	1,249467
0,944167	0,1	1,259653
0,945833	0,1	1,285197
0,947500	0,1	1,271146
0,949167	0,1	1,299354
0,950833	0,1	1,236775
0,952500	0,1	1,306566
0,954167	0,1	1,295533
0,955833	0,1	1,354746
0,957500	0,1	1,319021
0,959167	0,1	1,290387
0,960833	0,1	1,328700
0,962500	0,1	1,356124
0,964167	0,1	1,343345
0,965833	0,1	1,355552
0,967500	0,1	1,344862
0,969167	0,1	1,345069
0,970833	0,1	1,377513
0,972500	0,1	1,344431
0,974167	0,1	1,414696
0,975833	0,1	1,414265
0,977500	0,1	1,403710
0,979167	0,1	1,423170
0,980833	0,1	1,393320
0,982500	0,1	1,437955
0,984167	0,1	1,414710
0,985833	0,1	1,465018
0,987500	0,1	1,399847
0,989167	0,1	1,452165
0,990833	0,1	1,461938
0,992500	0,1	1,505019
0,994167	0,1	1,480990
0,995833	0,1	1,499922
0,997500	0,1	1,494399
0,999167	0,1	1,501218
1,000833	0,1	1,540642
1,002500	0,1	1,559091
1,004167	0,1	1,545242
1,005833	0,1	1,579487
1,007500	0,1	1,537138
1,009167	0,1	1,595777
1,010833	0,1	1,635293
1,012500	0,1	1,659791
1,014167	0,1	1,697143
1,015833	0,1	1,662245
1,017500	0,1	1,680192
1,019167	0,1	1,704688
1,020833	0,1	1,763665
1,022500	0,1	1,753767
1,024167	0,1	1,736956
1,025833	0,1	1,764967
1,027500	0,1	1,776466
1,029167	0,1	1,829772
1,030833	0,1	1,786754
1,032500	0,1	1,810738
1,034167	0,1	1,862473
1,035833	0,1	1,842154
1,037500	0,1	1,879220
1,039167	0,1	1,874129
1,040833	0,1	1,899492
1,042500	0,1	1,895759
1,044167	0,1	1,947784
1,045833	0,1	1,991632
1,047500	0,1	1,959597
1,049167	0,1	1,995088
1,050833	0,1	2,072004
1,052500	0,1	2,090710
1,054167	0,1	2,159373
1,055833	0,1	2,207783
1,057500	0,1	2,308137
1,059167	0,1	2,426375
1,060833	0,1	2,617068
1,062500	0,1	2,853245
1,064167	0,1	3,136002
1,065833	0,1	3,477740
1,067500	0,1	3,975024
1,069167	0,1	4,535594
1,070833	0,1	5,303225
1,072500	0,1	6,174417
1,074167	0,1	7,259744
1,075833	0,1	8,536450
1,077500	0,1	10,021514
1,079167	0,1	11,711597
1,080833	0,1	13,683615
1,082500	0,1	15,823414
1,084167	0,1	18,242236
1,085833	0,1	20,835265
1,087500	0,1	23,590754
1,089167	0,1	26,508312
1,090833	0,1	29,577124
1,092500	0,1	32,708385
1,094167	0,1	35,916189
1,095833	0,1	39,025901
1,097500	0,1	42,145051
1,099167	0,1	45,151645
1,100833	0,1	48,033966
1,102500	0,1	50,663214
1,104167	0,1	53,114289
1,105833	0,1	55,290926
1,107500	0,1	57,285274
1,109167	0,1	58,964137
1,110833	0,1	60,333113
1,112500	0,1	61,441207
1,114167	0,1	62,207537
1,115833	0,1	62,687819
1,117500	0,1	62,955019
1,119167	0,1	62,937307
1,120833	0,1	62,624115
1,122500	0,1	62,174789
1,124167	0,1	61,491678
1,125833	0,1	60,598322
1,127500	0,1	59,518036
1,129167	0,1	58,328273
1,130833	0,1	57,037327
1,132500	0,1	55,567235
1,134167	0,1	54,034644
1,135833	0,1	52,469967
1,137500	0,1	50,848640
1,139167	0,1	49,226349
1,140833	0,1	47,487137
1,142500	0,1	45,834882
1,144167	0,1	44,203874
1,145833	0,1	42,556544
1,147500	0,1	40,975750
1,149167	0,1	39,359042
1,150833	0,1	37,888453
1,152500	0,1	36,415910
1,154167	0,1	35,057923
1,155833	0,1	33,716172
1,157500	0,1	32,380052
1,159167	0,1	31,226390
1,160833	0,1	30,074438
1,162500	0,1	28,982431
1,164167	0,1	27,985837
1,165833	0,1	27,016248
1,167500	0,1	26,118031
1,169167	0,1	25,257324
1,170833	0,1	24,450089
1,172500	0,1	23,735104
1,174167	0,1	22,977678
1,175833	0,1	22,384689
1,177500	0,1	21,758230
1,179167	0,1	21,150279
1,180833	0,1	20,646816
1,182500	0,1	20,154883
1,184167	0,1	19,745608
1,185833	0,1	19,373065
1,187500	0,1	19,078831
1,189167	0,1	18,839396
1,190833	0,1	18,726949
1,192500	0,1	18,669973
1,194167	0,1	18,763286
1,195833	0,1	18,967366
1,197500	0,1	19,371965
1,199167	0,1	19,862358
1,200833	0,1	20,719898
1,202500	0,1	21,717377
1,204167	0,1	22,959803
1,205833	0,1	24,508244
1,207500	0,1	26,355437
1,209167	0,1	28,515346
1,210833	0,1	31,015500
1,212500	0,1	33,801532
1,214167	0,1	36,910479
1,215833	0,1	40,376471
1,217500	0,1	44,083063
1,219167	0,1	48,084421
1,220833	0,1	52,339436
1,222500	0,1	56,806789
1,224167	0,1	61,430799
1,225833	0,1	66,188370
1,227500	0,1	70,985367
1,229167	0,1	75,907836
1,230833	0,1	80,785175
1,232500	0,1	85,592050
1,234167	0,1	90,236597
1,235833	0,1	94,839178
1,237500	0,1	99,128356
1,239167	0,1	103,248897
1,240833	0,1	107,113259
1,242500	0,1	110,701657
1,244167	0,1	114,023226
1,245833	0,1	116,963017
1,247500	0,1	119,602780
1,249167	0,1	121,952586
1,250833	0,1	123,948834
1,252500	0,1	125,583147
1,254167	0,1	126,915581
1,255833	0,1	127,865338
1,257500	0,1	128,546901
1,259167	0,1	128,882509
1,260833	0,1	128,887788
1,262500	0,1	128,661200
1,264167	0,1	128,098742
1,265833	0,1	127,302871
1,267500	0,1	126,236228
1,269167	0,1	124,913549
1,270833	0,1	123,380843
1,272500	0,1	121,695514
1,274167	0,1	119,733860
1,275833	0,1	117,671535
1,277500	0,1	115,440025
1,279167	0,1	113,089189
1,280833	0,1	110,574752
1,282500	0,1	108,084783
1,284167	0,1	105,434136
1,285833	0,1	102,741359
1,287500	0,1	100,009027
1,289167	0,1	97,303460
1,290833	0,1	94,532199
1,292500	0,1	91,831625
1,294167	0,1	89,211260
1,295833	0,1	86,521344
1,297500	0,1	83,920124
1,299167	0,1	81,380723
1,300833	0,1	78,917895
1,302500	0,1	76,454656
1,304167	0,1	74,098639
1,305833	0,1	71,909474
1,307500	0,1	69,714282
1,309167	0,1	67,638362
1,310833	0,1	65,616632
1,312500	0,1	63,721423
1,314167	0,1	61,888477
1,315833	0,1	60,071298
1,317500	0,1	58,393430
1,319167	0,1	56,752807
1,320833	0,1	55,279159
1,322500	0,1	53,784854
1,324167	0,1	52,371313
1,325833	0,1	51,027428
1,327500	0,1	49,747638
1,329167	0,1	48,509500
1,330833	0,1	47,274772
1,332500	0,1	46,126893
1,334167	0,1	45,108638
1,335833	0,1	43,981418
1,337500	0,1	42,960177
1,339167	0,1	42,043463
1,340833	0,1	41,078521
1,342500	0,1	40,165133
1,344167	0,1	39,269080
1,345833	0,1	38,390449
1,347500	0,1	37,598401
1,349167	0,1	36,828445
1,350833	0,1	36,048452
1,352500	0,1	35,294976
1,354167	0,1	34,513649
1,355833	0,1	33,798400
1,357500	0,1	33,116470
1,359167	0,1	32,431513
1,360833	0,1	31,788975
1,362500	0,1	31,131166
1,364167	0,1	30,476751
1,365833	0,1	29,861570
1,367500	0,1	29,356046
1,369167	0,1	28,762639
1,370833	0,1	28,203203
1,372500	0,1	27,640069
1,374167	0,1	27,118203
1,375833	0,1	26,594289
1,377500	0,1	26,037049
1,379167	0,1	25,579883
1,380833	0,1	25,077967
1,382500	0,1	24,594500
1,384167	0,1	24,157559
1,385833	0,1	23,686173
1,387500	0,1	23,225950
1,389167	0,1	22,821102
1,390833	0,1	22,457027
1,392500	0,1	22,089805
1,394167	0,1	21,695019
1,395833	0,1	21,308606
1,397500	0,1	20,970157
1,399167	0,1	20,616604
1,400833	0,1	20,287665
1,402500	0,1	19,982170
1,404167	0,1	19,635947
1,405833	0,1	19,334383
1,407500	0,1	19,076884
1,409167	0,1	18,811902
1,410833	0,1	18,522845
1,412500	0,1	18,230777
1,414167	0,1	18,013057
1,415833	0,1	17,721762
1,417500	0,1	17,484854
1,419167	0,1	17,259438
1,420833	0,1	16,999831
1,422500	0,1	16,774297
1,424167	0,1	16,593044
1,425833	0,1	16,358662
1,427500	0,1	16,088055
1,429167	0,1	15,896113
1,430833	0,1	15,716453
1,432500	0,1	15,544056
1,434167	0,1	15,358938
1,435833	0,1	15,187094
1,437500	0,1	14,950406
1,439167	0,1	14,787782
1,440833	0,1	14,620162
1,442500	0,1	14,414026
1,444167	0,1	14,286030
1,445833	0,1	14,065123
1,447500	0,1	13,908978
1,449167	0,1	13,745567
1,450833	0,1	13,602218
1,452500	0,1	13,435480
1,454167	0,1	13,267781
1,455833	0,1	13,153292
1,457500	0,1	13,032961
1,459167	0,1	12,859549
1,460833	0,1	12,712335
1,462500	0,1	12,598333
1,464167	0,1	12,497474
1,465833	0,1	12,367978
1,467500	0,1	12,190066
1,469167	0,1	12,119546
1,470833	0,1	11,995498
1,472500	0,1	11,897826
1,474167	0,1	11,810849
1,475833	0,1	11,671250
1,477500	0,1	11,595552
1,479167	0,1	11,508789
1,480833	0,1	11,423412
1,482500	0,1	11,350955
1,484167	0,1	11,258675
1,485833	0,1	11,144484
1,487500	0,1	11,122771
1,489167	0,1	11,011754
1,490833	0,1	10,947493
1,492500	0,1	10,930129
1,494167	0,1	10,888144
1,495833	0,1	10,762825
1,497500	0,1	10,720393
1,499167	0,1	10,702503
1,500833	0,1	10,705026
1,502500	0,1	10,622716
1,504167	0,1	10,552995
1,505833	0,1	10,506296
1,507500	0,1	10,435050
1,509167	0,1	10,459486
1,510833	0,1	10,414651
1,512500	0,1	10,388647
1,514167	0,1	10,347424
1,515833	0,1	10,331589
1,517500	0,1	10,296970
1,519167	0,1	10,257184
1,520833	0,1	10,202459
1,522500	0,1	10,211288
1,524167	0,1	10,200853
1,525833	0,1	10,138948
1,527500	0,1	10,091096
1,529167	0,1	10,052371
1,530833	0,1	10,054943
1,532500	0,1	9,990153
1,534167	0,1	10,025058
1,535833	0,1	9,995744
1,537500	0,1	9,987780
1,539167	0,1	9,939517
1,540833	0,1	9,884381
1,542500	0,1	9,876081
1,544167	0,1	9,845789
1,545833	0,1	9,867916
1,547500	0,1	9,813299
1,549167	0,1	9,769761
1,550833	0,1	9,768591
1,552500	0,1	9,735785
1,554167	0,1	9,731168
1,555833	0,1	9,725850
1,557500	0,1	9,703893
1,559167	0,1	9,707229
1,560833	0,1	9,683706
1,562500	0,1	9,628936
1,564167	0,1	9,588661
1,565833	0,1	9,641376
1,567500	0,1	9,581760
1,569167	0,1	9,586461
1,570833	0,1	9,562171
1,572500	0,1	9,605730
1,574167	0,1	9,524536
1,575833	0,1	9,513709
1,577500	0,1	9,530177
1,579167	0,1	9,456288
1,580833	0,1	9,445103
1,582500	0,1	9,412712
1,584167	0,1	9,401940
1,585833	0,1	9,426321
1,587500	0,1	9,371784
1,589167	0,1	9,342675
1,590833	0,1	9,311876
1,592500	0,1	9,303952
1,594167	0,1	9,304759
1,595833	0,1	9,267837
1,597500	0,1	9,241922
1,599167	0,1	9,244124
1,600833	0,1	9,189052
1,602500	0,1	9,164786
1,604167	0,1	9,177576
1,605833	0,1	9,186444
1,607500	0,1	9,117743
1,609167	0,1	9,133680
1,610833	0,1	9,089010
1,612500	0,1	9,042768
1,614167	0,1	9,003980
1,615833	0,1	8,994767
1,617500	0,1	9,013237
1,619167	0,1	8,943877
1,620833	0,1	8,946247
1,622500	0,1	8,892666
1,624167	0,1	8,851666
1,625833	0,1	8,787607
1,627500	0,1	8,812906
1,629167	0,1	8,812912
1,630833	0,1	8,778850
1,632500	0,1	8,769365
1,634167	0,1	8,722022
1,635833	0,1	8,686266
1,637500	0,1	8,660158
1,639167	0,1	8,675259
1,640833	0,1	8,632877
1,642500	0,1	8,566974
1,644167	0,1	8,555776
1,645833	0,1	8,525803
1,647500	0,1	8,513320
1,649167	0,1	8,456324
1,650833	0,1	8,478197
1,652500	0,1	8,454318
1,654167	0,1	8,425064
1,655833	0,1	8,400066
1,657500	0,1	8,380015
1,659167	0,1	8,339869
1,660833	0,1	8,324132
1,662500	0,1	8,289494
1,664167	0,1	8,301299
1,665833	0,1	8,262256
1,667500	0,1	8,276001
1,669167	0,1	8,256922
1,670833	0,1	8,224006
1,672500	0,1	8,258248
1,674167	0,1	8,208891
1,675833	0,1	8,194265
1,677500	0,1	8,243122
1,679167	0,1	8,235108
1,680833	0,1	8,261885
1,682500	0,1	8,242482
1,684167	0,1	8,218804
1,685833	0,1	8,232426
1,687500	0,1	8,165248
1,689167	0,1	8,235745
1,690833	0,1	8,227713
1,692500	0,1	8,260697
1,694167	0,1	8,260554
1,695833	0,1	8,243719
1,697500	0,1	8,308357
1,699167	0,1	8,283332
1,700833	0,1	8,346058
1,702500	0,1	8,370635
1,704167	0,1	8,353528
1,705833	0,1	8,368290
1,707500	0,1	8,398812
1,709167	0,1	8,468509
1,710833	0,1	8,402830
1,712500	0,1	8,461199
1,714167	0,1	8,514558
1,715833	0,1	8,484835
1,717500	0,1	8,520882
1,719167	0,1	8,546705
1,720833	0,1	8,496383
1,722500	0,1	8,553471
1,724167	0,1	8,577619
1,725833	0,1	8,553840
1,727500	0,1	8,600255
1,729167	0,1	8,611945
1,730833	0,1	8,560956
1,732500	0,1	8,564240
1,734167	0,1	8,583244
1,735833	0,1	8,570637
1,737500	0,1	8,538414
1,739167	0,1	8,589712
1,740833	0,1	8,575821
1,742500	0,1	8,543916
1,744167	0,1	8,505166
1,745833	0,1	8,487401
1,747500	0,1	8,491380
1,749167	0,1	8,477270
1,750833	0,1	8,454362
1,752500	0,1	8,420423
1,754167	0,1	8,397235
1,755833	0,1	8,344087
1,757500	0,1	8,306436
1,759167	0,1	8,261500
1,760833	0,1	8,270953
1,762500	0,1	8,154133
1,764167	0,1	8,167756
1,765833	0,1	8,122841
1,767500	0,1	8,101260
1,769167	0,1	8,045197
1,770833	0,1	7,969603
1,772500	0,1	7,956826
1,774167	0,1	7,891128
1,775833	0,1	7,838980
1,777500	0,1	7,815785
1,779167	0,1	7,706303
1,780833	0,1	7,741142
1,782500	0,1	7,633866
1,784167	0,1	7,636708
1,785833	0,1	7,574048
1,787500	0,1	7,499762
1,789167	0,1	7,442128
1,790833	0,1	7,419104
1,792500	0,1	7,377340
1,794167	0,1	7,272785
1,795833	0,1	7,267126
1,797500	0,1	7,205872
1,799167	0,1	7,141792
1,800833	0,1	7,117655
1,802500	0,1	7,090153
1,804167	0,1	6,998632
1,805833	0,1	7,017566
1,807500	0,1	6,930663
1,809167	0,1	6,914092
1,810833	0,1	6,848383
1,812500	0,1	6,771023
1,814167	0,1	6,748386
1,815833	0,1	6,730068
1,817500	0,1	6,699614
1,819167	0,1	6,622644
1,820833	0,1	6,570697
1,822500	0,1	6,537628
1,824167	0,1	6,504845
1,825833	0,1	6,448349
1,827500	0,1	6,446285
1,829167	0,1	6,366465
1,830833	0,1	6,357027
1,832500	0,1	6,321453
1,834167	0,1	6,329021
1,835833	0,1	6,276463
1,837500	0,1	6,244356
1,839167	0,1	6,252564
1,840833	0,1	6,238658
1,842500	0,1	6,242957
1,844167	0,1	6,250506
1,845833	0,1	6,250688
1,847500	0,1	6,310336
1,849167	0,1	6,326029
1,850833	0,1	6,351878
1,852500	0,1	6,438513
1,854167	0,1	6,417340
1,855833	0,1	6,506592
1,857500	0,1	6,574591
1,859167	0,1	6,645773
1,860833	0,1	6,691468
1,862500	0,1	6,736496
1,864167	0,1	6,798464
1,865833	0,1	6,826509
1,867500	0,1	6,895754
1,869167	0,1	7,033811
1,870833	0,1	7,083787
1,872500	0,1	7,105869
1,874167	0,1	7,172351
1,875833	0,1	7,224759
1,877500	0,1	7,293873
1,879167	0,1	7,336345
1,880833	0,1	7,407458
1,882500	0,1	7,453909
1,884167	0,1	7,541801
1,885833	0,1	7,622926
1,887500	0,1	7,613737
1,889167	0,1	7,675776
1,890833	0,1	7,741351
1,892500	0,1	7,779844
1,894167	0,1	7,802797
1,895833	0,1	7,838760
1,897500	0,1	7,931695
1,899167	0,1	7,947655
1,900833	0,1	8,048215
1,902500	0,1	8,102683
1,904167	0,1	8,084776
1,905833	0,1	8,130571
1,907500	0,1	8,217844
1,909167	0,1	8,234219
1,910833	0,1	8,254264
1,912500	0,1	8,300938
1,914167	0,1	8,325965
1,915833	0,1	8,348915
1,917500	0,1	8,344028
1,919167	0,1	8,432983
1,920833	0,1	8,446750
1,922500	0,1	8,499072
1,924167	0,1	8,491367
1,925833	0,1	8,548566
1,927500	0,1	8,544668
1,929167	0,1	8,554242
1,930833	0,1	8,543398
1,932500	0,1	8,558499
1,934167	0,1	8,563263
1,935833	0,1	8,560752
1,937500	0,1	8,617506
1,939167	0,1	8,627925
1,940833	0,1	8,601924
1,942500	0,1	8,657305
1,944167	0,1	8,657421
1,945833	0,1	8,681067
1,947500	0,1	8,618111
1,949167	0,1	8,651427
1,950833	0,1	8,647836
1,952500	0,1	8,691884
1,954167	0,1	8,685396
1,955833	0,1	8,715161
1,957500	0,1	8,702790
1,959167	0,1	8,691485
1,960833	0,1	8,721731
1,962500	0,1	8,755591
1,964167	0,1	8,742769
1,965833	0,1	8,765967
1,967500	0,1	8,762169
1,969167	0,1	8,783055
1,970833	0,1	8,790287
1,972500	0,1	8,817747
1,974167	0,1	8,805822
1,975833	0,1	8,840127
1,977500	0,1	8,847503
1,979167	0,1	8,833635
1,980833	0,1	8,892706
1,982500	0,1	8,893726
1,984167	0,1	8,906210
1,985833	0,1	8,960322
1,987500	0,1	8,995549
1,989167	0,1	8,987430
1,990833	0,1	9,007149
1,992500	0,1	9,036975
1,994167	0,1	9,066329
1,995833	0,1	9,084145
1,997500	0,1	9,151504
1,999167	0,1	9,145403
2,000833	0,1	9,215626
2,002500	0,1	9,259457
2,004167	0,1	9,271730
2,005833	0,1	9,305475
2,007500	0,1	9,391112
2,009167	0,1	9,386781
2,010833	0,1	9,447060
2,012500	0,1	9,497148
2,014167	0,1	9,524677
2,015833	0,1	9,571859
2,017500	0,1	9,588924
2,019167	0,1	9,618321
2,020833	0,1	9,693179
2,022500	0,1	9,667923
2,024167	0,1	9,790357
2,025833	0,1	9,821400
2,027500	0,1	9,807959
2,029167	0,1	9,939968
2,030833	0,1	9,918534
2,032500	0,1	9,948770
2,034167	0,1	10,021039
2,035833	0,1	10,085910
2,037500	0,1	10,148753
2,039167	0,1	10,136023
2,040833	0,1	10,210010
2,042500	0,1	10,248483
2,044167	0,1	10,317169
2,045833	0,1	10,375872
2,047500	0,1	10,377975
2,049167	0,1	10,418471
2,050833	0,1	10,543084
2,052500	0,1	10,547475
2,054167	0,1	10,660876
2,055833	0,1	10,634522
2,057500	0,1	10,671628
2,059167	0,1	10,733747
2,060833	0,1	10,796676
2,062500	0,1	10,777662
2,064167	0,1	10,840801
2,065833	0,1	10,919908
2,067500	0,1	10,934537
2,069167	0,1	10,933427
2,070833	0,1	10,994723
2,072500	0,1	11,064105
2,074167	0,1	11,043033
2,075833	0,1	11,130625
2,077500	0,1	11,114816
2,079167	0,1	11,175931
2,080833	0,1	11,192806
2,082500	0,1	11,179868
2,084167	0,1	11,220053
2,085833	0,1	11,268660
2,087500	0,1	11,267333
2,089167	0,1	11,315188
2,090833	0,1	11,346692
2,092500	0,1	11,375161
2,094167	0,1	11,327611
2,095833	0,1	11,434531
2,097500	0,1	11,430120
2,099167	0,1	11,420129
2,100833	0,1	11,460451
2,102500	0,1	11,470800
2,104167	0,1	11,468670
2,105833	0,1	11,465090
2,107500	0,1	11,529418
2,109167	0,1	11,495169
2,110833	0,1	11,482782
2,112500	0,1	11,513786
2,114167	0,1	11,514257
2,115833	0,1	11,544168
2,117500	0,1	11,539157
2,119167	0,1	11,551684
2,120833	0,1	11,515119
2,122500	0,1	11,526479
2,124167	0,1	11,461907
2,125833	0,1	11,484766
2,127500	0,1	11,444087
2,129167	0,1	11,461739
2,130833	0,1	11,450891
2,132500	0,1	11,435413
2,134167	0,1	11,402934
2,135833	0,1	11,426776
2,137500	0,1	11,415974
2,139167	0,1	11,385251
2,140833	0,1	11,372686
2,142500	0,1	11,339707
2,144167	0,1	11,337401
2,145833	0,1	11,310204
2,147500	0,1	11,241819
2,149167	0,1	11,269942
2,150833	0,1	11,251474
2,152500	0,1	11,219252
2,154167	0,1	11,206364
2,155833	0,1	11,193605
2,157500	0,1	11,137449
2,159167	0,1	11,104591
2,160833	0,1	11,052356
2,162500	0,1	11,085506
2,164167	0,1	11,008876
2,165833	0,1	11,000661
2,167500	0,1	10,966299
2,169167	0,1	10,953538
2,170833	0,1	10,886459
2,172500	0,1	10,875541
2,174167	0,1	10,822792
2,175833	0,1	10,807096
2,177500	0,1	10,796950
2,179167	0,1	10,765086
2,180833	0,1	10,698516
2,182500	0,1	10,726705
2,184167	0,1	10,653885
2,185833	0,1	10,654252
2,187500	0,1	10,626290
2,189167	0,1	10,566567
2,190833	0,1	10,568917
2,192500	0,1	10,485250
2,194167	0,1	10,480716
2,195833	0,1	10,500119
2,197500	0,1	10,427524
2,199167	0,1	10,397607
2,200833	0,1	10,386876
2,202500	0,1	10,352202
2,204167	0,1	10,333841
2,205833	0,1	10,208574
2,207500	0,1	10,274138
2,209167	0,1	10,199387
2,210833	0,1	10,241502
2,212500	0,1	10,212616
2,214167	0,1	10,163721
2,215833	0,1	10,180464
2,217500	0,1	10,165032
2,219167	0,1	10,115876
2,220833	0,1	10,040126
2,222500	0,1	10,080585
2,224167	0,1	10,043802
2,225833	0,1	10,024517
2,227500	0,1	10,033795
2,229167	0,1	10,007332
2,230833	0,1	10,011056
2,232500	0,1	10,000629
2,234167	0,1	10,011059
2,235833	0,1	9,961045
2,237500	0,1	9,968160
2,239167	0,1	9,949773
2,240833	0,1	9,956363
2,242500	0,1	9,962300
2,244167	0,1	9,926777
2,245833	0,1	9,914631
2,247500	0,1	9,912767
2,249167	0,1	9,930053
2,250833	0,1	9,865995
2,252500	0,1	9,909020
2,254167	0,1	9,901508
2,255833	0,1	9,886248
2,257500	0,1	9,831468
2,259167	0,1	9,848521
2,260833	0,1	9,840198
2,262500	0,1	9,833934
2,264167	0,1	9,788266
2,265833	0,1	9,766286
2,267500	0,1	9,768217
2,269167	0,1	9,744511
2,270833	0,1	9,738737
2,272500	0,1	9,727434
2,274167	0,1	9,680467
2,275833	0,1	9,747578
2,277500	0,1	9,660170
2,279167	0,1	9,641179
2,280833	0,1	9,638801
2,282500	0,1	9,610830
2,284167	0,1	9,552715
2,285833	0,1	9,572294
2,287500	0,1	9,518541
2,289167	0,1	9,530375
2,290833	0,1	9,467262
2,292500	0,1	9,499661
2,294167	0,1	9,412513
2,295833	0,1	9,455370
2,297500	0,1	9,414471
2,299167	0,1	9,388826
2,300833	0,1	9,327804
2,302500	0,1	9,346592
2,304167	0,1	9,337409
2,305833	0,1	9,334476
2,307500	0,1	9,299781
2,309167	0,1	9,263741
2,310833	0,1	9,301037
2,312500	0,1	9,189973
2,314167	0,1	9,222724
2,315833	0,1	9,176973
2,317500	0,1	9,152895
2,319167	0,1	9,150270
2,320833	0,1	9,099916
2,322500	0,1	9,066066
2,324167	0,1	9,068374
2,325833	0,1	9,025814
2,327500	0,1	9,017602
2,329167	0,1	8,979442
2,330833	0,1	8,972614
2,332500	0,1	8,972890
2,334167	0,1	8,966838
2,335833	0,1	8,903495
2,337500	0,1	8,882553
2,339167	0,1	8,893757
2,340833	0,1	8,856714
2,342500	0,1	8,882750
2,344167	0,1	8,828734
2,345833	0,1	8,825850
2,347500	0,1	8,807313
2,349167	0,1	8,812150
2,350833	0,1	8,763459
2,352500	0,1	8,760891
2,354167	0,1	8,776762
2,355833	0,1	8,776524
2,357500	0,1	8,747858
2,359167	0,1	8,734571
2,360833	0,1	8,754796
2,362500	0,1	8,747921
2,364167	0,1	8,752036
2,365833	0,1	8,710058
2,367500	0,1	8,731005
2,369167	0,1	8,736369
2,370833	0,1	8,736955
2,372500	0,1	8,740903
2,374167	0,1	8,746811
2,375833	0,1	8,762927
2,377500	0,1	8,803630
2,379167	0,1	8,782893
2,380833	0,1	8,869934
2,382500	0,1	8,839865
2,384167	0,1	8,873200
2,385833	0,1	8,883273
2,387500	0,1	8,951626
2,389167	0,1	8,999596
2,390833	0,1	9,072790
2,392500	0,1	9,087062
2,394167	0,1	9,162131
2,395833	0,1	9,243595
2,397500	0,1	9,295730
2,399167	0,1	9,376379
2,400833	0,1	9,481319
2,402500	0,1	9,585120
2,404167	0,1	9,700976
2,405833	0,1	9,776704
2,407500	0,1	9,906255
2,409167	0,1	9,986653
2,410833	0,1	10,126100
2,412500	0,1	10,317903
2,414167	0,1	10,387135
2,415833	0,1	10,529352
2,417500	0,1	10,716316
2,419167	0,1	10,892601
2,420833	0,1	11,083781
2,422500	0,1	11,258858
2,424167	0,1	11,433770
2,425833	0,1	11,681199
2,427500	0,1	11,836138
2,429167	0,1	12,052949
2,430833	0,1	12,295698
2,432500	0,1	12,477433
2,434167	0,1	12,706986
2,435833	0,1	12,959681
2,437500	0,1	13,165603
2,439167	0,1	13,395260
2,440833	0,1	13,655378
2,442500	0,1	13,861933
2,444167	0,1	14,095684
2,445833	0,1	14,340036
2,447500	0,1	14,606875
2,449167	0,1	14,887905
2,450833	0,1	15,055246
2,452500	0,1	15,356819
2,454167	0,1	15,562660
2,455833	0,1	15,808517
2,457500	0,1	16,058240
2,459167	0,1	16,313710
2,460833	0,1	16,567499
2,462500	0,1	16,859303
2,464167	0,1	17,106136
2,465833	0,1	17,479897
2,467500	0,1	17,736837
2,469167	0,1	18,059628
2,470833	0,1	18,401549
2,472500	0,1	18,730614
2,474167	0,1	19,125966
2,475833	0,1	19,507000
2,477500	0,1	19,932143
2,479167	0,1	20,412374
2,480833	0,1	20,889097
2,482500	0,1	21,432795
2,484167	0,1	21,997471
2,485833	0,1	22,647298
2,487500	0,1	23,330148
2,489167	0,1	24,056871
2,490833	0,1	24,882937
2,492500	0,1	25,782434
2,494167	0,1	26,701017
2,495833	0,1	27,707282
2,497500	0,1	28,859112
2,499167	0,1	30,065105
2,500833	0,1	31,350872
2,502500	0,1	32,704405
2,504167	0,1	34,254453
2,505833	0,1	35,850107
2,507500	0,1	37,506978
2,509167	0,1	39,392663
2,510833	0,1	41,306456
2,512500	0,1	43,322176
2,514167	0,1	45,512920
2,515833	0,1	47,837899
2,517500	0,1	50,245092
2,519167	0,1	52,837678
2,520833	0,1	55,464978
2,522500	0,1	58,204977
2,524167	0,1	61,114789
2,525833	0,1	64,139772
2,527500	0,1	67,306895
2,529167	0,1	70,541332
2,530833	0,1	73,887940
2,532500	0,1	77,313332
2,534167	0,1	80,884679
2,535833	0,1	84,481811
2,537500	0,1	88,165663
2,539167	0,1	91,893703
2,540833	0,1	95,734440
2,542500	0,1	99,603197
2,544167	0,1	103,522460
2,545833	0,1	107,431821
2,547500	0,1	111,366461
2,549167	0,1	115,371733
2,550833	0,1	119,315457
2,552500	0,1	123,230389
2,554167	0,1	127,161307
2,555833	0,1	131,054633
2,557500	0,1	134,927397
2,559167	0,1	138,710222
2,560833	0,1	142,462094
2,562500	0,1	146,067251
2,564167	0,1	149,663905
2,565833	0,1	153,167834
2,567500	0,1	156,563320
2,569167	0,1	159,895412
2,570833	0,1	163,080620
2,572500	0,1	166,135527
2,574167	0,1	169,090161
2,575833	0,1	171,981436
2,577500	0,1	174,633796
2,579167	0,1	177,179178
2,580833	0,1	179,592859
2,582500	0,1	181,945034
2,584167	0,1	184,098266
2,585833	0,1	186,121116
2,587500	0,1	187,958732
2,589167	0,1	189,743725
2,590833	0,1	191,369476
2,592500	0,1	192,824163
2,594167	0,1	194,181862
2,595833	0,1	195,341928
2,597500	0,1	196,380580
2,599167	0,1	197,293215
2,600833	0,1	198,097576
2,602500	0,1	198,763237
2,604167	0,1	199,281824
2,605833	0,1	199,680126
2,607500	0,1	199,970434
2,609167	0,1	200,201523
2,610833	0,1	200,190763
2,612500	0,1	200,204362
2,614167	0,1	199,996155
2,615833	0,1	199,814500
2,617500	0,1	199,395169
2,619167	0,1	198,950821
2,620833	0,1	198,368641
2,622500	0,1	197,667538
2,624167	0,1	196,967162
2,625833	0,1	196,109599
2,627500	0,1	195,182384
2,629167	0,1	194,148707
2,630833	0,1	193,039553
2,632500	0,1	191,892585
2,634167	0,1	190,675094
2,635833	0,1	189,382686
2,637500	0,1	187,960918
2,639167	0,1	186,575173
2,640833	0,1	185,011731
2,642500	0,1	183,442958
2,644167	0,1	181,858004
2,645833	0,1	180,088241
2,647500	0,1	178,367854
2,649167	0,1	176,664879
2,650833	0,1	174,780035
2,652500	0,1	172,938230
2,654167	0,1	170,952174
2,655833	0,1	168,999286
2,657500	0,1	166,991279
2,659167	0,1	164,975261
2,660833	0,1	162,894455
2,662500	0,1	160,722942
2,664167	0,1	158,647641
2,665833	0,1	156,502679
2,667500	0,1	154,362995
2,669167	0,1	152,186916
2,670833	0,1	150,007292
2,672500	0,1	147,756603
2,674167	0,1	145,538609
2,675833	0,1	143,268542
2,677500	0,1	141,053445
2,679167	0,1	138,814644
2,680833	0,1	136,579092
2,682500	0,1	134,351676
2,684167	0,1	132,094827
2,685833	0,1	129,884936
2,687500	0,1	127,709875
2,689167	0,1	125,444684
2,690833	0,1	123,294987
2,692500	0,1	121,074573
2,694167	0,1	118,904079
2,695833	0,1	116,753507
2,697500	0,1	114,612368
2,699167	0,1	112,509426
2,700833	0,1	110,425236
2,702500	0,1	108,340615
2,704167	0,1	106,321711
2,705833	0,1	104,301209
2,707500	0,1	102,291348
2,709167	0,1	100,295833
2,710833	0,1	98,409871
2,712500	0,1	96,489281
2,714167	0,1	94,629802
2,715833	0,1	92,744373
2,717500	0,1	90,966006
2,719167	0,1	89,207669
2,720833	0,1	87,424005
2,722500	0,1	85,740600
2,724167	0,1	84,055212
2,725833	0,1	82,398825
2,727500	0,1	80,767772
2,729167	0,1	79,197058
2,730833	0,1	77,633556
2,732500	0,1	76,083212
2,734167	0,1	74,613470
2,735833	0,1	73,139576
2,737500	0,1	71,672083
2,739167	0,1	70,321473
2,740833	0,1	68,948955
2,742500	0,1	67,604039
2,744167	0,1	66,307725
2,745833	0,1	65,014737
2,747500	0,1	63,777781
2,749167	0,1	62,533572
2,750833	0,1	61,267544
2,752500	0,1	60,153265
2,754167	0,1	59,016163
2,755833	0,1	57,936232
2,757500	0,1	56,810469
2,759167	0,1	55,695507
2,760833	0,1	54,709150
2,762500	0,1	53,669958
2,764167	0,1	52,679170
2,765833	0,1	51,680489
2,767500	0,1	50,743226
2,769167	0,1	49,842493
2,770833	0,1	48,900719
2,772500	0,1	48,034148
2,774167	0,1	47,148114
2,775833	0,1	46,257480
2,777500	0,1	45,413362
2,779167	0,1	44,646647
2,780833	0,1	43,833263
2,782500	0,1	43,026673
2,784167	0,1	42,243752
2,785833	0,1	41,514827
2,787500	0,1	40,771875
2,789167	0,1	40,058585
2,790833	0,1	39,393293
2,792500	0,1	38,693631
2,794167	0,1	37,993902
2,795833	0,1	37,269850
2,797500	0,1	36,677945
2,799167	0,1	36,035577
2,800833	0,1	35,377132
2,802500	0,1	34,769036
2,804167	0,1	34,210761
2,805833	0,1	33,612629
2,807500	0,1	33,016962
2,809167	0,1	32,451421
2,810833	0,1	31,893784
2,812500	0,1	31,344776
2,814167	0,1	30,798656
2,815833	0,1	30,262556
2,817500	0,1	29,721545
2,819167	0,1	29,209300
2,820833	0,1	28,751895
2,822500	0,1	28,237008
2,824167	0,1	27,781226
2,825833	0,1	27,313180
2,827500	0,1	26,883551
2,829167	0,1	26,413056
2,830833	0,1	25,978118
2,832500	0,1	25,533975
2,834167	0,1	25,133896
2,835833	0,1	24,731341
2,837500	0,1	24,340389
2,839167	0,1	23,913447
2,840833	0,1	23,484028
2,842500	0,1	23,147199
2,844167	0,1	22,762478
2,845833	0,1	22,400216
2,847500	0,1	22,042832
2,849167	0,1	21,700824
2,850833	0,1	21,318685
2,852500	0,1	20,986968
2,854167	0,1	20,670154
2,855833	0,1	20,419450
2,857500	0,1	20,050820
2,859167	0,1	19,767936
2,860833	0,1	19,451889
2,862500	0,1	19,171867
2,864167	0,1	18,911000
2,865833	0,1	18,600681
2,867500	0,1	18,317246
2,869167	0,1	18,132235
2,870833	0,1	17,816409
2,872500	0,1	17,572195
2,874167	0,1	17,326767
2,875833	0,1	17,099814
2,877500	0,1	16,828767
2,879167	0,1	16,621907
2,880833	0,1	16,368698
2,882500	0,1	16,193221
2,884167	0,1	15,957579
2,885833	0,1	15,730606
2,887500	0,1	15,528048
2,889167	0,1	15,312643
2,890833	0,1	15,131610
2,892500	0,1	14,956653
2,894167	0,1	14,769400
2,895833	0,1	14,589795
2,897500	0,1	14,391786
2,899167	0,1	14,238536
2,900833	0,1	14,043392
2,902500	0,1	13,920686
2,904167	0,1	13,715110
2,905833	0,1	13,613165
2,907500	0,1	13,436581
2,909167	0,1	13,281687
2,910833	0,1	13,137615
2,912500	0,1	12,985928
2,914167	0,1	12,854407
2,915833	0,1	12,669653
2,917500	0,1	12,580965
2,919167	0,1	12,469310
2,920833	0,1	12,330426
2,922500	0,1	12,241436
2,924167	0,1	12,068698
2,925833	0,1	11,975275
2,927500	0,1	11,825775
2,929167	0,1	11,706038
2,930833	0,1	11,581048
2,932500	0,1	11,448351
2,934167	0,1	11,363719
2,935833	0,1	11,275991
2,937500	0,1	11,167310
2,939167	0,1	11,060777
2,940833	0,1	10,923187
2,942500	0,1	10,839854
2,944167	0,1	10,763761
2,945833	0,1	10,630984
2,947500	0,1	10,571187
2,949167	0,1	10,485902
2,950833	0,1	10,366405
2,952500	0,1	10,300273
2,954167	0,1	10,215214
2,955833	0,1	10,138788
2,957500	0,1	10,018563
2,959167	0,1	9,927232
2,960833	0,1	9,851404
2,962500	0,1	9,786845
2,964167	0,1	9,713750
2,965833	0,1	9,605400
2,967500	0,1	9,558944
2,969167	0,1	9,452667
2,970833	0,1	9,431835
2,972500	0,1	9,353386
2,974167	0,1	9,246978
2,975833	0,1	9,177953
2,977500	0,1	9,139914
2,979167	0,1	9,049871
2,980833	0,1	8,933335
2,982500	0,1	8,906981
2,984167	0,1	8,850632
2,985833	0,1	8,753338
2,987500	0,1	8,714004
2,989167	0,1	8,649029
2,990833	0,1	8,605184
2,992500	0,1	8,514067
2,994167	0,1	8,447194
2,995833	0,1	8,374517
2,997500	0,1	8,358895
2,999167	0,1	8,301999
3,000833	0,1	8,242693
3,002500	0,1	8,193846
3,004167	0,1	8,100420
3,005833	0,1	8,093336
3,007500	0,1	8,060491
3,009167	0,1	7,977990
3,010833	0,1	7,882709
3,012500	0,1	7,896017
3,014167	0,1	7,842418
3,015833	0,1	7,783665
3,017500	0,1	7,717727
3,019167	0,1	7,633533
3,020833	0,1	7,591675
3,022500	0,1	7,572432
3,024167	0,1	7,501756
3,025833	0,1	7,472705
3,027500	0,1	7,435920
3,029167	0,1	7,368370
3,030833	0,1	7,302955
3,032500	0,1	7,267701
3,034167	0,1	7,224364
3,035833	0,1	7,205755
3,037500	0,1	7,210862
3,039167	0,1	7,111023
3,040833	0,1	7,071818
3,042500	0,1	7,020583
3,044167	0,1	6,977125
3,045833	0,1	6,935586
3,047500	0,1	6,903721
3,049167	0,1	6,791397
3,050833	0,1	6,796968
3,052500	0,1	6,739989
3,054167	0,1	6,724549
3,055833	0,1	6,685697
3,057500	0,1	6,661675
3,059167	0,1	6,602271
3,060833	0,1	6,582552
3,062500	0,1	6,505326
3,064167	0,1	6,452087
3,065833	0,1	6,423604
3,067500	0,1	6,388496
3,069167	0,1	6,340047
3,070833	0,1	6,254264
3,072500	0,1	6,265161
3,074167	0,1	6,247821
3,075833	0,1	6,218884
3,077500	0,1	6,124082
3,079167	0,1	6,136466
3,080833	0,1	6,054195
3,082500	0,1	6,062375
3,084167	0,1	5,993007
3,085833	0,1	6,015079
3,087500	0,1	5,982386
3,089167	0,1	5,908013
3,090833	0,1	5,891025
3,092500	0,1	5,859613
3,094167	0,1	5,836743
3,095833	0,1	5,845525
3,097500	0,1	5,819726
3,099167	0,1	5,765180
3,100833	0,1	5,725279
3,102500	0,1	5,681549
3,104167	0,1	5,685299
3,105833	0,1	5,663632
3,107500	0,1	5,628787
3,109167	0,1	5,590414
3,110833	0,1	5,598779
3,112500	0,1	5,602577
3,114167	0,1	5,573999
3,115833	0,1	5,515003
3,117500	0,1	5,468040
3,119167	0,1	5,507152
3,120833	0,1	5,482383
3,122500	0,1	5,500386
3,124167	0,1	5,452760
3,125833	0,1	5,445592
3,127500	0,1	5,443409
3,129167	0,1	5,393594
3,130833	0,1	5,391151
3,132500	0,1	5,372350
3,134167	0,1	5,357176
3,135833	0,1	5,396286
3,137500	0,1	5,373514
3,139167	0,1	5,323669
3,140833	0,1	5,319233
3,142500	0,1	5,357727
3,144167	0,1	5,286108
3,145833	0,1	5,299444
3,147500	0,1	5,266191
3,149167	0,1	5,280433
3,150833	0,1	5,330941
3,152500	0,1	5,263221
3,154167	0,1	5,295724
3,155833	0,1	5,270343
3,157500	0,1	5,273304
3,159167	0,1	5,230993
3,160833	0,1	5,224204
3,162500	0,1	5,226915
3,164167	0,1	5,198291
3,165833	0,1	5,205143
3,167500	0,1	5,170376
3,169167	0,1	5,177687
3,170833	0,1	5,171866
3,172500	0,1	5,144567
3,174167	0,1	5,167471
3,175833	0,1	5,139657
3,177500	0,1	5,107509
3,179167	0,1	5,120291
3,180833	0,1	5,096212
3,182500	0,1	5,069585
3,184167	0,1	5,037290
3,185833	0,1	5,046661
3,187500	0,1	5,018004
3,189167	0,1	4,980220
3,190833	0,1	4,969855
3,192500	0,1	4,973415
3,194167	0,1	4,975456
3,195833	0,1	4,926355
3,197500	0,1	4,908735
3,199167	0,1	4,888459
3,200833	0,1	4,863317
3,202500	0,1	4,834662
3,204167	0,1	4,824804
3,205833	0,1	4,794459
3,207500	0,1	4,811373
3,209167	0,1	4,769376
3,210833	0,1	4,771998
3,212500	0,1	4,734755
3,214167	0,1	4,713096
3,215833	0,1	4,697270
3,217500	0,1	4,695285
3,219167	0,1	4,630119
3,220833	0,1	4,611374
3,222500	0,1	4,580592
3,224167	0,1	4,559476
3,225833	0,1	4,567054
3,227500	0,1	4,477464
3,229167	0,1	4,491082
3,230833	0,1	4,462495
3,232500	0,1	4,412571
3,234167	0,1	4,422198
3,235833	0,1	4,392733
3,237500	0,1	4,390638
3,239167	0,1	4,327005
3,240833	0,1	4,301996
3,242500	0,1	4,301090
3,244167	0,1	4,273779
3,245833	0,1	4,251864
3,247500	0,1	4,201279
3,249167	0,1	4,180910
3,250833	0,1	4,177797
3,252500	0,1	4,191248
3,254167	0,1	4,109640
3,255833	0,1	4,057096
3,257500	0,1	4,054766
3,259167	0,1	4,020532
3,260833	0,1	4,015765
3,262500	0,1	3,984858
3,264167	0,1	3,986314
3,265833	0,1	3,953213
3,267500	0,1	3,919991
3,269167	0,1	3,903700
3,270833	0,1	3,867315
3,272500	0,1	3,828453
3,274167	0,1	3,821584
3,275833	0,1	3,790444
3,277500	0,1	3,763482
3,279167	0,1	3,725976
3,280833	0,1	3,745812
3,282500	0,1	3,717360
3,284167	0,1	3,717321
3,285833	0,1	3,669913
3,287500	0,1	3,669294
3,289167	0,1	3,643563
3,290833	0,1	3,592304
3,292500	0,1	3,587507
3,294167	0,1	3,569292
3,295833	0,1	3,585563
3,297500	0,1	3,577081
3,299167	0,1	3,526892
3,300833	0,1	3,493901
3,302500	0,1	3,484921
3,304167	0,1	3,479361
3,305833	0,1	3,482903
3,307500	0,1	3,400044
3,309167	0,1	3,466964
3,310833	0,1	3,433895
3,312500	0,1	3,419165
3,314167	0,1	3,428802
3,315833	0,1	3,409305
3,317500	0,1	3,371378
3,319167	0,1	3,378460
3,320833	0,1	3,401140
3,322500	0,1	3,356057
3,324167	0,1	3,354290
3,325833	0,1	3,356695
3,327500	0,1	3,366698
3,329167	0,1	3,304521
3,330833	0,1	3,327343
3,332500	0,1	3,336844
3,334167	0,1	3,400688
3,335833	0,1	3,337352
3,337500	0,1	3,287459
3,339167	0,1	3,335536
3,340833	0,1	3,310371
3,342500	0,1	3,331030
3,344167	0,1	3,273863
3,345833	0,1	3,314152
3,347500	0,1	3,325574
3,349167	0,1	3,292833
3,350833	0,1	3,342818
3,352500	0,1	3,293249
3,354167	0,1	3,297798
3,355833	0,1	3,285866
3,357500	0,1	3,283583
3,359167	0,1	3,305483
3,360833	0,1	3,332884
3,362500	0,1	3,315069
3,364167	0,1	3,331019
3,365833	0,1	3,278561
3,367500	0,1	3,308726
3,369167	0,1	3,279775
3,370833	0,1	3,307478
3,372500	0,1	3,309873
3,374167	0,1	3,281898
3,375833	0,1	3,313967
3,377500	0,1	3,298404
3,379167	0,1	3,317075
3,380833	0,1	3,292535
3,382500	0,1	3,260202
3,384167	0,1	3,254847
3,385833	0,1	3,291981
3,387500	0,1	3,273047
3,389167	0,1	3,276542
3,390833	0,1	3,262970
3,392500	0,1	3,246364
3,394167	0,1	3,253861
3,395833	0,1	3,257076
3,397500	0,1	3,254560
3,399167	0,1	3,261667
3,400833	0,1	3,228850
3,402500	0,1	3,234631
3,404167	0,1	3,234838
3,405833	0,1	3,240304
3,407500	0,1	3,243501
3,409167	0,1	3,207675
3,410833	0,1	3,210182
3,412500	0,1	3,245754
3,414167	0,1	3,239767
3,415833	0,1	3,238233
3,417500	0,1	3,243009
3,419167	0,1	3,191332
3,420833	0,1	3,209033
3,422500	0,1	3,185535
3,424167	0,1	3,157872
3,425833	0,1	3,189414
3,427500	0,1	3,124955
3,429167	0,1	3,197733
3,430833	0,1	3,195156
3,432500	0,1	3,208206
3,434167	0,1	3,163535
3,435833	0,1	3,181062
3,437500	0,1	3,176086
3,439167	0,1	3,194089
3,440833	0,1	3,148302
3,442500	0,1	3,175843
3,444167	0,1	3,164069
3,445833	0,1	3,181841
3,447500	0,1	3,178859
3,449167	0,1	3,178986
3,450833	0,1	3,201016
3,452500	0,1	3,134558
3,454167	0,1	3,163416
3,455833	0,1	3,194470
3,457500	0,1	3,185632
3,459167	0,1	3,196629
3,460833	0,1	3,190016
3,462500	0,1	3,217256
3,464167	0,1	3,226688
3,465833	0,1	3,162891
3,467500	0,1	3,213358
3,469167	0,1	3,254679
3,470833	0,1	3,267014
3,472500	0,1	3,278644
3,474167	0,1	3,263442
3,475833	0,1	3,286015
3,477500	0,1	3,305563
3,479167	0,1	3,318593
3,480833	0,1	3,315589
3,482500	0,1	3,338264
3,484167	0,1	3,318995
3,485833	0,1	3,352872
3,487500	0,1	3,383693
3,489167	0,1	3,380045
3,490833	0,1	3,385314
3,492500	0,1	3,406114
3,494167	0,1	3,421264
3,495833	0,1	3,411062
3,497500	0,1	3,474529
3,499167	0,1	3,473405
3,500833	0,1	3,475715
3,502500	0,1	3,500996
3,504167	0,1	3,484923
3,505833	0,1	3,524672
3,507500	0,1	3,511744
3,509167	0,1	3,540711
3,510833	0,1	3,570056
3,512500	0,1	3,607021
3,514167	0,1	3,587030
3,515833	0,1	3,587228
3,517500	0,1	3,614613
3,519167	0,1	3,572295
3,520833	0,1	3,646343
3,522500	0,1	3,625263
3,524167	0,1	3,638885
3,525833	0,1	3,663970
3,527500	0,1	3,653507
3,529167	0,1	3,663861
3,530833	0,1	3,641132
3,532500	0,1	3,643602
3,534167	0,1	3,635724
3,535833	0,1	3,663603
3,537500	0,1	3,682973
3,539167	0,1	3,715199
3,540833	0,1	3,686066
3,542500	0,1	3,694742
3,544167	0,1	3,685095
3,545833	0,1	3,689552
3,547500	0,1	3,693283
3,549167	0,1	3,694055
3,550833	0,1	3,708095
3,552500	0,1	3,704534
3,554167	0,1	3,697551
3,555833	0,1	3,670805
3,557500	0,1	3,680538
3,559167	0,1	3,668204
3,560833	0,1	3,671156
3,562500	0,1	3,669864
3,564167	0,1	3,688613
3,565833	0,1	3,695800
3,567500	0,1	3,712770
3,569167	0,1	3,636519
3,570833	0,1	3,627163
3,572500	0,1	3,601478
3,574167	0,1	3,621713
3,575833	0,1	3,609259
3,577500	0,1	3,580059
3,579167	0,1	3,547735
3,580833	0,1	3,555037
3,582500	0,1	3,558568
3,584167	0,1	3,526272
3,585833	0,1	3,518271
3,587500	0,1	3,525170
3,589167	0,1	3,507519
3,590833	0,1	3,520008
3,592500	0,1	3,483231
3,594167	0,1	3,446671
3,595833	0,1	3,462432
3,597500	0,1	3,433483
3,599167	0,1	3,403908
3,600833	0,1	3,427263
3,602500	0,1	3,390358
3,604167	0,1	3,358143
3,605833	0,1	3,400155
3,607500	0,1	3,340263
3,609167	0,1	3,342195
3,610833	0,1	3,290988
3,612500	0,1	3,290771
3,614167	0,1	3,291341
3,615833	0,1	3,236279
3,617500	0,1	3,225730
3,619167	0,1	3,225184
3,620833	0,1	3,218022
3,622500	0,1	3,223701
3,624167	0,1	3,205127
3,625833	0,1	3,145945
3,627500	0,1	3,109717
3,629167	0,1	3,156661
3,630833	0,1	3,134880
3,632500	0,1	3,147717
3,634167	0,1	3,095321
3,635833	0,1	3,108745
3,637500	0,1	3,039004
3,639167	0,1	3,019508
3,640833	0,1	3,022590
3,642500	0,1	3,023761
3,644167	0,1	2,974018
3,645833	0,1	2,957538
3,647500	0,1	2,970345
3,649167	0,1	2,928004
3,650833	0,1	2,927707
3,652500	0,1	2,897143
3,654167	0,1	2,890784
3,655833	0,1	2,890652
3,657500	0,1	2,896802
3,659167	0,1	2,903779
3,660833	0,1	2,783798
3,662500	0,1	2,817103
3,664167	0,1	2,779566
3,665833	0,1	2,777685
3,667500	0,1	2,699076
3,669167	0,1	2,758058
3,670833	0,1	2,689888
3,672500	0,1	2,727717
3,674167	0,1	2,705219
3,675833	0,1	2,692695
3,677500	0,1	2,713176
3,679167	0,1	2,619686
3,680833	0,1	2,647878
3,682500	0,1	2,640475
3,684167	0,1	2,615646
3,685833	0,1	2,616844
3,687500	0,1	2,563387
3,689167	0,1	2,582518
3,690833	0,1	2,571227
3,692500	0,1	2,565151
3,694167	0,1	2,514514
3,695833	0,1	2,564943
3,697500	0,1	2,529125
3,699167	0,1	2,499837
3,700833	0,1	2,531381
3,702500	0,1	2,478107
3,704167	0,1	2,437435
3,705833	0,1	2,425573
3,707500	0,1	2,464318
3,709167	0,1	2,398883
3,710833	0,1	2,445384
3,712500	0,1	2,392692
3,714167	0,1	2,428215
3,715833	0,1	2,390447
3,717500	0,1	2,385333
3,719167	0,1	2,372035
3,720833	0,1	2,386375
3,722500	0,1	2,386912
3,724167	0,1	2,309601
3,725833	0,1	2,362293
3,727500	0,1	2,366477
3,729167	0,1	2,300014
3,730833	0,1	2,322728
3,732500	0,1	2,313959
3,734167	0,1	2,297858
3,735833	0,1	2,320064
3,737500	0,1	2,296481
3,739167	0,1	2,295383
3,740833	0,1	2,274765
3,742500	0,1	2,264681
3,744167	0,1	2,254831
3,745833	0,1	2,232335
3,747500	0,1	2,248776
3,749167	0,1	2,235984
3,750833	0,1	2,266898
3,752500	0,1	2,268349
3,754167	0,1	2,219949
3,755833	0,1	2,218366
3,757500	0,1	2,198508
3,759167	0,1	2,223094
3,760833	0,1	2,204988
3,762500	0,1	2,178649
3,764167	0,1	2,231640
3,765833	0,1	2,189247
3,767500	0,1	2,175000
3,769167	0,1	2,180238
3,770833	0,1	2,198137
3,772500	0,1	2,187059
3,774167	0,1	2,153572
3,775833	0,1	2,154923
3,777500	0,1	2,170520
3,779167	0,1	2,164854
3,780833	0,1	2,138250
3,782500	0,1	2,153840
3,784167	0,1	2,112801
3,785833	0,1	2,162383
3,787500	0,1	2,094620
3,789167	0,1	2,137227
3,790833	0,1	2,107415
3,792500	0,1	2,093600
3,794167	0,1	2,098765
3,795833	0,1	2,120602
3,797500	0,1	2,103868
3,799167	0,1	2,097261
3,800833	0,1	2,115582
3,802500	0,1	2,041986
3,804167	0,1	2,089915
3,805833	0,1	2,049743
3,807500	0,1	2,067493
3,809167	0,1	2,016241
3,810833	0,1	2,048358
3,812500	0,1	1,997764
3,814167	0,1	2,046347
3,815833	0,1	2,040952
3,817500	0,1	2,010413
3,819167	0,1	2,011776
3,820833	0,1	2,023274
3,822500	0,1	1,990414
3,824167	0,1	2,004652
3,825833	0,1	2,005595
3,827500	0,1	2,025063
3,829167	0,1	1,995891
3,830833	0,1	1,940338
3,832500	0,1	1,991051
3,834167	0,1	1,970727
3,835833	0,1	1,977193
3,837500	0,1	1,924596
3,839167	0,1	1,934420
3,840833	0,1	1,949871
3,842500	0,1	1,940820
3,844167	0,1	1,928174
3,845833	0,1	1,858761
3,847500	0,1	1,929092
3,849167	0,1	1,867530
3,850833	0,1	1,900421
3,852500	0,1	1,876648
3,854167	0,1	1,852929
3,855833	0,1	1,845810
3,857500	0,1	1,851127
3,859167	0,1	1,885974
3,860833	0,1	1,825417
3,862500	0,1	1,846017
3,864167	0,1	1,816785
3,865833	0,1	1,837397
3,867500	0,1	1,824398
3,869167	0,1	1,793793
3,870833	0,1	1,814833
3,872500	0,1	1,811747
3,874167	0,1	1,794578
3,875833	0,1	1,790909
3,877500	0,1	1,757293
3,879167	0,1	1,772512
3,880833	0,1	1,767777
3,882500	0,1	1,754846
3,884167	0,1	1,727547
3,885833	0,1	1,760942
3,887500	0,1	1,741843
3,889167	0,1	1,730489
3,890833	0,1	1,766543
3,892500	0,1	1,716274
3,894167	0,1	1,670006
3,895833	0,1	1,710648
3,897500	0,1	1,733282
3,899167	0,1	1,685740
3,900833	0,1	1,700166
3,902500	0,1	1,670866
3,904167	0,1	1,689031
3,905833	0,1	1,672948
3,907500	0,1	1,671580
3,909167	0,1	1,656786
3,910833	0,1	1,664970
3,912500	0,1	1,663965
3,914167	0,1	1,669996
3,915833	0,1	1,657074
3,917500	0,1	1,620234
3,919167	0,1	1,675734
3,920833	0,1	1,591731
3,922500	0,1	1,638241
3,924167	0,1	1,610607
3,925833	0,1	1,650161
3,927500	0,1	1,580878
3,929167	0,1	1,610374
3,930833	0,1	1,616776
3,932500	0,1	1,601553
3,934167	0,1	1,580937
3,935833	0,1	1,625385
3,937500	0,1	1,562208
3,939167	0,1	1,586534
3,940833	0,1	1,580003
3,942500	0,1	1,561401
3,944167	0,1	1,559603
3,945833	0,1	1,545675
3,947500	0,1	1,532678
3,949167	0,1	1,572882
3,950833	0,1	1,564711
3,952500	0,1	1,537064
3,954167	0,1	1,537556
3,955833	0,1	1,518314
3,957500	0,1	1,527647
3,959167	0,1	1,547750
3,960833	0,1	1,524777
3,962500	0,1	1,521184
3,964167	0,1	1,528007
3,965833	0,1	1,529012
3,967500	0,1	1,558101
3,969167	0,1	1,502236
3,970833	0,1	1,521182
3,972500	0,1	1,494767
3,974167	0,1	1,472861
3,975833	0,1	1,483415
3,977500	0,1	1,467972
3,979167	0,1	1,508823
3,980833	0,1	1,532309
3,982500	0,1	1,507617
3,984167	0,1	1,486869
3,985833	0,1	1,441055
3,987500	0,1	1,523397
3,989167	0,1	1,500800
3,990833	0,1	1,501081
3,992500	0,1	1,490024
3,994167	0,1	1,487800
3,995833	0,1	1,468775
3,997500	0,1	1,499631
3,999167	0,1	1,501299
4,000833	0,1	1,509118
4,002500	0,1	1,445449
4,004167	0,1	1,503154
4,005833	0,1	1,505029
4,007500	0,1	1,495268
4,009167	0,1	1,523189
4,010833	0,1	1,463258
4,012500	0,1	1,450817
4,014167	0,1	1,467757
4,015833	0,1	1,440346
4,017500	0,1	1,441055
4,019167	0,1	1,488650
4,020833	0,1	1,501654
4,022500	0,1	1,468481
4,024167	0,1	1,488435
4,025833	0,1	1,504743
4,027500	0,1	1,511349
4,029167	0,1	1,463895
4,030833	0,1	1,478743
4,032500	0,1	1,518155
4,034167	0,1	1,541507
4,035833	0,1	1,500879
4,037500	0,1	1,516942
4,039167	0,1	1,575540
4,040833	0,1	1,505751
4,042500	0,1	1,560242
4,044167	0,1	1,529808
4,045833	0,1	1,538348
4,047500	0,1	1,558956
4,049167	0,1	1,546975
4,050833	0,1	1,546605
4,052500	0,1	1,575896
4,054167	0,1	1,587541
4,055833	0,1	1,596157
4,057500	0,1	1,594084
4,059167	0,1	1,573898
4,060833	0,1	1,633138
4,062500	0,1	1,635306
4,064167	0,1	1,623815
4,065833	0,1	1,613904
4,067500	0,1	1,622229
4,069167	0,1	1,642051
4,070833	0,1	1,645577
4,072500	0,1	1,637533
4,074167	0,1	1,702167
4,075833	0,1	1,703475
4,077500	0,1	1,709222
4,079167	0,1	1,729620
4,080833	0,1	1,772506
4,082500	0,1	1,701335
4,084167	0,1	1,751597
4,085833	0,1	1,773447
4,087500	0,1	1,810372
4,089167	0,1	1,771448
4,090833	0,1	1,843779
4,092500	0,1	1,818938
4,094167	0,1	1,802841
4,095833	0,1	1,820224
4,097500	0,1	1,848100
4,099167	0,1	1,854794
4,100833	0,1	1,893083
4,102500	0,1	1,898058
4,104167	0,1	1,895327
4,105833	0,1	1,948643
4,107500	0,1	1,935002
4,109167	0,1	1,998237
4,110833	0,1	1,931715
4,112500	0,1	1,995937
4,114167	0,1	2,015504
4,115833	0,1	2,020684
4,117500	0,1	2,008398
4,119167	0,1	2,115699
4,120833	0,1	2,091153
4,122500	0,1	2,140740
4,124167	0,1	2,090939
4,125833	0,1	2,127070
4,127500	0,1	2,117977
4,129167	0,1	2,159796
4,130833	0,1	2,171610
4,132500	0,1	2,203755
4,134167	0,1	2,235318
4,135833	0,1	2,259557
4,137500	0,1	2,253812
4,139167	0,1	2,231595
4,140833	0,1	2,298687
4,142500	0,1	2,288973
4,144167	0,1	2,321101
4,145833	0,1	2,310933
4,147500	0,1	2,322009
4,149167	0,1	2,329695
4,150833	0,1	2,391494
4,152500	0,1	2,381958
4,154167	0,1	2,416333
4,155833	0,1	2,431581
4,157500	0,1	2,434957
4,159167	0,1	2,448345
4,160833	0,1	2,457488
4,162500	0,1	2,494760
4,164167	0,1	2,507933
4,165833	0,1	2,481774
4,167500	0,1	2,496362
4,169167	0,1	2,533776
4,170833	0,1	2,536646
4,172500	0,1	2,561576
4,174167	0,1	2,552137
4,175833	0,1	2,575149
4,177500	0,1	2,574658
4,179167	0,1	2,576978
4,180833	0,1	2,587267
4,182500	0,1	2,605312
4,184167	0,1	2,655247
4,185833	0,1	2,646288
4,187500	0,1	2,631254
4,189167	0,1	2,654722
4,190833	0,1	2,666866
4,192500	0,1	2,675805
4,194167	0,1	2,655381
4,195833	0,1	2,672276
4,197500	0,1	2,683961
4,199167	0,1	2,705704
4,200833	0,1	2,715791
4,202500	0,1	2,687630
4,204167	0,1	2,692519
4,205833	0,1	2,722534
4,207500	0,1	2,702093
4,209167	0,1	2,732616
4,210833	0,1	2,726944
4,212500	0,1	2,747087
4,214167	0,1	2,711457
4,215833	0,1	2,704263
4,217500	0,1	2,738316
4,219167	0,1	2,689540
4,220833	0,1	2,746925
4,222500	0,1	2,673117
4,224167	0,1	2,713400
4,225833	0,1	2,696241
4,227500	0,1	2,713253
4,229167	0,1	2,712762
4,230833	0,1	2,737040
4,232500	0,1	2,734779
4,234167	0,1	2,717150
4,235833	0,1	2,700072
4,237500	0,1	2,676957
4,239167	0,1	2,733850
4,240833	0,1	2,664920
4,242500	0,1	2,712542
4,244167	0,1	2,727493
4,245833	0,1	2,658269
4,247500	0,1	2,686740
4,249167	0,1	2,686992
4,250833	0,1	2,696826
4,252500	0,1	2,672305
4,254167	0,1	2,629737
4,255833	0,1	2,703693
4,257500	0,1	2,666937
4,259167	0,1	2,601462
4,260833	0,1	2,665557
4,262500	0,1	2,610757
4,264167	0,1	2,612115
4,265833	0,1	2,578794
4,267500	0,1	2,597343
4,269167	0,1	2,559151
4,270833	0,1	2,570466
4,272500	0,1	2,561598
4,274167	0,1	2,609461
4,275833	0,1	2,571335
4,277500	0,1	2,533417
4,279167	0,1	2,553289
4,280833	0,1	2,541485
4,282500	0,1	2,522417
4,284167	0,1	2,526281
4,285833	0,1	2,512172
4,287500	0,1	2,506190
4,289167	0,1	2,510751
4,290833	0,1	2,450966
4,292500	0,1	2,476567
4,294167	0,1	2,467765
4,295833	0,1	2,432178
4,297500	0,1	2,452802
4,299167	0,1	2,418865
4,300833	0,1	2,417200
4,302500	0,1	2,395759
4,304167	0,1	2,386815
4,305833	0,1	2,353919
4,307500	0,1	2,385374
4,309167	0,1	2,369322
4,310833	0,1	2,349560
4,312500	0,1	2,347975
4,314167	0,1	2,324545
4,315833	0,1	2,325960
4,317500	0,1	2,282317
4,319167	0,1	2,280216
4,320833	0,1	2,319040
4,322500	0,1	2,265116
4,324167	0,1	2,276391
4,325833	0,1	2,269221
4,327500	0,1	2,232616
4,329167	0,1	2,245817
4,330833	0,1	2,207082
4,332500	0,1	2,237471
4,334167	0,1	2,202255
4,335833	0,1	2,157875
4,337500	0,1	2,207553
4,339167	0,1	2,156018
4,340833	0,1	2,154924
4,342500	0,1	2,154055
4,344167	0,1	2,111728
4,345833	0,1	2,130746
4,347500	0,1	2,108611
4,349167	0,1	2,117458
4,350833	0,1	2,123357
4,352500	0,1	2,095472
4,354167	0,1	2,073455
4,355833	0,1	2,050600
4,357500	0,1	2,102976
4,359167	0,1	2,045645
4,360833	0,1	2,038303
4,362500	0,1	2,029380
4,364167	0,1	2,005882
4,365833	0,1	2,028875
4,367500	0,1	2,011697
4,369167	0,1	2,033254
4,370833	0,1	2,014219
4,372500	0,1	1,995738
4,374167	0,1	1,928982
4,375833	0,1	1,971286
4,377500	0,1	1,947441
4,379167	0,1	1,921920
4,380833	0,1	1,926450
4,382500	0,1	1,934064
4,384167	0,1	1,944053
4,385833	0,1	1,928817
4,387500	0,1	1,930608
4,389167	0,1	1,894683
4,390833	0,1	1,882963
4,392500	0,1	1,883327
4,394167	0,1	1,872686
4,395833	0,1	1,846104
4,397500	0,1	1,827777
4,399167	0,1	1,838909
4,400833	0,1	1,825763
4,402500	0,1	1,877917
4,404167	0,1	1,830657
4,405833	0,1	1,826263
4,407500	0,1	1,796880
4,409167	0,1	1,812392
4,410833	0,1	1,806793
4,412500	0,1	1,761032
4,414167	0,1	1,777973
4,415833	0,1	1,753625
4,417500	0,1	1,740548
4,419167	0,1	1,739827
4,420833	0,1	1,727543
4,422500	0,1	1,696727
4,424167	0,1	1,702037
4,425833	0,1	1,691624
4,427500	0,1	1,710727
4,429167	0,1	1,718559
4,430833	0,1	1,703551
4,432500	0,1	1,706781
4,434167	0,1	1,657008
4,435833	0,1	1,696498
4,437500	0,1	1,662036
4,439167	0,1	1,649673
4,440833	0,1	1,675238
4,442500	0,1	1,653198
4,444167	0,1	1,602423
4,445833	0,1	1,619502
4,447500	0,1	1,621160
4,449167	0,1	1,606653
4,450833	0,1	1,578138
4,452500	0,1	1,619349
4,454167	0,1	1,561200
4,455833	0,1	1,560325
4,457500	0,1	1,552208
4,459167	0,1	1,536984
4,460833	0,1	1,537419
4,462500	0,1	1,533608
4,464167	0,1	1,530889
4,465833	0,1	1,492181
4,467500	0,1	1,509121
4,469167	0,1	1,529449
4,470833	0,1	1,494627
4,472500	0,1	1,473659
4,474167	0,1	1,505736
4,475833	0,1	1,451407
4,477500	0,1	1,485352
4,479167	0,1	1,457869
4,480833	0,1	1,486787
4,482500	0,1	1,425339
4,484167	0,1	1,412048
4,485833	0,1	1,446863
4,487500	0,1	1,448100
4,489167	0,1	1,439190
4,490833	0,1	1,412856
4,492500	0,1	1,396183
4,494167	0,1	1,377166
4,495833	0,1	1,391590
4,497500	0,1	1,344654
4,499167	0,1	1,396315
4,500833	0,1	1,366334
4,502500	0,1	1,302739
4,504167	0,1	1,348654
4,505833	0,1	1,328644
4,507500	0,1	1,355844
4,509167	0,1	1,344295
4,510833	0,1	1,320257
4,512500	0,1	1,335321
4,514167	0,1	1,309702
4,515833	0,1	1,281275
4,517500	0,1	1,333158
4,519167	0,1	1,284238
4,520833	0,1	1,310702
4,522500	0,1	1,305246
4,524167	0,1	1,285864
4,525833	0,1	1,269645
4,527500	0,1	1,275252
4,529167	0,1	1,228743
4,530833	0,1	1,271150
4,532500	0,1	1,250757
4,534167	0,1	1,230187
4,535833	0,1	1,202467
4,537500	0,1	1,219130
4,539167	0,1	1,186336
4,540833	0,1	1,181670
4,542500	0,1	1,182544
4,544167	0,1	1,178151
4,545833	0,1	1,183454
4,547500	0,1	1,164515
4,549167	0,1	1,165465
4,550833	0,1	1,143055
4,552500	0,1	1,159501
4,554167	0,1	1,192280
4,555833	0,1	1,203484
4,557500	0,1	1,136114
4,559167	0,1	1,149885
4,560833	0,1	1,106914
4,562500	0,1	1,120495
4,564167	0,1	1,149454
4,565833	0,1	1,109565
4,567500	0,1	1,104127
4,569167	0,1	1,090038
4,570833	0,1	1,095455
4,572500	0,1	1,094938
4,574167	0,1	1,065740
4,575833	0,1	1,084026
4,577500	0,1	1,072318
4,579167	0,1	1,045687
4,580833	0,1	1,041367
4,582500	0,1	1,053602
4,584167	0,1	1,079792
4,585833	0,1	1,059228
4,587500	0,1	1,017588
4,589167	0,1	1,068467
4,590833	0,1	1,002267
4,592500	0,1	1,035452
4,594167	0,1	1,010867
4,595833	0,1	0,987903
4,597500	0,1	1,016102
4,599167	0,1	0,970070
4,600833	0,1	0,983968
4,602500	0,1	0,968113
4,604167	0,1	0,990216
4,605833	0,1	0,972850
4,607500	0,1	0,956935
4,609167	0,1	0,960650
4,610833	0,1	0,954928
4,612500	0,1	0,968204
4,614167	0,1	0,938782
4,615833	0,1	0,978222
4,617500	0,1	0,949125
4,619167	0,1	0,960238
4,620833	0,1	0,920394
4,622500	0,1	0,925441
4,624167	0,1	0,932913
4,625833	0,1	0,918856
4,627500	0,1	0,937937
4,629167	0,1	0,951338
4,630833	0,1	0,943902
4,632500	0,1	0,892829
4,634167	0,1	0,903261
4,635833	0,1	0,958086
4,637500	0,1	0,869980
4,639167	0,1	0,880978
4,640833	0,1	0,875326
4,642500	0,1	0,904935
4,644167	0,1	0,863515
4,645833	0,1	0,863693
4,647500	0,1	0,866036
4,649167	0,1	0,878193
4,650833	0,1	0,873186
4,652500	0,1	0,854257
4,654167	0,1	0,845085
4,655833	0,1	0,875132
4,657500	0,1	0,842152
4,659167	0,1	0,848511
4,660833	0,1	0,838817
4,662500	0,1	0,863925
4,664167	0,1	0,836444
4,665833	0,1	0,845265
4,667500	0,1	0,849274
4,669167	0,1	0,814594
4,670833	0,1	0,818965
4,672500	0,1	0,797322
4,674167	0,1	0,806992
4,675833	0,1	0,775303
4,677500	0,1	0,787261
4,679167	0,1	0,771698
4,680833	0,1	0,814543
4,682500	0,1	0,855465
4,684167	0,1	0,761432
4,685833	0,1	0,780422
4,687500	0,1	0,786434
4,689167	0,1	0,766083
4,690833	0,1	0,742041
4,692500	0,1	0,793453
4,694167	0,1	0,768357
4,695833	0,1	0,778556
4,697500	0,1	0,782834
4,699167	0,1	0,777895
4,700833	0,1	0,747377
4,702500	0,1	0,736657
4,704167	0,1	0,785269
4,705833	0,1	0,743470
4,707500	0,1	0,747812
4,709167	0,1	0,734924
4,710833	0,1	0,791620
4,712500	0,1	0,740335
4,714167	0,1	0,760250
4,715833	0,1	0,717956
4,717500	0,1	0,741367
4,719167	0,1	0,722371
4,720833	0,1	0,723656
4,722500	0,1	0,751659
4,724167	0,1	0,761290
4,725833	0,1	0,697789
4,727500	0,1	0,746135
4,729167	0,1	0,715123
4,730833	0,1	0,745360
4,732500	0,1	0,675166
4,734167	0,1	0,692360
4,735833	0,1	0,703636
4,737500	0,1	0,675197
4,739167	0,1	0,716579
4,740833	0,1	0,726812
4,742500	0,1	0,666289
4,744167	0,1	0,705613
4,745833	0,1	0,650384
4,747500	0,1	0,678900
4,749167	0,1	0,629790
4,750833	0,1	0,678895
4,752500	0,1	0,672503
4,754167	0,1	0,637790
4,755833	0,1	0,681167
4,757500	0,1	0,652178
4,759167	0,1	0,690307
4,760833	0,1	0,661566
4,762500	0,1	0,653930
4,764167	0,1	0,617265
4,765833	0,1	0,682471
4,767500	0,1	0,686001
4,769167	0,1	0,691228
4,770833	0,1	0,674952
4,772500	0,1	0,643196
4,774167	0,1	0,614684
4,775833	0,1	0,681315
4,777500	0,1	0,652712
4,779167	0,1	0,634985
4,780833	0,1	0,648408
4,782500	0,1	0,645702
4,784167	0,1	0,626090
4,785833	0,1	0,657902
4,787500	0,1	0,639544
4,789167	0,1	0,659083
4,790833	0,1	0,603614
4,792500	0,1	0,634085
4,794167	0,1	0,618394
4,795833	0,1	0,644247
4,797500	0,1	0,616107
4,799167	0,1	0,633530
4,800833	0,1	0,641582
4,802500	0,1	0,666732
4,804167	0,1	0,592922
4,805833	0,1	0,629167
4,807500	0,1	0,629932
4,809167	0,1	0,607210
4,810833	0,1	0,614207
4,812500	0,1	0,594198
4,814167	0,1	0,647376
4,815833	0,1	0,603099
4,817500	0,1	0,616852
4,819167	0,1	0,608741
4,820833	0,1	0,597287
4,822500	0,1	0,569029
4,824167	0,1	0,627448
4,825833	0,1	0,642335
4,827500	0,1	0,599808
4,829167	0,1	0,580168
4,830833	0,1	0,632766
4,832500	0,1	0,620083
4,834167	0,1	0,622837
4,835833	0,1	0,587732
4,837500	0,1	0,614424
4,839167	0,1	0,597579
4,840833	0,1	0,581766
4,842500	0,1	0,603641
4,844167	0,1	0,592640
4,845833	0,1	0,587879
4,847500	0,1	0,610645
4,849167	0,1	0,570367
4,850833	0,1	0,575403
4,852500	0,1	0,587608
4,854167	0,1	0,585901
4,855833	0,1	0,533922
4,857500	0,1	0,600650
4,859167	0,1	0,578367
4,860833	0,1	0,551818
4,862500	0,1	0,612280
4,864167	0,1	0,579881
4,865833	0,1	0,546037
4,867500	0,1	0,566749
4,869167	0,1	0,567066
4,870833	0,1	0,596478
4,872500	0,1	0,602599
4,874167	0,1	0,573855
4,875833	0,1	0,535588
4,877500	0,1	0,601316
4,879167	0,1	0,576321
4,880833	0,1	0,582608
4,882500	0,1	0,586100
4,884167	0,1	0,587057
4,885833	0,1	0,599240
4,887500	0,1	0,549555
4,889167	0,1	0,558278
4,890833	0,1	0,576066
4,892500	0,1	0,560888
4,894167	0,1	0,551568
4,895833	0,1	0,586204
4,897500	0,1	0,537458
4,899167	0,1	0,559144
4,900833	0,1	0,584938
4,902500	0,1	0,556311
4,904167	0,1	0,542187
4,905833	0,1	0,551763
4,907500	0,1	0,522022
4,909167	0,1	0,560185
4,910833	0,1	0,567709
4,912500	0,1	0,519116
4,914167	0,1	0,595532
4,915833	0,1	0,538058
4,917500	0,1	0,558366
4,919167	0,1	0,577001
4,920833	0,1	0,567402
4,922500	0,1	0,556373
4,924167	0,1	0,580224
4,925833	0,1	0,582164
4,927500	0,1	0,567624
4,929167	0,1	0,557729
4,930833	0,1	0,543586
4,932500	0,1	0,547430
4,934167	0,1	0,564014
4,935833	0,1	0,528491
4,937500	0,1	0,571101
4,939167	0,1	0,567288
4,940833	0,1	0,553882
4,942500	0,1	0,570774
4,944167	0,1	0,553150
4,945833	0,1	0,556412
4,947500	0,1	0,540030
4,949167	0,1	0,524332
4,950833	0,1	0,572213
4,952500	0,1	0,551949
4,954167	0,1	0,582869
4,955833	0,1	0,565290
4,957500	0,1	0,596522
4,959167	0,1	0,551976
4,960833	0,1	0,548700
4,962500	0,1	0,563881
4,964167	0,1	0,571133
4,965833	0,1	0,546258
4,967500	0,1	0,565972
4,969167	0,1	0,545435
4,970833	0,1	0,567104
4,972500	0,1	0,547593
4,974167	0,1	0,592138
4,975833	0,1	0,592483
4,977500	0,1	0,556933
4,979167	0,1	0,566062
4,980833	0,1	0,571422
4,982500	0,1	0,539521
4,984167	0,1	0,568791
4,985833	0,1	0,602326
4,987500	0,1	0,554935
4,989167	0,1	0,588270
4,990833	0,1	0,578785
4,992500	0,1	0,569624
4,994167	0,1	0,591966
4,995833	0,1	0,641041
4,997500	0,1	0,570507
4,999167	0,1	0,588676
5,000833	0,1	0,586255
5,002500	0,1	0,571850
5,004167	0,1	0,602460
5,005833	0,1	0,582590
5,007500	0,1	0,601240
5,009167	0,1	0,558336
5,010833	0,1	0,583048
5,012500	0,1	0,635546
5,014167	0,1	0,639137
5,015833	0,1	0,627956
5,017500	0,1	0,648495
5,019167	0,1	0,639431
5,020833	0,1	0,602831
5,022500	0,1	0,626968
5,024167	0,1	0,652121
5,025833	0,1	0,642321
5,027500	0,1	0,613748
5,029167	0,1	0,644868
5,030833	0,1	0,637453
5,032500	0,1	0,670935
5,034167	0,1	0,670541
5,035833	0,1	0,643526
5,037500	0,1	0,666646
5,039167	0,1	0,656111
5,040833	0,1	0,649239
5,042500	0,1	0,667736
5,044167	0,1	0,694266
5,045833	0,1	0,646267
5,047500	0,1	0,651949
5,049167	0,1	0,721127
5,050833	0,1	0,667954
5,052500	0,1	0,670253
5,054167	0,1	0,700764
5,055833	0,1	0,702061
5,057500	0,1	0,675915
5,059167	0,1	0,687491
5,060833	0,1	0,684646
5,062500	0,1	0,696943
5,064167	0,1	0,694187
5,065833	0,1	0,705262
5,067500	0,1	0,729368
5,069167	0,1	0,738538
5,070833	0,1	0,709231
5,072500	0,1	0,729351
5,074167	0,1	0,728537
5,075833	0,1	0,721482
5,077500	0,1	0,733203
5,079167	0,1	0,723956
5,080833	0,1	0,699245
5,082500	0,1	0,747358
5,084167	0,1	0,761694
5,085833	0,1	0,721181
5,087500	0,1	0,776370
5,089167	0,1	0,772156
5,090833	0,1	0,721829
5,092500	0,1	0,783483
5,094167	0,1	0,789438
5,095833	0,1	0,796228
5,097500	0,1	0,750723
5,099167	0,1	0,806761
5,100833	0,1	0,763066
5,102500	0,1	0,786103
5,104167	0,1	0,791799
5,105833	0,1	0,792715
5,107500	0,1	0,768850
5,109167	0,1	0,744334
5,110833	0,1	0,769618
5,112500	0,1	0,810143
5,114167	0,1	0,769806
5,115833	0,1	0,763857
5,117500	0,1	0,760727
5,119167	0,1	0,760099
5,120833	0,1	0,778314
5,122500	0,1	0,814577
5,124167	0,1	0,780685
5,125833	0,1	0,787995
5,127500	0,1	0,796382
5,129167	0,1	0,805721
5,130833	0,1	0,740693
5,132500	0,1	0,768942
5,134167	0,1	0,787702
5,135833	0,1	0,799300
5,137500	0,1	0,773384
5,139167	0,1	0,780560
5,140833	0,1	0,723986
5,142500	0,1	0,766676
5,144167	0,1	0,769236
5,145833	0,1	0,807428
5,147500	0,1	0,791429
5,149167	0,1	0,746072
5,150833	0,1	0,788699
5,152500	0,1	0,747092
5,154167	0,1	0,764986
5,155833	0,1	0,739751
5,157500	0,1	0,782602
5,159167	0,1	0,755898
5,160833	0,1	0,770966
5,162500	0,1	0,755895
5,164167	0,1	0,757383
5,165833	0,1	0,779381
5,167500	0,1	0,740708
5,169167	0,1	0,714458
5,170833	0,1	0,733530
5,172500	0,1	0,766648
5,174167	0,1	0,699677
5,175833	0,1	0,749187
5,177500	0,1	0,714219
5,179167	0,1	0,731266
5,180833	0,1	0,720480
5,182500	0,1	0,726438
5,184167	0,1	0,686858
5,185833	0,1	0,719739
5,187500	0,1	0,707090
5,189167	0,1	0,720918
5,190833	0,1	0,688300
5,192500	0,1	0,700921
5,194167	0,1	0,676378
5,195833	0,1	0,727206
5,197500	0,1	0,677137
5,199167	0,1	0,697138
5,200833	0,1	0,653008
5,202500	0,1	0,691623
5,204167	0,1	0,645713
5,205833	0,1	0,663936
5,207500	0,1	0,700937
5,209167	0,1	0,668393
5,210833	0,1	0,717751
5,212500	0,1	0,636667
5,214167	0,1	0,663775
5,215833	0,1	0,622179
5,217500	0,1	0,631530
5,219167	0,1	0,629511
5,220833	0,1	0,603095
5,222500	0,1	0,668746
5,224167	0,1	0,644326
5,225833	0,1	0,618730
5,227500	0,1	0,633931
5,229167	0,1	0,608411
5,230833	0,1	0,601246
5,232500	0,1	0,571942
5,234167	0,1	0,582961
5,235833	0,1	0,573517
5,237500	0,1	0,636543
5,239167	0,1	0,640961
5,240833	0,1	0,585312
5,242500	0,1	0,590613
5,244167	0,1	0,573340
5,245833	0,1	0,602681
5,247500	0,1	0,572944
5,249167	0,1	0,594500
5,250833	0,1	0,557445
5,252500	0,1	0,582403
5,254167	0,1	0,573471
5,255833	0,1	0,549837
5,257500	0,1	0,501217
5,259167	0,1	0,573031
5,260833	0,1	0,508446
5,262500	0,1	0,566250
5,264167	0,1	0,572090
5,265833	0,1	0,546305
5,267500	0,1	0,553277
5,269167	0,1	0,512954
5,270833	0,1	0,514878
5,272500	0,1	0,511722
5,274167	0,1	0,499341
5,275833	0,1	0,520967
5,277500	0,1	0,509302
5,279167	0,1	0,519437
5,280833	0,1	0,460512
5,282500	0,1	0,496263
5,284167	0,1	0,502405
5,285833	0,1	0,447707
5,287500	0,1	0,514243
5,289167	0,1	0,509124
5,290833	0,1	0,493340
5,292500	0,1	0,484355
5,294167	0,1	0,480022
5,295833	0,1	0,444522
5,297500	0,1	0,485457
5,299167	0,1	0,464792
5,300833	0,1	0,433139
5,302500	0,1	0,441668
5,304167	0,1	0,464609
5,305833	0,1	0,418513
5,307500	0,1	0,438756
5,309167	0,1	0,436933
5,310833	0,1	0,449559
5,312500	0,1	0,445853
5,314167	0,1	0,431581
5,315833	0,1	0,421464
5,317500	0,1	0,436956
5,319167	0,1	0,404025
5,320833	0,1	0,394811
5,322500	0,1	0,435882
5,324167	0,1	0,420847
5,325833	0,1	0,436179
5,327500	0,1	0,391912
5,329167	0,1	0,409170
5,330833	0,1	0,420550
5,332500	0,1	0,382793
5,334167	0,1	0,364387
5,335833	0,1	0,367288
5,337500	0,1	0,391120
5,339167	0,1	0,394241
5,340833	0,1	0,414431
5,342500	0,1	0,402021
5,344167	0,1	0,386340
5,345833	0,1	0,371345
5,347500	0,1	0,412031
5,349167	0,1	0,390420
5,350833	0,1	0,352827
5,352500	0,1	0,364314
5,354167	0,1	0,423564
5,355833	0,1	0,388133
5,357500	0,1	0,333484
5,359167	0,1	0,404777
5,360833	0,1	0,373545
5,362500	0,1	0,398761
5,364167	0,1	0,355619
5,365833	0,1	0,337644
5,367500	0,1	0,376607
5,369167	0,1	0,328905
5,370833	0,1	0,334889
5,372500	0,1	0,323871
5,374167	0,1	0,358533
5,375833	0,1	0,328612
5,377500	0,1	0,331667
5,379167	0,1	0,323975
5,380833	0,1	0,337756
5,382500	0,1	0,342008
5,384167	0,1	0,308765
5,385833	0,1	0,340461
5,387500	0,1	0,332893
5,389167	0,1	0,330736
5,390833	0,1	0,338177
5,392500	0,1	0,348397
5,394167	0,1	0,306543
5,395833	0,1	0,346642
5,397500	0,1	0,320681
5,399167	0,1	0,284126
5,400833	0,1	0,316483
5,402500	0,1	0,296871
5,404167	0,1	0,286531
5,405833	0,1	0,307294
5,407500	0,1	0,300221
5,409167	0,1	0,326665
5,410833	0,1	0,288658
5,412500	0,1	0,281375
5,414167	0,1	0,271409
5,415833	0,1	0,294060
5,417500	0,1	0,269741
5,419167	0,1	0,294191
5,420833	0,1	0,279891
5,422500	0,1	0,277694
5,424167	0,1	0,268775
5,425833	0,1	0,291613
5,427500	0,1	0,259823
5,429167	0,1	0,275177
5,430833	0,1	0,254435
5,432500	0,1	0,255400
5,434167	0,1	0,286426
5,435833	0,1	0,292615
5,437500	0,1	0,260498
5,439167	0,1	0,268118
5,440833	0,1	0,216141
5,442500	0,1	0,249946
5,444167	0,1	0,283643
5,445833	0,1	0,256883
5,447500	0,1	0,236848
5,449167	0,1	0,276069
5,450833	0,1	0,284836
5,452500	0,1	0,200851
5,454167	0,1	0,226562
5,455833	0,1	0,240539
5,457500	0,1	0,220863
5,459167	0,1	0,240212
5,460833	0,1	0,199510
5,462500	0,1	0,244630
5,464167	0,1	0,229499
5,465833	0,1	0,253070
5,467500	0,1	0,235364
5,469167	0,1	0,248850
5,470833	0,1	0,251561
5,472500	0,1	0,226019
5,474167	0,1	0,237804
5,475833	0,1	0,225725
5,477500	0,1	0,194065
5,479167	0,1	0,201431
5,480833	0,1	0,213449
5,482500	0,1	0,199893
5,484167	0,1	0,228004
5,485833	0,1	0,219767
5,487500	0,1	0,249556
5,489167	0,1	0,226598
5,490833	0,1	0,206397
5,492500	0,1	0,261532
5,494167	0,1	0,213497
5,495833	0,1	0,232842
5,497500	0,1	0,216386
5,499167	0,1	0,210811
5,500833	0,1	0,177217
5,502500	0,1	0,232920
5,504167	0,1	0,201375
5,505833	0,1	0,238542
5,507500	0,1	0,200699
5,509167	0,1	0,201882
5,510833	0,1	0,190677
5,512500	0,1	0,154316
5,514167	0,1	0,158913
5,515833	0,1	0,180426
5,517500	0,1	0,207290
5,519167	0,1	0,181661
5,520833	0,1	0,170092
5,522500	0,1	0,233120
5,524167	0,1	0,223763
5,525833	0,1	0,218666
5,527500	0,1	0,240660
5,529167	0,1	0,184856
5,530833	0,1	0,178499
5,532500	0,1	0,188025
5,534167	0,1	0,178371
5,535833	0,1	0,198692
5,537500	0,1	0,155796
5,539167	0,1	0,170439
5,540833	0,1	0,181623
5,542500	0,1	0,142655
5,544167	0,1	0,192271
5,545833	0,1	0,196342
5,547500	0,1	0,159725
5,549167	0,1	0,189800
5,550833	0,1	0,211448
5,552500	0,1	0,157991
5,554167	0,1	0,194656
5,555833	0,1	0,139823
5,557500	0,1	0,178006
5,559167	0,1	0,194373
5,560833	0,1	0,165971
5,562500	0,1	0,193082
5,564167	0,1	0,177889
5,565833	0,1	0,193664
5,567500	0,1	0,191351
5,569167	0,1	0,207482
5,570833	0,1	0,154190
5,572500	0,1	0,162680
5,574167	0,1	0,170696
5,575833	0,1	0,190446
5,577500	0,1	0,139952
5,579167	0,1	0,173497
5,580833	0,1	0,161652
5,582500	0,1	0,186385
5,584167	0,1	0,159047
5,585833	0,1	0,169860
5,587500	0,1	0,169413
5,589167	0,1	0,201939
5,590833	0,1	0,218472
5,592500	0,1	0,153099
5,594167	0,1	0,181744
5,595833	0,1	0,167775
5,597500	0,1	0,168541
5,599167	0,1	0,146387
5,600833	0,1	0,198295
5,602500	0,1	0,185555
5,604167	0,1	0,169996
5,605833	0,1	0,196337
5,607500	0,1	0,178084
5,609167	0,1	0,164424
5,610833	0,1	0,160589
5,612500	0,1	0,198522
5,614167	0,1	0,147197
5,615833	0,1	0,140521
5,617500	0,1	0,156168
5,619167	0,1	0,180521
5,620833	0,1	0,173795
5,622500	0,1	0,154859
5,624167	0,1	0,169506
5,625833	0,1	0,154696
5,627500	0,1	0,176267
5,629167	0,1	0,168418
5,630833	0,1	0,140785
5,632500	0,1	0,189281
5,634167	0,1	0,113319
5,635833	0,1	0,183537
5,637500	0,1	0,145520
5,639167	0,1	0,185575
5,640833	0,1	0,145197
5,642500	0,1	0,163675
5,644167	0,1	0,138466
5,645833	0,1	0,168247
5,647500	0,1	0,156692
5,649167	0,1	0,183196
5,650833	0,1	0,179559
5,652500	0,1	0,143908
5,654167	0,1	0,146511
5,655833	0,1	0,199648
5,657500	0,1	0,173026
5,659167	0,1	0,144068
5,660833	0,1	0,180612
5,662500	0,1	0,170930
5,664167	0,1	0,168931
5,665833	0,1	0,184194
5,667500	0,1	0,190704
5,669167	0,1	0,147551
5,670833	0,1	0,167601
5,672500	0,1	0,126518
5,674167	0,1	0,172109
5,675833	0,1	0,160687
5,677500	0,1	0,201779
5,679167	0,1	0,182753
5,680833	0,1	0,148193
5,682500	0,1	0,202838
5,684167	0,1	0,181205
5,685833	0,1	0,175309
5,687500	0,1	0,178048
5,689167	0,1	0,123879
5,690833	0,1	0,169013
5,692500	0,1	0,167322
5,694167	0,1	0,155339
5,695833	0,1	0,156948
5,697500	0,1	0,212404
5,699167	0,1	0,163148
5,700833	0,1	0,176274
5,702500	0,1	0,188739
5,704167	0,1	0,148483
5,705833	0,1	0,196586
5,707500	0,1	0,193863
5,709167	0,1	0,164522
5,710833	0,1	0,162262
5,712500	0,1	0,202263
5,714167	0,1	0,181595
5,715833	0,1	0,196306
5,717500	0,1	0,180175
5,719167	0,1	0,145455
5,720833	0,1	0,174171
5,722500	0,1	0,189154
5,724167	0,1	0,182236
5,725833	0,1	0,163201
5,727500	0,1	0,225961
5,729167	0,1	0,203950
5,730833	0,1	0,176956
5,732500	0,1	0,184230
5,734167	0,1	0,179694
5,735833	0,1	0,180912
5,737500	0,1	0,210548
5,739167	0,1	0,171067
5,740833	0,1	0,213956
5,742500	0,1	0,208753
5,744167	0,1	0,199344
5,745833	0,1	0,220469
5,747500	0,1	0,239184
5,749167	0,1	0,175422
5,750833	0,1	0,203164
5,752500	0,1	0,201693
5,754167	0,1	0,169486
5,755833	0,1	0,175181
5,757500	0,1	0,214180
5,759167	0,1	0,202269
5,760833	0,1	0,200405
5,762500	0,1	0,186908
5,764167	0,1	0,174347
5,765833	0,1	0,194047
5,767500	0,1	0,172705
5,769167	0,1	0,176499
5,770833	0,1	0,189188
5,772500	0,1	0,154150
5,774167	0,1	0,213626
5,775833	0,1	0,181338
5,777500	0,1	0,164519
5,779167	0,1	0,195144
5,780833	0,1	0,216792
5,782500	0,1	0,178798
5,784167	0,1	0,190152
5,785833	0,1	0,180080
5,787500	0,1	0,213698
5,789167	0,1	0,236605
5,790833	0,1	0,168882
5,792500	0,1	0,225897
5,794167	0,1	0,212904
5,795833	0,1	0,174192
5,797500	0,1	0,191315
5,799167	0,1	0,188324
5,800833	0,1	0,167741
5,802500	0,1	0,172180
5,804167	0,1	0,195984
5,805833	0,1	0,189933
5,807500	0,1	0,222530
5,809167	0,1	0,228428
5,810833	0,1	0,186336
5,812500	0,1	0,177596
5,814167	0,1	0,207804
5,815833	0,1	0,203853
5,817500	0,1	0,213573
5,819167	0,1	0,214059
5,820833	0,1	0,171227
5,822500	0,1	0,214730
5,824167	0,1	0,186042
5,825833	0,1	0,216310
5,827500	0,1	0,164721
5,829167	0,1	0,222842
5,830833	0,1	0,198319
5,832500	0,1	0,161852
5,834167	0,1	0,206099
5,835833	0,1	0,144723
5,837500	0,1	0,157040
5,839167	0,1	0,188410
5,840833	0,1	0,200432
5,842500	0,1	0,165717
5,844167	0,1	0,160780
5,845833	0,1	0,165449
5,847500	0,1	0,192118
5,849167	0,1	0,175827
5,850833	0,1	0,198206
5,852500	0,1	0,214411
5,854167	0,1	0,194446
5,855833	0,1	0,184845
5,857500	0,1	0,183040
5,859167	0,1	0,186065
5,860833	0,1	0,178077
5,862500	0,1	0,195565
5,864167	0,1	0,183881
5,865833	0,1	0,155019
5,867500	0,1	0,169470
5,869167	0,1	0,211927
5,870833	0,1	0,153482
5,872500	0,1	0,193112
5,874167	0,1	0,174154
5,875833	0,1	0,190925
5,877500	0,1	0,176665
5,879167	0,1	0,184067
5,880833	0,1	0,173217
5,882500	0,1	0,162936
5,884167	0,1	0,129543
5,885833	0,1	0,135687
5,887500	0,1	0,166185
5,889167	0,1	0,177721
5,890833	0,1	0,169961
5,892500	0,1	0,139109
5,894167	0,1	0,156941
5,895833	0,1	0,192529
5,897500	0,1	0,186197
5,899167	0,1	0,133704
5,900833	0,1	0,118652
5,902500	0,1	0,169562
5,904167	0,1	0,163936
5,905833	0,1	0,151798
5,907500	0,1	0,158200
5,909167	0,1	0,159490
5,910833	0,1	0,084559
5,912500	0,1	0,181982
5,914167	0,1	0,166001
5,915833	0,1	0,169668
5,917500	0,1	0,196207
5,919167	0,1	0,153382
5,920833	0,1	0,151986
5,922500	0,1	0,137140
5,924167	0,1	0,127411
5,925833	0,1	0,153880
5,927500	0,1	0,167538
5,929167	0,1	0,151925
5,930833	0,1	0,116692
5,932500	0,1	0,130079
5,934167	0,1	0,087738
5,935833	0,1	0,160473
5,937500	0,1	0,147288
5,939167	0,1	0,134177
5,940833	0,1	0,105611
5,942500	0,1	0,129268
5,944167	0,1	0,119134
5,945833	0,1	0,131850
5,947500	0,1	0,140002
5,949167	0,1	0,163576
5,950833	0,1	0,151762
5,952500	0,1	0,151662
5,954167	0,1	0,141875
5,955833	0,1	0,152692
5,957500	0,1	0,122489
5,959167	0,1	0,156293
5,960833	0,1	0,110318
5,962500	0,1	0,117843
5,964167	0,1	0,101357
5,965833	0,1	0,139510
5,967500	0,1	0,137363
5,969167	0,1	0,150338
5,970833	0,1	0,111925
5,972500	0,1	0,162695
5,974167	0,1	0,138783
5,975833	0,1	0,129987
5,977500	0,1	0,122096
5,979167	0,1	0,138841
5,980833	0,1	0,116463
5,982500	0,1	0,144537
5,984167	0,1	0,119234
5,985833	0,1	0,105574
5,987500	0,1	0,155418
5,989167	0,1	0,131538
5,990833	0,1	0,117911
5,992500	0,1	0,071991
5,994167	0,1	0,114773
5,995833	0,1	0,109793
5,997500	0,1	0,131560
5,999167	0,1	0,135170
6,000833	0,1	0,132918
