File Path	chrom://chromeleon01/ikbm_chromeleon/2022/Rezex/Esteban/220612_chitin_4_7.seq/616.smp/UV_VIS_1.channel/UV_VIS_1.chm
Channel	UV_VIS_1

Injection Information:
Data Vault	ikbm_chromeleon
Injection	4_24h-NT_3
Injection Number	31
Position	RD3
Comment	
Processing Method	New ProcMethod
Instrument Method	Short_Rezex_6min_194nm
Type	Unknown
Status	Finished
Injection Date	12.06.2022
Injection Time	20:28:34
Injection Volume (µl)	8,000
Dilution Factor	1,0000
Weight	1,0000

Chromatogram Data Information:
Time Min. (min)	0,000833
Time Max. (min)	6,000833
Data Points	3601
Detector	UV
Generating Data System	Chromeleon 7.2.9.11323
Exporting Data System	Chromeleon 7.2.9.0
Operator	Instrument Controller
Signal Quantity	Absorbance
Signal Unit	mAU
Signal Min.	-0,095841
Signal Max.	118,622342
Channel	UV_VIS_1
Driver Name	VWD3000.dll
Channel Type	Evaluation
Min. Step (s)	0,1
Max. Step (s)	0,1
Average Step (s)	0,1

Signal Parameter Information:
Signal Info	WVL:194 nm

Chromatogram Data:
Time (min)	Step (s)	Value (mAU)
0,000833	n.a.	-0,020045
0,002500	0,1	-0,060529
0,004167	0,1	-0,031999
0,005833	0,1	-0,004305
0,007500	0,1	-0,034747
0,009167	0,1	-0,018534
0,010833	0,1	-0,072056
0,012500	0,1	-0,018956
0,014167	0,1	-0,031198
0,015833	0,1	-0,054507
0,017500	0,1	-0,023876
0,019167	0,1	-0,000377
0,020833	0,1	-0,034498
0,022500	0,1	-0,024266
0,024167	0,1	-0,022622
0,025833	0,1	-0,027773
0,027500	0,1	-0,054712
0,029167	0,1	-0,074492
0,030833	0,1	-0,069574
0,032500	0,1	-0,048636
0,034167	0,1	-0,076860
0,035833	0,1	-0,076743
0,037500	0,1	-0,077654
0,039167	0,1	-0,092214
0,040833	0,1	-0,083866
0,042500	0,1	-0,094164
0,044167	0,1	-0,057762
0,045833	0,1	-0,063837
0,047500	0,1	-0,054848
0,049167	0,1	-0,095841
0,050833	0,1	-0,025049
0,052500	0,1	-0,031494
0,054167	0,1	0,000433
0,055833	0,1	-0,040730
0,057500	0,1	-0,029957
0,059167	0,1	-0,036354
0,060833	0,1	-0,007233
0,062500	0,1	-0,009721
0,064167	0,1	-0,017946
0,065833	0,1	-0,038198
0,067500	0,1	-0,051186
0,069167	0,1	-0,069092
0,070833	0,1	-0,062806
0,072500	0,1	-0,061263
0,074167	0,1	-0,040183
0,075833	0,1	-0,042648
0,077500	0,1	-0,033034
0,079167	0,1	-0,045493
0,080833	0,1	-0,019199
0,082500	0,1	-0,019569
0,084167	0,1	-0,034459
0,085833	0,1	-0,048361
0,087500	0,1	-0,013031
0,089167	0,1	-0,007747
0,090833	0,1	-0,038425
0,092500	0,1	-0,043439
0,094167	0,1	0,008676
0,095833	0,1	0,009228
0,097500	0,1	-0,008656
0,099167	0,1	-0,050015
0,100833	0,1	-0,046203
0,102500	0,1	-0,044914
0,104167	0,1	-0,050148
0,105833	0,1	0,001343
0,107500	0,1	-0,075994
0,109167	0,1	-0,047665
0,110833	0,1	-0,065353
0,112500	0,1	-0,085959
0,114167	0,1	-0,020229
0,115833	0,1	-0,069853
0,117500	0,1	-0,038192
0,119167	0,1	-0,079725
0,120833	0,1	-0,047976
0,122500	0,1	-0,051002
0,124167	0,1	-0,032038
0,125833	0,1	-0,061899
0,127500	0,1	-0,075303
0,129167	0,1	-0,022740
0,130833	0,1	-0,024824
0,132500	0,1	-0,073531
0,134167	0,1	-0,075058
0,135833	0,1	-0,021390
0,137500	0,1	-0,030472
0,139167	0,1	-0,009767
0,140833	0,1	-0,041415
0,142500	0,1	-0,032514
0,144167	0,1	-0,046471
0,145833	0,1	-0,043107
0,147500	0,1	-0,020925
0,149167	0,1	-0,069647
0,150833	0,1	-0,007076
0,152500	0,1	-0,032338
0,154167	0,1	-0,028649
0,155833	0,1	-0,016205
0,157500	0,1	-0,021127
0,159167	0,1	-0,055254
0,160833	0,1	-0,001962
0,162500	0,1	-0,012771
0,164167	0,1	-0,000312
0,165833	0,1	-0,011962
0,167500	0,1	-0,040399
0,169167	0,1	-0,048797
0,170833	0,1	-0,032681
0,172500	0,1	-0,018596
0,174167	0,1	0,000788
0,175833	0,1	-0,008555
0,177500	0,1	0,001558
0,179167	0,1	-0,034831
0,180833	0,1	-0,061362
0,182500	0,1	-0,007883
0,184167	0,1	-0,015619
0,185833	0,1	-0,015953
0,187500	0,1	-0,023908
0,189167	0,1	-0,004011
0,190833	0,1	-0,033025
0,192500	0,1	-0,026073
0,194167	0,1	-0,005986
0,195833	0,1	-0,035185
0,197500	0,1	0,009986
0,199167	0,1	-0,011272
0,200833	0,1	-0,023014
0,202500	0,1	0,001991
0,204167	0,1	-0,025089
0,205833	0,1	-0,031494
0,207500	0,1	-0,012072
0,209167	0,1	-0,018071
0,210833	0,1	0,016491
0,212500	0,1	-0,017150
0,214167	0,1	0,003177
0,215833	0,1	-0,011068
0,217500	0,1	-0,046256
0,219167	0,1	0,006931
0,220833	0,1	-0,040604
0,222500	0,1	-0,028402
0,224167	0,1	0,022847
0,225833	0,1	-0,014364
0,227500	0,1	-0,048312
0,229167	0,1	-0,049360
0,230833	0,1	-0,011081
0,232500	0,1	-0,003883
0,234167	0,1	0,040552
0,235833	0,1	-0,038354
0,237500	0,1	-0,023331
0,239167	0,1	0,008847
0,240833	0,1	-0,009841
0,242500	0,1	-0,024136
0,244167	0,1	-0,009100
0,245833	0,1	-0,054150
0,247500	0,1	-0,015608
0,249167	0,1	0,011051
0,250833	0,1	-0,014162
0,252500	0,1	-0,008724
0,254167	0,1	-0,014872
0,255833	0,1	-0,028104
0,257500	0,1	-0,037890
0,259167	0,1	-0,038350
0,260833	0,1	-0,002997
0,262500	0,1	-0,034126
0,264167	0,1	-0,017516
0,265833	0,1	-0,019693
0,267500	0,1	0,036746
0,269167	0,1	-0,004932
0,270833	0,1	-0,040087
0,272500	0,1	-0,018992
0,274167	0,1	0,001245
0,275833	0,1	-0,024196
0,277500	0,1	0,005586
0,279167	0,1	-0,016820
0,280833	0,1	-0,006793
0,282500	0,1	0,007065
0,284167	0,1	-0,006622
0,285833	0,1	0,010866
0,287500	0,1	-0,011876
0,289167	0,1	-0,000082
0,290833	0,1	-0,020436
0,292500	0,1	-0,026755
0,294167	0,1	0,002095
0,295833	0,1	-0,029845
0,297500	0,1	0,000371
0,299167	0,1	0,009705
0,300833	0,1	0,007900
0,302500	0,1	-0,007929
0,304167	0,1	0,004426
0,305833	0,1	-0,013871
0,307500	0,1	-0,042331
0,309167	0,1	0,024131
0,310833	0,1	-0,032832
0,312500	0,1	0,009986
0,314167	0,1	0,017267
0,315833	0,1	0,020094
0,317500	0,1	-0,020328
0,319167	0,1	-0,005798
0,320833	0,1	0,002807
0,322500	0,1	0,006069
0,324167	0,1	-0,015513
0,325833	0,1	0,008640
0,327500	0,1	-0,004939
0,329167	0,1	0,013524
0,330833	0,1	-0,020161
0,332500	0,1	-0,016057
0,334167	0,1	-0,016430
0,335833	0,1	0,007165
0,337500	0,1	-0,023987
0,339167	0,1	0,028311
0,340833	0,1	0,009544
0,342500	0,1	0,050609
0,344167	0,1	0,014474
0,345833	0,1	0,009354
0,347500	0,1	0,005137
0,349167	0,1	-0,013395
0,350833	0,1	-0,000707
0,352500	0,1	0,004780
0,354167	0,1	0,003743
0,355833	0,1	-0,019834
0,357500	0,1	0,026817
0,359167	0,1	0,014925
0,360833	0,1	0,017103
0,362500	0,1	0,003186
0,364167	0,1	0,029002
0,365833	0,1	-0,005204
0,367500	0,1	0,006421
0,369167	0,1	0,000566
0,370833	0,1	-0,005834
0,372500	0,1	-0,014436
0,374167	0,1	-0,010553
0,375833	0,1	0,077361
0,377500	0,1	0,026798
0,379167	0,1	0,047268
0,380833	0,1	0,018025
0,382500	0,1	-0,008281
0,384167	0,1	0,006959
0,385833	0,1	0,011948
0,387500	0,1	0,025599
0,389167	0,1	0,035282
0,390833	0,1	-0,026618
0,392500	0,1	-0,001373
0,394167	0,1	0,022021
0,395833	0,1	0,038666
0,397500	0,1	0,025376
0,399167	0,1	0,038315
0,400833	0,1	0,034434
0,402500	0,1	0,038047
0,404167	0,1	0,054686
0,405833	0,1	0,033709
0,407500	0,1	0,011872
0,409167	0,1	0,055263
0,410833	0,1	0,047608
0,412500	0,1	0,040416
0,414167	0,1	0,022758
0,415833	0,1	-0,012828
0,417500	0,1	0,002513
0,419167	0,1	0,013588
0,420833	0,1	0,017352
0,422500	0,1	0,007755
0,424167	0,1	0,004200
0,425833	0,1	-0,012645
0,427500	0,1	0,047446
0,429167	0,1	0,075192
0,430833	0,1	0,023016
0,432500	0,1	0,047225
0,434167	0,1	0,056953
0,435833	0,1	0,008782
0,437500	0,1	0,001917
0,439167	0,1	0,006610
0,440833	0,1	0,012883
0,442500	0,1	0,018017
0,444167	0,1	0,015691
0,445833	0,1	0,041365
0,447500	0,1	0,032211
0,449167	0,1	0,020617
0,450833	0,1	0,052064
0,452500	0,1	0,025773
0,454167	0,1	0,044650
0,455833	0,1	0,017462
0,457500	0,1	0,016957
0,459167	0,1	0,034117
0,460833	0,1	0,041100
0,462500	0,1	0,037280
0,464167	0,1	0,033892
0,465833	0,1	0,012808
0,467500	0,1	0,049861
0,469167	0,1	0,044074
0,470833	0,1	0,028452
0,472500	0,1	0,026349
0,474167	0,1	0,087447
0,475833	0,1	0,031039
0,477500	0,1	0,085931
0,479167	0,1	0,038454
0,480833	0,1	0,032480
0,482500	0,1	0,027783
0,484167	0,1	0,012536
0,485833	0,1	0,077077
0,487500	0,1	0,057772
0,489167	0,1	0,086456
0,490833	0,1	0,047158
0,492500	0,1	0,051781
0,494167	0,1	0,052259
0,495833	0,1	0,032505
0,497500	0,1	0,031295
0,499167	0,1	0,064326
0,500833	0,1	0,028208
0,502500	0,1	0,050302
0,504167	0,1	0,020145
0,505833	0,1	0,063450
0,507500	0,1	0,008806
0,509167	0,1	0,062720
0,510833	0,1	0,006043
0,512500	0,1	0,081503
0,514167	0,1	0,078859
0,515833	0,1	0,025842
0,517500	0,1	0,091869
0,519167	0,1	0,019281
0,520833	0,1	0,050050
0,522500	0,1	0,035974
0,524167	0,1	0,022509
0,525833	0,1	0,049738
0,527500	0,1	0,055791
0,529167	0,1	0,041812
0,530833	0,1	0,004333
0,532500	0,1	0,056966
0,534167	0,1	0,048334
0,535833	0,1	0,052199
0,537500	0,1	0,073511
0,539167	0,1	0,055984
0,540833	0,1	0,033545
0,542500	0,1	0,058238
0,544167	0,1	0,090550
0,545833	0,1	0,056093
0,547500	0,1	0,034396
0,549167	0,1	0,042867
0,550833	0,1	0,060446
0,552500	0,1	0,042644
0,554167	0,1	0,106506
0,555833	0,1	0,058881
0,557500	0,1	0,100689
0,559167	0,1	0,040889
0,560833	0,1	0,029470
0,562500	0,1	0,049264
0,564167	0,1	0,090632
0,565833	0,1	0,064423
0,567500	0,1	0,067742
0,569167	0,1	0,068282
0,570833	0,1	0,046740
0,572500	0,1	0,058452
0,574167	0,1	0,084005
0,575833	0,1	0,083203
0,577500	0,1	0,089084
0,579167	0,1	0,048529
0,580833	0,1	0,109703
0,582500	0,1	0,078075
0,584167	0,1	0,046637
0,585833	0,1	0,084253
0,587500	0,1	0,069616
0,589167	0,1	0,068032
0,590833	0,1	0,029454
0,592500	0,1	0,088239
0,594167	0,1	0,056382
0,595833	0,1	0,068634
0,597500	0,1	0,101610
0,599167	0,1	0,091643
0,600833	0,1	0,103085
0,602500	0,1	0,104069
0,604167	0,1	0,103732
0,605833	0,1	0,068520
0,607500	0,1	0,131278
0,609167	0,1	0,092002
0,610833	0,1	0,100868
0,612500	0,1	0,111484
0,614167	0,1	0,088756
0,615833	0,1	0,053412
0,617500	0,1	0,093916
0,619167	0,1	0,035299
0,620833	0,1	0,128693
0,622500	0,1	0,101993
0,624167	0,1	0,077331
0,625833	0,1	0,097622
0,627500	0,1	0,113956
0,629167	0,1	0,107890
0,630833	0,1	0,118776
0,632500	0,1	0,078184
0,634167	0,1	0,102939
0,635833	0,1	0,117696
0,637500	0,1	0,071827
0,639167	0,1	0,114217
0,640833	0,1	0,075190
0,642500	0,1	0,138757
0,644167	0,1	0,104304
0,645833	0,1	0,122143
0,647500	0,1	0,132516
0,649167	0,1	0,109063
0,650833	0,1	0,101784
0,652500	0,1	0,108640
0,654167	0,1	0,117408
0,655833	0,1	0,107561
0,657500	0,1	0,144625
0,659167	0,1	0,146189
0,660833	0,1	0,095494
0,662500	0,1	0,155221
0,664167	0,1	0,119871
0,665833	0,1	0,122234
0,667500	0,1	0,134615
0,669167	0,1	0,128490
0,670833	0,1	0,140891
0,672500	0,1	0,190473
0,674167	0,1	0,192619
0,675833	0,1	0,111820
0,677500	0,1	0,165846
0,679167	0,1	0,189479
0,680833	0,1	0,175187
0,682500	0,1	0,162844
0,684167	0,1	0,171189
0,685833	0,1	0,145033
0,687500	0,1	0,161116
0,689167	0,1	0,139595
0,690833	0,1	0,146314
0,692500	0,1	0,174103
0,694167	0,1	0,216147
0,695833	0,1	0,154339
0,697500	0,1	0,163632
0,699167	0,1	0,191766
0,700833	0,1	0,215444
0,702500	0,1	0,193572
0,704167	0,1	0,144090
0,705833	0,1	0,169098
0,707500	0,1	0,169144
0,709167	0,1	0,207734
0,710833	0,1	0,214286
0,712500	0,1	0,201240
0,714167	0,1	0,170996
0,715833	0,1	0,150108
0,717500	0,1	0,184245
0,719167	0,1	0,215758
0,720833	0,1	0,225758
0,722500	0,1	0,194900
0,724167	0,1	0,211643
0,725833	0,1	0,198270
0,727500	0,1	0,186292
0,729167	0,1	0,203229
0,730833	0,1	0,209221
0,732500	0,1	0,230266
0,734167	0,1	0,239963
0,735833	0,1	0,224210
0,737500	0,1	0,254299
0,739167	0,1	0,276286
0,740833	0,1	0,234618
0,742500	0,1	0,244763
0,744167	0,1	0,264549
0,745833	0,1	0,274320
0,747500	0,1	0,252923
0,749167	0,1	0,272892
0,750833	0,1	0,243029
0,752500	0,1	0,270503
0,754167	0,1	0,239075
0,755833	0,1	0,257615
0,757500	0,1	0,274662
0,759167	0,1	0,266362
0,760833	0,1	0,281307
0,762500	0,1	0,259467
0,764167	0,1	0,292615
0,765833	0,1	0,269617
0,767500	0,1	0,260400
0,769167	0,1	0,255507
0,770833	0,1	0,272220
0,772500	0,1	0,274639
0,774167	0,1	0,262207
0,775833	0,1	0,317208
0,777500	0,1	0,275168
0,779167	0,1	0,269349
0,780833	0,1	0,281762
0,782500	0,1	0,276194
0,784167	0,1	0,283407
0,785833	0,1	0,259467
0,787500	0,1	0,261131
0,789167	0,1	0,285172
0,790833	0,1	0,278382
0,792500	0,1	0,272289
0,794167	0,1	0,291656
0,795833	0,1	0,293394
0,797500	0,1	0,229733
0,799167	0,1	0,234643
0,800833	0,1	0,282689
0,802500	0,1	0,285079
0,804167	0,1	0,256310
0,805833	0,1	0,252627
0,807500	0,1	0,270505
0,809167	0,1	0,245518
0,810833	0,1	0,226587
0,812500	0,1	0,271823
0,814167	0,1	0,310695
0,815833	0,1	0,280448
0,817500	0,1	0,254731
0,819167	0,1	0,314849
0,820833	0,1	0,264756
0,822500	0,1	0,287496
0,824167	0,1	0,231056
0,825833	0,1	0,260908
0,827500	0,1	0,262141
0,829167	0,1	0,258075
0,830833	0,1	0,295100
0,832500	0,1	0,290237
0,834167	0,1	0,247935
0,835833	0,1	0,309501
0,837500	0,1	0,285993
0,839167	0,1	0,291622
0,840833	0,1	0,300872
0,842500	0,1	0,293177
0,844167	0,1	0,289147
0,845833	0,1	0,267528
0,847500	0,1	0,295746
0,849167	0,1	0,310475
0,850833	0,1	0,274547
0,852500	0,1	0,305604
0,854167	0,1	0,315633
0,855833	0,1	0,272136
0,857500	0,1	0,301385
0,859167	0,1	0,319589
0,860833	0,1	0,322823
0,862500	0,1	0,282511
0,864167	0,1	0,289916
0,865833	0,1	0,302487
0,867500	0,1	0,341379
0,869167	0,1	0,315286
0,870833	0,1	0,314991
0,872500	0,1	0,275294
0,874167	0,1	0,276281
0,875833	0,1	0,314981
0,877500	0,1	0,309836
0,879167	0,1	0,303645
0,880833	0,1	0,315370
0,882500	0,1	0,349045
0,884167	0,1	0,319764
0,885833	0,1	0,376986
0,887500	0,1	0,327021
0,889167	0,1	0,343899
0,890833	0,1	0,316740
0,892500	0,1	0,344960
0,894167	0,1	0,320471
0,895833	0,1	0,381566
0,897500	0,1	0,318836
0,899167	0,1	0,344917
0,900833	0,1	0,359980
0,902500	0,1	0,332400
0,904167	0,1	0,325171
0,905833	0,1	0,326267
0,907500	0,1	0,332809
0,909167	0,1	0,328101
0,910833	0,1	0,331712
0,912500	0,1	0,360904
0,914167	0,1	0,389374
0,915833	0,1	0,355154
0,917500	0,1	0,330621
0,919167	0,1	0,370416
0,920833	0,1	0,342325
0,922500	0,1	0,373733
0,924167	0,1	0,378897
0,925833	0,1	0,369975
0,927500	0,1	0,399328
0,929167	0,1	0,377033
0,930833	0,1	0,357985
0,932500	0,1	0,379798
0,934167	0,1	0,357411
0,935833	0,1	0,364100
0,937500	0,1	0,408966
0,939167	0,1	0,370010
0,940833	0,1	0,450572
0,942500	0,1	0,402281
0,944167	0,1	0,413743
0,945833	0,1	0,409298
0,947500	0,1	0,411780
0,949167	0,1	0,420771
0,950833	0,1	0,426280
0,952500	0,1	0,415131
0,954167	0,1	0,391669
0,955833	0,1	0,428726
0,957500	0,1	0,460384
0,959167	0,1	0,400606
0,960833	0,1	0,436305
0,962500	0,1	0,392446
0,964167	0,1	0,420216
0,965833	0,1	0,446201
0,967500	0,1	0,447173
0,969167	0,1	0,457165
0,970833	0,1	0,460584
0,972500	0,1	0,448208
0,974167	0,1	0,467642
0,975833	0,1	0,446148
0,977500	0,1	0,488107
0,979167	0,1	0,479737
0,980833	0,1	0,441283
0,982500	0,1	0,474503
0,984167	0,1	0,477059
0,985833	0,1	0,499430
0,987500	0,1	0,462432
0,989167	0,1	0,461650
0,990833	0,1	0,468482
0,992500	0,1	0,481828
0,994167	0,1	0,509842
0,995833	0,1	0,471554
0,997500	0,1	0,480506
0,999167	0,1	0,539208
1,000833	0,1	0,527231
1,002500	0,1	0,545505
1,004167	0,1	0,538322
1,005833	0,1	0,547055
1,007500	0,1	0,583295
1,009167	0,1	0,563377
1,010833	0,1	0,578075
1,012500	0,1	0,626278
1,014167	0,1	0,630062
1,015833	0,1	0,569839
1,017500	0,1	0,662163
1,019167	0,1	0,622912
1,020833	0,1	0,668401
1,022500	0,1	0,692180
1,024167	0,1	0,674960
1,025833	0,1	0,687574
1,027500	0,1	0,704534
1,029167	0,1	0,721560
1,030833	0,1	0,727284
1,032500	0,1	0,730343
1,034167	0,1	0,770074
1,035833	0,1	0,763210
1,037500	0,1	0,780152
1,039167	0,1	0,765160
1,040833	0,1	0,799308
1,042500	0,1	0,832573
1,044167	0,1	0,787118
1,045833	0,1	0,794059
1,047500	0,1	0,835509
1,049167	0,1	0,846619
1,050833	0,1	0,881133
1,052500	0,1	0,903500
1,054167	0,1	0,887417
1,055833	0,1	0,967654
1,057500	0,1	1,033596
1,059167	0,1	1,111403
1,060833	0,1	1,160699
1,062500	0,1	1,248412
1,064167	0,1	1,464824
1,065833	0,1	1,602648
1,067500	0,1	1,846715
1,069167	0,1	2,147938
1,070833	0,1	2,520615
1,072500	0,1	2,978631
1,074167	0,1	3,575060
1,075833	0,1	4,251185
1,077500	0,1	4,990476
1,079167	0,1	5,883527
1,080833	0,1	6,856870
1,082500	0,1	8,024212
1,084167	0,1	9,291033
1,085833	0,1	10,694630
1,087500	0,1	12,170092
1,089167	0,1	13,711474
1,090833	0,1	15,393047
1,092500	0,1	17,079037
1,094167	0,1	18,778268
1,095833	0,1	20,555529
1,097500	0,1	22,326039
1,099167	0,1	23,967198
1,100833	0,1	25,529792
1,102500	0,1	27,033782
1,104167	0,1	28,420689
1,105833	0,1	29,685948
1,107500	0,1	30,794853
1,109167	0,1	31,741582
1,110833	0,1	32,565225
1,112500	0,1	33,188900
1,114167	0,1	33,631074
1,115833	0,1	33,951238
1,117500	0,1	34,161982
1,119167	0,1	34,226585
1,120833	0,1	34,133341
1,122500	0,1	33,958697
1,124167	0,1	33,634280
1,125833	0,1	33,266602
1,127500	0,1	32,798780
1,129167	0,1	32,249223
1,130833	0,1	31,682150
1,132500	0,1	31,106624
1,134167	0,1	30,515408
1,135833	0,1	29,798421
1,137500	0,1	29,168633
1,139167	0,1	28,559578
1,140833	0,1	27,918092
1,142500	0,1	27,411933
1,144167	0,1	26,858025
1,145833	0,1	26,397304
1,147500	0,1	25,932839
1,149167	0,1	25,526096
1,150833	0,1	25,197504
1,152500	0,1	24,942081
1,154167	0,1	24,724005
1,155833	0,1	24,558240
1,157500	0,1	24,473366
1,159167	0,1	24,375735
1,160833	0,1	24,362532
1,162500	0,1	24,414801
1,164167	0,1	24,463605
1,165833	0,1	24,553821
1,167500	0,1	24,659452
1,169167	0,1	24,797795
1,170833	0,1	24,918167
1,172500	0,1	25,061205
1,174167	0,1	25,197318
1,175833	0,1	25,367035
1,177500	0,1	25,503570
1,179167	0,1	25,643760
1,180833	0,1	25,732892
1,182500	0,1	25,866561
1,184167	0,1	25,935788
1,185833	0,1	26,099000
1,187500	0,1	26,238167
1,189167	0,1	26,380916
1,190833	0,1	26,523986
1,192500	0,1	26,761920
1,194167	0,1	27,016320
1,195833	0,1	27,362828
1,197500	0,1	27,810048
1,199167	0,1	28,349410
1,200833	0,1	29,060085
1,202500	0,1	29,932336
1,204167	0,1	30,976060
1,205833	0,1	32,225265
1,207500	0,1	33,752142
1,209167	0,1	35,457968
1,210833	0,1	37,460839
1,212500	0,1	39,652515
1,214167	0,1	42,149529
1,215833	0,1	44,942648
1,217500	0,1	47,901152
1,219167	0,1	51,133028
1,220833	0,1	54,598581
1,222500	0,1	58,233859
1,224167	0,1	61,969846
1,225833	0,1	65,937950
1,227500	0,1	69,952127
1,229167	0,1	73,917481
1,230833	0,1	77,975542
1,232500	0,1	81,970376
1,234167	0,1	85,894704
1,235833	0,1	89,678538
1,237500	0,1	93,373694
1,239167	0,1	96,822769
1,240833	0,1	100,045149
1,242500	0,1	103,125836
1,244167	0,1	105,906626
1,245833	0,1	108,477859
1,247500	0,1	110,772778
1,249167	0,1	112,740587
1,250833	0,1	114,449877
1,252500	0,1	115,819186
1,254167	0,1	117,003368
1,255833	0,1	117,842539
1,257500	0,1	118,363802
1,259167	0,1	118,622342
1,260833	0,1	118,564913
1,262500	0,1	118,305359
1,264167	0,1	117,813804
1,265833	0,1	117,062956
1,267500	0,1	116,056113
1,269167	0,1	114,834111
1,270833	0,1	113,458432
1,272500	0,1	111,799124
1,274167	0,1	110,068191
1,275833	0,1	108,125478
1,277500	0,1	106,044548
1,279167	0,1	103,940734
1,280833	0,1	101,593729
1,282500	0,1	99,269788
1,284167	0,1	96,777623
1,285833	0,1	94,348244
1,287500	0,1	91,847165
1,289167	0,1	89,285849
1,290833	0,1	86,778640
1,292500	0,1	84,265917
1,294167	0,1	81,781603
1,295833	0,1	79,319015
1,297500	0,1	76,847975
1,299167	0,1	74,467204
1,300833	0,1	72,257804
1,302500	0,1	69,960455
1,304167	0,1	67,742029
1,305833	0,1	65,651445
1,307500	0,1	63,655337
1,309167	0,1	61,657734
1,310833	0,1	59,782001
1,312500	0,1	58,020169
1,314167	0,1	56,304227
1,315833	0,1	54,640806
1,317500	0,1	53,092382
1,319167	0,1	51,552390
1,320833	0,1	50,130890
1,322500	0,1	48,751214
1,324167	0,1	47,514053
1,325833	0,1	46,246047
1,327500	0,1	45,067354
1,329167	0,1	43,930077
1,330833	0,1	42,847477
1,332500	0,1	41,830266
1,334167	0,1	40,806030
1,335833	0,1	39,861284
1,337500	0,1	38,929855
1,339167	0,1	38,030385
1,340833	0,1	37,174697
1,342500	0,1	36,363614
1,344167	0,1	35,558069
1,345833	0,1	34,780565
1,347500	0,1	34,035633
1,349167	0,1	33,250997
1,350833	0,1	32,568732
1,352500	0,1	31,928546
1,354167	0,1	31,257170
1,355833	0,1	30,580345
1,357500	0,1	29,955112
1,359167	0,1	29,316370
1,360833	0,1	28,685307
1,362500	0,1	28,099050
1,364167	0,1	27,531707
1,365833	0,1	27,008852
1,367500	0,1	26,406623
1,369167	0,1	25,877547
1,370833	0,1	25,323568
1,372500	0,1	24,820609
1,374167	0,1	24,329106
1,375833	0,1	23,780251
1,377500	0,1	23,330074
1,379167	0,1	22,866341
1,380833	0,1	22,388493
1,382500	0,1	21,908807
1,384167	0,1	21,475178
1,385833	0,1	21,038504
1,387500	0,1	20,677667
1,389167	0,1	20,277401
1,390833	0,1	19,813836
1,392500	0,1	19,505413
1,394167	0,1	19,103109
1,395833	0,1	18,781904
1,397500	0,1	18,443601
1,399167	0,1	18,041622
1,400833	0,1	17,808065
1,402500	0,1	17,472146
1,404167	0,1	17,201760
1,405833	0,1	16,892421
1,407500	0,1	16,626347
1,409167	0,1	16,322909
1,410833	0,1	16,066578
1,412500	0,1	15,838712
1,414167	0,1	15,556247
1,415833	0,1	15,400294
1,417500	0,1	15,145475
1,419167	0,1	14,968751
1,420833	0,1	14,739745
1,422500	0,1	14,532433
1,424167	0,1	14,306702
1,425833	0,1	14,148445
1,427500	0,1	13,927144
1,429167	0,1	13,740241
1,430833	0,1	13,557545
1,432500	0,1	13,414493
1,434167	0,1	13,213588
1,435833	0,1	13,074972
1,437500	0,1	12,900923
1,439167	0,1	12,782673
1,440833	0,1	12,569247
1,442500	0,1	12,470277
1,444167	0,1	12,272902
1,445833	0,1	12,135492
1,447500	0,1	11,967607
1,449167	0,1	11,796551
1,450833	0,1	11,661707
1,452500	0,1	11,550790
1,454167	0,1	11,397946
1,455833	0,1	11,232601
1,457500	0,1	11,109990
1,459167	0,1	11,020125
1,460833	0,1	10,845548
1,462500	0,1	10,692478
1,464167	0,1	10,603072
1,465833	0,1	10,456861
1,467500	0,1	10,336461
1,469167	0,1	10,202475
1,470833	0,1	10,096425
1,472500	0,1	10,028042
1,474167	0,1	9,878573
1,475833	0,1	9,829114
1,477500	0,1	9,717376
1,479167	0,1	9,625552
1,480833	0,1	9,536898
1,482500	0,1	9,437952
1,484167	0,1	9,373408
1,485833	0,1	9,296829
1,487500	0,1	9,220364
1,489167	0,1	9,126822
1,490833	0,1	9,078797
1,492500	0,1	9,028674
1,494167	0,1	8,955821
1,495833	0,1	8,910798
1,497500	0,1	8,881255
1,499167	0,1	8,767646
1,500833	0,1	8,722608
1,502500	0,1	8,712417
1,504167	0,1	8,622011
1,505833	0,1	8,660516
1,507500	0,1	8,620558
1,509167	0,1	8,564822
1,510833	0,1	8,516814
1,512500	0,1	8,496299
1,514167	0,1	8,446436
1,515833	0,1	8,406911
1,517500	0,1	8,365343
1,519167	0,1	8,346416
1,520833	0,1	8,380048
1,522500	0,1	8,306161
1,524167	0,1	8,251509
1,525833	0,1	8,252033
1,527500	0,1	8,161809
1,529167	0,1	8,186029
1,530833	0,1	8,178118
1,532500	0,1	8,137443
1,534167	0,1	8,085639
1,535833	0,1	8,053401
1,537500	0,1	8,061248
1,539167	0,1	8,049624
1,540833	0,1	7,999981
1,542500	0,1	7,961438
1,544167	0,1	7,953115
1,545833	0,1	7,918172
1,547500	0,1	7,890523
1,549167	0,1	7,860997
1,550833	0,1	7,815566
1,552500	0,1	7,808235
1,554167	0,1	7,688758
1,555833	0,1	7,750344
1,557500	0,1	7,713735
1,559167	0,1	7,701092
1,560833	0,1	7,628907
1,562500	0,1	7,575346
1,564167	0,1	7,558471
1,565833	0,1	7,593081
1,567500	0,1	7,532170
1,569167	0,1	7,488349
1,570833	0,1	7,447369
1,572500	0,1	7,451363
1,574167	0,1	7,397092
1,575833	0,1	7,396888
1,577500	0,1	7,332341
1,579167	0,1	7,303695
1,580833	0,1	7,266179
1,582500	0,1	7,264199
1,584167	0,1	7,228468
1,585833	0,1	7,222562
1,587500	0,1	7,153077
1,589167	0,1	7,183647
1,590833	0,1	7,119773
1,592500	0,1	7,102554
1,594167	0,1	7,057858
1,595833	0,1	7,049994
1,597500	0,1	6,988943
1,599167	0,1	6,959108
1,600833	0,1	6,981723
1,602500	0,1	6,944990
1,604167	0,1	6,926288
1,605833	0,1	6,855066
1,607500	0,1	6,852897
1,609167	0,1	6,815896
1,610833	0,1	6,822238
1,612500	0,1	6,790281
1,614167	0,1	6,787288
1,615833	0,1	6,719724
1,617500	0,1	6,675800
1,619167	0,1	6,665609
1,620833	0,1	6,660385
1,622500	0,1	6,626836
1,624167	0,1	6,620112
1,625833	0,1	6,564703
1,627500	0,1	6,575724
1,629167	0,1	6,517370
1,630833	0,1	6,513334
1,632500	0,1	6,504844
1,634167	0,1	6,466278
1,635833	0,1	6,468039
1,637500	0,1	6,424442
1,639167	0,1	6,417506
1,640833	0,1	6,389221
1,642500	0,1	6,349172
1,644167	0,1	6,339262
1,645833	0,1	6,339260
1,647500	0,1	6,282889
1,649167	0,1	6,262894
1,650833	0,1	6,253653
1,652500	0,1	6,227237
1,654167	0,1	6,237898
1,655833	0,1	6,250110
1,657500	0,1	6,173417
1,659167	0,1	6,190344
1,660833	0,1	6,191318
1,662500	0,1	6,194201
1,664167	0,1	6,171365
1,665833	0,1	6,197115
1,667500	0,1	6,194216
1,669167	0,1	6,134791
1,670833	0,1	6,184583
1,672500	0,1	6,143703
1,674167	0,1	6,166871
1,675833	0,1	6,176266
1,677500	0,1	6,157172
1,679167	0,1	6,198215
1,680833	0,1	6,176940
1,682500	0,1	6,196720
1,684167	0,1	6,258343
1,685833	0,1	6,248413
1,687500	0,1	6,278123
1,689167	0,1	6,293057
1,690833	0,1	6,302589
1,692500	0,1	6,374174
1,694167	0,1	6,392488
1,695833	0,1	6,392566
1,697500	0,1	6,473623
1,699167	0,1	6,497082
1,700833	0,1	6,496805
1,702500	0,1	6,561803
1,704167	0,1	6,559850
1,705833	0,1	6,615718
1,707500	0,1	6,694192
1,709167	0,1	6,748307
1,710833	0,1	6,782790
1,712500	0,1	6,856154
1,714167	0,1	6,836170
1,715833	0,1	6,885603
1,717500	0,1	6,910758
1,719167	0,1	6,996574
1,720833	0,1	7,041656
1,722500	0,1	7,047837
1,724167	0,1	7,078599
1,725833	0,1	7,112461
1,727500	0,1	7,179508
1,729167	0,1	7,167186
1,730833	0,1	7,225450
1,732500	0,1	7,196479
1,734167	0,1	7,262864
1,735833	0,1	7,220243
1,737500	0,1	7,292257
1,739167	0,1	7,298727
1,740833	0,1	7,329227
1,742500	0,1	7,311464
1,744167	0,1	7,329141
1,745833	0,1	7,297430
1,747500	0,1	7,327163
1,749167	0,1	7,288828
1,750833	0,1	7,279926
1,752500	0,1	7,287681
1,754167	0,1	7,228198
1,755833	0,1	7,268581
1,757500	0,1	7,243902
1,759167	0,1	7,177871
1,760833	0,1	7,143530
1,762500	0,1	7,126591
1,764167	0,1	7,120045
1,765833	0,1	7,070765
1,767500	0,1	7,034102
1,769167	0,1	7,006701
1,770833	0,1	6,949110
1,772500	0,1	6,897874
1,774167	0,1	6,844499
1,775833	0,1	6,772157
1,777500	0,1	6,779429
1,779167	0,1	6,681516
1,780833	0,1	6,634326
1,782500	0,1	6,591817
1,784167	0,1	6,522687
1,785833	0,1	6,529220
1,787500	0,1	6,411012
1,789167	0,1	6,369063
1,790833	0,1	6,323775
1,792500	0,1	6,244814
1,794167	0,1	6,165115
1,795833	0,1	6,135875
1,797500	0,1	6,067002
1,799167	0,1	5,969995
1,800833	0,1	5,961201
1,802500	0,1	5,922271
1,804167	0,1	5,798839
1,805833	0,1	5,741509
1,807500	0,1	5,744176
1,809167	0,1	5,688492
1,810833	0,1	5,581433
1,812500	0,1	5,577100
1,814167	0,1	5,458057
1,815833	0,1	5,458462
1,817500	0,1	5,394759
1,819167	0,1	5,333989
1,820833	0,1	5,243715
1,822500	0,1	5,179316
1,824167	0,1	5,135048
1,825833	0,1	5,125374
1,827500	0,1	5,041721
1,829167	0,1	5,031223
1,830833	0,1	5,001681
1,832500	0,1	4,905555
1,834167	0,1	4,873822
1,835833	0,1	4,831300
1,837500	0,1	4,806282
1,839167	0,1	4,801783
1,840833	0,1	4,783887
1,842500	0,1	4,708500
1,844167	0,1	4,692775
1,845833	0,1	4,721497
1,847500	0,1	4,743872
1,849167	0,1	4,748117
1,850833	0,1	4,753143
1,852500	0,1	4,783726
1,854167	0,1	4,828023
1,855833	0,1	4,872846
1,857500	0,1	4,889957
1,859167	0,1	4,945716
1,860833	0,1	4,984496
1,862500	0,1	5,015262
1,864167	0,1	5,068235
1,865833	0,1	5,150149
1,867500	0,1	5,161668
1,869167	0,1	5,208565
1,870833	0,1	5,304696
1,872500	0,1	5,323094
1,874167	0,1	5,367909
1,875833	0,1	5,441730
1,877500	0,1	5,453006
1,879167	0,1	5,560372
1,880833	0,1	5,570814
1,882500	0,1	5,628957
1,884167	0,1	5,661003
1,885833	0,1	5,708112
1,887500	0,1	5,778488
1,889167	0,1	5,799335
1,890833	0,1	5,838937
1,892500	0,1	5,888235
1,894167	0,1	5,912061
1,895833	0,1	5,948130
1,897500	0,1	5,991036
1,899167	0,1	5,997499
1,900833	0,1	6,006450
1,902500	0,1	6,069595
1,904167	0,1	6,111803
1,905833	0,1	6,147449
1,907500	0,1	6,143643
1,909167	0,1	6,160993
1,910833	0,1	6,181797
1,912500	0,1	6,215294
1,914167	0,1	6,176291
1,915833	0,1	6,222556
1,917500	0,1	6,230023
1,919167	0,1	6,222761
1,920833	0,1	6,217421
1,922500	0,1	6,227714
1,924167	0,1	6,255163
1,925833	0,1	6,244627
1,927500	0,1	6,205701
1,929167	0,1	6,160983
1,930833	0,1	6,148449
1,932500	0,1	6,150713
1,934167	0,1	6,143439
1,935833	0,1	6,166501
1,937500	0,1	6,105076
1,939167	0,1	6,092310
1,940833	0,1	6,058708
1,942500	0,1	6,042940
1,944167	0,1	6,004130
1,945833	0,1	5,936565
1,947500	0,1	5,957412
1,949167	0,1	5,921660
1,950833	0,1	5,888432
1,952500	0,1	5,888264
1,954167	0,1	5,827000
1,955833	0,1	5,814233
1,957500	0,1	5,807615
1,959167	0,1	5,721568
1,960833	0,1	5,705499
1,962500	0,1	5,682113
1,964167	0,1	5,659080
1,965833	0,1	5,658772
1,967500	0,1	5,601972
1,969167	0,1	5,547668
1,970833	0,1	5,529287
1,972500	0,1	5,518630
1,974167	0,1	5,471588
1,975833	0,1	5,428822
1,977500	0,1	5,388561
1,979167	0,1	5,404372
1,980833	0,1	5,346044
1,982500	0,1	5,341406
1,984167	0,1	5,322438
1,985833	0,1	5,297553
1,987500	0,1	5,195564
1,989167	0,1	5,192285
1,990833	0,1	5,201995
1,992500	0,1	5,201656
1,994167	0,1	5,162898
1,995833	0,1	5,158017
1,997500	0,1	5,112207
1,999167	0,1	5,123639
2,000833	0,1	5,057386
2,002500	0,1	5,060258
2,004167	0,1	5,054338
2,005833	0,1	5,048164
2,007500	0,1	5,009330
2,009167	0,1	4,997028
2,010833	0,1	5,006232
2,012500	0,1	4,998190
2,014167	0,1	4,979498
2,015833	0,1	4,973631
2,017500	0,1	4,923709
2,019167	0,1	4,936830
2,020833	0,1	4,923409
2,022500	0,1	4,923237
2,024167	0,1	4,924203
2,025833	0,1	4,902258
2,027500	0,1	4,925445
2,029167	0,1	4,932615
2,030833	0,1	4,897756
2,032500	0,1	4,898429
2,034167	0,1	4,900268
2,035833	0,1	4,926495
2,037500	0,1	4,921514
2,039167	0,1	4,941136
2,040833	0,1	4,895351
2,042500	0,1	4,904710
2,044167	0,1	4,934165
2,045833	0,1	4,938472
2,047500	0,1	4,930350
2,049167	0,1	4,977750
2,050833	0,1	4,952475
2,052500	0,1	4,940323
2,054167	0,1	4,979400
2,055833	0,1	5,003792
2,057500	0,1	5,015351
2,059167	0,1	4,997910
2,060833	0,1	5,011272
2,062500	0,1	5,007082
2,064167	0,1	5,067272
2,065833	0,1	5,025281
2,067500	0,1	5,051641
2,069167	0,1	5,068983
2,070833	0,1	5,076323
2,072500	0,1	5,035083
2,074167	0,1	5,093536
2,075833	0,1	5,085194
2,077500	0,1	5,101680
2,079167	0,1	5,092419
2,080833	0,1	5,138196
2,082500	0,1	5,134127
2,084167	0,1	5,109396
2,085833	0,1	5,136416
2,087500	0,1	5,140957
2,089167	0,1	5,131210
2,090833	0,1	5,155799
2,092500	0,1	5,126738
2,094167	0,1	5,148999
2,095833	0,1	5,153054
2,097500	0,1	5,185469
2,099167	0,1	5,151791
2,100833	0,1	5,144048
2,102500	0,1	5,175806
2,104167	0,1	5,226756
2,105833	0,1	5,206027
2,107500	0,1	5,197212
2,109167	0,1	5,182901
2,110833	0,1	5,216924
2,112500	0,1	5,182115
2,114167	0,1	5,171510
2,115833	0,1	5,156801
2,117500	0,1	5,167107
2,119167	0,1	5,238341
2,120833	0,1	5,161973
2,122500	0,1	5,198249
2,124167	0,1	5,196929
2,125833	0,1	5,156921
2,127500	0,1	5,130847
2,129167	0,1	5,199769
2,130833	0,1	5,159104
2,132500	0,1	5,161023
2,134167	0,1	5,184051
2,135833	0,1	5,135500
2,137500	0,1	5,138887
2,139167	0,1	5,125175
2,140833	0,1	5,131633
2,142500	0,1	5,144494
2,144167	0,1	5,136764
2,145833	0,1	5,126393
2,147500	0,1	5,117409
2,149167	0,1	5,064947
2,150833	0,1	5,070514
2,152500	0,1	5,036611
2,154167	0,1	5,103338
2,155833	0,1	5,063896
2,157500	0,1	5,061450
2,159167	0,1	5,056380
2,160833	0,1	5,006557
2,162500	0,1	5,011672
2,164167	0,1	5,003800
2,165833	0,1	5,027051
2,167500	0,1	5,054190
2,169167	0,1	5,014571
2,170833	0,1	4,971119
2,172500	0,1	4,998381
2,174167	0,1	4,979298
2,175833	0,1	4,973860
2,177500	0,1	4,973092
2,179167	0,1	4,962304
2,180833	0,1	4,912435
2,182500	0,1	4,925616
2,184167	0,1	4,940860
2,185833	0,1	4,896518
2,187500	0,1	4,889764
2,189167	0,1	4,906588
2,190833	0,1	4,871899
2,192500	0,1	4,898539
2,194167	0,1	4,903334
2,195833	0,1	4,903903
2,197500	0,1	4,851188
2,199167	0,1	4,849695
2,200833	0,1	4,824099
2,202500	0,1	4,850990
2,204167	0,1	4,851312
2,205833	0,1	4,799475
2,207500	0,1	4,826976
2,209167	0,1	4,824946
2,210833	0,1	4,834762
2,212500	0,1	4,793494
2,214167	0,1	4,817091
2,215833	0,1	4,837849
2,217500	0,1	4,800207
2,219167	0,1	4,832635
2,220833	0,1	4,820957
2,222500	0,1	4,809916
2,224167	0,1	4,777193
2,225833	0,1	4,818389
2,227500	0,1	4,852658
2,229167	0,1	4,803915
2,230833	0,1	4,835009
2,232500	0,1	4,829640
2,234167	0,1	4,812259
2,235833	0,1	4,837481
2,237500	0,1	4,857536
2,239167	0,1	4,897379
2,240833	0,1	4,817367
2,242500	0,1	4,847364
2,244167	0,1	4,888933
2,245833	0,1	4,894014
2,247500	0,1	4,859640
2,249167	0,1	4,879084
2,250833	0,1	4,896587
2,252500	0,1	4,869103
2,254167	0,1	4,913462
2,255833	0,1	4,920659
2,257500	0,1	4,857294
2,259167	0,1	4,899355
2,260833	0,1	4,875270
2,262500	0,1	4,888655
2,264167	0,1	4,876717
2,265833	0,1	4,884916
2,267500	0,1	4,882829
2,269167	0,1	4,895337
2,270833	0,1	4,858137
2,272500	0,1	4,822734
2,274167	0,1	4,850222
2,275833	0,1	4,846039
2,277500	0,1	4,831576
2,279167	0,1	4,788051
2,280833	0,1	4,842097
2,282500	0,1	4,789822
2,284167	0,1	4,769028
2,285833	0,1	4,777068
2,287500	0,1	4,770944
2,289167	0,1	4,728911
2,290833	0,1	4,770914
2,292500	0,1	4,703856
2,294167	0,1	4,693161
2,295833	0,1	4,698565
2,297500	0,1	4,703006
2,299167	0,1	4,654689
2,300833	0,1	4,653196
2,302500	0,1	4,639741
2,304167	0,1	4,604996
2,305833	0,1	4,573479
2,307500	0,1	4,585953
2,309167	0,1	4,584455
2,310833	0,1	4,546949
2,312500	0,1	4,498827
2,314167	0,1	4,459339
2,315833	0,1	4,489744
2,317500	0,1	4,474219
2,319167	0,1	4,427943
2,320833	0,1	4,447080
2,322500	0,1	4,415582
2,324167	0,1	4,421101
2,325833	0,1	4,346132
2,327500	0,1	4,347254
2,329167	0,1	4,353105
2,330833	0,1	4,295104
2,332500	0,1	4,306756
2,334167	0,1	4,281315
2,335833	0,1	4,297322
2,337500	0,1	4,247417
2,339167	0,1	4,205547
2,340833	0,1	4,208871
2,342500	0,1	4,178352
2,344167	0,1	4,201750
2,345833	0,1	4,153523
2,347500	0,1	4,108167
2,349167	0,1	4,159517
2,350833	0,1	4,161234
2,352500	0,1	4,056458
2,354167	0,1	4,044611
2,355833	0,1	4,071579
2,357500	0,1	4,013694
2,359167	0,1	4,026154
2,360833	0,1	4,029289
2,362500	0,1	4,011619
2,364167	0,1	4,003940
2,365833	0,1	3,976680
2,367500	0,1	3,982316
2,369167	0,1	3,979514
2,370833	0,1	3,981153
2,372500	0,1	3,952675
2,374167	0,1	3,947618
2,375833	0,1	3,972527
2,377500	0,1	3,972693
2,379167	0,1	3,995358
2,380833	0,1	3,989149
2,382500	0,1	4,035531
2,384167	0,1	4,013081
2,385833	0,1	4,015051
2,387500	0,1	4,086602
2,389167	0,1	4,088328
2,390833	0,1	4,131393
2,392500	0,1	4,148063
2,394167	0,1	4,240961
2,395833	0,1	4,262522
2,397500	0,1	4,298295
2,399167	0,1	4,384519
2,400833	0,1	4,461106
2,402500	0,1	4,513414
2,404167	0,1	4,659352
2,405833	0,1	4,711391
2,407500	0,1	4,766506
2,409167	0,1	4,933818
2,410833	0,1	5,029497
2,412500	0,1	5,165548
2,414167	0,1	5,366184
2,415833	0,1	5,488874
2,417500	0,1	5,636307
2,419167	0,1	5,823693
2,420833	0,1	5,957265
2,422500	0,1	6,140576
2,424167	0,1	6,345211
2,425833	0,1	6,575017
2,427500	0,1	6,782285
2,429167	0,1	6,978875
2,430833	0,1	7,241497
2,432500	0,1	7,446728
2,434167	0,1	7,727150
2,435833	0,1	7,957799
2,437500	0,1	8,193119
2,439167	0,1	8,460864
2,440833	0,1	8,706539
2,442500	0,1	8,979278
2,444167	0,1	9,196992
2,445833	0,1	9,467688
2,447500	0,1	9,720899
2,449167	0,1	10,001871
2,450833	0,1	10,235741
2,452500	0,1	10,546056
2,454167	0,1	10,762144
2,455833	0,1	11,024400
2,457500	0,1	11,277206
2,459167	0,1	11,522355
2,460833	0,1	11,793607
2,462500	0,1	12,002573
2,464167	0,1	12,216378
2,465833	0,1	12,486312
2,467500	0,1	12,688504
2,469167	0,1	12,973231
2,470833	0,1	13,181254
2,472500	0,1	13,501952
2,474167	0,1	13,702906
2,475833	0,1	13,967322
2,477500	0,1	14,191229
2,479167	0,1	14,468256
2,480833	0,1	14,746274
2,482500	0,1	15,038530
2,484167	0,1	15,354555
2,485833	0,1	15,653720
2,487500	0,1	16,000127
2,489167	0,1	16,364602
2,490833	0,1	16,700650
2,492500	0,1	17,177379
2,494167	0,1	17,610906
2,495833	0,1	18,054320
2,497500	0,1	18,505796
2,499167	0,1	19,082682
2,500833	0,1	19,644881
2,502500	0,1	20,256227
2,504167	0,1	20,911003
2,505833	0,1	21,631158
2,507500	0,1	22,387733
2,509167	0,1	23,143516
2,510833	0,1	24,046738
2,512500	0,1	24,947696
2,514167	0,1	25,936411
2,515833	0,1	26,890618
2,517500	0,1	27,958422
2,519167	0,1	29,078241
2,520833	0,1	30,248871
2,522500	0,1	31,500680
2,524167	0,1	32,779364
2,525833	0,1	34,114112
2,527500	0,1	35,479707
2,529167	0,1	36,987061
2,530833	0,1	38,494967
2,532500	0,1	40,019496
2,534167	0,1	41,599388
2,535833	0,1	43,204035
2,537500	0,1	44,896200
2,539167	0,1	46,659957
2,540833	0,1	48,390623
2,542500	0,1	50,137736
2,544167	0,1	51,907865
2,545833	0,1	53,693085
2,547500	0,1	55,587475
2,549167	0,1	57,351407
2,550833	0,1	59,198897
2,552500	0,1	61,026522
2,554167	0,1	62,864875
2,555833	0,1	64,700985
2,557500	0,1	66,509717
2,559167	0,1	68,260540
2,560833	0,1	70,059852
2,562500	0,1	71,783158
2,564167	0,1	73,456072
2,565833	0,1	75,139994
2,567500	0,1	76,752739
2,569167	0,1	78,353199
2,570833	0,1	79,857031
2,572500	0,1	81,397315
2,574167	0,1	82,777970
2,575833	0,1	84,139895
2,577500	0,1	85,406542
2,579167	0,1	86,691770
2,580833	0,1	87,842421
2,582500	0,1	88,961662
2,584167	0,1	90,035368
2,585833	0,1	91,065187
2,587500	0,1	91,973828
2,589167	0,1	92,807321
2,590833	0,1	93,576718
2,592500	0,1	94,320289
2,594167	0,1	94,983867
2,595833	0,1	95,532513
2,597500	0,1	96,082736
2,599167	0,1	96,498924
2,600833	0,1	96,965937
2,602500	0,1	97,241033
2,604167	0,1	97,481558
2,605833	0,1	97,665934
2,607500	0,1	97,910745
2,609167	0,1	97,949605
2,610833	0,1	97,954380
2,612500	0,1	97,952255
2,614167	0,1	97,904452
2,615833	0,1	97,774680
2,617500	0,1	97,616888
2,619167	0,1	97,335273
2,620833	0,1	97,066673
2,622500	0,1	96,801623
2,624167	0,1	96,389206
2,625833	0,1	96,000610
2,627500	0,1	95,501974
2,629167	0,1	95,039446
2,630833	0,1	94,530058
2,632500	0,1	93,960441
2,634167	0,1	93,323972
2,635833	0,1	92,697088
2,637500	0,1	92,024859
2,639167	0,1	91,329402
2,640833	0,1	90,562161
2,642500	0,1	89,777977
2,644167	0,1	88,993384
2,645833	0,1	88,152371
2,647500	0,1	87,302949
2,649167	0,1	86,438207
2,650833	0,1	85,495323
2,652500	0,1	84,623349
2,654167	0,1	83,664589
2,655833	0,1	82,681289
2,657500	0,1	81,740295
2,659167	0,1	80,728445
2,660833	0,1	79,664842
2,662500	0,1	78,678270
2,664167	0,1	77,660038
2,665833	0,1	76,636898
2,667500	0,1	75,564907
2,669167	0,1	74,478280
2,670833	0,1	73,393974
2,672500	0,1	72,255154
2,674167	0,1	71,184309
2,675833	0,1	70,092866
2,677500	0,1	69,029987
2,679167	0,1	67,918782
2,680833	0,1	66,817383
2,682500	0,1	65,691846
2,684167	0,1	64,633845
2,685833	0,1	63,541881
2,687500	0,1	62,455082
2,689167	0,1	61,341472
2,690833	0,1	60,359532
2,692500	0,1	59,224413
2,694167	0,1	58,180963
2,695833	0,1	57,112203
2,697500	0,1	56,103143
2,699167	0,1	55,036066
2,700833	0,1	54,005744
2,702500	0,1	53,030077
2,704167	0,1	51,991480
2,705833	0,1	51,037755
2,707500	0,1	50,050082
2,709167	0,1	49,086112
2,710833	0,1	48,134667
2,712500	0,1	47,222412
2,714167	0,1	46,270785
2,715833	0,1	45,368641
2,717500	0,1	44,508735
2,719167	0,1	43,642241
2,720833	0,1	42,733074
2,722500	0,1	41,902827
2,724167	0,1	41,081427
2,725833	0,1	40,261503
2,727500	0,1	39,490395
2,729167	0,1	38,685098
2,730833	0,1	37,898911
2,732500	0,1	37,216750
2,734167	0,1	36,470555
2,735833	0,1	35,760358
2,737500	0,1	35,080024
2,739167	0,1	34,370611
2,740833	0,1	33,664819
2,742500	0,1	33,011136
2,744167	0,1	32,395576
2,745833	0,1	31,757551
2,747500	0,1	31,122422
2,749167	0,1	30,550157
2,750833	0,1	30,025749
2,752500	0,1	29,395470
2,754167	0,1	28,856645
2,755833	0,1	28,301139
2,757500	0,1	27,787344
2,759167	0,1	27,272808
2,760833	0,1	26,760361
2,762500	0,1	26,285390
2,764167	0,1	25,778178
2,765833	0,1	25,308986
2,767500	0,1	24,843381
2,769167	0,1	24,362229
2,770833	0,1	23,945486
2,772500	0,1	23,542754
2,774167	0,1	23,107904
2,775833	0,1	22,736234
2,777500	0,1	22,293581
2,779167	0,1	21,916969
2,780833	0,1	21,541107
2,782500	0,1	21,200275
2,784167	0,1	20,738809
2,785833	0,1	20,399809
2,787500	0,1	20,075596
2,789167	0,1	19,715372
2,790833	0,1	19,381713
2,792500	0,1	19,040620
2,794167	0,1	18,733249
2,795833	0,1	18,406436
2,797500	0,1	18,099916
2,799167	0,1	17,784797
2,800833	0,1	17,452030
2,802500	0,1	17,162292
2,804167	0,1	16,896668
2,805833	0,1	16,588453
2,807500	0,1	16,312604
2,809167	0,1	16,037565
2,810833	0,1	15,811723
2,812500	0,1	15,509665
2,814167	0,1	15,254463
2,815833	0,1	15,022524
2,817500	0,1	14,769230
2,819167	0,1	14,539904
2,820833	0,1	14,313437
2,822500	0,1	14,057498
2,824167	0,1	13,858596
2,825833	0,1	13,566998
2,827500	0,1	13,383283
2,829167	0,1	13,175921
2,830833	0,1	12,973590
2,832500	0,1	12,753209
2,834167	0,1	12,554608
2,835833	0,1	12,368860
2,837500	0,1	12,157602
2,839167	0,1	11,975753
2,840833	0,1	11,807340
2,842500	0,1	11,563462
2,844167	0,1	11,418143
2,845833	0,1	11,210411
2,847500	0,1	11,088609
2,849167	0,1	10,929574
2,850833	0,1	10,725820
2,852500	0,1	10,596098
2,854167	0,1	10,395475
2,855833	0,1	10,246237
2,857500	0,1	10,103099
2,859167	0,1	9,995005
2,860833	0,1	9,837025
2,862500	0,1	9,688918
2,864167	0,1	9,551089
2,865833	0,1	9,417825
2,867500	0,1	9,266334
2,869167	0,1	9,144619
2,870833	0,1	8,992367
2,872500	0,1	8,850794
2,874167	0,1	8,776126
2,875833	0,1	8,655248
2,877500	0,1	8,569326
2,879167	0,1	8,473685
2,880833	0,1	8,335898
2,882500	0,1	8,243900
2,884167	0,1	8,130754
2,885833	0,1	8,012350
2,887500	0,1	7,941472
2,889167	0,1	7,785611
2,890833	0,1	7,690996
2,892500	0,1	7,578523
2,894167	0,1	7,522548
2,895833	0,1	7,429868
2,897500	0,1	7,364148
2,899167	0,1	7,250004
2,900833	0,1	7,159163
2,902500	0,1	7,073205
2,904167	0,1	7,016431
2,905833	0,1	6,960237
2,907500	0,1	6,854516
2,909167	0,1	6,780761
2,910833	0,1	6,721789
2,912500	0,1	6,629391
2,914167	0,1	6,561369
2,915833	0,1	6,548383
2,917500	0,1	6,452381
2,919167	0,1	6,433883
2,920833	0,1	6,290571
2,922500	0,1	6,248735
2,924167	0,1	6,191512
2,925833	0,1	6,117326
2,927500	0,1	6,012355
2,929167	0,1	6,015505
2,930833	0,1	5,978885
2,932500	0,1	5,896151
2,934167	0,1	5,839983
2,935833	0,1	5,814535
2,937500	0,1	5,717090
2,939167	0,1	5,672768
2,940833	0,1	5,634784
2,942500	0,1	5,550459
2,944167	0,1	5,521896
2,945833	0,1	5,450982
2,947500	0,1	5,414411
2,949167	0,1	5,408989
2,950833	0,1	5,350548
2,952500	0,1	5,306772
2,954167	0,1	5,245149
2,955833	0,1	5,247913
2,957500	0,1	5,123616
2,959167	0,1	5,099024
2,960833	0,1	5,089927
2,962500	0,1	5,069558
2,964167	0,1	5,008260
2,965833	0,1	5,029377
2,967500	0,1	4,965574
2,969167	0,1	4,908674
2,970833	0,1	4,870315
2,972500	0,1	4,825387
2,974167	0,1	4,809235
2,975833	0,1	4,750285
2,977500	0,1	4,728823
2,979167	0,1	4,719938
2,980833	0,1	4,679995
2,982500	0,1	4,681555
2,984167	0,1	4,621727
2,985833	0,1	4,560293
2,987500	0,1	4,550362
2,989167	0,1	4,551934
2,990833	0,1	4,486713
2,992500	0,1	4,477553
2,994167	0,1	4,424850
2,995833	0,1	4,432926
2,997500	0,1	4,384797
2,999167	0,1	4,369701
3,000833	0,1	4,344982
3,002500	0,1	4,283721
3,004167	0,1	4,245827
3,005833	0,1	4,269514
3,007500	0,1	4,241558
3,009167	0,1	4,202621
3,010833	0,1	4,179044
3,012500	0,1	4,158514
3,014167	0,1	4,146972
3,015833	0,1	4,116707
3,017500	0,1	4,088496
3,019167	0,1	4,085487
3,020833	0,1	4,061678
3,022500	0,1	4,035629
3,024167	0,1	4,009714
3,025833	0,1	3,994601
3,027500	0,1	3,981387
3,029167	0,1	3,934527
3,030833	0,1	3,947250
3,032500	0,1	3,937358
3,034167	0,1	3,926103
3,035833	0,1	3,865596
3,037500	0,1	3,872569
3,039167	0,1	3,817019
3,040833	0,1	3,815105
3,042500	0,1	3,792812
3,044167	0,1	3,756099
3,045833	0,1	3,754080
3,047500	0,1	3,733151
3,049167	0,1	3,708533
3,050833	0,1	3,712994
3,052500	0,1	3,610532
3,054167	0,1	3,615624
3,055833	0,1	3,640507
3,057500	0,1	3,573715
3,059167	0,1	3,545601
3,060833	0,1	3,579248
3,062500	0,1	3,537472
3,064167	0,1	3,544812
3,065833	0,1	3,513575
3,067500	0,1	3,488044
3,069167	0,1	3,507563
3,070833	0,1	3,471088
3,072500	0,1	3,456565
3,074167	0,1	3,443143
3,075833	0,1	3,429326
3,077500	0,1	3,401309
3,079167	0,1	3,371347
3,080833	0,1	3,365160
3,082500	0,1	3,372584
3,084167	0,1	3,326513
3,085833	0,1	3,335727
3,087500	0,1	3,304650
3,089167	0,1	3,295846
3,090833	0,1	3,301550
3,092500	0,1	3,295846
3,094167	0,1	3,257684
3,095833	0,1	3,252804
3,097500	0,1	3,258238
3,099167	0,1	3,240094
3,100833	0,1	3,245510
3,102500	0,1	3,226377
3,104167	0,1	3,190672
3,105833	0,1	3,205849
3,107500	0,1	3,203488
3,109167	0,1	3,186719
3,110833	0,1	3,215083
3,112500	0,1	3,167948
3,114167	0,1	3,180910
3,115833	0,1	3,175457
3,117500	0,1	3,144664
3,119167	0,1	3,107496
3,120833	0,1	3,202720
3,122500	0,1	3,153617
3,124167	0,1	3,161122
3,125833	0,1	3,149621
3,127500	0,1	3,184739
3,129167	0,1	3,149283
3,130833	0,1	3,165279
3,132500	0,1	3,169099
3,134167	0,1	3,188198
3,135833	0,1	3,169392
3,137500	0,1	3,144681
3,139167	0,1	3,182525
3,140833	0,1	3,194611
3,142500	0,1	3,207129
3,144167	0,1	3,180784
3,145833	0,1	3,184594
3,147500	0,1	3,199667
3,149167	0,1	3,217645
3,150833	0,1	3,212896
3,152500	0,1	3,241346
3,154167	0,1	3,212866
3,155833	0,1	3,251684
3,157500	0,1	3,218036
3,159167	0,1	3,203855
3,160833	0,1	3,219858
3,162500	0,1	3,202996
3,164167	0,1	3,268088
3,165833	0,1	3,215431
3,167500	0,1	3,228218
3,169167	0,1	3,235491
3,170833	0,1	3,229808
3,172500	0,1	3,214103
3,174167	0,1	3,217915
3,175833	0,1	3,255389
3,177500	0,1	3,208919
3,179167	0,1	3,214844
3,180833	0,1	3,206621
3,182500	0,1	3,262558
3,184167	0,1	3,234432
3,185833	0,1	3,214238
3,187500	0,1	3,219212
3,189167	0,1	3,161061
3,190833	0,1	3,210536
3,192500	0,1	3,215606
3,194167	0,1	3,233137
3,195833	0,1	3,203057
3,197500	0,1	3,203202
3,199167	0,1	3,170273
3,200833	0,1	3,188826
3,202500	0,1	3,150218
3,204167	0,1	3,146813
3,205833	0,1	3,101640
3,207500	0,1	3,134269
3,209167	0,1	3,121038
3,210833	0,1	3,087426
3,212500	0,1	3,072006
3,214167	0,1	3,103264
3,215833	0,1	3,059856
3,217500	0,1	3,092388
3,219167	0,1	3,056713
3,220833	0,1	3,064217
3,222500	0,1	3,002271
3,224167	0,1	3,004908
3,225833	0,1	2,964003
3,227500	0,1	2,947346
3,229167	0,1	3,003944
3,230833	0,1	2,913209
3,232500	0,1	2,906207
3,234167	0,1	2,865940
3,235833	0,1	2,869970
3,237500	0,1	2,886524
3,239167	0,1	2,812948
3,240833	0,1	2,825369
3,242500	0,1	2,833000
3,244167	0,1	2,814854
3,245833	0,1	2,747027
3,247500	0,1	2,776661
3,249167	0,1	2,723829
3,250833	0,1	2,743817
3,252500	0,1	2,718138
3,254167	0,1	2,666306
3,255833	0,1	2,628079
3,257500	0,1	2,642749
3,259167	0,1	2,670878
3,260833	0,1	2,664694
3,262500	0,1	2,608683
3,264167	0,1	2,587816
3,265833	0,1	2,527212
3,267500	0,1	2,572882
3,269167	0,1	2,556988
3,270833	0,1	2,502299
3,272500	0,1	2,494795
3,274167	0,1	2,455441
3,275833	0,1	2,470688
3,277500	0,1	2,456005
3,279167	0,1	2,428234
3,280833	0,1	2,378734
3,282500	0,1	2,406345
3,284167	0,1	2,400451
3,285833	0,1	2,363178
3,287500	0,1	2,349648
3,289167	0,1	2,342237
3,290833	0,1	2,279655
3,292500	0,1	2,322582
3,294167	0,1	2,295766
3,295833	0,1	2,255625
3,297500	0,1	2,268489
3,299167	0,1	2,242815
3,300833	0,1	2,241373
3,302500	0,1	2,228713
3,304167	0,1	2,188224
3,305833	0,1	2,214029
3,307500	0,1	2,140621
3,309167	0,1	2,158650
3,310833	0,1	2,172316
3,312500	0,1	2,118680
3,314167	0,1	2,116511
3,315833	0,1	2,127943
3,317500	0,1	2,147934
3,319167	0,1	2,089846
3,320833	0,1	2,093138
3,322500	0,1	2,085375
3,324167	0,1	2,044537
3,325833	0,1	2,055744
3,327500	0,1	2,040001
3,329167	0,1	2,002912
3,330833	0,1	2,066808
3,332500	0,1	2,032383
3,334167	0,1	2,038420
3,335833	0,1	2,004272
3,337500	0,1	1,998304
3,339167	0,1	1,991898
3,340833	0,1	2,001892
3,342500	0,1	1,993633
3,344167	0,1	1,975370
3,345833	0,1	1,952153
3,347500	0,1	1,996709
3,349167	0,1	1,995566
3,350833	0,1	1,985578
3,352500	0,1	1,958913
3,354167	0,1	1,917147
3,355833	0,1	1,969382
3,357500	0,1	1,962926
3,359167	0,1	1,931732
3,360833	0,1	1,932593
3,362500	0,1	1,968823
3,364167	0,1	1,955314
3,365833	0,1	1,937484
3,367500	0,1	1,917931
3,369167	0,1	1,882206
3,370833	0,1	1,953066
3,372500	0,1	1,945821
3,374167	0,1	1,942585
3,375833	0,1	1,942369
3,377500	0,1	1,936116
3,379167	0,1	1,917358
3,380833	0,1	1,918425
3,382500	0,1	1,893070
3,384167	0,1	1,900168
3,385833	0,1	1,887171
3,387500	0,1	1,870706
3,389167	0,1	1,895352
3,390833	0,1	1,868403
3,392500	0,1	1,888092
3,394167	0,1	1,915402
3,395833	0,1	1,874675
3,397500	0,1	1,865459
3,399167	0,1	1,893417
3,400833	0,1	1,834696
3,402500	0,1	1,872057
3,404167	0,1	1,894349
3,405833	0,1	1,881501
3,407500	0,1	1,909735
3,409167	0,1	1,850241
3,410833	0,1	1,891756
3,412500	0,1	1,868983
3,414167	0,1	1,833194
3,415833	0,1	1,859922
3,417500	0,1	1,886013
3,419167	0,1	1,832908
3,420833	0,1	1,875584
3,422500	0,1	1,873012
3,424167	0,1	1,870566
3,425833	0,1	1,878690
3,427500	0,1	1,850520
3,429167	0,1	1,866676
3,430833	0,1	1,872939
3,432500	0,1	1,855546
3,434167	0,1	1,870487
3,435833	0,1	1,874880
3,437500	0,1	1,899305
3,439167	0,1	1,855968
3,440833	0,1	1,885502
3,442500	0,1	1,848076
3,444167	0,1	1,900093
3,445833	0,1	1,877251
3,447500	0,1	1,889180
3,449167	0,1	1,891119
3,450833	0,1	1,901835
3,452500	0,1	1,866324
3,454167	0,1	1,931434
3,455833	0,1	1,957606
3,457500	0,1	1,938855
3,459167	0,1	1,932952
3,460833	0,1	1,953504
3,462500	0,1	1,971190
3,464167	0,1	1,971044
3,465833	0,1	2,022666
3,467500	0,1	1,954394
3,469167	0,1	2,004899
3,470833	0,1	2,002324
3,472500	0,1	2,031154
3,474167	0,1	2,054808
3,475833	0,1	2,075231
3,477500	0,1	2,038068
3,479167	0,1	2,073211
3,480833	0,1	2,083503
3,482500	0,1	2,115784
3,484167	0,1	2,164037
3,485833	0,1	2,105018
3,487500	0,1	2,147208
3,489167	0,1	2,140530
3,490833	0,1	2,199348
3,492500	0,1	2,170313
3,494167	0,1	2,236246
3,495833	0,1	2,239860
3,497500	0,1	2,252158
3,499167	0,1	2,233177
3,500833	0,1	2,294449
3,502500	0,1	2,314243
3,504167	0,1	2,306115
3,505833	0,1	2,334319
3,507500	0,1	2,327986
3,509167	0,1	2,375761
3,510833	0,1	2,377561
3,512500	0,1	2,383828
3,514167	0,1	2,379079
3,515833	0,1	2,391094
3,517500	0,1	2,439578
3,519167	0,1	2,413619
3,520833	0,1	2,404046
3,522500	0,1	2,487726
3,524167	0,1	2,513799
3,525833	0,1	2,487173
3,527500	0,1	2,471990
3,529167	0,1	2,501264
3,530833	0,1	2,524026
3,532500	0,1	2,496095
3,534167	0,1	2,513795
3,535833	0,1	2,518192
3,537500	0,1	2,557549
3,539167	0,1	2,556204
3,540833	0,1	2,559090
3,542500	0,1	2,551008
3,544167	0,1	2,553956
3,545833	0,1	2,583252
3,547500	0,1	2,548576
3,549167	0,1	2,578290
3,550833	0,1	2,545772
3,552500	0,1	2,549283
3,554167	0,1	2,565756
3,555833	0,1	2,591243
3,557500	0,1	2,559074
3,559167	0,1	2,562830
3,560833	0,1	2,566349
3,562500	0,1	2,570816
3,564167	0,1	2,542818
3,565833	0,1	2,527546
3,567500	0,1	2,563233
3,569167	0,1	2,541153
3,570833	0,1	2,530292
3,572500	0,1	2,489919
3,574167	0,1	2,474643
3,575833	0,1	2,517603
3,577500	0,1	2,493931
3,579167	0,1	2,508540
3,580833	0,1	2,472716
3,582500	0,1	2,510263
3,584167	0,1	2,481270
3,585833	0,1	2,475801
3,587500	0,1	2,467667
3,589167	0,1	2,437877
3,590833	0,1	2,433834
3,592500	0,1	2,406359
3,594167	0,1	2,427710
3,595833	0,1	2,389227
3,597500	0,1	2,366334
3,599167	0,1	2,405257
3,600833	0,1	2,385842
3,602500	0,1	2,357064
3,604167	0,1	2,342675
3,605833	0,1	2,356263
3,607500	0,1	2,310368
3,609167	0,1	2,336467
3,610833	0,1	2,287995
3,612500	0,1	2,268855
3,614167	0,1	2,277981
3,615833	0,1	2,234908
3,617500	0,1	2,272653
3,619167	0,1	2,232821
3,620833	0,1	2,239859
3,622500	0,1	2,213899
3,624167	0,1	2,200444
3,625833	0,1	2,195192
3,627500	0,1	2,166212
3,629167	0,1	2,168650
3,630833	0,1	2,130759
3,632500	0,1	2,119104
3,634167	0,1	2,116007
3,635833	0,1	2,115001
3,637500	0,1	2,083439
3,639167	0,1	2,111832
3,640833	0,1	2,070791
3,642500	0,1	2,055104
3,644167	0,1	2,055175
3,645833	0,1	2,025125
3,647500	0,1	1,974304
3,649167	0,1	1,977805
3,650833	0,1	1,974153
3,652500	0,1	1,983130
3,654167	0,1	1,932969
3,655833	0,1	1,912614
3,657500	0,1	1,940645
3,659167	0,1	1,904642
3,660833	0,1	1,882351
3,662500	0,1	1,907215
3,664167	0,1	1,893922
3,665833	0,1	1,844986
3,667500	0,1	1,835415
3,669167	0,1	1,806828
3,670833	0,1	1,809976
3,672500	0,1	1,831028
3,674167	0,1	1,801795
3,675833	0,1	1,768733
3,677500	0,1	1,781236
3,679167	0,1	1,788561
3,680833	0,1	1,714205
3,682500	0,1	1,752549
3,684167	0,1	1,718443
3,685833	0,1	1,713472
3,687500	0,1	1,709687
3,689167	0,1	1,698539
3,690833	0,1	1,680785
3,692500	0,1	1,643351
3,694167	0,1	1,681220
3,695833	0,1	1,656368
3,697500	0,1	1,619300
3,699167	0,1	1,641475
3,700833	0,1	1,643857
3,702500	0,1	1,614195
3,704167	0,1	1,612122
3,705833	0,1	1,562128
3,707500	0,1	1,574890
3,709167	0,1	1,595725
3,710833	0,1	1,600853
3,712500	0,1	1,558674
3,714167	0,1	1,579357
3,715833	0,1	1,574491
3,717500	0,1	1,536432
3,719167	0,1	1,550132
3,720833	0,1	1,529606
3,722500	0,1	1,520115
3,724167	0,1	1,511055
3,725833	0,1	1,554128
3,727500	0,1	1,541677
3,729167	0,1	1,488526
3,730833	0,1	1,492088
3,732500	0,1	1,516091
3,734167	0,1	1,471212
3,735833	0,1	1,496400
3,737500	0,1	1,463385
3,739167	0,1	1,480685
3,740833	0,1	1,472373
3,742500	0,1	1,475945
3,744167	0,1	1,434650
3,745833	0,1	1,460939
3,747500	0,1	1,449824
3,749167	0,1	1,412032
3,750833	0,1	1,443392
3,752500	0,1	1,399567
3,754167	0,1	1,420653
3,755833	0,1	1,433002
3,757500	0,1	1,460854
3,759167	0,1	1,421810
3,760833	0,1	1,388632
3,762500	0,1	1,438081
3,764167	0,1	1,436579
3,765833	0,1	1,417653
3,767500	0,1	1,424384
3,769167	0,1	1,375576
3,770833	0,1	1,428468
3,772500	0,1	1,419231
3,774167	0,1	1,408908
3,775833	0,1	1,389852
3,777500	0,1	1,420804
3,779167	0,1	1,375288
3,780833	0,1	1,403328
3,782500	0,1	1,387708
3,784167	0,1	1,396833
3,785833	0,1	1,399501
3,787500	0,1	1,376079
3,789167	0,1	1,361658
3,790833	0,1	1,401926
3,792500	0,1	1,359203
3,794167	0,1	1,417223
3,795833	0,1	1,342512
3,797500	0,1	1,369319
3,799167	0,1	1,371536
3,800833	0,1	1,359992
3,802500	0,1	1,375424
3,804167	0,1	1,341771
3,805833	0,1	1,365306
3,807500	0,1	1,358053
3,809167	0,1	1,346220
3,810833	0,1	1,331720
3,812500	0,1	1,332226
3,814167	0,1	1,341405
3,815833	0,1	1,372289
3,817500	0,1	1,285444
3,819167	0,1	1,330837
3,820833	0,1	1,326327
3,822500	0,1	1,333516
3,824167	0,1	1,258854
3,825833	0,1	1,299693
3,827500	0,1	1,321084
3,829167	0,1	1,301935
3,830833	0,1	1,292005
3,832500	0,1	1,297544
3,834167	0,1	1,258592
3,835833	0,1	1,320310
3,837500	0,1	1,298638
3,839167	0,1	1,290321
3,840833	0,1	1,273867
3,842500	0,1	1,259214
3,844167	0,1	1,239327
3,845833	0,1	1,236315
3,847500	0,1	1,198592
3,849167	0,1	1,256102
3,850833	0,1	1,294117
3,852500	0,1	1,259237
3,854167	0,1	1,232733
3,855833	0,1	1,188598
3,857500	0,1	1,204392
3,859167	0,1	1,242290
3,860833	0,1	1,210690
3,862500	0,1	1,226622
3,864167	0,1	1,147274
3,865833	0,1	1,214017
3,867500	0,1	1,202478
3,869167	0,1	1,206603
3,870833	0,1	1,223477
3,872500	0,1	1,204823
3,874167	0,1	1,170289
3,875833	0,1	1,175244
3,877500	0,1	1,146442
3,879167	0,1	1,119938
3,880833	0,1	1,210917
3,882500	0,1	1,149409
3,884167	0,1	1,130757
3,885833	0,1	1,183273
3,887500	0,1	1,182041
3,889167	0,1	1,119790
3,890833	0,1	1,152162
3,892500	0,1	1,092515
3,894167	0,1	1,123615
3,895833	0,1	1,139300
3,897500	0,1	1,097878
3,899167	0,1	1,113072
3,900833	0,1	1,119755
3,902500	0,1	1,097311
3,904167	0,1	1,112354
3,905833	0,1	1,085357
3,907500	0,1	1,066989
3,909167	0,1	1,068429
3,910833	0,1	1,078070
3,912500	0,1	1,037472
3,914167	0,1	1,088321
3,915833	0,1	1,043508
3,917500	0,1	1,057718
3,919167	0,1	1,081049
3,920833	0,1	1,066409
3,922500	0,1	1,066425
3,924167	0,1	1,072260
3,925833	0,1	1,054363
3,927500	0,1	1,046125
3,929167	0,1	1,060812
3,930833	0,1	1,065200
3,932500	0,1	1,044947
3,934167	0,1	0,996156
3,935833	0,1	1,022697
3,937500	0,1	0,997374
3,939167	0,1	1,034781
3,940833	0,1	1,022727
3,942500	0,1	1,022948
3,944167	0,1	0,973406
3,945833	0,1	1,032661
3,947500	0,1	0,998579
3,949167	0,1	0,990381
3,950833	0,1	0,992873
3,952500	0,1	1,002909
3,954167	0,1	0,986801
3,955833	0,1	1,009629
3,957500	0,1	0,983351
3,959167	0,1	0,983769
3,960833	0,1	0,987641
3,962500	0,1	1,010165
3,964167	0,1	0,987157
3,965833	0,1	0,992069
3,967500	0,1	0,973979
3,969167	0,1	0,963694
3,970833	0,1	0,948198
3,972500	0,1	0,987366
3,974167	0,1	0,999304
3,975833	0,1	0,970974
3,977500	0,1	0,992868
3,979167	0,1	0,958669
3,980833	0,1	0,992108
3,982500	0,1	0,954018
3,984167	0,1	1,002321
3,985833	0,1	0,976962
3,987500	0,1	0,990912
3,989167	0,1	0,991182
3,990833	0,1	0,964410
3,992500	0,1	0,949250
3,994167	0,1	0,955298
3,995833	0,1	0,914796
3,997500	0,1	1,008677
3,999167	0,1	0,987981
4,000833	0,1	0,944849
4,002500	0,1	0,958258
4,004167	0,1	0,947756
4,005833	0,1	0,968493
4,007500	0,1	1,002548
4,009167	0,1	0,993476
4,010833	0,1	0,991937
4,012500	0,1	0,958023
4,014167	0,1	0,939009
4,015833	0,1	0,989500
4,017500	0,1	0,937926
4,019167	0,1	1,000026
4,020833	0,1	0,999572
4,022500	0,1	0,994099
4,024167	0,1	0,991159
4,025833	0,1	0,972642
4,027500	0,1	0,995850
4,029167	0,1	0,991426
4,030833	0,1	1,001685
4,032500	0,1	1,002177
4,034167	0,1	0,975538
4,035833	0,1	1,021579
4,037500	0,1	0,992344
4,039167	0,1	1,012925
4,040833	0,1	1,048272
4,042500	0,1	1,004347
4,044167	0,1	0,984349
4,045833	0,1	1,041767
4,047500	0,1	1,062971
4,049167	0,1	1,067271
4,050833	0,1	1,020353
4,052500	0,1	1,061695
4,054167	0,1	1,033685
4,055833	0,1	1,076902
4,057500	0,1	1,095879
4,059167	0,1	1,086046
4,060833	0,1	1,079832
4,062500	0,1	1,080185
4,064167	0,1	1,137218
4,065833	0,1	1,121872
4,067500	0,1	1,116010
4,069167	0,1	1,119419
4,070833	0,1	1,149069
4,072500	0,1	1,125345
4,074167	0,1	1,137565
4,075833	0,1	1,153950
4,077500	0,1	1,127579
4,079167	0,1	1,193468
4,080833	0,1	1,173823
4,082500	0,1	1,192611
4,084167	0,1	1,251906
4,085833	0,1	1,249234
4,087500	0,1	1,277596
4,089167	0,1	1,260031
4,090833	0,1	1,246210
4,092500	0,1	1,303447
4,094167	0,1	1,259307
4,095833	0,1	1,307410
4,097500	0,1	1,305196
4,099167	0,1	1,320661
4,100833	0,1	1,334621
4,102500	0,1	1,342339
4,104167	0,1	1,374911
4,105833	0,1	1,377382
4,107500	0,1	1,369358
4,109167	0,1	1,383246
4,110833	0,1	1,409089
4,112500	0,1	1,432381
4,114167	0,1	1,447218
4,115833	0,1	1,454466
4,117500	0,1	1,462152
4,119167	0,1	1,500576
4,120833	0,1	1,514514
4,122500	0,1	1,514202
4,124167	0,1	1,593435
4,125833	0,1	1,555996
4,127500	0,1	1,523585
4,129167	0,1	1,617640
4,130833	0,1	1,603106
4,132500	0,1	1,594670
4,134167	0,1	1,637832
4,135833	0,1	1,642853
4,137500	0,1	1,696227
4,139167	0,1	1,669528
4,140833	0,1	1,696241
4,142500	0,1	1,736101
4,144167	0,1	1,687846
4,145833	0,1	1,748329
4,147500	0,1	1,748897
4,149167	0,1	1,802787
4,150833	0,1	1,785504
4,152500	0,1	1,779947
4,154167	0,1	1,803300
4,155833	0,1	1,805167
4,157500	0,1	1,809702
4,159167	0,1	1,820027
4,160833	0,1	1,836428
4,162500	0,1	1,863020
4,164167	0,1	1,830452
4,165833	0,1	1,874008
4,167500	0,1	1,881425
4,169167	0,1	1,914117
4,170833	0,1	1,912906
4,172500	0,1	1,900462
4,174167	0,1	1,928132
4,175833	0,1	1,910322
4,177500	0,1	1,929000
4,179167	0,1	1,950706
4,180833	0,1	1,974644
4,182500	0,1	1,957395
4,184167	0,1	2,026616
4,185833	0,1	1,981853
4,187500	0,1	1,975083
4,189167	0,1	1,964442
4,190833	0,1	1,995851
4,192500	0,1	2,009151
4,194167	0,1	2,017137
4,195833	0,1	2,004272
4,197500	0,1	2,012465
4,199167	0,1	1,980623
4,200833	0,1	1,995640
4,202500	0,1	2,016558
4,204167	0,1	2,031371
4,205833	0,1	2,048700
4,207500	0,1	2,052011
4,209167	0,1	2,064164
4,210833	0,1	2,033685
4,212500	0,1	2,062644
4,214167	0,1	2,029299
4,215833	0,1	2,032960
4,217500	0,1	2,055023
4,219167	0,1	2,001766
4,220833	0,1	2,033095
4,222500	0,1	2,003557
4,224167	0,1	2,057104
4,225833	0,1	2,033321
4,227500	0,1	2,073070
4,229167	0,1	2,013271
4,230833	0,1	2,016706
4,232500	0,1	2,040000
4,234167	0,1	2,024189
4,235833	0,1	2,023178
4,237500	0,1	1,998522
4,239167	0,1	1,982849
4,240833	0,1	2,004554
4,242500	0,1	1,992411
4,244167	0,1	1,993128
4,245833	0,1	2,015045
4,247500	0,1	2,019797
4,249167	0,1	1,974952
4,250833	0,1	1,981692
4,252500	0,1	1,956177
4,254167	0,1	1,973785
4,255833	0,1	1,972422
4,257500	0,1	1,918657
4,259167	0,1	1,953787
4,260833	0,1	1,888689
4,262500	0,1	1,883054
4,264167	0,1	1,924823
4,265833	0,1	1,906006
4,267500	0,1	1,925546
4,269167	0,1	1,899610
4,270833	0,1	1,881778
4,272500	0,1	1,913036
4,274167	0,1	1,917227
4,275833	0,1	1,896381
4,277500	0,1	1,855270
4,279167	0,1	1,857494
4,280833	0,1	1,841321
4,282500	0,1	1,890111
4,284167	0,1	1,818550
4,285833	0,1	1,827732
4,287500	0,1	1,775059
4,289167	0,1	1,809540
4,290833	0,1	1,805669
4,292500	0,1	1,788801
4,294167	0,1	1,772399
4,295833	0,1	1,736916
4,297500	0,1	1,777434
4,299167	0,1	1,754302
4,300833	0,1	1,752427
4,302500	0,1	1,731023
4,304167	0,1	1,736189
4,305833	0,1	1,716587
4,307500	0,1	1,712546
4,309167	0,1	1,723332
4,310833	0,1	1,663567
4,312500	0,1	1,671100
4,314167	0,1	1,635334
4,315833	0,1	1,673810
4,317500	0,1	1,635196
4,319167	0,1	1,610189
4,320833	0,1	1,619796
4,322500	0,1	1,623120
4,324167	0,1	1,630370
4,325833	0,1	1,593255
4,327500	0,1	1,606739
4,329167	0,1	1,551798
4,330833	0,1	1,591206
4,332500	0,1	1,562942
4,334167	0,1	1,558747
4,335833	0,1	1,543109
4,337500	0,1	1,546129
4,339167	0,1	1,544467
4,340833	0,1	1,529304
4,342500	0,1	1,522493
4,344167	0,1	1,508853
4,345833	0,1	1,485123
4,347500	0,1	1,452468
4,349167	0,1	1,477302
4,350833	0,1	1,483781
4,352500	0,1	1,517476
4,354167	0,1	1,466704
4,355833	0,1	1,435475
4,357500	0,1	1,469144
4,359167	0,1	1,401071
4,360833	0,1	1,453617
4,362500	0,1	1,421078
4,364167	0,1	1,420948
4,365833	0,1	1,443354
4,367500	0,1	1,399635
4,369167	0,1	1,412065
4,370833	0,1	1,389733
4,372500	0,1	1,360796
4,374167	0,1	1,375304
4,375833	0,1	1,354621
4,377500	0,1	1,366328
4,379167	0,1	1,352120
4,380833	0,1	1,359441
4,382500	0,1	1,346220
4,384167	0,1	1,317866
4,385833	0,1	1,329585
4,387500	0,1	1,383656
4,389167	0,1	1,317383
4,390833	0,1	1,311554
4,392500	0,1	1,324470
4,394167	0,1	1,304671
4,395833	0,1	1,301233
4,397500	0,1	1,300876
4,399167	0,1	1,307471
4,400833	0,1	1,277168
4,402500	0,1	1,248459
4,404167	0,1	1,221243
4,405833	0,1	1,254613
4,407500	0,1	1,249829
4,409167	0,1	1,263628
4,410833	0,1	1,215945
4,412500	0,1	1,193094
4,414167	0,1	1,194282
4,415833	0,1	1,260486
4,417500	0,1	1,191986
4,419167	0,1	1,208825
4,420833	0,1	1,205178
4,422500	0,1	1,194267
4,424167	0,1	1,205174
4,425833	0,1	1,183869
4,427500	0,1	1,165225
4,429167	0,1	1,159747
4,430833	0,1	1,163282
4,432500	0,1	1,166887
4,434167	0,1	1,171081
4,435833	0,1	1,157321
4,437500	0,1	1,147046
4,439167	0,1	1,122762
4,440833	0,1	1,110827
4,442500	0,1	1,131993
4,444167	0,1	1,134648
4,445833	0,1	1,158469
4,447500	0,1	1,136968
4,449167	0,1	1,092800
4,450833	0,1	1,100625
4,452500	0,1	1,119058
4,454167	0,1	1,080863
4,455833	0,1	1,078626
4,457500	0,1	1,087730
4,459167	0,1	1,048982
4,460833	0,1	1,062548
4,462500	0,1	1,026362
4,464167	0,1	1,074720
4,465833	0,1	1,039297
4,467500	0,1	1,048636
4,469167	0,1	1,036575
4,470833	0,1	1,030630
4,472500	0,1	1,052062
4,474167	0,1	1,037934
4,475833	0,1	1,064927
4,477500	0,1	1,053047
4,479167	0,1	0,993266
4,480833	0,1	1,024898
4,482500	0,1	0,996153
4,484167	0,1	1,019759
4,485833	0,1	0,991410
4,487500	0,1	1,021359
4,489167	0,1	0,980484
4,490833	0,1	1,009962
4,492500	0,1	0,928697
4,494167	0,1	0,950931
4,495833	0,1	0,953006
4,497500	0,1	0,973457
4,499167	0,1	0,921169
4,500833	0,1	0,952311
4,502500	0,1	0,973903
4,504167	0,1	0,929960
4,505833	0,1	0,947904
4,507500	0,1	0,916801
4,509167	0,1	0,928501
4,510833	0,1	0,900997
4,512500	0,1	0,875891
4,514167	0,1	0,897161
4,515833	0,1	0,906822
4,517500	0,1	0,951397
4,519167	0,1	0,878577
4,520833	0,1	0,897271
4,522500	0,1	0,886638
4,524167	0,1	0,890556
4,525833	0,1	0,849735
4,527500	0,1	0,886874
4,529167	0,1	0,871752
4,530833	0,1	0,869326
4,532500	0,1	0,845229
4,534167	0,1	0,840392
4,535833	0,1	0,841774
4,537500	0,1	0,864959
4,539167	0,1	0,835775
4,540833	0,1	0,870873
4,542500	0,1	0,845743
4,544167	0,1	0,864761
4,545833	0,1	0,836934
4,547500	0,1	0,825485
4,549167	0,1	0,787749
4,550833	0,1	0,794876
4,552500	0,1	0,805528
4,554167	0,1	0,811891
4,555833	0,1	0,829429
4,557500	0,1	0,800996
4,559167	0,1	0,729425
4,560833	0,1	0,774261
4,562500	0,1	0,784329
4,564167	0,1	0,787266
4,565833	0,1	0,798878
4,567500	0,1	0,785795
4,569167	0,1	0,782528
4,570833	0,1	0,783555
4,572500	0,1	0,762766
4,574167	0,1	0,726930
4,575833	0,1	0,733212
4,577500	0,1	0,746208
4,579167	0,1	0,756138
4,580833	0,1	0,741735
4,582500	0,1	0,749490
4,584167	0,1	0,732535
4,585833	0,1	0,694805
4,587500	0,1	0,710938
4,589167	0,1	0,745901
4,590833	0,1	0,711830
4,592500	0,1	0,698661
4,594167	0,1	0,705975
4,595833	0,1	0,698333
4,597500	0,1	0,717584
4,599167	0,1	0,692632
4,600833	0,1	0,720032
4,602500	0,1	0,702372
4,604167	0,1	0,685020
4,605833	0,1	0,686850
4,607500	0,1	0,671865
4,609167	0,1	0,705455
4,610833	0,1	0,702303
4,612500	0,1	0,693630
4,614167	0,1	0,639392
4,615833	0,1	0,622067
4,617500	0,1	0,645374
4,619167	0,1	0,659117
4,620833	0,1	0,653056
4,622500	0,1	0,646736
4,624167	0,1	0,680231
4,625833	0,1	0,606281
4,627500	0,1	0,659680
4,629167	0,1	0,624233
4,630833	0,1	0,652402
4,632500	0,1	0,674850
4,634167	0,1	0,624751
4,635833	0,1	0,639375
4,637500	0,1	0,587477
4,639167	0,1	0,606095
4,640833	0,1	0,634147
4,642500	0,1	0,612068
4,644167	0,1	0,600813
4,645833	0,1	0,620508
4,647500	0,1	0,611420
4,649167	0,1	0,581243
4,650833	0,1	0,585363
4,652500	0,1	0,593008
4,654167	0,1	0,594295
4,655833	0,1	0,613190
4,657500	0,1	0,566608
4,659167	0,1	0,573786
4,660833	0,1	0,615663
4,662500	0,1	0,600234
4,664167	0,1	0,621218
4,665833	0,1	0,594141
4,667500	0,1	0,569762
4,669167	0,1	0,568658
4,670833	0,1	0,552348
4,672500	0,1	0,573653
4,674167	0,1	0,569372
4,675833	0,1	0,574817
4,677500	0,1	0,606802
4,679167	0,1	0,570669
4,680833	0,1	0,542291
4,682500	0,1	0,546186
4,684167	0,1	0,545442
4,685833	0,1	0,537255
4,687500	0,1	0,545540
4,689167	0,1	0,536547
4,690833	0,1	0,560174
4,692500	0,1	0,538453
4,694167	0,1	0,543670
4,695833	0,1	0,550697
4,697500	0,1	0,553409
4,699167	0,1	0,528458
4,700833	0,1	0,516944
4,702500	0,1	0,573933
4,704167	0,1	0,572460
4,705833	0,1	0,518406
4,707500	0,1	0,486418
4,709167	0,1	0,529183
4,710833	0,1	0,503470
4,712500	0,1	0,493601
4,714167	0,1	0,485316
4,715833	0,1	0,517449
4,717500	0,1	0,515492
4,719167	0,1	0,522355
4,720833	0,1	0,495315
4,722500	0,1	0,513487
4,724167	0,1	0,492185
4,725833	0,1	0,521576
4,727500	0,1	0,529062
4,729167	0,1	0,473365
4,730833	0,1	0,527503
4,732500	0,1	0,493833
4,734167	0,1	0,497822
4,735833	0,1	0,498403
4,737500	0,1	0,522191
4,739167	0,1	0,498796
4,740833	0,1	0,489185
4,742500	0,1	0,491276
4,744167	0,1	0,467267
4,745833	0,1	0,467711
4,747500	0,1	0,477832
4,749167	0,1	0,474384
4,750833	0,1	0,495819
4,752500	0,1	0,431781
4,754167	0,1	0,465188
4,755833	0,1	0,467066
4,757500	0,1	0,478155
4,759167	0,1	0,474031
4,760833	0,1	0,459300
4,762500	0,1	0,493301
4,764167	0,1	0,448058
4,765833	0,1	0,474184
4,767500	0,1	0,472063
4,769167	0,1	0,460107
4,770833	0,1	0,460104
4,772500	0,1	0,484470
4,774167	0,1	0,447476
4,775833	0,1	0,425423
4,777500	0,1	0,470247
4,779167	0,1	0,437223
4,780833	0,1	0,464964
4,782500	0,1	0,453788
4,784167	0,1	0,465290
4,785833	0,1	0,461812
4,787500	0,1	0,461458
4,789167	0,1	0,445860
4,790833	0,1	0,461390
4,792500	0,1	0,449693
4,794167	0,1	0,459423
4,795833	0,1	0,436413
4,797500	0,1	0,460129
4,799167	0,1	0,434578
4,800833	0,1	0,446498
4,802500	0,1	0,428325
4,804167	0,1	0,420356
4,805833	0,1	0,462123
4,807500	0,1	0,480634
4,809167	0,1	0,501653
4,810833	0,1	0,422986
4,812500	0,1	0,456808
4,814167	0,1	0,412407
4,815833	0,1	0,449780
4,817500	0,1	0,410083
4,819167	0,1	0,450068
4,820833	0,1	0,468997
4,822500	0,1	0,429036
4,824167	0,1	0,439856
4,825833	0,1	0,436764
4,827500	0,1	0,434089
4,829167	0,1	0,481112
4,830833	0,1	0,430074
4,832500	0,1	0,420587
4,834167	0,1	0,450394
4,835833	0,1	0,422811
4,837500	0,1	0,422096
4,839167	0,1	0,378977
4,840833	0,1	0,439910
4,842500	0,1	0,446850
4,844167	0,1	0,450462
4,845833	0,1	0,444341
4,847500	0,1	0,416463
4,849167	0,1	0,445335
4,850833	0,1	0,438279
4,852500	0,1	0,460516
4,854167	0,1	0,469386
4,855833	0,1	0,427362
4,857500	0,1	0,466477
4,859167	0,1	0,406220
4,860833	0,1	0,432212
4,862500	0,1	0,434700
4,864167	0,1	0,413883
4,865833	0,1	0,413878
4,867500	0,1	0,457159
4,869167	0,1	0,441347
4,870833	0,1	0,454909
4,872500	0,1	0,435251
4,874167	0,1	0,417779
4,875833	0,1	0,408235
4,877500	0,1	0,392155
4,879167	0,1	0,429213
4,880833	0,1	0,412268
4,882500	0,1	0,436180
4,884167	0,1	0,426290
4,885833	0,1	0,432960
4,887500	0,1	0,430509
4,889167	0,1	0,443790
4,890833	0,1	0,432769
4,892500	0,1	0,423679
4,894167	0,1	0,412783
4,895833	0,1	0,434340
4,897500	0,1	0,441406
4,899167	0,1	0,402892
4,900833	0,1	0,397118
4,902500	0,1	0,425376
4,904167	0,1	0,424321
4,905833	0,1	0,429702
4,907500	0,1	0,409207
4,909167	0,1	0,393089
4,910833	0,1	0,435980
4,912500	0,1	0,401410
4,914167	0,1	0,439301
4,915833	0,1	0,443498
4,917500	0,1	0,442791
4,919167	0,1	0,386908
4,920833	0,1	0,456572
4,922500	0,1	0,429713
4,924167	0,1	0,407017
4,925833	0,1	0,394088
4,927500	0,1	0,436785
4,929167	0,1	0,441759
4,930833	0,1	0,433606
4,932500	0,1	0,451493
4,934167	0,1	0,428131
4,935833	0,1	0,451072
4,937500	0,1	0,448465
4,939167	0,1	0,406957
4,940833	0,1	0,440720
4,942500	0,1	0,377015
4,944167	0,1	0,421376
4,945833	0,1	0,425802
4,947500	0,1	0,441883
4,949167	0,1	0,430062
4,950833	0,1	0,414010
4,952500	0,1	0,429828
4,954167	0,1	0,398058
4,955833	0,1	0,433563
4,957500	0,1	0,436570
4,959167	0,1	0,432283
4,960833	0,1	0,425612
4,962500	0,1	0,413364
4,964167	0,1	0,436918
4,965833	0,1	0,417523
4,967500	0,1	0,460254
4,969167	0,1	0,434803
4,970833	0,1	0,398218
4,972500	0,1	0,458348
4,974167	0,1	0,402316
4,975833	0,1	0,455415
4,977500	0,1	0,460456
4,979167	0,1	0,437833
4,980833	0,1	0,425998
4,982500	0,1	0,432960
4,984167	0,1	0,441050
4,985833	0,1	0,457391
4,987500	0,1	0,449210
4,989167	0,1	0,459358
4,990833	0,1	0,473929
4,992500	0,1	0,447762
4,994167	0,1	0,471060
4,995833	0,1	0,485213
4,997500	0,1	0,393655
4,999167	0,1	0,476169
5,000833	0,1	0,447666
5,002500	0,1	0,449724
5,004167	0,1	0,448401
5,005833	0,1	0,485886
5,007500	0,1	0,463978
5,009167	0,1	0,489723
5,010833	0,1	0,497788
5,012500	0,1	0,450346
5,014167	0,1	0,473088
5,015833	0,1	0,478638
5,017500	0,1	0,482637
5,019167	0,1	0,472550
5,020833	0,1	0,500009
5,022500	0,1	0,441162
5,024167	0,1	0,481759
5,025833	0,1	0,467650
5,027500	0,1	0,487146
5,029167	0,1	0,475130
5,030833	0,1	0,498333
5,032500	0,1	0,493698
5,034167	0,1	0,463787
5,035833	0,1	0,460491
5,037500	0,1	0,553094
5,039167	0,1	0,499706
5,040833	0,1	0,490377
5,042500	0,1	0,529699
5,044167	0,1	0,524261
5,045833	0,1	0,523100
5,047500	0,1	0,488319
5,049167	0,1	0,510745
5,050833	0,1	0,515522
5,052500	0,1	0,508400
5,054167	0,1	0,489961
5,055833	0,1	0,521962
5,057500	0,1	0,549467
5,059167	0,1	0,565850
5,060833	0,1	0,530653
5,062500	0,1	0,548017
5,064167	0,1	0,566557
5,065833	0,1	0,574010
5,067500	0,1	0,548770
5,069167	0,1	0,553150
5,070833	0,1	0,571168
5,072500	0,1	0,530493
5,074167	0,1	0,550210
5,075833	0,1	0,543158
5,077500	0,1	0,545798
5,079167	0,1	0,586871
5,080833	0,1	0,543003
5,082500	0,1	0,554694
5,084167	0,1	0,569850
5,085833	0,1	0,609988
5,087500	0,1	0,570252
5,089167	0,1	0,599672
5,090833	0,1	0,568957
5,092500	0,1	0,564115
5,094167	0,1	0,518791
5,095833	0,1	0,587120
5,097500	0,1	0,590328
5,099167	0,1	0,560602
5,100833	0,1	0,573493
5,102500	0,1	0,599737
5,104167	0,1	0,593681
5,105833	0,1	0,583590
5,107500	0,1	0,590713
5,109167	0,1	0,617731
5,110833	0,1	0,557874
5,112500	0,1	0,555828
5,114167	0,1	0,587259
5,115833	0,1	0,588235
5,117500	0,1	0,584302
5,119167	0,1	0,584625
5,120833	0,1	0,590583
5,122500	0,1	0,574948
5,124167	0,1	0,576076
5,125833	0,1	0,590422
5,127500	0,1	0,604320
5,129167	0,1	0,597197
5,130833	0,1	0,598064
5,132500	0,1	0,566151
5,134167	0,1	0,595059
5,135833	0,1	0,586458
5,137500	0,1	0,585072
5,139167	0,1	0,630756
5,140833	0,1	0,525994
5,142500	0,1	0,564814
5,144167	0,1	0,601085
5,145833	0,1	0,595555
5,147500	0,1	0,566989
5,149167	0,1	0,568466
5,150833	0,1	0,547061
5,152500	0,1	0,571458
5,154167	0,1	0,633103
5,155833	0,1	0,554683
5,157500	0,1	0,565272
5,159167	0,1	0,597512
5,160833	0,1	0,582046
5,162500	0,1	0,632885
5,164167	0,1	0,590595
5,165833	0,1	0,582397
5,167500	0,1	0,581977
5,169167	0,1	0,592423
5,170833	0,1	0,549453
5,172500	0,1	0,579229
5,174167	0,1	0,587264
5,175833	0,1	0,531206
5,177500	0,1	0,573194
5,179167	0,1	0,559182
5,180833	0,1	0,566174
5,182500	0,1	0,541967
5,184167	0,1	0,547346
5,185833	0,1	0,562435
5,187500	0,1	0,561276
5,189167	0,1	0,577877
5,190833	0,1	0,567694
5,192500	0,1	0,549510
5,194167	0,1	0,510471
5,195833	0,1	0,512525
5,197500	0,1	0,524741
5,199167	0,1	0,539958
5,200833	0,1	0,529517
5,202500	0,1	0,517750
5,204167	0,1	0,518037
5,205833	0,1	0,535831
5,207500	0,1	0,543184
5,209167	0,1	0,535676
5,210833	0,1	0,527680
5,212500	0,1	0,544343
5,214167	0,1	0,478397
5,215833	0,1	0,525376
5,217500	0,1	0,500246
5,219167	0,1	0,504817
5,220833	0,1	0,482160
5,222500	0,1	0,498851
5,224167	0,1	0,482899
5,225833	0,1	0,474420
5,227500	0,1	0,497848
5,229167	0,1	0,501691
5,230833	0,1	0,495310
5,232500	0,1	0,455277
5,234167	0,1	0,469609
5,235833	0,1	0,426330
5,237500	0,1	0,431829
5,239167	0,1	0,468830
5,240833	0,1	0,468388
5,242500	0,1	0,476381
5,244167	0,1	0,469970
5,245833	0,1	0,469970
5,247500	0,1	0,455271
5,249167	0,1	0,450143
5,250833	0,1	0,412790
5,252500	0,1	0,443107
5,254167	0,1	0,451140
5,255833	0,1	0,433835
5,257500	0,1	0,430124
5,259167	0,1	0,445882
5,260833	0,1	0,399770
5,262500	0,1	0,434532
5,264167	0,1	0,404924
5,265833	0,1	0,398860
5,267500	0,1	0,429343
5,269167	0,1	0,413010
5,270833	0,1	0,418325
5,272500	0,1	0,414812
5,274167	0,1	0,416553
5,275833	0,1	0,391221
5,277500	0,1	0,365600
5,279167	0,1	0,397493
5,280833	0,1	0,409042
5,282500	0,1	0,418517
5,284167	0,1	0,407983
5,285833	0,1	0,391283
5,287500	0,1	0,401691
5,289167	0,1	0,397762
5,290833	0,1	0,404595
5,292500	0,1	0,389576
5,294167	0,1	0,371688
5,295833	0,1	0,339818
5,297500	0,1	0,382824
5,299167	0,1	0,421701
5,300833	0,1	0,339051
5,302500	0,1	0,365843
5,304167	0,1	0,348257
5,305833	0,1	0,348062
5,307500	0,1	0,351056
5,309167	0,1	0,360015
5,310833	0,1	0,383834
5,312500	0,1	0,349840
5,314167	0,1	0,377451
5,315833	0,1	0,366855
5,317500	0,1	0,427212
5,319167	0,1	0,346175
5,320833	0,1	0,334626
5,322500	0,1	0,381245
5,324167	0,1	0,332758
5,325833	0,1	0,318479
5,327500	0,1	0,303011
5,329167	0,1	0,350790
5,330833	0,1	0,333530
5,332500	0,1	0,328145
5,334167	0,1	0,317797
5,335833	0,1	0,333169
5,337500	0,1	0,310094
5,339167	0,1	0,339192
5,340833	0,1	0,332302
5,342500	0,1	0,313706
5,344167	0,1	0,346892
5,345833	0,1	0,294633
5,347500	0,1	0,347468
5,349167	0,1	0,333912
5,350833	0,1	0,338520
5,352500	0,1	0,340645
5,354167	0,1	0,318834
5,355833	0,1	0,388816
5,357500	0,1	0,298090
5,359167	0,1	0,289174
5,360833	0,1	0,306706
5,362500	0,1	0,277879
5,364167	0,1	0,309445
5,365833	0,1	0,327821
5,367500	0,1	0,315219
5,369167	0,1	0,285223
5,370833	0,1	0,293719
5,372500	0,1	0,264371
5,374167	0,1	0,308153
5,375833	0,1	0,286700
5,377500	0,1	0,274678
5,379167	0,1	0,274650
5,380833	0,1	0,321070
5,382500	0,1	0,260321
5,384167	0,1	0,278093
5,385833	0,1	0,246555
5,387500	0,1	0,247192
5,389167	0,1	0,263461
5,390833	0,1	0,295428
5,392500	0,1	0,277004
5,394167	0,1	0,260511
5,395833	0,1	0,261131
5,397500	0,1	0,265588
5,399167	0,1	0,245225
5,400833	0,1	0,303609
5,402500	0,1	0,297208
5,404167	0,1	0,274855
5,405833	0,1	0,280220
5,407500	0,1	0,247362
5,409167	0,1	0,268654
5,410833	0,1	0,242585
5,412500	0,1	0,277318
5,414167	0,1	0,238760
5,415833	0,1	0,245510
5,417500	0,1	0,224350
5,419167	0,1	0,275761
5,420833	0,1	0,251945
5,422500	0,1	0,198582
5,424167	0,1	0,227334
5,425833	0,1	0,251278
5,427500	0,1	0,266040
5,429167	0,1	0,229484
5,430833	0,1	0,224030
5,432500	0,1	0,228692
5,434167	0,1	0,231508
5,435833	0,1	0,251216
5,437500	0,1	0,196194
5,439167	0,1	0,240610
5,440833	0,1	0,242008
5,442500	0,1	0,237562
5,444167	0,1	0,211261
5,445833	0,1	0,256985
5,447500	0,1	0,210926
5,449167	0,1	0,190134
5,450833	0,1	0,224285
5,452500	0,1	0,234728
5,454167	0,1	0,244647
5,455833	0,1	0,257979
5,457500	0,1	0,226487
5,459167	0,1	0,198805
5,460833	0,1	0,230176
5,462500	0,1	0,260908
5,464167	0,1	0,225353
5,465833	0,1	0,208176
5,467500	0,1	0,234016
5,469167	0,1	0,245936
5,470833	0,1	0,253089
5,472500	0,1	0,176264
5,474167	0,1	0,243672
5,475833	0,1	0,230060
5,477500	0,1	0,220809
5,479167	0,1	0,181181
5,480833	0,1	0,208785
5,482500	0,1	0,199797
5,484167	0,1	0,194996
5,485833	0,1	0,214523
5,487500	0,1	0,235180
5,489167	0,1	0,259276
5,490833	0,1	0,203966
5,492500	0,1	0,227055
5,494167	0,1	0,223033
5,495833	0,1	0,191654
5,497500	0,1	0,244221
5,499167	0,1	0,174911
5,500833	0,1	0,247347
5,502500	0,1	0,202422
5,504167	0,1	0,217810
5,505833	0,1	0,194064
5,507500	0,1	0,192063
5,509167	0,1	0,198505
5,510833	0,1	0,186847
5,512500	0,1	0,184938
5,514167	0,1	0,225561
5,515833	0,1	0,167906
5,517500	0,1	0,187737
5,519167	0,1	0,189106
5,520833	0,1	0,148990
5,522500	0,1	0,187253
5,524167	0,1	0,205124
5,525833	0,1	0,192812
5,527500	0,1	0,192872
5,529167	0,1	0,204721
5,530833	0,1	0,147847
5,532500	0,1	0,197332
5,534167	0,1	0,208813
5,535833	0,1	0,191070
5,537500	0,1	0,190521
5,539167	0,1	0,174254
5,540833	0,1	0,205108
5,542500	0,1	0,177415
5,544167	0,1	0,200284
5,545833	0,1	0,198443
5,547500	0,1	0,157444
5,549167	0,1	0,171314
5,550833	0,1	0,193903
5,552500	0,1	0,199315
5,554167	0,1	0,161765
5,555833	0,1	0,179918
5,557500	0,1	0,165004
5,559167	0,1	0,176761
5,560833	0,1	0,156214
5,562500	0,1	0,199153
5,564167	0,1	0,152291
5,565833	0,1	0,184096
5,567500	0,1	0,173468
5,569167	0,1	0,182787
5,570833	0,1	0,148131
5,572500	0,1	0,176528
5,574167	0,1	0,114660
5,575833	0,1	0,183646
5,577500	0,1	0,184785
5,579167	0,1	0,159208
5,580833	0,1	0,178048
5,582500	0,1	0,190127
5,584167	0,1	0,213725
5,585833	0,1	0,144691
5,587500	0,1	0,145734
5,589167	0,1	0,146026
5,590833	0,1	0,171414
5,592500	0,1	0,210689
5,594167	0,1	0,177958
5,595833	0,1	0,174869
5,597500	0,1	0,145326
5,599167	0,1	0,178500
5,600833	0,1	0,161720
5,602500	0,1	0,190617
5,604167	0,1	0,152782
5,605833	0,1	0,168069
5,607500	0,1	0,175600
5,609167	0,1	0,159371
5,610833	0,1	0,181661
5,612500	0,1	0,173215
5,614167	0,1	0,180061
5,615833	0,1	0,138405
5,617500	0,1	0,128797
5,619167	0,1	0,157010
5,620833	0,1	0,166831
5,622500	0,1	0,180172
5,624167	0,1	0,177864
5,625833	0,1	0,100905
5,627500	0,1	0,178678
5,629167	0,1	0,172860
5,630833	0,1	0,189684
5,632500	0,1	0,172876
5,634167	0,1	0,166494
5,635833	0,1	0,181978
5,637500	0,1	0,160472
5,639167	0,1	0,199672
5,640833	0,1	0,147742
5,642500	0,1	0,212035
5,644167	0,1	0,157533
5,645833	0,1	0,191386
5,647500	0,1	0,163947
5,649167	0,1	0,140774
5,650833	0,1	0,159197
5,652500	0,1	0,169877
5,654167	0,1	0,159888
5,655833	0,1	0,153570
5,657500	0,1	0,186192
5,659167	0,1	0,157504
5,660833	0,1	0,142101
5,662500	0,1	0,142135
5,664167	0,1	0,172662
5,665833	0,1	0,195089
5,667500	0,1	0,172233
5,669167	0,1	0,200445
5,670833	0,1	0,184019
5,672500	0,1	0,187528
5,674167	0,1	0,180088
5,675833	0,1	0,160724
5,677500	0,1	0,213326
5,679167	0,1	0,178792
5,680833	0,1	0,159106
5,682500	0,1	0,165809
5,684167	0,1	0,163712
5,685833	0,1	0,213935
5,687500	0,1	0,137669
5,689167	0,1	0,159385
5,690833	0,1	0,205180
5,692500	0,1	0,167234
5,694167	0,1	0,182078
5,695833	0,1	0,175666
5,697500	0,1	0,198351
5,699167	0,1	0,209105
5,700833	0,1	0,185562
5,702500	0,1	0,176033
5,704167	0,1	0,179112
5,705833	0,1	0,202304
5,707500	0,1	0,170580
5,709167	0,1	0,197224
5,710833	0,1	0,186658
5,712500	0,1	0,184772
5,714167	0,1	0,180668
5,715833	0,1	0,176144
5,717500	0,1	0,167895
5,719167	0,1	0,173100
5,720833	0,1	0,173353
5,722500	0,1	0,185971
5,724167	0,1	0,147802
5,725833	0,1	0,199430
5,727500	0,1	0,181239
5,729167	0,1	0,180982
5,730833	0,1	0,196356
5,732500	0,1	0,233460
5,734167	0,1	0,197870
5,735833	0,1	0,203609
5,737500	0,1	0,198697
5,739167	0,1	0,205821
5,740833	0,1	0,197674
5,742500	0,1	0,178081
5,744167	0,1	0,219496
5,745833	0,1	0,219557
5,747500	0,1	0,193358
5,749167	0,1	0,243905
5,750833	0,1	0,201094
5,752500	0,1	0,204696
5,754167	0,1	0,216546
5,755833	0,1	0,244781
5,757500	0,1	0,244171
5,759167	0,1	0,197584
5,760833	0,1	0,239523
5,762500	0,1	0,203709
5,764167	0,1	0,225679
5,765833	0,1	0,201520
5,767500	0,1	0,166486
5,769167	0,1	0,251365
5,770833	0,1	0,216241
5,772500	0,1	0,214264
5,774167	0,1	0,247674
5,775833	0,1	0,218982
5,777500	0,1	0,208819
5,779167	0,1	0,198864
5,780833	0,1	0,211277
5,782500	0,1	0,188368
5,784167	0,1	0,244647
5,785833	0,1	0,229251
5,787500	0,1	0,227997
5,789167	0,1	0,253704
5,790833	0,1	0,213439
5,792500	0,1	0,196388
5,794167	0,1	0,197964
5,795833	0,1	0,238752
5,797500	0,1	0,203354
5,799167	0,1	0,219806
5,800833	0,1	0,212344
5,802500	0,1	0,207415
5,804167	0,1	0,201642
5,805833	0,1	0,175379
5,807500	0,1	0,213381
5,809167	0,1	0,217105
5,810833	0,1	0,195037
5,812500	0,1	0,182729
5,814167	0,1	0,204502
5,815833	0,1	0,227636
5,817500	0,1	0,195355
5,819167	0,1	0,204481
5,820833	0,1	0,213617
5,822500	0,1	0,184503
5,824167	0,1	0,176929
5,825833	0,1	0,238772
5,827500	0,1	0,218336
5,829167	0,1	0,218608
5,830833	0,1	0,205345
5,832500	0,1	0,225313
5,834167	0,1	0,164144
5,835833	0,1	0,224116
5,837500	0,1	0,195999
5,839167	0,1	0,193770
5,840833	0,1	0,216077
5,842500	0,1	0,195100
5,844167	0,1	0,240255
5,845833	0,1	0,199805
5,847500	0,1	0,206150
5,849167	0,1	0,166565
5,850833	0,1	0,227109
5,852500	0,1	0,202063
5,854167	0,1	0,196614
5,855833	0,1	0,222342
5,857500	0,1	0,194381
5,859167	0,1	0,176516
5,860833	0,1	0,198085
5,862500	0,1	0,205758
5,864167	0,1	0,225439
5,865833	0,1	0,189281
5,867500	0,1	0,145604
5,869167	0,1	0,218148
5,870833	0,1	0,228284
5,872500	0,1	0,202644
5,874167	0,1	0,198218
5,875833	0,1	0,224516
5,877500	0,1	0,205801
5,879167	0,1	0,147429
5,880833	0,1	0,196916
5,882500	0,1	0,214852
5,884167	0,1	0,213493
5,885833	0,1	0,171682
5,887500	0,1	0,190972
5,889167	0,1	0,184308
5,890833	0,1	0,176640
5,892500	0,1	0,185112
5,894167	0,1	0,172861
5,895833	0,1	0,172088
5,897500	0,1	0,148168
5,899167	0,1	0,170581
5,900833	0,1	0,206269
5,902500	0,1	0,189794
5,904167	0,1	0,234568
5,905833	0,1	0,196077
5,907500	0,1	0,166359
5,909167	0,1	0,189519
5,910833	0,1	0,109071
5,912500	0,1	0,153847
5,914167	0,1	0,192584
5,915833	0,1	0,161056
5,917500	0,1	0,163207
5,919167	0,1	0,193775
5,920833	0,1	0,191269
5,922500	0,1	0,128787
5,924167	0,1	0,156821
5,925833	0,1	0,153418
5,927500	0,1	0,185398
5,929167	0,1	0,178988
5,930833	0,1	0,169693
5,932500	0,1	0,178529
5,934167	0,1	0,172481
5,935833	0,1	0,148938
5,937500	0,1	0,141681
5,939167	0,1	0,121712
5,940833	0,1	0,175752
5,942500	0,1	0,151123
5,944167	0,1	0,145813
5,945833	0,1	0,167675
5,947500	0,1	0,178087
5,949167	0,1	0,162945
5,950833	0,1	0,156955
5,952500	0,1	0,152078
5,954167	0,1	0,137717
5,955833	0,1	0,152543
5,957500	0,1	0,155538
5,959167	0,1	0,176381
5,960833	0,1	0,150024
5,962500	0,1	0,180938
5,964167	0,1	0,150518
5,965833	0,1	0,166843
5,967500	0,1	0,186046
5,969167	0,1	0,163617
5,970833	0,1	0,095829
5,972500	0,1	0,149461
5,974167	0,1	0,137235
5,975833	0,1	0,131335
5,977500	0,1	0,135880
5,979167	0,1	0,132246
5,980833	0,1	0,149470
5,982500	0,1	0,129962
5,984167	0,1	0,187843
5,985833	0,1	0,155902
5,987500	0,1	0,172602
5,989167	0,1	0,135334
5,990833	0,1	0,155723
5,992500	0,1	0,181039
5,994167	0,1	0,144243
5,995833	0,1	0,155018
5,997500	0,1	0,121347
5,999167	0,1	0,155202
6,000833	0,1	0,153025
