File Path	chrom://chromeleon01/ikbm_chromeleon/2022/Rezex/Esteban/220612_chitin_4_7.seq/615.smp/UV_VIS_1.channel/UV_VIS_1.chm
Channel	UV_VIS_1

Injection Information:
Data Vault	ikbm_chromeleon
Injection	4_24h-NT_NA
Injection Number	32
Position	RD4
Comment	
Processing Method	New ProcMethod
Instrument Method	Short_Rezex_6min_194nm
Type	Unknown
Status	Finished
Injection Date	12.06.2022
Injection Time	20:35:03
Injection Volume (µl)	8,000
Dilution Factor	1,0000
Weight	1,0000

Chromatogram Data Information:
Time Min. (min)	0,000833
Time Max. (min)	6,000833
Data Points	3601
Detector	UV
Generating Data System	Chromeleon 7.2.9.11323
Exporting Data System	Chromeleon 7.2.9.0
Operator	Instrument Controller
Signal Quantity	Absorbance
Signal Unit	mAU
Signal Min.	-0,147938
Signal Max.	86,463776
Channel	UV_VIS_1
Driver Name	VWD3000.dll
Channel Type	Evaluation
Min. Step (s)	0,1
Max. Step (s)	0,1
Average Step (s)	0,1

Signal Parameter Information:
Signal Info	WVL:194 nm

Chromatogram Data:
Time (min)	Step (s)	Value (mAU)
0,000833	n.a.	-0,074919
0,002500	0,1	-0,048556
0,004167	0,1	-0,087792
0,005833	0,1	-0,057701
0,007500	0,1	-0,100174
0,009167	0,1	-0,042452
0,010833	0,1	-0,057979
0,012500	0,1	-0,050547
0,014167	0,1	-0,053514
0,015833	0,1	-0,086587
0,017500	0,1	-0,098374
0,019167	0,1	-0,082819
0,020833	0,1	-0,070123
0,022500	0,1	-0,067625
0,024167	0,1	-0,077079
0,025833	0,1	-0,041949
0,027500	0,1	-0,096848
0,029167	0,1	-0,095094
0,030833	0,1	-0,081030
0,032500	0,1	-0,115240
0,034167	0,1	-0,093811
0,035833	0,1	-0,105170
0,037500	0,1	-0,119734
0,039167	0,1	-0,115644
0,040833	0,1	-0,140550
0,042500	0,1	-0,116418
0,044167	0,1	-0,123518
0,045833	0,1	-0,088703
0,047500	0,1	-0,147938
0,049167	0,1	-0,141202
0,050833	0,1	-0,103768
0,052500	0,1	-0,061694
0,054167	0,1	-0,051276
0,055833	0,1	-0,115690
0,057500	0,1	-0,099212
0,059167	0,1	-0,056666
0,060833	0,1	-0,120366
0,062500	0,1	-0,073871
0,064167	0,1	-0,084889
0,065833	0,1	-0,070267
0,067500	0,1	-0,102588
0,069167	0,1	-0,111881
0,070833	0,1	-0,062003
0,072500	0,1	-0,078759
0,074167	0,1	-0,055349
0,075833	0,1	-0,091325
0,077500	0,1	-0,097524
0,079167	0,1	-0,076419
0,080833	0,1	-0,053646
0,082500	0,1	-0,028585
0,084167	0,1	-0,094976
0,085833	0,1	-0,019412
0,087500	0,1	-0,060612
0,089167	0,1	-0,046972
0,090833	0,1	-0,020132
0,092500	0,1	-0,078913
0,094167	0,1	-0,075063
0,095833	0,1	-0,027821
0,097500	0,1	-0,054693
0,099167	0,1	-0,062138
0,100833	0,1	-0,057215
0,102500	0,1	-0,079464
0,104167	0,1	-0,065445
0,105833	0,1	-0,053020
0,107500	0,1	-0,090845
0,109167	0,1	-0,049785
0,110833	0,1	-0,051331
0,112500	0,1	-0,089931
0,114167	0,1	-0,087282
0,115833	0,1	-0,133107
0,117500	0,1	-0,089537
0,119167	0,1	-0,086494
0,120833	0,1	-0,088612
0,122500	0,1	-0,111566
0,124167	0,1	-0,087995
0,125833	0,1	-0,091810
0,127500	0,1	-0,101431
0,129167	0,1	-0,087680
0,130833	0,1	-0,094740
0,132500	0,1	-0,102759
0,134167	0,1	-0,041210
0,135833	0,1	-0,078316
0,137500	0,1	-0,120559
0,139167	0,1	-0,104490
0,140833	0,1	-0,109099
0,142500	0,1	-0,073720
0,144167	0,1	-0,040974
0,145833	0,1	-0,071691
0,147500	0,1	-0,047870
0,149167	0,1	-0,070902
0,150833	0,1	-0,081895
0,152500	0,1	-0,077851
0,154167	0,1	-0,047182
0,155833	0,1	-0,070258
0,157500	0,1	-0,091805
0,159167	0,1	-0,030109
0,160833	0,1	-0,027188
0,162500	0,1	-0,048378
0,164167	0,1	-0,040035
0,165833	0,1	-0,076822
0,167500	0,1	-0,052295
0,169167	0,1	-0,065647
0,170833	0,1	-0,066586
0,172500	0,1	-0,058858
0,174167	0,1	-0,077408
0,175833	0,1	-0,057966
0,177500	0,1	-0,031201
0,179167	0,1	-0,091569
0,180833	0,1	-0,038607
0,182500	0,1	-0,054156
0,184167	0,1	-0,070385
0,185833	0,1	-0,050236
0,187500	0,1	-0,064627
0,189167	0,1	-0,051231
0,190833	0,1	-0,055116
0,192500	0,1	-0,039163
0,194167	0,1	-0,057603
0,195833	0,1	-0,039950
0,197500	0,1	-0,091673
0,199167	0,1	-0,068752
0,200833	0,1	-0,014630
0,202500	0,1	-0,030884
0,204167	0,1	-0,069381
0,205833	0,1	-0,111581
0,207500	0,1	-0,076359
0,209167	0,1	-0,058610
0,210833	0,1	-0,051128
0,212500	0,1	-0,083327
0,214167	0,1	-0,055037
0,215833	0,1	-0,045039
0,217500	0,1	-0,078400
0,219167	0,1	-0,074505
0,220833	0,1	-0,013547
0,222500	0,1	-0,059427
0,224167	0,1	-0,073708
0,225833	0,1	-0,046645
0,227500	0,1	-0,100588
0,229167	0,1	-0,095677
0,230833	0,1	-0,027078
0,232500	0,1	-0,034563
0,234167	0,1	-0,107584
0,235833	0,1	-0,047920
0,237500	0,1	-0,052995
0,239167	0,1	-0,026093
0,240833	0,1	-0,055315
0,242500	0,1	-0,099405
0,244167	0,1	-0,058160
0,245833	0,1	-0,053743
0,247500	0,1	-0,036524
0,249167	0,1	-0,009054
0,250833	0,1	-0,060422
0,252500	0,1	-0,054930
0,254167	0,1	-0,062303
0,255833	0,1	-0,037085
0,257500	0,1	-0,056195
0,259167	0,1	-0,046226
0,260833	0,1	-0,060243
0,262500	0,1	-0,026403
0,264167	0,1	-0,009671
0,265833	0,1	-0,038981
0,267500	0,1	-0,024551
0,269167	0,1	-0,085378
0,270833	0,1	-0,060026
0,272500	0,1	-0,061182
0,274167	0,1	-0,039039
0,275833	0,1	-0,081079
0,277500	0,1	-0,040081
0,279167	0,1	-0,058727
0,280833	0,1	-0,062303
0,282500	0,1	-0,024933
0,284167	0,1	-0,066201
0,285833	0,1	-0,068370
0,287500	0,1	-0,021668
0,289167	0,1	-0,055234
0,290833	0,1	-0,069097
0,292500	0,1	-0,102628
0,294167	0,1	-0,041227
0,295833	0,1	-0,110703
0,297500	0,1	-0,073927
0,299167	0,1	-0,022108
0,300833	0,1	-0,012623
0,302500	0,1	-0,007280
0,304167	0,1	-0,062309
0,305833	0,1	-0,025492
0,307500	0,1	-0,042873
0,309167	0,1	-0,034693
0,310833	0,1	-0,052017
0,312500	0,1	-0,047802
0,314167	0,1	-0,055091
0,315833	0,1	-0,068555
0,317500	0,1	-0,073961
0,319167	0,1	-0,049844
0,320833	0,1	-0,025489
0,322500	0,1	-0,043848
0,324167	0,1	-0,088329
0,325833	0,1	-0,016190
0,327500	0,1	0,001611
0,329167	0,1	0,014812
0,330833	0,1	-0,039518
0,332500	0,1	-0,033922
0,334167	0,1	-0,000263
0,335833	0,1	-0,047957
0,337500	0,1	-0,000369
0,339167	0,1	-0,057554
0,340833	0,1	-0,046055
0,342500	0,1	0,028302
0,344167	0,1	-0,018779
0,345833	0,1	-0,013094
0,347500	0,1	-0,032189
0,349167	0,1	0,015700
0,350833	0,1	-0,029941
0,352500	0,1	-0,044681
0,354167	0,1	0,009104
0,355833	0,1	-0,066631
0,357500	0,1	-0,025824
0,359167	0,1	-0,016529
0,360833	0,1	-0,017791
0,362500	0,1	-0,046899
0,364167	0,1	-0,020854
0,365833	0,1	0,006926
0,367500	0,1	-0,035530
0,369167	0,1	-0,004520
0,370833	0,1	-0,024960
0,372500	0,1	-0,010732
0,374167	0,1	-0,022778
0,375833	0,1	-0,026645
0,377500	0,1	0,024026
0,379167	0,1	-0,039704
0,380833	0,1	-0,013413
0,382500	0,1	-0,037693
0,384167	0,1	-0,012376
0,385833	0,1	0,016678
0,387500	0,1	-0,004256
0,389167	0,1	0,012438
0,390833	0,1	0,023314
0,392500	0,1	-0,008348
0,394167	0,1	0,015554
0,395833	0,1	0,010785
0,397500	0,1	-0,014108
0,399167	0,1	-0,051699
0,400833	0,1	0,008458
0,402500	0,1	0,018135
0,404167	0,1	-0,014043
0,405833	0,1	-0,025936
0,407500	0,1	-0,008612
0,409167	0,1	-0,002660
0,410833	0,1	0,009570
0,412500	0,1	0,013626
0,414167	0,1	0,009181
0,415833	0,1	-0,015626
0,417500	0,1	-0,003542
0,419167	0,1	0,031495
0,420833	0,1	0,007442
0,422500	0,1	-0,002515
0,424167	0,1	0,009469
0,425833	0,1	-0,019427
0,427500	0,1	0,034194
0,429167	0,1	0,002644
0,430833	0,1	0,022794
0,432500	0,1	0,006506
0,434167	0,1	-0,005736
0,435833	0,1	0,011298
0,437500	0,1	-0,024061
0,439167	0,1	-0,005501
0,440833	0,1	-0,006093
0,442500	0,1	0,028225
0,444167	0,1	0,019327
0,445833	0,1	0,025627
0,447500	0,1	0,031818
0,449167	0,1	0,024418
0,450833	0,1	-0,004569
0,452500	0,1	-0,021379
0,454167	0,1	0,057839
0,455833	0,1	0,000451
0,457500	0,1	0,001496
0,459167	0,1	0,007727
0,460833	0,1	0,000187
0,462500	0,1	-0,004009
0,464167	0,1	0,010465
0,465833	0,1	0,024868
0,467500	0,1	0,022192
0,469167	0,1	0,035656
0,470833	0,1	-0,007434
0,472500	0,1	0,075399
0,474167	0,1	0,028686
0,475833	0,1	0,023734
0,477500	0,1	0,030011
0,479167	0,1	0,053671
0,480833	0,1	-0,003918
0,482500	0,1	-0,018205
0,484167	0,1	0,001407
0,485833	0,1	0,043444
0,487500	0,1	0,022489
0,489167	0,1	0,054894
0,490833	0,1	0,025294
0,492500	0,1	0,027434
0,494167	0,1	0,003979
0,495833	0,1	0,032204
0,497500	0,1	0,020325
0,499167	0,1	-0,000328
0,500833	0,1	0,054129
0,502500	0,1	0,011564
0,504167	0,1	0,039189
0,505833	0,1	0,060039
0,507500	0,1	0,020646
0,509167	0,1	0,023772
0,510833	0,1	0,065415
0,512500	0,1	0,020977
0,514167	0,1	0,029758
0,515833	0,1	0,011180
0,517500	0,1	0,016684
0,519167	0,1	0,025311
0,520833	0,1	0,033661
0,522500	0,1	0,058888
0,524167	0,1	0,040389
0,525833	0,1	0,039147
0,527500	0,1	0,055553
0,529167	0,1	0,060106
0,530833	0,1	0,038179
0,532500	0,1	0,034131
0,534167	0,1	0,087585
0,535833	0,1	0,025643
0,537500	0,1	0,002313
0,539167	0,1	0,035677
0,540833	0,1	0,034978
0,542500	0,1	0,065481
0,544167	0,1	0,062104
0,545833	0,1	0,047931
0,547500	0,1	0,090154
0,549167	0,1	0,038212
0,550833	0,1	0,051120
0,552500	0,1	0,071574
0,554167	0,1	0,042362
0,555833	0,1	0,052764
0,557500	0,1	0,052830
0,559167	0,1	0,047952
0,560833	0,1	0,062136
0,562500	0,1	0,068127
0,564167	0,1	0,072765
0,565833	0,1	0,066565
0,567500	0,1	0,073056
0,569167	0,1	0,088847
0,570833	0,1	0,085010
0,572500	0,1	0,099728
0,574167	0,1	0,095624
0,575833	0,1	0,077154
0,577500	0,1	0,088165
0,579167	0,1	0,079768
0,580833	0,1	0,113003
0,582500	0,1	0,103256
0,584167	0,1	0,084180
0,585833	0,1	0,088483
0,587500	0,1	0,085567
0,589167	0,1	0,079831
0,590833	0,1	0,091932
0,592500	0,1	0,114749
0,594167	0,1	0,081960
0,595833	0,1	0,089419
0,597500	0,1	0,113358
0,599167	0,1	0,128221
0,600833	0,1	0,094912
0,602500	0,1	0,107018
0,604167	0,1	0,107110
0,605833	0,1	0,129762
0,607500	0,1	0,084376
0,609167	0,1	0,134203
0,610833	0,1	0,106964
0,612500	0,1	0,100804
0,614167	0,1	0,093135
0,615833	0,1	0,120157
0,617500	0,1	0,104472
0,619167	0,1	0,142038
0,620833	0,1	0,156350
0,622500	0,1	0,141787
0,624167	0,1	0,112828
0,625833	0,1	0,149801
0,627500	0,1	0,123301
0,629167	0,1	0,137596
0,630833	0,1	0,125611
0,632500	0,1	0,136863
0,634167	0,1	0,131927
0,635833	0,1	0,160540
0,637500	0,1	0,144175
0,639167	0,1	0,153192
0,640833	0,1	0,149265
0,642500	0,1	0,153548
0,644167	0,1	0,163087
0,645833	0,1	0,160348
0,647500	0,1	0,145692
0,649167	0,1	0,186501
0,650833	0,1	0,156424
0,652500	0,1	0,145101
0,654167	0,1	0,158511
0,655833	0,1	0,160355
0,657500	0,1	0,136380
0,659167	0,1	0,178582
0,660833	0,1	0,169890
0,662500	0,1	0,156449
0,664167	0,1	0,179587
0,665833	0,1	0,203271
0,667500	0,1	0,197866
0,669167	0,1	0,159232
0,670833	0,1	0,167854
0,672500	0,1	0,188638
0,674167	0,1	0,197567
0,675833	0,1	0,180942
0,677500	0,1	0,185647
0,679167	0,1	0,224441
0,680833	0,1	0,178731
0,682500	0,1	0,206748
0,684167	0,1	0,198250
0,685833	0,1	0,222416
0,687500	0,1	0,209500
0,689167	0,1	0,178757
0,690833	0,1	0,196182
0,692500	0,1	0,249030
0,694167	0,1	0,236798
0,695833	0,1	0,189880
0,697500	0,1	0,262982
0,699167	0,1	0,253785
0,700833	0,1	0,220299
0,702500	0,1	0,270532
0,704167	0,1	0,236125
0,705833	0,1	0,233253
0,707500	0,1	0,241469
0,709167	0,1	0,218852
0,710833	0,1	0,256513
0,712500	0,1	0,237800
0,714167	0,1	0,247654
0,715833	0,1	0,280819
0,717500	0,1	0,280567
0,719167	0,1	0,249534
0,720833	0,1	0,264899
0,722500	0,1	0,289878
0,724167	0,1	0,292465
0,725833	0,1	0,254501
0,727500	0,1	0,283494
0,729167	0,1	0,300583
0,730833	0,1	0,284150
0,732500	0,1	0,286208
0,734167	0,1	0,293362
0,735833	0,1	0,262067
0,737500	0,1	0,271988
0,739167	0,1	0,320591
0,740833	0,1	0,298043
0,742500	0,1	0,357082
0,744167	0,1	0,330602
0,745833	0,1	0,345263
0,747500	0,1	0,362315
0,749167	0,1	0,334020
0,750833	0,1	0,381492
0,752500	0,1	0,352366
0,754167	0,1	0,353228
0,755833	0,1	0,345010
0,757500	0,1	0,337788
0,759167	0,1	0,397834
0,760833	0,1	0,342925
0,762500	0,1	0,372147
0,764167	0,1	0,387851
0,765833	0,1	0,384824
0,767500	0,1	0,389112
0,769167	0,1	0,344439
0,770833	0,1	0,416182
0,772500	0,1	0,409007
0,774167	0,1	0,366297
0,775833	0,1	0,432011
0,777500	0,1	0,401919
0,779167	0,1	0,405106
0,780833	0,1	0,341799
0,782500	0,1	0,383652
0,784167	0,1	0,404457
0,785833	0,1	0,404556
0,787500	0,1	0,392598
0,789167	0,1	0,424828
0,790833	0,1	0,420553
0,792500	0,1	0,419356
0,794167	0,1	0,410138
0,795833	0,1	0,433473
0,797500	0,1	0,456240
0,799167	0,1	0,453861
0,800833	0,1	0,445089
0,802500	0,1	0,390611
0,804167	0,1	0,368321
0,805833	0,1	0,422246
0,807500	0,1	0,437248
0,809167	0,1	0,412042
0,810833	0,1	0,409136
0,812500	0,1	0,429540
0,814167	0,1	0,446921
0,815833	0,1	0,448441
0,817500	0,1	0,455822
0,819167	0,1	0,448767
0,820833	0,1	0,438838
0,822500	0,1	0,406885
0,824167	0,1	0,432186
0,825833	0,1	0,446921
0,827500	0,1	0,422101
0,829167	0,1	0,456011
0,830833	0,1	0,464882
0,832500	0,1	0,421819
0,834167	0,1	0,480578
0,835833	0,1	0,471565
0,837500	0,1	0,505118
0,839167	0,1	0,488141
0,840833	0,1	0,492486
0,842500	0,1	0,455094
0,844167	0,1	0,467206
0,845833	0,1	0,419694
0,847500	0,1	0,499213
0,849167	0,1	0,497558
0,850833	0,1	0,467055
0,852500	0,1	0,477851
0,854167	0,1	0,485846
0,855833	0,1	0,457701
0,857500	0,1	0,470595
0,859167	0,1	0,499544
0,860833	0,1	0,506877
0,862500	0,1	0,474925
0,864167	0,1	0,499263
0,865833	0,1	0,540861
0,867500	0,1	0,532161
0,869167	0,1	0,491278
0,870833	0,1	0,484144
0,872500	0,1	0,552073
0,874167	0,1	0,521431
0,875833	0,1	0,516902
0,877500	0,1	0,517453
0,879167	0,1	0,525161
0,880833	0,1	0,547765
0,882500	0,1	0,521944
0,884167	0,1	0,545155
0,885833	0,1	0,523878
0,887500	0,1	0,536613
0,889167	0,1	0,563965
0,890833	0,1	0,565607
0,892500	0,1	0,536689
0,894167	0,1	0,551058
0,895833	0,1	0,537975
0,897500	0,1	0,585594
0,899167	0,1	0,578998
0,900833	0,1	0,555871
0,902500	0,1	0,593312
0,904167	0,1	0,572129
0,905833	0,1	0,549066
0,907500	0,1	0,598103
0,909167	0,1	0,590228
0,910833	0,1	0,596666
0,912500	0,1	0,600537
0,914167	0,1	0,586254
0,915833	0,1	0,618923
0,917500	0,1	0,591906
0,919167	0,1	0,618148
0,920833	0,1	0,571715
0,922500	0,1	0,604438
0,924167	0,1	0,626733
0,925833	0,1	0,626054
0,927500	0,1	0,621512
0,929167	0,1	0,622182
0,930833	0,1	0,642613
0,932500	0,1	0,636681
0,934167	0,1	0,686429
0,935833	0,1	0,653884
0,937500	0,1	0,676402
0,939167	0,1	0,698380
0,940833	0,1	0,702851
0,942500	0,1	0,674558
0,944167	0,1	0,694011
0,945833	0,1	0,711248
0,947500	0,1	0,692649
0,949167	0,1	0,702993
0,950833	0,1	0,734608
0,952500	0,1	0,728693
0,954167	0,1	0,707137
0,955833	0,1	0,736048
0,957500	0,1	0,771102
0,959167	0,1	0,758696
0,960833	0,1	0,782077
0,962500	0,1	0,732758
0,964167	0,1	0,749273
0,965833	0,1	0,830804
0,967500	0,1	0,764137
0,969167	0,1	0,789153
0,970833	0,1	0,797011
0,972500	0,1	0,812259
0,974167	0,1	0,797554
0,975833	0,1	0,825498
0,977500	0,1	0,811216
0,979167	0,1	0,805851
0,980833	0,1	0,861283
0,982500	0,1	0,824265
0,984167	0,1	0,833603
0,985833	0,1	0,834562
0,987500	0,1	0,905579
0,989167	0,1	0,883606
0,990833	0,1	0,903588
0,992500	0,1	0,859349
0,994167	0,1	0,916200
0,995833	0,1	0,935980
0,997500	0,1	0,896146
0,999167	0,1	0,910246
1,000833	0,1	0,929524
1,002500	0,1	0,957240
1,004167	0,1	0,970493
1,005833	0,1	0,966111
1,007500	0,1	0,969674
1,009167	0,1	0,983009
1,010833	0,1	0,979227
1,012500	0,1	0,978801
1,014167	0,1	1,044471
1,015833	0,1	1,012302
1,017500	0,1	1,054857
1,019167	0,1	1,030825
1,020833	0,1	1,100264
1,022500	0,1	1,104905
1,024167	0,1	1,080383
1,025833	0,1	1,092834
1,027500	0,1	1,123681
1,029167	0,1	1,156624
1,030833	0,1	1,152025
1,032500	0,1	1,147300
1,034167	0,1	1,151819
1,035833	0,1	1,193901
1,037500	0,1	1,208342
1,039167	0,1	1,177312
1,040833	0,1	1,207424
1,042500	0,1	1,243566
1,044167	0,1	1,223124
1,045833	0,1	1,248942
1,047500	0,1	1,287982
1,049167	0,1	1,294974
1,050833	0,1	1,314934
1,052500	0,1	1,379134
1,054167	0,1	1,399376
1,055833	0,1	1,397937
1,057500	0,1	1,407318
1,059167	0,1	1,534524
1,060833	0,1	1,643377
1,062500	0,1	1,743476
1,064167	0,1	1,921888
1,065833	0,1	2,105991
1,067500	0,1	2,344219
1,069167	0,1	2,693798
1,070833	0,1	3,028884
1,072500	0,1	3,549903
1,074167	0,1	4,100165
1,075833	0,1	4,711258
1,077500	0,1	5,533131
1,079167	0,1	6,454621
1,080833	0,1	7,504895
1,082500	0,1	8,666336
1,084167	0,1	9,905703
1,085833	0,1	11,321850
1,087500	0,1	12,873342
1,089167	0,1	14,358182
1,090833	0,1	16,082438
1,092500	0,1	17,781258
1,094167	0,1	19,449279
1,095833	0,1	21,178649
1,097500	0,1	22,860482
1,099167	0,1	24,511988
1,100833	0,1	26,060114
1,102500	0,1	27,468904
1,104167	0,1	28,804393
1,105833	0,1	30,027421
1,107500	0,1	30,997317
1,109167	0,1	31,857739
1,110833	0,1	32,539956
1,112500	0,1	33,106517
1,114167	0,1	33,441616
1,115833	0,1	33,579917
1,117500	0,1	33,581538
1,119167	0,1	33,495757
1,120833	0,1	33,180174
1,122500	0,1	32,785480
1,124167	0,1	32,213928
1,125833	0,1	31,544113
1,127500	0,1	30,795354
1,129167	0,1	29,978408
1,130833	0,1	29,084713
1,132500	0,1	28,126087
1,134167	0,1	27,129764
1,135833	0,1	26,113000
1,137500	0,1	25,006584
1,139167	0,1	23,948256
1,140833	0,1	22,835339
1,142500	0,1	21,804614
1,144167	0,1	20,735382
1,145833	0,1	19,718691
1,147500	0,1	18,729875
1,149167	0,1	17,738401
1,150833	0,1	16,804560
1,152500	0,1	15,967136
1,154167	0,1	15,117254
1,155833	0,1	14,304287
1,157500	0,1	13,555624
1,159167	0,1	12,853222
1,160833	0,1	12,187902
1,162500	0,1	11,575843
1,164167	0,1	10,942098
1,165833	0,1	10,448090
1,167500	0,1	9,952213
1,169167	0,1	9,448063
1,170833	0,1	9,074242
1,172500	0,1	8,628910
1,174167	0,1	8,241572
1,175833	0,1	7,944463
1,177500	0,1	7,655528
1,179167	0,1	7,364409
1,180833	0,1	7,106500
1,182500	0,1	6,870513
1,184167	0,1	6,647000
1,185833	0,1	6,463388
1,187500	0,1	6,232332
1,189167	0,1	6,068307
1,190833	0,1	5,960329
1,192500	0,1	5,794280
1,194167	0,1	5,664554
1,195833	0,1	5,555948
1,197500	0,1	5,423533
1,199167	0,1	5,346959
1,200833	0,1	5,251724
1,202500	0,1	5,159723
1,204167	0,1	5,104500
1,205833	0,1	5,017391
1,207500	0,1	4,990146
1,209167	0,1	4,873501
1,210833	0,1	4,818422
1,212500	0,1	4,784965
1,214167	0,1	4,756113
1,215833	0,1	4,704538
1,217500	0,1	4,643689
1,219167	0,1	4,630204
1,220833	0,1	4,613223
1,222500	0,1	4,595510
1,224167	0,1	4,558986
1,225833	0,1	4,544441
1,227500	0,1	4,549811
1,229167	0,1	4,476317
1,230833	0,1	4,489801
1,232500	0,1	4,458401
1,234167	0,1	4,486576
1,235833	0,1	4,459499
1,237500	0,1	4,423420
1,239167	0,1	4,436306
1,240833	0,1	4,402602
1,242500	0,1	4,401438
1,244167	0,1	4,384366
1,245833	0,1	4,388925
1,247500	0,1	4,343860
1,249167	0,1	4,354549
1,250833	0,1	4,354058
1,252500	0,1	4,342558
1,254167	0,1	4,348156
1,255833	0,1	4,345637
1,257500	0,1	4,317752
1,259167	0,1	4,306798
1,260833	0,1	4,346561
1,262500	0,1	4,264896
1,264167	0,1	4,324717
1,265833	0,1	4,271351
1,267500	0,1	4,286010
1,269167	0,1	4,310000
1,270833	0,1	4,303589
1,272500	0,1	4,241016
1,274167	0,1	4,239012
1,275833	0,1	4,261082
1,277500	0,1	4,261092
1,279167	0,1	4,239300
1,280833	0,1	4,214382
1,282500	0,1	4,214944
1,284167	0,1	4,232867
1,285833	0,1	4,252793
1,287500	0,1	4,210439
1,289167	0,1	4,206036
1,290833	0,1	4,223316
1,292500	0,1	4,192020
1,294167	0,1	4,227253
1,295833	0,1	4,237909
1,297500	0,1	4,212021
1,299167	0,1	4,223511
1,300833	0,1	4,236607
1,302500	0,1	4,166089
1,304167	0,1	4,203021
1,305833	0,1	4,158846
1,307500	0,1	4,127541
1,309167	0,1	4,164558
1,310833	0,1	4,164528
1,312500	0,1	4,138881
1,314167	0,1	4,181512
1,315833	0,1	4,160304
1,317500	0,1	4,138272
1,319167	0,1	4,110711
1,320833	0,1	4,129155
1,322500	0,1	4,151552
1,324167	0,1	4,097749
1,325833	0,1	4,150000
1,327500	0,1	4,114372
1,329167	0,1	4,113021
1,330833	0,1	4,077503
1,332500	0,1	4,123822
1,334167	0,1	4,096361
1,335833	0,1	4,097616
1,337500	0,1	4,065470
1,339167	0,1	4,049127
1,340833	0,1	4,082120
1,342500	0,1	4,111105
1,344167	0,1	4,112900
1,345833	0,1	4,084329
1,347500	0,1	4,079407
1,349167	0,1	4,048362
1,350833	0,1	4,044087
1,352500	0,1	4,018364
1,354167	0,1	4,021854
1,355833	0,1	4,027137
1,357500	0,1	4,022217
1,359167	0,1	4,022424
1,360833	0,1	4,063056
1,362500	0,1	4,011020
1,364167	0,1	4,047409
1,365833	0,1	4,015684
1,367500	0,1	3,998326
1,369167	0,1	4,015102
1,370833	0,1	4,035139
1,372500	0,1	4,010598
1,374167	0,1	4,029368
1,375833	0,1	4,045787
1,377500	0,1	4,034213
1,379167	0,1	4,044369
1,380833	0,1	4,125846
1,382500	0,1	4,081774
1,384167	0,1	4,056042
1,385833	0,1	4,052864
1,387500	0,1	4,066801
1,389167	0,1	4,059168
1,390833	0,1	4,095331
1,392500	0,1	4,122607
1,394167	0,1	4,083236
1,395833	0,1	4,076114
1,397500	0,1	4,076642
1,399167	0,1	4,135770
1,400833	0,1	4,119203
1,402500	0,1	4,112170
1,404167	0,1	4,099164
1,405833	0,1	4,113872
1,407500	0,1	4,109811
1,409167	0,1	4,117288
1,410833	0,1	4,121029
1,412500	0,1	4,133099
1,414167	0,1	4,126479
1,415833	0,1	4,111278
1,417500	0,1	4,162238
1,419167	0,1	4,166152
1,420833	0,1	4,124454
1,422500	0,1	4,165330
1,424167	0,1	4,173225
1,425833	0,1	4,170666
1,427500	0,1	4,147784
1,429167	0,1	4,167001
1,430833	0,1	4,139287
1,432500	0,1	4,131640
1,434167	0,1	4,148018
1,435833	0,1	4,164361
1,437500	0,1	4,179116
1,439167	0,1	4,157174
1,440833	0,1	4,158836
1,442500	0,1	4,190658
1,444167	0,1	4,206886
1,445833	0,1	4,151369
1,447500	0,1	4,176963
1,449167	0,1	4,160019
1,450833	0,1	4,139734
1,452500	0,1	4,186389
1,454167	0,1	4,199363
1,455833	0,1	4,203595
1,457500	0,1	4,173885
1,459167	0,1	4,169001
1,460833	0,1	4,155343
1,462500	0,1	4,151234
1,464167	0,1	4,185254
1,465833	0,1	4,169736
1,467500	0,1	4,213790
1,469167	0,1	4,201365
1,470833	0,1	4,175429
1,472500	0,1	4,152825
1,474167	0,1	4,177287
1,475833	0,1	4,207411
1,477500	0,1	4,224290
1,479167	0,1	4,164905
1,480833	0,1	4,202085
1,482500	0,1	4,230912
1,484167	0,1	4,216120
1,485833	0,1	4,190228
1,487500	0,1	4,208513
1,489167	0,1	4,196607
1,490833	0,1	4,206114
1,492500	0,1	4,193474
1,494167	0,1	4,265751
1,495833	0,1	4,226824
1,497500	0,1	4,245431
1,499167	0,1	4,240028
1,500833	0,1	4,233850
1,502500	0,1	4,249499
1,504167	0,1	4,223446
1,505833	0,1	4,269901
1,507500	0,1	4,218860
1,509167	0,1	4,211326
1,510833	0,1	4,238678
1,512500	0,1	4,301052
1,514167	0,1	4,266345
1,515833	0,1	4,282307
1,517500	0,1	4,304637
1,519167	0,1	4,284924
1,520833	0,1	4,284472
1,522500	0,1	4,312809
1,524167	0,1	4,260739
1,525833	0,1	4,308496
1,527500	0,1	4,315006
1,529167	0,1	4,264638
1,530833	0,1	4,317397
1,532500	0,1	4,322860
1,534167	0,1	4,297087
1,535833	0,1	4,334848
1,537500	0,1	4,296969
1,539167	0,1	4,322892
1,540833	0,1	4,297491
1,542500	0,1	4,295774
1,544167	0,1	4,330062
1,545833	0,1	4,342498
1,547500	0,1	4,326934
1,549167	0,1	4,331649
1,550833	0,1	4,327171
1,552500	0,1	4,335545
1,554167	0,1	4,318311
1,555833	0,1	4,370553
1,557500	0,1	4,298524
1,559167	0,1	4,334566
1,560833	0,1	4,367515
1,562500	0,1	4,378658
1,564167	0,1	4,369396
1,565833	0,1	4,368907
1,567500	0,1	4,369393
1,569167	0,1	4,392156
1,570833	0,1	4,414556
1,572500	0,1	4,340896
1,574167	0,1	4,363448
1,575833	0,1	4,399074
1,577500	0,1	4,378509
1,579167	0,1	4,387522
1,580833	0,1	4,370452
1,582500	0,1	4,404519
1,584167	0,1	4,410062
1,585833	0,1	4,404373
1,587500	0,1	4,424708
1,589167	0,1	4,456799
1,590833	0,1	4,436314
1,592500	0,1	4,434346
1,594167	0,1	4,420929
1,595833	0,1	4,426819
1,597500	0,1	4,442720
1,599167	0,1	4,443577
1,600833	0,1	4,453395
1,602500	0,1	4,476199
1,604167	0,1	4,461155
1,605833	0,1	4,475111
1,607500	0,1	4,449938
1,609167	0,1	4,465467
1,610833	0,1	4,459211
1,612500	0,1	4,516799
1,614167	0,1	4,466499
1,615833	0,1	4,511026
1,617500	0,1	4,520514
1,619167	0,1	4,497219
1,620833	0,1	4,460923
1,622500	0,1	4,531270
1,624167	0,1	4,512426
1,625833	0,1	4,460855
1,627500	0,1	4,496707
1,629167	0,1	4,517741
1,630833	0,1	4,522103
1,632500	0,1	4,530196
1,634167	0,1	4,544719
1,635833	0,1	4,549630
1,637500	0,1	4,552651
1,639167	0,1	4,525163
1,640833	0,1	4,542397
1,642500	0,1	4,544437
1,644167	0,1	4,564333
1,645833	0,1	4,563437
1,647500	0,1	4,538017
1,649167	0,1	4,549560
1,650833	0,1	4,598949
1,652500	0,1	4,573792
1,654167	0,1	4,563605
1,655833	0,1	4,570061
1,657500	0,1	4,525550
1,659167	0,1	4,573675
1,660833	0,1	4,597604
1,662500	0,1	4,583187
1,664167	0,1	4,561703
1,665833	0,1	4,554288
1,667500	0,1	4,583077
1,669167	0,1	4,549455
1,670833	0,1	4,570474
1,672500	0,1	4,541439
1,674167	0,1	4,562697
1,675833	0,1	4,528788
1,677500	0,1	4,500392
1,679167	0,1	4,553221
1,680833	0,1	4,547661
1,682500	0,1	4,518869
1,684167	0,1	4,546301
1,685833	0,1	4,576582
1,687500	0,1	4,525487
1,689167	0,1	4,569369
1,690833	0,1	4,546411
1,692500	0,1	4,569339
1,694167	0,1	4,530873
1,695833	0,1	4,500190
1,697500	0,1	4,537954
1,699167	0,1	4,527079
1,700833	0,1	4,537989
1,702500	0,1	4,516831
1,704167	0,1	4,535618
1,705833	0,1	4,551845
1,707500	0,1	4,564584
1,709167	0,1	4,532076
1,710833	0,1	4,484476
1,712500	0,1	4,517087
1,714167	0,1	4,530597
1,715833	0,1	4,478750
1,717500	0,1	4,485896
1,719167	0,1	4,502534
1,720833	0,1	4,485049
1,722500	0,1	4,505705
1,724167	0,1	4,497485
1,725833	0,1	4,483249
1,727500	0,1	4,494239
1,729167	0,1	4,449657
1,730833	0,1	4,457658
1,732500	0,1	4,406381
1,734167	0,1	4,449057
1,735833	0,1	4,435247
1,737500	0,1	4,418243
1,739167	0,1	4,392130
1,740833	0,1	4,399033
1,742500	0,1	4,361749
1,744167	0,1	4,349176
1,745833	0,1	4,373613
1,747500	0,1	4,317062
1,749167	0,1	4,320340
1,750833	0,1	4,318837
1,752500	0,1	4,273946
1,754167	0,1	4,320688
1,755833	0,1	4,290378
1,757500	0,1	4,286626
1,759167	0,1	4,201379
1,760833	0,1	4,148238
1,762500	0,1	4,191917
1,764167	0,1	4,169087
1,765833	0,1	4,154937
1,767500	0,1	4,155624
1,769167	0,1	4,112137
1,770833	0,1	4,115296
1,772500	0,1	4,117085
1,774167	0,1	4,053410
1,775833	0,1	4,042626
1,777500	0,1	4,045995
1,779167	0,1	3,977209
1,780833	0,1	3,950984
1,782500	0,1	3,982431
1,784167	0,1	3,925523
1,785833	0,1	3,919129
1,787500	0,1	3,898987
1,789167	0,1	3,868181
1,790833	0,1	3,873461
1,792500	0,1	3,856601
1,794167	0,1	3,813378
1,795833	0,1	3,782385
1,797500	0,1	3,799965
1,799167	0,1	3,774425
1,800833	0,1	3,767556
1,802500	0,1	3,709687
1,804167	0,1	3,723250
1,805833	0,1	3,675832
1,807500	0,1	3,706477
1,809167	0,1	3,621851
1,810833	0,1	3,645184
1,812500	0,1	3,608214
1,814167	0,1	3,601426
1,815833	0,1	3,549026
1,817500	0,1	3,561383
1,819167	0,1	3,513588
1,820833	0,1	3,516981
1,822500	0,1	3,522460
1,824167	0,1	3,476282
1,825833	0,1	3,480532
1,827500	0,1	3,436876
1,829167	0,1	3,426064
1,830833	0,1	3,383422
1,832500	0,1	3,397980
1,834167	0,1	3,335199
1,835833	0,1	3,335653
1,837500	0,1	3,342922
1,839167	0,1	3,324338
1,840833	0,1	3,308391
1,842500	0,1	3,254259
1,844167	0,1	3,281707
1,845833	0,1	3,282288
1,847500	0,1	3,256562
1,849167	0,1	3,249447
1,850833	0,1	3,267092
1,852500	0,1	3,279611
1,854167	0,1	3,308924
1,855833	0,1	3,298158
1,857500	0,1	3,333904
1,859167	0,1	3,346972
1,860833	0,1	3,390856
1,862500	0,1	3,411434
1,864167	0,1	3,458725
1,865833	0,1	3,449676
1,867500	0,1	3,458528
1,869167	0,1	3,564293
1,870833	0,1	3,538371
1,872500	0,1	3,562806
1,874167	0,1	3,613993
1,875833	0,1	3,586156
1,877500	0,1	3,657675
1,879167	0,1	3,712889
1,880833	0,1	3,678062
1,882500	0,1	3,710931
1,884167	0,1	3,726358
1,885833	0,1	3,799759
1,887500	0,1	3,837454
1,889167	0,1	3,862530
1,890833	0,1	3,872933
1,892500	0,1	3,868387
1,894167	0,1	3,911805
1,895833	0,1	3,925303
1,897500	0,1	3,965277
1,899167	0,1	3,968134
1,900833	0,1	3,948382
1,902500	0,1	4,028908
1,904167	0,1	4,021571
1,905833	0,1	4,053387
1,907500	0,1	4,068184
1,909167	0,1	4,068676
1,910833	0,1	4,095617
1,912500	0,1	4,156584
1,914167	0,1	4,177531
1,915833	0,1	4,139007
1,917500	0,1	4,182119
1,919167	0,1	4,204974
1,920833	0,1	4,173235
1,922500	0,1	4,195866
1,924167	0,1	4,193069
1,925833	0,1	4,218069
1,927500	0,1	4,217506
1,929167	0,1	4,246652
1,930833	0,1	4,233405
1,932500	0,1	4,252264
1,934167	0,1	4,259911
1,935833	0,1	4,244262
1,937500	0,1	4,262143
1,939167	0,1	4,246296
1,940833	0,1	4,256453
1,942500	0,1	4,249991
1,944167	0,1	4,240275
1,945833	0,1	4,231207
1,947500	0,1	4,208809
1,949167	0,1	4,239369
1,950833	0,1	4,236779
1,952500	0,1	4,256818
1,954167	0,1	4,241737
1,955833	0,1	4,225517
1,957500	0,1	4,235630
1,959167	0,1	4,249172
1,960833	0,1	4,228809
1,962500	0,1	4,224945
1,964167	0,1	4,202181
1,965833	0,1	4,247945
1,967500	0,1	4,223691
1,969167	0,1	4,234738
1,970833	0,1	4,232708
1,972500	0,1	4,204213
1,974167	0,1	4,194168
1,975833	0,1	4,227740
1,977500	0,1	4,207665
1,979167	0,1	4,217377
1,980833	0,1	4,212626
1,982500	0,1	4,236886
1,984167	0,1	4,226166
1,985833	0,1	4,231000
1,987500	0,1	4,223036
1,989167	0,1	4,263521
1,990833	0,1	4,287264
1,992500	0,1	4,276503
1,994167	0,1	4,258412
1,995833	0,1	4,229669
1,997500	0,1	4,264458
1,999167	0,1	4,283899
2,000833	0,1	4,252396
2,002500	0,1	4,275358
2,004167	0,1	4,283005
2,005833	0,1	4,267033
2,007500	0,1	4,303780
2,009167	0,1	4,268011
2,010833	0,1	4,286666
2,012500	0,1	4,356224
2,014167	0,1	4,291891
2,015833	0,1	4,272612
2,017500	0,1	4,329152
2,019167	0,1	4,331932
2,020833	0,1	4,298433
2,022500	0,1	4,322659
2,024167	0,1	4,349167
2,025833	0,1	4,374711
2,027500	0,1	4,348403
2,029167	0,1	4,307426
2,030833	0,1	4,344617
2,032500	0,1	4,390087
2,034167	0,1	4,398347
2,035833	0,1	4,379242
2,037500	0,1	4,416326
2,039167	0,1	4,397913
2,040833	0,1	4,447564
2,042500	0,1	4,416057
2,044167	0,1	4,455081
2,045833	0,1	4,450181
2,047500	0,1	4,475996
2,049167	0,1	4,450458
2,050833	0,1	4,451801
2,052500	0,1	4,477617
2,054167	0,1	4,514967
2,055833	0,1	4,455684
2,057500	0,1	4,489630
2,059167	0,1	4,508226
2,060833	0,1	4,457766
2,062500	0,1	4,497689
2,064167	0,1	4,531008
2,065833	0,1	4,511739
2,067500	0,1	4,568798
2,069167	0,1	4,540256
2,070833	0,1	4,527127
2,072500	0,1	4,546671
2,074167	0,1	4,584496
2,075833	0,1	4,530862
2,077500	0,1	4,534907
2,079167	0,1	4,561144
2,080833	0,1	4,547247
2,082500	0,1	4,529067
2,084167	0,1	4,565396
2,085833	0,1	4,565473
2,087500	0,1	4,601207
2,089167	0,1	4,543117
2,090833	0,1	4,578168
2,092500	0,1	4,541242
2,094167	0,1	4,581538
2,095833	0,1	4,599659
2,097500	0,1	4,543684
2,099167	0,1	4,583075
2,100833	0,1	4,572269
2,102500	0,1	4,556196
2,104167	0,1	4,548512
2,105833	0,1	4,539398
2,107500	0,1	4,570404
2,109167	0,1	4,559949
2,110833	0,1	4,544040
2,112500	0,1	4,542069
2,114167	0,1	4,543052
2,115833	0,1	4,561479
2,117500	0,1	4,501204
2,119167	0,1	4,499035
2,120833	0,1	4,515457
2,122500	0,1	4,481918
2,124167	0,1	4,487352
2,125833	0,1	4,475971
2,127500	0,1	4,446850
2,129167	0,1	4,457869
2,130833	0,1	4,428743
2,132500	0,1	4,494249
2,134167	0,1	4,421796
2,135833	0,1	4,426571
2,137500	0,1	4,399997
2,139167	0,1	4,406075
2,140833	0,1	4,409612
2,142500	0,1	4,332484
2,144167	0,1	4,394795
2,145833	0,1	4,324337
2,147500	0,1	4,376704
2,149167	0,1	4,335682
2,150833	0,1	4,275338
2,152500	0,1	4,285649
2,154167	0,1	4,293743
2,155833	0,1	4,279800
2,157500	0,1	4,272477
2,159167	0,1	4,222518
2,160833	0,1	4,237830
2,162500	0,1	4,226408
2,164167	0,1	4,251526
2,165833	0,1	4,172922
2,167500	0,1	4,206963
2,169167	0,1	4,183153
2,170833	0,1	4,174489
2,172500	0,1	4,165707
2,174167	0,1	4,116853
2,175833	0,1	4,108876
2,177500	0,1	4,118628
2,179167	0,1	4,058526
2,180833	0,1	4,064446
2,182500	0,1	4,092689
2,184167	0,1	4,066202
2,185833	0,1	4,023570
2,187500	0,1	4,061839
2,189167	0,1	3,956854
2,190833	0,1	4,027812
2,192500	0,1	3,998131
2,194167	0,1	4,003361
2,195833	0,1	3,993167
2,197500	0,1	3,971391
2,199167	0,1	3,971219
2,200833	0,1	3,956108
2,202500	0,1	3,945660
2,204167	0,1	3,917059
2,205833	0,1	3,897351
2,207500	0,1	3,850179
2,209167	0,1	3,849982
2,210833	0,1	3,860700
2,212500	0,1	3,861307
2,214167	0,1	3,875489
2,215833	0,1	3,851892
2,217500	0,1	3,792551
2,219167	0,1	3,815609
2,220833	0,1	3,803302
2,222500	0,1	3,759925
2,224167	0,1	3,765080
2,225833	0,1	3,707054
2,227500	0,1	3,752882
2,229167	0,1	3,757155
2,230833	0,1	3,723421
2,232500	0,1	3,713668
2,234167	0,1	3,724993
2,235833	0,1	3,693735
2,237500	0,1	3,697783
2,239167	0,1	3,674240
2,240833	0,1	3,678959
2,242500	0,1	3,629339
2,244167	0,1	3,660299
2,245833	0,1	3,618817
2,247500	0,1	3,615273
2,249167	0,1	3,620310
2,250833	0,1	3,644629
2,252500	0,1	3,556880
2,254167	0,1	3,598658
2,255833	0,1	3,536325
2,257500	0,1	3,544259
2,259167	0,1	3,555034
2,260833	0,1	3,498523
2,262500	0,1	3,512538
2,264167	0,1	3,525057
2,265833	0,1	3,523918
2,267500	0,1	3,485167
2,269167	0,1	3,501046
2,270833	0,1	3,468022
2,272500	0,1	3,424695
2,274167	0,1	3,445564
2,275833	0,1	3,455696
2,277500	0,1	3,453800
2,279167	0,1	3,431754
2,280833	0,1	3,409418
2,282500	0,1	3,436260
2,284167	0,1	3,390022
2,285833	0,1	3,344260
2,287500	0,1	3,385274
2,289167	0,1	3,371755
2,290833	0,1	3,386629
2,292500	0,1	3,335561
2,294167	0,1	3,373014
2,295833	0,1	3,369805
2,297500	0,1	3,330702
2,299167	0,1	3,326174
2,300833	0,1	3,362757
2,302500	0,1	3,258451
2,304167	0,1	3,355679
2,305833	0,1	3,314263
2,307500	0,1	3,285047
2,309167	0,1	3,293842
2,310833	0,1	3,316040
2,312500	0,1	3,289774
2,314167	0,1	3,274945
2,315833	0,1	3,302900
2,317500	0,1	3,244886
2,319167	0,1	3,236460
2,320833	0,1	3,256528
2,322500	0,1	3,295107
2,324167	0,1	3,257191
2,325833	0,1	3,239768
2,327500	0,1	3,315145
2,329167	0,1	3,216799
2,330833	0,1	3,235495
2,332500	0,1	3,243132
2,334167	0,1	3,239395
2,335833	0,1	3,237083
2,337500	0,1	3,223696
2,339167	0,1	3,296557
2,340833	0,1	3,249714
2,342500	0,1	3,228989
2,344167	0,1	3,224574
2,345833	0,1	3,241600
2,347500	0,1	3,223094
2,349167	0,1	3,235210
2,350833	0,1	3,248508
2,352500	0,1	3,229561
2,354167	0,1	3,211952
2,355833	0,1	3,255509
2,357500	0,1	3,226605
2,359167	0,1	3,279524
2,360833	0,1	3,264068
2,362500	0,1	3,260790
2,364167	0,1	3,224397
2,365833	0,1	3,229162
2,367500	0,1	3,246375
2,369167	0,1	3,274521
2,370833	0,1	3,240800
2,372500	0,1	3,302864
2,374167	0,1	3,300209
2,375833	0,1	3,285538
2,377500	0,1	3,309341
2,379167	0,1	3,297222
2,380833	0,1	3,341537
2,382500	0,1	3,297672
2,384167	0,1	3,345249
2,385833	0,1	3,339057
2,387500	0,1	3,354035
2,389167	0,1	3,329114
2,390833	0,1	3,355773
2,392500	0,1	3,411450
2,394167	0,1	3,390222
2,395833	0,1	3,418805
2,397500	0,1	3,417464
2,399167	0,1	3,458543
2,400833	0,1	3,465437
2,402500	0,1	3,443443
2,404167	0,1	3,477277
2,405833	0,1	3,492425
2,407500	0,1	3,480014
2,409167	0,1	3,518870
2,410833	0,1	3,460000
2,412500	0,1	3,516503
2,414167	0,1	3,471736
2,415833	0,1	3,548554
2,417500	0,1	3,563064
2,419167	0,1	3,616055
2,420833	0,1	3,575529
2,422500	0,1	3,586844
2,424167	0,1	3,600151
2,425833	0,1	3,576774
2,427500	0,1	3,656357
2,429167	0,1	3,608138
2,430833	0,1	3,657363
2,432500	0,1	3,697298
2,434167	0,1	3,630833
2,435833	0,1	3,710888
2,437500	0,1	3,686000
2,439167	0,1	3,710788
2,440833	0,1	3,716263
2,442500	0,1	3,740050
2,444167	0,1	3,750244
2,445833	0,1	3,770834
2,447500	0,1	3,809345
2,449167	0,1	3,837546
2,450833	0,1	3,889781
2,452500	0,1	3,839059
2,454167	0,1	3,909607
2,455833	0,1	3,908646
2,457500	0,1	3,970434
2,459167	0,1	3,985153
2,460833	0,1	4,016969
2,462500	0,1	4,088494
2,464167	0,1	4,192472
2,465833	0,1	4,233392
2,467500	0,1	4,263119
2,469167	0,1	4,391563
2,470833	0,1	4,487094
2,472500	0,1	4,559293
2,474167	0,1	4,694053
2,475833	0,1	4,767297
2,477500	0,1	4,966490
2,479167	0,1	5,122788
2,480833	0,1	5,297788
2,482500	0,1	5,493673
2,484167	0,1	5,666335
2,485833	0,1	5,983281
2,487500	0,1	6,240355
2,489167	0,1	6,506706
2,490833	0,1	6,841016
2,492500	0,1	7,198792
2,494167	0,1	7,556020
2,495833	0,1	8,016825
2,497500	0,1	8,447354
2,499167	0,1	8,961896
2,500833	0,1	9,478055
2,502500	0,1	10,073149
2,504167	0,1	10,709891
2,505833	0,1	11,369922
2,507500	0,1	12,142965
2,509167	0,1	12,913654
2,510833	0,1	13,715843
2,512500	0,1	14,648532
2,514167	0,1	15,547310
2,515833	0,1	16,573426
2,517500	0,1	17,620458
2,519167	0,1	18,686119
2,520833	0,1	19,843629
2,522500	0,1	21,041102
2,524167	0,1	22,316943
2,525833	0,1	23,676719
2,527500	0,1	25,017016
2,529167	0,1	26,452149
2,530833	0,1	27,911104
2,532500	0,1	29,419070
2,534167	0,1	31,013251
2,535833	0,1	32,591368
2,537500	0,1	34,201291
2,539167	0,1	35,870673
2,540833	0,1	37,543724
2,542500	0,1	39,297887
2,544167	0,1	41,068223
2,545833	0,1	42,822462
2,547500	0,1	44,544585
2,549167	0,1	46,365122
2,550833	0,1	48,113177
2,552500	0,1	49,889131
2,554167	0,1	51,685050
2,555833	0,1	53,444037
2,557500	0,1	55,191148
2,559167	0,1	56,933412
2,560833	0,1	58,631304
2,562500	0,1	60,342207
2,564167	0,1	61,947942
2,565833	0,1	63,567625
2,567500	0,1	65,179887
2,569167	0,1	66,678346
2,570833	0,1	68,159297
2,572500	0,1	69,592061
2,574167	0,1	70,979134
2,575833	0,1	72,347374
2,577500	0,1	73,544352
2,579167	0,1	74,802187
2,580833	0,1	76,007050
2,582500	0,1	77,083539
2,584167	0,1	78,104374
2,585833	0,1	79,088498
2,587500	0,1	79,992608
2,589167	0,1	80,850255
2,590833	0,1	81,681038
2,592500	0,1	82,383439
2,594167	0,1	82,984828
2,595833	0,1	83,636887
2,597500	0,1	84,224585
2,599167	0,1	84,635022
2,600833	0,1	85,085958
2,602500	0,1	85,439951
2,604167	0,1	85,732890
2,605833	0,1	85,975260
2,607500	0,1	86,203545
2,609167	0,1	86,341761
2,610833	0,1	86,424605
2,612500	0,1	86,429653
2,614167	0,1	86,463776
2,615833	0,1	86,365736
2,617500	0,1	86,239105
2,619167	0,1	86,115268
2,620833	0,1	85,915466
2,622500	0,1	85,682283
2,624167	0,1	85,378151
2,625833	0,1	85,053130
2,627500	0,1	84,689294
2,629167	0,1	84,266963
2,630833	0,1	83,820088
2,632500	0,1	83,335404
2,634167	0,1	82,816816
2,635833	0,1	82,275650
2,637500	0,1	81,709817
2,639167	0,1	81,082474
2,640833	0,1	80,482896
2,642500	0,1	79,777051
2,644167	0,1	79,102970
2,645833	0,1	78,339335
2,647500	0,1	77,621295
2,649167	0,1	76,890430
2,650833	0,1	76,075970
2,652500	0,1	75,306646
2,654167	0,1	74,444310
2,655833	0,1	73,621891
2,657500	0,1	72,723284
2,659167	0,1	71,872631
2,660833	0,1	70,940702
2,662500	0,1	70,051214
2,664167	0,1	69,148303
2,665833	0,1	68,200052
2,667500	0,1	67,255537
2,669167	0,1	66,263359
2,670833	0,1	65,354962
2,672500	0,1	64,428099
2,674167	0,1	63,393410
2,675833	0,1	62,456178
2,677500	0,1	61,455054
2,679167	0,1	60,529195
2,680833	0,1	59,524466
2,682500	0,1	58,559705
2,684167	0,1	57,587397
2,685833	0,1	56,649110
2,687500	0,1	55,642513
2,689167	0,1	54,688283
2,690833	0,1	53,730938
2,692500	0,1	52,758993
2,694167	0,1	51,828812
2,695833	0,1	50,864119
2,697500	0,1	49,982661
2,699167	0,1	49,001591
2,700833	0,1	48,114175
2,702500	0,1	47,247618
2,704167	0,1	46,349165
2,705833	0,1	45,425353
2,707500	0,1	44,554711
2,709167	0,1	43,696865
2,710833	0,1	42,865639
2,712500	0,1	42,024456
2,714167	0,1	41,224945
2,715833	0,1	40,379066
2,717500	0,1	39,550411
2,719167	0,1	38,757439
2,720833	0,1	37,968108
2,722500	0,1	37,271362
2,724167	0,1	36,473967
2,725833	0,1	35,790586
2,727500	0,1	35,069715
2,729167	0,1	34,358336
2,730833	0,1	33,652930
2,732500	0,1	33,005671
2,734167	0,1	32,366217
2,735833	0,1	31,689554
2,737500	0,1	31,035448
2,739167	0,1	30,458134
2,740833	0,1	29,822742
2,742500	0,1	29,252360
2,744167	0,1	28,667776
2,745833	0,1	28,084623
2,747500	0,1	27,519174
2,749167	0,1	26,943668
2,750833	0,1	26,445098
2,752500	0,1	25,925411
2,754167	0,1	25,415819
2,755833	0,1	24,909820
2,757500	0,1	24,478076
2,759167	0,1	23,989649
2,760833	0,1	23,524874
2,762500	0,1	23,023407
2,764167	0,1	22,604267
2,765833	0,1	22,207319
2,767500	0,1	21,765127
2,769167	0,1	21,392302
2,770833	0,1	20,949351
2,772500	0,1	20,602871
2,774167	0,1	20,154036
2,775833	0,1	19,821274
2,777500	0,1	19,449576
2,779167	0,1	19,058115
2,780833	0,1	18,749744
2,782500	0,1	18,410409
2,784167	0,1	18,035516
2,785833	0,1	17,722010
2,787500	0,1	17,375623
2,789167	0,1	17,103827
2,790833	0,1	16,739744
2,792500	0,1	16,479844
2,794167	0,1	16,239371
2,795833	0,1	15,904723
2,797500	0,1	15,628529
2,799167	0,1	15,320623
2,800833	0,1	15,064546
2,802500	0,1	14,862519
2,804167	0,1	14,564187
2,805833	0,1	14,269412
2,807500	0,1	14,024985
2,809167	0,1	13,824913
2,810833	0,1	13,558167
2,812500	0,1	13,309642
2,814167	0,1	13,124352
2,815833	0,1	12,893169
2,817500	0,1	12,641509
2,819167	0,1	12,441303
2,820833	0,1	12,218149
2,822500	0,1	11,980725
2,824167	0,1	11,797611
2,825833	0,1	11,614665
2,827500	0,1	11,444925
2,829167	0,1	11,202281
2,830833	0,1	11,054135
2,832500	0,1	10,880159
2,834167	0,1	10,681863
2,835833	0,1	10,508951
2,837500	0,1	10,339851
2,839167	0,1	10,184828
2,840833	0,1	10,019159
2,842500	0,1	9,870061
2,844167	0,1	9,705946
2,845833	0,1	9,501130
2,847500	0,1	9,420136
2,849167	0,1	9,258912
2,850833	0,1	9,096040
2,852500	0,1	8,967313
2,854167	0,1	8,830433
2,855833	0,1	8,675604
2,857500	0,1	8,568270
2,859167	0,1	8,415485
2,860833	0,1	8,304557
2,862500	0,1	8,231762
2,864167	0,1	8,085668
2,865833	0,1	7,997396
2,867500	0,1	7,843783
2,869167	0,1	7,709775
2,870833	0,1	7,643686
2,872500	0,1	7,518566
2,874167	0,1	7,391332
2,875833	0,1	7,353480
2,877500	0,1	7,251868
2,879167	0,1	7,129485
2,880833	0,1	7,040403
2,882500	0,1	6,909198
2,884167	0,1	6,868687
2,885833	0,1	6,791190
2,887500	0,1	6,657634
2,889167	0,1	6,583605
2,890833	0,1	6,513061
2,892500	0,1	6,433742
2,894167	0,1	6,377977
2,895833	0,1	6,305250
2,897500	0,1	6,212899
2,899167	0,1	6,152660
2,900833	0,1	6,132698
2,902500	0,1	6,000090
2,904167	0,1	5,959558
2,905833	0,1	5,905186
2,907500	0,1	5,808909
2,909167	0,1	5,762065
2,910833	0,1	5,712097
2,912500	0,1	5,641483
2,914167	0,1	5,564248
2,915833	0,1	5,514174
2,917500	0,1	5,497854
2,919167	0,1	5,435821
2,920833	0,1	5,346115
2,922500	0,1	5,293757
2,924167	0,1	5,261081
2,925833	0,1	5,222351
2,927500	0,1	5,139092
2,929167	0,1	5,119372
2,930833	0,1	5,070517
2,932500	0,1	5,004437
2,934167	0,1	4,967651
2,935833	0,1	4,935861
2,937500	0,1	4,904076
2,939167	0,1	4,853291
2,940833	0,1	4,822523
2,942500	0,1	4,772003
2,944167	0,1	4,703451
2,945833	0,1	4,675857
2,947500	0,1	4,638991
2,949167	0,1	4,616281
2,950833	0,1	4,561961
2,952500	0,1	4,513686
2,954167	0,1	4,516527
2,955833	0,1	4,431242
2,957500	0,1	4,399503
2,959167	0,1	4,394893
2,960833	0,1	4,356058
2,962500	0,1	4,309169
2,964167	0,1	4,279433
2,965833	0,1	4,275200
2,967500	0,1	4,229669
2,969167	0,1	4,185760
2,970833	0,1	4,154047
2,972500	0,1	4,130791
2,974167	0,1	4,100793
2,975833	0,1	4,050924
2,977500	0,1	4,082001
2,979167	0,1	4,008013
2,980833	0,1	4,000933
2,982500	0,1	3,965745
2,984167	0,1	3,945748
2,985833	0,1	3,899716
2,987500	0,1	3,899705
2,989167	0,1	3,856564
2,990833	0,1	3,843236
2,992500	0,1	3,842903
2,994167	0,1	3,764324
2,995833	0,1	3,802389
2,997500	0,1	3,795479
2,999167	0,1	3,710772
3,000833	0,1	3,690914
3,002500	0,1	3,672561
3,004167	0,1	3,649456
3,005833	0,1	3,659780
3,007500	0,1	3,641470
3,009167	0,1	3,596110
3,010833	0,1	3,597653
3,012500	0,1	3,569236
3,014167	0,1	3,556319
3,015833	0,1	3,528963
3,017500	0,1	3,556152
3,019167	0,1	3,511845
3,020833	0,1	3,493653
3,022500	0,1	3,449554
3,024167	0,1	3,434556
3,025833	0,1	3,466779
3,027500	0,1	3,404726
3,029167	0,1	3,366124
3,030833	0,1	3,396677
3,032500	0,1	3,340003
3,034167	0,1	3,337964
3,035833	0,1	3,341209
3,037500	0,1	3,286352
3,039167	0,1	3,292441
3,040833	0,1	3,287201
3,042500	0,1	3,271257
3,044167	0,1	3,225697
3,045833	0,1	3,180528
3,047500	0,1	3,215995
3,049167	0,1	3,157432
3,050833	0,1	3,193278
3,052500	0,1	3,160878
3,054167	0,1	3,148908
3,055833	0,1	3,070925
3,057500	0,1	3,122330
3,059167	0,1	3,078095
3,060833	0,1	3,079781
3,062500	0,1	3,036760
3,064167	0,1	3,056230
3,065833	0,1	3,027560
3,067500	0,1	2,987112
3,069167	0,1	2,953683
3,070833	0,1	2,977845
3,072500	0,1	2,973176
3,074167	0,1	2,940750
3,075833	0,1	2,934089
3,077500	0,1	2,940056
3,079167	0,1	2,916445
3,080833	0,1	2,882665
3,082500	0,1	2,835403
3,084167	0,1	2,849713
3,085833	0,1	2,860604
3,087500	0,1	2,828897
3,089167	0,1	2,803863
3,090833	0,1	2,829353
3,092500	0,1	2,799161
3,094167	0,1	2,801098
3,095833	0,1	2,781016
3,097500	0,1	2,748860
3,099167	0,1	2,748354
3,100833	0,1	2,746860
3,102500	0,1	2,784713
3,104167	0,1	2,745695
3,105833	0,1	2,732584
3,107500	0,1	2,708326
3,109167	0,1	2,718502
3,110833	0,1	2,688868
3,112500	0,1	2,712478
3,114167	0,1	2,694126
3,115833	0,1	2,718949
3,117500	0,1	2,700770
3,119167	0,1	2,737759
3,120833	0,1	2,674825
3,122500	0,1	2,740210
3,124167	0,1	2,728832
3,125833	0,1	2,683685
3,127500	0,1	2,710895
3,129167	0,1	2,714551
3,130833	0,1	2,714792
3,132500	0,1	2,729849
3,134167	0,1	2,751741
3,135833	0,1	2,682694
3,137500	0,1	2,774627
3,139167	0,1	2,723805
3,140833	0,1	2,729053
3,142500	0,1	2,710918
3,144167	0,1	2,717533
3,145833	0,1	2,732380
3,147500	0,1	2,721638
3,149167	0,1	2,772089
3,150833	0,1	2,762469
3,152500	0,1	2,744571
3,154167	0,1	2,714388
3,155833	0,1	2,744184
3,157500	0,1	2,747057
3,159167	0,1	2,765868
3,160833	0,1	2,745765
3,162500	0,1	2,773483
3,164167	0,1	2,770684
3,165833	0,1	2,787026
3,167500	0,1	2,811678
3,169167	0,1	2,746227
3,170833	0,1	2,754773
3,172500	0,1	2,776726
3,174167	0,1	2,767895
3,175833	0,1	2,767232
3,177500	0,1	2,755849
3,179167	0,1	2,762976
3,180833	0,1	2,753120
3,182500	0,1	2,738360
3,184167	0,1	2,742320
3,185833	0,1	2,742744
3,187500	0,1	2,715323
3,189167	0,1	2,735845
3,190833	0,1	2,727895
3,192500	0,1	2,753732
3,194167	0,1	2,699197
3,195833	0,1	2,710176
3,197500	0,1	2,732591
3,199167	0,1	2,714646
3,200833	0,1	2,722930
3,202500	0,1	2,679781
3,204167	0,1	2,663508
3,205833	0,1	2,665460
3,207500	0,1	2,642618
3,209167	0,1	2,618372
3,210833	0,1	2,602104
3,212500	0,1	2,668226
3,214167	0,1	2,614467
3,215833	0,1	2,595727
3,217500	0,1	2,591783
3,219167	0,1	2,560892
3,220833	0,1	2,532600
3,222500	0,1	2,567921
3,224167	0,1	2,530065
3,225833	0,1	2,530418
3,227500	0,1	2,447155
3,229167	0,1	2,492166
3,230833	0,1	2,460084
3,232500	0,1	2,479372
3,234167	0,1	2,439444
3,235833	0,1	2,421282
3,237500	0,1	2,416950
3,239167	0,1	2,393427
3,240833	0,1	2,389397
3,242500	0,1	2,371910
3,244167	0,1	2,348951
3,245833	0,1	2,351315
3,247500	0,1	2,299958
3,249167	0,1	2,286121
3,250833	0,1	2,285258
3,252500	0,1	2,250075
3,254167	0,1	2,280351
3,255833	0,1	2,213967
3,257500	0,1	2,233945
3,259167	0,1	2,178850
3,260833	0,1	2,178692
3,262500	0,1	2,167326
3,264167	0,1	2,140716
3,265833	0,1	2,100869
3,267500	0,1	2,129765
3,269167	0,1	2,090508
3,270833	0,1	2,088557
3,272500	0,1	2,039085
3,274167	0,1	2,060141
3,275833	0,1	2,016788
3,277500	0,1	2,004124
3,279167	0,1	2,012389
3,280833	0,1	1,962137
3,282500	0,1	1,979019
3,284167	0,1	1,961196
3,285833	0,1	1,971040
3,287500	0,1	1,926904
3,289167	0,1	1,903889
3,290833	0,1	1,867295
3,292500	0,1	1,896684
3,294167	0,1	1,888213
3,295833	0,1	1,854931
3,297500	0,1	1,836092
3,299167	0,1	1,809500
3,300833	0,1	1,799142
3,302500	0,1	1,795696
3,304167	0,1	1,802517
3,305833	0,1	1,764512
3,307500	0,1	1,732589
3,309167	0,1	1,750042
3,310833	0,1	1,752202
3,312500	0,1	1,726053
3,314167	0,1	1,715625
3,315833	0,1	1,730648
3,317500	0,1	1,694582
3,319167	0,1	1,708081
3,320833	0,1	1,670434
3,322500	0,1	1,678121
3,324167	0,1	1,663814
3,325833	0,1	1,648791
3,327500	0,1	1,607333
3,329167	0,1	1,641019
3,330833	0,1	1,616475
3,332500	0,1	1,629033
3,334167	0,1	1,581259
3,335833	0,1	1,589782
3,337500	0,1	1,592457
3,339167	0,1	1,614368
3,340833	0,1	1,564867
3,342500	0,1	1,608473
3,344167	0,1	1,589745
3,345833	0,1	1,584622
3,347500	0,1	1,544847
3,349167	0,1	1,533055
3,350833	0,1	1,589787
3,352500	0,1	1,545696
3,354167	0,1	1,586848
3,355833	0,1	1,531553
3,357500	0,1	1,529871
3,359167	0,1	1,555606
3,360833	0,1	1,503028
3,362500	0,1	1,574695
3,364167	0,1	1,554978
3,365833	0,1	1,516102
3,367500	0,1	1,503754
3,369167	0,1	1,511705
3,370833	0,1	1,536059
3,372500	0,1	1,536285
3,374167	0,1	1,509347
3,375833	0,1	1,500014
3,377500	0,1	1,544889
3,379167	0,1	1,494333
3,380833	0,1	1,507120
3,382500	0,1	1,518308
3,384167	0,1	1,493970
3,385833	0,1	1,487739
3,387500	0,1	1,452679
3,389167	0,1	1,525854
3,390833	0,1	1,474235
3,392500	0,1	1,486780
3,394167	0,1	1,449945
3,395833	0,1	1,469403
3,397500	0,1	1,435516
3,399167	0,1	1,481888
3,400833	0,1	1,477088
3,402500	0,1	1,409092
3,404167	0,1	1,427170
3,405833	0,1	1,456242
3,407500	0,1	1,479676
3,409167	0,1	1,446435
3,410833	0,1	1,425527
3,412500	0,1	1,420629
3,414167	0,1	1,435653
3,415833	0,1	1,413536
3,417500	0,1	1,433125
3,419167	0,1	1,431122
3,420833	0,1	1,450796
3,422500	0,1	1,422782
3,424167	0,1	1,353993
3,425833	0,1	1,395769
3,427500	0,1	1,396657
3,429167	0,1	1,391740
3,430833	0,1	1,421706
3,432500	0,1	1,411651
3,434167	0,1	1,413946
3,435833	0,1	1,411178
3,437500	0,1	1,352120
3,439167	0,1	1,395410
3,440833	0,1	1,402818
3,442500	0,1	1,419355
3,444167	0,1	1,395934
3,445833	0,1	1,426669
3,447500	0,1	1,389080
3,449167	0,1	1,437445
3,450833	0,1	1,409429
3,452500	0,1	1,442380
3,454167	0,1	1,454399
3,455833	0,1	1,429476
3,457500	0,1	1,440446
3,459167	0,1	1,431111
3,460833	0,1	1,413235
3,462500	0,1	1,483036
3,464167	0,1	1,453384
3,465833	0,1	1,494102
3,467500	0,1	1,491367
3,469167	0,1	1,493616
3,470833	0,1	1,493318
3,472500	0,1	1,498141
3,474167	0,1	1,537778
3,475833	0,1	1,536951
3,477500	0,1	1,541218
3,479167	0,1	1,541755
3,480833	0,1	1,564588
3,482500	0,1	1,575793
3,484167	0,1	1,588312
3,485833	0,1	1,577371
3,487500	0,1	1,588802
3,489167	0,1	1,639441
3,490833	0,1	1,620774
3,492500	0,1	1,687153
3,494167	0,1	1,668919
3,495833	0,1	1,691832
3,497500	0,1	1,716492
3,499167	0,1	1,735380
3,500833	0,1	1,713610
3,502500	0,1	1,738761
3,504167	0,1	1,761543
3,505833	0,1	1,757449
3,507500	0,1	1,781667
3,509167	0,1	1,787204
3,510833	0,1	1,769026
3,512500	0,1	1,822782
3,514167	0,1	1,797633
3,515833	0,1	1,809561
3,517500	0,1	1,802016
3,519167	0,1	1,848085
3,520833	0,1	1,824597
3,522500	0,1	1,855846
3,524167	0,1	1,831785
3,525833	0,1	1,881440
3,527500	0,1	1,880447
3,529167	0,1	1,893385
3,530833	0,1	1,864705
3,532500	0,1	1,890209
3,534167	0,1	1,902369
3,535833	0,1	1,910643
3,537500	0,1	1,908414
3,539167	0,1	1,915387
3,540833	0,1	1,924804
3,542500	0,1	1,936666
3,544167	0,1	1,923154
3,545833	0,1	1,899503
3,547500	0,1	1,961320
3,549167	0,1	1,936317
3,550833	0,1	1,925816
3,552500	0,1	1,927322
3,554167	0,1	1,961687
3,555833	0,1	1,947820
3,557500	0,1	1,919274
3,559167	0,1	1,947305
3,560833	0,1	1,941418
3,562500	0,1	1,922011
3,564167	0,1	1,927104
3,565833	0,1	1,898282
3,567500	0,1	1,897409
3,569167	0,1	1,913006
3,570833	0,1	1,907693
3,572500	0,1	1,899784
3,574167	0,1	1,906466
3,575833	0,1	1,936447
3,577500	0,1	1,899940
3,579167	0,1	1,884833
3,580833	0,1	1,868010
3,582500	0,1	1,887703
3,584167	0,1	1,859173
3,585833	0,1	1,876780
3,587500	0,1	1,890935
3,589167	0,1	1,859820
3,590833	0,1	1,812949
3,592500	0,1	1,849239
3,594167	0,1	1,827897
3,595833	0,1	1,841189
3,597500	0,1	1,814604
3,599167	0,1	1,779164
3,600833	0,1	1,792888
3,602500	0,1	1,782467
3,604167	0,1	1,758960
3,605833	0,1	1,754504
3,607500	0,1	1,746970
3,609167	0,1	1,742208
3,610833	0,1	1,710961
3,612500	0,1	1,740266
3,614167	0,1	1,688110
3,615833	0,1	1,708790
3,617500	0,1	1,678980
3,619167	0,1	1,720082
3,620833	0,1	1,669059
3,622500	0,1	1,639384
3,624167	0,1	1,632707
3,625833	0,1	1,639009
3,627500	0,1	1,599003
3,629167	0,1	1,593885
3,630833	0,1	1,593744
3,632500	0,1	1,596913
3,634167	0,1	1,556328
3,635833	0,1	1,562286
3,637500	0,1	1,563789
3,639167	0,1	1,526596
3,640833	0,1	1,468120
3,642500	0,1	1,510473
3,644167	0,1	1,517724
3,645833	0,1	1,470334
3,647500	0,1	1,483270
3,649167	0,1	1,469203
3,650833	0,1	1,476598
3,652500	0,1	1,436382
3,654167	0,1	1,401754
3,655833	0,1	1,402381
3,657500	0,1	1,427976
3,659167	0,1	1,421358
3,660833	0,1	1,409933
3,662500	0,1	1,377138
3,664167	0,1	1,354872
3,665833	0,1	1,371077
3,667500	0,1	1,327131
3,669167	0,1	1,297636
3,670833	0,1	1,311264
3,672500	0,1	1,324326
3,674167	0,1	1,277390
3,675833	0,1	1,325625
3,677500	0,1	1,286874
3,679167	0,1	1,293462
3,680833	0,1	1,256779
3,682500	0,1	1,242795
3,684167	0,1	1,281343
3,685833	0,1	1,222251
3,687500	0,1	1,217732
3,689167	0,1	1,209676
3,690833	0,1	1,234250
3,692500	0,1	1,204968
3,694167	0,1	1,217674
3,695833	0,1	1,169205
3,697500	0,1	1,198017
3,699167	0,1	1,156370
3,700833	0,1	1,156784
3,702500	0,1	1,204016
3,704167	0,1	1,170171
3,705833	0,1	1,168071
3,707500	0,1	1,141068
3,709167	0,1	1,131390
3,710833	0,1	1,082208
3,712500	0,1	1,158280
3,714167	0,1	1,125276
3,715833	0,1	1,108226
3,717500	0,1	1,135241
3,719167	0,1	1,120633
3,720833	0,1	1,080575
3,722500	0,1	1,078409
3,724167	0,1	1,076065
3,725833	0,1	1,049775
3,727500	0,1	1,079182
3,729167	0,1	1,075419
3,730833	0,1	1,069452
3,732500	0,1	1,063806
3,734167	0,1	1,056181
3,735833	0,1	1,050926
3,737500	0,1	1,019491
3,739167	0,1	1,059158
3,740833	0,1	1,020468
3,742500	0,1	1,021864
3,744167	0,1	1,036118
3,745833	0,1	1,034915
3,747500	0,1	0,988767
3,749167	0,1	1,027755
3,750833	0,1	1,010294
3,752500	0,1	1,015203
3,754167	0,1	0,999199
3,755833	0,1	1,000844
3,757500	0,1	0,980724
3,759167	0,1	1,004000
3,760833	0,1	1,018873
3,762500	0,1	0,960246
3,764167	0,1	0,999792
3,765833	0,1	1,000487
3,767500	0,1	0,987529
3,769167	0,1	0,993691
3,770833	0,1	0,996342
3,772500	0,1	0,997683
3,774167	0,1	0,967697
3,775833	0,1	1,001993
3,777500	0,1	0,985015
3,779167	0,1	0,996233
3,780833	0,1	0,999262
3,782500	0,1	0,961686
3,784167	0,1	0,938151
3,785833	0,1	0,922209
3,787500	0,1	0,947667
3,789167	0,1	0,991167
3,790833	0,1	0,954893
3,792500	0,1	0,945605
3,794167	0,1	0,946718
3,795833	0,1	0,935054
3,797500	0,1	0,944107
3,799167	0,1	0,915001
3,800833	0,1	0,941166
3,802500	0,1	0,929243
3,804167	0,1	0,916753
3,805833	0,1	0,917663
3,807500	0,1	0,904198
3,809167	0,1	0,956566
3,810833	0,1	0,912217
3,812500	0,1	0,906043
3,814167	0,1	0,903483
3,815833	0,1	0,926362
3,817500	0,1	0,912768
3,819167	0,1	0,886680
3,820833	0,1	0,897713
3,822500	0,1	0,911982
3,824167	0,1	0,883654
3,825833	0,1	0,910153
3,827500	0,1	0,932195
3,829167	0,1	0,920870
3,830833	0,1	0,902149
3,832500	0,1	0,879822
3,834167	0,1	0,862437
3,835833	0,1	0,867017
3,837500	0,1	0,883686
3,839167	0,1	0,879463
3,840833	0,1	0,887094
3,842500	0,1	0,880531
3,844167	0,1	0,841873
3,845833	0,1	0,819368
3,847500	0,1	0,866739
3,849167	0,1	0,858649
3,850833	0,1	0,832454
3,852500	0,1	0,822568
3,854167	0,1	0,823056
3,855833	0,1	0,827686
3,857500	0,1	0,825527
3,859167	0,1	0,830201
3,860833	0,1	0,855592
3,862500	0,1	0,784194
3,864167	0,1	0,750775
3,865833	0,1	0,826287
3,867500	0,1	0,823303
3,869167	0,1	0,775931
3,870833	0,1	0,802018
3,872500	0,1	0,748711
3,874167	0,1	0,760957
3,875833	0,1	0,799300
3,877500	0,1	0,784421
3,879167	0,1	0,756184
3,880833	0,1	0,779720
3,882500	0,1	0,758606
3,884167	0,1	0,802279
3,885833	0,1	0,760705
3,887500	0,1	0,726737
3,889167	0,1	0,770167
3,890833	0,1	0,706634
3,892500	0,1	0,762376
3,894167	0,1	0,757691
3,895833	0,1	0,727144
3,897500	0,1	0,722224
3,899167	0,1	0,729203
3,900833	0,1	0,765898
3,902500	0,1	0,728238
3,904167	0,1	0,734747
3,905833	0,1	0,702175
3,907500	0,1	0,739968
3,909167	0,1	0,736238
3,910833	0,1	0,722226
3,912500	0,1	0,726696
3,914167	0,1	0,676749
3,915833	0,1	0,732111
3,917500	0,1	0,659240
3,919167	0,1	0,699982
3,920833	0,1	0,676230
3,922500	0,1	0,689771
3,924167	0,1	0,672250
3,925833	0,1	0,687530
3,927500	0,1	0,675054
3,929167	0,1	0,661966
3,930833	0,1	0,652509
3,932500	0,1	0,684722
3,934167	0,1	0,666693
3,935833	0,1	0,688545
3,937500	0,1	0,665153
3,939167	0,1	0,659515
3,940833	0,1	0,651061
3,942500	0,1	0,632456
3,944167	0,1	0,637098
3,945833	0,1	0,642908
3,947500	0,1	0,656666
3,949167	0,1	0,622967
3,950833	0,1	0,638243
3,952500	0,1	0,649306
3,954167	0,1	0,634156
3,955833	0,1	0,652727
3,957500	0,1	0,608094
3,959167	0,1	0,596444
3,960833	0,1	0,641950
3,962500	0,1	0,601510
3,964167	0,1	0,653430
3,965833	0,1	0,618545
3,967500	0,1	0,595091
3,969167	0,1	0,640844
3,970833	0,1	0,619858
3,972500	0,1	0,592934
3,974167	0,1	0,653165
3,975833	0,1	0,596222
3,977500	0,1	0,644583
3,979167	0,1	0,597295
3,980833	0,1	0,571671
3,982500	0,1	0,617738
3,984167	0,1	0,594446
3,985833	0,1	0,590374
3,987500	0,1	0,567613
3,989167	0,1	0,590181
3,990833	0,1	0,570222
3,992500	0,1	0,586528
3,994167	0,1	0,627782
3,995833	0,1	0,576193
3,997500	0,1	0,618395
3,999167	0,1	0,598597
4,000833	0,1	0,593414
4,002500	0,1	0,581898
4,004167	0,1	0,619107
4,005833	0,1	0,571424
4,007500	0,1	0,602542
4,009167	0,1	0,563027
4,010833	0,1	0,598660
4,012500	0,1	0,569419
4,014167	0,1	0,602979
4,015833	0,1	0,627469
4,017500	0,1	0,604441
4,019167	0,1	0,628012
4,020833	0,1	0,619604
4,022500	0,1	0,597121
4,024167	0,1	0,608183
4,025833	0,1	0,640847
4,027500	0,1	0,619279
4,029167	0,1	0,577716
4,030833	0,1	0,640129
4,032500	0,1	0,631442
4,034167	0,1	0,644050
4,035833	0,1	0,619662
4,037500	0,1	0,658648
4,039167	0,1	0,630063
4,040833	0,1	0,635376
4,042500	0,1	0,647856
4,044167	0,1	0,673110
4,045833	0,1	0,658251
4,047500	0,1	0,608948
4,049167	0,1	0,661357
4,050833	0,1	0,624483
4,052500	0,1	0,674855
4,054167	0,1	0,676116
4,055833	0,1	0,650539
4,057500	0,1	0,684340
4,059167	0,1	0,699237
4,060833	0,1	0,724599
4,062500	0,1	0,703397
4,064167	0,1	0,735542
4,065833	0,1	0,744112
4,067500	0,1	0,698778
4,069167	0,1	0,736566
4,070833	0,1	0,739950
4,072500	0,1	0,736460
4,074167	0,1	0,759067
4,075833	0,1	0,722337
4,077500	0,1	0,812908
4,079167	0,1	0,795375
4,080833	0,1	0,804224
4,082500	0,1	0,785605
4,084167	0,1	0,845077
4,085833	0,1	0,852636
4,087500	0,1	0,841666
4,089167	0,1	0,867814
4,090833	0,1	0,850217
4,092500	0,1	0,873313
4,094167	0,1	0,905298
4,095833	0,1	0,904884
4,097500	0,1	0,893511
4,099167	0,1	0,951421
4,100833	0,1	0,931626
4,102500	0,1	0,922762
4,104167	0,1	0,908718
4,105833	0,1	0,974085
4,107500	0,1	0,980758
4,109167	0,1	1,001773
4,110833	0,1	1,025666
4,112500	0,1	1,021085
4,114167	0,1	1,046110
4,115833	0,1	1,044400
4,117500	0,1	1,051164
4,119167	0,1	1,059491
4,120833	0,1	1,103487
4,122500	0,1	1,126437
4,124167	0,1	1,124845
4,125833	0,1	1,110109
4,127500	0,1	1,155141
4,129167	0,1	1,182907
4,130833	0,1	1,173736
4,132500	0,1	1,198936
4,134167	0,1	1,199215
4,135833	0,1	1,182287
4,137500	0,1	1,233611
4,139167	0,1	1,215203
4,140833	0,1	1,269723
4,142500	0,1	1,234589
4,144167	0,1	1,265519
4,145833	0,1	1,287231
4,147500	0,1	1,284075
4,149167	0,1	1,323701
4,150833	0,1	1,339092
4,152500	0,1	1,335124
4,154167	0,1	1,351838
4,155833	0,1	1,375473
4,157500	0,1	1,345456
4,159167	0,1	1,405332
4,160833	0,1	1,374124
4,162500	0,1	1,384568
4,164167	0,1	1,423933
4,165833	0,1	1,456494
4,167500	0,1	1,436146
4,169167	0,1	1,462222
4,170833	0,1	1,442692
4,172500	0,1	1,458276
4,174167	0,1	1,446717
4,175833	0,1	1,419342
4,177500	0,1	1,505082
4,179167	0,1	1,480681
4,180833	0,1	1,494984
4,182500	0,1	1,494770
4,184167	0,1	1,521050
4,185833	0,1	1,504460
4,187500	0,1	1,517592
4,189167	0,1	1,509204
4,190833	0,1	1,521769
4,192500	0,1	1,529590
4,194167	0,1	1,516107
4,195833	0,1	1,563639
4,197500	0,1	1,545419
4,199167	0,1	1,571420
4,200833	0,1	1,549806
4,202500	0,1	1,537442
4,204167	0,1	1,590312
4,205833	0,1	1,549513
4,207500	0,1	1,574077
4,209167	0,1	1,545571
4,210833	0,1	1,568974
4,212500	0,1	1,565102
4,214167	0,1	1,535209
4,215833	0,1	1,569915
4,217500	0,1	1,533480
4,219167	0,1	1,577872
4,220833	0,1	1,523070
4,222500	0,1	1,533836
4,224167	0,1	1,554104
4,225833	0,1	1,562083
4,227500	0,1	1,534272
4,229167	0,1	1,560786
4,230833	0,1	1,547776
4,232500	0,1	1,569262
4,234167	0,1	1,561929
4,235833	0,1	1,487068
4,237500	0,1	1,530971
4,239167	0,1	1,529898
4,240833	0,1	1,511583
4,242500	0,1	1,533535
4,244167	0,1	1,535786
4,245833	0,1	1,496061
4,247500	0,1	1,498359
4,249167	0,1	1,526310
4,250833	0,1	1,494201
4,252500	0,1	1,492243
4,254167	0,1	1,471374
4,255833	0,1	1,501804
4,257500	0,1	1,493569
4,259167	0,1	1,488455
4,260833	0,1	1,475588
4,262500	0,1	1,492467
4,264167	0,1	1,478334
4,265833	0,1	1,452538
4,267500	0,1	1,427606
4,269167	0,1	1,440190
4,270833	0,1	1,418915
4,272500	0,1	1,443627
4,274167	0,1	1,412395
4,275833	0,1	1,402269
4,277500	0,1	1,383114
4,279167	0,1	1,395787
4,280833	0,1	1,359689
4,282500	0,1	1,365921
4,284167	0,1	1,398450
4,285833	0,1	1,359400
4,287500	0,1	1,354141
4,289167	0,1	1,373767
4,290833	0,1	1,335626
4,292500	0,1	1,320895
4,294167	0,1	1,298652
4,295833	0,1	1,273879
4,297500	0,1	1,253066
4,299167	0,1	1,316312
4,300833	0,1	1,317675
4,302500	0,1	1,299449
4,304167	0,1	1,261675
4,305833	0,1	1,290392
4,307500	0,1	1,249990
4,309167	0,1	1,233819
4,310833	0,1	1,231672
4,312500	0,1	1,229528
4,314167	0,1	1,226791
4,315833	0,1	1,252050
4,317500	0,1	1,230552
4,319167	0,1	1,217256
4,320833	0,1	1,221228
4,322500	0,1	1,140926
4,324167	0,1	1,182904
4,325833	0,1	1,173173
4,327500	0,1	1,204293
4,329167	0,1	1,126885
4,330833	0,1	1,174096
4,332500	0,1	1,172084
4,334167	0,1	1,120148
4,335833	0,1	1,101393
4,337500	0,1	1,154425
4,339167	0,1	1,117357
4,340833	0,1	1,054034
4,342500	0,1	1,120120
4,344167	0,1	1,083840
4,345833	0,1	1,073501
4,347500	0,1	1,098324
4,349167	0,1	1,094505
4,350833	0,1	1,099637
4,352500	0,1	1,048712
4,354167	0,1	1,012186
4,355833	0,1	1,047928
4,357500	0,1	1,052438
4,359167	0,1	1,057845
4,360833	0,1	0,982492
4,362500	0,1	1,028235
4,364167	0,1	0,978342
4,365833	0,1	1,005465
4,367500	0,1	1,004025
4,369167	0,1	1,009990
4,370833	0,1	0,980498
4,372500	0,1	0,953177
4,374167	0,1	0,981619
4,375833	0,1	0,933615
4,377500	0,1	0,955371
4,379167	0,1	1,000650
4,380833	0,1	0,961130
4,382500	0,1	0,924662
4,384167	0,1	0,911811
4,385833	0,1	0,958948
4,387500	0,1	0,903827
4,389167	0,1	0,936955
4,390833	0,1	0,889311
4,392500	0,1	0,892437
4,394167	0,1	0,927516
4,395833	0,1	0,930215
4,397500	0,1	0,886728
4,399167	0,1	0,868958
4,400833	0,1	0,890586
4,402500	0,1	0,910288
4,404167	0,1	0,866361
4,405833	0,1	0,857092
4,407500	0,1	0,841001
4,409167	0,1	0,850432
4,410833	0,1	0,831565
4,412500	0,1	0,821789
4,414167	0,1	0,814779
4,415833	0,1	0,865560
4,417500	0,1	0,845811
4,419167	0,1	0,845270
4,420833	0,1	0,859692
4,422500	0,1	0,794718
4,424167	0,1	0,805913
4,425833	0,1	0,816667
4,427500	0,1	0,824770
4,429167	0,1	0,821879
4,430833	0,1	0,767963
4,432500	0,1	0,815700
4,434167	0,1	0,761088
4,435833	0,1	0,771373
4,437500	0,1	0,763526
4,439167	0,1	0,769844
4,440833	0,1	0,804711
4,442500	0,1	0,748314
4,444167	0,1	0,743519
4,445833	0,1	0,733947
4,447500	0,1	0,734483
4,449167	0,1	0,762359
4,450833	0,1	0,735109
4,452500	0,1	0,727228
4,454167	0,1	0,752389
4,455833	0,1	0,729102
4,457500	0,1	0,730519
4,459167	0,1	0,720577
4,460833	0,1	0,711717
4,462500	0,1	0,710382
4,464167	0,1	0,697602
4,465833	0,1	0,703258
4,467500	0,1	0,727313
4,469167	0,1	0,689163
4,470833	0,1	0,699305
4,472500	0,1	0,699388
4,474167	0,1	0,680638
4,475833	0,1	0,658767
4,477500	0,1	0,672401
4,479167	0,1	0,659056
4,480833	0,1	0,665080
4,482500	0,1	0,641190
4,484167	0,1	0,644052
4,485833	0,1	0,639118
4,487500	0,1	0,620739
4,489167	0,1	0,612929
4,490833	0,1	0,625722
4,492500	0,1	0,634533
4,494167	0,1	0,597872
4,495833	0,1	0,622308
4,497500	0,1	0,606348
4,499167	0,1	0,623300
4,500833	0,1	0,584839
4,502500	0,1	0,596795
4,504167	0,1	0,573262
4,505833	0,1	0,606231
4,507500	0,1	0,596025
4,509167	0,1	0,567680
4,510833	0,1	0,576601
4,512500	0,1	0,533328
4,514167	0,1	0,571722
4,515833	0,1	0,545158
4,517500	0,1	0,580043
4,519167	0,1	0,547356
4,520833	0,1	0,581821
4,522500	0,1	0,582530
4,524167	0,1	0,557096
4,525833	0,1	0,550445
4,527500	0,1	0,522133
4,529167	0,1	0,540540
4,530833	0,1	0,502916
4,532500	0,1	0,507935
4,534167	0,1	0,528667
4,535833	0,1	0,498979
4,537500	0,1	0,502102
4,539167	0,1	0,480397
4,540833	0,1	0,529659
4,542500	0,1	0,493365
4,544167	0,1	0,521056
4,545833	0,1	0,496819
4,547500	0,1	0,486849
4,549167	0,1	0,466728
4,550833	0,1	0,501152
4,552500	0,1	0,515319
4,554167	0,1	0,487493
4,555833	0,1	0,470657
4,557500	0,1	0,470499
4,559167	0,1	0,432036
4,560833	0,1	0,441536
4,562500	0,1	0,447244
4,564167	0,1	0,478579
4,565833	0,1	0,465148
4,567500	0,1	0,465914
4,569167	0,1	0,435547
4,570833	0,1	0,437538
4,572500	0,1	0,445600
4,574167	0,1	0,442764
4,575833	0,1	0,445987
4,577500	0,1	0,418780
4,579167	0,1	0,399851
4,580833	0,1	0,444266
4,582500	0,1	0,403018
4,584167	0,1	0,427215
4,585833	0,1	0,400789
4,587500	0,1	0,422929
4,589167	0,1	0,405527
4,590833	0,1	0,372033
4,592500	0,1	0,381789
4,594167	0,1	0,407966
4,595833	0,1	0,398787
4,597500	0,1	0,417382
4,599167	0,1	0,369844
4,600833	0,1	0,394425
4,602500	0,1	0,396011
4,604167	0,1	0,376543
4,605833	0,1	0,390880
4,607500	0,1	0,369193
4,609167	0,1	0,405770
4,610833	0,1	0,379962
4,612500	0,1	0,354266
4,614167	0,1	0,325639
4,615833	0,1	0,380265
4,617500	0,1	0,339603
4,619167	0,1	0,322704
4,620833	0,1	0,337041
4,622500	0,1	0,311069
4,624167	0,1	0,356861
4,625833	0,1	0,374921
4,627500	0,1	0,362162
4,629167	0,1	0,309689
4,630833	0,1	0,343355
4,632500	0,1	0,333212
4,634167	0,1	0,313967
4,635833	0,1	0,360051
4,637500	0,1	0,343852
4,639167	0,1	0,328860
4,640833	0,1	0,313097
4,642500	0,1	0,304326
4,644167	0,1	0,302166
4,645833	0,1	0,302908
4,647500	0,1	0,312446
4,649167	0,1	0,326823
4,650833	0,1	0,277291
4,652500	0,1	0,278991
4,654167	0,1	0,299487
4,655833	0,1	0,308289
4,657500	0,1	0,266622
4,659167	0,1	0,262521
4,660833	0,1	0,254882
4,662500	0,1	0,272217
4,664167	0,1	0,302610
4,665833	0,1	0,278061
4,667500	0,1	0,284433
4,669167	0,1	0,298136
4,670833	0,1	0,227985
4,672500	0,1	0,268664
4,674167	0,1	0,285592
4,675833	0,1	0,270227
4,677500	0,1	0,281308
4,679167	0,1	0,230489
4,680833	0,1	0,244759
4,682500	0,1	0,275854
4,684167	0,1	0,239190
4,685833	0,1	0,244401
4,687500	0,1	0,253361
4,689167	0,1	0,252467
4,690833	0,1	0,226296
4,692500	0,1	0,237634
4,694167	0,1	0,226292
4,695833	0,1	0,209088
4,697500	0,1	0,252192
4,699167	0,1	0,257102
4,700833	0,1	0,271217
4,702500	0,1	0,230295
4,704167	0,1	0,252040
4,705833	0,1	0,230774
4,707500	0,1	0,223232
4,709167	0,1	0,203579
4,710833	0,1	0,232601
4,712500	0,1	0,227516
4,714167	0,1	0,218976
4,715833	0,1	0,211885
4,717500	0,1	0,286966
4,719167	0,1	0,233329
4,720833	0,1	0,241374
4,722500	0,1	0,210891
4,724167	0,1	0,214431
4,725833	0,1	0,206374
4,727500	0,1	0,176313
4,729167	0,1	0,222058
4,730833	0,1	0,206573
4,732500	0,1	0,190134
4,734167	0,1	0,191583
4,735833	0,1	0,212812
4,737500	0,1	0,218462
4,739167	0,1	0,205703
4,740833	0,1	0,209764
4,742500	0,1	0,223394
4,744167	0,1	0,210731
4,745833	0,1	0,193656
4,747500	0,1	0,233342
4,749167	0,1	0,194688
4,750833	0,1	0,185876
4,752500	0,1	0,166280
4,754167	0,1	0,207170
4,755833	0,1	0,158081
4,757500	0,1	0,168859
4,759167	0,1	0,207815
4,760833	0,1	0,205700
4,762500	0,1	0,181049
4,764167	0,1	0,168347
4,765833	0,1	0,160031
4,767500	0,1	0,189868
4,769167	0,1	0,178951
4,770833	0,1	0,189584
4,772500	0,1	0,182307
4,774167	0,1	0,150242
4,775833	0,1	0,169183
4,777500	0,1	0,155486
4,779167	0,1	0,163804
4,780833	0,1	0,188936
4,782500	0,1	0,162651
4,784167	0,1	0,164349
4,785833	0,1	0,203629
4,787500	0,1	0,180086
4,789167	0,1	0,148991
4,790833	0,1	0,136859
4,792500	0,1	0,138862
4,794167	0,1	0,136031
4,795833	0,1	0,136574
4,797500	0,1	0,144851
4,799167	0,1	0,165188
4,800833	0,1	0,176919
4,802500	0,1	0,181368
4,804167	0,1	0,129789
4,805833	0,1	0,161255
4,807500	0,1	0,201440
4,809167	0,1	0,151409
4,810833	0,1	0,174083
4,812500	0,1	0,122510
4,814167	0,1	0,125291
4,815833	0,1	0,162635
4,817500	0,1	0,162226
4,819167	0,1	0,161581
4,820833	0,1	0,160974
4,822500	0,1	0,129429
4,824167	0,1	0,160547
4,825833	0,1	0,144993
4,827500	0,1	0,141612
4,829167	0,1	0,139317
4,830833	0,1	0,128843
4,832500	0,1	0,151174
4,834167	0,1	0,153176
4,835833	0,1	0,116253
4,837500	0,1	0,128257
4,839167	0,1	0,131519
4,840833	0,1	0,118888
4,842500	0,1	0,133865
4,844167	0,1	0,148234
4,845833	0,1	0,120434
4,847500	0,1	0,115474
4,849167	0,1	0,110027
4,850833	0,1	0,119880
4,852500	0,1	0,126715
4,854167	0,1	0,119468
4,855833	0,1	0,102878
4,857500	0,1	0,117755
4,859167	0,1	0,182091
4,860833	0,1	0,123347
4,862500	0,1	0,125011
4,864167	0,1	0,111028
4,865833	0,1	0,133410
4,867500	0,1	0,138125
4,869167	0,1	0,110550
4,870833	0,1	0,136996
4,872500	0,1	0,131420
4,874167	0,1	0,140993
4,875833	0,1	0,120024
4,877500	0,1	0,153975
4,879167	0,1	0,089737
4,880833	0,1	0,144811
4,882500	0,1	0,094990
4,884167	0,1	0,157445
4,885833	0,1	0,132396
4,887500	0,1	0,145148
4,889167	0,1	0,123538
4,890833	0,1	0,121854
4,892500	0,1	0,156099
4,894167	0,1	0,110100
4,895833	0,1	0,127938
4,897500	0,1	0,130456
4,899167	0,1	0,093181
4,900833	0,1	0,127318
4,902500	0,1	0,124784
4,904167	0,1	0,138059
4,905833	0,1	0,124914
4,907500	0,1	0,121118
4,909167	0,1	0,151880
4,910833	0,1	0,110226
4,912500	0,1	0,134771
4,914167	0,1	0,133453
4,915833	0,1	0,157717
4,917500	0,1	0,121735
4,919167	0,1	0,125427
4,920833	0,1	0,160066
4,922500	0,1	0,096508
4,924167	0,1	0,118978
4,925833	0,1	0,124420
4,927500	0,1	0,120312
4,929167	0,1	0,115928
4,930833	0,1	0,087707
4,932500	0,1	0,130611
4,934167	0,1	0,135547
4,935833	0,1	0,132327
4,937500	0,1	0,104423
4,939167	0,1	0,091443
4,940833	0,1	0,118016
4,942500	0,1	0,099758
4,944167	0,1	0,127682
4,945833	0,1	0,091058
4,947500	0,1	0,110503
4,949167	0,1	0,092405
4,950833	0,1	0,116301
4,952500	0,1	0,114220
4,954167	0,1	0,127586
4,955833	0,1	0,140056
4,957500	0,1	0,173953
4,959167	0,1	0,113300
4,960833	0,1	0,106199
4,962500	0,1	0,136893
4,964167	0,1	0,148463
4,965833	0,1	0,134999
4,967500	0,1	0,156004
4,969167	0,1	0,123340
4,970833	0,1	0,118341
4,972500	0,1	0,137188
4,974167	0,1	0,139706
4,975833	0,1	0,155459
4,977500	0,1	0,139029
4,979167	0,1	0,132356
4,980833	0,1	0,121437
4,982500	0,1	0,143632
4,984167	0,1	0,162831
4,985833	0,1	0,185493
4,987500	0,1	0,183693
4,989167	0,1	0,177151
4,990833	0,1	0,145540
4,992500	0,1	0,152819
4,994167	0,1	0,191454
4,995833	0,1	0,145518
4,997500	0,1	0,141921
4,999167	0,1	0,159744
5,000833	0,1	0,176082
5,002500	0,1	0,198829
5,004167	0,1	0,163107
5,005833	0,1	0,187519
5,007500	0,1	0,145679
5,009167	0,1	0,152112
5,010833	0,1	0,193732
5,012500	0,1	0,159528
5,014167	0,1	0,180783
5,015833	0,1	0,128663
5,017500	0,1	0,199973
5,019167	0,1	0,198419
5,020833	0,1	0,169004
5,022500	0,1	0,194834
5,024167	0,1	0,222677
5,025833	0,1	0,169908
5,027500	0,1	0,200855
5,029167	0,1	0,218650
5,030833	0,1	0,238115
5,032500	0,1	0,241380
5,034167	0,1	0,246276
5,035833	0,1	0,221528
5,037500	0,1	0,252619
5,039167	0,1	0,223079
5,040833	0,1	0,220072
5,042500	0,1	0,250296
5,044167	0,1	0,223818
5,045833	0,1	0,228931
5,047500	0,1	0,250779
5,049167	0,1	0,253235
5,050833	0,1	0,229682
5,052500	0,1	0,203672
5,054167	0,1	0,244945
5,055833	0,1	0,233744
5,057500	0,1	0,238924
5,059167	0,1	0,265865
5,060833	0,1	0,270643
5,062500	0,1	0,291299
5,064167	0,1	0,276417
5,065833	0,1	0,297810
5,067500	0,1	0,287920
5,069167	0,1	0,226693
5,070833	0,1	0,312494
5,072500	0,1	0,333528
5,074167	0,1	0,279422
5,075833	0,1	0,267003
5,077500	0,1	0,321043
5,079167	0,1	0,270200
5,080833	0,1	0,292457
5,082500	0,1	0,313026
5,084167	0,1	0,354476
5,085833	0,1	0,298891
5,087500	0,1	0,306032
5,089167	0,1	0,316798
5,090833	0,1	0,323086
5,092500	0,1	0,317866
5,094167	0,1	0,299655
5,095833	0,1	0,286731
5,097500	0,1	0,321176
5,099167	0,1	0,284094
5,100833	0,1	0,309285
5,102500	0,1	0,293724
5,104167	0,1	0,302294
5,105833	0,1	0,315606
5,107500	0,1	0,313353
5,109167	0,1	0,350480
5,110833	0,1	0,319680
5,112500	0,1	0,351448
5,114167	0,1	0,300083
5,115833	0,1	0,342515
5,117500	0,1	0,332662
5,119167	0,1	0,322316
5,120833	0,1	0,349804
5,122500	0,1	0,330796
5,124167	0,1	0,343394
5,125833	0,1	0,289480
5,127500	0,1	0,326011
5,129167	0,1	0,308102
5,130833	0,1	0,360114
5,132500	0,1	0,372374
5,134167	0,1	0,335218
5,135833	0,1	0,352063
5,137500	0,1	0,364800
5,139167	0,1	0,365930
5,140833	0,1	0,355714
5,142500	0,1	0,355291
5,144167	0,1	0,336824
5,145833	0,1	0,351032
5,147500	0,1	0,385879
5,149167	0,1	0,294550
5,150833	0,1	0,351571
5,152500	0,1	0,336244
5,154167	0,1	0,343266
5,155833	0,1	0,341301
5,157500	0,1	0,349615
5,159167	0,1	0,338242
5,160833	0,1	0,298887
5,162500	0,1	0,336327
5,164167	0,1	0,340301
5,165833	0,1	0,335919
5,167500	0,1	0,320994
5,169167	0,1	0,317802
5,170833	0,1	0,321797
5,172500	0,1	0,314900
5,174167	0,1	0,314642
5,175833	0,1	0,303909
5,177500	0,1	0,294078
5,179167	0,1	0,290754
5,180833	0,1	0,311638
5,182500	0,1	0,311643
5,184167	0,1	0,322506
5,185833	0,1	0,296596
5,187500	0,1	0,284989
5,189167	0,1	0,295585
5,190833	0,1	0,307097
5,192500	0,1	0,336780
5,194167	0,1	0,308073
5,195833	0,1	0,285797
5,197500	0,1	0,274707
5,199167	0,1	0,337094
5,200833	0,1	0,316291
5,202500	0,1	0,296918
5,204167	0,1	0,316830
5,205833	0,1	0,302976
5,207500	0,1	0,271617
5,209167	0,1	0,278214
5,210833	0,1	0,247285
5,212500	0,1	0,254203
5,214167	0,1	0,264840
5,215833	0,1	0,283179
5,217500	0,1	0,251280
5,219167	0,1	0,265643
5,220833	0,1	0,257109
5,222500	0,1	0,284659
5,224167	0,1	0,228081
5,225833	0,1	0,275048
5,227500	0,1	0,241640
5,229167	0,1	0,228396
5,230833	0,1	0,260903
5,232500	0,1	0,238867
5,234167	0,1	0,250334
5,235833	0,1	0,218860
5,237500	0,1	0,199293
5,239167	0,1	0,214492
5,240833	0,1	0,255808
5,242500	0,1	0,213861
5,244167	0,1	0,230222
5,245833	0,1	0,242054
5,247500	0,1	0,207095
5,249167	0,1	0,202123
5,250833	0,1	0,219487
5,252500	0,1	0,232093
5,254167	0,1	0,226616
5,255833	0,1	0,242505
5,257500	0,1	0,210800
5,259167	0,1	0,214403
5,260833	0,1	0,208058
5,262500	0,1	0,197068
5,264167	0,1	0,178342
5,265833	0,1	0,164616
5,267500	0,1	0,184842
5,269167	0,1	0,165787
5,270833	0,1	0,172663
5,272500	0,1	0,193227
5,274167	0,1	0,158150
5,275833	0,1	0,149601
5,277500	0,1	0,178657
5,279167	0,1	0,171385
5,280833	0,1	0,190388
5,282500	0,1	0,186526
5,284167	0,1	0,176062
5,285833	0,1	0,170451
5,287500	0,1	0,178081
5,289167	0,1	0,183147
5,290833	0,1	0,173256
5,292500	0,1	0,186912
5,294167	0,1	0,117258
5,295833	0,1	0,157814
5,297500	0,1	0,150537
5,299167	0,1	0,098731
5,300833	0,1	0,181866
5,302500	0,1	0,129244
5,304167	0,1	0,139577
5,305833	0,1	0,138101
5,307500	0,1	0,098763
5,309167	0,1	0,142401
5,310833	0,1	0,124181
5,312500	0,1	0,134612
5,314167	0,1	0,142771
5,315833	0,1	0,115705
5,317500	0,1	0,137549
5,319167	0,1	0,108919
5,320833	0,1	0,136059
5,322500	0,1	0,086258
5,324167	0,1	0,153741
5,325833	0,1	0,081057
5,327500	0,1	0,054490
5,329167	0,1	0,083346
5,330833	0,1	0,086992
5,332500	0,1	0,106837
5,334167	0,1	0,104075
5,335833	0,1	0,107876
5,337500	0,1	0,046893
5,339167	0,1	0,062995
5,340833	0,1	0,101449
5,342500	0,1	0,083547
5,344167	0,1	0,128550
5,345833	0,1	0,088607
5,347500	0,1	0,056982
5,349167	0,1	0,074517
5,350833	0,1	0,085966
5,352500	0,1	0,070559
5,354167	0,1	0,054527
5,355833	0,1	0,055393
5,357500	0,1	0,056745
5,359167	0,1	0,071398
5,360833	0,1	0,063961
5,362500	0,1	0,062797
5,364167	0,1	0,077652
5,365833	0,1	0,053430
5,367500	0,1	0,062352
5,369167	0,1	0,064729
5,370833	0,1	0,047629
5,372500	0,1	0,064347
5,374167	0,1	0,016522
5,375833	0,1	0,050988
5,377500	0,1	0,058640
5,379167	0,1	0,066484
5,380833	0,1	0,056482
5,382500	0,1	0,058678
5,384167	0,1	0,055294
5,385833	0,1	0,011705
5,387500	0,1	0,046783
5,389167	0,1	0,046337
5,390833	0,1	0,048747
5,392500	0,1	0,055355
5,394167	0,1	0,027444
5,395833	0,1	0,069004
5,397500	0,1	0,068054
5,399167	0,1	0,044635
5,400833	0,1	0,001374
5,402500	0,1	0,075097
5,404167	0,1	0,053150
5,405833	0,1	0,072180
5,407500	0,1	0,023506
5,409167	0,1	0,017234
5,410833	0,1	0,055119
5,412500	0,1	0,030361
5,414167	0,1	0,034383
5,415833	0,1	0,083834
5,417500	0,1	-0,003251
5,419167	0,1	0,040401
5,420833	0,1	0,055745
5,422500	0,1	0,041325
5,424167	0,1	0,022022
5,425833	0,1	0,007102
5,427500	0,1	0,017897
5,429167	0,1	0,012506
5,430833	0,1	0,014374
5,432500	0,1	-0,006865
5,434167	0,1	0,015987
5,435833	0,1	0,019313
5,437500	0,1	-0,015796
5,439167	0,1	0,042470
5,440833	0,1	-0,011407
5,442500	0,1	0,015442
5,444167	0,1	0,028583
5,445833	0,1	0,013293
5,447500	0,1	-0,015263
5,449167	0,1	-0,004689
5,450833	0,1	0,015736
5,452500	0,1	0,050977
5,454167	0,1	-0,000252
5,455833	0,1	-0,026206
5,457500	0,1	-0,019152
5,459167	0,1	-0,024366
5,460833	0,1	0,014113
5,462500	0,1	0,009055
5,464167	0,1	-0,018915
5,465833	0,1	-0,003339
5,467500	0,1	-0,024755
5,469167	0,1	-0,032535
5,470833	0,1	-0,003053
5,472500	0,1	0,001440
5,474167	0,1	-0,006328
5,475833	0,1	-0,021017
5,477500	0,1	0,008191
5,479167	0,1	-0,033832
5,480833	0,1	-0,014646
5,482500	0,1	-0,024324
5,484167	0,1	-0,009680
5,485833	0,1	-0,033732
5,487500	0,1	0,002910
5,489167	0,1	-0,009862
5,490833	0,1	-0,018442
5,492500	0,1	-0,025465
5,494167	0,1	-0,019545
5,495833	0,1	-0,058537
5,497500	0,1	-0,029754
5,499167	0,1	-0,038867
5,500833	0,1	0,003097
5,502500	0,1	-0,020041
5,504167	0,1	0,001877
5,505833	0,1	-0,053586
5,507500	0,1	-0,007440
5,509167	0,1	-0,048442
5,510833	0,1	0,011191
5,512500	0,1	0,000470
5,514167	0,1	-0,009052
5,515833	0,1	-0,049895
5,517500	0,1	-0,012426
5,519167	0,1	-0,033774
5,520833	0,1	-0,027360
5,522500	0,1	-0,013089
5,524167	0,1	-0,025502
5,525833	0,1	-0,036290
5,527500	0,1	-0,000311
5,529167	0,1	-0,016671
5,530833	0,1	-0,034645
5,532500	0,1	0,002162
5,534167	0,1	-0,002486
5,535833	0,1	0,000693
5,537500	0,1	0,001919
5,539167	0,1	-0,016199
5,540833	0,1	-0,010674
5,542500	0,1	-0,060011
5,544167	0,1	-0,025435
5,545833	0,1	-0,032552
5,547500	0,1	-0,005526
5,549167	0,1	-0,044554
5,550833	0,1	-0,026037
5,552500	0,1	-0,031184
5,554167	0,1	-0,053057
5,555833	0,1	-0,028757
5,557500	0,1	-0,051188
5,559167	0,1	-0,004179
5,560833	0,1	-0,033646
5,562500	0,1	-0,015808
5,564167	0,1	-0,027522
5,565833	0,1	-0,018280
5,567500	0,1	0,008003
5,569167	0,1	0,003602
5,570833	0,1	-0,005595
5,572500	0,1	-0,017646
5,574167	0,1	-0,030514
5,575833	0,1	-0,020065
5,577500	0,1	-0,024429
5,579167	0,1	-0,006749
5,580833	0,1	-0,009864
5,582500	0,1	-0,027668
5,584167	0,1	-0,015892
5,585833	0,1	-0,066163
5,587500	0,1	-0,029300
5,589167	0,1	-0,034899
5,590833	0,1	-0,030417
5,592500	0,1	-0,027360
5,594167	0,1	-0,039699
5,595833	0,1	-0,061992
5,597500	0,1	-0,032912
5,599167	0,1	0,009680
5,600833	0,1	-0,024045
5,602500	0,1	-0,039594
5,604167	0,1	-0,028423
5,605833	0,1	-0,011635
5,607500	0,1	-0,045262
5,609167	0,1	-0,026037
5,610833	0,1	-0,020149
5,612500	0,1	-0,037411
5,614167	0,1	-0,046535
5,615833	0,1	-0,061370
5,617500	0,1	-0,041309
5,619167	0,1	0,020728
5,620833	0,1	-0,013596
5,622500	0,1	-0,040402
5,624167	0,1	-0,039639
5,625833	0,1	-0,022439
5,627500	0,1	-0,024697
5,629167	0,1	-0,017471
5,630833	0,1	-0,038990
5,632500	0,1	-0,064299
5,634167	0,1	-0,046688
5,635833	0,1	-0,040473
5,637500	0,1	-0,021566
5,639167	0,1	-0,057604
5,640833	0,1	-0,008752
5,642500	0,1	-0,011875
5,644167	0,1	-0,053822
5,645833	0,1	-0,015584
5,647500	0,1	-0,030287
5,649167	0,1	-0,024139
5,650833	0,1	-0,044064
5,652500	0,1	-0,033929
5,654167	0,1	-0,020590
5,655833	0,1	-0,047715
5,657500	0,1	-0,040842
5,659167	0,1	0,016448
5,660833	0,1	-0,027122
5,662500	0,1	-0,003570
5,664167	0,1	-0,023388
5,665833	0,1	-0,035149
5,667500	0,1	-0,054865
5,669167	0,1	-0,004598
5,670833	0,1	-0,017922
5,672500	0,1	-0,004171
5,674167	0,1	-0,020646
5,675833	0,1	-0,053472
5,677500	0,1	-0,005986
5,679167	0,1	-0,003069
5,680833	0,1	-0,029741
5,682500	0,1	-0,024595
5,684167	0,1	-0,020126
5,685833	0,1	-0,025780
5,687500	0,1	-0,049171
5,689167	0,1	-0,007110
5,690833	0,1	-0,020600
5,692500	0,1	-0,032840
5,694167	0,1	-0,033386
5,695833	0,1	0,025539
5,697500	0,1	0,006119
5,699167	0,1	-0,029111
5,700833	0,1	-0,009640
5,702500	0,1	-0,046842
5,704167	0,1	-0,001272
5,705833	0,1	-0,034917
5,707500	0,1	0,002532
5,709167	0,1	0,004521
5,710833	0,1	0,008283
5,712500	0,1	-0,006860
5,714167	0,1	-0,029766
5,715833	0,1	-0,018572
5,717500	0,1	-0,034127
5,719167	0,1	-0,008306
5,720833	0,1	0,023905
5,722500	0,1	-0,011701
5,724167	0,1	-0,029454
5,725833	0,1	0,023333
5,727500	0,1	0,016386
5,729167	0,1	-0,011766
5,730833	0,1	-0,010610
5,732500	0,1	0,030004
5,734167	0,1	0,001157
5,735833	0,1	-0,004370
5,737500	0,1	0,000922
5,739167	0,1	0,014056
5,740833	0,1	0,000612
5,742500	0,1	0,036966
5,744167	0,1	0,011841
5,745833	0,1	0,003336
5,747500	0,1	-0,031963
5,749167	0,1	-0,012651
5,750833	0,1	0,014697
5,752500	0,1	-0,033437
5,754167	0,1	0,047390
5,755833	0,1	0,022518
5,757500	0,1	0,023760
5,759167	0,1	0,000081
5,760833	0,1	0,027393
5,762500	0,1	0,009011
5,764167	0,1	-0,023338
5,765833	0,1	0,016994
5,767500	0,1	0,056775
5,769167	0,1	0,027430
5,770833	0,1	-0,022319
5,772500	0,1	0,006941
5,774167	0,1	0,016775
5,775833	0,1	0,033005
5,777500	0,1	0,026946
5,779167	0,1	-0,002165
5,780833	0,1	0,004684
5,782500	0,1	0,013161
5,784167	0,1	-0,028034
5,785833	0,1	-0,023306
5,787500	0,1	0,035131
5,789167	0,1	0,006436
5,790833	0,1	0,009006
5,792500	0,1	-0,005807
5,794167	0,1	-0,048522
5,795833	0,1	-0,005758
5,797500	0,1	0,004849
5,799167	0,1	0,000469
5,800833	0,1	-0,001427
5,802500	0,1	0,026394
5,804167	0,1	-0,006447
5,805833	0,1	0,016568
5,807500	0,1	0,026839
5,809167	0,1	0,011109
5,810833	0,1	0,023405
5,812500	0,1	-0,001814
5,814167	0,1	-0,017529
5,815833	0,1	-0,004815
5,817500	0,1	0,024879
5,819167	0,1	0,031656
5,820833	0,1	0,001119
5,822500	0,1	0,066762
5,824167	0,1	-0,001700
5,825833	0,1	0,001126
5,827500	0,1	-0,013538
5,829167	0,1	0,019761
5,830833	0,1	0,006095
5,832500	0,1	0,012022
5,834167	0,1	0,033256
5,835833	0,1	-0,010144
5,837500	0,1	-0,007264
5,839167	0,1	-0,004068
5,840833	0,1	0,010669
5,842500	0,1	0,017672
5,844167	0,1	-0,021844
5,845833	0,1	-0,003946
5,847500	0,1	0,015406
5,849167	0,1	0,006268
5,850833	0,1	0,026170
5,852500	0,1	0,017320
5,854167	0,1	-0,064285
5,855833	0,1	0,020330
5,857500	0,1	0,003401
5,859167	0,1	0,013742
5,860833	0,1	0,004436
5,862500	0,1	0,003689
5,864167	0,1	-0,007904
5,865833	0,1	0,023401
5,867500	0,1	-0,038461
5,869167	0,1	-0,011967
5,870833	0,1	-0,002881
5,872500	0,1	-0,006580
5,874167	0,1	0,023982
5,875833	0,1	-0,045215
5,877500	0,1	0,005028
5,879167	0,1	-0,017982
5,880833	0,1	-0,009741
5,882500	0,1	0,023235
5,884167	0,1	-0,024959
5,885833	0,1	-0,004942
5,887500	0,1	-0,029577
5,889167	0,1	-0,054094
5,890833	0,1	-0,016417
5,892500	0,1	-0,025801
5,894167	0,1	0,011740
5,895833	0,1	-0,013369
5,897500	0,1	0,016933
5,899167	0,1	-0,031943
5,900833	0,1	0,008289
5,902500	0,1	0,018770
5,904167	0,1	-0,025377
5,905833	0,1	0,042139
5,907500	0,1	-0,008894
5,909167	0,1	-0,024904
5,910833	0,1	-0,011634
5,912500	0,1	-0,020585
5,914167	0,1	-0,021812
5,915833	0,1	-0,021146
5,917500	0,1	-0,022497
5,919167	0,1	-0,016308
5,920833	0,1	-0,031199
5,922500	0,1	-0,044083
5,924167	0,1	-0,061787
5,925833	0,1	-0,011432
5,927500	0,1	-0,030057
5,929167	0,1	-0,013090
5,930833	0,1	-0,017946
5,932500	0,1	-0,007643
5,934167	0,1	-0,002173
5,935833	0,1	-0,018754
5,937500	0,1	-0,047568
5,939167	0,1	-0,051961
5,940833	0,1	-0,051360
5,942500	0,1	-0,019598
5,944167	0,1	-0,031928
5,945833	0,1	-0,021626
5,947500	0,1	-0,049254
5,949167	0,1	-0,014964
5,950833	0,1	-0,018176
5,952500	0,1	-0,045350
5,954167	0,1	-0,034573
5,955833	0,1	-0,020757
5,957500	0,1	-0,001643
5,959167	0,1	-0,023701
5,960833	0,1	-0,020958
5,962500	0,1	-0,010119
5,964167	0,1	-0,005065
5,965833	0,1	-0,027228
5,967500	0,1	-0,042714
5,969167	0,1	-0,019885
5,970833	0,1	-0,032509
5,972500	0,1	-0,017724
5,974167	0,1	-0,032738
5,975833	0,1	-0,045786
5,977500	0,1	-0,001020
5,979167	0,1	-0,056562
5,980833	0,1	-0,073921
5,982500	0,1	-0,028699
5,984167	0,1	-0,045141
5,985833	0,1	-0,049882
5,987500	0,1	-0,057946
5,989167	0,1	-0,059441
5,990833	0,1	-0,086613
5,992500	0,1	-0,056040
5,994167	0,1	-0,062848
5,995833	0,1	-0,064845
5,997500	0,1	-0,037672
5,999167	0,1	-0,043963
6,000833	0,1	-0,023796
