File Path	chrom://chromeleon01/ikbm_chromeleon/2022/Rezex/Esteban/220612_chitin_4_7.seq/990.smp/UV_VIS_1.channel/UV_VIS_1.chm
Channel	UV_VIS_1

Injection Information:
Data Vault	ikbm_chromeleon
Injection	4_24h-NT_1
Injection Number	29
Position	RD1
Comment	
Processing Method	New ProcMethod
Instrument Method	Short_Rezex_6min_194nm
Type	Unknown
Status	Finished
Injection Date	12.06.2022
Injection Time	20:15:35
Injection Volume (µl)	8,000
Dilution Factor	1,0000
Weight	1,0000

Chromatogram Data Information:
Time Min. (min)	0,000833
Time Max. (min)	6,000833
Data Points	3601
Detector	UV
Generating Data System	Chromeleon 7.2.9.11323
Exporting Data System	Chromeleon 7.2.9.0
Operator	Instrument Controller
Signal Quantity	Absorbance
Signal Unit	mAU
Signal Min.	-0,148829
Signal Max.	116,984903
Channel	UV_VIS_1
Driver Name	VWD3000.dll
Channel Type	Evaluation
Min. Step (s)	0,1
Max. Step (s)	0,1
Average Step (s)	0,1

Signal Parameter Information:
Signal Info	WVL:194 nm

Chromatogram Data:
Time (min)	Step (s)	Value (mAU)
0,000833	n.a.	-0,090788
0,002500	0,1	-0,053483
0,004167	0,1	-0,111286
0,005833	0,1	-0,094087
0,007500	0,1	-0,065928
0,009167	0,1	-0,069292
0,010833	0,1	-0,066443
0,012500	0,1	-0,050117
0,014167	0,1	-0,040518
0,015833	0,1	-0,052227
0,017500	0,1	-0,088695
0,019167	0,1	-0,045203
0,020833	0,1	-0,070958
0,022500	0,1	-0,084653
0,024167	0,1	-0,070230
0,025833	0,1	-0,120867
0,027500	0,1	-0,068755
0,029167	0,1	-0,064114
0,030833	0,1	-0,106521
0,032500	0,1	-0,103006
0,034167	0,1	-0,116539
0,035833	0,1	-0,107729
0,037500	0,1	-0,084539
0,039167	0,1	-0,099798
0,040833	0,1	-0,087419
0,042500	0,1	-0,073774
0,044167	0,1	-0,104486
0,045833	0,1	-0,073761
0,047500	0,1	-0,120394
0,049167	0,1	-0,077276
0,050833	0,1	-0,107644
0,052500	0,1	-0,068904
0,054167	0,1	-0,084652
0,055833	0,1	-0,088103
0,057500	0,1	-0,077160
0,059167	0,1	-0,045003
0,060833	0,1	-0,066575
0,062500	0,1	-0,095578
0,064167	0,1	-0,049939
0,065833	0,1	-0,083451
0,067500	0,1	-0,082432
0,069167	0,1	-0,072486
0,070833	0,1	-0,071363
0,072500	0,1	-0,119151
0,074167	0,1	-0,075819
0,075833	0,1	-0,068437
0,077500	0,1	-0,064757
0,079167	0,1	-0,071177
0,080833	0,1	-0,081417
0,082500	0,1	-0,052008
0,084167	0,1	-0,020957
0,085833	0,1	-0,088901
0,087500	0,1	-0,033534
0,089167	0,1	-0,061407
0,090833	0,1	-0,063866
0,092500	0,1	-0,044094
0,094167	0,1	-0,041283
0,095833	0,1	-0,078085
0,097500	0,1	-0,062200
0,099167	0,1	-0,075469
0,100833	0,1	-0,062289
0,102500	0,1	-0,092849
0,104167	0,1	-0,109701
0,105833	0,1	-0,042941
0,107500	0,1	-0,073272
0,109167	0,1	-0,061555
0,110833	0,1	-0,061183
0,112500	0,1	-0,075866
0,114167	0,1	-0,098601
0,115833	0,1	-0,148829
0,117500	0,1	-0,095475
0,119167	0,1	-0,134944
0,120833	0,1	-0,120593
0,122500	0,1	-0,073244
0,124167	0,1	-0,068727
0,125833	0,1	-0,088146
0,127500	0,1	-0,103202
0,129167	0,1	-0,086990
0,130833	0,1	-0,067044
0,132500	0,1	-0,065093
0,134167	0,1	-0,091027
0,135833	0,1	-0,074387
0,137500	0,1	-0,071656
0,139167	0,1	-0,060726
0,140833	0,1	-0,026834
0,142500	0,1	-0,047135
0,144167	0,1	-0,080937
0,145833	0,1	-0,057035
0,147500	0,1	-0,107363
0,149167	0,1	-0,065472
0,150833	0,1	-0,056572
0,152500	0,1	-0,096066
0,154167	0,1	-0,066464
0,155833	0,1	-0,099165
0,157500	0,1	-0,062067
0,159167	0,1	-0,099715
0,160833	0,1	-0,049040
0,162500	0,1	-0,066851
0,164167	0,1	-0,054685
0,165833	0,1	-0,088327
0,167500	0,1	-0,043730
0,169167	0,1	-0,058498
0,170833	0,1	-0,057825
0,172500	0,1	-0,024424
0,174167	0,1	-0,075029
0,175833	0,1	-0,063515
0,177500	0,1	-0,054394
0,179167	0,1	-0,085691
0,180833	0,1	-0,094588
0,182500	0,1	-0,068565
0,184167	0,1	-0,046193
0,185833	0,1	-0,087603
0,187500	0,1	-0,069865
0,189167	0,1	-0,017761
0,190833	0,1	-0,042503
0,192500	0,1	-0,107220
0,194167	0,1	-0,046969
0,195833	0,1	-0,099728
0,197500	0,1	-0,064165
0,199167	0,1	-0,035617
0,200833	0,1	-0,088843
0,202500	0,1	-0,084701
0,204167	0,1	-0,058704
0,205833	0,1	-0,081768
0,207500	0,1	-0,055166
0,209167	0,1	-0,043402
0,210833	0,1	-0,050863
0,212500	0,1	-0,063878
0,214167	0,1	-0,105955
0,215833	0,1	-0,068611
0,217500	0,1	-0,077571
0,219167	0,1	-0,056619
0,220833	0,1	-0,044551
0,222500	0,1	-0,078835
0,224167	0,1	-0,055165
0,225833	0,1	-0,041763
0,227500	0,1	-0,078928
0,229167	0,1	-0,048956
0,230833	0,1	-0,043736
0,232500	0,1	-0,035597
0,234167	0,1	-0,060887
0,235833	0,1	-0,082488
0,237500	0,1	-0,050703
0,239167	0,1	-0,081368
0,240833	0,1	-0,059303
0,242500	0,1	-0,068097
0,244167	0,1	-0,057076
0,245833	0,1	-0,079084
0,247500	0,1	-0,066460
0,249167	0,1	-0,070074
0,250833	0,1	-0,068266
0,252500	0,1	-0,078460
0,254167	0,1	-0,095397
0,255833	0,1	-0,089853
0,257500	0,1	-0,049787
0,259167	0,1	-0,080431
0,260833	0,1	-0,107475
0,262500	0,1	-0,041193
0,264167	0,1	-0,053268
0,265833	0,1	-0,042511
0,267500	0,1	-0,074911
0,269167	0,1	-0,014358
0,270833	0,1	-0,088686
0,272500	0,1	-0,070141
0,274167	0,1	-0,025653
0,275833	0,1	-0,033951
0,277500	0,1	-0,081823
0,279167	0,1	-0,096181
0,280833	0,1	-0,095725
0,282500	0,1	-0,070005
0,284167	0,1	-0,056863
0,285833	0,1	-0,068035
0,287500	0,1	-0,079025
0,289167	0,1	-0,022101
0,290833	0,1	-0,092840
0,292500	0,1	-0,048546
0,294167	0,1	-0,030358
0,295833	0,1	-0,049313
0,297500	0,1	-0,065212
0,299167	0,1	-0,024383
0,300833	0,1	-0,060425
0,302500	0,1	-0,086918
0,304167	0,1	-0,056942
0,305833	0,1	-0,079745
0,307500	0,1	-0,037139
0,309167	0,1	-0,067615
0,310833	0,1	-0,070580
0,312500	0,1	-0,050136
0,314167	0,1	-0,028409
0,315833	0,1	-0,054201
0,317500	0,1	-0,031277
0,319167	0,1	-0,053848
0,320833	0,1	-0,039339
0,322500	0,1	-0,070252
0,324167	0,1	-0,081294
0,325833	0,1	-0,000715
0,327500	0,1	-0,050807
0,329167	0,1	-0,058193
0,330833	0,1	-0,063388
0,332500	0,1	-0,071943
0,334167	0,1	-0,031969
0,335833	0,1	-0,011437
0,337500	0,1	-0,037995
0,339167	0,1	-0,067325
0,340833	0,1	-0,067622
0,342500	0,1	-0,044649
0,344167	0,1	-0,018796
0,345833	0,1	-0,072807
0,347500	0,1	-0,033521
0,349167	0,1	-0,070879
0,350833	0,1	-0,038178
0,352500	0,1	0,005444
0,354167	0,1	-0,031140
0,355833	0,1	-0,071063
0,357500	0,1	-0,047912
0,359167	0,1	-0,042572
0,360833	0,1	-0,024069
0,362500	0,1	-0,028113
0,364167	0,1	-0,042277
0,365833	0,1	-0,042447
0,367500	0,1	-0,049927
0,369167	0,1	-0,048323
0,370833	0,1	-0,048933
0,372500	0,1	-0,014475
0,374167	0,1	-0,072238
0,375833	0,1	-0,042993
0,377500	0,1	-0,008097
0,379167	0,1	-0,026803
0,380833	0,1	-0,057312
0,382500	0,1	0,005297
0,384167	0,1	-0,026941
0,385833	0,1	0,012201
0,387500	0,1	-0,019901
0,389167	0,1	-0,043624
0,390833	0,1	-0,058650
0,392500	0,1	-0,060523
0,394167	0,1	-0,040369
0,395833	0,1	-0,023124
0,397500	0,1	-0,024752
0,399167	0,1	-0,038978
0,400833	0,1	-0,033205
0,402500	0,1	-0,019252
0,404167	0,1	-0,030748
0,405833	0,1	-0,055182
0,407500	0,1	-0,038649
0,409167	0,1	-0,043842
0,410833	0,1	0,002204
0,412500	0,1	-0,026113
0,414167	0,1	-0,077359
0,415833	0,1	-0,036415
0,417500	0,1	-0,025602
0,419167	0,1	-0,008216
0,420833	0,1	-0,008150
0,422500	0,1	-0,026036
0,424167	0,1	-0,013182
0,425833	0,1	-0,039452
0,427500	0,1	-0,047581
0,429167	0,1	-0,046463
0,430833	0,1	-0,027413
0,432500	0,1	-0,048161
0,434167	0,1	-0,028331
0,435833	0,1	0,016022
0,437500	0,1	-0,019071
0,439167	0,1	-0,032326
0,440833	0,1	-0,035822
0,442500	0,1	-0,008262
0,444167	0,1	-0,041903
0,445833	0,1	-0,002179
0,447500	0,1	-0,052677
0,449167	0,1	-0,044214
0,450833	0,1	0,018054
0,452500	0,1	-0,020605
0,454167	0,1	-0,001803
0,455833	0,1	-0,006588
0,457500	0,1	-0,034008
0,459167	0,1	-0,041388
0,460833	0,1	-0,036530
0,462500	0,1	-0,012205
0,464167	0,1	-0,031769
0,465833	0,1	-0,041493
0,467500	0,1	-0,040516
0,469167	0,1	-0,055659
0,470833	0,1	-0,001581
0,472500	0,1	0,031667
0,474167	0,1	-0,036345
0,475833	0,1	-0,014869
0,477500	0,1	-0,029213
0,479167	0,1	-0,060303
0,480833	0,1	-0,046360
0,482500	0,1	0,006148
0,484167	0,1	-0,039614
0,485833	0,1	-0,063922
0,487500	0,1	-0,010554
0,489167	0,1	-0,011767
0,490833	0,1	-0,032845
0,492500	0,1	-0,022594
0,494167	0,1	-0,026683
0,495833	0,1	-0,039086
0,497500	0,1	-0,019500
0,499167	0,1	-0,030221
0,500833	0,1	0,009749
0,502500	0,1	-0,010933
0,504167	0,1	-0,041965
0,505833	0,1	-0,041698
0,507500	0,1	-0,049803
0,509167	0,1	0,000043
0,510833	0,1	0,038379
0,512500	0,1	0,010701
0,514167	0,1	-0,011223
0,515833	0,1	0,014280
0,517500	0,1	-0,009661
0,519167	0,1	0,018829
0,520833	0,1	0,040439
0,522500	0,1	0,022432
0,524167	0,1	0,007433
0,525833	0,1	-0,020961
0,527500	0,1	0,026449
0,529167	0,1	-0,000354
0,530833	0,1	0,002110
0,532500	0,1	0,005938
0,534167	0,1	-0,007026
0,535833	0,1	-0,006843
0,537500	0,1	0,029548
0,539167	0,1	-0,005521
0,540833	0,1	0,027555
0,542500	0,1	0,008660
0,544167	0,1	0,008428
0,545833	0,1	-0,014381
0,547500	0,1	-0,000098
0,549167	0,1	-0,009355
0,550833	0,1	-0,002981
0,552500	0,1	0,030899
0,554167	0,1	-0,002698
0,555833	0,1	-0,017436
0,557500	0,1	-0,000258
0,559167	0,1	-0,022356
0,560833	0,1	-0,003901
0,562500	0,1	0,006659
0,564167	0,1	0,013640
0,565833	0,1	0,025814
0,567500	0,1	-0,006897
0,569167	0,1	0,009191
0,570833	0,1	0,040689
0,572500	0,1	-0,026606
0,574167	0,1	0,064085
0,575833	0,1	-0,002179
0,577500	0,1	0,045981
0,579167	0,1	0,015334
0,580833	0,1	0,038383
0,582500	0,1	0,029787
0,584167	0,1	0,029409
0,585833	0,1	0,010488
0,587500	0,1	0,027868
0,589167	0,1	0,011255
0,590833	0,1	0,049160
0,592500	0,1	0,042334
0,594167	0,1	0,025677
0,595833	0,1	0,049913
0,597500	0,1	0,034421
0,599167	0,1	0,010056
0,600833	0,1	0,051277
0,602500	0,1	0,041232
0,604167	0,1	0,020526
0,605833	0,1	-0,001351
0,607500	0,1	0,048533
0,609167	0,1	0,017927
0,610833	0,1	0,037715
0,612500	0,1	0,028871
0,614167	0,1	0,004921
0,615833	0,1	0,031896
0,617500	0,1	0,038820
0,619167	0,1	0,021479
0,620833	0,1	0,055144
0,622500	0,1	0,032924
0,624167	0,1	0,019000
0,625833	0,1	0,072325
0,627500	0,1	0,039454
0,629167	0,1	0,063043
0,630833	0,1	0,041465
0,632500	0,1	0,045551
0,634167	0,1	0,052990
0,635833	0,1	0,035214
0,637500	0,1	0,036473
0,639167	0,1	0,044324
0,640833	0,1	0,019337
0,642500	0,1	0,058989
0,644167	0,1	0,073245
0,645833	0,1	0,052184
0,647500	0,1	0,038595
0,649167	0,1	0,054752
0,650833	0,1	0,074181
0,652500	0,1	0,064296
0,654167	0,1	0,057836
0,655833	0,1	0,028504
0,657500	0,1	0,030528
0,659167	0,1	0,096736
0,660833	0,1	0,060605
0,662500	0,1	0,063982
0,664167	0,1	0,067929
0,665833	0,1	0,063112
0,667500	0,1	0,052164
0,669167	0,1	0,068177
0,670833	0,1	0,080770
0,672500	0,1	0,051772
0,674167	0,1	0,080953
0,675833	0,1	0,077572
0,677500	0,1	0,030230
0,679167	0,1	0,033148
0,680833	0,1	0,073177
0,682500	0,1	0,079710
0,684167	0,1	0,032496
0,685833	0,1	0,106770
0,687500	0,1	0,041431
0,689167	0,1	0,103281
0,690833	0,1	0,075335
0,692500	0,1	0,076055
0,694167	0,1	0,082971
0,695833	0,1	0,076368
0,697500	0,1	0,095021
0,699167	0,1	0,095274
0,700833	0,1	0,082145
0,702500	0,1	0,078985
0,704167	0,1	0,089559
0,705833	0,1	0,089041
0,707500	0,1	0,109960
0,709167	0,1	0,108366
0,710833	0,1	0,093202
0,712500	0,1	0,122157
0,714167	0,1	0,121604
0,715833	0,1	0,092185
0,717500	0,1	0,096978
0,719167	0,1	0,133085
0,720833	0,1	0,114585
0,722500	0,1	0,097503
0,724167	0,1	0,126501
0,725833	0,1	0,111550
0,727500	0,1	0,094926
0,729167	0,1	0,122221
0,730833	0,1	0,085829
0,732500	0,1	0,151428
0,734167	0,1	0,128716
0,735833	0,1	0,136543
0,737500	0,1	0,141468
0,739167	0,1	0,152917
0,740833	0,1	0,138149
0,742500	0,1	0,137666
0,744167	0,1	0,113609
0,745833	0,1	0,169033
0,747500	0,1	0,154357
0,749167	0,1	0,119866
0,750833	0,1	0,150024
0,752500	0,1	0,113425
0,754167	0,1	0,186654
0,755833	0,1	0,173684
0,757500	0,1	0,182968
0,759167	0,1	0,156480
0,760833	0,1	0,204244
0,762500	0,1	0,197876
0,764167	0,1	0,195856
0,765833	0,1	0,218111
0,767500	0,1	0,175129
0,769167	0,1	0,206219
0,770833	0,1	0,195631
0,772500	0,1	0,187362
0,774167	0,1	0,159350
0,775833	0,1	0,192838
0,777500	0,1	0,246392
0,779167	0,1	0,220203
0,780833	0,1	0,207748
0,782500	0,1	0,225451
0,784167	0,1	0,184623
0,785833	0,1	0,198829
0,787500	0,1	0,155820
0,789167	0,1	0,204014
0,790833	0,1	0,206791
0,792500	0,1	0,217822
0,794167	0,1	0,176417
0,795833	0,1	0,211979
0,797500	0,1	0,187342
0,799167	0,1	0,241008
0,800833	0,1	0,229032
0,802500	0,1	0,167191
0,804167	0,1	0,209752
0,805833	0,1	0,204483
0,807500	0,1	0,191372
0,809167	0,1	0,193591
0,810833	0,1	0,226406
0,812500	0,1	0,150569
0,814167	0,1	0,186394
0,815833	0,1	0,177510
0,817500	0,1	0,205725
0,819167	0,1	0,221105
0,820833	0,1	0,240145
0,822500	0,1	0,177836
0,824167	0,1	0,197247
0,825833	0,1	0,225260
0,827500	0,1	0,209372
0,829167	0,1	0,225389
0,830833	0,1	0,220277
0,832500	0,1	0,209082
0,834167	0,1	0,209803
0,835833	0,1	0,222482
0,837500	0,1	0,205485
0,839167	0,1	0,201387
0,840833	0,1	0,200554
0,842500	0,1	0,192099
0,844167	0,1	0,192491
0,845833	0,1	0,198476
0,847500	0,1	0,200183
0,849167	0,1	0,200953
0,850833	0,1	0,196525
0,852500	0,1	0,193968
0,854167	0,1	0,196317
0,855833	0,1	0,208700
0,857500	0,1	0,237132
0,859167	0,1	0,235410
0,860833	0,1	0,230988
0,862500	0,1	0,252388
0,864167	0,1	0,213449
0,865833	0,1	0,259759
0,867500	0,1	0,212037
0,869167	0,1	0,248769
0,870833	0,1	0,203643
0,872500	0,1	0,230956
0,874167	0,1	0,203743
0,875833	0,1	0,234758
0,877500	0,1	0,205510
0,879167	0,1	0,224932
0,880833	0,1	0,185682
0,882500	0,1	0,244668
0,884167	0,1	0,212120
0,885833	0,1	0,233559
0,887500	0,1	0,223044
0,889167	0,1	0,225870
0,890833	0,1	0,279445
0,892500	0,1	0,249201
0,894167	0,1	0,236450
0,895833	0,1	0,222174
0,897500	0,1	0,239753
0,899167	0,1	0,249106
0,900833	0,1	0,261285
0,902500	0,1	0,261477
0,904167	0,1	0,266302
0,905833	0,1	0,273264
0,907500	0,1	0,229291
0,909167	0,1	0,269845
0,910833	0,1	0,303520
0,912500	0,1	0,278567
0,914167	0,1	0,280354
0,915833	0,1	0,262793
0,917500	0,1	0,295584
0,919167	0,1	0,280255
0,920833	0,1	0,269464
0,922500	0,1	0,286668
0,924167	0,1	0,279356
0,925833	0,1	0,312442
0,927500	0,1	0,243866
0,929167	0,1	0,268660
0,930833	0,1	0,301613
0,932500	0,1	0,307507
0,934167	0,1	0,304907
0,935833	0,1	0,274396
0,937500	0,1	0,295006
0,939167	0,1	0,336287
0,940833	0,1	0,267875
0,942500	0,1	0,301902
0,944167	0,1	0,288672
0,945833	0,1	0,334036
0,947500	0,1	0,304103
0,949167	0,1	0,316769
0,950833	0,1	0,286969
0,952500	0,1	0,375602
0,954167	0,1	0,323356
0,955833	0,1	0,325984
0,957500	0,1	0,320538
0,959167	0,1	0,328723
0,960833	0,1	0,327211
0,962500	0,1	0,358911
0,964167	0,1	0,371071
0,965833	0,1	0,362650
0,967500	0,1	0,330365
0,969167	0,1	0,372152
0,970833	0,1	0,336013
0,972500	0,1	0,372572
0,974167	0,1	0,389889
0,975833	0,1	0,352253
0,977500	0,1	0,373548
0,979167	0,1	0,368778
0,980833	0,1	0,385151
0,982500	0,1	0,375616
0,984167	0,1	0,363042
0,985833	0,1	0,392909
0,987500	0,1	0,428335
0,989167	0,1	0,423315
0,990833	0,1	0,399405
0,992500	0,1	0,396622
0,994167	0,1	0,417088
0,995833	0,1	0,434685
0,997500	0,1	0,416190
0,999167	0,1	0,405493
1,000833	0,1	0,451759
1,002500	0,1	0,423384
1,004167	0,1	0,460659
1,005833	0,1	0,471109
1,007500	0,1	0,482941
1,009167	0,1	0,512084
1,010833	0,1	0,523694
1,012500	0,1	0,487372
1,014167	0,1	0,547668
1,015833	0,1	0,580593
1,017500	0,1	0,545272
1,019167	0,1	0,536880
1,020833	0,1	0,595194
1,022500	0,1	0,563905
1,024167	0,1	0,576246
1,025833	0,1	0,629794
1,027500	0,1	0,594314
1,029167	0,1	0,631702
1,030833	0,1	0,627262
1,032500	0,1	0,672685
1,034167	0,1	0,633912
1,035833	0,1	0,666564
1,037500	0,1	0,695170
1,039167	0,1	0,674895
1,040833	0,1	0,718392
1,042500	0,1	0,727786
1,044167	0,1	0,697736
1,045833	0,1	0,759574
1,047500	0,1	0,730987
1,049167	0,1	0,756806
1,050833	0,1	0,799448
1,052500	0,1	0,785079
1,054167	0,1	0,831455
1,055833	0,1	0,888555
1,057500	0,1	0,932377
1,059167	0,1	1,020704
1,060833	0,1	1,110217
1,062500	0,1	1,227293
1,064167	0,1	1,409360
1,065833	0,1	1,591248
1,067500	0,1	1,910807
1,069167	0,1	2,229823
1,070833	0,1	2,683216
1,072500	0,1	3,140301
1,074167	0,1	3,780529
1,075833	0,1	4,471140
1,077500	0,1	5,290651
1,079167	0,1	6,278581
1,080833	0,1	7,320647
1,082500	0,1	8,515506
1,084167	0,1	9,810609
1,085833	0,1	11,253796
1,087500	0,1	12,781568
1,089167	0,1	14,329956
1,090833	0,1	15,996995
1,092500	0,1	17,661785
1,094167	0,1	19,439227
1,095833	0,1	21,125723
1,097500	0,1	22,753645
1,099167	0,1	24,379585
1,100833	0,1	25,866326
1,102500	0,1	27,261681
1,104167	0,1	28,541593
1,105833	0,1	29,686271
1,107500	0,1	30,696565
1,109167	0,1	31,502271
1,110833	0,1	32,176180
1,112500	0,1	32,666566
1,114167	0,1	33,039662
1,115833	0,1	33,274135
1,117500	0,1	33,363203
1,119167	0,1	33,285648
1,120833	0,1	33,115252
1,122500	0,1	32,889945
1,124167	0,1	32,515342
1,125833	0,1	32,041656
1,127500	0,1	31,568675
1,129167	0,1	31,055636
1,130833	0,1	30,443443
1,132500	0,1	29,837735
1,134167	0,1	29,219857
1,135833	0,1	28,586812
1,137500	0,1	27,986336
1,139167	0,1	27,394337
1,140833	0,1	26,829414
1,142500	0,1	26,321520
1,144167	0,1	25,788460
1,145833	0,1	25,369083
1,147500	0,1	24,994701
1,149167	0,1	24,603096
1,150833	0,1	24,376730
1,152500	0,1	24,171208
1,154167	0,1	23,959523
1,155833	0,1	23,885570
1,157500	0,1	23,797292
1,159167	0,1	23,780613
1,160833	0,1	23,871668
1,162500	0,1	23,940560
1,164167	0,1	23,994074
1,165833	0,1	24,146791
1,167500	0,1	24,256947
1,169167	0,1	24,379820
1,170833	0,1	24,552753
1,172500	0,1	24,678948
1,174167	0,1	24,875940
1,175833	0,1	25,034063
1,177500	0,1	25,135033
1,179167	0,1	25,240158
1,180833	0,1	25,343106
1,182500	0,1	25,532559
1,184167	0,1	25,622992
1,185833	0,1	25,742230
1,187500	0,1	25,878590
1,189167	0,1	26,047531
1,190833	0,1	26,218937
1,192500	0,1	26,450000
1,194167	0,1	26,776649
1,195833	0,1	27,135956
1,197500	0,1	27,653362
1,199167	0,1	28,265830
1,200833	0,1	29,079218
1,202500	0,1	30,024495
1,204167	0,1	31,131358
1,205833	0,1	32,574483
1,207500	0,1	34,116428
1,209167	0,1	36,007905
1,210833	0,1	38,070071
1,212500	0,1	40,424240
1,214167	0,1	43,063640
1,215833	0,1	45,948945
1,217500	0,1	49,080600
1,219167	0,1	52,426465
1,220833	0,1	55,900093
1,222500	0,1	59,628983
1,224167	0,1	63,455603
1,225833	0,1	67,382018
1,227500	0,1	71,349628
1,229167	0,1	75,357208
1,230833	0,1	79,229625
1,232500	0,1	83,172493
1,234167	0,1	86,986124
1,235833	0,1	90,669037
1,237500	0,1	94,184741
1,239167	0,1	97,528161
1,240833	0,1	100,606984
1,242500	0,1	103,447952
1,244167	0,1	106,057514
1,245833	0,1	108,377782
1,247500	0,1	110,441983
1,249167	0,1	112,267674
1,250833	0,1	113,778575
1,252500	0,1	114,953392
1,254167	0,1	115,897233
1,255833	0,1	116,574368
1,257500	0,1	116,854474
1,259167	0,1	116,984903
1,260833	0,1	116,846982
1,262500	0,1	116,432024
1,264167	0,1	115,720500
1,265833	0,1	114,868678
1,267500	0,1	113,737463
1,269167	0,1	112,451612
1,270833	0,1	110,938947
1,272500	0,1	109,250010
1,274167	0,1	107,337826
1,275833	0,1	105,430228
1,277500	0,1	103,301713
1,279167	0,1	101,096630
1,280833	0,1	98,786996
1,282500	0,1	96,459876
1,284167	0,1	93,989977
1,285833	0,1	91,531973
1,287500	0,1	89,035466
1,289167	0,1	86,517685
1,290833	0,1	84,066430
1,292500	0,1	81,566882
1,294167	0,1	79,147629
1,295833	0,1	76,709514
1,297500	0,1	74,361725
1,299167	0,1	72,061370
1,300833	0,1	69,818376
1,302500	0,1	67,646755
1,304167	0,1	65,552027
1,305833	0,1	63,495878
1,307500	0,1	61,566958
1,309167	0,1	59,651325
1,310833	0,1	57,893942
1,312500	0,1	56,171970
1,314167	0,1	54,466516
1,315833	0,1	52,921203
1,317500	0,1	51,464728
1,319167	0,1	49,968916
1,320833	0,1	48,625739
1,322500	0,1	47,355803
1,324167	0,1	46,106556
1,325833	0,1	44,923503
1,327500	0,1	43,767236
1,329167	0,1	42,683755
1,330833	0,1	41,638370
1,332500	0,1	40,642464
1,334167	0,1	39,665832
1,335833	0,1	38,787502
1,337500	0,1	37,862991
1,339167	0,1	37,003036
1,340833	0,1	36,189120
1,342500	0,1	35,398880
1,344167	0,1	34,619767
1,345833	0,1	33,853970
1,347500	0,1	33,164956
1,349167	0,1	32,392273
1,350833	0,1	31,775669
1,352500	0,1	31,124962
1,354167	0,1	30,424782
1,355833	0,1	29,777431
1,357500	0,1	29,183350
1,359167	0,1	28,568377
1,360833	0,1	27,966766
1,362500	0,1	27,378684
1,364167	0,1	26,793123
1,365833	0,1	26,239065
1,367500	0,1	25,691253
1,369167	0,1	25,172058
1,370833	0,1	24,616561
1,372500	0,1	24,127209
1,374167	0,1	23,617417
1,375833	0,1	23,105420
1,377500	0,1	22,661508
1,379167	0,1	22,195812
1,380833	0,1	21,738229
1,382500	0,1	21,289252
1,384167	0,1	20,867513
1,385833	0,1	20,411656
1,387500	0,1	20,002892
1,389167	0,1	19,626230
1,390833	0,1	19,224885
1,392500	0,1	18,837394
1,394167	0,1	18,560275
1,395833	0,1	18,170323
1,397500	0,1	17,838442
1,399167	0,1	17,498427
1,400833	0,1	17,183369
1,402500	0,1	16,885846
1,404167	0,1	16,574349
1,405833	0,1	16,328190
1,407500	0,1	16,024068
1,409167	0,1	15,766864
1,410833	0,1	15,492081
1,412500	0,1	15,296292
1,414167	0,1	15,012896
1,415833	0,1	14,767079
1,417500	0,1	14,584694
1,419167	0,1	14,361652
1,420833	0,1	14,133624
1,422500	0,1	13,948591
1,424167	0,1	13,747094
1,425833	0,1	13,553475
1,427500	0,1	13,356040
1,429167	0,1	13,196185
1,430833	0,1	13,011372
1,432500	0,1	12,798178
1,434167	0,1	12,639792
1,435833	0,1	12,469539
1,437500	0,1	12,291303
1,439167	0,1	12,188727
1,440833	0,1	12,011032
1,442500	0,1	11,826913
1,444167	0,1	11,677868
1,445833	0,1	11,515065
1,447500	0,1	11,350072
1,449167	0,1	11,222114
1,450833	0,1	11,109577
1,452500	0,1	10,933540
1,454167	0,1	10,782052
1,455833	0,1	10,635125
1,457500	0,1	10,553830
1,459167	0,1	10,403317
1,460833	0,1	10,254052
1,462500	0,1	10,123616
1,464167	0,1	10,014918
1,465833	0,1	9,882586
1,467500	0,1	9,744007
1,469167	0,1	9,676618
1,470833	0,1	9,537501
1,472500	0,1	9,451813
1,474167	0,1	9,328172
1,475833	0,1	9,240658
1,477500	0,1	9,095368
1,479167	0,1	9,003570
1,480833	0,1	8,931891
1,482500	0,1	8,853899
1,484167	0,1	8,782742
1,485833	0,1	8,678976
1,487500	0,1	8,656931
1,489167	0,1	8,592077
1,490833	0,1	8,504149
1,492500	0,1	8,452760
1,494167	0,1	8,421694
1,495833	0,1	8,338341
1,497500	0,1	8,271524
1,499167	0,1	8,239227
1,500833	0,1	8,216758
1,502500	0,1	8,142155
1,504167	0,1	8,101090
1,505833	0,1	8,068478
1,507500	0,1	8,028278
1,509167	0,1	7,997835
1,510833	0,1	7,936464
1,512500	0,1	7,949830
1,514167	0,1	7,911254
1,515833	0,1	7,903366
1,517500	0,1	7,818530
1,519167	0,1	7,817155
1,520833	0,1	7,814651
1,522500	0,1	7,776814
1,524167	0,1	7,745601
1,525833	0,1	7,722172
1,527500	0,1	7,685293
1,529167	0,1	7,648045
1,530833	0,1	7,607601
1,532500	0,1	7,595025
1,534167	0,1	7,543374
1,535833	0,1	7,523058
1,537500	0,1	7,469714
1,539167	0,1	7,448829
1,540833	0,1	7,438065
1,542500	0,1	7,394925
1,544167	0,1	7,381067
1,545833	0,1	7,351126
1,547500	0,1	7,306316
1,549167	0,1	7,329878
1,550833	0,1	7,281335
1,552500	0,1	7,254570
1,554167	0,1	7,201259
1,555833	0,1	7,167582
1,557500	0,1	7,155323
1,559167	0,1	7,147651
1,560833	0,1	7,083978
1,562500	0,1	7,078074
1,564167	0,1	7,005621
1,565833	0,1	7,022432
1,567500	0,1	6,971394
1,569167	0,1	6,968114
1,570833	0,1	6,938300
1,572500	0,1	6,893896
1,574167	0,1	6,861183
1,575833	0,1	6,865287
1,577500	0,1	6,802867
1,579167	0,1	6,797616
1,580833	0,1	6,786592
1,582500	0,1	6,742126
1,584167	0,1	6,685494
1,585833	0,1	6,714270
1,587500	0,1	6,626730
1,589167	0,1	6,647369
1,590833	0,1	6,594046
1,592500	0,1	6,572097
1,594167	0,1	6,499433
1,595833	0,1	6,487815
1,597500	0,1	6,551064
1,599167	0,1	6,420353
1,600833	0,1	6,438720
1,602500	0,1	6,462450
1,604167	0,1	6,383549
1,605833	0,1	6,381399
1,607500	0,1	6,367678
1,609167	0,1	6,338106
1,610833	0,1	6,270621
1,612500	0,1	6,278432
1,614167	0,1	6,217021
1,615833	0,1	6,206544
1,617500	0,1	6,176806
1,619167	0,1	6,193230
1,620833	0,1	6,171951
1,622500	0,1	6,160191
1,624167	0,1	6,103287
1,625833	0,1	6,044511
1,627500	0,1	6,071516
1,629167	0,1	6,050259
1,630833	0,1	6,003505
1,632500	0,1	5,977107
1,634167	0,1	5,935235
1,635833	0,1	5,908747
1,637500	0,1	5,943562
1,639167	0,1	5,902258
1,640833	0,1	5,887042
1,642500	0,1	5,872504
1,644167	0,1	5,876629
1,645833	0,1	5,853451
1,647500	0,1	5,830625
1,649167	0,1	5,796688
1,650833	0,1	5,772079
1,652500	0,1	5,763026
1,654167	0,1	5,746082
1,655833	0,1	5,755150
1,657500	0,1	5,708765
1,659167	0,1	5,727929
1,660833	0,1	5,684533
1,662500	0,1	5,732187
1,664167	0,1	5,661767
1,665833	0,1	5,683407
1,667500	0,1	5,700832
1,669167	0,1	5,693854
1,670833	0,1	5,691372
1,672500	0,1	5,639646
1,674167	0,1	5,689622
1,675833	0,1	5,694678
1,677500	0,1	5,680980
1,679167	0,1	5,681955
1,680833	0,1	5,705614
1,682500	0,1	5,752046
1,684167	0,1	5,799511
1,685833	0,1	5,827630
1,687500	0,1	5,799315
1,689167	0,1	5,885535
1,690833	0,1	5,914257
1,692500	0,1	5,904950
1,694167	0,1	5,949048
1,695833	0,1	5,957882
1,697500	0,1	6,015169
1,699167	0,1	6,083367
1,700833	0,1	6,083472
1,702500	0,1	6,188353
1,704167	0,1	6,229166
1,705833	0,1	6,279280
1,707500	0,1	6,271249
1,709167	0,1	6,345618
1,710833	0,1	6,399031
1,712500	0,1	6,403630
1,714167	0,1	6,482599
1,715833	0,1	6,566841
1,717500	0,1	6,551928
1,719167	0,1	6,601959
1,720833	0,1	6,651757
1,722500	0,1	6,705479
1,724167	0,1	6,717548
1,725833	0,1	6,740249
1,727500	0,1	6,763044
1,729167	0,1	6,804997
1,730833	0,1	6,827711
1,732500	0,1	6,887529
1,734167	0,1	6,882671
1,735833	0,1	6,931172
1,737500	0,1	6,917729
1,739167	0,1	6,926044
1,740833	0,1	6,927169
1,742500	0,1	6,964364
1,744167	0,1	6,963815
1,745833	0,1	6,959045
1,747500	0,1	6,951662
1,749167	0,1	6,951756
1,750833	0,1	6,927453
1,752500	0,1	6,904179
1,754167	0,1	6,868004
1,755833	0,1	6,859864
1,757500	0,1	6,832020
1,759167	0,1	6,846131
1,760833	0,1	6,790159
1,762500	0,1	6,706074
1,764167	0,1	6,716317
1,765833	0,1	6,677937
1,767500	0,1	6,600691
1,769167	0,1	6,576765
1,770833	0,1	6,540438
1,772500	0,1	6,530625
1,774167	0,1	6,428099
1,775833	0,1	6,421921
1,777500	0,1	6,345081
1,779167	0,1	6,320899
1,780833	0,1	6,234745
1,782500	0,1	6,160280
1,784167	0,1	6,154591
1,785833	0,1	6,093670
1,787500	0,1	6,038971
1,789167	0,1	5,994685
1,790833	0,1	5,873906
1,792500	0,1	5,835918
1,794167	0,1	5,765778
1,795833	0,1	5,731143
1,797500	0,1	5,639699
1,799167	0,1	5,616108
1,800833	0,1	5,573581
1,802500	0,1	5,474406
1,804167	0,1	5,418706
1,805833	0,1	5,388619
1,807500	0,1	5,272281
1,809167	0,1	5,242642
1,810833	0,1	5,178691
1,812500	0,1	5,081572
1,814167	0,1	5,064327
1,815833	0,1	5,032382
1,817500	0,1	4,902194
1,819167	0,1	4,868084
1,820833	0,1	4,835238
1,822500	0,1	4,796367
1,824167	0,1	4,752245
1,825833	0,1	4,694068
1,827500	0,1	4,616124
1,829167	0,1	4,563033
1,830833	0,1	4,570582
1,832500	0,1	4,523334
1,834167	0,1	4,493396
1,835833	0,1	4,457204
1,837500	0,1	4,403245
1,839167	0,1	4,399736
1,840833	0,1	4,409940
1,842500	0,1	4,362301
1,844167	0,1	4,348470
1,845833	0,1	4,409359
1,847500	0,1	4,385389
1,849167	0,1	4,421318
1,850833	0,1	4,462796
1,852500	0,1	4,502199
1,854167	0,1	4,519697
1,855833	0,1	4,497867
1,857500	0,1	4,584027
1,859167	0,1	4,650956
1,860833	0,1	4,665820
1,862500	0,1	4,734037
1,864167	0,1	4,745285
1,865833	0,1	4,814277
1,867500	0,1	4,862770
1,869167	0,1	4,856072
1,870833	0,1	4,940386
1,872500	0,1	4,997685
1,874167	0,1	5,040542
1,875833	0,1	5,078764
1,877500	0,1	5,129614
1,879167	0,1	5,151128
1,880833	0,1	5,194620
1,882500	0,1	5,208115
1,884167	0,1	5,266344
1,885833	0,1	5,285483
1,887500	0,1	5,346902
1,889167	0,1	5,386002
1,890833	0,1	5,392016
1,892500	0,1	5,412547
1,894167	0,1	5,484148
1,895833	0,1	5,505377
1,897500	0,1	5,562249
1,899167	0,1	5,566349
1,900833	0,1	5,610394
1,902500	0,1	5,624711
1,904167	0,1	5,648086
1,905833	0,1	5,653594
1,907500	0,1	5,678751
1,909167	0,1	5,685739
1,910833	0,1	5,727842
1,912500	0,1	5,752226
1,914167	0,1	5,752651
1,915833	0,1	5,771805
1,917500	0,1	5,783817
1,919167	0,1	5,748091
1,920833	0,1	5,705782
1,922500	0,1	5,760575
1,924167	0,1	5,725532
1,925833	0,1	5,710324
1,927500	0,1	5,739329
1,929167	0,1	5,727134
1,930833	0,1	5,697364
1,932500	0,1	5,681633
1,934167	0,1	5,630489
1,935833	0,1	5,651002
1,937500	0,1	5,616285
1,939167	0,1	5,579381
1,940833	0,1	5,607007
1,942500	0,1	5,570030
1,944167	0,1	5,554958
1,945833	0,1	5,480529
1,947500	0,1	5,557047
1,949167	0,1	5,451189
1,950833	0,1	5,431406
1,952500	0,1	5,426297
1,954167	0,1	5,394375
1,955833	0,1	5,387419
1,957500	0,1	5,302746
1,959167	0,1	5,302576
1,960833	0,1	5,268974
1,962500	0,1	5,228957
1,964167	0,1	5,193362
1,965833	0,1	5,207689
1,967500	0,1	5,150522
1,969167	0,1	5,160991
1,970833	0,1	5,105841
1,972500	0,1	5,104753
1,974167	0,1	5,051083
1,975833	0,1	5,057468
1,977500	0,1	5,030280
1,979167	0,1	4,997004
1,980833	0,1	4,964704
1,982500	0,1	4,945673
1,984167	0,1	4,933778
1,985833	0,1	4,923375
1,987500	0,1	4,879308
1,989167	0,1	4,864973
1,990833	0,1	4,829510
1,992500	0,1	4,813343
1,994167	0,1	4,832018
1,995833	0,1	4,824194
1,997500	0,1	4,750999
1,999167	0,1	4,754804
2,000833	0,1	4,773951
2,002500	0,1	4,740572
2,004167	0,1	4,764233
2,005833	0,1	4,752486
2,007500	0,1	4,716897
2,009167	0,1	4,693740
2,010833	0,1	4,685156
2,012500	0,1	4,690963
2,014167	0,1	4,664153
2,015833	0,1	4,718332
2,017500	0,1	4,707600
2,019167	0,1	4,720046
2,020833	0,1	4,689350
2,022500	0,1	4,650496
2,024167	0,1	4,694695
2,025833	0,1	4,687463
2,027500	0,1	4,673997
2,029167	0,1	4,671838
2,030833	0,1	4,724109
2,032500	0,1	4,707647
2,034167	0,1	4,723466
2,035833	0,1	4,706428
2,037500	0,1	4,715276
2,039167	0,1	4,744144
2,040833	0,1	4,755251
2,042500	0,1	4,736662
2,044167	0,1	4,758623
2,045833	0,1	4,780110
2,047500	0,1	4,809508
2,049167	0,1	4,769352
2,050833	0,1	4,820808
2,052500	0,1	4,813909
2,054167	0,1	4,832753
2,055833	0,1	4,823495
2,057500	0,1	4,850068
2,059167	0,1	4,881261
2,060833	0,1	4,864858
2,062500	0,1	4,880230
2,064167	0,1	4,907563
2,065833	0,1	4,936458
2,067500	0,1	4,957284
2,069167	0,1	4,950115
2,070833	0,1	4,949862
2,072500	0,1	4,976594
2,074167	0,1	4,972977
2,075833	0,1	5,024345
2,077500	0,1	4,990910
2,079167	0,1	4,988297
2,080833	0,1	5,034035
2,082500	0,1	5,006943
2,084167	0,1	5,007357
2,085833	0,1	5,078647
2,087500	0,1	5,060618
2,089167	0,1	5,035294
2,090833	0,1	5,046245
2,092500	0,1	5,093464
2,094167	0,1	5,103676
2,095833	0,1	5,093901
2,097500	0,1	5,071495
2,099167	0,1	5,101886
2,100833	0,1	5,153670
2,102500	0,1	5,101223
2,104167	0,1	5,107384
2,105833	0,1	5,127382
2,107500	0,1	5,124981
2,109167	0,1	5,158718
2,110833	0,1	5,128278
2,112500	0,1	5,117873
2,114167	0,1	5,144837
2,115833	0,1	5,125410
2,117500	0,1	5,158522
2,119167	0,1	5,142325
2,120833	0,1	5,093403
2,122500	0,1	5,130641
2,124167	0,1	5,151837
2,125833	0,1	5,106832
2,127500	0,1	5,110702
2,129167	0,1	5,111746
2,130833	0,1	5,108066
2,132500	0,1	5,112600
2,134167	0,1	5,064189
2,135833	0,1	5,123241
2,137500	0,1	5,106004
2,139167	0,1	5,089770
2,140833	0,1	5,028220
2,142500	0,1	5,087772
2,144167	0,1	5,054106
2,145833	0,1	5,060696
2,147500	0,1	5,064720
2,149167	0,1	5,018704
2,150833	0,1	5,001213
2,152500	0,1	5,022304
2,154167	0,1	4,993797
2,155833	0,1	4,993003
2,157500	0,1	4,989852
2,159167	0,1	4,989515
2,160833	0,1	4,980511
2,162500	0,1	4,943007
2,164167	0,1	4,930491
2,165833	0,1	4,937967
2,167500	0,1	4,961561
2,169167	0,1	4,900875
2,170833	0,1	4,907822
2,172500	0,1	4,910379
2,174167	0,1	4,884030
2,175833	0,1	4,880935
2,177500	0,1	4,867845
2,179167	0,1	4,893170
2,180833	0,1	4,833775
2,182500	0,1	4,857217
2,184167	0,1	4,845435
2,185833	0,1	4,852979
2,187500	0,1	4,839825
2,189167	0,1	4,807769
2,190833	0,1	4,850599
2,192500	0,1	4,734542
2,194167	0,1	4,788650
2,195833	0,1	4,782131
2,197500	0,1	4,766764
2,199167	0,1	4,721420
2,200833	0,1	4,777046
2,202500	0,1	4,741257
2,204167	0,1	4,767203
2,205833	0,1	4,722557
2,207500	0,1	4,750772
2,209167	0,1	4,726648
2,210833	0,1	4,729992
2,212500	0,1	4,730478
2,214167	0,1	4,691580
2,215833	0,1	4,721319
2,217500	0,1	4,705611
2,219167	0,1	4,722210
2,220833	0,1	4,722214
2,222500	0,1	4,739693
2,224167	0,1	4,718445
2,225833	0,1	4,683943
2,227500	0,1	4,717886
2,229167	0,1	4,707645
2,230833	0,1	4,707406
2,232500	0,1	4,725999
2,234167	0,1	4,701187
2,235833	0,1	4,752720
2,237500	0,1	4,738412
2,239167	0,1	4,750410
2,240833	0,1	4,741997
2,242500	0,1	4,759641
2,244167	0,1	4,725561
2,245833	0,1	4,765675
2,247500	0,1	4,740036
2,249167	0,1	4,798713
2,250833	0,1	4,781538
2,252500	0,1	4,769700
2,254167	0,1	4,777993
2,255833	0,1	4,733744
2,257500	0,1	4,796227
2,259167	0,1	4,734363
2,260833	0,1	4,758387
2,262500	0,1	4,736331
2,264167	0,1	4,780354
2,265833	0,1	4,769816
2,267500	0,1	4,743908
2,269167	0,1	4,739060
2,270833	0,1	4,720078
2,272500	0,1	4,714734
2,274167	0,1	4,747635
2,275833	0,1	4,777772
2,277500	0,1	4,723683
2,279167	0,1	4,720996
2,280833	0,1	4,703658
2,282500	0,1	4,695395
2,284167	0,1	4,664970
2,285833	0,1	4,694604
2,287500	0,1	4,661230
2,289167	0,1	4,644952
2,290833	0,1	4,599396
2,292500	0,1	4,641198
2,294167	0,1	4,612327
2,295833	0,1	4,594833
2,297500	0,1	4,589660
2,299167	0,1	4,570138
2,300833	0,1	4,567942
2,302500	0,1	4,560008
2,304167	0,1	4,534270
2,305833	0,1	4,507343
2,307500	0,1	4,498474
2,309167	0,1	4,439639
2,310833	0,1	4,456418
2,312500	0,1	4,439793
2,314167	0,1	4,397429
2,315833	0,1	4,395913
2,317500	0,1	4,348680
2,319167	0,1	4,373870
2,320833	0,1	4,357415
2,322500	0,1	4,294857
2,324167	0,1	4,325163
2,325833	0,1	4,337732
2,327500	0,1	4,274331
2,329167	0,1	4,241927
2,330833	0,1	4,237573
2,332500	0,1	4,255616
2,334167	0,1	4,205434
2,335833	0,1	4,180315
2,337500	0,1	4,191528
2,339167	0,1	4,170642
2,340833	0,1	4,146462
2,342500	0,1	4,133579
2,344167	0,1	4,122357
2,345833	0,1	4,060245
2,347500	0,1	4,065349
2,349167	0,1	4,069990
2,350833	0,1	4,036107
2,352500	0,1	4,074943
2,354167	0,1	4,004437
2,355833	0,1	4,008922
2,357500	0,1	4,031463
2,359167	0,1	3,994919
2,360833	0,1	3,982007
2,362500	0,1	3,949423
2,364167	0,1	3,956276
2,365833	0,1	3,993270
2,367500	0,1	3,963468
2,369167	0,1	3,937755
2,370833	0,1	3,999286
2,372500	0,1	3,939301
2,374167	0,1	3,967938
2,375833	0,1	3,985613
2,377500	0,1	3,923991
2,379167	0,1	3,991928
2,380833	0,1	4,010365
2,382500	0,1	4,023299
2,384167	0,1	4,014491
2,385833	0,1	4,076477
2,387500	0,1	4,056208
2,389167	0,1	4,090410
2,390833	0,1	4,111743
2,392500	0,1	4,150589
2,394167	0,1	4,217558
2,395833	0,1	4,287717
2,397500	0,1	4,360077
2,399167	0,1	4,448019
2,400833	0,1	4,490081
2,402500	0,1	4,616066
2,404167	0,1	4,696842
2,405833	0,1	4,802511
2,407500	0,1	4,922822
2,409167	0,1	5,056195
2,410833	0,1	5,117289
2,412500	0,1	5,248330
2,414167	0,1	5,452910
2,415833	0,1	5,589125
2,417500	0,1	5,716815
2,419167	0,1	5,921907
2,420833	0,1	6,088226
2,422500	0,1	6,276519
2,424167	0,1	6,465860
2,425833	0,1	6,719922
2,427500	0,1	6,918615
2,429167	0,1	7,128615
2,430833	0,1	7,361922
2,432500	0,1	7,549788
2,434167	0,1	7,891282
2,435833	0,1	8,075951
2,437500	0,1	8,305883
2,439167	0,1	8,611092
2,440833	0,1	8,849725
2,442500	0,1	9,093911
2,444167	0,1	9,362745
2,445833	0,1	9,635148
2,447500	0,1	9,858425
2,449167	0,1	10,096331
2,450833	0,1	10,369299
2,452500	0,1	10,575861
2,454167	0,1	10,867447
2,455833	0,1	11,091749
2,457500	0,1	11,337479
2,459167	0,1	11,619894
2,460833	0,1	11,822101
2,462500	0,1	12,095024
2,464167	0,1	12,278044
2,465833	0,1	12,562237
2,467500	0,1	12,768144
2,469167	0,1	13,046160
2,470833	0,1	13,228604
2,472500	0,1	13,469341
2,474167	0,1	13,738509
2,475833	0,1	13,952879
2,477500	0,1	14,273284
2,479167	0,1	14,526792
2,480833	0,1	14,762042
2,482500	0,1	15,043687
2,484167	0,1	15,405984
2,485833	0,1	15,728264
2,487500	0,1	16,040082
2,489167	0,1	16,409629
2,490833	0,1	16,807901
2,492500	0,1	17,244540
2,494167	0,1	17,702180
2,495833	0,1	18,177646
2,497500	0,1	18,660368
2,499167	0,1	19,211309
2,500833	0,1	19,812261
2,502500	0,1	20,440469
2,504167	0,1	21,136665
2,505833	0,1	21,815599
2,507500	0,1	22,618666
2,509167	0,1	23,435916
2,510833	0,1	24,278136
2,512500	0,1	25,202750
2,514167	0,1	26,113047
2,515833	0,1	27,128816
2,517500	0,1	28,254224
2,519167	0,1	29,412346
2,520833	0,1	30,608710
2,522500	0,1	31,815937
2,524167	0,1	33,105007
2,525833	0,1	34,465445
2,527500	0,1	35,859724
2,529167	0,1	37,299221
2,530833	0,1	38,769807
2,532500	0,1	40,318317
2,534167	0,1	41,877044
2,535833	0,1	43,508544
2,537500	0,1	45,163845
2,539167	0,1	46,832515
2,540833	0,1	48,510574
2,542500	0,1	50,253334
2,544167	0,1	51,971985
2,545833	0,1	53,760493
2,547500	0,1	55,514371
2,549167	0,1	57,315774
2,550833	0,1	59,072667
2,552500	0,1	60,847474
2,554167	0,1	62,647329
2,555833	0,1	64,326457
2,557500	0,1	66,109969
2,559167	0,1	67,793031
2,560833	0,1	69,453430
2,562500	0,1	71,113296
2,564167	0,1	72,719593
2,565833	0,1	74,311021
2,567500	0,1	75,827293
2,569167	0,1	77,299954
2,570833	0,1	78,756426
2,572500	0,1	80,116801
2,574167	0,1	81,481434
2,575833	0,1	82,798753
2,577500	0,1	83,965818
2,579167	0,1	85,094811
2,580833	0,1	86,164989
2,582500	0,1	87,243563
2,584167	0,1	88,183438
2,585833	0,1	89,081438
2,587500	0,1	89,911624
2,589167	0,1	90,693882
2,590833	0,1	91,390976
2,592500	0,1	92,003563
2,594167	0,1	92,643684
2,595833	0,1	93,124335
2,597500	0,1	93,617065
2,599167	0,1	93,998087
2,600833	0,1	94,309931
2,602500	0,1	94,544714
2,604167	0,1	94,764156
2,605833	0,1	94,956585
2,607500	0,1	95,037433
2,609167	0,1	95,076851
2,610833	0,1	95,077798
2,612500	0,1	95,000732
2,614167	0,1	94,852892
2,615833	0,1	94,692286
2,617500	0,1	94,530153
2,619167	0,1	94,270206
2,620833	0,1	93,940114
2,622500	0,1	93,591062
2,624167	0,1	93,173012
2,625833	0,1	92,764504
2,627500	0,1	92,296956
2,629167	0,1	91,776468
2,630833	0,1	91,255514
2,632500	0,1	90,624728
2,634167	0,1	90,068821
2,635833	0,1	89,390420
2,637500	0,1	88,705639
2,639167	0,1	87,990522
2,640833	0,1	87,225002
2,642500	0,1	86,533559
2,644167	0,1	85,653914
2,645833	0,1	84,863233
2,647500	0,1	84,033831
2,649167	0,1	83,124683
2,650833	0,1	82,247771
2,652500	0,1	81,339653
2,654167	0,1	80,385492
2,655833	0,1	79,427876
2,657500	0,1	78,457158
2,659167	0,1	77,508281
2,660833	0,1	76,462448
2,662500	0,1	75,513353
2,664167	0,1	74,465469
2,665833	0,1	73,454902
2,667500	0,1	72,404305
2,669167	0,1	71,347078
2,670833	0,1	70,306159
2,672500	0,1	69,278106
2,674167	0,1	68,168738
2,675833	0,1	67,120795
2,677500	0,1	66,034732
2,679167	0,1	64,987825
2,680833	0,1	63,898691
2,682500	0,1	62,860253
2,684167	0,1	61,800049
2,685833	0,1	60,735441
2,687500	0,1	59,646938
2,689167	0,1	58,597973
2,690833	0,1	57,575201
2,692500	0,1	56,563351
2,694167	0,1	55,572728
2,695833	0,1	54,501775
2,697500	0,1	53,566151
2,699167	0,1	52,483480
2,700833	0,1	51,510943
2,702500	0,1	50,558227
2,704167	0,1	49,598285
2,705833	0,1	48,649640
2,707500	0,1	47,709523
2,709167	0,1	46,789137
2,710833	0,1	45,894227
2,712500	0,1	44,987174
2,714167	0,1	44,095532
2,715833	0,1	43,218605
2,717500	0,1	42,358995
2,719167	0,1	41,527920
2,720833	0,1	40,725599
2,722500	0,1	39,885967
2,724167	0,1	39,101721
2,725833	0,1	38,342646
2,727500	0,1	37,546631
2,729167	0,1	36,823517
2,730833	0,1	36,102340
2,732500	0,1	35,382374
2,734167	0,1	34,692381
2,735833	0,1	33,951366
2,737500	0,1	33,360800
2,739167	0,1	32,690140
2,740833	0,1	32,004863
2,742500	0,1	31,384386
2,744167	0,1	30,814338
2,745833	0,1	30,184119
2,747500	0,1	29,641666
2,749167	0,1	29,052680
2,750833	0,1	28,488807
2,752500	0,1	27,927202
2,754167	0,1	27,421815
2,755833	0,1	26,926009
2,757500	0,1	26,417598
2,759167	0,1	25,978609
2,760833	0,1	25,425802
2,762500	0,1	24,964202
2,764167	0,1	24,517893
2,765833	0,1	24,050095
2,767500	0,1	23,570658
2,769167	0,1	23,207955
2,770833	0,1	22,765422
2,772500	0,1	22,317965
2,774167	0,1	21,951274
2,775833	0,1	21,515529
2,777500	0,1	21,138434
2,779167	0,1	20,794163
2,780833	0,1	20,423735
2,782500	0,1	20,046245
2,784167	0,1	19,697390
2,785833	0,1	19,375606
2,787500	0,1	19,037633
2,789167	0,1	18,665811
2,790833	0,1	18,329543
2,792500	0,1	18,100429
2,794167	0,1	17,728967
2,795833	0,1	17,448748
2,797500	0,1	17,142347
2,799167	0,1	16,859040
2,800833	0,1	16,539434
2,802500	0,1	16,278317
2,804167	0,1	15,994389
2,805833	0,1	15,696757
2,807500	0,1	15,468448
2,809167	0,1	15,217339
2,810833	0,1	14,921439
2,812500	0,1	14,719647
2,814167	0,1	14,475057
2,815833	0,1	14,224267
2,817500	0,1	13,983831
2,819167	0,1	13,736953
2,820833	0,1	13,473891
2,822500	0,1	13,284982
2,824167	0,1	13,072403
2,825833	0,1	12,874064
2,827500	0,1	12,657385
2,829167	0,1	12,497312
2,830833	0,1	12,238949
2,832500	0,1	12,052906
2,834167	0,1	11,837925
2,835833	0,1	11,672447
2,837500	0,1	11,490355
2,839167	0,1	11,295554
2,840833	0,1	11,122246
2,842500	0,1	10,978723
2,844167	0,1	10,792291
2,845833	0,1	10,592238
2,847500	0,1	10,486931
2,849167	0,1	10,276032
2,850833	0,1	10,197668
2,852500	0,1	10,022567
2,854167	0,1	9,824947
2,855833	0,1	9,665894
2,857500	0,1	9,575912
2,859167	0,1	9,434956
2,860833	0,1	9,273435
2,862500	0,1	9,117404
2,864167	0,1	8,985872
2,865833	0,1	8,868696
2,867500	0,1	8,721445
2,869167	0,1	8,632379
2,870833	0,1	8,482136
2,872500	0,1	8,403917
2,874167	0,1	8,270442
2,875833	0,1	8,172609
2,877500	0,1	8,056298
2,879167	0,1	7,988159
2,880833	0,1	7,822946
2,882500	0,1	7,770905
2,884167	0,1	7,619610
2,885833	0,1	7,548244
2,887500	0,1	7,423120
2,889167	0,1	7,386502
2,890833	0,1	7,260681
2,892500	0,1	7,174139
2,894167	0,1	7,119232
2,895833	0,1	7,015446
2,897500	0,1	6,943549
2,899167	0,1	6,822227
2,900833	0,1	6,756797
2,902500	0,1	6,715503
2,904167	0,1	6,583406
2,905833	0,1	6,579300
2,907500	0,1	6,484413
2,909167	0,1	6,393817
2,910833	0,1	6,333359
2,912500	0,1	6,313080
2,914167	0,1	6,241889
2,915833	0,1	6,117567
2,917500	0,1	6,067735
2,919167	0,1	5,970506
2,920833	0,1	5,965858
2,922500	0,1	5,881535
2,924167	0,1	5,866649
2,925833	0,1	5,769117
2,927500	0,1	5,692653
2,929167	0,1	5,646146
2,930833	0,1	5,571062
2,932500	0,1	5,574025
2,934167	0,1	5,487016
2,935833	0,1	5,483255
2,937500	0,1	5,371995
2,939167	0,1	5,367326
2,940833	0,1	5,322092
2,942500	0,1	5,251267
2,944167	0,1	5,198922
2,945833	0,1	5,181117
2,947500	0,1	5,153890
2,949167	0,1	5,079298
2,950833	0,1	5,062066
2,952500	0,1	4,993617
2,954167	0,1	4,969473
2,955833	0,1	4,918220
2,957500	0,1	4,883697
2,959167	0,1	4,798382
2,960833	0,1	4,768485
2,962500	0,1	4,787342
2,964167	0,1	4,692740
2,965833	0,1	4,640652
2,967500	0,1	4,675735
2,969167	0,1	4,626596
2,970833	0,1	4,606863
2,972500	0,1	4,571279
2,974167	0,1	4,505155
2,975833	0,1	4,487614
2,977500	0,1	4,439677
2,979167	0,1	4,419745
2,980833	0,1	4,410958
2,982500	0,1	4,367748
2,984167	0,1	4,304533
2,985833	0,1	4,312242
2,987500	0,1	4,321836
2,989167	0,1	4,270752
2,990833	0,1	4,251118
2,992500	0,1	4,194908
2,994167	0,1	4,173812
2,995833	0,1	4,149472
2,997500	0,1	4,121720
2,999167	0,1	4,097051
3,000833	0,1	4,050981
3,002500	0,1	4,053363
3,004167	0,1	4,023322
3,005833	0,1	4,019622
3,007500	0,1	4,018844
3,009167	0,1	4,001538
3,010833	0,1	3,947796
3,012500	0,1	3,945279
3,014167	0,1	3,904394
3,015833	0,1	3,878274
3,017500	0,1	3,854832
3,019167	0,1	3,832555
3,020833	0,1	3,847755
3,022500	0,1	3,788179
3,024167	0,1	3,775096
3,025833	0,1	3,766738
3,027500	0,1	3,698181
3,029167	0,1	3,753202
3,030833	0,1	3,669216
3,032500	0,1	3,663376
3,034167	0,1	3,616343
3,035833	0,1	3,619033
3,037500	0,1	3,631551
3,039167	0,1	3,565126
3,040833	0,1	3,553973
3,042500	0,1	3,562437
3,044167	0,1	3,560231
3,045833	0,1	3,482933
3,047500	0,1	3,511086
3,049167	0,1	3,498971
3,050833	0,1	3,478793
3,052500	0,1	3,478896
3,054167	0,1	3,393874
3,055833	0,1	3,423968
3,057500	0,1	3,406090
3,059167	0,1	3,352075
3,060833	0,1	3,352503
3,062500	0,1	3,348399
3,064167	0,1	3,311132
3,065833	0,1	3,330433
3,067500	0,1	3,290423
3,069167	0,1	3,250078
3,070833	0,1	3,231601
3,072500	0,1	3,225186
3,074167	0,1	3,235585
3,075833	0,1	3,218912
3,077500	0,1	3,168317
3,079167	0,1	3,144324
3,080833	0,1	3,181539
3,082500	0,1	3,128174
3,084167	0,1	3,127344
3,085833	0,1	3,124901
3,087500	0,1	3,082751
3,089167	0,1	3,064753
3,090833	0,1	3,091303
3,092500	0,1	3,083769
3,094167	0,1	3,055463
3,095833	0,1	3,005607
3,097500	0,1	3,052037
3,099167	0,1	3,006949
3,100833	0,1	3,054285
3,102500	0,1	3,017235
3,104167	0,1	3,032301
3,105833	0,1	3,006869
3,107500	0,1	3,010331
3,109167	0,1	2,992814
3,110833	0,1	2,986312
3,112500	0,1	2,984619
3,114167	0,1	3,015136
3,115833	0,1	2,985562
3,117500	0,1	2,990713
3,119167	0,1	2,947668
3,120833	0,1	2,971118
3,122500	0,1	2,983892
3,124167	0,1	2,965532
3,125833	0,1	2,983392
3,127500	0,1	2,984167
3,129167	0,1	2,973735
3,130833	0,1	2,967400
3,132500	0,1	3,000446
3,134167	0,1	3,010542
3,135833	0,1	2,982830
3,137500	0,1	2,989729
3,139167	0,1	3,010116
3,140833	0,1	3,016514
3,142500	0,1	2,990235
3,144167	0,1	3,021348
3,145833	0,1	2,996058
3,147500	0,1	2,972993
3,149167	0,1	3,065917
3,150833	0,1	3,045221
3,152500	0,1	3,037646
3,154167	0,1	3,063641
3,155833	0,1	3,025121
3,157500	0,1	3,018641
3,159167	0,1	3,031669
3,160833	0,1	3,031447
3,162500	0,1	3,053731
3,164167	0,1	3,057672
3,165833	0,1	3,029658
3,167500	0,1	3,055738
3,169167	0,1	3,011955
3,170833	0,1	3,053350
3,172500	0,1	3,058094
3,174167	0,1	3,049336
3,175833	0,1	3,049560
3,177500	0,1	3,092988
3,179167	0,1	3,041125
3,180833	0,1	3,056811
3,182500	0,1	3,027290
3,184167	0,1	3,017107
3,185833	0,1	3,030494
3,187500	0,1	3,065553
3,189167	0,1	3,039520
3,190833	0,1	3,029654
3,192500	0,1	3,041954
3,194167	0,1	2,998744
3,195833	0,1	2,986764
3,197500	0,1	2,998446
3,199167	0,1	2,975260
3,200833	0,1	2,965954
3,202500	0,1	2,965514
3,204167	0,1	2,968305
3,205833	0,1	2,974440
3,207500	0,1	2,916176
3,209167	0,1	2,929051
3,210833	0,1	2,912725
3,212500	0,1	2,913358
3,214167	0,1	2,878731
3,215833	0,1	2,856324
3,217500	0,1	2,850051
3,219167	0,1	2,858475
3,220833	0,1	2,871416
3,222500	0,1	2,821168
3,224167	0,1	2,807250
3,225833	0,1	2,799128
3,227500	0,1	2,758443
3,229167	0,1	2,729999
3,230833	0,1	2,725530
3,232500	0,1	2,745105
3,234167	0,1	2,724386
3,235833	0,1	2,694431
3,237500	0,1	2,692265
3,239167	0,1	2,640080
3,240833	0,1	2,654177
3,242500	0,1	2,639782
3,244167	0,1	2,599173
3,245833	0,1	2,610901
3,247500	0,1	2,605496
3,249167	0,1	2,570818
3,250833	0,1	2,563466
3,252500	0,1	2,544115
3,254167	0,1	2,516403
3,255833	0,1	2,475964
3,257500	0,1	2,508612
3,259167	0,1	2,452936
3,260833	0,1	2,438684
3,262500	0,1	2,416588
3,264167	0,1	2,432846
3,265833	0,1	2,388534
3,267500	0,1	2,344647
3,269167	0,1	2,374195
3,270833	0,1	2,342844
3,272500	0,1	2,319175
3,274167	0,1	2,331104
3,275833	0,1	2,248621
3,277500	0,1	2,259244
3,279167	0,1	2,320088
3,280833	0,1	2,244376
3,282500	0,1	2,227673
3,284167	0,1	2,178922
3,285833	0,1	2,202994
3,287500	0,1	2,163172
3,289167	0,1	2,204144
3,290833	0,1	2,150374
3,292500	0,1	2,149714
3,294167	0,1	2,114561
3,295833	0,1	2,099815
3,297500	0,1	2,086225
3,299167	0,1	2,061426
3,300833	0,1	2,051782
3,302500	0,1	2,057176
3,304167	0,1	2,036908
3,305833	0,1	2,048249
3,307500	0,1	2,025323
3,309167	0,1	2,019075
3,310833	0,1	1,995353
3,312500	0,1	2,009079
3,314167	0,1	1,969550
3,315833	0,1	1,950560
3,317500	0,1	1,928504
3,319167	0,1	1,926488
3,320833	0,1	1,930289
3,322500	0,1	1,903494
3,324167	0,1	1,928141
3,325833	0,1	1,942379
3,327500	0,1	1,854353
3,329167	0,1	1,882347
3,330833	0,1	1,849149
3,332500	0,1	1,889763
3,334167	0,1	1,876901
3,335833	0,1	1,854423
3,337500	0,1	1,862747
3,339167	0,1	1,878618
3,340833	0,1	1,858577
3,342500	0,1	1,823646
3,344167	0,1	1,831983
3,345833	0,1	1,828700
3,347500	0,1	1,807056
3,349167	0,1	1,820830
3,350833	0,1	1,812358
3,352500	0,1	1,818333
3,354167	0,1	1,835939
3,355833	0,1	1,810440
3,357500	0,1	1,799932
3,359167	0,1	1,785706
3,360833	0,1	1,791529
3,362500	0,1	1,813792
3,364167	0,1	1,786147
3,365833	0,1	1,791878
3,367500	0,1	1,807275
3,369167	0,1	1,765586
3,370833	0,1	1,786422
3,372500	0,1	1,757614
3,374167	0,1	1,788429
3,375833	0,1	1,768178
3,377500	0,1	1,780326
3,379167	0,1	1,794900
3,380833	0,1	1,760988
3,382500	0,1	1,796119
3,384167	0,1	1,743823
3,385833	0,1	1,786358
3,387500	0,1	1,779455
3,389167	0,1	1,745997
3,390833	0,1	1,710682
3,392500	0,1	1,786846
3,394167	0,1	1,730324
3,395833	0,1	1,771695
3,397500	0,1	1,704811
3,399167	0,1	1,798273
3,400833	0,1	1,731124
3,402500	0,1	1,759760
3,404167	0,1	1,752247
3,405833	0,1	1,730017
3,407500	0,1	1,759053
3,409167	0,1	1,733619
3,410833	0,1	1,731825
3,412500	0,1	1,752510
3,414167	0,1	1,716801
3,415833	0,1	1,741894
3,417500	0,1	1,768683
3,419167	0,1	1,730401
3,420833	0,1	1,725728
3,422500	0,1	1,719263
3,424167	0,1	1,747205
3,425833	0,1	1,724796
3,427500	0,1	1,756546
3,429167	0,1	1,734555
3,430833	0,1	1,714927
3,432500	0,1	1,762858
3,434167	0,1	1,717910
3,435833	0,1	1,694825
3,437500	0,1	1,735633
3,439167	0,1	1,741174
3,440833	0,1	1,713935
3,442500	0,1	1,757388
3,444167	0,1	1,755021
3,445833	0,1	1,759198
3,447500	0,1	1,781608
3,449167	0,1	1,749925
3,450833	0,1	1,758681
3,452500	0,1	1,787435
3,454167	0,1	1,835058
3,455833	0,1	1,768407
3,457500	0,1	1,801135
3,459167	0,1	1,778962
3,460833	0,1	1,801008
3,462500	0,1	1,803449
3,464167	0,1	1,820330
3,465833	0,1	1,830609
3,467500	0,1	1,874231
3,469167	0,1	1,873524
3,470833	0,1	1,911677
3,472500	0,1	1,880716
3,474167	0,1	1,912747
3,475833	0,1	1,918153
3,477500	0,1	1,941000
3,479167	0,1	1,935409
3,480833	0,1	1,916283
3,482500	0,1	2,003161
3,484167	0,1	2,010516
3,485833	0,1	2,024468
3,487500	0,1	2,032877
3,489167	0,1	2,061912
3,490833	0,1	2,031152
3,492500	0,1	2,110217
3,494167	0,1	2,091837
3,495833	0,1	2,107139
3,497500	0,1	2,109084
3,499167	0,1	2,151793
3,500833	0,1	2,118159
3,502500	0,1	2,146400
3,504167	0,1	2,157693
3,505833	0,1	2,216369
3,507500	0,1	2,170142
3,509167	0,1	2,227084
3,510833	0,1	2,199269
3,512500	0,1	2,218676
3,514167	0,1	2,285990
3,515833	0,1	2,244225
3,517500	0,1	2,327275
3,519167	0,1	2,306872
3,520833	0,1	2,339807
3,522500	0,1	2,279763
3,524167	0,1	2,323476
3,525833	0,1	2,381170
3,527500	0,1	2,378377
3,529167	0,1	2,367519
3,530833	0,1	2,398303
3,532500	0,1	2,393702
3,534167	0,1	2,415790
3,535833	0,1	2,382346
3,537500	0,1	2,380468
3,539167	0,1	2,410099
3,540833	0,1	2,374937
3,542500	0,1	2,404203
3,544167	0,1	2,428595
3,545833	0,1	2,450254
3,547500	0,1	2,412561
3,549167	0,1	2,428313
3,550833	0,1	2,437522
3,552500	0,1	2,416593
3,554167	0,1	2,421766
3,555833	0,1	2,423995
3,557500	0,1	2,406877
3,559167	0,1	2,407734
3,560833	0,1	2,445146
3,562500	0,1	2,401485
3,564167	0,1	2,436148
3,565833	0,1	2,406161
3,567500	0,1	2,430752
3,569167	0,1	2,397027
3,570833	0,1	2,397088
3,572500	0,1	2,372630
3,574167	0,1	2,380535
3,575833	0,1	2,388305
3,577500	0,1	2,387085
3,579167	0,1	2,382982
3,580833	0,1	2,351981
3,582500	0,1	2,340177
3,584167	0,1	2,336220
3,585833	0,1	2,339812
3,587500	0,1	2,296304
3,589167	0,1	2,321967
3,590833	0,1	2,320536
3,592500	0,1	2,312767
3,594167	0,1	2,280762
3,595833	0,1	2,274138
3,597500	0,1	2,284997
3,599167	0,1	2,249545
3,600833	0,1	2,248242
3,602500	0,1	2,218184
3,604167	0,1	2,215588
3,605833	0,1	2,205740
3,607500	0,1	2,149727
3,609167	0,1	2,188249
3,610833	0,1	2,139223
3,612500	0,1	2,131733
3,614167	0,1	2,178395
3,615833	0,1	2,090910
3,617500	0,1	2,132811
3,619167	0,1	2,113045
3,620833	0,1	2,090757
3,622500	0,1	2,076798
3,624167	0,1	2,070685
3,625833	0,1	2,002693
3,627500	0,1	2,005846
3,629167	0,1	2,001319
3,630833	0,1	2,020222
3,632500	0,1	1,956977
3,634167	0,1	1,938647
3,635833	0,1	1,957961
3,637500	0,1	1,958338
3,639167	0,1	1,948637
3,640833	0,1	1,923546
3,642500	0,1	1,946170
3,644167	0,1	1,926646
3,645833	0,1	1,856578
3,647500	0,1	1,884949
3,649167	0,1	1,846003
3,650833	0,1	1,860228
3,652500	0,1	1,837818
3,654167	0,1	1,834073
3,655833	0,1	1,801220
3,657500	0,1	1,815028
3,659167	0,1	1,802817
3,660833	0,1	1,774945
3,662500	0,1	1,775155
3,664167	0,1	1,745479
3,665833	0,1	1,686360
3,667500	0,1	1,734040
3,669167	0,1	1,706129
3,670833	0,1	1,651230
3,672500	0,1	1,744117
3,674167	0,1	1,685159
3,675833	0,1	1,661867
3,677500	0,1	1,660454
3,679167	0,1	1,688891
3,680833	0,1	1,611815
3,682500	0,1	1,607493
3,684167	0,1	1,591900
3,685833	0,1	1,599019
3,687500	0,1	1,559382
3,689167	0,1	1,564102
3,690833	0,1	1,594213
3,692500	0,1	1,573268
3,694167	0,1	1,563555
3,695833	0,1	1,523412
3,697500	0,1	1,511482
3,699167	0,1	1,530712
3,700833	0,1	1,505366
3,702500	0,1	1,489071
3,704167	0,1	1,509027
3,705833	0,1	1,494090
3,707500	0,1	1,484135
3,709167	0,1	1,455235
3,710833	0,1	1,444756
3,712500	0,1	1,473924
3,714167	0,1	1,452308
3,715833	0,1	1,418371
3,717500	0,1	1,452667
3,719167	0,1	1,475491
3,720833	0,1	1,393612
3,722500	0,1	1,405132
3,724167	0,1	1,402110
3,725833	0,1	1,382221
3,727500	0,1	1,425528
3,729167	0,1	1,387651
3,730833	0,1	1,375555
3,732500	0,1	1,397973
3,734167	0,1	1,381405
3,735833	0,1	1,406440
3,737500	0,1	1,352104
3,739167	0,1	1,360658
3,740833	0,1	1,406314
3,742500	0,1	1,366093
3,744167	0,1	1,336969
3,745833	0,1	1,331133
3,747500	0,1	1,355690
3,749167	0,1	1,345873
3,750833	0,1	1,380936
3,752500	0,1	1,356077
3,754167	0,1	1,336217
3,755833	0,1	1,332066
3,757500	0,1	1,293317
3,759167	0,1	1,301686
3,760833	0,1	1,296066
3,762500	0,1	1,327604
3,764167	0,1	1,326898
3,765833	0,1	1,344083
3,767500	0,1	1,326103
3,769167	0,1	1,292024
3,770833	0,1	1,312296
3,772500	0,1	1,327201
3,774167	0,1	1,313115
3,775833	0,1	1,285787
3,777500	0,1	1,298223
3,779167	0,1	1,303709
3,780833	0,1	1,285649
3,782500	0,1	1,295041
3,784167	0,1	1,275720
3,785833	0,1	1,255784
3,787500	0,1	1,278958
3,789167	0,1	1,281546
3,790833	0,1	1,284353
3,792500	0,1	1,315127
3,794167	0,1	1,266703
3,795833	0,1	1,263732
3,797500	0,1	1,263415
3,799167	0,1	1,248678
3,800833	0,1	1,294917
3,802500	0,1	1,269146
3,804167	0,1	1,288022
3,805833	0,1	1,232743
3,807500	0,1	1,288436
3,809167	0,1	1,276336
3,810833	0,1	1,237973
3,812500	0,1	1,280333
3,814167	0,1	1,252712
3,815833	0,1	1,229439
3,817500	0,1	1,205634
3,819167	0,1	1,239202
3,820833	0,1	1,244865
3,822500	0,1	1,237274
3,824167	0,1	1,202964
3,825833	0,1	1,233476
3,827500	0,1	1,219973
3,829167	0,1	1,215450
3,830833	0,1	1,209571
3,832500	0,1	1,230298
3,834167	0,1	1,224801
3,835833	0,1	1,193008
3,837500	0,1	1,187749
3,839167	0,1	1,199631
3,840833	0,1	1,208120
3,842500	0,1	1,178088
3,844167	0,1	1,175546
3,845833	0,1	1,203038
3,847500	0,1	1,153044
3,849167	0,1	1,175761
3,850833	0,1	1,191948
3,852500	0,1	1,184386
3,854167	0,1	1,176838
3,855833	0,1	1,141196
3,857500	0,1	1,173285
3,859167	0,1	1,157221
3,860833	0,1	1,155036
3,862500	0,1	1,165676
3,864167	0,1	1,138499
3,865833	0,1	1,136535
3,867500	0,1	1,147040
3,869167	0,1	1,127811
3,870833	0,1	1,113761
3,872500	0,1	1,118076
3,874167	0,1	1,088651
3,875833	0,1	1,090269
3,877500	0,1	1,121988
3,879167	0,1	1,085604
3,880833	0,1	1,134161
3,882500	0,1	1,095934
3,884167	0,1	1,105383
3,885833	0,1	1,097706
3,887500	0,1	1,079298
3,889167	0,1	1,085906
3,890833	0,1	1,049473
3,892500	0,1	1,085941
3,894167	0,1	1,102599
3,895833	0,1	1,066103
3,897500	0,1	1,035827
3,899167	0,1	1,049591
3,900833	0,1	1,039116
3,902500	0,1	1,024336
3,904167	0,1	1,086871
3,905833	0,1	1,033738
3,907500	0,1	1,069247
3,909167	0,1	1,017020
3,910833	0,1	1,022104
3,912500	0,1	1,047588
3,914167	0,1	1,026762
3,915833	0,1	0,986745
3,917500	0,1	1,038877
3,919167	0,1	0,995584
3,920833	0,1	0,970671
3,922500	0,1	1,001980
3,924167	0,1	0,989677
3,925833	0,1	1,019317
3,927500	0,1	1,012557
3,929167	0,1	0,988902
3,930833	0,1	0,997955
3,932500	0,1	1,005677
3,934167	0,1	0,968407
3,935833	0,1	1,006785
3,937500	0,1	0,972885
3,939167	0,1	1,003802
3,940833	0,1	0,999249
3,942500	0,1	0,942412
3,944167	0,1	0,972935
3,945833	0,1	0,995121
3,947500	0,1	1,006213
3,949167	0,1	0,979155
3,950833	0,1	0,995463
3,952500	0,1	0,992215
3,954167	0,1	0,991462
3,955833	0,1	0,962413
3,957500	0,1	0,951041
3,959167	0,1	0,974691
3,960833	0,1	0,963991
3,962500	0,1	0,932422
3,964167	0,1	0,960397
3,965833	0,1	0,965765
3,967500	0,1	0,974628
3,969167	0,1	0,930791
3,970833	0,1	1,004420
3,972500	0,1	0,963443
3,974167	0,1	0,980816
3,975833	0,1	1,007814
3,977500	0,1	0,979444
3,979167	0,1	0,954430
3,980833	0,1	0,954556
3,982500	0,1	0,959967
3,984167	0,1	0,988294
3,985833	0,1	1,011705
3,987500	0,1	0,931341
3,989167	0,1	0,974107
3,990833	0,1	0,972313
3,992500	0,1	1,004867
3,994167	0,1	1,028422
3,995833	0,1	0,984257
3,997500	0,1	0,969272
3,999167	0,1	1,043083
4,000833	0,1	0,949190
4,002500	0,1	1,012655
4,004167	0,1	0,989323
4,005833	0,1	1,000000
4,007500	0,1	0,969829
4,009167	0,1	1,029796
4,010833	0,1	1,003772
4,012500	0,1	1,014670
4,014167	0,1	1,007998
4,015833	0,1	0,970791
4,017500	0,1	1,023542
4,019167	0,1	1,012137
4,020833	0,1	1,030493
4,022500	0,1	1,016541
4,024167	0,1	1,048185
4,025833	0,1	1,042741
4,027500	0,1	1,023113
4,029167	0,1	1,063635
4,030833	0,1	1,045994
4,032500	0,1	1,059967
4,034167	0,1	1,086522
4,035833	0,1	1,072553
4,037500	0,1	1,065938
4,039167	0,1	1,057125
4,040833	0,1	1,082228
4,042500	0,1	1,090334
4,044167	0,1	1,120740
4,045833	0,1	1,115674
4,047500	0,1	1,128737
4,049167	0,1	1,112070
4,050833	0,1	1,120033
4,052500	0,1	1,158144
4,054167	0,1	1,164030
4,055833	0,1	1,181797
4,057500	0,1	1,189037
4,059167	0,1	1,130647
4,060833	0,1	1,207633
4,062500	0,1	1,187174
4,064167	0,1	1,192865
4,065833	0,1	1,265691
4,067500	0,1	1,205486
4,069167	0,1	1,269192
4,070833	0,1	1,247590
4,072500	0,1	1,269251
4,074167	0,1	1,264755
4,075833	0,1	1,259897
4,077500	0,1	1,331980
4,079167	0,1	1,318148
4,080833	0,1	1,337623
4,082500	0,1	1,325473
4,084167	0,1	1,397893
4,085833	0,1	1,398572
4,087500	0,1	1,376835
4,089167	0,1	1,369332
4,090833	0,1	1,397443
4,092500	0,1	1,454023
4,094167	0,1	1,401562
4,095833	0,1	1,432113
4,097500	0,1	1,458416
4,099167	0,1	1,503837
4,100833	0,1	1,479396
4,102500	0,1	1,552164
4,104167	0,1	1,544125
4,105833	0,1	1,545937
4,107500	0,1	1,567838
4,109167	0,1	1,586721
4,110833	0,1	1,621484
4,112500	0,1	1,660327
4,114167	0,1	1,618767
4,115833	0,1	1,638007
4,117500	0,1	1,673476
4,119167	0,1	1,689379
4,120833	0,1	1,713377
4,122500	0,1	1,716466
4,124167	0,1	1,749413
4,125833	0,1	1,726288
4,127500	0,1	1,777930
4,129167	0,1	1,792523
4,130833	0,1	1,817612
4,132500	0,1	1,824737
4,134167	0,1	1,857067
4,135833	0,1	1,868481
4,137500	0,1	1,907008
4,139167	0,1	1,881145
4,140833	0,1	1,913121
4,142500	0,1	1,957905
4,144167	0,1	1,947049
4,145833	0,1	1,950202
4,147500	0,1	1,981314
4,149167	0,1	2,003477
4,150833	0,1	1,988372
4,152500	0,1	2,017773
4,154167	0,1	2,028564
4,155833	0,1	2,083549
4,157500	0,1	2,098373
4,159167	0,1	2,105493
4,160833	0,1	2,086939
4,162500	0,1	2,087871
4,164167	0,1	2,071990
4,165833	0,1	2,112602
4,167500	0,1	2,136119
4,169167	0,1	2,140871
4,170833	0,1	2,164880
4,172500	0,1	2,159495
4,174167	0,1	2,188036
4,175833	0,1	2,172081
4,177500	0,1	2,197746
4,179167	0,1	2,240896
4,180833	0,1	2,223863
4,182500	0,1	2,225299
4,184167	0,1	2,270243
4,185833	0,1	2,241919
4,187500	0,1	2,247954
4,189167	0,1	2,257734
4,190833	0,1	2,273487
4,192500	0,1	2,283413
4,194167	0,1	2,332321
4,195833	0,1	2,312266
4,197500	0,1	2,321971
4,199167	0,1	2,335780
4,200833	0,1	2,307953
4,202500	0,1	2,322545
4,204167	0,1	2,295220
4,205833	0,1	2,307438
4,207500	0,1	2,312262
4,209167	0,1	2,316003
4,210833	0,1	2,337651
4,212500	0,1	2,322408
4,214167	0,1	2,326937
4,215833	0,1	2,320968
4,217500	0,1	2,317297
4,219167	0,1	2,324777
4,220833	0,1	2,335136
4,222500	0,1	2,340531
4,224167	0,1	2,334134
4,225833	0,1	2,305795
4,227500	0,1	2,286585
4,229167	0,1	2,301109
4,230833	0,1	2,308519
4,232500	0,1	2,286299
4,234167	0,1	2,329876
4,235833	0,1	2,305147
4,237500	0,1	2,326787
4,239167	0,1	2,285799
4,240833	0,1	2,309163
4,242500	0,1	2,291404
4,244167	0,1	2,298809
4,245833	0,1	2,269829
4,247500	0,1	2,281904
4,249167	0,1	2,257743
4,250833	0,1	2,254214
4,252500	0,1	2,276721
4,254167	0,1	2,286867
4,255833	0,1	2,204675
4,257500	0,1	2,230185
4,259167	0,1	2,245147
4,260833	0,1	2,214517
4,262500	0,1	2,211349
4,264167	0,1	2,212353
4,265833	0,1	2,204588
4,267500	0,1	2,224864
4,269167	0,1	2,191792
4,270833	0,1	2,167985
4,272500	0,1	2,180849
4,274167	0,1	2,147206
4,275833	0,1	2,158272
4,277500	0,1	2,186024
4,279167	0,1	2,125783
4,280833	0,1	2,076961
4,282500	0,1	2,139488
4,284167	0,1	2,096081
4,285833	0,1	2,113830
4,287500	0,1	2,085513
4,289167	0,1	2,081559
4,290833	0,1	2,054524
4,292500	0,1	2,086001
4,294167	0,1	2,056897
4,295833	0,1	2,037478
4,297500	0,1	2,030438
4,299167	0,1	2,042585
4,300833	0,1	2,002915
4,302500	0,1	1,992910
4,304167	0,1	1,969329
4,305833	0,1	1,953801
4,307500	0,1	1,984631
4,309167	0,1	1,964593
4,310833	0,1	1,988091
4,312500	0,1	1,914805
4,314167	0,1	1,904278
4,315833	0,1	1,897311
4,317500	0,1	1,881634
4,319167	0,1	1,890909
4,320833	0,1	1,851334
4,322500	0,1	1,895083
4,324167	0,1	1,850828
4,325833	0,1	1,849298
4,327500	0,1	1,841205
4,329167	0,1	1,860523
4,330833	0,1	1,799316
4,332500	0,1	1,794897
4,334167	0,1	1,811434
4,335833	0,1	1,789328
4,337500	0,1	1,782839
4,339167	0,1	1,783333
4,340833	0,1	1,756112
4,342500	0,1	1,740083
4,344167	0,1	1,752303
4,345833	0,1	1,739665
4,347500	0,1	1,769638
4,349167	0,1	1,723499
4,350833	0,1	1,709129
4,352500	0,1	1,685002
4,354167	0,1	1,695694
4,355833	0,1	1,680831
4,357500	0,1	1,669252
4,359167	0,1	1,678967
4,360833	0,1	1,657604
4,362500	0,1	1,640474
4,364167	0,1	1,648076
4,365833	0,1	1,613373
4,367500	0,1	1,644631
4,369167	0,1	1,623312
4,370833	0,1	1,570388
4,372500	0,1	1,607633
4,374167	0,1	1,594266
4,375833	0,1	1,587744
4,377500	0,1	1,596941
4,379167	0,1	1,574396
4,380833	0,1	1,552118
4,382500	0,1	1,523256
4,384167	0,1	1,553989
4,385833	0,1	1,496479
4,387500	0,1	1,517718
4,389167	0,1	1,516718
4,390833	0,1	1,522754
4,392500	0,1	1,479979
4,394167	0,1	1,474427
4,395833	0,1	1,481683
4,397500	0,1	1,444148
4,399167	0,1	1,474966
4,400833	0,1	1,446275
4,402500	0,1	1,463878
4,404167	0,1	1,461890
4,405833	0,1	1,418373
4,407500	0,1	1,395468
4,409167	0,1	1,408007
4,410833	0,1	1,390790
4,412500	0,1	1,413529
4,414167	0,1	1,379626
4,415833	0,1	1,376863
4,417500	0,1	1,361804
4,419167	0,1	1,347353
4,420833	0,1	1,352958
4,422500	0,1	1,369462
4,424167	0,1	1,387925
4,425833	0,1	1,335192
4,427500	0,1	1,375425
4,429167	0,1	1,364539
4,430833	0,1	1,334182
4,432500	0,1	1,339305
4,434167	0,1	1,331932
4,435833	0,1	1,302581
4,437500	0,1	1,319094
4,439167	0,1	1,280044
4,440833	0,1	1,268429
4,442500	0,1	1,246917
4,444167	0,1	1,281048
4,445833	0,1	1,266358
4,447500	0,1	1,272051
4,449167	0,1	1,258521
4,450833	0,1	1,263925
4,452500	0,1	1,212434
4,454167	0,1	1,217721
4,455833	0,1	1,195636
4,457500	0,1	1,249105
4,459167	0,1	1,250565
4,460833	0,1	1,163096
4,462500	0,1	1,203681
4,464167	0,1	1,191469
4,465833	0,1	1,170983
4,467500	0,1	1,119157
4,469167	0,1	1,176508
4,470833	0,1	1,176077
4,472500	0,1	1,169152
4,474167	0,1	1,136830
4,475833	0,1	1,135354
4,477500	0,1	1,102677
4,479167	0,1	1,164884
4,480833	0,1	1,160757
4,482500	0,1	1,081853
4,484167	0,1	1,100282
4,485833	0,1	1,076941
4,487500	0,1	1,061379
4,489167	0,1	1,078398
4,490833	0,1	1,107494
4,492500	0,1	1,091364
4,494167	0,1	1,110212
4,495833	0,1	1,055534
4,497500	0,1	1,072102
4,499167	0,1	1,095895
4,500833	0,1	1,071553
4,502500	0,1	1,031045
4,504167	0,1	1,045654
4,505833	0,1	1,000725
4,507500	0,1	1,014629
4,509167	0,1	1,026266
4,510833	0,1	1,017125
4,512500	0,1	1,028160
4,514167	0,1	0,984124
4,515833	0,1	0,979861
4,517500	0,1	0,968245
4,519167	0,1	0,995461
4,520833	0,1	0,969143
4,522500	0,1	0,967687
4,524167	0,1	0,970583
4,525833	0,1	0,963908
4,527500	0,1	0,960390
4,529167	0,1	0,940032
4,530833	0,1	0,957803
4,532500	0,1	0,954779
4,534167	0,1	0,950709
4,535833	0,1	0,866677
4,537500	0,1	0,901323
4,539167	0,1	0,918422
4,540833	0,1	0,898927
4,542500	0,1	0,909402
4,544167	0,1	0,882282
4,545833	0,1	0,900826
4,547500	0,1	0,897567
4,549167	0,1	0,897723
4,550833	0,1	0,847917
4,552500	0,1	0,893354
4,554167	0,1	0,855668
4,555833	0,1	0,850694
4,557500	0,1	0,814924
4,559167	0,1	0,840877
4,560833	0,1	0,849298
4,562500	0,1	0,866522
4,564167	0,1	0,859298
4,565833	0,1	0,829332
4,567500	0,1	0,844937
4,569167	0,1	0,874605
4,570833	0,1	0,811827
4,572500	0,1	0,814130
4,574167	0,1	0,819618
4,575833	0,1	0,775402
4,577500	0,1	0,759108
4,579167	0,1	0,783388
4,580833	0,1	0,842955
4,582500	0,1	0,786756
4,584167	0,1	0,802223
4,585833	0,1	0,754823
4,587500	0,1	0,784838
4,589167	0,1	0,743886
4,590833	0,1	0,757897
4,592500	0,1	0,764364
4,594167	0,1	0,761809
4,595833	0,1	0,711153
4,597500	0,1	0,727779
4,599167	0,1	0,742712
4,600833	0,1	0,715533
4,602500	0,1	0,740483
4,604167	0,1	0,729331
4,605833	0,1	0,749801
4,607500	0,1	0,716760
4,609167	0,1	0,715137
4,610833	0,1	0,696215
4,612500	0,1	0,734191
4,614167	0,1	0,692380
4,615833	0,1	0,706459
4,617500	0,1	0,701852
4,619167	0,1	0,697337
4,620833	0,1	0,697400
4,622500	0,1	0,670896
4,624167	0,1	0,698424
4,625833	0,1	0,704425
4,627500	0,1	0,663387
4,629167	0,1	0,697939
4,630833	0,1	0,690278
4,632500	0,1	0,666222
4,634167	0,1	0,682367
4,635833	0,1	0,671505
4,637500	0,1	0,657125
4,639167	0,1	0,676755
4,640833	0,1	0,671569
4,642500	0,1	0,646709
4,644167	0,1	0,629263
4,645833	0,1	0,640574
4,647500	0,1	0,644445
4,649167	0,1	0,638419
4,650833	0,1	0,634644
4,652500	0,1	0,635223
4,654167	0,1	0,637222
4,655833	0,1	0,643770
4,657500	0,1	0,635646
4,659167	0,1	0,631678
4,660833	0,1	0,612334
4,662500	0,1	0,623065
4,664167	0,1	0,626228
4,665833	0,1	0,620232
4,667500	0,1	0,581481
4,669167	0,1	0,617738
4,670833	0,1	0,598275
4,672500	0,1	0,563617
4,674167	0,1	0,576729
4,675833	0,1	0,580536
4,677500	0,1	0,591466
4,679167	0,1	0,551304
4,680833	0,1	0,558191
4,682500	0,1	0,546877
4,684167	0,1	0,545780
4,685833	0,1	0,573276
4,687500	0,1	0,542949
4,689167	0,1	0,561832
4,690833	0,1	0,540627
4,692500	0,1	0,539624
4,694167	0,1	0,571114
4,695833	0,1	0,547140
4,697500	0,1	0,553645
4,699167	0,1	0,563124
4,700833	0,1	0,570637
4,702500	0,1	0,492250
4,704167	0,1	0,561014
4,705833	0,1	0,542464
4,707500	0,1	0,523445
4,709167	0,1	0,555702
4,710833	0,1	0,532370
4,712500	0,1	0,520800
4,714167	0,1	0,500554
4,715833	0,1	0,522658
4,717500	0,1	0,527721
4,719167	0,1	0,500589
4,720833	0,1	0,491809
4,722500	0,1	0,555760
4,724167	0,1	0,532216
4,725833	0,1	0,535331
4,727500	0,1	0,507809
4,729167	0,1	0,510220
4,730833	0,1	0,476505
4,732500	0,1	0,479981
4,734167	0,1	0,536999
4,735833	0,1	0,510584
4,737500	0,1	0,502966
4,739167	0,1	0,510316
4,740833	0,1	0,497234
4,742500	0,1	0,501582
4,744167	0,1	0,477286
4,745833	0,1	0,445529
4,747500	0,1	0,487033
4,749167	0,1	0,447592
4,750833	0,1	0,496638
4,752500	0,1	0,462744
4,754167	0,1	0,498639
4,755833	0,1	0,462520
4,757500	0,1	0,424058
4,759167	0,1	0,475426
4,760833	0,1	0,481589
4,762500	0,1	0,475859
4,764167	0,1	0,428419
4,765833	0,1	0,462153
4,767500	0,1	0,470118
4,769167	0,1	0,462929
4,770833	0,1	0,449520
4,772500	0,1	0,483714
4,774167	0,1	0,473798
4,775833	0,1	0,492424
4,777500	0,1	0,485111
4,779167	0,1	0,445085
4,780833	0,1	0,471047
4,782500	0,1	0,441697
4,784167	0,1	0,449330
4,785833	0,1	0,437215
4,787500	0,1	0,423381
4,789167	0,1	0,462727
4,790833	0,1	0,464542
4,792500	0,1	0,441085
4,794167	0,1	0,436852
4,795833	0,1	0,463666
4,797500	0,1	0,422260
4,799167	0,1	0,433625
4,800833	0,1	0,475103
4,802500	0,1	0,414402
4,804167	0,1	0,434594
4,805833	0,1	0,414612
4,807500	0,1	0,456796
4,809167	0,1	0,466538
4,810833	0,1	0,404470
4,812500	0,1	0,444840
4,814167	0,1	0,403468
4,815833	0,1	0,418896
4,817500	0,1	0,398442
4,819167	0,1	0,414421
4,820833	0,1	0,419326
4,822500	0,1	0,381878
4,824167	0,1	0,429393
4,825833	0,1	0,423676
4,827500	0,1	0,427897
4,829167	0,1	0,425575
4,830833	0,1	0,432634
4,832500	0,1	0,436176
4,834167	0,1	0,413658
4,835833	0,1	0,441972
4,837500	0,1	0,427992
4,839167	0,1	0,430738
4,840833	0,1	0,408883
4,842500	0,1	0,406754
4,844167	0,1	0,433566
4,845833	0,1	0,392709
4,847500	0,1	0,416252
4,849167	0,1	0,426442
4,850833	0,1	0,395057
4,852500	0,1	0,439652
4,854167	0,1	0,437403
4,855833	0,1	0,408058
4,857500	0,1	0,418253
4,859167	0,1	0,403369
4,860833	0,1	0,438946
4,862500	0,1	0,399663
4,864167	0,1	0,394898
4,865833	0,1	0,399725
4,867500	0,1	0,400371
4,869167	0,1	0,405943
4,870833	0,1	0,425150
4,872500	0,1	0,409081
4,874167	0,1	0,444720
4,875833	0,1	0,384271
4,877500	0,1	0,394631
4,879167	0,1	0,388833
4,880833	0,1	0,417413
4,882500	0,1	0,396089
4,884167	0,1	0,411779
4,885833	0,1	0,444969
4,887500	0,1	0,425515
4,889167	0,1	0,360840
4,890833	0,1	0,418016
4,892500	0,1	0,378582
4,894167	0,1	0,422184
4,895833	0,1	0,440014
4,897500	0,1	0,413269
4,899167	0,1	0,418517
4,900833	0,1	0,412111
4,902500	0,1	0,405500
4,904167	0,1	0,419904
4,905833	0,1	0,409071
4,907500	0,1	0,373016
4,909167	0,1	0,399746
4,910833	0,1	0,412297
4,912500	0,1	0,400247
4,914167	0,1	0,413450
4,915833	0,1	0,411428
4,917500	0,1	0,411101
4,919167	0,1	0,406618
4,920833	0,1	0,413969
4,922500	0,1	0,391705
4,924167	0,1	0,385455
4,925833	0,1	0,390536
4,927500	0,1	0,424985
4,929167	0,1	0,392479
4,930833	0,1	0,409036
4,932500	0,1	0,419380
4,934167	0,1	0,387132
4,935833	0,1	0,412193
4,937500	0,1	0,359421
4,939167	0,1	0,429878
4,940833	0,1	0,383976
4,942500	0,1	0,392151
4,944167	0,1	0,386445
4,945833	0,1	0,385228
4,947500	0,1	0,383584
4,949167	0,1	0,395856
4,950833	0,1	0,386482
4,952500	0,1	0,401457
4,954167	0,1	0,353292
4,955833	0,1	0,408581
4,957500	0,1	0,402595
4,959167	0,1	0,385258
4,960833	0,1	0,409262
4,962500	0,1	0,388101
4,964167	0,1	0,382296
4,965833	0,1	0,399014
4,967500	0,1	0,403110
4,969167	0,1	0,391476
4,970833	0,1	0,417323
4,972500	0,1	0,406727
4,974167	0,1	0,385297
4,975833	0,1	0,378774
4,977500	0,1	0,413835
4,979167	0,1	0,398114
4,980833	0,1	0,408103
4,982500	0,1	0,392313
4,984167	0,1	0,365571
4,985833	0,1	0,406443
4,987500	0,1	0,414694
4,989167	0,1	0,420713
4,990833	0,1	0,410141
4,992500	0,1	0,396053
4,994167	0,1	0,397373
4,995833	0,1	0,410970
4,997500	0,1	0,422348
4,999167	0,1	0,412302
5,000833	0,1	0,407208
5,002500	0,1	0,383126
5,004167	0,1	0,407455
5,005833	0,1	0,426702
5,007500	0,1	0,430475
5,009167	0,1	0,467538
5,010833	0,1	0,432708
5,012500	0,1	0,456065
5,014167	0,1	0,448179
5,015833	0,1	0,443760
5,017500	0,1	0,422709
5,019167	0,1	0,424929
5,020833	0,1	0,448363
5,022500	0,1	0,424452
5,024167	0,1	0,427796
5,025833	0,1	0,411495
5,027500	0,1	0,454281
5,029167	0,1	0,441176
5,030833	0,1	0,394352
5,032500	0,1	0,417642
5,034167	0,1	0,461792
5,035833	0,1	0,462034
5,037500	0,1	0,456908
5,039167	0,1	0,448528
5,040833	0,1	0,431507
5,042500	0,1	0,447713
5,044167	0,1	0,438758
5,045833	0,1	0,478172
5,047500	0,1	0,460007
5,049167	0,1	0,441204
5,050833	0,1	0,455741
5,052500	0,1	0,482454
5,054167	0,1	0,462741
5,055833	0,1	0,493808
5,057500	0,1	0,466258
5,059167	0,1	0,502671
5,060833	0,1	0,505287
5,062500	0,1	0,445663
5,064167	0,1	0,476623
5,065833	0,1	0,457677
5,067500	0,1	0,450781
5,069167	0,1	0,475271
5,070833	0,1	0,482234
5,072500	0,1	0,503220
5,074167	0,1	0,454884
5,075833	0,1	0,504017
5,077500	0,1	0,532621
5,079167	0,1	0,507552
5,080833	0,1	0,531977
5,082500	0,1	0,519510
5,084167	0,1	0,492399
5,085833	0,1	0,519077
5,087500	0,1	0,481286
5,089167	0,1	0,555469
5,090833	0,1	0,534115
5,092500	0,1	0,541749
5,094167	0,1	0,539657
5,095833	0,1	0,531372
5,097500	0,1	0,504005
5,099167	0,1	0,480729
5,100833	0,1	0,502030
5,102500	0,1	0,538002
5,104167	0,1	0,503037
5,105833	0,1	0,527140
5,107500	0,1	0,513673
5,109167	0,1	0,514959
5,110833	0,1	0,532813
5,112500	0,1	0,558964
5,114167	0,1	0,528217
5,115833	0,1	0,549515
5,117500	0,1	0,531310
5,119167	0,1	0,536174
5,120833	0,1	0,561252
5,122500	0,1	0,557743
5,124167	0,1	0,531828
5,125833	0,1	0,551707
5,127500	0,1	0,554454
5,129167	0,1	0,504271
5,130833	0,1	0,486461
5,132500	0,1	0,522559
5,134167	0,1	0,527789
5,135833	0,1	0,548518
5,137500	0,1	0,568636
5,139167	0,1	0,515744
5,140833	0,1	0,525693
5,142500	0,1	0,542231
5,144167	0,1	0,533210
5,145833	0,1	0,506683
5,147500	0,1	0,557053
5,149167	0,1	0,509556
5,150833	0,1	0,497392
5,152500	0,1	0,525657
5,154167	0,1	0,517963
5,155833	0,1	0,512770
5,157500	0,1	0,551416
5,159167	0,1	0,499113
5,160833	0,1	0,530038
5,162500	0,1	0,506775
5,164167	0,1	0,506513
5,165833	0,1	0,468739
5,167500	0,1	0,492487
5,169167	0,1	0,496296
5,170833	0,1	0,519049
5,172500	0,1	0,485181
5,174167	0,1	0,504642
5,175833	0,1	0,493557
5,177500	0,1	0,493004
5,179167	0,1	0,510638
5,180833	0,1	0,450213
5,182500	0,1	0,485520
5,184167	0,1	0,468409
5,185833	0,1	0,499029
5,187500	0,1	0,498909
5,189167	0,1	0,468384
5,190833	0,1	0,472795
5,192500	0,1	0,469476
5,194167	0,1	0,467024
5,195833	0,1	0,421425
5,197500	0,1	0,468527
5,199167	0,1	0,477017
5,200833	0,1	0,450594
5,202500	0,1	0,427450
5,204167	0,1	0,464731
5,205833	0,1	0,463934
5,207500	0,1	0,467610
5,209167	0,1	0,446879
5,210833	0,1	0,456287
5,212500	0,1	0,440502
5,214167	0,1	0,446463
5,215833	0,1	0,481977
5,217500	0,1	0,427038
5,219167	0,1	0,390610
5,220833	0,1	0,430883
5,222500	0,1	0,433762
5,224167	0,1	0,420030
5,225833	0,1	0,437181
5,227500	0,1	0,414656
5,229167	0,1	0,396606
5,230833	0,1	0,409618
5,232500	0,1	0,399474
5,234167	0,1	0,424804
5,235833	0,1	0,406148
5,237500	0,1	0,382646
5,239167	0,1	0,414871
5,240833	0,1	0,418355
5,242500	0,1	0,378792
5,244167	0,1	0,383709
5,245833	0,1	0,392088
5,247500	0,1	0,370635
5,249167	0,1	0,386031
5,250833	0,1	0,399113
5,252500	0,1	0,356499
5,254167	0,1	0,390475
5,255833	0,1	0,395603
5,257500	0,1	0,363474
5,259167	0,1	0,361480
5,260833	0,1	0,349226
5,262500	0,1	0,355578
5,264167	0,1	0,352548
5,265833	0,1	0,336084
5,267500	0,1	0,371519
5,269167	0,1	0,354584
5,270833	0,1	0,322806
5,272500	0,1	0,379223
5,274167	0,1	0,331580
5,275833	0,1	0,368941
5,277500	0,1	0,351780
5,279167	0,1	0,289617
5,280833	0,1	0,329625
5,282500	0,1	0,334121
5,284167	0,1	0,324319
5,285833	0,1	0,333274
5,287500	0,1	0,334438
5,289167	0,1	0,310951
5,290833	0,1	0,300826
5,292500	0,1	0,328529
5,294167	0,1	0,320060
5,295833	0,1	0,341977
5,297500	0,1	0,268495
5,299167	0,1	0,358753
5,300833	0,1	0,298261
5,302500	0,1	0,320026
5,304167	0,1	0,315686
5,305833	0,1	0,280981
5,307500	0,1	0,319188
5,309167	0,1	0,337719
5,310833	0,1	0,262155
5,312500	0,1	0,307941
5,314167	0,1	0,297720
5,315833	0,1	0,285500
5,317500	0,1	0,280369
5,319167	0,1	0,279990
5,320833	0,1	0,265173
5,322500	0,1	0,262781
5,324167	0,1	0,267683
5,325833	0,1	0,239220
5,327500	0,1	0,225041
5,329167	0,1	0,279685
5,330833	0,1	0,269642
5,332500	0,1	0,256111
5,334167	0,1	0,269866
5,335833	0,1	0,266711
5,337500	0,1	0,272419
5,339167	0,1	0,294351
5,340833	0,1	0,228857
5,342500	0,1	0,278320
5,344167	0,1	0,219332
5,345833	0,1	0,243090
5,347500	0,1	0,248186
5,349167	0,1	0,259138
5,350833	0,1	0,240500
5,352500	0,1	0,216708
5,354167	0,1	0,222642
5,355833	0,1	0,246688
5,357500	0,1	0,234329
5,359167	0,1	0,245569
5,360833	0,1	0,248793
5,362500	0,1	0,240356
5,364167	0,1	0,238359
5,365833	0,1	0,234013
5,367500	0,1	0,248247
5,369167	0,1	0,256876
5,370833	0,1	0,224191
5,372500	0,1	0,228400
5,374167	0,1	0,187719
5,375833	0,1	0,252000
5,377500	0,1	0,261009
5,379167	0,1	0,208047
5,380833	0,1	0,224572
5,382500	0,1	0,195904
5,384167	0,1	0,188019
5,385833	0,1	0,208691
5,387500	0,1	0,198995
5,389167	0,1	0,215009
5,390833	0,1	0,247535
5,392500	0,1	0,220032
5,394167	0,1	0,187819
5,395833	0,1	0,213554
5,397500	0,1	0,220793
5,399167	0,1	0,220443
5,400833	0,1	0,216908
5,402500	0,1	0,222830
5,404167	0,1	0,189731
5,405833	0,1	0,157956
5,407500	0,1	0,180886
5,409167	0,1	0,199695
5,410833	0,1	0,192385
5,412500	0,1	0,161240
5,414167	0,1	0,165799
5,415833	0,1	0,184296
5,417500	0,1	0,181432
5,419167	0,1	0,179603
5,420833	0,1	0,194250
5,422500	0,1	0,182308
5,424167	0,1	0,190821
5,425833	0,1	0,199071
5,427500	0,1	0,178796
5,429167	0,1	0,166908
5,430833	0,1	0,206321
5,432500	0,1	0,187565
5,434167	0,1	0,160178
5,435833	0,1	0,184002
5,437500	0,1	0,171293
5,439167	0,1	0,139087
5,440833	0,1	0,169640
5,442500	0,1	0,166489
5,444167	0,1	0,175610
5,445833	0,1	0,175758
5,447500	0,1	0,158991
5,449167	0,1	0,176315
5,450833	0,1	0,176340
5,452500	0,1	0,176194
5,454167	0,1	0,171873
5,455833	0,1	0,150680
5,457500	0,1	0,169186
5,459167	0,1	0,149619
5,460833	0,1	0,169580
5,462500	0,1	0,150348
5,464167	0,1	0,142572
5,465833	0,1	0,173090
5,467500	0,1	0,164581
5,469167	0,1	0,153232
5,470833	0,1	0,173799
5,472500	0,1	0,161338
5,474167	0,1	0,170644
5,475833	0,1	0,117751
5,477500	0,1	0,133465
5,479167	0,1	0,151480
5,480833	0,1	0,134739
5,482500	0,1	0,139203
5,484167	0,1	0,164467
5,485833	0,1	0,107570
5,487500	0,1	0,131468
5,489167	0,1	0,166190
5,490833	0,1	0,124918
5,492500	0,1	0,127484
5,494167	0,1	0,135649
5,495833	0,1	0,177574
5,497500	0,1	0,111416
5,499167	0,1	0,120064
5,500833	0,1	0,146367
5,502500	0,1	0,175023
5,504167	0,1	0,106119
5,505833	0,1	0,164002
5,507500	0,1	0,171453
5,509167	0,1	0,107988
5,510833	0,1	0,153823
5,512500	0,1	0,143674
5,514167	0,1	0,119987
5,515833	0,1	0,126901
5,517500	0,1	0,113441
5,519167	0,1	0,099622
5,520833	0,1	0,159075
5,522500	0,1	0,143281
5,524167	0,1	0,130873
5,525833	0,1	0,112235
5,527500	0,1	0,155174
5,529167	0,1	0,117871
5,530833	0,1	0,119794
5,532500	0,1	0,149856
5,534167	0,1	0,142490
5,535833	0,1	0,125783
5,537500	0,1	0,093499
5,539167	0,1	0,147274
5,540833	0,1	0,143590
5,542500	0,1	0,117122
5,544167	0,1	0,162779
5,545833	0,1	0,136612
5,547500	0,1	0,105818
5,549167	0,1	0,119315
5,550833	0,1	0,117779
5,552500	0,1	0,111152
5,554167	0,1	0,127957
5,555833	0,1	0,127672
5,557500	0,1	0,091920
5,559167	0,1	0,108010
5,560833	0,1	0,104897
5,562500	0,1	0,122990
5,564167	0,1	0,116638
5,565833	0,1	0,142541
5,567500	0,1	0,123416
5,569167	0,1	0,132800
5,570833	0,1	0,112901
5,572500	0,1	0,074321
5,574167	0,1	0,127742
5,575833	0,1	0,131618
5,577500	0,1	0,156342
5,579167	0,1	0,129423
5,580833	0,1	0,098462
5,582500	0,1	0,123551
5,584167	0,1	0,110345
5,585833	0,1	0,115534
5,587500	0,1	0,097899
5,589167	0,1	0,121264
5,590833	0,1	0,099561
5,592500	0,1	0,075396
5,594167	0,1	0,103352
5,595833	0,1	0,118295
5,597500	0,1	0,090442
5,599167	0,1	0,093988
5,600833	0,1	0,106514
5,602500	0,1	0,086202
5,604167	0,1	0,109692
5,605833	0,1	0,108886
5,607500	0,1	0,128164
5,609167	0,1	0,112048
5,610833	0,1	0,103466
5,612500	0,1	0,120601
5,614167	0,1	0,092851
5,615833	0,1	0,140978
5,617500	0,1	0,076508
5,619167	0,1	0,100692
5,620833	0,1	0,118254
5,622500	0,1	0,107413
5,624167	0,1	0,076562
5,625833	0,1	0,076058
5,627500	0,1	0,146189
5,629167	0,1	0,101023
5,630833	0,1	0,138134
5,632500	0,1	0,106254
5,634167	0,1	0,120622
5,635833	0,1	0,140051
5,637500	0,1	0,144107
5,639167	0,1	0,112157
5,640833	0,1	0,124074
5,642500	0,1	0,087099
5,644167	0,1	0,148955
5,645833	0,1	0,127052
5,647500	0,1	0,121626
5,649167	0,1	0,123327
5,650833	0,1	0,108578
5,652500	0,1	0,117465
5,654167	0,1	0,131408
5,655833	0,1	0,110741
5,657500	0,1	0,124405
5,659167	0,1	0,127254
5,660833	0,1	0,132344
5,662500	0,1	0,098693
5,664167	0,1	0,099391
5,665833	0,1	0,154152
5,667500	0,1	0,129837
5,669167	0,1	0,122520
5,670833	0,1	0,125925
5,672500	0,1	0,127898
5,674167	0,1	0,111198
5,675833	0,1	0,116240
5,677500	0,1	0,120211
5,679167	0,1	0,123120
5,680833	0,1	0,106583
5,682500	0,1	0,098768
5,684167	0,1	0,090833
5,685833	0,1	0,110856
5,687500	0,1	0,173914
5,689167	0,1	0,112164
5,690833	0,1	0,131240
5,692500	0,1	0,138411
5,694167	0,1	0,125471
5,695833	0,1	0,143542
5,697500	0,1	0,142341
5,699167	0,1	0,130501
5,700833	0,1	0,143106
5,702500	0,1	0,127031
5,704167	0,1	0,175475
5,705833	0,1	0,158491
5,707500	0,1	0,134638
5,709167	0,1	0,151460
5,710833	0,1	0,126886
5,712500	0,1	0,149900
5,714167	0,1	0,143942
5,715833	0,1	0,142301
5,717500	0,1	0,131559
5,719167	0,1	0,156611
5,720833	0,1	0,122983
5,722500	0,1	0,129705
5,724167	0,1	0,101038
5,725833	0,1	0,103193
5,727500	0,1	0,108594
5,729167	0,1	0,143558
5,730833	0,1	0,102329
5,732500	0,1	0,154860
5,734167	0,1	0,132706
5,735833	0,1	0,131287
5,737500	0,1	0,174209
5,739167	0,1	0,154213
5,740833	0,1	0,135738
5,742500	0,1	0,100147
5,744167	0,1	0,158060
5,745833	0,1	0,155287
5,747500	0,1	0,153335
5,749167	0,1	0,150446
5,750833	0,1	0,161561
5,752500	0,1	0,132001
5,754167	0,1	0,149297
5,755833	0,1	0,138583
5,757500	0,1	0,119884
5,759167	0,1	0,130535
5,760833	0,1	0,176410
5,762500	0,1	0,179247
5,764167	0,1	0,144386
5,765833	0,1	0,113277
5,767500	0,1	0,147715
5,769167	0,1	0,155617
5,770833	0,1	0,120697
5,772500	0,1	0,133631
5,774167	0,1	0,171156
5,775833	0,1	0,162125
5,777500	0,1	0,115525
5,779167	0,1	0,170445
5,780833	0,1	0,165970
5,782500	0,1	0,171039
5,784167	0,1	0,147834
5,785833	0,1	0,163470
5,787500	0,1	0,160007
5,789167	0,1	0,139561
5,790833	0,1	0,143545
5,792500	0,1	0,162556
5,794167	0,1	0,150386
5,795833	0,1	0,155348
5,797500	0,1	0,155993
5,799167	0,1	0,152733
5,800833	0,1	0,150903
5,802500	0,1	0,147912
5,804167	0,1	0,123168
5,805833	0,1	0,114893
5,807500	0,1	0,176075
5,809167	0,1	0,172830
5,810833	0,1	0,154232
5,812500	0,1	0,148057
5,814167	0,1	0,125163
5,815833	0,1	0,169386
5,817500	0,1	0,130984
5,819167	0,1	0,137954
5,820833	0,1	0,145290
5,822500	0,1	0,137087
5,824167	0,1	0,132928
5,825833	0,1	0,150027
5,827500	0,1	0,149075
5,829167	0,1	0,129796
5,830833	0,1	0,176472
5,832500	0,1	0,159448
5,834167	0,1	0,152836
5,835833	0,1	0,160626
5,837500	0,1	0,171413
5,839167	0,1	0,136242
5,840833	0,1	0,150609
5,842500	0,1	0,089056
5,844167	0,1	0,137073
5,845833	0,1	0,131538
5,847500	0,1	0,105609
5,849167	0,1	0,119957
5,850833	0,1	0,117094
5,852500	0,1	0,146448
5,854167	0,1	0,178346
5,855833	0,1	0,102651
5,857500	0,1	0,163065
5,859167	0,1	0,151217
5,860833	0,1	0,139434
5,862500	0,1	0,146079
5,864167	0,1	0,133450
5,865833	0,1	0,153267
5,867500	0,1	0,172324
5,869167	0,1	0,154814
5,870833	0,1	0,127616
5,872500	0,1	0,115912
5,874167	0,1	0,144683
5,875833	0,1	0,155866
5,877500	0,1	0,161727
5,879167	0,1	0,121821
5,880833	0,1	0,127878
5,882500	0,1	0,154823
5,884167	0,1	0,131915
5,885833	0,1	0,151354
5,887500	0,1	0,104639
5,889167	0,1	0,142581
5,890833	0,1	0,100898
5,892500	0,1	0,149021
5,894167	0,1	0,154891
5,895833	0,1	0,108647
5,897500	0,1	0,120520
5,899167	0,1	0,143895
5,900833	0,1	0,124683
5,902500	0,1	0,110572
5,904167	0,1	0,112482
5,905833	0,1	0,154238
5,907500	0,1	0,125994
5,909167	0,1	0,117637
5,910833	0,1	0,136955
5,912500	0,1	0,124369
5,914167	0,1	0,134151
5,915833	0,1	0,137209
5,917500	0,1	0,119861
5,919167	0,1	0,121914
5,920833	0,1	0,139635
5,922500	0,1	0,133573
5,924167	0,1	0,137853
5,925833	0,1	0,096824
5,927500	0,1	0,162649
5,929167	0,1	0,130609
5,930833	0,1	0,106087
5,932500	0,1	0,152659
5,934167	0,1	0,111204
5,935833	0,1	0,120147
5,937500	0,1	0,110966
5,939167	0,1	0,109511
5,940833	0,1	0,113188
5,942500	0,1	0,083856
5,944167	0,1	0,117002
5,945833	0,1	0,072305
5,947500	0,1	0,137441
5,949167	0,1	0,082760
5,950833	0,1	0,116090
5,952500	0,1	0,128894
5,954167	0,1	0,112278
5,955833	0,1	0,141213
5,957500	0,1	0,094165
5,959167	0,1	0,083748
5,960833	0,1	0,108922
5,962500	0,1	0,104483
5,964167	0,1	0,110526
5,965833	0,1	0,074341
5,967500	0,1	0,096330
5,969167	0,1	0,091122
5,970833	0,1	0,103150
5,972500	0,1	0,128517
5,974167	0,1	0,104404
5,975833	0,1	0,075335
5,977500	0,1	0,135450
5,979167	0,1	0,086915
5,980833	0,1	0,131504
5,982500	0,1	0,088327
5,984167	0,1	0,090351
5,985833	0,1	0,086532
5,987500	0,1	0,102004
5,989167	0,1	0,070517
5,990833	0,1	0,080336
5,992500	0,1	0,118332
5,994167	0,1	0,121624
5,995833	0,1	0,107933
5,997500	0,1	0,101033
5,999167	0,1	0,108074
6,000833	0,1	0,101533
