File Path	chrom://chromeleon01/ikbm_chromeleon/2022/Rezex/Esteban/220612_chitin_4_7.seq/451.smp/UV_VIS_1.channel/UV_VIS_1.chm
Channel	UV_VIS_1

Injection Information:
Data Vault	ikbm_chromeleon
Injection	4_24h-ChiBI_NA
Injection Number	46
Position	GA1
Comment	
Processing Method	New ProcMethod
Instrument Method	Short_Rezex_6min_194nm
Type	Unknown
Status	Finished
Injection Date	12.06.2022
Injection Time	22:05:35
Injection Volume (µl)	8,000
Dilution Factor	1,0000
Weight	1,0000

Chromatogram Data Information:
Time Min. (min)	0,000833
Time Max. (min)	6,000833
Data Points	3601
Detector	UV
Generating Data System	Chromeleon 7.2.9.11323
Exporting Data System	Chromeleon 7.2.9.0
Operator	Instrument Controller
Signal Quantity	Absorbance
Signal Unit	mAU
Signal Min.	-0,120868
Signal Max.	145,078831
Channel	UV_VIS_1
Driver Name	VWD3000.dll
Channel Type	Evaluation
Min. Step (s)	0,1
Max. Step (s)	0,1
Average Step (s)	0,1

Signal Parameter Information:
Signal Info	WVL:194 nm

Chromatogram Data:
Time (min)	Step (s)	Value (mAU)
0,000833	n.a.	-0,010297
0,002500	0,1	-0,038315
0,004167	0,1	-0,104245
0,005833	0,1	-0,030323
0,007500	0,1	-0,068498
0,009167	0,1	-0,014235
0,010833	0,1	-0,012296
0,012500	0,1	-0,023565
0,014167	0,1	-0,047337
0,015833	0,1	-0,038259
0,017500	0,1	0,025062
0,019167	0,1	-0,025517
0,020833	0,1	-0,028307
0,022500	0,1	-0,003373
0,024167	0,1	-0,045015
0,025833	0,1	-0,013396
0,027500	0,1	-0,080634
0,029167	0,1	-0,041262
0,030833	0,1	-0,087211
0,032500	0,1	-0,051121
0,034167	0,1	-0,049471
0,035833	0,1	-0,070240
0,037500	0,1	-0,070342
0,039167	0,1	-0,120868
0,040833	0,1	-0,052222
0,042500	0,1	-0,067540
0,044167	0,1	-0,082223
0,045833	0,1	-0,058010
0,047500	0,1	-0,081897
0,049167	0,1	-0,087768
0,050833	0,1	-0,050188
0,052500	0,1	-0,036102
0,054167	0,1	-0,044017
0,055833	0,1	-0,055975
0,057500	0,1	-0,028503
0,059167	0,1	-0,028729
0,060833	0,1	-0,032067
0,062500	0,1	-0,054777
0,064167	0,1	-0,063897
0,065833	0,1	-0,079646
0,067500	0,1	-0,036753
0,069167	0,1	-0,051363
0,070833	0,1	0,000195
0,072500	0,1	-0,024141
0,074167	0,1	-0,046308
0,075833	0,1	-0,030275
0,077500	0,1	-0,004439
0,079167	0,1	-0,016861
0,080833	0,1	-0,070033
0,082500	0,1	-0,018165
0,084167	0,1	-0,016995
0,085833	0,1	-0,000280
0,087500	0,1	0,007359
0,089167	0,1	-0,021368
0,090833	0,1	0,003649
0,092500	0,1	-0,002303
0,094167	0,1	-0,004433
0,095833	0,1	-0,024626
0,097500	0,1	-0,030400
0,099167	0,1	0,000779
0,100833	0,1	-0,015571
0,102500	0,1	0,025068
0,104167	0,1	0,007077
0,105833	0,1	-0,015447
0,107500	0,1	-0,022408
0,109167	0,1	-0,022763
0,110833	0,1	-0,065821
0,112500	0,1	0,000222
0,114167	0,1	-0,048393
0,115833	0,1	-0,025736
0,117500	0,1	-0,013101
0,119167	0,1	-0,058573
0,120833	0,1	-0,039042
0,122500	0,1	-0,030787
0,124167	0,1	-0,064860
0,125833	0,1	-0,026415
0,127500	0,1	-0,050298
0,129167	0,1	-0,006312
0,130833	0,1	-0,011454
0,132500	0,1	-0,042410
0,134167	0,1	-0,014684
0,135833	0,1	-0,051553
0,137500	0,1	-0,062576
0,139167	0,1	0,007505
0,140833	0,1	0,029134
0,142500	0,1	0,016442
0,144167	0,1	-0,023912
0,145833	0,1	-0,036680
0,147500	0,1	0,010601
0,149167	0,1	-0,032968
0,150833	0,1	-0,008819
0,152500	0,1	-0,010325
0,154167	0,1	0,005845
0,155833	0,1	-0,037507
0,157500	0,1	-0,022506
0,159167	0,1	-0,017668
0,160833	0,1	-0,001243
0,162500	0,1	0,037481
0,164167	0,1	0,002598
0,165833	0,1	0,004522
0,167500	0,1	0,048425
0,169167	0,1	-0,003320
0,170833	0,1	0,034194
0,172500	0,1	0,009721
0,174167	0,1	-0,025267
0,175833	0,1	0,011575
0,177500	0,1	0,016120
0,179167	0,1	0,056120
0,180833	0,1	0,015712
0,182500	0,1	-0,035993
0,184167	0,1	0,034961
0,185833	0,1	0,001635
0,187500	0,1	0,027360
0,189167	0,1	-0,010765
0,190833	0,1	-0,023404
0,192500	0,1	0,015375
0,194167	0,1	-0,007293
0,195833	0,1	0,024137
0,197500	0,1	0,003182
0,199167	0,1	0,021794
0,200833	0,1	0,026142
0,202500	0,1	0,044892
0,204167	0,1	0,071655
0,205833	0,1	0,029889
0,207500	0,1	-0,009448
0,209167	0,1	0,047879
0,210833	0,1	-0,005867
0,212500	0,1	0,027489
0,214167	0,1	-0,031763
0,215833	0,1	0,045588
0,217500	0,1	0,030049
0,219167	0,1	0,034136
0,220833	0,1	0,013100
0,222500	0,1	0,030751
0,224167	0,1	0,033810
0,225833	0,1	0,043082
0,227500	0,1	0,043028
0,229167	0,1	-0,000361
0,230833	0,1	0,022850
0,232500	0,1	0,007691
0,234167	0,1	0,031881
0,235833	0,1	0,039831
0,237500	0,1	0,009723
0,239167	0,1	0,005494
0,240833	0,1	0,045531
0,242500	0,1	0,011366
0,244167	0,1	0,044663
0,245833	0,1	0,034232
0,247500	0,1	0,013587
0,249167	0,1	0,023180
0,250833	0,1	0,006367
0,252500	0,1	0,026940
0,254167	0,1	0,005947
0,255833	0,1	0,054260
0,257500	0,1	0,016739
0,259167	0,1	0,038800
0,260833	0,1	0,075847
0,262500	0,1	0,051729
0,264167	0,1	0,057522
0,265833	0,1	0,059165
0,267500	0,1	0,053854
0,269167	0,1	0,026316
0,270833	0,1	0,059354
0,272500	0,1	0,057982
0,274167	0,1	0,064293
0,275833	0,1	0,026506
0,277500	0,1	0,073688
0,279167	0,1	0,077854
0,280833	0,1	0,063811
0,282500	0,1	0,061904
0,284167	0,1	0,036404
0,285833	0,1	0,080014
0,287500	0,1	0,050991
0,289167	0,1	0,071984
0,290833	0,1	0,051094
0,292500	0,1	0,065515
0,294167	0,1	0,079140
0,295833	0,1	0,054700
0,297500	0,1	0,049893
0,299167	0,1	0,087094
0,300833	0,1	0,057858
0,302500	0,1	0,036299
0,304167	0,1	0,050441
0,305833	0,1	0,051602
0,307500	0,1	0,102977
0,309167	0,1	0,033154
0,310833	0,1	0,048403
0,312500	0,1	0,031534
0,314167	0,1	0,075044
0,315833	0,1	0,112398
0,317500	0,1	0,096811
0,319167	0,1	0,086945
0,320833	0,1	0,041142
0,322500	0,1	0,035006
0,324167	0,1	0,085511
0,325833	0,1	0,088111
0,327500	0,1	0,062826
0,329167	0,1	0,061008
0,330833	0,1	0,056982
0,332500	0,1	0,027121
0,334167	0,1	0,099265
0,335833	0,1	0,089825
0,337500	0,1	0,075385
0,339167	0,1	0,069703
0,340833	0,1	0,071803
0,342500	0,1	0,087033
0,344167	0,1	0,077671
0,345833	0,1	0,093515
0,347500	0,1	0,109918
0,349167	0,1	0,071299
0,350833	0,1	0,127495
0,352500	0,1	0,109097
0,354167	0,1	0,099612
0,355833	0,1	0,098387
0,357500	0,1	0,077703
0,359167	0,1	0,121579
0,360833	0,1	0,078324
0,362500	0,1	0,112742
0,364167	0,1	0,131963
0,365833	0,1	0,099880
0,367500	0,1	0,086629
0,369167	0,1	0,110664
0,370833	0,1	0,076231
0,372500	0,1	0,078248
0,374167	0,1	0,165753
0,375833	0,1	0,101875
0,377500	0,1	0,114944
0,379167	0,1	0,106570
0,380833	0,1	0,118824
0,382500	0,1	0,129966
0,384167	0,1	0,094081
0,385833	0,1	0,135049
0,387500	0,1	0,115083
0,389167	0,1	0,104453
0,390833	0,1	0,137141
0,392500	0,1	0,171082
0,394167	0,1	0,099283
0,395833	0,1	0,107474
0,397500	0,1	0,125584
0,399167	0,1	0,121972
0,400833	0,1	0,137831
0,402500	0,1	0,123395
0,404167	0,1	0,173194
0,405833	0,1	0,145667
0,407500	0,1	0,133417
0,409167	0,1	0,151523
0,410833	0,1	0,135839
0,412500	0,1	0,194570
0,414167	0,1	0,148513
0,415833	0,1	0,139705
0,417500	0,1	0,157837
0,419167	0,1	0,132394
0,420833	0,1	0,167082
0,422500	0,1	0,144023
0,424167	0,1	0,179710
0,425833	0,1	0,166317
0,427500	0,1	0,166287
0,429167	0,1	0,140354
0,430833	0,1	0,159126
0,432500	0,1	0,184108
0,434167	0,1	0,149207
0,435833	0,1	0,147030
0,437500	0,1	0,152659
0,439167	0,1	0,184643
0,440833	0,1	0,205654
0,442500	0,1	0,162867
0,444167	0,1	0,175374
0,445833	0,1	0,181558
0,447500	0,1	0,134952
0,449167	0,1	0,165032
0,450833	0,1	0,170312
0,452500	0,1	0,167801
0,454167	0,1	0,192776
0,455833	0,1	0,183562
0,457500	0,1	0,219544
0,459167	0,1	0,196764
0,460833	0,1	0,203121
0,462500	0,1	0,196900
0,464167	0,1	0,190850
0,465833	0,1	0,223761
0,467500	0,1	0,227421
0,469167	0,1	0,171655
0,470833	0,1	0,198868
0,472500	0,1	0,220276
0,474167	0,1	0,155161
0,475833	0,1	0,203217
0,477500	0,1	0,274576
0,479167	0,1	0,193579
0,480833	0,1	0,210673
0,482500	0,1	0,238772
0,484167	0,1	0,263939
0,485833	0,1	0,215135
0,487500	0,1	0,267759
0,489167	0,1	0,225961
0,490833	0,1	0,232595
0,492500	0,1	0,201395
0,494167	0,1	0,229901
0,495833	0,1	0,212285
0,497500	0,1	0,241929
0,499167	0,1	0,224309
0,500833	0,1	0,222636
0,502500	0,1	0,242996
0,504167	0,1	0,231350
0,505833	0,1	0,232619
0,507500	0,1	0,235975
0,509167	0,1	0,245223
0,510833	0,1	0,240202
0,512500	0,1	0,259538
0,514167	0,1	0,231222
0,515833	0,1	0,287101
0,517500	0,1	0,243277
0,519167	0,1	0,274007
0,520833	0,1	0,266835
0,522500	0,1	0,261434
0,524167	0,1	0,244139
0,525833	0,1	0,288767
0,527500	0,1	0,264795
0,529167	0,1	0,232711
0,530833	0,1	0,290278
0,532500	0,1	0,221875
0,534167	0,1	0,281629
0,535833	0,1	0,310628
0,537500	0,1	0,298320
0,539167	0,1	0,259972
0,540833	0,1	0,305111
0,542500	0,1	0,272445
0,544167	0,1	0,273082
0,545833	0,1	0,277304
0,547500	0,1	0,281530
0,549167	0,1	0,311717
0,550833	0,1	0,352850
0,552500	0,1	0,274745
0,554167	0,1	0,296377
0,555833	0,1	0,337507
0,557500	0,1	0,332339
0,559167	0,1	0,342453
0,560833	0,1	0,336429
0,562500	0,1	0,323046
0,564167	0,1	0,343894
0,565833	0,1	0,335230
0,567500	0,1	0,355681
0,569167	0,1	0,353662
0,570833	0,1	0,329585
0,572500	0,1	0,328557
0,574167	0,1	0,345318
0,575833	0,1	0,360775
0,577500	0,1	0,346528
0,579167	0,1	0,385787
0,580833	0,1	0,379860
0,582500	0,1	0,387640
0,584167	0,1	0,374525
0,585833	0,1	0,377055
0,587500	0,1	0,353780
0,589167	0,1	0,373893
0,590833	0,1	0,334237
0,592500	0,1	0,367196
0,594167	0,1	0,344795
0,595833	0,1	0,358751
0,597500	0,1	0,380719
0,599167	0,1	0,390998
0,600833	0,1	0,375238
0,602500	0,1	0,404646
0,604167	0,1	0,379263
0,605833	0,1	0,415924
0,607500	0,1	0,377910
0,609167	0,1	0,404761
0,610833	0,1	0,382621
0,612500	0,1	0,401851
0,614167	0,1	0,397607
0,615833	0,1	0,414882
0,617500	0,1	0,429360
0,619167	0,1	0,442241
0,620833	0,1	0,464787
0,622500	0,1	0,467660
0,624167	0,1	0,437312
0,625833	0,1	0,438084
0,627500	0,1	0,435418
0,629167	0,1	0,443618
0,630833	0,1	0,432571
0,632500	0,1	0,475507
0,634167	0,1	0,456547
0,635833	0,1	0,489035
0,637500	0,1	0,471737
0,639167	0,1	0,458217
0,640833	0,1	0,474896
0,642500	0,1	0,482764
0,644167	0,1	0,487021
0,645833	0,1	0,463420
0,647500	0,1	0,473424
0,649167	0,1	0,495403
0,650833	0,1	0,518223
0,652500	0,1	0,524658
0,654167	0,1	0,525919
0,655833	0,1	0,486164
0,657500	0,1	0,484460
0,659167	0,1	0,520375
0,660833	0,1	0,534469
0,662500	0,1	0,527549
0,664167	0,1	0,571089
0,665833	0,1	0,554429
0,667500	0,1	0,528182
0,669167	0,1	0,558221
0,670833	0,1	0,536382
0,672500	0,1	0,563383
0,674167	0,1	0,598952
0,675833	0,1	0,563753
0,677500	0,1	0,601958
0,679167	0,1	0,569627
0,680833	0,1	0,611210
0,682500	0,1	0,610779
0,684167	0,1	0,603361
0,685833	0,1	0,590321
0,687500	0,1	0,638310
0,689167	0,1	0,631225
0,690833	0,1	0,626081
0,692500	0,1	0,658100
0,694167	0,1	0,616087
0,695833	0,1	0,625297
0,697500	0,1	0,613906
0,699167	0,1	0,654057
0,700833	0,1	0,665763
0,702500	0,1	0,650350
0,704167	0,1	0,699498
0,705833	0,1	0,694331
0,707500	0,1	0,640916
0,709167	0,1	0,692435
0,710833	0,1	0,718326
0,712500	0,1	0,697835
0,714167	0,1	0,673365
0,715833	0,1	0,699374
0,717500	0,1	0,744358
0,719167	0,1	0,755848
0,720833	0,1	0,696151
0,722500	0,1	0,742574
0,724167	0,1	0,693734
0,725833	0,1	0,739318
0,727500	0,1	0,765348
0,729167	0,1	0,763378
0,730833	0,1	0,737634
0,732500	0,1	0,773834
0,734167	0,1	0,862704
0,735833	0,1	0,786111
0,737500	0,1	0,804041
0,739167	0,1	0,824340
0,740833	0,1	0,805987
0,742500	0,1	0,797798
0,744167	0,1	0,845213
0,745833	0,1	0,821826
0,747500	0,1	0,852719
0,749167	0,1	0,848799
0,750833	0,1	0,864645
0,752500	0,1	0,864418
0,754167	0,1	0,870458
0,755833	0,1	0,895197
0,757500	0,1	0,935597
0,759167	0,1	0,920711
0,760833	0,1	0,875856
0,762500	0,1	0,969185
0,764167	0,1	0,915095
0,765833	0,1	0,930645
0,767500	0,1	0,970044
0,769167	0,1	0,978238
0,770833	0,1	0,959933
0,772500	0,1	0,942566
0,774167	0,1	0,948165
0,775833	0,1	0,969620
0,777500	0,1	1,022064
0,779167	0,1	1,011180
0,780833	0,1	0,978167
0,782500	0,1	0,991571
0,784167	0,1	0,993233
0,785833	0,1	0,977002
0,787500	0,1	1,027965
0,789167	0,1	1,002211
0,790833	0,1	1,017911
0,792500	0,1	1,014983
0,794167	0,1	1,054372
0,795833	0,1	1,050864
0,797500	0,1	1,031692
0,799167	0,1	1,030047
0,800833	0,1	1,045325
0,802500	0,1	1,049563
0,804167	0,1	1,046981
0,805833	0,1	1,078038
0,807500	0,1	1,056464
0,809167	0,1	1,105470
0,810833	0,1	1,064054
0,812500	0,1	1,057386
0,814167	0,1	1,107975
0,815833	0,1	1,118756
0,817500	0,1	1,117257
0,819167	0,1	1,132617
0,820833	0,1	1,130677
0,822500	0,1	1,139922
0,824167	0,1	1,178974
0,825833	0,1	1,154222
0,827500	0,1	1,172583
0,829167	0,1	1,215884
0,830833	0,1	1,184378
0,832500	0,1	1,203825
0,834167	0,1	1,143463
0,835833	0,1	1,152570
0,837500	0,1	1,187887
0,839167	0,1	1,203164
0,840833	0,1	1,193130
0,842500	0,1	1,206834
0,844167	0,1	1,225925
0,845833	0,1	1,250701
0,847500	0,1	1,248200
0,849167	0,1	1,225447
0,850833	0,1	1,219974
0,852500	0,1	1,286022
0,854167	0,1	1,259256
0,855833	0,1	1,322790
0,857500	0,1	1,283814
0,859167	0,1	1,243528
0,860833	0,1	1,290188
0,862500	0,1	1,309155
0,864167	0,1	1,296734
0,865833	0,1	1,322870
0,867500	0,1	1,326538
0,869167	0,1	1,328402
0,870833	0,1	1,377158
0,872500	0,1	1,330850
0,874167	0,1	1,395326
0,875833	0,1	1,381341
0,877500	0,1	1,366537
0,879167	0,1	1,373072
0,880833	0,1	1,425208
0,882500	0,1	1,417322
0,884167	0,1	1,390750
0,885833	0,1	1,377605
0,887500	0,1	1,431744
0,889167	0,1	1,397864
0,890833	0,1	1,466223
0,892500	0,1	1,476366
0,894167	0,1	1,484627
0,895833	0,1	1,478739
0,897500	0,1	1,482043
0,899167	0,1	1,472921
0,900833	0,1	1,518312
0,902500	0,1	1,521484
0,904167	0,1	1,539946
0,905833	0,1	1,541530
0,907500	0,1	1,545625
0,909167	0,1	1,534710
0,910833	0,1	1,559486
0,912500	0,1	1,586722
0,914167	0,1	1,569199
0,915833	0,1	1,586866
0,917500	0,1	1,602319
0,919167	0,1	1,593342
0,920833	0,1	1,624590
0,922500	0,1	1,634653
0,924167	0,1	1,631567
0,925833	0,1	1,656278
0,927500	0,1	1,684528
0,929167	0,1	1,693449
0,930833	0,1	1,710485
0,932500	0,1	1,678079
0,934167	0,1	1,732611
0,935833	0,1	1,754824
0,937500	0,1	1,739097
0,939167	0,1	1,713077
0,940833	0,1	1,790334
0,942500	0,1	1,784380
0,944167	0,1	1,770002
0,945833	0,1	1,760947
0,947500	0,1	1,829793
0,949167	0,1	1,830611
0,950833	0,1	1,840381
0,952500	0,1	1,855845
0,954167	0,1	1,836592
0,955833	0,1	1,843419
0,957500	0,1	1,888907
0,959167	0,1	1,907477
0,960833	0,1	1,908621
0,962500	0,1	1,887064
0,964167	0,1	1,938159
0,965833	0,1	1,949745
0,967500	0,1	1,971269
0,969167	0,1	1,987220
0,970833	0,1	1,972646
0,972500	0,1	2,031229
0,974167	0,1	2,038947
0,975833	0,1	2,063882
0,977500	0,1	2,060590
0,979167	0,1	2,096773
0,980833	0,1	2,086289
0,982500	0,1	2,098436
0,984167	0,1	2,110302
0,985833	0,1	2,119855
0,987500	0,1	2,134198
0,989167	0,1	2,176119
0,990833	0,1	2,175197
0,992500	0,1	2,236631
0,994167	0,1	2,245365
0,995833	0,1	2,239886
0,997500	0,1	2,255726
0,999167	0,1	2,223579
1,000833	0,1	2,331324
1,002500	0,1	2,274678
1,004167	0,1	2,278550
1,005833	0,1	2,330934
1,007500	0,1	2,338431
1,009167	0,1	2,387410
1,010833	0,1	2,424900
1,012500	0,1	2,399476
1,014167	0,1	2,451638
1,015833	0,1	2,496372
1,017500	0,1	2,482700
1,019167	0,1	2,516752
1,020833	0,1	2,576528
1,022500	0,1	2,582605
1,024167	0,1	2,572426
1,025833	0,1	2,644118
1,027500	0,1	2,604656
1,029167	0,1	2,680819
1,030833	0,1	2,641057
1,032500	0,1	2,713059
1,034167	0,1	2,712630
1,035833	0,1	2,702520
1,037500	0,1	2,760213
1,039167	0,1	2,768293
1,040833	0,1	2,800010
1,042500	0,1	2,848181
1,044167	0,1	2,832165
1,045833	0,1	2,874077
1,047500	0,1	2,883346
1,049167	0,1	2,925502
1,050833	0,1	2,947332
1,052500	0,1	2,968115
1,054167	0,1	3,006035
1,055833	0,1	3,061176
1,057500	0,1	3,077057
1,059167	0,1	3,202356
1,060833	0,1	3,242738
1,062500	0,1	3,396670
1,064167	0,1	3,589140
1,065833	0,1	3,734023
1,067500	0,1	4,059900
1,069167	0,1	4,475738
1,070833	0,1	4,855743
1,072500	0,1	5,414630
1,074167	0,1	6,133835
1,075833	0,1	6,999451
1,077500	0,1	7,956045
1,079167	0,1	9,157672
1,080833	0,1	10,484609
1,082500	0,1	11,970391
1,084167	0,1	13,730738
1,085833	0,1	15,635292
1,087500	0,1	17,710559
1,089167	0,1	19,907947
1,090833	0,1	22,238647
1,092500	0,1	24,731758
1,094167	0,1	27,212739
1,095833	0,1	29,802294
1,097500	0,1	32,378175
1,099167	0,1	34,834896
1,100833	0,1	37,235093
1,102500	0,1	39,502381
1,104167	0,1	41,671210
1,105833	0,1	43,644026
1,107500	0,1	45,322805
1,109167	0,1	46,898706
1,110833	0,1	48,167686
1,112500	0,1	49,162836
1,114167	0,1	49,918540
1,115833	0,1	50,426513
1,117500	0,1	50,750703
1,119167	0,1	50,776335
1,120833	0,1	50,577565
1,122500	0,1	50,215455
1,124167	0,1	49,622353
1,125833	0,1	48,914362
1,127500	0,1	48,031669
1,129167	0,1	47,030089
1,130833	0,1	45,898264
1,132500	0,1	44,690750
1,134167	0,1	43,384528
1,135833	0,1	42,036351
1,137500	0,1	40,596004
1,139167	0,1	39,152532
1,140833	0,1	37,758858
1,142500	0,1	36,300707
1,144167	0,1	34,867202
1,145833	0,1	33,386445
1,147500	0,1	32,037025
1,149167	0,1	30,632134
1,150833	0,1	29,331458
1,152500	0,1	28,053827
1,154167	0,1	26,836624
1,155833	0,1	25,626782
1,157500	0,1	24,501396
1,159167	0,1	23,475476
1,160833	0,1	22,449156
1,162500	0,1	21,520014
1,164167	0,1	20,611298
1,165833	0,1	19,779591
1,167500	0,1	18,917554
1,169167	0,1	18,191912
1,170833	0,1	17,496877
1,172500	0,1	16,856358
1,174167	0,1	16,218358
1,175833	0,1	15,654329
1,177500	0,1	15,081026
1,179167	0,1	14,562964
1,180833	0,1	14,113663
1,182500	0,1	13,656492
1,184167	0,1	13,262597
1,185833	0,1	12,860413
1,187500	0,1	12,472990
1,189167	0,1	12,125275
1,190833	0,1	11,779227
1,192500	0,1	11,433874
1,194167	0,1	11,205215
1,195833	0,1	10,895622
1,197500	0,1	10,705892
1,199167	0,1	10,446033
1,200833	0,1	10,198487
1,202500	0,1	10,004467
1,204167	0,1	9,792866
1,205833	0,1	9,625542
1,207500	0,1	9,441611
1,209167	0,1	9,321165
1,210833	0,1	9,131239
1,212500	0,1	9,013740
1,214167	0,1	8,911276
1,215833	0,1	8,799901
1,217500	0,1	8,650429
1,219167	0,1	8,600211
1,220833	0,1	8,470256
1,222500	0,1	8,369314
1,224167	0,1	8,273578
1,225833	0,1	8,234758
1,227500	0,1	8,118179
1,229167	0,1	8,116357
1,230833	0,1	8,009613
1,232500	0,1	7,966254
1,234167	0,1	7,897403
1,235833	0,1	7,857856
1,237500	0,1	7,848108
1,239167	0,1	7,724392
1,240833	0,1	7,708981
1,242500	0,1	7,714101
1,244167	0,1	7,614321
1,245833	0,1	7,607980
1,247500	0,1	7,560382
1,249167	0,1	7,551730
1,250833	0,1	7,511666
1,252500	0,1	7,500234
1,254167	0,1	7,478110
1,255833	0,1	7,473813
1,257500	0,1	7,412638
1,259167	0,1	7,392949
1,260833	0,1	7,388340
1,262500	0,1	7,358493
1,264167	0,1	7,317684
1,265833	0,1	7,314301
1,267500	0,1	7,344978
1,269167	0,1	7,274443
1,270833	0,1	7,250660
1,272500	0,1	7,277275
1,274167	0,1	7,238939
1,275833	0,1	7,194768
1,277500	0,1	7,252800
1,279167	0,1	7,208246
1,280833	0,1	7,205993
1,282500	0,1	7,191568
1,284167	0,1	7,171710
1,285833	0,1	7,170784
1,287500	0,1	7,146928
1,289167	0,1	7,150113
1,290833	0,1	7,129255
1,292500	0,1	7,131215
1,294167	0,1	7,163848
1,295833	0,1	7,132047
1,297500	0,1	7,143924
1,299167	0,1	7,109875
1,300833	0,1	7,131196
1,302500	0,1	7,139534
1,304167	0,1	7,105204
1,305833	0,1	7,115007
1,307500	0,1	7,125292
1,309167	0,1	7,093985
1,310833	0,1	7,097445
1,312500	0,1	7,113488
1,314167	0,1	7,085480
1,315833	0,1	7,067977
1,317500	0,1	7,077988
1,319167	0,1	7,104073
1,320833	0,1	7,105475
1,322500	0,1	7,071352
1,324167	0,1	7,075540
1,325833	0,1	7,102593
1,327500	0,1	7,071436
1,329167	0,1	7,104072
1,330833	0,1	7,109501
1,332500	0,1	7,129426
1,334167	0,1	7,081992
1,335833	0,1	7,115182
1,337500	0,1	7,097801
1,339167	0,1	7,091078
1,340833	0,1	7,082481
1,342500	0,1	7,107046
1,344167	0,1	7,109877
1,345833	0,1	7,126359
1,347500	0,1	7,122895
1,349167	0,1	7,069573
1,350833	0,1	7,147655
1,352500	0,1	7,127750
1,354167	0,1	7,127407
1,355833	0,1	7,120542
1,357500	0,1	7,161992
1,359167	0,1	7,153294
1,360833	0,1	7,208389
1,362500	0,1	7,161333
1,364167	0,1	7,198664
1,365833	0,1	7,180166
1,367500	0,1	7,172459
1,369167	0,1	7,192188
1,370833	0,1	7,212788
1,372500	0,1	7,211624
1,374167	0,1	7,250979
1,375833	0,1	7,279713
1,377500	0,1	7,244249
1,379167	0,1	7,277498
1,380833	0,1	7,299750
1,382500	0,1	7,309943
1,384167	0,1	7,318574
1,385833	0,1	7,310323
1,387500	0,1	7,335429
1,389167	0,1	7,361724
1,390833	0,1	7,378096
1,392500	0,1	7,387044
1,394167	0,1	7,401706
1,395833	0,1	7,420730
1,397500	0,1	7,413410
1,399167	0,1	7,467262
1,400833	0,1	7,419011
1,402500	0,1	7,470261
1,404167	0,1	7,475903
1,405833	0,1	7,475976
1,407500	0,1	7,530895
1,409167	0,1	7,500321
1,410833	0,1	7,522157
1,412500	0,1	7,599595
1,414167	0,1	7,601003
1,415833	0,1	7,596613
1,417500	0,1	7,618128
1,419167	0,1	7,627610
1,420833	0,1	7,641896
1,422500	0,1	7,607590
1,424167	0,1	7,649976
1,425833	0,1	7,623245
1,427500	0,1	7,660990
1,429167	0,1	7,642998
1,430833	0,1	7,637093
1,432500	0,1	7,697571
1,434167	0,1	7,703207
1,435833	0,1	7,701678
1,437500	0,1	7,728149
1,439167	0,1	7,706378
1,440833	0,1	7,720081
1,442500	0,1	7,765745
1,444167	0,1	7,777126
1,445833	0,1	7,757598
1,447500	0,1	7,785294
1,449167	0,1	7,769640
1,450833	0,1	7,798114
1,452500	0,1	7,796253
1,454167	0,1	7,814262
1,455833	0,1	7,805894
1,457500	0,1	7,823425
1,459167	0,1	7,792770
1,460833	0,1	7,802300
1,462500	0,1	7,858790
1,464167	0,1	7,818258
1,465833	0,1	7,856146
1,467500	0,1	7,843437
1,469167	0,1	7,867250
1,470833	0,1	7,863498
1,472500	0,1	7,868366
1,474167	0,1	7,865589
1,475833	0,1	7,928671
1,477500	0,1	7,890007
1,479167	0,1	7,905310
1,480833	0,1	7,929061
1,482500	0,1	7,958159
1,484167	0,1	7,951706
1,485833	0,1	7,964171
1,487500	0,1	7,955317
1,489167	0,1	7,974569
1,490833	0,1	8,007155
1,492500	0,1	7,988663
1,494167	0,1	8,007333
1,495833	0,1	7,989194
1,497500	0,1	8,070257
1,499167	0,1	8,044153
1,500833	0,1	8,083773
1,502500	0,1	8,087999
1,504167	0,1	8,067227
1,505833	0,1	8,119275
1,507500	0,1	8,057289
1,509167	0,1	8,090089
1,510833	0,1	8,135486
1,512500	0,1	8,127769
1,514167	0,1	8,173190
1,515833	0,1	8,126143
1,517500	0,1	8,190125
1,519167	0,1	8,163227
1,520833	0,1	8,197865
1,522500	0,1	8,212244
1,524167	0,1	8,219367
1,525833	0,1	8,231258
1,527500	0,1	8,283246
1,529167	0,1	8,228998
1,530833	0,1	8,245881
1,532500	0,1	8,241391
1,534167	0,1	8,268411
1,535833	0,1	8,341448
1,537500	0,1	8,295427
1,539167	0,1	8,349713
1,540833	0,1	8,380038
1,542500	0,1	8,345753
1,544167	0,1	8,346782
1,545833	0,1	8,403817
1,547500	0,1	8,363387
1,549167	0,1	8,362404
1,550833	0,1	8,369771
1,552500	0,1	8,413983
1,554167	0,1	8,401926
1,555833	0,1	8,387772
1,557500	0,1	8,470134
1,559167	0,1	8,431883
1,560833	0,1	8,459390
1,562500	0,1	8,475093
1,564167	0,1	8,494598
1,565833	0,1	8,506604
1,567500	0,1	8,502181
1,569167	0,1	8,506466
1,570833	0,1	8,501765
1,572500	0,1	8,510924
1,574167	0,1	8,530842
1,575833	0,1	8,526457
1,577500	0,1	8,528944
1,579167	0,1	8,534547
1,580833	0,1	8,554326
1,582500	0,1	8,558273
1,584167	0,1	8,631314
1,585833	0,1	8,616184
1,587500	0,1	8,588756
1,589167	0,1	8,658297
1,590833	0,1	8,611313
1,592500	0,1	8,649623
1,594167	0,1	8,640396
1,595833	0,1	8,705251
1,597500	0,1	8,634012
1,599167	0,1	8,676019
1,600833	0,1	8,683363
1,602500	0,1	8,717676
1,604167	0,1	8,694545
1,605833	0,1	8,731725
1,607500	0,1	8,697838
1,609167	0,1	8,752759
1,610833	0,1	8,723090
1,612500	0,1	8,704373
1,614167	0,1	8,727471
1,615833	0,1	8,755261
1,617500	0,1	8,746447
1,619167	0,1	8,794497
1,620833	0,1	8,781182
1,622500	0,1	8,797613
1,624167	0,1	8,806516
1,625833	0,1	8,826648
1,627500	0,1	8,820231
1,629167	0,1	8,831874
1,630833	0,1	8,850676
1,632500	0,1	8,863278
1,634167	0,1	8,820203
1,635833	0,1	8,864993
1,637500	0,1	8,869199
1,639167	0,1	8,851210
1,640833	0,1	8,865393
1,642500	0,1	8,897262
1,644167	0,1	8,881554
1,645833	0,1	8,880418
1,647500	0,1	8,923816
1,649167	0,1	8,914293
1,650833	0,1	8,933992
1,652500	0,1	8,905484
1,654167	0,1	8,924994
1,655833	0,1	8,941806
1,657500	0,1	8,952200
1,659167	0,1	8,952242
1,660833	0,1	8,927805
1,662500	0,1	8,944791
1,664167	0,1	8,952054
1,665833	0,1	8,924268
1,667500	0,1	8,923683
1,669167	0,1	8,926866
1,670833	0,1	8,937873
1,672500	0,1	8,905892
1,674167	0,1	8,933437
1,675833	0,1	8,929840
1,677500	0,1	8,958221
1,679167	0,1	8,968603
1,680833	0,1	8,947262
1,682500	0,1	8,895899
1,684167	0,1	8,946035
1,685833	0,1	8,939707
1,687500	0,1	8,945662
1,689167	0,1	8,931790
1,690833	0,1	8,921251
1,692500	0,1	8,929586
1,694167	0,1	8,939004
1,695833	0,1	8,941375
1,697500	0,1	8,934209
1,699167	0,1	8,932167
1,700833	0,1	8,922198
1,702500	0,1	8,947908
1,704167	0,1	8,927345
1,705833	0,1	8,942477
1,707500	0,1	8,926909
1,709167	0,1	8,906929
1,710833	0,1	8,889656
1,712500	0,1	8,935180
1,714167	0,1	8,955487
1,715833	0,1	8,880778
1,717500	0,1	8,887993
1,719167	0,1	8,890560
1,720833	0,1	8,880790
1,722500	0,1	8,831002
1,724167	0,1	8,838851
1,725833	0,1	8,862723
1,727500	0,1	8,822804
1,729167	0,1	8,811846
1,730833	0,1	8,850422
1,732500	0,1	8,811787
1,734167	0,1	8,816485
1,735833	0,1	8,796696
1,737500	0,1	8,778867
1,739167	0,1	8,749357
1,740833	0,1	8,783323
1,742500	0,1	8,737005
1,744167	0,1	8,743187
1,745833	0,1	8,722535
1,747500	0,1	8,678845
1,749167	0,1	8,721858
1,750833	0,1	8,650515
1,752500	0,1	8,640812
1,754167	0,1	8,601452
1,755833	0,1	8,613513
1,757500	0,1	8,593803
1,759167	0,1	8,568797
1,760833	0,1	8,574704
1,762500	0,1	8,577263
1,764167	0,1	8,503162
1,765833	0,1	8,502763
1,767500	0,1	8,471024
1,769167	0,1	8,466284
1,770833	0,1	8,441181
1,772500	0,1	8,411751
1,774167	0,1	8,388521
1,775833	0,1	8,361864
1,777500	0,1	8,403787
1,779167	0,1	8,362668
1,780833	0,1	8,366187
1,782500	0,1	8,349463
1,784167	0,1	8,289067
1,785833	0,1	8,272578
1,787500	0,1	8,229505
1,789167	0,1	8,192104
1,790833	0,1	8,232172
1,792500	0,1	8,150138
1,794167	0,1	8,132849
1,795833	0,1	8,129258
1,797500	0,1	8,132289
1,799167	0,1	8,102726
1,800833	0,1	8,006682
1,802500	0,1	8,039219
1,804167	0,1	8,032360
1,805833	0,1	7,992431
1,807500	0,1	7,988181
1,809167	0,1	7,936902
1,810833	0,1	7,919884
1,812500	0,1	7,920987
1,814167	0,1	7,931890
1,815833	0,1	7,903530
1,817500	0,1	7,848674
1,819167	0,1	7,845482
1,820833	0,1	7,790386
1,822500	0,1	7,796575
1,824167	0,1	7,776546
1,825833	0,1	7,787100
1,827500	0,1	7,738149
1,829167	0,1	7,736327
1,830833	0,1	7,691555
1,832500	0,1	7,683734
1,834167	0,1	7,660625
1,835833	0,1	7,716569
1,837500	0,1	7,684575
1,839167	0,1	7,654606
1,840833	0,1	7,655711
1,842500	0,1	7,670733
1,844167	0,1	7,683751
1,845833	0,1	7,634300
1,847500	0,1	7,684119
1,849167	0,1	7,703384
1,850833	0,1	7,734764
1,852500	0,1	7,723886
1,854167	0,1	7,777239
1,855833	0,1	7,795871
1,857500	0,1	7,804223
1,859167	0,1	7,886925
1,860833	0,1	7,862367
1,862500	0,1	7,884589
1,864167	0,1	7,965039
1,865833	0,1	7,989662
1,867500	0,1	8,025127
1,869167	0,1	8,074203
1,870833	0,1	8,068184
1,872500	0,1	8,069822
1,874167	0,1	8,162033
1,875833	0,1	8,139175
1,877500	0,1	8,132144
1,879167	0,1	8,229444
1,880833	0,1	8,263781
1,882500	0,1	8,309095
1,884167	0,1	8,307372
1,885833	0,1	8,341138
1,887500	0,1	8,386295
1,889167	0,1	8,409807
1,890833	0,1	8,447362
1,892500	0,1	8,442830
1,894167	0,1	8,466064
1,895833	0,1	8,478276
1,897500	0,1	8,564410
1,899167	0,1	8,590507
1,900833	0,1	8,566166
1,902500	0,1	8,616790
1,904167	0,1	8,613620
1,905833	0,1	8,672450
1,907500	0,1	8,744761
1,909167	0,1	8,721947
1,910833	0,1	8,768340
1,912500	0,1	8,797410
1,914167	0,1	8,850039
1,915833	0,1	8,891720
1,917500	0,1	8,896163
1,919167	0,1	8,931974
1,920833	0,1	8,926722
1,922500	0,1	8,972875
1,924167	0,1	9,028220
1,925833	0,1	9,035088
1,927500	0,1	9,062778
1,929167	0,1	9,069657
1,930833	0,1	9,109746
1,932500	0,1	9,108567
1,934167	0,1	9,199652
1,935833	0,1	9,194523
1,937500	0,1	9,231219
1,939167	0,1	9,255807
1,940833	0,1	9,278645
1,942500	0,1	9,309676
1,944167	0,1	9,353216
1,945833	0,1	9,352386
1,947500	0,1	9,380598
1,949167	0,1	9,445072
1,950833	0,1	9,454676
1,952500	0,1	9,488890
1,954167	0,1	9,522694
1,955833	0,1	9,571689
1,957500	0,1	9,611875
1,959167	0,1	9,604531
1,960833	0,1	9,647334
1,962500	0,1	9,668980
1,964167	0,1	9,710650
1,965833	0,1	9,798449
1,967500	0,1	9,762894
1,969167	0,1	9,816258
1,970833	0,1	9,917754
1,972500	0,1	9,917449
1,974167	0,1	9,924918
1,975833	0,1	10,042306
1,977500	0,1	10,041512
1,979167	0,1	10,051511
1,980833	0,1	10,110197
1,982500	0,1	10,187522
1,984167	0,1	10,176167
1,985833	0,1	10,275257
1,987500	0,1	10,290077
1,989167	0,1	10,344175
1,990833	0,1	10,362438
1,992500	0,1	10,419957
1,994167	0,1	10,495037
1,995833	0,1	10,542462
1,997500	0,1	10,592575
1,999167	0,1	10,583571
2,000833	0,1	10,637104
2,002500	0,1	10,695764
2,004167	0,1	10,767299
2,005833	0,1	10,814432
2,007500	0,1	10,869900
2,009167	0,1	10,891646
2,010833	0,1	10,954747
2,012500	0,1	11,016936
2,014167	0,1	11,050723
2,015833	0,1	11,110493
2,017500	0,1	11,111070
2,019167	0,1	11,196378
2,020833	0,1	11,252051
2,022500	0,1	11,270146
2,024167	0,1	11,356222
2,025833	0,1	11,394754
2,027500	0,1	11,428723
2,029167	0,1	11,471061
2,030833	0,1	11,516949
2,032500	0,1	11,579574
2,034167	0,1	11,588382
2,035833	0,1	11,686747
2,037500	0,1	11,724801
2,039167	0,1	11,770326
2,040833	0,1	11,789177
2,042500	0,1	11,850201
2,044167	0,1	11,849449
2,045833	0,1	11,892212
2,047500	0,1	11,951950
2,049167	0,1	11,971286
2,050833	0,1	11,978421
2,052500	0,1	12,028603
2,054167	0,1	12,100268
2,055833	0,1	12,106757
2,057500	0,1	12,158127
2,059167	0,1	12,204432
2,060833	0,1	12,214983
2,062500	0,1	12,245825
2,064167	0,1	12,332041
2,065833	0,1	12,329169
2,067500	0,1	12,335257
2,069167	0,1	12,361766
2,070833	0,1	12,363281
2,072500	0,1	12,432488
2,074167	0,1	12,442028
2,075833	0,1	12,427260
2,077500	0,1	12,455436
2,079167	0,1	12,481298
2,080833	0,1	12,515199
2,082500	0,1	12,542731
2,084167	0,1	12,566920
2,085833	0,1	12,581282
2,087500	0,1	12,577741
2,089167	0,1	12,598500
2,090833	0,1	12,634212
2,092500	0,1	12,651150
2,094167	0,1	12,651667
2,095833	0,1	12,597408
2,097500	0,1	12,611174
2,099167	0,1	12,621639
2,100833	0,1	12,647586
2,102500	0,1	12,699622
2,104167	0,1	12,636425
2,105833	0,1	12,646114
2,107500	0,1	12,646388
2,109167	0,1	12,627766
2,110833	0,1	12,614575
2,112500	0,1	12,615332
2,114167	0,1	12,606264
2,115833	0,1	12,582267
2,117500	0,1	12,581125
2,119167	0,1	12,539796
2,120833	0,1	12,594606
2,122500	0,1	12,584944
2,124167	0,1	12,545237
2,125833	0,1	12,533536
2,127500	0,1	12,499001
2,129167	0,1	12,482326
2,130833	0,1	12,443366
2,132500	0,1	12,427988
2,134167	0,1	12,388421
2,135833	0,1	12,431710
2,137500	0,1	12,370047
2,139167	0,1	12,326530
2,140833	0,1	12,302540
2,142500	0,1	12,305574
2,144167	0,1	12,257353
2,145833	0,1	12,199302
2,147500	0,1	12,219347
2,149167	0,1	12,154367
2,150833	0,1	12,146309
2,152500	0,1	12,094814
2,154167	0,1	12,053082
2,155833	0,1	12,035395
2,157500	0,1	12,020039
2,159167	0,1	11,942251
2,160833	0,1	11,915153
2,162500	0,1	11,882196
2,164167	0,1	11,849525
2,165833	0,1	11,791822
2,167500	0,1	11,777964
2,169167	0,1	11,769015
2,170833	0,1	11,703570
2,172500	0,1	11,680112
2,174167	0,1	11,622385
2,175833	0,1	11,621047
2,177500	0,1	11,572752
2,179167	0,1	11,487517
2,180833	0,1	11,473801
2,182500	0,1	11,436448
2,184167	0,1	11,408038
2,185833	0,1	11,324283
2,187500	0,1	11,352192
2,189167	0,1	11,253636
2,190833	0,1	11,251561
2,192500	0,1	11,218309
2,194167	0,1	11,157561
2,195833	0,1	11,138360
2,197500	0,1	11,070389
2,199167	0,1	11,055017
2,200833	0,1	10,999121
2,202500	0,1	10,990491
2,204167	0,1	10,926521
2,205833	0,1	10,884597
2,207500	0,1	10,828899
2,209167	0,1	10,776531
2,210833	0,1	10,710230
2,212500	0,1	10,739388
2,214167	0,1	10,681198
2,215833	0,1	10,614665
2,217500	0,1	10,585282
2,219167	0,1	10,597511
2,220833	0,1	10,516521
2,222500	0,1	10,490426
2,224167	0,1	10,408110
2,225833	0,1	10,412858
2,227500	0,1	10,362280
2,229167	0,1	10,340234
2,230833	0,1	10,292010
2,232500	0,1	10,309638
2,234167	0,1	10,214232
2,235833	0,1	10,169630
2,237500	0,1	10,148461
2,239167	0,1	10,116261
2,240833	0,1	10,096414
2,242500	0,1	10,019276
2,244167	0,1	9,972730
2,245833	0,1	9,990790
2,247500	0,1	9,906921
2,249167	0,1	9,927443
2,250833	0,1	9,886421
2,252500	0,1	9,838691
2,254167	0,1	9,746707
2,255833	0,1	9,711828
2,257500	0,1	9,740702
2,259167	0,1	9,698536
2,260833	0,1	9,689310
2,262500	0,1	9,639132
2,264167	0,1	9,587688
2,265833	0,1	9,597680
2,267500	0,1	9,481443
2,269167	0,1	9,511164
2,270833	0,1	9,419186
2,272500	0,1	9,442161
2,274167	0,1	9,440875
2,275833	0,1	9,405170
2,277500	0,1	9,375466
2,279167	0,1	9,378307
2,280833	0,1	9,306961
2,282500	0,1	9,251859
2,284167	0,1	9,300412
2,285833	0,1	9,281001
2,287500	0,1	9,211624
2,289167	0,1	9,179837
2,290833	0,1	9,161999
2,292500	0,1	9,118383
2,294167	0,1	9,112579
2,295833	0,1	9,095580
2,297500	0,1	9,071683
2,299167	0,1	9,080547
2,300833	0,1	9,025129
2,302500	0,1	9,041241
2,304167	0,1	8,981435
2,305833	0,1	9,002466
2,307500	0,1	8,964116
2,309167	0,1	8,949192
2,310833	0,1	8,929487
2,312500	0,1	8,893055
2,314167	0,1	8,832558
2,315833	0,1	8,853239
2,317500	0,1	8,813692
2,319167	0,1	8,850213
2,320833	0,1	8,797361
2,322500	0,1	8,834850
2,324167	0,1	8,826037
2,325833	0,1	8,790945
2,327500	0,1	8,781600
2,329167	0,1	8,757449
2,330833	0,1	8,822902
2,332500	0,1	8,744766
2,334167	0,1	8,749662
2,335833	0,1	8,763671
2,337500	0,1	8,702828
2,339167	0,1	8,737507
2,340833	0,1	8,689605
2,342500	0,1	8,731031
2,344167	0,1	8,724051
2,345833	0,1	8,721184
2,347500	0,1	8,713328
2,349167	0,1	8,729997
2,350833	0,1	8,691711
2,352500	0,1	8,726466
2,354167	0,1	8,712046
2,355833	0,1	8,679807
2,357500	0,1	8,704982
2,359167	0,1	8,764557
2,360833	0,1	8,732503
2,362500	0,1	8,719107
2,364167	0,1	8,763141
2,365833	0,1	8,716697
2,367500	0,1	8,738237
2,369167	0,1	8,739421
2,370833	0,1	8,776053
2,372500	0,1	8,761846
2,374167	0,1	8,779650
2,375833	0,1	8,782323
2,377500	0,1	8,820935
2,379167	0,1	8,796173
2,380833	0,1	8,793397
2,382500	0,1	8,822950
2,384167	0,1	8,857209
2,385833	0,1	8,884306
2,387500	0,1	8,860274
2,389167	0,1	8,880718
2,390833	0,1	8,903932
2,392500	0,1	8,943221
2,394167	0,1	8,964906
2,395833	0,1	8,974143
2,397500	0,1	9,009722
2,399167	0,1	8,994200
2,400833	0,1	9,004484
2,402500	0,1	9,028587
2,404167	0,1	9,053227
2,405833	0,1	9,073836
2,407500	0,1	9,137611
2,409167	0,1	9,127354
2,410833	0,1	9,182849
2,412500	0,1	9,204621
2,414167	0,1	9,175124
2,415833	0,1	9,215528
2,417500	0,1	9,246679
2,419167	0,1	9,278737
2,420833	0,1	9,327018
2,422500	0,1	9,360430
2,424167	0,1	9,365031
2,425833	0,1	9,366087
2,427500	0,1	9,392739
2,429167	0,1	9,416814
2,430833	0,1	9,454525
2,432500	0,1	9,471929
2,434167	0,1	9,496164
2,435833	0,1	9,529831
2,437500	0,1	9,539324
2,439167	0,1	9,580931
2,440833	0,1	9,580047
2,442500	0,1	9,615512
2,444167	0,1	9,662935
2,445833	0,1	9,701209
2,447500	0,1	9,733665
2,449167	0,1	9,753488
2,450833	0,1	9,769637
2,452500	0,1	9,816858
2,454167	0,1	9,854649
2,455833	0,1	9,930066
2,457500	0,1	9,957108
2,459167	0,1	9,989576
2,460833	0,1	10,120775
2,462500	0,1	10,133788
2,464167	0,1	10,246723
2,465833	0,1	10,361297
2,467500	0,1	10,382955
2,469167	0,1	10,546558
2,470833	0,1	10,726849
2,472500	0,1	10,799529
2,474167	0,1	10,994048
2,475833	0,1	11,171870
2,477500	0,1	11,352969
2,479167	0,1	11,630826
2,480833	0,1	11,885794
2,482500	0,1	12,204514
2,484167	0,1	12,526864
2,485833	0,1	12,846206
2,487500	0,1	13,295901
2,489167	0,1	13,754611
2,490833	0,1	14,235861
2,492500	0,1	14,787054
2,494167	0,1	15,298972
2,495833	0,1	16,004424
2,497500	0,1	16,707955
2,499167	0,1	17,437843
2,500833	0,1	18,317351
2,502500	0,1	19,226275
2,504167	0,1	20,207024
2,505833	0,1	21,270786
2,507500	0,1	22,403036
2,509167	0,1	23,674570
2,510833	0,1	24,924531
2,512500	0,1	26,314324
2,514167	0,1	27,766893
2,515833	0,1	29,360228
2,517500	0,1	31,065411
2,519167	0,1	32,792602
2,520833	0,1	34,642403
2,522500	0,1	36,575058
2,524167	0,1	38,603404
2,525833	0,1	40,686376
2,527500	0,1	42,926344
2,529167	0,1	45,219603
2,530833	0,1	47,565851
2,532500	0,1	49,995822
2,534167	0,1	52,533443
2,535833	0,1	55,122266
2,537500	0,1	57,764914
2,539167	0,1	60,533183
2,540833	0,1	63,251899
2,542500	0,1	66,043552
2,544167	0,1	68,917113
2,545833	0,1	71,800072
2,547500	0,1	74,719257
2,549167	0,1	77,620183
2,550833	0,1	80,541416
2,552500	0,1	83,536820
2,554167	0,1	86,481582
2,555833	0,1	89,365632
2,557500	0,1	92,287616
2,559167	0,1	95,147929
2,560833	0,1	97,979442
2,562500	0,1	100,792443
2,564167	0,1	103,507693
2,565833	0,1	106,220336
2,567500	0,1	108,835789
2,569167	0,1	111,367940
2,570833	0,1	113,845187
2,572500	0,1	116,296220
2,574167	0,1	118,609411
2,575833	0,1	120,835943
2,577500	0,1	123,014502
2,579167	0,1	125,072389
2,580833	0,1	127,046119
2,582500	0,1	128,814754
2,584167	0,1	130,559240
2,585833	0,1	132,284831
2,587500	0,1	133,793137
2,589167	0,1	135,273151
2,590833	0,1	136,597919
2,592500	0,1	137,867228
2,594167	0,1	138,987931
2,595833	0,1	140,011520
2,597500	0,1	140,949814
2,599167	0,1	141,806170
2,600833	0,1	142,472699
2,602500	0,1	143,109853
2,604167	0,1	143,713380
2,605833	0,1	144,106045
2,607500	0,1	144,531703
2,609167	0,1	144,730980
2,610833	0,1	144,954870
2,612500	0,1	145,015533
2,614167	0,1	145,078831
2,615833	0,1	145,002311
2,617500	0,1	144,833940
2,619167	0,1	144,628177
2,620833	0,1	144,294418
2,622500	0,1	143,956716
2,624167	0,1	143,503548
2,625833	0,1	142,967247
2,627500	0,1	142,389278
2,629167	0,1	141,752612
2,630833	0,1	141,083514
2,632500	0,1	140,279331
2,634167	0,1	139,490694
2,635833	0,1	138,596330
2,637500	0,1	137,659658
2,639167	0,1	136,687615
2,640833	0,1	135,677179
2,642500	0,1	134,613066
2,644167	0,1	133,494934
2,645833	0,1	132,318613
2,647500	0,1	131,100679
2,649167	0,1	129,881986
2,650833	0,1	128,569590
2,652500	0,1	127,273238
2,654167	0,1	125,896025
2,655833	0,1	124,484156
2,657500	0,1	123,133335
2,659167	0,1	121,728899
2,660833	0,1	120,198435
2,662500	0,1	118,740582
2,664167	0,1	117,239316
2,665833	0,1	115,699353
2,667500	0,1	114,156188
2,669167	0,1	112,626973
2,670833	0,1	111,001595
2,672500	0,1	109,387170
2,674167	0,1	107,831030
2,675833	0,1	106,232002
2,677500	0,1	104,619531
2,679167	0,1	103,003635
2,680833	0,1	101,415875
2,682500	0,1	99,814713
2,684167	0,1	98,182261
2,685833	0,1	96,602246
2,687500	0,1	94,946674
2,689167	0,1	93,338110
2,690833	0,1	91,775478
2,692500	0,1	90,181297
2,694167	0,1	88,601563
2,695833	0,1	87,025377
2,697500	0,1	85,455627
2,699167	0,1	83,969032
2,700833	0,1	82,443710
2,702500	0,1	80,905641
2,704167	0,1	79,428312
2,705833	0,1	77,971575
2,707500	0,1	76,487455
2,709167	0,1	75,084718
2,710833	0,1	73,625683
2,712500	0,1	72,232544
2,714167	0,1	70,861881
2,715833	0,1	69,530807
2,717500	0,1	68,192278
2,719167	0,1	66,888469
2,720833	0,1	65,552304
2,722500	0,1	64,299332
2,724167	0,1	63,098229
2,725833	0,1	61,857731
2,727500	0,1	60,608643
2,729167	0,1	59,446217
2,730833	0,1	58,301597
2,732500	0,1	57,124092
2,734167	0,1	56,062927
2,735833	0,1	54,960894
2,737500	0,1	53,895701
2,739167	0,1	52,878590
2,740833	0,1	51,848473
2,742500	0,1	50,894527
2,744167	0,1	49,858292
2,745833	0,1	48,941748
2,747500	0,1	47,961887
2,749167	0,1	47,104165
2,750833	0,1	46,156434
2,752500	0,1	45,311150
2,754167	0,1	44,438635
2,755833	0,1	43,628453
2,757500	0,1	42,812460
2,759167	0,1	42,034235
2,760833	0,1	41,262679
2,762500	0,1	40,450389
2,764167	0,1	39,733368
2,765833	0,1	39,014878
2,767500	0,1	38,249362
2,769167	0,1	37,623910
2,770833	0,1	36,923508
2,772500	0,1	36,235845
2,774167	0,1	35,594246
2,775833	0,1	34,916799
2,777500	0,1	34,347923
2,779167	0,1	33,780136
2,780833	0,1	33,129549
2,782500	0,1	32,574221
2,784167	0,1	31,975860
2,785833	0,1	31,449947
2,787500	0,1	30,877889
2,789167	0,1	30,355396
2,790833	0,1	29,797168
2,792500	0,1	29,291775
2,794167	0,1	28,773743
2,795833	0,1	28,282830
2,797500	0,1	27,795137
2,799167	0,1	27,349331
2,800833	0,1	26,888960
2,802500	0,1	26,399055
2,804167	0,1	25,992572
2,805833	0,1	25,485560
2,807500	0,1	25,099189
2,809167	0,1	24,682366
2,810833	0,1	24,256655
2,812500	0,1	23,856763
2,814167	0,1	23,453572
2,815833	0,1	23,058854
2,817500	0,1	22,652299
2,819167	0,1	22,300103
2,820833	0,1	21,911258
2,822500	0,1	21,569605
2,824167	0,1	21,177341
2,825833	0,1	20,887595
2,827500	0,1	20,522086
2,829167	0,1	20,170517
2,830833	0,1	19,866675
2,832500	0,1	19,538168
2,834167	0,1	19,261557
2,835833	0,1	18,918653
2,837500	0,1	18,642484
2,839167	0,1	18,354564
2,840833	0,1	18,065081
2,842500	0,1	17,781427
2,844167	0,1	17,458815
2,845833	0,1	17,243690
2,847500	0,1	16,968857
2,849167	0,1	16,686695
2,850833	0,1	16,451897
2,852500	0,1	16,195086
2,854167	0,1	15,958957
2,855833	0,1	15,658941
2,857500	0,1	15,515560
2,859167	0,1	15,259509
2,860833	0,1	15,044118
2,862500	0,1	14,818175
2,864167	0,1	14,621800
2,865833	0,1	14,412880
2,867500	0,1	14,209514
2,869167	0,1	14,013684
2,870833	0,1	13,812069
2,872500	0,1	13,659379
2,874167	0,1	13,451894
2,875833	0,1	13,300919
2,877500	0,1	13,106440
2,879167	0,1	12,929568
2,880833	0,1	12,778135
2,882500	0,1	12,595083
2,884167	0,1	12,449415
2,885833	0,1	12,297598
2,887500	0,1	12,164053
2,889167	0,1	11,996740
2,890833	0,1	11,823923
2,892500	0,1	11,734516
2,894167	0,1	11,576745
2,895833	0,1	11,441801
2,897500	0,1	11,319663
2,899167	0,1	11,192553
2,900833	0,1	11,058967
2,902500	0,1	10,946179
2,904167	0,1	10,770204
2,905833	0,1	10,709642
2,907500	0,1	10,576870
2,909167	0,1	10,473507
2,910833	0,1	10,375042
2,912500	0,1	10,239354
2,914167	0,1	10,158923
2,915833	0,1	10,063078
2,917500	0,1	9,962302
2,919167	0,1	9,825477
2,920833	0,1	9,756809
2,922500	0,1	9,693059
2,924167	0,1	9,562695
2,925833	0,1	9,497260
2,927500	0,1	9,420324
2,929167	0,1	9,270376
2,930833	0,1	9,214573
2,932500	0,1	9,149932
2,934167	0,1	9,044431
2,935833	0,1	8,963746
2,937500	0,1	8,857033
2,939167	0,1	8,809893
2,940833	0,1	8,774681
2,942500	0,1	8,684559
2,944167	0,1	8,584588
2,945833	0,1	8,485981
2,947500	0,1	8,467254
2,949167	0,1	8,364891
2,950833	0,1	8,287832
2,952500	0,1	8,238366
2,954167	0,1	8,159096
2,955833	0,1	8,125149
2,957500	0,1	8,020542
2,959167	0,1	8,009865
2,960833	0,1	7,904280
2,962500	0,1	7,839868
2,964167	0,1	7,800609
2,965833	0,1	7,756404
2,967500	0,1	7,665471
2,969167	0,1	7,625832
2,970833	0,1	7,552698
2,972500	0,1	7,484317
2,974167	0,1	7,434872
2,975833	0,1	7,435087
2,977500	0,1	7,325797
2,979167	0,1	7,290688
2,980833	0,1	7,255013
2,982500	0,1	7,220651
2,984167	0,1	7,167799
2,985833	0,1	7,132775
2,987500	0,1	7,043181
2,989167	0,1	7,031718
2,990833	0,1	6,991030
2,992500	0,1	6,913897
2,994167	0,1	6,835342
2,995833	0,1	6,839154
2,997500	0,1	6,790716
2,999167	0,1	6,792306
3,000833	0,1	6,724637
3,002500	0,1	6,647712
3,004167	0,1	6,600868
3,005833	0,1	6,584799
3,007500	0,1	6,570398
3,009167	0,1	6,538437
3,010833	0,1	6,457076
3,012500	0,1	6,400830
3,014167	0,1	6,371581
3,015833	0,1	6,368402
3,017500	0,1	6,295567
3,019167	0,1	6,239717
3,020833	0,1	6,223927
3,022500	0,1	6,180516
3,024167	0,1	6,132248
3,025833	0,1	6,099196
3,027500	0,1	6,095274
3,029167	0,1	5,986549
3,030833	0,1	6,004351
3,032500	0,1	6,011540
3,034167	0,1	5,958533
3,035833	0,1	5,918698
3,037500	0,1	5,882965
3,039167	0,1	5,837348
3,040833	0,1	5,841445
3,042500	0,1	5,755826
3,044167	0,1	5,771001
3,045833	0,1	5,740516
3,047500	0,1	5,648642
3,049167	0,1	5,634673
3,050833	0,1	5,633104
3,052500	0,1	5,548898
3,054167	0,1	5,501071
3,055833	0,1	5,492848
3,057500	0,1	5,451723
3,059167	0,1	5,446789
3,060833	0,1	5,415183
3,062500	0,1	5,360046
3,064167	0,1	5,371757
3,065833	0,1	5,325011
3,067500	0,1	5,296472
3,069167	0,1	5,245251
3,070833	0,1	5,226756
3,072500	0,1	5,211420
3,074167	0,1	5,173885
3,075833	0,1	5,136316
3,077500	0,1	5,142753
3,079167	0,1	5,078297
3,080833	0,1	5,052843
3,082500	0,1	5,030436
3,084167	0,1	4,959536
3,085833	0,1	4,954715
3,087500	0,1	4,920658
3,089167	0,1	4,939695
3,090833	0,1	4,899977
3,092500	0,1	4,869004
3,094167	0,1	4,823137
3,095833	0,1	4,819174
3,097500	0,1	4,764306
3,099167	0,1	4,734812
3,100833	0,1	4,758884
3,102500	0,1	4,743997
3,104167	0,1	4,684733
3,105833	0,1	4,696612
3,107500	0,1	4,690091
3,109167	0,1	4,655676
3,110833	0,1	4,652918
3,112500	0,1	4,631431
3,114167	0,1	4,584557
3,115833	0,1	4,568374
3,117500	0,1	4,552043
3,119167	0,1	4,515305
3,120833	0,1	4,554549
3,122500	0,1	4,510860
3,124167	0,1	4,508277
3,125833	0,1	4,490276
3,127500	0,1	4,491318
3,129167	0,1	4,490695
3,130833	0,1	4,464776
3,132500	0,1	4,429286
3,134167	0,1	4,412073
3,135833	0,1	4,408448
3,137500	0,1	4,436402
3,139167	0,1	4,395409
3,140833	0,1	4,402333
3,142500	0,1	4,368836
3,144167	0,1	4,387275
3,145833	0,1	4,351830
3,147500	0,1	4,369898
3,149167	0,1	4,342319
3,150833	0,1	4,349385
3,152500	0,1	4,309329
3,154167	0,1	4,305669
3,155833	0,1	4,308242
3,157500	0,1	4,318090
3,159167	0,1	4,303635
3,160833	0,1	4,294891
3,162500	0,1	4,278203
3,164167	0,1	4,226011
3,165833	0,1	4,204500
3,167500	0,1	4,305988
3,169167	0,1	4,247200
3,170833	0,1	4,254121
3,172500	0,1	4,247732
3,174167	0,1	4,197245
3,175833	0,1	4,190111
3,177500	0,1	4,159811
3,179167	0,1	4,169708
3,180833	0,1	4,178615
3,182500	0,1	4,147965
3,184167	0,1	4,138202
3,185833	0,1	4,103816
3,187500	0,1	4,138907
3,189167	0,1	4,106934
3,190833	0,1	4,085384
3,192500	0,1	4,087496
3,194167	0,1	4,054984
3,195833	0,1	4,039903
3,197500	0,1	4,008774
3,199167	0,1	4,004948
3,200833	0,1	3,978494
3,202500	0,1	3,982872
3,204167	0,1	3,999492
3,205833	0,1	3,978761
3,207500	0,1	3,946964
3,209167	0,1	3,936010
3,210833	0,1	3,883605
3,212500	0,1	3,864341
3,214167	0,1	3,879038
3,215833	0,1	3,811376
3,217500	0,1	3,828249
3,219167	0,1	3,848603
3,220833	0,1	3,805477
3,222500	0,1	3,761682
3,224167	0,1	3,750750
3,225833	0,1	3,721508
3,227500	0,1	3,735835
3,229167	0,1	3,673065
3,230833	0,1	3,695256
3,232500	0,1	3,693434
3,234167	0,1	3,605207
3,235833	0,1	3,597391
3,237500	0,1	3,593939
3,239167	0,1	3,596861
3,240833	0,1	3,519980
3,242500	0,1	3,545653
3,244167	0,1	3,510550
3,245833	0,1	3,448197
3,247500	0,1	3,446038
3,249167	0,1	3,442911
3,250833	0,1	3,396242
3,252500	0,1	3,357687
3,254167	0,1	3,327041
3,255833	0,1	3,373621
3,257500	0,1	3,338527
3,259167	0,1	3,321960
3,260833	0,1	3,278795
3,262500	0,1	3,257366
3,264167	0,1	3,228485
3,265833	0,1	3,190618
3,267500	0,1	3,191431
3,269167	0,1	3,155298
3,270833	0,1	3,152012
3,272500	0,1	3,150177
3,274167	0,1	3,110755
3,275833	0,1	3,126949
3,277500	0,1	3,047975
3,279167	0,1	3,077925
3,280833	0,1	3,075641
3,282500	0,1	3,057730
3,284167	0,1	2,987344
3,285833	0,1	2,966778
3,287500	0,1	3,001270
3,289167	0,1	2,951521
3,290833	0,1	2,893170
3,292500	0,1	2,927241
3,294167	0,1	2,898274
3,295833	0,1	2,873469
3,297500	0,1	2,866848
3,299167	0,1	2,837539
3,300833	0,1	2,821217
3,302500	0,1	2,860869
3,304167	0,1	2,770913
3,305833	0,1	2,783700
3,307500	0,1	2,782536
3,309167	0,1	2,705516
3,310833	0,1	2,724017
3,312500	0,1	2,747020
3,314167	0,1	2,724627
3,315833	0,1	2,659774
3,317500	0,1	2,668208
3,319167	0,1	2,624939
3,320833	0,1	2,619283
3,322500	0,1	2,655576
3,324167	0,1	2,656902
3,325833	0,1	2,591885
3,327500	0,1	2,665862
3,329167	0,1	2,613591
3,330833	0,1	2,557641
3,332500	0,1	2,569388
3,334167	0,1	2,603870
3,335833	0,1	2,569721
3,337500	0,1	2,525120
3,339167	0,1	2,541803
3,340833	0,1	2,525208
3,342500	0,1	2,551977
3,344167	0,1	2,516652
3,345833	0,1	2,540330
3,347500	0,1	2,559149
3,349167	0,1	2,472484
3,350833	0,1	2,486030
3,352500	0,1	2,441958
3,354167	0,1	2,489643
3,355833	0,1	2,456327
3,357500	0,1	2,415223
3,359167	0,1	2,446726
3,360833	0,1	2,401978
3,362500	0,1	2,402387
3,364167	0,1	2,420600
3,365833	0,1	2,451319
3,367500	0,1	2,397084
3,369167	0,1	2,392647
3,370833	0,1	2,375711
3,372500	0,1	2,399085
3,374167	0,1	2,383829
3,375833	0,1	2,354334
3,377500	0,1	2,366827
3,379167	0,1	2,369136
3,380833	0,1	2,343168
3,382500	0,1	2,326038
3,384167	0,1	2,341082
3,385833	0,1	2,356569
3,387500	0,1	2,311808
3,389167	0,1	2,315668
3,390833	0,1	2,345083
3,392500	0,1	2,287542
3,394167	0,1	2,331912
3,395833	0,1	2,321426
3,397500	0,1	2,275444
3,399167	0,1	2,288731
3,400833	0,1	2,339684
3,402500	0,1	2,288129
3,404167	0,1	2,273326
3,405833	0,1	2,280116
3,407500	0,1	2,269335
3,409167	0,1	2,260613
3,410833	0,1	2,264692
3,412500	0,1	2,265642
3,414167	0,1	2,237932
3,415833	0,1	2,234282
3,417500	0,1	2,239883
3,419167	0,1	2,200387
3,420833	0,1	2,219080
3,422500	0,1	2,226492
3,424167	0,1	2,193487
3,425833	0,1	2,219635
3,427500	0,1	2,198800
3,429167	0,1	2,159166
3,430833	0,1	2,157738
3,432500	0,1	2,191528
3,434167	0,1	2,153263
3,435833	0,1	2,229428
3,437500	0,1	2,239206
3,439167	0,1	2,176731
3,440833	0,1	2,167278
3,442500	0,1	2,194180
3,444167	0,1	2,128738
3,445833	0,1	2,183812
3,447500	0,1	2,118887
3,449167	0,1	2,186399
3,450833	0,1	2,171151
3,452500	0,1	2,195389
3,454167	0,1	2,193977
3,455833	0,1	2,171676
3,457500	0,1	2,191367
3,459167	0,1	2,185796
3,460833	0,1	2,177366
3,462500	0,1	2,208427
3,464167	0,1	2,192161
3,465833	0,1	2,188572
3,467500	0,1	2,217692
3,469167	0,1	2,225409
3,470833	0,1	2,207131
3,472500	0,1	2,223702
3,474167	0,1	2,233452
3,475833	0,1	2,192281
3,477500	0,1	2,260444
3,479167	0,1	2,300880
3,480833	0,1	2,311266
3,482500	0,1	2,230324
3,484167	0,1	2,276927
3,485833	0,1	2,290537
3,487500	0,1	2,301097
3,489167	0,1	2,320754
3,490833	0,1	2,295639
3,492500	0,1	2,307245
3,494167	0,1	2,314869
3,495833	0,1	2,353140
3,497500	0,1	2,353058
3,499167	0,1	2,354732
3,500833	0,1	2,365667
3,502500	0,1	2,368639
3,504167	0,1	2,382394
3,505833	0,1	2,430448
3,507500	0,1	2,405652
3,509167	0,1	2,397813
3,510833	0,1	2,417951
3,512500	0,1	2,483177
3,514167	0,1	2,451943
3,515833	0,1	2,449479
3,517500	0,1	2,479716
3,519167	0,1	2,491177
3,520833	0,1	2,502897
3,522500	0,1	2,477709
3,524167	0,1	2,530012
3,525833	0,1	2,474438
3,527500	0,1	2,523954
3,529167	0,1	2,512205
3,530833	0,1	2,490308
3,532500	0,1	2,521002
3,534167	0,1	2,553425
3,535833	0,1	2,498606
3,537500	0,1	2,526282
3,539167	0,1	2,533074
3,540833	0,1	2,525890
3,542500	0,1	2,516267
3,544167	0,1	2,582219
3,545833	0,1	2,528112
3,547500	0,1	2,543554
3,549167	0,1	2,537996
3,550833	0,1	2,529990
3,552500	0,1	2,553544
3,554167	0,1	2,524734
3,555833	0,1	2,501059
3,557500	0,1	2,514049
3,559167	0,1	2,571566
3,560833	0,1	2,519723
3,562500	0,1	2,536731
3,564167	0,1	2,538566
3,565833	0,1	2,521203
3,567500	0,1	2,513940
3,569167	0,1	2,539376
3,570833	0,1	2,503062
3,572500	0,1	2,503967
3,574167	0,1	2,495278
3,575833	0,1	2,505587
3,577500	0,1	2,456407
3,579167	0,1	2,528940
3,580833	0,1	2,485053
3,582500	0,1	2,392744
3,584167	0,1	2,472825
3,585833	0,1	2,470138
3,587500	0,1	2,438622
3,589167	0,1	2,438235
3,590833	0,1	2,420744
3,592500	0,1	2,450539
3,594167	0,1	2,401634
3,595833	0,1	2,405777
3,597500	0,1	2,397149
3,599167	0,1	2,351713
3,600833	0,1	2,359583
3,602500	0,1	2,357130
3,604167	0,1	2,324157
3,605833	0,1	2,330701
3,607500	0,1	2,318203
3,609167	0,1	2,337942
3,610833	0,1	2,337241
3,612500	0,1	2,307616
3,614167	0,1	2,283588
3,615833	0,1	2,287784
3,617500	0,1	2,244864
3,619167	0,1	2,289882
3,620833	0,1	2,237244
3,622500	0,1	2,261449
3,624167	0,1	2,242329
3,625833	0,1	2,222462
3,627500	0,1	2,227487
3,629167	0,1	2,189800
3,630833	0,1	2,189804
3,632500	0,1	2,187052
3,634167	0,1	2,167853
3,635833	0,1	2,127711
3,637500	0,1	2,173951
3,639167	0,1	2,123181
3,640833	0,1	2,146112
3,642500	0,1	2,077342
3,644167	0,1	2,095534
3,645833	0,1	2,081097
3,647500	0,1	2,077624
3,649167	0,1	2,079342
3,650833	0,1	2,059999
3,652500	0,1	2,023888
3,654167	0,1	1,980254
3,655833	0,1	2,023794
3,657500	0,1	1,999806
3,659167	0,1	2,014112
3,660833	0,1	2,001947
3,662500	0,1	1,984113
3,664167	0,1	1,969584
3,665833	0,1	1,935500
3,667500	0,1	1,924794
3,669167	0,1	1,925013
3,670833	0,1	1,913359
3,672500	0,1	1,898828
3,674167	0,1	1,872304
3,675833	0,1	1,883649
3,677500	0,1	1,885519
3,679167	0,1	1,850593
3,680833	0,1	1,838366
3,682500	0,1	1,819242
3,684167	0,1	1,840218
3,685833	0,1	1,825059
3,687500	0,1	1,816724
3,689167	0,1	1,779058
3,690833	0,1	1,792925
3,692500	0,1	1,785313
3,694167	0,1	1,755119
3,695833	0,1	1,765029
3,697500	0,1	1,759496
3,699167	0,1	1,754393
3,700833	0,1	1,746637
3,702500	0,1	1,714725
3,704167	0,1	1,686628
3,705833	0,1	1,721099
3,707500	0,1	1,672901
3,709167	0,1	1,695228
3,710833	0,1	1,730083
3,712500	0,1	1,713136
3,714167	0,1	1,675336
3,715833	0,1	1,681219
3,717500	0,1	1,687620
3,719167	0,1	1,657947
3,720833	0,1	1,640481
3,722500	0,1	1,670719
3,724167	0,1	1,651756
3,725833	0,1	1,628188
3,727500	0,1	1,589751
3,729167	0,1	1,577386
3,730833	0,1	1,598288
3,732500	0,1	1,597214
3,734167	0,1	1,614100
3,735833	0,1	1,564103
3,737500	0,1	1,561433
3,739167	0,1	1,577018
3,740833	0,1	1,556766
3,742500	0,1	1,579534
3,744167	0,1	1,547932
3,745833	0,1	1,571915
3,747500	0,1	1,548505
3,749167	0,1	1,522641
3,750833	0,1	1,553090
3,752500	0,1	1,569333
3,754167	0,1	1,540746
3,755833	0,1	1,506764
3,757500	0,1	1,508625
3,759167	0,1	1,496629
3,760833	0,1	1,514510
3,762500	0,1	1,511498
3,764167	0,1	1,512360
3,765833	0,1	1,539078
3,767500	0,1	1,530754
3,769167	0,1	1,513801
3,770833	0,1	1,506686
3,772500	0,1	1,526291
3,774167	0,1	1,500009
3,775833	0,1	1,476158
3,777500	0,1	1,494107
3,779167	0,1	1,494974
3,780833	0,1	1,474794
3,782500	0,1	1,493606
3,784167	0,1	1,464522
3,785833	0,1	1,470835
3,787500	0,1	1,434784
3,789167	0,1	1,469822
3,790833	0,1	1,533968
3,792500	0,1	1,483205
3,794167	0,1	1,499065
3,795833	0,1	1,456338
3,797500	0,1	1,479595
3,799167	0,1	1,483263
3,800833	0,1	1,452526
3,802500	0,1	1,459342
3,804167	0,1	1,463007
3,805833	0,1	1,430906
3,807500	0,1	1,438726
3,809167	0,1	1,452661
3,810833	0,1	1,448282
3,812500	0,1	1,428892
3,814167	0,1	1,473629
3,815833	0,1	1,440675
3,817500	0,1	1,440236
3,819167	0,1	1,436071
3,820833	0,1	1,418260
3,822500	0,1	1,431971
3,824167	0,1	1,407418
3,825833	0,1	1,409783
3,827500	0,1	1,424502
3,829167	0,1	1,392910
3,830833	0,1	1,413368
3,832500	0,1	1,453658
3,834167	0,1	1,385375
3,835833	0,1	1,414802
3,837500	0,1	1,446120
3,839167	0,1	1,436645
3,840833	0,1	1,428172
3,842500	0,1	1,387887
3,844167	0,1	1,410132
3,845833	0,1	1,387086
3,847500	0,1	1,418683
3,849167	0,1	1,368423
3,850833	0,1	1,384638
3,852500	0,1	1,431679
3,854167	0,1	1,375034
3,855833	0,1	1,362956
3,857500	0,1	1,358720
3,859167	0,1	1,373720
3,860833	0,1	1,365470
3,862500	0,1	1,345578
3,864167	0,1	1,352035
3,865833	0,1	1,372854
3,867500	0,1	1,384139
3,869167	0,1	1,365900
3,870833	0,1	1,324184
3,872500	0,1	1,343345
3,874167	0,1	1,342201
3,875833	0,1	1,346295
3,877500	0,1	1,354335
3,879167	0,1	1,281679
3,880833	0,1	1,339238
3,882500	0,1	1,335879
3,884167	0,1	1,331719
3,885833	0,1	1,327331
3,887500	0,1	1,337169
3,889167	0,1	1,325689
3,890833	0,1	1,339036
3,892500	0,1	1,295677
3,894167	0,1	1,303995
3,895833	0,1	1,324532
3,897500	0,1	1,346791
3,899167	0,1	1,292661
3,900833	0,1	1,286478
3,902500	0,1	1,260059
3,904167	0,1	1,266366
3,905833	0,1	1,301760
3,907500	0,1	1,311248
3,909167	0,1	1,264803
3,910833	0,1	1,228752
3,912500	0,1	1,246401
3,914167	0,1	1,211951
3,915833	0,1	1,257814
3,917500	0,1	1,245046
3,919167	0,1	1,221998
3,920833	0,1	1,238159
3,922500	0,1	1,256392
3,924167	0,1	1,210383
3,925833	0,1	1,222359
3,927500	0,1	1,202189
3,929167	0,1	1,191274
3,930833	0,1	1,189481
3,932500	0,1	1,198654
3,934167	0,1	1,215897
3,935833	0,1	1,201824
3,937500	0,1	1,160423
3,939167	0,1	1,153295
3,940833	0,1	1,152648
3,942500	0,1	1,191915
3,944167	0,1	1,189693
3,945833	0,1	1,171478
3,947500	0,1	1,165934
3,949167	0,1	1,130053
3,950833	0,1	1,152080
3,952500	0,1	1,158538
3,954167	0,1	1,132051
3,955833	0,1	1,115106
3,957500	0,1	1,113305
3,959167	0,1	1,105420
3,960833	0,1	1,088060
3,962500	0,1	1,095004
3,964167	0,1	1,094802
3,965833	0,1	1,148561
3,967500	0,1	1,091641
3,969167	0,1	1,070901
3,970833	0,1	1,138497
3,972500	0,1	1,084690
3,974167	0,1	1,061283
3,975833	0,1	1,103695
3,977500	0,1	1,132697
3,979167	0,1	1,086346
3,980833	0,1	1,053454
3,982500	0,1	1,022172
3,984167	0,1	1,058771
3,985833	0,1	1,048578
3,987500	0,1	1,042547
3,989167	0,1	1,033366
3,990833	0,1	1,017002
3,992500	0,1	1,044292
3,994167	0,1	1,033018
3,995833	0,1	1,038530
3,997500	0,1	1,045634
3,999167	0,1	1,024763
4,000833	0,1	1,043544
4,002500	0,1	1,023890
4,004167	0,1	1,032287
4,005833	0,1	1,028206
4,007500	0,1	1,025098
4,009167	0,1	1,007593
4,010833	0,1	1,037082
4,012500	0,1	1,045065
4,014167	0,1	1,035653
4,015833	0,1	1,030510
4,017500	0,1	1,033066
4,019167	0,1	1,024673
4,020833	0,1	0,999856
4,022500	0,1	1,016777
4,024167	0,1	1,027567
4,025833	0,1	1,003511
4,027500	0,1	1,058837
4,029167	0,1	1,030351
4,030833	0,1	1,023895
4,032500	0,1	1,045421
4,034167	0,1	1,014998
4,035833	0,1	1,011387
4,037500	0,1	1,045558
4,039167	0,1	1,025311
4,040833	0,1	1,072892
4,042500	0,1	1,059263
4,044167	0,1	1,089697
4,045833	0,1	1,054694
4,047500	0,1	1,071894
4,049167	0,1	1,064788
4,050833	0,1	1,130394
4,052500	0,1	1,082891
4,054167	0,1	1,114019
4,055833	0,1	1,108293
4,057500	0,1	1,091064
4,059167	0,1	1,133270
4,060833	0,1	1,093444
4,062500	0,1	1,162329
4,064167	0,1	1,146191
4,065833	0,1	1,165928
4,067500	0,1	1,164214
4,069167	0,1	1,165787
4,070833	0,1	1,191981
4,072500	0,1	1,174688
4,074167	0,1	1,231183
4,075833	0,1	1,199533
4,077500	0,1	1,271313
4,079167	0,1	1,243824
4,080833	0,1	1,263132
4,082500	0,1	1,303627
4,084167	0,1	1,269677
4,085833	0,1	1,317557
4,087500	0,1	1,317635
4,089167	0,1	1,368541
4,090833	0,1	1,364676
4,092500	0,1	1,367834
4,094167	0,1	1,376094
4,095833	0,1	1,402952
4,097500	0,1	1,451503
4,099167	0,1	1,430615
4,100833	0,1	1,523042
4,102500	0,1	1,475517
4,104167	0,1	1,526500
4,105833	0,1	1,523712
4,107500	0,1	1,550791
4,109167	0,1	1,552448
4,110833	0,1	1,581324
4,112500	0,1	1,578102
4,114167	0,1	1,600731
4,115833	0,1	1,612085
4,117500	0,1	1,655622
4,119167	0,1	1,701973
4,120833	0,1	1,678065
4,122500	0,1	1,692146
4,124167	0,1	1,734327
4,125833	0,1	1,757836
4,127500	0,1	1,788022
4,129167	0,1	1,785881
4,130833	0,1	1,836190
4,132500	0,1	1,843685
4,134167	0,1	1,870065
4,135833	0,1	1,883510
4,137500	0,1	1,872727
4,139167	0,1	1,933395
4,140833	0,1	1,939226
4,142500	0,1	1,952963
4,144167	0,1	1,974421
4,145833	0,1	2,007922
4,147500	0,1	1,986500
4,149167	0,1	2,046723
4,150833	0,1	2,066250
4,152500	0,1	2,043189
4,154167	0,1	2,051437
4,155833	0,1	2,105935
4,157500	0,1	2,115969
4,159167	0,1	2,119344
4,160833	0,1	2,142226
4,162500	0,1	2,158241
4,164167	0,1	2,170893
4,165833	0,1	2,179065
4,167500	0,1	2,196821
4,169167	0,1	2,233308
4,170833	0,1	2,250515
4,172500	0,1	2,244901
4,174167	0,1	2,273754
4,175833	0,1	2,304618
4,177500	0,1	2,261194
4,179167	0,1	2,336996
4,180833	0,1	2,322691
4,182500	0,1	2,340022
4,184167	0,1	2,332799
4,185833	0,1	2,326381
4,187500	0,1	2,387051
4,189167	0,1	2,392936
4,190833	0,1	2,353101
4,192500	0,1	2,392391
4,194167	0,1	2,372396
4,195833	0,1	2,403331
4,197500	0,1	2,392975
4,199167	0,1	2,415380
4,200833	0,1	2,402905
4,202500	0,1	2,426811
4,204167	0,1	2,434117
4,205833	0,1	2,432060
4,207500	0,1	2,454941
4,209167	0,1	2,468323
4,210833	0,1	2,453502
4,212500	0,1	2,431625
4,214167	0,1	2,436366
4,215833	0,1	2,459954
4,217500	0,1	2,451518
4,219167	0,1	2,436027
4,220833	0,1	2,522245
4,222500	0,1	2,439739
4,224167	0,1	2,475217
4,225833	0,1	2,490660
4,227500	0,1	2,490646
4,229167	0,1	2,472086
4,230833	0,1	2,440642
4,232500	0,1	2,443646
4,234167	0,1	2,474875
4,235833	0,1	2,512251
4,237500	0,1	2,441415
4,239167	0,1	2,483792
4,240833	0,1	2,422027
4,242500	0,1	2,448519
4,244167	0,1	2,459976
4,245833	0,1	2,412001
4,247500	0,1	2,437865
4,249167	0,1	2,430193
4,250833	0,1	2,452371
4,252500	0,1	2,375289
4,254167	0,1	2,426692
4,255833	0,1	2,396658
4,257500	0,1	2,423498
4,259167	0,1	2,410089
4,260833	0,1	2,384976
4,262500	0,1	2,340733
4,264167	0,1	2,391531
4,265833	0,1	2,352722
4,267500	0,1	2,361133
4,269167	0,1	2,347171
4,270833	0,1	2,360257
4,272500	0,1	2,338391
4,274167	0,1	2,339681
4,275833	0,1	2,304709
4,277500	0,1	2,319099
4,279167	0,1	2,293048
4,280833	0,1	2,269383
4,282500	0,1	2,301907
4,284167	0,1	2,290588
4,285833	0,1	2,280977
4,287500	0,1	2,270659
4,289167	0,1	2,260583
4,290833	0,1	2,219516
4,292500	0,1	2,275163
4,294167	0,1	2,214687
4,295833	0,1	2,182028
4,297500	0,1	2,227117
4,299167	0,1	2,225592
4,300833	0,1	2,163118
4,302500	0,1	2,143969
4,304167	0,1	2,206449
4,305833	0,1	2,150439
4,307500	0,1	2,113527
4,309167	0,1	2,139973
4,310833	0,1	2,118554
4,312500	0,1	2,064028
4,314167	0,1	2,074594
4,315833	0,1	2,112179
4,317500	0,1	2,055052
4,319167	0,1	2,062932
4,320833	0,1	2,060345
4,322500	0,1	2,053532
4,324167	0,1	2,004916
4,325833	0,1	1,991388
4,327500	0,1	1,995268
4,329167	0,1	1,975847
4,330833	0,1	1,972041
4,332500	0,1	1,974972
4,334167	0,1	1,900069
4,335833	0,1	1,970488
4,337500	0,1	1,934213
4,339167	0,1	1,963101
4,340833	0,1	1,924359
4,342500	0,1	1,913571
4,344167	0,1	1,913635
4,345833	0,1	1,864103
4,347500	0,1	1,889258
4,349167	0,1	1,870002
4,350833	0,1	1,868842
4,352500	0,1	1,872135
4,354167	0,1	1,864882
4,355833	0,1	1,797767
4,357500	0,1	1,812751
4,359167	0,1	1,822250
4,360833	0,1	1,766411
4,362500	0,1	1,782141
4,364167	0,1	1,753898
4,365833	0,1	1,773791
4,367500	0,1	1,769780
4,369167	0,1	1,734133
4,370833	0,1	1,757047
4,372500	0,1	1,732053
4,374167	0,1	1,730948
4,375833	0,1	1,705950
4,377500	0,1	1,702646
4,379167	0,1	1,687908
4,380833	0,1	1,696379
4,382500	0,1	1,631077
4,384167	0,1	1,652037
4,385833	0,1	1,655062
4,387500	0,1	1,635090
4,389167	0,1	1,620715
4,390833	0,1	1,636805
4,392500	0,1	1,598732
4,394167	0,1	1,626308
4,395833	0,1	1,611730
4,397500	0,1	1,585077
4,399167	0,1	1,599937
4,400833	0,1	1,567690
4,402500	0,1	1,529612
4,404167	0,1	1,515453
4,405833	0,1	1,518250
4,407500	0,1	1,525291
4,409167	0,1	1,484711
4,410833	0,1	1,484128
4,412500	0,1	1,515084
4,414167	0,1	1,516239
4,415833	0,1	1,463522
4,417500	0,1	1,485416
4,419167	0,1	1,467178
4,420833	0,1	1,460065
4,422500	0,1	1,430979
4,424167	0,1	1,441384
4,425833	0,1	1,431261
4,427500	0,1	1,428962
4,429167	0,1	1,445908
4,430833	0,1	1,407564
4,432500	0,1	1,364258
4,434167	0,1	1,370495
4,435833	0,1	1,369922
4,437500	0,1	1,319442
4,439167	0,1	1,316483
4,440833	0,1	1,337599
4,442500	0,1	1,355627
4,444167	0,1	1,341562
4,445833	0,1	1,297403
4,447500	0,1	1,286188
4,449167	0,1	1,298681
4,450833	0,1	1,287767
4,452500	0,1	1,251731
4,454167	0,1	1,272620
4,455833	0,1	1,249934
4,457500	0,1	1,287117
4,459167	0,1	1,239466
4,460833	0,1	1,218625
4,462500	0,1	1,190127
4,464167	0,1	1,267658
4,465833	0,1	1,262939
4,467500	0,1	1,214261
4,469167	0,1	1,189703
4,470833	0,1	1,211373
4,472500	0,1	1,223076
4,474167	0,1	1,199754
4,475833	0,1	1,163850
4,477500	0,1	1,184242
4,479167	0,1	1,151665
4,480833	0,1	1,109009
4,482500	0,1	1,126810
4,484167	0,1	1,144266
4,485833	0,1	1,066610
4,487500	0,1	1,095505
4,489167	0,1	1,078527
4,490833	0,1	1,104851
4,492500	0,1	1,109308
4,494167	0,1	1,100612
4,495833	0,1	1,065005
4,497500	0,1	1,057490
4,499167	0,1	1,025691
4,500833	0,1	1,087901
4,502500	0,1	1,058864
4,504167	0,1	1,026345
4,505833	0,1	1,008904
4,507500	0,1	1,018228
4,509167	0,1	0,972181
4,510833	0,1	1,022739
4,512500	0,1	0,988103
4,514167	0,1	0,972452
4,515833	0,1	0,969507
4,517500	0,1	0,967511
4,519167	0,1	1,012852
4,520833	0,1	0,999026
4,522500	0,1	0,934998
4,524167	0,1	0,952664
4,525833	0,1	0,955151
4,527500	0,1	0,938514
4,529167	0,1	0,919225
4,530833	0,1	0,884295
4,532500	0,1	0,918866
4,534167	0,1	0,905365
4,535833	0,1	0,863692
4,537500	0,1	0,862681
4,539167	0,1	0,865815
4,540833	0,1	0,874310
4,542500	0,1	0,868655
4,544167	0,1	0,852504
4,545833	0,1	0,832492
4,547500	0,1	0,873094
4,549167	0,1	0,859098
4,550833	0,1	0,805182
4,552500	0,1	0,852340
4,554167	0,1	0,811596
4,555833	0,1	0,803276
4,557500	0,1	0,791906
4,559167	0,1	0,808285
4,560833	0,1	0,786015
4,562500	0,1	0,817277
4,564167	0,1	0,792925
4,565833	0,1	0,798192
4,567500	0,1	0,761285
4,569167	0,1	0,741176
4,570833	0,1	0,774673
4,572500	0,1	0,749006
4,574167	0,1	0,793966
4,575833	0,1	0,730670
4,577500	0,1	0,720452
4,579167	0,1	0,733931
4,580833	0,1	0,739894
4,582500	0,1	0,728265
4,584167	0,1	0,718143
4,585833	0,1	0,731092
4,587500	0,1	0,727976
4,589167	0,1	0,681451
4,590833	0,1	0,704104
4,592500	0,1	0,681664
4,594167	0,1	0,685530
4,595833	0,1	0,696144
4,597500	0,1	0,659676
4,599167	0,1	0,676205
4,600833	0,1	0,649044
4,602500	0,1	0,634472
4,604167	0,1	0,649543
4,605833	0,1	0,693500
4,607500	0,1	0,630186
4,609167	0,1	0,671645
4,610833	0,1	0,661469
4,612500	0,1	0,611251
4,614167	0,1	0,662896
4,615833	0,1	0,648259
4,617500	0,1	0,622772
4,619167	0,1	0,628742
4,620833	0,1	0,593554
4,622500	0,1	0,596703
4,624167	0,1	0,563195
4,625833	0,1	0,592027
4,627500	0,1	0,562939
4,629167	0,1	0,555618
4,630833	0,1	0,598732
4,632500	0,1	0,594770
4,634167	0,1	0,562824
4,635833	0,1	0,600243
4,637500	0,1	0,577457
4,639167	0,1	0,536897
4,640833	0,1	0,562097
4,642500	0,1	0,539915
4,644167	0,1	0,528658
4,645833	0,1	0,502280
4,647500	0,1	0,529841
4,649167	0,1	0,531455
4,650833	0,1	0,543865
4,652500	0,1	0,502879
4,654167	0,1	0,505873
4,655833	0,1	0,491665
4,657500	0,1	0,472623
4,659167	0,1	0,491100
4,660833	0,1	0,491729
4,662500	0,1	0,502934
4,664167	0,1	0,474224
4,665833	0,1	0,486856
4,667500	0,1	0,518873
4,669167	0,1	0,529420
4,670833	0,1	0,499363
4,672500	0,1	0,477044
4,674167	0,1	0,495818
4,675833	0,1	0,463327
4,677500	0,1	0,475688
4,679167	0,1	0,453408
4,680833	0,1	0,471345
4,682500	0,1	0,472707
4,684167	0,1	0,443090
4,685833	0,1	0,437812
4,687500	0,1	0,408795
4,689167	0,1	0,473355
4,690833	0,1	0,424103
4,692500	0,1	0,470761
4,694167	0,1	0,443775
4,695833	0,1	0,443817
4,697500	0,1	0,415780
4,699167	0,1	0,451279
4,700833	0,1	0,424608
4,702500	0,1	0,412194
4,704167	0,1	0,463597
4,705833	0,1	0,400062
4,707500	0,1	0,409054
4,709167	0,1	0,407853
4,710833	0,1	0,424550
4,712500	0,1	0,409280
4,714167	0,1	0,421684
4,715833	0,1	0,385446
4,717500	0,1	0,422457
4,719167	0,1	0,392806
4,720833	0,1	0,437867
4,722500	0,1	0,405482
4,724167	0,1	0,405764
4,725833	0,1	0,368724
4,727500	0,1	0,362892
4,729167	0,1	0,357309
4,730833	0,1	0,386698
4,732500	0,1	0,399064
4,734167	0,1	0,378570
4,735833	0,1	0,342464
4,737500	0,1	0,354658
4,739167	0,1	0,359465
4,740833	0,1	0,387055
4,742500	0,1	0,346445
4,744167	0,1	0,377979
4,745833	0,1	0,301692
4,747500	0,1	0,356162
4,749167	0,1	0,375092
4,750833	0,1	0,389792
4,752500	0,1	0,314524
4,754167	0,1	0,337890
4,755833	0,1	0,346343
4,757500	0,1	0,342812
4,759167	0,1	0,306953
4,760833	0,1	0,356340
4,762500	0,1	0,361843
4,764167	0,1	0,349439
4,765833	0,1	0,349392
4,767500	0,1	0,321361
4,769167	0,1	0,342715
4,770833	0,1	0,317558
4,772500	0,1	0,354963
4,774167	0,1	0,326964
4,775833	0,1	0,305684
4,777500	0,1	0,279046
4,779167	0,1	0,343173
4,780833	0,1	0,343499
4,782500	0,1	0,298598
4,784167	0,1	0,323948
4,785833	0,1	0,342649
4,787500	0,1	0,304820
4,789167	0,1	0,327975
4,790833	0,1	0,326313
4,792500	0,1	0,294281
4,794167	0,1	0,308010
4,795833	0,1	0,303655
4,797500	0,1	0,325329
4,799167	0,1	0,281853
4,800833	0,1	0,292582
4,802500	0,1	0,279447
4,804167	0,1	0,299914
4,805833	0,1	0,309924
4,807500	0,1	0,301101
4,809167	0,1	0,310212
4,810833	0,1	0,322595
4,812500	0,1	0,330089
4,814167	0,1	0,274521
4,815833	0,1	0,281398
4,817500	0,1	0,294981
4,819167	0,1	0,287982
4,820833	0,1	0,306964
4,822500	0,1	0,292741
4,824167	0,1	0,280802
4,825833	0,1	0,263311
4,827500	0,1	0,305802
4,829167	0,1	0,288762
4,830833	0,1	0,231278
4,832500	0,1	0,334803
4,834167	0,1	0,285745
4,835833	0,1	0,238614
4,837500	0,1	0,268252
4,839167	0,1	0,277175
4,840833	0,1	0,257569
4,842500	0,1	0,237879
4,844167	0,1	0,260384
4,845833	0,1	0,241808
4,847500	0,1	0,263567
4,849167	0,1	0,273951
4,850833	0,1	0,259815
4,852500	0,1	0,264927
4,854167	0,1	0,282976
4,855833	0,1	0,237036
4,857500	0,1	0,229490
4,859167	0,1	0,250540
4,860833	0,1	0,293440
4,862500	0,1	0,239948
4,864167	0,1	0,225359
4,865833	0,1	0,225355
4,867500	0,1	0,255828
4,869167	0,1	0,267125
4,870833	0,1	0,278218
4,872500	0,1	0,248015
4,874167	0,1	0,222112
4,875833	0,1	0,264785
4,877500	0,1	0,236477
4,879167	0,1	0,265186
4,880833	0,1	0,252928
4,882500	0,1	0,220139
4,884167	0,1	0,279476
4,885833	0,1	0,233283
4,887500	0,1	0,266475
4,889167	0,1	0,260571
4,890833	0,1	0,232410
4,892500	0,1	0,218803
4,894167	0,1	0,201085
4,895833	0,1	0,211590
4,897500	0,1	0,239844
4,899167	0,1	0,206999
4,900833	0,1	0,261511
4,902500	0,1	0,252301
4,904167	0,1	0,241250
4,905833	0,1	0,229695
4,907500	0,1	0,203087
4,909167	0,1	0,209882
4,910833	0,1	0,241976
4,912500	0,1	0,243428
4,914167	0,1	0,233853
4,915833	0,1	0,247054
4,917500	0,1	0,253610
4,919167	0,1	0,234276
4,920833	0,1	0,238181
4,922500	0,1	0,210955
4,924167	0,1	0,224063
4,925833	0,1	0,233889
4,927500	0,1	0,207443
4,929167	0,1	0,247619
4,930833	0,1	0,214824
4,932500	0,1	0,242755
4,934167	0,1	0,202091
4,935833	0,1	0,177485
4,937500	0,1	0,248039
4,939167	0,1	0,193110
4,940833	0,1	0,187191
4,942500	0,1	0,224411
4,944167	0,1	0,201294
4,945833	0,1	0,189324
4,947500	0,1	0,187834
4,949167	0,1	0,202905
4,950833	0,1	0,204528
4,952500	0,1	0,192613
4,954167	0,1	0,195833
4,955833	0,1	0,204344
4,957500	0,1	0,205411
4,959167	0,1	0,228176
4,960833	0,1	0,247071
4,962500	0,1	0,241076
4,964167	0,1	0,216045
4,965833	0,1	0,165103
4,967500	0,1	0,198602
4,969167	0,1	0,230571
4,970833	0,1	0,202624
4,972500	0,1	0,202726
4,974167	0,1	0,265425
4,975833	0,1	0,213523
4,977500	0,1	0,228218
4,979167	0,1	0,214489
4,980833	0,1	0,243447
4,982500	0,1	0,207694
4,984167	0,1	0,189284
4,985833	0,1	0,231527
4,987500	0,1	0,233404
4,989167	0,1	0,227158
4,990833	0,1	0,220712
4,992500	0,1	0,177795
4,994167	0,1	0,222748
4,995833	0,1	0,215843
4,997500	0,1	0,237886
4,999167	0,1	0,179508
5,000833	0,1	0,185056
5,002500	0,1	0,207918
5,004167	0,1	0,239800
5,005833	0,1	0,224202
5,007500	0,1	0,210935
5,009167	0,1	0,221683
5,010833	0,1	0,231799
5,012500	0,1	0,220736
5,014167	0,1	0,246200
5,015833	0,1	0,185088
5,017500	0,1	0,213256
5,019167	0,1	0,192457
5,020833	0,1	0,209837
5,022500	0,1	0,210419
5,024167	0,1	0,232688
5,025833	0,1	0,211598
5,027500	0,1	0,231754
5,029167	0,1	0,247005
5,030833	0,1	0,241027
5,032500	0,1	0,241495
5,034167	0,1	0,221714
5,035833	0,1	0,213198
5,037500	0,1	0,229821
5,039167	0,1	0,250739
5,040833	0,1	0,225781
5,042500	0,1	0,224446
5,044167	0,1	0,273629
5,045833	0,1	0,219276
5,047500	0,1	0,282785
5,049167	0,1	0,239174
5,050833	0,1	0,231910
5,052500	0,1	0,247871
5,054167	0,1	0,202935
5,055833	0,1	0,248575
5,057500	0,1	0,246273
5,059167	0,1	0,257742
5,060833	0,1	0,240964
5,062500	0,1	0,261766
5,064167	0,1	0,261970
5,065833	0,1	0,281885
5,067500	0,1	0,279732
5,069167	0,1	0,251860
5,070833	0,1	0,274659
5,072500	0,1	0,277019
5,074167	0,1	0,255816
5,075833	0,1	0,254613
5,077500	0,1	0,278483
5,079167	0,1	0,264394
5,080833	0,1	0,276372
5,082500	0,1	0,274062
5,084167	0,1	0,259104
5,085833	0,1	0,240320
5,087500	0,1	0,256675
5,089167	0,1	0,270680
5,090833	0,1	0,281085
5,092500	0,1	0,286557
5,094167	0,1	0,226368
5,095833	0,1	0,274761
5,097500	0,1	0,291490
5,099167	0,1	0,300253
5,100833	0,1	0,289073
5,102500	0,1	0,288692
5,104167	0,1	0,298896
5,105833	0,1	0,278134
5,107500	0,1	0,269551
5,109167	0,1	0,259946
5,110833	0,1	0,276324
5,112500	0,1	0,328679
5,114167	0,1	0,313575
5,115833	0,1	0,294878
5,117500	0,1	0,309166
5,119167	0,1	0,276961
5,120833	0,1	0,287378
5,122500	0,1	0,320922
5,124167	0,1	0,273074
5,125833	0,1	0,289756
5,127500	0,1	0,271753
5,129167	0,1	0,278839
5,130833	0,1	0,283378
5,132500	0,1	0,278889
5,134167	0,1	0,310318
5,135833	0,1	0,311258
5,137500	0,1	0,269691
5,139167	0,1	0,338057
5,140833	0,1	0,280102
5,142500	0,1	0,288089
5,144167	0,1	0,271932
5,145833	0,1	0,268750
5,147500	0,1	0,265194
5,149167	0,1	0,266814
5,150833	0,1	0,290620
5,152500	0,1	0,298273
5,154167	0,1	0,282273
5,155833	0,1	0,278354
5,157500	0,1	0,266040
5,159167	0,1	0,282531
5,160833	0,1	0,276443
5,162500	0,1	0,266040
5,164167	0,1	0,295823
5,165833	0,1	0,307744
5,167500	0,1	0,266847
5,169167	0,1	0,263481
5,170833	0,1	0,266596
5,172500	0,1	0,306759
5,174167	0,1	0,248751
5,175833	0,1	0,258586
5,177500	0,1	0,276860
5,179167	0,1	0,276154
5,180833	0,1	0,244390
5,182500	0,1	0,277236
5,184167	0,1	0,247816
5,185833	0,1	0,256810
5,187500	0,1	0,233186
5,189167	0,1	0,259540
5,190833	0,1	0,239054
5,192500	0,1	0,263276
5,194167	0,1	0,262457
5,195833	0,1	0,241724
5,197500	0,1	0,238249
5,199167	0,1	0,217912
5,200833	0,1	0,262692
5,202500	0,1	0,295867
5,204167	0,1	0,229239
5,205833	0,1	0,217754
5,207500	0,1	0,225618
5,209167	0,1	0,279743
5,210833	0,1	0,193474
5,212500	0,1	0,244731
5,214167	0,1	0,261789
5,215833	0,1	0,207804
5,217500	0,1	0,252311
5,219167	0,1	0,220873
5,220833	0,1	0,247003
5,222500	0,1	0,196514
5,224167	0,1	0,228395
5,225833	0,1	0,225577
5,227500	0,1	0,208291
5,229167	0,1	0,234043
5,230833	0,1	0,235983
5,232500	0,1	0,167973
5,234167	0,1	0,197916
5,235833	0,1	0,174882
5,237500	0,1	0,234588
5,239167	0,1	0,234248
5,240833	0,1	0,206584
5,242500	0,1	0,157326
5,244167	0,1	0,236252
5,245833	0,1	0,203445
5,247500	0,1	0,188456
5,249167	0,1	0,192411
5,250833	0,1	0,189544
5,252500	0,1	0,190280
5,254167	0,1	0,175234
5,255833	0,1	0,206164
5,257500	0,1	0,185311
5,259167	0,1	0,200905
5,260833	0,1	0,142819
5,262500	0,1	0,172606
5,264167	0,1	0,115052
5,265833	0,1	0,132990
5,267500	0,1	0,155402
5,269167	0,1	0,164297
5,270833	0,1	0,153515
5,272500	0,1	0,219048
5,274167	0,1	0,162799
5,275833	0,1	0,162405
5,277500	0,1	0,148360
5,279167	0,1	0,145581
5,280833	0,1	0,163021
5,282500	0,1	0,157433
5,284167	0,1	0,151161
5,285833	0,1	0,172227
5,287500	0,1	0,138921
5,289167	0,1	0,171975
5,290833	0,1	0,149941
5,292500	0,1	0,122976
5,294167	0,1	0,152663
5,295833	0,1	0,134735
5,297500	0,1	0,157797
5,299167	0,1	0,132880
5,300833	0,1	0,120106
5,302500	0,1	0,116159
5,304167	0,1	0,123180
5,305833	0,1	0,124799
5,307500	0,1	0,115265
5,309167	0,1	0,130108
5,310833	0,1	0,136161
5,312500	0,1	0,135978
5,314167	0,1	0,137004
5,315833	0,1	0,106010
5,317500	0,1	0,125768
5,319167	0,1	0,127180
5,320833	0,1	0,131781
5,322500	0,1	0,136018
5,324167	0,1	0,129760
5,325833	0,1	0,101564
5,327500	0,1	0,085843
5,329167	0,1	0,114415
5,330833	0,1	0,105651
5,332500	0,1	0,121019
5,334167	0,1	0,120341
5,335833	0,1	0,095053
5,337500	0,1	0,098374
5,339167	0,1	0,103595
5,340833	0,1	0,102886
5,342500	0,1	0,101466
5,344167	0,1	0,063715
5,345833	0,1	0,113831
5,347500	0,1	0,093224
5,349167	0,1	0,118755
5,350833	0,1	0,097707
5,352500	0,1	0,083687
5,354167	0,1	0,135875
5,355833	0,1	0,088996
5,357500	0,1	0,112154
5,359167	0,1	0,103821
5,360833	0,1	0,091528
5,362500	0,1	0,105198
5,364167	0,1	0,140035
5,365833	0,1	0,089233
5,367500	0,1	0,064618
5,369167	0,1	0,055265
5,370833	0,1	0,071592
5,372500	0,1	0,099132
5,374167	0,1	0,066252
5,375833	0,1	0,041193
5,377500	0,1	0,109919
5,379167	0,1	0,081364
5,380833	0,1	0,059965
5,382500	0,1	0,056552
5,384167	0,1	0,076616
5,385833	0,1	0,071757
5,387500	0,1	0,100367
5,389167	0,1	0,075982
5,390833	0,1	0,053558
5,392500	0,1	0,046466
5,394167	0,1	0,039508
5,395833	0,1	0,091561
5,397500	0,1	0,053300
5,399167	0,1	0,085401
5,400833	0,1	0,046987
5,402500	0,1	0,058705
5,404167	0,1	0,083954
5,405833	0,1	0,046669
5,407500	0,1	0,059349
5,409167	0,1	0,028298
5,410833	0,1	0,049419
5,412500	0,1	0,053263
5,414167	0,1	0,064952
5,415833	0,1	0,069046
5,417500	0,1	0,044445
5,419167	0,1	0,055774
5,420833	0,1	0,059678
5,422500	0,1	0,032677
5,424167	0,1	0,033026
5,425833	0,1	0,070327
5,427500	0,1	0,042764
5,429167	0,1	0,074286
5,430833	0,1	0,013999
5,432500	0,1	0,030350
5,434167	0,1	0,046395
5,435833	0,1	-0,031576
5,437500	0,1	0,025316
5,439167	0,1	0,036115
5,440833	0,1	0,037667
5,442500	0,1	0,046910
5,444167	0,1	0,033579
5,445833	0,1	0,003625
5,447500	0,1	0,042009
5,449167	0,1	0,033290
5,450833	0,1	0,030132
5,452500	0,1	0,024847
5,454167	0,1	0,047263
5,455833	0,1	0,097285
5,457500	0,1	0,002830
5,459167	0,1	0,011956
5,460833	0,1	-0,001599
5,462500	0,1	-0,007465
5,464167	0,1	0,022326
5,465833	0,1	0,020140
5,467500	0,1	0,011056
5,469167	0,1	0,016625
5,470833	0,1	0,034338
5,472500	0,1	-0,031383
5,474167	0,1	0,007466
5,475833	0,1	0,022292
5,477500	0,1	0,023780
5,479167	0,1	0,050510
5,480833	0,1	-0,029744
5,482500	0,1	0,056678
5,484167	0,1	0,036963
5,485833	0,1	0,001788
5,487500	0,1	0,016849
5,489167	0,1	0,024414
5,490833	0,1	0,006156
5,492500	0,1	-0,005140
5,494167	0,1	-0,029693
5,495833	0,1	0,029696
5,497500	0,1	-0,020506
5,499167	0,1	0,026824
5,500833	0,1	-0,018286
5,502500	0,1	-0,022096
5,504167	0,1	0,032238
5,505833	0,1	-0,011227
5,507500	0,1	-0,005861
5,509167	0,1	-0,004280
5,510833	0,1	0,021775
5,512500	0,1	-0,000857
5,514167	0,1	-0,006921
5,515833	0,1	0,044257
5,517500	0,1	-0,002561
5,519167	0,1	0,001134
5,520833	0,1	0,029537
5,522500	0,1	0,010544
5,524167	0,1	-0,015388
5,525833	0,1	-0,000774
5,527500	0,1	-0,004186
5,529167	0,1	-0,021412
5,530833	0,1	-0,013556
5,532500	0,1	-0,031915
5,534167	0,1	-0,011633
5,535833	0,1	-0,030084
5,537500	0,1	0,033908
5,539167	0,1	-0,009880
5,540833	0,1	-0,013423
5,542500	0,1	-0,024446
5,544167	0,1	-0,022835
5,545833	0,1	-0,009533
5,547500	0,1	-0,037677
5,549167	0,1	-0,037879
5,550833	0,1	-0,006128
5,552500	0,1	0,043511
5,554167	0,1	0,001173
5,555833	0,1	-0,019834
5,557500	0,1	-0,015104
5,559167	0,1	-0,011406
5,560833	0,1	-0,013591
5,562500	0,1	-0,003182
5,564167	0,1	-0,035034
5,565833	0,1	0,036454
5,567500	0,1	-0,015735
5,569167	0,1	-0,031656
5,570833	0,1	0,011144
5,572500	0,1	-0,010009
5,574167	0,1	-0,054879
5,575833	0,1	-0,013245
5,577500	0,1	-0,015233
5,579167	0,1	0,014695
5,580833	0,1	-0,017898
5,582500	0,1	-0,006767
5,584167	0,1	0,023316
5,585833	0,1	0,016946
5,587500	0,1	-0,031518
5,589167	0,1	-0,002971
5,590833	0,1	-0,034164
5,592500	0,1	-0,038420
5,594167	0,1	-0,011860
5,595833	0,1	-0,003051
5,597500	0,1	-0,010526
5,599167	0,1	-0,014300
5,600833	0,1	0,006473
5,602500	0,1	-0,009561
5,604167	0,1	-0,040672
5,605833	0,1	-0,044510
5,607500	0,1	0,010975
5,609167	0,1	-0,039314
5,610833	0,1	-0,041648
5,612500	0,1	-0,035331
5,614167	0,1	0,012844
5,615833	0,1	-0,011875
5,617500	0,1	0,045283
5,619167	0,1	-0,015640
5,620833	0,1	0,007282
5,622500	0,1	0,026475
5,624167	0,1	-0,039028
5,625833	0,1	-0,046572
5,627500	0,1	-0,023840
5,629167	0,1	-0,017421
5,630833	0,1	-0,019259
5,632500	0,1	-0,026475
5,634167	0,1	-0,039040
5,635833	0,1	-0,018525
5,637500	0,1	-0,002742
5,639167	0,1	-0,040447
5,640833	0,1	-0,001554
5,642500	0,1	-0,042543
5,644167	0,1	0,017613
5,645833	0,1	0,002681
5,647500	0,1	-0,052619
5,649167	0,1	0,000984
5,650833	0,1	-0,026115
5,652500	0,1	-0,051111
5,654167	0,1	-0,035501
5,655833	0,1	-0,039297
5,657500	0,1	-0,014241
5,659167	0,1	-0,040645
5,660833	0,1	-0,024164
5,662500	0,1	-0,045190
5,664167	0,1	-0,051088
5,665833	0,1	-0,011565
5,667500	0,1	-0,044862
5,669167	0,1	-0,066286
5,670833	0,1	0,045008
5,672500	0,1	-0,028101
5,674167	0,1	-0,052400
5,675833	0,1	-0,026932
5,677500	0,1	-0,002744
5,679167	0,1	-0,012619
5,680833	0,1	-0,031822
5,682500	0,1	0,018866
5,684167	0,1	0,027962
5,685833	0,1	0,003037
5,687500	0,1	-0,039352
5,689167	0,1	0,019294
5,690833	0,1	-0,032198
5,692500	0,1	-0,004129
5,694167	0,1	-0,013110
5,695833	0,1	0,001964
5,697500	0,1	0,002807
5,699167	0,1	-0,045562
5,700833	0,1	0,015837
5,702500	0,1	-0,025337
5,704167	0,1	0,005788
5,705833	0,1	-0,031687
5,707500	0,1	-0,036298
5,709167	0,1	-0,021587
5,710833	0,1	-0,045220
5,712500	0,1	-0,032279
5,714167	0,1	0,025111
5,715833	0,1	0,009730
5,717500	0,1	-0,007367
5,719167	0,1	-0,010339
5,720833	0,1	-0,017774
5,722500	0,1	-0,024896
5,724167	0,1	-0,005125
5,725833	0,1	-0,000546
5,727500	0,1	-0,013941
5,729167	0,1	0,005380
5,730833	0,1	0,004066
5,732500	0,1	-0,003894
5,734167	0,1	-0,011619
5,735833	0,1	-0,052817
5,737500	0,1	-0,036529
5,739167	0,1	0,002116
5,740833	0,1	-0,060223
5,742500	0,1	0,030258
5,744167	0,1	-0,030486
5,745833	0,1	0,000223
5,747500	0,1	0,023356
5,749167	0,1	-0,015354
5,750833	0,1	0,006986
5,752500	0,1	-0,018993
5,754167	0,1	-0,010437
5,755833	0,1	0,044220
5,757500	0,1	0,016764
5,759167	0,1	-0,026916
5,760833	0,1	0,007345
5,762500	0,1	-0,009691
5,764167	0,1	0,031915
5,765833	0,1	-0,016215
5,767500	0,1	-0,018615
5,769167	0,1	-0,001128
5,770833	0,1	0,018324
5,772500	0,1	-0,027080
5,774167	0,1	0,011240
5,775833	0,1	0,014880
5,777500	0,1	0,008382
5,779167	0,1	0,004769
5,780833	0,1	-0,010271
5,782500	0,1	0,002448
5,784167	0,1	0,020554
5,785833	0,1	0,003622
5,787500	0,1	0,025120
5,789167	0,1	-0,021405
5,790833	0,1	-0,000933
5,792500	0,1	0,009985
5,794167	0,1	0,010314
5,795833	0,1	0,008120
5,797500	0,1	0,027223
5,799167	0,1	-0,030973
5,800833	0,1	-0,005743
5,802500	0,1	-0,013812
5,804167	0,1	0,006603
5,805833	0,1	0,020976
5,807500	0,1	0,024480
5,809167	0,1	-0,016868
5,810833	0,1	0,004091
5,812500	0,1	-0,009527
5,814167	0,1	0,020681
5,815833	0,1	-0,011911
5,817500	0,1	-0,074521
5,819167	0,1	0,007586
5,820833	0,1	-0,008591
5,822500	0,1	-0,017808
5,824167	0,1	-0,014525
5,825833	0,1	0,029307
5,827500	0,1	-0,025782
5,829167	0,1	-0,018645
5,830833	0,1	0,031081
5,832500	0,1	0,001265
5,834167	0,1	0,021488
5,835833	0,1	0,022173
5,837500	0,1	-0,011904
5,839167	0,1	0,003375
5,840833	0,1	-0,022828
5,842500	0,1	-0,014882
5,844167	0,1	-0,000708
5,845833	0,1	-0,007024
5,847500	0,1	0,009703
5,849167	0,1	0,004834
5,850833	0,1	0,007122
5,852500	0,1	0,004553
5,854167	0,1	-0,026470
5,855833	0,1	0,035616
5,857500	0,1	-0,018219
5,859167	0,1	-0,008316
5,860833	0,1	0,013653
5,862500	0,1	-0,032104
5,864167	0,1	0,027240
5,865833	0,1	-0,020057
5,867500	0,1	0,005471
5,869167	0,1	-0,025370
5,870833	0,1	0,004695
5,872500	0,1	-0,023184
5,874167	0,1	-0,016075
5,875833	0,1	-0,022833
5,877500	0,1	-0,020035
5,879167	0,1	-0,020322
5,880833	0,1	-0,027185
5,882500	0,1	-0,009251
5,884167	0,1	-0,033332
5,885833	0,1	-0,018458
5,887500	0,1	-0,017745
5,889167	0,1	-0,020836
5,890833	0,1	-0,002577
5,892500	0,1	-0,020290
5,894167	0,1	-0,007477
5,895833	0,1	-0,070396
5,897500	0,1	-0,013509
5,899167	0,1	-0,039905
5,900833	0,1	-0,015725
5,902500	0,1	-0,033046
5,904167	0,1	-0,012568
5,905833	0,1	-0,006701
5,907500	0,1	-0,035815
5,909167	0,1	-0,068665
5,910833	0,1	-0,022239
5,912500	0,1	-0,062385
5,914167	0,1	-0,034020
5,915833	0,1	-0,005771
5,917500	0,1	-0,054841
5,919167	0,1	-0,025781
5,920833	0,1	-0,011213
5,922500	0,1	-0,047664
5,924167	0,1	-0,033088
5,925833	0,1	-0,051664
5,927500	0,1	-0,049185
5,929167	0,1	-0,016016
5,930833	0,1	-0,033848
5,932500	0,1	-0,006127
5,934167	0,1	-0,038521
5,935833	0,1	-0,019943
5,937500	0,1	-0,043867
5,939167	0,1	-0,052760
5,940833	0,1	-0,017335
5,942500	0,1	-0,014720
5,944167	0,1	-0,058773
5,945833	0,1	-0,032765
5,947500	0,1	-0,035335
5,949167	0,1	-0,055173
5,950833	0,1	-0,045423
5,952500	0,1	-0,038045
5,954167	0,1	-0,034079
5,955833	0,1	-0,030957
5,957500	0,1	-0,016432
5,959167	0,1	0,013362
5,960833	0,1	-0,027790
5,962500	0,1	-0,045606
5,964167	0,1	-0,031929
5,965833	0,1	-0,052596
5,967500	0,1	-0,013535
5,969167	0,1	-0,048054
5,970833	0,1	-0,051922
5,972500	0,1	-0,045196
5,974167	0,1	-0,030671
5,975833	0,1	-0,024936
5,977500	0,1	-0,027285
5,979167	0,1	-0,020940
5,980833	0,1	-0,058037
5,982500	0,1	-0,051574
5,984167	0,1	-0,051442
5,985833	0,1	-0,064680
5,987500	0,1	-0,038145
5,989167	0,1	-0,063607
5,990833	0,1	-0,078398
5,992500	0,1	-0,055183
5,994167	0,1	-0,035567
5,995833	0,1	-0,059009
5,997500	0,1	-0,063588
5,999167	0,1	-0,041111
6,000833	0,1	-0,071762
