File Path	chrom://chromeleon01/ikbm_chromeleon/2022/Rezex/Esteban/220612_chitin_4_7.seq/292.smp/UV_VIS_1.channel/UV_VIS_1.chm
Channel	UV_VIS_1

Injection Information:
Data Vault	ikbm_chromeleon
Injection	7_00h-EGS_NA
Injection Number	113
Position	BB7
Comment	
Processing Method	New ProcMethod
Instrument Method	Short_Rezex_6min_194nm
Type	Unknown
Status	Finished
Injection Date	13.06.2022
Injection Time	05:19:19
Injection Volume (µl)	8,000
Dilution Factor	1,0000
Weight	1,0000

Chromatogram Data Information:
Time Min. (min)	0,000833
Time Max. (min)	6,000833
Data Points	3601
Detector	UV
Generating Data System	Chromeleon 7.2.9.11323
Exporting Data System	Chromeleon 7.2.9.0
Operator	Instrument Controller
Signal Quantity	Absorbance
Signal Unit	mAU
Signal Min.	-0,147608
Signal Max.	36,813735
Channel	UV_VIS_1
Driver Name	VWD3000.dll
Channel Type	Evaluation
Min. Step (s)	0,1
Max. Step (s)	0,1
Average Step (s)	0,1

Signal Parameter Information:
Signal Info	WVL:194 nm

Chromatogram Data:
Time (min)	Step (s)	Value (mAU)
0,000833	n.a.	-0,049093
0,002500	0,1	-0,035317
0,004167	0,1	-0,069778
0,005833	0,1	-0,018435
0,007500	0,1	-0,063468
0,009167	0,1	-0,034968
0,010833	0,1	-0,057516
0,012500	0,1	-0,035731
0,014167	0,1	-0,052843
0,015833	0,1	-0,037242
0,017500	0,1	-0,051349
0,019167	0,1	-0,069231
0,020833	0,1	-0,058657
0,022500	0,1	-0,049719
0,024167	0,1	-0,085555
0,025833	0,1	-0,085441
0,027500	0,1	-0,050658
0,029167	0,1	-0,097527
0,030833	0,1	-0,095003
0,032500	0,1	-0,126805
0,034167	0,1	-0,112400
0,035833	0,1	-0,127864
0,037500	0,1	-0,147608
0,039167	0,1	-0,099305
0,040833	0,1	-0,093630
0,042500	0,1	-0,110102
0,044167	0,1	-0,129818
0,045833	0,1	-0,123410
0,047500	0,1	-0,117179
0,049167	0,1	-0,105588
0,050833	0,1	-0,112853
0,052500	0,1	-0,077813
0,054167	0,1	-0,091439
0,055833	0,1	-0,072648
0,057500	0,1	-0,051630
0,059167	0,1	-0,069415
0,060833	0,1	-0,038591
0,062500	0,1	-0,070817
0,064167	0,1	-0,074795
0,065833	0,1	-0,058852
0,067500	0,1	-0,089650
0,069167	0,1	-0,074616
0,070833	0,1	-0,055495
0,072500	0,1	-0,065690
0,074167	0,1	-0,064701
0,075833	0,1	-0,093193
0,077500	0,1	-0,079870
0,079167	0,1	-0,049266
0,080833	0,1	-0,060586
0,082500	0,1	-0,013714
0,084167	0,1	-0,089059
0,085833	0,1	-0,065806
0,087500	0,1	-0,014920
0,089167	0,1	-0,056149
0,090833	0,1	-0,061720
0,092500	0,1	-0,056179
0,094167	0,1	-0,063276
0,095833	0,1	-0,038528
0,097500	0,1	-0,035069
0,099167	0,1	-0,040611
0,100833	0,1	-0,011830
0,102500	0,1	-0,007314
0,104167	0,1	-0,019334
0,105833	0,1	-0,031321
0,107500	0,1	-0,086419
0,109167	0,1	-0,032120
0,110833	0,1	-0,046076
0,112500	0,1	-0,076100
0,114167	0,1	-0,055830
0,115833	0,1	-0,097450
0,117500	0,1	-0,064111
0,119167	0,1	-0,069144
0,120833	0,1	-0,057356
0,122500	0,1	-0,089862
0,124167	0,1	-0,098635
0,125833	0,1	-0,042630
0,127500	0,1	-0,053670
0,129167	0,1	-0,060148
0,130833	0,1	-0,070623
0,132500	0,1	-0,080826
0,134167	0,1	-0,062507
0,135833	0,1	-0,040452
0,137500	0,1	-0,084498
0,139167	0,1	-0,055024
0,140833	0,1	-0,109115
0,142500	0,1	-0,038416
0,144167	0,1	-0,080238
0,145833	0,1	-0,071179
0,147500	0,1	-0,022599
0,149167	0,1	-0,046503
0,150833	0,1	-0,039727
0,152500	0,1	-0,051042
0,154167	0,1	-0,072621
0,155833	0,1	-0,054715
0,157500	0,1	-0,063063
0,159167	0,1	-0,060150
0,160833	0,1	-0,058910
0,162500	0,1	-0,063601
0,164167	0,1	-0,064394
0,165833	0,1	-0,052927
0,167500	0,1	-0,006349
0,169167	0,1	-0,073633
0,170833	0,1	0,015578
0,172500	0,1	-0,061687
0,174167	0,1	-0,069294
0,175833	0,1	-0,058501
0,177500	0,1	-0,043701
0,179167	0,1	-0,029007
0,180833	0,1	-0,071502
0,182500	0,1	-0,043722
0,184167	0,1	-0,039726
0,185833	0,1	-0,058800
0,187500	0,1	-0,071859
0,189167	0,1	-0,029444
0,190833	0,1	-0,046366
0,192500	0,1	-0,056921
0,194167	0,1	-0,053321
0,195833	0,1	-0,033087
0,197500	0,1	-0,056356
0,199167	0,1	-0,029028
0,200833	0,1	-0,041938
0,202500	0,1	-0,053044
0,204167	0,1	-0,044755
0,205833	0,1	-0,022058
0,207500	0,1	-0,014909
0,209167	0,1	-0,019686
0,210833	0,1	-0,071727
0,212500	0,1	0,004839
0,214167	0,1	-0,024110
0,215833	0,1	-0,034256
0,217500	0,1	-0,027388
0,219167	0,1	0,010026
0,220833	0,1	-0,066254
0,222500	0,1	-0,025701
0,224167	0,1	-0,015859
0,225833	0,1	-0,015320
0,227500	0,1	-0,010522
0,229167	0,1	-0,062764
0,230833	0,1	-0,050284
0,232500	0,1	-0,062940
0,234167	0,1	-0,010219
0,235833	0,1	-0,043032
0,237500	0,1	-0,015511
0,239167	0,1	-0,038164
0,240833	0,1	-0,053467
0,242500	0,1	-0,040677
0,244167	0,1	-0,011749
0,245833	0,1	-0,054243
0,247500	0,1	0,001163
0,249167	0,1	-0,055461
0,250833	0,1	-0,070197
0,252500	0,1	-0,035216
0,254167	0,1	-0,023232
0,255833	0,1	-0,059711
0,257500	0,1	-0,022703
0,259167	0,1	-0,020083
0,260833	0,1	-0,063635
0,262500	0,1	-0,042710
0,264167	0,1	-0,006285
0,265833	0,1	-0,026801
0,267500	0,1	-0,014911
0,269167	0,1	-0,035809
0,270833	0,1	-0,058403
0,272500	0,1	-0,029897
0,274167	0,1	-0,027186
0,275833	0,1	-0,005931
0,277500	0,1	-0,070413
0,279167	0,1	-0,040024
0,280833	0,1	-0,033787
0,282500	0,1	-0,049406
0,284167	0,1	-0,042373
0,285833	0,1	-0,029832
0,287500	0,1	-0,027493
0,289167	0,1	-0,026622
0,290833	0,1	-0,061301
0,292500	0,1	-0,057750
0,294167	0,1	-0,027711
0,295833	0,1	-0,017107
0,297500	0,1	-0,023642
0,299167	0,1	-0,021051
0,300833	0,1	-0,018327
0,302500	0,1	-0,043068
0,304167	0,1	-0,014668
0,305833	0,1	-0,026803
0,307500	0,1	0,016601
0,309167	0,1	-0,001991
0,310833	0,1	-0,059248
0,312500	0,1	-0,027271
0,314167	0,1	-0,027097
0,315833	0,1	-0,010482
0,317500	0,1	-0,014862
0,319167	0,1	-0,051844
0,320833	0,1	-0,026673
0,322500	0,1	-0,018056
0,324167	0,1	-0,020662
0,325833	0,1	-0,028210
0,327500	0,1	-0,022466
0,329167	0,1	-0,038545
0,330833	0,1	-0,024454
0,332500	0,1	-0,026209
0,334167	0,1	-0,031982
0,335833	0,1	-0,021518
0,337500	0,1	-0,012159
0,339167	0,1	-0,042284
0,340833	0,1	-0,020318
0,342500	0,1	-0,035153
0,344167	0,1	-0,044750
0,345833	0,1	-0,030870
0,347500	0,1	-0,050933
0,349167	0,1	-0,032841
0,350833	0,1	-0,008936
0,352500	0,1	-0,048804
0,354167	0,1	-0,065811
0,355833	0,1	-0,056864
0,357500	0,1	0,013386
0,359167	0,1	-0,011782
0,360833	0,1	-0,040255
0,362500	0,1	-0,017998
0,364167	0,1	-0,033947
0,365833	0,1	-0,008479
0,367500	0,1	-0,032144
0,369167	0,1	-0,003717
0,370833	0,1	-0,029638
0,372500	0,1	-0,056644
0,374167	0,1	-0,034494
0,375833	0,1	-0,019322
0,377500	0,1	-0,004109
0,379167	0,1	-0,048512
0,380833	0,1	-0,041774
0,382500	0,1	-0,026213
0,384167	0,1	0,019956
0,385833	0,1	0,003475
0,387500	0,1	-0,018548
0,389167	0,1	-0,006052
0,390833	0,1	-0,019438
0,392500	0,1	-0,034650
0,394167	0,1	-0,013918
0,395833	0,1	-0,011331
0,397500	0,1	0,015487
0,399167	0,1	-0,036462
0,400833	0,1	-0,018742
0,402500	0,1	-0,024038
0,404167	0,1	-0,002143
0,405833	0,1	0,049302
0,407500	0,1	-0,031630
0,409167	0,1	-0,002644
0,410833	0,1	-0,045964
0,412500	0,1	-0,026257
0,414167	0,1	-0,004321
0,415833	0,1	-0,004228
0,417500	0,1	-0,025852
0,419167	0,1	-0,008830
0,420833	0,1	0,023414
0,422500	0,1	0,003352
0,424167	0,1	-0,051796
0,425833	0,1	0,005609
0,427500	0,1	-0,000649
0,429167	0,1	-0,010642
0,430833	0,1	0,006445
0,432500	0,1	0,013919
0,434167	0,1	0,010011
0,435833	0,1	-0,002530
0,437500	0,1	0,013836
0,439167	0,1	0,003263
0,440833	0,1	-0,021176
0,442500	0,1	-0,001236
0,444167	0,1	0,025752
0,445833	0,1	0,012831
0,447500	0,1	-0,004163
0,449167	0,1	-0,003217
0,450833	0,1	-0,000548
0,452500	0,1	-0,057033
0,454167	0,1	0,009703
0,455833	0,1	0,016239
0,457500	0,1	-0,001806
0,459167	0,1	0,002089
0,460833	0,1	-0,043670
0,462500	0,1	0,008776
0,464167	0,1	-0,019311
0,465833	0,1	-0,035460
0,467500	0,1	0,020921
0,469167	0,1	0,023027
0,470833	0,1	0,013923
0,472500	0,1	0,004773
0,474167	0,1	-0,012091
0,475833	0,1	-0,005435
0,477500	0,1	-0,003069
0,479167	0,1	-0,019130
0,480833	0,1	-0,014002
0,482500	0,1	-0,012034
0,484167	0,1	0,012570
0,485833	0,1	0,011540
0,487500	0,1	0,002313
0,489167	0,1	-0,017477
0,490833	0,1	-0,027579
0,492500	0,1	0,034085
0,494167	0,1	-0,028558
0,495833	0,1	0,006275
0,497500	0,1	-0,013996
0,499167	0,1	-0,032436
0,500833	0,1	0,065603
0,502500	0,1	0,001623
0,504167	0,1	0,001089
0,505833	0,1	0,022089
0,507500	0,1	0,002562
0,509167	0,1	0,028961
0,510833	0,1	-0,009150
0,512500	0,1	0,005515
0,514167	0,1	0,009947
0,515833	0,1	0,006408
0,517500	0,1	0,004236
0,519167	0,1	0,005826
0,520833	0,1	-0,011080
0,522500	0,1	0,000338
0,524167	0,1	0,001730
0,525833	0,1	-0,003981
0,527500	0,1	0,024304
0,529167	0,1	-0,006068
0,530833	0,1	-0,046941
0,532500	0,1	0,019926
0,534167	0,1	-0,000172
0,535833	0,1	0,010439
0,537500	0,1	-0,001659
0,539167	0,1	0,016007
0,540833	0,1	-0,008221
0,542500	0,1	-0,004168
0,544167	0,1	-0,014948
0,545833	0,1	0,054908
0,547500	0,1	-0,040328
0,549167	0,1	0,000393
0,550833	0,1	0,013918
0,552500	0,1	0,019423
0,554167	0,1	0,031822
0,555833	0,1	0,005007
0,557500	0,1	0,033866
0,559167	0,1	0,029733
0,560833	0,1	0,006289
0,562500	0,1	0,037301
0,564167	0,1	0,021168
0,565833	0,1	-0,009626
0,567500	0,1	0,023908
0,569167	0,1	0,011893
0,570833	0,1	0,008974
0,572500	0,1	0,030430
0,574167	0,1	0,031657
0,575833	0,1	0,029918
0,577500	0,1	0,037183
0,579167	0,1	0,002485
0,580833	0,1	0,024638
0,582500	0,1	0,037305
0,584167	0,1	0,000535
0,585833	0,1	0,025383
0,587500	0,1	0,065885
0,589167	0,1	0,028749
0,590833	0,1	0,026421
0,592500	0,1	0,022466
0,594167	0,1	-0,020530
0,595833	0,1	0,032787
0,597500	0,1	0,009929
0,599167	0,1	-0,003943
0,600833	0,1	0,021570
0,602500	0,1	0,048687
0,604167	0,1	0,031102
0,605833	0,1	0,024144
0,607500	0,1	0,029566
0,609167	0,1	0,002502
0,610833	0,1	0,016403
0,612500	0,1	0,032648
0,614167	0,1	0,030480
0,615833	0,1	0,037265
0,617500	0,1	0,047178
0,619167	0,1	0,056224
0,620833	0,1	0,057779
0,622500	0,1	0,037851
0,624167	0,1	0,043806
0,625833	0,1	0,033111
0,627500	0,1	0,062388
0,629167	0,1	0,060368
0,630833	0,1	0,027235
0,632500	0,1	0,031429
0,634167	0,1	0,042710
0,635833	0,1	-0,005859
0,637500	0,1	0,065816
0,639167	0,1	0,011077
0,640833	0,1	0,068922
0,642500	0,1	0,083425
0,644167	0,1	0,076762
0,645833	0,1	0,052758
0,647500	0,1	0,082820
0,649167	0,1	0,036160
0,650833	0,1	0,038406
0,652500	0,1	0,067875
0,654167	0,1	0,037151
0,655833	0,1	0,044488
0,657500	0,1	0,055355
0,659167	0,1	0,043124
0,660833	0,1	0,073380
0,662500	0,1	0,059747
0,664167	0,1	0,036919
0,665833	0,1	0,082444
0,667500	0,1	0,082040
0,669167	0,1	0,070513
0,670833	0,1	0,068833
0,672500	0,1	0,061941
0,674167	0,1	0,025682
0,675833	0,1	0,075071
0,677500	0,1	0,102072
0,679167	0,1	0,062302
0,680833	0,1	0,065209
0,682500	0,1	0,088225
0,684167	0,1	0,093837
0,685833	0,1	0,047088
0,687500	0,1	0,083810
0,689167	0,1	0,059523
0,690833	0,1	0,089711
0,692500	0,1	0,076081
0,694167	0,1	0,063203
0,695833	0,1	0,083733
0,697500	0,1	0,112920
0,699167	0,1	0,089250
0,700833	0,1	0,119894
0,702500	0,1	0,105560
0,704167	0,1	0,106447
0,705833	0,1	0,115718
0,707500	0,1	0,088795
0,709167	0,1	0,084111
0,710833	0,1	0,099778
0,712500	0,1	0,115800
0,714167	0,1	0,160448
0,715833	0,1	0,130841
0,717500	0,1	0,098091
0,719167	0,1	0,158831
0,720833	0,1	0,152657
0,722500	0,1	0,127196
0,724167	0,1	0,157658
0,725833	0,1	0,162321
0,727500	0,1	0,130675
0,729167	0,1	0,151842
0,730833	0,1	0,107512
0,732500	0,1	0,158771
0,734167	0,1	0,172879
0,735833	0,1	0,139661
0,737500	0,1	0,169812
0,739167	0,1	0,210680
0,740833	0,1	0,223713
0,742500	0,1	0,187158
0,744167	0,1	0,185536
0,745833	0,1	0,183628
0,747500	0,1	0,139974
0,749167	0,1	0,193447
0,750833	0,1	0,158254
0,752500	0,1	0,153031
0,754167	0,1	0,170724
0,755833	0,1	0,114181
0,757500	0,1	0,154405
0,759167	0,1	0,170542
0,760833	0,1	0,158954
0,762500	0,1	0,188200
0,764167	0,1	0,155893
0,765833	0,1	0,162325
0,767500	0,1	0,174888
0,769167	0,1	0,200685
0,770833	0,1	0,163222
0,772500	0,1	0,156591
0,774167	0,1	0,131338
0,775833	0,1	0,168549
0,777500	0,1	0,161396
0,779167	0,1	0,153463
0,780833	0,1	0,121153
0,782500	0,1	0,174112
0,784167	0,1	0,163733
0,785833	0,1	0,167251
0,787500	0,1	0,140261
0,789167	0,1	0,104177
0,790833	0,1	0,153885
0,792500	0,1	0,155098
0,794167	0,1	0,146613
0,795833	0,1	0,137212
0,797500	0,1	0,170432
0,799167	0,1	0,155744
0,800833	0,1	0,145887
0,802500	0,1	0,145576
0,804167	0,1	0,144270
0,805833	0,1	0,149900
0,807500	0,1	0,137668
0,809167	0,1	0,168795
0,810833	0,1	0,143284
0,812500	0,1	0,166355
0,814167	0,1	0,164167
0,815833	0,1	0,151998
0,817500	0,1	0,118544
0,819167	0,1	0,168523
0,820833	0,1	0,151812
0,822500	0,1	0,151847
0,824167	0,1	0,105609
0,825833	0,1	0,142234
0,827500	0,1	0,141290
0,829167	0,1	0,155302
0,830833	0,1	0,131937
0,832500	0,1	0,147829
0,834167	0,1	0,141766
0,835833	0,1	0,106475
0,837500	0,1	0,146352
0,839167	0,1	0,164430
0,840833	0,1	0,122583
0,842500	0,1	0,103759
0,844167	0,1	0,151007
0,845833	0,1	0,156692
0,847500	0,1	0,141582
0,849167	0,1	0,184221
0,850833	0,1	0,143101
0,852500	0,1	0,177201
0,854167	0,1	0,140781
0,855833	0,1	0,123530
0,857500	0,1	0,151654
0,859167	0,1	0,157747
0,860833	0,1	0,155329
0,862500	0,1	0,133924
0,864167	0,1	0,202288
0,865833	0,1	0,149106
0,867500	0,1	0,166899
0,869167	0,1	0,162614
0,870833	0,1	0,151356
0,872500	0,1	0,145080
0,874167	0,1	0,162217
0,875833	0,1	0,129994
0,877500	0,1	0,146833
0,879167	0,1	0,176664
0,880833	0,1	0,112735
0,882500	0,1	0,148112
0,884167	0,1	0,170518
0,885833	0,1	0,161625
0,887500	0,1	0,186543
0,889167	0,1	0,169080
0,890833	0,1	0,137342
0,892500	0,1	0,179249
0,894167	0,1	0,159286
0,895833	0,1	0,192856
0,897500	0,1	0,158316
0,899167	0,1	0,173399
0,900833	0,1	0,168497
0,902500	0,1	0,131318
0,904167	0,1	0,154926
0,905833	0,1	0,147874
0,907500	0,1	0,148474
0,909167	0,1	0,161659
0,910833	0,1	0,180993
0,912500	0,1	0,146390
0,914167	0,1	0,192706
0,915833	0,1	0,150472
0,917500	0,1	0,182859
0,919167	0,1	0,170175
0,920833	0,1	0,188037
0,922500	0,1	0,177319
0,924167	0,1	0,175596
0,925833	0,1	0,149018
0,927500	0,1	0,166566
0,929167	0,1	0,198719
0,930833	0,1	0,180860
0,932500	0,1	0,195906
0,934167	0,1	0,233421
0,935833	0,1	0,201778
0,937500	0,1	0,230191
0,939167	0,1	0,169958
0,940833	0,1	0,206397
0,942500	0,1	0,222287
0,944167	0,1	0,229679
0,945833	0,1	0,235151
0,947500	0,1	0,211634
0,949167	0,1	0,232469
0,950833	0,1	0,274344
0,952500	0,1	0,191107
0,954167	0,1	0,212969
0,955833	0,1	0,233262
0,957500	0,1	0,241382
0,959167	0,1	0,221090
0,960833	0,1	0,222312
0,962500	0,1	0,230697
0,964167	0,1	0,244528
0,965833	0,1	0,237612
0,967500	0,1	0,213043
0,969167	0,1	0,254895
0,970833	0,1	0,207951
0,972500	0,1	0,267466
0,974167	0,1	0,289770
0,975833	0,1	0,218769
0,977500	0,1	0,284319
0,979167	0,1	0,299780
0,980833	0,1	0,283673
0,982500	0,1	0,292454
0,984167	0,1	0,275037
0,985833	0,1	0,292842
0,987500	0,1	0,305559
0,989167	0,1	0,281233
0,990833	0,1	0,277651
0,992500	0,1	0,320997
0,994167	0,1	0,309957
0,995833	0,1	0,360678
0,997500	0,1	0,335682
0,999167	0,1	0,328162
1,000833	0,1	0,318367
1,002500	0,1	0,332802
1,004167	0,1	0,339615
1,005833	0,1	0,345394
1,007500	0,1	0,371464
1,009167	0,1	0,358242
1,010833	0,1	0,356035
1,012500	0,1	0,393494
1,014167	0,1	0,361485
1,015833	0,1	0,405496
1,017500	0,1	0,400750
1,019167	0,1	0,430800
1,020833	0,1	0,471042
1,022500	0,1	0,451210
1,024167	0,1	0,494292
1,025833	0,1	0,464855
1,027500	0,1	0,481192
1,029167	0,1	0,452872
1,030833	0,1	0,482953
1,032500	0,1	0,544778
1,034167	0,1	0,521156
1,035833	0,1	0,550149
1,037500	0,1	0,558668
1,039167	0,1	0,539046
1,040833	0,1	0,534287
1,042500	0,1	0,499764
1,044167	0,1	0,531772
1,045833	0,1	0,564988
1,047500	0,1	0,556516
1,049167	0,1	0,602601
1,050833	0,1	0,628628
1,052500	0,1	0,603677
1,054167	0,1	0,667621
1,055833	0,1	0,646276
1,057500	0,1	0,710192
1,059167	0,1	0,752684
1,060833	0,1	0,832436
1,062500	0,1	0,872957
1,064167	0,1	1,006706
1,065833	0,1	1,127184
1,067500	0,1	1,303466
1,069167	0,1	1,578841
1,070833	0,1	1,872943
1,072500	0,1	2,206685
1,074167	0,1	2,666335
1,075833	0,1	3,245679
1,077500	0,1	3,891372
1,079167	0,1	4,744761
1,080833	0,1	5,634735
1,082500	0,1	6,700033
1,084167	0,1	7,946584
1,085833	0,1	9,269229
1,087500	0,1	10,811526
1,089167	0,1	12,432629
1,090833	0,1	14,180663
1,092500	0,1	16,009962
1,094167	0,1	17,893035
1,095833	0,1	19,805552
1,097500	0,1	21,831059
1,099167	0,1	23,754609
1,100833	0,1	25,652541
1,102500	0,1	27,462706
1,104167	0,1	29,166465
1,105833	0,1	30,729470
1,107500	0,1	32,178035
1,109167	0,1	33,401008
1,110833	0,1	34,466851
1,112500	0,1	35,303735
1,114167	0,1	36,000291
1,115833	0,1	36,465543
1,117500	0,1	36,721527
1,119167	0,1	36,813735
1,120833	0,1	36,683215
1,122500	0,1	36,383622
1,124167	0,1	35,952502
1,125833	0,1	35,388524
1,127500	0,1	34,620762
1,129167	0,1	33,820438
1,130833	0,1	32,911470
1,132500	0,1	31,865781
1,134167	0,1	30,831332
1,135833	0,1	29,703276
1,137500	0,1	28,488877
1,139167	0,1	27,278741
1,140833	0,1	26,144931
1,142500	0,1	24,898351
1,144167	0,1	23,716984
1,145833	0,1	22,527628
1,147500	0,1	21,355413
1,149167	0,1	20,252522
1,150833	0,1	19,147954
1,152500	0,1	18,131506
1,154167	0,1	17,119508
1,155833	0,1	16,142197
1,157500	0,1	15,214108
1,159167	0,1	14,319940
1,160833	0,1	13,574110
1,162500	0,1	12,809621
1,164167	0,1	12,073707
1,165833	0,1	11,468005
1,167500	0,1	10,811507
1,169167	0,1	10,279109
1,170833	0,1	9,766752
1,172500	0,1	9,268393
1,174167	0,1	8,764151
1,175833	0,1	8,411889
1,177500	0,1	7,979079
1,179167	0,1	7,652804
1,180833	0,1	7,296322
1,182500	0,1	6,952415
1,184167	0,1	6,673631
1,185833	0,1	6,392072
1,187500	0,1	6,171765
1,189167	0,1	5,936668
1,190833	0,1	5,693813
1,192500	0,1	5,498068
1,194167	0,1	5,313568
1,195833	0,1	5,148452
1,197500	0,1	4,992512
1,199167	0,1	4,854834
1,200833	0,1	4,703090
1,202500	0,1	4,572628
1,204167	0,1	4,441702
1,205833	0,1	4,330060
1,207500	0,1	4,245332
1,209167	0,1	4,123145
1,210833	0,1	4,052731
1,212500	0,1	3,982712
1,214167	0,1	3,915197
1,215833	0,1	3,816146
1,217500	0,1	3,780995
1,219167	0,1	3,671263
1,220833	0,1	3,661791
1,222500	0,1	3,604712
1,224167	0,1	3,544524
1,225833	0,1	3,475218
1,227500	0,1	3,404793
1,229167	0,1	3,384198
1,230833	0,1	3,354819
1,232500	0,1	3,317279
1,234167	0,1	3,284174
1,235833	0,1	3,244172
1,237500	0,1	3,191611
1,239167	0,1	3,148096
1,240833	0,1	3,182430
1,242500	0,1	3,096331
1,244167	0,1	3,065678
1,245833	0,1	3,035309
1,247500	0,1	3,016615
1,249167	0,1	3,001063
1,250833	0,1	2,992484
1,252500	0,1	2,933216
1,254167	0,1	2,936717
1,255833	0,1	2,865995
1,257500	0,1	2,874213
1,259167	0,1	2,874066
1,260833	0,1	2,825725
1,262500	0,1	2,805053
1,264167	0,1	2,782370
1,265833	0,1	2,776711
1,267500	0,1	2,721555
1,269167	0,1	2,721524
1,270833	0,1	2,704318
1,272500	0,1	2,679280
1,274167	0,1	2,634752
1,275833	0,1	2,609711
1,277500	0,1	2,637463
1,279167	0,1	2,587560
1,280833	0,1	2,567623
1,282500	0,1	2,589626
1,284167	0,1	2,574571
1,285833	0,1	2,556792
1,287500	0,1	2,507044
1,289167	0,1	2,500280
1,290833	0,1	2,522068
1,292500	0,1	2,465595
1,294167	0,1	2,463716
1,295833	0,1	2,424935
1,297500	0,1	2,424781
1,299167	0,1	2,406653
1,300833	0,1	2,401923
1,302500	0,1	2,409940
1,304167	0,1	2,314495
1,305833	0,1	2,347794
1,307500	0,1	2,361987
1,309167	0,1	2,315416
1,310833	0,1	2,317695
1,312500	0,1	2,320778
1,314167	0,1	2,269406
1,315833	0,1	2,220679
1,317500	0,1	2,249251
1,319167	0,1	2,227621
1,320833	0,1	2,227975
1,322500	0,1	2,221099
1,324167	0,1	2,165438
1,325833	0,1	2,207759
1,327500	0,1	2,171524
1,329167	0,1	2,142005
1,330833	0,1	2,146150
1,332500	0,1	2,140562
1,334167	0,1	2,117644
1,335833	0,1	2,105823
1,337500	0,1	2,090280
1,339167	0,1	2,105314
1,340833	0,1	2,091073
1,342500	0,1	2,086482
1,344167	0,1	2,015364
1,345833	0,1	2,066128
1,347500	0,1	2,022160
1,349167	0,1	2,042428
1,350833	0,1	2,039705
1,352500	0,1	2,044221
1,354167	0,1	2,024380
1,355833	0,1	1,989079
1,357500	0,1	1,974606
1,359167	0,1	1,940951
1,360833	0,1	1,955334
1,362500	0,1	1,973094
1,364167	0,1	1,980905
1,365833	0,1	1,906810
1,367500	0,1	1,900064
1,369167	0,1	1,947030
1,370833	0,1	1,933353
1,372500	0,1	1,899558
1,374167	0,1	1,911519
1,375833	0,1	1,902564
1,377500	0,1	1,869350
1,379167	0,1	1,912862
1,380833	0,1	1,855605
1,382500	0,1	1,889750
1,384167	0,1	1,883814
1,385833	0,1	1,856312
1,387500	0,1	1,854452
1,389167	0,1	1,826516
1,390833	0,1	1,872203
1,392500	0,1	1,884524
1,394167	0,1	1,841140
1,395833	0,1	1,901281
1,397500	0,1	1,828905
1,399167	0,1	1,848438
1,400833	0,1	1,872145
1,402500	0,1	1,830986
1,404167	0,1	1,812923
1,405833	0,1	1,837274
1,407500	0,1	1,793235
1,409167	0,1	1,789159
1,410833	0,1	1,797740
1,412500	0,1	1,799754
1,414167	0,1	1,802409
1,415833	0,1	1,809574
1,417500	0,1	1,854161
1,419167	0,1	1,784814
1,420833	0,1	1,773204
1,422500	0,1	1,762322
1,424167	0,1	1,760318
1,425833	0,1	1,769828
1,427500	0,1	1,781494
1,429167	0,1	1,784230
1,430833	0,1	1,815931
1,432500	0,1	1,757982
1,434167	0,1	1,738212
1,435833	0,1	1,772549
1,437500	0,1	1,743792
1,439167	0,1	1,704480
1,440833	0,1	1,747146
1,442500	0,1	1,701848
1,444167	0,1	1,713359
1,445833	0,1	1,720882
1,447500	0,1	1,703566
1,449167	0,1	1,702918
1,450833	0,1	1,730103
1,452500	0,1	1,723381
1,454167	0,1	1,750598
1,455833	0,1	1,698777
1,457500	0,1	1,720650
1,459167	0,1	1,748368
1,460833	0,1	1,712519
1,462500	0,1	1,655775
1,464167	0,1	1,665361
1,465833	0,1	1,630433
1,467500	0,1	1,710420
1,469167	0,1	1,651991
1,470833	0,1	1,677999
1,472500	0,1	1,624861
1,474167	0,1	1,652166
1,475833	0,1	1,692957
1,477500	0,1	1,640593
1,479167	0,1	1,639372
1,480833	0,1	1,642912
1,482500	0,1	1,669337
1,484167	0,1	1,641875
1,485833	0,1	1,653320
1,487500	0,1	1,654749
1,489167	0,1	1,647447
1,490833	0,1	1,643375
1,492500	0,1	1,641811
1,494167	0,1	1,636786
1,495833	0,1	1,634922
1,497500	0,1	1,655169
1,499167	0,1	1,645308
1,500833	0,1	1,678020
1,502500	0,1	1,683534
1,504167	0,1	1,672808
1,505833	0,1	1,654616
1,507500	0,1	1,674422
1,509167	0,1	1,667908
1,510833	0,1	1,668205
1,512500	0,1	1,681958
1,514167	0,1	1,680443
1,515833	0,1	1,717931
1,517500	0,1	1,672150
1,519167	0,1	1,656764
1,520833	0,1	1,685875
1,522500	0,1	1,723599
1,524167	0,1	1,704060
1,525833	0,1	1,693406
1,527500	0,1	1,658678
1,529167	0,1	1,709692
1,530833	0,1	1,707942
1,532500	0,1	1,727826
1,534167	0,1	1,675648
1,535833	0,1	1,644314
1,537500	0,1	1,674833
1,539167	0,1	1,703543
1,540833	0,1	1,694408
1,542500	0,1	1,682149
1,544167	0,1	1,738618
1,545833	0,1	1,703787
1,547500	0,1	1,677492
1,549167	0,1	1,737410
1,550833	0,1	1,709435
1,552500	0,1	1,709070
1,554167	0,1	1,702609
1,555833	0,1	1,765109
1,557500	0,1	1,728680
1,559167	0,1	1,694712
1,560833	0,1	1,687024
1,562500	0,1	1,692381
1,564167	0,1	1,700050
1,565833	0,1	1,720154
1,567500	0,1	1,664893
1,569167	0,1	1,705692
1,570833	0,1	1,744134
1,572500	0,1	1,683826
1,574167	0,1	1,713493
1,575833	0,1	1,705644
1,577500	0,1	1,700182
1,579167	0,1	1,726684
1,580833	0,1	1,682869
1,582500	0,1	1,678788
1,584167	0,1	1,661608
1,585833	0,1	1,678632
1,587500	0,1	1,699749
1,589167	0,1	1,729031
1,590833	0,1	1,699911
1,592500	0,1	1,718670
1,594167	0,1	1,677462
1,595833	0,1	1,670265
1,597500	0,1	1,691089
1,599167	0,1	1,660967
1,600833	0,1	1,703263
1,602500	0,1	1,677528
1,604167	0,1	1,676704
1,605833	0,1	1,636151
1,607500	0,1	1,704189
1,609167	0,1	1,666293
1,610833	0,1	1,673068
1,612500	0,1	1,658985
1,614167	0,1	1,657244
1,615833	0,1	1,647023
1,617500	0,1	1,671995
1,619167	0,1	1,672806
1,620833	0,1	1,693468
1,622500	0,1	1,664141
1,624167	0,1	1,628639
1,625833	0,1	1,644796
1,627500	0,1	1,651583
1,629167	0,1	1,626831
1,630833	0,1	1,661756
1,632500	0,1	1,654613
1,634167	0,1	1,633938
1,635833	0,1	1,667610
1,637500	0,1	1,619890
1,639167	0,1	1,642080
1,640833	0,1	1,630141
1,642500	0,1	1,663906
1,644167	0,1	1,612955
1,645833	0,1	1,614737
1,647500	0,1	1,641287
1,649167	0,1	1,598579
1,650833	0,1	1,626105
1,652500	0,1	1,618766
1,654167	0,1	1,605369
1,655833	0,1	1,609873
1,657500	0,1	1,614899
1,659167	0,1	1,593780
1,660833	0,1	1,623691
1,662500	0,1	1,667413
1,664167	0,1	1,645094
1,665833	0,1	1,619389
1,667500	0,1	1,603807
1,669167	0,1	1,622199
1,670833	0,1	1,614533
1,672500	0,1	1,617833
1,674167	0,1	1,640079
1,675833	0,1	1,601031
1,677500	0,1	1,583186
1,679167	0,1	1,636852
1,680833	0,1	1,590921
1,682500	0,1	1,605775
1,684167	0,1	1,622186
1,685833	0,1	1,608152
1,687500	0,1	1,602940
1,689167	0,1	1,610954
1,690833	0,1	1,551137
1,692500	0,1	1,574367
1,694167	0,1	1,632125
1,695833	0,1	1,635138
1,697500	0,1	1,602935
1,699167	0,1	1,606885
1,700833	0,1	1,585489
1,702500	0,1	1,587990
1,704167	0,1	1,613182
1,705833	0,1	1,579616
1,707500	0,1	1,596727
1,709167	0,1	1,569955
1,710833	0,1	1,633216
1,712500	0,1	1,549074
1,714167	0,1	1,568394
1,715833	0,1	1,547059
1,717500	0,1	1,565094
1,719167	0,1	1,563536
1,720833	0,1	1,575124
1,722500	0,1	1,527160
1,724167	0,1	1,546501
1,725833	0,1	1,502228
1,727500	0,1	1,511654
1,729167	0,1	1,512899
1,730833	0,1	1,503562
1,732500	0,1	1,477964
1,734167	0,1	1,466001
1,735833	0,1	1,447926
1,737500	0,1	1,425107
1,739167	0,1	1,430675
1,740833	0,1	1,427881
1,742500	0,1	1,399989
1,744167	0,1	1,396765
1,745833	0,1	1,423285
1,747500	0,1	1,358853
1,749167	0,1	1,330072
1,750833	0,1	1,355159
1,752500	0,1	1,373520
1,754167	0,1	1,306540
1,755833	0,1	1,310469
1,757500	0,1	1,320696
1,759167	0,1	1,241377
1,760833	0,1	1,251227
1,762500	0,1	1,268553
1,764167	0,1	1,226876
1,765833	0,1	1,203977
1,767500	0,1	1,205277
1,769167	0,1	1,188044
1,770833	0,1	1,176108
1,772500	0,1	1,166300
1,774167	0,1	1,133941
1,775833	0,1	1,129831
1,777500	0,1	1,118521
1,779167	0,1	1,075209
1,780833	0,1	1,021212
1,782500	0,1	1,039467
1,784167	0,1	1,007257
1,785833	0,1	0,987632
1,787500	0,1	0,979820
1,789167	0,1	0,951927
1,790833	0,1	0,901938
1,792500	0,1	0,929014
1,794167	0,1	0,896370
1,795833	0,1	0,863200
1,797500	0,1	0,850051
1,799167	0,1	0,833402
1,800833	0,1	0,833649
1,802500	0,1	0,802346
1,804167	0,1	0,777472
1,805833	0,1	0,771366
1,807500	0,1	0,701680
1,809167	0,1	0,667293
1,810833	0,1	0,673196
1,812500	0,1	0,625721
1,814167	0,1	0,636758
1,815833	0,1	0,630595
1,817500	0,1	0,598282
1,819167	0,1	0,563944
1,820833	0,1	0,566986
1,822500	0,1	0,542965
1,824167	0,1	0,509053
1,825833	0,1	0,483257
1,827500	0,1	0,448544
1,829167	0,1	0,448572
1,830833	0,1	0,436978
1,832500	0,1	0,445359
1,834167	0,1	0,395496
1,835833	0,1	0,400114
1,837500	0,1	0,350860
1,839167	0,1	0,362832
1,840833	0,1	0,357471
1,842500	0,1	0,340010
1,844167	0,1	0,339869
1,845833	0,1	0,369537
1,847500	0,1	0,369607
1,849167	0,1	0,374807
1,850833	0,1	0,423640
1,852500	0,1	0,446667
1,854167	0,1	0,474476
1,855833	0,1	0,454542
1,857500	0,1	0,527652
1,859167	0,1	0,553552
1,860833	0,1	0,595856
1,862500	0,1	0,596925
1,864167	0,1	0,666079
1,865833	0,1	0,699602
1,867500	0,1	0,731283
1,869167	0,1	0,801780
1,870833	0,1	0,801900
1,872500	0,1	0,866027
1,874167	0,1	0,884654
1,875833	0,1	0,909124
1,877500	0,1	0,970266
1,879167	0,1	1,027573
1,880833	0,1	1,030797
1,882500	0,1	1,118407
1,884167	0,1	1,078756
1,885833	0,1	1,147536
1,887500	0,1	1,183040
1,889167	0,1	1,188172
1,890833	0,1	1,259952
1,892500	0,1	1,310710
1,894167	0,1	1,322964
1,895833	0,1	1,359643
1,897500	0,1	1,391099
1,899167	0,1	1,450669
1,900833	0,1	1,476088
1,902500	0,1	1,515904
1,904167	0,1	1,542335
1,905833	0,1	1,594254
1,907500	0,1	1,584049
1,909167	0,1	1,648431
1,910833	0,1	1,678790
1,912500	0,1	1,716998
1,914167	0,1	1,776825
1,915833	0,1	1,783201
1,917500	0,1	1,819493
1,919167	0,1	1,886948
1,920833	0,1	1,904701
1,922500	0,1	1,918025
1,924167	0,1	1,952247
1,925833	0,1	1,961272
1,927500	0,1	2,016915
1,929167	0,1	2,049578
1,930833	0,1	2,058318
1,932500	0,1	2,100725
1,934167	0,1	2,093639
1,935833	0,1	2,137549
1,937500	0,1	2,173872
1,939167	0,1	2,200096
1,940833	0,1	2,246883
1,942500	0,1	2,205200
1,944167	0,1	2,237999
1,945833	0,1	2,323914
1,947500	0,1	2,291691
1,949167	0,1	2,367350
1,950833	0,1	2,352322
1,952500	0,1	2,419041
1,954167	0,1	2,431379
1,955833	0,1	2,458840
1,957500	0,1	2,477265
1,959167	0,1	2,490526
1,960833	0,1	2,550392
1,962500	0,1	2,549980
1,964167	0,1	2,603457
1,965833	0,1	2,600037
1,967500	0,1	2,627634
1,969167	0,1	2,672098
1,970833	0,1	2,719650
1,972500	0,1	2,734654
1,974167	0,1	2,816072
1,975833	0,1	2,790140
1,977500	0,1	2,856115
1,979167	0,1	2,828526
1,980833	0,1	2,899969
1,982500	0,1	2,894486
1,984167	0,1	2,995853
1,985833	0,1	2,969980
1,987500	0,1	2,981899
1,989167	0,1	3,074185
1,990833	0,1	3,106778
1,992500	0,1	3,141807
1,994167	0,1	3,163439
1,995833	0,1	3,176024
1,997500	0,1	3,277356
1,999167	0,1	3,300322
2,000833	0,1	3,330346
2,002500	0,1	3,331270
2,004167	0,1	3,431354
2,005833	0,1	3,437634
2,007500	0,1	3,429440
2,009167	0,1	3,512617
2,010833	0,1	3,544088
2,012500	0,1	3,577675
2,014167	0,1	3,610151
2,015833	0,1	3,678338
2,017500	0,1	3,678588
2,019167	0,1	3,748325
2,020833	0,1	3,785066
2,022500	0,1	3,798055
2,024167	0,1	3,854838
2,025833	0,1	3,860502
2,027500	0,1	3,918547
2,029167	0,1	3,971482
2,030833	0,1	4,006579
2,032500	0,1	4,002862
2,034167	0,1	4,085884
2,035833	0,1	4,130435
2,037500	0,1	4,151931
2,039167	0,1	4,210196
2,040833	0,1	4,248992
2,042500	0,1	4,265514
2,044167	0,1	4,289769
2,045833	0,1	4,323424
2,047500	0,1	4,325738
2,049167	0,1	4,411552
2,050833	0,1	4,443729
2,052500	0,1	4,489547
2,054167	0,1	4,533431
2,055833	0,1	4,539230
2,057500	0,1	4,543857
2,059167	0,1	4,594979
2,060833	0,1	4,618540
2,062500	0,1	4,668222
2,064167	0,1	4,699593
2,065833	0,1	4,699541
2,067500	0,1	4,760519
2,069167	0,1	4,745466
2,070833	0,1	4,784443
2,072500	0,1	4,828804
2,074167	0,1	4,842720
2,075833	0,1	4,869086
2,077500	0,1	4,892993
2,079167	0,1	4,915370
2,080833	0,1	4,911134
2,082500	0,1	4,954119
2,084167	0,1	4,968102
2,085833	0,1	5,005308
2,087500	0,1	4,992256
2,089167	0,1	5,014621
2,090833	0,1	5,033222
2,092500	0,1	5,018469
2,094167	0,1	5,039851
2,095833	0,1	5,078571
2,097500	0,1	5,076682
2,099167	0,1	5,138094
2,100833	0,1	5,082604
2,102500	0,1	5,125733
2,104167	0,1	5,163505
2,105833	0,1	5,135235
2,107500	0,1	5,138558
2,109167	0,1	5,165033
2,110833	0,1	5,181606
2,112500	0,1	5,160696
2,114167	0,1	5,166053
2,115833	0,1	5,166646
2,117500	0,1	5,179996
2,119167	0,1	5,148193
2,120833	0,1	5,168674
2,122500	0,1	5,178077
2,124167	0,1	5,176725
2,125833	0,1	5,164052
2,127500	0,1	5,168143
2,129167	0,1	5,164841
2,130833	0,1	5,148047
2,132500	0,1	5,160715
2,134167	0,1	5,148358
2,135833	0,1	5,164441
2,137500	0,1	5,135826
2,139167	0,1	5,141692
2,140833	0,1	5,093915
2,142500	0,1	5,144024
2,144167	0,1	5,104671
2,145833	0,1	5,125316
2,147500	0,1	5,134042
2,149167	0,1	5,098035
2,150833	0,1	5,077960
2,152500	0,1	5,058577
2,154167	0,1	5,006420
2,155833	0,1	5,031777
2,157500	0,1	4,989407
2,159167	0,1	4,997924
2,160833	0,1	4,997864
2,162500	0,1	4,984438
2,164167	0,1	4,971592
2,165833	0,1	4,941325
2,167500	0,1	4,977036
2,169167	0,1	4,930266
2,170833	0,1	4,900925
2,172500	0,1	4,834536
2,174167	0,1	4,904411
2,175833	0,1	4,899353
2,177500	0,1	4,857889
2,179167	0,1	4,816815
2,180833	0,1	4,831739
2,182500	0,1	4,780821
2,184167	0,1	4,784252
2,185833	0,1	4,768722
2,187500	0,1	4,726980
2,189167	0,1	4,744515
2,190833	0,1	4,702663
2,192500	0,1	4,698196
2,194167	0,1	4,672625
2,195833	0,1	4,646893
2,197500	0,1	4,627573
2,199167	0,1	4,599225
2,200833	0,1	4,619471
2,202500	0,1	4,591482
2,204167	0,1	4,547431
2,205833	0,1	4,532715
2,207500	0,1	4,522417
2,209167	0,1	4,473689
2,210833	0,1	4,475902
2,212500	0,1	4,441074
2,214167	0,1	4,464515
2,215833	0,1	4,373274
2,217500	0,1	4,385644
2,219167	0,1	4,385485
2,220833	0,1	4,360701
2,222500	0,1	4,378795
2,224167	0,1	4,349886
2,225833	0,1	4,337166
2,227500	0,1	4,295294
2,229167	0,1	4,309698
2,230833	0,1	4,249777
2,232500	0,1	4,280048
2,234167	0,1	4,238597
2,235833	0,1	4,197504
2,237500	0,1	4,195587
2,239167	0,1	4,190646
2,240833	0,1	4,218379
2,242500	0,1	4,135690
2,244167	0,1	4,126314
2,245833	0,1	4,145134
2,247500	0,1	4,142186
2,249167	0,1	4,136647
2,250833	0,1	4,110655
2,252500	0,1	4,076161
2,254167	0,1	4,060045
2,255833	0,1	4,066403
2,257500	0,1	4,021242
2,259167	0,1	4,028761
2,260833	0,1	4,038713
2,262500	0,1	4,055640
2,264167	0,1	3,981748
2,265833	0,1	3,986069
2,267500	0,1	4,056318
2,269167	0,1	3,969176
2,270833	0,1	3,987316
2,272500	0,1	3,979279
2,274167	0,1	3,974939
2,275833	0,1	3,966158
2,277500	0,1	3,941558
2,279167	0,1	3,942991
2,280833	0,1	3,901534
2,282500	0,1	3,926892
2,284167	0,1	3,958994
2,285833	0,1	3,924602
2,287500	0,1	3,941864
2,289167	0,1	3,913753
2,290833	0,1	3,902852
2,292500	0,1	3,903749
2,294167	0,1	3,888517
2,295833	0,1	3,947082
2,297500	0,1	3,894431
2,299167	0,1	3,913392
2,300833	0,1	3,896270
2,302500	0,1	3,903432
2,304167	0,1	3,894861
2,305833	0,1	3,850550
2,307500	0,1	3,901795
2,309167	0,1	3,897592
2,310833	0,1	3,900307
2,312500	0,1	3,872192
2,314167	0,1	3,889709
2,315833	0,1	3,897289
2,317500	0,1	3,913867
2,319167	0,1	3,902111
2,320833	0,1	3,860385
2,322500	0,1	3,949585
2,324167	0,1	3,896279
2,325833	0,1	3,891420
2,327500	0,1	3,932763
2,329167	0,1	3,897332
2,330833	0,1	3,934989
2,332500	0,1	3,933546
2,334167	0,1	3,934083
2,335833	0,1	3,913845
2,337500	0,1	3,955582
2,339167	0,1	3,916755
2,340833	0,1	3,913950
2,342500	0,1	3,971198
2,344167	0,1	3,931819
2,345833	0,1	3,951576
2,347500	0,1	3,983472
2,349167	0,1	3,926265
2,350833	0,1	3,929818
2,352500	0,1	3,935724
2,354167	0,1	3,897570
2,355833	0,1	3,996736
2,357500	0,1	3,969117
2,359167	0,1	3,951316
2,360833	0,1	3,994750
2,362500	0,1	3,975701
2,364167	0,1	3,978220
2,365833	0,1	4,022083
2,367500	0,1	3,983444
2,369167	0,1	4,043723
2,370833	0,1	3,993080
2,372500	0,1	4,012681
2,374167	0,1	4,013948
2,375833	0,1	4,013698
2,377500	0,1	3,996752
2,379167	0,1	4,067683
2,380833	0,1	4,006952
2,382500	0,1	4,063684
2,384167	0,1	4,092436
2,385833	0,1	4,080858
2,387500	0,1	4,071179
2,389167	0,1	4,063805
2,390833	0,1	4,079354
2,392500	0,1	4,118820
2,394167	0,1	4,120444
2,395833	0,1	4,128543
2,397500	0,1	4,118832
2,399167	0,1	4,175003
2,400833	0,1	4,153042
2,402500	0,1	4,157323
2,404167	0,1	4,143039
2,405833	0,1	4,174849
2,407500	0,1	4,222383
2,409167	0,1	4,196241
2,410833	0,1	4,178872
2,412500	0,1	4,207039
2,414167	0,1	4,212714
2,415833	0,1	4,216237
2,417500	0,1	4,219797
2,419167	0,1	4,252025
2,420833	0,1	4,206248
2,422500	0,1	4,264655
2,424167	0,1	4,281836
2,425833	0,1	4,247955
2,427500	0,1	4,247416
2,429167	0,1	4,270212
2,430833	0,1	4,251271
2,432500	0,1	4,309689
2,434167	0,1	4,272288
2,435833	0,1	4,288031
2,437500	0,1	4,293379
2,439167	0,1	4,311845
2,440833	0,1	4,275652
2,442500	0,1	4,321477
2,444167	0,1	4,294642
2,445833	0,1	4,265202
2,447500	0,1	4,297263
2,449167	0,1	4,300590
2,450833	0,1	4,354283
2,452500	0,1	4,288618
2,454167	0,1	4,330550
2,455833	0,1	4,306713
2,457500	0,1	4,319904
2,459167	0,1	4,295453
2,460833	0,1	4,283946
2,462500	0,1	4,289937
2,464167	0,1	4,325974
2,465833	0,1	4,287437
2,467500	0,1	4,294838
2,469167	0,1	4,285892
2,470833	0,1	4,270624
2,472500	0,1	4,288474
2,474167	0,1	4,271434
2,475833	0,1	4,290867
2,477500	0,1	4,268803
2,479167	0,1	4,285074
2,480833	0,1	4,253701
2,482500	0,1	4,243088
2,484167	0,1	4,252882
2,485833	0,1	4,223897
2,487500	0,1	4,238462
2,489167	0,1	4,255594
2,490833	0,1	4,242360
2,492500	0,1	4,221871
2,494167	0,1	4,211824
2,495833	0,1	4,214905
2,497500	0,1	4,205472
2,499167	0,1	4,195182
2,500833	0,1	4,222062
2,502500	0,1	4,194785
2,504167	0,1	4,200206
2,505833	0,1	4,154423
2,507500	0,1	4,187237
2,509167	0,1	4,206515
2,510833	0,1	4,155473
2,512500	0,1	4,175820
2,514167	0,1	4,142396
2,515833	0,1	4,206061
2,517500	0,1	4,177775
2,519167	0,1	4,108520
2,520833	0,1	4,206657
2,522500	0,1	4,161876
2,524167	0,1	4,148221
2,525833	0,1	4,214363
2,527500	0,1	4,166491
2,529167	0,1	4,219143
2,530833	0,1	4,143746
2,532500	0,1	4,176029
2,534167	0,1	4,159512
2,535833	0,1	4,187850
2,537500	0,1	4,208422
2,539167	0,1	4,177942
2,540833	0,1	4,214570
2,542500	0,1	4,188271
2,544167	0,1	4,225423
2,545833	0,1	4,222354
2,547500	0,1	4,258016
2,549167	0,1	4,214348
2,550833	0,1	4,237329
2,552500	0,1	4,266766
2,554167	0,1	4,218879
2,555833	0,1	4,241741
2,557500	0,1	4,241911
2,559167	0,1	4,269888
2,560833	0,1	4,240903
2,562500	0,1	4,247491
2,564167	0,1	4,267175
2,565833	0,1	4,284708
2,567500	0,1	4,285161
2,569167	0,1	4,264227
2,570833	0,1	4,241104
2,572500	0,1	4,288430
2,574167	0,1	4,294959
2,575833	0,1	4,268559
2,577500	0,1	4,251553
2,579167	0,1	4,319810
2,580833	0,1	4,301687
2,582500	0,1	4,237874
2,584167	0,1	4,272556
2,585833	0,1	4,287908
2,587500	0,1	4,233622
2,589167	0,1	4,242436
2,590833	0,1	4,254745
2,592500	0,1	4,275235
2,594167	0,1	4,273458
2,595833	0,1	4,200585
2,597500	0,1	4,178341
2,599167	0,1	4,167573
2,600833	0,1	4,213353
2,602500	0,1	4,158995
2,604167	0,1	4,191612
2,605833	0,1	4,130983
2,607500	0,1	4,153919
2,609167	0,1	4,124986
2,610833	0,1	4,068680
2,612500	0,1	4,078582
2,614167	0,1	4,061988
2,615833	0,1	4,043536
2,617500	0,1	4,099830
2,619167	0,1	4,030187
2,620833	0,1	4,026821
2,622500	0,1	3,930997
2,624167	0,1	3,921469
2,625833	0,1	3,990097
2,627500	0,1	3,942734
2,629167	0,1	3,918250
2,630833	0,1	3,901006
2,632500	0,1	3,819850
2,634167	0,1	3,820399
2,635833	0,1	3,770181
2,637500	0,1	3,788130
2,639167	0,1	3,759252
2,640833	0,1	3,759068
2,642500	0,1	3,711497
2,644167	0,1	3,684314
2,645833	0,1	3,635998
2,647500	0,1	3,675395
2,649167	0,1	3,611701
2,650833	0,1	3,537278
2,652500	0,1	3,558116
2,654167	0,1	3,558612
2,655833	0,1	3,460572
2,657500	0,1	3,503826
2,659167	0,1	3,451254
2,660833	0,1	3,433246
2,662500	0,1	3,414492
2,664167	0,1	3,391521
2,665833	0,1	3,351191
2,667500	0,1	3,330970
2,669167	0,1	3,282506
2,670833	0,1	3,265690
2,672500	0,1	3,212463
2,674167	0,1	3,249649
2,675833	0,1	3,177564
2,677500	0,1	3,171145
2,679167	0,1	3,181690
2,680833	0,1	3,151954
2,682500	0,1	3,089235
2,684167	0,1	3,073715
2,685833	0,1	3,035011
2,687500	0,1	3,012335
2,689167	0,1	2,979388
2,690833	0,1	2,981452
2,692500	0,1	2,951459
2,694167	0,1	2,910345
2,695833	0,1	2,877189
2,697500	0,1	2,886792
2,699167	0,1	2,860955
2,700833	0,1	2,847452
2,702500	0,1	2,790941
2,704167	0,1	2,791488
2,705833	0,1	2,743145
2,707500	0,1	2,710778
2,709167	0,1	2,708563
2,710833	0,1	2,645736
2,712500	0,1	2,670539
2,714167	0,1	2,628955
2,715833	0,1	2,597457
2,717500	0,1	2,566262
2,719167	0,1	2,548260
2,720833	0,1	2,544599
2,722500	0,1	2,531403
2,724167	0,1	2,518218
2,725833	0,1	2,462309
2,727500	0,1	2,458062
2,729167	0,1	2,447660
2,730833	0,1	2,425731
2,732500	0,1	2,402427
2,734167	0,1	2,371250
2,735833	0,1	2,358559
2,737500	0,1	2,384568
2,739167	0,1	2,351105
2,740833	0,1	2,350956
2,742500	0,1	2,282741
2,744167	0,1	2,288098
2,745833	0,1	2,266821
2,747500	0,1	2,288739
2,749167	0,1	2,254784
2,750833	0,1	2,240089
2,752500	0,1	2,185997
2,754167	0,1	2,219153
2,755833	0,1	2,193657
2,757500	0,1	2,155686
2,759167	0,1	2,158761
2,760833	0,1	2,152173
2,762500	0,1	2,118003
2,764167	0,1	2,142775
2,765833	0,1	2,090572
2,767500	0,1	2,099223
2,769167	0,1	2,101450
2,770833	0,1	2,038286
2,772500	0,1	2,057891
2,774167	0,1	2,056463
2,775833	0,1	2,056392
2,777500	0,1	2,037843
2,779167	0,1	2,038703
2,780833	0,1	2,001672
2,782500	0,1	1,990282
2,784167	0,1	1,979535
2,785833	0,1	1,937590
2,787500	0,1	1,958761
2,789167	0,1	1,932712
2,790833	0,1	1,989057
2,792500	0,1	1,946172
2,794167	0,1	1,927484
2,795833	0,1	1,917955
2,797500	0,1	1,907286
2,799167	0,1	1,961770
2,800833	0,1	1,912380
2,802500	0,1	1,871269
2,804167	0,1	1,862821
2,805833	0,1	1,888807
2,807500	0,1	1,864339
2,809167	0,1	1,809056
2,810833	0,1	1,874481
2,812500	0,1	1,845428
2,814167	0,1	1,821457
2,815833	0,1	1,781359
2,817500	0,1	1,842759
2,819167	0,1	1,771564
2,820833	0,1	1,827662
2,822500	0,1	1,825178
2,824167	0,1	1,798473
2,825833	0,1	1,795114
2,827500	0,1	1,762247
2,829167	0,1	1,761378
2,830833	0,1	1,759882
2,832500	0,1	1,751517
2,834167	0,1	1,750921
2,835833	0,1	1,719007
2,837500	0,1	1,682164
2,839167	0,1	1,727730
2,840833	0,1	1,755235
2,842500	0,1	1,741639
2,844167	0,1	1,739554
2,845833	0,1	1,716934
2,847500	0,1	1,697320
2,849167	0,1	1,708781
2,850833	0,1	1,693753
2,852500	0,1	1,692521
2,854167	0,1	1,677512
2,855833	0,1	1,720368
2,857500	0,1	1,675081
2,859167	0,1	1,670415
2,860833	0,1	1,642093
2,862500	0,1	1,649789
2,864167	0,1	1,666338
2,865833	0,1	1,628422
2,867500	0,1	1,633333
2,869167	0,1	1,639715
2,870833	0,1	1,614663
2,872500	0,1	1,611369
2,874167	0,1	1,631983
2,875833	0,1	1,593140
2,877500	0,1	1,566652
2,879167	0,1	1,605368
2,880833	0,1	1,601134
2,882500	0,1	1,584817
2,884167	0,1	1,616618
2,885833	0,1	1,621834
2,887500	0,1	1,584110
2,889167	0,1	1,544475
2,890833	0,1	1,556327
2,892500	0,1	1,567752
2,894167	0,1	1,568809
2,895833	0,1	1,512366
2,897500	0,1	1,554374
2,899167	0,1	1,511638
2,900833	0,1	1,524008
2,902500	0,1	1,502837
2,904167	0,1	1,543880
2,905833	0,1	1,502789
2,907500	0,1	1,496986
2,909167	0,1	1,490396
2,910833	0,1	1,458978
2,912500	0,1	1,476720
2,914167	0,1	1,516798
2,915833	0,1	1,511505
2,917500	0,1	1,478800
2,919167	0,1	1,475839
2,920833	0,1	1,454415
2,922500	0,1	1,429227
2,924167	0,1	1,453624
2,925833	0,1	1,463679
2,927500	0,1	1,449893
2,929167	0,1	1,454766
2,930833	0,1	1,443401
2,932500	0,1	1,403990
2,934167	0,1	1,446675
2,935833	0,1	1,444400
2,937500	0,1	1,429225
2,939167	0,1	1,403325
2,940833	0,1	1,397545
2,942500	0,1	1,383691
2,944167	0,1	1,410343
2,945833	0,1	1,414362
2,947500	0,1	1,403219
2,949167	0,1	1,392465
2,950833	0,1	1,405484
2,952500	0,1	1,383490
2,954167	0,1	1,374796
2,955833	0,1	1,331089
2,957500	0,1	1,404690
2,959167	0,1	1,382270
2,960833	0,1	1,355729
2,962500	0,1	1,397651
2,964167	0,1	1,340866
2,965833	0,1	1,375158
2,967500	0,1	1,336745
2,969167	0,1	1,346201
2,970833	0,1	1,338942
2,972500	0,1	1,354431
2,974167	0,1	1,319538
2,975833	0,1	1,312789
2,977500	0,1	1,307762
2,979167	0,1	1,325183
2,980833	0,1	1,347215
2,982500	0,1	1,301656
2,984167	0,1	1,273384
2,985833	0,1	1,301466
2,987500	0,1	1,293231
2,989167	0,1	1,312224
2,990833	0,1	1,288356
2,992500	0,1	1,303639
2,994167	0,1	1,282853
2,995833	0,1	1,293631
2,997500	0,1	1,298780
2,999167	0,1	1,321539
3,000833	0,1	1,281752
3,002500	0,1	1,297423
3,004167	0,1	1,287575
3,005833	0,1	1,271354
3,007500	0,1	1,272754
3,009167	0,1	1,289192
3,010833	0,1	1,274399
3,012500	0,1	1,242564
3,014167	0,1	1,280619
3,015833	0,1	1,272294
3,017500	0,1	1,242094
3,019167	0,1	1,263337
3,020833	0,1	1,265184
3,022500	0,1	1,289228
3,024167	0,1	1,230653
3,025833	0,1	1,253242
3,027500	0,1	1,236876
3,029167	0,1	1,259101
3,030833	0,1	1,262966
3,032500	0,1	1,295152
3,034167	0,1	1,267323
3,035833	0,1	1,284707
3,037500	0,1	1,291893
3,039167	0,1	1,283090
3,040833	0,1	1,259996
3,042500	0,1	1,249206
3,044167	0,1	1,250384
3,045833	0,1	1,246210
3,047500	0,1	1,243395
3,049167	0,1	1,259764
3,050833	0,1	1,241228
3,052500	0,1	1,208435
3,054167	0,1	1,236155
3,055833	0,1	1,242548
3,057500	0,1	1,243373
3,059167	0,1	1,220792
3,060833	0,1	1,231011
3,062500	0,1	1,249315
3,064167	0,1	1,259631
3,065833	0,1	1,237454
3,067500	0,1	1,246963
3,069167	0,1	1,223588
3,070833	0,1	1,195633
3,072500	0,1	1,242874
3,074167	0,1	1,243267
3,075833	0,1	1,281435
3,077500	0,1	1,210241
3,079167	0,1	1,225643
3,080833	0,1	1,260442
3,082500	0,1	1,265625
3,084167	0,1	1,240672
3,085833	0,1	1,261050
3,087500	0,1	1,219308
3,089167	0,1	1,268103
3,090833	0,1	1,209642
3,092500	0,1	1,260890
3,094167	0,1	1,261832
3,095833	0,1	1,243292
3,097500	0,1	1,270835
3,099167	0,1	1,272926
3,100833	0,1	1,289212
3,102500	0,1	1,266717
3,104167	0,1	1,284909
3,105833	0,1	1,283337
3,107500	0,1	1,311952
3,109167	0,1	1,332818
3,110833	0,1	1,342069
3,112500	0,1	1,350828
3,114167	0,1	1,337859
3,115833	0,1	1,346491
3,117500	0,1	1,346628
3,119167	0,1	1,352995
3,120833	0,1	1,380817
3,122500	0,1	1,391086
3,124167	0,1	1,422065
3,125833	0,1	1,453487
3,127500	0,1	1,435559
3,129167	0,1	1,476002
3,130833	0,1	1,484311
3,132500	0,1	1,467374
3,134167	0,1	1,478039
3,135833	0,1	1,512783
3,137500	0,1	1,542402
3,139167	0,1	1,538261
3,140833	0,1	1,565515
3,142500	0,1	1,569632
3,144167	0,1	1,592905
3,145833	0,1	1,587185
3,147500	0,1	1,671475
3,149167	0,1	1,642220
3,150833	0,1	1,694749
3,152500	0,1	1,692760
3,154167	0,1	1,673064
3,155833	0,1	1,761088
3,157500	0,1	1,734764
3,159167	0,1	1,719082
3,160833	0,1	1,726439
3,162500	0,1	1,753274
3,164167	0,1	1,765527
3,165833	0,1	1,817737
3,167500	0,1	1,840340
3,169167	0,1	1,815144
3,170833	0,1	1,835761
3,172500	0,1	1,832987
3,174167	0,1	1,881425
3,175833	0,1	1,867062
3,177500	0,1	1,863814
3,179167	0,1	1,896973
3,180833	0,1	1,871552
3,182500	0,1	1,938853
3,184167	0,1	1,897766
3,185833	0,1	1,935778
3,187500	0,1	1,906506
3,189167	0,1	1,893613
3,190833	0,1	1,963214
3,192500	0,1	1,906078
3,194167	0,1	1,962988
3,195833	0,1	1,973670
3,197500	0,1	1,959707
3,199167	0,1	1,927843
3,200833	0,1	1,943868
3,202500	0,1	1,951382
3,204167	0,1	1,954118
3,205833	0,1	1,934508
3,207500	0,1	1,929980
3,209167	0,1	1,952175
3,210833	0,1	1,927267
3,212500	0,1	1,948313
3,214167	0,1	1,953262
3,215833	0,1	1,958777
3,217500	0,1	1,944736
3,219167	0,1	1,915094
3,220833	0,1	1,913518
3,222500	0,1	1,922896
3,224167	0,1	1,894395
3,225833	0,1	1,898694
3,227500	0,1	1,877009
3,229167	0,1	1,879852
3,230833	0,1	1,924239
3,232500	0,1	1,842219
3,234167	0,1	1,845639
3,235833	0,1	1,861535
3,237500	0,1	1,824167
3,239167	0,1	1,838556
3,240833	0,1	1,828392
3,242500	0,1	1,822523
3,244167	0,1	1,797550
3,245833	0,1	1,777508
3,247500	0,1	1,778059
3,249167	0,1	1,783508
3,250833	0,1	1,750562
3,252500	0,1	1,740073
3,254167	0,1	1,722303
3,255833	0,1	1,729443
3,257500	0,1	1,699554
3,259167	0,1	1,732321
3,260833	0,1	1,655963
3,262500	0,1	1,699190
3,264167	0,1	1,646895
3,265833	0,1	1,594554
3,267500	0,1	1,625829
3,269167	0,1	1,648152
3,270833	0,1	1,633992
3,272500	0,1	1,627712
3,274167	0,1	1,549073
3,275833	0,1	1,570682
3,277500	0,1	1,572372
3,279167	0,1	1,528899
3,280833	0,1	1,557433
3,282500	0,1	1,495614
3,284167	0,1	1,474607
3,285833	0,1	1,502181
3,287500	0,1	1,498176
3,289167	0,1	1,463788
3,290833	0,1	1,452430
3,292500	0,1	1,449193
3,294167	0,1	1,393778
3,295833	0,1	1,438269
3,297500	0,1	1,411862
3,299167	0,1	1,383322
3,300833	0,1	1,384177
3,302500	0,1	1,332040
3,304167	0,1	1,304839
3,305833	0,1	1,332836
3,307500	0,1	1,272327
3,309167	0,1	1,328459
3,310833	0,1	1,262916
3,312500	0,1	1,257417
3,314167	0,1	1,251655
3,315833	0,1	1,235080
3,317500	0,1	1,222741
3,319167	0,1	1,224070
3,320833	0,1	1,208922
3,322500	0,1	1,246401
3,324167	0,1	1,227024
3,325833	0,1	1,205350
3,327500	0,1	1,174183
3,329167	0,1	1,160179
3,330833	0,1	1,173883
3,332500	0,1	1,121326
3,334167	0,1	1,149699
3,335833	0,1	1,120278
3,337500	0,1	1,117275
3,339167	0,1	1,098048
3,340833	0,1	1,116983
3,342500	0,1	1,061904
3,344167	0,1	1,079498
3,345833	0,1	1,073801
3,347500	0,1	1,069411
3,349167	0,1	1,040408
3,350833	0,1	1,064192
3,352500	0,1	1,046437
3,354167	0,1	1,029935
3,355833	0,1	1,036673
3,357500	0,1	1,032596
3,359167	0,1	1,057051
3,360833	0,1	1,008257
3,362500	0,1	1,013414
3,364167	0,1	0,987897
3,365833	0,1	0,991014
3,367500	0,1	0,996201
3,369167	0,1	0,976782
3,370833	0,1	1,025443
3,372500	0,1	0,996522
3,374167	0,1	0,943128
3,375833	0,1	0,969721
3,377500	0,1	0,972457
3,379167	0,1	0,961042
3,380833	0,1	0,961631
3,382500	0,1	0,919138
3,384167	0,1	0,922539
3,385833	0,1	0,916688
3,387500	0,1	0,950835
3,389167	0,1	0,910779
3,390833	0,1	0,923141
3,392500	0,1	0,898690
3,394167	0,1	0,885055
3,395833	0,1	0,891413
3,397500	0,1	0,892990
3,399167	0,1	0,899063
3,400833	0,1	0,903526
3,402500	0,1	0,890226
3,404167	0,1	0,867595
3,405833	0,1	0,852583
3,407500	0,1	0,900719
3,409167	0,1	0,860921
3,410833	0,1	0,859953
3,412500	0,1	0,861775
3,414167	0,1	0,910456
3,415833	0,1	0,854206
3,417500	0,1	0,850782
3,419167	0,1	0,838414
3,420833	0,1	0,833044
3,422500	0,1	0,859226
3,424167	0,1	0,853028
3,425833	0,1	0,802004
3,427500	0,1	0,836855
3,429167	0,1	0,843894
3,430833	0,1	0,817295
3,432500	0,1	0,801362
3,434167	0,1	0,827763
3,435833	0,1	0,767109
3,437500	0,1	0,803464
3,439167	0,1	0,793964
3,440833	0,1	0,796822
3,442500	0,1	0,803631
3,444167	0,1	0,806612
3,445833	0,1	0,813730
3,447500	0,1	0,771344
3,449167	0,1	0,800868
3,450833	0,1	0,743163
3,452500	0,1	0,804513
3,454167	0,1	0,763378
3,455833	0,1	0,837227
3,457500	0,1	0,808175
3,459167	0,1	0,773076
3,460833	0,1	0,768282
3,462500	0,1	0,786048
3,464167	0,1	0,749360
3,465833	0,1	0,802752
3,467500	0,1	0,749336
3,469167	0,1	0,784536
3,470833	0,1	0,819499
3,472500	0,1	0,764120
3,474167	0,1	0,771332
3,475833	0,1	0,746851
3,477500	0,1	0,752498
3,479167	0,1	0,784594
3,480833	0,1	0,755590
3,482500	0,1	0,766377
3,484167	0,1	0,764042
3,485833	0,1	0,759188
3,487500	0,1	0,765678
3,489167	0,1	0,772675
3,490833	0,1	0,732103
3,492500	0,1	0,757478
3,494167	0,1	0,770328
3,495833	0,1	0,749934
3,497500	0,1	0,718185
3,499167	0,1	0,726054
3,500833	0,1	0,758017
3,502500	0,1	0,743153
3,504167	0,1	0,722811
3,505833	0,1	0,710570
3,507500	0,1	0,722964
3,509167	0,1	0,761519
3,510833	0,1	0,727220
3,512500	0,1	0,745873
3,514167	0,1	0,752505
3,515833	0,1	0,718450
3,517500	0,1	0,720240
3,519167	0,1	0,758983
3,520833	0,1	0,766415
3,522500	0,1	0,762684
3,524167	0,1	0,727927
3,525833	0,1	0,761678
3,527500	0,1	0,729176
3,529167	0,1	0,764351
3,530833	0,1	0,694133
3,532500	0,1	0,745158
3,534167	0,1	0,761271
3,535833	0,1	0,756135
3,537500	0,1	0,771005
3,539167	0,1	0,729214
3,540833	0,1	0,778580
3,542500	0,1	0,731815
3,544167	0,1	0,750697
3,545833	0,1	0,710605
3,547500	0,1	0,763154
3,549167	0,1	0,725839
3,550833	0,1	0,741925
3,552500	0,1	0,727798
3,554167	0,1	0,728049
3,555833	0,1	0,728914
3,557500	0,1	0,738163
3,559167	0,1	0,771284
3,560833	0,1	0,666186
3,562500	0,1	0,773172
3,564167	0,1	0,736954
3,565833	0,1	0,757637
3,567500	0,1	0,750703
3,569167	0,1	0,740711
3,570833	0,1	0,732096
3,572500	0,1	0,752430
3,574167	0,1	0,734956
3,575833	0,1	0,741473
3,577500	0,1	0,679799
3,579167	0,1	0,671368
3,580833	0,1	0,719742
3,582500	0,1	0,720813
3,584167	0,1	0,697719
3,585833	0,1	0,738480
3,587500	0,1	0,723517
3,589167	0,1	0,683744
3,590833	0,1	0,726781
3,592500	0,1	0,730388
3,594167	0,1	0,704854
3,595833	0,1	0,728201
3,597500	0,1	0,725219
3,599167	0,1	0,687599
3,600833	0,1	0,688556
3,602500	0,1	0,719811
3,604167	0,1	0,668069
3,605833	0,1	0,681161
3,607500	0,1	0,699989
3,609167	0,1	0,734915
3,610833	0,1	0,667591
3,612500	0,1	0,692018
3,614167	0,1	0,670887
3,615833	0,1	0,675414
3,617500	0,1	0,693530
3,619167	0,1	0,676769
3,620833	0,1	0,724469
3,622500	0,1	0,722648
3,624167	0,1	0,682106
3,625833	0,1	0,701913
3,627500	0,1	0,721516
3,629167	0,1	0,682490
3,630833	0,1	0,681838
3,632500	0,1	0,664202
3,634167	0,1	0,665001
3,635833	0,1	0,705763
3,637500	0,1	0,705550
3,639167	0,1	0,671662
3,640833	0,1	0,656171
3,642500	0,1	0,661691
3,644167	0,1	0,673902
3,645833	0,1	0,669724
3,647500	0,1	0,676725
3,649167	0,1	0,666034
3,650833	0,1	0,645218
3,652500	0,1	0,641165
3,654167	0,1	0,637983
3,655833	0,1	0,698625
3,657500	0,1	0,673391
3,659167	0,1	0,644285
3,660833	0,1	0,664997
3,662500	0,1	0,621642
3,664167	0,1	0,662292
3,665833	0,1	0,634424
3,667500	0,1	0,641292
3,669167	0,1	0,648325
3,670833	0,1	0,588428
3,672500	0,1	0,648794
3,674167	0,1	0,646720
3,675833	0,1	0,650864
3,677500	0,1	0,631303
3,679167	0,1	0,629085
3,680833	0,1	0,630112
3,682500	0,1	0,625839
3,684167	0,1	0,627572
3,685833	0,1	0,639105
3,687500	0,1	0,640102
3,689167	0,1	0,633036
3,690833	0,1	0,643249
3,692500	0,1	0,628060
3,694167	0,1	0,629341
3,695833	0,1	0,585756
3,697500	0,1	0,572899
3,699167	0,1	0,594992
3,700833	0,1	0,644460
3,702500	0,1	0,639139
3,704167	0,1	0,614954
3,705833	0,1	0,615012
3,707500	0,1	0,637175
3,709167	0,1	0,612191
3,710833	0,1	0,614272
3,712500	0,1	0,625419
3,714167	0,1	0,654297
3,715833	0,1	0,622184
3,717500	0,1	0,599405
3,719167	0,1	0,637107
3,720833	0,1	0,596518
3,722500	0,1	0,602128
3,724167	0,1	0,610449
3,725833	0,1	0,623650
3,727500	0,1	0,640806
3,729167	0,1	0,658733
3,730833	0,1	0,609016
3,732500	0,1	0,653457
3,734167	0,1	0,631338
3,735833	0,1	0,639136
3,737500	0,1	0,629279
3,739167	0,1	0,623753
3,740833	0,1	0,615400
3,742500	0,1	0,631907
3,744167	0,1	0,682817
3,745833	0,1	0,649107
3,747500	0,1	0,668404
3,749167	0,1	0,638730
3,750833	0,1	0,662170
3,752500	0,1	0,691180
3,754167	0,1	0,651197
3,755833	0,1	0,661241
3,757500	0,1	0,674637
3,759167	0,1	0,687393
3,760833	0,1	0,678243
3,762500	0,1	0,666645
3,764167	0,1	0,711518
3,765833	0,1	0,660519
3,767500	0,1	0,665162
3,769167	0,1	0,674512
3,770833	0,1	0,688709
3,772500	0,1	0,670147
3,774167	0,1	0,719775
3,775833	0,1	0,651204
3,777500	0,1	0,682922
3,779167	0,1	0,694333
3,780833	0,1	0,735585
3,782500	0,1	0,703021
3,784167	0,1	0,667484
3,785833	0,1	0,720347
3,787500	0,1	0,676324
3,789167	0,1	0,730153
3,790833	0,1	0,698493
3,792500	0,1	0,732497
3,794167	0,1	0,719373
3,795833	0,1	0,695243
3,797500	0,1	0,683353
3,799167	0,1	0,730118
3,800833	0,1	0,711367
3,802500	0,1	0,719008
3,804167	0,1	0,701186
3,805833	0,1	0,715544
3,807500	0,1	0,728652
3,809167	0,1	0,705043
3,810833	0,1	0,731284
3,812500	0,1	0,751592
3,814167	0,1	0,726668
3,815833	0,1	0,671318
3,817500	0,1	0,747145
3,819167	0,1	0,737432
3,820833	0,1	0,729812
3,822500	0,1	0,778970
3,824167	0,1	0,699596
3,825833	0,1	0,740986
3,827500	0,1	0,746909
3,829167	0,1	0,744948
3,830833	0,1	0,712567
3,832500	0,1	0,707161
3,834167	0,1	0,771154
3,835833	0,1	0,706501
3,837500	0,1	0,768936
3,839167	0,1	0,718449
3,840833	0,1	0,721644
3,842500	0,1	0,716186
3,844167	0,1	0,731129
3,845833	0,1	0,742402
3,847500	0,1	0,730298
3,849167	0,1	0,718217
3,850833	0,1	0,729650
3,852500	0,1	0,716318
3,854167	0,1	0,754579
3,855833	0,1	0,684329
3,857500	0,1	0,735165
3,859167	0,1	0,738968
3,860833	0,1	0,724191
3,862500	0,1	0,726822
3,864167	0,1	0,681882
3,865833	0,1	0,712840
3,867500	0,1	0,701472
3,869167	0,1	0,688784
3,870833	0,1	0,721997
3,872500	0,1	0,663733
3,874167	0,1	0,699887
3,875833	0,1	0,697779
3,877500	0,1	0,703815
3,879167	0,1	0,686534
3,880833	0,1	0,638378
3,882500	0,1	0,678907
3,884167	0,1	0,681163
3,885833	0,1	0,650714
3,887500	0,1	0,683726
3,889167	0,1	0,654537
3,890833	0,1	0,629699
3,892500	0,1	0,643634
3,894167	0,1	0,682346
3,895833	0,1	0,644094
3,897500	0,1	0,658156
3,899167	0,1	0,646306
3,900833	0,1	0,641935
3,902500	0,1	0,659118
3,904167	0,1	0,674830
3,905833	0,1	0,662596
3,907500	0,1	0,612742
3,909167	0,1	0,642023
3,910833	0,1	0,657416
3,912500	0,1	0,671747
3,914167	0,1	0,650808
3,915833	0,1	0,636893
3,917500	0,1	0,636345
3,919167	0,1	0,646174
3,920833	0,1	0,659922
3,922500	0,1	0,636767
3,924167	0,1	0,630337
3,925833	0,1	0,620186
3,927500	0,1	0,603323
3,929167	0,1	0,624934
3,930833	0,1	0,615688
3,932500	0,1	0,625642
3,934167	0,1	0,603389
3,935833	0,1	0,630007
3,937500	0,1	0,606023
3,939167	0,1	0,616103
3,940833	0,1	0,623236
3,942500	0,1	0,617422
3,944167	0,1	0,632194
3,945833	0,1	0,634318
3,947500	0,1	0,601430
3,949167	0,1	0,584563
3,950833	0,1	0,612371
3,952500	0,1	0,615911
3,954167	0,1	0,614370
3,955833	0,1	0,565554
3,957500	0,1	0,608672
3,959167	0,1	0,602837
3,960833	0,1	0,630392
3,962500	0,1	0,623719
3,964167	0,1	0,610742
3,965833	0,1	0,555565
3,967500	0,1	0,591553
3,969167	0,1	0,592556
3,970833	0,1	0,622137
3,972500	0,1	0,578947
3,974167	0,1	0,605626
3,975833	0,1	0,623039
3,977500	0,1	0,630270
3,979167	0,1	0,604482
3,980833	0,1	0,562756
3,982500	0,1	0,563357
3,984167	0,1	0,580058
3,985833	0,1	0,563393
3,987500	0,1	0,549549
3,989167	0,1	0,530950
3,990833	0,1	0,600763
3,992500	0,1	0,603221
3,994167	0,1	0,617545
3,995833	0,1	0,570756
3,997500	0,1	0,546082
3,999167	0,1	0,595854
4,000833	0,1	0,610799
4,002500	0,1	0,563528
4,004167	0,1	0,608191
4,005833	0,1	0,607205
4,007500	0,1	0,616488
4,009167	0,1	0,585658
4,010833	0,1	0,588541
4,012500	0,1	0,575246
4,014167	0,1	0,599296
4,015833	0,1	0,641184
4,017500	0,1	0,640520
4,019167	0,1	0,637886
4,020833	0,1	0,605576
4,022500	0,1	0,593844
4,024167	0,1	0,619663
4,025833	0,1	0,597637
4,027500	0,1	0,645359
4,029167	0,1	0,631208
4,030833	0,1	0,654360
4,032500	0,1	0,637184
4,034167	0,1	0,634995
4,035833	0,1	0,652243
4,037500	0,1	0,661593
4,039167	0,1	0,648266
4,040833	0,1	0,708972
4,042500	0,1	0,675356
4,044167	0,1	0,676600
4,045833	0,1	0,684953
4,047500	0,1	0,679269
4,049167	0,1	0,684217
4,050833	0,1	0,733006
4,052500	0,1	0,671798
4,054167	0,1	0,736123
4,055833	0,1	0,685419
4,057500	0,1	0,715665
4,059167	0,1	0,738450
4,060833	0,1	0,734990
4,062500	0,1	0,723099
4,064167	0,1	0,753425
4,065833	0,1	0,741678
4,067500	0,1	0,741184
4,069167	0,1	0,795515
4,070833	0,1	0,796076
4,072500	0,1	0,817926
4,074167	0,1	0,850225
4,075833	0,1	0,847121
4,077500	0,1	0,825977
4,079167	0,1	0,870413
4,080833	0,1	0,863510
4,082500	0,1	0,869620
4,084167	0,1	0,903060
4,085833	0,1	0,875323
4,087500	0,1	0,940959
4,089167	0,1	0,913952
4,090833	0,1	0,939039
4,092500	0,1	0,997457
4,094167	0,1	0,989377
4,095833	0,1	1,036689
4,097500	0,1	0,989188
4,099167	0,1	1,031520
4,100833	0,1	1,007321
4,102500	0,1	1,079928
4,104167	0,1	1,068126
4,105833	0,1	1,081827
4,107500	0,1	1,053980
4,109167	0,1	1,128059
4,110833	0,1	1,116058
4,112500	0,1	1,168969
4,114167	0,1	1,170224
4,115833	0,1	1,168806
4,117500	0,1	1,204291
4,119167	0,1	1,226129
4,120833	0,1	1,240970
4,122500	0,1	1,268635
4,124167	0,1	1,265761
4,125833	0,1	1,263763
4,127500	0,1	1,330185
4,129167	0,1	1,299096
4,130833	0,1	1,356574
4,132500	0,1	1,349491
4,134167	0,1	1,351690
4,135833	0,1	1,377464
4,137500	0,1	1,414034
4,139167	0,1	1,472725
4,140833	0,1	1,457533
4,142500	0,1	1,439200
4,144167	0,1	1,470838
4,145833	0,1	1,488104
4,147500	0,1	1,510227
4,149167	0,1	1,514504
4,150833	0,1	1,562579
4,152500	0,1	1,534018
4,154167	0,1	1,610937
4,155833	0,1	1,565807
4,157500	0,1	1,591630
4,159167	0,1	1,630404
4,160833	0,1	1,674360
4,162500	0,1	1,630204
4,164167	0,1	1,683305
4,165833	0,1	1,680720
4,167500	0,1	1,674234
4,169167	0,1	1,674910
4,170833	0,1	1,718008
4,172500	0,1	1,724368
4,174167	0,1	1,736251
4,175833	0,1	1,716645
4,177500	0,1	1,730474
4,179167	0,1	1,777264
4,180833	0,1	1,758023
4,182500	0,1	1,757929
4,184167	0,1	1,826955
4,185833	0,1	1,810711
4,187500	0,1	1,839911
4,189167	0,1	1,834190
4,190833	0,1	1,806552
4,192500	0,1	1,814352
4,194167	0,1	1,843132
4,195833	0,1	1,821509
4,197500	0,1	1,830808
4,199167	0,1	1,818571
4,200833	0,1	1,837266
4,202500	0,1	1,866678
4,204167	0,1	1,830776
4,205833	0,1	1,837418
4,207500	0,1	1,836975
4,209167	0,1	1,926678
4,210833	0,1	1,865132
4,212500	0,1	1,849005
4,214167	0,1	1,868623
4,215833	0,1	1,872982
4,217500	0,1	1,872858
4,219167	0,1	1,843923
4,220833	0,1	1,858879
4,222500	0,1	1,858737
4,224167	0,1	1,891459
4,225833	0,1	1,873787
4,227500	0,1	1,862472
4,229167	0,1	1,835623
4,230833	0,1	1,876985
4,232500	0,1	1,872650
4,234167	0,1	1,844933
4,235833	0,1	1,847154
4,237500	0,1	1,838126
4,239167	0,1	1,830248
4,240833	0,1	1,837983
4,242500	0,1	1,841285
4,244167	0,1	1,836272
4,245833	0,1	1,812507
4,247500	0,1	1,830684
4,249167	0,1	1,803060
4,250833	0,1	1,785099
4,252500	0,1	1,776206
4,254167	0,1	1,762392
4,255833	0,1	1,789371
4,257500	0,1	1,759036
4,259167	0,1	1,758177
4,260833	0,1	1,743413
4,262500	0,1	1,782995
4,264167	0,1	1,723899
4,265833	0,1	1,711640
4,267500	0,1	1,704057
4,269167	0,1	1,716649
4,270833	0,1	1,727034
4,272500	0,1	1,683938
4,274167	0,1	1,716575
4,275833	0,1	1,662192
4,277500	0,1	1,650289
4,279167	0,1	1,660853
4,280833	0,1	1,626131
4,282500	0,1	1,639231
4,284167	0,1	1,606662
4,285833	0,1	1,592845
4,287500	0,1	1,600101
4,289167	0,1	1,571529
4,290833	0,1	1,604208
4,292500	0,1	1,559588
4,294167	0,1	1,569028
4,295833	0,1	1,567892
4,297500	0,1	1,553785
4,299167	0,1	1,523647
4,300833	0,1	1,510151
4,302500	0,1	1,545689
4,304167	0,1	1,505075
4,305833	0,1	1,479979
4,307500	0,1	1,530973
4,309167	0,1	1,468673
4,310833	0,1	1,508002
4,312500	0,1	1,463617
4,314167	0,1	1,470588
4,315833	0,1	1,402352
4,317500	0,1	1,412565
4,319167	0,1	1,428538
4,320833	0,1	1,402139
4,322500	0,1	1,397206
4,324167	0,1	1,370957
4,325833	0,1	1,358859
4,327500	0,1	1,400785
4,329167	0,1	1,360475
4,330833	0,1	1,324330
4,332500	0,1	1,354582
4,334167	0,1	1,297067
4,335833	0,1	1,320272
4,337500	0,1	1,288954
4,339167	0,1	1,285730
4,340833	0,1	1,293622
4,342500	0,1	1,260621
4,344167	0,1	1,272348
4,345833	0,1	1,228920
4,347500	0,1	1,257590
4,349167	0,1	1,254179
4,350833	0,1	1,237251
4,352500	0,1	1,264842
4,354167	0,1	1,207288
4,355833	0,1	1,197626
4,357500	0,1	1,182384
4,359167	0,1	1,161423
4,360833	0,1	1,179981
4,362500	0,1	1,187194
4,364167	0,1	1,173931
4,365833	0,1	1,093672
4,367500	0,1	1,142884
4,369167	0,1	1,112559
4,370833	0,1	1,120379
4,372500	0,1	1,115170
4,374167	0,1	1,121643
4,375833	0,1	1,105213
4,377500	0,1	1,059574
4,379167	0,1	1,072336
4,380833	0,1	1,077993
4,382500	0,1	1,053781
4,384167	0,1	1,078985
4,385833	0,1	1,071408
4,387500	0,1	1,031360
4,389167	0,1	1,018515
4,390833	0,1	1,009397
4,392500	0,1	0,989288
4,394167	0,1	1,007911
4,395833	0,1	0,990137
4,397500	0,1	0,978132
4,399167	0,1	0,969993
4,400833	0,1	0,962055
4,402500	0,1	0,988057
4,404167	0,1	0,970886
4,405833	0,1	0,995585
4,407500	0,1	0,956497
4,409167	0,1	0,965735
4,410833	0,1	0,924885
4,412500	0,1	0,941745
4,414167	0,1	0,928751
4,415833	0,1	0,922371
4,417500	0,1	0,909710
4,419167	0,1	0,885688
4,420833	0,1	0,908506
4,422500	0,1	0,870236
4,424167	0,1	0,889129
4,425833	0,1	0,912523
4,427500	0,1	0,863074
4,429167	0,1	0,860295
4,430833	0,1	0,871601
4,432500	0,1	0,871669
4,434167	0,1	0,839508
4,435833	0,1	0,874048
4,437500	0,1	0,869073
4,439167	0,1	0,827137
4,440833	0,1	0,814078
4,442500	0,1	0,817578
4,444167	0,1	0,821983
4,445833	0,1	0,830107
4,447500	0,1	0,837951
4,449167	0,1	0,793191
4,450833	0,1	0,816957
4,452500	0,1	0,788183
4,454167	0,1	0,760089
4,455833	0,1	0,788161
4,457500	0,1	0,767418
4,459167	0,1	0,763075
4,460833	0,1	0,780443
4,462500	0,1	0,745055
4,464167	0,1	0,757061
4,465833	0,1	0,768175
4,467500	0,1	0,719988
4,469167	0,1	0,760910
4,470833	0,1	0,734158
4,472500	0,1	0,735919
4,474167	0,1	0,716993
4,475833	0,1	0,721455
4,477500	0,1	0,724959
4,479167	0,1	0,729161
4,480833	0,1	0,691611
4,482500	0,1	0,666070
4,484167	0,1	0,662981
4,485833	0,1	0,712737
4,487500	0,1	0,671760
4,489167	0,1	0,634585
4,490833	0,1	0,659535
4,492500	0,1	0,607508
4,494167	0,1	0,668939
4,495833	0,1	0,629866
4,497500	0,1	0,651919
4,499167	0,1	0,617429
4,500833	0,1	0,653779
4,502500	0,1	0,617558
4,504167	0,1	0,625226
4,505833	0,1	0,635152
4,507500	0,1	0,657124
4,509167	0,1	0,581074
4,510833	0,1	0,554143
4,512500	0,1	0,595052
4,514167	0,1	0,637392
4,515833	0,1	0,618517
4,517500	0,1	0,561667
4,519167	0,1	0,564320
4,520833	0,1	0,539207
4,522500	0,1	0,560750
4,524167	0,1	0,572735
4,525833	0,1	0,565736
4,527500	0,1	0,549772
4,529167	0,1	0,578865
4,530833	0,1	0,540239
4,532500	0,1	0,504230
4,534167	0,1	0,567519
4,535833	0,1	0,538214
4,537500	0,1	0,553397
4,539167	0,1	0,565763
4,540833	0,1	0,513231
4,542500	0,1	0,525807
4,544167	0,1	0,530497
4,545833	0,1	0,518615
4,547500	0,1	0,513156
4,549167	0,1	0,490482
4,550833	0,1	0,500305
4,552500	0,1	0,494592
4,554167	0,1	0,502906
4,555833	0,1	0,494819
4,557500	0,1	0,480075
4,559167	0,1	0,489161
4,560833	0,1	0,481776
4,562500	0,1	0,477922
4,564167	0,1	0,475676
4,565833	0,1	0,429597
4,567500	0,1	0,443134
4,569167	0,1	0,438967
4,570833	0,1	0,422144
4,572500	0,1	0,492809
4,574167	0,1	0,442543
4,575833	0,1	0,438939
4,577500	0,1	0,438196
4,579167	0,1	0,430013
4,580833	0,1	0,418580
4,582500	0,1	0,467892
4,584167	0,1	0,431140
4,585833	0,1	0,456688
4,587500	0,1	0,416082
4,589167	0,1	0,397199
4,590833	0,1	0,409293
4,592500	0,1	0,397840
4,594167	0,1	0,407911
4,595833	0,1	0,416168
4,597500	0,1	0,418387
4,599167	0,1	0,418097
4,600833	0,1	0,411478
4,602500	0,1	0,407272
4,604167	0,1	0,393860
4,605833	0,1	0,456870
4,607500	0,1	0,380318
4,609167	0,1	0,364765
4,610833	0,1	0,380014
4,612500	0,1	0,410066
4,614167	0,1	0,393055
4,615833	0,1	0,366150
4,617500	0,1	0,412377
4,619167	0,1	0,364962
4,620833	0,1	0,382936
4,622500	0,1	0,364702
4,624167	0,1	0,404411
4,625833	0,1	0,362718
4,627500	0,1	0,340075
4,629167	0,1	0,326525
4,630833	0,1	0,329885
4,632500	0,1	0,344525
4,634167	0,1	0,352078
4,635833	0,1	0,357469
4,637500	0,1	0,329992
4,639167	0,1	0,325818
4,640833	0,1	0,367519
4,642500	0,1	0,375233
4,644167	0,1	0,350423
4,645833	0,1	0,337027
4,647500	0,1	0,324437
4,649167	0,1	0,325466
4,650833	0,1	0,336063
4,652500	0,1	0,333424
4,654167	0,1	0,292629
4,655833	0,1	0,326289
4,657500	0,1	0,349807
4,659167	0,1	0,284930
4,660833	0,1	0,306450
4,662500	0,1	0,332396
4,664167	0,1	0,281528
4,665833	0,1	0,255023
4,667500	0,1	0,260377
4,669167	0,1	0,294186
4,670833	0,1	0,298396
4,672500	0,1	0,321707
4,674167	0,1	0,285879
4,675833	0,1	0,313386
4,677500	0,1	0,280239
4,679167	0,1	0,293837
4,680833	0,1	0,266593
4,682500	0,1	0,278656
4,684167	0,1	0,286398
4,685833	0,1	0,310315
4,687500	0,1	0,281460
4,689167	0,1	0,286525
4,690833	0,1	0,286979
4,692500	0,1	0,307066
4,694167	0,1	0,276966
4,695833	0,1	0,278054
4,697500	0,1	0,266527
4,699167	0,1	0,267719
4,700833	0,1	0,248904
4,702500	0,1	0,271880
4,704167	0,1	0,237603
4,705833	0,1	0,253820
4,707500	0,1	0,300967
4,709167	0,1	0,259988
4,710833	0,1	0,239112
4,712500	0,1	0,241110
4,714167	0,1	0,252397
4,715833	0,1	0,264986
4,717500	0,1	0,256417
4,719167	0,1	0,225796
4,720833	0,1	0,247776
4,722500	0,1	0,241754
4,724167	0,1	0,264176
4,725833	0,1	0,224781
4,727500	0,1	0,226784
4,729167	0,1	0,250255
4,730833	0,1	0,250637
4,732500	0,1	0,264985
4,734167	0,1	0,221613
4,735833	0,1	0,247609
4,737500	0,1	0,232315
4,739167	0,1	0,248051
4,740833	0,1	0,206253
4,742500	0,1	0,240711
4,744167	0,1	0,198220
4,745833	0,1	0,235183
4,747500	0,1	0,214677
4,749167	0,1	0,228416
4,750833	0,1	0,193951
4,752500	0,1	0,201973
4,754167	0,1	0,209097
4,755833	0,1	0,227234
4,757500	0,1	0,242641
4,759167	0,1	0,206102
4,760833	0,1	0,202579
4,762500	0,1	0,244686
4,764167	0,1	0,183087
4,765833	0,1	0,205016
4,767500	0,1	0,253319
4,769167	0,1	0,212938
4,770833	0,1	0,232948
4,772500	0,1	0,170146
4,774167	0,1	0,213873
4,775833	0,1	0,208561
4,777500	0,1	0,193283
4,779167	0,1	0,213565
4,780833	0,1	0,188151
4,782500	0,1	0,201143
4,784167	0,1	0,217293
4,785833	0,1	0,199804
4,787500	0,1	0,196074
4,789167	0,1	0,203548
4,790833	0,1	0,218248
4,792500	0,1	0,170784
4,794167	0,1	0,225112
4,795833	0,1	0,190821
4,797500	0,1	0,185555
4,799167	0,1	0,191249
4,800833	0,1	0,235736
4,802500	0,1	0,195153
4,804167	0,1	0,179950
4,805833	0,1	0,206400
4,807500	0,1	0,188086
4,809167	0,1	0,165061
4,810833	0,1	0,135521
4,812500	0,1	0,160808
4,814167	0,1	0,155722
4,815833	0,1	0,171203
4,817500	0,1	0,201100
4,819167	0,1	0,158214
4,820833	0,1	0,157188
4,822500	0,1	0,189483
4,824167	0,1	0,185765
4,825833	0,1	0,167256
4,827500	0,1	0,173442
4,829167	0,1	0,134115
4,830833	0,1	0,142984
4,832500	0,1	0,212912
4,834167	0,1	0,162503
4,835833	0,1	0,210020
4,837500	0,1	0,190238
4,839167	0,1	0,142107
4,840833	0,1	0,131685
4,842500	0,1	0,148821
4,844167	0,1	0,201049
4,845833	0,1	0,163659
4,847500	0,1	0,152492
4,849167	0,1	0,126741
4,850833	0,1	0,179184
4,852500	0,1	0,160052
4,854167	0,1	0,123370
4,855833	0,1	0,175936
4,857500	0,1	0,135068
4,859167	0,1	0,132740
4,860833	0,1	0,137726
4,862500	0,1	0,147892
4,864167	0,1	0,154600
4,865833	0,1	0,168511
4,867500	0,1	0,171081
4,869167	0,1	0,142063
4,870833	0,1	0,152279
4,872500	0,1	0,183269
4,874167	0,1	0,163945
4,875833	0,1	0,168433
4,877500	0,1	0,158808
4,879167	0,1	0,151810
4,880833	0,1	0,145886
4,882500	0,1	0,126389
4,884167	0,1	0,149048
4,885833	0,1	0,152158
4,887500	0,1	0,158680
4,889167	0,1	0,138914
4,890833	0,1	0,151844
4,892500	0,1	0,144334
4,894167	0,1	0,145822
4,895833	0,1	0,163085
4,897500	0,1	0,147587
4,899167	0,1	0,167514
4,900833	0,1	0,140654
4,902500	0,1	0,185462
4,904167	0,1	0,164712
4,905833	0,1	0,143551
4,907500	0,1	0,137231
4,909167	0,1	0,137874
4,910833	0,1	0,131726
4,912500	0,1	0,150975
4,914167	0,1	0,133632
4,915833	0,1	0,162502
4,917500	0,1	0,112316
4,919167	0,1	0,176097
4,920833	0,1	0,158418
4,922500	0,1	0,128958
4,924167	0,1	0,123920
4,925833	0,1	0,127769
4,927500	0,1	0,149504
4,929167	0,1	0,151683
4,930833	0,1	0,111446
4,932500	0,1	0,183759
4,934167	0,1	0,149062
4,935833	0,1	0,125126
4,937500	0,1	0,134041
4,939167	0,1	0,108336
4,940833	0,1	0,155068
4,942500	0,1	0,114322
4,944167	0,1	0,131760
4,945833	0,1	0,136236
4,947500	0,1	0,143793
4,949167	0,1	0,138269
4,950833	0,1	0,117983
4,952500	0,1	0,140227
4,954167	0,1	0,120695
4,955833	0,1	0,135612
4,957500	0,1	0,130027
4,959167	0,1	0,119822
4,960833	0,1	0,115452
4,962500	0,1	0,147596
4,964167	0,1	0,163914
4,965833	0,1	0,138893
4,967500	0,1	0,143565
4,969167	0,1	0,103682
4,970833	0,1	0,138423
4,972500	0,1	0,128973
4,974167	0,1	0,186597
4,975833	0,1	0,103693
4,977500	0,1	0,146765
4,979167	0,1	0,077852
4,980833	0,1	0,137798
4,982500	0,1	0,132905
4,984167	0,1	0,137624
4,985833	0,1	0,118893
4,987500	0,1	0,116178
4,989167	0,1	0,097591
4,990833	0,1	0,083946
4,992500	0,1	0,132375
4,994167	0,1	0,114296
4,995833	0,1	0,094569
4,997500	0,1	0,138070
4,999167	0,1	0,146380
5,000833	0,1	0,114444
5,002500	0,1	0,102516
5,004167	0,1	0,111288
5,005833	0,1	0,134513
5,007500	0,1	0,118375
5,009167	0,1	0,090491
5,010833	0,1	0,134321
5,012500	0,1	0,158738
5,014167	0,1	0,114696
5,015833	0,1	0,125841
5,017500	0,1	0,091550
5,019167	0,1	0,157421
5,020833	0,1	0,139742
5,022500	0,1	0,096500
5,024167	0,1	0,082849
5,025833	0,1	0,155120
5,027500	0,1	0,084251
5,029167	0,1	0,125421
5,030833	0,1	0,115476
5,032500	0,1	0,116486
5,034167	0,1	0,121930
5,035833	0,1	0,131638
5,037500	0,1	0,123403
5,039167	0,1	0,111315
5,040833	0,1	0,112326
5,042500	0,1	0,107441
5,044167	0,1	0,116277
5,045833	0,1	0,104711
5,047500	0,1	0,123046
5,049167	0,1	0,110837
5,050833	0,1	0,105537
5,052500	0,1	0,062797
5,054167	0,1	0,124566
5,055833	0,1	0,104961
5,057500	0,1	0,090199
5,059167	0,1	0,147465
5,060833	0,1	0,113970
5,062500	0,1	0,097486
5,064167	0,1	0,085313
5,065833	0,1	0,147817
5,067500	0,1	0,130465
5,069167	0,1	0,067977
5,070833	0,1	0,112563
5,072500	0,1	0,101998
5,074167	0,1	0,099885
5,075833	0,1	0,084362
5,077500	0,1	0,095182
5,079167	0,1	0,082579
5,080833	0,1	0,111636
5,082500	0,1	0,057831
5,084167	0,1	0,105980
5,085833	0,1	0,155873
5,087500	0,1	0,068934
5,089167	0,1	0,127860
5,090833	0,1	0,101899
5,092500	0,1	0,110315
5,094167	0,1	0,124681
5,095833	0,1	0,105727
5,097500	0,1	0,073103
5,099167	0,1	0,084644
5,100833	0,1	0,116438
5,102500	0,1	0,101813
5,104167	0,1	0,104583
5,105833	0,1	0,084506
5,107500	0,1	0,106275
5,109167	0,1	0,088377
5,110833	0,1	0,104661
5,112500	0,1	0,146414
5,114167	0,1	0,056889
5,115833	0,1	0,117755
5,117500	0,1	0,077950
5,119167	0,1	0,071401
5,120833	0,1	0,087024
5,122500	0,1	0,094479
5,124167	0,1	0,089825
5,125833	0,1	0,113851
5,127500	0,1	0,111395
5,129167	0,1	0,043947
5,130833	0,1	0,104402
5,132500	0,1	0,085005
5,134167	0,1	0,098762
5,135833	0,1	0,108742
5,137500	0,1	0,074161
5,139167	0,1	0,104887
5,140833	0,1	0,063130
5,142500	0,1	0,099773
5,144167	0,1	0,102884
5,145833	0,1	0,071987
5,147500	0,1	0,069764
5,149167	0,1	0,083878
5,150833	0,1	0,073412
5,152500	0,1	0,079264
5,154167	0,1	0,105508
5,155833	0,1	0,027599
5,157500	0,1	0,088297
5,159167	0,1	0,036864
5,160833	0,1	0,093143
5,162500	0,1	0,075378
5,164167	0,1	0,077569
5,165833	0,1	0,084645
5,167500	0,1	0,091828
5,169167	0,1	0,086139
5,170833	0,1	0,059709
5,172500	0,1	0,076340
5,174167	0,1	0,054430
5,175833	0,1	0,075369
5,177500	0,1	0,091931
5,179167	0,1	0,083139
5,180833	0,1	0,084690
5,182500	0,1	0,055241
5,184167	0,1	0,053494
5,185833	0,1	0,080688
5,187500	0,1	0,061032
5,189167	0,1	0,055315
5,190833	0,1	0,082219
5,192500	0,1	0,078748
5,194167	0,1	0,040028
5,195833	0,1	0,071516
5,197500	0,1	0,082595
5,199167	0,1	0,056005
5,200833	0,1	0,075515
5,202500	0,1	0,057039
5,204167	0,1	0,050805
5,205833	0,1	0,086191
5,207500	0,1	0,053378
5,209167	0,1	0,046849
5,210833	0,1	0,051900
5,212500	0,1	0,051840
5,214167	0,1	0,085364
5,215833	0,1	0,039035
5,217500	0,1	0,024228
5,219167	0,1	0,043555
5,220833	0,1	0,061646
5,222500	0,1	0,043046
5,224167	0,1	0,040267
5,225833	0,1	0,059783
5,227500	0,1	0,078495
5,229167	0,1	0,074256
5,230833	0,1	0,076533
5,232500	0,1	0,085971
5,234167	0,1	0,051989
5,235833	0,1	0,051672
5,237500	0,1	0,116327
5,239167	0,1	0,062305
5,240833	0,1	0,035304
5,242500	0,1	0,065679
5,244167	0,1	0,000418
5,245833	0,1	0,027862
5,247500	0,1	0,062055
5,249167	0,1	0,060386
5,250833	0,1	0,021050
5,252500	0,1	0,049864
5,254167	0,1	0,047305
5,255833	0,1	0,076526
5,257500	0,1	0,083591
5,259167	0,1	0,028524
5,260833	0,1	0,071988
5,262500	0,1	0,062379
5,264167	0,1	0,035452
5,265833	0,1	0,069095
5,267500	0,1	0,030588
5,269167	0,1	0,040805
5,270833	0,1	0,076813
5,272500	0,1	0,069911
5,274167	0,1	0,035017
5,275833	0,1	0,051836
5,277500	0,1	0,034351
5,279167	0,1	0,033146
5,280833	0,1	0,034470
5,282500	0,1	0,037057
5,284167	0,1	0,040701
5,285833	0,1	0,017172
5,287500	0,1	0,063729
5,289167	0,1	0,071895
5,290833	0,1	0,058216
5,292500	0,1	0,028476
5,294167	0,1	0,022362
5,295833	0,1	0,039829
5,297500	0,1	0,025326
5,299167	0,1	0,033477
5,300833	0,1	0,038072
5,302500	0,1	0,032671
5,304167	0,1	0,017853
5,305833	0,1	0,040426
5,307500	0,1	0,082113
5,309167	0,1	0,035106
5,310833	0,1	0,054255
5,312500	0,1	0,039360
5,314167	0,1	0,050407
5,315833	0,1	0,018914
5,317500	0,1	0,061455
5,319167	0,1	0,044909
5,320833	0,1	0,050161
5,322500	0,1	0,059143
5,324167	0,1	-0,000847
5,325833	0,1	0,005447
5,327500	0,1	0,019191
5,329167	0,1	0,011788
5,330833	0,1	0,039165
5,332500	0,1	0,034554
5,334167	0,1	0,022241
5,335833	0,1	0,010425
5,337500	0,1	0,048808
5,339167	0,1	0,058149
5,340833	0,1	-0,005399
5,342500	0,1	-0,012593
5,344167	0,1	0,022192
5,345833	0,1	-0,002948
5,347500	0,1	0,016483
5,349167	0,1	0,001418
5,350833	0,1	0,009173
5,352500	0,1	0,035644
5,354167	0,1	0,076998
5,355833	0,1	0,020158
5,357500	0,1	-0,001559
5,359167	0,1	-0,010211
5,360833	0,1	0,006358
5,362500	0,1	-0,015113
5,364167	0,1	0,009399
5,365833	0,1	0,010422
5,367500	0,1	0,029271
5,369167	0,1	0,021701
5,370833	0,1	0,040803
5,372500	0,1	-0,003294
5,374167	0,1	-0,000159
5,375833	0,1	-0,014639
5,377500	0,1	0,013870
5,379167	0,1	-0,008846
5,380833	0,1	0,038309
5,382500	0,1	0,007944
5,384167	0,1	-0,030200
5,385833	0,1	0,029533
5,387500	0,1	0,011956
5,389167	0,1	0,015986
5,390833	0,1	0,001401
5,392500	0,1	0,020350
5,394167	0,1	-0,016374
5,395833	0,1	-0,026891
5,397500	0,1	-0,000887
5,399167	0,1	-0,008287
5,400833	0,1	0,000666
5,402500	0,1	-0,004298
5,404167	0,1	-0,020782
5,405833	0,1	-0,009908
5,407500	0,1	0,022958
5,409167	0,1	0,019837
5,410833	0,1	-0,004187
5,412500	0,1	0,022688
5,414167	0,1	-0,000690
5,415833	0,1	-0,022689
5,417500	0,1	0,022207
5,419167	0,1	0,003369
5,420833	0,1	0,024471
5,422500	0,1	-0,036195
5,424167	0,1	0,006167
5,425833	0,1	0,005869
5,427500	0,1	-0,026148
5,429167	0,1	-0,010304
5,430833	0,1	0,038538
5,432500	0,1	-0,003787
5,434167	0,1	0,016729
5,435833	0,1	0,022902
5,437500	0,1	-0,044457
5,439167	0,1	0,015145
5,440833	0,1	-0,005305
5,442500	0,1	0,025957
5,444167	0,1	0,027494
5,445833	0,1	0,016507
5,447500	0,1	0,027348
5,449167	0,1	-0,001409
5,450833	0,1	0,004296
5,452500	0,1	-0,014146
5,454167	0,1	-0,016628
5,455833	0,1	-0,005170
5,457500	0,1	-0,027372
5,459167	0,1	0,004923
5,460833	0,1	-0,004375
5,462500	0,1	-0,006425
5,464167	0,1	-0,020125
5,465833	0,1	-0,009451
5,467500	0,1	0,002739
5,469167	0,1	-0,007978
5,470833	0,1	-0,010442
5,472500	0,1	0,019582
5,474167	0,1	-0,028730
5,475833	0,1	0,000995
5,477500	0,1	-0,010379
5,479167	0,1	-0,028034
5,480833	0,1	-0,010386
5,482500	0,1	0,017431
5,484167	0,1	-0,045880
5,485833	0,1	-0,012956
5,487500	0,1	-0,033059
5,489167	0,1	-0,023365
5,490833	0,1	-0,000533
5,492500	0,1	0,016545
5,494167	0,1	-0,035863
5,495833	0,1	-0,001012
5,497500	0,1	0,003962
5,499167	0,1	-0,015218
5,500833	0,1	-0,035459
5,502500	0,1	-0,027872
5,504167	0,1	-0,003083
5,505833	0,1	-0,010959
5,507500	0,1	-0,007113
5,509167	0,1	0,005076
5,510833	0,1	-0,049731
5,512500	0,1	-0,018422
5,514167	0,1	0,000249
5,515833	0,1	-0,044417
5,517500	0,1	-0,023779
5,519167	0,1	-0,013776
5,520833	0,1	0,005057
5,522500	0,1	-0,008418
5,524167	0,1	-0,021328
5,525833	0,1	-0,039855
5,527500	0,1	-0,072798
5,529167	0,1	0,003242
5,530833	0,1	-0,031192
5,532500	0,1	-0,024294
5,534167	0,1	-0,032711
5,535833	0,1	-0,010157
5,537500	0,1	0,001764
5,539167	0,1	-0,021940
5,540833	0,1	-0,024891
5,542500	0,1	-0,029197
5,544167	0,1	-0,059651
5,545833	0,1	-0,014883
5,547500	0,1	-0,024555
5,549167	0,1	-0,026508
5,550833	0,1	-0,028222
5,552500	0,1	-0,037352
5,554167	0,1	-0,029965
5,555833	0,1	0,012830
5,557500	0,1	-0,019690
5,559167	0,1	-0,017333
5,560833	0,1	-0,047171
5,562500	0,1	-0,005197
5,564167	0,1	-0,045762
5,565833	0,1	-0,007490
5,567500	0,1	-0,028172
5,569167	0,1	-0,024206
5,570833	0,1	-0,002564
5,572500	0,1	-0,035237
5,574167	0,1	-0,024068
5,575833	0,1	-0,064536
5,577500	0,1	-0,040277
5,579167	0,1	-0,015747
5,580833	0,1	0,008387
5,582500	0,1	-0,061778
5,584167	0,1	0,001609
5,585833	0,1	-0,028672
5,587500	0,1	-0,003803
5,589167	0,1	0,006774
5,590833	0,1	-0,030323
5,592500	0,1	0,022743
5,594167	0,1	-0,024800
5,595833	0,1	-0,018969
5,597500	0,1	-0,010241
5,599167	0,1	-0,010320
5,600833	0,1	0,005613
5,602500	0,1	0,007275
5,604167	0,1	-0,006985
5,605833	0,1	-0,019237
5,607500	0,1	0,037006
5,609167	0,1	-0,003418
5,610833	0,1	-0,003946
5,612500	0,1	-0,018945
5,614167	0,1	-0,034036
5,615833	0,1	-0,033125
5,617500	0,1	-0,008981
5,619167	0,1	0,032765
5,620833	0,1	0,007775
5,622500	0,1	-0,032228
5,624167	0,1	-0,020438
5,625833	0,1	-0,022675
5,627500	0,1	-0,020048
5,629167	0,1	-0,023316
5,630833	0,1	-0,026877
5,632500	0,1	0,001074
5,634167	0,1	0,018697
5,635833	0,1	-0,027709
5,637500	0,1	-0,014173
5,639167	0,1	-0,029625
5,640833	0,1	-0,030163
5,642500	0,1	-0,020569
5,644167	0,1	-0,002729
5,645833	0,1	-0,004027
5,647500	0,1	-0,011293
5,649167	0,1	-0,011664
5,650833	0,1	-0,029026
5,652500	0,1	-0,004111
5,654167	0,1	0,013934
5,655833	0,1	0,037821
5,657500	0,1	0,008585
5,659167	0,1	0,026108
5,660833	0,1	-0,001972
5,662500	0,1	-0,038997
5,664167	0,1	0,005570
5,665833	0,1	-0,005350
5,667500	0,1	-0,010380
5,669167	0,1	-0,017894
5,670833	0,1	-0,000285
5,672500	0,1	-0,028504
5,674167	0,1	-0,046682
5,675833	0,1	0,036647
5,677500	0,1	-0,006872
5,679167	0,1	-0,002120
5,680833	0,1	0,019621
5,682500	0,1	0,034635
5,684167	0,1	0,006142
5,685833	0,1	0,020827
5,687500	0,1	-0,014161
5,689167	0,1	-0,009573
5,690833	0,1	0,005717
5,692500	0,1	0,051932
5,694167	0,1	-0,009479
5,695833	0,1	0,009171
5,697500	0,1	0,000590
5,699167	0,1	0,001335
5,700833	0,1	0,014473
5,702500	0,1	0,020521
5,704167	0,1	0,040594
5,705833	0,1	0,037741
5,707500	0,1	0,002644
5,709167	0,1	-0,008638
5,710833	0,1	-0,003104
5,712500	0,1	0,013769
5,714167	0,1	0,023272
5,715833	0,1	0,013837
5,717500	0,1	0,017893
5,719167	0,1	0,017956
5,720833	0,1	0,029643
5,722500	0,1	0,015430
5,724167	0,1	0,024905
5,725833	0,1	0,046348
5,727500	0,1	0,002296
5,729167	0,1	0,001644
5,730833	0,1	0,020473
5,732500	0,1	0,005348
5,734167	0,1	0,040196
5,735833	0,1	0,056451
5,737500	0,1	0,045302
5,739167	0,1	0,015537
5,740833	0,1	0,047938
5,742500	0,1	0,019387
5,744167	0,1	0,032131
5,745833	0,1	0,034885
5,747500	0,1	0,062180
5,749167	0,1	0,037149
5,750833	0,1	0,035466
5,752500	0,1	0,071680
5,754167	0,1	0,010622
5,755833	0,1	0,045556
5,757500	0,1	0,044985
5,759167	0,1	0,084349
5,760833	0,1	0,062068
5,762500	0,1	0,076695
5,764167	0,1	0,039489
5,765833	0,1	0,033086
5,767500	0,1	0,013276
5,769167	0,1	0,071241
5,770833	0,1	0,041783
5,772500	0,1	0,077746
5,774167	0,1	0,033963
5,775833	0,1	0,037969
5,777500	0,1	0,042337
5,779167	0,1	0,019139
5,780833	0,1	0,026419
5,782500	0,1	0,083579
5,784167	0,1	0,069249
5,785833	0,1	0,041680
5,787500	0,1	0,023402
5,789167	0,1	0,075318
5,790833	0,1	0,061986
5,792500	0,1	0,041596
5,794167	0,1	0,049642
5,795833	0,1	0,069779
5,797500	0,1	0,035244
5,799167	0,1	0,064994
5,800833	0,1	0,056931
5,802500	0,1	0,039485
5,804167	0,1	0,026379
5,805833	0,1	0,055971
5,807500	0,1	0,035635
5,809167	0,1	0,100345
5,810833	0,1	0,079747
5,812500	0,1	0,060248
5,814167	0,1	0,039173
5,815833	0,1	0,050757
5,817500	0,1	0,041637
5,819167	0,1	0,059368
5,820833	0,1	0,019907
5,822500	0,1	0,049802
5,824167	0,1	0,041716
5,825833	0,1	0,038692
5,827500	0,1	0,060009
5,829167	0,1	0,027958
5,830833	0,1	0,050342
5,832500	0,1	0,027233
5,834167	0,1	0,021886
5,835833	0,1	0,027411
5,837500	0,1	0,076253
5,839167	0,1	0,080857
5,840833	0,1	0,041744
5,842500	0,1	0,047532
5,844167	0,1	0,057280
5,845833	0,1	0,046191
5,847500	0,1	0,015002
5,849167	0,1	0,043182
5,850833	0,1	0,079588
5,852500	0,1	0,026039
5,854167	0,1	0,002871
5,855833	0,1	0,005431
5,857500	0,1	-0,001582
5,859167	0,1	0,011862
5,860833	0,1	0,012198
5,862500	0,1	0,039741
5,864167	0,1	0,017110
5,865833	0,1	0,006779
5,867500	0,1	0,044543
5,869167	0,1	0,021231
5,870833	0,1	0,030828
5,872500	0,1	0,028593
5,874167	0,1	0,002000
5,875833	0,1	0,031029
5,877500	0,1	0,004735
5,879167	0,1	0,017101
5,880833	0,1	-0,003484
5,882500	0,1	0,061777
5,884167	0,1	0,033424
5,885833	0,1	0,006413
5,887500	0,1	0,051932
5,889167	0,1	0,011216
5,890833	0,1	0,052471
5,892500	0,1	0,054238
5,894167	0,1	0,006023
5,895833	0,1	0,025071
5,897500	0,1	0,013756
5,899167	0,1	0,035070
5,900833	0,1	0,005377
5,902500	0,1	0,048245
5,904167	0,1	0,027109
5,905833	0,1	0,054979
5,907500	0,1	-0,016718
5,909167	0,1	0,057824
5,910833	0,1	0,032675
5,912500	0,1	0,033458
5,914167	0,1	0,014979
5,915833	0,1	0,014538
5,917500	0,1	0,027163
5,919167	0,1	0,014583
5,920833	0,1	-0,012089
5,922500	0,1	0,018134
5,924167	0,1	0,044607
5,925833	0,1	-0,003206
5,927500	0,1	0,016421
5,929167	0,1	-0,011930
5,930833	0,1	0,049462
5,932500	0,1	0,047575
5,934167	0,1	0,038885
5,935833	0,1	0,015642
5,937500	0,1	0,014748
5,939167	0,1	0,007585
5,940833	0,1	0,001609
5,942500	0,1	-0,001065
5,944167	0,1	-0,006074
5,945833	0,1	-0,022690
5,947500	0,1	0,024793
5,949167	0,1	-0,020740
5,950833	0,1	-0,003221
5,952500	0,1	-0,017497
5,954167	0,1	-0,035230
5,955833	0,1	-0,046490
5,957500	0,1	-0,023921
5,959167	0,1	0,016663
5,960833	0,1	0,036538
5,962500	0,1	-0,027854
5,964167	0,1	-0,006080
5,965833	0,1	-0,024492
5,967500	0,1	-0,028633
5,969167	0,1	0,010141
5,970833	0,1	-0,017448
5,972500	0,1	0,008096
5,974167	0,1	-0,008304
5,975833	0,1	-0,025299
5,977500	0,1	-0,014707
5,979167	0,1	0,002385
5,980833	0,1	0,022048
5,982500	0,1	-0,014371
5,984167	0,1	-0,002685
5,985833	0,1	-0,014271
5,987500	0,1	-0,025381
5,989167	0,1	-0,018617
5,990833	0,1	-0,027841
5,992500	0,1	0,018340
5,994167	0,1	-0,070954
5,995833	0,1	-0,008656
5,997500	0,1	-0,047414
5,999167	0,1	-0,012208
6,000833	0,1	0,001646
