File Path	chrom://chromeleon01/ikbm_chromeleon/2022/Rezex/Esteban/220612_chitin_4_7.seq/996.smp/UV_VIS_1.channel/UV_VIS_1.chm
Channel	UV_VIS_1

Injection Information:
Data Vault	ikbm_chromeleon
Injection	7_00h-EGS_3
Injection Number	112
Position	BB6
Comment	
Processing Method	New ProcMethod
Instrument Method	Short_Rezex_6min_194nm
Type	Unknown
Status	Finished
Injection Date	13.06.2022
Injection Time	05:12:48
Injection Volume (µl)	8,000
Dilution Factor	1,0000
Weight	1,0000

Chromatogram Data Information:
Time Min. (min)	0,000833
Time Max. (min)	6,000833
Data Points	3601
Detector	UV
Generating Data System	Chromeleon 7.2.9.11323
Exporting Data System	Chromeleon 7.2.9.0
Operator	Instrument Controller
Signal Quantity	Absorbance
Signal Unit	mAU
Signal Min.	-0,125563
Signal Max.	117,952986
Channel	UV_VIS_1
Driver Name	VWD3000.dll
Channel Type	Evaluation
Min. Step (s)	0,1
Max. Step (s)	0,1
Average Step (s)	0,1

Signal Parameter Information:
Signal Info	WVL:194 nm

Chromatogram Data:
Time (min)	Step (s)	Value (mAU)
0,000833	n.a.	-0,037754
0,002500	0,1	-0,088828
0,004167	0,1	-0,072351
0,005833	0,1	-0,061903
0,007500	0,1	-0,057518
0,009167	0,1	-0,069551
0,010833	0,1	-0,047013
0,012500	0,1	-0,064296
0,014167	0,1	-0,062419
0,015833	0,1	-0,066619
0,017500	0,1	-0,047381
0,019167	0,1	-0,058920
0,020833	0,1	-0,066802
0,022500	0,1	-0,086288
0,024167	0,1	-0,057294
0,025833	0,1	-0,069717
0,027500	0,1	-0,053979
0,029167	0,1	-0,114055
0,030833	0,1	-0,095367
0,032500	0,1	-0,098004
0,034167	0,1	-0,125563
0,035833	0,1	-0,094729
0,037500	0,1	-0,118462
0,039167	0,1	-0,086452
0,040833	0,1	-0,110124
0,042500	0,1	-0,121902
0,044167	0,1	-0,106699
0,045833	0,1	-0,087151
0,047500	0,1	-0,086520
0,049167	0,1	-0,066395
0,050833	0,1	-0,102348
0,052500	0,1	-0,059363
0,054167	0,1	-0,053808
0,055833	0,1	-0,017189
0,057500	0,1	-0,082183
0,059167	0,1	-0,050300
0,060833	0,1	-0,063471
0,062500	0,1	-0,071203
0,064167	0,1	-0,063722
0,065833	0,1	-0,070054
0,067500	0,1	-0,068315
0,069167	0,1	-0,100944
0,070833	0,1	-0,060170
0,072500	0,1	-0,072222
0,074167	0,1	-0,053338
0,075833	0,1	-0,070130
0,077500	0,1	-0,095876
0,079167	0,1	-0,057219
0,080833	0,1	-0,049837
0,082500	0,1	-0,042799
0,084167	0,1	-0,069898
0,085833	0,1	-0,066682
0,087500	0,1	-0,030249
0,089167	0,1	-0,008240
0,090833	0,1	-0,035761
0,092500	0,1	-0,001545
0,094167	0,1	-0,035925
0,095833	0,1	-0,010421
0,097500	0,1	-0,038327
0,099167	0,1	-0,039755
0,100833	0,1	-0,041664
0,102500	0,1	-0,062003
0,104167	0,1	-0,054557
0,105833	0,1	-0,047025
0,107500	0,1	-0,076603
0,109167	0,1	-0,075601
0,110833	0,1	-0,065095
0,112500	0,1	-0,062069
0,114167	0,1	-0,091187
0,115833	0,1	-0,110950
0,117500	0,1	-0,107978
0,119167	0,1	-0,099580
0,120833	0,1	-0,092096
0,122500	0,1	-0,081683
0,124167	0,1	-0,101481
0,125833	0,1	-0,101136
0,127500	0,1	-0,104936
0,129167	0,1	-0,070493
0,130833	0,1	-0,066928
0,132500	0,1	-0,076028
0,134167	0,1	-0,102809
0,135833	0,1	-0,061409
0,137500	0,1	-0,079460
0,139167	0,1	-0,072824
0,140833	0,1	-0,065707
0,142500	0,1	-0,066804
0,144167	0,1	-0,059643
0,145833	0,1	-0,055443
0,147500	0,1	-0,055838
0,149167	0,1	-0,059045
0,150833	0,1	-0,051550
0,152500	0,1	-0,003966
0,154167	0,1	-0,028203
0,155833	0,1	-0,044883
0,157500	0,1	-0,017002
0,159167	0,1	-0,035060
0,160833	0,1	-0,088294
0,162500	0,1	-0,095376
0,164167	0,1	-0,040287
0,165833	0,1	-0,059603
0,167500	0,1	-0,027928
0,169167	0,1	-0,040194
0,170833	0,1	-0,076980
0,172500	0,1	-0,044070
0,174167	0,1	-0,052733
0,175833	0,1	-0,041560
0,177500	0,1	-0,035724
0,179167	0,1	-0,067193
0,180833	0,1	-0,050956
0,182500	0,1	-0,042016
0,184167	0,1	-0,080554
0,185833	0,1	-0,018338
0,187500	0,1	-0,054255
0,189167	0,1	-0,012472
0,190833	0,1	-0,041980
0,192500	0,1	-0,010957
0,194167	0,1	-0,038343
0,195833	0,1	-0,062385
0,197500	0,1	-0,084039
0,199167	0,1	-0,042270
0,200833	0,1	-0,025190
0,202500	0,1	-0,054011
0,204167	0,1	-0,018640
0,205833	0,1	-0,082015
0,207500	0,1	-0,083006
0,209167	0,1	-0,072746
0,210833	0,1	-0,046679
0,212500	0,1	-0,094235
0,214167	0,1	-0,053159
0,215833	0,1	-0,044751
0,217500	0,1	-0,045133
0,219167	0,1	-0,041331
0,220833	0,1	-0,063012
0,222500	0,1	-0,058344
0,224167	0,1	-0,051288
0,225833	0,1	-0,060035
0,227500	0,1	-0,065916
0,229167	0,1	-0,036555
0,230833	0,1	-0,092218
0,232500	0,1	-0,053984
0,234167	0,1	-0,020995
0,235833	0,1	-0,079497
0,237500	0,1	-0,050011
0,239167	0,1	-0,061897
0,240833	0,1	-0,020977
0,242500	0,1	-0,093007
0,244167	0,1	-0,047721
0,245833	0,1	-0,027388
0,247500	0,1	-0,032620
0,249167	0,1	-0,046547
0,250833	0,1	-0,029707
0,252500	0,1	-0,023904
0,254167	0,1	-0,045051
0,255833	0,1	-0,063805
0,257500	0,1	-0,048908
0,259167	0,1	-0,035464
0,260833	0,1	-0,044517
0,262500	0,1	-0,056492
0,264167	0,1	-0,031775
0,265833	0,1	-0,026286
0,267500	0,1	-0,043566
0,269167	0,1	-0,022133
0,270833	0,1	-0,038619
0,272500	0,1	-0,007836
0,274167	0,1	-0,047901
0,275833	0,1	-0,030824
0,277500	0,1	-0,039615
0,279167	0,1	-0,038184
0,280833	0,1	-0,062229
0,282500	0,1	-0,076131
0,284167	0,1	-0,009209
0,285833	0,1	-0,071982
0,287500	0,1	-0,037259
0,289167	0,1	-0,046168
0,290833	0,1	-0,051347
0,292500	0,1	-0,064006
0,294167	0,1	-0,012332
0,295833	0,1	-0,023469
0,297500	0,1	-0,041614
0,299167	0,1	-0,061985
0,300833	0,1	-0,045763
0,302500	0,1	-0,068874
0,304167	0,1	-0,043963
0,305833	0,1	-0,056047
0,307500	0,1	-0,068848
0,309167	0,1	-0,054909
0,310833	0,1	-0,045120
0,312500	0,1	-0,034960
0,314167	0,1	-0,053004
0,315833	0,1	-0,056417
0,317500	0,1	-0,005250
0,319167	0,1	-0,039090
0,320833	0,1	-0,052671
0,322500	0,1	-0,020441
0,324167	0,1	-0,042923
0,325833	0,1	-0,033554
0,327500	0,1	-0,036670
0,329167	0,1	-0,088032
0,330833	0,1	-0,062320
0,332500	0,1	-0,012886
0,334167	0,1	-0,017267
0,335833	0,1	-0,018631
0,337500	0,1	-0,030341
0,339167	0,1	-0,066136
0,340833	0,1	-0,002670
0,342500	0,1	-0,062494
0,344167	0,1	-0,057853
0,345833	0,1	-0,011955
0,347500	0,1	-0,046849
0,349167	0,1	-0,036366
0,350833	0,1	-0,034378
0,352500	0,1	-0,011765
0,354167	0,1	-0,055625
0,355833	0,1	-0,011585
0,357500	0,1	-0,031791
0,359167	0,1	-0,018036
0,360833	0,1	-0,039304
0,362500	0,1	-0,053251
0,364167	0,1	0,010038
0,365833	0,1	-0,042689
0,367500	0,1	-0,053454
0,369167	0,1	-0,015679
0,370833	0,1	-0,014475
0,372500	0,1	-0,043152
0,374167	0,1	-0,007795
0,375833	0,1	-0,043914
0,377500	0,1	-0,032333
0,379167	0,1	-0,095697
0,380833	0,1	0,015221
0,382500	0,1	-0,033602
0,384167	0,1	-0,053584
0,385833	0,1	-0,022135
0,387500	0,1	-0,014493
0,389167	0,1	-0,043747
0,390833	0,1	-0,028012
0,392500	0,1	-0,012343
0,394167	0,1	-0,025105
0,395833	0,1	-0,033964
0,397500	0,1	-0,023782
0,399167	0,1	-0,001665
0,400833	0,1	-0,018715
0,402500	0,1	-0,023270
0,404167	0,1	-0,033426
0,405833	0,1	-0,006342
0,407500	0,1	0,002476
0,409167	0,1	-0,038278
0,410833	0,1	-0,012968
0,412500	0,1	-0,011821
0,414167	0,1	-0,016686
0,415833	0,1	-0,024630
0,417500	0,1	0,013708
0,419167	0,1	-0,001306
0,420833	0,1	-0,015236
0,422500	0,1	-0,005784
0,424167	0,1	-0,015402
0,425833	0,1	-0,001251
0,427500	0,1	-0,001310
0,429167	0,1	-0,027983
0,430833	0,1	-0,015427
0,432500	0,1	-0,052938
0,434167	0,1	0,009626
0,435833	0,1	0,024868
0,437500	0,1	-0,005732
0,439167	0,1	-0,007909
0,440833	0,1	-0,051899
0,442500	0,1	-0,038810
0,444167	0,1	-0,034133
0,445833	0,1	-0,029062
0,447500	0,1	-0,044454
0,449167	0,1	-0,025401
0,450833	0,1	-0,032267
0,452500	0,1	-0,029308
0,454167	0,1	-0,059416
0,455833	0,1	-0,014916
0,457500	0,1	-0,040314
0,459167	0,1	-0,023794
0,460833	0,1	0,005328
0,462500	0,1	-0,023527
0,464167	0,1	-0,007130
0,465833	0,1	-0,018962
0,467500	0,1	0,002246
0,469167	0,1	0,006777
0,470833	0,1	-0,047759
0,472500	0,1	-0,035145
0,474167	0,1	-0,037673
0,475833	0,1	-0,009119
0,477500	0,1	0,011166
0,479167	0,1	-0,001368
0,480833	0,1	-0,060631
0,482500	0,1	0,001093
0,484167	0,1	0,007135
0,485833	0,1	0,001899
0,487500	0,1	-0,004717
0,489167	0,1	-0,016895
0,490833	0,1	-0,031044
0,492500	0,1	-0,037357
0,494167	0,1	0,008471
0,495833	0,1	0,006101
0,497500	0,1	0,010282
0,499167	0,1	-0,042520
0,500833	0,1	-0,008971
0,502500	0,1	-0,058269
0,504167	0,1	-0,032812
0,505833	0,1	0,027073
0,507500	0,1	0,001324
0,509167	0,1	-0,011675
0,510833	0,1	0,010295
0,512500	0,1	0,001654
0,514167	0,1	-0,028247
0,515833	0,1	-0,002554
0,517500	0,1	-0,020279
0,519167	0,1	-0,030264
0,520833	0,1	-0,021323
0,522500	0,1	-0,025519
0,524167	0,1	-0,016252
0,525833	0,1	-0,000031
0,527500	0,1	-0,029960
0,529167	0,1	0,003876
0,530833	0,1	-0,017324
0,532500	0,1	0,026082
0,534167	0,1	-0,014403
0,535833	0,1	0,016832
0,537500	0,1	0,018623
0,539167	0,1	-0,030025
0,540833	0,1	0,013542
0,542500	0,1	-0,027891
0,544167	0,1	0,002762
0,545833	0,1	-0,013495
0,547500	0,1	-0,015695
0,549167	0,1	-0,005389
0,550833	0,1	0,009243
0,552500	0,1	-0,033314
0,554167	0,1	-0,009759
0,555833	0,1	0,020973
0,557500	0,1	0,009994
0,559167	0,1	0,022425
0,560833	0,1	0,002360
0,562500	0,1	0,047069
0,564167	0,1	0,008200
0,565833	0,1	-0,019538
0,567500	0,1	-0,009960
0,569167	0,1	-0,033608
0,570833	0,1	-0,032023
0,572500	0,1	-0,005577
0,574167	0,1	0,032561
0,575833	0,1	0,014815
0,577500	0,1	-0,007762
0,579167	0,1	-0,004042
0,580833	0,1	-0,012652
0,582500	0,1	0,004961
0,584167	0,1	-0,029844
0,585833	0,1	-0,012431
0,587500	0,1	-0,015132
0,589167	0,1	0,008098
0,590833	0,1	-0,009979
0,592500	0,1	0,009592
0,594167	0,1	-0,003063
0,595833	0,1	-0,016852
0,597500	0,1	0,005515
0,599167	0,1	-0,005675
0,600833	0,1	-0,001952
0,602500	0,1	0,001855
0,604167	0,1	0,022900
0,605833	0,1	0,019636
0,607500	0,1	-0,037890
0,609167	0,1	-0,019734
0,610833	0,1	-0,032081
0,612500	0,1	0,008842
0,614167	0,1	-0,015522
0,615833	0,1	0,032788
0,617500	0,1	0,000334
0,619167	0,1	-0,006544
0,620833	0,1	0,020455
0,622500	0,1	0,020072
0,624167	0,1	0,004073
0,625833	0,1	0,040984
0,627500	0,1	0,010122
0,629167	0,1	-0,017779
0,630833	0,1	0,009195
0,632500	0,1	0,014851
0,634167	0,1	0,008878
0,635833	0,1	0,007051
0,637500	0,1	0,011126
0,639167	0,1	0,010961
0,640833	0,1	0,045603
0,642500	0,1	0,024378
0,644167	0,1	0,023917
0,645833	0,1	-0,011152
0,647500	0,1	0,057059
0,649167	0,1	0,037543
0,650833	0,1	-0,000183
0,652500	0,1	0,045288
0,654167	0,1	0,043996
0,655833	0,1	0,024896
0,657500	0,1	0,049476
0,659167	0,1	0,024421
0,660833	0,1	0,008441
0,662500	0,1	0,040553
0,664167	0,1	0,014324
0,665833	0,1	0,034158
0,667500	0,1	0,023591
0,669167	0,1	0,054130
0,670833	0,1	0,002720
0,672500	0,1	0,010175
0,674167	0,1	-0,021171
0,675833	0,1	0,003545
0,677500	0,1	-0,011244
0,679167	0,1	-0,006715
0,680833	0,1	0,019296
0,682500	0,1	0,006622
0,684167	0,1	0,016590
0,685833	0,1	0,023421
0,687500	0,1	0,029319
0,689167	0,1	0,005464
0,690833	0,1	0,002207
0,692500	0,1	0,070038
0,694167	0,1	0,022539
0,695833	0,1	0,009785
0,697500	0,1	0,059944
0,699167	0,1	0,031499
0,700833	0,1	0,032923
0,702500	0,1	0,026403
0,704167	0,1	0,038280
0,705833	0,1	0,058954
0,707500	0,1	0,032515
0,709167	0,1	0,034515
0,710833	0,1	0,038714
0,712500	0,1	0,024709
0,714167	0,1	0,031244
0,715833	0,1	0,071058
0,717500	0,1	0,037855
0,719167	0,1	0,054629
0,720833	0,1	0,062931
0,722500	0,1	0,053001
0,724167	0,1	0,091158
0,725833	0,1	0,022218
0,727500	0,1	0,068449
0,729167	0,1	0,076738
0,730833	0,1	0,079368
0,732500	0,1	0,040897
0,734167	0,1	0,067874
0,735833	0,1	0,085428
0,737500	0,1	0,106522
0,739167	0,1	0,070744
0,740833	0,1	0,077089
0,742500	0,1	0,074401
0,744167	0,1	0,061158
0,745833	0,1	0,061297
0,747500	0,1	0,083979
0,749167	0,1	0,088475
0,750833	0,1	0,072147
0,752500	0,1	0,051844
0,754167	0,1	0,059308
0,755833	0,1	0,098526
0,757500	0,1	0,085975
0,759167	0,1	0,079308
0,760833	0,1	0,069352
0,762500	0,1	0,085906
0,764167	0,1	0,098865
0,765833	0,1	0,099716
0,767500	0,1	0,091086
0,769167	0,1	0,109502
0,770833	0,1	0,118861
0,772500	0,1	0,110730
0,774167	0,1	0,146555
0,775833	0,1	0,078929
0,777500	0,1	0,130154
0,779167	0,1	0,107132
0,780833	0,1	0,112549
0,782500	0,1	0,101375
0,784167	0,1	0,117225
0,785833	0,1	0,095602
0,787500	0,1	0,081027
0,789167	0,1	0,104058
0,790833	0,1	0,092556
0,792500	0,1	0,107848
0,794167	0,1	0,102946
0,795833	0,1	0,107311
0,797500	0,1	0,065860
0,799167	0,1	0,108297
0,800833	0,1	0,095371
0,802500	0,1	0,073308
0,804167	0,1	0,097910
0,805833	0,1	0,106544
0,807500	0,1	0,091459
0,809167	0,1	0,144438
0,810833	0,1	0,106100
0,812500	0,1	0,084901
0,814167	0,1	0,116289
0,815833	0,1	0,066795
0,817500	0,1	0,051990
0,819167	0,1	0,109784
0,820833	0,1	0,117330
0,822500	0,1	0,075901
0,824167	0,1	0,058716
0,825833	0,1	0,075515
0,827500	0,1	0,093751
0,829167	0,1	0,077965
0,830833	0,1	0,061261
0,832500	0,1	0,075742
0,834167	0,1	0,070387
0,835833	0,1	0,110532
0,837500	0,1	0,060896
0,839167	0,1	0,080688
0,840833	0,1	0,065544
0,842500	0,1	0,061651
0,844167	0,1	0,089917
0,845833	0,1	0,081832
0,847500	0,1	0,077962
0,849167	0,1	0,058013
0,850833	0,1	0,106804
0,852500	0,1	0,095950
0,854167	0,1	0,065406
0,855833	0,1	0,083856
0,857500	0,1	0,052963
0,859167	0,1	0,047867
0,860833	0,1	0,047139
0,862500	0,1	0,062310
0,864167	0,1	0,038574
0,865833	0,1	0,056512
0,867500	0,1	0,091137
0,869167	0,1	0,066417
0,870833	0,1	-0,011520
0,872500	0,1	0,091929
0,874167	0,1	0,109545
0,875833	0,1	0,061476
0,877500	0,1	0,076674
0,879167	0,1	0,047126
0,880833	0,1	0,035678
0,882500	0,1	0,043020
0,884167	0,1	0,064460
0,885833	0,1	0,039610
0,887500	0,1	0,081510
0,889167	0,1	0,065089
0,890833	0,1	0,047167
0,892500	0,1	0,083251
0,894167	0,1	0,058014
0,895833	0,1	0,058668
0,897500	0,1	0,097575
0,899167	0,1	0,059486
0,900833	0,1	0,069782
0,902500	0,1	0,072951
0,904167	0,1	0,077028
0,905833	0,1	0,088722
0,907500	0,1	0,089387
0,909167	0,1	0,043880
0,910833	0,1	0,104358
0,912500	0,1	0,073828
0,914167	0,1	0,145966
0,915833	0,1	0,086606
0,917500	0,1	0,075273
0,919167	0,1	0,073926
0,920833	0,1	0,073055
0,922500	0,1	0,134810
0,924167	0,1	0,060716
0,925833	0,1	0,081825
0,927500	0,1	0,094351
0,929167	0,1	0,120265
0,930833	0,1	0,107606
0,932500	0,1	0,083513
0,934167	0,1	0,129575
0,935833	0,1	0,077745
0,937500	0,1	0,089466
0,939167	0,1	0,117098
0,940833	0,1	0,114166
0,942500	0,1	0,053964
0,944167	0,1	0,113758
0,945833	0,1	0,114083
0,947500	0,1	0,087986
0,949167	0,1	0,142346
0,950833	0,1	0,123485
0,952500	0,1	0,092334
0,954167	0,1	0,087960
0,955833	0,1	0,150069
0,957500	0,1	0,124190
0,959167	0,1	0,129399
0,960833	0,1	0,094942
0,962500	0,1	0,096610
0,964167	0,1	0,103584
0,965833	0,1	0,154086
0,967500	0,1	0,111111
0,969167	0,1	0,179465
0,970833	0,1	0,151102
0,972500	0,1	0,142073
0,974167	0,1	0,126217
0,975833	0,1	0,119611
0,977500	0,1	0,162387
0,979167	0,1	0,122435
0,980833	0,1	0,127496
0,982500	0,1	0,140225
0,984167	0,1	0,157656
0,985833	0,1	0,153624
0,987500	0,1	0,175626
0,989167	0,1	0,156277
0,990833	0,1	0,153418
0,992500	0,1	0,193593
0,994167	0,1	0,151689
0,995833	0,1	0,180860
0,997500	0,1	0,207363
0,999167	0,1	0,167255
1,000833	0,1	0,198768
1,002500	0,1	0,176341
1,004167	0,1	0,217129
1,005833	0,1	0,197105
1,007500	0,1	0,227527
1,009167	0,1	0,228905
1,010833	0,1	0,186698
1,012500	0,1	0,231359
1,014167	0,1	0,272130
1,015833	0,1	0,259632
1,017500	0,1	0,277271
1,019167	0,1	0,281831
1,020833	0,1	0,279556
1,022500	0,1	0,318291
1,024167	0,1	0,300907
1,025833	0,1	0,321859
1,027500	0,1	0,305365
1,029167	0,1	0,361567
1,030833	0,1	0,318689
1,032500	0,1	0,346607
1,034167	0,1	0,382726
1,035833	0,1	0,385012
1,037500	0,1	0,383694
1,039167	0,1	0,404689
1,040833	0,1	0,412327
1,042500	0,1	0,369062
1,044167	0,1	0,386385
1,045833	0,1	0,414925
1,047500	0,1	0,409317
1,049167	0,1	0,430410
1,050833	0,1	0,443376
1,052500	0,1	0,478568
1,054167	0,1	0,504712
1,055833	0,1	0,517980
1,057500	0,1	0,579444
1,059167	0,1	0,661805
1,060833	0,1	0,715947
1,062500	0,1	0,868315
1,064167	0,1	0,983144
1,065833	0,1	1,190285
1,067500	0,1	1,396634
1,069167	0,1	1,715725
1,070833	0,1	2,090668
1,072500	0,1	2,561284
1,074167	0,1	3,142750
1,075833	0,1	3,784935
1,077500	0,1	4,578830
1,079167	0,1	5,512536
1,080833	0,1	6,586643
1,082500	0,1	7,779971
1,084167	0,1	9,198251
1,085833	0,1	10,641330
1,087500	0,1	12,286087
1,089167	0,1	14,031568
1,090833	0,1	15,802657
1,092500	0,1	17,711741
1,094167	0,1	19,619837
1,095833	0,1	21,540122
1,097500	0,1	23,465002
1,099167	0,1	25,381544
1,100833	0,1	27,135355
1,102500	0,1	28,844491
1,104167	0,1	30,425367
1,105833	0,1	31,828020
1,107500	0,1	33,123329
1,109167	0,1	34,246026
1,110833	0,1	35,179576
1,112500	0,1	35,951892
1,114167	0,1	36,610316
1,115833	0,1	37,053116
1,117500	0,1	37,431987
1,119167	0,1	37,662400
1,120833	0,1	37,837357
1,122500	0,1	37,850935
1,124167	0,1	37,844650
1,125833	0,1	37,826444
1,127500	0,1	37,780472
1,129167	0,1	37,699565
1,130833	0,1	37,553351
1,132500	0,1	37,506469
1,134167	0,1	37,450979
1,135833	0,1	37,513425
1,137500	0,1	37,550727
1,139167	0,1	37,681549
1,140833	0,1	37,873783
1,142500	0,1	38,165298
1,144167	0,1	38,618873
1,145833	0,1	39,058369
1,147500	0,1	39,621924
1,149167	0,1	40,354051
1,150833	0,1	41,148043
1,152500	0,1	42,059670
1,154167	0,1	43,077984
1,155833	0,1	44,141961
1,157500	0,1	45,346502
1,159167	0,1	46,571863
1,160833	0,1	47,880291
1,162500	0,1	49,243688
1,164167	0,1	50,671542
1,165833	0,1	52,054495
1,167500	0,1	53,454992
1,169167	0,1	54,857197
1,170833	0,1	56,191208
1,172500	0,1	57,565696
1,174167	0,1	58,772763
1,175833	0,1	59,987358
1,177500	0,1	61,057900
1,179167	0,1	62,151749
1,180833	0,1	63,056775
1,182500	0,1	63,833748
1,184167	0,1	64,596338
1,185833	0,1	65,183392
1,187500	0,1	65,722150
1,189167	0,1	66,217287
1,190833	0,1	66,566650
1,192500	0,1	66,901350
1,194167	0,1	67,103381
1,195833	0,1	67,397723
1,197500	0,1	67,646565
1,199167	0,1	67,881194
1,200833	0,1	68,198419
1,202500	0,1	68,573887
1,204167	0,1	69,028817
1,205833	0,1	69,622511
1,207500	0,1	70,336811
1,209167	0,1	71,168053
1,210833	0,1	72,255517
1,212500	0,1	73,467863
1,214167	0,1	74,911780
1,215833	0,1	76,463127
1,217500	0,1	78,264151
1,219167	0,1	80,272298
1,220833	0,1	82,382722
1,222500	0,1	84,671368
1,224167	0,1	87,021913
1,225833	0,1	89,473734
1,227500	0,1	91,967017
1,229167	0,1	94,538288
1,230833	0,1	97,066305
1,232500	0,1	99,534540
1,234167	0,1	101,960951
1,235833	0,1	104,289361
1,237500	0,1	106,456048
1,239167	0,1	108,550052
1,240833	0,1	110,424738
1,242500	0,1	112,087393
1,244167	0,1	113,577251
1,245833	0,1	114,918502
1,247500	0,1	115,949711
1,249167	0,1	116,832862
1,250833	0,1	117,438778
1,252500	0,1	117,804839
1,254167	0,1	117,952986
1,255833	0,1	117,880804
1,257500	0,1	117,606652
1,259167	0,1	117,084038
1,260833	0,1	116,394254
1,262500	0,1	115,410124
1,264167	0,1	114,317698
1,265833	0,1	112,972033
1,267500	0,1	111,510926
1,269167	0,1	109,841562
1,270833	0,1	107,993645
1,272500	0,1	106,099178
1,274167	0,1	104,004088
1,275833	0,1	101,839888
1,277500	0,1	99,555603
1,279167	0,1	97,272146
1,280833	0,1	94,778013
1,282500	0,1	92,326877
1,284167	0,1	89,794611
1,285833	0,1	87,339284
1,287500	0,1	84,779129
1,289167	0,1	82,230926
1,290833	0,1	79,698455
1,292500	0,1	77,187898
1,294167	0,1	74,683331
1,295833	0,1	72,288575
1,297500	0,1	69,880304
1,299167	0,1	67,622685
1,300833	0,1	65,259775
1,302500	0,1	63,059260
1,304167	0,1	60,948445
1,305833	0,1	58,851371
1,307500	0,1	56,844077
1,309167	0,1	54,958539
1,310833	0,1	53,048828
1,312500	0,1	51,282642
1,314167	0,1	49,597543
1,315833	0,1	47,897060
1,317500	0,1	46,297759
1,319167	0,1	44,828280
1,320833	0,1	43,346728
1,322500	0,1	41,941789
1,324167	0,1	40,594868
1,325833	0,1	39,308475
1,327500	0,1	38,077138
1,329167	0,1	36,878873
1,330833	0,1	35,742853
1,332500	0,1	34,633659
1,334167	0,1	33,602083
1,335833	0,1	32,563404
1,337500	0,1	31,603283
1,339167	0,1	30,655833
1,340833	0,1	29,752514
1,342500	0,1	28,897814
1,344167	0,1	28,046597
1,345833	0,1	27,240281
1,347500	0,1	26,487290
1,349167	0,1	25,732859
1,350833	0,1	25,030192
1,352500	0,1	24,297838
1,354167	0,1	23,627162
1,355833	0,1	22,994901
1,357500	0,1	22,340632
1,359167	0,1	21,736998
1,360833	0,1	21,153435
1,362500	0,1	20,592747
1,364167	0,1	20,066115
1,365833	0,1	19,546074
1,367500	0,1	19,006347
1,369167	0,1	18,452912
1,370833	0,1	18,039528
1,372500	0,1	17,534641
1,374167	0,1	17,125891
1,375833	0,1	16,697245
1,377500	0,1	16,266506
1,379167	0,1	15,826209
1,380833	0,1	15,451752
1,382500	0,1	15,103526
1,384167	0,1	14,682601
1,385833	0,1	14,328670
1,387500	0,1	13,990824
1,389167	0,1	13,658677
1,390833	0,1	13,385109
1,392500	0,1	13,058255
1,394167	0,1	12,795822
1,395833	0,1	12,509565
1,397500	0,1	12,269884
1,399167	0,1	11,986214
1,400833	0,1	11,702718
1,402500	0,1	11,481516
1,404167	0,1	11,274558
1,405833	0,1	11,069837
1,407500	0,1	10,825591
1,409167	0,1	10,616470
1,410833	0,1	10,475464
1,412500	0,1	10,296308
1,414167	0,1	10,111900
1,415833	0,1	9,916934
1,417500	0,1	9,729950
1,419167	0,1	9,634634
1,420833	0,1	9,500776
1,422500	0,1	9,295253
1,424167	0,1	9,192411
1,425833	0,1	9,013199
1,427500	0,1	8,893844
1,429167	0,1	8,787971
1,430833	0,1	8,670783
1,432500	0,1	8,559864
1,434167	0,1	8,413554
1,435833	0,1	8,295485
1,437500	0,1	8,188054
1,439167	0,1	8,138865
1,440833	0,1	7,981162
1,442500	0,1	7,859905
1,444167	0,1	7,793882
1,445833	0,1	7,692770
1,447500	0,1	7,615992
1,449167	0,1	7,506063
1,450833	0,1	7,425495
1,452500	0,1	7,325184
1,454167	0,1	7,259188
1,455833	0,1	7,150266
1,457500	0,1	7,074613
1,459167	0,1	6,996183
1,460833	0,1	6,919442
1,462500	0,1	6,837218
1,464167	0,1	6,837389
1,465833	0,1	6,767860
1,467500	0,1	6,685588
1,469167	0,1	6,640446
1,470833	0,1	6,567015
1,472500	0,1	6,517056
1,474167	0,1	6,479091
1,475833	0,1	6,422246
1,477500	0,1	6,401151
1,479167	0,1	6,364597
1,480833	0,1	6,339115
1,482500	0,1	6,320326
1,484167	0,1	6,278480
1,485833	0,1	6,294639
1,487500	0,1	6,238387
1,489167	0,1	6,259334
1,490833	0,1	6,282831
1,492500	0,1	6,293159
1,494167	0,1	6,247253
1,495833	0,1	6,306255
1,497500	0,1	6,268244
1,499167	0,1	6,295095
1,500833	0,1	6,311932
1,502500	0,1	6,357404
1,504167	0,1	6,341795
1,505833	0,1	6,361137
1,507500	0,1	6,336939
1,509167	0,1	6,389664
1,510833	0,1	6,372384
1,512500	0,1	6,471164
1,514167	0,1	6,447741
1,515833	0,1	6,438053
1,517500	0,1	6,412381
1,519167	0,1	6,459926
1,520833	0,1	6,464566
1,522500	0,1	6,483538
1,524167	0,1	6,484020
1,525833	0,1	6,526984
1,527500	0,1	6,500119
1,529167	0,1	6,517510
1,530833	0,1	6,531557
1,532500	0,1	6,511269
1,534167	0,1	6,510160
1,535833	0,1	6,470619
1,537500	0,1	6,481026
1,539167	0,1	6,480106
1,540833	0,1	6,448756
1,542500	0,1	6,436932
1,544167	0,1	6,409506
1,545833	0,1	6,401148
1,547500	0,1	6,378085
1,549167	0,1	6,350543
1,550833	0,1	6,304238
1,552500	0,1	6,294184
1,554167	0,1	6,291870
1,555833	0,1	6,274671
1,557500	0,1	6,233942
1,559167	0,1	6,198414
1,560833	0,1	6,161244
1,562500	0,1	6,120430
1,564167	0,1	6,081112
1,565833	0,1	6,084102
1,567500	0,1	6,013861
1,569167	0,1	5,963739
1,570833	0,1	5,958613
1,572500	0,1	5,965694
1,574167	0,1	5,866285
1,575833	0,1	5,832476
1,577500	0,1	5,804708
1,579167	0,1	5,718518
1,580833	0,1	5,719778
1,582500	0,1	5,691244
1,584167	0,1	5,663902
1,585833	0,1	5,598096
1,587500	0,1	5,543116
1,589167	0,1	5,496919
1,590833	0,1	5,463476
1,592500	0,1	5,439265
1,594167	0,1	5,400094
1,595833	0,1	5,385396
1,597500	0,1	5,311119
1,599167	0,1	5,273838
1,600833	0,1	5,197764
1,602500	0,1	5,278437
1,604167	0,1	5,192374
1,605833	0,1	5,099965
1,607500	0,1	5,125366
1,609167	0,1	5,050515
1,610833	0,1	5,007727
1,612500	0,1	4,961849
1,614167	0,1	4,923793
1,615833	0,1	4,888557
1,617500	0,1	4,837772
1,619167	0,1	4,777044
1,620833	0,1	4,797403
1,622500	0,1	4,760347
1,624167	0,1	4,680302
1,625833	0,1	4,738438
1,627500	0,1	4,624307
1,629167	0,1	4,580766
1,630833	0,1	4,589065
1,632500	0,1	4,536483
1,634167	0,1	4,484257
1,635833	0,1	4,481692
1,637500	0,1	4,434794
1,639167	0,1	4,398779
1,640833	0,1	4,374192
1,642500	0,1	4,333087
1,644167	0,1	4,348544
1,645833	0,1	4,319476
1,647500	0,1	4,232267
1,649167	0,1	4,247710
1,650833	0,1	4,235286
1,652500	0,1	4,226300
1,654167	0,1	4,208522
1,655833	0,1	4,194762
1,657500	0,1	4,162819
1,659167	0,1	4,172691
1,660833	0,1	4,139014
1,662500	0,1	4,132690
1,664167	0,1	4,129653
1,665833	0,1	4,116950
1,667500	0,1	4,157539
1,669167	0,1	4,188675
1,670833	0,1	4,141855
1,672500	0,1	4,200779
1,674167	0,1	4,219691
1,675833	0,1	4,229611
1,677500	0,1	4,290137
1,679167	0,1	4,265010
1,680833	0,1	4,326339
1,682500	0,1	4,359961
1,684167	0,1	4,402609
1,685833	0,1	4,501599
1,687500	0,1	4,535889
1,689167	0,1	4,522014
1,690833	0,1	4,641230
1,692500	0,1	4,671739
1,694167	0,1	4,728769
1,695833	0,1	4,814005
1,697500	0,1	4,888549
1,699167	0,1	4,946333
1,700833	0,1	5,060146
1,702500	0,1	5,101232
1,704167	0,1	5,169217
1,705833	0,1	5,253199
1,707500	0,1	5,333584
1,709167	0,1	5,448890
1,710833	0,1	5,485094
1,712500	0,1	5,598789
1,714167	0,1	5,643196
1,715833	0,1	5,708102
1,717500	0,1	5,779241
1,719167	0,1	5,842469
1,720833	0,1	5,954627
1,722500	0,1	5,983322
1,724167	0,1	6,024596
1,725833	0,1	6,133407
1,727500	0,1	6,129441
1,729167	0,1	6,195099
1,730833	0,1	6,219773
1,732500	0,1	6,262391
1,734167	0,1	6,336587
1,735833	0,1	6,375365
1,737500	0,1	6,371829
1,739167	0,1	6,401420
1,740833	0,1	6,392263
1,742500	0,1	6,402687
1,744167	0,1	6,360030
1,745833	0,1	6,465483
1,747500	0,1	6,427190
1,749167	0,1	6,385690
1,750833	0,1	6,410968
1,752500	0,1	6,397344
1,754167	0,1	6,375289
1,755833	0,1	6,354468
1,757500	0,1	6,334455
1,759167	0,1	6,317923
1,760833	0,1	6,268987
1,762500	0,1	6,228746
1,764167	0,1	6,209206
1,765833	0,1	6,113746
1,767500	0,1	6,119501
1,769167	0,1	6,071296
1,770833	0,1	5,994776
1,772500	0,1	5,968407
1,774167	0,1	5,888234
1,775833	0,1	5,845658
1,777500	0,1	5,768224
1,779167	0,1	5,720782
1,780833	0,1	5,655375
1,782500	0,1	5,586443
1,784167	0,1	5,481660
1,785833	0,1	5,478176
1,787500	0,1	5,415888
1,789167	0,1	5,320354
1,790833	0,1	5,301221
1,792500	0,1	5,174826
1,794167	0,1	5,137038
1,795833	0,1	5,010792
1,797500	0,1	4,961849
1,799167	0,1	4,875411
1,800833	0,1	4,828922
1,802500	0,1	4,718019
1,804167	0,1	4,704813
1,805833	0,1	4,620820
1,807500	0,1	4,568525
1,809167	0,1	4,490908
1,810833	0,1	4,423656
1,812500	0,1	4,332046
1,814167	0,1	4,273118
1,815833	0,1	4,210155
1,817500	0,1	4,128750
1,819167	0,1	4,068708
1,820833	0,1	4,004081
1,822500	0,1	3,972360
1,824167	0,1	3,872398
1,825833	0,1	3,804874
1,827500	0,1	3,773829
1,829167	0,1	3,708068
1,830833	0,1	3,625256
1,832500	0,1	3,582786
1,834167	0,1	3,531352
1,835833	0,1	3,442521
1,837500	0,1	3,459417
1,839167	0,1	3,437286
1,840833	0,1	3,392149
1,842500	0,1	3,341470
1,844167	0,1	3,315318
1,845833	0,1	3,357511
1,847500	0,1	3,311103
1,849167	0,1	3,339435
1,850833	0,1	3,314635
1,852500	0,1	3,318224
1,854167	0,1	3,339039
1,855833	0,1	3,387710
1,857500	0,1	3,390024
1,859167	0,1	3,402767
1,860833	0,1	3,413014
1,862500	0,1	3,510466
1,864167	0,1	3,497866
1,865833	0,1	3,574217
1,867500	0,1	3,589059
1,869167	0,1	3,608620
1,870833	0,1	3,676588
1,872500	0,1	3,714331
1,874167	0,1	3,732275
1,875833	0,1	3,776117
1,877500	0,1	3,802498
1,879167	0,1	3,827297
1,880833	0,1	3,878204
1,882500	0,1	3,921466
1,884167	0,1	3,930111
1,885833	0,1	3,963219
1,887500	0,1	3,975890
1,889167	0,1	4,006350
1,890833	0,1	4,011345
1,892500	0,1	4,012435
1,894167	0,1	4,028417
1,895833	0,1	4,091799
1,897500	0,1	4,086828
1,899167	0,1	4,130255
1,900833	0,1	4,141963
1,902500	0,1	4,161184
1,904167	0,1	4,161115
1,905833	0,1	4,201988
1,907500	0,1	4,176987
1,909167	0,1	4,198469
1,910833	0,1	4,251547
1,912500	0,1	4,211886
1,914167	0,1	4,244100
1,915833	0,1	4,289006
1,917500	0,1	4,262255
1,919167	0,1	4,252697
1,920833	0,1	4,284675
1,922500	0,1	4,271524
1,924167	0,1	4,261764
1,925833	0,1	4,267269
1,927500	0,1	4,278607
1,929167	0,1	4,291240
1,930833	0,1	4,256711
1,932500	0,1	4,263100
1,934167	0,1	4,259450
1,935833	0,1	4,262573
1,937500	0,1	4,249250
1,939167	0,1	4,266011
1,940833	0,1	4,212824
1,942500	0,1	4,207102
1,944167	0,1	4,246811
1,945833	0,1	4,230713
1,947500	0,1	4,236212
1,949167	0,1	4,194401
1,950833	0,1	4,175405
1,952500	0,1	4,170912
1,954167	0,1	4,163788
1,955833	0,1	4,134673
1,957500	0,1	4,176971
1,959167	0,1	4,153028
1,960833	0,1	4,155685
1,962500	0,1	4,112991
1,964167	0,1	4,126696
1,965833	0,1	4,118369
1,967500	0,1	4,114243
1,969167	0,1	4,085130
1,970833	0,1	4,092405
1,972500	0,1	4,113623
1,974167	0,1	4,087606
1,975833	0,1	4,106500
1,977500	0,1	4,062673
1,979167	0,1	4,057925
1,980833	0,1	4,087504
1,982500	0,1	4,086907
1,984167	0,1	4,075501
1,985833	0,1	4,063881
1,987500	0,1	4,078723
1,989167	0,1	4,060598
1,990833	0,1	4,057367
1,992500	0,1	4,105731
1,994167	0,1	4,115694
1,995833	0,1	4,053565
1,997500	0,1	4,072894
1,999167	0,1	4,126001
2,000833	0,1	4,095530
2,002500	0,1	4,114751
2,004167	0,1	4,125852
2,005833	0,1	4,132207
2,007500	0,1	4,126815
2,009167	0,1	4,185911
2,010833	0,1	4,171678
2,012500	0,1	4,156453
2,014167	0,1	4,186566
2,015833	0,1	4,209606
2,017500	0,1	4,195485
2,019167	0,1	4,244502
2,020833	0,1	4,267383
2,022500	0,1	4,293264
2,024167	0,1	4,312822
2,025833	0,1	4,316351
2,027500	0,1	4,312384
2,029167	0,1	4,318494
2,030833	0,1	4,396365
2,032500	0,1	4,396626
2,034167	0,1	4,419464
2,035833	0,1	4,442880
2,037500	0,1	4,411137
2,039167	0,1	4,454825
2,040833	0,1	4,550628
2,042500	0,1	4,522705
2,044167	0,1	4,569366
2,045833	0,1	4,575375
2,047500	0,1	4,630997
2,049167	0,1	4,687616
2,050833	0,1	4,650273
2,052500	0,1	4,709100
2,054167	0,1	4,744142
2,055833	0,1	4,723433
2,057500	0,1	4,766792
2,059167	0,1	4,787273
2,060833	0,1	4,826390
2,062500	0,1	4,855304
2,064167	0,1	4,858555
2,065833	0,1	4,884551
2,067500	0,1	4,955448
2,069167	0,1	5,019758
2,070833	0,1	4,959026
2,072500	0,1	5,002146
2,074167	0,1	5,065411
2,075833	0,1	5,056029
2,077500	0,1	5,103906
2,079167	0,1	5,120485
2,080833	0,1	5,125142
2,082500	0,1	5,164425
2,084167	0,1	5,229317
2,085833	0,1	5,224424
2,087500	0,1	5,254570
2,089167	0,1	5,256326
2,090833	0,1	5,285485
2,092500	0,1	5,300228
2,094167	0,1	5,295569
2,095833	0,1	5,332381
2,097500	0,1	5,386885
2,099167	0,1	5,385880
2,100833	0,1	5,407960
2,102500	0,1	5,454948
2,104167	0,1	5,420917
2,105833	0,1	5,454216
2,107500	0,1	5,488970
2,109167	0,1	5,458596
2,110833	0,1	5,488258
2,112500	0,1	5,534518
2,114167	0,1	5,530736
2,115833	0,1	5,531884
2,117500	0,1	5,550028
2,119167	0,1	5,585161
2,120833	0,1	5,572241
2,122500	0,1	5,545037
2,124167	0,1	5,586396
2,125833	0,1	5,592185
2,127500	0,1	5,619823
2,129167	0,1	5,590095
2,130833	0,1	5,618243
2,132500	0,1	5,610712
2,134167	0,1	5,640403
2,135833	0,1	5,625619
2,137500	0,1	5,627411
2,139167	0,1	5,669629
2,140833	0,1	5,635653
2,142500	0,1	5,637919
2,144167	0,1	5,653969
2,145833	0,1	5,657527
2,147500	0,1	5,628198
2,149167	0,1	5,669195
2,150833	0,1	5,663376
2,152500	0,1	5,657571
2,154167	0,1	5,671129
2,155833	0,1	5,673210
2,157500	0,1	5,631734
2,159167	0,1	5,645889
2,160833	0,1	5,670888
2,162500	0,1	5,653674
2,164167	0,1	5,636775
2,165833	0,1	5,665819
2,167500	0,1	5,669378
2,169167	0,1	5,581920
2,170833	0,1	5,635871
2,172500	0,1	5,636380
2,174167	0,1	5,633306
2,175833	0,1	5,620289
2,177500	0,1	5,595313
2,179167	0,1	5,629593
2,180833	0,1	5,578814
2,182500	0,1	5,532265
2,184167	0,1	5,574481
2,185833	0,1	5,585687
2,187500	0,1	5,556389
2,189167	0,1	5,571215
2,190833	0,1	5,563467
2,192500	0,1	5,535094
2,194167	0,1	5,580156
2,195833	0,1	5,534777
2,197500	0,1	5,534852
2,199167	0,1	5,527097
2,200833	0,1	5,524214
2,202500	0,1	5,509648
2,204167	0,1	5,478785
2,205833	0,1	5,519248
2,207500	0,1	5,517999
2,209167	0,1	5,489291
2,210833	0,1	5,479563
2,212500	0,1	5,494453
2,214167	0,1	5,522349
2,215833	0,1	5,528243
2,217500	0,1	5,532964
2,219167	0,1	5,557417
2,220833	0,1	5,534316
2,222500	0,1	5,524865
2,224167	0,1	5,542622
2,225833	0,1	5,557765
2,227500	0,1	5,572538
2,229167	0,1	5,586012
2,230833	0,1	5,618285
2,232500	0,1	5,605881
2,234167	0,1	5,644041
2,235833	0,1	5,664087
2,237500	0,1	5,640483
2,239167	0,1	5,675481
2,240833	0,1	5,712009
2,242500	0,1	5,686980
2,244167	0,1	5,752159
2,245833	0,1	5,802089
2,247500	0,1	5,780332
2,249167	0,1	5,812003
2,250833	0,1	5,812698
2,252500	0,1	5,841720
2,254167	0,1	5,863567
2,255833	0,1	5,832843
2,257500	0,1	5,897005
2,259167	0,1	5,928035
2,260833	0,1	5,921999
2,262500	0,1	5,892177
2,264167	0,1	5,960194
2,265833	0,1	5,889303
2,267500	0,1	5,952302
2,269167	0,1	5,938999
2,270833	0,1	5,938996
2,272500	0,1	5,999296
2,274167	0,1	6,019237
2,275833	0,1	5,945341
2,277500	0,1	5,981563
2,279167	0,1	5,970587
2,280833	0,1	5,966715
2,282500	0,1	5,911674
2,284167	0,1	5,964365
2,285833	0,1	5,932445
2,287500	0,1	5,942367
2,289167	0,1	5,913918
2,290833	0,1	5,931783
2,292500	0,1	5,884324
2,294167	0,1	5,870904
2,295833	0,1	5,917996
2,297500	0,1	5,871159
2,299167	0,1	5,873414
2,300833	0,1	5,838433
2,302500	0,1	5,832644
2,304167	0,1	5,829005
2,305833	0,1	5,794045
2,307500	0,1	5,766912
2,309167	0,1	5,732030
2,310833	0,1	5,698917
2,312500	0,1	5,662865
2,314167	0,1	5,692576
2,315833	0,1	5,640294
2,317500	0,1	5,647191
2,319167	0,1	5,605368
2,320833	0,1	5,603605
2,322500	0,1	5,556134
2,324167	0,1	5,516582
2,325833	0,1	5,524648
2,327500	0,1	5,484526
2,329167	0,1	5,460200
2,330833	0,1	5,426077
2,332500	0,1	5,421071
2,334167	0,1	5,363699
2,335833	0,1	5,367384
2,337500	0,1	5,324469
2,339167	0,1	5,329876
2,340833	0,1	5,274577
2,342500	0,1	5,250880
2,344167	0,1	5,210092
2,345833	0,1	5,188012
2,347500	0,1	5,143728
2,349167	0,1	5,084969
2,350833	0,1	5,122228
2,352500	0,1	5,061883
2,354167	0,1	5,033088
2,355833	0,1	5,048097
2,357500	0,1	4,988553
2,359167	0,1	4,979080
2,360833	0,1	4,884929
2,362500	0,1	4,896832
2,364167	0,1	4,877972
2,365833	0,1	4,840930
2,367500	0,1	4,809009
2,369167	0,1	4,819660
2,370833	0,1	4,732103
2,372500	0,1	4,736174
2,374167	0,1	4,710628
2,375833	0,1	4,663081
2,377500	0,1	4,696854
2,379167	0,1	4,664903
2,380833	0,1	4,624172
2,382500	0,1	4,586080
2,384167	0,1	4,579663
2,385833	0,1	4,542766
2,387500	0,1	4,508651
2,389167	0,1	4,502559
2,390833	0,1	4,474610
2,392500	0,1	4,478495
2,394167	0,1	4,451601
2,395833	0,1	4,434383
2,397500	0,1	4,424982
2,399167	0,1	4,412425
2,400833	0,1	4,397235
2,402500	0,1	4,393345
2,404167	0,1	4,363906
2,405833	0,1	4,347378
2,407500	0,1	4,327573
2,409167	0,1	4,331821
2,410833	0,1	4,285786
2,412500	0,1	4,312378
2,414167	0,1	4,254770
2,415833	0,1	4,236540
2,417500	0,1	4,280707
2,419167	0,1	4,270354
2,420833	0,1	4,240269
2,422500	0,1	4,255443
2,424167	0,1	4,209703
2,425833	0,1	4,211715
2,427500	0,1	4,196861
2,429167	0,1	4,216657
2,430833	0,1	4,171730
2,432500	0,1	4,190012
2,434167	0,1	4,162978
2,435833	0,1	4,132971
2,437500	0,1	4,152115
2,439167	0,1	4,160828
2,440833	0,1	4,126015
2,442500	0,1	4,107194
2,444167	0,1	4,143851
2,445833	0,1	4,130879
2,447500	0,1	4,125005
2,449167	0,1	4,098171
2,450833	0,1	4,072622
2,452500	0,1	4,061334
2,454167	0,1	4,072826
2,455833	0,1	4,055862
2,457500	0,1	4,085853
2,459167	0,1	4,048515
2,460833	0,1	4,075449
2,462500	0,1	3,996267
2,464167	0,1	4,008877
2,465833	0,1	3,995004
2,467500	0,1	3,985890
2,469167	0,1	3,986900
2,470833	0,1	3,974976
2,472500	0,1	3,941335
2,474167	0,1	3,962292
2,475833	0,1	3,956881
2,477500	0,1	3,950579
2,479167	0,1	3,927625
2,480833	0,1	3,941087
2,482500	0,1	3,941214
2,484167	0,1	3,923408
2,485833	0,1	3,922093
2,487500	0,1	3,861400
2,489167	0,1	3,886497
2,490833	0,1	3,832271
2,492500	0,1	3,862769
2,494167	0,1	3,853099
2,495833	0,1	3,822224
2,497500	0,1	3,854479
2,499167	0,1	3,831192
2,500833	0,1	3,822206
2,502500	0,1	3,796714
2,504167	0,1	3,791955
2,505833	0,1	3,796327
2,507500	0,1	3,760554
2,509167	0,1	3,759486
2,510833	0,1	3,767093
2,512500	0,1	3,744246
2,514167	0,1	3,780159
2,515833	0,1	3,750385
2,517500	0,1	3,756212
2,519167	0,1	3,754360
2,520833	0,1	3,765202
2,522500	0,1	3,758323
2,524167	0,1	3,741705
2,525833	0,1	3,747162
2,527500	0,1	3,732461
2,529167	0,1	3,723791
2,530833	0,1	3,751138
2,532500	0,1	3,780004
2,534167	0,1	3,752473
2,535833	0,1	3,756791
2,537500	0,1	3,769858
2,539167	0,1	3,734100
2,540833	0,1	3,731221
2,542500	0,1	3,728425
2,544167	0,1	3,720426
2,545833	0,1	3,745087
2,547500	0,1	3,733989
2,549167	0,1	3,760355
2,550833	0,1	3,747528
2,552500	0,1	3,746595
2,554167	0,1	3,770533
2,555833	0,1	3,729984
2,557500	0,1	3,774587
2,559167	0,1	3,741170
2,560833	0,1	3,778060
2,562500	0,1	3,752012
2,564167	0,1	3,774259
2,565833	0,1	3,760961
2,567500	0,1	3,741344
2,569167	0,1	3,722087
2,570833	0,1	3,804436
2,572500	0,1	3,779162
2,574167	0,1	3,717880
2,575833	0,1	3,759476
2,577500	0,1	3,748048
2,579167	0,1	3,759797
2,580833	0,1	3,771309
2,582500	0,1	3,710606
2,584167	0,1	3,741723
2,585833	0,1	3,741261
2,587500	0,1	3,690828
2,589167	0,1	3,681710
2,590833	0,1	3,743705
2,592500	0,1	3,722322
2,594167	0,1	3,720681
2,595833	0,1	3,698972
2,597500	0,1	3,667219
2,599167	0,1	3,673914
2,600833	0,1	3,657666
2,602500	0,1	3,636034
2,604167	0,1	3,616470
2,605833	0,1	3,613928
2,607500	0,1	3,573831
2,609167	0,1	3,574727
2,610833	0,1	3,539028
2,612500	0,1	3,563439
2,614167	0,1	3,564455
2,615833	0,1	3,536676
2,617500	0,1	3,558009
2,619167	0,1	3,502581
2,620833	0,1	3,493052
2,622500	0,1	3,484699
2,624167	0,1	3,433951
2,625833	0,1	3,431223
2,627500	0,1	3,412111
2,629167	0,1	3,383226
2,630833	0,1	3,331814
2,632500	0,1	3,367386
2,634167	0,1	3,332587
2,635833	0,1	3,307560
2,637500	0,1	3,320996
2,639167	0,1	3,261863
2,640833	0,1	3,245371
2,642500	0,1	3,218547
2,644167	0,1	3,233652
2,645833	0,1	3,209708
2,647500	0,1	3,135455
2,649167	0,1	3,131788
2,650833	0,1	3,172702
2,652500	0,1	3,142938
2,654167	0,1	3,101410
2,655833	0,1	3,078038
2,657500	0,1	3,048935
2,659167	0,1	3,020853
2,660833	0,1	2,991031
2,662500	0,1	2,986759
2,664167	0,1	2,968899
2,665833	0,1	2,966972
2,667500	0,1	2,952525
2,669167	0,1	2,864503
2,670833	0,1	2,878663
2,672500	0,1	2,872410
2,674167	0,1	2,837357
2,675833	0,1	2,833833
2,677500	0,1	2,819567
2,679167	0,1	2,774806
2,680833	0,1	2,783961
2,682500	0,1	2,725795
2,684167	0,1	2,728576
2,685833	0,1	2,757907
2,687500	0,1	2,667359
2,689167	0,1	2,686536
2,690833	0,1	2,651266
2,692500	0,1	2,650817
2,694167	0,1	2,644159
2,695833	0,1	2,624153
2,697500	0,1	2,571882
2,699167	0,1	2,576731
2,700833	0,1	2,572942
2,702500	0,1	2,527845
2,704167	0,1	2,545832
2,705833	0,1	2,478746
2,707500	0,1	2,517433
2,709167	0,1	2,462400
2,710833	0,1	2,450416
2,712500	0,1	2,474277
2,714167	0,1	2,438733
2,715833	0,1	2,376948
2,717500	0,1	2,396569
2,719167	0,1	2,355804
2,720833	0,1	2,371769
2,722500	0,1	2,341607
2,724167	0,1	2,314948
2,725833	0,1	2,339587
2,727500	0,1	2,331141
2,729167	0,1	2,323184
2,730833	0,1	2,321030
2,732500	0,1	2,299824
2,734167	0,1	2,282840
2,735833	0,1	2,271802
2,737500	0,1	2,246083
2,739167	0,1	2,239270
2,740833	0,1	2,238697
2,742500	0,1	2,221288
2,744167	0,1	2,238119
2,745833	0,1	2,217992
2,747500	0,1	2,204092
2,749167	0,1	2,220276
2,750833	0,1	2,156603
2,752500	0,1	2,179364
2,754167	0,1	2,182738
2,755833	0,1	2,168985
2,757500	0,1	2,162322
2,759167	0,1	2,150721
2,760833	0,1	2,142046
2,762500	0,1	2,121564
2,764167	0,1	2,151210
2,765833	0,1	2,144268
2,767500	0,1	2,110607
2,769167	0,1	2,093771
2,770833	0,1	2,128431
2,772500	0,1	2,091122
2,774167	0,1	2,122557
2,775833	0,1	2,091982
2,777500	0,1	2,073787
2,779167	0,1	2,096198
2,780833	0,1	2,069921
2,782500	0,1	2,061317
2,784167	0,1	2,079292
2,785833	0,1	2,072717
2,787500	0,1	2,036407
2,789167	0,1	2,068398
2,790833	0,1	2,046489
2,792500	0,1	2,045273
2,794167	0,1	2,031242
2,795833	0,1	2,022641
2,797500	0,1	1,998941
2,799167	0,1	1,979389
2,800833	0,1	1,999209
2,802500	0,1	1,990776
2,804167	0,1	1,987335
2,805833	0,1	1,998791
2,807500	0,1	1,996287
2,809167	0,1	1,991853
2,810833	0,1	1,994419
2,812500	0,1	1,970523
2,814167	0,1	2,014470
2,815833	0,1	1,974827
2,817500	0,1	1,994214
2,819167	0,1	1,963214
2,820833	0,1	1,942010
2,822500	0,1	1,981312
2,824167	0,1	1,962643
2,825833	0,1	1,953818
2,827500	0,1	1,921172
2,829167	0,1	1,910786
2,830833	0,1	1,919728
2,832500	0,1	1,938720
2,834167	0,1	1,944593
2,835833	0,1	1,913719
2,837500	0,1	1,923971
2,839167	0,1	1,930920
2,840833	0,1	1,958051
2,842500	0,1	1,895986
2,844167	0,1	1,889171
2,845833	0,1	1,921591
2,847500	0,1	1,904646
2,849167	0,1	1,935272
2,850833	0,1	1,869070
2,852500	0,1	1,865764
2,854167	0,1	1,870266
2,855833	0,1	1,837701
2,857500	0,1	1,836468
2,859167	0,1	1,828110
2,860833	0,1	1,872259
2,862500	0,1	1,851717
2,864167	0,1	1,861190
2,865833	0,1	1,807366
2,867500	0,1	1,831958
2,869167	0,1	1,826021
2,870833	0,1	1,828098
2,872500	0,1	1,781596
2,874167	0,1	1,798041
2,875833	0,1	1,785669
2,877500	0,1	1,800333
2,879167	0,1	1,812285
2,880833	0,1	1,777440
2,882500	0,1	1,795029
2,884167	0,1	1,754756
2,885833	0,1	1,795023
2,887500	0,1	1,754459
2,889167	0,1	1,709649
2,890833	0,1	1,757234
2,892500	0,1	1,729266
2,894167	0,1	1,731399
2,895833	0,1	1,734838
2,897500	0,1	1,721235
2,899167	0,1	1,699774
2,900833	0,1	1,702781
2,902500	0,1	1,683087
2,904167	0,1	1,706424
2,905833	0,1	1,676740
2,907500	0,1	1,706410
2,909167	0,1	1,653193
2,910833	0,1	1,681291
2,912500	0,1	1,661649
2,914167	0,1	1,672084
2,915833	0,1	1,654391
2,917500	0,1	1,682303
2,919167	0,1	1,642528
2,920833	0,1	1,662915
2,922500	0,1	1,668347
2,924167	0,1	1,648182
2,925833	0,1	1,666044
2,927500	0,1	1,625636
2,929167	0,1	1,653266
2,930833	0,1	1,648904
2,932500	0,1	1,615642
2,934167	0,1	1,593297
2,935833	0,1	1,635369
2,937500	0,1	1,598463
2,939167	0,1	1,592855
2,940833	0,1	1,574033
2,942500	0,1	1,591874
2,944167	0,1	1,596659
2,945833	0,1	1,582074
2,947500	0,1	1,568320
2,949167	0,1	1,553865
2,950833	0,1	1,575174
2,952500	0,1	1,579494
2,954167	0,1	1,561333
2,955833	0,1	1,550919
2,957500	0,1	1,536071
2,959167	0,1	1,591715
2,960833	0,1	1,534644
2,962500	0,1	1,526194
2,964167	0,1	1,563332
2,965833	0,1	1,516449
2,967500	0,1	1,534843
2,969167	0,1	1,540190
2,970833	0,1	1,504077
2,972500	0,1	1,538127
2,974167	0,1	1,526400
2,975833	0,1	1,516892
2,977500	0,1	1,484405
2,979167	0,1	1,511459
2,980833	0,1	1,533912
2,982500	0,1	1,521249
2,984167	0,1	1,508318
2,985833	0,1	1,507015
2,987500	0,1	1,503221
2,989167	0,1	1,518257
2,990833	0,1	1,505593
2,992500	0,1	1,500480
2,994167	0,1	1,499234
2,995833	0,1	1,496100
2,997500	0,1	1,489511
2,999167	0,1	1,488290
3,000833	0,1	1,489743
3,002500	0,1	1,462380
3,004167	0,1	1,524765
3,005833	0,1	1,479040
3,007500	0,1	1,450589
3,009167	0,1	1,504205
3,010833	0,1	1,488908
3,012500	0,1	1,488358
3,014167	0,1	1,474965
3,015833	0,1	1,473113
3,017500	0,1	1,489862
3,019167	0,1	1,476910
3,020833	0,1	1,469034
3,022500	0,1	1,484372
3,024167	0,1	1,464446
3,025833	0,1	1,494857
3,027500	0,1	1,481318
3,029167	0,1	1,435706
3,030833	0,1	1,458287
3,032500	0,1	1,488556
3,034167	0,1	1,524622
3,035833	0,1	1,397460
3,037500	0,1	1,462307
3,039167	0,1	1,488982
3,040833	0,1	1,490630
3,042500	0,1	1,475405
3,044167	0,1	1,458515
3,045833	0,1	1,457173
3,047500	0,1	1,430280
3,049167	0,1	1,481895
3,050833	0,1	1,484716
3,052500	0,1	1,470187
3,054167	0,1	1,442918
3,055833	0,1	1,485909
3,057500	0,1	1,449644
3,059167	0,1	1,431769
3,060833	0,1	1,436913
3,062500	0,1	1,428312
3,064167	0,1	1,437048
3,065833	0,1	1,447786
3,067500	0,1	1,440761
3,069167	0,1	1,473817
3,070833	0,1	1,435636
3,072500	0,1	1,424194
3,074167	0,1	1,471746
3,075833	0,1	1,472046
3,077500	0,1	1,438550
3,079167	0,1	1,486786
3,080833	0,1	1,462213
3,082500	0,1	1,495636
3,084167	0,1	1,445649
3,085833	0,1	1,458525
3,087500	0,1	1,488048
3,089167	0,1	1,466023
3,090833	0,1	1,450215
3,092500	0,1	1,485322
3,094167	0,1	1,517171
3,095833	0,1	1,467484
3,097500	0,1	1,474028
3,099167	0,1	1,501760
3,100833	0,1	1,464300
3,102500	0,1	1,493169
3,104167	0,1	1,492207
3,105833	0,1	1,524237
3,107500	0,1	1,519111
3,109167	0,1	1,543856
3,110833	0,1	1,546067
3,112500	0,1	1,535071
3,114167	0,1	1,526974
3,115833	0,1	1,571594
3,117500	0,1	1,556524
3,119167	0,1	1,606813
3,120833	0,1	1,606456
3,122500	0,1	1,643742
3,124167	0,1	1,624987
3,125833	0,1	1,624063
3,127500	0,1	1,651666
3,129167	0,1	1,670335
3,130833	0,1	1,653529
3,132500	0,1	1,666403
3,134167	0,1	1,695611
3,135833	0,1	1,731977
3,137500	0,1	1,762242
3,139167	0,1	1,724254
3,140833	0,1	1,751491
3,142500	0,1	1,764090
3,144167	0,1	1,790510
3,145833	0,1	1,813703
3,147500	0,1	1,835243
3,149167	0,1	1,823748
3,150833	0,1	1,817576
3,152500	0,1	1,834756
3,154167	0,1	1,877050
3,155833	0,1	1,891177
3,157500	0,1	1,929904
3,159167	0,1	1,934844
3,160833	0,1	1,918809
3,162500	0,1	1,940570
3,164167	0,1	1,962334
3,165833	0,1	1,957899
3,167500	0,1	1,953829
3,169167	0,1	1,981593
3,170833	0,1	1,991909
3,172500	0,1	2,031295
3,174167	0,1	2,035462
3,175833	0,1	2,067756
3,177500	0,1	2,030462
3,179167	0,1	2,004950
3,180833	0,1	2,036021
3,182500	0,1	2,076564
3,184167	0,1	2,085089
3,185833	0,1	2,091973
3,187500	0,1	2,058894
3,189167	0,1	2,086166
3,190833	0,1	2,093049
3,192500	0,1	2,076722
3,194167	0,1	2,066836
3,195833	0,1	2,117176
3,197500	0,1	2,081095
3,199167	0,1	2,110811
3,200833	0,1	2,113752
3,202500	0,1	2,099568
3,204167	0,1	2,083095
3,205833	0,1	2,104072
3,207500	0,1	2,071070
3,209167	0,1	2,103425
3,210833	0,1	2,082447
3,212500	0,1	2,113817
3,214167	0,1	2,036406
3,215833	0,1	2,084794
3,217500	0,1	2,066406
3,219167	0,1	2,101135
3,220833	0,1	2,098776
3,222500	0,1	2,007906
3,224167	0,1	2,045623
3,225833	0,1	2,086590
3,227500	0,1	2,037909
3,229167	0,1	2,005167
3,230833	0,1	2,012257
3,232500	0,1	2,040895
3,234167	0,1	2,022576
3,235833	0,1	2,000300
3,237500	0,1	1,982329
3,239167	0,1	1,983114
3,240833	0,1	1,980537
3,242500	0,1	1,986406
3,244167	0,1	1,951755
3,245833	0,1	1,943722
3,247500	0,1	1,931772
3,249167	0,1	1,897338
3,250833	0,1	1,939632
3,252500	0,1	1,874289
3,254167	0,1	1,897758
3,255833	0,1	1,821379
3,257500	0,1	1,844838
3,259167	0,1	1,877067
3,260833	0,1	1,830331
3,262500	0,1	1,819082
3,264167	0,1	1,764472
3,265833	0,1	1,763687
3,267500	0,1	1,772554
3,269167	0,1	1,773737
3,270833	0,1	1,767326
3,272500	0,1	1,751857
3,274167	0,1	1,708131
3,275833	0,1	1,731523
3,277500	0,1	1,707010
3,279167	0,1	1,653837
3,280833	0,1	1,677579
3,282500	0,1	1,654957
3,284167	0,1	1,656594
3,285833	0,1	1,629277
3,287500	0,1	1,598299
3,289167	0,1	1,629896
3,290833	0,1	1,611395
3,292500	0,1	1,598446
3,294167	0,1	1,558736
3,295833	0,1	1,606814
3,297500	0,1	1,571762
3,299167	0,1	1,557592
3,300833	0,1	1,529321
3,302500	0,1	1,472401
3,304167	0,1	1,521658
3,305833	0,1	1,480834
3,307500	0,1	1,483889
3,309167	0,1	1,465059
3,310833	0,1	1,450708
3,312500	0,1	1,426757
3,314167	0,1	1,434238
3,315833	0,1	1,470900
3,317500	0,1	1,370914
3,319167	0,1	1,376256
3,320833	0,1	1,397713
3,322500	0,1	1,393229
3,324167	0,1	1,404931
3,325833	0,1	1,329294
3,327500	0,1	1,354726
3,329167	0,1	1,358609
3,330833	0,1	1,312508
3,332500	0,1	1,326429
3,334167	0,1	1,310435
3,335833	0,1	1,323366
3,337500	0,1	1,322793
3,339167	0,1	1,303712
3,340833	0,1	1,271150
3,342500	0,1	1,275040
3,344167	0,1	1,254081
3,345833	0,1	1,247114
3,347500	0,1	1,219165
3,349167	0,1	1,247193
3,350833	0,1	1,220136
3,352500	0,1	1,207291
3,354167	0,1	1,239932
3,355833	0,1	1,273476
3,357500	0,1	1,177297
3,359167	0,1	1,197320
3,360833	0,1	1,195555
3,362500	0,1	1,209658
3,364167	0,1	1,181911
3,365833	0,1	1,211825
3,367500	0,1	1,186153
3,369167	0,1	1,184478
3,370833	0,1	1,181020
3,372500	0,1	1,152145
3,374167	0,1	1,160632
3,375833	0,1	1,187710
3,377500	0,1	1,134783
3,379167	0,1	1,139385
3,380833	0,1	1,095234
3,382500	0,1	1,134384
3,384167	0,1	1,127453
3,385833	0,1	1,093724
3,387500	0,1	1,159508
3,389167	0,1	1,114974
3,390833	0,1	1,074738
3,392500	0,1	1,099233
3,394167	0,1	1,089615
3,395833	0,1	1,083958
3,397500	0,1	1,099766
3,399167	0,1	1,054739
3,400833	0,1	1,051201
3,402500	0,1	1,072375
3,404167	0,1	1,048501
3,405833	0,1	1,066898
3,407500	0,1	1,065927
3,409167	0,1	1,052689
3,410833	0,1	1,058097
3,412500	0,1	1,055082
3,414167	0,1	1,032398
3,415833	0,1	1,065496
3,417500	0,1	1,058232
3,419167	0,1	1,072554
3,420833	0,1	1,027902
3,422500	0,1	0,982309
3,424167	0,1	1,017023
3,425833	0,1	1,026344
3,427500	0,1	1,006343
3,429167	0,1	1,032698
3,430833	0,1	1,030710
3,432500	0,1	1,023372
3,434167	0,1	1,010975
3,435833	0,1	1,052391
3,437500	0,1	0,989749
3,439167	0,1	0,998752
3,440833	0,1	0,971845
3,442500	0,1	0,978554
3,444167	0,1	0,990417
3,445833	0,1	0,936395
3,447500	0,1	0,961502
3,449167	0,1	0,995820
3,450833	0,1	0,959827
3,452500	0,1	0,950266
3,454167	0,1	0,982736
3,455833	0,1	0,963088
3,457500	0,1	0,958047
3,459167	0,1	0,979368
3,460833	0,1	0,920692
3,462500	0,1	0,944471
3,464167	0,1	1,000809
3,465833	0,1	0,968012
3,467500	0,1	0,951843
3,469167	0,1	0,989544
3,470833	0,1	1,005229
3,472500	0,1	0,987275
3,474167	0,1	0,959915
3,475833	0,1	0,954897
3,477500	0,1	0,937672
3,479167	0,1	0,973742
3,480833	0,1	0,917684
3,482500	0,1	0,925936
3,484167	0,1	1,000203
3,485833	0,1	0,891377
3,487500	0,1	0,899891
3,489167	0,1	0,962202
3,490833	0,1	0,973567
3,492500	0,1	0,932205
3,494167	0,1	0,917739
3,495833	0,1	0,932993
3,497500	0,1	0,923552
3,499167	0,1	0,922814
3,500833	0,1	0,936719
3,502500	0,1	0,908703
3,504167	0,1	0,933516
3,505833	0,1	0,915943
3,507500	0,1	0,925515
3,509167	0,1	0,953630
3,510833	0,1	0,939651
3,512500	0,1	0,904861
3,514167	0,1	0,903108
3,515833	0,1	0,899448
3,517500	0,1	0,892901
3,519167	0,1	0,937196
3,520833	0,1	0,931777
3,522500	0,1	0,909476
3,524167	0,1	0,907097
3,525833	0,1	0,960275
3,527500	0,1	0,937030
3,529167	0,1	0,916389
3,530833	0,1	0,963244
3,532500	0,1	0,915490
3,534167	0,1	0,937268
3,535833	0,1	0,909412
3,537500	0,1	0,918560
3,539167	0,1	0,885598
3,540833	0,1	0,906054
3,542500	0,1	0,951670
3,544167	0,1	0,928672
3,545833	0,1	0,934544
3,547500	0,1	0,940594
3,549167	0,1	0,943612
3,550833	0,1	0,922687
3,552500	0,1	0,926632
3,554167	0,1	0,957000
3,555833	0,1	0,906293
3,557500	0,1	0,911792
3,559167	0,1	0,889428
3,560833	0,1	0,921233
3,562500	0,1	0,925370
3,564167	0,1	0,901762
3,565833	0,1	0,958988
3,567500	0,1	0,925642
3,569167	0,1	0,912267
3,570833	0,1	0,958809
3,572500	0,1	0,861250
3,574167	0,1	0,938961
3,575833	0,1	0,927697
3,577500	0,1	0,909987
3,579167	0,1	0,896326
3,580833	0,1	0,909468
3,582500	0,1	0,884573
3,584167	0,1	0,914607
3,585833	0,1	0,940968
3,587500	0,1	0,899391
3,589167	0,1	0,942250
3,590833	0,1	0,902356
3,592500	0,1	0,899026
3,594167	0,1	0,923609
3,595833	0,1	0,899215
3,597500	0,1	0,936307
3,599167	0,1	0,934662
3,600833	0,1	0,878282
3,602500	0,1	0,946745
3,604167	0,1	0,908011
3,605833	0,1	0,925671
3,607500	0,1	0,925386
3,609167	0,1	0,930017
3,610833	0,1	0,925034
3,612500	0,1	0,933389
3,614167	0,1	0,903402
3,615833	0,1	0,931455
3,617500	0,1	0,867617
3,619167	0,1	0,904803
3,620833	0,1	0,915255
3,622500	0,1	0,870618
3,624167	0,1	0,905356
3,625833	0,1	0,911371
3,627500	0,1	0,942319
3,629167	0,1	0,939558
3,630833	0,1	0,929180
3,632500	0,1	0,909672
3,634167	0,1	0,933161
3,635833	0,1	0,905554
3,637500	0,1	0,894687
3,639167	0,1	0,858757
3,640833	0,1	0,902519
3,642500	0,1	0,923649
3,644167	0,1	0,922330
3,645833	0,1	0,891187
3,647500	0,1	0,909978
3,649167	0,1	0,865475
3,650833	0,1	0,895700
3,652500	0,1	0,894369
3,654167	0,1	0,877356
3,655833	0,1	0,887925
3,657500	0,1	0,928106
3,659167	0,1	0,867055
3,660833	0,1	0,898060
3,662500	0,1	0,896219
3,664167	0,1	0,897477
3,665833	0,1	0,885175
3,667500	0,1	0,889421
3,669167	0,1	0,852907
3,670833	0,1	0,878487
3,672500	0,1	0,868590
3,674167	0,1	0,865767
3,675833	0,1	0,904515
3,677500	0,1	0,888219
3,679167	0,1	0,892702
3,680833	0,1	0,914122
3,682500	0,1	0,884181
3,684167	0,1	0,840285
3,685833	0,1	0,878222
3,687500	0,1	0,909042
3,689167	0,1	0,840215
3,690833	0,1	0,922465
3,692500	0,1	0,859890
3,694167	0,1	0,863379
3,695833	0,1	0,863536
3,697500	0,1	0,882240
3,699167	0,1	0,876526
3,700833	0,1	0,841793
3,702500	0,1	0,879152
3,704167	0,1	0,914015
3,705833	0,1	0,876312
3,707500	0,1	0,838922
3,709167	0,1	0,898199
3,710833	0,1	0,845811
3,712500	0,1	0,843870
3,714167	0,1	0,847950
3,715833	0,1	0,851099
3,717500	0,1	0,884705
3,719167	0,1	0,889827
3,720833	0,1	0,851974
3,722500	0,1	0,816909
3,724167	0,1	0,843351
3,725833	0,1	0,879889
3,727500	0,1	0,857141
3,729167	0,1	0,893873
3,730833	0,1	0,843566
3,732500	0,1	0,912209
3,734167	0,1	0,881793
3,735833	0,1	0,879805
3,737500	0,1	0,843682
3,739167	0,1	0,862823
3,740833	0,1	0,882752
3,742500	0,1	0,869325
3,744167	0,1	0,895936
3,745833	0,1	0,869656
3,747500	0,1	0,903559
3,749167	0,1	0,890146
3,750833	0,1	0,874796
3,752500	0,1	0,898090
3,754167	0,1	0,900888
3,755833	0,1	0,880087
3,757500	0,1	0,893592
3,759167	0,1	0,908403
3,760833	0,1	0,895434
3,762500	0,1	0,912194
3,764167	0,1	0,924740
3,765833	0,1	0,918408
3,767500	0,1	0,899254
3,769167	0,1	0,893727
3,770833	0,1	0,911015
3,772500	0,1	0,921435
3,774167	0,1	0,941679
3,775833	0,1	0,911628
3,777500	0,1	0,923768
3,779167	0,1	0,904267
3,780833	0,1	0,887969
3,782500	0,1	0,903301
3,784167	0,1	0,943890
3,785833	0,1	0,885355
3,787500	0,1	0,893790
3,789167	0,1	0,902922
3,790833	0,1	0,929461
3,792500	0,1	0,959638
3,794167	0,1	0,933463
3,795833	0,1	0,946890
3,797500	0,1	0,901359
3,799167	0,1	0,893020
3,800833	0,1	0,944375
3,802500	0,1	0,918938
3,804167	0,1	0,946557
3,805833	0,1	0,971189
3,807500	0,1	0,930933
3,809167	0,1	0,930515
3,810833	0,1	0,926765
3,812500	0,1	0,941746
3,814167	0,1	0,939926
3,815833	0,1	0,932014
3,817500	0,1	0,946585
3,819167	0,1	0,947757
3,820833	0,1	0,892229
3,822500	0,1	0,921389
3,824167	0,1	0,922080
3,825833	0,1	0,907702
3,827500	0,1	0,917668
3,829167	0,1	0,874410
3,830833	0,1	0,898757
3,832500	0,1	0,926796
3,834167	0,1	0,882492
3,835833	0,1	0,878232
3,837500	0,1	0,924154
3,839167	0,1	0,891712
3,840833	0,1	0,906135
3,842500	0,1	0,918417
3,844167	0,1	0,914432
3,845833	0,1	0,900131
3,847500	0,1	0,914715
3,849167	0,1	0,881872
3,850833	0,1	0,870073
3,852500	0,1	0,911480
3,854167	0,1	0,904146
3,855833	0,1	0,906453
3,857500	0,1	0,894397
3,859167	0,1	0,870011
3,860833	0,1	0,865625
3,862500	0,1	0,891083
3,864167	0,1	0,889251
3,865833	0,1	0,878259
3,867500	0,1	0,855094
3,869167	0,1	0,896222
3,870833	0,1	0,866220
3,872500	0,1	0,865178
3,874167	0,1	0,870475
3,875833	0,1	0,859972
3,877500	0,1	0,896145
3,879167	0,1	0,856986
3,880833	0,1	0,843335
3,882500	0,1	0,806978
3,884167	0,1	0,856007
3,885833	0,1	0,874526
3,887500	0,1	0,877547
3,889167	0,1	0,854923
3,890833	0,1	0,860386
3,892500	0,1	0,832726
3,894167	0,1	0,851960
3,895833	0,1	0,815177
3,897500	0,1	0,836924
3,899167	0,1	0,815265
3,900833	0,1	0,841673
3,902500	0,1	0,841774
3,904167	0,1	0,851451
3,905833	0,1	0,834482
3,907500	0,1	0,836445
3,909167	0,1	0,827595
3,910833	0,1	0,770094
3,912500	0,1	0,801020
3,914167	0,1	0,765712
3,915833	0,1	0,810237
3,917500	0,1	0,786762
3,919167	0,1	0,803203
3,920833	0,1	0,792934
3,922500	0,1	0,814259
3,924167	0,1	0,773846
3,925833	0,1	0,780970
3,927500	0,1	0,796104
3,929167	0,1	0,765654
3,930833	0,1	0,776245
3,932500	0,1	0,770307
3,934167	0,1	0,744891
3,935833	0,1	0,749991
3,937500	0,1	0,787482
3,939167	0,1	0,737827
3,940833	0,1	0,771583
3,942500	0,1	0,746047
3,944167	0,1	0,735630
3,945833	0,1	0,750088
3,947500	0,1	0,728888
3,949167	0,1	0,754902
3,950833	0,1	0,744210
3,952500	0,1	0,757216
3,954167	0,1	0,738818
3,955833	0,1	0,730331
3,957500	0,1	0,744687
3,959167	0,1	0,721430
3,960833	0,1	0,738389
3,962500	0,1	0,745656
3,964167	0,1	0,745787
3,965833	0,1	0,731392
3,967500	0,1	0,734963
3,969167	0,1	0,729657
3,970833	0,1	0,706173
3,972500	0,1	0,715870
3,974167	0,1	0,741146
3,975833	0,1	0,716515
3,977500	0,1	0,735595
3,979167	0,1	0,727501
3,980833	0,1	0,728654
3,982500	0,1	0,735880
3,984167	0,1	0,702962
3,985833	0,1	0,731990
3,987500	0,1	0,719472
3,989167	0,1	0,719020
3,990833	0,1	0,692291
3,992500	0,1	0,725208
3,994167	0,1	0,725123
3,995833	0,1	0,715773
3,997500	0,1	0,716768
3,999167	0,1	0,750309
4,000833	0,1	0,704987
4,002500	0,1	0,685767
4,004167	0,1	0,754994
4,005833	0,1	0,720308
4,007500	0,1	0,709925
4,009167	0,1	0,724699
4,010833	0,1	0,765082
4,012500	0,1	0,727672
4,014167	0,1	0,737235
4,015833	0,1	0,751404
4,017500	0,1	0,712862
4,019167	0,1	0,707195
4,020833	0,1	0,728365
4,022500	0,1	0,745814
4,024167	0,1	0,712731
4,025833	0,1	0,707260
4,027500	0,1	0,759330
4,029167	0,1	0,754817
4,030833	0,1	0,765766
4,032500	0,1	0,781711
4,034167	0,1	0,769441
4,035833	0,1	0,751224
4,037500	0,1	0,755912
4,039167	0,1	0,747365
4,040833	0,1	0,770523
4,042500	0,1	0,791576
4,044167	0,1	0,772434
4,045833	0,1	0,787200
4,047500	0,1	0,765204
4,049167	0,1	0,823576
4,050833	0,1	0,786931
4,052500	0,1	0,844172
4,054167	0,1	0,824303
4,055833	0,1	0,858294
4,057500	0,1	0,844610
4,059167	0,1	0,862627
4,060833	0,1	0,848347
4,062500	0,1	0,879771
4,064167	0,1	0,843366
4,065833	0,1	0,882026
4,067500	0,1	0,866532
4,069167	0,1	0,927458
4,070833	0,1	0,949565
4,072500	0,1	0,924171
4,074167	0,1	0,902798
4,075833	0,1	0,947615
4,077500	0,1	0,933986
4,079167	0,1	0,919931
4,080833	0,1	0,980915
4,082500	0,1	0,988216
4,084167	0,1	0,968025
4,085833	0,1	1,004995
4,087500	0,1	1,078549
4,089167	0,1	1,051560
4,090833	0,1	1,080688
4,092500	0,1	1,091295
4,094167	0,1	1,106132
4,095833	0,1	1,104472
4,097500	0,1	1,113630
4,099167	0,1	1,172467
4,100833	0,1	1,162900
4,102500	0,1	1,194414
4,104167	0,1	1,160333
4,105833	0,1	1,190996
4,107500	0,1	1,198435
4,109167	0,1	1,202564
4,110833	0,1	1,217667
4,112500	0,1	1,268287
4,114167	0,1	1,249892
4,115833	0,1	1,244589
4,117500	0,1	1,282850
4,119167	0,1	1,302331
4,120833	0,1	1,313340
4,122500	0,1	1,339923
4,124167	0,1	1,396485
4,125833	0,1	1,370455
4,127500	0,1	1,387789
4,129167	0,1	1,415005
4,130833	0,1	1,458282
4,132500	0,1	1,398275
4,134167	0,1	1,435654
4,135833	0,1	1,444180
4,137500	0,1	1,497549
4,139167	0,1	1,497683
4,140833	0,1	1,523787
4,142500	0,1	1,541857
4,144167	0,1	1,578678
4,145833	0,1	1,546199
4,147500	0,1	1,591186
4,149167	0,1	1,605798
4,150833	0,1	1,570325
4,152500	0,1	1,595492
4,154167	0,1	1,638541
4,155833	0,1	1,646587
4,157500	0,1	1,681152
4,159167	0,1	1,694029
4,160833	0,1	1,689386
4,162500	0,1	1,681428
4,164167	0,1	1,734896
4,165833	0,1	1,677346
4,167500	0,1	1,748715
4,169167	0,1	1,736754
4,170833	0,1	1,734106
4,172500	0,1	1,792782
4,174167	0,1	1,735624
4,175833	0,1	1,757279
4,177500	0,1	1,782194
4,179167	0,1	1,812124
4,180833	0,1	1,798111
4,182500	0,1	1,804103
4,184167	0,1	1,822063
4,185833	0,1	1,789851
4,187500	0,1	1,812474
4,189167	0,1	1,819993
4,190833	0,1	1,871395
4,192500	0,1	1,833325
4,194167	0,1	1,841620
4,195833	0,1	1,833813
4,197500	0,1	1,853719
4,199167	0,1	1,862238
4,200833	0,1	1,871335
4,202500	0,1	1,865254
4,204167	0,1	1,867115
4,205833	0,1	1,837903
4,207500	0,1	1,877121
4,209167	0,1	1,891084
4,210833	0,1	1,845901
4,212500	0,1	1,858651
4,214167	0,1	1,877630
4,215833	0,1	1,863888
4,217500	0,1	1,886082
4,219167	0,1	1,846840
4,220833	0,1	1,854072
4,222500	0,1	1,858303
4,224167	0,1	1,850495
4,225833	0,1	1,904047
4,227500	0,1	1,878859
4,229167	0,1	1,863384
4,230833	0,1	1,877637
4,232500	0,1	1,826945
4,234167	0,1	1,842837
4,235833	0,1	1,822863
4,237500	0,1	1,870037
4,239167	0,1	1,819004
4,240833	0,1	1,807624
4,242500	0,1	1,807030
4,244167	0,1	1,810041
4,245833	0,1	1,798963
4,247500	0,1	1,769908
4,249167	0,1	1,770168
4,250833	0,1	1,761518
4,252500	0,1	1,782067
4,254167	0,1	1,786145
4,255833	0,1	1,730552
4,257500	0,1	1,763016
4,259167	0,1	1,760151
4,260833	0,1	1,726808
4,262500	0,1	1,696179
4,264167	0,1	1,710715
4,265833	0,1	1,700670
4,267500	0,1	1,702829
4,269167	0,1	1,693883
4,270833	0,1	1,666344
4,272500	0,1	1,660036
4,274167	0,1	1,668543
4,275833	0,1	1,647228
4,277500	0,1	1,627676
4,279167	0,1	1,626109
4,280833	0,1	1,619188
4,282500	0,1	1,597135
4,284167	0,1	1,587335
4,285833	0,1	1,568375
4,287500	0,1	1,584822
4,289167	0,1	1,536244
4,290833	0,1	1,548970
4,292500	0,1	1,564381
4,294167	0,1	1,528241
4,295833	0,1	1,522725
4,297500	0,1	1,502990
4,299167	0,1	1,455477
4,300833	0,1	1,484595
4,302500	0,1	1,485232
4,304167	0,1	1,463955
4,305833	0,1	1,451637
4,307500	0,1	1,422371
4,309167	0,1	1,425582
4,310833	0,1	1,451849
4,312500	0,1	1,416225
4,314167	0,1	1,404276
4,315833	0,1	1,375097
4,317500	0,1	1,375546
4,319167	0,1	1,388975
4,320833	0,1	1,370792
4,322500	0,1	1,344287
4,324167	0,1	1,346211
4,325833	0,1	1,315177
4,327500	0,1	1,323685
4,329167	0,1	1,302149
4,330833	0,1	1,325258
4,332500	0,1	1,336726
4,334167	0,1	1,271763
4,335833	0,1	1,243039
4,337500	0,1	1,283358
4,339167	0,1	1,294267
4,340833	0,1	1,260325
4,342500	0,1	1,271493
4,344167	0,1	1,262510
4,345833	0,1	1,266569
4,347500	0,1	1,227425
4,349167	0,1	1,203857
4,350833	0,1	1,210900
4,352500	0,1	1,170895
4,354167	0,1	1,209164
4,355833	0,1	1,198774
4,357500	0,1	1,198638
4,359167	0,1	1,149267
4,360833	0,1	1,164448
4,362500	0,1	1,146177
4,364167	0,1	1,160235
4,365833	0,1	1,146465
4,367500	0,1	1,153047
4,369167	0,1	1,123445
4,370833	0,1	1,146343
4,372500	0,1	1,109582
4,374167	0,1	1,088419
4,375833	0,1	1,038482
4,377500	0,1	1,100843
4,379167	0,1	1,066508
4,380833	0,1	1,087478
4,382500	0,1	1,062116
4,384167	0,1	1,050891
4,385833	0,1	1,077120
4,387500	0,1	1,068236
4,389167	0,1	1,060140
4,390833	0,1	1,056168
4,392500	0,1	1,008099
4,394167	0,1	0,997315
4,395833	0,1	1,007221
4,397500	0,1	0,978447
4,399167	0,1	1,010832
4,400833	0,1	1,003059
4,402500	0,1	1,017333
4,404167	0,1	0,986609
4,405833	0,1	0,989173
4,407500	0,1	0,970952
4,409167	0,1	1,011498
4,410833	0,1	0,957787
4,412500	0,1	0,930287
4,414167	0,1	0,951586
4,415833	0,1	0,963097
4,417500	0,1	0,954692
4,419167	0,1	0,928319
4,420833	0,1	0,954998
4,422500	0,1	0,942972
4,424167	0,1	0,913125
4,425833	0,1	0,918419
4,427500	0,1	0,892603
4,429167	0,1	0,894041
4,430833	0,1	0,863805
4,432500	0,1	0,906284
4,434167	0,1	0,900575
4,435833	0,1	0,878917
4,437500	0,1	0,856118
4,439167	0,1	0,860688
4,440833	0,1	0,823439
4,442500	0,1	0,863080
4,444167	0,1	0,851140
4,445833	0,1	0,824080
4,447500	0,1	0,825936
4,449167	0,1	0,863200
4,450833	0,1	0,863536
4,452500	0,1	0,828555
4,454167	0,1	0,794990
4,455833	0,1	0,802412
4,457500	0,1	0,805683
4,459167	0,1	0,805814
4,460833	0,1	0,791064
4,462500	0,1	0,767675
4,464167	0,1	0,813004
4,465833	0,1	0,778119
4,467500	0,1	0,801821
4,469167	0,1	0,750429
4,470833	0,1	0,786783
4,472500	0,1	0,818626
4,474167	0,1	0,753061
4,475833	0,1	0,763111
4,477500	0,1	0,756838
4,479167	0,1	0,724003
4,480833	0,1	0,741893
4,482500	0,1	0,740612
4,484167	0,1	0,702673
4,485833	0,1	0,718532
4,487500	0,1	0,728852
4,489167	0,1	0,711665
4,490833	0,1	0,691167
4,492500	0,1	0,698936
4,494167	0,1	0,720943
4,495833	0,1	0,707873
4,497500	0,1	0,676356
4,499167	0,1	0,678664
4,500833	0,1	0,677219
4,502500	0,1	0,670054
4,504167	0,1	0,653992
4,505833	0,1	0,641044
4,507500	0,1	0,656264
4,509167	0,1	0,680263
4,510833	0,1	0,679627
4,512500	0,1	0,637163
4,514167	0,1	0,639239
4,515833	0,1	0,656939
4,517500	0,1	0,597654
4,519167	0,1	0,630207
4,520833	0,1	0,607604
4,522500	0,1	0,607694
4,524167	0,1	0,618133
4,525833	0,1	0,616400
4,527500	0,1	0,624075
4,529167	0,1	0,637438
4,530833	0,1	0,586602
4,532500	0,1	0,614274
4,534167	0,1	0,611133
4,535833	0,1	0,575933
4,537500	0,1	0,597601
4,539167	0,1	0,607242
4,540833	0,1	0,580878
4,542500	0,1	0,556336
4,544167	0,1	0,567185
4,545833	0,1	0,613529
4,547500	0,1	0,575035
4,549167	0,1	0,544035
4,550833	0,1	0,548299
4,552500	0,1	0,564452
4,554167	0,1	0,565389
4,555833	0,1	0,551516
4,557500	0,1	0,521327
4,559167	0,1	0,547749
4,560833	0,1	0,528231
4,562500	0,1	0,551315
4,564167	0,1	0,520011
4,565833	0,1	0,543542
4,567500	0,1	0,552347
4,569167	0,1	0,533660
4,570833	0,1	0,510051
4,572500	0,1	0,484358
4,574167	0,1	0,507407
4,575833	0,1	0,487058
4,577500	0,1	0,494663
4,579167	0,1	0,512326
4,580833	0,1	0,485516
4,582500	0,1	0,494662
4,584167	0,1	0,468174
4,585833	0,1	0,511965
4,587500	0,1	0,528449
4,589167	0,1	0,507676
4,590833	0,1	0,467119
4,592500	0,1	0,493789
4,594167	0,1	0,476139
4,595833	0,1	0,480693
4,597500	0,1	0,472410
4,599167	0,1	0,489236
4,600833	0,1	0,479863
4,602500	0,1	0,442198
4,604167	0,1	0,412038
4,605833	0,1	0,465043
4,607500	0,1	0,456481
4,609167	0,1	0,419014
4,610833	0,1	0,462636
4,612500	0,1	0,406943
4,614167	0,1	0,458521
4,615833	0,1	0,459720
4,617500	0,1	0,420235
4,619167	0,1	0,430589
4,620833	0,1	0,427515
4,622500	0,1	0,422632
4,624167	0,1	0,430499
4,625833	0,1	0,456827
4,627500	0,1	0,401869
4,629167	0,1	0,377974
4,630833	0,1	0,431392
4,632500	0,1	0,440872
4,634167	0,1	0,399939
4,635833	0,1	0,355720
4,637500	0,1	0,405731
4,639167	0,1	0,425647
4,640833	0,1	0,384435
4,642500	0,1	0,388821
4,644167	0,1	0,412033
4,645833	0,1	0,383139
4,647500	0,1	0,391515
4,649167	0,1	0,383877
4,650833	0,1	0,371677
4,652500	0,1	0,357613
4,654167	0,1	0,350258
4,655833	0,1	0,386397
4,657500	0,1	0,400412
4,659167	0,1	0,407634
4,660833	0,1	0,371528
4,662500	0,1	0,360381
4,664167	0,1	0,362367
4,665833	0,1	0,409720
4,667500	0,1	0,361158
4,669167	0,1	0,349591
4,670833	0,1	0,390575
4,672500	0,1	0,379607
4,674167	0,1	0,356756
4,675833	0,1	0,385351
4,677500	0,1	0,374770
4,679167	0,1	0,364233
4,680833	0,1	0,335821
4,682500	0,1	0,381330
4,684167	0,1	0,361993
4,685833	0,1	0,324745
4,687500	0,1	0,340269
4,689167	0,1	0,389424
4,690833	0,1	0,311146
4,692500	0,1	0,328785
4,694167	0,1	0,357638
4,695833	0,1	0,357519
4,697500	0,1	0,319192
4,699167	0,1	0,336101
4,700833	0,1	0,330805
4,702500	0,1	0,320571
4,704167	0,1	0,343541
4,705833	0,1	0,311297
4,707500	0,1	0,315003
4,709167	0,1	0,298479
4,710833	0,1	0,320978
4,712500	0,1	0,308637
4,714167	0,1	0,310863
4,715833	0,1	0,291769
4,717500	0,1	0,307082
4,719167	0,1	0,278616
4,720833	0,1	0,291899
4,722500	0,1	0,335326
4,724167	0,1	0,345895
4,725833	0,1	0,298688
4,727500	0,1	0,311160
4,729167	0,1	0,327789
4,730833	0,1	0,301590
4,732500	0,1	0,286419
4,734167	0,1	0,324058
4,735833	0,1	0,292099
4,737500	0,1	0,287661
4,739167	0,1	0,323128
4,740833	0,1	0,275536
4,742500	0,1	0,307846
4,744167	0,1	0,252036
4,745833	0,1	0,277508
4,747500	0,1	0,328009
4,749167	0,1	0,264626
4,750833	0,1	0,301965
4,752500	0,1	0,260706
4,754167	0,1	0,298490
4,755833	0,1	0,308808
4,757500	0,1	0,288208
4,759167	0,1	0,297894
4,760833	0,1	0,234000
4,762500	0,1	0,291624
4,764167	0,1	0,304161
4,765833	0,1	0,293302
4,767500	0,1	0,308780
4,769167	0,1	0,288787
4,770833	0,1	0,265033
4,772500	0,1	0,251587
4,774167	0,1	0,290861
4,775833	0,1	0,252423
4,777500	0,1	0,253181
4,779167	0,1	0,287238
4,780833	0,1	0,240213
4,782500	0,1	0,263989
4,784167	0,1	0,243973
4,785833	0,1	0,250095
4,787500	0,1	0,274149
4,789167	0,1	0,239482
4,790833	0,1	0,254110
4,792500	0,1	0,273369
4,794167	0,1	0,225589
4,795833	0,1	0,232965
4,797500	0,1	0,275478
4,799167	0,1	0,305467
4,800833	0,1	0,256277
4,802500	0,1	0,261300
4,804167	0,1	0,223347
4,805833	0,1	0,229991
4,807500	0,1	0,305040
4,809167	0,1	0,244108
4,810833	0,1	0,231937
4,812500	0,1	0,221853
4,814167	0,1	0,232989
4,815833	0,1	0,255758
4,817500	0,1	0,251687
4,819167	0,1	0,221257
4,820833	0,1	0,233506
4,822500	0,1	0,263397
4,824167	0,1	0,235464
4,825833	0,1	0,275062
4,827500	0,1	0,292477
4,829167	0,1	0,253379
4,830833	0,1	0,251897
4,832500	0,1	0,275254
4,834167	0,1	0,203503
4,835833	0,1	0,280517
4,837500	0,1	0,274054
4,839167	0,1	0,254259
4,840833	0,1	0,271278
4,842500	0,1	0,208652
4,844167	0,1	0,236546
4,845833	0,1	0,252121
4,847500	0,1	0,230304
4,849167	0,1	0,255971
4,850833	0,1	0,276615
4,852500	0,1	0,219525
4,854167	0,1	0,219596
4,855833	0,1	0,232660
4,857500	0,1	0,212618
4,859167	0,1	0,226569
4,860833	0,1	0,254435
4,862500	0,1	0,234396
4,864167	0,1	0,226800
4,865833	0,1	0,269651
4,867500	0,1	0,232875
4,869167	0,1	0,224336
4,870833	0,1	0,238365
4,872500	0,1	0,255973
4,874167	0,1	0,256117
4,875833	0,1	0,218174
4,877500	0,1	0,263419
4,879167	0,1	0,264548
4,880833	0,1	0,248982
4,882500	0,1	0,215355
4,884167	0,1	0,256381
4,885833	0,1	0,238358
4,887500	0,1	0,260528
4,889167	0,1	0,233741
4,890833	0,1	0,220798
4,892500	0,1	0,218557
4,894167	0,1	0,221146
4,895833	0,1	0,223651
4,897500	0,1	0,205848
4,899167	0,1	0,243645
4,900833	0,1	0,248460
4,902500	0,1	0,198504
4,904167	0,1	0,211289
4,905833	0,1	0,213255
4,907500	0,1	0,259441
4,909167	0,1	0,226643
4,910833	0,1	0,228748
4,912500	0,1	0,221727
4,914167	0,1	0,227815
4,915833	0,1	0,231848
4,917500	0,1	0,254499
4,919167	0,1	0,207655
4,920833	0,1	0,245343
4,922500	0,1	0,234895
4,924167	0,1	0,244748
4,925833	0,1	0,242308
4,927500	0,1	0,241751
4,929167	0,1	0,218976
4,930833	0,1	0,224207
4,932500	0,1	0,239548
4,934167	0,1	0,190472
4,935833	0,1	0,221884
4,937500	0,1	0,199351
4,939167	0,1	0,224804
4,940833	0,1	0,218683
4,942500	0,1	0,190570
4,944167	0,1	0,224223
4,945833	0,1	0,270480
4,947500	0,1	0,200247
4,949167	0,1	0,224328
4,950833	0,1	0,230548
4,952500	0,1	0,265410
4,954167	0,1	0,231503
4,955833	0,1	0,226261
4,957500	0,1	0,230210
4,959167	0,1	0,218622
4,960833	0,1	0,223400
4,962500	0,1	0,218871
4,964167	0,1	0,215574
4,965833	0,1	0,192557
4,967500	0,1	0,241654
4,969167	0,1	0,205352
4,970833	0,1	0,225550
4,972500	0,1	0,237911
4,974167	0,1	0,230567
4,975833	0,1	0,220241
4,977500	0,1	0,198560
4,979167	0,1	0,243315
4,980833	0,1	0,182875
4,982500	0,1	0,239022
4,984167	0,1	0,223138
4,985833	0,1	0,224230
4,987500	0,1	0,250647
4,989167	0,1	0,199625
4,990833	0,1	0,215014
4,992500	0,1	0,235279
4,994167	0,1	0,254726
4,995833	0,1	0,222704
4,997500	0,1	0,228911
4,999167	0,1	0,206349
5,000833	0,1	0,225613
5,002500	0,1	0,227377
5,004167	0,1	0,220584
5,005833	0,1	0,191979
5,007500	0,1	0,228527
5,009167	0,1	0,192332
5,010833	0,1	0,240268
5,012500	0,1	0,250234
5,014167	0,1	0,206104
5,015833	0,1	0,230393
5,017500	0,1	0,234791
5,019167	0,1	0,250233
5,020833	0,1	0,231462
5,022500	0,1	0,237772
5,024167	0,1	0,224713
5,025833	0,1	0,261432
5,027500	0,1	0,209417
5,029167	0,1	0,213505
5,030833	0,1	0,230044
5,032500	0,1	0,247439
5,034167	0,1	0,192915
5,035833	0,1	0,252086
5,037500	0,1	0,218540
5,039167	0,1	0,222883
5,040833	0,1	0,248658
5,042500	0,1	0,227899
5,044167	0,1	0,188068
5,045833	0,1	0,208406
5,047500	0,1	0,235654
5,049167	0,1	0,224399
5,050833	0,1	0,278837
5,052500	0,1	0,190873
5,054167	0,1	0,200189
5,055833	0,1	0,206609
5,057500	0,1	0,205224
5,059167	0,1	0,227601
5,060833	0,1	0,220318
5,062500	0,1	0,215802
5,064167	0,1	0,245548
5,065833	0,1	0,192853
5,067500	0,1	0,220310
5,069167	0,1	0,230851
5,070833	0,1	0,233305
5,072500	0,1	0,244810
5,074167	0,1	0,263174
5,075833	0,1	0,237858
5,077500	0,1	0,251041
5,079167	0,1	0,223595
5,080833	0,1	0,228848
5,082500	0,1	0,238454
5,084167	0,1	0,258389
5,085833	0,1	0,212257
5,087500	0,1	0,192015
5,089167	0,1	0,248172
5,090833	0,1	0,238230
5,092500	0,1	0,259824
5,094167	0,1	0,223488
5,095833	0,1	0,223629
5,097500	0,1	0,225530
5,099167	0,1	0,223035
5,100833	0,1	0,196659
5,102500	0,1	0,175452
5,104167	0,1	0,197203
5,105833	0,1	0,185494
5,107500	0,1	0,233723
5,109167	0,1	0,231458
5,110833	0,1	0,206388
5,112500	0,1	0,210524
5,114167	0,1	0,224165
5,115833	0,1	0,228372
5,117500	0,1	0,190260
5,119167	0,1	0,185263
5,120833	0,1	0,263474
5,122500	0,1	0,219560
5,124167	0,1	0,224004
5,125833	0,1	0,236831
5,127500	0,1	0,203722
5,129167	0,1	0,212361
5,130833	0,1	0,232258
5,132500	0,1	0,228740
5,134167	0,1	0,204424
5,135833	0,1	0,221824
5,137500	0,1	0,217045
5,139167	0,1	0,216606
5,140833	0,1	0,210298
5,142500	0,1	0,236687
5,144167	0,1	0,220940
5,145833	0,1	0,179991
5,147500	0,1	0,245650
5,149167	0,1	0,230819
5,150833	0,1	0,239713
5,152500	0,1	0,207714
5,154167	0,1	0,207166
5,155833	0,1	0,188539
5,157500	0,1	0,224513
5,159167	0,1	0,240980
5,160833	0,1	0,221104
5,162500	0,1	0,230194
5,164167	0,1	0,246632
5,165833	0,1	0,247278
5,167500	0,1	0,252991
5,169167	0,1	0,207780
5,170833	0,1	0,228744
5,172500	0,1	0,189765
5,174167	0,1	0,183605
5,175833	0,1	0,210706
5,177500	0,1	0,206712
5,179167	0,1	0,187421
5,180833	0,1	0,212319
5,182500	0,1	0,183260
5,184167	0,1	0,168845
5,185833	0,1	0,189234
5,187500	0,1	0,239790
5,189167	0,1	0,192250
5,190833	0,1	0,215129
5,192500	0,1	0,203238
5,194167	0,1	0,197625
5,195833	0,1	0,155066
5,197500	0,1	0,190992
5,199167	0,1	0,186939
5,200833	0,1	0,202981
5,202500	0,1	0,196568
5,204167	0,1	0,179632
5,205833	0,1	0,214327
5,207500	0,1	0,189161
5,209167	0,1	0,197927
5,210833	0,1	0,174873
5,212500	0,1	0,183126
5,214167	0,1	0,183253
5,215833	0,1	0,158578
5,217500	0,1	0,211341
5,219167	0,1	0,167095
5,220833	0,1	0,196413
5,222500	0,1	0,170422
5,224167	0,1	0,165366
5,225833	0,1	0,152469
5,227500	0,1	0,167305
5,229167	0,1	0,208276
5,230833	0,1	0,198160
5,232500	0,1	0,178206
5,234167	0,1	0,157852
5,235833	0,1	0,227777
5,237500	0,1	0,162420
5,239167	0,1	0,184178
5,240833	0,1	0,148044
5,242500	0,1	0,161240
5,244167	0,1	0,182065
5,245833	0,1	0,129167
5,247500	0,1	0,179928
5,249167	0,1	0,147526
5,250833	0,1	0,194858
5,252500	0,1	0,158604
5,254167	0,1	0,141476
5,255833	0,1	0,144020
5,257500	0,1	0,152773
5,259167	0,1	0,171467
5,260833	0,1	0,142989
5,262500	0,1	0,131806
5,264167	0,1	0,141490
5,265833	0,1	0,138615
5,267500	0,1	0,147122
5,269167	0,1	0,140852
5,270833	0,1	0,146730
5,272500	0,1	0,134271
5,274167	0,1	0,159083
5,275833	0,1	0,168010
5,277500	0,1	0,182171
5,279167	0,1	0,156159
5,280833	0,1	0,164471
5,282500	0,1	0,159961
5,284167	0,1	0,132078
5,285833	0,1	0,132922
5,287500	0,1	0,161156
5,289167	0,1	0,141477
5,290833	0,1	0,127520
5,292500	0,1	0,134182
5,294167	0,1	0,128140
5,295833	0,1	0,159412
5,297500	0,1	0,150005
5,299167	0,1	0,147891
5,300833	0,1	0,120775
5,302500	0,1	0,135277
5,304167	0,1	0,110673
5,305833	0,1	0,110274
5,307500	0,1	0,130557
5,309167	0,1	0,127063
5,310833	0,1	0,097694
5,312500	0,1	0,138729
5,314167	0,1	0,114419
5,315833	0,1	0,094772
5,317500	0,1	0,107021
5,319167	0,1	0,086098
5,320833	0,1	0,111489
5,322500	0,1	0,139642
5,324167	0,1	0,168977
5,325833	0,1	0,170829
5,327500	0,1	0,110204
5,329167	0,1	0,106300
5,330833	0,1	0,154627
5,332500	0,1	0,107987
5,334167	0,1	0,128507
5,335833	0,1	0,111395
5,337500	0,1	0,107106
5,339167	0,1	0,118385
5,340833	0,1	0,103569
5,342500	0,1	0,106733
5,344167	0,1	0,068385
5,345833	0,1	0,135618
5,347500	0,1	0,087121
5,349167	0,1	0,088268
5,350833	0,1	0,136552
5,352500	0,1	0,122759
5,354167	0,1	0,098604
5,355833	0,1	0,105116
5,357500	0,1	0,086224
5,359167	0,1	0,141106
5,360833	0,1	0,080540
5,362500	0,1	0,107678
5,364167	0,1	0,092495
5,365833	0,1	0,077776
5,367500	0,1	0,123780
5,369167	0,1	0,080969
5,370833	0,1	0,135143
5,372500	0,1	0,065556
5,374167	0,1	0,076796
5,375833	0,1	0,105546
5,377500	0,1	0,063665
5,379167	0,1	0,087497
5,380833	0,1	0,080589
5,382500	0,1	0,103395
5,384167	0,1	0,101703
5,385833	0,1	0,092264
5,387500	0,1	0,100810
5,389167	0,1	0,061057
5,390833	0,1	0,093519
5,392500	0,1	0,076328
5,394167	0,1	0,113700
5,395833	0,1	0,067556
5,397500	0,1	0,088471
5,399167	0,1	0,096525
5,400833	0,1	0,098617
5,402500	0,1	0,104599
5,404167	0,1	0,080841
5,405833	0,1	0,085224
5,407500	0,1	0,044373
5,409167	0,1	0,064583
5,410833	0,1	0,063655
5,412500	0,1	0,029675
5,414167	0,1	0,110936
5,415833	0,1	0,091770
5,417500	0,1	0,057702
5,419167	0,1	0,049416
5,420833	0,1	0,048423
5,422500	0,1	0,087451
5,424167	0,1	0,052755
5,425833	0,1	0,109783
5,427500	0,1	0,075443
5,429167	0,1	0,044498
5,430833	0,1	0,069672
5,432500	0,1	0,074916
5,434167	0,1	0,021980
5,435833	0,1	0,064495
5,437500	0,1	0,064464
5,439167	0,1	0,086710
5,440833	0,1	0,061033
5,442500	0,1	0,038285
5,444167	0,1	0,056654
5,445833	0,1	0,089358
5,447500	0,1	0,077589
5,449167	0,1	0,050601
5,450833	0,1	0,019865
5,452500	0,1	0,059216
5,454167	0,1	0,055149
5,455833	0,1	0,083500
5,457500	0,1	0,075911
5,459167	0,1	0,071480
5,460833	0,1	0,056600
5,462500	0,1	0,043145
5,464167	0,1	0,053159
5,465833	0,1	0,060922
5,467500	0,1	0,062871
5,469167	0,1	0,046749
5,470833	0,1	0,015189
5,472500	0,1	0,059072
5,474167	0,1	0,074104
5,475833	0,1	0,028333
5,477500	0,1	0,038130
5,479167	0,1	0,066525
5,480833	0,1	0,035220
5,482500	0,1	0,062966
5,484167	0,1	0,043953
5,485833	0,1	0,036892
5,487500	0,1	-0,006192
5,489167	0,1	0,069660
5,490833	0,1	0,061028
5,492500	0,1	0,037600
5,494167	0,1	0,057069
5,495833	0,1	0,059866
5,497500	0,1	0,053287
5,499167	0,1	0,072987
5,500833	0,1	0,085470
5,502500	0,1	0,070531
5,504167	0,1	0,073921
5,505833	0,1	0,026988
5,507500	0,1	0,054356
5,509167	0,1	0,018415
5,510833	0,1	0,013813
5,512500	0,1	0,035708
5,514167	0,1	0,038359
5,515833	0,1	0,031556
5,517500	0,1	0,068014
5,519167	0,1	0,054714
5,520833	0,1	0,066343
5,522500	0,1	0,002407
5,524167	0,1	0,084253
5,525833	0,1	0,044806
5,527500	0,1	0,055063
5,529167	0,1	0,020569
5,530833	0,1	0,036142
5,532500	0,1	0,064125
5,534167	0,1	0,074313
5,535833	0,1	0,049008
5,537500	0,1	0,046289
5,539167	0,1	0,060961
5,540833	0,1	0,067671
5,542500	0,1	0,058462
5,544167	0,1	0,031722
5,545833	0,1	0,023356
5,547500	0,1	0,027100
5,549167	0,1	0,044236
5,550833	0,1	0,015583
5,552500	0,1	0,054891
5,554167	0,1	0,027544
5,555833	0,1	0,020895
5,557500	0,1	0,040180
5,559167	0,1	0,063648
5,560833	0,1	0,024030
5,562500	0,1	0,063109
5,564167	0,1	0,033030
5,565833	0,1	0,057523
5,567500	0,1	0,054587
5,569167	0,1	0,085155
5,570833	0,1	0,010005
5,572500	0,1	0,068712
5,574167	0,1	0,049131
5,575833	0,1	0,056824
5,577500	0,1	0,035262
5,579167	0,1	0,054791
5,580833	0,1	0,079753
5,582500	0,1	0,070468
5,584167	0,1	0,019228
5,585833	0,1	0,045602
5,587500	0,1	0,013116
5,589167	0,1	0,054082
5,590833	0,1	-0,003498
5,592500	0,1	0,036739
5,594167	0,1	-0,013477
5,595833	0,1	0,037273
5,597500	0,1	0,057295
5,599167	0,1	0,046438
5,600833	0,1	0,035486
5,602500	0,1	-0,001887
5,604167	0,1	0,073988
5,605833	0,1	0,038991
5,607500	0,1	0,047279
5,609167	0,1	0,040910
5,610833	0,1	0,058229
5,612500	0,1	0,014777
5,614167	0,1	0,017456
5,615833	0,1	0,045640
5,617500	0,1	0,033064
5,619167	0,1	0,043534
5,620833	0,1	0,076605
5,622500	0,1	0,027339
5,624167	0,1	0,032398
5,625833	0,1	0,030992
5,627500	0,1	0,032275
5,629167	0,1	0,020625
5,630833	0,1	0,050773
5,632500	0,1	0,017608
5,634167	0,1	0,022817
5,635833	0,1	0,057212
5,637500	0,1	0,058668
5,639167	0,1	0,052583
5,640833	0,1	0,025138
5,642500	0,1	0,073870
5,644167	0,1	0,031047
5,645833	0,1	0,052785
5,647500	0,1	0,043600
5,649167	0,1	0,042689
5,650833	0,1	0,062243
5,652500	0,1	0,066136
5,654167	0,1	0,062602
5,655833	0,1	0,054944
5,657500	0,1	0,051631
5,659167	0,1	0,079443
5,660833	0,1	0,073799
5,662500	0,1	0,059852
5,664167	0,1	0,088510
5,665833	0,1	0,051781
5,667500	0,1	0,056763
5,669167	0,1	0,029197
5,670833	0,1	0,053568
5,672500	0,1	0,076483
5,674167	0,1	0,096938
5,675833	0,1	0,038459
5,677500	0,1	0,020027
5,679167	0,1	0,081899
5,680833	0,1	0,076326
5,682500	0,1	0,064591
5,684167	0,1	0,073941
5,685833	0,1	0,086195
5,687500	0,1	0,041478
5,689167	0,1	0,084346
5,690833	0,1	0,071358
5,692500	0,1	0,054696
5,694167	0,1	0,051464
5,695833	0,1	0,067107
5,697500	0,1	0,065601
5,699167	0,1	0,062602
5,700833	0,1	0,109206
5,702500	0,1	0,078650
5,704167	0,1	0,064715
5,705833	0,1	0,059682
5,707500	0,1	0,059764
5,709167	0,1	0,070383
5,710833	0,1	0,021399
5,712500	0,1	0,056836
5,714167	0,1	0,072740
5,715833	0,1	0,048057
5,717500	0,1	0,039212
5,719167	0,1	0,046970
5,720833	0,1	0,093453
5,722500	0,1	0,085103
5,724167	0,1	0,077817
5,725833	0,1	0,079449
5,727500	0,1	0,080174
5,729167	0,1	0,109563
5,730833	0,1	0,080451
5,732500	0,1	0,081188
5,734167	0,1	0,079822
5,735833	0,1	0,056809
5,737500	0,1	0,065599
5,739167	0,1	0,089587
5,740833	0,1	0,099445
5,742500	0,1	0,095245
5,744167	0,1	0,112899
5,745833	0,1	0,057211
5,747500	0,1	0,080767
5,749167	0,1	0,072414
5,750833	0,1	0,119225
5,752500	0,1	0,100218
5,754167	0,1	0,064823
5,755833	0,1	0,088075
5,757500	0,1	0,070842
5,759167	0,1	0,123987
5,760833	0,1	0,086911
5,762500	0,1	0,059438
5,764167	0,1	0,072985
5,765833	0,1	0,075992
5,767500	0,1	0,085263
5,769167	0,1	0,080216
5,770833	0,1	0,105838
5,772500	0,1	0,065258
5,774167	0,1	0,121832
5,775833	0,1	0,154568
5,777500	0,1	0,097679
5,779167	0,1	0,121944
5,780833	0,1	0,100529
5,782500	0,1	0,096343
5,784167	0,1	0,116107
5,785833	0,1	0,102989
5,787500	0,1	0,093073
5,789167	0,1	0,107331
5,790833	0,1	0,103297
5,792500	0,1	0,092906
5,794167	0,1	0,086054
5,795833	0,1	0,088702
5,797500	0,1	0,099424
5,799167	0,1	0,095803
5,800833	0,1	0,125669
5,802500	0,1	0,115885
5,804167	0,1	0,114829
5,805833	0,1	0,105493
5,807500	0,1	0,063562
5,809167	0,1	0,111091
5,810833	0,1	0,114828
5,812500	0,1	0,106943
5,814167	0,1	0,094770
5,815833	0,1	0,101908
5,817500	0,1	0,112135
5,819167	0,1	0,109528
5,820833	0,1	0,107603
5,822500	0,1	0,088872
5,824167	0,1	0,127282
5,825833	0,1	0,081283
5,827500	0,1	0,123781
5,829167	0,1	0,095375
5,830833	0,1	0,090980
5,832500	0,1	0,069333
5,834167	0,1	0,087394
5,835833	0,1	0,115919
5,837500	0,1	0,080596
5,839167	0,1	0,097993
5,840833	0,1	0,155492
5,842500	0,1	0,074604
5,844167	0,1	0,139302
5,845833	0,1	0,099021
5,847500	0,1	0,071340
5,849167	0,1	0,105607
5,850833	0,1	0,115363
5,852500	0,1	0,083679
5,854167	0,1	0,068543
5,855833	0,1	0,094742
5,857500	0,1	0,054163
5,859167	0,1	0,099518
5,860833	0,1	0,068132
5,862500	0,1	0,113947
5,864167	0,1	0,074967
5,865833	0,1	0,088886
5,867500	0,1	0,084522
5,869167	0,1	0,081459
5,870833	0,1	0,069743
5,872500	0,1	0,073694
5,874167	0,1	0,090085
5,875833	0,1	0,106915
5,877500	0,1	0,042781
5,879167	0,1	0,094444
5,880833	0,1	0,104310
5,882500	0,1	0,054228
5,884167	0,1	0,072200
5,885833	0,1	0,074668
5,887500	0,1	0,092177
5,889167	0,1	0,056108
5,890833	0,1	0,086522
5,892500	0,1	0,140755
5,894167	0,1	0,107300
5,895833	0,1	0,042681
5,897500	0,1	0,083581
5,899167	0,1	0,078809
5,900833	0,1	0,075829
5,902500	0,1	0,022725
5,904167	0,1	0,071344
5,905833	0,1	0,028251
5,907500	0,1	0,059571
5,909167	0,1	0,043187
5,910833	0,1	0,075861
5,912500	0,1	0,082554
5,914167	0,1	0,056023
5,915833	0,1	0,052582
5,917500	0,1	0,073049
5,919167	0,1	0,066741
5,920833	0,1	0,057302
5,922500	0,1	0,077665
5,924167	0,1	0,040108
5,925833	0,1	0,065968
5,927500	0,1	0,038990
5,929167	0,1	0,040451
5,930833	0,1	0,090139
5,932500	0,1	0,045575
5,934167	0,1	0,046639
5,935833	0,1	0,091941
5,937500	0,1	0,055675
5,939167	0,1	0,059804
5,940833	0,1	0,049146
5,942500	0,1	0,041428
5,944167	0,1	0,047941
5,945833	0,1	0,050841
5,947500	0,1	0,049497
5,949167	0,1	0,037288
5,950833	0,1	0,047734
5,952500	0,1	0,024873
5,954167	0,1	0,066565
5,955833	0,1	0,061151
5,957500	0,1	0,048673
5,959167	0,1	0,038467
5,960833	0,1	0,048296
5,962500	0,1	0,045609
5,964167	0,1	0,079463
5,965833	0,1	-0,000428
5,967500	0,1	0,072726
5,969167	0,1	0,083691
5,970833	0,1	0,015733
5,972500	0,1	0,049321
5,974167	0,1	0,038756
5,975833	0,1	0,032939
5,977500	0,1	0,053592
5,979167	0,1	0,020216
5,980833	0,1	0,066582
5,982500	0,1	0,068394
5,984167	0,1	0,038078
5,985833	0,1	0,033745
5,987500	0,1	0,045167
5,989167	0,1	0,060216
5,990833	0,1	0,008301
5,992500	0,1	0,031443
5,994167	0,1	0,040097
5,995833	0,1	0,056265
5,997500	0,1	0,022018
5,999167	0,1	0,048292
6,000833	0,1	0,032465
