File Path	chrom://chromeleon01/ikbm_chromeleon/2022/Rezex/Esteban/220612_chitin_4_7.seq/357.smp/UV_VIS_1.channel/UV_VIS_1.chm
Channel	UV_VIS_1

Injection Information:
Data Vault	ikbm_chromeleon
Injection	7_00.5h-EGS_1
Injection Number	100
Position	BA3
Comment	
Processing Method	New ProcMethod
Instrument Method	Short_Rezex_6min_194nm
Type	Unknown
Status	Finished
Injection Date	13.06.2022
Injection Time	03:55:08
Injection Volume (µl)	8,000
Dilution Factor	1,0000
Weight	1,0000

Chromatogram Data Information:
Time Min. (min)	0,000833
Time Max. (min)	6,000833
Data Points	3601
Detector	UV
Generating Data System	Chromeleon 7.2.9.11323
Exporting Data System	Chromeleon 7.2.9.0
Operator	Instrument Controller
Signal Quantity	Absorbance
Signal Unit	mAU
Signal Min.	-0,125527
Signal Max.	131,327223
Channel	UV_VIS_1
Driver Name	VWD3000.dll
Channel Type	Evaluation
Min. Step (s)	0,1
Max. Step (s)	0,1
Average Step (s)	0,1

Signal Parameter Information:
Signal Info	WVL:194 nm

Chromatogram Data:
Time (min)	Step (s)	Value (mAU)
0,000833	n.a.	-0,046299
0,002500	0,1	-0,072352
0,004167	0,1	-0,040697
0,005833	0,1	-0,050558
0,007500	0,1	-0,025999
0,009167	0,1	-0,036548
0,010833	0,1	-0,059414
0,012500	0,1	0,017831
0,014167	0,1	-0,062942
0,015833	0,1	-0,013543
0,017500	0,1	-0,079627
0,019167	0,1	0,001788
0,020833	0,1	-0,028511
0,022500	0,1	-0,030134
0,024167	0,1	-0,039238
0,025833	0,1	-0,063740
0,027500	0,1	-0,101052
0,029167	0,1	-0,092661
0,030833	0,1	-0,067144
0,032500	0,1	-0,084667
0,034167	0,1	-0,067229
0,035833	0,1	-0,097618
0,037500	0,1	-0,082935
0,039167	0,1	-0,075481
0,040833	0,1	-0,091284
0,042500	0,1	-0,122620
0,044167	0,1	-0,125527
0,045833	0,1	-0,088089
0,047500	0,1	-0,077079
0,049167	0,1	-0,057438
0,050833	0,1	-0,097432
0,052500	0,1	-0,082125
0,054167	0,1	-0,106126
0,055833	0,1	-0,019721
0,057500	0,1	-0,075306
0,059167	0,1	-0,025631
0,060833	0,1	-0,029406
0,062500	0,1	-0,062830
0,064167	0,1	-0,077487
0,065833	0,1	-0,044382
0,067500	0,1	-0,042676
0,069167	0,1	-0,065603
0,070833	0,1	-0,069088
0,072500	0,1	-0,061038
0,074167	0,1	-0,057742
0,075833	0,1	-0,045369
0,077500	0,1	-0,033469
0,079167	0,1	-0,051304
0,080833	0,1	-0,037566
0,082500	0,1	-0,028105
0,084167	0,1	-0,007163
0,085833	0,1	-0,057836
0,087500	0,1	-0,021221
0,089167	0,1	-0,063760
0,090833	0,1	0,012717
0,092500	0,1	0,005740
0,094167	0,1	0,046758
0,095833	0,1	-0,025975
0,097500	0,1	-0,006791
0,099167	0,1	-0,012081
0,100833	0,1	-0,007947
0,102500	0,1	-0,020050
0,104167	0,1	-0,040025
0,105833	0,1	-0,031190
0,107500	0,1	-0,050477
0,109167	0,1	-0,020060
0,110833	0,1	-0,040272
0,112500	0,1	-0,117952
0,114167	0,1	-0,041596
0,115833	0,1	-0,062166
0,117500	0,1	-0,053376
0,119167	0,1	-0,035062
0,120833	0,1	-0,056971
0,122500	0,1	-0,067136
0,124167	0,1	-0,095157
0,125833	0,1	-0,067767
0,127500	0,1	-0,047875
0,129167	0,1	-0,014077
0,130833	0,1	-0,108844
0,132500	0,1	-0,040355
0,134167	0,1	-0,067631
0,135833	0,1	-0,023290
0,137500	0,1	-0,026092
0,139167	0,1	-0,043684
0,140833	0,1	-0,071253
0,142500	0,1	-0,033808
0,144167	0,1	0,001570
0,145833	0,1	-0,068923
0,147500	0,1	-0,006052
0,149167	0,1	-0,023916
0,150833	0,1	-0,042901
0,152500	0,1	-0,024567
0,154167	0,1	-0,010763
0,155833	0,1	-0,028246
0,157500	0,1	-0,028209
0,159167	0,1	-0,038929
0,160833	0,1	-0,066989
0,162500	0,1	-0,004150
0,164167	0,1	-0,025761
0,165833	0,1	-0,040476
0,167500	0,1	-0,003812
0,169167	0,1	-0,030251
0,170833	0,1	-0,023077
0,172500	0,1	-0,018085
0,174167	0,1	-0,019243
0,175833	0,1	-0,026424
0,177500	0,1	-0,041056
0,179167	0,1	-0,029557
0,180833	0,1	-0,007823
0,182500	0,1	-0,004154
0,184167	0,1	-0,051647
0,185833	0,1	-0,042925
0,187500	0,1	0,009164
0,189167	0,1	-0,030125
0,190833	0,1	-0,007823
0,192500	0,1	-0,020297
0,194167	0,1	-0,022951
0,195833	0,1	-0,012768
0,197500	0,1	-0,020610
0,199167	0,1	-0,036399
0,200833	0,1	-0,021319
0,202500	0,1	-0,002400
0,204167	0,1	-0,018598
0,205833	0,1	-0,002731
0,207500	0,1	-0,017709
0,209167	0,1	0,001099
0,210833	0,1	-0,021663
0,212500	0,1	0,014134
0,214167	0,1	-0,035959
0,215833	0,1	-0,026613
0,217500	0,1	-0,000332
0,219167	0,1	-0,031101
0,220833	0,1	-0,010783
0,222500	0,1	-0,029444
0,224167	0,1	-0,021480
0,225833	0,1	-0,015439
0,227500	0,1	-0,022574
0,229167	0,1	-0,020280
0,230833	0,1	-0,006373
0,232500	0,1	-0,056594
0,234167	0,1	-0,003320
0,235833	0,1	0,010974
0,237500	0,1	-0,049016
0,239167	0,1	-0,005385
0,240833	0,1	-0,033501
0,242500	0,1	-0,012358
0,244167	0,1	-0,027458
0,245833	0,1	-0,024648
0,247500	0,1	-0,034788
0,249167	0,1	-0,000002
0,250833	0,1	0,012320
0,252500	0,1	-0,000840
0,254167	0,1	-0,022035
0,255833	0,1	0,035513
0,257500	0,1	0,016757
0,259167	0,1	-0,008391
0,260833	0,1	-0,016843
0,262500	0,1	-0,010965
0,264167	0,1	-0,025577
0,265833	0,1	-0,021564
0,267500	0,1	-0,030564
0,269167	0,1	0,006021
0,270833	0,1	-0,030908
0,272500	0,1	0,004053
0,274167	0,1	0,007870
0,275833	0,1	-0,014728
0,277500	0,1	-0,013678
0,279167	0,1	-0,014566
0,280833	0,1	-0,014548
0,282500	0,1	0,008529
0,284167	0,1	-0,031140
0,285833	0,1	0,023798
0,287500	0,1	-0,024636
0,289167	0,1	-0,003747
0,290833	0,1	-0,001278
0,292500	0,1	-0,016820
0,294167	0,1	-0,043726
0,295833	0,1	-0,047852
0,297500	0,1	-0,027157
0,299167	0,1	-0,021794
0,300833	0,1	-0,002338
0,302500	0,1	-0,015599
0,304167	0,1	-0,027644
0,305833	0,1	-0,019663
0,307500	0,1	-0,013761
0,309167	0,1	-0,041966
0,310833	0,1	0,006412
0,312500	0,1	-0,038112
0,314167	0,1	-0,017035
0,315833	0,1	-0,007572
0,317500	0,1	0,029330
0,319167	0,1	-0,007747
0,320833	0,1	-0,025514
0,322500	0,1	-0,004181
0,324167	0,1	-0,031305
0,325833	0,1	0,050434
0,327500	0,1	-0,013662
0,329167	0,1	-0,010761
0,330833	0,1	-0,016719
0,332500	0,1	0,035806
0,334167	0,1	-0,006794
0,335833	0,1	-0,013967
0,337500	0,1	-0,022929
0,339167	0,1	0,039509
0,340833	0,1	-0,004518
0,342500	0,1	0,015071
0,344167	0,1	0,009652
0,345833	0,1	0,001558
0,347500	0,1	-0,008315
0,349167	0,1	0,037587
0,350833	0,1	-0,022025
0,352500	0,1	0,000125
0,354167	0,1	-0,024747
0,355833	0,1	0,039902
0,357500	0,1	0,023834
0,359167	0,1	-0,003115
0,360833	0,1	-0,005335
0,362500	0,1	0,025624
0,364167	0,1	-0,020892
0,365833	0,1	0,022661
0,367500	0,1	0,019919
0,369167	0,1	0,009467
0,370833	0,1	0,016832
0,372500	0,1	0,024907
0,374167	0,1	0,061728
0,375833	0,1	0,001552
0,377500	0,1	0,057127
0,379167	0,1	-0,003811
0,380833	0,1	0,028625
0,382500	0,1	-0,008432
0,384167	0,1	0,003355
0,385833	0,1	0,029104
0,387500	0,1	0,077852
0,389167	0,1	-0,004651
0,390833	0,1	0,015402
0,392500	0,1	0,046327
0,394167	0,1	0,033254
0,395833	0,1	-0,009011
0,397500	0,1	0,013145
0,399167	0,1	0,017269
0,400833	0,1	0,050446
0,402500	0,1	0,015332
0,404167	0,1	0,041650
0,405833	0,1	0,016344
0,407500	0,1	0,035067
0,409167	0,1	0,049580
0,410833	0,1	0,034600
0,412500	0,1	0,054238
0,414167	0,1	0,019638
0,415833	0,1	0,017807
0,417500	0,1	-0,001648
0,419167	0,1	-0,008542
0,420833	0,1	0,015857
0,422500	0,1	0,041297
0,424167	0,1	0,016653
0,425833	0,1	0,014081
0,427500	0,1	0,065575
0,429167	0,1	0,043358
0,430833	0,1	-0,006318
0,432500	0,1	0,077801
0,434167	0,1	0,013268
0,435833	0,1	0,014372
0,437500	0,1	0,043676
0,439167	0,1	0,034101
0,440833	0,1	0,022488
0,442500	0,1	0,062389
0,444167	0,1	0,044289
0,445833	0,1	0,041428
0,447500	0,1	0,058813
0,449167	0,1	0,042177
0,450833	0,1	0,059454
0,452500	0,1	0,043440
0,454167	0,1	0,039276
0,455833	0,1	0,012038
0,457500	0,1	0,024863
0,459167	0,1	0,035609
0,460833	0,1	0,022717
0,462500	0,1	0,052909
0,464167	0,1	0,010842
0,465833	0,1	0,077124
0,467500	0,1	0,070639
0,469167	0,1	0,036903
0,470833	0,1	0,028244
0,472500	0,1	0,003924
0,474167	0,1	0,043882
0,475833	0,1	0,044263
0,477500	0,1	0,037640
0,479167	0,1	0,026381
0,480833	0,1	-0,001770
0,482500	0,1	0,016872
0,484167	0,1	0,077001
0,485833	0,1	0,077097
0,487500	0,1	-0,016575
0,489167	0,1	0,026886
0,490833	0,1	0,031034
0,492500	0,1	-0,007150
0,494167	0,1	0,062693
0,495833	0,1	0,063351
0,497500	0,1	0,023716
0,499167	0,1	0,055538
0,500833	0,1	0,062230
0,502500	0,1	0,030485
0,504167	0,1	0,038465
0,505833	0,1	0,051050
0,507500	0,1	0,034041
0,509167	0,1	0,047841
0,510833	0,1	0,057553
0,512500	0,1	0,039444
0,514167	0,1	0,052045
0,515833	0,1	0,071380
0,517500	0,1	0,056129
0,519167	0,1	0,031683
0,520833	0,1	0,012222
0,522500	0,1	0,044690
0,524167	0,1	0,045091
0,525833	0,1	0,068667
0,527500	0,1	0,062607
0,529167	0,1	0,036444
0,530833	0,1	0,064917
0,532500	0,1	0,044601
0,534167	0,1	0,019781
0,535833	0,1	0,031839
0,537500	0,1	0,059783
0,539167	0,1	0,087920
0,540833	0,1	0,054146
0,542500	0,1	0,043894
0,544167	0,1	0,044658
0,545833	0,1	0,076592
0,547500	0,1	0,043940
0,549167	0,1	0,095429
0,550833	0,1	0,103578
0,552500	0,1	0,051190
0,554167	0,1	0,058691
0,555833	0,1	0,045365
0,557500	0,1	0,109501
0,559167	0,1	0,067442
0,560833	0,1	0,079848
0,562500	0,1	0,081217
0,564167	0,1	0,067392
0,565833	0,1	0,078585
0,567500	0,1	0,072213
0,569167	0,1	0,091419
0,570833	0,1	0,080290
0,572500	0,1	0,044831
0,574167	0,1	0,058587
0,575833	0,1	0,060204
0,577500	0,1	0,064179
0,579167	0,1	0,110997
0,580833	0,1	0,074251
0,582500	0,1	0,088565
0,584167	0,1	0,056280
0,585833	0,1	0,075106
0,587500	0,1	0,081818
0,589167	0,1	0,078674
0,590833	0,1	0,102597
0,592500	0,1	0,082217
0,594167	0,1	0,076209
0,595833	0,1	0,073641
0,597500	0,1	0,089661
0,599167	0,1	0,076545
0,600833	0,1	0,096328
0,602500	0,1	0,107428
0,604167	0,1	0,087765
0,605833	0,1	0,087409
0,607500	0,1	0,069318
0,609167	0,1	0,151411
0,610833	0,1	0,040896
0,612500	0,1	0,133288
0,614167	0,1	0,067444
0,615833	0,1	0,083411
0,617500	0,1	0,127006
0,619167	0,1	0,126045
0,620833	0,1	0,084665
0,622500	0,1	0,101980
0,624167	0,1	0,112023
0,625833	0,1	0,094432
0,627500	0,1	0,139014
0,629167	0,1	0,082992
0,630833	0,1	0,100883
0,632500	0,1	0,101342
0,634167	0,1	0,128645
0,635833	0,1	0,078355
0,637500	0,1	0,132905
0,639167	0,1	0,101101
0,640833	0,1	0,152577
0,642500	0,1	0,163352
0,644167	0,1	0,112305
0,645833	0,1	0,120225
0,647500	0,1	0,155001
0,649167	0,1	0,145843
0,650833	0,1	0,131638
0,652500	0,1	0,151670
0,654167	0,1	0,132445
0,655833	0,1	0,119754
0,657500	0,1	0,132749
0,659167	0,1	0,141778
0,660833	0,1	0,147868
0,662500	0,1	0,153496
0,664167	0,1	0,186784
0,665833	0,1	0,183857
0,667500	0,1	0,149037
0,669167	0,1	0,103011
0,670833	0,1	0,163011
0,672500	0,1	0,139944
0,674167	0,1	0,158778
0,675833	0,1	0,165567
0,677500	0,1	0,146800
0,679167	0,1	0,145177
0,680833	0,1	0,145819
0,682500	0,1	0,191235
0,684167	0,1	0,174068
0,685833	0,1	0,137546
0,687500	0,1	0,163473
0,689167	0,1	0,175079
0,690833	0,1	0,175097
0,692500	0,1	0,132433
0,694167	0,1	0,173334
0,695833	0,1	0,191127
0,697500	0,1	0,149186
0,699167	0,1	0,239337
0,700833	0,1	0,174117
0,702500	0,1	0,241143
0,704167	0,1	0,176975
0,705833	0,1	0,188159
0,707500	0,1	0,213407
0,709167	0,1	0,177054
0,710833	0,1	0,234913
0,712500	0,1	0,266317
0,714167	0,1	0,200563
0,715833	0,1	0,264156
0,717500	0,1	0,238294
0,719167	0,1	0,237295
0,720833	0,1	0,230498
0,722500	0,1	0,213166
0,724167	0,1	0,228338
0,725833	0,1	0,234320
0,727500	0,1	0,246064
0,729167	0,1	0,220770
0,730833	0,1	0,285067
0,732500	0,1	0,305135
0,734167	0,1	0,255674
0,735833	0,1	0,285970
0,737500	0,1	0,276889
0,739167	0,1	0,295114
0,740833	0,1	0,259822
0,742500	0,1	0,278998
0,744167	0,1	0,292746
0,745833	0,1	0,285172
0,747500	0,1	0,254259
0,749167	0,1	0,339217
0,750833	0,1	0,301324
0,752500	0,1	0,308829
0,754167	0,1	0,298559
0,755833	0,1	0,323341
0,757500	0,1	0,297440
0,759167	0,1	0,333187
0,760833	0,1	0,317508
0,762500	0,1	0,311237
0,764167	0,1	0,289996
0,765833	0,1	0,311429
0,767500	0,1	0,290088
0,769167	0,1	0,327571
0,770833	0,1	0,303725
0,772500	0,1	0,291911
0,774167	0,1	0,362664
0,775833	0,1	0,290894
0,777500	0,1	0,325426
0,779167	0,1	0,301004
0,780833	0,1	0,349374
0,782500	0,1	0,338669
0,784167	0,1	0,315068
0,785833	0,1	0,318108
0,787500	0,1	0,332749
0,789167	0,1	0,306323
0,790833	0,1	0,269053
0,792500	0,1	0,290972
0,794167	0,1	0,264669
0,795833	0,1	0,294823
0,797500	0,1	0,303338
0,799167	0,1	0,299614
0,800833	0,1	0,283339
0,802500	0,1	0,299331
0,804167	0,1	0,322987
0,805833	0,1	0,284917
0,807500	0,1	0,308961
0,809167	0,1	0,313423
0,810833	0,1	0,324013
0,812500	0,1	0,281507
0,814167	0,1	0,309846
0,815833	0,1	0,276533
0,817500	0,1	0,283786
0,819167	0,1	0,295027
0,820833	0,1	0,283310
0,822500	0,1	0,301700
0,824167	0,1	0,305265
0,825833	0,1	0,295348
0,827500	0,1	0,298755
0,829167	0,1	0,301539
0,830833	0,1	0,251720
0,832500	0,1	0,300734
0,834167	0,1	0,315701
0,835833	0,1	0,330180
0,837500	0,1	0,286329
0,839167	0,1	0,291717
0,840833	0,1	0,332327
0,842500	0,1	0,293591
0,844167	0,1	0,313284
0,845833	0,1	0,297276
0,847500	0,1	0,307769
0,849167	0,1	0,300421
0,850833	0,1	0,334353
0,852500	0,1	0,270797
0,854167	0,1	0,312003
0,855833	0,1	0,272629
0,857500	0,1	0,263910
0,859167	0,1	0,295212
0,860833	0,1	0,307768
0,862500	0,1	0,288828
0,864167	0,1	0,323627
0,865833	0,1	0,293841
0,867500	0,1	0,276175
0,869167	0,1	0,297330
0,870833	0,1	0,346390
0,872500	0,1	0,299814
0,874167	0,1	0,317463
0,875833	0,1	0,294909
0,877500	0,1	0,326288
0,879167	0,1	0,311691
0,880833	0,1	0,305078
0,882500	0,1	0,311977
0,884167	0,1	0,298007
0,885833	0,1	0,284143
0,887500	0,1	0,317433
0,889167	0,1	0,317784
0,890833	0,1	0,290693
0,892500	0,1	0,327706
0,894167	0,1	0,285082
0,895833	0,1	0,306131
0,897500	0,1	0,335089
0,899167	0,1	0,313619
0,900833	0,1	0,343535
0,902500	0,1	0,326879
0,904167	0,1	0,298573
0,905833	0,1	0,358399
0,907500	0,1	0,321971
0,909167	0,1	0,302756
0,910833	0,1	0,317881
0,912500	0,1	0,326392
0,914167	0,1	0,312361
0,915833	0,1	0,315413
0,917500	0,1	0,320768
0,919167	0,1	0,324368
0,920833	0,1	0,296121
0,922500	0,1	0,352004
0,924167	0,1	0,327658
0,925833	0,1	0,379333
0,927500	0,1	0,338478
0,929167	0,1	0,313683
0,930833	0,1	0,325360
0,932500	0,1	0,318237
0,934167	0,1	0,303533
0,935833	0,1	0,359386
0,937500	0,1	0,335517
0,939167	0,1	0,291592
0,940833	0,1	0,314921
0,942500	0,1	0,317014
0,944167	0,1	0,278812
0,945833	0,1	0,362337
0,947500	0,1	0,329739
0,949167	0,1	0,359329
0,950833	0,1	0,385761
0,952500	0,1	0,390614
0,954167	0,1	0,344796
0,955833	0,1	0,374137
0,957500	0,1	0,389200
0,959167	0,1	0,365637
0,960833	0,1	0,363317
0,962500	0,1	0,381141
0,964167	0,1	0,367788
0,965833	0,1	0,380978
0,967500	0,1	0,371414
0,969167	0,1	0,395396
0,970833	0,1	0,379604
0,972500	0,1	0,411224
0,974167	0,1	0,347242
0,975833	0,1	0,393879
0,977500	0,1	0,409656
0,979167	0,1	0,420640
0,980833	0,1	0,428348
0,982500	0,1	0,425431
0,984167	0,1	0,443794
0,985833	0,1	0,417661
0,987500	0,1	0,416498
0,989167	0,1	0,435061
0,990833	0,1	0,443094
0,992500	0,1	0,421259
0,994167	0,1	0,468999
0,995833	0,1	0,437961
0,997500	0,1	0,400131
0,999167	0,1	0,455795
1,000833	0,1	0,473793
1,002500	0,1	0,457902
1,004167	0,1	0,463580
1,005833	0,1	0,497878
1,007500	0,1	0,488158
1,009167	0,1	0,514455
1,010833	0,1	0,538388
1,012500	0,1	0,493272
1,014167	0,1	0,502574
1,015833	0,1	0,512501
1,017500	0,1	0,532060
1,019167	0,1	0,536466
1,020833	0,1	0,547835
1,022500	0,1	0,566947
1,024167	0,1	0,564897
1,025833	0,1	0,604467
1,027500	0,1	0,596225
1,029167	0,1	0,603125
1,030833	0,1	0,584403
1,032500	0,1	0,627665
1,034167	0,1	0,633812
1,035833	0,1	0,609081
1,037500	0,1	0,626580
1,039167	0,1	0,672584
1,040833	0,1	0,682458
1,042500	0,1	0,674590
1,044167	0,1	0,693895
1,045833	0,1	0,726158
1,047500	0,1	0,697185
1,049167	0,1	0,698015
1,050833	0,1	0,756493
1,052500	0,1	0,759952
1,054167	0,1	0,815373
1,055833	0,1	0,859973
1,057500	0,1	0,953737
1,059167	0,1	0,962140
1,060833	0,1	1,048460
1,062500	0,1	1,199164
1,064167	0,1	1,386661
1,065833	0,1	1,592492
1,067500	0,1	1,858744
1,069167	0,1	2,215817
1,070833	0,1	2,651159
1,072500	0,1	3,199093
1,074167	0,1	3,831535
1,075833	0,1	4,600094
1,077500	0,1	5,483213
1,079167	0,1	6,568431
1,080833	0,1	7,776235
1,082500	0,1	9,118827
1,084167	0,1	10,682758
1,085833	0,1	12,378985
1,087500	0,1	14,169297
1,089167	0,1	16,032208
1,090833	0,1	18,095646
1,092500	0,1	20,181284
1,094167	0,1	22,278364
1,095833	0,1	24,443601
1,097500	0,1	26,552159
1,099167	0,1	28,611610
1,100833	0,1	30,537969
1,102500	0,1	32,386106
1,104167	0,1	34,061338
1,105833	0,1	35,592134
1,107500	0,1	36,941956
1,109167	0,1	38,178741
1,110833	0,1	39,186548
1,112500	0,1	40,041845
1,114167	0,1	40,695650
1,115833	0,1	41,229824
1,117500	0,1	41,595171
1,119167	0,1	41,840603
1,120833	0,1	41,970951
1,122500	0,1	42,090546
1,124167	0,1	42,024882
1,125833	0,1	41,995247
1,127500	0,1	41,920275
1,129167	0,1	41,837724
1,130833	0,1	41,710351
1,132500	0,1	41,666571
1,134167	0,1	41,584941
1,135833	0,1	41,626999
1,137500	0,1	41,703466
1,139167	0,1	41,791306
1,140833	0,1	42,025673
1,142500	0,1	42,316267
1,144167	0,1	42,689643
1,145833	0,1	43,221162
1,147500	0,1	43,784462
1,149167	0,1	44,457585
1,150833	0,1	45,346148
1,152500	0,1	46,247649
1,154167	0,1	47,302406
1,155833	0,1	48,434478
1,157500	0,1	49,640948
1,159167	0,1	50,910549
1,160833	0,1	52,310499
1,162500	0,1	53,679446
1,164167	0,1	55,114724
1,165833	0,1	56,607040
1,167500	0,1	58,035938
1,169167	0,1	59,482986
1,170833	0,1	60,894709
1,172500	0,1	62,254696
1,174167	0,1	63,530373
1,175833	0,1	64,739221
1,177500	0,1	65,873426
1,179167	0,1	66,886359
1,180833	0,1	67,814692
1,182500	0,1	68,642024
1,184167	0,1	69,361526
1,185833	0,1	69,970550
1,187500	0,1	70,467796
1,189167	0,1	70,900365
1,190833	0,1	71,277898
1,192500	0,1	71,560281
1,194167	0,1	71,822156
1,195833	0,1	72,045037
1,197500	0,1	72,284362
1,199167	0,1	72,583634
1,200833	0,1	72,915943
1,202500	0,1	73,284309
1,204167	0,1	73,830200
1,205833	0,1	74,495448
1,207500	0,1	75,331438
1,209167	0,1	76,324216
1,210833	0,1	77,576198
1,212500	0,1	79,012038
1,214167	0,1	80,610252
1,215833	0,1	82,541492
1,217500	0,1	84,564067
1,219167	0,1	86,875912
1,220833	0,1	89,330816
1,222500	0,1	91,994570
1,224167	0,1	94,762123
1,225833	0,1	97,663951
1,227500	0,1	100,578391
1,229167	0,1	103,616370
1,230833	0,1	106,584174
1,232500	0,1	109,472026
1,234167	0,1	112,365411
1,235833	0,1	115,100550
1,237500	0,1	117,652211
1,239167	0,1	120,111763
1,240833	0,1	122,324770
1,242500	0,1	124,380305
1,244167	0,1	126,060704
1,245833	0,1	127,621231
1,247500	0,1	128,864577
1,249167	0,1	129,934977
1,250833	0,1	130,638392
1,252500	0,1	131,125061
1,254167	0,1	131,327223
1,255833	0,1	131,259734
1,257500	0,1	130,967971
1,259167	0,1	130,412697
1,260833	0,1	129,641924
1,262500	0,1	128,598911
1,264167	0,1	127,335620
1,265833	0,1	125,909941
1,267500	0,1	124,296290
1,269167	0,1	122,428304
1,270833	0,1	120,385425
1,272500	0,1	118,284814
1,274167	0,1	115,959135
1,275833	0,1	113,526455
1,277500	0,1	111,039481
1,279167	0,1	108,421481
1,280833	0,1	105,703217
1,282500	0,1	102,920113
1,284167	0,1	100,163371
1,285833	0,1	97,323078
1,287500	0,1	94,509335
1,289167	0,1	91,676011
1,290833	0,1	88,819109
1,292500	0,1	86,034650
1,294167	0,1	83,268622
1,295833	0,1	80,529867
1,297500	0,1	77,881425
1,299167	0,1	75,259414
1,300833	0,1	72,713790
1,302500	0,1	70,240596
1,304167	0,1	67,859219
1,305833	0,1	65,512209
1,307500	0,1	63,249199
1,309167	0,1	61,075357
1,310833	0,1	58,972277
1,312500	0,1	56,911029
1,314167	0,1	55,048973
1,315833	0,1	53,152170
1,317500	0,1	51,308043
1,319167	0,1	49,619708
1,320833	0,1	47,960432
1,322500	0,1	46,357403
1,324167	0,1	44,832478
1,325833	0,1	43,332323
1,327500	0,1	41,938934
1,329167	0,1	40,633358
1,330833	0,1	39,316816
1,332500	0,1	38,062804
1,334167	0,1	36,869682
1,335833	0,1	35,707002
1,337500	0,1	34,623400
1,339167	0,1	33,539183
1,340833	0,1	32,494303
1,342500	0,1	31,529710
1,344167	0,1	30,564259
1,345833	0,1	29,667450
1,347500	0,1	28,771673
1,349167	0,1	27,939707
1,350833	0,1	27,097941
1,352500	0,1	26,334957
1,354167	0,1	25,596664
1,355833	0,1	24,838587
1,357500	0,1	24,159792
1,359167	0,1	23,476609
1,360833	0,1	22,795323
1,362500	0,1	22,185552
1,364167	0,1	21,580114
1,365833	0,1	20,961919
1,367500	0,1	20,429448
1,369167	0,1	19,877442
1,370833	0,1	19,353003
1,372500	0,1	18,816413
1,374167	0,1	18,370283
1,375833	0,1	17,887889
1,377500	0,1	17,392958
1,379167	0,1	17,016982
1,380833	0,1	16,592657
1,382500	0,1	16,174459
1,384167	0,1	15,792050
1,385833	0,1	15,435249
1,387500	0,1	15,035319
1,389167	0,1	14,743495
1,390833	0,1	14,410261
1,392500	0,1	14,082612
1,394167	0,1	13,787566
1,395833	0,1	13,486561
1,397500	0,1	13,229155
1,399167	0,1	12,962393
1,400833	0,1	12,665463
1,402500	0,1	12,460814
1,404167	0,1	12,237364
1,405833	0,1	12,020730
1,407500	0,1	11,803534
1,409167	0,1	11,597349
1,410833	0,1	11,407058
1,412500	0,1	11,178821
1,414167	0,1	11,049157
1,415833	0,1	10,883158
1,417500	0,1	10,724006
1,419167	0,1	10,555828
1,420833	0,1	10,372865
1,422500	0,1	10,271716
1,424167	0,1	10,120802
1,425833	0,1	9,989350
1,427500	0,1	9,850811
1,429167	0,1	9,710088
1,430833	0,1	9,612511
1,432500	0,1	9,468533
1,434167	0,1	9,361363
1,435833	0,1	9,264851
1,437500	0,1	9,155433
1,439167	0,1	9,038491
1,440833	0,1	8,941663
1,442500	0,1	8,843420
1,444167	0,1	8,764966
1,445833	0,1	8,601978
1,447500	0,1	8,536607
1,449167	0,1	8,462541
1,450833	0,1	8,352027
1,452500	0,1	8,276400
1,454167	0,1	8,180989
1,455833	0,1	8,090697
1,457500	0,1	8,028574
1,459167	0,1	7,956859
1,460833	0,1	7,887868
1,462500	0,1	7,813564
1,464167	0,1	7,735367
1,465833	0,1	7,656904
1,467500	0,1	7,608003
1,469167	0,1	7,555957
1,470833	0,1	7,528792
1,472500	0,1	7,431648
1,474167	0,1	7,427144
1,475833	0,1	7,360128
1,477500	0,1	7,405592
1,479167	0,1	7,328435
1,480833	0,1	7,336135
1,482500	0,1	7,273138
1,484167	0,1	7,265024
1,485833	0,1	7,257197
1,487500	0,1	7,284209
1,489167	0,1	7,272481
1,490833	0,1	7,280298
1,492500	0,1	7,293348
1,494167	0,1	7,308456
1,495833	0,1	7,300820
1,497500	0,1	7,340144
1,499167	0,1	7,344914
1,500833	0,1	7,371463
1,502500	0,1	7,395066
1,504167	0,1	7,475063
1,505833	0,1	7,455959
1,507500	0,1	7,474038
1,509167	0,1	7,484418
1,510833	0,1	7,521522
1,512500	0,1	7,567225
1,514167	0,1	7,550559
1,515833	0,1	7,534315
1,517500	0,1	7,634003
1,519167	0,1	7,613393
1,520833	0,1	7,657056
1,522500	0,1	7,667428
1,524167	0,1	7,637231
1,525833	0,1	7,670621
1,527500	0,1	7,677696
1,529167	0,1	7,670891
1,530833	0,1	7,653335
1,532500	0,1	7,674234
1,534167	0,1	7,683017
1,535833	0,1	7,681692
1,537500	0,1	7,625367
1,539167	0,1	7,681498
1,540833	0,1	7,694186
1,542500	0,1	7,638044
1,544167	0,1	7,632251
1,545833	0,1	7,538729
1,547500	0,1	7,561911
1,549167	0,1	7,520244
1,550833	0,1	7,485536
1,552500	0,1	7,474894
1,554167	0,1	7,447303
1,555833	0,1	7,436760
1,557500	0,1	7,440850
1,559167	0,1	7,343265
1,560833	0,1	7,324395
1,562500	0,1	7,278637
1,564167	0,1	7,217213
1,565833	0,1	7,207878
1,567500	0,1	7,152620
1,569167	0,1	7,101560
1,570833	0,1	7,106013
1,572500	0,1	7,044352
1,574167	0,1	6,995532
1,575833	0,1	6,970934
1,577500	0,1	6,899784
1,579167	0,1	6,869785
1,580833	0,1	6,834400
1,582500	0,1	6,774244
1,584167	0,1	6,766509
1,585833	0,1	6,692974
1,587500	0,1	6,650903
1,589167	0,1	6,583966
1,590833	0,1	6,555214
1,592500	0,1	6,457338
1,594167	0,1	6,427545
1,595833	0,1	6,407445
1,597500	0,1	6,310049
1,599167	0,1	6,288297
1,600833	0,1	6,273111
1,602500	0,1	6,214376
1,604167	0,1	6,206832
1,605833	0,1	6,145192
1,607500	0,1	6,068021
1,609167	0,1	6,019495
1,610833	0,1	5,954631
1,612500	0,1	5,962894
1,614167	0,1	5,890499
1,615833	0,1	5,833083
1,617500	0,1	5,782181
1,619167	0,1	5,730794
1,620833	0,1	5,666236
1,622500	0,1	5,676746
1,624167	0,1	5,612909
1,625833	0,1	5,590818
1,627500	0,1	5,552583
1,629167	0,1	5,527450
1,630833	0,1	5,488461
1,632500	0,1	5,423966
1,634167	0,1	5,388521
1,635833	0,1	5,364700
1,637500	0,1	5,272594
1,639167	0,1	5,266581
1,640833	0,1	5,248340
1,642500	0,1	5,224141
1,644167	0,1	5,173749
1,645833	0,1	5,136139
1,647500	0,1	5,107456
1,649167	0,1	5,124693
1,650833	0,1	5,061310
1,652500	0,1	5,043068
1,654167	0,1	5,022860
1,655833	0,1	5,008715
1,657500	0,1	4,930873
1,659167	0,1	5,000852
1,660833	0,1	4,945879
1,662500	0,1	4,931026
1,664167	0,1	4,921144
1,665833	0,1	4,924615
1,667500	0,1	4,935395
1,669167	0,1	4,922870
1,670833	0,1	4,962083
1,672500	0,1	4,947785
1,674167	0,1	5,007880
1,675833	0,1	4,973471
1,677500	0,1	5,044825
1,679167	0,1	5,076699
1,680833	0,1	5,087065
1,682500	0,1	5,090199
1,684167	0,1	5,152518
1,685833	0,1	5,230611
1,687500	0,1	5,299348
1,689167	0,1	5,329495
1,690833	0,1	5,408855
1,692500	0,1	5,455362
1,694167	0,1	5,514754
1,695833	0,1	5,582649
1,697500	0,1	5,627332
1,699167	0,1	5,702261
1,700833	0,1	5,808542
1,702500	0,1	5,870005
1,704167	0,1	5,920423
1,705833	0,1	6,063085
1,707500	0,1	6,096743
1,709167	0,1	6,165336
1,710833	0,1	6,261837
1,712500	0,1	6,336543
1,714167	0,1	6,381370
1,715833	0,1	6,491254
1,717500	0,1	6,585055
1,719167	0,1	6,613555
1,720833	0,1	6,658681
1,722500	0,1	6,737909
1,724167	0,1	6,805418
1,725833	0,1	6,824133
1,727500	0,1	6,853931
1,729167	0,1	6,952927
1,730833	0,1	6,990761
1,732500	0,1	7,042740
1,734167	0,1	7,080012
1,735833	0,1	7,079837
1,737500	0,1	7,093718
1,739167	0,1	7,158560
1,740833	0,1	7,128206
1,742500	0,1	7,143470
1,744167	0,1	7,179162
1,745833	0,1	7,154945
1,747500	0,1	7,131466
1,749167	0,1	7,155491
1,750833	0,1	7,133883
1,752500	0,1	7,133507
1,754167	0,1	7,121765
1,755833	0,1	7,051063
1,757500	0,1	7,060636
1,759167	0,1	7,003825
1,760833	0,1	7,000925
1,762500	0,1	6,942625
1,764167	0,1	6,889342
1,765833	0,1	6,880955
1,767500	0,1	6,813545
1,769167	0,1	6,745576
1,770833	0,1	6,674358
1,772500	0,1	6,612365
1,774167	0,1	6,553548
1,775833	0,1	6,508408
1,777500	0,1	6,465974
1,779167	0,1	6,392488
1,780833	0,1	6,290428
1,782500	0,1	6,262258
1,784167	0,1	6,213441
1,785833	0,1	6,115724
1,787500	0,1	6,031245
1,789167	0,1	5,966518
1,790833	0,1	5,854015
1,792500	0,1	5,803641
1,794167	0,1	5,784037
1,795833	0,1	5,662196
1,797500	0,1	5,582295
1,799167	0,1	5,573330
1,800833	0,1	5,455254
1,802500	0,1	5,379506
1,804167	0,1	5,287131
1,805833	0,1	5,195784
1,807500	0,1	5,083480
1,809167	0,1	5,065816
1,810833	0,1	5,003846
1,812500	0,1	4,916879
1,814167	0,1	4,874091
1,815833	0,1	4,769588
1,817500	0,1	4,711509
1,819167	0,1	4,645731
1,820833	0,1	4,532773
1,822500	0,1	4,506855
1,824167	0,1	4,441918
1,825833	0,1	4,364577
1,827500	0,1	4,323412
1,829167	0,1	4,225613
1,830833	0,1	4,180005
1,832500	0,1	4,132472
1,834167	0,1	4,026128
1,835833	0,1	3,994545
1,837500	0,1	3,995557
1,839167	0,1	3,905719
1,840833	0,1	3,898294
1,842500	0,1	3,865453
1,844167	0,1	3,823140
1,845833	0,1	3,741810
1,847500	0,1	3,753721
1,849167	0,1	3,781617
1,850833	0,1	3,762222
1,852500	0,1	3,765266
1,854167	0,1	3,784663
1,855833	0,1	3,793538
1,857500	0,1	3,801181
1,859167	0,1	3,852753
1,860833	0,1	3,893750
1,862500	0,1	3,878146
1,864167	0,1	3,973097
1,865833	0,1	4,011728
1,867500	0,1	4,045685
1,869167	0,1	4,109077
1,870833	0,1	4,141356
1,872500	0,1	4,140877
1,874167	0,1	4,286628
1,875833	0,1	4,310798
1,877500	0,1	4,297197
1,879167	0,1	4,356482
1,880833	0,1	4,439486
1,882500	0,1	4,463933
1,884167	0,1	4,485135
1,885833	0,1	4,545656
1,887500	0,1	4,557741
1,889167	0,1	4,569467
1,890833	0,1	4,614562
1,892500	0,1	4,663733
1,894167	0,1	4,661068
1,895833	0,1	4,695886
1,897500	0,1	4,741940
1,899167	0,1	4,777191
1,900833	0,1	4,791785
1,902500	0,1	4,803016
1,904167	0,1	4,848261
1,905833	0,1	4,887594
1,907500	0,1	4,892908
1,909167	0,1	4,885061
1,910833	0,1	4,951356
1,912500	0,1	4,951653
1,914167	0,1	4,974616
1,915833	0,1	4,997503
1,917500	0,1	5,045395
1,919167	0,1	4,996049
1,920833	0,1	5,069916
1,922500	0,1	5,079981
1,924167	0,1	5,114470
1,925833	0,1	5,113998
1,927500	0,1	5,137988
1,929167	0,1	5,145669
1,930833	0,1	5,141042
1,932500	0,1	5,160999
1,934167	0,1	5,176076
1,935833	0,1	5,185279
1,937500	0,1	5,170349
1,939167	0,1	5,210541
1,940833	0,1	5,164598
1,942500	0,1	5,207467
1,944167	0,1	5,204483
1,945833	0,1	5,189552
1,947500	0,1	5,196659
1,949167	0,1	5,203491
1,950833	0,1	5,218883
1,952500	0,1	5,223006
1,954167	0,1	5,236950
1,955833	0,1	5,229337
1,957500	0,1	5,268058
1,959167	0,1	5,217966
1,960833	0,1	5,262279
1,962500	0,1	5,286224
1,964167	0,1	5,280666
1,965833	0,1	5,268251
1,967500	0,1	5,277192
1,969167	0,1	5,293029
1,970833	0,1	5,346455
1,972500	0,1	5,320919
1,974167	0,1	5,343053
1,975833	0,1	5,371685
1,977500	0,1	5,359329
1,979167	0,1	5,386408
1,980833	0,1	5,407875
1,982500	0,1	5,421582
1,984167	0,1	5,436942
1,985833	0,1	5,445085
1,987500	0,1	5,495674
1,989167	0,1	5,512579
1,990833	0,1	5,536296
1,992500	0,1	5,548518
1,994167	0,1	5,594007
1,995833	0,1	5,621640
1,997500	0,1	5,583716
1,999167	0,1	5,645510
2,000833	0,1	5,662965
2,002500	0,1	5,696877
2,004167	0,1	5,781218
2,005833	0,1	5,737875
2,007500	0,1	5,831219
2,009167	0,1	5,848058
2,010833	0,1	5,939769
2,012500	0,1	5,934924
2,014167	0,1	5,949496
2,015833	0,1	5,955193
2,017500	0,1	6,024153
2,019167	0,1	6,022988
2,020833	0,1	6,107499
2,022500	0,1	6,111322
2,024167	0,1	6,213428
2,025833	0,1	6,211745
2,027500	0,1	6,253217
2,029167	0,1	6,317173
2,030833	0,1	6,332482
2,032500	0,1	6,430210
2,034167	0,1	6,460934
2,035833	0,1	6,435061
2,037500	0,1	6,489580
2,039167	0,1	6,550445
2,040833	0,1	6,593172
2,042500	0,1	6,633457
2,044167	0,1	6,659239
2,045833	0,1	6,746096
2,047500	0,1	6,752252
2,049167	0,1	6,831858
2,050833	0,1	6,887925
2,052500	0,1	6,943251
2,054167	0,1	6,945870
2,055833	0,1	7,008176
2,057500	0,1	7,057650
2,059167	0,1	7,082720
2,060833	0,1	7,136294
2,062500	0,1	7,173764
2,064167	0,1	7,268890
2,065833	0,1	7,250478
2,067500	0,1	7,277589
2,069167	0,1	7,337144
2,070833	0,1	7,390870
2,072500	0,1	7,410642
2,074167	0,1	7,431157
2,075833	0,1	7,527950
2,077500	0,1	7,520045
2,079167	0,1	7,572255
2,080833	0,1	7,579562
2,082500	0,1	7,683157
2,084167	0,1	7,675078
2,085833	0,1	7,671351
2,087500	0,1	7,770538
2,089167	0,1	7,769533
2,090833	0,1	7,780806
2,092500	0,1	7,848896
2,094167	0,1	7,873400
2,095833	0,1	7,897939
2,097500	0,1	7,901573
2,099167	0,1	7,969815
2,100833	0,1	7,925609
2,102500	0,1	7,976924
2,104167	0,1	7,973754
2,105833	0,1	8,016325
2,107500	0,1	8,069155
2,109167	0,1	8,078252
2,110833	0,1	8,114006
2,112500	0,1	8,098884
2,114167	0,1	8,128931
2,115833	0,1	8,143874
2,117500	0,1	8,138845
2,119167	0,1	8,190467
2,120833	0,1	8,156718
2,122500	0,1	8,164913
2,124167	0,1	8,184849
2,125833	0,1	8,197347
2,127500	0,1	8,207058
2,129167	0,1	8,212487
2,130833	0,1	8,226559
2,132500	0,1	8,219568
2,134167	0,1	8,192502
2,135833	0,1	8,240659
2,137500	0,1	8,204275
2,139167	0,1	8,248133
2,140833	0,1	8,209783
2,142500	0,1	8,180697
2,144167	0,1	8,248897
2,145833	0,1	8,196951
2,147500	0,1	8,228319
2,149167	0,1	8,180261
2,150833	0,1	8,233069
2,152500	0,1	8,153970
2,154167	0,1	8,224978
2,155833	0,1	8,151481
2,157500	0,1	8,191813
2,159167	0,1	8,167241
2,160833	0,1	8,110320
2,162500	0,1	8,155375
2,164167	0,1	8,099826
2,165833	0,1	8,092362
2,167500	0,1	8,105171
2,169167	0,1	8,102444
2,170833	0,1	8,120711
2,172500	0,1	8,041176
2,174167	0,1	8,087657
2,175833	0,1	8,004378
2,177500	0,1	8,011839
2,179167	0,1	7,999081
2,180833	0,1	7,993931
2,182500	0,1	7,942034
2,184167	0,1	7,946385
2,185833	0,1	7,927925
2,187500	0,1	7,879563
2,189167	0,1	7,878536
2,190833	0,1	7,921737
2,192500	0,1	7,856444
2,194167	0,1	7,856305
2,195833	0,1	7,801534
2,197500	0,1	7,805536
2,199167	0,1	7,760204
2,200833	0,1	7,796638
2,202500	0,1	7,742195
2,204167	0,1	7,698801
2,205833	0,1	7,730609
2,207500	0,1	7,755025
2,209167	0,1	7,758876
2,210833	0,1	7,698528
2,212500	0,1	7,688611
2,214167	0,1	7,686285
2,215833	0,1	7,687966
2,217500	0,1	7,734298
2,219167	0,1	7,689552
2,220833	0,1	7,681052
2,222500	0,1	7,729725
2,224167	0,1	7,723421
2,225833	0,1	7,658388
2,227500	0,1	7,695122
2,229167	0,1	7,714646
2,230833	0,1	7,720345
2,232500	0,1	7,705007
2,234167	0,1	7,727815
2,235833	0,1	7,756427
2,237500	0,1	7,786874
2,239167	0,1	7,787051
2,240833	0,1	7,792749
2,242500	0,1	7,826895
2,244167	0,1	7,842038
2,245833	0,1	7,861516
2,247500	0,1	7,822063
2,249167	0,1	7,861925
2,250833	0,1	7,854470
2,252500	0,1	7,876847
2,254167	0,1	7,899344
2,255833	0,1	7,885183
2,257500	0,1	7,889850
2,259167	0,1	7,894467
2,260833	0,1	7,884140
2,262500	0,1	7,878731
2,264167	0,1	7,941893
2,265833	0,1	7,968157
2,267500	0,1	7,912654
2,269167	0,1	7,959445
2,270833	0,1	7,939758
2,272500	0,1	7,926771
2,274167	0,1	7,926239
2,275833	0,1	7,950037
2,277500	0,1	7,950794
2,279167	0,1	7,912705
2,280833	0,1	7,916047
2,282500	0,1	7,896655
2,284167	0,1	7,883849
2,285833	0,1	7,909507
2,287500	0,1	7,884811
2,289167	0,1	7,882734
2,290833	0,1	7,862288
2,292500	0,1	7,791872
2,294167	0,1	7,808861
2,295833	0,1	7,776353
2,297500	0,1	7,797125
2,299167	0,1	7,774548
2,300833	0,1	7,762616
2,302500	0,1	7,770984
2,304167	0,1	7,704953
2,305833	0,1	7,693087
2,307500	0,1	7,656529
2,309167	0,1	7,637939
2,310833	0,1	7,602236
2,312500	0,1	7,557565
2,314167	0,1	7,606924
2,315833	0,1	7,517835
2,317500	0,1	7,525542
2,319167	0,1	7,502230
2,320833	0,1	7,467733
2,322500	0,1	7,450551
2,324167	0,1	7,439733
2,325833	0,1	7,377742
2,327500	0,1	7,346140
2,329167	0,1	7,294668
2,330833	0,1	7,273050
2,332500	0,1	7,263156
2,334167	0,1	7,180969
2,335833	0,1	7,207215
2,337500	0,1	7,150856
2,339167	0,1	7,115161
2,340833	0,1	7,120838
2,342500	0,1	7,129036
2,344167	0,1	7,061962
2,345833	0,1	7,059521
2,347500	0,1	7,004385
2,349167	0,1	6,976524
2,350833	0,1	6,924459
2,352500	0,1	6,889900
2,354167	0,1	6,889987
2,355833	0,1	6,871364
2,357500	0,1	6,884398
2,359167	0,1	6,754712
2,360833	0,1	6,797417
2,362500	0,1	6,738494
2,364167	0,1	6,708696
2,365833	0,1	6,673609
2,367500	0,1	6,679827
2,369167	0,1	6,622605
2,370833	0,1	6,583789
2,372500	0,1	6,592906
2,374167	0,1	6,547396
2,375833	0,1	6,572876
2,377500	0,1	6,515380
2,379167	0,1	6,456480
2,380833	0,1	6,450424
2,382500	0,1	6,392104
2,384167	0,1	6,436471
2,385833	0,1	6,399624
2,387500	0,1	6,393575
2,389167	0,1	6,356774
2,390833	0,1	6,336476
2,392500	0,1	6,313479
2,394167	0,1	6,315536
2,395833	0,1	6,290611
2,397500	0,1	6,258892
2,399167	0,1	6,214259
2,400833	0,1	6,239932
2,402500	0,1	6,205974
2,404167	0,1	6,216694
2,405833	0,1	6,199113
2,407500	0,1	6,214448
2,409167	0,1	6,167520
2,410833	0,1	6,145553
2,412500	0,1	6,109098
2,414167	0,1	6,164306
2,415833	0,1	6,152543
2,417500	0,1	6,152451
2,419167	0,1	6,129589
2,420833	0,1	6,072497
2,422500	0,1	6,123141
2,424167	0,1	6,133370
2,425833	0,1	6,090788
2,427500	0,1	6,083075
2,429167	0,1	6,044764
2,430833	0,1	6,051111
2,432500	0,1	6,028611
2,434167	0,1	6,036914
2,435833	0,1	6,031860
2,437500	0,1	6,028489
2,439167	0,1	6,025058
2,440833	0,1	5,984551
2,442500	0,1	5,996147
2,444167	0,1	6,043087
2,445833	0,1	6,015823
2,447500	0,1	5,955032
2,449167	0,1	6,031308
2,450833	0,1	5,964598
2,452500	0,1	5,999852
2,454167	0,1	5,966085
2,455833	0,1	5,961242
2,457500	0,1	5,953333
2,459167	0,1	5,915611
2,460833	0,1	5,949540
2,462500	0,1	5,917353
2,464167	0,1	5,915000
2,465833	0,1	5,891733
2,467500	0,1	5,880745
2,469167	0,1	5,868598
2,470833	0,1	5,865677
2,472500	0,1	5,861511
2,474167	0,1	5,845395
2,475833	0,1	5,794907
2,477500	0,1	5,785773
2,479167	0,1	5,803520
2,480833	0,1	5,824716
2,482500	0,1	5,773640
2,484167	0,1	5,784117
2,485833	0,1	5,776951
2,487500	0,1	5,764422
2,489167	0,1	5,769688
2,490833	0,1	5,756461
2,492500	0,1	5,725975
2,494167	0,1	5,723969
2,495833	0,1	5,707854
2,497500	0,1	5,710489
2,499167	0,1	5,705164
2,500833	0,1	5,721888
2,502500	0,1	5,676197
2,504167	0,1	5,697373
2,505833	0,1	5,693849
2,507500	0,1	5,721847
2,509167	0,1	5,741111
2,510833	0,1	5,672952
2,512500	0,1	5,663662
2,514167	0,1	5,696091
2,515833	0,1	5,712678
2,517500	0,1	5,715243
2,519167	0,1	5,750580
2,520833	0,1	5,732443
2,522500	0,1	5,732488
2,524167	0,1	5,750147
2,525833	0,1	5,794514
2,527500	0,1	5,759963
2,529167	0,1	5,784939
2,530833	0,1	5,800373
2,532500	0,1	5,838370
2,534167	0,1	5,858922
2,535833	0,1	5,841494
2,537500	0,1	5,873474
2,539167	0,1	5,920986
2,540833	0,1	5,928225
2,542500	0,1	5,913148
2,544167	0,1	5,944553
2,545833	0,1	5,977112
2,547500	0,1	5,995716
2,549167	0,1	6,021636
2,550833	0,1	6,073668
2,552500	0,1	6,080113
2,554167	0,1	6,099631
2,555833	0,1	6,120735
2,557500	0,1	6,149751
2,559167	0,1	6,090053
2,560833	0,1	6,179919
2,562500	0,1	6,194460
2,564167	0,1	6,257387
2,565833	0,1	6,227836
2,567500	0,1	6,208216
2,569167	0,1	6,266952
2,570833	0,1	6,274618
2,572500	0,1	6,279647
2,574167	0,1	6,288178
2,575833	0,1	6,309480
2,577500	0,1	6,304368
2,579167	0,1	6,321492
2,580833	0,1	6,306626
2,582500	0,1	6,325578
2,584167	0,1	6,337319
2,585833	0,1	6,298067
2,587500	0,1	6,341289
2,589167	0,1	6,308011
2,590833	0,1	6,317227
2,592500	0,1	6,328286
2,594167	0,1	6,272380
2,595833	0,1	6,324578
2,597500	0,1	6,274443
2,599167	0,1	6,251741
2,600833	0,1	6,270991
2,602500	0,1	6,248867
2,604167	0,1	6,257961
2,605833	0,1	6,207965
2,607500	0,1	6,176286
2,609167	0,1	6,132810
2,610833	0,1	6,119225
2,612500	0,1	6,119795
2,614167	0,1	6,063400
2,615833	0,1	6,045794
2,617500	0,1	6,038368
2,619167	0,1	6,034656
2,620833	0,1	5,978362
2,622500	0,1	5,894878
2,624167	0,1	5,897669
2,625833	0,1	5,906123
2,627500	0,1	5,860503
2,629167	0,1	5,806717
2,630833	0,1	5,801643
2,632500	0,1	5,774146
2,634167	0,1	5,747169
2,635833	0,1	5,691173
2,637500	0,1	5,641376
2,639167	0,1	5,567930
2,640833	0,1	5,549501
2,642500	0,1	5,546205
2,644167	0,1	5,474494
2,645833	0,1	5,450464
2,647500	0,1	5,417264
2,649167	0,1	5,327038
2,650833	0,1	5,295587
2,652500	0,1	5,248091
2,654167	0,1	5,228633
2,655833	0,1	5,179394
2,657500	0,1	5,152171
2,659167	0,1	5,122812
2,660833	0,1	5,091619
2,662500	0,1	5,003936
2,664167	0,1	4,958154
2,665833	0,1	4,911258
2,667500	0,1	4,886312
2,669167	0,1	4,870452
2,670833	0,1	4,795335
2,672500	0,1	4,745322
2,674167	0,1	4,713283
2,675833	0,1	4,670393
2,677500	0,1	4,629758
2,679167	0,1	4,614693
2,680833	0,1	4,517618
2,682500	0,1	4,484574
2,684167	0,1	4,431822
2,685833	0,1	4,401109
2,687500	0,1	4,342007
2,689167	0,1	4,360297
2,690833	0,1	4,272875
2,692500	0,1	4,246494
2,694167	0,1	4,220130
2,695833	0,1	4,158025
2,697500	0,1	4,124326
2,699167	0,1	4,068179
2,700833	0,1	4,056182
2,702500	0,1	3,995688
2,704167	0,1	3,998864
2,705833	0,1	3,920735
2,707500	0,1	3,913720
2,709167	0,1	3,905668
2,710833	0,1	3,792510
2,712500	0,1	3,807827
2,714167	0,1	3,809092
2,715833	0,1	3,761945
2,717500	0,1	3,721450
2,719167	0,1	3,693560
2,720833	0,1	3,615280
2,722500	0,1	3,615334
2,724167	0,1	3,555905
2,725833	0,1	3,541687
2,727500	0,1	3,545875
2,729167	0,1	3,477604
2,730833	0,1	3,483745
2,732500	0,1	3,428651
2,734167	0,1	3,398947
2,735833	0,1	3,424157
2,737500	0,1	3,389740
2,739167	0,1	3,318015
2,740833	0,1	3,325921
2,742500	0,1	3,276739
2,744167	0,1	3,284900
2,745833	0,1	3,245801
2,747500	0,1	3,205644
2,749167	0,1	3,197288
2,750833	0,1	3,197780
2,752500	0,1	3,164518
2,754167	0,1	3,170630
2,755833	0,1	3,127814
2,757500	0,1	3,122005
2,759167	0,1	3,072329
2,760833	0,1	3,088715
2,762500	0,1	3,055810
2,764167	0,1	2,996654
2,765833	0,1	3,024912
2,767500	0,1	2,988761
2,769167	0,1	3,012804
2,770833	0,1	2,986445
2,772500	0,1	2,982351
2,774167	0,1	2,934282
2,775833	0,1	2,944080
2,777500	0,1	2,909853
2,779167	0,1	2,875072
2,780833	0,1	2,870842
2,782500	0,1	2,860408
2,784167	0,1	2,816371
2,785833	0,1	2,807246
2,787500	0,1	2,794479
2,789167	0,1	2,835195
2,790833	0,1	2,777624
2,792500	0,1	2,792238
2,794167	0,1	2,743460
2,795833	0,1	2,758921
2,797500	0,1	2,740849
2,799167	0,1	2,727519
2,800833	0,1	2,721347
2,802500	0,1	2,683046
2,804167	0,1	2,719030
2,805833	0,1	2,720773
2,807500	0,1	2,703250
2,809167	0,1	2,680802
2,810833	0,1	2,663534
2,812500	0,1	2,667614
2,814167	0,1	2,606365
2,815833	0,1	2,618392
2,817500	0,1	2,620773
2,819167	0,1	2,584001
2,820833	0,1	2,541391
2,822500	0,1	2,542154
2,824167	0,1	2,544461
2,825833	0,1	2,527899
2,827500	0,1	2,527315
2,829167	0,1	2,506094
2,830833	0,1	2,524018
2,832500	0,1	2,511044
2,834167	0,1	2,470319
2,835833	0,1	2,489597
2,837500	0,1	2,475468
2,839167	0,1	2,459273
2,840833	0,1	2,437116
2,842500	0,1	2,416754
2,844167	0,1	2,379127
2,845833	0,1	2,427062
2,847500	0,1	2,392676
2,849167	0,1	2,386927
2,850833	0,1	2,404988
2,852500	0,1	2,375751
2,854167	0,1	2,380042
2,855833	0,1	2,361482
2,857500	0,1	2,331731
2,859167	0,1	2,352223
2,860833	0,1	2,308653
2,862500	0,1	2,331644
2,864167	0,1	2,294969
2,865833	0,1	2,304341
2,867500	0,1	2,288008
2,869167	0,1	2,313009
2,870833	0,1	2,233195
2,872500	0,1	2,246142
2,874167	0,1	2,253385
2,875833	0,1	2,256894
2,877500	0,1	2,273520
2,879167	0,1	2,240063
2,880833	0,1	2,192123
2,882500	0,1	2,238037
2,884167	0,1	2,206309
2,885833	0,1	2,234385
2,887500	0,1	2,159884
2,889167	0,1	2,174338
2,890833	0,1	2,178425
2,892500	0,1	2,161162
2,894167	0,1	2,141027
2,895833	0,1	2,124545
2,897500	0,1	2,133926
2,899167	0,1	2,109790
2,900833	0,1	2,107996
2,902500	0,1	2,140082
2,904167	0,1	2,075907
2,905833	0,1	2,103832
2,907500	0,1	2,059716
2,909167	0,1	2,062356
2,910833	0,1	2,062213
2,912500	0,1	2,074034
2,914167	0,1	2,027339
2,915833	0,1	2,074524
2,917500	0,1	2,036145
2,919167	0,1	2,045235
2,920833	0,1	2,046881
2,922500	0,1	2,050470
2,924167	0,1	2,062577
2,925833	0,1	2,018893
2,927500	0,1	1,991880
2,929167	0,1	1,981782
2,930833	0,1	1,962792
2,932500	0,1	1,992225
2,934167	0,1	2,030402
2,935833	0,1	1,986216
2,937500	0,1	1,978768
2,939167	0,1	1,959427
2,940833	0,1	1,949394
2,942500	0,1	1,938084
2,944167	0,1	1,905359
2,945833	0,1	1,951541
2,947500	0,1	1,919901
2,949167	0,1	1,875996
2,950833	0,1	1,922033
2,952500	0,1	1,949250
2,954167	0,1	1,867850
2,955833	0,1	1,897335
2,957500	0,1	1,905712
2,959167	0,1	1,909439
2,960833	0,1	1,914823
2,962500	0,1	1,881730
2,964167	0,1	1,869262
2,965833	0,1	1,882158
2,967500	0,1	1,891399
2,969167	0,1	1,853311
2,970833	0,1	1,849864
2,972500	0,1	1,843772
2,974167	0,1	1,858448
2,975833	0,1	1,847141
2,977500	0,1	1,894605
2,979167	0,1	1,842219
2,980833	0,1	1,834540
2,982500	0,1	1,847792
2,984167	0,1	1,833323
2,985833	0,1	1,842625
2,987500	0,1	1,834896
2,989167	0,1	1,789304
2,990833	0,1	1,824009
2,992500	0,1	1,816419
2,994167	0,1	1,841691
2,995833	0,1	1,839764
2,997500	0,1	1,749584
2,999167	0,1	1,803601
3,000833	0,1	1,819999
3,002500	0,1	1,791807
3,004167	0,1	1,789284
3,005833	0,1	1,774833
3,007500	0,1	1,784136
3,009167	0,1	1,788422
3,010833	0,1	1,788772
3,012500	0,1	1,809338
3,014167	0,1	1,782212
3,015833	0,1	1,734321
3,017500	0,1	1,784326
3,019167	0,1	1,794949
3,020833	0,1	1,771683
3,022500	0,1	1,769101
3,024167	0,1	1,755730
3,025833	0,1	1,748067
3,027500	0,1	1,777399
3,029167	0,1	1,779348
3,030833	0,1	1,772323
3,032500	0,1	1,769450
3,034167	0,1	1,756436
3,035833	0,1	1,768523
3,037500	0,1	1,768465
3,039167	0,1	1,807471
3,040833	0,1	1,757375
3,042500	0,1	1,767670
3,044167	0,1	1,748488
3,045833	0,1	1,738891
3,047500	0,1	1,776032
3,049167	0,1	1,765525
3,050833	0,1	1,757800
3,052500	0,1	1,756580
3,054167	0,1	1,757503
3,055833	0,1	1,745483
3,057500	0,1	1,753287
3,059167	0,1	1,737388
3,060833	0,1	1,742467
3,062500	0,1	1,747333
3,064167	0,1	1,745906
3,065833	0,1	1,723216
3,067500	0,1	1,758583
3,069167	0,1	1,714993
3,070833	0,1	1,749258
3,072500	0,1	1,723652
3,074167	0,1	1,709268
3,075833	0,1	1,764586
3,077500	0,1	1,734100
3,079167	0,1	1,742404
3,080833	0,1	1,725503
3,082500	0,1	1,744118
3,084167	0,1	1,703396
3,085833	0,1	1,733884
3,087500	0,1	1,716919
3,089167	0,1	1,719066
3,090833	0,1	1,728797
3,092500	0,1	1,785769
3,094167	0,1	1,783789
3,095833	0,1	1,765946
3,097500	0,1	1,741029
3,099167	0,1	1,722805
3,100833	0,1	1,769447
3,102500	0,1	1,780765
3,104167	0,1	1,805247
3,105833	0,1	1,744980
3,107500	0,1	1,771811
3,109167	0,1	1,812130
3,110833	0,1	1,801893
3,112500	0,1	1,818719
3,114167	0,1	1,826159
3,115833	0,1	1,864243
3,117500	0,1	1,781860
3,119167	0,1	1,847192
3,120833	0,1	1,870116
3,122500	0,1	1,860024
3,124167	0,1	1,940867
3,125833	0,1	1,883318
3,127500	0,1	1,956685
3,129167	0,1	1,920120
3,130833	0,1	1,950538
3,132500	0,1	2,008986
3,134167	0,1	1,964740
3,135833	0,1	1,986350
3,137500	0,1	1,994089
3,139167	0,1	2,026746
3,140833	0,1	2,012860
3,142500	0,1	2,071804
3,144167	0,1	2,057491
3,145833	0,1	2,068947
3,147500	0,1	2,114501
3,149167	0,1	2,121675
3,150833	0,1	2,100114
3,152500	0,1	2,167949
3,154167	0,1	2,179568
3,155833	0,1	2,166891
3,157500	0,1	2,213313
3,159167	0,1	2,232023
3,160833	0,1	2,206236
3,162500	0,1	2,261109
3,164167	0,1	2,246722
3,165833	0,1	2,320450
3,167500	0,1	2,293381
3,169167	0,1	2,292228
3,170833	0,1	2,304341
3,172500	0,1	2,348702
3,174167	0,1	2,357459
3,175833	0,1	2,336962
3,177500	0,1	2,362827
3,179167	0,1	2,351802
3,180833	0,1	2,379604
3,182500	0,1	2,366348
3,184167	0,1	2,344921
3,185833	0,1	2,377592
3,187500	0,1	2,394019
3,189167	0,1	2,408997
3,190833	0,1	2,393024
3,192500	0,1	2,385714
3,194167	0,1	2,372811
3,195833	0,1	2,400678
3,197500	0,1	2,386499
3,199167	0,1	2,408495
3,200833	0,1	2,410006
3,202500	0,1	2,386213
3,204167	0,1	2,402767
3,205833	0,1	2,403271
3,207500	0,1	2,409435
3,209167	0,1	2,410299
3,210833	0,1	2,384923
3,212500	0,1	2,379394
3,214167	0,1	2,388494
3,215833	0,1	2,350448
3,217500	0,1	2,372651
3,219167	0,1	2,350293
3,220833	0,1	2,344849
3,222500	0,1	2,321339
3,224167	0,1	2,326711
3,225833	0,1	2,317966
3,227500	0,1	2,314523
3,229167	0,1	2,292593
3,230833	0,1	2,272240
3,232500	0,1	2,310565
3,234167	0,1	2,246664
3,235833	0,1	2,254673
3,237500	0,1	2,241779
3,239167	0,1	2,251807
3,240833	0,1	2,274521
3,242500	0,1	2,210042
3,244167	0,1	2,213538
3,245833	0,1	2,198852
3,247500	0,1	2,223208
3,249167	0,1	2,161816
3,250833	0,1	2,167030
3,252500	0,1	2,139239
3,254167	0,1	2,121538
3,255833	0,1	2,134284
3,257500	0,1	2,125907
3,259167	0,1	2,074117
3,260833	0,1	2,066799
3,262500	0,1	2,055338
3,264167	0,1	2,056197
3,265833	0,1	2,041804
3,267500	0,1	2,018310
3,269167	0,1	2,013571
3,270833	0,1	2,002408
3,272500	0,1	1,978264
3,274167	0,1	1,990581
3,275833	0,1	1,990872
3,277500	0,1	1,965813
3,279167	0,1	1,907158
3,280833	0,1	1,893261
3,282500	0,1	1,877789
3,284167	0,1	1,882370
3,285833	0,1	1,860887
3,287500	0,1	1,854509
3,289167	0,1	1,859100
3,290833	0,1	1,841197
3,292500	0,1	1,808631
3,294167	0,1	1,750413
3,295833	0,1	1,755422
3,297500	0,1	1,759288
3,299167	0,1	1,750070
3,300833	0,1	1,675190
3,302500	0,1	1,715975
3,304167	0,1	1,714704
3,305833	0,1	1,681503
3,307500	0,1	1,657012
3,309167	0,1	1,630248
3,310833	0,1	1,684287
3,312500	0,1	1,620090
3,314167	0,1	1,610922
3,315833	0,1	1,653796
3,317500	0,1	1,612931
3,319167	0,1	1,591659
3,320833	0,1	1,534995
3,322500	0,1	1,589134
3,324167	0,1	1,556323
3,325833	0,1	1,566696
3,327500	0,1	1,539235
3,329167	0,1	1,535145
3,330833	0,1	1,510517
3,332500	0,1	1,525825
3,334167	0,1	1,485203
3,335833	0,1	1,451857
3,337500	0,1	1,436046
3,339167	0,1	1,451997
3,340833	0,1	1,465298
3,342500	0,1	1,490860
3,344167	0,1	1,422962
3,345833	0,1	1,404348
3,347500	0,1	1,410575
3,349167	0,1	1,409123
3,350833	0,1	1,381379
3,352500	0,1	1,420884
3,354167	0,1	1,369897
3,355833	0,1	1,369499
3,357500	0,1	1,337132
3,359167	0,1	1,332029
3,360833	0,1	1,318191
3,362500	0,1	1,387181
3,364167	0,1	1,353614
3,365833	0,1	1,343717
3,367500	0,1	1,327627
3,369167	0,1	1,349299
3,370833	0,1	1,319888
3,372500	0,1	1,287016
3,374167	0,1	1,306548
3,375833	0,1	1,273585
3,377500	0,1	1,311185
3,379167	0,1	1,293734
3,380833	0,1	1,295017
3,382500	0,1	1,241531
3,384167	0,1	1,290941
3,385833	0,1	1,289582
3,387500	0,1	1,292156
3,389167	0,1	1,300367
3,390833	0,1	1,245901
3,392500	0,1	1,211531
3,394167	0,1	1,214201
3,395833	0,1	1,214184
3,397500	0,1	1,245965
3,399167	0,1	1,230343
3,400833	0,1	1,244308
3,402500	0,1	1,226041
3,404167	0,1	1,235926
3,405833	0,1	1,182974
3,407500	0,1	1,178812
3,409167	0,1	1,203631
3,410833	0,1	1,192259
3,412500	0,1	1,203415
3,414167	0,1	1,163293
3,415833	0,1	1,198837
3,417500	0,1	1,163063
3,419167	0,1	1,181334
3,420833	0,1	1,179409
3,422500	0,1	1,165659
3,424167	0,1	1,151724
3,425833	0,1	1,165229
3,427500	0,1	1,130766
3,429167	0,1	1,135040
3,430833	0,1	1,148501
3,432500	0,1	1,180935
3,434167	0,1	1,148332
3,435833	0,1	1,131560
3,437500	0,1	1,154444
3,439167	0,1	1,140385
3,440833	0,1	1,144088
3,442500	0,1	1,108157
3,444167	0,1	1,136496
3,445833	0,1	1,095606
3,447500	0,1	1,119569
3,449167	0,1	1,140377
3,450833	0,1	1,130492
3,452500	0,1	1,111041
3,454167	0,1	1,125272
3,455833	0,1	1,098196
3,457500	0,1	1,088409
3,459167	0,1	1,100517
3,460833	0,1	1,147469
3,462500	0,1	1,113637
3,464167	0,1	1,092251
3,465833	0,1	1,104600
3,467500	0,1	1,101387
3,469167	0,1	1,135382
3,470833	0,1	1,089993
3,472500	0,1	1,114623
3,474167	0,1	1,102784
3,475833	0,1	1,086594
3,477500	0,1	1,102778
3,479167	0,1	1,097238
3,480833	0,1	1,111161
3,482500	0,1	1,087925
3,484167	0,1	1,073261
3,485833	0,1	1,084214
3,487500	0,1	1,056939
3,489167	0,1	1,043205
3,490833	0,1	1,080015
3,492500	0,1	1,065962
3,494167	0,1	1,074252
3,495833	0,1	1,094458
3,497500	0,1	1,074639
3,499167	0,1	1,083924
3,500833	0,1	1,130211
3,502500	0,1	1,091655
3,504167	0,1	1,082686
3,505833	0,1	1,071617
3,507500	0,1	1,048443
3,509167	0,1	1,111684
3,510833	0,1	1,120060
3,512500	0,1	1,101057
3,514167	0,1	1,083641
3,515833	0,1	1,107056
3,517500	0,1	1,119505
3,519167	0,1	1,108841
3,520833	0,1	1,056012
3,522500	0,1	1,122775
3,524167	0,1	1,094359
3,525833	0,1	1,067098
3,527500	0,1	1,110135
3,529167	0,1	1,100631
3,530833	0,1	1,089809
3,532500	0,1	1,083484
3,534167	0,1	1,115774
3,535833	0,1	1,121281
3,537500	0,1	1,097285
3,539167	0,1	1,074327
3,540833	0,1	1,110980
3,542500	0,1	1,129086
3,544167	0,1	1,126410
3,545833	0,1	1,111702
3,547500	0,1	1,103271
3,549167	0,1	1,098037
3,550833	0,1	1,141505
3,552500	0,1	1,104656
3,554167	0,1	1,107109
3,555833	0,1	1,094822
3,557500	0,1	1,097192
3,559167	0,1	1,102182
3,560833	0,1	1,107261
3,562500	0,1	1,095928
3,564167	0,1	1,108479
3,565833	0,1	1,076372
3,567500	0,1	1,082462
3,569167	0,1	1,110364
3,570833	0,1	1,125762
3,572500	0,1	1,108821
3,574167	0,1	1,087525
3,575833	0,1	1,105220
3,577500	0,1	1,089367
3,579167	0,1	1,094242
3,580833	0,1	1,110013
3,582500	0,1	1,112255
3,584167	0,1	1,078855
3,585833	0,1	1,055962
3,587500	0,1	1,139940
3,589167	0,1	1,104055
3,590833	0,1	1,087547
3,592500	0,1	1,114466
3,594167	0,1	1,115004
3,595833	0,1	1,088989
3,597500	0,1	1,129810
3,599167	0,1	1,079103
3,600833	0,1	1,121536
3,602500	0,1	1,069078
3,604167	0,1	1,053874
3,605833	0,1	1,079218
3,607500	0,1	1,081819
3,609167	0,1	1,086322
3,610833	0,1	1,093618
3,612500	0,1	1,055455
3,614167	0,1	1,057709
3,615833	0,1	1,091748
3,617500	0,1	1,054323
3,619167	0,1	1,094676
3,620833	0,1	1,092467
3,622500	0,1	1,083905
3,624167	0,1	1,048379
3,625833	0,1	1,116186
3,627500	0,1	1,053175
3,629167	0,1	1,063317
3,630833	0,1	1,037042
3,632500	0,1	1,066618
3,634167	0,1	1,033806
3,635833	0,1	1,051603
3,637500	0,1	1,043980
3,639167	0,1	1,064447
3,640833	0,1	1,080663
3,642500	0,1	1,046072
3,644167	0,1	1,030963
3,645833	0,1	1,039430
3,647500	0,1	1,033687
3,649167	0,1	1,029607
3,650833	0,1	1,040849
3,652500	0,1	1,055663
3,654167	0,1	0,990499
3,655833	0,1	1,040461
3,657500	0,1	1,049476
3,659167	0,1	1,051607
3,660833	0,1	1,065268
3,662500	0,1	1,042120
3,664167	0,1	1,003577
3,665833	0,1	0,985608
3,667500	0,1	1,058312
3,669167	0,1	0,994533
3,670833	0,1	0,970508
3,672500	0,1	1,032209
3,674167	0,1	0,996700
3,675833	0,1	1,044454
3,677500	0,1	0,968412
3,679167	0,1	1,004114
3,680833	0,1	1,000198
3,682500	0,1	0,988711
3,684167	0,1	1,044298
3,685833	0,1	0,967680
3,687500	0,1	0,994955
3,689167	0,1	0,986781
3,690833	0,1	1,008508
3,692500	0,1	1,004767
3,694167	0,1	0,979934
3,695833	0,1	0,954409
3,697500	0,1	0,976948
3,699167	0,1	0,988372
3,700833	0,1	0,982880
3,702500	0,1	0,948179
3,704167	0,1	0,954707
3,705833	0,1	0,998677
3,707500	0,1	0,990731
3,709167	0,1	0,970154
3,710833	0,1	1,007508
3,712500	0,1	0,974990
3,714167	0,1	0,995646
3,715833	0,1	1,029797
3,717500	0,1	0,955461
3,719167	0,1	0,958037
3,720833	0,1	0,957883
3,722500	0,1	0,964288
3,724167	0,1	0,997261
3,725833	0,1	0,979488
3,727500	0,1	0,994604
3,729167	0,1	0,984720
3,730833	0,1	0,971612
3,732500	0,1	0,976220
3,734167	0,1	0,984428
3,735833	0,1	0,965208
3,737500	0,1	1,010987
3,739167	0,1	1,012351
3,740833	0,1	0,953197
3,742500	0,1	0,994798
3,744167	0,1	0,978886
3,745833	0,1	1,040591
3,747500	0,1	0,983644
3,749167	0,1	0,985471
3,750833	0,1	0,988330
3,752500	0,1	0,993408
3,754167	0,1	0,954743
3,755833	0,1	0,993027
3,757500	0,1	1,034077
3,759167	0,1	0,986504
3,760833	0,1	0,941173
3,762500	0,1	0,987058
3,764167	0,1	1,043788
3,765833	0,1	0,986506
3,767500	0,1	0,989508
3,769167	0,1	1,017001
3,770833	0,1	0,957674
3,772500	0,1	1,015885
3,774167	0,1	0,974835
3,775833	0,1	1,033873
3,777500	0,1	0,984773
3,779167	0,1	0,995913
3,780833	0,1	0,971993
3,782500	0,1	0,999216
3,784167	0,1	0,978137
3,785833	0,1	1,000769
3,787500	0,1	1,001061
3,789167	0,1	1,016650
3,790833	0,1	1,016032
3,792500	0,1	0,975058
3,794167	0,1	1,017486
3,795833	0,1	1,029714
3,797500	0,1	0,985926
3,799167	0,1	0,981812
3,800833	0,1	1,014050
3,802500	0,1	1,016587
3,804167	0,1	0,972462
3,805833	0,1	1,000344
3,807500	0,1	0,999974
3,809167	0,1	1,031793
3,810833	0,1	1,005503
3,812500	0,1	1,003568
3,814167	0,1	0,970176
3,815833	0,1	1,000767
3,817500	0,1	1,018048
3,819167	0,1	1,058896
3,820833	0,1	0,986662
3,822500	0,1	1,039353
3,824167	0,1	0,993599
3,825833	0,1	0,985652
3,827500	0,1	0,972766
3,829167	0,1	1,018482
3,830833	0,1	0,969140
3,832500	0,1	0,976910
3,834167	0,1	0,992033
3,835833	0,1	0,952590
3,837500	0,1	0,980852
3,839167	0,1	0,983077
3,840833	0,1	0,993054
3,842500	0,1	0,980994
3,844167	0,1	0,953297
3,845833	0,1	1,001094
3,847500	0,1	0,998999
3,849167	0,1	0,948297
3,850833	0,1	0,965618
3,852500	0,1	0,946823
3,854167	0,1	0,974752
3,855833	0,1	0,964250
3,857500	0,1	0,989744
3,859167	0,1	0,950175
3,860833	0,1	0,943869
3,862500	0,1	0,916733
3,864167	0,1	0,969469
3,865833	0,1	0,950788
3,867500	0,1	0,934578
3,869167	0,1	0,926793
3,870833	0,1	0,915862
3,872500	0,1	0,964571
3,874167	0,1	0,931613
3,875833	0,1	0,942204
3,877500	0,1	0,923408
3,879167	0,1	0,890971
3,880833	0,1	0,896814
3,882500	0,1	0,902199
3,884167	0,1	0,923843
3,885833	0,1	0,881774
3,887500	0,1	0,898569
3,889167	0,1	0,897238
3,890833	0,1	0,910738
3,892500	0,1	0,905466
3,894167	0,1	0,829365
3,895833	0,1	0,864568
3,897500	0,1	0,883638
3,899167	0,1	0,859636
3,900833	0,1	0,854249
3,902500	0,1	0,861872
3,904167	0,1	0,864182
3,905833	0,1	0,871962
3,907500	0,1	0,887612
3,909167	0,1	0,837230
3,910833	0,1	0,859452
3,912500	0,1	0,846512
3,914167	0,1	0,846599
3,915833	0,1	0,830792
3,917500	0,1	0,840405
3,919167	0,1	0,837508
3,920833	0,1	0,848013
3,922500	0,1	0,788216
3,924167	0,1	0,813714
3,925833	0,1	0,793284
3,927500	0,1	0,839805
3,929167	0,1	0,822790
3,930833	0,1	0,815335
3,932500	0,1	0,824291
3,934167	0,1	0,812790
3,935833	0,1	0,793730
3,937500	0,1	0,792662
3,939167	0,1	0,793148
3,940833	0,1	0,768828
3,942500	0,1	0,836979
3,944167	0,1	0,735933
3,945833	0,1	0,813464
3,947500	0,1	0,784351
3,949167	0,1	0,812939
3,950833	0,1	0,775800
3,952500	0,1	0,775501
3,954167	0,1	0,758149
3,955833	0,1	0,747351
3,957500	0,1	0,732884
3,959167	0,1	0,771609
3,960833	0,1	0,780053
3,962500	0,1	0,763804
3,964167	0,1	0,754356
3,965833	0,1	0,772899
3,967500	0,1	0,789222
3,969167	0,1	0,798539
3,970833	0,1	0,752028
3,972500	0,1	0,742815
3,974167	0,1	0,744750
3,975833	0,1	0,762902
3,977500	0,1	0,767880
3,979167	0,1	0,727180
3,980833	0,1	0,769194
3,982500	0,1	0,740731
3,984167	0,1	0,792427
3,985833	0,1	0,742534
3,987500	0,1	0,778772
3,989167	0,1	0,754108
3,990833	0,1	0,744844
3,992500	0,1	0,746267
3,994167	0,1	0,791496
3,995833	0,1	0,758769
3,997500	0,1	0,799658
3,999167	0,1	0,714625
4,000833	0,1	0,780526
4,002500	0,1	0,783911
4,004167	0,1	0,720209
4,005833	0,1	0,761535
4,007500	0,1	0,753872
4,009167	0,1	0,761292
4,010833	0,1	0,758827
4,012500	0,1	0,769110
4,014167	0,1	0,749030
4,015833	0,1	0,775207
4,017500	0,1	0,722591
4,019167	0,1	0,767946
4,020833	0,1	0,757440
4,022500	0,1	0,771996
4,024167	0,1	0,747709
4,025833	0,1	0,793936
4,027500	0,1	0,779874
4,029167	0,1	0,797055
4,030833	0,1	0,798643
4,032500	0,1	0,759218
4,034167	0,1	0,802072
4,035833	0,1	0,780584
4,037500	0,1	0,771163
4,039167	0,1	0,782860
4,040833	0,1	0,820271
4,042500	0,1	0,814115
4,044167	0,1	0,805942
4,045833	0,1	0,787338
4,047500	0,1	0,841615
4,049167	0,1	0,850036
4,050833	0,1	0,826294
4,052500	0,1	0,821658
4,054167	0,1	0,863741
4,055833	0,1	0,859721
4,057500	0,1	0,858148
4,059167	0,1	0,836292
4,060833	0,1	0,883591
4,062500	0,1	0,909291
4,064167	0,1	0,894867
4,065833	0,1	0,907628
4,067500	0,1	0,893999
4,069167	0,1	0,895529
4,070833	0,1	0,923833
4,072500	0,1	0,945880
4,074167	0,1	0,980629
4,075833	0,1	0,961570
4,077500	0,1	0,964733
4,079167	0,1	0,994136
4,080833	0,1	0,975895
4,082500	0,1	0,975068
4,084167	0,1	1,001100
4,085833	0,1	1,033502
4,087500	0,1	1,012356
4,089167	0,1	1,066812
4,090833	0,1	1,069684
4,092500	0,1	1,093017
4,094167	0,1	1,118327
4,095833	0,1	1,092186
4,097500	0,1	1,108191
4,099167	0,1	1,099102
4,100833	0,1	1,132679
4,102500	0,1	1,177581
4,104167	0,1	1,137134
4,105833	0,1	1,180424
4,107500	0,1	1,193233
4,109167	0,1	1,205055
4,110833	0,1	1,210561
4,112500	0,1	1,222075
4,114167	0,1	1,255092
4,115833	0,1	1,221981
4,117500	0,1	1,272683
4,119167	0,1	1,287053
4,120833	0,1	1,319704
4,122500	0,1	1,332751
4,124167	0,1	1,299955
4,125833	0,1	1,307888
4,127500	0,1	1,345772
4,129167	0,1	1,376754
4,130833	0,1	1,402065
4,132500	0,1	1,411317
4,134167	0,1	1,391064
4,135833	0,1	1,456863
4,137500	0,1	1,433515
4,139167	0,1	1,440245
4,140833	0,1	1,429493
4,142500	0,1	1,520707
4,144167	0,1	1,476177
4,145833	0,1	1,510872
4,147500	0,1	1,524400
4,149167	0,1	1,515184
4,150833	0,1	1,582497
4,152500	0,1	1,580844
4,154167	0,1	1,555963
4,155833	0,1	1,593370
4,157500	0,1	1,609339
4,159167	0,1	1,609195
4,160833	0,1	1,624878
4,162500	0,1	1,629597
4,164167	0,1	1,637313
4,165833	0,1	1,629876
4,167500	0,1	1,673030
4,169167	0,1	1,644419
4,170833	0,1	1,685470
4,172500	0,1	1,648750
4,174167	0,1	1,681110
4,175833	0,1	1,688499
4,177500	0,1	1,702581
4,179167	0,1	1,705735
4,180833	0,1	1,716477
4,182500	0,1	1,737665
4,184167	0,1	1,706457
4,185833	0,1	1,755489
4,187500	0,1	1,720284
4,189167	0,1	1,729362
4,190833	0,1	1,775672
4,192500	0,1	1,757012
4,194167	0,1	1,766723
4,195833	0,1	1,792080
4,197500	0,1	1,792080
4,199167	0,1	1,775826
4,200833	0,1	1,754861
4,202500	0,1	1,818203
4,204167	0,1	1,771752
4,205833	0,1	1,775822
4,207500	0,1	1,756073
4,209167	0,1	1,840099
4,210833	0,1	1,790165
4,212500	0,1	1,772100
4,214167	0,1	1,769529
4,215833	0,1	1,785848
4,217500	0,1	1,765737
4,219167	0,1	1,783566
4,220833	0,1	1,779620
4,222500	0,1	1,828802
4,224167	0,1	1,794097
4,225833	0,1	1,798537
4,227500	0,1	1,786284
4,229167	0,1	1,737744
4,230833	0,1	1,730446
4,232500	0,1	1,747688
4,234167	0,1	1,730935
4,235833	0,1	1,743674
4,237500	0,1	1,739029
4,239167	0,1	1,735661
4,240833	0,1	1,767309
4,242500	0,1	1,724300
4,244167	0,1	1,728788
4,245833	0,1	1,728957
4,247500	0,1	1,754432
4,249167	0,1	1,693957
4,250833	0,1	1,693854
4,252500	0,1	1,709181
4,254167	0,1	1,671980
4,255833	0,1	1,672951
4,257500	0,1	1,682623
4,259167	0,1	1,627183
4,260833	0,1	1,626378
4,262500	0,1	1,643821
4,264167	0,1	1,622368
4,265833	0,1	1,596090
4,267500	0,1	1,629301
4,269167	0,1	1,595103
4,270833	0,1	1,625736
4,272500	0,1	1,567608
4,274167	0,1	1,618291
4,275833	0,1	1,559673
4,277500	0,1	1,555727
4,279167	0,1	1,549244
4,280833	0,1	1,543068
4,282500	0,1	1,520244
4,284167	0,1	1,521747
4,285833	0,1	1,525252
4,287500	0,1	1,485697
4,289167	0,1	1,471237
4,290833	0,1	1,480329
4,292500	0,1	1,454431
4,294167	0,1	1,456206
4,295833	0,1	1,455386
4,297500	0,1	1,439772
4,299167	0,1	1,430839
4,300833	0,1	1,436178
4,302500	0,1	1,413362
4,304167	0,1	1,409457
4,305833	0,1	1,393706
4,307500	0,1	1,414571
4,309167	0,1	1,379974
4,310833	0,1	1,357084
4,312500	0,1	1,368223
4,314167	0,1	1,325177
4,315833	0,1	1,348197
4,317500	0,1	1,331843
4,319167	0,1	1,346200
4,320833	0,1	1,307951
4,322500	0,1	1,325485
4,324167	0,1	1,292943
4,325833	0,1	1,308902
4,327500	0,1	1,281644
4,329167	0,1	1,310306
4,330833	0,1	1,287368
4,332500	0,1	1,246033
4,334167	0,1	1,258736
4,335833	0,1	1,248599
4,337500	0,1	1,213058
4,339167	0,1	1,208326
4,340833	0,1	1,187470
4,342500	0,1	1,201867
4,344167	0,1	1,215774
4,345833	0,1	1,183525
4,347500	0,1	1,155502
4,349167	0,1	1,213938
4,350833	0,1	1,153800
4,352500	0,1	1,188648
4,354167	0,1	1,129150
4,355833	0,1	1,142156
4,357500	0,1	1,142735
4,359167	0,1	1,149609
4,360833	0,1	1,115768
4,362500	0,1	1,104182
4,364167	0,1	1,091917
4,365833	0,1	1,116995
4,367500	0,1	1,127493
4,369167	0,1	1,090545
4,370833	0,1	1,070622
4,372500	0,1	1,063920
4,374167	0,1	1,007527
4,375833	0,1	1,071423
4,377500	0,1	1,067602
4,379167	0,1	1,026998
4,380833	0,1	1,036190
4,382500	0,1	1,023886
4,384167	0,1	1,064772
4,385833	0,1	1,035580
4,387500	0,1	1,010361
4,389167	0,1	1,001618
4,390833	0,1	0,993478
4,392500	0,1	0,992256
4,394167	0,1	0,991260
4,395833	0,1	1,012500
4,397500	0,1	0,987137
4,399167	0,1	0,978354
4,400833	0,1	0,959618
4,402500	0,1	0,991539
4,404167	0,1	0,974630
4,405833	0,1	0,930726
4,407500	0,1	0,959185
4,409167	0,1	0,931744
4,410833	0,1	0,912543
4,412500	0,1	0,942309
4,414167	0,1	0,922607
4,415833	0,1	0,900656
4,417500	0,1	0,921420
4,419167	0,1	0,897465
4,420833	0,1	0,894887
4,422500	0,1	0,904259
4,424167	0,1	0,885576
4,425833	0,1	0,880940
4,427500	0,1	0,871009
4,429167	0,1	0,858372
4,430833	0,1	0,877943
4,432500	0,1	0,856304
4,434167	0,1	0,827003
4,435833	0,1	0,857563
4,437500	0,1	0,850786
4,439167	0,1	0,886256
4,440833	0,1	0,870705
4,442500	0,1	0,843549
4,444167	0,1	0,839568
4,445833	0,1	0,821989
4,447500	0,1	0,839747
4,449167	0,1	0,789314
4,450833	0,1	0,826044
4,452500	0,1	0,789692
4,454167	0,1	0,821361
4,455833	0,1	0,816383
4,457500	0,1	0,810310
4,459167	0,1	0,807292
4,460833	0,1	0,772622
4,462500	0,1	0,778452
4,464167	0,1	0,759344
4,465833	0,1	0,764888
4,467500	0,1	0,795291
4,469167	0,1	0,782604
4,470833	0,1	0,754138
4,472500	0,1	0,704945
4,474167	0,1	0,728441
4,475833	0,1	0,701886
4,477500	0,1	0,731467
4,479167	0,1	0,745380
4,480833	0,1	0,716540
4,482500	0,1	0,737254
4,484167	0,1	0,727871
4,485833	0,1	0,752028
4,487500	0,1	0,694208
4,489167	0,1	0,674275
4,490833	0,1	0,696045
4,492500	0,1	0,688924
4,494167	0,1	0,682404
4,495833	0,1	0,669033
4,497500	0,1	0,678862
4,499167	0,1	0,694798
4,500833	0,1	0,651916
4,502500	0,1	0,660354
4,504167	0,1	0,652869
4,505833	0,1	0,640178
4,507500	0,1	0,627326
4,509167	0,1	0,660318
4,510833	0,1	0,618983
4,512500	0,1	0,652442
4,514167	0,1	0,616023
4,515833	0,1	0,628928
4,517500	0,1	0,608628
4,519167	0,1	0,608397
4,520833	0,1	0,624425
4,522500	0,1	0,619068
4,524167	0,1	0,595841
4,525833	0,1	0,626797
4,527500	0,1	0,599149
4,529167	0,1	0,568630
4,530833	0,1	0,595251
4,532500	0,1	0,610866
4,534167	0,1	0,596769
4,535833	0,1	0,655288
4,537500	0,1	0,578570
4,539167	0,1	0,567212
4,540833	0,1	0,566696
4,542500	0,1	0,556259
4,544167	0,1	0,557508
4,545833	0,1	0,554650
4,547500	0,1	0,556864
4,549167	0,1	0,543987
4,550833	0,1	0,525066
4,552500	0,1	0,540254
4,554167	0,1	0,561839
4,555833	0,1	0,569041
4,557500	0,1	0,534548
4,559167	0,1	0,538809
4,560833	0,1	0,567716
4,562500	0,1	0,568558
4,564167	0,1	0,555969
4,565833	0,1	0,552146
4,567500	0,1	0,516752
4,569167	0,1	0,484018
4,570833	0,1	0,528456
4,572500	0,1	0,546935
4,574167	0,1	0,522660
4,575833	0,1	0,485724
4,577500	0,1	0,466126
4,579167	0,1	0,521034
4,580833	0,1	0,485337
4,582500	0,1	0,447786
4,584167	0,1	0,483743
4,585833	0,1	0,484044
4,587500	0,1	0,495121
4,589167	0,1	0,463365
4,590833	0,1	0,485097
4,592500	0,1	0,507872
4,594167	0,1	0,443750
4,595833	0,1	0,461298
4,597500	0,1	0,503948
4,599167	0,1	0,474607
4,600833	0,1	0,472095
4,602500	0,1	0,488954
4,604167	0,1	0,419854
4,605833	0,1	0,397265
4,607500	0,1	0,438327
4,609167	0,1	0,463159
4,610833	0,1	0,451573
4,612500	0,1	0,405654
4,614167	0,1	0,444879
4,615833	0,1	0,432399
4,617500	0,1	0,438399
4,619167	0,1	0,416215
4,620833	0,1	0,472405
4,622500	0,1	0,399337
4,624167	0,1	0,418867
4,625833	0,1	0,406484
4,627500	0,1	0,402595
4,629167	0,1	0,424942
4,630833	0,1	0,422634
4,632500	0,1	0,422793
4,634167	0,1	0,396078
4,635833	0,1	0,375524
4,637500	0,1	0,402297
4,639167	0,1	0,381947
4,640833	0,1	0,389780
4,642500	0,1	0,422306
4,644167	0,1	0,381085
4,645833	0,1	0,387854
4,647500	0,1	0,386474
4,649167	0,1	0,408178
4,650833	0,1	0,404973
4,652500	0,1	0,391388
4,654167	0,1	0,349776
4,655833	0,1	0,366236
4,657500	0,1	0,411481
4,659167	0,1	0,395660
4,660833	0,1	0,375427
4,662500	0,1	0,367560
4,664167	0,1	0,355459
4,665833	0,1	0,361840
4,667500	0,1	0,392889
4,669167	0,1	0,359310
4,670833	0,1	0,314195
4,672500	0,1	0,339358
4,674167	0,1	0,350562
4,675833	0,1	0,359886
4,677500	0,1	0,396451
4,679167	0,1	0,315108
4,680833	0,1	0,346711
4,682500	0,1	0,360109
4,684167	0,1	0,310959
4,685833	0,1	0,285230
4,687500	0,1	0,299800
4,689167	0,1	0,320773
4,690833	0,1	0,363440
4,692500	0,1	0,353114
4,694167	0,1	0,328390
4,695833	0,1	0,316729
4,697500	0,1	0,310379
4,699167	0,1	0,323243
4,700833	0,1	0,369022
4,702500	0,1	0,304829
4,704167	0,1	0,312970
4,705833	0,1	0,332874
4,707500	0,1	0,299748
4,709167	0,1	0,315249
4,710833	0,1	0,346682
4,712500	0,1	0,280467
4,714167	0,1	0,330425
4,715833	0,1	0,292135
4,717500	0,1	0,294766
4,719167	0,1	0,338711
4,720833	0,1	0,275544
4,722500	0,1	0,333600
4,724167	0,1	0,279910
4,725833	0,1	0,254483
4,727500	0,1	0,335301
4,729167	0,1	0,318565
4,730833	0,1	0,313906
4,732500	0,1	0,276218
4,734167	0,1	0,310812
4,735833	0,1	0,297918
4,737500	0,1	0,280771
4,739167	0,1	0,292105
4,740833	0,1	0,278402
4,742500	0,1	0,286418
4,744167	0,1	0,245588
4,745833	0,1	0,301726
4,747500	0,1	0,253232
4,749167	0,1	0,260482
4,750833	0,1	0,305644
4,752500	0,1	0,304109
4,754167	0,1	0,243099
4,755833	0,1	0,295912
4,757500	0,1	0,244721
4,759167	0,1	0,226030
4,760833	0,1	0,312979
4,762500	0,1	0,295123
4,764167	0,1	0,289758
4,765833	0,1	0,282604
4,767500	0,1	0,242288
4,769167	0,1	0,255974
4,770833	0,1	0,238292
4,772500	0,1	0,294336
4,774167	0,1	0,301023
4,775833	0,1	0,220280
4,777500	0,1	0,265507
4,779167	0,1	0,261568
4,780833	0,1	0,256558
4,782500	0,1	0,260834
4,784167	0,1	0,282923
4,785833	0,1	0,257693
4,787500	0,1	0,242081
4,789167	0,1	0,234539
4,790833	0,1	0,279156
4,792500	0,1	0,217545
4,794167	0,1	0,244135
4,795833	0,1	0,190791
4,797500	0,1	0,305792
4,799167	0,1	0,235233
4,800833	0,1	0,271832
4,802500	0,1	0,257403
4,804167	0,1	0,238646
4,805833	0,1	0,266708
4,807500	0,1	0,260737
4,809167	0,1	0,238647
4,810833	0,1	0,267866
4,812500	0,1	0,248892
4,814167	0,1	0,272197
4,815833	0,1	0,236283
4,817500	0,1	0,237456
4,819167	0,1	0,224343
4,820833	0,1	0,228569
4,822500	0,1	0,202466
4,824167	0,1	0,246888
4,825833	0,1	0,211621
4,827500	0,1	0,246212
4,829167	0,1	0,248599
4,830833	0,1	0,190024
4,832500	0,1	0,235973
4,834167	0,1	0,229628
4,835833	0,1	0,242893
4,837500	0,1	0,241411
4,839167	0,1	0,242116
4,840833	0,1	0,228208
4,842500	0,1	0,271704
4,844167	0,1	0,180114
4,845833	0,1	0,183364
4,847500	0,1	0,232033
4,849167	0,1	0,190765
4,850833	0,1	0,212865
4,852500	0,1	0,259086
4,854167	0,1	0,222863
4,855833	0,1	0,203473
4,857500	0,1	0,221440
4,859167	0,1	0,227096
4,860833	0,1	0,233741
4,862500	0,1	0,214123
4,864167	0,1	0,243267
4,865833	0,1	0,220845
4,867500	0,1	0,208671
4,869167	0,1	0,248338
4,870833	0,1	0,184060
4,872500	0,1	0,236097
4,874167	0,1	0,239973
4,875833	0,1	0,235733
4,877500	0,1	0,241961
4,879167	0,1	0,220480
4,880833	0,1	0,217743
4,882500	0,1	0,210393
4,884167	0,1	0,207900
4,885833	0,1	0,207672
4,887500	0,1	0,192935
4,889167	0,1	0,215433
4,890833	0,1	0,192107
4,892500	0,1	0,194278
4,894167	0,1	0,228436
4,895833	0,1	0,226870
4,897500	0,1	0,280827
4,899167	0,1	0,248643
4,900833	0,1	0,224208
4,902500	0,1	0,246680
4,904167	0,1	0,189194
4,905833	0,1	0,189571
4,907500	0,1	0,198582
4,909167	0,1	0,210968
4,910833	0,1	0,213475
4,912500	0,1	0,213363
4,914167	0,1	0,224689
4,915833	0,1	0,186787
4,917500	0,1	0,198995
4,919167	0,1	0,165170
4,920833	0,1	0,227586
4,922500	0,1	0,214988
4,924167	0,1	0,213903
4,925833	0,1	0,194360
4,927500	0,1	0,184611
4,929167	0,1	0,175623
4,930833	0,1	0,220690
4,932500	0,1	0,224363
4,934167	0,1	0,234346
4,935833	0,1	0,249790
4,937500	0,1	0,220482
4,939167	0,1	0,192334
4,940833	0,1	0,239473
4,942500	0,1	0,204245
4,944167	0,1	0,219188
4,945833	0,1	0,246415
4,947500	0,1	0,171514
4,949167	0,1	0,227789
4,950833	0,1	0,200265
4,952500	0,1	0,184778
4,954167	0,1	0,226016
4,955833	0,1	0,241821
4,957500	0,1	0,218694
4,959167	0,1	0,208733
4,960833	0,1	0,221945
4,962500	0,1	0,236976
4,964167	0,1	0,229277
4,965833	0,1	0,233516
4,967500	0,1	0,232258
4,969167	0,1	0,189832
4,970833	0,1	0,202370
4,972500	0,1	0,192016
4,974167	0,1	0,215106
4,975833	0,1	0,237904
4,977500	0,1	0,280024
4,979167	0,1	0,208106
4,980833	0,1	0,218358
4,982500	0,1	0,239027
4,984167	0,1	0,195385
4,985833	0,1	0,263288
4,987500	0,1	0,228641
4,989167	0,1	0,228054
4,990833	0,1	0,228947
4,992500	0,1	0,229652
4,994167	0,1	0,218489
4,995833	0,1	0,205812
4,997500	0,1	0,215688
4,999167	0,1	0,256393
5,000833	0,1	0,238304
5,002500	0,1	0,214488
5,004167	0,1	0,248855
5,005833	0,1	0,247478
5,007500	0,1	0,268951
5,009167	0,1	0,214042
5,010833	0,1	0,221695
5,012500	0,1	0,226025
5,014167	0,1	0,240690
5,015833	0,1	0,243336
5,017500	0,1	0,275822
5,019167	0,1	0,224628
5,020833	0,1	0,275401
5,022500	0,1	0,230153
5,024167	0,1	0,252987
5,025833	0,1	0,244560
5,027500	0,1	0,261977
5,029167	0,1	0,247130
5,030833	0,1	0,245527
5,032500	0,1	0,220253
5,034167	0,1	0,241820
5,035833	0,1	0,275068
5,037500	0,1	0,238623
5,039167	0,1	0,257746
5,040833	0,1	0,248248
5,042500	0,1	0,257787
5,044167	0,1	0,268852
5,045833	0,1	0,252165
5,047500	0,1	0,238807
5,049167	0,1	0,250169
5,050833	0,1	0,222445
5,052500	0,1	0,295101
5,054167	0,1	0,261449
5,055833	0,1	0,258558
5,057500	0,1	0,263629
5,059167	0,1	0,239703
5,060833	0,1	0,275267
5,062500	0,1	0,228744
5,064167	0,1	0,249525
5,065833	0,1	0,269267
5,067500	0,1	0,247320
5,069167	0,1	0,252097
5,070833	0,1	0,284710
5,072500	0,1	0,282630
5,074167	0,1	0,274674
5,075833	0,1	0,283333
5,077500	0,1	0,308499
5,079167	0,1	0,316371
5,080833	0,1	0,242512
5,082500	0,1	0,259826
5,084167	0,1	0,264348
5,085833	0,1	0,307878
5,087500	0,1	0,290855
5,089167	0,1	0,276753
5,090833	0,1	0,272999
5,092500	0,1	0,300024
5,094167	0,1	0,281087
5,095833	0,1	0,293091
5,097500	0,1	0,245716
5,099167	0,1	0,290577
5,100833	0,1	0,306158
5,102500	0,1	0,281693
5,104167	0,1	0,295270
5,105833	0,1	0,288727
5,107500	0,1	0,308374
5,109167	0,1	0,305105
5,110833	0,1	0,294153
5,112500	0,1	0,291358
5,114167	0,1	0,279068
5,115833	0,1	0,320984
5,117500	0,1	0,292269
5,119167	0,1	0,314956
5,120833	0,1	0,286778
5,122500	0,1	0,327216
5,124167	0,1	0,286230
5,125833	0,1	0,296653
5,127500	0,1	0,312769
5,129167	0,1	0,279453
5,130833	0,1	0,310070
5,132500	0,1	0,316814
5,134167	0,1	0,335190
5,135833	0,1	0,308575
5,137500	0,1	0,322439
5,139167	0,1	0,295641
5,140833	0,1	0,299388
5,142500	0,1	0,318873
5,144167	0,1	0,299428
5,145833	0,1	0,281954
5,147500	0,1	0,266543
5,149167	0,1	0,310168
5,150833	0,1	0,271307
5,152500	0,1	0,297835
5,154167	0,1	0,286511
5,155833	0,1	0,282204
5,157500	0,1	0,306898
5,159167	0,1	0,291813
5,160833	0,1	0,307189
5,162500	0,1	0,315213
5,164167	0,1	0,298134
5,165833	0,1	0,271079
5,167500	0,1	0,267498
5,169167	0,1	0,278512
5,170833	0,1	0,288821
5,172500	0,1	0,277812
5,174167	0,1	0,261469
5,175833	0,1	0,269460
5,177500	0,1	0,276295
5,179167	0,1	0,292030
5,180833	0,1	0,281121
5,182500	0,1	0,269654
5,184167	0,1	0,276849
5,185833	0,1	0,270341
5,187500	0,1	0,265347
5,189167	0,1	0,304614
5,190833	0,1	0,265264
5,192500	0,1	0,252479
5,194167	0,1	0,293887
5,195833	0,1	0,207100
5,197500	0,1	0,272330
5,199167	0,1	0,257907
5,200833	0,1	0,244522
5,202500	0,1	0,243487
5,204167	0,1	0,266320
5,205833	0,1	0,276431
5,207500	0,1	0,270368
5,209167	0,1	0,242438
5,210833	0,1	0,255683
5,212500	0,1	0,264937
5,214167	0,1	0,222726
5,215833	0,1	0,251224
5,217500	0,1	0,244422
5,219167	0,1	0,256968
5,220833	0,1	0,217752
5,222500	0,1	0,267460
5,224167	0,1	0,281441
5,225833	0,1	0,261772
5,227500	0,1	0,221958
5,229167	0,1	0,229360
5,230833	0,1	0,227161
5,232500	0,1	0,265698
5,234167	0,1	0,225268
5,235833	0,1	0,226316
5,237500	0,1	0,199030
5,239167	0,1	0,209658
5,240833	0,1	0,243644
5,242500	0,1	0,215823
5,244167	0,1	0,195919
5,245833	0,1	0,261098
5,247500	0,1	0,226904
5,249167	0,1	0,226932
5,250833	0,1	0,201989
5,252500	0,1	0,234880
5,254167	0,1	0,241019
5,255833	0,1	0,173235
5,257500	0,1	0,207550
5,259167	0,1	0,210679
5,260833	0,1	0,185360
5,262500	0,1	0,218416
5,264167	0,1	0,214659
5,265833	0,1	0,213930
5,267500	0,1	0,176914
5,269167	0,1	0,235102
5,270833	0,1	0,173913
5,272500	0,1	0,184646
5,274167	0,1	0,191444
5,275833	0,1	0,176392
5,277500	0,1	0,201309
5,279167	0,1	0,219640
5,280833	0,1	0,190057
5,282500	0,1	0,155252
5,284167	0,1	0,161246
5,285833	0,1	0,125849
5,287500	0,1	0,167281
5,289167	0,1	0,170422
5,290833	0,1	0,169117
5,292500	0,1	0,199358
5,294167	0,1	0,178422
5,295833	0,1	0,184662
5,297500	0,1	0,137711
5,299167	0,1	0,155090
5,300833	0,1	0,155016
5,302500	0,1	0,143113
5,304167	0,1	0,144268
5,305833	0,1	0,146482
5,307500	0,1	0,172508
5,309167	0,1	0,149864
5,310833	0,1	0,134603
5,312500	0,1	0,097874
5,314167	0,1	0,170054
5,315833	0,1	0,169320
5,317500	0,1	0,180292
5,319167	0,1	0,150445
5,320833	0,1	0,165073
5,322500	0,1	0,141331
5,324167	0,1	0,159874
5,325833	0,1	0,164143
5,327500	0,1	0,178569
5,329167	0,1	0,162387
5,330833	0,1	0,099720
5,332500	0,1	0,155081
5,334167	0,1	0,129674
5,335833	0,1	0,129788
5,337500	0,1	0,146973
5,339167	0,1	0,122801
5,340833	0,1	0,155002
5,342500	0,1	0,089020
5,344167	0,1	0,136821
5,345833	0,1	0,111351
5,347500	0,1	0,109295
5,349167	0,1	0,148048
5,350833	0,1	0,162856
5,352500	0,1	0,152779
5,354167	0,1	0,143833
5,355833	0,1	0,150975
5,357500	0,1	0,119509
5,359167	0,1	0,103168
5,360833	0,1	0,142271
5,362500	0,1	0,101952
5,364167	0,1	0,138067
5,365833	0,1	0,128824
5,367500	0,1	0,097912
5,369167	0,1	0,125248
5,370833	0,1	0,151449
5,372500	0,1	0,111621
5,374167	0,1	0,083772
5,375833	0,1	0,104609
5,377500	0,1	0,102131
5,379167	0,1	0,086088
5,380833	0,1	0,091901
5,382500	0,1	0,076315
5,384167	0,1	0,112453
5,385833	0,1	0,103870
5,387500	0,1	0,112086
5,389167	0,1	0,110929
5,390833	0,1	0,064564
5,392500	0,1	0,083429
5,394167	0,1	0,095233
5,395833	0,1	0,081742
5,397500	0,1	0,070332
5,399167	0,1	0,057019
5,400833	0,1	0,117333
5,402500	0,1	0,085014
5,404167	0,1	0,091422
5,405833	0,1	0,096290
5,407500	0,1	0,070977
5,409167	0,1	0,080204
5,410833	0,1	0,112104
5,412500	0,1	0,077499
5,414167	0,1	0,062962
5,415833	0,1	0,050830
5,417500	0,1	0,074980
5,419167	0,1	0,092664
5,420833	0,1	0,079812
5,422500	0,1	0,070433
5,424167	0,1	0,098914
5,425833	0,1	0,077807
5,427500	0,1	0,055200
5,429167	0,1	0,114477
5,430833	0,1	0,045234
5,432500	0,1	0,076347
5,434167	0,1	0,079042
5,435833	0,1	0,085316
5,437500	0,1	0,084364
5,439167	0,1	0,084177
5,440833	0,1	0,070497
5,442500	0,1	0,073270
5,444167	0,1	0,057684
5,445833	0,1	0,074176
5,447500	0,1	0,072089
5,449167	0,1	0,042635
5,450833	0,1	0,034516
5,452500	0,1	0,044262
5,454167	0,1	0,057179
5,455833	0,1	0,050373
5,457500	0,1	0,093401
5,459167	0,1	0,035687
5,460833	0,1	0,053183
5,462500	0,1	0,075373
5,464167	0,1	0,057082
5,465833	0,1	0,050848
5,467500	0,1	0,039298
5,469167	0,1	0,076778
5,470833	0,1	0,028874
5,472500	0,1	0,059038
5,474167	0,1	0,059956
5,475833	0,1	0,011897
5,477500	0,1	0,094387
5,479167	0,1	0,055617
5,480833	0,1	0,050228
5,482500	0,1	0,061279
5,484167	0,1	0,069083
5,485833	0,1	0,078671
5,487500	0,1	0,077390
5,489167	0,1	0,044354
5,490833	0,1	0,078125
5,492500	0,1	0,074449
5,494167	0,1	0,039489
5,495833	0,1	0,040826
5,497500	0,1	0,083218
5,499167	0,1	0,047565
5,500833	0,1	0,044574
5,502500	0,1	0,025989
5,504167	0,1	0,085345
5,505833	0,1	0,040465
5,507500	0,1	0,046104
5,509167	0,1	0,027604
5,510833	0,1	0,030703
5,512500	0,1	0,063841
5,514167	0,1	0,059482
5,515833	0,1	0,031228
5,517500	0,1	0,020212
5,519167	0,1	0,017581
5,520833	0,1	0,024657
5,522500	0,1	0,037304
5,524167	0,1	0,023958
5,525833	0,1	0,033455
5,527500	0,1	0,029195
5,529167	0,1	0,016775
5,530833	0,1	0,034156
5,532500	0,1	0,059970
5,534167	0,1	0,047206
5,535833	0,1	0,084168
5,537500	0,1	0,031463
5,539167	0,1	0,036602
5,540833	0,1	0,038342
5,542500	0,1	0,028223
5,544167	0,1	0,050697
5,545833	0,1	0,023425
5,547500	0,1	0,052723
5,549167	0,1	0,068191
5,550833	0,1	0,046402
5,552500	0,1	0,036482
5,554167	0,1	-0,007912
5,555833	0,1	0,074717
5,557500	0,1	0,046031
5,559167	0,1	0,038449
5,560833	0,1	0,089840
5,562500	0,1	0,023930
5,564167	0,1	0,038175
5,565833	0,1	0,061669
5,567500	0,1	0,012623
5,569167	0,1	0,005575
5,570833	0,1	0,015135
5,572500	0,1	0,041296
5,574167	0,1	0,028636
5,575833	0,1	0,030870
5,577500	0,1	0,054194
5,579167	0,1	0,019120
5,580833	0,1	0,042891
5,582500	0,1	0,051735
5,584167	0,1	0,057987
5,585833	0,1	0,051903
5,587500	0,1	0,063244
5,589167	0,1	0,019392
5,590833	0,1	0,052165
5,592500	0,1	0,057823
5,594167	0,1	0,000122
5,595833	0,1	0,027903
5,597500	0,1	-0,005827
5,599167	0,1	0,042057
5,600833	0,1	0,040723
5,602500	0,1	0,064400
5,604167	0,1	0,005629
5,605833	0,1	0,037860
5,607500	0,1	0,059971
5,609167	0,1	0,050911
5,610833	0,1	0,026632
5,612500	0,1	0,005350
5,614167	0,1	0,062736
5,615833	0,1	0,001614
5,617500	0,1	0,055968
5,619167	0,1	0,031537
5,620833	0,1	0,045503
5,622500	0,1	0,055481
5,624167	0,1	0,074051
5,625833	0,1	0,016330
5,627500	0,1	0,087205
5,629167	0,1	0,044813
5,630833	0,1	0,041159
5,632500	0,1	0,047741
5,634167	0,1	0,016428
5,635833	0,1	0,039332
5,637500	0,1	0,051051
5,639167	0,1	0,033896
5,640833	0,1	0,029939
5,642500	0,1	0,066074
5,644167	0,1	0,018067
5,645833	0,1	0,008577
5,647500	0,1	0,037074
5,649167	0,1	0,070963
5,650833	0,1	0,044311
5,652500	0,1	0,049542
5,654167	0,1	-0,001803
5,655833	0,1	0,067287
5,657500	0,1	0,041890
5,659167	0,1	0,052688
5,660833	0,1	0,048116
5,662500	0,1	0,062664
5,664167	0,1	0,050850
5,665833	0,1	0,100603
5,667500	0,1	0,065636
5,669167	0,1	0,093717
5,670833	0,1	0,032210
5,672500	0,1	0,023854
5,674167	0,1	0,030476
5,675833	0,1	0,028655
5,677500	0,1	0,086668
5,679167	0,1	0,024177
5,680833	0,1	0,050303
5,682500	0,1	0,071504
5,684167	0,1	0,061740
5,685833	0,1	0,056686
5,687500	0,1	0,039299
5,689167	0,1	0,097124
5,690833	0,1	0,026188
5,692500	0,1	0,075514
5,694167	0,1	0,015834
5,695833	0,1	0,122332
5,697500	0,1	0,060904
5,699167	0,1	0,041494
5,700833	0,1	0,063615
5,702500	0,1	0,034747
5,704167	0,1	0,061233
5,705833	0,1	0,086057
5,707500	0,1	0,088755
5,709167	0,1	0,059734
5,710833	0,1	0,067885
5,712500	0,1	0,081401
5,714167	0,1	0,014884
5,715833	0,1	0,060691
5,717500	0,1	0,045137
5,719167	0,1	0,087586
5,720833	0,1	0,082814
5,722500	0,1	0,057912
5,724167	0,1	0,118367
5,725833	0,1	0,100313
5,727500	0,1	0,072550
5,729167	0,1	0,093760
5,730833	0,1	0,075593
5,732500	0,1	0,075732
5,734167	0,1	0,079023
5,735833	0,1	0,076355
5,737500	0,1	0,048804
5,739167	0,1	0,039235
5,740833	0,1	0,078477
5,742500	0,1	0,075298
5,744167	0,1	0,095293
5,745833	0,1	0,094532
5,747500	0,1	0,118666
5,749167	0,1	0,111447
5,750833	0,1	0,047074
5,752500	0,1	0,082243
5,754167	0,1	0,090388
5,755833	0,1	0,071968
5,757500	0,1	0,115061
5,759167	0,1	0,095012
5,760833	0,1	0,063317
5,762500	0,1	0,086658
5,764167	0,1	0,053091
5,765833	0,1	0,106485
5,767500	0,1	0,097639
5,769167	0,1	0,092028
5,770833	0,1	0,090390
5,772500	0,1	0,094053
5,774167	0,1	0,063876
5,775833	0,1	0,059089
5,777500	0,1	0,118266
5,779167	0,1	0,145296
5,780833	0,1	0,130689
5,782500	0,1	0,063761
5,784167	0,1	0,078918
5,785833	0,1	0,104691
5,787500	0,1	0,082363
5,789167	0,1	0,097322
5,790833	0,1	0,108899
5,792500	0,1	0,077004
5,794167	0,1	0,106366
5,795833	0,1	0,066675
5,797500	0,1	0,083326
5,799167	0,1	0,090741
5,800833	0,1	0,060958
5,802500	0,1	0,095433
5,804167	0,1	0,081202
5,805833	0,1	0,098667
5,807500	0,1	0,091987
5,809167	0,1	0,091237
5,810833	0,1	0,093474
5,812500	0,1	0,101465
5,814167	0,1	0,047817
5,815833	0,1	0,109983
5,817500	0,1	0,140714
5,819167	0,1	0,085809
5,820833	0,1	0,071119
5,822500	0,1	0,074615
5,824167	0,1	0,118787
5,825833	0,1	0,090999
5,827500	0,1	0,065365
5,829167	0,1	0,078005
5,830833	0,1	0,125305
5,832500	0,1	0,061710
5,834167	0,1	0,083989
5,835833	0,1	0,087946
5,837500	0,1	0,108897
5,839167	0,1	0,114591
5,840833	0,1	0,075307
5,842500	0,1	0,101773
5,844167	0,1	0,070956
5,845833	0,1	0,086122
5,847500	0,1	0,099414
5,849167	0,1	0,104096
5,850833	0,1	0,076050
5,852500	0,1	0,100053
5,854167	0,1	0,106372
5,855833	0,1	0,103331
5,857500	0,1	0,052722
5,859167	0,1	0,078604
5,860833	0,1	0,073540
5,862500	0,1	0,062444
5,864167	0,1	0,072790
5,865833	0,1	0,077116
5,867500	0,1	0,088381
5,869167	0,1	0,118023
5,870833	0,1	0,078846
5,872500	0,1	0,104504
5,874167	0,1	0,057050
5,875833	0,1	0,068297
5,877500	0,1	0,114189
5,879167	0,1	0,115525
5,880833	0,1	0,087104
5,882500	0,1	0,064703
5,884167	0,1	0,087591
5,885833	0,1	0,083972
5,887500	0,1	0,097052
5,889167	0,1	0,080104
5,890833	0,1	0,050690
5,892500	0,1	0,090029
5,894167	0,1	0,073189
5,895833	0,1	0,042988
5,897500	0,1	0,041283
5,899167	0,1	0,084645
5,900833	0,1	0,062611
5,902500	0,1	0,039653
5,904167	0,1	0,075102
5,905833	0,1	0,067640
5,907500	0,1	0,083843
5,909167	0,1	0,071616
5,910833	0,1	0,094732
5,912500	0,1	0,064476
5,914167	0,1	0,059149
5,915833	0,1	0,077755
5,917500	0,1	0,074904
5,919167	0,1	0,110052
5,920833	0,1	0,016815
5,922500	0,1	0,091180
5,924167	0,1	0,066422
5,925833	0,1	0,077530
5,927500	0,1	0,037565
5,929167	0,1	0,066118
5,930833	0,1	0,065464
5,932500	0,1	0,044414
5,934167	0,1	0,063242
5,935833	0,1	0,019805
5,937500	0,1	0,083045
5,939167	0,1	0,051847
5,940833	0,1	0,043583
5,942500	0,1	0,052976
5,944167	0,1	0,003949
5,945833	0,1	0,041771
5,947500	0,1	0,049872
5,949167	0,1	0,028371
5,950833	0,1	0,040059
5,952500	0,1	0,070715
5,954167	0,1	0,070722
5,955833	0,1	0,012749
5,957500	0,1	0,041318
5,959167	0,1	0,048507
5,960833	0,1	0,037084
5,962500	0,1	0,090582
5,964167	0,1	0,051249
5,965833	0,1	0,034951
5,967500	0,1	0,020089
5,969167	0,1	0,017228
5,970833	0,1	-0,002392
5,972500	0,1	0,040444
5,974167	0,1	0,024064
5,975833	0,1	0,009074
5,977500	0,1	0,005036
5,979167	0,1	0,047193
5,980833	0,1	0,040871
5,982500	0,1	-0,029932
5,984167	0,1	0,004986
5,985833	0,1	0,035480
5,987500	0,1	0,042709
5,989167	0,1	0,039316
5,990833	0,1	0,031989
5,992500	0,1	0,025221
5,994167	0,1	0,041113
5,995833	0,1	0,023298
5,997500	0,1	0,010587
5,999167	0,1	0,016296
6,000833	0,1	0,004064
