File Path	chrom://chromeleon01/ikbm_chromeleon/2022/Rezex/Esteban/220612_chitin_4_7.seq/659.smp/UV_VIS_1.channel/UV_VIS_1.chm
Channel	UV_VIS_1

Injection Information:
Data Vault	ikbm_chromeleon
Injection	7_00.5h-EGS_2
Injection Number	101
Position	BA4
Comment	
Processing Method	New ProcMethod
Instrument Method	Short_Rezex_6min_194nm
Type	Unknown
Status	Finished
Injection Date	13.06.2022
Injection Time	04:01:38
Injection Volume (µl)	8,000
Dilution Factor	1,0000
Weight	1,0000

Chromatogram Data Information:
Time Min. (min)	0,000833
Time Max. (min)	6,000833
Data Points	3601
Detector	UV
Generating Data System	Chromeleon 7.2.9.11323
Exporting Data System	Chromeleon 7.2.9.0
Operator	Instrument Controller
Signal Quantity	Absorbance
Signal Unit	mAU
Signal Min.	-0,121006
Signal Max.	125,634457
Channel	UV_VIS_1
Driver Name	VWD3000.dll
Channel Type	Evaluation
Min. Step (s)	0,1
Max. Step (s)	0,1
Average Step (s)	0,1

Signal Parameter Information:
Signal Info	WVL:194 nm

Chromatogram Data:
Time (min)	Step (s)	Value (mAU)
0,000833	n.a.	-0,044952
0,002500	0,1	-0,058650
0,004167	0,1	-0,036431
0,005833	0,1	-0,045818
0,007500	0,1	-0,047869
0,009167	0,1	-0,053704
0,010833	0,1	-0,058837
0,012500	0,1	-0,053583
0,014167	0,1	-0,033055
0,015833	0,1	-0,103089
0,017500	0,1	-0,055913
0,019167	0,1	-0,058899
0,020833	0,1	-0,069726
0,022500	0,1	-0,061678
0,024167	0,1	-0,056256
0,025833	0,1	-0,071588
0,027500	0,1	-0,070062
0,029167	0,1	-0,071504
0,030833	0,1	-0,075642
0,032500	0,1	-0,118416
0,034167	0,1	-0,094131
0,035833	0,1	-0,087192
0,037500	0,1	-0,089783
0,039167	0,1	-0,114421
0,040833	0,1	-0,121006
0,042500	0,1	-0,104439
0,044167	0,1	-0,064518
0,045833	0,1	-0,114414
0,047500	0,1	-0,085687
0,049167	0,1	-0,089571
0,050833	0,1	-0,074327
0,052500	0,1	-0,067225
0,054167	0,1	-0,061451
0,055833	0,1	-0,078415
0,057500	0,1	-0,040593
0,059167	0,1	-0,073508
0,060833	0,1	-0,072023
0,062500	0,1	-0,089552
0,064167	0,1	-0,054355
0,065833	0,1	-0,059232
0,067500	0,1	-0,053978
0,069167	0,1	-0,092586
0,070833	0,1	-0,061227
0,072500	0,1	-0,016169
0,074167	0,1	-0,038943
0,075833	0,1	-0,078348
0,077500	0,1	-0,072419
0,079167	0,1	-0,017601
0,080833	0,1	-0,009828
0,082500	0,1	-0,057420
0,084167	0,1	-0,080604
0,085833	0,1	-0,026832
0,087500	0,1	-0,016390
0,089167	0,1	-0,028284
0,090833	0,1	-0,019330
0,092500	0,1	0,005715
0,094167	0,1	-0,027908
0,095833	0,1	-0,021275
0,097500	0,1	-0,007077
0,099167	0,1	-0,021517
0,100833	0,1	-0,021044
0,102500	0,1	-0,063759
0,104167	0,1	-0,037468
0,105833	0,1	-0,050494
0,107500	0,1	-0,067096
0,109167	0,1	-0,110671
0,110833	0,1	-0,035493
0,112500	0,1	-0,017613
0,114167	0,1	-0,106857
0,115833	0,1	-0,099638
0,117500	0,1	-0,086763
0,119167	0,1	-0,071699
0,120833	0,1	-0,050749
0,122500	0,1	-0,059749
0,124167	0,1	-0,063496
0,125833	0,1	-0,105796
0,127500	0,1	-0,052891
0,129167	0,1	-0,063450
0,130833	0,1	-0,105005
0,132500	0,1	-0,084532
0,134167	0,1	-0,077948
0,135833	0,1	-0,041444
0,137500	0,1	-0,072576
0,139167	0,1	-0,053981
0,140833	0,1	-0,041912
0,142500	0,1	-0,033299
0,144167	0,1	-0,051838
0,145833	0,1	-0,024838
0,147500	0,1	-0,033154
0,149167	0,1	-0,031187
0,150833	0,1	-0,057347
0,152500	0,1	-0,026764
0,154167	0,1	-0,025889
0,155833	0,1	-0,032056
0,157500	0,1	-0,009729
0,159167	0,1	-0,050364
0,160833	0,1	-0,032203
0,162500	0,1	-0,059764
0,164167	0,1	-0,018363
0,165833	0,1	-0,060136
0,167500	0,1	-0,048040
0,169167	0,1	-0,010683
0,170833	0,1	-0,033545
0,172500	0,1	-0,042857
0,174167	0,1	-0,008157
0,175833	0,1	-0,026691
0,177500	0,1	-0,037274
0,179167	0,1	0,003163
0,180833	0,1	-0,067039
0,182500	0,1	-0,015737
0,184167	0,1	-0,020198
0,185833	0,1	-0,012518
0,187500	0,1	-0,025638
0,189167	0,1	-0,034516
0,190833	0,1	-0,045115
0,192500	0,1	-0,042904
0,194167	0,1	-0,049545
0,195833	0,1	-0,028669
0,197500	0,1	-0,034376
0,199167	0,1	-0,020738
0,200833	0,1	-0,038717
0,202500	0,1	-0,005982
0,204167	0,1	-0,039606
0,205833	0,1	-0,040564
0,207500	0,1	-0,003315
0,209167	0,1	-0,026110
0,210833	0,1	-0,016740
0,212500	0,1	-0,064066
0,214167	0,1	-0,062775
0,215833	0,1	-0,040861
0,217500	0,1	-0,000873
0,219167	0,1	-0,024476
0,220833	0,1	-0,036526
0,222500	0,1	-0,031355
0,224167	0,1	-0,023015
0,225833	0,1	-0,020300
0,227500	0,1	0,003499
0,229167	0,1	-0,022303
0,230833	0,1	-0,049005
0,232500	0,1	-0,045636
0,234167	0,1	0,007695
0,235833	0,1	-0,033743
0,237500	0,1	-0,006274
0,239167	0,1	-0,068077
0,240833	0,1	-0,009675
0,242500	0,1	-0,028554
0,244167	0,1	-0,029989
0,245833	0,1	-0,039303
0,247500	0,1	0,017400
0,249167	0,1	-0,020499
0,250833	0,1	-0,004678
0,252500	0,1	-0,004361
0,254167	0,1	-0,030003
0,255833	0,1	-0,026802
0,257500	0,1	-0,031974
0,259167	0,1	-0,049624
0,260833	0,1	-0,025874
0,262500	0,1	-0,021501
0,264167	0,1	-0,006931
0,265833	0,1	0,021651
0,267500	0,1	-0,024056
0,269167	0,1	-0,015294
0,270833	0,1	-0,020710
0,272500	0,1	-0,043187
0,274167	0,1	-0,008984
0,275833	0,1	-0,022015
0,277500	0,1	0,017634
0,279167	0,1	0,004273
0,280833	0,1	-0,003884
0,282500	0,1	0,022439
0,284167	0,1	-0,032810
0,285833	0,1	0,011030
0,287500	0,1	-0,009718
0,289167	0,1	-0,033809
0,290833	0,1	-0,020696
0,292500	0,1	0,011135
0,294167	0,1	0,002263
0,295833	0,1	-0,031967
0,297500	0,1	-0,021193
0,299167	0,1	-0,035675
0,300833	0,1	-0,010889
0,302500	0,1	-0,019099
0,304167	0,1	0,007949
0,305833	0,1	-0,052970
0,307500	0,1	0,008437
0,309167	0,1	0,003735
0,310833	0,1	0,003049
0,312500	0,1	0,022419
0,314167	0,1	-0,031983
0,315833	0,1	-0,024586
0,317500	0,1	-0,058275
0,319167	0,1	-0,019667
0,320833	0,1	-0,008731
0,322500	0,1	-0,028080
0,324167	0,1	-0,005525
0,325833	0,1	0,002653
0,327500	0,1	-0,010712
0,329167	0,1	-0,022842
0,330833	0,1	-0,034478
0,332500	0,1	-0,002610
0,334167	0,1	-0,036706
0,335833	0,1	-0,026241
0,337500	0,1	-0,011546
0,339167	0,1	0,001597
0,340833	0,1	0,012011
0,342500	0,1	-0,024411
0,344167	0,1	0,009023
0,345833	0,1	-0,018741
0,347500	0,1	0,011114
0,349167	0,1	0,021138
0,350833	0,1	-0,003195
0,352500	0,1	-0,024456
0,354167	0,1	0,011630
0,355833	0,1	-0,011228
0,357500	0,1	0,001018
0,359167	0,1	0,013375
0,360833	0,1	-0,030455
0,362500	0,1	-0,003849
0,364167	0,1	0,018797
0,365833	0,1	-0,001191
0,367500	0,1	-0,031556
0,369167	0,1	-0,013225
0,370833	0,1	-0,000805
0,372500	0,1	0,014410
0,374167	0,1	-0,002431
0,375833	0,1	-0,025653
0,377500	0,1	0,009497
0,379167	0,1	-0,006861
0,380833	0,1	0,004391
0,382500	0,1	-0,000491
0,384167	0,1	0,007498
0,385833	0,1	0,019773
0,387500	0,1	-0,046162
0,389167	0,1	-0,023060
0,390833	0,1	-0,001015
0,392500	0,1	0,006153
0,394167	0,1	-0,015825
0,395833	0,1	0,011756
0,397500	0,1	-0,006861
0,399167	0,1	0,004620
0,400833	0,1	0,029272
0,402500	0,1	0,001958
0,404167	0,1	0,038439
0,405833	0,1	-0,008057
0,407500	0,1	0,000833
0,409167	0,1	0,023184
0,410833	0,1	0,001956
0,412500	0,1	0,001415
0,414167	0,1	-0,034307
0,415833	0,1	0,049295
0,417500	0,1	0,006453
0,419167	0,1	0,043118
0,420833	0,1	0,043994
0,422500	0,1	0,011337
0,424167	0,1	0,053571
0,425833	0,1	0,033629
0,427500	0,1	0,018577
0,429167	0,1	0,031179
0,430833	0,1	0,042708
0,432500	0,1	0,002128
0,434167	0,1	0,039224
0,435833	0,1	0,036998
0,437500	0,1	0,008109
0,439167	0,1	0,008265
0,440833	0,1	0,029955
0,442500	0,1	0,055023
0,444167	0,1	0,030629
0,445833	0,1	0,027227
0,447500	0,1	0,020791
0,449167	0,1	-0,030038
0,450833	0,1	-0,043110
0,452500	0,1	0,049293
0,454167	0,1	0,027978
0,455833	0,1	0,057837
0,457500	0,1	0,057370
0,459167	0,1	0,013679
0,460833	0,1	0,077083
0,462500	0,1	0,044025
0,464167	0,1	0,034867
0,465833	0,1	0,019219
0,467500	0,1	0,037966
0,469167	0,1	-0,032021
0,470833	0,1	-0,007327
0,472500	0,1	0,023867
0,474167	0,1	0,029875
0,475833	0,1	-0,006671
0,477500	0,1	-0,007197
0,479167	0,1	0,053442
0,480833	0,1	0,041099
0,482500	0,1	0,049666
0,484167	0,1	0,018416
0,485833	0,1	0,078347
0,487500	0,1	0,028627
0,489167	0,1	0,065743
0,490833	0,1	0,017156
0,492500	0,1	0,035545
0,494167	0,1	0,035404
0,495833	0,1	0,028347
0,497500	0,1	0,040017
0,499167	0,1	0,052066
0,500833	0,1	0,033855
0,502500	0,1	0,016156
0,504167	0,1	0,051336
0,505833	0,1	0,007944
0,507500	0,1	0,047030
0,509167	0,1	0,035758
0,510833	0,1	0,029795
0,512500	0,1	0,043123
0,514167	0,1	0,052378
0,515833	0,1	0,019803
0,517500	0,1	0,075594
0,519167	0,1	0,027755
0,520833	0,1	0,076589
0,522500	0,1	0,068321
0,524167	0,1	0,036634
0,525833	0,1	0,042006
0,527500	0,1	0,019159
0,529167	0,1	0,039808
0,530833	0,1	0,013405
0,532500	0,1	0,031611
0,534167	0,1	0,069718
0,535833	0,1	0,034957
0,537500	0,1	0,028285
0,539167	0,1	0,039168
0,540833	0,1	0,061317
0,542500	0,1	0,058818
0,544167	0,1	0,040769
0,545833	0,1	0,092820
0,547500	0,1	0,011844
0,549167	0,1	0,031652
0,550833	0,1	0,049642
0,552500	0,1	0,080735
0,554167	0,1	0,082108
0,555833	0,1	0,067475
0,557500	0,1	0,113111
0,559167	0,1	0,092588
0,560833	0,1	0,043449
0,562500	0,1	0,050370
0,564167	0,1	0,080280
0,565833	0,1	0,033242
0,567500	0,1	0,087230
0,569167	0,1	0,061701
0,570833	0,1	0,066891
0,572500	0,1	0,041599
0,574167	0,1	0,072536
0,575833	0,1	0,067348
0,577500	0,1	0,033798
0,579167	0,1	0,108759
0,580833	0,1	0,095652
0,582500	0,1	0,066195
0,584167	0,1	0,069727
0,585833	0,1	0,107235
0,587500	0,1	0,057339
0,589167	0,1	0,062853
0,590833	0,1	0,083717
0,592500	0,1	0,070975
0,594167	0,1	0,022829
0,595833	0,1	0,091844
0,597500	0,1	0,080497
0,599167	0,1	0,106783
0,600833	0,1	0,107906
0,602500	0,1	0,077129
0,604167	0,1	0,065094
0,605833	0,1	0,076578
0,607500	0,1	0,065715
0,609167	0,1	0,125968
0,610833	0,1	0,120991
0,612500	0,1	0,057860
0,614167	0,1	0,081608
0,615833	0,1	0,056174
0,617500	0,1	0,097339
0,619167	0,1	0,090186
0,620833	0,1	0,101072
0,622500	0,1	0,116101
0,624167	0,1	0,103354
0,625833	0,1	0,121506
0,627500	0,1	0,053431
0,629167	0,1	0,127498
0,630833	0,1	0,111182
0,632500	0,1	0,128317
0,634167	0,1	0,095244
0,635833	0,1	0,107137
0,637500	0,1	0,144360
0,639167	0,1	0,107149
0,640833	0,1	0,148085
0,642500	0,1	0,092040
0,644167	0,1	0,091572
0,645833	0,1	0,131045
0,647500	0,1	0,114183
0,649167	0,1	0,133226
0,650833	0,1	0,179892
0,652500	0,1	0,111486
0,654167	0,1	0,132709
0,655833	0,1	0,131947
0,657500	0,1	0,160513
0,659167	0,1	0,156394
0,660833	0,1	0,107482
0,662500	0,1	0,157486
0,664167	0,1	0,147377
0,665833	0,1	0,163272
0,667500	0,1	0,134168
0,669167	0,1	0,133144
0,670833	0,1	0,163253
0,672500	0,1	0,153483
0,674167	0,1	0,155093
0,675833	0,1	0,140521
0,677500	0,1	0,146271
0,679167	0,1	0,184034
0,680833	0,1	0,133180
0,682500	0,1	0,159252
0,684167	0,1	0,140647
0,685833	0,1	0,152297
0,687500	0,1	0,194116
0,689167	0,1	0,199050
0,690833	0,1	0,127783
0,692500	0,1	0,167015
0,694167	0,1	0,188244
0,695833	0,1	0,159970
0,697500	0,1	0,140092
0,699167	0,1	0,174531
0,700833	0,1	0,177044
0,702500	0,1	0,187479
0,704167	0,1	0,157317
0,705833	0,1	0,190934
0,707500	0,1	0,176822
0,709167	0,1	0,197520
0,710833	0,1	0,144365
0,712500	0,1	0,199917
0,714167	0,1	0,231129
0,715833	0,1	0,206105
0,717500	0,1	0,213963
0,719167	0,1	0,196020
0,720833	0,1	0,209494
0,722500	0,1	0,208299
0,724167	0,1	0,221503
0,725833	0,1	0,206202
0,727500	0,1	0,230651
0,729167	0,1	0,235855
0,730833	0,1	0,232899
0,732500	0,1	0,227991
0,734167	0,1	0,233853
0,735833	0,1	0,236650
0,737500	0,1	0,251703
0,739167	0,1	0,263426
0,740833	0,1	0,237726
0,742500	0,1	0,288420
0,744167	0,1	0,215607
0,745833	0,1	0,232692
0,747500	0,1	0,282100
0,749167	0,1	0,270908
0,750833	0,1	0,257074
0,752500	0,1	0,238065
0,754167	0,1	0,279786
0,755833	0,1	0,296371
0,757500	0,1	0,289728
0,759167	0,1	0,313868
0,760833	0,1	0,263756
0,762500	0,1	0,298372
0,764167	0,1	0,278843
0,765833	0,1	0,278449
0,767500	0,1	0,271550
0,769167	0,1	0,281630
0,770833	0,1	0,274760
0,772500	0,1	0,269008
0,774167	0,1	0,315138
0,775833	0,1	0,258558
0,777500	0,1	0,275723
0,779167	0,1	0,296196
0,780833	0,1	0,300642
0,782500	0,1	0,227968
0,784167	0,1	0,299685
0,785833	0,1	0,310626
0,787500	0,1	0,288754
0,789167	0,1	0,288116
0,790833	0,1	0,236852
0,792500	0,1	0,258929
0,794167	0,1	0,289105
0,795833	0,1	0,328879
0,797500	0,1	0,283959
0,799167	0,1	0,258235
0,800833	0,1	0,267630
0,802500	0,1	0,273662
0,804167	0,1	0,281289
0,805833	0,1	0,269435
0,807500	0,1	0,263556
0,809167	0,1	0,242647
0,810833	0,1	0,310350
0,812500	0,1	0,318494
0,814167	0,1	0,306073
0,815833	0,1	0,243324
0,817500	0,1	0,272926
0,819167	0,1	0,293865
0,820833	0,1	0,280389
0,822500	0,1	0,257214
0,824167	0,1	0,276781
0,825833	0,1	0,297417
0,827500	0,1	0,272396
0,829167	0,1	0,285482
0,830833	0,1	0,247953
0,832500	0,1	0,259609
0,834167	0,1	0,275849
0,835833	0,1	0,235251
0,837500	0,1	0,259291
0,839167	0,1	0,292287
0,840833	0,1	0,226493
0,842500	0,1	0,251247
0,844167	0,1	0,277257
0,845833	0,1	0,297907
0,847500	0,1	0,256049
0,849167	0,1	0,304737
0,850833	0,1	0,302028
0,852500	0,1	0,245980
0,854167	0,1	0,273404
0,855833	0,1	0,279957
0,857500	0,1	0,264414
0,859167	0,1	0,310292
0,860833	0,1	0,295825
0,862500	0,1	0,303870
0,864167	0,1	0,255760
0,865833	0,1	0,311574
0,867500	0,1	0,260030
0,869167	0,1	0,276908
0,870833	0,1	0,289815
0,872500	0,1	0,279771
0,874167	0,1	0,285231
0,875833	0,1	0,316011
0,877500	0,1	0,297952
0,879167	0,1	0,305227
0,880833	0,1	0,328566
0,882500	0,1	0,298072
0,884167	0,1	0,300379
0,885833	0,1	0,288799
0,887500	0,1	0,285061
0,889167	0,1	0,314981
0,890833	0,1	0,279325
0,892500	0,1	0,296687
0,894167	0,1	0,291998
0,895833	0,1	0,326835
0,897500	0,1	0,291816
0,899167	0,1	0,310270
0,900833	0,1	0,320051
0,902500	0,1	0,270086
0,904167	0,1	0,312507
0,905833	0,1	0,285355
0,907500	0,1	0,292157
0,909167	0,1	0,315216
0,910833	0,1	0,341446
0,912500	0,1	0,295671
0,914167	0,1	0,305904
0,915833	0,1	0,314154
0,917500	0,1	0,314634
0,919167	0,1	0,302726
0,920833	0,1	0,307958
0,922500	0,1	0,295236
0,924167	0,1	0,357582
0,925833	0,1	0,347007
0,927500	0,1	0,308032
0,929167	0,1	0,328342
0,930833	0,1	0,309564
0,932500	0,1	0,314281
0,934167	0,1	0,334988
0,935833	0,1	0,314765
0,937500	0,1	0,371783
0,939167	0,1	0,353722
0,940833	0,1	0,353717
0,942500	0,1	0,308413
0,944167	0,1	0,325483
0,945833	0,1	0,396694
0,947500	0,1	0,332567
0,949167	0,1	0,367450
0,950833	0,1	0,339622
0,952500	0,1	0,341225
0,954167	0,1	0,371819
0,955833	0,1	0,362483
0,957500	0,1	0,341901
0,959167	0,1	0,379749
0,960833	0,1	0,358569
0,962500	0,1	0,333461
0,964167	0,1	0,370370
0,965833	0,1	0,380237
0,967500	0,1	0,403712
0,969167	0,1	0,386666
0,970833	0,1	0,367108
0,972500	0,1	0,342227
0,974167	0,1	0,356600
0,975833	0,1	0,383444
0,977500	0,1	0,413371
0,979167	0,1	0,334750
0,980833	0,1	0,377496
0,982500	0,1	0,383640
0,984167	0,1	0,388036
0,985833	0,1	0,379181
0,987500	0,1	0,404864
0,989167	0,1	0,405124
0,990833	0,1	0,384068
0,992500	0,1	0,434116
0,994167	0,1	0,452237
0,995833	0,1	0,446461
0,997500	0,1	0,446169
0,999167	0,1	0,456735
1,000833	0,1	0,439814
1,002500	0,1	0,446136
1,004167	0,1	0,438655
1,005833	0,1	0,457245
1,007500	0,1	0,491192
1,009167	0,1	0,474792
1,010833	0,1	0,513934
1,012500	0,1	0,470494
1,014167	0,1	0,462103
1,015833	0,1	0,540650
1,017500	0,1	0,530649
1,019167	0,1	0,554704
1,020833	0,1	0,577705
1,022500	0,1	0,579027
1,024167	0,1	0,546203
1,025833	0,1	0,600958
1,027500	0,1	0,611124
1,029167	0,1	0,574313
1,030833	0,1	0,604917
1,032500	0,1	0,645176
1,034167	0,1	0,643805
1,035833	0,1	0,642422
1,037500	0,1	0,643836
1,039167	0,1	0,636510
1,040833	0,1	0,680328
1,042500	0,1	0,675393
1,044167	0,1	0,709253
1,045833	0,1	0,666664
1,047500	0,1	0,688528
1,049167	0,1	0,735929
1,050833	0,1	0,750617
1,052500	0,1	0,784944
1,054167	0,1	0,777686
1,055833	0,1	0,793530
1,057500	0,1	0,932224
1,059167	0,1	0,953169
1,060833	0,1	1,003388
1,062500	0,1	1,148815
1,064167	0,1	1,316577
1,065833	0,1	1,495769
1,067500	0,1	1,768652
1,069167	0,1	2,145641
1,070833	0,1	2,559609
1,072500	0,1	3,018995
1,074167	0,1	3,616142
1,075833	0,1	4,384546
1,077500	0,1	5,250450
1,079167	0,1	6,295297
1,080833	0,1	7,474913
1,082500	0,1	8,800452
1,084167	0,1	10,268321
1,085833	0,1	11,909196
1,087500	0,1	13,714312
1,089167	0,1	15,569937
1,090833	0,1	17,536709
1,092500	0,1	19,651319
1,094167	0,1	21,732896
1,095833	0,1	23,839908
1,097500	0,1	25,968717
1,099167	0,1	28,034588
1,100833	0,1	29,992341
1,102500	0,1	31,808046
1,104167	0,1	33,588531
1,105833	0,1	35,152156
1,107500	0,1	36,559783
1,109167	0,1	37,824411
1,110833	0,1	38,831944
1,112500	0,1	39,705095
1,114167	0,1	40,370366
1,115833	0,1	40,926575
1,117500	0,1	41,327526
1,119167	0,1	41,592135
1,120833	0,1	41,744484
1,122500	0,1	41,777255
1,124167	0,1	41,799231
1,125833	0,1	41,650311
1,127500	0,1	41,624932
1,129167	0,1	41,445771
1,130833	0,1	41,283906
1,132500	0,1	41,138501
1,134167	0,1	41,038408
1,135833	0,1	40,937562
1,137500	0,1	40,892775
1,139167	0,1	40,970784
1,140833	0,1	41,071857
1,142500	0,1	41,243713
1,144167	0,1	41,600438
1,145833	0,1	41,921916
1,147500	0,1	42,366537
1,149167	0,1	42,987473
1,150833	0,1	43,653930
1,152500	0,1	44,431322
1,154167	0,1	45,306160
1,155833	0,1	46,279995
1,157500	0,1	47,381712
1,159167	0,1	48,481473
1,160833	0,1	49,668499
1,162500	0,1	50,916351
1,164167	0,1	52,203679
1,165833	0,1	53,502833
1,167500	0,1	54,803158
1,169167	0,1	56,106471
1,170833	0,1	57,389614
1,172500	0,1	58,565528
1,174167	0,1	59,645392
1,175833	0,1	60,822930
1,177500	0,1	61,800622
1,179167	0,1	62,760775
1,180833	0,1	63,575764
1,182500	0,1	64,355945
1,184167	0,1	64,972963
1,185833	0,1	65,529648
1,187500	0,1	66,001349
1,189167	0,1	66,389462
1,190833	0,1	66,704333
1,192500	0,1	67,022044
1,194167	0,1	67,259684
1,195833	0,1	67,454585
1,197500	0,1	67,754953
1,199167	0,1	68,016541
1,200833	0,1	68,315846
1,202500	0,1	68,716202
1,204167	0,1	69,263738
1,205833	0,1	69,935702
1,207500	0,1	70,733867
1,209167	0,1	71,722544
1,210833	0,1	72,934935
1,212500	0,1	74,359433
1,214167	0,1	75,962326
1,215833	0,1	77,768520
1,217500	0,1	79,776486
1,219167	0,1	82,034814
1,220833	0,1	84,405784
1,222500	0,1	86,980826
1,224167	0,1	89,694774
1,225833	0,1	92,495562
1,227500	0,1	95,328077
1,229167	0,1	98,178764
1,230833	0,1	101,129692
1,232500	0,1	103,921735
1,234167	0,1	106,714576
1,235833	0,1	109,321972
1,237500	0,1	111,942688
1,239167	0,1	114,306645
1,240833	0,1	116,457498
1,242500	0,1	118,391370
1,244167	0,1	120,199399
1,245833	0,1	121,718023
1,247500	0,1	122,983318
1,249167	0,1	124,011579
1,250833	0,1	124,817079
1,252500	0,1	125,275507
1,254167	0,1	125,593737
1,255833	0,1	125,634457
1,257500	0,1	125,372449
1,259167	0,1	124,940059
1,260833	0,1	124,270053
1,262500	0,1	123,375445
1,264167	0,1	122,205363
1,265833	0,1	120,898914
1,267500	0,1	119,369222
1,269167	0,1	117,678804
1,270833	0,1	115,825446
1,272500	0,1	113,799745
1,274167	0,1	111,588992
1,275833	0,1	109,391344
1,277500	0,1	106,999816
1,279167	0,1	104,547279
1,280833	0,1	102,029103
1,282500	0,1	99,382729
1,284167	0,1	96,721583
1,285833	0,1	94,062551
1,287500	0,1	91,337389
1,289167	0,1	88,608314
1,290833	0,1	85,893877
1,292500	0,1	83,259896
1,294167	0,1	80,584947
1,295833	0,1	78,002517
1,297500	0,1	75,485943
1,299167	0,1	72,937112
1,300833	0,1	70,503476
1,302500	0,1	68,104556
1,304167	0,1	65,807676
1,305833	0,1	63,572443
1,307500	0,1	61,383877
1,309167	0,1	59,271854
1,310833	0,1	57,247035
1,312500	0,1	55,326140
1,314167	0,1	53,487384
1,315833	0,1	51,617550
1,317500	0,1	49,878611
1,319167	0,1	48,203068
1,320833	0,1	46,625380
1,322500	0,1	45,113977
1,324167	0,1	43,596755
1,325833	0,1	42,206197
1,327500	0,1	40,789323
1,329167	0,1	39,502683
1,330833	0,1	38,237604
1,332500	0,1	37,059563
1,334167	0,1	35,879861
1,335833	0,1	34,784761
1,337500	0,1	33,693424
1,339167	0,1	32,636908
1,340833	0,1	31,692034
1,342500	0,1	30,728068
1,344167	0,1	29,803642
1,345833	0,1	28,932854
1,347500	0,1	28,092291
1,349167	0,1	27,290787
1,350833	0,1	26,441514
1,352500	0,1	25,690265
1,354167	0,1	24,953465
1,355833	0,1	24,295254
1,357500	0,1	23,547839
1,359167	0,1	22,917826
1,360833	0,1	22,288966
1,362500	0,1	21,691330
1,364167	0,1	21,047210
1,365833	0,1	20,525989
1,367500	0,1	19,964616
1,369167	0,1	19,456288
1,370833	0,1	18,882476
1,372500	0,1	18,425679
1,374167	0,1	17,948917
1,375833	0,1	17,477325
1,377500	0,1	17,089608
1,379167	0,1	16,630780
1,380833	0,1	16,210679
1,382500	0,1	15,819041
1,384167	0,1	15,455029
1,385833	0,1	15,128665
1,387500	0,1	14,759658
1,389167	0,1	14,414713
1,390833	0,1	14,097762
1,392500	0,1	13,779643
1,394167	0,1	13,471470
1,395833	0,1	13,182086
1,397500	0,1	12,961256
1,399167	0,1	12,645466
1,400833	0,1	12,443858
1,402500	0,1	12,203893
1,404167	0,1	11,972998
1,405833	0,1	11,747819
1,407500	0,1	11,559095
1,409167	0,1	11,355178
1,410833	0,1	11,137823
1,412500	0,1	10,964587
1,414167	0,1	10,787270
1,415833	0,1	10,623389
1,417500	0,1	10,473256
1,419167	0,1	10,327197
1,420833	0,1	10,115923
1,422500	0,1	10,046637
1,424167	0,1	9,819077
1,425833	0,1	9,762890
1,427500	0,1	9,585103
1,429167	0,1	9,440036
1,430833	0,1	9,380583
1,432500	0,1	9,240685
1,434167	0,1	9,110814
1,435833	0,1	9,037968
1,437500	0,1	8,897857
1,439167	0,1	8,788760
1,440833	0,1	8,691124
1,442500	0,1	8,595028
1,444167	0,1	8,484280
1,445833	0,1	8,348420
1,447500	0,1	8,330947
1,449167	0,1	8,194801
1,450833	0,1	8,146438
1,452500	0,1	8,044302
1,454167	0,1	7,940769
1,455833	0,1	7,834826
1,457500	0,1	7,827673
1,459167	0,1	7,704525
1,460833	0,1	7,624661
1,462500	0,1	7,594871
1,464167	0,1	7,504993
1,465833	0,1	7,480691
1,467500	0,1	7,367426
1,469167	0,1	7,381944
1,470833	0,1	7,289487
1,472500	0,1	7,218176
1,474167	0,1	7,201377
1,475833	0,1	7,155820
1,477500	0,1	7,160929
1,479167	0,1	7,108945
1,480833	0,1	7,076699
1,482500	0,1	7,049957
1,484167	0,1	7,050229
1,485833	0,1	7,050789
1,487500	0,1	7,015861
1,489167	0,1	6,991356
1,490833	0,1	7,065864
1,492500	0,1	7,020521
1,494167	0,1	7,028520
1,495833	0,1	7,044357
1,497500	0,1	7,076124
1,499167	0,1	7,077249
1,500833	0,1	7,135288
1,502500	0,1	7,099809
1,504167	0,1	7,156537
1,505833	0,1	7,138571
1,507500	0,1	7,173406
1,509167	0,1	7,185722
1,510833	0,1	7,231286
1,512500	0,1	7,240248
1,514167	0,1	7,260560
1,515833	0,1	7,278650
1,517500	0,1	7,308751
1,519167	0,1	7,275864
1,520833	0,1	7,347150
1,522500	0,1	7,344090
1,524167	0,1	7,341395
1,525833	0,1	7,372703
1,527500	0,1	7,378595
1,529167	0,1	7,341309
1,530833	0,1	7,359373
1,532500	0,1	7,377743
1,534167	0,1	7,374112
1,535833	0,1	7,373167
1,537500	0,1	7,348299
1,539167	0,1	7,323401
1,540833	0,1	7,343621
1,542500	0,1	7,325641
1,544167	0,1	7,286028
1,545833	0,1	7,249573
1,547500	0,1	7,222351
1,549167	0,1	7,215920
1,550833	0,1	7,232415
1,552500	0,1	7,164114
1,554167	0,1	7,097576
1,555833	0,1	7,143213
1,557500	0,1	7,083786
1,559167	0,1	7,042879
1,560833	0,1	7,055350
1,562500	0,1	6,965194
1,564167	0,1	6,954932
1,565833	0,1	6,905483
1,567500	0,1	6,879864
1,569167	0,1	6,834138
1,570833	0,1	6,789069
1,572500	0,1	6,769417
1,574167	0,1	6,728741
1,575833	0,1	6,682847
1,577500	0,1	6,633316
1,579167	0,1	6,606323
1,580833	0,1	6,542388
1,582500	0,1	6,521176
1,584167	0,1	6,394725
1,585833	0,1	6,394232
1,587500	0,1	6,401223
1,589167	0,1	6,357335
1,590833	0,1	6,301343
1,592500	0,1	6,269526
1,594167	0,1	6,150592
1,595833	0,1	6,160810
1,597500	0,1	6,078538
1,599167	0,1	6,057700
1,600833	0,1	6,045881
1,602500	0,1	5,955271
1,604167	0,1	5,902304
1,605833	0,1	5,877121
1,607500	0,1	5,901018
1,609167	0,1	5,791188
1,610833	0,1	5,820383
1,612500	0,1	5,701844
1,614167	0,1	5,682965
1,615833	0,1	5,633281
1,617500	0,1	5,566939
1,619167	0,1	5,532095
1,620833	0,1	5,528081
1,622500	0,1	5,463649
1,624167	0,1	5,427082
1,625833	0,1	5,393148
1,627500	0,1	5,321057
1,629167	0,1	5,317219
1,630833	0,1	5,283962
1,632500	0,1	5,248121
1,634167	0,1	5,180310
1,635833	0,1	5,163469
1,637500	0,1	5,135860
1,639167	0,1	5,078306
1,640833	0,1	5,053094
1,642500	0,1	5,030204
1,644167	0,1	5,011431
1,645833	0,1	4,973987
1,647500	0,1	4,934363
1,649167	0,1	4,910178
1,650833	0,1	4,859753
1,652500	0,1	4,875503
1,654167	0,1	4,833411
1,655833	0,1	4,817832
1,657500	0,1	4,805587
1,659167	0,1	4,793606
1,660833	0,1	4,749747
1,662500	0,1	4,796985
1,664167	0,1	4,748700
1,665833	0,1	4,790283
1,667500	0,1	4,788049
1,669167	0,1	4,792239
1,670833	0,1	4,766211
1,672500	0,1	4,802414
1,674167	0,1	4,813052
1,675833	0,1	4,826992
1,677500	0,1	4,824617
1,679167	0,1	4,888146
1,680833	0,1	4,924547
1,682500	0,1	4,956384
1,684167	0,1	5,013247
1,685833	0,1	5,008434
1,687500	0,1	5,061484
1,689167	0,1	5,139251
1,690833	0,1	5,212912
1,692500	0,1	5,260474
1,694167	0,1	5,289903
1,695833	0,1	5,384474
1,697500	0,1	5,439125
1,699167	0,1	5,518680
1,700833	0,1	5,582705
1,702500	0,1	5,633279
1,704167	0,1	5,690989
1,705833	0,1	5,799326
1,707500	0,1	5,860296
1,709167	0,1	5,913408
1,710833	0,1	5,990672
1,712500	0,1	6,094228
1,714167	0,1	6,168695
1,715833	0,1	6,200688
1,717500	0,1	6,311159
1,719167	0,1	6,365976
1,720833	0,1	6,425867
1,722500	0,1	6,465863
1,724167	0,1	6,519378
1,725833	0,1	6,577056
1,727500	0,1	6,633295
1,729167	0,1	6,671546
1,730833	0,1	6,706189
1,732500	0,1	6,741938
1,734167	0,1	6,772949
1,735833	0,1	6,755072
1,737500	0,1	6,807944
1,739167	0,1	6,830581
1,740833	0,1	6,844559
1,742500	0,1	6,858244
1,744167	0,1	6,859551
1,745833	0,1	6,925291
1,747500	0,1	6,879684
1,749167	0,1	6,859745
1,750833	0,1	6,839814
1,752500	0,1	6,864484
1,754167	0,1	6,806949
1,755833	0,1	6,831048
1,757500	0,1	6,756395
1,759167	0,1	6,733571
1,760833	0,1	6,747911
1,762500	0,1	6,689553
1,764167	0,1	6,615174
1,765833	0,1	6,596262
1,767500	0,1	6,587716
1,769167	0,1	6,481743
1,770833	0,1	6,445039
1,772500	0,1	6,407663
1,774167	0,1	6,326271
1,775833	0,1	6,248603
1,777500	0,1	6,193536
1,779167	0,1	6,141683
1,780833	0,1	6,081326
1,782500	0,1	6,020072
1,784167	0,1	5,934395
1,785833	0,1	5,892031
1,787500	0,1	5,825768
1,789167	0,1	5,747754
1,790833	0,1	5,694327
1,792500	0,1	5,600336
1,794167	0,1	5,530306
1,795833	0,1	5,439504
1,797500	0,1	5,381778
1,799167	0,1	5,289737
1,800833	0,1	5,252555
1,802500	0,1	5,159536
1,804167	0,1	5,089093
1,805833	0,1	5,042740
1,807500	0,1	4,935029
1,809167	0,1	4,915256
1,810833	0,1	4,845444
1,812500	0,1	4,762815
1,814167	0,1	4,680347
1,815833	0,1	4,639463
1,817500	0,1	4,516931
1,819167	0,1	4,498394
1,820833	0,1	4,389253
1,822500	0,1	4,369464
1,824167	0,1	4,260887
1,825833	0,1	4,224583
1,827500	0,1	4,159838
1,829167	0,1	4,083966
1,830833	0,1	4,021489
1,832500	0,1	3,999558
1,834167	0,1	3,908794
1,835833	0,1	3,853057
1,837500	0,1	3,817288
1,839167	0,1	3,766626
1,840833	0,1	3,779084
1,842500	0,1	3,721684
1,844167	0,1	3,677975
1,845833	0,1	3,643549
1,847500	0,1	3,664912
1,849167	0,1	3,583075
1,850833	0,1	3,595190
1,852500	0,1	3,639105
1,854167	0,1	3,625793
1,855833	0,1	3,672159
1,857500	0,1	3,689384
1,859167	0,1	3,694251
1,860833	0,1	3,747516
1,862500	0,1	3,779159
1,864167	0,1	3,814445
1,865833	0,1	3,890325
1,867500	0,1	3,924462
1,869167	0,1	3,956554
1,870833	0,1	3,998167
1,872500	0,1	4,033497
1,874167	0,1	4,087094
1,875833	0,1	4,063996
1,877500	0,1	4,111705
1,879167	0,1	4,155759
1,880833	0,1	4,173871
1,882500	0,1	4,245089
1,884167	0,1	4,234985
1,885833	0,1	4,290294
1,887500	0,1	4,326469
1,889167	0,1	4,336644
1,890833	0,1	4,385286
1,892500	0,1	4,386916
1,894167	0,1	4,418801
1,895833	0,1	4,427027
1,897500	0,1	4,512573
1,899167	0,1	4,476548
1,900833	0,1	4,555177
1,902500	0,1	4,550092
1,904167	0,1	4,563914
1,905833	0,1	4,570966
1,907500	0,1	4,574566
1,909167	0,1	4,587579
1,910833	0,1	4,642447
1,912500	0,1	4,649192
1,914167	0,1	4,602519
1,915833	0,1	4,664027
1,917500	0,1	4,688188
1,919167	0,1	4,665427
1,920833	0,1	4,695004
1,922500	0,1	4,694964
1,924167	0,1	4,676254
1,925833	0,1	4,690434
1,927500	0,1	4,690837
1,929167	0,1	4,680779
1,930833	0,1	4,708828
1,932500	0,1	4,686184
1,934167	0,1	4,685447
1,935833	0,1	4,687263
1,937500	0,1	4,708863
1,939167	0,1	4,677836
1,940833	0,1	4,665543
1,942500	0,1	4,680525
1,944167	0,1	4,633121
1,945833	0,1	4,636517
1,947500	0,1	4,647860
1,949167	0,1	4,628043
1,950833	0,1	4,610696
1,952500	0,1	4,604197
1,954167	0,1	4,588683
1,955833	0,1	4,661003
1,957500	0,1	4,580632
1,959167	0,1	4,584987
1,960833	0,1	4,578432
1,962500	0,1	4,564651
1,964167	0,1	4,582966
1,965833	0,1	4,558937
1,967500	0,1	4,603537
1,969167	0,1	4,523287
1,970833	0,1	4,548996
1,972500	0,1	4,528741
1,974167	0,1	4,554386
1,975833	0,1	4,544712
1,977500	0,1	4,571610
1,979167	0,1	4,553748
1,980833	0,1	4,557387
1,982500	0,1	4,583403
1,984167	0,1	4,557969
1,985833	0,1	4,575009
1,987500	0,1	4,567161
1,989167	0,1	4,558121
1,990833	0,1	4,594058
1,992500	0,1	4,641848
1,994167	0,1	4,598582
1,995833	0,1	4,599621
1,997500	0,1	4,642828
1,999167	0,1	4,657741
2,000833	0,1	4,642794
2,002500	0,1	4,649877
2,004167	0,1	4,658755
2,005833	0,1	4,702006
2,007500	0,1	4,709018
2,009167	0,1	4,744890
2,010833	0,1	4,750585
2,012500	0,1	4,731393
2,014167	0,1	4,764717
2,015833	0,1	4,758587
2,017500	0,1	4,806818
2,019167	0,1	4,765815
2,020833	0,1	4,825981
2,022500	0,1	4,870974
2,024167	0,1	4,839113
2,025833	0,1	4,920537
2,027500	0,1	4,878584
2,029167	0,1	4,926554
2,030833	0,1	4,955942
2,032500	0,1	4,960598
2,034167	0,1	5,002612
2,035833	0,1	5,010463
2,037500	0,1	5,048757
2,039167	0,1	5,076142
2,040833	0,1	5,130222
2,042500	0,1	5,122333
2,044167	0,1	5,155100
2,045833	0,1	5,215657
2,047500	0,1	5,260722
2,049167	0,1	5,260425
2,050833	0,1	5,296031
2,052500	0,1	5,325435
2,054167	0,1	5,368222
2,055833	0,1	5,368856
2,057500	0,1	5,386785
2,059167	0,1	5,465909
2,060833	0,1	5,456685
2,062500	0,1	5,473269
2,064167	0,1	5,542016
2,065833	0,1	5,565034
2,067500	0,1	5,559149
2,069167	0,1	5,611135
2,070833	0,1	5,656596
2,072500	0,1	5,685533
2,074167	0,1	5,700102
2,075833	0,1	5,774360
2,077500	0,1	5,763289
2,079167	0,1	5,791435
2,080833	0,1	5,808645
2,082500	0,1	5,808896
2,084167	0,1	5,852423
2,085833	0,1	5,879622
2,087500	0,1	5,910579
2,089167	0,1	5,955164
2,090833	0,1	5,946069
2,092500	0,1	5,959044
2,094167	0,1	5,983144
2,095833	0,1	6,013367
2,097500	0,1	6,029931
2,099167	0,1	6,058441
2,100833	0,1	6,072124
2,102500	0,1	6,098623
2,104167	0,1	6,103820
2,105833	0,1	6,116643
2,107500	0,1	6,108851
2,109167	0,1	6,192238
2,110833	0,1	6,173834
2,112500	0,1	6,199512
2,114167	0,1	6,195579
2,115833	0,1	6,201153
2,117500	0,1	6,225884
2,119167	0,1	6,296675
2,120833	0,1	6,263510
2,122500	0,1	6,281255
2,124167	0,1	6,275950
2,125833	0,1	6,271743
2,127500	0,1	6,257792
2,129167	0,1	6,255454
2,130833	0,1	6,294999
2,132500	0,1	6,308207
2,134167	0,1	6,295012
2,135833	0,1	6,299925
2,137500	0,1	6,302271
2,139167	0,1	6,306166
2,140833	0,1	6,325494
2,142500	0,1	6,304848
2,144167	0,1	6,312036
2,145833	0,1	6,320319
2,147500	0,1	6,343826
2,149167	0,1	6,306176
2,150833	0,1	6,334999
2,152500	0,1	6,285704
2,154167	0,1	6,334061
2,155833	0,1	6,308768
2,157500	0,1	6,287753
2,159167	0,1	6,291461
2,160833	0,1	6,284593
2,162500	0,1	6,245890
2,164167	0,1	6,285863
2,165833	0,1	6,231672
2,167500	0,1	6,286442
2,169167	0,1	6,249998
2,170833	0,1	6,216516
2,172500	0,1	6,248208
2,174167	0,1	6,249248
2,175833	0,1	6,215011
2,177500	0,1	6,240869
2,179167	0,1	6,216729
2,180833	0,1	6,222388
2,182500	0,1	6,184329
2,184167	0,1	6,171713
2,185833	0,1	6,172414
2,187500	0,1	6,174288
2,189167	0,1	6,143616
2,190833	0,1	6,131246
2,192500	0,1	6,149769
2,194167	0,1	6,111832
2,195833	0,1	6,141778
2,197500	0,1	6,128007
2,199167	0,1	6,102436
2,200833	0,1	6,076674
2,202500	0,1	6,123181
2,204167	0,1	6,042555
2,205833	0,1	6,090631
2,207500	0,1	6,080768
2,209167	0,1	6,068404
2,210833	0,1	6,085685
2,212500	0,1	6,037240
2,214167	0,1	6,061990
2,215833	0,1	6,091821
2,217500	0,1	6,101037
2,219167	0,1	6,066292
2,220833	0,1	6,054162
2,222500	0,1	6,060858
2,224167	0,1	6,098517
2,225833	0,1	6,130510
2,227500	0,1	6,160805
2,229167	0,1	6,166043
2,230833	0,1	6,161082
2,232500	0,1	6,140285
2,234167	0,1	6,238091
2,235833	0,1	6,207708
2,237500	0,1	6,235760
2,239167	0,1	6,223481
2,240833	0,1	6,257186
2,242500	0,1	6,303833
2,244167	0,1	6,310803
2,245833	0,1	6,306429
2,247500	0,1	6,369230
2,249167	0,1	6,340301
2,250833	0,1	6,353054
2,252500	0,1	6,371266
2,254167	0,1	6,389047
2,255833	0,1	6,404756
2,257500	0,1	6,442154
2,259167	0,1	6,475008
2,260833	0,1	6,415204
2,262500	0,1	6,465407
2,264167	0,1	6,482268
2,265833	0,1	6,461435
2,267500	0,1	6,485407
2,269167	0,1	6,477245
2,270833	0,1	6,503866
2,272500	0,1	6,544435
2,274167	0,1	6,523782
2,275833	0,1	6,517634
2,277500	0,1	6,474457
2,279167	0,1	6,523665
2,280833	0,1	6,445915
2,282500	0,1	6,469230
2,284167	0,1	6,489529
2,285833	0,1	6,465243
2,287500	0,1	6,471577
2,289167	0,1	6,490741
2,290833	0,1	6,426103
2,292500	0,1	6,446271
2,294167	0,1	6,407204
2,295833	0,1	6,357616
2,297500	0,1	6,394893
2,299167	0,1	6,401322
2,300833	0,1	6,330744
2,302500	0,1	6,348503
2,304167	0,1	6,313697
2,305833	0,1	6,297877
2,307500	0,1	6,283464
2,309167	0,1	6,215288
2,310833	0,1	6,257140
2,312500	0,1	6,199229
2,314167	0,1	6,221733
2,315833	0,1	6,153924
2,317500	0,1	6,117689
2,319167	0,1	6,118803
2,320833	0,1	6,085224
2,322500	0,1	6,083636
2,324167	0,1	6,027140
2,325833	0,1	6,006623
2,327500	0,1	5,963451
2,329167	0,1	5,955875
2,330833	0,1	5,959391
2,332500	0,1	5,897224
2,334167	0,1	5,840426
2,335833	0,1	5,831907
2,337500	0,1	5,834804
2,339167	0,1	5,796777
2,340833	0,1	5,749417
2,342500	0,1	5,723547
2,344167	0,1	5,706039
2,345833	0,1	5,678067
2,347500	0,1	5,641381
2,349167	0,1	5,618063
2,350833	0,1	5,548894
2,352500	0,1	5,553730
2,354167	0,1	5,521893
2,355833	0,1	5,468586
2,357500	0,1	5,449453
2,359167	0,1	5,434185
2,360833	0,1	5,392061
2,362500	0,1	5,314048
2,364167	0,1	5,357312
2,365833	0,1	5,276094
2,367500	0,1	5,230279
2,369167	0,1	5,249432
2,370833	0,1	5,238714
2,372500	0,1	5,173841
2,374167	0,1	5,191889
2,375833	0,1	5,133297
2,377500	0,1	5,123943
2,379167	0,1	5,071475
2,380833	0,1	5,050749
2,382500	0,1	5,055742
2,384167	0,1	5,007574
2,385833	0,1	5,015291
2,387500	0,1	4,978026
2,389167	0,1	4,931349
2,390833	0,1	4,916917
2,392500	0,1	4,897879
2,394167	0,1	4,900835
2,395833	0,1	4,863972
2,397500	0,1	4,839960
2,399167	0,1	4,861844
2,400833	0,1	4,816008
2,402500	0,1	4,810724
2,404167	0,1	4,790350
2,405833	0,1	4,757066
2,407500	0,1	4,786359
2,409167	0,1	4,732634
2,410833	0,1	4,765899
2,412500	0,1	4,724378
2,414167	0,1	4,702753
2,415833	0,1	4,725231
2,417500	0,1	4,712831
2,419167	0,1	4,662921
2,420833	0,1	4,655565
2,422500	0,1	4,653783
2,424167	0,1	4,660089
2,425833	0,1	4,634001
2,427500	0,1	4,613092
2,429167	0,1	4,664784
2,430833	0,1	4,650647
2,432500	0,1	4,613579
2,434167	0,1	4,622131
2,435833	0,1	4,581827
2,437500	0,1	4,596623
2,439167	0,1	4,630294
2,440833	0,1	4,593026
2,442500	0,1	4,564490
2,444167	0,1	4,598471
2,445833	0,1	4,560282
2,447500	0,1	4,555279
2,449167	0,1	4,591347
2,450833	0,1	4,552090
2,452500	0,1	4,562892
2,454167	0,1	4,553452
2,455833	0,1	4,570106
2,457500	0,1	4,550661
2,459167	0,1	4,542393
2,460833	0,1	4,485309
2,462500	0,1	4,574865
2,464167	0,1	4,505367
2,465833	0,1	4,533225
2,467500	0,1	4,513262
2,469167	0,1	4,461761
2,470833	0,1	4,487921
2,472500	0,1	4,497725
2,474167	0,1	4,424248
2,475833	0,1	4,462545
2,477500	0,1	4,437768
2,479167	0,1	4,443392
2,480833	0,1	4,416621
2,482500	0,1	4,437916
2,484167	0,1	4,414109
2,485833	0,1	4,385833
2,487500	0,1	4,368085
2,489167	0,1	4,395495
2,490833	0,1	4,401863
2,492500	0,1	4,383357
2,494167	0,1	4,366583
2,495833	0,1	4,427539
2,497500	0,1	4,394943
2,499167	0,1	4,362131
2,500833	0,1	4,366499
2,502500	0,1	4,388088
2,504167	0,1	4,371326
2,505833	0,1	4,354311
2,507500	0,1	4,385772
2,509167	0,1	4,407620
2,510833	0,1	4,391501
2,512500	0,1	4,362214
2,514167	0,1	4,374760
2,515833	0,1	4,394367
2,517500	0,1	4,406196
2,519167	0,1	4,424063
2,520833	0,1	4,436953
2,522500	0,1	4,478677
2,524167	0,1	4,423432
2,525833	0,1	4,472110
2,527500	0,1	4,507160
2,529167	0,1	4,517457
2,530833	0,1	4,532377
2,532500	0,1	4,576255
2,534167	0,1	4,563262
2,535833	0,1	4,578170
2,537500	0,1	4,646289
2,539167	0,1	4,640268
2,540833	0,1	4,691176
2,542500	0,1	4,634372
2,544167	0,1	4,692058
2,545833	0,1	4,798602
2,547500	0,1	4,774347
2,549167	0,1	4,776169
2,550833	0,1	4,795063
2,552500	0,1	4,848377
2,554167	0,1	4,903932
2,555833	0,1	4,871674
2,557500	0,1	4,874867
2,559167	0,1	4,924555
2,560833	0,1	4,972445
2,562500	0,1	4,990314
2,564167	0,1	5,002623
2,565833	0,1	5,027708
2,567500	0,1	5,011514
2,569167	0,1	5,083895
2,570833	0,1	5,093648
2,572500	0,1	5,099378
2,574167	0,1	5,117189
2,575833	0,1	5,136948
2,577500	0,1	5,167438
2,579167	0,1	5,153333
2,580833	0,1	5,177351
2,582500	0,1	5,172387
2,584167	0,1	5,173824
2,585833	0,1	5,174870
2,587500	0,1	5,212129
2,589167	0,1	5,202232
2,590833	0,1	5,178885
2,592500	0,1	5,177721
2,594167	0,1	5,191609
2,595833	0,1	5,187039
2,597500	0,1	5,218230
2,599167	0,1	5,215556
2,600833	0,1	5,197855
2,602500	0,1	5,192997
2,604167	0,1	5,133215
2,605833	0,1	5,157979
2,607500	0,1	5,114408
2,609167	0,1	5,113947
2,610833	0,1	5,139375
2,612500	0,1	5,036150
2,614167	0,1	5,074841
2,615833	0,1	5,100532
2,617500	0,1	5,062977
2,619167	0,1	5,020328
2,620833	0,1	5,020430
2,622500	0,1	4,962445
2,624167	0,1	4,932246
2,625833	0,1	4,926493
2,627500	0,1	4,897066
2,629167	0,1	4,855568
2,630833	0,1	4,835834
2,632500	0,1	4,798404
2,634167	0,1	4,810754
2,635833	0,1	4,752994
2,637500	0,1	4,697191
2,639167	0,1	4,679566
2,640833	0,1	4,682474
2,642500	0,1	4,619329
2,644167	0,1	4,599214
2,645833	0,1	4,570317
2,647500	0,1	4,551154
2,649167	0,1	4,490653
2,650833	0,1	4,440209
2,652500	0,1	4,443475
2,654167	0,1	4,401956
2,655833	0,1	4,359744
2,657500	0,1	4,336204
2,659167	0,1	4,264119
2,660833	0,1	4,213370
2,662500	0,1	4,228216
2,664167	0,1	4,148382
2,665833	0,1	4,155451
2,667500	0,1	4,073859
2,669167	0,1	4,041241
2,670833	0,1	3,997417
2,672500	0,1	3,992635
2,674167	0,1	3,966373
2,675833	0,1	3,952533
2,677500	0,1	3,880301
2,679167	0,1	3,838291
2,680833	0,1	3,784328
2,682500	0,1	3,796089
2,684167	0,1	3,743079
2,685833	0,1	3,665483
2,687500	0,1	3,679228
2,689167	0,1	3,620907
2,690833	0,1	3,619544
2,692500	0,1	3,549142
2,694167	0,1	3,536811
2,695833	0,1	3,492003
2,697500	0,1	3,461907
2,699167	0,1	3,424578
2,700833	0,1	3,354095
2,702500	0,1	3,356511
2,704167	0,1	3,353146
2,705833	0,1	3,306337
2,707500	0,1	3,242731
2,709167	0,1	3,249255
2,710833	0,1	3,208083
2,712500	0,1	3,187203
2,714167	0,1	3,144413
2,715833	0,1	3,156453
2,717500	0,1	3,079583
2,719167	0,1	3,103150
2,720833	0,1	3,061178
2,722500	0,1	3,020544
2,724167	0,1	2,987439
2,725833	0,1	2,981392
2,727500	0,1	2,965318
2,729167	0,1	2,912951
2,730833	0,1	2,881987
2,732500	0,1	2,880577
2,734167	0,1	2,894052
2,735833	0,1	2,841833
2,737500	0,1	2,834469
2,739167	0,1	2,827240
2,740833	0,1	2,812089
2,742500	0,1	2,732028
2,744167	0,1	2,738909
2,745833	0,1	2,738265
2,747500	0,1	2,697466
2,749167	0,1	2,680949
2,750833	0,1	2,640353
2,752500	0,1	2,611586
2,754167	0,1	2,613425
2,755833	0,1	2,624969
2,757500	0,1	2,594294
2,759167	0,1	2,595945
2,760833	0,1	2,596355
2,762500	0,1	2,550550
2,764167	0,1	2,579647
2,765833	0,1	2,547951
2,767500	0,1	2,464924
2,769167	0,1	2,503980
2,770833	0,1	2,474674
2,772500	0,1	2,488636
2,774167	0,1	2,455454
2,775833	0,1	2,459459
2,777500	0,1	2,440744
2,779167	0,1	2,463820
2,780833	0,1	2,444616
2,782500	0,1	2,428920
2,784167	0,1	2,414221
2,785833	0,1	2,390502
2,787500	0,1	2,374507
2,789167	0,1	2,341675
2,790833	0,1	2,369117
2,792500	0,1	2,348911
2,794167	0,1	2,349335
2,795833	0,1	2,328484
2,797500	0,1	2,308342
2,799167	0,1	2,322169
2,800833	0,1	2,298233
2,802500	0,1	2,296797
2,804167	0,1	2,285977
2,805833	0,1	2,241120
2,807500	0,1	2,247198
2,809167	0,1	2,269699
2,810833	0,1	2,227573
2,812500	0,1	2,226918
2,814167	0,1	2,242537
2,815833	0,1	2,237382
2,817500	0,1	2,249344
2,819167	0,1	2,194754
2,820833	0,1	2,160857
2,822500	0,1	2,207486
2,824167	0,1	2,194101
2,825833	0,1	2,157562
2,827500	0,1	2,136851
2,829167	0,1	2,134051
2,830833	0,1	2,172162
2,832500	0,1	2,131050
2,834167	0,1	2,109837
2,835833	0,1	2,099948
2,837500	0,1	2,138629
2,839167	0,1	2,138350
2,840833	0,1	2,110416
2,842500	0,1	2,120506
2,844167	0,1	2,068653
2,845833	0,1	2,035402
2,847500	0,1	2,075440
2,849167	0,1	2,083539
2,850833	0,1	2,061479
2,852500	0,1	2,008264
2,854167	0,1	2,034247
2,855833	0,1	2,007896
2,857500	0,1	2,000014
2,859167	0,1	2,047142
2,860833	0,1	1,997943
2,862500	0,1	1,995578
2,864167	0,1	1,999445
2,865833	0,1	2,030459
2,867500	0,1	2,004751
2,869167	0,1	1,967798
2,870833	0,1	1,973227
2,872500	0,1	1,971793
2,874167	0,1	1,957473
2,875833	0,1	1,934197
2,877500	0,1	1,917371
2,879167	0,1	1,929680
2,880833	0,1	1,925672
2,882500	0,1	1,895749
2,884167	0,1	1,891154
2,885833	0,1	1,931899
2,887500	0,1	1,866100
2,889167	0,1	1,857222
2,890833	0,1	1,871964
2,892500	0,1	1,861237
2,894167	0,1	1,839037
2,895833	0,1	1,823261
2,897500	0,1	1,900521
2,899167	0,1	1,867815
2,900833	0,1	1,844842
2,902500	0,1	1,787356
2,904167	0,1	1,836658
2,905833	0,1	1,791638
2,907500	0,1	1,827499
2,909167	0,1	1,779622
2,910833	0,1	1,819402
2,912500	0,1	1,845908
2,914167	0,1	1,798517
2,915833	0,1	1,807455
2,917500	0,1	1,775534
2,919167	0,1	1,779680
2,920833	0,1	1,778532
2,922500	0,1	1,721908
2,924167	0,1	1,761056
2,925833	0,1	1,750481
2,927500	0,1	1,744612
2,929167	0,1	1,708236
2,930833	0,1	1,701647
2,932500	0,1	1,719610
2,934167	0,1	1,685827
2,935833	0,1	1,694985
2,937500	0,1	1,700584
2,939167	0,1	1,700229
2,940833	0,1	1,695266
2,942500	0,1	1,705380
2,944167	0,1	1,688608
2,945833	0,1	1,674169
2,947500	0,1	1,674085
2,949167	0,1	1,673163
2,950833	0,1	1,680883
2,952500	0,1	1,697638
2,954167	0,1	1,676331
2,955833	0,1	1,671093
2,957500	0,1	1,666714
2,959167	0,1	1,651841
2,960833	0,1	1,647826
2,962500	0,1	1,593873
2,964167	0,1	1,631493
2,965833	0,1	1,640725
2,967500	0,1	1,637668
2,969167	0,1	1,614347
2,970833	0,1	1,605892
2,972500	0,1	1,641397
2,974167	0,1	1,579637
2,975833	0,1	1,610184
2,977500	0,1	1,609823
2,979167	0,1	1,633658
2,980833	0,1	1,582394
2,982500	0,1	1,611610
2,984167	0,1	1,600740
2,985833	0,1	1,619606
2,987500	0,1	1,622060
2,989167	0,1	1,575918
2,990833	0,1	1,618324
2,992500	0,1	1,548438
2,994167	0,1	1,531244
2,995833	0,1	1,542337
2,997500	0,1	1,570324
2,999167	0,1	1,594153
3,000833	0,1	1,573993
3,002500	0,1	1,550772
3,004167	0,1	1,592940
3,005833	0,1	1,538981
3,007500	0,1	1,573391
3,009167	0,1	1,576780
3,010833	0,1	1,573276
3,012500	0,1	1,548977
3,014167	0,1	1,553586
3,015833	0,1	1,555573
3,017500	0,1	1,574132
3,019167	0,1	1,568538
3,020833	0,1	1,572031
3,022500	0,1	1,584196
3,024167	0,1	1,526829
3,025833	0,1	1,511433
3,027500	0,1	1,512360
3,029167	0,1	1,529811
3,030833	0,1	1,563951
3,032500	0,1	1,569971
3,034167	0,1	1,520525
3,035833	0,1	1,523169
3,037500	0,1	1,560672
3,039167	0,1	1,553437
3,040833	0,1	1,495963
3,042500	0,1	1,540339
3,044167	0,1	1,553570
3,045833	0,1	1,528041
3,047500	0,1	1,529033
3,049167	0,1	1,548293
3,050833	0,1	1,537490
3,052500	0,1	1,508861
3,054167	0,1	1,534262
3,055833	0,1	1,539187
3,057500	0,1	1,509943
3,059167	0,1	1,480172
3,060833	0,1	1,507572
3,062500	0,1	1,510290
3,064167	0,1	1,507430
3,065833	0,1	1,523360
3,067500	0,1	1,554685
3,069167	0,1	1,562381
3,070833	0,1	1,522698
3,072500	0,1	1,505487
3,074167	0,1	1,513660
3,075833	0,1	1,499911
3,077500	0,1	1,485170
3,079167	0,1	1,533106
3,080833	0,1	1,516791
3,082500	0,1	1,534962
3,084167	0,1	1,540131
3,085833	0,1	1,506573
3,087500	0,1	1,532699
3,089167	0,1	1,551513
3,090833	0,1	1,535915
3,092500	0,1	1,554581
3,094167	0,1	1,529340
3,095833	0,1	1,536278
3,097500	0,1	1,540406
3,099167	0,1	1,574979
3,100833	0,1	1,593291
3,102500	0,1	1,536843
3,104167	0,1	1,561801
3,105833	0,1	1,574168
3,107500	0,1	1,617115
3,109167	0,1	1,609100
3,110833	0,1	1,593092
3,112500	0,1	1,618489
3,114167	0,1	1,618413
3,115833	0,1	1,579504
3,117500	0,1	1,640863
3,119167	0,1	1,667579
3,120833	0,1	1,663513
3,122500	0,1	1,670666
3,124167	0,1	1,721981
3,125833	0,1	1,672877
3,127500	0,1	1,727350
3,129167	0,1	1,761005
3,130833	0,1	1,731514
3,132500	0,1	1,759770
3,134167	0,1	1,769300
3,135833	0,1	1,761144
3,137500	0,1	1,829425
3,139167	0,1	1,833455
3,140833	0,1	1,852629
3,142500	0,1	1,817466
3,144167	0,1	1,896731
3,145833	0,1	1,871334
3,147500	0,1	1,920010
3,149167	0,1	1,929184
3,150833	0,1	1,959332
3,152500	0,1	1,938138
3,154167	0,1	1,979814
3,155833	0,1	1,994068
3,157500	0,1	1,961345
3,159167	0,1	1,996068
3,160833	0,1	1,995790
3,162500	0,1	2,026301
3,164167	0,1	2,060968
3,165833	0,1	2,062265
3,167500	0,1	2,072080
3,169167	0,1	2,106318
3,170833	0,1	2,115853
3,172500	0,1	2,120296
3,174167	0,1	2,151886
3,175833	0,1	2,113065
3,177500	0,1	2,118142
3,179167	0,1	2,160551
3,180833	0,1	2,162281
3,182500	0,1	2,166150
3,184167	0,1	2,134988
3,185833	0,1	2,183911
3,187500	0,1	2,189009
3,189167	0,1	2,165010
3,190833	0,1	2,185349
3,192500	0,1	2,181271
3,194167	0,1	2,234860
3,195833	0,1	2,166739
3,197500	0,1	2,177757
3,199167	0,1	2,177472
3,200833	0,1	2,202188
3,202500	0,1	2,210934
3,204167	0,1	2,185503
3,205833	0,1	2,221247
3,207500	0,1	2,178916
3,209167	0,1	2,181414
3,210833	0,1	2,170094
3,212500	0,1	2,184061
3,214167	0,1	2,169236
3,215833	0,1	2,215082
3,217500	0,1	2,175547
3,219167	0,1	2,211429
3,220833	0,1	2,141448
3,222500	0,1	2,152461
3,224167	0,1	2,114070
3,225833	0,1	2,110047
3,227500	0,1	2,130393
3,229167	0,1	2,138564
3,230833	0,1	2,104895
3,232500	0,1	2,095652
3,234167	0,1	2,084260
3,235833	0,1	2,095003
3,237500	0,1	2,078744
3,239167	0,1	2,080677
3,240833	0,1	2,042572
3,242500	0,1	2,028744
3,244167	0,1	2,041413
3,245833	0,1	2,043283
3,247500	0,1	2,004466
3,249167	0,1	1,961136
3,250833	0,1	1,995062
3,252500	0,1	1,970011
3,254167	0,1	1,996148
3,255833	0,1	1,965221
3,257500	0,1	1,959476
3,259167	0,1	1,934137
3,260833	0,1	1,889519
3,262500	0,1	1,898955
3,264167	0,1	1,916214
3,265833	0,1	1,875415
3,267500	0,1	1,848270
3,269167	0,1	1,845845
3,270833	0,1	1,848128
3,272500	0,1	1,773883
3,274167	0,1	1,780882
3,275833	0,1	1,820334
3,277500	0,1	1,828795
3,279167	0,1	1,752117
3,280833	0,1	1,714462
3,282500	0,1	1,730364
3,284167	0,1	1,719192
3,285833	0,1	1,694724
3,287500	0,1	1,702507
3,289167	0,1	1,702806
3,290833	0,1	1,662580
3,292500	0,1	1,662155
3,294167	0,1	1,627015
3,295833	0,1	1,625247
3,297500	0,1	1,629431
3,299167	0,1	1,605114
3,300833	0,1	1,547654
3,302500	0,1	1,572969
3,304167	0,1	1,569880
3,305833	0,1	1,533564
3,307500	0,1	1,567457
3,309167	0,1	1,534700
3,310833	0,1	1,478658
3,312500	0,1	1,512283
3,314167	0,1	1,500006
3,315833	0,1	1,498907
3,317500	0,1	1,507439
3,319167	0,1	1,459286
3,320833	0,1	1,429309
3,322500	0,1	1,451270
3,324167	0,1	1,428816
3,325833	0,1	1,400406
3,327500	0,1	1,419776
3,329167	0,1	1,408621
3,330833	0,1	1,368662
3,332500	0,1	1,373854
3,334167	0,1	1,398561
3,335833	0,1	1,346221
3,337500	0,1	1,346598
3,339167	0,1	1,346903
3,340833	0,1	1,326193
3,342500	0,1	1,285497
3,344167	0,1	1,311988
3,345833	0,1	1,294553
3,347500	0,1	1,249068
3,349167	0,1	1,314298
3,350833	0,1	1,289711
3,352500	0,1	1,244580
3,354167	0,1	1,293739
3,355833	0,1	1,250439
3,357500	0,1	1,302632
3,359167	0,1	1,233157
3,360833	0,1	1,226822
3,362500	0,1	1,216749
3,364167	0,1	1,233356
3,365833	0,1	1,216347
3,367500	0,1	1,244141
3,369167	0,1	1,230079
3,370833	0,1	1,247227
3,372500	0,1	1,214353
3,374167	0,1	1,211617
3,375833	0,1	1,201104
3,377500	0,1	1,187168
3,379167	0,1	1,181174
3,380833	0,1	1,145419
3,382500	0,1	1,180549
3,384167	0,1	1,142538
3,385833	0,1	1,173292
3,387500	0,1	1,152447
3,389167	0,1	1,155262
3,390833	0,1	1,177865
3,392500	0,1	1,164005
3,394167	0,1	1,130997
3,395833	0,1	1,161067
3,397500	0,1	1,114629
3,399167	0,1	1,124311
3,400833	0,1	1,126819
3,402500	0,1	1,139639
3,404167	0,1	1,101939
3,405833	0,1	1,106232
3,407500	0,1	1,112021
3,409167	0,1	1,109873
3,410833	0,1	1,066692
3,412500	0,1	1,109707
3,414167	0,1	1,079045
3,415833	0,1	1,094382
3,417500	0,1	1,123488
3,419167	0,1	1,099914
3,420833	0,1	1,072321
3,422500	0,1	1,049563
3,424167	0,1	1,074285
3,425833	0,1	1,074801
3,427500	0,1	1,061895
3,429167	0,1	1,043419
3,430833	0,1	1,045831
3,432500	0,1	1,054258
3,434167	0,1	1,061334
3,435833	0,1	0,999070
3,437500	0,1	1,074383
3,439167	0,1	1,072028
3,440833	0,1	1,045505
3,442500	0,1	1,049336
3,444167	0,1	1,032062
3,445833	0,1	1,055008
3,447500	0,1	1,000467
3,449167	0,1	1,010784
3,450833	0,1	0,998768
3,452500	0,1	1,033846
3,454167	0,1	1,035563
3,455833	0,1	0,993099
3,457500	0,1	1,033890
3,459167	0,1	1,036116
3,460833	0,1	1,060643
3,462500	0,1	1,035325
3,464167	0,1	1,009685
3,465833	0,1	1,030700
3,467500	0,1	1,028643
3,469167	0,1	1,028709
3,470833	0,1	0,980370
3,472500	0,1	1,040139
3,474167	0,1	1,004807
3,475833	0,1	0,996663
3,477500	0,1	1,002050
3,479167	0,1	0,982492
3,480833	0,1	0,989008
3,482500	0,1	1,016327
3,484167	0,1	1,004603
3,485833	0,1	0,995377
3,487500	0,1	0,990098
3,489167	0,1	0,978523
3,490833	0,1	1,030006
3,492500	0,1	1,044942
3,494167	0,1	1,001306
3,495833	0,1	1,025532
3,497500	0,1	1,014495
3,499167	0,1	1,030924
3,500833	0,1	0,961724
3,502500	0,1	1,047697
3,504167	0,1	1,024145
3,505833	0,1	1,018443
3,507500	0,1	1,033784
3,509167	0,1	0,995160
3,510833	0,1	0,984618
3,512500	0,1	0,995261
3,514167	0,1	1,035774
3,515833	0,1	1,035053
3,517500	0,1	1,050064
3,519167	0,1	1,038272
3,520833	0,1	1,046916
3,522500	0,1	1,015608
3,524167	0,1	0,989526
3,525833	0,1	1,012047
3,527500	0,1	1,033405
3,529167	0,1	1,030971
3,530833	0,1	1,016404
3,532500	0,1	0,998948
3,534167	0,1	1,043425
3,535833	0,1	1,013569
3,537500	0,1	1,013184
3,539167	0,1	1,013915
3,540833	0,1	1,012053
3,542500	0,1	1,022186
3,544167	0,1	1,037556
3,545833	0,1	1,052793
3,547500	0,1	1,001951
3,549167	0,1	1,068152
3,550833	0,1	1,004880
3,552500	0,1	1,015510
3,554167	0,1	1,015114
3,555833	0,1	1,028150
3,557500	0,1	1,051572
3,559167	0,1	1,031486
3,560833	0,1	1,012102
3,562500	0,1	1,004469
3,564167	0,1	1,018969
3,565833	0,1	1,035227
3,567500	0,1	0,972722
3,569167	0,1	1,033242
3,570833	0,1	1,002345
3,572500	0,1	1,011983
3,574167	0,1	1,006199
3,575833	0,1	1,001761
3,577500	0,1	1,021408
3,579167	0,1	1,016112
3,580833	0,1	1,018040
3,582500	0,1	1,016377
3,584167	0,1	1,047843
3,585833	0,1	1,043283
3,587500	0,1	0,994433
3,589167	0,1	0,993313
3,590833	0,1	0,991006
3,592500	0,1	1,020808
3,594167	0,1	1,035427
3,595833	0,1	0,989553
3,597500	0,1	0,988143
3,599167	0,1	0,999584
3,600833	0,1	1,004221
3,602500	0,1	0,999036
3,604167	0,1	1,005664
3,605833	0,1	0,995821
3,607500	0,1	1,006551
3,609167	0,1	1,005267
3,610833	0,1	1,007395
3,612500	0,1	0,990699
3,614167	0,1	1,011826
3,615833	0,1	1,026709
3,617500	0,1	1,033876
3,619167	0,1	0,999686
3,620833	0,1	0,985465
3,622500	0,1	0,964953
3,624167	0,1	0,973770
3,625833	0,1	1,029694
3,627500	0,1	1,050063
3,629167	0,1	0,997694
3,630833	0,1	0,989809
3,632500	0,1	1,005617
3,634167	0,1	0,974180
3,635833	0,1	0,973861
3,637500	0,1	0,951316
3,639167	0,1	0,979270
3,640833	0,1	0,970515
3,642500	0,1	0,947120
3,644167	0,1	0,950576
3,645833	0,1	1,019488
3,647500	0,1	0,975892
3,649167	0,1	0,954753
3,650833	0,1	0,980065
3,652500	0,1	0,949676
3,654167	0,1	0,945212
3,655833	0,1	0,992879
3,657500	0,1	0,952762
3,659167	0,1	0,960041
3,660833	0,1	0,971484
3,662500	0,1	0,946015
3,664167	0,1	0,975386
3,665833	0,1	0,954021
3,667500	0,1	0,902007
3,669167	0,1	0,977083
3,670833	0,1	0,910970
3,672500	0,1	0,946577
3,674167	0,1	0,951152
3,675833	0,1	0,932354
3,677500	0,1	0,985052
3,679167	0,1	0,951672
3,680833	0,1	0,968359
3,682500	0,1	0,911851
3,684167	0,1	0,955934
3,685833	0,1	0,935684
3,687500	0,1	0,915568
3,689167	0,1	0,966667
3,690833	0,1	0,947546
3,692500	0,1	0,955124
3,694167	0,1	0,896666
3,695833	0,1	0,944579
3,697500	0,1	0,949271
3,699167	0,1	0,958405
3,700833	0,1	0,955770
3,702500	0,1	0,884007
3,704167	0,1	0,927194
3,705833	0,1	0,936007
3,707500	0,1	0,935992
3,709167	0,1	0,950507
3,710833	0,1	0,937256
3,712500	0,1	0,921602
3,714167	0,1	0,930022
3,715833	0,1	0,931927
3,717500	0,1	0,886639
3,719167	0,1	0,934933
3,720833	0,1	0,909453
3,722500	0,1	0,934427
3,724167	0,1	0,889606
3,725833	0,1	0,906201
3,727500	0,1	0,925360
3,729167	0,1	0,925365
3,730833	0,1	0,896501
3,732500	0,1	0,898136
3,734167	0,1	0,929901
3,735833	0,1	0,933080
3,737500	0,1	0,924081
3,739167	0,1	0,941859
3,740833	0,1	0,926522
3,742500	0,1	0,923370
3,744167	0,1	0,921243
3,745833	0,1	0,914945
3,747500	0,1	0,953849
3,749167	0,1	0,931554
3,750833	0,1	0,954033
3,752500	0,1	0,932954
3,754167	0,1	0,944522
3,755833	0,1	0,965322
3,757500	0,1	0,918500
3,759167	0,1	0,942145
3,760833	0,1	0,910295
3,762500	0,1	0,966401
3,764167	0,1	0,947968
3,765833	0,1	0,961043
3,767500	0,1	0,947125
3,769167	0,1	0,960954
3,770833	0,1	0,962177
3,772500	0,1	0,910564
3,774167	0,1	0,937157
3,775833	0,1	0,917497
3,777500	0,1	0,941659
3,779167	0,1	0,966780
3,780833	0,1	0,938456
3,782500	0,1	0,940155
3,784167	0,1	0,930620
3,785833	0,1	0,938646
3,787500	0,1	0,944343
3,789167	0,1	0,949314
3,790833	0,1	0,963861
3,792500	0,1	0,985214
3,794167	0,1	0,956264
3,795833	0,1	0,961599
3,797500	0,1	0,950513
3,799167	0,1	0,939227
3,800833	0,1	0,941951
3,802500	0,1	0,955942
3,804167	0,1	0,958359
3,805833	0,1	0,930516
3,807500	0,1	0,904942
3,809167	0,1	0,952674
3,810833	0,1	0,927524
3,812500	0,1	0,943458
3,814167	0,1	0,963500
3,815833	0,1	0,962622
3,817500	0,1	0,922647
3,819167	0,1	0,965093
3,820833	0,1	0,973197
3,822500	0,1	0,973331
3,824167	0,1	0,973132
3,825833	0,1	0,962023
3,827500	0,1	0,966546
3,829167	0,1	0,958699
3,830833	0,1	0,922339
3,832500	0,1	0,949266
3,834167	0,1	0,951575
3,835833	0,1	0,962793
3,837500	0,1	0,906261
3,839167	0,1	0,967595
3,840833	0,1	0,961757
3,842500	0,1	0,959117
3,844167	0,1	0,950159
3,845833	0,1	0,918341
3,847500	0,1	0,912439
3,849167	0,1	0,918043
3,850833	0,1	0,926847
3,852500	0,1	0,884709
3,854167	0,1	0,922008
3,855833	0,1	0,883802
3,857500	0,1	0,892726
3,859167	0,1	0,896230
3,860833	0,1	0,892597
3,862500	0,1	0,898290
3,864167	0,1	0,898868
3,865833	0,1	0,862805
3,867500	0,1	0,906996
3,869167	0,1	0,867766
3,870833	0,1	0,916887
3,872500	0,1	0,879902
3,874167	0,1	0,895320
3,875833	0,1	0,916383
3,877500	0,1	0,916675
3,879167	0,1	0,907098
3,880833	0,1	0,875887
3,882500	0,1	0,830701
3,884167	0,1	0,845433
3,885833	0,1	0,870834
3,887500	0,1	0,847281
3,889167	0,1	0,862768
3,890833	0,1	0,868425
3,892500	0,1	0,825242
3,894167	0,1	0,873215
3,895833	0,1	0,868437
3,897500	0,1	0,877295
3,899167	0,1	0,850365
3,900833	0,1	0,840755
3,902500	0,1	0,803632
3,904167	0,1	0,840377
3,905833	0,1	0,834574
3,907500	0,1	0,828145
3,909167	0,1	0,815682
3,910833	0,1	0,834437
3,912500	0,1	0,822479
3,914167	0,1	0,792727
3,915833	0,1	0,771708
3,917500	0,1	0,797660
3,919167	0,1	0,783763
3,920833	0,1	0,797860
3,922500	0,1	0,765990
3,924167	0,1	0,783716
3,925833	0,1	0,779287
3,927500	0,1	0,801203
3,929167	0,1	0,745426
3,930833	0,1	0,764235
3,932500	0,1	0,791772
3,934167	0,1	0,762684
3,935833	0,1	0,730033
3,937500	0,1	0,751353
3,939167	0,1	0,759582
3,940833	0,1	0,740983
3,942500	0,1	0,753162
3,944167	0,1	0,769574
3,945833	0,1	0,747794
3,947500	0,1	0,769388
3,949167	0,1	0,763729
3,950833	0,1	0,787154
3,952500	0,1	0,772062
3,954167	0,1	0,782079
3,955833	0,1	0,739629
3,957500	0,1	0,756682
3,959167	0,1	0,738823
3,960833	0,1	0,727223
3,962500	0,1	0,732547
3,964167	0,1	0,698343
3,965833	0,1	0,752826
3,967500	0,1	0,701301
3,969167	0,1	0,725994
3,970833	0,1	0,694804
3,972500	0,1	0,737298
3,974167	0,1	0,747274
3,975833	0,1	0,702107
3,977500	0,1	0,727474
3,979167	0,1	0,699979
3,980833	0,1	0,754875
3,982500	0,1	0,734976
3,984167	0,1	0,731208
3,985833	0,1	0,728675
3,987500	0,1	0,683173
3,989167	0,1	0,720783
3,990833	0,1	0,741225
3,992500	0,1	0,733901
3,994167	0,1	0,713570
3,995833	0,1	0,743338
3,997500	0,1	0,702713
3,999167	0,1	0,720045
4,000833	0,1	0,655997
4,002500	0,1	0,779376
4,004167	0,1	0,752555
4,005833	0,1	0,735162
4,007500	0,1	0,728285
4,009167	0,1	0,717899
4,010833	0,1	0,703572
4,012500	0,1	0,723584
4,014167	0,1	0,743640
4,015833	0,1	0,752547
4,017500	0,1	0,701726
4,019167	0,1	0,761302
4,020833	0,1	0,745799
4,022500	0,1	0,753637
4,024167	0,1	0,722831
4,025833	0,1	0,734418
4,027500	0,1	0,736769
4,029167	0,1	0,773034
4,030833	0,1	0,770734
4,032500	0,1	0,765686
4,034167	0,1	0,780241
4,035833	0,1	0,786225
4,037500	0,1	0,766053
4,039167	0,1	0,773854
4,040833	0,1	0,807170
4,042500	0,1	0,789576
4,044167	0,1	0,771224
4,045833	0,1	0,783746
4,047500	0,1	0,815437
4,049167	0,1	0,833860
4,050833	0,1	0,836173
4,052500	0,1	0,821156
4,054167	0,1	0,835081
4,055833	0,1	0,820564
4,057500	0,1	0,877110
4,059167	0,1	0,818882
4,060833	0,1	0,839949
4,062500	0,1	0,869377
4,064167	0,1	0,902365
4,065833	0,1	0,886078
4,067500	0,1	0,885903
4,069167	0,1	0,921211
4,070833	0,1	0,926847
4,072500	0,1	0,943366
4,074167	0,1	0,947739
4,075833	0,1	0,996251
4,077500	0,1	0,965044
4,079167	0,1	0,976478
4,080833	0,1	0,966193
4,082500	0,1	0,941760
4,084167	0,1	0,998088
4,085833	0,1	0,981985
4,087500	0,1	1,046304
4,089167	0,1	1,062308
4,090833	0,1	1,044349
4,092500	0,1	1,074171
4,094167	0,1	1,093714
4,095833	0,1	1,102594
4,097500	0,1	1,128873
4,099167	0,1	1,089672
4,100833	0,1	1,130733
4,102500	0,1	1,130237
4,104167	0,1	1,147109
4,105833	0,1	1,170430
4,107500	0,1	1,179356
4,109167	0,1	1,195815
4,110833	0,1	1,227072
4,112500	0,1	1,208117
4,114167	0,1	1,233863
4,115833	0,1	1,250138
4,117500	0,1	1,270290
4,119167	0,1	1,325817
4,120833	0,1	1,307595
4,122500	0,1	1,331990
4,124167	0,1	1,329117
4,125833	0,1	1,370370
4,127500	0,1	1,387855
4,129167	0,1	1,423089
4,130833	0,1	1,395440
4,132500	0,1	1,402329
4,134167	0,1	1,399620
4,135833	0,1	1,474517
4,137500	0,1	1,471385
4,139167	0,1	1,478178
4,140833	0,1	1,495477
4,142500	0,1	1,522164
4,144167	0,1	1,536196
4,145833	0,1	1,547513
4,147500	0,1	1,541190
4,149167	0,1	1,565803
4,150833	0,1	1,624356
4,152500	0,1	1,619059
4,154167	0,1	1,617057
4,155833	0,1	1,631313
4,157500	0,1	1,624510
4,159167	0,1	1,661926
4,160833	0,1	1,657626
4,162500	0,1	1,684327
4,164167	0,1	1,687900
4,165833	0,1	1,706448
4,167500	0,1	1,673310
4,169167	0,1	1,741955
4,170833	0,1	1,727776
4,172500	0,1	1,734510
4,174167	0,1	1,732291
4,175833	0,1	1,784683
4,177500	0,1	1,792137
4,179167	0,1	1,804673
4,180833	0,1	1,823506
4,182500	0,1	1,784635
4,184167	0,1	1,837581
4,185833	0,1	1,849703
4,187500	0,1	1,788002
4,189167	0,1	1,810813
4,190833	0,1	1,777251
4,192500	0,1	1,817267
4,194167	0,1	1,825209
4,195833	0,1	1,833300
4,197500	0,1	1,892728
4,199167	0,1	1,816922
4,200833	0,1	1,844334
4,202500	0,1	1,826722
4,204167	0,1	1,851199
4,205833	0,1	1,834945
4,207500	0,1	1,865520
4,209167	0,1	1,849990
4,210833	0,1	1,848493
4,212500	0,1	1,838249
4,214167	0,1	1,861432
4,215833	0,1	1,857216
4,217500	0,1	1,835604
4,219167	0,1	1,884135
4,220833	0,1	1,833096
4,222500	0,1	1,882337
4,224167	0,1	1,864454
4,225833	0,1	1,816909
4,227500	0,1	1,842533
4,229167	0,1	1,856861
4,230833	0,1	1,862663
4,232500	0,1	1,796230
4,234167	0,1	1,811815
4,235833	0,1	1,807598
4,237500	0,1	1,816412
4,239167	0,1	1,789057
4,240833	0,1	1,801226
4,242500	0,1	1,816474
4,244167	0,1	1,791570
4,245833	0,1	1,790920
4,247500	0,1	1,795143
4,249167	0,1	1,801531
4,250833	0,1	1,754920
4,252500	0,1	1,784254
4,254167	0,1	1,751347
4,255833	0,1	1,722546
4,257500	0,1	1,721686
4,259167	0,1	1,773092
4,260833	0,1	1,680401
4,262500	0,1	1,749024
4,264167	0,1	1,708822
4,265833	0,1	1,691929
4,267500	0,1	1,655355
4,269167	0,1	1,672873
4,270833	0,1	1,632169
4,272500	0,1	1,679088
4,274167	0,1	1,647336
4,275833	0,1	1,617559
4,277500	0,1	1,573606
4,279167	0,1	1,630132
4,280833	0,1	1,600676
4,282500	0,1	1,574914
4,284167	0,1	1,576688
4,285833	0,1	1,589073
4,287500	0,1	1,568690
4,289167	0,1	1,530113
4,290833	0,1	1,526816
4,292500	0,1	1,534266
4,294167	0,1	1,537704
4,295833	0,1	1,520955
4,297500	0,1	1,529389
4,299167	0,1	1,511434
4,300833	0,1	1,468504
4,302500	0,1	1,465932
4,304167	0,1	1,488763
4,305833	0,1	1,462460
4,307500	0,1	1,466437
4,309167	0,1	1,449855
4,310833	0,1	1,418062
4,312500	0,1	1,410126
4,314167	0,1	1,408005
4,315833	0,1	1,382670
4,317500	0,1	1,368588
4,319167	0,1	1,417922
4,320833	0,1	1,319166
4,322500	0,1	1,350131
4,324167	0,1	1,368308
4,325833	0,1	1,341066
4,327500	0,1	1,363786
4,329167	0,1	1,312379
4,330833	0,1	1,322053
4,332500	0,1	1,291135
4,334167	0,1	1,313953
4,335833	0,1	1,257692
4,337500	0,1	1,270682
4,339167	0,1	1,305532
4,340833	0,1	1,293740
4,342500	0,1	1,252560
4,344167	0,1	1,237208
4,345833	0,1	1,226237
4,347500	0,1	1,240014
4,349167	0,1	1,232755
4,350833	0,1	1,209729
4,352500	0,1	1,212835
4,354167	0,1	1,202140
4,355833	0,1	1,159200
4,357500	0,1	1,205124
4,359167	0,1	1,171886
4,360833	0,1	1,183542
4,362500	0,1	1,150319
4,364167	0,1	1,182741
4,365833	0,1	1,111906
4,367500	0,1	1,145799
4,369167	0,1	1,099920
4,370833	0,1	1,080439
4,372500	0,1	1,141093
4,374167	0,1	1,102095
4,375833	0,1	1,097384
4,377500	0,1	1,082301
4,379167	0,1	1,081211
4,380833	0,1	1,074736
4,382500	0,1	1,073824
4,384167	0,1	1,084381
4,385833	0,1	1,037858
4,387500	0,1	1,038779
4,389167	0,1	1,027624
4,390833	0,1	1,009305
4,392500	0,1	1,020722
4,394167	0,1	1,028664
4,395833	0,1	0,995117
4,397500	0,1	0,986706
4,399167	0,1	0,998987
4,400833	0,1	1,031651
4,402500	0,1	0,972481
4,404167	0,1	0,998498
4,405833	0,1	1,012384
4,407500	0,1	1,013206
4,409167	0,1	0,992895
4,410833	0,1	0,990031
4,412500	0,1	0,931743
4,414167	0,1	0,972571
4,415833	0,1	0,942224
4,417500	0,1	0,916302
4,419167	0,1	0,911417
4,420833	0,1	0,950905
4,422500	0,1	0,922248
4,424167	0,1	0,931176
4,425833	0,1	0,927740
4,427500	0,1	0,914172
4,429167	0,1	0,913839
4,430833	0,1	0,889625
4,432500	0,1	0,851246
4,434167	0,1	0,903713
4,435833	0,1	0,869078
4,437500	0,1	0,874592
4,439167	0,1	0,905934
4,440833	0,1	0,846357
4,442500	0,1	0,858451
4,444167	0,1	0,861641
4,445833	0,1	0,844327
4,447500	0,1	0,824974
4,449167	0,1	0,834439
4,450833	0,1	0,835150
4,452500	0,1	0,825312
4,454167	0,1	0,826059
4,455833	0,1	0,831070
4,457500	0,1	0,816419
4,459167	0,1	0,821229
4,460833	0,1	0,783442
4,462500	0,1	0,758751
4,464167	0,1	0,812664
4,465833	0,1	0,780645
4,467500	0,1	0,791210
4,469167	0,1	0,764024
4,470833	0,1	0,767427
4,472500	0,1	0,746994
4,474167	0,1	0,772750
4,475833	0,1	0,703688
4,477500	0,1	0,737300
4,479167	0,1	0,758870
4,480833	0,1	0,700594
4,482500	0,1	0,753329
4,484167	0,1	0,727004
4,485833	0,1	0,747718
4,487500	0,1	0,699559
4,489167	0,1	0,736817
4,490833	0,1	0,730817
4,492500	0,1	0,732838
4,494167	0,1	0,701483
4,495833	0,1	0,712109
4,497500	0,1	0,682172
4,499167	0,1	0,743490
4,500833	0,1	0,673669
4,502500	0,1	0,695498
4,504167	0,1	0,693734
4,505833	0,1	0,669413
4,507500	0,1	0,697873
4,509167	0,1	0,674813
4,510833	0,1	0,652413
4,512500	0,1	0,633393
4,514167	0,1	0,618838
4,515833	0,1	0,622818
4,517500	0,1	0,637500
4,519167	0,1	0,633744
4,520833	0,1	0,632394
4,522500	0,1	0,655263
4,524167	0,1	0,593469
4,525833	0,1	0,613398
4,527500	0,1	0,626348
4,529167	0,1	0,636534
4,530833	0,1	0,608879
4,532500	0,1	0,624388
4,534167	0,1	0,622271
4,535833	0,1	0,600044
4,537500	0,1	0,587126
4,539167	0,1	0,574116
4,540833	0,1	0,557764
4,542500	0,1	0,593988
4,544167	0,1	0,594381
4,545833	0,1	0,566923
4,547500	0,1	0,553715
4,549167	0,1	0,561998
4,550833	0,1	0,545525
4,552500	0,1	0,587981
4,554167	0,1	0,544534
4,555833	0,1	0,548828
4,557500	0,1	0,560873
4,559167	0,1	0,542344
4,560833	0,1	0,532931
4,562500	0,1	0,549372
4,564167	0,1	0,563475
4,565833	0,1	0,544176
4,567500	0,1	0,515171
4,569167	0,1	0,511117
4,570833	0,1	0,551872
4,572500	0,1	0,543562
4,574167	0,1	0,536559
4,575833	0,1	0,531419
4,577500	0,1	0,528527
4,579167	0,1	0,508585
4,580833	0,1	0,527109
4,582500	0,1	0,495000
4,584167	0,1	0,508672
4,585833	0,1	0,503281
4,587500	0,1	0,460634
4,589167	0,1	0,446786
4,590833	0,1	0,485667
4,592500	0,1	0,487830
4,594167	0,1	0,493161
4,595833	0,1	0,481633
4,597500	0,1	0,491104
4,599167	0,1	0,451800
4,600833	0,1	0,483358
4,602500	0,1	0,478614
4,604167	0,1	0,458574
4,605833	0,1	0,457898
4,607500	0,1	0,469585
4,609167	0,1	0,465572
4,610833	0,1	0,443576
4,612500	0,1	0,462032
4,614167	0,1	0,480629
4,615833	0,1	0,437379
4,617500	0,1	0,452589
4,619167	0,1	0,416121
4,620833	0,1	0,443278
4,622500	0,1	0,426169
4,624167	0,1	0,455896
4,625833	0,1	0,418721
4,627500	0,1	0,420799
4,629167	0,1	0,414765
4,630833	0,1	0,417363
4,632500	0,1	0,401889
4,634167	0,1	0,369653
4,635833	0,1	0,399633
4,637500	0,1	0,428535
4,639167	0,1	0,422440
4,640833	0,1	0,408184
4,642500	0,1	0,413605
4,644167	0,1	0,390936
4,645833	0,1	0,386181
4,647500	0,1	0,378087
4,649167	0,1	0,421786
4,650833	0,1	0,383778
4,652500	0,1	0,366078
4,654167	0,1	0,372544
4,655833	0,1	0,377930
4,657500	0,1	0,385827
4,659167	0,1	0,381686
4,660833	0,1	0,394914
4,662500	0,1	0,375852
4,664167	0,1	0,390321
4,665833	0,1	0,396815
4,667500	0,1	0,384066
4,669167	0,1	0,382618
4,670833	0,1	0,381721
4,672500	0,1	0,383935
4,674167	0,1	0,363643
4,675833	0,1	0,385893
4,677500	0,1	0,365570
4,679167	0,1	0,367591
4,680833	0,1	0,346341
4,682500	0,1	0,327165
4,684167	0,1	0,368836
4,685833	0,1	0,322098
4,687500	0,1	0,334095
4,689167	0,1	0,325400
4,690833	0,1	0,363114
4,692500	0,1	0,337542
4,694167	0,1	0,302606
4,695833	0,1	0,363306
4,697500	0,1	0,315930
4,699167	0,1	0,341834
4,700833	0,1	0,342863
4,702500	0,1	0,337925
4,704167	0,1	0,373236
4,705833	0,1	0,347780
4,707500	0,1	0,325792
4,709167	0,1	0,292556
4,710833	0,1	0,303047
4,712500	0,1	0,346199
4,714167	0,1	0,341588
4,715833	0,1	0,341516
4,717500	0,1	0,339941
4,719167	0,1	0,312397
4,720833	0,1	0,298115
4,722500	0,1	0,289304
4,724167	0,1	0,315026
4,725833	0,1	0,330658
4,727500	0,1	0,310643
4,729167	0,1	0,283123
4,730833	0,1	0,335723
4,732500	0,1	0,291691
4,734167	0,1	0,287223
4,735833	0,1	0,309428
4,737500	0,1	0,325809
4,739167	0,1	0,298877
4,740833	0,1	0,327326
4,742500	0,1	0,312910
4,744167	0,1	0,305980
4,745833	0,1	0,346136
4,747500	0,1	0,281738
4,749167	0,1	0,317329
4,750833	0,1	0,221944
4,752500	0,1	0,266060
4,754167	0,1	0,264839
4,755833	0,1	0,304612
4,757500	0,1	0,274324
4,759167	0,1	0,276884
4,760833	0,1	0,259265
4,762500	0,1	0,316366
4,764167	0,1	0,253837
4,765833	0,1	0,282369
4,767500	0,1	0,314436
4,769167	0,1	0,299978
4,770833	0,1	0,290851
4,772500	0,1	0,254547
4,774167	0,1	0,290876
4,775833	0,1	0,298806
4,777500	0,1	0,288571
4,779167	0,1	0,259130
4,780833	0,1	0,258064
4,782500	0,1	0,289077
4,784167	0,1	0,258689
4,785833	0,1	0,246888
4,787500	0,1	0,281055
4,789167	0,1	0,241998
4,790833	0,1	0,291805
4,792500	0,1	0,289439
4,794167	0,1	0,296083
4,795833	0,1	0,215129
4,797500	0,1	0,259853
4,799167	0,1	0,236051
4,800833	0,1	0,247599
4,802500	0,1	0,247956
4,804167	0,1	0,284644
4,805833	0,1	0,239884
4,807500	0,1	0,239609
4,809167	0,1	0,250395
4,810833	0,1	0,271554
4,812500	0,1	0,229347
4,814167	0,1	0,245057
4,815833	0,1	0,251906
4,817500	0,1	0,259712
4,819167	0,1	0,260481
4,820833	0,1	0,251594
4,822500	0,1	0,224634
4,824167	0,1	0,282940
4,825833	0,1	0,280538
4,827500	0,1	0,270530
4,829167	0,1	0,240736
4,830833	0,1	0,276434
4,832500	0,1	0,220461
4,834167	0,1	0,241077
4,835833	0,1	0,248821
4,837500	0,1	0,222469
4,839167	0,1	0,266829
4,840833	0,1	0,259389
4,842500	0,1	0,241438
4,844167	0,1	0,241283
4,845833	0,1	0,205981
4,847500	0,1	0,256579
4,849167	0,1	0,253129
4,850833	0,1	0,252387
4,852500	0,1	0,245263
4,854167	0,1	0,240001
4,855833	0,1	0,283937
4,857500	0,1	0,246087
4,859167	0,1	0,263070
4,860833	0,1	0,209987
4,862500	0,1	0,244584
4,864167	0,1	0,196252
4,865833	0,1	0,261939
4,867500	0,1	0,204272
4,869167	0,1	0,214465
4,870833	0,1	0,225254
4,872500	0,1	0,236370
4,874167	0,1	0,247386
4,875833	0,1	0,225904
4,877500	0,1	0,226831
4,879167	0,1	0,286413
4,880833	0,1	0,205060
4,882500	0,1	0,261236
4,884167	0,1	0,223340
4,885833	0,1	0,255085
4,887500	0,1	0,246737
4,889167	0,1	0,234539
4,890833	0,1	0,218879
4,892500	0,1	0,212004
4,894167	0,1	0,246762
4,895833	0,1	0,226029
4,897500	0,1	0,271902
4,899167	0,1	0,205307
4,900833	0,1	0,209331
4,902500	0,1	0,211836
4,904167	0,1	0,209888
4,905833	0,1	0,202272
4,907500	0,1	0,197503
4,909167	0,1	0,254336
4,910833	0,1	0,225905
4,912500	0,1	0,234306
4,914167	0,1	0,232068
4,915833	0,1	0,235339
4,917500	0,1	0,233516
4,919167	0,1	0,235177
4,920833	0,1	0,230685
4,922500	0,1	0,278221
4,924167	0,1	0,256344
4,925833	0,1	0,241827
4,927500	0,1	0,249412
4,929167	0,1	0,228472
4,930833	0,1	0,221382
4,932500	0,1	0,245040
4,934167	0,1	0,249893
4,935833	0,1	0,208448
4,937500	0,1	0,247014
4,939167	0,1	0,220580
4,940833	0,1	0,206906
4,942500	0,1	0,256716
4,944167	0,1	0,233660
4,945833	0,1	0,255565
4,947500	0,1	0,257674
4,949167	0,1	0,234806
4,950833	0,1	0,261532
4,952500	0,1	0,275372
4,954167	0,1	0,220613
4,955833	0,1	0,245292
4,957500	0,1	0,226320
4,959167	0,1	0,240938
4,960833	0,1	0,220429
4,962500	0,1	0,238105
4,964167	0,1	0,223913
4,965833	0,1	0,220551
4,967500	0,1	0,233387
4,969167	0,1	0,262149
4,970833	0,1	0,217414
4,972500	0,1	0,254442
4,974167	0,1	0,251683
4,975833	0,1	0,222735
4,977500	0,1	0,214093
4,979167	0,1	0,238973
4,980833	0,1	0,213190
4,982500	0,1	0,250716
4,984167	0,1	0,286571
4,985833	0,1	0,261670
4,987500	0,1	0,205884
4,989167	0,1	0,249241
4,990833	0,1	0,208286
4,992500	0,1	0,288651
4,994167	0,1	0,264238
4,995833	0,1	0,243566
4,997500	0,1	0,248018
4,999167	0,1	0,276878
5,000833	0,1	0,237087
5,002500	0,1	0,277580
5,004167	0,1	0,234936
5,005833	0,1	0,260890
5,007500	0,1	0,243352
5,009167	0,1	0,242277
5,010833	0,1	0,253768
5,012500	0,1	0,286508
5,014167	0,1	0,275378
5,015833	0,1	0,272717
5,017500	0,1	0,251687
5,019167	0,1	0,287087
5,020833	0,1	0,288291
5,022500	0,1	0,253200
5,024167	0,1	0,249568
5,025833	0,1	0,285287
5,027500	0,1	0,277104
5,029167	0,1	0,310529
5,030833	0,1	0,267390
5,032500	0,1	0,275184
5,034167	0,1	0,288829
5,035833	0,1	0,239909
5,037500	0,1	0,260866
5,039167	0,1	0,265000
5,040833	0,1	0,260609
5,042500	0,1	0,269984
5,044167	0,1	0,292932
5,045833	0,1	0,281420
5,047500	0,1	0,263307
5,049167	0,1	0,256493
5,050833	0,1	0,302874
5,052500	0,1	0,319261
5,054167	0,1	0,311172
5,055833	0,1	0,310338
5,057500	0,1	0,276931
5,059167	0,1	0,271461
5,060833	0,1	0,269822
5,062500	0,1	0,303620
5,064167	0,1	0,270019
5,065833	0,1	0,305157
5,067500	0,1	0,253129
5,069167	0,1	0,297874
5,070833	0,1	0,312387
5,072500	0,1	0,276767
5,074167	0,1	0,317302
5,075833	0,1	0,263705
5,077500	0,1	0,322334
5,079167	0,1	0,334068
5,080833	0,1	0,303699
5,082500	0,1	0,333097
5,084167	0,1	0,292179
5,085833	0,1	0,313471
5,087500	0,1	0,313260
5,089167	0,1	0,302021
5,090833	0,1	0,292325
5,092500	0,1	0,293200
5,094167	0,1	0,305814
5,095833	0,1	0,340067
5,097500	0,1	0,346144
5,099167	0,1	0,325593
5,100833	0,1	0,312005
5,102500	0,1	0,314706
5,104167	0,1	0,261830
5,105833	0,1	0,312606
5,107500	0,1	0,285077
5,109167	0,1	0,319737
5,110833	0,1	0,294344
5,112500	0,1	0,286935
5,114167	0,1	0,333444
5,115833	0,1	0,326718
5,117500	0,1	0,283480
5,119167	0,1	0,335948
5,120833	0,1	0,312949
5,122500	0,1	0,318811
5,124167	0,1	0,285720
5,125833	0,1	0,306407
5,127500	0,1	0,287769
5,129167	0,1	0,327214
5,130833	0,1	0,289122
5,132500	0,1	0,294185
5,134167	0,1	0,324495
5,135833	0,1	0,328291
5,137500	0,1	0,290820
5,139167	0,1	0,341186
5,140833	0,1	0,349996
5,142500	0,1	0,296325
5,144167	0,1	0,335735
5,145833	0,1	0,321131
5,147500	0,1	0,326554
5,149167	0,1	0,285722
5,150833	0,1	0,308216
5,152500	0,1	0,329280
5,154167	0,1	0,316158
5,155833	0,1	0,298233
5,157500	0,1	0,306837
5,159167	0,1	0,304271
5,160833	0,1	0,293873
5,162500	0,1	0,335346
5,164167	0,1	0,272079
5,165833	0,1	0,305256
5,167500	0,1	0,277397
5,169167	0,1	0,302753
5,170833	0,1	0,288699
5,172500	0,1	0,274347
5,174167	0,1	0,279126
5,175833	0,1	0,324454
5,177500	0,1	0,331501
5,179167	0,1	0,328002
5,180833	0,1	0,261318
5,182500	0,1	0,309396
5,184167	0,1	0,291812
5,185833	0,1	0,282403
5,187500	0,1	0,261669
5,189167	0,1	0,277877
5,190833	0,1	0,295112
5,192500	0,1	0,292096
5,194167	0,1	0,256662
5,195833	0,1	0,263111
5,197500	0,1	0,305516
5,199167	0,1	0,280301
5,200833	0,1	0,243797
5,202500	0,1	0,256953
5,204167	0,1	0,262368
5,205833	0,1	0,270967
5,207500	0,1	0,285807
5,209167	0,1	0,311299
5,210833	0,1	0,288385
5,212500	0,1	0,287748
5,214167	0,1	0,253490
5,215833	0,1	0,269618
5,217500	0,1	0,288574
5,219167	0,1	0,272358
5,220833	0,1	0,247809
5,222500	0,1	0,280024
5,224167	0,1	0,267032
5,225833	0,1	0,236922
5,227500	0,1	0,233415
5,229167	0,1	0,244641
5,230833	0,1	0,248960
5,232500	0,1	0,274689
5,234167	0,1	0,249699
5,235833	0,1	0,288524
5,237500	0,1	0,232471
5,239167	0,1	0,273313
5,240833	0,1	0,231951
5,242500	0,1	0,249851
5,244167	0,1	0,223376
5,245833	0,1	0,246414
5,247500	0,1	0,211078
5,249167	0,1	0,246057
5,250833	0,1	0,203415
5,252500	0,1	0,181458
5,254167	0,1	0,195533
5,255833	0,1	0,218165
5,257500	0,1	0,208566
5,259167	0,1	0,214606
5,260833	0,1	0,225455
5,262500	0,1	0,177635
5,264167	0,1	0,226856
5,265833	0,1	0,169333
5,267500	0,1	0,209613
5,269167	0,1	0,215436
5,270833	0,1	0,203471
5,272500	0,1	0,210339
5,274167	0,1	0,207760
5,275833	0,1	0,192746
5,277500	0,1	0,191168
5,279167	0,1	0,198393
5,280833	0,1	0,164129
5,282500	0,1	0,219643
5,284167	0,1	0,215452
5,285833	0,1	0,164797
5,287500	0,1	0,210846
5,289167	0,1	0,211813
5,290833	0,1	0,199947
5,292500	0,1	0,203844
5,294167	0,1	0,209205
5,295833	0,1	0,188151
5,297500	0,1	0,200997
5,299167	0,1	0,174749
5,300833	0,1	0,180857
5,302500	0,1	0,170189
5,304167	0,1	0,172879
5,305833	0,1	0,190310
5,307500	0,1	0,147942
5,309167	0,1	0,173946
5,310833	0,1	0,144667
5,312500	0,1	0,206600
5,314167	0,1	0,140408
5,315833	0,1	0,151922
5,317500	0,1	0,162794
5,319167	0,1	0,167517
5,320833	0,1	0,139015
5,322500	0,1	0,133583
5,324167	0,1	0,149454
5,325833	0,1	0,155508
5,327500	0,1	0,155735
5,329167	0,1	0,147972
5,330833	0,1	0,173227
5,332500	0,1	0,158698
5,334167	0,1	0,134167
5,335833	0,1	0,163823
5,337500	0,1	0,151057
5,339167	0,1	0,146108
5,340833	0,1	0,115595
5,342500	0,1	0,136019
5,344167	0,1	0,133020
5,345833	0,1	0,118613
5,347500	0,1	0,127906
5,349167	0,1	0,124075
5,350833	0,1	0,113249
5,352500	0,1	0,171810
5,354167	0,1	0,123857
5,355833	0,1	0,130183
5,357500	0,1	0,103978
5,359167	0,1	0,149346
5,360833	0,1	0,131968
5,362500	0,1	0,122092
5,364167	0,1	0,099318
5,365833	0,1	0,077434
5,367500	0,1	0,109575
5,369167	0,1	0,153924
5,370833	0,1	0,136649
5,372500	0,1	0,146825
5,374167	0,1	0,142648
5,375833	0,1	0,128428
5,377500	0,1	0,086879
5,379167	0,1	0,130362
5,380833	0,1	0,092491
5,382500	0,1	0,102208
5,384167	0,1	0,090972
5,385833	0,1	0,124542
5,387500	0,1	0,089302
5,389167	0,1	0,125041
5,390833	0,1	0,064215
5,392500	0,1	0,070162
5,394167	0,1	0,142567
5,395833	0,1	0,100898
5,397500	0,1	0,086810
5,399167	0,1	0,106181
5,400833	0,1	0,088612
5,402500	0,1	0,135138
5,404167	0,1	0,085392
5,405833	0,1	0,094382
5,407500	0,1	0,141352
5,409167	0,1	0,111931
5,410833	0,1	0,088738
5,412500	0,1	0,073480
5,414167	0,1	0,110462
5,415833	0,1	0,061727
5,417500	0,1	0,053727
5,419167	0,1	0,079037
5,420833	0,1	0,100217
5,422500	0,1	0,101818
5,424167	0,1	0,087184
5,425833	0,1	0,079379
5,427500	0,1	0,099371
5,429167	0,1	0,084287
5,430833	0,1	0,081860
5,432500	0,1	0,093308
5,434167	0,1	0,101652
5,435833	0,1	0,115896
5,437500	0,1	0,078223
5,439167	0,1	0,060893
5,440833	0,1	0,062357
5,442500	0,1	0,066167
5,444167	0,1	0,105472
5,445833	0,1	0,091139
5,447500	0,1	0,072879
5,449167	0,1	0,075235
5,450833	0,1	0,082499
5,452500	0,1	0,093825
5,454167	0,1	0,093493
5,455833	0,1	0,082029
5,457500	0,1	0,063088
5,459167	0,1	0,084359
5,460833	0,1	0,075423
5,462500	0,1	0,066832
5,464167	0,1	0,078461
5,465833	0,1	0,099638
5,467500	0,1	0,068844
5,469167	0,1	0,070804
5,470833	0,1	0,080698
5,472500	0,1	0,065923
5,474167	0,1	0,074882
5,475833	0,1	0,040794
5,477500	0,1	0,075620
5,479167	0,1	0,078712
5,480833	0,1	0,056484
5,482500	0,1	0,066558
5,484167	0,1	0,055964
5,485833	0,1	0,107912
5,487500	0,1	0,056387
5,489167	0,1	0,071793
5,490833	0,1	0,086266
5,492500	0,1	0,059983
5,494167	0,1	0,066870
5,495833	0,1	0,048472
5,497500	0,1	0,041265
5,499167	0,1	0,057592
5,500833	0,1	0,059046
5,502500	0,1	0,082639
5,504167	0,1	0,042619
5,505833	0,1	0,020091
5,507500	0,1	0,067087
5,509167	0,1	0,086036
5,510833	0,1	0,041605
5,512500	0,1	0,032529
5,514167	0,1	0,048712
5,515833	0,1	0,079740
5,517500	0,1	0,095931
5,519167	0,1	0,058020
5,520833	0,1	0,070759
5,522500	0,1	0,051101
5,524167	0,1	0,052235
5,525833	0,1	0,042693
5,527500	0,1	0,028887
5,529167	0,1	0,048711
5,530833	0,1	0,051282
5,532500	0,1	0,043293
5,534167	0,1	0,045382
5,535833	0,1	0,099217
5,537500	0,1	0,024305
5,539167	0,1	0,055126
5,540833	0,1	0,063599
5,542500	0,1	0,045220
5,544167	0,1	0,038636
5,545833	0,1	0,069389
5,547500	0,1	0,061160
5,549167	0,1	0,063060
5,550833	0,1	0,097896
5,552500	0,1	0,061704
5,554167	0,1	0,060268
5,555833	0,1	0,017551
5,557500	0,1	0,045314
5,559167	0,1	0,064051
5,560833	0,1	0,035888
5,562500	0,1	0,079799
5,564167	0,1	0,062093
5,565833	0,1	0,058818
5,567500	0,1	0,058094
5,569167	0,1	0,037418
5,570833	0,1	0,070260
5,572500	0,1	0,064244
5,574167	0,1	0,038847
5,575833	0,1	0,073776
5,577500	0,1	0,003604
5,579167	0,1	0,056653
5,580833	0,1	0,048178
5,582500	0,1	0,044948
5,584167	0,1	0,026300
5,585833	0,1	0,024287
5,587500	0,1	0,061356
5,589167	0,1	0,060909
5,590833	0,1	0,078273
5,592500	0,1	0,031586
5,594167	0,1	0,026151
5,595833	0,1	0,072244
5,597500	0,1	0,051805
5,599167	0,1	0,033256
5,600833	0,1	0,068517
5,602500	0,1	0,060682
5,604167	0,1	0,065338
5,605833	0,1	0,019474
5,607500	0,1	0,050944
5,609167	0,1	0,019784
5,610833	0,1	0,022113
5,612500	0,1	0,044777
5,614167	0,1	0,055088
5,615833	0,1	0,045758
5,617500	0,1	0,071316
5,619167	0,1	0,031997
5,620833	0,1	0,039543
5,622500	0,1	0,037578
5,624167	0,1	0,051280
5,625833	0,1	0,101019
5,627500	0,1	0,051481
5,629167	0,1	0,043355
5,630833	0,1	0,058234
5,632500	0,1	0,057245
5,634167	0,1	0,022537
5,635833	0,1	0,076463
5,637500	0,1	0,037878
5,639167	0,1	0,055005
5,640833	0,1	0,043728
5,642500	0,1	0,020733
5,644167	0,1	0,042231
5,645833	0,1	0,064051
5,647500	0,1	0,071651
5,649167	0,1	0,082086
5,650833	0,1	0,026412
5,652500	0,1	0,061232
5,654167	0,1	0,058052
5,655833	0,1	0,036714
5,657500	0,1	0,089673
5,659167	0,1	0,073107
5,660833	0,1	0,081837
5,662500	0,1	0,079293
5,664167	0,1	0,065756
5,665833	0,1	0,061572
5,667500	0,1	0,027048
5,669167	0,1	0,108154
5,670833	0,1	0,062970
5,672500	0,1	0,056667
5,674167	0,1	0,098952
5,675833	0,1	0,083022
5,677500	0,1	0,086642
5,679167	0,1	0,086994
5,680833	0,1	0,073787
5,682500	0,1	0,039491
5,684167	0,1	0,097311
5,685833	0,1	0,049555
5,687500	0,1	0,048509
5,689167	0,1	0,086322
5,690833	0,1	0,043199
5,692500	0,1	0,058234
5,694167	0,1	0,077736
5,695833	0,1	0,068901
5,697500	0,1	0,086782
5,699167	0,1	0,105456
5,700833	0,1	0,077478
5,702500	0,1	0,098560
5,704167	0,1	0,059138
5,705833	0,1	0,064778
5,707500	0,1	0,061034
5,709167	0,1	0,072770
5,710833	0,1	0,056545
5,712500	0,1	0,047103
5,714167	0,1	0,083465
5,715833	0,1	0,064267
5,717500	0,1	0,060144
5,719167	0,1	0,064736
5,720833	0,1	0,099759
5,722500	0,1	0,087020
5,724167	0,1	0,122123
5,725833	0,1	0,078268
5,727500	0,1	0,077907
5,729167	0,1	0,109491
5,730833	0,1	0,072346
5,732500	0,1	0,123504
5,734167	0,1	0,119065
5,735833	0,1	0,127469
5,737500	0,1	0,096278
5,739167	0,1	0,069819
5,740833	0,1	0,127933
5,742500	0,1	0,118095
5,744167	0,1	0,067277
5,745833	0,1	0,101914
5,747500	0,1	0,098508
5,749167	0,1	0,106888
5,750833	0,1	0,076817
5,752500	0,1	0,110920
5,754167	0,1	0,124713
5,755833	0,1	0,114886
5,757500	0,1	0,097620
5,759167	0,1	0,094902
5,760833	0,1	0,072817
5,762500	0,1	0,083948
5,764167	0,1	0,120548
5,765833	0,1	0,097622
5,767500	0,1	0,107013
5,769167	0,1	0,098073
5,770833	0,1	0,171703
5,772500	0,1	0,110364
5,774167	0,1	0,094307
5,775833	0,1	0,090908
5,777500	0,1	0,090577
5,779167	0,1	0,147543
5,780833	0,1	0,113153
5,782500	0,1	0,077251
5,784167	0,1	0,122700
5,785833	0,1	0,108489
5,787500	0,1	0,158808
5,789167	0,1	0,112803
5,790833	0,1	0,119226
5,792500	0,1	0,129973
5,794167	0,1	0,081229
5,795833	0,1	0,124938
5,797500	0,1	0,094558
5,799167	0,1	0,134810
5,800833	0,1	0,092118
5,802500	0,1	0,112475
5,804167	0,1	0,143548
5,805833	0,1	0,087610
5,807500	0,1	0,136837
5,809167	0,1	0,087359
5,810833	0,1	0,081180
5,812500	0,1	0,079440
5,814167	0,1	0,082438
5,815833	0,1	0,093285
5,817500	0,1	0,116349
5,819167	0,1	0,093542
5,820833	0,1	0,131580
5,822500	0,1	0,125030
5,824167	0,1	0,095511
5,825833	0,1	0,127564
5,827500	0,1	0,117016
5,829167	0,1	0,097847
5,830833	0,1	0,090659
5,832500	0,1	0,113945
5,834167	0,1	0,107988
5,835833	0,1	0,126079
5,837500	0,1	0,130225
5,839167	0,1	0,088186
5,840833	0,1	0,119408
5,842500	0,1	0,073651
5,844167	0,1	0,104214
5,845833	0,1	0,124091
5,847500	0,1	0,104640
5,849167	0,1	0,079651
5,850833	0,1	0,100758
5,852500	0,1	0,115647
5,854167	0,1	0,089175
5,855833	0,1	0,063276
5,857500	0,1	0,111867
5,859167	0,1	0,123412
5,860833	0,1	0,105135
5,862500	0,1	0,126283
5,864167	0,1	0,098844
5,865833	0,1	0,113180
5,867500	0,1	0,080793
5,869167	0,1	0,052884
5,870833	0,1	0,101869
5,872500	0,1	0,119639
5,874167	0,1	0,084497
5,875833	0,1	0,068572
5,877500	0,1	0,097485
5,879167	0,1	0,092896
5,880833	0,1	0,107944
5,882500	0,1	0,108982
5,884167	0,1	0,115853
5,885833	0,1	0,106747
5,887500	0,1	0,096397
5,889167	0,1	0,086645
5,890833	0,1	0,101690
5,892500	0,1	0,107032
5,894167	0,1	0,118544
5,895833	0,1	0,075805
5,897500	0,1	0,087820
5,899167	0,1	0,067620
5,900833	0,1	0,077819
5,902500	0,1	0,073229
5,904167	0,1	0,075192
5,905833	0,1	0,081569
5,907500	0,1	0,052180
5,909167	0,1	0,033524
5,910833	0,1	0,071581
5,912500	0,1	0,095168
5,914167	0,1	0,074038
5,915833	0,1	0,088752
5,917500	0,1	0,059011
5,919167	0,1	0,055714
5,920833	0,1	0,056250
5,922500	0,1	0,067697
5,924167	0,1	0,072709
5,925833	0,1	0,057537
5,927500	0,1	0,105738
5,929167	0,1	0,093309
5,930833	0,1	0,071183
5,932500	0,1	0,078815
5,934167	0,1	0,071592
5,935833	0,1	0,041022
5,937500	0,1	0,110350
5,939167	0,1	0,089234
5,940833	0,1	0,070291
5,942500	0,1	0,050191
5,944167	0,1	0,061610
5,945833	0,1	0,052568
5,947500	0,1	0,073386
5,949167	0,1	0,066645
5,950833	0,1	0,072355
5,952500	0,1	0,056276
5,954167	0,1	0,049173
5,955833	0,1	0,050474
5,957500	0,1	0,040293
5,959167	0,1	0,053081
5,960833	0,1	0,041535
5,962500	0,1	0,029281
5,964167	0,1	0,065475
5,965833	0,1	0,052278
5,967500	0,1	0,050930
5,969167	0,1	0,057699
5,970833	0,1	0,015211
5,972500	0,1	0,052411
5,974167	0,1	0,058609
5,975833	0,1	0,028374
5,977500	0,1	0,030477
5,979167	0,1	0,051671
5,980833	0,1	0,049440
5,982500	0,1	0,037167
5,984167	0,1	0,082862
5,985833	0,1	0,025026
5,987500	0,1	0,071062
5,989167	0,1	0,006936
5,990833	0,1	0,047152
5,992500	0,1	0,050847
5,994167	0,1	0,025390
5,995833	0,1	0,048979
5,997500	0,1	0,002068
5,999167	0,1	0,019357
6,000833	0,1	0,039044
