File Path	chrom://chromeleon01/ikbm_chromeleon/2022/Rezex/Esteban/220612_chitin_4_7.seq/377.smp/UV_VIS_1.channel/UV_VIS_1.chm
Channel	UV_VIS_1

Injection Information:
Data Vault	ikbm_chromeleon
Injection	7_00h-EGS_2
Injection Number	111
Position	BB5
Comment	
Processing Method	New ProcMethod
Instrument Method	Short_Rezex_6min_194nm
Type	Unknown
Status	Finished
Injection Date	13.06.2022
Injection Time	05:06:19
Injection Volume (µl)	8,000
Dilution Factor	1,0000
Weight	1,0000

Chromatogram Data Information:
Time Min. (min)	0,000833
Time Max. (min)	6,000833
Data Points	3601
Detector	UV
Generating Data System	Chromeleon 7.2.9.11323
Exporting Data System	Chromeleon 7.2.9.0
Operator	Instrument Controller
Signal Quantity	Absorbance
Signal Unit	mAU
Signal Min.	-0,146739
Signal Max.	110,824038
Channel	UV_VIS_1
Driver Name	VWD3000.dll
Channel Type	Evaluation
Min. Step (s)	0,1
Max. Step (s)	0,1
Average Step (s)	0,1

Signal Parameter Information:
Signal Info	WVL:194 nm

Chromatogram Data:
Time (min)	Step (s)	Value (mAU)
0,000833	n.a.	-0,055950
0,002500	0,1	-0,032852
0,004167	0,1	-0,086989
0,005833	0,1	-0,073993
0,007500	0,1	-0,115473
0,009167	0,1	-0,050989
0,010833	0,1	-0,066394
0,012500	0,1	-0,075912
0,014167	0,1	-0,081563
0,015833	0,1	-0,029695
0,017500	0,1	-0,086513
0,019167	0,1	-0,076619
0,020833	0,1	-0,047820
0,022500	0,1	-0,053462
0,024167	0,1	-0,047111
0,025833	0,1	-0,045186
0,027500	0,1	-0,118672
0,029167	0,1	-0,084841
0,030833	0,1	-0,084497
0,032500	0,1	-0,079093
0,034167	0,1	-0,146739
0,035833	0,1	-0,071976
0,037500	0,1	-0,109304
0,039167	0,1	-0,070212
0,040833	0,1	-0,075957
0,042500	0,1	-0,090464
0,044167	0,1	-0,105233
0,045833	0,1	-0,093816
0,047500	0,1	-0,086620
0,049167	0,1	-0,085811
0,050833	0,1	-0,094208
0,052500	0,1	-0,061061
0,054167	0,1	-0,049845
0,055833	0,1	-0,062960
0,057500	0,1	-0,057725
0,059167	0,1	-0,055281
0,060833	0,1	-0,089834
0,062500	0,1	-0,052769
0,064167	0,1	-0,066808
0,065833	0,1	-0,074583
0,067500	0,1	-0,040764
0,069167	0,1	-0,072041
0,070833	0,1	-0,079073
0,072500	0,1	-0,094037
0,074167	0,1	-0,096683
0,075833	0,1	-0,078254
0,077500	0,1	-0,052583
0,079167	0,1	-0,022556
0,080833	0,1	-0,103520
0,082500	0,1	-0,063156
0,084167	0,1	-0,036288
0,085833	0,1	-0,043944
0,087500	0,1	-0,009849
0,089167	0,1	-0,027799
0,090833	0,1	-0,060617
0,092500	0,1	-0,040041
0,094167	0,1	-0,036663
0,095833	0,1	-0,060558
0,097500	0,1	-0,070885
0,099167	0,1	-0,030870
0,100833	0,1	-0,048266
0,102500	0,1	-0,091054
0,104167	0,1	-0,078588
0,105833	0,1	-0,098298
0,107500	0,1	-0,069935
0,109167	0,1	-0,069042
0,110833	0,1	-0,125517
0,112500	0,1	-0,079666
0,114167	0,1	-0,109505
0,115833	0,1	-0,098839
0,117500	0,1	-0,074529
0,119167	0,1	-0,091762
0,120833	0,1	-0,070558
0,122500	0,1	-0,065545
0,124167	0,1	-0,073285
0,125833	0,1	-0,088906
0,127500	0,1	-0,068405
0,129167	0,1	-0,075621
0,130833	0,1	-0,062278
0,132500	0,1	-0,093928
0,134167	0,1	-0,067535
0,135833	0,1	-0,075332
0,137500	0,1	-0,107733
0,139167	0,1	-0,099174
0,140833	0,1	-0,079645
0,142500	0,1	-0,048216
0,144167	0,1	-0,077266
0,145833	0,1	-0,055682
0,147500	0,1	-0,068960
0,149167	0,1	-0,079041
0,150833	0,1	-0,067409
0,152500	0,1	-0,062734
0,154167	0,1	-0,019674
0,155833	0,1	-0,006714
0,157500	0,1	-0,020268
0,159167	0,1	-0,078069
0,160833	0,1	-0,060066
0,162500	0,1	-0,038441
0,164167	0,1	-0,009591
0,165833	0,1	-0,035572
0,167500	0,1	-0,066163
0,169167	0,1	-0,064506
0,170833	0,1	-0,035981
0,172500	0,1	-0,064178
0,174167	0,1	-0,011171
0,175833	0,1	-0,044763
0,177500	0,1	-0,081142
0,179167	0,1	-0,039041
0,180833	0,1	-0,079065
0,182500	0,1	-0,016806
0,184167	0,1	-0,074510
0,185833	0,1	-0,070889
0,187500	0,1	-0,054794
0,189167	0,1	-0,045019
0,190833	0,1	-0,090823
0,192500	0,1	-0,037255
0,194167	0,1	-0,050437
0,195833	0,1	-0,032314
0,197500	0,1	-0,037302
0,199167	0,1	-0,060391
0,200833	0,1	-0,075666
0,202500	0,1	-0,015584
0,204167	0,1	-0,043543
0,205833	0,1	-0,082089
0,207500	0,1	-0,042874
0,209167	0,1	-0,069966
0,210833	0,1	-0,023797
0,212500	0,1	-0,044677
0,214167	0,1	-0,069097
0,215833	0,1	-0,020670
0,217500	0,1	-0,020993
0,219167	0,1	-0,085368
0,220833	0,1	-0,073413
0,222500	0,1	-0,038733
0,224167	0,1	-0,030160
0,225833	0,1	-0,048511
0,227500	0,1	-0,042910
0,229167	0,1	-0,053645
0,230833	0,1	-0,077084
0,232500	0,1	-0,025600
0,234167	0,1	-0,043149
0,235833	0,1	-0,058714
0,237500	0,1	-0,040196
0,239167	0,1	-0,019696
0,240833	0,1	-0,028275
0,242500	0,1	-0,095888
0,244167	0,1	-0,068757
0,245833	0,1	-0,010205
0,247500	0,1	-0,070264
0,249167	0,1	-0,058720
0,250833	0,1	-0,021063
0,252500	0,1	-0,057793
0,254167	0,1	-0,067617
0,255833	0,1	-0,048809
0,257500	0,1	-0,045064
0,259167	0,1	-0,038207
0,260833	0,1	-0,059643
0,262500	0,1	-0,053815
0,264167	0,1	-0,056105
0,265833	0,1	-0,032254
0,267500	0,1	-0,039443
0,269167	0,1	-0,047062
0,270833	0,1	-0,083206
0,272500	0,1	-0,037146
0,274167	0,1	-0,018861
0,275833	0,1	-0,033362
0,277500	0,1	-0,075551
0,279167	0,1	-0,062905
0,280833	0,1	-0,027873
0,282500	0,1	-0,042951
0,284167	0,1	-0,053108
0,285833	0,1	-0,055157
0,287500	0,1	-0,061326
0,289167	0,1	-0,031887
0,290833	0,1	-0,034279
0,292500	0,1	-0,085890
0,294167	0,1	-0,016089
0,295833	0,1	-0,054752
0,297500	0,1	-0,029013
0,299167	0,1	-0,033469
0,300833	0,1	-0,032645
0,302500	0,1	-0,020995
0,304167	0,1	-0,018059
0,305833	0,1	-0,048368
0,307500	0,1	-0,054515
0,309167	0,1	-0,049508
0,310833	0,1	-0,058348
0,312500	0,1	-0,101544
0,314167	0,1	-0,066712
0,315833	0,1	-0,085881
0,317500	0,1	-0,050845
0,319167	0,1	-0,074701
0,320833	0,1	-0,039341
0,322500	0,1	-0,043505
0,324167	0,1	-0,015910
0,325833	0,1	-0,062783
0,327500	0,1	0,011357
0,329167	0,1	-0,023075
0,330833	0,1	-0,034231
0,332500	0,1	-0,004302
0,334167	0,1	-0,010286
0,335833	0,1	-0,007749
0,337500	0,1	-0,012652
0,339167	0,1	-0,062371
0,340833	0,1	-0,051891
0,342500	0,1	-0,069709
0,344167	0,1	-0,014925
0,345833	0,1	-0,004254
0,347500	0,1	-0,038244
0,349167	0,1	-0,015955
0,350833	0,1	-0,021219
0,352500	0,1	-0,046401
0,354167	0,1	-0,025884
0,355833	0,1	-0,036491
0,357500	0,1	-0,021435
0,359167	0,1	-0,001794
0,360833	0,1	-0,056535
0,362500	0,1	-0,051266
0,364167	0,1	-0,030357
0,365833	0,1	-0,049916
0,367500	0,1	-0,049096
0,369167	0,1	-0,036665
0,370833	0,1	-0,017164
0,372500	0,1	-0,044537
0,374167	0,1	-0,025319
0,375833	0,1	-0,030841
0,377500	0,1	-0,007035
0,379167	0,1	-0,060200
0,380833	0,1	-0,015553
0,382500	0,1	-0,035206
0,384167	0,1	-0,036020
0,385833	0,1	0,001225
0,387500	0,1	-0,012877
0,389167	0,1	-0,029098
0,390833	0,1	-0,041834
0,392500	0,1	-0,039290
0,394167	0,1	-0,018352
0,395833	0,1	-0,064127
0,397500	0,1	-0,029218
0,399167	0,1	-0,029851
0,400833	0,1	-0,019332
0,402500	0,1	-0,035743
0,404167	0,1	-0,024537
0,405833	0,1	-0,054800
0,407500	0,1	-0,021274
0,409167	0,1	-0,048905
0,410833	0,1	-0,027017
0,412500	0,1	-0,025327
0,414167	0,1	-0,039575
0,415833	0,1	-0,028571
0,417500	0,1	-0,037820
0,419167	0,1	-0,002563
0,420833	0,1	-0,030010
0,422500	0,1	-0,019009
0,424167	0,1	0,003821
0,425833	0,1	-0,005733
0,427500	0,1	-0,012651
0,429167	0,1	-0,041680
0,430833	0,1	-0,009496
0,432500	0,1	-0,049007
0,434167	0,1	-0,020938
0,435833	0,1	-0,018796
0,437500	0,1	-0,072738
0,439167	0,1	-0,006481
0,440833	0,1	-0,040730
0,442500	0,1	-0,057827
0,444167	0,1	-0,009350
0,445833	0,1	-0,027692
0,447500	0,1	-0,011997
0,449167	0,1	-0,027527
0,450833	0,1	-0,045012
0,452500	0,1	-0,002733
0,454167	0,1	-0,050367
0,455833	0,1	-0,037657
0,457500	0,1	-0,039166
0,459167	0,1	0,015957
0,460833	0,1	-0,020692
0,462500	0,1	-0,017022
0,464167	0,1	-0,061975
0,465833	0,1	-0,072643
0,467500	0,1	-0,010970
0,469167	0,1	-0,034916
0,470833	0,1	-0,027805
0,472500	0,1	-0,005952
0,474167	0,1	0,002515
0,475833	0,1	-0,009231
0,477500	0,1	-0,027876
0,479167	0,1	-0,063884
0,480833	0,1	-0,038838
0,482500	0,1	-0,009557
0,484167	0,1	-0,024804
0,485833	0,1	0,008510
0,487500	0,1	-0,037492
0,489167	0,1	-0,003188
0,490833	0,1	-0,021031
0,492500	0,1	0,002880
0,494167	0,1	-0,045646
0,495833	0,1	-0,003724
0,497500	0,1	-0,007889
0,499167	0,1	-0,030978
0,500833	0,1	-0,018595
0,502500	0,1	-0,053332
0,504167	0,1	0,000165
0,505833	0,1	-0,024606
0,507500	0,1	0,001850
0,509167	0,1	-0,043250
0,510833	0,1	-0,047444
0,512500	0,1	-0,010007
0,514167	0,1	0,005060
0,515833	0,1	-0,049371
0,517500	0,1	-0,010035
0,519167	0,1	-0,007107
0,520833	0,1	-0,048840
0,522500	0,1	-0,044895
0,524167	0,1	-0,026507
0,525833	0,1	-0,044417
0,527500	0,1	-0,041795
0,529167	0,1	-0,008566
0,530833	0,1	-0,036075
0,532500	0,1	-0,053017
0,534167	0,1	-0,020006
0,535833	0,1	-0,027590
0,537500	0,1	-0,020396
0,539167	0,1	-0,024242
0,540833	0,1	-0,030780
0,542500	0,1	-0,001524
0,544167	0,1	-0,046000
0,545833	0,1	-0,030539
0,547500	0,1	-0,033558
0,549167	0,1	-0,044357
0,550833	0,1	0,005237
0,552500	0,1	-0,034225
0,554167	0,1	-0,022383
0,555833	0,1	-0,006487
0,557500	0,1	-0,024696
0,559167	0,1	0,001577
0,560833	0,1	0,020932
0,562500	0,1	0,002836
0,564167	0,1	0,002578
0,565833	0,1	-0,040501
0,567500	0,1	-0,034816
0,569167	0,1	-0,041105
0,570833	0,1	-0,017254
0,572500	0,1	-0,001997
0,574167	0,1	-0,021445
0,575833	0,1	-0,013155
0,577500	0,1	-0,000133
0,579167	0,1	-0,021383
0,580833	0,1	-0,030260
0,582500	0,1	-0,004012
0,584167	0,1	0,030183
0,585833	0,1	-0,002423
0,587500	0,1	-0,028973
0,589167	0,1	-0,014685
0,590833	0,1	-0,014621
0,592500	0,1	0,008803
0,594167	0,1	-0,028224
0,595833	0,1	-0,007419
0,597500	0,1	-0,009199
0,599167	0,1	-0,014346
0,600833	0,1	-0,027448
0,602500	0,1	0,011259
0,604167	0,1	-0,018604
0,605833	0,1	-0,014578
0,607500	0,1	0,008020
0,609167	0,1	0,004485
0,610833	0,1	-0,029324
0,612500	0,1	-0,053472
0,614167	0,1	0,003952
0,615833	0,1	-0,037171
0,617500	0,1	-0,005558
0,619167	0,1	0,030199
0,620833	0,1	-0,038005
0,622500	0,1	-0,010858
0,624167	0,1	0,007564
0,625833	0,1	0,003801
0,627500	0,1	-0,003071
0,629167	0,1	-0,016744
0,630833	0,1	-0,037894
0,632500	0,1	-0,020478
0,634167	0,1	0,011718
0,635833	0,1	-0,008035
0,637500	0,1	-0,005094
0,639167	0,1	-0,029811
0,640833	0,1	-0,033760
0,642500	0,1	-0,011084
0,644167	0,1	0,024610
0,645833	0,1	-0,021175
0,647500	0,1	-0,009905
0,649167	0,1	0,004587
0,650833	0,1	0,001480
0,652500	0,1	0,013605
0,654167	0,1	0,023913
0,655833	0,1	-0,010843
0,657500	0,1	0,009673
0,659167	0,1	0,040634
0,660833	0,1	0,017735
0,662500	0,1	0,026726
0,664167	0,1	0,026482
0,665833	0,1	0,028944
0,667500	0,1	0,024188
0,669167	0,1	0,053693
0,670833	0,1	0,004285
0,672500	0,1	-0,008950
0,674167	0,1	0,010211
0,675833	0,1	0,027559
0,677500	0,1	-0,012318
0,679167	0,1	0,022458
0,680833	0,1	-0,003313
0,682500	0,1	0,009710
0,684167	0,1	0,025732
0,685833	0,1	0,048064
0,687500	0,1	0,047366
0,689167	0,1	0,047592
0,690833	0,1	0,061478
0,692500	0,1	0,056991
0,694167	0,1	0,022332
0,695833	0,1	0,019198
0,697500	0,1	0,020875
0,699167	0,1	0,008828
0,700833	0,1	0,023332
0,702500	0,1	0,009198
0,704167	0,1	0,058094
0,705833	0,1	0,057982
0,707500	0,1	0,024461
0,709167	0,1	0,034408
0,710833	0,1	0,045956
0,712500	0,1	0,022349
0,714167	0,1	0,094769
0,715833	0,1	0,070826
0,717500	0,1	0,056270
0,719167	0,1	0,069861
0,720833	0,1	0,107589
0,722500	0,1	0,081131
0,724167	0,1	0,071132
0,725833	0,1	0,064338
0,727500	0,1	0,085421
0,729167	0,1	0,092487
0,730833	0,1	0,112271
0,732500	0,1	0,108922
0,734167	0,1	0,107288
0,735833	0,1	0,097705
0,737500	0,1	0,053995
0,739167	0,1	0,084450
0,740833	0,1	0,087788
0,742500	0,1	0,109021
0,744167	0,1	0,149155
0,745833	0,1	0,076898
0,747500	0,1	0,100223
0,749167	0,1	0,118130
0,750833	0,1	0,081234
0,752500	0,1	0,106516
0,754167	0,1	0,084813
0,755833	0,1	0,092920
0,757500	0,1	0,080154
0,759167	0,1	0,086399
0,760833	0,1	0,117693
0,762500	0,1	0,114803
0,764167	0,1	0,088664
0,765833	0,1	0,077087
0,767500	0,1	0,134722
0,769167	0,1	0,071639
0,770833	0,1	0,105727
0,772500	0,1	0,084750
0,774167	0,1	0,096066
0,775833	0,1	0,104821
0,777500	0,1	0,081131
0,779167	0,1	0,103246
0,780833	0,1	0,062565
0,782500	0,1	0,061999
0,784167	0,1	0,079567
0,785833	0,1	0,073612
0,787500	0,1	0,054902
0,789167	0,1	0,075013
0,790833	0,1	0,060466
0,792500	0,1	0,066095
0,794167	0,1	0,129587
0,795833	0,1	0,088317
0,797500	0,1	0,085741
0,799167	0,1	0,032991
0,800833	0,1	0,076205
0,802500	0,1	0,074147
0,804167	0,1	0,056061
0,805833	0,1	0,062163
0,807500	0,1	0,005693
0,809167	0,1	0,078250
0,810833	0,1	0,060035
0,812500	0,1	0,054757
0,814167	0,1	0,117168
0,815833	0,1	0,073639
0,817500	0,1	0,040420
0,819167	0,1	0,077678
0,820833	0,1	0,087331
0,822500	0,1	0,060493
0,824167	0,1	0,065039
0,825833	0,1	0,069327
0,827500	0,1	0,096147
0,829167	0,1	0,055593
0,830833	0,1	0,065082
0,832500	0,1	0,069283
0,834167	0,1	0,034480
0,835833	0,1	0,042186
0,837500	0,1	0,066256
0,839167	0,1	0,073588
0,840833	0,1	0,016169
0,842500	0,1	0,059755
0,844167	0,1	0,062826
0,845833	0,1	0,058816
0,847500	0,1	0,068560
0,849167	0,1	0,074583
0,850833	0,1	0,088862
0,852500	0,1	0,080215
0,854167	0,1	0,076405
0,855833	0,1	0,053496
0,857500	0,1	0,020057
0,859167	0,1	0,060250
0,860833	0,1	0,072551
0,862500	0,1	0,058980
0,864167	0,1	0,054610
0,865833	0,1	0,050883
0,867500	0,1	0,072531
0,869167	0,1	0,035887
0,870833	0,1	0,069814
0,872500	0,1	0,093785
0,874167	0,1	0,075558
0,875833	0,1	0,111275
0,877500	0,1	0,083884
0,879167	0,1	0,088036
0,880833	0,1	0,013001
0,882500	0,1	0,068235
0,884167	0,1	0,048900
0,885833	0,1	0,063650
0,887500	0,1	0,077684
0,889167	0,1	0,059314
0,890833	0,1	0,052994
0,892500	0,1	0,081118
0,894167	0,1	0,083338
0,895833	0,1	0,097182
0,897500	0,1	0,094849
0,899167	0,1	0,049178
0,900833	0,1	0,093514
0,902500	0,1	0,099564
0,904167	0,1	0,105609
0,905833	0,1	0,119064
0,907500	0,1	0,081691
0,909167	0,1	0,075537
0,910833	0,1	0,091697
0,912500	0,1	0,112292
0,914167	0,1	0,106337
0,915833	0,1	0,079701
0,917500	0,1	0,072741
0,919167	0,1	0,081017
0,920833	0,1	0,071397
0,922500	0,1	0,086007
0,924167	0,1	0,086276
0,925833	0,1	0,048201
0,927500	0,1	0,080846
0,929167	0,1	0,118684
0,930833	0,1	0,050652
0,932500	0,1	0,100319
0,934167	0,1	0,143523
0,935833	0,1	0,098355
0,937500	0,1	0,106086
0,939167	0,1	0,110061
0,940833	0,1	0,099878
0,942500	0,1	0,097765
0,944167	0,1	0,105153
0,945833	0,1	0,116352
0,947500	0,1	0,090982
0,949167	0,1	0,113368
0,950833	0,1	0,114470
0,952500	0,1	0,170412
0,954167	0,1	0,117527
0,955833	0,1	0,131896
0,957500	0,1	0,091215
0,959167	0,1	0,174154
0,960833	0,1	0,127481
0,962500	0,1	0,109589
0,964167	0,1	0,118111
0,965833	0,1	0,070764
0,967500	0,1	0,111336
0,969167	0,1	0,104763
0,970833	0,1	0,091681
0,972500	0,1	0,125641
0,974167	0,1	0,170562
0,975833	0,1	0,136877
0,977500	0,1	0,172944
0,979167	0,1	0,154843
0,980833	0,1	0,156453
0,982500	0,1	0,113922
0,984167	0,1	0,149156
0,985833	0,1	0,148461
0,987500	0,1	0,172201
0,989167	0,1	0,156395
0,990833	0,1	0,183981
0,992500	0,1	0,186513
0,994167	0,1	0,211886
0,995833	0,1	0,189271
0,997500	0,1	0,137399
0,999167	0,1	0,229741
1,000833	0,1	0,210887
1,002500	0,1	0,190762
1,004167	0,1	0,211190
1,005833	0,1	0,200161
1,007500	0,1	0,231765
1,009167	0,1	0,274294
1,010833	0,1	0,261820
1,012500	0,1	0,245569
1,014167	0,1	0,228404
1,015833	0,1	0,265988
1,017500	0,1	0,262068
1,019167	0,1	0,326061
1,020833	0,1	0,271960
1,022500	0,1	0,292688
1,024167	0,1	0,315471
1,025833	0,1	0,362157
1,027500	0,1	0,365594
1,029167	0,1	0,343932
1,030833	0,1	0,339371
1,032500	0,1	0,330510
1,034167	0,1	0,352685
1,035833	0,1	0,395609
1,037500	0,1	0,398088
1,039167	0,1	0,395620
1,040833	0,1	0,420005
1,042500	0,1	0,454363
1,044167	0,1	0,422524
1,045833	0,1	0,446181
1,047500	0,1	0,425795
1,049167	0,1	0,450259
1,050833	0,1	0,474629
1,052500	0,1	0,467281
1,054167	0,1	0,490812
1,055833	0,1	0,558982
1,057500	0,1	0,549462
1,059167	0,1	0,637930
1,060833	0,1	0,717161
1,062500	0,1	0,807164
1,064167	0,1	0,938646
1,065833	0,1	1,146302
1,067500	0,1	1,326989
1,069167	0,1	1,622600
1,070833	0,1	1,997081
1,072500	0,1	2,387964
1,074167	0,1	2,946257
1,075833	0,1	3,534047
1,077500	0,1	4,285796
1,079167	0,1	5,207670
1,080833	0,1	6,154044
1,082500	0,1	7,316915
1,084167	0,1	8,553922
1,085833	0,1	9,938530
1,087500	0,1	11,418178
1,089167	0,1	13,055461
1,090833	0,1	14,815145
1,092500	0,1	16,586438
1,094167	0,1	18,392209
1,095833	0,1	20,220577
1,097500	0,1	22,040389
1,099167	0,1	23,818450
1,100833	0,1	25,543485
1,102500	0,1	27,112420
1,104167	0,1	28,645610
1,105833	0,1	29,974926
1,107500	0,1	31,192566
1,109167	0,1	32,244112
1,110833	0,1	33,118821
1,112500	0,1	33,896737
1,114167	0,1	34,422253
1,115833	0,1	34,939105
1,117500	0,1	35,225407
1,119167	0,1	35,428161
1,120833	0,1	35,549560
1,122500	0,1	35,466249
1,124167	0,1	35,468818
1,125833	0,1	35,390462
1,127500	0,1	35,259553
1,129167	0,1	35,166127
1,130833	0,1	35,012234
1,132500	0,1	34,869407
1,134167	0,1	34,795101
1,135833	0,1	34,739305
1,137500	0,1	34,700485
1,139167	0,1	34,755706
1,140833	0,1	34,843157
1,142500	0,1	35,003591
1,144167	0,1	35,285257
1,145833	0,1	35,696054
1,147500	0,1	36,138006
1,149167	0,1	36,671423
1,150833	0,1	37,353930
1,152500	0,1	38,105191
1,154167	0,1	38,895303
1,155833	0,1	39,819117
1,157500	0,1	40,835239
1,159167	0,1	41,904418
1,160833	0,1	43,041504
1,162500	0,1	44,263059
1,164167	0,1	45,447798
1,165833	0,1	46,695951
1,167500	0,1	47,937573
1,169167	0,1	49,198346
1,170833	0,1	50,374618
1,172500	0,1	51,526026
1,174167	0,1	52,659699
1,175833	0,1	53,737590
1,177500	0,1	54,784809
1,179167	0,1	55,627787
1,180833	0,1	56,519216
1,182500	0,1	57,181230
1,184167	0,1	57,863609
1,185833	0,1	58,419009
1,187500	0,1	58,939925
1,189167	0,1	59,343639
1,190833	0,1	59,709234
1,192500	0,1	59,979684
1,194167	0,1	60,269240
1,195833	0,1	60,475914
1,197500	0,1	60,734838
1,199167	0,1	61,038915
1,200833	0,1	61,332264
1,202500	0,1	61,669947
1,204167	0,1	62,187156
1,205833	0,1	62,763179
1,207500	0,1	63,480288
1,209167	0,1	64,370503
1,210833	0,1	65,418772
1,212500	0,1	66,609416
1,214167	0,1	68,012565
1,215833	0,1	69,617457
1,217500	0,1	71,325727
1,219167	0,1	73,256083
1,220833	0,1	75,413631
1,222500	0,1	77,624337
1,224167	0,1	79,954387
1,225833	0,1	82,434181
1,227500	0,1	84,859439
1,229167	0,1	87,369447
1,230833	0,1	89,849296
1,232500	0,1	92,330399
1,234167	0,1	94,695345
1,235833	0,1	96,976506
1,237500	0,1	99,177555
1,239167	0,1	101,267254
1,240833	0,1	103,052597
1,242500	0,1	104,754331
1,244167	0,1	106,266094
1,245833	0,1	107,590709
1,247500	0,1	108,631561
1,249167	0,1	109,479398
1,250833	0,1	110,169321
1,252500	0,1	110,593965
1,254167	0,1	110,824038
1,255833	0,1	110,777833
1,257500	0,1	110,559966
1,259167	0,1	110,130762
1,260833	0,1	109,572327
1,262500	0,1	108,657924
1,264167	0,1	107,674669
1,265833	0,1	106,539602
1,267500	0,1	105,084296
1,269167	0,1	103,604120
1,270833	0,1	101,931257
1,272500	0,1	100,175691
1,274167	0,1	98,253269
1,275833	0,1	96,234287
1,277500	0,1	94,128717
1,279167	0,1	91,925888
1,280833	0,1	89,689352
1,282500	0,1	87,369728
1,284167	0,1	85,021399
1,285833	0,1	82,654432
1,287500	0,1	80,269886
1,289167	0,1	77,899590
1,290833	0,1	75,484017
1,292500	0,1	73,079255
1,294167	0,1	70,796760
1,295833	0,1	68,459691
1,297500	0,1	66,241327
1,299167	0,1	64,017233
1,300833	0,1	61,876895
1,302500	0,1	59,788111
1,304167	0,1	57,805354
1,305833	0,1	55,839659
1,307500	0,1	53,911843
1,309167	0,1	52,060108
1,310833	0,1	50,324284
1,312500	0,1	48,543221
1,314167	0,1	46,969816
1,315833	0,1	45,365355
1,317500	0,1	43,908849
1,319167	0,1	42,422905
1,320833	0,1	41,003047
1,322500	0,1	39,662676
1,324167	0,1	38,360685
1,325833	0,1	37,125361
1,327500	0,1	35,959009
1,329167	0,1	34,830950
1,330833	0,1	33,714847
1,332500	0,1	32,670799
1,334167	0,1	31,674960
1,335833	0,1	30,712170
1,337500	0,1	29,790693
1,339167	0,1	28,830288
1,340833	0,1	28,010390
1,342500	0,1	27,167333
1,344167	0,1	26,398434
1,345833	0,1	25,619513
1,347500	0,1	24,849571
1,349167	0,1	24,151832
1,350833	0,1	23,447146
1,352500	0,1	22,751958
1,354167	0,1	22,160003
1,355833	0,1	21,511256
1,357500	0,1	20,947117
1,359167	0,1	20,353016
1,360833	0,1	19,834398
1,362500	0,1	19,250335
1,364167	0,1	18,722130
1,365833	0,1	18,238722
1,367500	0,1	17,743356
1,369167	0,1	17,256730
1,370833	0,1	16,834310
1,372500	0,1	16,371735
1,374167	0,1	15,969946
1,375833	0,1	15,580226
1,377500	0,1	15,137476
1,379167	0,1	14,738249
1,380833	0,1	14,427653
1,382500	0,1	14,063937
1,384167	0,1	13,740055
1,385833	0,1	13,428171
1,387500	0,1	13,084787
1,389167	0,1	12,804622
1,390833	0,1	12,504536
1,392500	0,1	12,190355
1,394167	0,1	11,969590
1,395833	0,1	11,687652
1,397500	0,1	11,474007
1,399167	0,1	11,199654
1,400833	0,1	11,074278
1,402500	0,1	10,770559
1,404167	0,1	10,594209
1,405833	0,1	10,369999
1,407500	0,1	10,191202
1,409167	0,1	10,020918
1,410833	0,1	9,857183
1,412500	0,1	9,620964
1,414167	0,1	9,528731
1,415833	0,1	9,372633
1,417500	0,1	9,199474
1,419167	0,1	9,047474
1,420833	0,1	8,870130
1,422500	0,1	8,809436
1,424167	0,1	8,675214
1,425833	0,1	8,531533
1,427500	0,1	8,422732
1,429167	0,1	8,344301
1,430833	0,1	8,226353
1,432500	0,1	8,109993
1,434167	0,1	7,993773
1,435833	0,1	7,864667
1,437500	0,1	7,793273
1,439167	0,1	7,730220
1,440833	0,1	7,635709
1,442500	0,1	7,518869
1,444167	0,1	7,431598
1,445833	0,1	7,350672
1,447500	0,1	7,259807
1,449167	0,1	7,153863
1,450833	0,1	7,116301
1,452500	0,1	6,976421
1,454167	0,1	6,942404
1,455833	0,1	6,892587
1,457500	0,1	6,799868
1,459167	0,1	6,717034
1,460833	0,1	6,624231
1,462500	0,1	6,597532
1,464167	0,1	6,497319
1,465833	0,1	6,476653
1,467500	0,1	6,450346
1,469167	0,1	6,384957
1,470833	0,1	6,316057
1,472500	0,1	6,251122
1,474167	0,1	6,209286
1,475833	0,1	6,185483
1,477500	0,1	6,143385
1,479167	0,1	6,158543
1,480833	0,1	6,112155
1,482500	0,1	6,052835
1,484167	0,1	6,078779
1,485833	0,1	6,073139
1,487500	0,1	6,070152
1,489167	0,1	6,072944
1,490833	0,1	6,039005
1,492500	0,1	6,064378
1,494167	0,1	6,075278
1,495833	0,1	6,046145
1,497500	0,1	6,082841
1,499167	0,1	6,114012
1,500833	0,1	6,143676
1,502500	0,1	6,164116
1,504167	0,1	6,128536
1,505833	0,1	6,161469
1,507500	0,1	6,143557
1,509167	0,1	6,197472
1,510833	0,1	6,205587
1,512500	0,1	6,207629
1,514167	0,1	6,246184
1,515833	0,1	6,240363
1,517500	0,1	6,279581
1,519167	0,1	6,260810
1,520833	0,1	6,306050
1,522500	0,1	6,293644
1,524167	0,1	6,329409
1,525833	0,1	6,316187
1,527500	0,1	6,326822
1,529167	0,1	6,316478
1,530833	0,1	6,310553
1,532500	0,1	6,285148
1,534167	0,1	6,294355
1,535833	0,1	6,315282
1,537500	0,1	6,294094
1,539167	0,1	6,278076
1,540833	0,1	6,278454
1,542500	0,1	6,307213
1,544167	0,1	6,240327
1,545833	0,1	6,251230
1,547500	0,1	6,211915
1,549167	0,1	6,175179
1,550833	0,1	6,166520
1,552500	0,1	6,154424
1,554167	0,1	6,108813
1,555833	0,1	6,062325
1,557500	0,1	6,063999
1,559167	0,1	6,017350
1,560833	0,1	6,031590
1,562500	0,1	6,013367
1,564167	0,1	5,968389
1,565833	0,1	5,902249
1,567500	0,1	5,900335
1,569167	0,1	5,873910
1,570833	0,1	5,802202
1,572500	0,1	5,762605
1,574167	0,1	5,748663
1,575833	0,1	5,717138
1,577500	0,1	5,659513
1,579167	0,1	5,638639
1,580833	0,1	5,628175
1,582500	0,1	5,568767
1,584167	0,1	5,524040
1,585833	0,1	5,534484
1,587500	0,1	5,477436
1,589167	0,1	5,413382
1,590833	0,1	5,357263
1,592500	0,1	5,361795
1,594167	0,1	5,299123
1,595833	0,1	5,306871
1,597500	0,1	5,289567
1,599167	0,1	5,206471
1,600833	0,1	5,172530
1,602500	0,1	5,144385
1,604167	0,1	5,083577
1,605833	0,1	5,043154
1,607500	0,1	5,063802
1,609167	0,1	5,012004
1,610833	0,1	4,947511
1,612500	0,1	4,918554
1,614167	0,1	4,866971
1,615833	0,1	4,850577
1,617500	0,1	4,794648
1,619167	0,1	4,738902
1,620833	0,1	4,751656
1,622500	0,1	4,696792
1,624167	0,1	4,662372
1,625833	0,1	4,669495
1,627500	0,1	4,591176
1,629167	0,1	4,555835
1,630833	0,1	4,510699
1,632500	0,1	4,495220
1,634167	0,1	4,459411
1,635833	0,1	4,449805
1,637500	0,1	4,446156
1,639167	0,1	4,422220
1,640833	0,1	4,339853
1,642500	0,1	4,331535
1,644167	0,1	4,306226
1,645833	0,1	4,337235
1,647500	0,1	4,256798
1,649167	0,1	4,229008
1,650833	0,1	4,226336
1,652500	0,1	4,190185
1,654167	0,1	4,177952
1,655833	0,1	4,176574
1,657500	0,1	4,184752
1,659167	0,1	4,140118
1,660833	0,1	4,161103
1,662500	0,1	4,126267
1,664167	0,1	4,140786
1,665833	0,1	4,108531
1,667500	0,1	4,120586
1,669167	0,1	4,146205
1,670833	0,1	4,157344
1,672500	0,1	4,132048
1,674167	0,1	4,221569
1,675833	0,1	4,250173
1,677500	0,1	4,260056
1,679167	0,1	4,278802
1,680833	0,1	4,295118
1,682500	0,1	4,357800
1,684167	0,1	4,388469
1,685833	0,1	4,437799
1,687500	0,1	4,497550
1,689167	0,1	4,532846
1,690833	0,1	4,616915
1,692500	0,1	4,678880
1,694167	0,1	4,713220
1,695833	0,1	4,829904
1,697500	0,1	4,870959
1,699167	0,1	4,931460
1,700833	0,1	4,954283
1,702500	0,1	5,019818
1,704167	0,1	5,127418
1,705833	0,1	5,221165
1,707500	0,1	5,272443
1,709167	0,1	5,332357
1,710833	0,1	5,429597
1,712500	0,1	5,484358
1,714167	0,1	5,586795
1,715833	0,1	5,623418
1,717500	0,1	5,680111
1,719167	0,1	5,762420
1,720833	0,1	5,809045
1,722500	0,1	5,860973
1,724167	0,1	5,902893
1,725833	0,1	5,984987
1,727500	0,1	5,977872
1,729167	0,1	6,049388
1,730833	0,1	6,102976
1,732500	0,1	6,095390
1,734167	0,1	6,165865
1,735833	0,1	6,165661
1,737500	0,1	6,191432
1,739167	0,1	6,208149
1,740833	0,1	6,235849
1,742500	0,1	6,230397
1,744167	0,1	6,258349
1,745833	0,1	6,245353
1,747500	0,1	6,244049
1,749167	0,1	6,257458
1,750833	0,1	6,233477
1,752500	0,1	6,234121
1,754167	0,1	6,208644
1,755833	0,1	6,167356
1,757500	0,1	6,155103
1,759167	0,1	6,110380
1,760833	0,1	6,072480
1,762500	0,1	6,064874
1,764167	0,1	5,971161
1,765833	0,1	5,914622
1,767500	0,1	5,925256
1,769167	0,1	5,861244
1,770833	0,1	5,850865
1,772500	0,1	5,775285
1,774167	0,1	5,713593
1,775833	0,1	5,630142
1,777500	0,1	5,570067
1,779167	0,1	5,494393
1,780833	0,1	5,482817
1,782500	0,1	5,412819
1,784167	0,1	5,362430
1,785833	0,1	5,268525
1,787500	0,1	5,222441
1,789167	0,1	5,151934
1,790833	0,1	5,104261
1,792500	0,1	5,015123
1,794167	0,1	4,963082
1,795833	0,1	4,886974
1,797500	0,1	4,825173
1,799167	0,1	4,724409
1,800833	0,1	4,681050
1,802500	0,1	4,607750
1,804167	0,1	4,575359
1,805833	0,1	4,493043
1,807500	0,1	4,417858
1,809167	0,1	4,345967
1,810833	0,1	4,250927
1,812500	0,1	4,227717
1,814167	0,1	4,150923
1,815833	0,1	4,095787
1,817500	0,1	4,012135
1,819167	0,1	3,963818
1,820833	0,1	3,939558
1,822500	0,1	3,847624
1,824167	0,1	3,769359
1,825833	0,1	3,717742
1,827500	0,1	3,661661
1,829167	0,1	3,617976
1,830833	0,1	3,574740
1,832500	0,1	3,488161
1,834167	0,1	3,492928
1,835833	0,1	3,413488
1,837500	0,1	3,397023
1,839167	0,1	3,364053
1,840833	0,1	3,346921
1,842500	0,1	3,291353
1,844167	0,1	3,324185
1,845833	0,1	3,338070
1,847500	0,1	3,315968
1,849167	0,1	3,295851
1,850833	0,1	3,351124
1,852500	0,1	3,342449
1,854167	0,1	3,347827
1,855833	0,1	3,392462
1,857500	0,1	3,410888
1,859167	0,1	3,429311
1,860833	0,1	3,482976
1,862500	0,1	3,511853
1,864167	0,1	3,585062
1,865833	0,1	3,590381
1,867500	0,1	3,633404
1,869167	0,1	3,659544
1,870833	0,1	3,682449
1,872500	0,1	3,731770
1,874167	0,1	3,759961
1,875833	0,1	3,822757
1,877500	0,1	3,876166
1,879167	0,1	3,849315
1,880833	0,1	3,948686
1,882500	0,1	3,927604
1,884167	0,1	3,944664
1,885833	0,1	3,933902
1,887500	0,1	3,957595
1,889167	0,1	4,036825
1,890833	0,1	4,035879
1,892500	0,1	4,072223
1,894167	0,1	4,127992
1,895833	0,1	4,113423
1,897500	0,1	4,146808
1,899167	0,1	4,130060
1,900833	0,1	4,152443
1,902500	0,1	4,191507
1,904167	0,1	4,205886
1,905833	0,1	4,164437
1,907500	0,1	4,259914
1,909167	0,1	4,242656
1,910833	0,1	4,254832
1,912500	0,1	4,254267
1,914167	0,1	4,302160
1,915833	0,1	4,325088
1,917500	0,1	4,316509
1,919167	0,1	4,310434
1,920833	0,1	4,324238
1,922500	0,1	4,359468
1,924167	0,1	4,351865
1,925833	0,1	4,329836
1,927500	0,1	4,354974
1,929167	0,1	4,358381
1,930833	0,1	4,320607
1,932500	0,1	4,323757
1,934167	0,1	4,290598
1,935833	0,1	4,322535
1,937500	0,1	4,312460
1,939167	0,1	4,324808
1,940833	0,1	4,305174
1,942500	0,1	4,321038
1,944167	0,1	4,288452
1,945833	0,1	4,313019
1,947500	0,1	4,272213
1,949167	0,1	4,300425
1,950833	0,1	4,281728
1,952500	0,1	4,276783
1,954167	0,1	4,278319
1,955833	0,1	4,272692
1,957500	0,1	4,257675
1,959167	0,1	4,291353
1,960833	0,1	4,274685
1,962500	0,1	4,276255
1,964167	0,1	4,268442
1,965833	0,1	4,269088
1,967500	0,1	4,287953
1,969167	0,1	4,273181
1,970833	0,1	4,252168
1,972500	0,1	4,291674
1,974167	0,1	4,283588
1,975833	0,1	4,274028
1,977500	0,1	4,273627
1,979167	0,1	4,274959
1,980833	0,1	4,291640
1,982500	0,1	4,299903
1,984167	0,1	4,344725
1,985833	0,1	4,309025
1,987500	0,1	4,334036
1,989167	0,1	4,338941
1,990833	0,1	4,393848
1,992500	0,1	4,371227
1,994167	0,1	4,378064
1,995833	0,1	4,432249
1,997500	0,1	4,386948
1,999167	0,1	4,423545
2,000833	0,1	4,429343
2,002500	0,1	4,475674
2,004167	0,1	4,472404
2,005833	0,1	4,486826
2,007500	0,1	4,519030
2,009167	0,1	4,510086
2,010833	0,1	4,498097
2,012500	0,1	4,532883
2,014167	0,1	4,576644
2,015833	0,1	4,608291
2,017500	0,1	4,644718
2,019167	0,1	4,637076
2,020833	0,1	4,681879
2,022500	0,1	4,649247
2,024167	0,1	4,728328
2,025833	0,1	4,752173
2,027500	0,1	4,777882
2,029167	0,1	4,797991
2,030833	0,1	4,809136
2,032500	0,1	4,840968
2,034167	0,1	4,868083
2,035833	0,1	4,886368
2,037500	0,1	4,936601
2,039167	0,1	4,928964
2,040833	0,1	4,972993
2,042500	0,1	5,003694
2,044167	0,1	5,039326
2,045833	0,1	5,049519
2,047500	0,1	5,116872
2,049167	0,1	5,123434
2,050833	0,1	5,157862
2,052500	0,1	5,223459
2,054167	0,1	5,234510
2,055833	0,1	5,258138
2,057500	0,1	5,301497
2,059167	0,1	5,305324
2,060833	0,1	5,373385
2,062500	0,1	5,356177
2,064167	0,1	5,386505
2,065833	0,1	5,473724
2,067500	0,1	5,469541
2,069167	0,1	5,539560
2,070833	0,1	5,530504
2,072500	0,1	5,566576
2,074167	0,1	5,594068
2,075833	0,1	5,636914
2,077500	0,1	5,658994
2,079167	0,1	5,695865
2,080833	0,1	5,710605
2,082500	0,1	5,718690
2,084167	0,1	5,748693
2,085833	0,1	5,774135
2,087500	0,1	5,836280
2,089167	0,1	5,819939
2,090833	0,1	5,886929
2,092500	0,1	5,842807
2,094167	0,1	5,888778
2,095833	0,1	5,919222
2,097500	0,1	5,921953
2,099167	0,1	6,013814
2,100833	0,1	5,994537
2,102500	0,1	5,996258
2,104167	0,1	6,003218
2,105833	0,1	6,025613
2,107500	0,1	6,036081
2,109167	0,1	6,060636
2,110833	0,1	6,047032
2,112500	0,1	6,095216
2,114167	0,1	6,116056
2,115833	0,1	6,120305
2,117500	0,1	6,132044
2,119167	0,1	6,170900
2,120833	0,1	6,113531
2,122500	0,1	6,124325
2,124167	0,1	6,186368
2,125833	0,1	6,175262
2,127500	0,1	6,168382
2,129167	0,1	6,238507
2,130833	0,1	6,165249
2,132500	0,1	6,196444
2,134167	0,1	6,178311
2,135833	0,1	6,216144
2,137500	0,1	6,229816
2,139167	0,1	6,200746
2,140833	0,1	6,244677
2,142500	0,1	6,233652
2,144167	0,1	6,216540
2,145833	0,1	6,191519
2,147500	0,1	6,228077
2,149167	0,1	6,255413
2,150833	0,1	6,236243
2,152500	0,1	6,192750
2,154167	0,1	6,216147
2,155833	0,1	6,225823
2,157500	0,1	6,239529
2,159167	0,1	6,219568
2,160833	0,1	6,191992
2,162500	0,1	6,211313
2,164167	0,1	6,150074
2,165833	0,1	6,171896
2,167500	0,1	6,165307
2,169167	0,1	6,167729
2,170833	0,1	6,184734
2,172500	0,1	6,188923
2,174167	0,1	6,148663
2,175833	0,1	6,128237
2,177500	0,1	6,143857
2,179167	0,1	6,126120
2,180833	0,1	6,120439
2,182500	0,1	6,132310
2,184167	0,1	6,076343
2,185833	0,1	6,075710
2,187500	0,1	6,079684
2,189167	0,1	6,038904
2,190833	0,1	6,061126
2,192500	0,1	6,039638
2,194167	0,1	6,028962
2,195833	0,1	6,049834
2,197500	0,1	6,025639
2,199167	0,1	5,993118
2,200833	0,1	5,997838
2,202500	0,1	5,975538
2,204167	0,1	5,991261
2,205833	0,1	6,020599
2,207500	0,1	5,974034
2,209167	0,1	5,976253
2,210833	0,1	5,970347
2,212500	0,1	5,957799
2,214167	0,1	5,978443
2,215833	0,1	5,949138
2,217500	0,1	5,965739
2,219167	0,1	5,977023
2,220833	0,1	5,970225
2,222500	0,1	6,031610
2,224167	0,1	6,007217
2,225833	0,1	6,014470
2,227500	0,1	6,015034
2,229167	0,1	6,001393
2,230833	0,1	6,080541
2,232500	0,1	6,071438
2,234167	0,1	6,083705
2,235833	0,1	6,067921
2,237500	0,1	6,073460
2,239167	0,1	6,123088
2,240833	0,1	6,150361
2,242500	0,1	6,147943
2,244167	0,1	6,175519
2,245833	0,1	6,158062
2,247500	0,1	6,186849
2,249167	0,1	6,224057
2,250833	0,1	6,250386
2,252500	0,1	6,250378
2,254167	0,1	6,262115
2,255833	0,1	6,289131
2,257500	0,1	6,264499
2,259167	0,1	6,306894
2,260833	0,1	6,298420
2,262500	0,1	6,321017
2,264167	0,1	6,301904
2,265833	0,1	6,340385
2,267500	0,1	6,334345
2,269167	0,1	6,340842
2,270833	0,1	6,303108
2,272500	0,1	6,349766
2,274167	0,1	6,314734
2,275833	0,1	6,346784
2,277500	0,1	6,347196
2,279167	0,1	6,343077
2,280833	0,1	6,328478
2,282500	0,1	6,344656
2,284167	0,1	6,320042
2,285833	0,1	6,293958
2,287500	0,1	6,287479
2,289167	0,1	6,349795
2,290833	0,1	6,287481
2,292500	0,1	6,241635
2,294167	0,1	6,278459
2,295833	0,1	6,218387
2,297500	0,1	6,217175
2,299167	0,1	6,221830
2,300833	0,1	6,180460
2,302500	0,1	6,186983
2,304167	0,1	6,212688
2,305833	0,1	6,166544
2,307500	0,1	6,155534
2,309167	0,1	6,142356
2,310833	0,1	6,079878
2,312500	0,1	6,077012
2,314167	0,1	6,061030
2,315833	0,1	6,053031
2,317500	0,1	6,006483
2,319167	0,1	6,012799
2,320833	0,1	5,964609
2,322500	0,1	5,925092
2,324167	0,1	5,921728
2,325833	0,1	5,881030
2,327500	0,1	5,902527
2,329167	0,1	5,847519
2,330833	0,1	5,798539
2,332500	0,1	5,808967
2,334167	0,1	5,745232
2,335833	0,1	5,739495
2,337500	0,1	5,755023
2,339167	0,1	5,661211
2,340833	0,1	5,687571
2,342500	0,1	5,610123
2,344167	0,1	5,608286
2,345833	0,1	5,618312
2,347500	0,1	5,577534
2,349167	0,1	5,531532
2,350833	0,1	5,527451
2,352500	0,1	5,481589
2,354167	0,1	5,466859
2,355833	0,1	5,420730
2,357500	0,1	5,403285
2,359167	0,1	5,356526
2,360833	0,1	5,353439
2,362500	0,1	5,329190
2,364167	0,1	5,294713
2,365833	0,1	5,281805
2,367500	0,1	5,237346
2,369167	0,1	5,244845
2,370833	0,1	5,155237
2,372500	0,1	5,175705
2,374167	0,1	5,155785
2,375833	0,1	5,140599
2,377500	0,1	5,079875
2,379167	0,1	5,091854
2,380833	0,1	5,065274
2,382500	0,1	5,052999
2,384167	0,1	5,017758
2,385833	0,1	5,018933
2,387500	0,1	4,987392
2,389167	0,1	4,978332
2,390833	0,1	4,959234
2,392500	0,1	4,971419
2,394167	0,1	4,933730
2,395833	0,1	4,934454
2,397500	0,1	4,895066
2,399167	0,1	4,857536
2,400833	0,1	4,902748
2,402500	0,1	4,891930
2,404167	0,1	4,800260
2,405833	0,1	4,816238
2,407500	0,1	4,816689
2,409167	0,1	4,816109
2,410833	0,1	4,819402
2,412500	0,1	4,776151
2,414167	0,1	4,803662
2,415833	0,1	4,775651
2,417500	0,1	4,768442
2,419167	0,1	4,769442
2,420833	0,1	4,756120
2,422500	0,1	4,742783
2,424167	0,1	4,757529
2,425833	0,1	4,700721
2,427500	0,1	4,741920
2,429167	0,1	4,743805
2,430833	0,1	4,704042
2,432500	0,1	4,671732
2,434167	0,1	4,706052
2,435833	0,1	4,671460
2,437500	0,1	4,658110
2,439167	0,1	4,633034
2,440833	0,1	4,645454
2,442500	0,1	4,638866
2,444167	0,1	4,676539
2,445833	0,1	4,644095
2,447500	0,1	4,621972
2,449167	0,1	4,654208
2,450833	0,1	4,622213
2,452500	0,1	4,623813
2,454167	0,1	4,615567
2,455833	0,1	4,645579
2,457500	0,1	4,626666
2,459167	0,1	4,586308
2,460833	0,1	4,596103
2,462500	0,1	4,631550
2,464167	0,1	4,561881
2,465833	0,1	4,567986
2,467500	0,1	4,555181
2,469167	0,1	4,544123
2,470833	0,1	4,520744
2,472500	0,1	4,511429
2,474167	0,1	4,547190
2,475833	0,1	4,499243
2,477500	0,1	4,516119
2,479167	0,1	4,497569
2,480833	0,1	4,493557
2,482500	0,1	4,478203
2,484167	0,1	4,501407
2,485833	0,1	4,430822
2,487500	0,1	4,486898
2,489167	0,1	4,445801
2,490833	0,1	4,438867
2,492500	0,1	4,408289
2,494167	0,1	4,375766
2,495833	0,1	4,398716
2,497500	0,1	4,420510
2,499167	0,1	4,387956
2,500833	0,1	4,357944
2,502500	0,1	4,380127
2,504167	0,1	4,393657
2,505833	0,1	4,372523
2,507500	0,1	4,295140
2,509167	0,1	4,354117
2,510833	0,1	4,330117
2,512500	0,1	4,313029
2,514167	0,1	4,280674
2,515833	0,1	4,293541
2,517500	0,1	4,287714
2,519167	0,1	4,287957
2,520833	0,1	4,275446
2,522500	0,1	4,265605
2,524167	0,1	4,246695
2,525833	0,1	4,310216
2,527500	0,1	4,312825
2,529167	0,1	4,259544
2,530833	0,1	4,263864
2,532500	0,1	4,254426
2,534167	0,1	4,289248
2,535833	0,1	4,237511
2,537500	0,1	4,228151
2,539167	0,1	4,269243
2,540833	0,1	4,232335
2,542500	0,1	4,263206
2,544167	0,1	4,252733
2,545833	0,1	4,259288
2,547500	0,1	4,245398
2,549167	0,1	4,237265
2,550833	0,1	4,227016
2,552500	0,1	4,259479
2,554167	0,1	4,245206
2,555833	0,1	4,249410
2,557500	0,1	4,254918
2,559167	0,1	4,227834
2,560833	0,1	4,212038
2,562500	0,1	4,238834
2,564167	0,1	4,197065
2,565833	0,1	4,265708
2,567500	0,1	4,228288
2,569167	0,1	4,181317
2,570833	0,1	4,167466
2,572500	0,1	4,199676
2,574167	0,1	4,220821
2,575833	0,1	4,210218
2,577500	0,1	4,189774
2,579167	0,1	4,171469
2,580833	0,1	4,167339
2,582500	0,1	4,159975
2,584167	0,1	4,158155
2,585833	0,1	4,123428
2,587500	0,1	4,127756
2,589167	0,1	4,084117
2,590833	0,1	4,139606
2,592500	0,1	4,104965
2,594167	0,1	4,106544
2,595833	0,1	4,083351
2,597500	0,1	4,064046
2,599167	0,1	4,052197
2,600833	0,1	4,046106
2,602500	0,1	4,061733
2,604167	0,1	4,032490
2,605833	0,1	4,013142
2,607500	0,1	3,989108
2,609167	0,1	3,986877
2,610833	0,1	3,957671
2,612500	0,1	3,971697
2,614167	0,1	3,909364
2,615833	0,1	3,899924
2,617500	0,1	3,863979
2,619167	0,1	3,883402
2,620833	0,1	3,811736
2,622500	0,1	3,835660
2,624167	0,1	3,777021
2,625833	0,1	3,766733
2,627500	0,1	3,707988
2,629167	0,1	3,763424
2,630833	0,1	3,759222
2,632500	0,1	3,665887
2,634167	0,1	3,685090
2,635833	0,1	3,681832
2,637500	0,1	3,641731
2,639167	0,1	3,579013
2,640833	0,1	3,579308
2,642500	0,1	3,570901
2,644167	0,1	3,527833
2,645833	0,1	3,555551
2,647500	0,1	3,508663
2,649167	0,1	3,467170
2,650833	0,1	3,418851
2,652500	0,1	3,462239
2,654167	0,1	3,408310
2,655833	0,1	3,406564
2,657500	0,1	3,360372
2,659167	0,1	3,328232
2,660833	0,1	3,335849
2,662500	0,1	3,296159
2,664167	0,1	3,277523
2,665833	0,1	3,285975
2,667500	0,1	3,211801
2,669167	0,1	3,192359
2,670833	0,1	3,186161
2,672500	0,1	3,157177
2,674167	0,1	3,147270
2,675833	0,1	3,125511
2,677500	0,1	3,098449
2,679167	0,1	3,085930
2,680833	0,1	3,065407
2,682500	0,1	2,999461
2,684167	0,1	3,035688
2,685833	0,1	2,954038
2,687500	0,1	2,969865
2,689167	0,1	2,932873
2,690833	0,1	2,933137
2,692500	0,1	2,925229
2,694167	0,1	2,900701
2,695833	0,1	2,846164
2,697500	0,1	2,839346
2,699167	0,1	2,824919
2,700833	0,1	2,840537
2,702500	0,1	2,808147
2,704167	0,1	2,743596
2,705833	0,1	2,794621
2,707500	0,1	2,767807
2,709167	0,1	2,723560
2,710833	0,1	2,721827
2,712500	0,1	2,678528
2,714167	0,1	2,675423
2,715833	0,1	2,653985
2,717500	0,1	2,660295
2,719167	0,1	2,622078
2,720833	0,1	2,595394
2,722500	0,1	2,581843
2,724167	0,1	2,619185
2,725833	0,1	2,562638
2,727500	0,1	2,538686
2,729167	0,1	2,566132
2,730833	0,1	2,538687
2,732500	0,1	2,488065
2,734167	0,1	2,496366
2,735833	0,1	2,459678
2,737500	0,1	2,471497
2,739167	0,1	2,468485
2,740833	0,1	2,429351
2,742500	0,1	2,412649
2,744167	0,1	2,455570
2,745833	0,1	2,460953
2,747500	0,1	2,395883
2,749167	0,1	2,394509
2,750833	0,1	2,370713
2,752500	0,1	2,424307
2,754167	0,1	2,372229
2,755833	0,1	2,340689
2,757500	0,1	2,316035
2,759167	0,1	2,340889
2,760833	0,1	2,362676
2,762500	0,1	2,334739
2,764167	0,1	2,341251
2,765833	0,1	2,294685
2,767500	0,1	2,333791
2,769167	0,1	2,312594
2,770833	0,1	2,297616
2,772500	0,1	2,299258
2,774167	0,1	2,278269
2,775833	0,1	2,260568
2,777500	0,1	2,291800
2,779167	0,1	2,281634
2,780833	0,1	2,254623
2,782500	0,1	2,226038
2,784167	0,1	2,247518
2,785833	0,1	2,248384
2,787500	0,1	2,228111
2,789167	0,1	2,223091
2,790833	0,1	2,226102
2,792500	0,1	2,214065
2,794167	0,1	2,190784
2,795833	0,1	2,213270
2,797500	0,1	2,225595
2,799167	0,1	2,202176
2,800833	0,1	2,198734
2,802500	0,1	2,167862
2,804167	0,1	2,210041
2,805833	0,1	2,163429
2,807500	0,1	2,182320
2,809167	0,1	2,143868
2,810833	0,1	2,141280
2,812500	0,1	2,184751
2,814167	0,1	2,157479
2,815833	0,1	2,132687
2,817500	0,1	2,141703
2,819167	0,1	2,142357
2,820833	0,1	2,098741
2,822500	0,1	2,135970
2,824167	0,1	2,110631
2,825833	0,1	2,117858
2,827500	0,1	2,165985
2,829167	0,1	2,120518
2,830833	0,1	2,075317
2,832500	0,1	2,095715
2,834167	0,1	2,084048
2,835833	0,1	2,060271
2,837500	0,1	2,065209
2,839167	0,1	2,089121
2,840833	0,1	2,043662
2,842500	0,1	2,061842
2,844167	0,1	2,046878
2,845833	0,1	2,030039
2,847500	0,1	2,043362
2,849167	0,1	2,020524
2,850833	0,1	2,010919
2,852500	0,1	1,991023
2,854167	0,1	1,984283
2,855833	0,1	2,058247
2,857500	0,1	1,981152
2,859167	0,1	1,979981
2,860833	0,1	1,998537
2,862500	0,1	1,974549
2,864167	0,1	1,954576
2,865833	0,1	1,973039
2,867500	0,1	1,947553
2,869167	0,1	1,947329
2,870833	0,1	1,905523
2,872500	0,1	1,970232
2,874167	0,1	1,918491
2,875833	0,1	1,913681
2,877500	0,1	1,920920
2,879167	0,1	1,923779
2,880833	0,1	1,934521
2,882500	0,1	1,897643
2,884167	0,1	1,869297
2,885833	0,1	1,916960
2,887500	0,1	1,867159
2,889167	0,1	1,880459
2,890833	0,1	1,859195
2,892500	0,1	1,844663
2,894167	0,1	1,852623
2,895833	0,1	1,866439
2,897500	0,1	1,831940
2,899167	0,1	1,850889
2,900833	0,1	1,817269
2,902500	0,1	1,797573
2,904167	0,1	1,857764
2,905833	0,1	1,842591
2,907500	0,1	1,780141
2,909167	0,1	1,810386
2,910833	0,1	1,766234
2,912500	0,1	1,784889
2,914167	0,1	1,785973
2,915833	0,1	1,784121
2,917500	0,1	1,791491
2,919167	0,1	1,774671
2,920833	0,1	1,774597
2,922500	0,1	1,755335
2,924167	0,1	1,734537
2,925833	0,1	1,777530
2,927500	0,1	1,756139
2,929167	0,1	1,735241
2,930833	0,1	1,732591
2,932500	0,1	1,705800
2,934167	0,1	1,726720
2,935833	0,1	1,691724
2,937500	0,1	1,708743
2,939167	0,1	1,711760
2,940833	0,1	1,720282
2,942500	0,1	1,699679
2,944167	0,1	1,704665
2,945833	0,1	1,665320
2,947500	0,1	1,707035
2,949167	0,1	1,688671
2,950833	0,1	1,628836
2,952500	0,1	1,682214
2,954167	0,1	1,669684
2,955833	0,1	1,656205
2,957500	0,1	1,632854
2,959167	0,1	1,653611
2,960833	0,1	1,613391
2,962500	0,1	1,616136
2,964167	0,1	1,603151
2,965833	0,1	1,605777
2,967500	0,1	1,589466
2,969167	0,1	1,626388
2,970833	0,1	1,608014
2,972500	0,1	1,605503
2,974167	0,1	1,607654
2,975833	0,1	1,594998
2,977500	0,1	1,609446
2,979167	0,1	1,577892
2,980833	0,1	1,586321
2,982500	0,1	1,610923
2,984167	0,1	1,585262
2,985833	0,1	1,553714
2,987500	0,1	1,548967
2,989167	0,1	1,543693
2,990833	0,1	1,547691
2,992500	0,1	1,614584
2,994167	0,1	1,577538
2,995833	0,1	1,563654
2,997500	0,1	1,588413
2,999167	0,1	1,558563
3,000833	0,1	1,555434
3,002500	0,1	1,550063
3,004167	0,1	1,581370
3,005833	0,1	1,530526
3,007500	0,1	1,544771
3,009167	0,1	1,551183
3,010833	0,1	1,537273
3,012500	0,1	1,547251
3,014167	0,1	1,536106
3,015833	0,1	1,584395
3,017500	0,1	1,582037
3,019167	0,1	1,596005
3,020833	0,1	1,502294
3,022500	0,1	1,536163
3,024167	0,1	1,531545
3,025833	0,1	1,550483
3,027500	0,1	1,533177
3,029167	0,1	1,565288
3,030833	0,1	1,576183
3,032500	0,1	1,570022
3,034167	0,1	1,547849
3,035833	0,1	1,515155
3,037500	0,1	1,554286
3,039167	0,1	1,539599
3,040833	0,1	1,513713
3,042500	0,1	1,560859
3,044167	0,1	1,533180
3,045833	0,1	1,525736
3,047500	0,1	1,533376
3,049167	0,1	1,509563
3,050833	0,1	1,516774
3,052500	0,1	1,487881
3,054167	0,1	1,504267
3,055833	0,1	1,505845
3,057500	0,1	1,512502
3,059167	0,1	1,546834
3,060833	0,1	1,501639
3,062500	0,1	1,530194
3,064167	0,1	1,514272
3,065833	0,1	1,513420
3,067500	0,1	1,547273
3,069167	0,1	1,545132
3,070833	0,1	1,511920
3,072500	0,1	1,499631
3,074167	0,1	1,512719
3,075833	0,1	1,516447
3,077500	0,1	1,521242
3,079167	0,1	1,495278
3,080833	0,1	1,505351
3,082500	0,1	1,489278
3,084167	0,1	1,491327
3,085833	0,1	1,523372
3,087500	0,1	1,523256
3,089167	0,1	1,517366
3,090833	0,1	1,504206
3,092500	0,1	1,528144
3,094167	0,1	1,553427
3,095833	0,1	1,524947
3,097500	0,1	1,482278
3,099167	0,1	1,531584
3,100833	0,1	1,556796
3,102500	0,1	1,571156
3,104167	0,1	1,541111
3,105833	0,1	1,572287
3,107500	0,1	1,591660
3,109167	0,1	1,557003
3,110833	0,1	1,613886
3,112500	0,1	1,624037
3,114167	0,1	1,559517
3,115833	0,1	1,608862
3,117500	0,1	1,623955
3,119167	0,1	1,621753
3,120833	0,1	1,625546
3,122500	0,1	1,644792
3,124167	0,1	1,619732
3,125833	0,1	1,686259
3,127500	0,1	1,686287
3,129167	0,1	1,651495
3,130833	0,1	1,741457
3,132500	0,1	1,710112
3,134167	0,1	1,725559
3,135833	0,1	1,774031
3,137500	0,1	1,742398
3,139167	0,1	1,765068
3,140833	0,1	1,778606
3,142500	0,1	1,819550
3,144167	0,1	1,812248
3,145833	0,1	1,810046
3,147500	0,1	1,844815
3,149167	0,1	1,831228
3,150833	0,1	1,883763
3,152500	0,1	1,853634
3,154167	0,1	1,935087
3,155833	0,1	1,930667
3,157500	0,1	1,918992
3,159167	0,1	1,918989
3,160833	0,1	1,947974
3,162500	0,1	1,978056
3,164167	0,1	1,939039
3,165833	0,1	1,972256
3,167500	0,1	1,990088
3,169167	0,1	1,966527
3,170833	0,1	2,019005
3,172500	0,1	2,058899
3,174167	0,1	1,993172
3,175833	0,1	2,029321
3,177500	0,1	2,037778
3,179167	0,1	2,051312
3,180833	0,1	2,038866
3,182500	0,1	2,056538
3,184167	0,1	2,082753
3,185833	0,1	2,054189
3,187500	0,1	2,056966
3,189167	0,1	2,066139
3,190833	0,1	2,124941
3,192500	0,1	2,054693
3,194167	0,1	2,047588
3,195833	0,1	2,087969
3,197500	0,1	2,106320
3,199167	0,1	2,069655
3,200833	0,1	2,070944
3,202500	0,1	2,080184
3,204167	0,1	2,074302
3,205833	0,1	2,034492
3,207500	0,1	2,047727
3,209167	0,1	2,067063
3,210833	0,1	2,091634
3,212500	0,1	2,062280
3,214167	0,1	2,065425
3,215833	0,1	2,037360
3,217500	0,1	2,043800
3,219167	0,1	2,061056
3,220833	0,1	2,036073
3,222500	0,1	2,058477
3,224167	0,1	2,038002
3,225833	0,1	2,001695
3,227500	0,1	1,975054
3,229167	0,1	1,999613
3,230833	0,1	2,001189
3,232500	0,1	1,967896
3,234167	0,1	2,003189
3,235833	0,1	1,936249
3,237500	0,1	1,966667
3,239167	0,1	1,905172
3,240833	0,1	1,893707
3,242500	0,1	1,911681
3,244167	0,1	1,941899
3,245833	0,1	1,916348
3,247500	0,1	1,907247
3,249167	0,1	1,882912
3,250833	0,1	1,926719
3,252500	0,1	1,835679
3,254167	0,1	1,839661
3,255833	0,1	1,815118
3,257500	0,1	1,824355
3,259167	0,1	1,791057
3,260833	0,1	1,801493
3,262500	0,1	1,828067
3,264167	0,1	1,766594
3,265833	0,1	1,739809
3,267500	0,1	1,789490
3,269167	0,1	1,697465
3,270833	0,1	1,753486
3,272500	0,1	1,699260
3,274167	0,1	1,736398
3,275833	0,1	1,686276
3,277500	0,1	1,675858
3,279167	0,1	1,692067
3,280833	0,1	1,658534
3,282500	0,1	1,665677
3,284167	0,1	1,622023
3,285833	0,1	1,601701
3,287500	0,1	1,584258
3,289167	0,1	1,557150
3,290833	0,1	1,546422
3,292500	0,1	1,549980
3,294167	0,1	1,526331
3,295833	0,1	1,547140
3,297500	0,1	1,512542
3,299167	0,1	1,486048
3,300833	0,1	1,496489
3,302500	0,1	1,478744
3,304167	0,1	1,466089
3,305833	0,1	1,440768
3,307500	0,1	1,470449
3,309167	0,1	1,432335
3,310833	0,1	1,434782
3,312500	0,1	1,401526
3,314167	0,1	1,406512
3,315833	0,1	1,409967
3,317500	0,1	1,351470
3,319167	0,1	1,366202
3,320833	0,1	1,346666
3,322500	0,1	1,372857
3,324167	0,1	1,345873
3,325833	0,1	1,320419
3,327500	0,1	1,353462
3,329167	0,1	1,346750
3,330833	0,1	1,290318
3,332500	0,1	1,315653
3,334167	0,1	1,275890
3,335833	0,1	1,264082
3,337500	0,1	1,262878
3,339167	0,1	1,287053
3,340833	0,1	1,256405
3,342500	0,1	1,203173
3,344167	0,1	1,218839
3,345833	0,1	1,215560
3,347500	0,1	1,238183
3,349167	0,1	1,221130
3,350833	0,1	1,189745
3,352500	0,1	1,177031
3,354167	0,1	1,200534
3,355833	0,1	1,182045
3,357500	0,1	1,197896
3,359167	0,1	1,171399
3,360833	0,1	1,166514
3,362500	0,1	1,188446
3,364167	0,1	1,134654
3,365833	0,1	1,154953
3,367500	0,1	1,124490
3,369167	0,1	1,141157
3,370833	0,1	1,146172
3,372500	0,1	1,121717
3,374167	0,1	1,143618
3,375833	0,1	1,127790
3,377500	0,1	1,110337
3,379167	0,1	1,104945
3,380833	0,1	1,090864
3,382500	0,1	1,093453
3,384167	0,1	1,108424
3,385833	0,1	1,079979
3,387500	0,1	1,111479
3,389167	0,1	1,061508
3,390833	0,1	1,123003
3,392500	0,1	1,069430
3,394167	0,1	1,048885
3,395833	0,1	1,065555
3,397500	0,1	1,065978
3,399167	0,1	1,026095
3,400833	0,1	1,082686
3,402500	0,1	1,066471
3,404167	0,1	1,016271
3,405833	0,1	1,061021
3,407500	0,1	1,043963
3,409167	0,1	0,994167
3,410833	0,1	1,026324
3,412500	0,1	1,029546
3,414167	0,1	1,019921
3,415833	0,1	1,008726
3,417500	0,1	0,980198
3,419167	0,1	1,009316
3,420833	0,1	1,008904
3,422500	0,1	0,988191
3,424167	0,1	0,957265
3,425833	0,1	0,969826
3,427500	0,1	0,967976
3,429167	0,1	0,965930
3,430833	0,1	0,978813
3,432500	0,1	0,981097
3,434167	0,1	0,957197
3,435833	0,1	0,959592
3,437500	0,1	0,951434
3,439167	0,1	0,941541
3,440833	0,1	0,962554
3,442500	0,1	0,945163
3,444167	0,1	0,951323
3,445833	0,1	0,924592
3,447500	0,1	0,885065
3,449167	0,1	0,940710
3,450833	0,1	0,966815
3,452500	0,1	0,916371
3,454167	0,1	0,902509
3,455833	0,1	0,912855
3,457500	0,1	0,912280
3,459167	0,1	0,943208
3,460833	0,1	0,918425
3,462500	0,1	0,917317
3,464167	0,1	0,931301
3,465833	0,1	0,925585
3,467500	0,1	0,910985
3,469167	0,1	0,865102
3,470833	0,1	0,926081
3,472500	0,1	0,884516
3,474167	0,1	0,909887
3,475833	0,1	0,881913
3,477500	0,1	0,901347
3,479167	0,1	0,882190
3,480833	0,1	0,891510
3,482500	0,1	0,873619
3,484167	0,1	0,885212
3,485833	0,1	0,862460
3,487500	0,1	0,855422
3,489167	0,1	0,892527
3,490833	0,1	0,830879
3,492500	0,1	0,900455
3,494167	0,1	0,859026
3,495833	0,1	0,851343
3,497500	0,1	0,797910
3,499167	0,1	0,896329
3,500833	0,1	0,858607
3,502500	0,1	0,840771
3,504167	0,1	0,850471
3,505833	0,1	0,866493
3,507500	0,1	0,833769
3,509167	0,1	0,822866
3,510833	0,1	0,866943
3,512500	0,1	0,858534
3,514167	0,1	0,825955
3,515833	0,1	0,874591
3,517500	0,1	0,785932
3,519167	0,1	0,847525
3,520833	0,1	0,832508
3,522500	0,1	0,809429
3,524167	0,1	0,830628
3,525833	0,1	0,830287
3,527500	0,1	0,859429
3,529167	0,1	0,815739
3,530833	0,1	0,834298
3,532500	0,1	0,823284
3,534167	0,1	0,855347
3,535833	0,1	0,818661
3,537500	0,1	0,819771
3,539167	0,1	0,844738
3,540833	0,1	0,821136
3,542500	0,1	0,843910
3,544167	0,1	0,792025
3,545833	0,1	0,822371
3,547500	0,1	0,847691
3,549167	0,1	0,823287
3,550833	0,1	0,846089
3,552500	0,1	0,835105
3,554167	0,1	0,819233
3,555833	0,1	0,805448
3,557500	0,1	0,837917
3,559167	0,1	0,839379
3,560833	0,1	0,818686
3,562500	0,1	0,829446
3,564167	0,1	0,804201
3,565833	0,1	0,835329
3,567500	0,1	0,818786
3,569167	0,1	0,766223
3,570833	0,1	0,840265
3,572500	0,1	0,802688
3,574167	0,1	0,802331
3,575833	0,1	0,791243
3,577500	0,1	0,822305
3,579167	0,1	0,805449
3,580833	0,1	0,786333
3,582500	0,1	0,818766
3,584167	0,1	0,803325
3,585833	0,1	0,793431
3,587500	0,1	0,800524
3,589167	0,1	0,789762
3,590833	0,1	0,824076
3,592500	0,1	0,773739
3,594167	0,1	0,800966
3,595833	0,1	0,828251
3,597500	0,1	0,786201
3,599167	0,1	0,805020
3,600833	0,1	0,812540
3,602500	0,1	0,810093
3,604167	0,1	0,771419
3,605833	0,1	0,790303
3,607500	0,1	0,787702
3,609167	0,1	0,763870
3,610833	0,1	0,785226
3,612500	0,1	0,785036
3,614167	0,1	0,793259
3,615833	0,1	0,759952
3,617500	0,1	0,767200
3,619167	0,1	0,787024
3,620833	0,1	0,778611
3,622500	0,1	0,802700
3,624167	0,1	0,783820
3,625833	0,1	0,750118
3,627500	0,1	0,759364
3,629167	0,1	0,788755
3,630833	0,1	0,785997
3,632500	0,1	0,758471
3,634167	0,1	0,772497
3,635833	0,1	0,747385
3,637500	0,1	0,772689
3,639167	0,1	0,749182
3,640833	0,1	0,771145
3,642500	0,1	0,779632
3,644167	0,1	0,740643
3,645833	0,1	0,732178
3,647500	0,1	0,768707
3,649167	0,1	0,740542
3,650833	0,1	0,769252
3,652500	0,1	0,769164
3,654167	0,1	0,769837
3,655833	0,1	0,743430
3,657500	0,1	0,758973
3,659167	0,1	0,734143
3,660833	0,1	0,738570
3,662500	0,1	0,747052
3,664167	0,1	0,717502
3,665833	0,1	0,755171
3,667500	0,1	0,758392
3,669167	0,1	0,691938
3,670833	0,1	0,723913
3,672500	0,1	0,724340
3,674167	0,1	0,716053
3,675833	0,1	0,737988
3,677500	0,1	0,745221
3,679167	0,1	0,783577
3,680833	0,1	0,713114
3,682500	0,1	0,727902
3,684167	0,1	0,770244
3,685833	0,1	0,717124
3,687500	0,1	0,746016
3,689167	0,1	0,755277
3,690833	0,1	0,643858
3,692500	0,1	0,732378
3,694167	0,1	0,750782
3,695833	0,1	0,709761
3,697500	0,1	0,727707
3,699167	0,1	0,716083
3,700833	0,1	0,736928
3,702500	0,1	0,706420
3,704167	0,1	0,728510
3,705833	0,1	0,702244
3,707500	0,1	0,696772
3,709167	0,1	0,719388
3,710833	0,1	0,708214
3,712500	0,1	0,716398
3,714167	0,1	0,710622
3,715833	0,1	0,742484
3,717500	0,1	0,704106
3,719167	0,1	0,712223
3,720833	0,1	0,708281
3,722500	0,1	0,665077
3,724167	0,1	0,721886
3,725833	0,1	0,716146
3,727500	0,1	0,723437
3,729167	0,1	0,724239
3,730833	0,1	0,723727
3,732500	0,1	0,764556
3,734167	0,1	0,730549
3,735833	0,1	0,726173
3,737500	0,1	0,715666
3,739167	0,1	0,714120
3,740833	0,1	0,721030
3,742500	0,1	0,732336
3,744167	0,1	0,711652
3,745833	0,1	0,744670
3,747500	0,1	0,714932
3,749167	0,1	0,733685
3,750833	0,1	0,728614
3,752500	0,1	0,737638
3,754167	0,1	0,744158
3,755833	0,1	0,758937
3,757500	0,1	0,709250
3,759167	0,1	0,736642
3,760833	0,1	0,703018
3,762500	0,1	0,738210
3,764167	0,1	0,703047
3,765833	0,1	0,769654
3,767500	0,1	0,693451
3,769167	0,1	0,759285
3,770833	0,1	0,755187
3,772500	0,1	0,726275
3,774167	0,1	0,735874
3,775833	0,1	0,771654
3,777500	0,1	0,749695
3,779167	0,1	0,770858
3,780833	0,1	0,744809
3,782500	0,1	0,756561
3,784167	0,1	0,789817
3,785833	0,1	0,762101
3,787500	0,1	0,769675
3,789167	0,1	0,787380
3,790833	0,1	0,744595
3,792500	0,1	0,779113
3,794167	0,1	0,742985
3,795833	0,1	0,758423
3,797500	0,1	0,801865
3,799167	0,1	0,741964
3,800833	0,1	0,781040
3,802500	0,1	0,761617
3,804167	0,1	0,754286
3,805833	0,1	0,736652
3,807500	0,1	0,778954
3,809167	0,1	0,751430
3,810833	0,1	0,749662
3,812500	0,1	0,768192
3,814167	0,1	0,756409
3,815833	0,1	0,773883
3,817500	0,1	0,761291
3,819167	0,1	0,740892
3,820833	0,1	0,803659
3,822500	0,1	0,729175
3,824167	0,1	0,728714
3,825833	0,1	0,730766
3,827500	0,1	0,796878
3,829167	0,1	0,756256
3,830833	0,1	0,760644
3,832500	0,1	0,721396
3,834167	0,1	0,758455
3,835833	0,1	0,766332
3,837500	0,1	0,717636
3,839167	0,1	0,744125
3,840833	0,1	0,745157
3,842500	0,1	0,708931
3,844167	0,1	0,745825
3,845833	0,1	0,728265
3,847500	0,1	0,747918
3,849167	0,1	0,734205
3,850833	0,1	0,753600
3,852500	0,1	0,717669
3,854167	0,1	0,700892
3,855833	0,1	0,722182
3,857500	0,1	0,704809
3,859167	0,1	0,723144
3,860833	0,1	0,731407
3,862500	0,1	0,757237
3,864167	0,1	0,728296
3,865833	0,1	0,718624
3,867500	0,1	0,710942
3,869167	0,1	0,706672
3,870833	0,1	0,732753
3,872500	0,1	0,706129
3,874167	0,1	0,692826
3,875833	0,1	0,712479
3,877500	0,1	0,682581
3,879167	0,1	0,674801
3,880833	0,1	0,677205
3,882500	0,1	0,707655
3,884167	0,1	0,700212
3,885833	0,1	0,678659
3,887500	0,1	0,702391
3,889167	0,1	0,677921
3,890833	0,1	0,649136
3,892500	0,1	0,670520
3,894167	0,1	0,662080
3,895833	0,1	0,675855
3,897500	0,1	0,675280
3,899167	0,1	0,671716
3,900833	0,1	0,672581
3,902500	0,1	0,681316
3,904167	0,1	0,687777
3,905833	0,1	0,657393
3,907500	0,1	0,643608
3,909167	0,1	0,668301
3,910833	0,1	0,657230
3,912500	0,1	0,641681
3,914167	0,1	0,613673
3,915833	0,1	0,653553
3,917500	0,1	0,658316
3,919167	0,1	0,648104
3,920833	0,1	0,599579
3,922500	0,1	0,646968
3,924167	0,1	0,595113
3,925833	0,1	0,633380
3,927500	0,1	0,614056
3,929167	0,1	0,600533
3,930833	0,1	0,583605
3,932500	0,1	0,617097
3,934167	0,1	0,621729
3,935833	0,1	0,620284
3,937500	0,1	0,615243
3,939167	0,1	0,597322
3,940833	0,1	0,618672
3,942500	0,1	0,622724
3,944167	0,1	0,630337
3,945833	0,1	0,605740
3,947500	0,1	0,566685
3,949167	0,1	0,612854
3,950833	0,1	0,590965
3,952500	0,1	0,602164
3,954167	0,1	0,590384
3,955833	0,1	0,593494
3,957500	0,1	0,610869
3,959167	0,1	0,584059
3,960833	0,1	0,633120
3,962500	0,1	0,566179
3,964167	0,1	0,583181
3,965833	0,1	0,593236
3,967500	0,1	0,561418
3,969167	0,1	0,559386
3,970833	0,1	0,602512
3,972500	0,1	0,598732
3,974167	0,1	0,584409
3,975833	0,1	0,566906
3,977500	0,1	0,549658
3,979167	0,1	0,610281
3,980833	0,1	0,578054
3,982500	0,1	0,602709
3,984167	0,1	0,581455
3,985833	0,1	0,549630
3,987500	0,1	0,590242
3,989167	0,1	0,577665
3,990833	0,1	0,597507
3,992500	0,1	0,626444
3,994167	0,1	0,582489
3,995833	0,1	0,629716
3,997500	0,1	0,605419
3,999167	0,1	0,595457
4,000833	0,1	0,601750
4,002500	0,1	0,624069
4,004167	0,1	0,573113
4,005833	0,1	0,601166
4,007500	0,1	0,615881
4,009167	0,1	0,598446
4,010833	0,1	0,595615
4,012500	0,1	0,643112
4,014167	0,1	0,625525
4,015833	0,1	0,567492
4,017500	0,1	0,620335
4,019167	0,1	0,626932
4,020833	0,1	0,609657
4,022500	0,1	0,619993
4,024167	0,1	0,640387
4,025833	0,1	0,619132
4,027500	0,1	0,631813
4,029167	0,1	0,620864
4,030833	0,1	0,649443
4,032500	0,1	0,613033
4,034167	0,1	0,655737
4,035833	0,1	0,659634
4,037500	0,1	0,626685
4,039167	0,1	0,673981
4,040833	0,1	0,705278
4,042500	0,1	0,702462
4,044167	0,1	0,654957
4,045833	0,1	0,688894
4,047500	0,1	0,674192
4,049167	0,1	0,663395
4,050833	0,1	0,697696
4,052500	0,1	0,688966
4,054167	0,1	0,720381
4,055833	0,1	0,719293
4,057500	0,1	0,717879
4,059167	0,1	0,724368
4,060833	0,1	0,721193
4,062500	0,1	0,748175
4,064167	0,1	0,723195
4,065833	0,1	0,757004
4,067500	0,1	0,775934
4,069167	0,1	0,782754
4,070833	0,1	0,787663
4,072500	0,1	0,768331
4,074167	0,1	0,745197
4,075833	0,1	0,812843
4,077500	0,1	0,835870
4,079167	0,1	0,848467
4,080833	0,1	0,852038
4,082500	0,1	0,863541
4,084167	0,1	0,856094
4,085833	0,1	0,886612
4,087500	0,1	0,876795
4,089167	0,1	0,865642
4,090833	0,1	0,929675
4,092500	0,1	0,894473
4,094167	0,1	0,952334
4,095833	0,1	0,947863
4,097500	0,1	0,947219
4,099167	0,1	0,972825
4,100833	0,1	0,985464
4,102500	0,1	0,969660
4,104167	0,1	1,016698
4,105833	0,1	1,016620
4,107500	0,1	1,033063
4,109167	0,1	1,040830
4,110833	0,1	1,056816
4,112500	0,1	1,122359
4,114167	0,1	1,101379
4,115833	0,1	1,073636
4,117500	0,1	1,098639
4,119167	0,1	1,143103
4,120833	0,1	1,141028
4,122500	0,1	1,177262
4,124167	0,1	1,181973
4,125833	0,1	1,220696
4,127500	0,1	1,248805
4,129167	0,1	1,207493
4,130833	0,1	1,278101
4,132500	0,1	1,257199
4,134167	0,1	1,227567
4,135833	0,1	1,248812
4,137500	0,1	1,286964
4,139167	0,1	1,302143
4,140833	0,1	1,316922
4,142500	0,1	1,366753
4,144167	0,1	1,337036
4,145833	0,1	1,427749
4,147500	0,1	1,338079
4,149167	0,1	1,382843
4,150833	0,1	1,406135
4,152500	0,1	1,430998
4,154167	0,1	1,407433
4,155833	0,1	1,445919
4,157500	0,1	1,407606
4,159167	0,1	1,445426
4,160833	0,1	1,432159
4,162500	0,1	1,479488
4,164167	0,1	1,486221
4,165833	0,1	1,530396
4,167500	0,1	1,493063
4,169167	0,1	1,548133
4,170833	0,1	1,521893
4,172500	0,1	1,537100
4,174167	0,1	1,529078
4,175833	0,1	1,533897
4,177500	0,1	1,544486
4,179167	0,1	1,562648
4,180833	0,1	1,528112
4,182500	0,1	1,567053
4,184167	0,1	1,558517
4,185833	0,1	1,570826
4,187500	0,1	1,603014
4,189167	0,1	1,577986
4,190833	0,1	1,579830
4,192500	0,1	1,618097
4,194167	0,1	1,613177
4,195833	0,1	1,583906
4,197500	0,1	1,638206
4,199167	0,1	1,648025
4,200833	0,1	1,626703
4,202500	0,1	1,618741
4,204167	0,1	1,624421
4,205833	0,1	1,620451
4,207500	0,1	1,590825
4,209167	0,1	1,597762
4,210833	0,1	1,616253
4,212500	0,1	1,678072
4,214167	0,1	1,602370
4,215833	0,1	1,658524
4,217500	0,1	1,602434
4,219167	0,1	1,648498
4,220833	0,1	1,648509
4,222500	0,1	1,637166
4,224167	0,1	1,627275
4,225833	0,1	1,618684
4,227500	0,1	1,665416
4,229167	0,1	1,643088
4,230833	0,1	1,635425
4,232500	0,1	1,611687
4,234167	0,1	1,607298
4,235833	0,1	1,592491
4,237500	0,1	1,542335
4,239167	0,1	1,595983
4,240833	0,1	1,595707
4,242500	0,1	1,585121
4,244167	0,1	1,594131
4,245833	0,1	1,572971
4,247500	0,1	1,594784
4,249167	0,1	1,551609
4,250833	0,1	1,569388
4,252500	0,1	1,546233
4,254167	0,1	1,534408
4,255833	0,1	1,539116
4,257500	0,1	1,528191
4,259167	0,1	1,495266
4,260833	0,1	1,469833
4,262500	0,1	1,534474
4,264167	0,1	1,478852
4,265833	0,1	1,476622
4,267500	0,1	1,465156
4,269167	0,1	1,469032
4,270833	0,1	1,461750
4,272500	0,1	1,436991
4,274167	0,1	1,424183
4,275833	0,1	1,431191
4,277500	0,1	1,429058
4,279167	0,1	1,417220
4,280833	0,1	1,437639
4,282500	0,1	1,412601
4,284167	0,1	1,403873
4,285833	0,1	1,401602
4,287500	0,1	1,390715
4,289167	0,1	1,310780
4,290833	0,1	1,331078
4,292500	0,1	1,365554
4,294167	0,1	1,362719
4,295833	0,1	1,341097
4,297500	0,1	1,316847
4,299167	0,1	1,317926
4,300833	0,1	1,311982
4,302500	0,1	1,300439
4,304167	0,1	1,259759
4,305833	0,1	1,286871
4,307500	0,1	1,264325
4,309167	0,1	1,281705
4,310833	0,1	1,281183
4,312500	0,1	1,236443
4,314167	0,1	1,222773
4,315833	0,1	1,218576
4,317500	0,1	1,205845
4,319167	0,1	1,214290
4,320833	0,1	1,186837
4,322500	0,1	1,197563
4,324167	0,1	1,170402
4,325833	0,1	1,145802
4,327500	0,1	1,152183
4,329167	0,1	1,165290
4,330833	0,1	1,179375
4,332500	0,1	1,133919
4,334167	0,1	1,155729
4,335833	0,1	1,187998
4,337500	0,1	1,104009
4,339167	0,1	1,115276
4,340833	0,1	1,072199
4,342500	0,1	1,109880
4,344167	0,1	1,089712
4,345833	0,1	1,068004
4,347500	0,1	1,050706
4,349167	0,1	1,050059
4,350833	0,1	1,084333
4,352500	0,1	1,060395
4,354167	0,1	1,059860
4,355833	0,1	1,077285
4,357500	0,1	1,047872
4,359167	0,1	0,991976
4,360833	0,1	0,998786
4,362500	0,1	1,013129
4,364167	0,1	0,994433
4,365833	0,1	0,938034
4,367500	0,1	1,002482
4,369167	0,1	0,984162
4,370833	0,1	0,996526
4,372500	0,1	0,939742
4,374167	0,1	0,941746
4,375833	0,1	0,944581
4,377500	0,1	0,940109
4,379167	0,1	0,897476
4,380833	0,1	0,936148
4,382500	0,1	0,913244
4,384167	0,1	0,897012
4,385833	0,1	0,919109
4,387500	0,1	0,893930
4,389167	0,1	0,898779
4,390833	0,1	0,904459
4,392500	0,1	0,881679
4,394167	0,1	0,851822
4,395833	0,1	0,870190
4,397500	0,1	0,905029
4,399167	0,1	0,862911
4,400833	0,1	0,824540
4,402500	0,1	0,819968
4,404167	0,1	0,821643
4,405833	0,1	0,845028
4,407500	0,1	0,854347
4,409167	0,1	0,814106
4,410833	0,1	0,832015
4,412500	0,1	0,842852
4,414167	0,1	0,812297
4,415833	0,1	0,819322
4,417500	0,1	0,800177
4,419167	0,1	0,768501
4,420833	0,1	0,793320
4,422500	0,1	0,814625
4,424167	0,1	0,798509
4,425833	0,1	0,801420
4,427500	0,1	0,746332
4,429167	0,1	0,787402
4,430833	0,1	0,759979
4,432500	0,1	0,753677
4,434167	0,1	0,746986
4,435833	0,1	0,723797
4,437500	0,1	0,722830
4,439167	0,1	0,756587
4,440833	0,1	0,727625
4,442500	0,1	0,760665
4,444167	0,1	0,668170
4,445833	0,1	0,689989
4,447500	0,1	0,769428
4,449167	0,1	0,693674
4,450833	0,1	0,714179
4,452500	0,1	0,698993
4,454167	0,1	0,681293
4,455833	0,1	0,693591
4,457500	0,1	0,675575
4,459167	0,1	0,668663
4,460833	0,1	0,661115
4,462500	0,1	0,659444
4,464167	0,1	0,699590
4,465833	0,1	0,668927
4,467500	0,1	0,660217
4,469167	0,1	0,676658
4,470833	0,1	0,616091
4,472500	0,1	0,671476
4,474167	0,1	0,682859
4,475833	0,1	0,646924
4,477500	0,1	0,640684
4,479167	0,1	0,607892
4,480833	0,1	0,647676
4,482500	0,1	0,654237
4,484167	0,1	0,638019
4,485833	0,1	0,591033
4,487500	0,1	0,598408
4,489167	0,1	0,603451
4,490833	0,1	0,599662
4,492500	0,1	0,591184
4,494167	0,1	0,598055
4,495833	0,1	0,574197
4,497500	0,1	0,585013
4,499167	0,1	0,547161
4,500833	0,1	0,585585
4,502500	0,1	0,578850
4,504167	0,1	0,570148
4,505833	0,1	0,543879
4,507500	0,1	0,579034
4,509167	0,1	0,579619
4,510833	0,1	0,527214
4,512500	0,1	0,549231
4,514167	0,1	0,548082
4,515833	0,1	0,511380
4,517500	0,1	0,544540
4,519167	0,1	0,540279
4,520833	0,1	0,547211
4,522500	0,1	0,552510
4,524167	0,1	0,513595
4,525833	0,1	0,483603
4,527500	0,1	0,531015
4,529167	0,1	0,516227
4,530833	0,1	0,495798
4,532500	0,1	0,533616
4,534167	0,1	0,533468
4,535833	0,1	0,508234
4,537500	0,1	0,503091
4,539167	0,1	0,507421
4,540833	0,1	0,497758
4,542500	0,1	0,455188
4,544167	0,1	0,498744
4,545833	0,1	0,466581
4,547500	0,1	0,487029
4,549167	0,1	0,487322
4,550833	0,1	0,463756
4,552500	0,1	0,482625
4,554167	0,1	0,475024
4,555833	0,1	0,436619
4,557500	0,1	0,479350
4,559167	0,1	0,455408
4,560833	0,1	0,427309
4,562500	0,1	0,441046
4,564167	0,1	0,449198
4,565833	0,1	0,431448
4,567500	0,1	0,437998
4,569167	0,1	0,420568
4,570833	0,1	0,450421
4,572500	0,1	0,399322
4,574167	0,1	0,438434
4,575833	0,1	0,411643
4,577500	0,1	0,453656
4,579167	0,1	0,442788
4,580833	0,1	0,468818
4,582500	0,1	0,399226
4,584167	0,1	0,441652
4,585833	0,1	0,395431
4,587500	0,1	0,433009
4,589167	0,1	0,430522
4,590833	0,1	0,382817
4,592500	0,1	0,397542
4,594167	0,1	0,406308
4,595833	0,1	0,408009
4,597500	0,1	0,393696
4,599167	0,1	0,394625
4,600833	0,1	0,387789
4,602500	0,1	0,370294
4,604167	0,1	0,394898
4,605833	0,1	0,353280
4,607500	0,1	0,398945
4,609167	0,1	0,382756
4,610833	0,1	0,395391
4,612500	0,1	0,365929
4,614167	0,1	0,342196
4,615833	0,1	0,366456
4,617500	0,1	0,372566
4,619167	0,1	0,364927
4,620833	0,1	0,372123
4,622500	0,1	0,338952
4,624167	0,1	0,376565
4,625833	0,1	0,369197
4,627500	0,1	0,323231
4,629167	0,1	0,297093
4,630833	0,1	0,315611
4,632500	0,1	0,338848
4,634167	0,1	0,365561
4,635833	0,1	0,331902
4,637500	0,1	0,349575
4,639167	0,1	0,337900
4,640833	0,1	0,309871
4,642500	0,1	0,315287
4,644167	0,1	0,324376
4,645833	0,1	0,356961
4,647500	0,1	0,294320
4,649167	0,1	0,330274
4,650833	0,1	0,301108
4,652500	0,1	0,352552
4,654167	0,1	0,321917
4,655833	0,1	0,335389
4,657500	0,1	0,314627
4,659167	0,1	0,305018
4,660833	0,1	0,338984
4,662500	0,1	0,323386
4,664167	0,1	0,311955
4,665833	0,1	0,290170
4,667500	0,1	0,284389
4,669167	0,1	0,320806
4,670833	0,1	0,289468
4,672500	0,1	0,312274
4,674167	0,1	0,284885
4,675833	0,1	0,304862
4,677500	0,1	0,260068
4,679167	0,1	0,269041
4,680833	0,1	0,270452
4,682500	0,1	0,291857
4,684167	0,1	0,305896
4,685833	0,1	0,308037
4,687500	0,1	0,268537
4,689167	0,1	0,292561
4,690833	0,1	0,278385
4,692500	0,1	0,293785
4,694167	0,1	0,252965
4,695833	0,1	0,276929
4,697500	0,1	0,295812
4,699167	0,1	0,286415
4,700833	0,1	0,273954
4,702500	0,1	0,270037
4,704167	0,1	0,290964
4,705833	0,1	0,260415
4,707500	0,1	0,270841
4,709167	0,1	0,268152
4,710833	0,1	0,257514
4,712500	0,1	0,318685
4,714167	0,1	0,278103
4,715833	0,1	0,251405
4,717500	0,1	0,265517
4,719167	0,1	0,251550
4,720833	0,1	0,320006
4,722500	0,1	0,273563
4,724167	0,1	0,261093
4,725833	0,1	0,260924
4,727500	0,1	0,252685
4,729167	0,1	0,265164
4,730833	0,1	0,272642
4,732500	0,1	0,214207
4,734167	0,1	0,238140
4,735833	0,1	0,245392
4,737500	0,1	0,248956
4,739167	0,1	0,203646
4,740833	0,1	0,225407
4,742500	0,1	0,235497
4,744167	0,1	0,243303
4,745833	0,1	0,244980
4,747500	0,1	0,250756
4,749167	0,1	0,239519
4,750833	0,1	0,250589
4,752500	0,1	0,236060
4,754167	0,1	0,234711
4,755833	0,1	0,227072
4,757500	0,1	0,200762
4,759167	0,1	0,224435
4,760833	0,1	0,202128
4,762500	0,1	0,239570
4,764167	0,1	0,218340
4,765833	0,1	0,252900
4,767500	0,1	0,231756
4,769167	0,1	0,221835
4,770833	0,1	0,233962
4,772500	0,1	0,242949
4,774167	0,1	0,228567
4,775833	0,1	0,181451
4,777500	0,1	0,184255
4,779167	0,1	0,205163
4,780833	0,1	0,201170
4,782500	0,1	0,178672
4,784167	0,1	0,254174
4,785833	0,1	0,210102
4,787500	0,1	0,189808
4,789167	0,1	0,184382
4,790833	0,1	0,203090
4,792500	0,1	0,202078
4,794167	0,1	0,173415
4,795833	0,1	0,214349
4,797500	0,1	0,194363
4,799167	0,1	0,131502
4,800833	0,1	0,203181
4,802500	0,1	0,214294
4,804167	0,1	0,176522
4,805833	0,1	0,214412
4,807500	0,1	0,148745
4,809167	0,1	0,202128
4,810833	0,1	0,194503
4,812500	0,1	0,166643
4,814167	0,1	0,238153
4,815833	0,1	0,197390
4,817500	0,1	0,189143
4,819167	0,1	0,178771
4,820833	0,1	0,210147
4,822500	0,1	0,202745
4,824167	0,1	0,199039
4,825833	0,1	0,164369
4,827500	0,1	0,186527
4,829167	0,1	0,166229
4,830833	0,1	0,167029
4,832500	0,1	0,213807
4,834167	0,1	0,187409
4,835833	0,1	0,181048
4,837500	0,1	0,154099
4,839167	0,1	0,183981
4,840833	0,1	0,203856
4,842500	0,1	0,162360
4,844167	0,1	0,193023
4,845833	0,1	0,162525
4,847500	0,1	0,173137
4,849167	0,1	0,171875
4,850833	0,1	0,183798
4,852500	0,1	0,160928
4,854167	0,1	0,179032
4,855833	0,1	0,155899
4,857500	0,1	0,161337
4,859167	0,1	0,169140
4,860833	0,1	0,178579
4,862500	0,1	0,167840
4,864167	0,1	0,172555
4,865833	0,1	0,183051
4,867500	0,1	0,174982
4,869167	0,1	0,202033
4,870833	0,1	0,176311
4,872500	0,1	0,177009
4,874167	0,1	0,176594
4,875833	0,1	0,182142
4,877500	0,1	0,221801
4,879167	0,1	0,186790
4,880833	0,1	0,207998
4,882500	0,1	0,167848
4,884167	0,1	0,152253
4,885833	0,1	0,184206
4,887500	0,1	0,219194
4,889167	0,1	0,189005
4,890833	0,1	0,181173
4,892500	0,1	0,187606
4,894167	0,1	0,231466
4,895833	0,1	0,188860
4,897500	0,1	0,182581
4,899167	0,1	0,147952
4,900833	0,1	0,162494
4,902500	0,1	0,203063
4,904167	0,1	0,209965
4,905833	0,1	0,198480
4,907500	0,1	0,198414
4,909167	0,1	0,167348
4,910833	0,1	0,178290
4,912500	0,1	0,192884
4,914167	0,1	0,178421
4,915833	0,1	0,180423
4,917500	0,1	0,175891
4,919167	0,1	0,148550
4,920833	0,1	0,206206
4,922500	0,1	0,162135
4,924167	0,1	0,180564
4,925833	0,1	0,187338
4,927500	0,1	0,194897
4,929167	0,1	0,174179
4,930833	0,1	0,198079
4,932500	0,1	0,193406
4,934167	0,1	0,130445
4,935833	0,1	0,171990
4,937500	0,1	0,181499
4,939167	0,1	0,196548
4,940833	0,1	0,196097
4,942500	0,1	0,154806
4,944167	0,1	0,151111
4,945833	0,1	0,151814
4,947500	0,1	0,137990
4,949167	0,1	0,172240
4,950833	0,1	0,189095
4,952500	0,1	0,178171
4,954167	0,1	0,134560
4,955833	0,1	0,181386
4,957500	0,1	0,179803
4,959167	0,1	0,165232
4,960833	0,1	0,177131
4,962500	0,1	0,158050
4,964167	0,1	0,178308
4,965833	0,1	0,179059
4,967500	0,1	0,163205
4,969167	0,1	0,172535
4,970833	0,1	0,211366
4,972500	0,1	0,160565
4,974167	0,1	0,209376
4,975833	0,1	0,171635
4,977500	0,1	0,166906
4,979167	0,1	0,191803
4,980833	0,1	0,157081
4,982500	0,1	0,177316
4,984167	0,1	0,171422
4,985833	0,1	0,160824
4,987500	0,1	0,204118
4,989167	0,1	0,154415
4,990833	0,1	0,186979
4,992500	0,1	0,188332
4,994167	0,1	0,165070
4,995833	0,1	0,163677
4,997500	0,1	0,172224
4,999167	0,1	0,199424
5,000833	0,1	0,142679
5,002500	0,1	0,177580
5,004167	0,1	0,188847
5,005833	0,1	0,165463
5,007500	0,1	0,175887
5,009167	0,1	0,176780
5,010833	0,1	0,189551
5,012500	0,1	0,174859
5,014167	0,1	0,198700
5,015833	0,1	0,140277
5,017500	0,1	0,194301
5,019167	0,1	0,180159
5,020833	0,1	0,167304
5,022500	0,1	0,185325
5,024167	0,1	0,176577
5,025833	0,1	0,181251
5,027500	0,1	0,166083
5,029167	0,1	0,156826
5,030833	0,1	0,193045
5,032500	0,1	0,186121
5,034167	0,1	0,173286
5,035833	0,1	0,185887
5,037500	0,1	0,156955
5,039167	0,1	0,199711
5,040833	0,1	0,173165
5,042500	0,1	0,196569
5,044167	0,1	0,195104
5,045833	0,1	0,173907
5,047500	0,1	0,156353
5,049167	0,1	0,187870
5,050833	0,1	0,177032
5,052500	0,1	0,152835
5,054167	0,1	0,141735
5,055833	0,1	0,184677
5,057500	0,1	0,151203
5,059167	0,1	0,201736
5,060833	0,1	0,167349
5,062500	0,1	0,173282
5,064167	0,1	0,175185
5,065833	0,1	0,196029
5,067500	0,1	0,191605
5,069167	0,1	0,194524
5,070833	0,1	0,160973
5,072500	0,1	0,156825
5,074167	0,1	0,195196
5,075833	0,1	0,201253
5,077500	0,1	0,170163
5,079167	0,1	0,166886
5,080833	0,1	0,173426
5,082500	0,1	0,174629
5,084167	0,1	0,188994
5,085833	0,1	0,142925
5,087500	0,1	0,170605
5,089167	0,1	0,157615
5,090833	0,1	0,176799
5,092500	0,1	0,191164
5,094167	0,1	0,187590
5,095833	0,1	0,185602
5,097500	0,1	0,218615
5,099167	0,1	0,176915
5,100833	0,1	0,138202
5,102500	0,1	0,201052
5,104167	0,1	0,188814
5,105833	0,1	0,184153
5,107500	0,1	0,178792
5,109167	0,1	0,180922
5,110833	0,1	0,180013
5,112500	0,1	0,186304
5,114167	0,1	0,192057
5,115833	0,1	0,183616
5,117500	0,1	0,216519
5,119167	0,1	0,176852
5,120833	0,1	0,176430
5,122500	0,1	0,186280
5,124167	0,1	0,193052
5,125833	0,1	0,172231
5,127500	0,1	0,157014
5,129167	0,1	0,171456
5,130833	0,1	0,178829
5,132500	0,1	0,159582
5,134167	0,1	0,187645
5,135833	0,1	0,170367
5,137500	0,1	0,207640
5,139167	0,1	0,202103
5,140833	0,1	0,169853
5,142500	0,1	0,178062
5,144167	0,1	0,205138
5,145833	0,1	0,164721
5,147500	0,1	0,113302
5,149167	0,1	0,177077
5,150833	0,1	0,187234
5,152500	0,1	0,150955
5,154167	0,1	0,173982
5,155833	0,1	0,185059
5,157500	0,1	0,177032
5,159167	0,1	0,164694
5,160833	0,1	0,222439
5,162500	0,1	0,196994
5,164167	0,1	0,162257
5,165833	0,1	0,167588
5,167500	0,1	0,188078
5,169167	0,1	0,162111
5,170833	0,1	0,160055
5,172500	0,1	0,173506
5,174167	0,1	0,181936
5,175833	0,1	0,164859
5,177500	0,1	0,187272
5,179167	0,1	0,193876
5,180833	0,1	0,158655
5,182500	0,1	0,166409
5,184167	0,1	0,168188
5,185833	0,1	0,150577
5,187500	0,1	0,161045
5,189167	0,1	0,151859
5,190833	0,1	0,202315
5,192500	0,1	0,208619
5,194167	0,1	0,168303
5,195833	0,1	0,180236
5,197500	0,1	0,168895
5,199167	0,1	0,179987
5,200833	0,1	0,145736
5,202500	0,1	0,137347
5,204167	0,1	0,180083
5,205833	0,1	0,184024
5,207500	0,1	0,163207
5,209167	0,1	0,126216
5,210833	0,1	0,154852
5,212500	0,1	0,195674
5,214167	0,1	0,191005
5,215833	0,1	0,147830
5,217500	0,1	0,140411
5,219167	0,1	0,120976
5,220833	0,1	0,163273
5,222500	0,1	0,151653
5,224167	0,1	0,164688
5,225833	0,1	0,163179
5,227500	0,1	0,171935
5,229167	0,1	0,168314
5,230833	0,1	0,150060
5,232500	0,1	0,117522
5,234167	0,1	0,127695
5,235833	0,1	0,134259
5,237500	0,1	0,125858
5,239167	0,1	0,158639
5,240833	0,1	0,155252
5,242500	0,1	0,151857
5,244167	0,1	0,124785
5,245833	0,1	0,131008
5,247500	0,1	0,132025
5,249167	0,1	0,127430
5,250833	0,1	0,120083
5,252500	0,1	0,151476
5,254167	0,1	0,114129
5,255833	0,1	0,120783
5,257500	0,1	0,148703
5,259167	0,1	0,117376
5,260833	0,1	0,129806
5,262500	0,1	0,145910
5,264167	0,1	0,133662
5,265833	0,1	0,111847
5,267500	0,1	0,122292
5,269167	0,1	0,109176
5,270833	0,1	0,129143
5,272500	0,1	0,127098
5,274167	0,1	0,168345
5,275833	0,1	0,148941
5,277500	0,1	0,133394
5,279167	0,1	0,123063
5,280833	0,1	0,115777
5,282500	0,1	0,104414
5,284167	0,1	0,149527
5,285833	0,1	0,106821
5,287500	0,1	0,107350
5,289167	0,1	0,101991
5,290833	0,1	0,140585
5,292500	0,1	0,127763
5,294167	0,1	0,153465
5,295833	0,1	0,137575
5,297500	0,1	0,109843
5,299167	0,1	0,112256
5,300833	0,1	0,109939
5,302500	0,1	0,133179
5,304167	0,1	0,141813
5,305833	0,1	0,082693
5,307500	0,1	0,139938
5,309167	0,1	0,108703
5,310833	0,1	0,132475
5,312500	0,1	0,105205
5,314167	0,1	0,083096
5,315833	0,1	0,115228
5,317500	0,1	0,117616
5,319167	0,1	0,139203
5,320833	0,1	0,117104
5,322500	0,1	0,115342
5,324167	0,1	0,107457
5,325833	0,1	0,096692
5,327500	0,1	0,119579
5,329167	0,1	0,095061
5,330833	0,1	0,114528
5,332500	0,1	0,093012
5,334167	0,1	0,087978
5,335833	0,1	0,078787
5,337500	0,1	0,115559
5,339167	0,1	0,100419
5,340833	0,1	0,087524
5,342500	0,1	0,118127
5,344167	0,1	0,065947
5,345833	0,1	0,092006
5,347500	0,1	0,090088
5,349167	0,1	0,083507
5,350833	0,1	0,081396
5,352500	0,1	0,074795
5,354167	0,1	0,097450
5,355833	0,1	0,085101
5,357500	0,1	0,068567
5,359167	0,1	0,078888
5,360833	0,1	0,077773
5,362500	0,1	0,097347
5,364167	0,1	0,125124
5,365833	0,1	0,051151
5,367500	0,1	0,102142
5,369167	0,1	0,070951
5,370833	0,1	0,115724
5,372500	0,1	0,088252
5,374167	0,1	0,080794
5,375833	0,1	0,099937
5,377500	0,1	0,069748
5,379167	0,1	0,078827
5,380833	0,1	0,088142
5,382500	0,1	0,074050
5,384167	0,1	0,077957
5,385833	0,1	0,068689
5,387500	0,1	0,079756
5,389167	0,1	0,065087
5,390833	0,1	0,048097
5,392500	0,1	0,091236
5,394167	0,1	0,092759
5,395833	0,1	0,096503
5,397500	0,1	0,061551
5,399167	0,1	0,101463
5,400833	0,1	0,087877
5,402500	0,1	0,096378
5,404167	0,1	0,037859
5,405833	0,1	0,066193
5,407500	0,1	0,040751
5,409167	0,1	0,064251
5,410833	0,1	0,034459
5,412500	0,1	0,041693
5,414167	0,1	0,062451
5,415833	0,1	0,088280
5,417500	0,1	0,099315
5,419167	0,1	0,039372
5,420833	0,1	0,050324
5,422500	0,1	0,068391
5,424167	0,1	0,036816
5,425833	0,1	0,021537
5,427500	0,1	0,058744
5,429167	0,1	0,061419
5,430833	0,1	0,040626
5,432500	0,1	0,054215
5,434167	0,1	0,032656
5,435833	0,1	0,041034
5,437500	0,1	0,054691
5,439167	0,1	0,056310
5,440833	0,1	0,023949
5,442500	0,1	0,048852
5,444167	0,1	0,078530
5,445833	0,1	0,050025
5,447500	0,1	0,045422
5,449167	0,1	0,078321
5,450833	0,1	0,044084
5,452500	0,1	0,005838
5,454167	0,1	0,078935
5,455833	0,1	0,035827
5,457500	0,1	0,035965
5,459167	0,1	0,050032
5,460833	0,1	0,024958
5,462500	0,1	0,026420
5,464167	0,1	0,042456
5,465833	0,1	0,035404
5,467500	0,1	0,048831
5,469167	0,1	0,040951
5,470833	0,1	0,030667
5,472500	0,1	0,043493
5,474167	0,1	0,033586
5,475833	0,1	0,046042
5,477500	0,1	0,085130
5,479167	0,1	0,019336
5,480833	0,1	0,077902
5,482500	0,1	0,086070
5,484167	0,1	0,057618
5,485833	0,1	0,039609
5,487500	0,1	0,056595
5,489167	0,1	0,040292
5,490833	0,1	0,030070
5,492500	0,1	-0,022429
5,494167	0,1	0,053146
5,495833	0,1	0,041426
5,497500	0,1	0,061871
5,499167	0,1	0,012317
5,500833	0,1	0,024431
5,502500	0,1	0,039248
5,504167	0,1	0,047697
5,505833	0,1	0,026240
5,507500	0,1	0,072814
5,509167	0,1	0,045965
5,510833	0,1	0,019994
5,512500	0,1	0,050110
5,514167	0,1	0,041450
5,515833	0,1	0,036854
5,517500	0,1	0,058001
5,519167	0,1	0,014804
5,520833	0,1	0,059964
5,522500	0,1	0,008821
5,524167	0,1	0,040633
5,525833	0,1	0,083537
5,527500	0,1	0,058986
5,529167	0,1	0,041657
5,530833	0,1	0,019782
5,532500	0,1	0,013820
5,534167	0,1	0,039307
5,535833	0,1	0,025720
5,537500	0,1	0,045416
5,539167	0,1	0,038410
5,540833	0,1	0,034103
5,542500	0,1	0,063694
5,544167	0,1	0,057595
5,545833	0,1	0,037727
5,547500	0,1	0,041237
5,549167	0,1	0,055456
5,550833	0,1	0,053597
5,552500	0,1	0,037832
5,554167	0,1	0,015149
5,555833	0,1	0,049262
5,557500	0,1	0,027770
5,559167	0,1	0,035610
5,560833	0,1	0,032862
5,562500	0,1	-0,016717
5,564167	0,1	0,038227
5,565833	0,1	0,020880
5,567500	0,1	-0,002856
5,569167	0,1	0,034340
5,570833	0,1	0,039850
5,572500	0,1	0,017981
5,574167	0,1	0,005006
5,575833	0,1	0,015222
5,577500	0,1	0,054061
5,579167	0,1	0,027631
5,580833	0,1	0,029258
5,582500	0,1	0,043246
5,584167	0,1	0,040790
5,585833	0,1	0,057651
5,587500	0,1	-0,004191
5,589167	0,1	0,035684
5,590833	0,1	0,035200
5,592500	0,1	0,052124
5,594167	0,1	0,075780
5,595833	0,1	0,019175
5,597500	0,1	0,043515
5,599167	0,1	0,025704
5,600833	0,1	0,031658
5,602500	0,1	0,054916
5,604167	0,1	0,087698
5,605833	0,1	0,055238
5,607500	0,1	0,039589
5,609167	0,1	0,073232
5,610833	0,1	0,059707
5,612500	0,1	0,064544
5,614167	0,1	0,034689
5,615833	0,1	0,020756
5,617500	0,1	0,077488
5,619167	0,1	0,032415
5,620833	0,1	0,042440
5,622500	0,1	0,024606
5,624167	0,1	0,039914
5,625833	0,1	0,040350
5,627500	0,1	0,032073
5,629167	0,1	0,031799
5,630833	0,1	0,023732
5,632500	0,1	0,005878
5,634167	0,1	0,065320
5,635833	0,1	0,010517
5,637500	0,1	0,023271
5,639167	0,1	0,020857
5,640833	0,1	0,065694
5,642500	0,1	0,004376
5,644167	0,1	0,054621
5,645833	0,1	0,047804
5,647500	0,1	0,035615
5,649167	0,1	0,041158
5,650833	0,1	0,065202
5,652500	0,1	0,047288
5,654167	0,1	0,036276
5,655833	0,1	0,023717
5,657500	0,1	0,056382
5,659167	0,1	0,050476
5,660833	0,1	0,033834
5,662500	0,1	0,065594
5,664167	0,1	0,061462
5,665833	0,1	0,017555
5,667500	0,1	0,061080
5,669167	0,1	0,068376
5,670833	0,1	0,056622
5,672500	0,1	0,046048
5,674167	0,1	0,032489
5,675833	0,1	0,015061
5,677500	0,1	0,032955
5,679167	0,1	0,079312
5,680833	0,1	0,046194
5,682500	0,1	0,070296
5,684167	0,1	0,077977
5,685833	0,1	0,064445
5,687500	0,1	0,048633
5,689167	0,1	0,097115
5,690833	0,1	0,077653
5,692500	0,1	0,090437
5,694167	0,1	0,068174
5,695833	0,1	0,082778
5,697500	0,1	0,084085
5,699167	0,1	0,092899
5,700833	0,1	0,054931
5,702500	0,1	0,036295
5,704167	0,1	0,068055
5,705833	0,1	0,099022
5,707500	0,1	0,071981
5,709167	0,1	0,027986
5,710833	0,1	0,063977
5,712500	0,1	0,095234
5,714167	0,1	0,074051
5,715833	0,1	0,111668
5,717500	0,1	0,068820
5,719167	0,1	0,052588
5,720833	0,1	0,117043
5,722500	0,1	0,082540
5,724167	0,1	0,048163
5,725833	0,1	0,131259
5,727500	0,1	0,096162
5,729167	0,1	0,101161
5,730833	0,1	0,066955
5,732500	0,1	0,086418
5,734167	0,1	0,046758
5,735833	0,1	0,086581
5,737500	0,1	0,083030
5,739167	0,1	0,078933
5,740833	0,1	0,051535
5,742500	0,1	0,095563
5,744167	0,1	0,068051
5,745833	0,1	0,085591
5,747500	0,1	0,066808
5,749167	0,1	0,065102
5,750833	0,1	0,084846
5,752500	0,1	0,073693
5,754167	0,1	0,077521
5,755833	0,1	0,085323
5,757500	0,1	0,127998
5,759167	0,1	0,102306
5,760833	0,1	0,085497
5,762500	0,1	0,090272
5,764167	0,1	0,094701
5,765833	0,1	0,089468
5,767500	0,1	0,074588
5,769167	0,1	0,072578
5,770833	0,1	0,110239
5,772500	0,1	0,072687
5,774167	0,1	0,118040
5,775833	0,1	0,150234
5,777500	0,1	0,068144
5,779167	0,1	0,049460
5,780833	0,1	0,101686
5,782500	0,1	0,057395
5,784167	0,1	0,135981
5,785833	0,1	0,117807
5,787500	0,1	0,105595
5,789167	0,1	0,105964
5,790833	0,1	0,066377
5,792500	0,1	0,091674
5,794167	0,1	0,109457
5,795833	0,1	0,101887
5,797500	0,1	0,156977
5,799167	0,1	0,103906
5,800833	0,1	0,104327
5,802500	0,1	0,085082
5,804167	0,1	0,092797
5,805833	0,1	0,125371
5,807500	0,1	0,134609
5,809167	0,1	0,091752
5,810833	0,1	0,118748
5,812500	0,1	0,084135
5,814167	0,1	0,105959
5,815833	0,1	0,094811
5,817500	0,1	0,112395
5,819167	0,1	0,086615
5,820833	0,1	0,121356
5,822500	0,1	0,080782
5,824167	0,1	0,087249
5,825833	0,1	0,147618
5,827500	0,1	0,120190
5,829167	0,1	0,119936
5,830833	0,1	0,063173
5,832500	0,1	0,072905
5,834167	0,1	0,110757
5,835833	0,1	0,078442
5,837500	0,1	0,112971
5,839167	0,1	0,105076
5,840833	0,1	0,122727
5,842500	0,1	0,094815
5,844167	0,1	0,061613
5,845833	0,1	0,135442
5,847500	0,1	0,089704
5,849167	0,1	0,092321
5,850833	0,1	0,091909
5,852500	0,1	0,076346
5,854167	0,1	0,107343
5,855833	0,1	0,099487
5,857500	0,1	0,063271
5,859167	0,1	0,082321
5,860833	0,1	0,046609
5,862500	0,1	0,110211
5,864167	0,1	0,110456
5,865833	0,1	0,093485
5,867500	0,1	0,104843
5,869167	0,1	0,067306
5,870833	0,1	0,136997
5,872500	0,1	0,093469
5,874167	0,1	0,090233
5,875833	0,1	0,082637
5,877500	0,1	0,070343
5,879167	0,1	0,091984
5,880833	0,1	0,070572
5,882500	0,1	0,149828
5,884167	0,1	0,125385
5,885833	0,1	0,064889
5,887500	0,1	0,068291
5,889167	0,1	0,092877
5,890833	0,1	0,100661
5,892500	0,1	0,077484
5,894167	0,1	0,099189
5,895833	0,1	0,102135
5,897500	0,1	0,055533
5,899167	0,1	0,089353
5,900833	0,1	0,081312
5,902500	0,1	0,062231
5,904167	0,1	0,090536
5,905833	0,1	0,054868
5,907500	0,1	0,040978
5,909167	0,1	0,077949
5,910833	0,1	0,067756
5,912500	0,1	0,109348
5,914167	0,1	0,078213
5,915833	0,1	0,087353
5,917500	0,1	0,135740
5,919167	0,1	0,060961
5,920833	0,1	0,076153
5,922500	0,1	0,062662
5,924167	0,1	0,072719
5,925833	0,1	0,066307
5,927500	0,1	0,051051
5,929167	0,1	0,079729
5,930833	0,1	0,077935
5,932500	0,1	0,068706
5,934167	0,1	0,017204
5,935833	0,1	0,057972
5,937500	0,1	0,081575
5,939167	0,1	0,089403
5,940833	0,1	0,039720
5,942500	0,1	0,022908
5,944167	0,1	0,041690
5,945833	0,1	0,068265
5,947500	0,1	0,043046
5,949167	0,1	0,081780
5,950833	0,1	0,058135
5,952500	0,1	0,057056
5,954167	0,1	0,061195
5,955833	0,1	0,064174
5,957500	0,1	0,082901
5,959167	0,1	0,054578
5,960833	0,1	0,034538
5,962500	0,1	0,080186
5,964167	0,1	0,051017
5,965833	0,1	0,049024
5,967500	0,1	0,042733
5,969167	0,1	0,070955
5,970833	0,1	0,041578
5,972500	0,1	0,034787
5,974167	0,1	0,055990
5,975833	0,1	0,052067
5,977500	0,1	0,060035
5,979167	0,1	0,037377
5,980833	0,1	0,080970
5,982500	0,1	0,019254
5,984167	0,1	0,058017
5,985833	0,1	0,042323
5,987500	0,1	0,078364
5,989167	0,1	0,024615
5,990833	0,1	0,011563
5,992500	0,1	0,027909
5,994167	0,1	0,034574
5,995833	0,1	0,048608
5,997500	0,1	0,048279
5,999167	0,1	0,028394
6,000833	0,1	0,040742
