File Path	chrom://chromeleon01/ikbm_chromeleon/2022/Rezex/Esteban/220612_chitin_4_7.seq/469.smp/UV_VIS_1.channel/UV_VIS_1.chm
Channel	UV_VIS_1

Injection Information:
Data Vault	ikbm_chromeleon
Injection	7_00h-EGS_1
Injection Number	110
Position	BB4
Comment	
Processing Method	New ProcMethod
Instrument Method	Short_Rezex_6min_194nm
Type	Unknown
Status	Finished
Injection Date	13.06.2022
Injection Time	04:59:49
Injection Volume (µl)	8,000
Dilution Factor	1,0000
Weight	1,0000

Chromatogram Data Information:
Time Min. (min)	0,000833
Time Max. (min)	6,000833
Data Points	3601
Detector	UV
Generating Data System	Chromeleon 7.2.9.11323
Exporting Data System	Chromeleon 7.2.9.0
Operator	Instrument Controller
Signal Quantity	Absorbance
Signal Unit	mAU
Signal Min.	-0,025890
Signal Max.	117,045773
Channel	UV_VIS_1
Driver Name	VWD3000.dll
Channel Type	Evaluation
Min. Step (s)	0,1
Max. Step (s)	0,1
Average Step (s)	0,1

Signal Parameter Information:
Signal Info	WVL:194 nm

Chromatogram Data:
Time (min)	Step (s)	Value (mAU)
0,000833	n.a.	0,019615
0,002500	0,1	0,003938
0,004167	0,1	0,057788
0,005833	0,1	0,007213
0,007500	0,1	0,033365
0,009167	0,1	0,017480
0,010833	0,1	0,023522
0,012500	0,1	0,043473
0,014167	0,1	0,032915
0,015833	0,1	0,048361
0,017500	0,1	0,078120
0,019167	0,1	0,040252
0,020833	0,1	0,031234
0,022500	0,1	0,039263
0,024167	0,1	-0,000868
0,025833	0,1	0,009061
0,027500	0,1	-0,015054
0,029167	0,1	0,001486
0,030833	0,1	-0,024866
0,032500	0,1	-0,005458
0,034167	0,1	-0,000265
0,035833	0,1	-0,011716
0,037500	0,1	-0,002056
0,039167	0,1	-0,020934
0,040833	0,1	-0,012604
0,042500	0,1	0,008709
0,044167	0,1	-0,009865
0,045833	0,1	-0,003808
0,047500	0,1	-0,014815
0,049167	0,1	0,017851
0,050833	0,1	0,023872
0,052500	0,1	0,045550
0,054167	0,1	-0,007554
0,055833	0,1	0,033194
0,057500	0,1	0,053246
0,059167	0,1	-0,003429
0,060833	0,1	0,060124
0,062500	0,1	0,041362
0,064167	0,1	0,021374
0,065833	0,1	0,040145
0,067500	0,1	-0,005526
0,069167	0,1	0,011336
0,070833	0,1	0,019261
0,072500	0,1	0,000455
0,074167	0,1	0,032844
0,075833	0,1	0,006411
0,077500	0,1	0,026084
0,079167	0,1	0,014197
0,080833	0,1	0,007689
0,082500	0,1	0,017595
0,084167	0,1	0,047533
0,085833	0,1	0,054945
0,087500	0,1	0,037345
0,089167	0,1	0,046150
0,090833	0,1	0,058379
0,092500	0,1	0,047498
0,094167	0,1	0,083904
0,095833	0,1	0,057808
0,097500	0,1	0,053207
0,099167	0,1	0,081402
0,100833	0,1	0,052037
0,102500	0,1	0,017193
0,104167	0,1	0,047350
0,105833	0,1	0,023940
0,107500	0,1	0,034895
0,109167	0,1	0,016763
0,110833	0,1	-0,025890
0,112500	0,1	-0,007890
0,114167	0,1	-0,016219
0,115833	0,1	-0,017564
0,117500	0,1	-0,020296
0,119167	0,1	0,016811
0,120833	0,1	-0,007311
0,122500	0,1	-0,000724
0,124167	0,1	0,008833
0,125833	0,1	0,014496
0,127500	0,1	0,008606
0,129167	0,1	-0,012949
0,130833	0,1	-0,009579
0,132500	0,1	0,009579
0,134167	0,1	0,022575
0,135833	0,1	0,025521
0,137500	0,1	0,002502
0,139167	0,1	0,014328
0,140833	0,1	0,026849
0,142500	0,1	0,002274
0,144167	0,1	0,019733
0,145833	0,1	0,007966
0,147500	0,1	0,031579
0,149167	0,1	0,033601
0,150833	0,1	0,036029
0,152500	0,1	0,028197
0,154167	0,1	0,055399
0,155833	0,1	0,035267
0,157500	0,1	0,084498
0,159167	0,1	0,044177
0,160833	0,1	0,043708
0,162500	0,1	0,024000
0,164167	0,1	0,035016
0,165833	0,1	0,053827
0,167500	0,1	0,025576
0,169167	0,1	0,073060
0,170833	0,1	0,041074
0,172500	0,1	0,031632
0,174167	0,1	0,030943
0,175833	0,1	0,032623
0,177500	0,1	0,018471
0,179167	0,1	0,046511
0,180833	0,1	0,013925
0,182500	0,1	0,013763
0,184167	0,1	0,001095
0,185833	0,1	0,038338
0,187500	0,1	0,026807
0,189167	0,1	0,058024
0,190833	0,1	0,040490
0,192500	0,1	0,058041
0,194167	0,1	0,082977
0,195833	0,1	0,053335
0,197500	0,1	0,031298
0,199167	0,1	0,043247
0,200833	0,1	0,050287
0,202500	0,1	0,013698
0,204167	0,1	0,067883
0,205833	0,1	0,029609
0,207500	0,1	0,064450
0,209167	0,1	0,037193
0,210833	0,1	0,062865
0,212500	0,1	0,022722
0,214167	0,1	-0,000231
0,215833	0,1	0,089039
0,217500	0,1	0,059976
0,219167	0,1	0,029640
0,220833	0,1	0,048879
0,222500	0,1	0,040504
0,224167	0,1	0,025342
0,225833	0,1	0,041261
0,227500	0,1	0,047708
0,229167	0,1	0,080943
0,230833	0,1	0,080706
0,232500	0,1	0,033674
0,234167	0,1	0,041080
0,235833	0,1	0,069691
0,237500	0,1	0,053242
0,239167	0,1	0,012356
0,240833	0,1	0,054998
0,242500	0,1	0,061160
0,244167	0,1	0,059193
0,245833	0,1	0,054596
0,247500	0,1	0,092822
0,249167	0,1	0,036161
0,250833	0,1	0,055780
0,252500	0,1	0,012220
0,254167	0,1	0,026557
0,255833	0,1	0,041201
0,257500	0,1	0,028211
0,259167	0,1	0,070329
0,260833	0,1	0,042952
0,262500	0,1	0,074194
0,264167	0,1	0,064813
0,265833	0,1	0,050218
0,267500	0,1	0,052564
0,269167	0,1	0,087936
0,270833	0,1	0,027966
0,272500	0,1	0,072205
0,274167	0,1	0,036769
0,275833	0,1	0,032637
0,277500	0,1	0,014915
0,279167	0,1	0,065013
0,280833	0,1	0,063757
0,282500	0,1	0,020799
0,284167	0,1	0,051794
0,285833	0,1	0,031696
0,287500	0,1	0,030213
0,289167	0,1	0,054650
0,290833	0,1	0,014784
0,292500	0,1	0,092660
0,294167	0,1	0,084373
0,295833	0,1	0,033034
0,297500	0,1	0,050117
0,299167	0,1	0,037465
0,300833	0,1	0,055462
0,302500	0,1	0,064687
0,304167	0,1	0,111772
0,305833	0,1	0,038487
0,307500	0,1	0,015558
0,309167	0,1	0,047991
0,310833	0,1	0,054763
0,312500	0,1	0,033911
0,314167	0,1	0,035660
0,315833	0,1	0,027771
0,317500	0,1	0,072252
0,319167	0,1	0,062309
0,320833	0,1	0,064811
0,322500	0,1	0,028326
0,324167	0,1	0,038682
0,325833	0,1	0,037126
0,327500	0,1	0,072774
0,329167	0,1	0,070767
0,330833	0,1	0,043837
0,332500	0,1	0,078668
0,334167	0,1	0,076509
0,335833	0,1	0,060493
0,337500	0,1	0,064841
0,339167	0,1	0,056201
0,340833	0,1	0,084564
0,342500	0,1	0,052329
0,344167	0,1	0,066915
0,345833	0,1	0,048705
0,347500	0,1	0,030887
0,349167	0,1	0,069519
0,350833	0,1	0,050691
0,352500	0,1	0,051282
0,354167	0,1	0,044579
0,355833	0,1	0,067829
0,357500	0,1	0,090674
0,359167	0,1	0,060862
0,360833	0,1	0,025347
0,362500	0,1	0,069748
0,364167	0,1	0,078658
0,365833	0,1	0,058464
0,367500	0,1	0,032630
0,369167	0,1	0,033265
0,370833	0,1	0,063291
0,372500	0,1	0,072719
0,374167	0,1	0,048797
0,375833	0,1	0,034458
0,377500	0,1	0,027158
0,379167	0,1	0,055229
0,380833	0,1	0,052566
0,382500	0,1	0,044916
0,384167	0,1	0,064057
0,385833	0,1	0,035148
0,387500	0,1	0,055139
0,389167	0,1	0,047206
0,390833	0,1	0,047845
0,392500	0,1	0,039815
0,394167	0,1	0,061691
0,395833	0,1	0,055543
0,397500	0,1	0,054947
0,399167	0,1	0,067893
0,400833	0,1	0,022326
0,402500	0,1	0,066022
0,404167	0,1	0,055758
0,405833	0,1	0,047725
0,407500	0,1	0,062762
0,409167	0,1	0,016205
0,410833	0,1	0,081515
0,412500	0,1	0,014939
0,414167	0,1	0,047427
0,415833	0,1	0,081614
0,417500	0,1	0,073195
0,419167	0,1	0,095377
0,420833	0,1	0,040224
0,422500	0,1	0,049051
0,424167	0,1	0,071478
0,425833	0,1	0,058340
0,427500	0,1	0,049848
0,429167	0,1	0,025466
0,430833	0,1	0,042191
0,432500	0,1	0,095934
0,434167	0,1	0,084971
0,435833	0,1	0,047854
0,437500	0,1	0,115493
0,439167	0,1	0,056519
0,440833	0,1	0,072443
0,442500	0,1	0,082400
0,444167	0,1	0,066159
0,445833	0,1	0,040980
0,447500	0,1	0,065844
0,449167	0,1	0,068231
0,450833	0,1	0,064446
0,452500	0,1	0,069222
0,454167	0,1	0,063866
0,455833	0,1	0,083284
0,457500	0,1	0,025827
0,459167	0,1	0,071380
0,460833	0,1	0,109972
0,462500	0,1	0,072683
0,464167	0,1	0,075819
0,465833	0,1	0,058280
0,467500	0,1	0,072046
0,469167	0,1	0,049364
0,470833	0,1	0,106364
0,472500	0,1	0,057935
0,474167	0,1	0,081067
0,475833	0,1	0,058342
0,477500	0,1	0,094533
0,479167	0,1	0,042958
0,480833	0,1	0,105844
0,482500	0,1	0,084224
0,484167	0,1	0,086372
0,485833	0,1	0,093441
0,487500	0,1	0,082985
0,489167	0,1	0,085792
0,490833	0,1	0,053794
0,492500	0,1	0,081982
0,494167	0,1	0,061501
0,495833	0,1	0,103068
0,497500	0,1	0,071918
0,499167	0,1	0,067086
0,500833	0,1	0,105771
0,502500	0,1	0,079691
0,504167	0,1	0,087226
0,505833	0,1	0,075945
0,507500	0,1	0,033977
0,509167	0,1	0,082680
0,510833	0,1	0,039214
0,512500	0,1	0,071079
0,514167	0,1	0,091513
0,515833	0,1	0,039049
0,517500	0,1	0,060897
0,519167	0,1	0,050932
0,520833	0,1	0,078318
0,522500	0,1	0,051045
0,524167	0,1	0,045220
0,525833	0,1	0,090438
0,527500	0,1	0,095089
0,529167	0,1	0,081306
0,530833	0,1	0,097255
0,532500	0,1	0,091566
0,534167	0,1	0,062192
0,535833	0,1	0,097099
0,537500	0,1	0,104056
0,539167	0,1	0,089064
0,540833	0,1	0,060281
0,542500	0,1	0,058062
0,544167	0,1	0,085891
0,545833	0,1	0,100663
0,547500	0,1	0,127689
0,549167	0,1	0,043620
0,550833	0,1	0,077844
0,552500	0,1	0,085805
0,554167	0,1	0,047854
0,555833	0,1	0,075538
0,557500	0,1	0,084966
0,559167	0,1	0,086326
0,560833	0,1	0,047534
0,562500	0,1	0,089462
0,564167	0,1	0,095884
0,565833	0,1	0,130971
0,567500	0,1	0,086092
0,569167	0,1	0,109579
0,570833	0,1	0,108883
0,572500	0,1	0,090118
0,574167	0,1	0,098662
0,575833	0,1	0,063201
0,577500	0,1	0,094595
0,579167	0,1	0,128651
0,580833	0,1	0,097604
0,582500	0,1	0,098512
0,584167	0,1	0,085735
0,585833	0,1	0,107137
0,587500	0,1	0,124546
0,589167	0,1	0,092520
0,590833	0,1	0,082877
0,592500	0,1	0,133612
0,594167	0,1	0,088156
0,595833	0,1	0,062144
0,597500	0,1	0,084274
0,599167	0,1	0,094661
0,600833	0,1	0,118559
0,602500	0,1	0,111587
0,604167	0,1	0,116852
0,605833	0,1	0,110762
0,607500	0,1	0,100255
0,609167	0,1	0,116864
0,610833	0,1	0,101647
0,612500	0,1	0,124393
0,614167	0,1	0,151438
0,615833	0,1	0,120450
0,617500	0,1	0,177504
0,619167	0,1	0,108715
0,620833	0,1	0,120241
0,622500	0,1	0,128016
0,624167	0,1	0,148785
0,625833	0,1	0,104068
0,627500	0,1	0,103813
0,629167	0,1	0,160473
0,630833	0,1	0,076726
0,632500	0,1	0,077485
0,634167	0,1	0,103241
0,635833	0,1	0,095430
0,637500	0,1	0,076771
0,639167	0,1	0,103715
0,640833	0,1	0,099079
0,642500	0,1	0,124638
0,644167	0,1	0,150981
0,645833	0,1	0,135948
0,647500	0,1	0,121257
0,649167	0,1	0,128384
0,650833	0,1	0,114965
0,652500	0,1	0,098350
0,654167	0,1	0,129858
0,655833	0,1	0,124811
0,657500	0,1	0,083190
0,659167	0,1	0,073928
0,660833	0,1	0,103286
0,662500	0,1	0,140592
0,664167	0,1	0,131929
0,665833	0,1	0,142234
0,667500	0,1	0,112860
0,669167	0,1	0,106808
0,670833	0,1	0,148061
0,672500	0,1	0,136604
0,674167	0,1	0,138387
0,675833	0,1	0,137701
0,677500	0,1	0,152953
0,679167	0,1	0,112589
0,680833	0,1	0,136826
0,682500	0,1	0,108799
0,684167	0,1	0,158534
0,685833	0,1	0,142670
0,687500	0,1	0,130280
0,689167	0,1	0,155594
0,690833	0,1	0,167435
0,692500	0,1	0,177577
0,694167	0,1	0,144369
0,695833	0,1	0,168486
0,697500	0,1	0,166963
0,699167	0,1	0,158978
0,700833	0,1	0,181527
0,702500	0,1	0,169823
0,704167	0,1	0,215707
0,705833	0,1	0,173880
0,707500	0,1	0,203793
0,709167	0,1	0,191984
0,710833	0,1	0,188318
0,712500	0,1	0,182852
0,714167	0,1	0,176191
0,715833	0,1	0,184404
0,717500	0,1	0,187156
0,719167	0,1	0,212857
0,720833	0,1	0,241227
0,722500	0,1	0,221435
0,724167	0,1	0,183440
0,725833	0,1	0,264565
0,727500	0,1	0,234331
0,729167	0,1	0,211874
0,730833	0,1	0,247171
0,732500	0,1	0,202153
0,734167	0,1	0,258093
0,735833	0,1	0,226300
0,737500	0,1	0,226563
0,739167	0,1	0,233910
0,740833	0,1	0,263521
0,742500	0,1	0,210038
0,744167	0,1	0,229951
0,745833	0,1	0,242538
0,747500	0,1	0,240119
0,749167	0,1	0,221393
0,750833	0,1	0,224805
0,752500	0,1	0,215493
0,754167	0,1	0,247810
0,755833	0,1	0,221499
0,757500	0,1	0,223005
0,759167	0,1	0,211810
0,760833	0,1	0,204130
0,762500	0,1	0,243420
0,764167	0,1	0,189095
0,765833	0,1	0,243522
0,767500	0,1	0,220215
0,769167	0,1	0,232914
0,770833	0,1	0,208519
0,772500	0,1	0,179527
0,774167	0,1	0,204473
0,775833	0,1	0,219337
0,777500	0,1	0,233637
0,779167	0,1	0,185367
0,780833	0,1	0,232388
0,782500	0,1	0,189445
0,784167	0,1	0,173443
0,785833	0,1	0,208776
0,787500	0,1	0,180625
0,789167	0,1	0,198745
0,790833	0,1	0,183707
0,792500	0,1	0,199404
0,794167	0,1	0,202141
0,795833	0,1	0,171874
0,797500	0,1	0,180863
0,799167	0,1	0,196821
0,800833	0,1	0,148785
0,802500	0,1	0,182350
0,804167	0,1	0,172527
0,805833	0,1	0,182067
0,807500	0,1	0,143010
0,809167	0,1	0,201898
0,810833	0,1	0,164758
0,812500	0,1	0,198988
0,814167	0,1	0,203239
0,815833	0,1	0,168088
0,817500	0,1	0,144535
0,819167	0,1	0,200492
0,820833	0,1	0,188407
0,822500	0,1	0,163700
0,824167	0,1	0,172488
0,825833	0,1	0,172324
0,827500	0,1	0,154429
0,829167	0,1	0,152912
0,830833	0,1	0,177221
0,832500	0,1	0,159085
0,834167	0,1	0,204266
0,835833	0,1	0,175143
0,837500	0,1	0,161027
0,839167	0,1	0,149111
0,840833	0,1	0,142499
0,842500	0,1	0,181111
0,844167	0,1	0,185215
0,845833	0,1	0,167838
0,847500	0,1	0,141951
0,849167	0,1	0,164330
0,850833	0,1	0,179024
0,852500	0,1	0,141313
0,854167	0,1	0,187875
0,855833	0,1	0,192042
0,857500	0,1	0,129791
0,859167	0,1	0,167015
0,860833	0,1	0,178691
0,862500	0,1	0,186329
0,864167	0,1	0,189793
0,865833	0,1	0,214676
0,867500	0,1	0,156836
0,869167	0,1	0,195549
0,870833	0,1	0,227155
0,872500	0,1	0,245332
0,874167	0,1	0,171594
0,875833	0,1	0,189200
0,877500	0,1	0,194442
0,879167	0,1	0,192043
0,880833	0,1	0,178865
0,882500	0,1	0,195123
0,884167	0,1	0,198810
0,885833	0,1	0,161717
0,887500	0,1	0,237040
0,889167	0,1	0,163561
0,890833	0,1	0,192363
0,892500	0,1	0,212612
0,894167	0,1	0,238976
0,895833	0,1	0,185702
0,897500	0,1	0,202964
0,899167	0,1	0,199162
0,900833	0,1	0,187678
0,902500	0,1	0,206690
0,904167	0,1	0,197073
0,905833	0,1	0,218299
0,907500	0,1	0,231422
0,909167	0,1	0,252204
0,910833	0,1	0,192550
0,912500	0,1	0,240481
0,914167	0,1	0,220049
0,915833	0,1	0,253772
0,917500	0,1	0,219867
0,919167	0,1	0,199597
0,920833	0,1	0,231646
0,922500	0,1	0,206182
0,924167	0,1	0,230303
0,925833	0,1	0,225898
0,927500	0,1	0,271694
0,929167	0,1	0,241450
0,930833	0,1	0,252224
0,932500	0,1	0,260795
0,934167	0,1	0,274495
0,935833	0,1	0,202591
0,937500	0,1	0,245986
0,939167	0,1	0,264081
0,940833	0,1	0,303778
0,942500	0,1	0,255428
0,944167	0,1	0,238901
0,945833	0,1	0,264535
0,947500	0,1	0,281986
0,949167	0,1	0,231752
0,950833	0,1	0,248973
0,952500	0,1	0,281136
0,954167	0,1	0,274065
0,955833	0,1	0,238782
0,957500	0,1	0,260150
0,959167	0,1	0,304707
0,960833	0,1	0,291122
0,962500	0,1	0,247290
0,964167	0,1	0,255224
0,965833	0,1	0,299118
0,967500	0,1	0,329923
0,969167	0,1	0,309630
0,970833	0,1	0,320531
0,972500	0,1	0,350769
0,974167	0,1	0,271786
0,975833	0,1	0,285774
0,977500	0,1	0,335985
0,979167	0,1	0,303359
0,980833	0,1	0,294599
0,982500	0,1	0,342011
0,984167	0,1	0,323416
0,985833	0,1	0,360767
0,987500	0,1	0,296764
0,989167	0,1	0,353828
0,990833	0,1	0,355829
0,992500	0,1	0,310402
0,994167	0,1	0,377241
0,995833	0,1	0,364157
0,997500	0,1	0,370360
0,999167	0,1	0,362992
1,000833	0,1	0,375225
1,002500	0,1	0,413933
1,004167	0,1	0,423693
1,005833	0,1	0,383644
1,007500	0,1	0,422856
1,009167	0,1	0,411856
1,010833	0,1	0,435206
1,012500	0,1	0,460115
1,014167	0,1	0,469824
1,015833	0,1	0,491922
1,017500	0,1	0,473567
1,019167	0,1	0,489836
1,020833	0,1	0,484100
1,022500	0,1	0,527003
1,024167	0,1	0,505352
1,025833	0,1	0,505700
1,027500	0,1	0,530091
1,029167	0,1	0,573592
1,030833	0,1	0,561912
1,032500	0,1	0,532708
1,034167	0,1	0,571496
1,035833	0,1	0,599145
1,037500	0,1	0,599730
1,039167	0,1	0,579731
1,040833	0,1	0,658282
1,042500	0,1	0,638074
1,044167	0,1	0,610746
1,045833	0,1	0,591994
1,047500	0,1	0,652213
1,049167	0,1	0,628569
1,050833	0,1	0,715468
1,052500	0,1	0,673847
1,054167	0,1	0,741393
1,055833	0,1	0,780039
1,057500	0,1	0,866054
1,059167	0,1	0,932084
1,060833	0,1	1,000629
1,062500	0,1	1,100389
1,064167	0,1	1,307802
1,065833	0,1	1,454978
1,067500	0,1	1,788720
1,069167	0,1	2,096550
1,070833	0,1	2,527663
1,072500	0,1	3,002624
1,074167	0,1	3,641154
1,075833	0,1	4,374645
1,077500	0,1	5,194721
1,079167	0,1	6,225711
1,080833	0,1	7,372393
1,082500	0,1	8,669104
1,084167	0,1	10,049291
1,085833	0,1	11,579078
1,087500	0,1	13,296497
1,089167	0,1	15,022600
1,090833	0,1	16,835159
1,092500	0,1	18,758140
1,094167	0,1	20,744367
1,095833	0,1	22,671007
1,097500	0,1	24,570176
1,099167	0,1	26,369013
1,100833	0,1	28,149172
1,102500	0,1	29,809662
1,104167	0,1	31,313996
1,105833	0,1	32,633806
1,107500	0,1	33,849545
1,109167	0,1	34,890328
1,110833	0,1	35,820043
1,112500	0,1	36,486136
1,114167	0,1	37,143627
1,115833	0,1	37,535500
1,117500	0,1	37,859574
1,119167	0,1	38,094036
1,120833	0,1	38,200010
1,122500	0,1	38,211054
1,124167	0,1	38,205444
1,125833	0,1	38,233640
1,127500	0,1	38,133083
1,129167	0,1	38,067051
1,130833	0,1	37,950188
1,132500	0,1	37,954576
1,134167	0,1	37,964364
1,135833	0,1	37,976751
1,137500	0,1	38,108327
1,139167	0,1	38,303651
1,140833	0,1	38,505158
1,142500	0,1	38,820129
1,144167	0,1	39,262563
1,145833	0,1	39,810786
1,147500	0,1	40,402130
1,149167	0,1	41,179939
1,150833	0,1	42,026511
1,152500	0,1	42,935997
1,154167	0,1	43,923253
1,155833	0,1	45,067466
1,157500	0,1	46,266827
1,159167	0,1	47,579855
1,160833	0,1	48,890191
1,162500	0,1	50,274699
1,164167	0,1	51,583049
1,165833	0,1	53,007193
1,167500	0,1	54,374837
1,169167	0,1	55,781576
1,170833	0,1	57,093584
1,172500	0,1	58,370842
1,174167	0,1	59,550659
1,175833	0,1	60,733878
1,177500	0,1	61,758589
1,179167	0,1	62,694960
1,180833	0,1	63,609988
1,182500	0,1	64,329202
1,184167	0,1	65,030323
1,185833	0,1	65,600327
1,187500	0,1	66,058737
1,189167	0,1	66,481179
1,190833	0,1	66,828975
1,192500	0,1	67,121188
1,194167	0,1	67,353430
1,195833	0,1	67,566354
1,197500	0,1	67,858803
1,199167	0,1	68,165014
1,200833	0,1	68,514523
1,202500	0,1	68,910951
1,204167	0,1	69,430604
1,205833	0,1	70,085916
1,207500	0,1	70,868292
1,209167	0,1	71,815784
1,210833	0,1	72,897252
1,212500	0,1	74,219549
1,214167	0,1	75,731321
1,215833	0,1	77,374156
1,217500	0,1	79,293562
1,219167	0,1	81,254501
1,220833	0,1	83,413279
1,222500	0,1	85,716027
1,224167	0,1	88,082650
1,225833	0,1	90,512100
1,227500	0,1	92,971476
1,229167	0,1	95,470443
1,230833	0,1	97,979601
1,232500	0,1	100,345825
1,234167	0,1	102,652717
1,235833	0,1	104,893456
1,237500	0,1	107,008209
1,239167	0,1	108,856579
1,240833	0,1	110,642906
1,242500	0,1	112,164297
1,244167	0,1	113,542820
1,245833	0,1	114,670094
1,247500	0,1	115,591304
1,249167	0,1	116,254689
1,250833	0,1	116,715091
1,252500	0,1	117,016138
1,254167	0,1	117,045773
1,255833	0,1	116,833847
1,257500	0,1	116,390568
1,259167	0,1	115,727422
1,260833	0,1	114,941825
1,262500	0,1	113,936268
1,264167	0,1	112,722974
1,265833	0,1	111,350884
1,267500	0,1	109,786847
1,269167	0,1	108,090434
1,270833	0,1	106,191010
1,272500	0,1	104,297913
1,274167	0,1	102,182276
1,275833	0,1	99,992638
1,277500	0,1	97,715922
1,279167	0,1	95,374148
1,280833	0,1	92,978129
1,282500	0,1	90,486429
1,284167	0,1	88,024082
1,285833	0,1	85,523275
1,287500	0,1	83,034893
1,289167	0,1	80,557786
1,290833	0,1	78,054398
1,292500	0,1	75,572598
1,294167	0,1	73,185063
1,295833	0,1	70,814298
1,297500	0,1	68,461894
1,299167	0,1	66,207216
1,300833	0,1	63,988016
1,302500	0,1	61,867805
1,304167	0,1	59,742781
1,305833	0,1	57,697849
1,307500	0,1	55,779336
1,309167	0,1	53,874505
1,310833	0,1	52,091718
1,312500	0,1	50,351347
1,314167	0,1	48,666140
1,315833	0,1	47,054355
1,317500	0,1	45,481490
1,319167	0,1	43,988467
1,320833	0,1	42,575796
1,322500	0,1	41,200298
1,324167	0,1	39,856747
1,325833	0,1	38,597088
1,327500	0,1	37,424490
1,329167	0,1	36,226528
1,330833	0,1	35,107312
1,332500	0,1	34,027818
1,334167	0,1	33,060889
1,335833	0,1	32,060502
1,337500	0,1	31,078340
1,339167	0,1	30,129773
1,340833	0,1	29,256074
1,342500	0,1	28,377420
1,344167	0,1	27,609488
1,345833	0,1	26,805036
1,347500	0,1	25,991668
1,349167	0,1	25,333079
1,350833	0,1	24,585741
1,352500	0,1	23,907230
1,354167	0,1	23,233597
1,355833	0,1	22,590138
1,357500	0,1	22,006928
1,359167	0,1	21,406107
1,360833	0,1	20,817326
1,362500	0,1	20,276867
1,364167	0,1	19,743106
1,365833	0,1	19,220530
1,367500	0,1	18,701963
1,369167	0,1	18,263035
1,370833	0,1	17,780966
1,372500	0,1	17,303087
1,374167	0,1	16,901809
1,375833	0,1	16,459747
1,377500	0,1	16,049407
1,379167	0,1	15,665910
1,380833	0,1	15,291124
1,382500	0,1	14,930456
1,384167	0,1	14,573276
1,385833	0,1	14,261830
1,387500	0,1	13,898440
1,389167	0,1	13,611899
1,390833	0,1	13,293980
1,392500	0,1	13,010483
1,394167	0,1	12,754798
1,395833	0,1	12,470920
1,397500	0,1	12,214628
1,399167	0,1	11,977446
1,400833	0,1	11,748269
1,402500	0,1	11,523233
1,404167	0,1	11,296712
1,405833	0,1	11,086486
1,407500	0,1	10,898602
1,409167	0,1	10,711464
1,410833	0,1	10,473604
1,412500	0,1	10,368417
1,414167	0,1	10,183228
1,415833	0,1	10,041043
1,417500	0,1	9,896487
1,419167	0,1	9,750373
1,420833	0,1	9,556270
1,422500	0,1	9,436617
1,424167	0,1	9,324086
1,425833	0,1	9,195899
1,427500	0,1	9,076272
1,429167	0,1	8,963387
1,430833	0,1	8,812153
1,432500	0,1	8,708048
1,434167	0,1	8,618259
1,435833	0,1	8,491966
1,437500	0,1	8,366056
1,439167	0,1	8,284159
1,440833	0,1	8,174193
1,442500	0,1	8,106800
1,444167	0,1	7,994332
1,445833	0,1	7,857779
1,447500	0,1	7,772697
1,449167	0,1	7,778720
1,450833	0,1	7,615311
1,452500	0,1	7,501393
1,454167	0,1	7,471356
1,455833	0,1	7,396074
1,457500	0,1	7,332804
1,459167	0,1	7,243381
1,460833	0,1	7,192516
1,462500	0,1	7,137946
1,464167	0,1	7,024079
1,465833	0,1	7,005162
1,467500	0,1	6,902407
1,469167	0,1	6,831202
1,470833	0,1	6,859111
1,472500	0,1	6,776585
1,474167	0,1	6,730409
1,475833	0,1	6,732185
1,477500	0,1	6,681214
1,479167	0,1	6,654228
1,480833	0,1	6,646131
1,482500	0,1	6,587454
1,484167	0,1	6,576534
1,485833	0,1	6,618690
1,487500	0,1	6,597670
1,489167	0,1	6,582784
1,490833	0,1	6,602599
1,492500	0,1	6,569789
1,494167	0,1	6,554781
1,495833	0,1	6,585569
1,497500	0,1	6,594219
1,499167	0,1	6,607248
1,500833	0,1	6,615423
1,502500	0,1	6,638870
1,504167	0,1	6,671534
1,505833	0,1	6,681760
1,507500	0,1	6,662113
1,509167	0,1	6,700366
1,510833	0,1	6,739440
1,512500	0,1	6,786606
1,514167	0,1	6,746508
1,515833	0,1	6,770222
1,517500	0,1	6,783539
1,519167	0,1	6,821227
1,520833	0,1	6,854268
1,522500	0,1	6,807941
1,524167	0,1	6,826899
1,525833	0,1	6,818906
1,527500	0,1	6,872218
1,529167	0,1	6,849813
1,530833	0,1	6,846168
1,532500	0,1	6,870266
1,534167	0,1	6,835575
1,535833	0,1	6,841064
1,537500	0,1	6,827657
1,539167	0,1	6,823095
1,540833	0,1	6,800111
1,542500	0,1	6,777685
1,544167	0,1	6,776475
1,545833	0,1	6,709220
1,547500	0,1	6,689753
1,549167	0,1	6,743254
1,550833	0,1	6,657509
1,552500	0,1	6,657586
1,554167	0,1	6,623337
1,555833	0,1	6,574050
1,557500	0,1	6,582880
1,559167	0,1	6,552090
1,560833	0,1	6,507827
1,562500	0,1	6,495093
1,564167	0,1	6,418229
1,565833	0,1	6,429260
1,567500	0,1	6,410291
1,569167	0,1	6,352754
1,570833	0,1	6,328622
1,572500	0,1	6,226175
1,574167	0,1	6,244687
1,575833	0,1	6,226733
1,577500	0,1	6,151927
1,579167	0,1	6,108169
1,580833	0,1	6,095525
1,582500	0,1	6,042775
1,584167	0,1	6,013685
1,585833	0,1	5,925735
1,587500	0,1	5,875976
1,589167	0,1	5,851272
1,590833	0,1	5,839614
1,592500	0,1	5,761556
1,594167	0,1	5,732109
1,595833	0,1	5,713786
1,597500	0,1	5,666967
1,599167	0,1	5,575587
1,600833	0,1	5,563729
1,602500	0,1	5,555899
1,604167	0,1	5,496639
1,605833	0,1	5,408448
1,607500	0,1	5,429960
1,609167	0,1	5,354190
1,610833	0,1	5,311110
1,612500	0,1	5,276224
1,614167	0,1	5,280730
1,615833	0,1	5,217367
1,617500	0,1	5,194358
1,619167	0,1	5,187332
1,620833	0,1	5,109865
1,622500	0,1	5,071525
1,624167	0,1	5,054086
1,625833	0,1	5,000365
1,627500	0,1	4,946942
1,629167	0,1	4,935776
1,630833	0,1	4,890633
1,632500	0,1	4,866314
1,634167	0,1	4,823756
1,635833	0,1	4,768117
1,637500	0,1	4,757084
1,639167	0,1	4,759959
1,640833	0,1	4,713539
1,642500	0,1	4,631590
1,644167	0,1	4,620473
1,645833	0,1	4,609211
1,647500	0,1	4,587302
1,649167	0,1	4,578389
1,650833	0,1	4,539391
1,652500	0,1	4,555578
1,654167	0,1	4,518898
1,655833	0,1	4,480589
1,657500	0,1	4,466410
1,659167	0,1	4,466852
1,660833	0,1	4,490741
1,662500	0,1	4,423904
1,664167	0,1	4,515185
1,665833	0,1	4,446623
1,667500	0,1	4,456038
1,669167	0,1	4,461712
1,670833	0,1	4,494299
1,672500	0,1	4,524471
1,674167	0,1	4,504841
1,675833	0,1	4,554640
1,677500	0,1	4,586641
1,679167	0,1	4,626576
1,680833	0,1	4,688101
1,682500	0,1	4,692090
1,684167	0,1	4,731431
1,685833	0,1	4,788473
1,687500	0,1	4,844929
1,689167	0,1	4,917960
1,690833	0,1	4,947289
1,692500	0,1	5,049349
1,694167	0,1	5,129524
1,695833	0,1	5,173743
1,697500	0,1	5,240981
1,699167	0,1	5,283009
1,700833	0,1	5,371453
1,702500	0,1	5,451517
1,704167	0,1	5,500680
1,705833	0,1	5,597923
1,707500	0,1	5,678872
1,709167	0,1	5,714549
1,710833	0,1	5,828101
1,712500	0,1	5,904720
1,714167	0,1	5,975689
1,715833	0,1	6,102275
1,717500	0,1	6,161122
1,719167	0,1	6,166885
1,720833	0,1	6,214253
1,722500	0,1	6,281921
1,724167	0,1	6,357126
1,725833	0,1	6,391022
1,727500	0,1	6,460015
1,729167	0,1	6,565210
1,730833	0,1	6,505865
1,732500	0,1	6,551520
1,734167	0,1	6,584345
1,735833	0,1	6,644060
1,737500	0,1	6,682502
1,739167	0,1	6,701203
1,740833	0,1	6,665843
1,742500	0,1	6,695323
1,744167	0,1	6,684551
1,745833	0,1	6,729735
1,747500	0,1	6,700835
1,749167	0,1	6,694227
1,750833	0,1	6,680644
1,752500	0,1	6,622844
1,754167	0,1	6,618112
1,755833	0,1	6,596920
1,757500	0,1	6,588834
1,759167	0,1	6,568283
1,760833	0,1	6,521947
1,762500	0,1	6,501030
1,764167	0,1	6,440506
1,765833	0,1	6,381309
1,767500	0,1	6,340770
1,769167	0,1	6,292713
1,770833	0,1	6,239279
1,772500	0,1	6,233886
1,774167	0,1	6,158923
1,775833	0,1	6,081338
1,777500	0,1	6,005893
1,779167	0,1	5,973336
1,780833	0,1	5,893707
1,782500	0,1	5,772551
1,784167	0,1	5,699308
1,785833	0,1	5,682819
1,787500	0,1	5,570497
1,789167	0,1	5,510533
1,790833	0,1	5,466312
1,792500	0,1	5,392186
1,794167	0,1	5,336995
1,795833	0,1	5,239442
1,797500	0,1	5,214677
1,799167	0,1	5,114844
1,800833	0,1	5,041073
1,802500	0,1	4,934548
1,804167	0,1	4,896903
1,805833	0,1	4,836436
1,807500	0,1	4,767151
1,809167	0,1	4,707581
1,810833	0,1	4,643089
1,812500	0,1	4,611283
1,814167	0,1	4,461826
1,815833	0,1	4,406817
1,817500	0,1	4,383334
1,819167	0,1	4,288444
1,820833	0,1	4,220700
1,822500	0,1	4,180787
1,824167	0,1	4,100567
1,825833	0,1	4,042716
1,827500	0,1	3,981339
1,829167	0,1	3,912228
1,830833	0,1	3,902274
1,832500	0,1	3,807320
1,834167	0,1	3,780107
1,835833	0,1	3,748413
1,837500	0,1	3,710491
1,839167	0,1	3,683296
1,840833	0,1	3,633298
1,842500	0,1	3,610615
1,844167	0,1	3,591426
1,845833	0,1	3,576957
1,847500	0,1	3,595910
1,849167	0,1	3,582909
1,850833	0,1	3,603306
1,852500	0,1	3,652751
1,854167	0,1	3,639832
1,855833	0,1	3,698849
1,857500	0,1	3,715183
1,859167	0,1	3,720408
1,860833	0,1	3,785779
1,862500	0,1	3,792467
1,864167	0,1	3,892903
1,865833	0,1	3,878390
1,867500	0,1	3,925325
1,869167	0,1	3,995153
1,870833	0,1	4,032004
1,872500	0,1	4,049610
1,874167	0,1	4,124117
1,875833	0,1	4,185533
1,877500	0,1	4,173658
1,879167	0,1	4,257335
1,880833	0,1	4,259413
1,882500	0,1	4,303122
1,884167	0,1	4,360763
1,885833	0,1	4,349155
1,887500	0,1	4,399624
1,889167	0,1	4,416924
1,890833	0,1	4,485953
1,892500	0,1	4,482285
1,894167	0,1	4,516370
1,895833	0,1	4,531887
1,897500	0,1	4,543996
1,899167	0,1	4,576231
1,900833	0,1	4,624264
1,902500	0,1	4,659429
1,904167	0,1	4,698037
1,905833	0,1	4,697681
1,907500	0,1	4,773064
1,909167	0,1	4,773090
1,910833	0,1	4,802615
1,912500	0,1	4,832498
1,914167	0,1	4,837116
1,915833	0,1	4,841582
1,917500	0,1	4,922072
1,919167	0,1	4,892492
1,920833	0,1	4,920082
1,922500	0,1	4,921938
1,924167	0,1	4,916730
1,925833	0,1	4,933340
1,927500	0,1	4,993306
1,929167	0,1	4,975873
1,930833	0,1	4,997187
1,932500	0,1	5,046185
1,934167	0,1	5,022615
1,935833	0,1	5,023424
1,937500	0,1	5,044128
1,939167	0,1	5,070128
1,940833	0,1	5,046153
1,942500	0,1	5,068048
1,944167	0,1	5,119414
1,945833	0,1	5,072291
1,947500	0,1	5,086101
1,949167	0,1	5,145470
1,950833	0,1	5,138944
1,952500	0,1	5,139738
1,954167	0,1	5,173683
1,955833	0,1	5,153307
1,957500	0,1	5,220473
1,959167	0,1	5,215519
1,960833	0,1	5,186039
1,962500	0,1	5,220930
1,964167	0,1	5,268643
1,965833	0,1	5,257342
1,967500	0,1	5,263323
1,969167	0,1	5,339307
1,970833	0,1	5,348327
1,972500	0,1	5,354056
1,974167	0,1	5,380642
1,975833	0,1	5,416745
1,977500	0,1	5,425871
1,979167	0,1	5,409305
1,980833	0,1	5,483534
1,982500	0,1	5,515588
1,984167	0,1	5,550976
1,985833	0,1	5,576788
1,987500	0,1	5,601164
1,989167	0,1	5,620420
1,990833	0,1	5,649799
1,992500	0,1	5,704734
1,994167	0,1	5,698807
1,995833	0,1	5,756912
1,997500	0,1	5,798548
1,999167	0,1	5,829984
2,000833	0,1	5,852560
2,002500	0,1	5,910923
2,004167	0,1	5,955581
2,005833	0,1	5,973643
2,007500	0,1	6,017531
2,009167	0,1	6,073379
2,010833	0,1	6,079982
2,012500	0,1	6,120577
2,014167	0,1	6,166313
2,015833	0,1	6,227542
2,017500	0,1	6,276438
2,019167	0,1	6,320297
2,020833	0,1	6,350793
2,022500	0,1	6,403791
2,024167	0,1	6,447183
2,025833	0,1	6,472402
2,027500	0,1	6,531696
2,029167	0,1	6,572747
2,030833	0,1	6,639591
2,032500	0,1	6,682195
2,034167	0,1	6,715890
2,035833	0,1	6,774870
2,037500	0,1	6,824267
2,039167	0,1	6,871282
2,040833	0,1	6,929917
2,042500	0,1	6,965482
2,044167	0,1	7,016025
2,045833	0,1	7,078499
2,047500	0,1	7,127294
2,049167	0,1	7,170047
2,050833	0,1	7,232725
2,052500	0,1	7,304918
2,054167	0,1	7,341073
2,055833	0,1	7,395297
2,057500	0,1	7,444128
2,059167	0,1	7,470044
2,060833	0,1	7,525210
2,062500	0,1	7,587575
2,064167	0,1	7,602693
2,065833	0,1	7,649398
2,067500	0,1	7,696665
2,069167	0,1	7,759224
2,070833	0,1	7,783945
2,072500	0,1	7,824159
2,074167	0,1	7,905484
2,075833	0,1	7,933684
2,077500	0,1	7,953451
2,079167	0,1	7,999721
2,080833	0,1	8,050491
2,082500	0,1	8,076725
2,084167	0,1	8,101537
2,085833	0,1	8,133453
2,087500	0,1	8,184220
2,089167	0,1	8,232136
2,090833	0,1	8,256878
2,092500	0,1	8,262833
2,094167	0,1	8,283121
2,095833	0,1	8,356286
2,097500	0,1	8,344456
2,099167	0,1	8,442316
2,100833	0,1	8,417222
2,102500	0,1	8,440256
2,104167	0,1	8,493527
2,105833	0,1	8,459447
2,107500	0,1	8,492895
2,109167	0,1	8,527912
2,110833	0,1	8,544722
2,112500	0,1	8,589090
2,114167	0,1	8,585853
2,115833	0,1	8,617318
2,117500	0,1	8,600286
2,119167	0,1	8,645920
2,120833	0,1	8,650807
2,122500	0,1	8,661372
2,124167	0,1	8,638801
2,125833	0,1	8,687986
2,127500	0,1	8,615124
2,129167	0,1	8,721039
2,130833	0,1	8,717915
2,132500	0,1	8,683270
2,134167	0,1	8,711599
2,135833	0,1	8,710952
2,137500	0,1	8,669254
2,139167	0,1	8,710763
2,140833	0,1	8,656273
2,142500	0,1	8,679189
2,144167	0,1	8,673166
2,145833	0,1	8,671444
2,147500	0,1	8,672495
2,149167	0,1	8,688093
2,150833	0,1	8,637994
2,152500	0,1	8,691654
2,154167	0,1	8,693109
2,155833	0,1	8,595984
2,157500	0,1	8,677568
2,159167	0,1	8,613041
2,160833	0,1	8,600124
2,162500	0,1	8,573311
2,164167	0,1	8,595360
2,165833	0,1	8,571270
2,167500	0,1	8,526783
2,169167	0,1	8,549577
2,170833	0,1	8,526144
2,172500	0,1	8,495526
2,174167	0,1	8,502834
2,175833	0,1	8,464696
2,177500	0,1	8,460236
2,179167	0,1	8,446936
2,180833	0,1	8,446917
2,182500	0,1	8,404248
2,184167	0,1	8,423831
2,185833	0,1	8,365680
2,187500	0,1	8,383789
2,189167	0,1	8,330086
2,190833	0,1	8,279297
2,192500	0,1	8,265856
2,194167	0,1	8,263879
2,195833	0,1	8,260234
2,197500	0,1	8,255367
2,199167	0,1	8,215624
2,200833	0,1	8,196598
2,202500	0,1	8,168195
2,204167	0,1	8,216491
2,205833	0,1	8,166811
2,207500	0,1	8,119765
2,209167	0,1	8,120613
2,210833	0,1	8,121520
2,212500	0,1	8,122536
2,214167	0,1	8,103630
2,215833	0,1	8,052172
2,217500	0,1	8,074849
2,219167	0,1	8,061418
2,220833	0,1	8,048630
2,222500	0,1	8,058727
2,224167	0,1	8,082132
2,225833	0,1	8,104793
2,227500	0,1	8,057047
2,229167	0,1	8,074487
2,230833	0,1	8,055564
2,232500	0,1	8,061787
2,234167	0,1	8,091653
2,235833	0,1	8,101178
2,237500	0,1	8,103503
2,239167	0,1	8,075611
2,240833	0,1	8,143536
2,242500	0,1	8,115841
2,244167	0,1	8,106883
2,245833	0,1	8,136817
2,247500	0,1	8,176381
2,249167	0,1	8,148689
2,250833	0,1	8,170602
2,252500	0,1	8,142797
2,254167	0,1	8,184237
2,255833	0,1	8,180701
2,257500	0,1	8,198173
2,259167	0,1	8,193105
2,260833	0,1	8,200582
2,262500	0,1	8,220529
2,264167	0,1	8,235590
2,265833	0,1	8,183132
2,267500	0,1	8,221471
2,269167	0,1	8,194348
2,270833	0,1	8,221474
2,272500	0,1	8,200046
2,274167	0,1	8,194522
2,275833	0,1	8,189656
2,277500	0,1	8,175756
2,279167	0,1	8,177810
2,280833	0,1	8,167023
2,282500	0,1	8,146365
2,284167	0,1	8,092520
2,285833	0,1	8,120886
2,287500	0,1	8,139531
2,289167	0,1	8,070758
2,290833	0,1	8,097509
2,292500	0,1	8,103114
2,294167	0,1	8,055654
2,295833	0,1	8,016725
2,297500	0,1	8,004877
2,299167	0,1	8,014368
2,300833	0,1	7,947028
2,302500	0,1	7,937527
2,304167	0,1	7,941775
2,305833	0,1	7,935191
2,307500	0,1	7,888345
2,309167	0,1	7,915562
2,310833	0,1	7,854862
2,312500	0,1	7,841305
2,314167	0,1	7,800849
2,315833	0,1	7,812882
2,317500	0,1	7,781642
2,319167	0,1	7,757104
2,320833	0,1	7,725786
2,322500	0,1	7,703576
2,324167	0,1	7,703386
2,325833	0,1	7,650063
2,327500	0,1	7,637463
2,329167	0,1	7,577825
2,330833	0,1	7,597468
2,332500	0,1	7,584793
2,334167	0,1	7,529893
2,335833	0,1	7,506591
2,337500	0,1	7,493909
2,339167	0,1	7,453564
2,340833	0,1	7,404173
2,342500	0,1	7,435088
2,344167	0,1	7,373988
2,345833	0,1	7,384871
2,347500	0,1	7,323395
2,349167	0,1	7,303542
2,350833	0,1	7,267679
2,352500	0,1	7,311351
2,354167	0,1	7,205754
2,355833	0,1	7,212804
2,357500	0,1	7,164106
2,359167	0,1	7,169123
2,360833	0,1	7,167265
2,362500	0,1	7,125650
2,364167	0,1	7,032999
2,365833	0,1	7,100942
2,367500	0,1	7,022205
2,369167	0,1	7,046197
2,370833	0,1	7,015586
2,372500	0,1	6,948834
2,374167	0,1	6,946313
2,375833	0,1	6,931421
2,377500	0,1	6,936446
2,379167	0,1	6,924809
2,380833	0,1	6,885076
2,382500	0,1	6,840594
2,384167	0,1	6,853604
2,385833	0,1	6,860229
2,387500	0,1	6,845251
2,389167	0,1	6,811474
2,390833	0,1	6,826921
2,392500	0,1	6,780484
2,394167	0,1	6,778807
2,395833	0,1	6,762982
2,397500	0,1	6,737956
2,399167	0,1	6,770417
2,400833	0,1	6,696469
2,402500	0,1	6,689397
2,404167	0,1	6,687425
2,405833	0,1	6,697100
2,407500	0,1	6,682598
2,409167	0,1	6,678706
2,410833	0,1	6,653558
2,412500	0,1	6,629936
2,414167	0,1	6,649832
2,415833	0,1	6,619519
2,417500	0,1	6,595898
2,419167	0,1	6,576365
2,420833	0,1	6,611411
2,422500	0,1	6,585772
2,424167	0,1	6,566770
2,425833	0,1	6,609194
2,427500	0,1	6,617306
2,429167	0,1	6,593395
2,430833	0,1	6,552633
2,432500	0,1	6,552464
2,434167	0,1	6,574963
2,435833	0,1	6,535625
2,437500	0,1	6,547724
2,439167	0,1	6,563438
2,440833	0,1	6,574797
2,442500	0,1	6,525863
2,444167	0,1	6,523360
2,445833	0,1	6,528960
2,447500	0,1	6,513611
2,449167	0,1	6,487106
2,450833	0,1	6,477810
2,452500	0,1	6,492124
2,454167	0,1	6,465703
2,455833	0,1	6,463376
2,457500	0,1	6,470251
2,459167	0,1	6,431403
2,460833	0,1	6,442735
2,462500	0,1	6,408624
2,464167	0,1	6,391495
2,465833	0,1	6,409326
2,467500	0,1	6,423299
2,469167	0,1	6,433916
2,470833	0,1	6,353410
2,472500	0,1	6,381021
2,474167	0,1	6,311853
2,475833	0,1	6,332193
2,477500	0,1	6,339547
2,479167	0,1	6,364343
2,480833	0,1	6,292275
2,482500	0,1	6,301453
2,484167	0,1	6,278128
2,485833	0,1	6,256628
2,487500	0,1	6,245035
2,489167	0,1	6,258970
2,490833	0,1	6,215752
2,492500	0,1	6,198345
2,494167	0,1	6,198076
2,495833	0,1	6,143081
2,497500	0,1	6,177091
2,499167	0,1	6,136260
2,500833	0,1	6,125528
2,502500	0,1	6,150532
2,504167	0,1	6,122209
2,505833	0,1	6,049720
2,507500	0,1	6,075162
2,509167	0,1	6,071901
2,510833	0,1	6,069228
2,512500	0,1	6,029555
2,514167	0,1	6,038751
2,515833	0,1	5,997870
2,517500	0,1	6,039606
2,519167	0,1	6,034048
2,520833	0,1	5,989195
2,522500	0,1	5,961283
2,524167	0,1	5,977195
2,525833	0,1	5,939658
2,527500	0,1	5,965713
2,529167	0,1	5,925832
2,530833	0,1	5,910331
2,532500	0,1	5,933074
2,534167	0,1	5,920644
2,535833	0,1	5,936587
2,537500	0,1	5,892445
2,539167	0,1	5,854093
2,540833	0,1	5,906589
2,542500	0,1	5,914835
2,544167	0,1	5,888147
2,545833	0,1	5,852120
2,547500	0,1	5,881874
2,549167	0,1	5,837002
2,550833	0,1	5,856527
2,552500	0,1	5,863484
2,554167	0,1	5,814515
2,555833	0,1	5,819765
2,557500	0,1	5,818553
2,559167	0,1	5,773746
2,560833	0,1	5,754394
2,562500	0,1	5,759241
2,564167	0,1	5,790037
2,565833	0,1	5,715459
2,567500	0,1	5,756288
2,569167	0,1	5,730722
2,570833	0,1	5,728163
2,572500	0,1	5,675844
2,574167	0,1	5,707496
2,575833	0,1	5,696303
2,577500	0,1	5,664756
2,579167	0,1	5,680790
2,580833	0,1	5,675645
2,582500	0,1	5,643206
2,584167	0,1	5,646923
2,585833	0,1	5,632035
2,587500	0,1	5,600895
2,589167	0,1	5,604612
2,590833	0,1	5,538633
2,592500	0,1	5,540284
2,594167	0,1	5,499175
2,595833	0,1	5,483193
2,597500	0,1	5,489678
2,599167	0,1	5,468340
2,600833	0,1	5,438981
2,602500	0,1	5,396525
2,604167	0,1	5,377802
2,605833	0,1	5,330924
2,607500	0,1	5,341550
2,609167	0,1	5,304533
2,610833	0,1	5,259069
2,612500	0,1	5,234965
2,614167	0,1	5,201919
2,615833	0,1	5,178448
2,617500	0,1	5,150315
2,619167	0,1	5,138580
2,620833	0,1	5,140491
2,622500	0,1	5,074741
2,624167	0,1	5,034961
2,625833	0,1	5,018370
2,627500	0,1	4,997846
2,629167	0,1	4,945561
2,630833	0,1	4,950571
2,632500	0,1	4,916193
2,634167	0,1	4,908098
2,635833	0,1	4,827492
2,637500	0,1	4,824962
2,639167	0,1	4,814753
2,640833	0,1	4,769293
2,642500	0,1	4,754008
2,644167	0,1	4,689192
2,645833	0,1	4,696469
2,647500	0,1	4,635555
2,649167	0,1	4,593018
2,650833	0,1	4,590862
2,652500	0,1	4,568590
2,654167	0,1	4,519064
2,655833	0,1	4,486338
2,657500	0,1	4,450181
2,659167	0,1	4,410819
2,660833	0,1	4,438910
2,662500	0,1	4,363786
2,664167	0,1	4,350939
2,665833	0,1	4,284119
2,667500	0,1	4,290949
2,669167	0,1	4,247200
2,670833	0,1	4,227164
2,672500	0,1	4,130618
2,674167	0,1	4,151117
2,675833	0,1	4,133850
2,677500	0,1	4,085986
2,679167	0,1	4,071198
2,680833	0,1	4,072111
2,682500	0,1	3,980620
2,684167	0,1	4,016421
2,685833	0,1	3,958275
2,687500	0,1	3,956498
2,689167	0,1	3,887797
2,690833	0,1	3,897227
2,692500	0,1	3,856681
2,694167	0,1	3,813517
2,695833	0,1	3,800521
2,697500	0,1	3,792188
2,699167	0,1	3,768645
2,700833	0,1	3,711320
2,702500	0,1	3,693980
2,704167	0,1	3,668136
2,705833	0,1	3,657708
2,707500	0,1	3,640172
2,709167	0,1	3,615218
2,710833	0,1	3,642748
2,712500	0,1	3,546513
2,714167	0,1	3,539874
2,715833	0,1	3,526509
2,717500	0,1	3,497441
2,719167	0,1	3,493291
2,720833	0,1	3,454703
2,722500	0,1	3,438901
2,724167	0,1	3,423027
2,725833	0,1	3,418216
2,727500	0,1	3,385983
2,729167	0,1	3,356387
2,730833	0,1	3,321016
2,732500	0,1	3,335036
2,734167	0,1	3,331087
2,735833	0,1	3,302828
2,737500	0,1	3,308560
2,739167	0,1	3,236019
2,740833	0,1	3,248770
2,742500	0,1	3,251449
2,744167	0,1	3,222142
2,745833	0,1	3,204412
2,747500	0,1	3,171680
2,749167	0,1	3,170033
2,750833	0,1	3,203978
2,752500	0,1	3,164489
2,754167	0,1	3,116148
2,755833	0,1	3,081914
2,757500	0,1	3,122299
2,759167	0,1	3,074367
2,760833	0,1	3,065688
2,762500	0,1	3,079147
2,764167	0,1	3,046446
2,765833	0,1	3,022276
2,767500	0,1	3,005337
2,769167	0,1	2,995934
2,770833	0,1	3,037610
2,772500	0,1	3,006842
2,774167	0,1	2,977999
2,775833	0,1	2,987029
2,777500	0,1	2,934331
2,779167	0,1	2,971811
2,780833	0,1	2,912098
2,782500	0,1	2,903676
2,784167	0,1	2,944317
2,785833	0,1	2,915743
2,787500	0,1	2,907402
2,789167	0,1	2,888978
2,790833	0,1	2,877511
2,792500	0,1	2,878284
2,794167	0,1	2,848109
2,795833	0,1	2,844074
2,797500	0,1	2,836550
2,799167	0,1	2,826730
2,800833	0,1	2,834604
2,802500	0,1	2,803207
2,804167	0,1	2,795814
2,805833	0,1	2,772592
2,807500	0,1	2,791797
2,809167	0,1	2,777319
2,810833	0,1	2,802268
2,812500	0,1	2,802408
2,814167	0,1	2,771072
2,815833	0,1	2,729212
2,817500	0,1	2,710566
2,819167	0,1	2,725535
2,820833	0,1	2,684834
2,822500	0,1	2,730694
2,824167	0,1	2,710057
2,825833	0,1	2,710634
2,827500	0,1	2,696509
2,829167	0,1	2,671280
2,830833	0,1	2,658078
2,832500	0,1	2,604839
2,834167	0,1	2,702643
2,835833	0,1	2,654150
2,837500	0,1	2,614797
2,839167	0,1	2,645458
2,840833	0,1	2,613143
2,842500	0,1	2,599880
2,844167	0,1	2,629614
2,845833	0,1	2,616287
2,847500	0,1	2,589413
2,849167	0,1	2,595855
2,850833	0,1	2,555592
2,852500	0,1	2,573351
2,854167	0,1	2,560957
2,855833	0,1	2,561664
2,857500	0,1	2,487728
2,859167	0,1	2,542091
2,860833	0,1	2,526124
2,862500	0,1	2,509282
2,864167	0,1	2,485924
2,865833	0,1	2,511638
2,867500	0,1	2,483201
2,869167	0,1	2,467649
2,870833	0,1	2,499454
2,872500	0,1	2,460416
2,874167	0,1	2,480037
2,875833	0,1	2,412128
2,877500	0,1	2,433030
2,879167	0,1	2,442993
2,880833	0,1	2,430890
2,882500	0,1	2,357825
2,884167	0,1	2,367046
2,885833	0,1	2,365257
2,887500	0,1	2,401216
2,889167	0,1	2,342277
2,890833	0,1	2,335599
2,892500	0,1	2,347632
2,894167	0,1	2,340402
2,895833	0,1	2,336172
2,897500	0,1	2,337176
2,899167	0,1	2,347778
2,900833	0,1	2,335747
2,902500	0,1	2,321702
2,904167	0,1	2,289830
2,905833	0,1	2,285531
2,907500	0,1	2,333230
2,909167	0,1	2,291343
2,910833	0,1	2,246580
2,912500	0,1	2,262824
2,914167	0,1	2,274065
2,915833	0,1	2,269061
2,917500	0,1	2,212778
2,919167	0,1	2,229445
2,920833	0,1	2,232453
2,922500	0,1	2,211195
2,924167	0,1	2,202383
2,925833	0,1	2,180540
2,927500	0,1	2,219559
2,929167	0,1	2,188784
2,930833	0,1	2,176389
2,932500	0,1	2,180978
2,934167	0,1	2,185126
2,935833	0,1	2,136442
2,937500	0,1	2,195274
2,939167	0,1	2,162209
2,940833	0,1	2,141162
2,942500	0,1	2,176589
2,944167	0,1	2,123555
2,945833	0,1	2,095258
2,947500	0,1	2,082375
2,949167	0,1	2,111712
2,950833	0,1	2,118162
2,952500	0,1	2,091965
2,954167	0,1	2,100124
2,955833	0,1	2,099622
2,957500	0,1	2,081802
2,959167	0,1	2,075496
2,960833	0,1	2,083091
2,962500	0,1	2,054813
2,964167	0,1	2,082436
2,965833	0,1	2,038205
2,967500	0,1	2,027878
2,969167	0,1	2,060883
2,970833	0,1	2,011443
2,972500	0,1	2,041983
2,974167	0,1	2,040197
2,975833	0,1	2,047003
2,977500	0,1	2,012857
2,979167	0,1	2,025166
2,980833	0,1	2,021468
2,982500	0,1	2,058663
2,984167	0,1	2,045012
2,985833	0,1	2,015094
2,987500	0,1	2,046569
2,989167	0,1	1,956685
2,990833	0,1	2,019495
2,992500	0,1	1,947157
2,994167	0,1	1,995661
2,995833	0,1	2,016440
2,997500	0,1	1,992110
2,999167	0,1	1,994897
3,000833	0,1	1,982375
3,002500	0,1	1,994469
3,004167	0,1	1,956672
3,005833	0,1	1,989937
3,007500	0,1	1,962964
3,009167	0,1	1,970189
3,010833	0,1	1,945510
3,012500	0,1	1,961041
3,014167	0,1	2,003759
3,015833	0,1	1,974707
3,017500	0,1	1,953528
3,019167	0,1	1,975489
3,020833	0,1	1,967338
3,022500	0,1	1,981713
3,024167	0,1	1,972631
3,025833	0,1	1,935545
3,027500	0,1	1,990228
3,029167	0,1	1,930259
3,030833	0,1	1,966544
3,032500	0,1	1,946084
3,034167	0,1	1,981935
3,035833	0,1	1,933705
3,037500	0,1	1,926907
3,039167	0,1	1,933749
3,040833	0,1	1,960105
3,042500	0,1	1,966891
3,044167	0,1	1,945293
3,045833	0,1	1,902328
3,047500	0,1	1,936331
3,049167	0,1	1,923538
3,050833	0,1	1,934057
3,052500	0,1	1,938042
3,054167	0,1	1,904933
3,055833	0,1	1,919321
3,057500	0,1	1,913152
3,059167	0,1	1,942346
3,060833	0,1	1,921587
3,062500	0,1	1,902621
3,064167	0,1	1,870223
3,065833	0,1	1,900340
3,067500	0,1	1,941263
3,069167	0,1	1,907510
3,070833	0,1	1,923750
3,072500	0,1	1,916304
3,074167	0,1	1,865065
3,075833	0,1	1,891246
3,077500	0,1	1,883236
3,079167	0,1	1,903394
3,080833	0,1	1,875145
3,082500	0,1	1,878012
3,084167	0,1	1,871643
3,085833	0,1	1,927239
3,087500	0,1	1,927757
3,089167	0,1	1,914659
3,090833	0,1	1,918462
3,092500	0,1	1,901354
3,094167	0,1	1,905421
3,095833	0,1	1,896969
3,097500	0,1	1,919367
3,099167	0,1	1,925030
3,100833	0,1	1,897332
3,102500	0,1	1,961593
3,104167	0,1	1,941428
3,105833	0,1	1,937123
3,107500	0,1	1,903865
3,109167	0,1	1,944642
3,110833	0,1	1,928117
3,112500	0,1	1,990095
3,114167	0,1	1,958673
3,115833	0,1	1,983277
3,117500	0,1	1,980857
3,119167	0,1	2,023800
3,120833	0,1	1,992972
3,122500	0,1	2,058222
3,124167	0,1	2,034404
3,125833	0,1	2,080490
3,127500	0,1	2,093967
3,129167	0,1	2,115152
3,130833	0,1	2,116529
3,132500	0,1	2,137706
3,134167	0,1	2,101927
3,135833	0,1	2,096465
3,137500	0,1	2,144292
3,139167	0,1	2,182533
3,140833	0,1	2,169652
3,142500	0,1	2,193785
3,144167	0,1	2,190630
3,145833	0,1	2,207026
3,147500	0,1	2,235746
3,149167	0,1	2,252935
3,150833	0,1	2,282011
3,152500	0,1	2,261466
3,154167	0,1	2,334078
3,155833	0,1	2,304953
3,157500	0,1	2,342686
3,159167	0,1	2,298003
3,160833	0,1	2,327139
3,162500	0,1	2,406077
3,164167	0,1	2,358678
3,165833	0,1	2,360529
3,167500	0,1	2,373564
3,169167	0,1	2,428939
3,170833	0,1	2,393710
3,172500	0,1	2,428943
3,174167	0,1	2,364342
3,175833	0,1	2,425928
3,177500	0,1	2,475444
3,179167	0,1	2,420724
3,180833	0,1	2,423505
3,182500	0,1	2,439983
3,184167	0,1	2,494863
3,185833	0,1	2,482051
3,187500	0,1	2,483553
3,189167	0,1	2,455757
3,190833	0,1	2,513422
3,192500	0,1	2,468874
3,194167	0,1	2,473019
3,195833	0,1	2,499957
3,197500	0,1	2,473385
3,199167	0,1	2,488209
3,200833	0,1	2,513142
3,202500	0,1	2,509282
3,204167	0,1	2,463715
3,205833	0,1	2,461052
3,207500	0,1	2,471726
3,209167	0,1	2,455036
3,210833	0,1	2,436694
3,212500	0,1	2,436689
3,214167	0,1	2,454240
3,215833	0,1	2,438414
3,217500	0,1	2,449154
3,219167	0,1	2,477671
3,220833	0,1	2,394506
3,222500	0,1	2,419272
3,224167	0,1	2,420925
3,225833	0,1	2,405095
3,227500	0,1	2,355814
3,229167	0,1	2,448205
3,230833	0,1	2,368503
3,232500	0,1	2,371632
3,234167	0,1	2,335108
3,235833	0,1	2,340403
3,237500	0,1	2,319414
3,239167	0,1	2,331438
3,240833	0,1	2,326005
3,242500	0,1	2,308388
3,244167	0,1	2,286753
3,245833	0,1	2,287038
3,247500	0,1	2,291113
3,249167	0,1	2,227886
3,250833	0,1	2,212341
3,252500	0,1	2,241188
3,254167	0,1	2,219568
3,255833	0,1	2,209252
3,257500	0,1	2,197587
3,259167	0,1	2,175951
3,260833	0,1	2,149541
3,262500	0,1	2,153102
3,264167	0,1	2,150679
3,265833	0,1	2,145599
3,267500	0,1	2,067423
3,269167	0,1	2,112423
3,270833	0,1	2,081377
3,272500	0,1	2,050240
3,274167	0,1	2,021450
3,275833	0,1	2,007141
3,277500	0,1	2,014650
3,279167	0,1	2,039058
3,280833	0,1	1,990740
3,282500	0,1	1,977133
3,284167	0,1	1,966189
3,285833	0,1	1,945073
3,287500	0,1	1,882963
3,289167	0,1	1,913420
3,290833	0,1	1,901639
3,292500	0,1	1,897141
3,294167	0,1	1,879456
3,295833	0,1	1,862136
3,297500	0,1	1,896682
3,299167	0,1	1,848905
3,300833	0,1	1,853631
3,302500	0,1	1,810266
3,304167	0,1	1,769082
3,305833	0,1	1,748160
3,307500	0,1	1,756729
3,309167	0,1	1,782781
3,310833	0,1	1,764188
3,312500	0,1	1,756253
3,314167	0,1	1,693870
3,315833	0,1	1,695021
3,317500	0,1	1,726709
3,319167	0,1	1,712982
3,320833	0,1	1,673856
3,322500	0,1	1,637079
3,324167	0,1	1,666894
3,325833	0,1	1,649676
3,327500	0,1	1,659901
3,329167	0,1	1,630437
3,330833	0,1	1,620015
3,332500	0,1	1,622129
3,334167	0,1	1,610125
3,335833	0,1	1,578220
3,337500	0,1	1,584696
3,339167	0,1	1,581887
3,340833	0,1	1,586239
3,342500	0,1	1,542640
3,344167	0,1	1,528086
3,345833	0,1	1,553461
3,347500	0,1	1,539399
3,349167	0,1	1,523836
3,350833	0,1	1,543539
3,352500	0,1	1,524751
3,354167	0,1	1,522951
3,355833	0,1	1,513657
3,357500	0,1	1,514231
3,359167	0,1	1,463237
3,360833	0,1	1,462398
3,362500	0,1	1,479173
3,364167	0,1	1,456881
3,365833	0,1	1,435582
3,367500	0,1	1,444006
3,369167	0,1	1,450373
3,370833	0,1	1,393553
3,372500	0,1	1,406979
3,374167	0,1	1,445642
3,375833	0,1	1,377517
3,377500	0,1	1,388323
3,379167	0,1	1,395266
3,380833	0,1	1,387885
3,382500	0,1	1,377993
3,384167	0,1	1,366323
3,385833	0,1	1,355077
3,387500	0,1	1,337201
3,389167	0,1	1,378090
3,390833	0,1	1,390386
3,392500	0,1	1,335857
3,394167	0,1	1,323159
3,395833	0,1	1,312068
3,397500	0,1	1,392386
3,399167	0,1	1,289445
3,400833	0,1	1,355302
3,402500	0,1	1,351169
3,404167	0,1	1,312473
3,405833	0,1	1,319738
3,407500	0,1	1,303487
3,409167	0,1	1,299335
3,410833	0,1	1,297006
3,412500	0,1	1,265988
3,414167	0,1	1,297708
3,415833	0,1	1,278247
3,417500	0,1	1,294009
3,419167	0,1	1,314300
3,420833	0,1	1,291111
3,422500	0,1	1,262460
3,424167	0,1	1,297507
3,425833	0,1	1,251865
3,427500	0,1	1,276220
3,429167	0,1	1,293121
3,430833	0,1	1,249424
3,432500	0,1	1,241478
3,434167	0,1	1,217218
3,435833	0,1	1,251890
3,437500	0,1	1,220417
3,439167	0,1	1,204042
3,440833	0,1	1,225170
3,442500	0,1	1,245305
3,444167	0,1	1,217333
3,445833	0,1	1,212870
3,447500	0,1	1,233045
3,449167	0,1	1,202165
3,450833	0,1	1,189524
3,452500	0,1	1,195726
3,454167	0,1	1,236230
3,455833	0,1	1,210813
3,457500	0,1	1,182742
3,459167	0,1	1,188340
3,460833	0,1	1,206078
3,462500	0,1	1,193933
3,464167	0,1	1,201777
3,465833	0,1	1,223241
3,467500	0,1	1,155366
3,469167	0,1	1,180734
3,470833	0,1	1,207674
3,472500	0,1	1,175933
3,474167	0,1	1,206100
3,475833	0,1	1,151745
3,477500	0,1	1,149680
3,479167	0,1	1,169293
3,480833	0,1	1,167304
3,482500	0,1	1,160193
3,484167	0,1	1,160668
3,485833	0,1	1,167302
3,487500	0,1	1,158214
3,489167	0,1	1,125979
3,490833	0,1	1,164632
3,492500	0,1	1,164220
3,494167	0,1	1,143231
3,495833	0,1	1,099650
3,497500	0,1	1,141733
3,499167	0,1	1,106312
3,500833	0,1	1,106158
3,502500	0,1	1,165360
3,504167	0,1	1,157083
3,505833	0,1	1,115563
3,507500	0,1	1,132660
3,509167	0,1	1,116607
3,510833	0,1	1,131204
3,512500	0,1	1,134460
3,514167	0,1	1,180086
3,515833	0,1	1,135142
3,517500	0,1	1,111466
3,519167	0,1	1,126835
3,520833	0,1	1,160380
3,522500	0,1	1,130440
3,524167	0,1	1,098741
3,525833	0,1	1,129807
3,527500	0,1	1,092904
3,529167	0,1	1,119694
3,530833	0,1	1,133842
3,532500	0,1	1,114652
3,534167	0,1	1,108458
3,535833	0,1	1,127608
3,537500	0,1	1,152864
3,539167	0,1	1,147348
3,540833	0,1	1,125896
3,542500	0,1	1,135876
3,544167	0,1	1,130210
3,545833	0,1	1,121656
3,547500	0,1	1,147431
3,549167	0,1	1,096987
3,550833	0,1	1,128981
3,552500	0,1	1,088012
3,554167	0,1	1,096226
3,555833	0,1	1,099192
3,557500	0,1	1,122384
3,559167	0,1	1,141490
3,560833	0,1	1,143133
3,562500	0,1	1,124807
3,564167	0,1	1,137042
3,565833	0,1	1,120700
3,567500	0,1	1,124843
3,569167	0,1	1,088941
3,570833	0,1	1,066384
3,572500	0,1	1,135913
3,574167	0,1	1,117133
3,575833	0,1	1,127686
3,577500	0,1	1,082461
3,579167	0,1	1,139131
3,580833	0,1	1,116713
3,582500	0,1	1,112235
3,584167	0,1	1,136857
3,585833	0,1	1,100709
3,587500	0,1	1,142507
3,589167	0,1	1,070596
3,590833	0,1	1,107960
3,592500	0,1	1,086051
3,594167	0,1	1,076379
3,595833	0,1	1,130552
3,597500	0,1	1,115138
3,599167	0,1	1,099131
3,600833	0,1	1,090101
3,602500	0,1	1,107506
3,604167	0,1	1,091389
3,605833	0,1	1,101172
3,607500	0,1	1,092045
3,609167	0,1	1,102077
3,610833	0,1	1,095559
3,612500	0,1	1,115928
3,614167	0,1	1,097006
3,615833	0,1	1,117898
3,617500	0,1	1,094920
3,619167	0,1	1,099821
3,620833	0,1	1,083150
3,622500	0,1	1,103005
3,624167	0,1	1,097422
3,625833	0,1	1,083190
3,627500	0,1	1,092500
3,629167	0,1	1,082125
3,630833	0,1	1,072195
3,632500	0,1	1,091564
3,634167	0,1	1,073127
3,635833	0,1	1,079418
3,637500	0,1	1,091410
3,639167	0,1	1,064772
3,640833	0,1	1,066406
3,642500	0,1	1,094673
3,644167	0,1	1,058661
3,645833	0,1	1,079415
3,647500	0,1	1,065215
3,649167	0,1	1,061421
3,650833	0,1	1,070680
3,652500	0,1	1,062327
3,654167	0,1	1,027621
3,655833	0,1	1,033135
3,657500	0,1	1,091804
3,659167	0,1	1,048221
3,660833	0,1	1,028446
3,662500	0,1	1,045596
3,664167	0,1	1,047568
3,665833	0,1	1,049758
3,667500	0,1	1,044802
3,669167	0,1	1,041755
3,670833	0,1	1,064302
3,672500	0,1	1,048346
3,674167	0,1	1,030086
3,675833	0,1	1,022603
3,677500	0,1	1,080851
3,679167	0,1	1,056730
3,680833	0,1	1,056371
3,682500	0,1	1,084871
3,684167	0,1	1,059629
3,685833	0,1	1,071887
3,687500	0,1	1,061488
3,689167	0,1	1,017749
3,690833	0,1	1,052887
3,692500	0,1	1,053063
3,694167	0,1	1,041786
3,695833	0,1	1,049009
3,697500	0,1	1,064631
3,699167	0,1	1,018811
3,700833	0,1	1,039113
3,702500	0,1	1,055213
3,704167	0,1	1,078103
3,705833	0,1	1,087160
3,707500	0,1	1,062188
3,709167	0,1	1,058981
3,710833	0,1	1,045512
3,712500	0,1	1,018424
3,714167	0,1	1,050132
3,715833	0,1	1,044262
3,717500	0,1	1,067462
3,719167	0,1	1,036136
3,720833	0,1	1,081010
3,722500	0,1	1,067525
3,724167	0,1	1,053459
3,725833	0,1	1,058560
3,727500	0,1	1,056306
3,729167	0,1	1,067727
3,730833	0,1	1,076977
3,732500	0,1	1,081794
3,734167	0,1	1,064389
3,735833	0,1	1,070157
3,737500	0,1	1,077780
3,739167	0,1	1,095974
3,740833	0,1	1,058281
3,742500	0,1	1,062037
3,744167	0,1	1,049369
3,745833	0,1	1,039697
3,747500	0,1	1,087884
3,749167	0,1	1,036689
3,750833	0,1	1,073207
3,752500	0,1	1,106309
3,754167	0,1	1,066101
3,755833	0,1	1,094555
3,757500	0,1	1,077889
3,759167	0,1	1,133255
3,760833	0,1	1,110888
3,762500	0,1	1,105648
3,764167	0,1	1,082930
3,765833	0,1	1,089732
3,767500	0,1	1,071173
3,769167	0,1	1,135364
3,770833	0,1	1,128572
3,772500	0,1	1,098333
3,774167	0,1	1,125702
3,775833	0,1	1,117314
3,777500	0,1	1,152862
3,779167	0,1	1,150942
3,780833	0,1	1,118133
3,782500	0,1	1,164786
3,784167	0,1	1,122911
3,785833	0,1	1,151865
3,787500	0,1	1,154261
3,789167	0,1	1,175014
3,790833	0,1	1,158701
3,792500	0,1	1,172931
3,794167	0,1	1,185519
3,795833	0,1	1,212597
3,797500	0,1	1,201073
3,799167	0,1	1,173452
3,800833	0,1	1,214655
3,802500	0,1	1,170373
3,804167	0,1	1,166348
3,805833	0,1	1,201598
3,807500	0,1	1,181941
3,809167	0,1	1,152471
3,810833	0,1	1,200415
3,812500	0,1	1,211069
3,814167	0,1	1,211293
3,815833	0,1	1,239581
3,817500	0,1	1,230565
3,819167	0,1	1,251628
3,820833	0,1	1,220435
3,822500	0,1	1,209475
3,824167	0,1	1,248361
3,825833	0,1	1,251230
3,827500	0,1	1,239147
3,829167	0,1	1,267879
3,830833	0,1	1,274717
3,832500	0,1	1,271836
3,834167	0,1	1,239999
3,835833	0,1	1,249875
3,837500	0,1	1,263579
3,839167	0,1	1,256667
3,840833	0,1	1,286421
3,842500	0,1	1,243722
3,844167	0,1	1,298146
3,845833	0,1	1,270999
3,847500	0,1	1,303828
3,849167	0,1	1,281065
3,850833	0,1	1,278376
3,852500	0,1	1,310128
3,854167	0,1	1,291134
3,855833	0,1	1,289487
3,857500	0,1	1,307160
3,859167	0,1	1,255367
3,860833	0,1	1,295975
3,862500	0,1	1,288115
3,864167	0,1	1,298245
3,865833	0,1	1,330444
3,867500	0,1	1,321582
3,869167	0,1	1,275904
3,870833	0,1	1,308221
3,872500	0,1	1,277386
3,874167	0,1	1,313719
3,875833	0,1	1,332356
3,877500	0,1	1,317060
3,879167	0,1	1,300470
3,880833	0,1	1,283437
3,882500	0,1	1,274032
3,884167	0,1	1,315694
3,885833	0,1	1,318496
3,887500	0,1	1,315305
3,889167	0,1	1,296500
3,890833	0,1	1,291396
3,892500	0,1	1,305385
3,894167	0,1	1,292374
3,895833	0,1	1,259665
3,897500	0,1	1,293516
3,899167	0,1	1,296184
3,900833	0,1	1,266229
3,902500	0,1	1,257774
3,904167	0,1	1,293160
3,905833	0,1	1,301551
3,907500	0,1	1,227497
3,909167	0,1	1,265814
3,910833	0,1	1,278595
3,912500	0,1	1,255539
3,914167	0,1	1,261453
3,915833	0,1	1,239883
3,917500	0,1	1,255748
3,919167	0,1	1,268281
3,920833	0,1	1,228419
3,922500	0,1	1,264507
3,924167	0,1	1,221394
3,925833	0,1	1,204266
3,927500	0,1	1,191229
3,929167	0,1	1,224477
3,930833	0,1	1,213687
3,932500	0,1	1,223354
3,934167	0,1	1,228499
3,935833	0,1	1,227436
3,937500	0,1	1,187733
3,939167	0,1	1,221309
3,940833	0,1	1,199591
3,942500	0,1	1,183646
3,944167	0,1	1,196212
3,945833	0,1	1,206014
3,947500	0,1	1,154878
3,949167	0,1	1,154734
3,950833	0,1	1,168810
3,952500	0,1	1,206495
3,954167	0,1	1,163118
3,955833	0,1	1,181602
3,957500	0,1	1,181515
3,959167	0,1	1,142709
3,960833	0,1	1,148055
3,962500	0,1	1,183040
3,964167	0,1	1,129474
3,965833	0,1	1,157075
3,967500	0,1	1,115366
3,969167	0,1	1,118635
3,970833	0,1	1,173251
3,972500	0,1	1,125274
3,974167	0,1	1,110572
3,975833	0,1	1,102213
3,977500	0,1	1,103181
3,979167	0,1	1,107837
3,980833	0,1	1,100546
3,982500	0,1	1,100569
3,984167	0,1	1,107626
3,985833	0,1	1,105229
3,987500	0,1	1,089553
3,989167	0,1	1,106510
3,990833	0,1	1,100059
3,992500	0,1	1,105068
3,994167	0,1	1,039042
3,995833	0,1	1,081432
3,997500	0,1	1,085467
3,999167	0,1	1,114996
4,000833	0,1	1,098133
4,002500	0,1	1,098681
4,004167	0,1	1,054911
4,005833	0,1	1,104573
4,007500	0,1	1,061721
4,009167	0,1	1,051649
4,010833	0,1	1,094866
4,012500	0,1	1,080578
4,014167	0,1	1,076076
4,015833	0,1	1,023220
4,017500	0,1	1,050198
4,019167	0,1	1,071544
4,020833	0,1	1,014379
4,022500	0,1	1,063889
4,024167	0,1	1,075167
4,025833	0,1	1,056965
4,027500	0,1	1,054193
4,029167	0,1	1,070325
4,030833	0,1	1,032281
4,032500	0,1	1,024270
4,034167	0,1	1,061832
4,035833	0,1	1,041210
4,037500	0,1	1,073246
4,039167	0,1	1,060846
4,040833	0,1	1,063033
4,042500	0,1	1,084099
4,044167	0,1	1,089168
4,045833	0,1	1,063605
4,047500	0,1	1,073541
4,049167	0,1	1,121749
4,050833	0,1	1,105913
4,052500	0,1	1,085866
4,054167	0,1	1,076339
4,055833	0,1	1,113380
4,057500	0,1	1,101097
4,059167	0,1	1,108178
4,060833	0,1	1,099863
4,062500	0,1	1,114882
4,064167	0,1	1,123307
4,065833	0,1	1,112448
4,067500	0,1	1,129891
4,069167	0,1	1,155476
4,070833	0,1	1,147926
4,072500	0,1	1,167918
4,074167	0,1	1,176962
4,075833	0,1	1,184705
4,077500	0,1	1,196987
4,079167	0,1	1,211289
4,080833	0,1	1,228604
4,082500	0,1	1,221428
4,084167	0,1	1,239517
4,085833	0,1	1,262469
4,087500	0,1	1,274670
4,089167	0,1	1,238642
4,090833	0,1	1,289831
4,092500	0,1	1,272325
4,094167	0,1	1,284937
4,095833	0,1	1,285715
4,097500	0,1	1,316872
4,099167	0,1	1,323221
4,100833	0,1	1,330429
4,102500	0,1	1,335819
4,104167	0,1	1,389666
4,105833	0,1	1,418668
4,107500	0,1	1,421047
4,109167	0,1	1,396010
4,110833	0,1	1,443085
4,112500	0,1	1,423339
4,114167	0,1	1,459087
4,115833	0,1	1,454063
4,117500	0,1	1,495001
4,119167	0,1	1,476944
4,120833	0,1	1,538669
4,122500	0,1	1,532588
4,124167	0,1	1,535093
4,125833	0,1	1,539327
4,127500	0,1	1,578880
4,129167	0,1	1,587270
4,130833	0,1	1,554762
4,132500	0,1	1,569891
4,134167	0,1	1,615228
4,135833	0,1	1,588498
4,137500	0,1	1,595927
4,139167	0,1	1,659417
4,140833	0,1	1,649303
4,142500	0,1	1,682123
4,144167	0,1	1,696017
4,145833	0,1	1,717617
4,147500	0,1	1,715471
4,149167	0,1	1,733411
4,150833	0,1	1,744645
4,152500	0,1	1,769191
4,154167	0,1	1,782332
4,155833	0,1	1,789073
4,157500	0,1	1,737755
4,159167	0,1	1,807388
4,160833	0,1	1,813474
4,162500	0,1	1,781919
4,164167	0,1	1,828127
4,165833	0,1	1,821342
4,167500	0,1	1,859110
4,169167	0,1	1,814625
4,170833	0,1	1,805327
4,172500	0,1	1,909054
4,174167	0,1	1,842735
4,175833	0,1	1,879223
4,177500	0,1	1,866206
4,179167	0,1	1,889889
4,180833	0,1	1,876143
4,182500	0,1	1,892100
4,184167	0,1	1,881663
4,185833	0,1	1,877071
4,187500	0,1	1,882878
4,189167	0,1	1,936612
4,190833	0,1	1,932117
4,192500	0,1	1,868276
4,194167	0,1	1,937819
4,195833	0,1	1,881960
4,197500	0,1	1,944221
4,199167	0,1	1,931267
4,200833	0,1	1,953082
4,202500	0,1	1,938858
4,204167	0,1	1,884375
4,205833	0,1	1,923447
4,207500	0,1	1,902333
4,209167	0,1	1,930604
4,210833	0,1	1,931117
4,212500	0,1	1,895757
4,214167	0,1	1,926026
4,215833	0,1	1,925458
4,217500	0,1	1,906299
4,219167	0,1	1,948726
4,220833	0,1	1,912654
4,222500	0,1	1,945280
4,224167	0,1	1,910454
4,225833	0,1	1,926107
4,227500	0,1	1,885682
4,229167	0,1	1,898610
4,230833	0,1	1,866993
4,232500	0,1	1,890681
4,234167	0,1	1,930403
4,235833	0,1	1,891538
4,237500	0,1	1,870923
4,239167	0,1	1,855097
4,240833	0,1	1,890471
4,242500	0,1	1,845179
4,244167	0,1	1,878938
4,245833	0,1	1,850557
4,247500	0,1	1,822566
4,249167	0,1	1,841381
4,250833	0,1	1,862781
4,252500	0,1	1,791161
4,254167	0,1	1,811607
4,255833	0,1	1,777424
4,257500	0,1	1,779347
4,259167	0,1	1,756680
4,260833	0,1	1,773605
4,262500	0,1	1,770528
4,264167	0,1	1,766691
4,265833	0,1	1,743449
4,267500	0,1	1,711313
4,269167	0,1	1,753582
4,270833	0,1	1,732133
4,272500	0,1	1,715256
4,274167	0,1	1,694110
4,275833	0,1	1,672806
4,277500	0,1	1,675913
4,279167	0,1	1,669985
4,280833	0,1	1,644869
4,282500	0,1	1,659528
4,284167	0,1	1,647729
4,285833	0,1	1,623255
4,287500	0,1	1,618254
4,289167	0,1	1,586926
4,290833	0,1	1,604697
4,292500	0,1	1,618265
4,294167	0,1	1,583724
4,295833	0,1	1,575369
4,297500	0,1	1,517069
4,299167	0,1	1,601870
4,300833	0,1	1,518958
4,302500	0,1	1,547736
4,304167	0,1	1,512020
4,305833	0,1	1,504763
4,307500	0,1	1,536354
4,309167	0,1	1,493832
4,310833	0,1	1,444203
4,312500	0,1	1,412825
4,314167	0,1	1,460102
4,315833	0,1	1,421413
4,317500	0,1	1,438329
4,319167	0,1	1,460597
4,320833	0,1	1,407992
4,322500	0,1	1,392034
4,324167	0,1	1,403674
4,325833	0,1	1,399531
4,327500	0,1	1,383759
4,329167	0,1	1,406928
4,330833	0,1	1,324838
4,332500	0,1	1,389991
4,334167	0,1	1,375730
4,335833	0,1	1,324431
4,337500	0,1	1,348303
4,339167	0,1	1,363810
4,340833	0,1	1,315516
4,342500	0,1	1,285345
4,344167	0,1	1,293634
4,345833	0,1	1,315765
4,347500	0,1	1,287609
4,349167	0,1	1,252682
4,350833	0,1	1,267727
4,352500	0,1	1,281899
4,354167	0,1	1,242945
4,355833	0,1	1,224382
4,357500	0,1	1,242956
4,359167	0,1	1,243957
4,360833	0,1	1,205136
4,362500	0,1	1,192383
4,364167	0,1	1,185573
4,365833	0,1	1,202484
4,367500	0,1	1,187480
4,369167	0,1	1,188407
4,370833	0,1	1,153875
4,372500	0,1	1,169228
4,374167	0,1	1,156154
4,375833	0,1	1,171668
4,377500	0,1	1,140321
4,379167	0,1	1,127864
4,380833	0,1	1,160051
4,382500	0,1	1,131567
4,384167	0,1	1,103700
4,385833	0,1	1,128827
4,387500	0,1	1,142159
4,389167	0,1	1,139211
4,390833	0,1	1,141650
4,392500	0,1	1,057268
4,394167	0,1	1,133456
4,395833	0,1	1,085860
4,397500	0,1	1,049346
4,399167	0,1	1,066243
4,400833	0,1	1,070263
4,402500	0,1	1,070158
4,404167	0,1	1,058852
4,405833	0,1	1,055951
4,407500	0,1	1,034503
4,409167	0,1	1,017397
4,410833	0,1	1,023075
4,412500	0,1	0,992362
4,414167	0,1	1,046753
4,415833	0,1	1,023827
4,417500	0,1	1,000808
4,419167	0,1	1,002964
4,420833	0,1	1,018322
4,422500	0,1	1,018959
4,424167	0,1	0,969742
4,425833	0,1	0,990579
4,427500	0,1	1,000865
4,429167	0,1	0,992514
4,430833	0,1	0,981906
4,432500	0,1	0,978113
4,434167	0,1	0,982285
4,435833	0,1	0,947792
4,437500	0,1	0,929858
4,439167	0,1	0,998215
4,440833	0,1	0,954958
4,442500	0,1	0,945246
4,444167	0,1	0,963616
4,445833	0,1	0,927870
4,447500	0,1	0,907273
4,449167	0,1	0,926732
4,450833	0,1	0,923363
4,452500	0,1	0,916166
4,454167	0,1	0,888345
4,455833	0,1	0,904210
4,457500	0,1	0,883238
4,459167	0,1	0,905429
4,460833	0,1	0,834963
4,462500	0,1	0,906762
4,464167	0,1	0,885579
4,465833	0,1	0,894831
4,467500	0,1	0,887733
4,469167	0,1	0,861487
4,470833	0,1	0,852906
4,472500	0,1	0,869061
4,474167	0,1	0,858209
4,475833	0,1	0,861963
4,477500	0,1	0,858878
4,479167	0,1	0,847350
4,480833	0,1	0,815262
4,482500	0,1	0,854438
4,484167	0,1	0,822873
4,485833	0,1	0,843775
4,487500	0,1	0,845097
4,489167	0,1	0,803507
4,490833	0,1	0,821962
4,492500	0,1	0,821164
4,494167	0,1	0,833849
4,495833	0,1	0,820589
4,497500	0,1	0,823443
4,499167	0,1	0,829001
4,500833	0,1	0,784072
4,502500	0,1	0,791995
4,504167	0,1	0,817176
4,505833	0,1	0,799035
4,507500	0,1	0,767109
4,509167	0,1	0,755317
4,510833	0,1	0,773041
4,512500	0,1	0,801627
4,514167	0,1	0,768235
4,515833	0,1	0,765818
4,517500	0,1	0,750692
4,519167	0,1	0,751461
4,520833	0,1	0,748087
4,522500	0,1	0,748985
4,524167	0,1	0,739994
4,525833	0,1	0,764688
4,527500	0,1	0,768258
4,529167	0,1	0,715690
4,530833	0,1	0,723097
4,532500	0,1	0,702325
4,534167	0,1	0,727269
4,535833	0,1	0,717767
4,537500	0,1	0,687363
4,539167	0,1	0,749453
4,540833	0,1	0,717296
4,542500	0,1	0,697250
4,544167	0,1	0,720910
4,545833	0,1	0,733117
4,547500	0,1	0,730551
4,549167	0,1	0,728880
4,550833	0,1	0,700947
4,552500	0,1	0,718569
4,554167	0,1	0,702260
4,555833	0,1	0,701035
4,557500	0,1	0,709866
4,559167	0,1	0,713849
4,560833	0,1	0,679465
4,562500	0,1	0,706040
4,564167	0,1	0,678079
4,565833	0,1	0,671652
4,567500	0,1	0,675566
4,569167	0,1	0,660475
4,570833	0,1	0,665586
4,572500	0,1	0,660669
4,574167	0,1	0,641208
4,575833	0,1	0,650905
4,577500	0,1	0,643175
4,579167	0,1	0,695019
4,580833	0,1	0,639842
4,582500	0,1	0,638417
4,584167	0,1	0,611795
4,585833	0,1	0,645310
4,587500	0,1	0,628661
4,589167	0,1	0,646119
4,590833	0,1	0,627023
4,592500	0,1	0,682879
4,594167	0,1	0,618107
4,595833	0,1	0,616871
4,597500	0,1	0,616997
4,599167	0,1	0,647846
4,600833	0,1	0,605765
4,602500	0,1	0,588357
4,604167	0,1	0,632887
4,605833	0,1	0,605762
4,607500	0,1	0,638860
4,609167	0,1	0,574684
4,610833	0,1	0,603026
4,612500	0,1	0,609932
4,614167	0,1	0,622647
4,615833	0,1	0,572223
4,617500	0,1	0,573267
4,619167	0,1	0,591732
4,620833	0,1	0,593789
4,622500	0,1	0,598056
4,624167	0,1	0,612535
4,625833	0,1	0,575257
4,627500	0,1	0,585529
4,629167	0,1	0,589708
4,630833	0,1	0,556030
4,632500	0,1	0,534221
4,634167	0,1	0,550691
4,635833	0,1	0,532620
4,637500	0,1	0,569343
4,639167	0,1	0,571205
4,640833	0,1	0,542418
4,642500	0,1	0,588515
4,644167	0,1	0,544411
4,645833	0,1	0,576217
4,647500	0,1	0,544019
4,649167	0,1	0,562186
4,650833	0,1	0,586104
4,652500	0,1	0,546084
4,654167	0,1	0,560612
4,655833	0,1	0,557152
4,657500	0,1	0,569260
4,659167	0,1	0,565563
4,660833	0,1	0,504041
4,662500	0,1	0,535314
4,664167	0,1	0,495261
4,665833	0,1	0,529625
4,667500	0,1	0,549831
4,669167	0,1	0,524086
4,670833	0,1	0,515609
4,672500	0,1	0,516828
4,674167	0,1	0,539259
4,675833	0,1	0,543277
4,677500	0,1	0,520370
4,679167	0,1	0,512210
4,680833	0,1	0,508005
4,682500	0,1	0,490774
4,684167	0,1	0,506452
4,685833	0,1	0,521609
4,687500	0,1	0,519534
4,689167	0,1	0,487782
4,690833	0,1	0,481191
4,692500	0,1	0,467688
4,694167	0,1	0,487807
4,695833	0,1	0,505117
4,697500	0,1	0,492083
4,699167	0,1	0,504854
4,700833	0,1	0,478277
4,702500	0,1	0,510628
4,704167	0,1	0,514424
4,705833	0,1	0,497157
4,707500	0,1	0,527030
4,709167	0,1	0,500595
4,710833	0,1	0,466925
4,712500	0,1	0,477689
4,714167	0,1	0,485784
4,715833	0,1	0,519199
4,717500	0,1	0,458712
4,719167	0,1	0,521118
4,720833	0,1	0,471962
4,722500	0,1	0,488575
4,724167	0,1	0,482842
4,725833	0,1	0,473300
4,727500	0,1	0,491722
4,729167	0,1	0,480666
4,730833	0,1	0,488163
4,732500	0,1	0,468292
4,734167	0,1	0,481904
4,735833	0,1	0,446900
4,737500	0,1	0,482793
4,739167	0,1	0,491145
4,740833	0,1	0,475366
4,742500	0,1	0,486564
4,744167	0,1	0,472056
4,745833	0,1	0,422079
4,747500	0,1	0,472203
4,749167	0,1	0,451704
4,750833	0,1	0,488759
4,752500	0,1	0,442103
4,754167	0,1	0,415905
4,755833	0,1	0,473095
4,757500	0,1	0,417462
4,759167	0,1	0,437734
4,760833	0,1	0,430930
4,762500	0,1	0,467964
4,764167	0,1	0,454912
4,765833	0,1	0,429300
4,767500	0,1	0,430991
4,769167	0,1	0,447818
4,770833	0,1	0,451031
4,772500	0,1	0,402409
4,774167	0,1	0,500088
4,775833	0,1	0,424427
4,777500	0,1	0,420863
4,779167	0,1	0,465748
4,780833	0,1	0,487416
4,782500	0,1	0,426882
4,784167	0,1	0,445626
4,785833	0,1	0,399449
4,787500	0,1	0,434671
4,789167	0,1	0,431847
4,790833	0,1	0,431940
4,792500	0,1	0,465046
4,794167	0,1	0,387816
4,795833	0,1	0,449367
4,797500	0,1	0,436145
4,799167	0,1	0,426954
4,800833	0,1	0,425277
4,802500	0,1	0,423142
4,804167	0,1	0,417991
4,805833	0,1	0,414632
4,807500	0,1	0,406601
4,809167	0,1	0,453979
4,810833	0,1	0,403731
4,812500	0,1	0,401669
4,814167	0,1	0,414503
4,815833	0,1	0,435041
4,817500	0,1	0,403376
4,819167	0,1	0,389414
4,820833	0,1	0,422742
4,822500	0,1	0,402794
4,824167	0,1	0,365304
4,825833	0,1	0,401496
4,827500	0,1	0,407819
4,829167	0,1	0,410099
4,830833	0,1	0,420180
4,832500	0,1	0,405256
4,834167	0,1	0,388444
4,835833	0,1	0,426943
4,837500	0,1	0,417100
4,839167	0,1	0,433924
4,840833	0,1	0,396237
4,842500	0,1	0,401980
4,844167	0,1	0,394343
4,845833	0,1	0,435287
4,847500	0,1	0,390400
4,849167	0,1	0,407175
4,850833	0,1	0,400740
4,852500	0,1	0,397530
4,854167	0,1	0,381053
4,855833	0,1	0,444950
4,857500	0,1	0,378459
4,859167	0,1	0,405725
4,860833	0,1	0,412211
4,862500	0,1	0,430095
4,864167	0,1	0,396049
4,865833	0,1	0,424957
4,867500	0,1	0,435435
4,869167	0,1	0,427308
4,870833	0,1	0,395861
4,872500	0,1	0,411458
4,874167	0,1	0,432396
4,875833	0,1	0,387292
4,877500	0,1	0,384880
4,879167	0,1	0,385379
4,880833	0,1	0,379684
4,882500	0,1	0,417480
4,884167	0,1	0,422520
4,885833	0,1	0,438894
4,887500	0,1	0,384500
4,889167	0,1	0,406531
4,890833	0,1	0,395027
4,892500	0,1	0,394178
4,894167	0,1	0,406183
4,895833	0,1	0,409911
4,897500	0,1	0,407696
4,899167	0,1	0,419450
4,900833	0,1	0,409107
4,902500	0,1	0,421939
4,904167	0,1	0,406815
4,905833	0,1	0,388860
4,907500	0,1	0,359297
4,909167	0,1	0,396275
4,910833	0,1	0,383661
4,912500	0,1	0,374321
4,914167	0,1	0,420585
4,915833	0,1	0,368392
4,917500	0,1	0,400776
4,919167	0,1	0,388692
4,920833	0,1	0,420259
4,922500	0,1	0,383563
4,924167	0,1	0,380262
4,925833	0,1	0,412181
4,927500	0,1	0,412893
4,929167	0,1	0,402938
4,930833	0,1	0,402585
4,932500	0,1	0,384718
4,934167	0,1	0,377616
4,935833	0,1	0,351407
4,937500	0,1	0,415157
4,939167	0,1	0,383687
4,940833	0,1	0,377904
4,942500	0,1	0,393407
4,944167	0,1	0,348681
4,945833	0,1	0,384541
4,947500	0,1	0,396055
4,949167	0,1	0,442550
4,950833	0,1	0,382160
4,952500	0,1	0,409780
4,954167	0,1	0,398236
4,955833	0,1	0,424378
4,957500	0,1	0,411925
4,959167	0,1	0,394261
4,960833	0,1	0,431915
4,962500	0,1	0,416726
4,964167	0,1	0,391780
4,965833	0,1	0,384694
4,967500	0,1	0,359730
4,969167	0,1	0,403646
4,970833	0,1	0,398360
4,972500	0,1	0,404900
4,974167	0,1	0,449386
4,975833	0,1	0,392225
4,977500	0,1	0,429035
4,979167	0,1	0,375099
4,980833	0,1	0,396990
4,982500	0,1	0,376603
4,984167	0,1	0,439900
4,985833	0,1	0,416649
4,987500	0,1	0,395217
4,989167	0,1	0,400987
4,990833	0,1	0,399313
4,992500	0,1	0,413572
4,994167	0,1	0,403558
4,995833	0,1	0,427816
4,997500	0,1	0,377273
4,999167	0,1	0,399033
5,000833	0,1	0,409227
5,002500	0,1	0,376793
5,004167	0,1	0,411250
5,005833	0,1	0,421135
5,007500	0,1	0,410124
5,009167	0,1	0,401341
5,010833	0,1	0,419536
5,012500	0,1	0,390146
5,014167	0,1	0,408686
5,015833	0,1	0,402915
5,017500	0,1	0,399164
5,019167	0,1	0,394092
5,020833	0,1	0,415064
5,022500	0,1	0,442126
5,024167	0,1	0,410374
5,025833	0,1	0,391653
5,027500	0,1	0,387777
5,029167	0,1	0,343651
5,030833	0,1	0,392466
5,032500	0,1	0,425144
5,034167	0,1	0,393731
5,035833	0,1	0,377532
5,037500	0,1	0,376699
5,039167	0,1	0,391607
5,040833	0,1	0,387698
5,042500	0,1	0,378650
5,044167	0,1	0,396075
5,045833	0,1	0,409039
5,047500	0,1	0,415067
5,049167	0,1	0,415148
5,050833	0,1	0,378491
5,052500	0,1	0,401170
5,054167	0,1	0,391980
5,055833	0,1	0,416387
5,057500	0,1	0,406664
5,059167	0,1	0,428043
5,060833	0,1	0,396503
5,062500	0,1	0,420756
5,064167	0,1	0,406603
5,065833	0,1	0,402107
5,067500	0,1	0,394946
5,069167	0,1	0,408108
5,070833	0,1	0,399853
5,072500	0,1	0,399851
5,074167	0,1	0,383974
5,075833	0,1	0,377241
5,077500	0,1	0,421556
5,079167	0,1	0,370896
5,080833	0,1	0,394835
5,082500	0,1	0,397574
5,084167	0,1	0,417194
5,085833	0,1	0,393313
5,087500	0,1	0,417843
5,089167	0,1	0,395154
5,090833	0,1	0,384778
5,092500	0,1	0,398956
5,094167	0,1	0,380623
5,095833	0,1	0,384219
5,097500	0,1	0,377241
5,099167	0,1	0,393366
5,100833	0,1	0,403592
5,102500	0,1	0,423888
5,104167	0,1	0,398631
5,105833	0,1	0,409227
5,107500	0,1	0,394181
5,109167	0,1	0,380286
5,110833	0,1	0,389267
5,112500	0,1	0,380677
5,114167	0,1	0,418974
5,115833	0,1	0,400827
5,117500	0,1	0,408439
5,119167	0,1	0,402523
5,120833	0,1	0,399273
5,122500	0,1	0,427853
5,124167	0,1	0,375184
5,125833	0,1	0,385893
5,127500	0,1	0,404481
5,129167	0,1	0,392755
5,130833	0,1	0,381632
5,132500	0,1	0,385042
5,134167	0,1	0,424854
5,135833	0,1	0,404594
5,137500	0,1	0,388381
5,139167	0,1	0,395397
5,140833	0,1	0,389600
5,142500	0,1	0,404670
5,144167	0,1	0,420178
5,145833	0,1	0,433158
5,147500	0,1	0,389383
5,149167	0,1	0,403324
5,150833	0,1	0,400823
5,152500	0,1	0,422228
5,154167	0,1	0,391101
5,155833	0,1	0,384097
5,157500	0,1	0,436922
5,159167	0,1	0,353471
5,160833	0,1	0,356989
5,162500	0,1	0,380010
5,164167	0,1	0,414106
5,165833	0,1	0,407096
5,167500	0,1	0,362634
5,169167	0,1	0,444618
5,170833	0,1	0,373219
5,172500	0,1	0,411249
5,174167	0,1	0,423201
5,175833	0,1	0,391469
5,177500	0,1	0,364080
5,179167	0,1	0,386054
5,180833	0,1	0,402018
5,182500	0,1	0,409040
5,184167	0,1	0,341253
5,185833	0,1	0,375369
5,187500	0,1	0,379640
5,189167	0,1	0,382044
5,190833	0,1	0,386263
5,192500	0,1	0,373517
5,194167	0,1	0,414934
5,195833	0,1	0,355391
5,197500	0,1	0,367609
5,199167	0,1	0,362188
5,200833	0,1	0,344532
5,202500	0,1	0,373920
5,204167	0,1	0,373615
5,205833	0,1	0,352713
5,207500	0,1	0,343020
5,209167	0,1	0,357795
5,210833	0,1	0,389427
5,212500	0,1	0,390757
5,214167	0,1	0,377181
5,215833	0,1	0,371441
5,217500	0,1	0,377135
5,219167	0,1	0,334973
5,220833	0,1	0,319918
5,222500	0,1	0,359610
5,224167	0,1	0,363594
5,225833	0,1	0,367674
5,227500	0,1	0,355317
5,229167	0,1	0,383339
5,230833	0,1	0,357867
5,232500	0,1	0,358585
5,234167	0,1	0,352044
5,235833	0,1	0,337638
5,237500	0,1	0,353759
5,239167	0,1	0,367983
5,240833	0,1	0,349418
5,242500	0,1	0,297279
5,244167	0,1	0,361758
5,245833	0,1	0,390046
5,247500	0,1	0,378815
5,249167	0,1	0,365111
5,250833	0,1	0,320275
5,252500	0,1	0,352469
5,254167	0,1	0,348068
5,255833	0,1	0,335359
5,257500	0,1	0,349285
5,259167	0,1	0,342316
5,260833	0,1	0,340471
5,262500	0,1	0,347941
5,264167	0,1	0,334491
5,265833	0,1	0,338234
5,267500	0,1	0,316668
5,269167	0,1	0,304453
5,270833	0,1	0,319371
5,272500	0,1	0,306461
5,274167	0,1	0,315688
5,275833	0,1	0,331502
5,277500	0,1	0,320123
5,279167	0,1	0,360213
5,280833	0,1	0,349123
5,282500	0,1	0,359142
5,284167	0,1	0,351671
5,285833	0,1	0,326688
5,287500	0,1	0,337445
5,289167	0,1	0,305201
5,290833	0,1	0,327587
5,292500	0,1	0,314679
5,294167	0,1	0,309647
5,295833	0,1	0,326698
5,297500	0,1	0,300357
5,299167	0,1	0,287520
5,300833	0,1	0,293000
5,302500	0,1	0,316180
5,304167	0,1	0,318794
5,305833	0,1	0,288290
5,307500	0,1	0,327046
5,309167	0,1	0,350791
5,310833	0,1	0,253758
5,312500	0,1	0,329830
5,314167	0,1	0,298309
5,315833	0,1	0,293727
5,317500	0,1	0,336092
5,319167	0,1	0,286515
5,320833	0,1	0,327458
5,322500	0,1	0,330428
5,324167	0,1	0,314597
5,325833	0,1	0,341270
5,327500	0,1	0,294110
5,329167	0,1	0,287559
5,330833	0,1	0,301278
5,332500	0,1	0,309042
5,334167	0,1	0,285306
5,335833	0,1	0,335943
5,337500	0,1	0,343199
5,339167	0,1	0,347921
5,340833	0,1	0,282873
5,342500	0,1	0,302105
5,344167	0,1	0,295052
5,345833	0,1	0,261960
5,347500	0,1	0,291524
5,349167	0,1	0,314029
5,350833	0,1	0,281644
5,352500	0,1	0,287162
5,354167	0,1	0,291304
5,355833	0,1	0,297845
5,357500	0,1	0,274193
5,359167	0,1	0,280497
5,360833	0,1	0,334204
5,362500	0,1	0,313169
5,364167	0,1	0,273945
5,365833	0,1	0,264936
5,367500	0,1	0,273543
5,369167	0,1	0,268888
5,370833	0,1	0,264665
5,372500	0,1	0,265408
5,374167	0,1	0,255497
5,375833	0,1	0,314393
5,377500	0,1	0,304058
5,379167	0,1	0,286114
5,380833	0,1	0,273920
5,382500	0,1	0,275095
5,384167	0,1	0,282713
5,385833	0,1	0,279755
5,387500	0,1	0,311398
5,389167	0,1	0,259357
5,390833	0,1	0,287054
5,392500	0,1	0,279403
5,394167	0,1	0,273318
5,395833	0,1	0,299600
5,397500	0,1	0,257200
5,399167	0,1	0,294402
5,400833	0,1	0,243480
5,402500	0,1	0,242785
5,404167	0,1	0,269999
5,405833	0,1	0,258605
5,407500	0,1	0,267601
5,409167	0,1	0,270749
5,410833	0,1	0,243227
5,412500	0,1	0,270454
5,414167	0,1	0,304047
5,415833	0,1	0,272186
5,417500	0,1	0,249169
5,419167	0,1	0,250402
5,420833	0,1	0,225800
5,422500	0,1	0,278728
5,424167	0,1	0,241449
5,425833	0,1	0,283408
5,427500	0,1	0,289481
5,429167	0,1	0,264630
5,430833	0,1	0,303963
5,432500	0,1	0,264072
5,434167	0,1	0,222867
5,435833	0,1	0,227094
5,437500	0,1	0,269332
5,439167	0,1	0,193399
5,440833	0,1	0,278450
5,442500	0,1	0,282652
5,444167	0,1	0,265000
5,445833	0,1	0,270460
5,447500	0,1	0,263320
5,449167	0,1	0,250674
5,450833	0,1	0,260272
5,452500	0,1	0,232279
5,454167	0,1	0,271320
5,455833	0,1	0,237684
5,457500	0,1	0,234424
5,459167	0,1	0,243054
5,460833	0,1	0,259235
5,462500	0,1	0,290324
5,464167	0,1	0,262083
5,465833	0,1	0,243473
5,467500	0,1	0,252843
5,469167	0,1	0,253446
5,470833	0,1	0,273705
5,472500	0,1	0,203873
5,474167	0,1	0,253537
5,475833	0,1	0,267971
5,477500	0,1	0,224625
5,479167	0,1	0,231690
5,480833	0,1	0,270554
5,482500	0,1	0,250490
5,484167	0,1	0,264825
5,485833	0,1	0,232489
5,487500	0,1	0,264864
5,489167	0,1	0,230417
5,490833	0,1	0,243176
5,492500	0,1	0,254002
5,494167	0,1	0,230956
5,495833	0,1	0,236471
5,497500	0,1	0,241130
5,499167	0,1	0,216879
5,500833	0,1	0,246775
5,502500	0,1	0,226544
5,504167	0,1	0,228710
5,505833	0,1	0,220310
5,507500	0,1	0,218445
5,509167	0,1	0,202490
5,510833	0,1	0,234645
5,512500	0,1	0,270452
5,514167	0,1	0,248668
5,515833	0,1	0,254707
5,517500	0,1	0,226978
5,519167	0,1	0,184057
5,520833	0,1	0,227314
5,522500	0,1	0,263704
5,524167	0,1	0,229343
5,525833	0,1	0,233596
5,527500	0,1	0,201606
5,529167	0,1	0,247763
5,530833	0,1	0,220771
5,532500	0,1	0,224243
5,534167	0,1	0,188089
5,535833	0,1	0,227586
5,537500	0,1	0,212613
5,539167	0,1	0,211987
5,540833	0,1	0,204746
5,542500	0,1	0,140913
5,544167	0,1	0,199122
5,545833	0,1	0,233256
5,547500	0,1	0,221471
5,549167	0,1	0,226599
5,550833	0,1	0,227595
5,552500	0,1	0,232127
5,554167	0,1	0,204707
5,555833	0,1	0,183824
5,557500	0,1	0,230027
5,559167	0,1	0,235520
5,560833	0,1	0,223810
5,562500	0,1	0,224984
5,564167	0,1	0,204422
5,565833	0,1	0,188068
5,567500	0,1	0,154878
5,569167	0,1	0,207237
5,570833	0,1	0,230736
5,572500	0,1	0,226725
5,574167	0,1	0,234651
5,575833	0,1	0,185325
5,577500	0,1	0,207762
5,579167	0,1	0,220202
5,580833	0,1	0,234132
5,582500	0,1	0,235398
5,584167	0,1	0,167962
5,585833	0,1	0,242438
5,587500	0,1	0,230597
5,589167	0,1	0,238851
5,590833	0,1	0,227104
5,592500	0,1	0,195585
5,594167	0,1	0,231516
5,595833	0,1	0,234152
5,597500	0,1	0,240776
5,599167	0,1	0,196432
5,600833	0,1	0,236795
5,602500	0,1	0,174772
5,604167	0,1	0,226773
5,605833	0,1	0,219380
5,607500	0,1	0,213560
5,609167	0,1	0,203260
5,610833	0,1	0,213021
5,612500	0,1	0,241104
5,614167	0,1	0,220313
5,615833	0,1	0,244993
5,617500	0,1	0,184307
5,619167	0,1	0,249351
5,620833	0,1	0,224287
5,622500	0,1	0,194960
5,624167	0,1	0,234458
5,625833	0,1	0,199349
5,627500	0,1	0,221771
5,629167	0,1	0,202164
5,630833	0,1	0,240560
5,632500	0,1	0,227351
5,634167	0,1	0,238727
5,635833	0,1	0,196000
5,637500	0,1	0,190508
5,639167	0,1	0,249458
5,640833	0,1	0,222239
5,642500	0,1	0,230678
5,644167	0,1	0,199496
5,645833	0,1	0,209690
5,647500	0,1	0,228003
5,649167	0,1	0,213730
5,650833	0,1	0,214886
5,652500	0,1	0,236634
5,654167	0,1	0,226874
5,655833	0,1	0,199434
5,657500	0,1	0,207413
5,659167	0,1	0,244786
5,660833	0,1	0,236518
5,662500	0,1	0,210382
5,664167	0,1	0,215404
5,665833	0,1	0,247540
5,667500	0,1	0,240571
5,669167	0,1	0,249882
5,670833	0,1	0,224805
5,672500	0,1	0,214038
5,674167	0,1	0,256768
5,675833	0,1	0,247735
5,677500	0,1	0,236351
5,679167	0,1	0,224760
5,680833	0,1	0,230099
5,682500	0,1	0,252304
5,684167	0,1	0,254419
5,685833	0,1	0,269050
5,687500	0,1	0,214505
5,689167	0,1	0,232329
5,690833	0,1	0,212782
5,692500	0,1	0,287582
5,694167	0,1	0,247742
5,695833	0,1	0,263461
5,697500	0,1	0,203949
5,699167	0,1	0,267817
5,700833	0,1	0,269633
5,702500	0,1	0,227376
5,704167	0,1	0,283817
5,705833	0,1	0,237601
5,707500	0,1	0,252368
5,709167	0,1	0,250547
5,710833	0,1	0,224102
5,712500	0,1	0,218281
5,714167	0,1	0,227882
5,715833	0,1	0,257559
5,717500	0,1	0,225802
5,719167	0,1	0,252236
5,720833	0,1	0,258454
5,722500	0,1	0,255227
5,724167	0,1	0,258145
5,725833	0,1	0,295933
5,727500	0,1	0,222418
5,729167	0,1	0,257700
5,730833	0,1	0,230415
5,732500	0,1	0,267492
5,734167	0,1	0,229900
5,735833	0,1	0,279659
5,737500	0,1	0,276878
5,739167	0,1	0,286024
5,740833	0,1	0,283832
5,742500	0,1	0,264482
5,744167	0,1	0,242211
5,745833	0,1	0,249574
5,747500	0,1	0,254542
5,749167	0,1	0,281757
5,750833	0,1	0,283232
5,752500	0,1	0,289667
5,754167	0,1	0,244535
5,755833	0,1	0,258722
5,757500	0,1	0,242542
5,759167	0,1	0,292369
5,760833	0,1	0,242382
5,762500	0,1	0,244315
5,764167	0,1	0,275463
5,765833	0,1	0,268286
5,767500	0,1	0,256077
5,769167	0,1	0,273603
5,770833	0,1	0,263962
5,772500	0,1	0,222181
5,774167	0,1	0,260783
5,775833	0,1	0,277038
5,777500	0,1	0,259287
5,779167	0,1	0,269153
5,780833	0,1	0,258994
5,782500	0,1	0,279706
5,784167	0,1	0,298669
5,785833	0,1	0,278746
5,787500	0,1	0,291590
5,789167	0,1	0,227813
5,790833	0,1	0,253914
5,792500	0,1	0,283452
5,794167	0,1	0,273402
5,795833	0,1	0,263238
5,797500	0,1	0,261620
5,799167	0,1	0,268636
5,800833	0,1	0,267771
5,802500	0,1	0,281531
5,804167	0,1	0,279092
5,805833	0,1	0,267916
5,807500	0,1	0,246867
5,809167	0,1	0,264350
5,810833	0,1	0,251400
5,812500	0,1	0,278235
5,814167	0,1	0,270813
5,815833	0,1	0,272798
5,817500	0,1	0,260030
5,819167	0,1	0,275919
5,820833	0,1	0,236729
5,822500	0,1	0,251373
5,824167	0,1	0,245085
5,825833	0,1	0,281256
5,827500	0,1	0,286397
5,829167	0,1	0,247495
5,830833	0,1	0,249263
5,832500	0,1	0,274553
5,834167	0,1	0,261955
5,835833	0,1	0,277039
5,837500	0,1	0,290245
5,839167	0,1	0,280625
5,840833	0,1	0,265620
5,842500	0,1	0,280600
5,844167	0,1	0,277229
5,845833	0,1	0,256762
5,847500	0,1	0,240240
5,849167	0,1	0,286036
5,850833	0,1	0,272823
5,852500	0,1	0,269529
5,854167	0,1	0,206561
5,855833	0,1	0,252170
5,857500	0,1	0,222031
5,859167	0,1	0,259274
5,860833	0,1	0,270933
5,862500	0,1	0,255083
5,864167	0,1	0,243739
5,865833	0,1	0,256939
5,867500	0,1	0,259942
5,869167	0,1	0,258165
5,870833	0,1	0,263711
5,872500	0,1	0,266734
5,874167	0,1	0,241114
5,875833	0,1	0,230079
5,877500	0,1	0,249135
5,879167	0,1	0,283844
5,880833	0,1	0,240641
5,882500	0,1	0,211994
5,884167	0,1	0,241286
5,885833	0,1	0,240716
5,887500	0,1	0,240613
5,889167	0,1	0,231818
5,890833	0,1	0,232499
5,892500	0,1	0,233346
5,894167	0,1	0,198584
5,895833	0,1	0,223325
5,897500	0,1	0,255528
5,899167	0,1	0,246802
5,900833	0,1	0,238937
5,902500	0,1	0,263230
5,904167	0,1	0,218624
5,905833	0,1	0,197359
5,907500	0,1	0,225619
5,909167	0,1	0,205223
5,910833	0,1	0,222500
5,912500	0,1	0,230819
5,914167	0,1	0,198337
5,915833	0,1	0,202757
5,917500	0,1	0,225744
5,919167	0,1	0,208080
5,920833	0,1	0,182005
5,922500	0,1	0,226837
5,924167	0,1	0,229660
5,925833	0,1	0,230388
5,927500	0,1	0,232789
5,929167	0,1	0,215656
5,930833	0,1	0,255194
5,932500	0,1	0,209888
5,934167	0,1	0,255298
5,935833	0,1	0,212225
5,937500	0,1	0,227283
5,939167	0,1	0,224117
5,940833	0,1	0,226909
5,942500	0,1	0,220988
5,944167	0,1	0,212631
5,945833	0,1	0,232617
5,947500	0,1	0,210709
5,949167	0,1	0,199861
5,950833	0,1	0,219805
5,952500	0,1	0,231460
5,954167	0,1	0,219171
5,955833	0,1	0,258858
5,957500	0,1	0,276706
5,959167	0,1	0,208672
5,960833	0,1	0,201477
5,962500	0,1	0,202758
5,964167	0,1	0,202011
5,965833	0,1	0,227133
5,967500	0,1	0,217744
5,969167	0,1	0,216540
5,970833	0,1	0,207955
5,972500	0,1	0,207970
5,974167	0,1	0,240438
5,975833	0,1	0,190808
5,977500	0,1	0,233854
5,979167	0,1	0,222441
5,980833	0,1	0,203360
5,982500	0,1	0,200938
5,984167	0,1	0,213847
5,985833	0,1	0,183992
5,987500	0,1	0,199275
5,989167	0,1	0,204082
5,990833	0,1	0,193216
5,992500	0,1	0,242815
5,994167	0,1	0,196687
5,995833	0,1	0,194234
5,997500	0,1	0,222702
5,999167	0,1	0,191691
6,000833	0,1	0,196860
