File Path	chrom://chromeleon01/ikbm_chromeleon/2022/Rezex/Esteban/220612_chitin_4_7.seq/394.smp/UV_VIS_1.channel/UV_VIS_1.chm
Channel	UV_VIS_1

Injection Information:
Data Vault	ikbm_chromeleon
Injection	7_00.5h-EGS_3
Injection Number	102
Position	BA5
Comment	
Processing Method	New ProcMethod
Instrument Method	Short_Rezex_6min_194nm
Type	Unknown
Status	Finished
Injection Date	13.06.2022
Injection Time	04:08:08
Injection Volume (µl)	8,000
Dilution Factor	1,0000
Weight	1,0000

Chromatogram Data Information:
Time Min. (min)	0,000833
Time Max. (min)	6,000833
Data Points	3601
Detector	UV
Generating Data System	Chromeleon 7.2.9.11323
Exporting Data System	Chromeleon 7.2.9.0
Operator	Instrument Controller
Signal Quantity	Absorbance
Signal Unit	mAU
Signal Min.	-0,092196
Signal Max.	121,234139
Channel	UV_VIS_1
Driver Name	VWD3000.dll
Channel Type	Evaluation
Min. Step (s)	0,1
Max. Step (s)	0,1
Average Step (s)	0,1

Signal Parameter Information:
Signal Info	WVL:194 nm

Chromatogram Data:
Time (min)	Step (s)	Value (mAU)
0,000833	n.a.	0,000066
0,002500	0,1	-0,054977
0,004167	0,1	-0,006963
0,005833	0,1	-0,041590
0,007500	0,1	-0,058608
0,009167	0,1	0,031942
0,010833	0,1	-0,033180
0,012500	0,1	0,019862
0,014167	0,1	-0,027452
0,015833	0,1	-0,070669
0,017500	0,1	-0,038168
0,019167	0,1	-0,049479
0,020833	0,1	-0,022522
0,022500	0,1	-0,006169
0,024167	0,1	0,015648
0,025833	0,1	-0,006946
0,027500	0,1	-0,026775
0,029167	0,1	-0,048359
0,030833	0,1	-0,073774
0,032500	0,1	-0,092196
0,034167	0,1	-0,071633
0,035833	0,1	-0,081019
0,037500	0,1	-0,081355
0,039167	0,1	-0,058926
0,040833	0,1	-0,059640
0,042500	0,1	-0,058069
0,044167	0,1	-0,035188
0,045833	0,1	-0,073859
0,047500	0,1	-0,059089
0,049167	0,1	-0,082334
0,050833	0,1	-0,053196
0,052500	0,1	-0,047620
0,054167	0,1	-0,064276
0,055833	0,1	-0,018635
0,057500	0,1	-0,045318
0,059167	0,1	-0,035991
0,060833	0,1	0,001961
0,062500	0,1	-0,037324
0,064167	0,1	-0,029249
0,065833	0,1	0,007177
0,067500	0,1	-0,077900
0,069167	0,1	-0,022072
0,070833	0,1	-0,037392
0,072500	0,1	-0,034541
0,074167	0,1	-0,019496
0,075833	0,1	-0,061211
0,077500	0,1	0,000716
0,079167	0,1	-0,043061
0,080833	0,1	-0,034893
0,082500	0,1	0,019676
0,084167	0,1	-0,020477
0,085833	0,1	-0,013781
0,087500	0,1	0,000289
0,089167	0,1	0,004783
0,090833	0,1	-0,010612
0,092500	0,1	-0,021353
0,094167	0,1	0,004445
0,095833	0,1	-0,009058
0,097500	0,1	0,002753
0,099167	0,1	-0,038151
0,100833	0,1	-0,005052
0,102500	0,1	-0,035278
0,104167	0,1	-0,001123
0,105833	0,1	-0,047694
0,107500	0,1	-0,042302
0,109167	0,1	0,015413
0,110833	0,1	-0,044150
0,112500	0,1	-0,079468
0,114167	0,1	-0,041896
0,115833	0,1	-0,057368
0,117500	0,1	-0,039739
0,119167	0,1	-0,035640
0,120833	0,1	-0,060198
0,122500	0,1	-0,068814
0,124167	0,1	-0,047895
0,125833	0,1	-0,049400
0,127500	0,1	-0,043278
0,129167	0,1	-0,042116
0,130833	0,1	-0,041640
0,132500	0,1	-0,048505
0,134167	0,1	-0,044910
0,135833	0,1	-0,045489
0,137500	0,1	-0,029226
0,139167	0,1	-0,046065
0,140833	0,1	-0,045139
0,142500	0,1	-0,007396
0,144167	0,1	0,004781
0,145833	0,1	-0,029651
0,147500	0,1	0,014481
0,149167	0,1	-0,018578
0,150833	0,1	-0,017629
0,152500	0,1	-0,039068
0,154167	0,1	-0,018423
0,155833	0,1	-0,036609
0,157500	0,1	0,002561
0,159167	0,1	0,017595
0,160833	0,1	-0,013213
0,162500	0,1	-0,034350
0,164167	0,1	0,023670
0,165833	0,1	-0,023022
0,167500	0,1	-0,009995
0,169167	0,1	-0,012022
0,170833	0,1	-0,004551
0,172500	0,1	-0,005129
0,174167	0,1	0,011364
0,175833	0,1	-0,026980
0,177500	0,1	0,018496
0,179167	0,1	-0,001233
0,180833	0,1	-0,018600
0,182500	0,1	-0,001366
0,184167	0,1	0,010989
0,185833	0,1	-0,006532
0,187500	0,1	0,004410
0,189167	0,1	-0,017500
0,190833	0,1	-0,005650
0,192500	0,1	-0,004385
0,194167	0,1	-0,040763
0,195833	0,1	-0,015649
0,197500	0,1	0,005588
0,199167	0,1	0,005302
0,200833	0,1	-0,033870
0,202500	0,1	0,031347
0,204167	0,1	0,025651
0,205833	0,1	-0,009403
0,207500	0,1	-0,010948
0,209167	0,1	-0,002812
0,210833	0,1	0,008984
0,212500	0,1	-0,021928
0,214167	0,1	-0,010721
0,215833	0,1	-0,014691
0,217500	0,1	-0,014816
0,219167	0,1	-0,000123
0,220833	0,1	0,008676
0,222500	0,1	0,008222
0,224167	0,1	-0,014028
0,225833	0,1	-0,023216
0,227500	0,1	0,017404
0,229167	0,1	0,005885
0,230833	0,1	0,016022
0,232500	0,1	-0,008314
0,234167	0,1	0,014342
0,235833	0,1	-0,004545
0,237500	0,1	0,003561
0,239167	0,1	-0,017624
0,240833	0,1	-0,013928
0,242500	0,1	-0,013718
0,244167	0,1	-0,023199
0,245833	0,1	0,013532
0,247500	0,1	-0,009636
0,249167	0,1	0,018234
0,250833	0,1	0,013251
0,252500	0,1	-0,013694
0,254167	0,1	-0,031871
0,255833	0,1	-0,003064
0,257500	0,1	0,039406
0,259167	0,1	0,001605
0,260833	0,1	0,024485
0,262500	0,1	0,017124
0,264167	0,1	0,033823
0,265833	0,1	-0,000691
0,267500	0,1	0,026452
0,269167	0,1	0,018181
0,270833	0,1	0,002492
0,272500	0,1	0,010848
0,274167	0,1	0,032414
0,275833	0,1	-0,000218
0,277500	0,1	0,004888
0,279167	0,1	-0,007384
0,280833	0,1	-0,015973
0,282500	0,1	-0,008692
0,284167	0,1	-0,004533
0,285833	0,1	0,039508
0,287500	0,1	-0,011245
0,289167	0,1	0,023799
0,290833	0,1	0,009364
0,292500	0,1	0,019270
0,294167	0,1	0,016440
0,295833	0,1	-0,020379
0,297500	0,1	0,028328
0,299167	0,1	-0,014084
0,300833	0,1	0,000474
0,302500	0,1	0,014055
0,304167	0,1	0,018797
0,305833	0,1	0,033656
0,307500	0,1	0,022341
0,309167	0,1	0,001872
0,310833	0,1	0,050001
0,312500	0,1	-0,001932
0,314167	0,1	0,013228
0,315833	0,1	0,030075
0,317500	0,1	0,039185
0,319167	0,1	-0,033203
0,320833	0,1	0,005955
0,322500	0,1	0,041807
0,324167	0,1	-0,007560
0,325833	0,1	0,049276
0,327500	0,1	0,000181
0,329167	0,1	-0,009121
0,330833	0,1	0,024420
0,332500	0,1	0,008867
0,334167	0,1	0,030034
0,335833	0,1	0,026437
0,337500	0,1	0,017890
0,339167	0,1	0,010251
0,340833	0,1	0,002905
0,342500	0,1	0,017676
0,344167	0,1	0,035726
0,345833	0,1	0,034531
0,347500	0,1	-0,013689
0,349167	0,1	0,045776
0,350833	0,1	0,036666
0,352500	0,1	0,020170
0,354167	0,1	0,038231
0,355833	0,1	0,005787
0,357500	0,1	0,037316
0,359167	0,1	0,004318
0,360833	0,1	0,029887
0,362500	0,1	0,042684
0,364167	0,1	0,008871
0,365833	0,1	0,060413
0,367500	0,1	0,034868
0,369167	0,1	0,073334
0,370833	0,1	0,031332
0,372500	0,1	-0,018969
0,374167	0,1	0,055460
0,375833	0,1	0,034824
0,377500	0,1	0,031407
0,379167	0,1	0,047380
0,380833	0,1	0,017150
0,382500	0,1	0,049654
0,384167	0,1	0,050325
0,385833	0,1	0,076980
0,387500	0,1	0,045674
0,389167	0,1	0,029711
0,390833	0,1	0,024036
0,392500	0,1	0,032374
0,394167	0,1	0,010917
0,395833	0,1	0,064410
0,397500	0,1	0,052563
0,399167	0,1	0,032505
0,400833	0,1	0,060979
0,402500	0,1	0,045670
0,404167	0,1	0,036665
0,405833	0,1	0,033124
0,407500	0,1	0,035999
0,409167	0,1	-0,002265
0,410833	0,1	0,027877
0,412500	0,1	0,058970
0,414167	0,1	0,007384
0,415833	0,1	0,100172
0,417500	0,1	0,086616
0,419167	0,1	0,031810
0,420833	0,1	0,026850
0,422500	0,1	0,068117
0,424167	0,1	0,039671
0,425833	0,1	0,030041
0,427500	0,1	0,036991
0,429167	0,1	0,043284
0,430833	0,1	0,050634
0,432500	0,1	0,075160
0,434167	0,1	0,072910
0,435833	0,1	0,053371
0,437500	0,1	0,040452
0,439167	0,1	0,014374
0,440833	0,1	0,028709
0,442500	0,1	0,043158
0,444167	0,1	0,031511
0,445833	0,1	0,045145
0,447500	0,1	0,050882
0,449167	0,1	0,060259
0,450833	0,1	0,077624
0,452500	0,1	0,046480
0,454167	0,1	0,047281
0,455833	0,1	0,048400
0,457500	0,1	0,034472
0,459167	0,1	0,060295
0,460833	0,1	0,044427
0,462500	0,1	0,057793
0,464167	0,1	0,034598
0,465833	0,1	0,014829
0,467500	0,1	0,023310
0,469167	0,1	0,028090
0,470833	0,1	0,071387
0,472500	0,1	0,063327
0,474167	0,1	0,022472
0,475833	0,1	0,059342
0,477500	0,1	0,066075
0,479167	0,1	0,055605
0,480833	0,1	0,090766
0,482500	0,1	0,043752
0,484167	0,1	0,065576
0,485833	0,1	0,073942
0,487500	0,1	0,073552
0,489167	0,1	0,059642
0,490833	0,1	0,049249
0,492500	0,1	0,067378
0,494167	0,1	0,135454
0,495833	0,1	0,051254
0,497500	0,1	0,084991
0,499167	0,1	0,102902
0,500833	0,1	0,033924
0,502500	0,1	0,041668
0,504167	0,1	0,047425
0,505833	0,1	0,045130
0,507500	0,1	0,075758
0,509167	0,1	0,039465
0,510833	0,1	0,054398
0,512500	0,1	0,073423
0,514167	0,1	0,056062
0,515833	0,1	0,054195
0,517500	0,1	0,115354
0,519167	0,1	0,028671
0,520833	0,1	0,081551
0,522500	0,1	0,069207
0,524167	0,1	0,070507
0,525833	0,1	0,079057
0,527500	0,1	0,073946
0,529167	0,1	0,088620
0,530833	0,1	0,083861
0,532500	0,1	0,064922
0,534167	0,1	0,136657
0,535833	0,1	0,075429
0,537500	0,1	0,114305
0,539167	0,1	0,106988
0,540833	0,1	0,082398
0,542500	0,1	0,069724
0,544167	0,1	0,070383
0,545833	0,1	0,068313
0,547500	0,1	0,085656
0,549167	0,1	0,095494
0,550833	0,1	0,085270
0,552500	0,1	0,101825
0,554167	0,1	0,068114
0,555833	0,1	0,079800
0,557500	0,1	0,107248
0,559167	0,1	0,087115
0,560833	0,1	0,093278
0,562500	0,1	0,103588
0,564167	0,1	0,080574
0,565833	0,1	0,073615
0,567500	0,1	0,077876
0,569167	0,1	0,150176
0,570833	0,1	0,069492
0,572500	0,1	0,078082
0,574167	0,1	0,110107
0,575833	0,1	0,083142
0,577500	0,1	0,136889
0,579167	0,1	0,127384
0,580833	0,1	0,120528
0,582500	0,1	0,104610
0,584167	0,1	0,120731
0,585833	0,1	0,103015
0,587500	0,1	0,080905
0,589167	0,1	0,089076
0,590833	0,1	0,107188
0,592500	0,1	0,117110
0,594167	0,1	0,117089
0,595833	0,1	0,120671
0,597500	0,1	0,099931
0,599167	0,1	0,131555
0,600833	0,1	0,134560
0,602500	0,1	0,123222
0,604167	0,1	0,090432
0,605833	0,1	0,129645
0,607500	0,1	0,142697
0,609167	0,1	0,082469
0,610833	0,1	0,091954
0,612500	0,1	0,126339
0,614167	0,1	0,126633
0,615833	0,1	0,143362
0,617500	0,1	0,085013
0,619167	0,1	0,150099
0,620833	0,1	0,119869
0,622500	0,1	0,113177
0,624167	0,1	0,163416
0,625833	0,1	0,158169
0,627500	0,1	0,169118
0,629167	0,1	0,114989
0,630833	0,1	0,129031
0,632500	0,1	0,151722
0,634167	0,1	0,124093
0,635833	0,1	0,175590
0,637500	0,1	0,142004
0,639167	0,1	0,172135
0,640833	0,1	0,153720
0,642500	0,1	0,134839
0,644167	0,1	0,160707
0,645833	0,1	0,134033
0,647500	0,1	0,163562
0,649167	0,1	0,136891
0,650833	0,1	0,144006
0,652500	0,1	0,162885
0,654167	0,1	0,150531
0,655833	0,1	0,158166
0,657500	0,1	0,165909
0,659167	0,1	0,118259
0,660833	0,1	0,148511
0,662500	0,1	0,169178
0,664167	0,1	0,142685
0,665833	0,1	0,174373
0,667500	0,1	0,177361
0,669167	0,1	0,197297
0,670833	0,1	0,205605
0,672500	0,1	0,147686
0,674167	0,1	0,175226
0,675833	0,1	0,172228
0,677500	0,1	0,176719
0,679167	0,1	0,185329
0,680833	0,1	0,176910
0,682500	0,1	0,207754
0,684167	0,1	0,194697
0,685833	0,1	0,208953
0,687500	0,1	0,187059
0,689167	0,1	0,189004
0,690833	0,1	0,221939
0,692500	0,1	0,208281
0,694167	0,1	0,232590
0,695833	0,1	0,217582
0,697500	0,1	0,217288
0,699167	0,1	0,202855
0,700833	0,1	0,196020
0,702500	0,1	0,231631
0,704167	0,1	0,193131
0,705833	0,1	0,228395
0,707500	0,1	0,224930
0,709167	0,1	0,250855
0,710833	0,1	0,230612
0,712500	0,1	0,235679
0,714167	0,1	0,241910
0,715833	0,1	0,244717
0,717500	0,1	0,251061
0,719167	0,1	0,251893
0,720833	0,1	0,269539
0,722500	0,1	0,264156
0,724167	0,1	0,296152
0,725833	0,1	0,258511
0,727500	0,1	0,262669
0,729167	0,1	0,275105
0,730833	0,1	0,239955
0,732500	0,1	0,321743
0,734167	0,1	0,292602
0,735833	0,1	0,237266
0,737500	0,1	0,290214
0,739167	0,1	0,307397
0,740833	0,1	0,303939
0,742500	0,1	0,301269
0,744167	0,1	0,287689
0,745833	0,1	0,318851
0,747500	0,1	0,333055
0,749167	0,1	0,344127
0,750833	0,1	0,325999
0,752500	0,1	0,336963
0,754167	0,1	0,292960
0,755833	0,1	0,305950
0,757500	0,1	0,320528
0,759167	0,1	0,322069
0,760833	0,1	0,331737
0,762500	0,1	0,322524
0,764167	0,1	0,328979
0,765833	0,1	0,312757
0,767500	0,1	0,286507
0,769167	0,1	0,342288
0,770833	0,1	0,355432
0,772500	0,1	0,342658
0,774167	0,1	0,293350
0,775833	0,1	0,309956
0,777500	0,1	0,353461
0,779167	0,1	0,345416
0,780833	0,1	0,355560
0,782500	0,1	0,330967
0,784167	0,1	0,315851
0,785833	0,1	0,296137
0,787500	0,1	0,296096
0,789167	0,1	0,339080
0,790833	0,1	0,332155
0,792500	0,1	0,317515
0,794167	0,1	0,345180
0,795833	0,1	0,350260
0,797500	0,1	0,329906
0,799167	0,1	0,295273
0,800833	0,1	0,311538
0,802500	0,1	0,333597
0,804167	0,1	0,365927
0,805833	0,1	0,312577
0,807500	0,1	0,300114
0,809167	0,1	0,330346
0,810833	0,1	0,311410
0,812500	0,1	0,281824
0,814167	0,1	0,295967
0,815833	0,1	0,332082
0,817500	0,1	0,298936
0,819167	0,1	0,300664
0,820833	0,1	0,317317
0,822500	0,1	0,308460
0,824167	0,1	0,311216
0,825833	0,1	0,333009
0,827500	0,1	0,306829
0,829167	0,1	0,346787
0,830833	0,1	0,293766
0,832500	0,1	0,255817
0,834167	0,1	0,336278
0,835833	0,1	0,285067
0,837500	0,1	0,309259
0,839167	0,1	0,326180
0,840833	0,1	0,327342
0,842500	0,1	0,316068
0,844167	0,1	0,302005
0,845833	0,1	0,296775
0,847500	0,1	0,295844
0,849167	0,1	0,289323
0,850833	0,1	0,308201
0,852500	0,1	0,298930
0,854167	0,1	0,350547
0,855833	0,1	0,317810
0,857500	0,1	0,314918
0,859167	0,1	0,328977
0,860833	0,1	0,338383
0,862500	0,1	0,298710
0,864167	0,1	0,296574
0,865833	0,1	0,270935
0,867500	0,1	0,371690
0,869167	0,1	0,292172
0,870833	0,1	0,341584
0,872500	0,1	0,354283
0,874167	0,1	0,340514
0,875833	0,1	0,321659
0,877500	0,1	0,335136
0,879167	0,1	0,312579
0,880833	0,1	0,351890
0,882500	0,1	0,340922
0,884167	0,1	0,339318
0,885833	0,1	0,302814
0,887500	0,1	0,319209
0,889167	0,1	0,309555
0,890833	0,1	0,342610
0,892500	0,1	0,316369
0,894167	0,1	0,305756
0,895833	0,1	0,313656
0,897500	0,1	0,351346
0,899167	0,1	0,339220
0,900833	0,1	0,317102
0,902500	0,1	0,326726
0,904167	0,1	0,331510
0,905833	0,1	0,347110
0,907500	0,1	0,319444
0,909167	0,1	0,341176
0,910833	0,1	0,356172
0,912500	0,1	0,368176
0,914167	0,1	0,330337
0,915833	0,1	0,377031
0,917500	0,1	0,349498
0,919167	0,1	0,357069
0,920833	0,1	0,348788
0,922500	0,1	0,363228
0,924167	0,1	0,335273
0,925833	0,1	0,366823
0,927500	0,1	0,396499
0,929167	0,1	0,339142
0,930833	0,1	0,349553
0,932500	0,1	0,381403
0,934167	0,1	0,381059
0,935833	0,1	0,414544
0,937500	0,1	0,383796
0,939167	0,1	0,348985
0,940833	0,1	0,399190
0,942500	0,1	0,363050
0,944167	0,1	0,360121
0,945833	0,1	0,390424
0,947500	0,1	0,361412
0,949167	0,1	0,383135
0,950833	0,1	0,389631
0,952500	0,1	0,377907
0,954167	0,1	0,379647
0,955833	0,1	0,394894
0,957500	0,1	0,388343
0,959167	0,1	0,337395
0,960833	0,1	0,361590
0,962500	0,1	0,378684
0,964167	0,1	0,411651
0,965833	0,1	0,428130
0,967500	0,1	0,397052
0,969167	0,1	0,418077
0,970833	0,1	0,391722
0,972500	0,1	0,445815
0,974167	0,1	0,372594
0,975833	0,1	0,413513
0,977500	0,1	0,382542
0,979167	0,1	0,425333
0,980833	0,1	0,423575
0,982500	0,1	0,416157
0,984167	0,1	0,445952
0,985833	0,1	0,416029
0,987500	0,1	0,420166
0,989167	0,1	0,445822
0,990833	0,1	0,447275
0,992500	0,1	0,427397
0,994167	0,1	0,455392
0,995833	0,1	0,441179
0,997500	0,1	0,421553
0,999167	0,1	0,434773
1,000833	0,1	0,447433
1,002500	0,1	0,502534
1,004167	0,1	0,486046
1,005833	0,1	0,444166
1,007500	0,1	0,459891
1,009167	0,1	0,468886
1,010833	0,1	0,503023
1,012500	0,1	0,494811
1,014167	0,1	0,520658
1,015833	0,1	0,532995
1,017500	0,1	0,541541
1,019167	0,1	0,552752
1,020833	0,1	0,519162
1,022500	0,1	0,479207
1,024167	0,1	0,569789
1,025833	0,1	0,542867
1,027500	0,1	0,530080
1,029167	0,1	0,570606
1,030833	0,1	0,533619
1,032500	0,1	0,583485
1,034167	0,1	0,599555
1,035833	0,1	0,599558
1,037500	0,1	0,594005
1,039167	0,1	0,613305
1,040833	0,1	0,589413
1,042500	0,1	0,604730
1,044167	0,1	0,673410
1,045833	0,1	0,653251
1,047500	0,1	0,664880
1,049167	0,1	0,693666
1,050833	0,1	0,713332
1,052500	0,1	0,760944
1,054167	0,1	0,727745
1,055833	0,1	0,811960
1,057500	0,1	0,870156
1,059167	0,1	0,896644
1,060833	0,1	1,009385
1,062500	0,1	1,079969
1,064167	0,1	1,277949
1,065833	0,1	1,412553
1,067500	0,1	1,711251
1,069167	0,1	2,053646
1,070833	0,1	2,403053
1,072500	0,1	2,883194
1,074167	0,1	3,444491
1,075833	0,1	4,096781
1,077500	0,1	4,914175
1,079167	0,1	5,847867
1,080833	0,1	6,971132
1,082500	0,1	8,124541
1,084167	0,1	9,503986
1,085833	0,1	10,980450
1,087500	0,1	12,596935
1,089167	0,1	14,322517
1,090833	0,1	16,126586
1,092500	0,1	18,015058
1,094167	0,1	19,961333
1,095833	0,1	21,839447
1,097500	0,1	23,768266
1,099167	0,1	25,691314
1,100833	0,1	27,503394
1,102500	0,1	29,176757
1,104167	0,1	30,759795
1,105833	0,1	32,225417
1,107500	0,1	33,514739
1,109167	0,1	34,698617
1,110833	0,1	35,630526
1,112500	0,1	36,456672
1,114167	0,1	37,119008
1,115833	0,1	37,663836
1,117500	0,1	38,050562
1,119167	0,1	38,345979
1,120833	0,1	38,534618
1,122500	0,1	38,565088
1,124167	0,1	38,639103
1,125833	0,1	38,621110
1,127500	0,1	38,600574
1,129167	0,1	38,568979
1,130833	0,1	38,493774
1,132500	0,1	38,430941
1,134167	0,1	38,429037
1,135833	0,1	38,506598
1,137500	0,1	38,622252
1,139167	0,1	38,795542
1,140833	0,1	39,026942
1,142500	0,1	39,370715
1,144167	0,1	39,817486
1,145833	0,1	40,312704
1,147500	0,1	40,980766
1,149167	0,1	41,668321
1,150833	0,1	42,527622
1,152500	0,1	43,481970
1,154167	0,1	44,546577
1,155833	0,1	45,689802
1,157500	0,1	46,938420
1,159167	0,1	48,200661
1,160833	0,1	49,615338
1,162500	0,1	50,975406
1,164167	0,1	52,474522
1,165833	0,1	53,964481
1,167500	0,1	55,384279
1,169167	0,1	56,884557
1,170833	0,1	58,336896
1,172500	0,1	59,666216
1,174167	0,1	60,982931
1,175833	0,1	62,228348
1,177500	0,1	63,428039
1,179167	0,1	64,523614
1,180833	0,1	65,476806
1,182500	0,1	66,336750
1,184167	0,1	67,130018
1,185833	0,1	67,799996
1,187500	0,1	68,355307
1,189167	0,1	68,834446
1,190833	0,1	69,276481
1,192500	0,1	69,570537
1,194167	0,1	69,865570
1,195833	0,1	70,171209
1,197500	0,1	70,379515
1,199167	0,1	70,644108
1,200833	0,1	70,939221
1,202500	0,1	71,312224
1,204167	0,1	71,813166
1,205833	0,1	72,333409
1,207500	0,1	72,951095
1,209167	0,1	73,887569
1,210833	0,1	74,879125
1,212500	0,1	76,140562
1,214167	0,1	77,447365
1,215833	0,1	79,073905
1,217500	0,1	80,822553
1,219167	0,1	82,825823
1,220833	0,1	84,908305
1,222500	0,1	87,099532
1,224167	0,1	89,550156
1,225833	0,1	91,977508
1,227500	0,1	94,525312
1,229167	0,1	97,066665
1,230833	0,1	99,589669
1,232500	0,1	102,167671
1,234167	0,1	104,664215
1,235833	0,1	106,992683
1,237500	0,1	109,245040
1,239167	0,1	111,388867
1,240833	0,1	113,273432
1,242500	0,1	115,037236
1,244167	0,1	116,646752
1,245833	0,1	117,943018
1,247500	0,1	119,033975
1,249167	0,1	119,962399
1,250833	0,1	120,631064
1,252500	0,1	121,089624
1,254167	0,1	121,234139
1,255833	0,1	121,231964
1,257500	0,1	120,947292
1,259167	0,1	120,549414
1,260833	0,1	119,852370
1,262500	0,1	118,889063
1,264167	0,1	117,805276
1,265833	0,1	116,531261
1,267500	0,1	115,006513
1,269167	0,1	113,369630
1,270833	0,1	111,611767
1,272500	0,1	109,712507
1,274167	0,1	107,618827
1,275833	0,1	105,445812
1,277500	0,1	103,119774
1,279167	0,1	100,750906
1,280833	0,1	98,321043
1,282500	0,1	95,808020
1,284167	0,1	93,261810
1,285833	0,1	90,727511
1,287500	0,1	88,087379
1,289167	0,1	85,524476
1,290833	0,1	82,961422
1,292500	0,1	80,374054
1,294167	0,1	77,786370
1,295833	0,1	75,365837
1,297500	0,1	72,876747
1,299167	0,1	70,460978
1,300833	0,1	68,082641
1,302500	0,1	65,820501
1,304167	0,1	63,579496
1,305833	0,1	61,382227
1,307500	0,1	59,291324
1,309167	0,1	57,249484
1,310833	0,1	55,251947
1,312500	0,1	53,438124
1,314167	0,1	51,597902
1,315833	0,1	49,814275
1,317500	0,1	48,134627
1,319167	0,1	46,506136
1,320833	0,1	44,957113
1,322500	0,1	43,429765
1,324167	0,1	42,041997
1,325833	0,1	40,681029
1,327500	0,1	39,351585
1,329167	0,1	38,052812
1,330833	0,1	36,845111
1,332500	0,1	35,630328
1,334167	0,1	34,507627
1,335833	0,1	33,403065
1,337500	0,1	32,405184
1,339167	0,1	31,358713
1,340833	0,1	30,417589
1,342500	0,1	29,470218
1,344167	0,1	28,570335
1,345833	0,1	27,741853
1,347500	0,1	26,930008
1,349167	0,1	26,096607
1,350833	0,1	25,313748
1,352500	0,1	24,601208
1,354167	0,1	23,921999
1,355833	0,1	23,202676
1,357500	0,1	22,518459
1,359167	0,1	21,896086
1,360833	0,1	21,286113
1,362500	0,1	20,719376
1,364167	0,1	20,133489
1,365833	0,1	19,604795
1,367500	0,1	19,086687
1,369167	0,1	18,526602
1,370833	0,1	18,083056
1,372500	0,1	17,571262
1,374167	0,1	17,108615
1,375833	0,1	16,750011
1,377500	0,1	16,328139
1,379167	0,1	15,862438
1,380833	0,1	15,477912
1,382500	0,1	15,076365
1,384167	0,1	14,775269
1,385833	0,1	14,362918
1,387500	0,1	14,036478
1,389167	0,1	13,749711
1,390833	0,1	13,410386
1,392500	0,1	13,161098
1,394167	0,1	12,881516
1,395833	0,1	12,571047
1,397500	0,1	12,369311
1,399167	0,1	12,060052
1,400833	0,1	11,857551
1,402500	0,1	11,652389
1,404167	0,1	11,404157
1,405833	0,1	11,208324
1,407500	0,1	10,992480
1,409167	0,1	10,814875
1,410833	0,1	10,621960
1,412500	0,1	10,482787
1,414167	0,1	10,303605
1,415833	0,1	10,118035
1,417500	0,1	10,001377
1,419167	0,1	9,832917
1,420833	0,1	9,701790
1,422500	0,1	9,580288
1,424167	0,1	9,457090
1,425833	0,1	9,311194
1,427500	0,1	9,185235
1,429167	0,1	9,065318
1,430833	0,1	8,970567
1,432500	0,1	8,851824
1,434167	0,1	8,761736
1,435833	0,1	8,635326
1,437500	0,1	8,521473
1,439167	0,1	8,449267
1,440833	0,1	8,377604
1,442500	0,1	8,266245
1,444167	0,1	8,132743
1,445833	0,1	8,078203
1,447500	0,1	7,951422
1,449167	0,1	7,910220
1,450833	0,1	7,786565
1,452500	0,1	7,722270
1,454167	0,1	7,647635
1,455833	0,1	7,586147
1,457500	0,1	7,496635
1,459167	0,1	7,447457
1,460833	0,1	7,349571
1,462500	0,1	7,261211
1,464167	0,1	7,235100
1,465833	0,1	7,159987
1,467500	0,1	7,111251
1,469167	0,1	7,067456
1,470833	0,1	7,056453
1,472500	0,1	6,981665
1,474167	0,1	6,960137
1,475833	0,1	6,910870
1,477500	0,1	6,865235
1,479167	0,1	6,900425
1,480833	0,1	6,865890
1,482500	0,1	6,826401
1,484167	0,1	6,815596
1,485833	0,1	6,799954
1,487500	0,1	6,807215
1,489167	0,1	6,831333
1,490833	0,1	6,831888
1,492500	0,1	6,793258
1,494167	0,1	6,831787
1,495833	0,1	6,864477
1,497500	0,1	6,847813
1,499167	0,1	6,941573
1,500833	0,1	6,902485
1,502500	0,1	6,907412
1,504167	0,1	6,938795
1,505833	0,1	6,932281
1,507500	0,1	6,976421
1,509167	0,1	6,994312
1,510833	0,1	7,006702
1,512500	0,1	7,050571
1,514167	0,1	7,076476
1,515833	0,1	7,123802
1,517500	0,1	7,087206
1,519167	0,1	7,126416
1,520833	0,1	7,133408
1,522500	0,1	7,162572
1,524167	0,1	7,155312
1,525833	0,1	7,164167
1,527500	0,1	7,181493
1,529167	0,1	7,171061
1,530833	0,1	7,175347
1,532500	0,1	7,187364
1,534167	0,1	7,196310
1,535833	0,1	7,185225
1,537500	0,1	7,165747
1,539167	0,1	7,154102
1,540833	0,1	7,133141
1,542500	0,1	7,140958
1,544167	0,1	7,131924
1,545833	0,1	7,073235
1,547500	0,1	7,079370
1,549167	0,1	7,093530
1,550833	0,1	7,064470
1,552500	0,1	6,995637
1,554167	0,1	7,004375
1,555833	0,1	6,952133
1,557500	0,1	6,943646
1,559167	0,1	6,908725
1,560833	0,1	6,879762
1,562500	0,1	6,839909
1,564167	0,1	6,825380
1,565833	0,1	6,763657
1,567500	0,1	6,737021
1,569167	0,1	6,652509
1,570833	0,1	6,641499
1,572500	0,1	6,608381
1,574167	0,1	6,572929
1,575833	0,1	6,516810
1,577500	0,1	6,508800
1,579167	0,1	6,459419
1,580833	0,1	6,425255
1,582500	0,1	6,351954
1,584167	0,1	6,361348
1,585833	0,1	6,305654
1,587500	0,1	6,243800
1,589167	0,1	6,204575
1,590833	0,1	6,180744
1,592500	0,1	6,099115
1,594167	0,1	6,070309
1,595833	0,1	6,061401
1,597500	0,1	5,972910
1,599167	0,1	5,930807
1,600833	0,1	5,897739
1,602500	0,1	5,857310
1,604167	0,1	5,815146
1,605833	0,1	5,779923
1,607500	0,1	5,768688
1,609167	0,1	5,685874
1,610833	0,1	5,629165
1,612500	0,1	5,585719
1,614167	0,1	5,561907
1,615833	0,1	5,520406
1,617500	0,1	5,507012
1,619167	0,1	5,444605
1,620833	0,1	5,427005
1,622500	0,1	5,362503
1,624167	0,1	5,274539
1,625833	0,1	5,260488
1,627500	0,1	5,250174
1,629167	0,1	5,214494
1,630833	0,1	5,170510
1,632500	0,1	5,163387
1,634167	0,1	5,083546
1,635833	0,1	5,061826
1,637500	0,1	5,055842
1,639167	0,1	5,001802
1,640833	0,1	4,969147
1,642500	0,1	4,944993
1,644167	0,1	4,887927
1,645833	0,1	4,870846
1,647500	0,1	4,821161
1,649167	0,1	4,806413
1,650833	0,1	4,800438
1,652500	0,1	4,770818
1,654167	0,1	4,707187
1,655833	0,1	4,719926
1,657500	0,1	4,684263
1,659167	0,1	4,721970
1,660833	0,1	4,675669
1,662500	0,1	4,689523
1,664167	0,1	4,664769
1,665833	0,1	4,647244
1,667500	0,1	4,657308
1,669167	0,1	4,673426
1,670833	0,1	4,663101
1,672500	0,1	4,684133
1,674167	0,1	4,720886
1,675833	0,1	4,750777
1,677500	0,1	4,774931
1,679167	0,1	4,810776
1,680833	0,1	4,803133
1,682500	0,1	4,826001
1,684167	0,1	4,906512
1,685833	0,1	4,915551
1,687500	0,1	4,966844
1,689167	0,1	5,041679
1,690833	0,1	5,051853
1,692500	0,1	5,168382
1,694167	0,1	5,223649
1,695833	0,1	5,259203
1,697500	0,1	5,304528
1,699167	0,1	5,420537
1,700833	0,1	5,453796
1,702500	0,1	5,523756
1,704167	0,1	5,580692
1,705833	0,1	5,634706
1,707500	0,1	5,724996
1,709167	0,1	5,768182
1,710833	0,1	5,885360
1,712500	0,1	5,929173
1,714167	0,1	6,028916
1,715833	0,1	6,122376
1,717500	0,1	6,180202
1,719167	0,1	6,226134
1,720833	0,1	6,261163
1,722500	0,1	6,320060
1,724167	0,1	6,396034
1,725833	0,1	6,459771
1,727500	0,1	6,488973
1,729167	0,1	6,484421
1,730833	0,1	6,579972
1,732500	0,1	6,634900
1,734167	0,1	6,648667
1,735833	0,1	6,652487
1,737500	0,1	6,688408
1,739167	0,1	6,707313
1,740833	0,1	6,721274
1,742500	0,1	6,691401
1,744167	0,1	6,751148
1,745833	0,1	6,724731
1,747500	0,1	6,780850
1,749167	0,1	6,722600
1,750833	0,1	6,742131
1,752500	0,1	6,743342
1,754167	0,1	6,683687
1,755833	0,1	6,706666
1,757500	0,1	6,673438
1,759167	0,1	6,604754
1,760833	0,1	6,598597
1,762500	0,1	6,534771
1,764167	0,1	6,538108
1,765833	0,1	6,503968
1,767500	0,1	6,434189
1,769167	0,1	6,391764
1,770833	0,1	6,295719
1,772500	0,1	6,257634
1,774167	0,1	6,240737
1,775833	0,1	6,169144
1,777500	0,1	6,134093
1,779167	0,1	6,006571
1,780833	0,1	5,963509
1,782500	0,1	5,931543
1,784167	0,1	5,829571
1,785833	0,1	5,799466
1,787500	0,1	5,707979
1,789167	0,1	5,652975
1,790833	0,1	5,554342
1,792500	0,1	5,528200
1,794167	0,1	5,415786
1,795833	0,1	5,368823
1,797500	0,1	5,260962
1,799167	0,1	5,251814
1,800833	0,1	5,152936
1,802500	0,1	5,107248
1,804167	0,1	4,985768
1,805833	0,1	4,970983
1,807500	0,1	4,852189
1,809167	0,1	4,795560
1,810833	0,1	4,736974
1,812500	0,1	4,653626
1,814167	0,1	4,641571
1,815833	0,1	4,531156
1,817500	0,1	4,474330
1,819167	0,1	4,353584
1,820833	0,1	4,311763
1,822500	0,1	4,282153
1,824167	0,1	4,231821
1,825833	0,1	4,116516
1,827500	0,1	4,089420
1,829167	0,1	4,000416
1,830833	0,1	3,961992
1,832500	0,1	3,923472
1,834167	0,1	3,856463
1,835833	0,1	3,808161
1,837500	0,1	3,738943
1,839167	0,1	3,733848
1,840833	0,1	3,688172
1,842500	0,1	3,693259
1,844167	0,1	3,671884
1,845833	0,1	3,638496
1,847500	0,1	3,595229
1,849167	0,1	3,622901
1,850833	0,1	3,602263
1,852500	0,1	3,680555
1,854167	0,1	3,680574
1,855833	0,1	3,679827
1,857500	0,1	3,712874
1,859167	0,1	3,694068
1,860833	0,1	3,728386
1,862500	0,1	3,811084
1,864167	0,1	3,813534
1,865833	0,1	3,839832
1,867500	0,1	3,933517
1,869167	0,1	3,915604
1,870833	0,1	4,016889
1,872500	0,1	4,021808
1,874167	0,1	3,986077
1,875833	0,1	4,092539
1,877500	0,1	4,134337
1,879167	0,1	4,148836
1,880833	0,1	4,181625
1,882500	0,1	4,200417
1,884167	0,1	4,280548
1,885833	0,1	4,277043
1,887500	0,1	4,309720
1,889167	0,1	4,382902
1,890833	0,1	4,346554
1,892500	0,1	4,377528
1,894167	0,1	4,407301
1,895833	0,1	4,414640
1,897500	0,1	4,430195
1,899167	0,1	4,467176
1,900833	0,1	4,479790
1,902500	0,1	4,511874
1,904167	0,1	4,506136
1,905833	0,1	4,561948
1,907500	0,1	4,536287
1,909167	0,1	4,575414
1,910833	0,1	4,599245
1,912500	0,1	4,604153
1,914167	0,1	4,647028
1,915833	0,1	4,591739
1,917500	0,1	4,646837
1,919167	0,1	4,651295
1,920833	0,1	4,658429
1,922500	0,1	4,674922
1,924167	0,1	4,670953
1,925833	0,1	4,661440
1,927500	0,1	4,690935
1,929167	0,1	4,694667
1,930833	0,1	4,670689
1,932500	0,1	4,674160
1,934167	0,1	4,674644
1,935833	0,1	4,644747
1,937500	0,1	4,680225
1,939167	0,1	4,694629
1,940833	0,1	4,666749
1,942500	0,1	4,623420
1,944167	0,1	4,682129
1,945833	0,1	4,636437
1,947500	0,1	4,675152
1,949167	0,1	4,674183
1,950833	0,1	4,632533
1,952500	0,1	4,670331
1,954167	0,1	4,636434
1,955833	0,1	4,623046
1,957500	0,1	4,609311
1,959167	0,1	4,597189
1,960833	0,1	4,652580
1,962500	0,1	4,641440
1,964167	0,1	4,617614
1,965833	0,1	4,627827
1,967500	0,1	4,635081
1,969167	0,1	4,630616
1,970833	0,1	4,639043
1,972500	0,1	4,624745
1,974167	0,1	4,607082
1,975833	0,1	4,641759
1,977500	0,1	4,609480
1,979167	0,1	4,615826
1,980833	0,1	4,644602
1,982500	0,1	4,651647
1,984167	0,1	4,651697
1,985833	0,1	4,647984
1,987500	0,1	4,657896
1,989167	0,1	4,722977
1,990833	0,1	4,666805
1,992500	0,1	4,710639
1,994167	0,1	4,713892
1,995833	0,1	4,777683
1,997500	0,1	4,792932
1,999167	0,1	4,762101
2,000833	0,1	4,785592
2,002500	0,1	4,788560
2,004167	0,1	4,820492
2,005833	0,1	4,845132
2,007500	0,1	4,795192
2,009167	0,1	4,843430
2,010833	0,1	4,889565
2,012500	0,1	4,932835
2,014167	0,1	4,896943
2,015833	0,1	4,965038
2,017500	0,1	4,960618
2,019167	0,1	4,995069
2,020833	0,1	5,014064
2,022500	0,1	5,071064
2,024167	0,1	5,061090
2,025833	0,1	5,056743
2,027500	0,1	5,136857
2,029167	0,1	5,159116
2,030833	0,1	5,189521
2,032500	0,1	5,170448
2,034167	0,1	5,209336
2,035833	0,1	5,295391
2,037500	0,1	5,287817
2,039167	0,1	5,292617
2,040833	0,1	5,371111
2,042500	0,1	5,390197
2,044167	0,1	5,387566
2,045833	0,1	5,429198
2,047500	0,1	5,443499
2,049167	0,1	5,519790
2,050833	0,1	5,528168
2,052500	0,1	5,577161
2,054167	0,1	5,591987
2,055833	0,1	5,636874
2,057500	0,1	5,696677
2,059167	0,1	5,680464
2,060833	0,1	5,733475
2,062500	0,1	5,775865
2,064167	0,1	5,793953
2,065833	0,1	5,800565
2,067500	0,1	5,826728
2,069167	0,1	5,882564
2,070833	0,1	5,945093
2,072500	0,1	5,974020
2,074167	0,1	5,942778
2,075833	0,1	6,009807
2,077500	0,1	6,064461
2,079167	0,1	6,065185
2,080833	0,1	6,115100
2,082500	0,1	6,138150
2,084167	0,1	6,107857
2,085833	0,1	6,175515
2,087500	0,1	6,196775
2,089167	0,1	6,228348
2,090833	0,1	6,223226
2,092500	0,1	6,298831
2,094167	0,1	6,283129
2,095833	0,1	6,327214
2,097500	0,1	6,376224
2,099167	0,1	6,346022
2,100833	0,1	6,359755
2,102500	0,1	6,381142
2,104167	0,1	6,419475
2,105833	0,1	6,462283
2,107500	0,1	6,470748
2,109167	0,1	6,496517
2,110833	0,1	6,496069
2,112500	0,1	6,495599
2,114167	0,1	6,550677
2,115833	0,1	6,556537
2,117500	0,1	6,554030
2,119167	0,1	6,544247
2,120833	0,1	6,568245
2,122500	0,1	6,561583
2,124167	0,1	6,595720
2,125833	0,1	6,598894
2,127500	0,1	6,562214
2,129167	0,1	6,617865
2,130833	0,1	6,624391
2,132500	0,1	6,611645
2,134167	0,1	6,597301
2,135833	0,1	6,625865
2,137500	0,1	6,646814
2,139167	0,1	6,631087
2,140833	0,1	6,625496
2,142500	0,1	6,624100
2,144167	0,1	6,594524
2,145833	0,1	6,632846
2,147500	0,1	6,619550
2,149167	0,1	6,624087
2,150833	0,1	6,628106
2,152500	0,1	6,650910
2,154167	0,1	6,604201
2,155833	0,1	6,628193
2,157500	0,1	6,621221
2,159167	0,1	6,584368
2,160833	0,1	6,556446
2,162500	0,1	6,587518
2,164167	0,1	6,548737
2,165833	0,1	6,544246
2,167500	0,1	6,562215
2,169167	0,1	6,555889
2,170833	0,1	6,546133
2,172500	0,1	6,547979
2,174167	0,1	6,578211
2,175833	0,1	6,496996
2,177500	0,1	6,484968
2,179167	0,1	6,544245
2,180833	0,1	6,485274
2,182500	0,1	6,461705
2,184167	0,1	6,500331
2,185833	0,1	6,455691
2,187500	0,1	6,451865
2,189167	0,1	6,434566
2,190833	0,1	6,464610
2,192500	0,1	6,388979
2,194167	0,1	6,417523
2,195833	0,1	6,395125
2,197500	0,1	6,416042
2,199167	0,1	6,352042
2,200833	0,1	6,359305
2,202500	0,1	6,370012
2,204167	0,1	6,410177
2,205833	0,1	6,344089
2,207500	0,1	6,335219
2,209167	0,1	6,334276
2,210833	0,1	6,352403
2,212500	0,1	6,340890
2,214167	0,1	6,352224
2,215833	0,1	6,344526
2,217500	0,1	6,355299
2,219167	0,1	6,303319
2,220833	0,1	6,345816
2,222500	0,1	6,368127
2,224167	0,1	6,348424
2,225833	0,1	6,377061
2,227500	0,1	6,388605
2,229167	0,1	6,402741
2,230833	0,1	6,402093
2,232500	0,1	6,432501
2,234167	0,1	6,387026
2,235833	0,1	6,476707
2,237500	0,1	6,451960
2,239167	0,1	6,490001
2,240833	0,1	6,502654
2,242500	0,1	6,482948
2,244167	0,1	6,501638
2,245833	0,1	6,505707
2,247500	0,1	6,588053
2,249167	0,1	6,566798
2,250833	0,1	6,545561
2,252500	0,1	6,542368
2,254167	0,1	6,577563
2,255833	0,1	6,630427
2,257500	0,1	6,632946
2,259167	0,1	6,616468
2,260833	0,1	6,629400
2,262500	0,1	6,618338
2,264167	0,1	6,662720
2,265833	0,1	6,683108
2,267500	0,1	6,687208
2,269167	0,1	6,659479
2,270833	0,1	6,676033
2,272500	0,1	6,656300
2,274167	0,1	6,667659
2,275833	0,1	6,673718
2,277500	0,1	6,641420
2,279167	0,1	6,688039
2,280833	0,1	6,655937
2,282500	0,1	6,630518
2,284167	0,1	6,626428
2,285833	0,1	6,646715
2,287500	0,1	6,669913
2,289167	0,1	6,623471
2,290833	0,1	6,639458
2,292500	0,1	6,595088
2,294167	0,1	6,607531
2,295833	0,1	6,595914
2,297500	0,1	6,545287
2,299167	0,1	6,537545
2,300833	0,1	6,540722
2,302500	0,1	6,527599
2,304167	0,1	6,488995
2,305833	0,1	6,484989
2,307500	0,1	6,469354
2,309167	0,1	6,429244
2,310833	0,1	6,414947
2,312500	0,1	6,403489
2,314167	0,1	6,388803
2,315833	0,1	6,331876
2,317500	0,1	6,329358
2,319167	0,1	6,295862
2,320833	0,1	6,274017
2,322500	0,1	6,246373
2,324167	0,1	6,217845
2,325833	0,1	6,243062
2,327500	0,1	6,197059
2,329167	0,1	6,147636
2,330833	0,1	6,155190
2,332500	0,1	6,093343
2,334167	0,1	6,053661
2,335833	0,1	6,080541
2,337500	0,1	6,010904
2,339167	0,1	6,027931
2,340833	0,1	5,986471
2,342500	0,1	5,912587
2,344167	0,1	5,887698
2,345833	0,1	5,865374
2,347500	0,1	5,828889
2,349167	0,1	5,804243
2,350833	0,1	5,767994
2,352500	0,1	5,769230
2,354167	0,1	5,740471
2,355833	0,1	5,709138
2,357500	0,1	5,702932
2,359167	0,1	5,656593
2,360833	0,1	5,651945
2,362500	0,1	5,581003
2,364167	0,1	5,563355
2,365833	0,1	5,531666
2,367500	0,1	5,543678
2,369167	0,1	5,479581
2,370833	0,1	5,441326
2,372500	0,1	5,412065
2,374167	0,1	5,408676
2,375833	0,1	5,381138
2,377500	0,1	5,389475
2,379167	0,1	5,391941
2,380833	0,1	5,334031
2,382500	0,1	5,293250
2,384167	0,1	5,257016
2,385833	0,1	5,254470
2,387500	0,1	5,235186
2,389167	0,1	5,226514
2,390833	0,1	5,209269
2,392500	0,1	5,189220
2,394167	0,1	5,181340
2,395833	0,1	5,138749
2,397500	0,1	5,166228
2,399167	0,1	5,126751
2,400833	0,1	5,107045
2,402500	0,1	5,060084
2,404167	0,1	5,098308
2,405833	0,1	5,059686
2,407500	0,1	5,045680
2,409167	0,1	5,063426
2,410833	0,1	5,054881
2,412500	0,1	5,029064
2,414167	0,1	4,996581
2,415833	0,1	5,004299
2,417500	0,1	4,969322
2,419167	0,1	5,002514
2,420833	0,1	4,939643
2,422500	0,1	4,969306
2,424167	0,1	4,955742
2,425833	0,1	4,933343
2,427500	0,1	4,917704
2,429167	0,1	4,920442
2,430833	0,1	4,866217
2,432500	0,1	4,948726
2,434167	0,1	4,919382
2,435833	0,1	4,883797
2,437500	0,1	4,880044
2,439167	0,1	4,855976
2,440833	0,1	4,906268
2,442500	0,1	4,841260
2,444167	0,1	4,866828
2,445833	0,1	4,849004
2,447500	0,1	4,857714
2,449167	0,1	4,852990
2,450833	0,1	4,851293
2,452500	0,1	4,810444
2,454167	0,1	4,800972
2,455833	0,1	4,818532
2,457500	0,1	4,762889
2,459167	0,1	4,800909
2,460833	0,1	4,773627
2,462500	0,1	4,771109
2,464167	0,1	4,767450
2,465833	0,1	4,780405
2,467500	0,1	4,755980
2,469167	0,1	4,791629
2,470833	0,1	4,760887
2,472500	0,1	4,751435
2,474167	0,1	4,737565
2,475833	0,1	4,760926
2,477500	0,1	4,730549
2,479167	0,1	4,701443
2,480833	0,1	4,694835
2,482500	0,1	4,694268
2,484167	0,1	4,657271
2,485833	0,1	4,691298
2,487500	0,1	4,675979
2,489167	0,1	4,665766
2,490833	0,1	4,636398
2,492500	0,1	4,626902
2,494167	0,1	4,660732
2,495833	0,1	4,640640
2,497500	0,1	4,645103
2,499167	0,1	4,622211
2,500833	0,1	4,631190
2,502500	0,1	4,583662
2,504167	0,1	4,615383
2,505833	0,1	4,606267
2,507500	0,1	4,591318
2,509167	0,1	4,628151
2,510833	0,1	4,634302
2,512500	0,1	4,672454
2,514167	0,1	4,648259
2,515833	0,1	4,612429
2,517500	0,1	4,648244
2,519167	0,1	4,638044
2,520833	0,1	4,642793
2,522500	0,1	4,661066
2,524167	0,1	4,700344
2,525833	0,1	4,706858
2,527500	0,1	4,719493
2,529167	0,1	4,747401
2,530833	0,1	4,708580
2,532500	0,1	4,752870
2,534167	0,1	4,826536
2,535833	0,1	4,798281
2,537500	0,1	4,824004
2,539167	0,1	4,853933
2,540833	0,1	4,844658
2,542500	0,1	4,892558
2,544167	0,1	4,887747
2,545833	0,1	4,929883
2,547500	0,1	4,902226
2,549167	0,1	5,000307
2,550833	0,1	4,964863
2,552500	0,1	5,034714
2,554167	0,1	5,030947
2,555833	0,1	5,040680
2,557500	0,1	5,080073
2,559167	0,1	5,092498
2,560833	0,1	5,150780
2,562500	0,1	5,149438
2,564167	0,1	5,136598
2,565833	0,1	5,184094
2,567500	0,1	5,206801
2,569167	0,1	5,251237
2,570833	0,1	5,233802
2,572500	0,1	5,257959
2,574167	0,1	5,261638
2,575833	0,1	5,291108
2,577500	0,1	5,290020
2,579167	0,1	5,263626
2,580833	0,1	5,262795
2,582500	0,1	5,306016
2,584167	0,1	5,299396
2,585833	0,1	5,271472
2,587500	0,1	5,319090
2,589167	0,1	5,309764
2,590833	0,1	5,334121
2,592500	0,1	5,332999
2,594167	0,1	5,322106
2,595833	0,1	5,287909
2,597500	0,1	5,284517
2,599167	0,1	5,270734
2,600833	0,1	5,306079
2,602500	0,1	5,258317
2,604167	0,1	5,270335
2,605833	0,1	5,215149
2,607500	0,1	5,280655
2,609167	0,1	5,243970
2,610833	0,1	5,214153
2,612500	0,1	5,205425
2,614167	0,1	5,185099
2,615833	0,1	5,127209
2,617500	0,1	5,112012
2,619167	0,1	5,109862
2,620833	0,1	5,099449
2,622500	0,1	5,069475
2,624167	0,1	5,037869
2,625833	0,1	5,001661
2,627500	0,1	5,008819
2,629167	0,1	4,951804
2,630833	0,1	4,913397
2,632500	0,1	4,897386
2,634167	0,1	4,876090
2,635833	0,1	4,843066
2,637500	0,1	4,807432
2,639167	0,1	4,774379
2,640833	0,1	4,778662
2,642500	0,1	4,741095
2,644167	0,1	4,675273
2,645833	0,1	4,684041
2,647500	0,1	4,614100
2,649167	0,1	4,577577
2,650833	0,1	4,543613
2,652500	0,1	4,512858
2,654167	0,1	4,466466
2,655833	0,1	4,442884
2,657500	0,1	4,376822
2,659167	0,1	4,363280
2,660833	0,1	4,331566
2,662500	0,1	4,289283
2,664167	0,1	4,272349
2,665833	0,1	4,242062
2,667500	0,1	4,209060
2,669167	0,1	4,152585
2,670833	0,1	4,092784
2,672500	0,1	4,087916
2,674167	0,1	4,055822
2,675833	0,1	4,029437
2,677500	0,1	3,964158
2,679167	0,1	3,938091
2,680833	0,1	3,881584
2,682500	0,1	3,853706
2,684167	0,1	3,825144
2,685833	0,1	3,789545
2,687500	0,1	3,765154
2,689167	0,1	3,726118
2,690833	0,1	3,690780
2,692500	0,1	3,647635
2,694167	0,1	3,625914
2,695833	0,1	3,592507
2,697500	0,1	3,536308
2,699167	0,1	3,532000
2,700833	0,1	3,455692
2,702500	0,1	3,486325
2,704167	0,1	3,409751
2,705833	0,1	3,362822
2,707500	0,1	3,342694
2,709167	0,1	3,335218
2,710833	0,1	3,287043
2,712500	0,1	3,315660
2,714167	0,1	3,190911
2,715833	0,1	3,242982
2,717500	0,1	3,175842
2,719167	0,1	3,157106
2,720833	0,1	3,107309
2,722500	0,1	3,144375
2,724167	0,1	3,069111
2,725833	0,1	3,071433
2,727500	0,1	3,042363
2,729167	0,1	3,017809
2,730833	0,1	3,007092
2,732500	0,1	3,006805
2,734167	0,1	2,996170
2,735833	0,1	2,931323
2,737500	0,1	2,927345
2,739167	0,1	2,906407
2,740833	0,1	2,857622
2,742500	0,1	2,902623
2,744167	0,1	2,796556
2,745833	0,1	2,789861
2,747500	0,1	2,808160
2,749167	0,1	2,792149
2,750833	0,1	2,760873
2,752500	0,1	2,714091
2,754167	0,1	2,698663
2,755833	0,1	2,663371
2,757500	0,1	2,713855
2,759167	0,1	2,670916
2,760833	0,1	2,633612
2,762500	0,1	2,656192
2,764167	0,1	2,633829
2,765833	0,1	2,619699
2,767500	0,1	2,618022
2,769167	0,1	2,579250
2,770833	0,1	2,520960
2,772500	0,1	2,555072
2,774167	0,1	2,576727
2,775833	0,1	2,566687
2,777500	0,1	2,501797
2,779167	0,1	2,485025
2,780833	0,1	2,487387
2,782500	0,1	2,498552
2,784167	0,1	2,495913
2,785833	0,1	2,429106
2,787500	0,1	2,457832
2,789167	0,1	2,409608
2,790833	0,1	2,421630
2,792500	0,1	2,368311
2,794167	0,1	2,437020
2,795833	0,1	2,367026
2,797500	0,1	2,407643
2,799167	0,1	2,366089
2,800833	0,1	2,378190
2,802500	0,1	2,356124
2,804167	0,1	2,363997
2,805833	0,1	2,312476
2,807500	0,1	2,325146
2,809167	0,1	2,322425
2,810833	0,1	2,343061
2,812500	0,1	2,278508
2,814167	0,1	2,294039
2,815833	0,1	2,272764
2,817500	0,1	2,298195
2,819167	0,1	2,233859
2,820833	0,1	2,237928
2,822500	0,1	2,238215
2,824167	0,1	2,256344
2,825833	0,1	2,194375
2,827500	0,1	2,241931
2,829167	0,1	2,219803
2,830833	0,1	2,207261
2,832500	0,1	2,164277
2,834167	0,1	2,206174
2,835833	0,1	2,190494
2,837500	0,1	2,101455
2,839167	0,1	2,160672
2,840833	0,1	2,108969
2,842500	0,1	2,140042
2,844167	0,1	2,118996
2,845833	0,1	2,155373
2,847500	0,1	2,114054
2,849167	0,1	2,099791
2,850833	0,1	2,120059
2,852500	0,1	2,101580
2,854167	0,1	2,059972
2,855833	0,1	2,059887
2,857500	0,1	2,065042
2,859167	0,1	2,061467
2,860833	0,1	2,041480
2,862500	0,1	2,057019
2,864167	0,1	2,040409
2,865833	0,1	2,053010
2,867500	0,1	2,017419
2,869167	0,1	2,029656
2,870833	0,1	1,970437
2,872500	0,1	1,968634
2,874167	0,1	1,967060
2,875833	0,1	1,992124
2,877500	0,1	1,928396
2,879167	0,1	1,945211
2,880833	0,1	1,948155
2,882500	0,1	1,939135
2,884167	0,1	1,951671
2,885833	0,1	1,958759
2,887500	0,1	1,932043
2,889167	0,1	1,956110
2,890833	0,1	1,904777
2,892500	0,1	1,905483
2,894167	0,1	1,912067
2,895833	0,1	1,915075
2,897500	0,1	1,877063
2,899167	0,1	1,888370
2,900833	0,1	1,888072
2,902500	0,1	1,858724
2,904167	0,1	1,850062
2,905833	0,1	1,854071
2,907500	0,1	1,806037
2,909167	0,1	1,862225
2,910833	0,1	1,791078
2,912500	0,1	1,821972
2,914167	0,1	1,881192
2,915833	0,1	1,824089
2,917500	0,1	1,798805
2,919167	0,1	1,811536
2,920833	0,1	1,796149
2,922500	0,1	1,769099
2,924167	0,1	1,813531
2,925833	0,1	1,777974
2,927500	0,1	1,742541
2,929167	0,1	1,737944
2,930833	0,1	1,769792
2,932500	0,1	1,755776
2,934167	0,1	1,737314
2,935833	0,1	1,743966
2,937500	0,1	1,761925
2,939167	0,1	1,696673
2,940833	0,1	1,724993
2,942500	0,1	1,714199
2,944167	0,1	1,750185
2,945833	0,1	1,733240
2,947500	0,1	1,697241
2,949167	0,1	1,719067
2,950833	0,1	1,693076
2,952500	0,1	1,692504
2,954167	0,1	1,665596
2,955833	0,1	1,710895
2,957500	0,1	1,647353
2,959167	0,1	1,682695
2,960833	0,1	1,688421
2,962500	0,1	1,669299
2,964167	0,1	1,632027
2,965833	0,1	1,652058
2,967500	0,1	1,633896
2,969167	0,1	1,678542
2,970833	0,1	1,673885
2,972500	0,1	1,658944
2,974167	0,1	1,629252
2,975833	0,1	1,665385
2,977500	0,1	1,625748
2,979167	0,1	1,650483
2,980833	0,1	1,651064
2,982500	0,1	1,613442
2,984167	0,1	1,612707
2,985833	0,1	1,639810
2,987500	0,1	1,634549
2,989167	0,1	1,631960
2,990833	0,1	1,581026
2,992500	0,1	1,640685
2,994167	0,1	1,597619
2,995833	0,1	1,626869
2,997500	0,1	1,581462
2,999167	0,1	1,584601
3,000833	0,1	1,590441
3,002500	0,1	1,575222
3,004167	0,1	1,583577
3,005833	0,1	1,601468
3,007500	0,1	1,573868
3,009167	0,1	1,555329
3,010833	0,1	1,560120
3,012500	0,1	1,594529
3,014167	0,1	1,549597
3,015833	0,1	1,608047
3,017500	0,1	1,564994
3,019167	0,1	1,548014
3,020833	0,1	1,609186
3,022500	0,1	1,522780
3,024167	0,1	1,563606
3,025833	0,1	1,564383
3,027500	0,1	1,562477
3,029167	0,1	1,545738
3,030833	0,1	1,567854
3,032500	0,1	1,540372
3,034167	0,1	1,539009
3,035833	0,1	1,539858
3,037500	0,1	1,532557
3,039167	0,1	1,530144
3,040833	0,1	1,559238
3,042500	0,1	1,566338
3,044167	0,1	1,542946
3,045833	0,1	1,516890
3,047500	0,1	1,537358
3,049167	0,1	1,555895
3,050833	0,1	1,517906
3,052500	0,1	1,548248
3,054167	0,1	1,537503
3,055833	0,1	1,532651
3,057500	0,1	1,554606
3,059167	0,1	1,511701
3,060833	0,1	1,504321
3,062500	0,1	1,568408
3,064167	0,1	1,522770
3,065833	0,1	1,481425
3,067500	0,1	1,518175
3,069167	0,1	1,520991
3,070833	0,1	1,519472
3,072500	0,1	1,538071
3,074167	0,1	1,528571
3,075833	0,1	1,559770
3,077500	0,1	1,490377
3,079167	0,1	1,501017
3,080833	0,1	1,531301
3,082500	0,1	1,546226
3,084167	0,1	1,518876
3,085833	0,1	1,507762
3,087500	0,1	1,521140
3,089167	0,1	1,514253
3,090833	0,1	1,508679
3,092500	0,1	1,526782
3,094167	0,1	1,567126
3,095833	0,1	1,563341
3,097500	0,1	1,577597
3,099167	0,1	1,568863
3,100833	0,1	1,554709
3,102500	0,1	1,532849
3,104167	0,1	1,529294
3,105833	0,1	1,565195
3,107500	0,1	1,550534
3,109167	0,1	1,573270
3,110833	0,1	1,606617
3,112500	0,1	1,604198
3,114167	0,1	1,596333
3,115833	0,1	1,591745
3,117500	0,1	1,636479
3,119167	0,1	1,634181
3,120833	0,1	1,668109
3,122500	0,1	1,656000
3,124167	0,1	1,662367
3,125833	0,1	1,691070
3,127500	0,1	1,698507
3,129167	0,1	1,723636
3,130833	0,1	1,738247
3,132500	0,1	1,704453
3,134167	0,1	1,751826
3,135833	0,1	1,786542
3,137500	0,1	1,760420
3,139167	0,1	1,787779
3,140833	0,1	1,799440
3,142500	0,1	1,796797
3,144167	0,1	1,831225
3,145833	0,1	1,872608
3,147500	0,1	1,858300
3,149167	0,1	1,884199
3,150833	0,1	1,860516
3,152500	0,1	1,921510
3,154167	0,1	1,905413
3,155833	0,1	1,969208
3,157500	0,1	1,952957
3,159167	0,1	1,967774
3,160833	0,1	1,992848
3,162500	0,1	1,980245
3,164167	0,1	2,013394
3,165833	0,1	2,005886
3,167500	0,1	2,050713
3,169167	0,1	2,038184
3,170833	0,1	2,049858
3,172500	0,1	2,054445
3,174167	0,1	2,046925
3,175833	0,1	2,065399
3,177500	0,1	2,091115
3,179167	0,1	2,075506
3,180833	0,1	2,096274
3,182500	0,1	2,097782
3,184167	0,1	2,148710
3,185833	0,1	2,133822
3,187500	0,1	2,154875
3,189167	0,1	2,147001
3,190833	0,1	2,135755
3,192500	0,1	2,099868
3,194167	0,1	2,123781
3,195833	0,1	2,133744
3,197500	0,1	2,134677
3,199167	0,1	2,155451
3,200833	0,1	2,111764
3,202500	0,1	2,132449
3,204167	0,1	2,149361
3,205833	0,1	2,148720
3,207500	0,1	2,140696
3,209167	0,1	2,143347
3,210833	0,1	2,112049
3,212500	0,1	2,119346
3,214167	0,1	2,141408
3,215833	0,1	2,153590
3,217500	0,1	2,118351
3,219167	0,1	2,121709
3,220833	0,1	2,107742
3,222500	0,1	2,114545
3,224167	0,1	2,120493
3,225833	0,1	2,084465
3,227500	0,1	2,035904
3,229167	0,1	2,091184
3,230833	0,1	2,030387
3,232500	0,1	2,078215
3,234167	0,1	2,081592
3,235833	0,1	2,053808
3,237500	0,1	2,062462
3,239167	0,1	1,990714
3,240833	0,1	1,975301
3,242500	0,1	1,971581
3,244167	0,1	1,982103
3,245833	0,1	2,003586
3,247500	0,1	1,959768
3,249167	0,1	1,945793
3,250833	0,1	1,960690
3,252500	0,1	1,921811
3,254167	0,1	1,942139
3,255833	0,1	1,931476
3,257500	0,1	1,883865
3,259167	0,1	1,899171
3,260833	0,1	1,879208
3,262500	0,1	1,850851
3,264167	0,1	1,837246
3,265833	0,1	1,831730
3,267500	0,1	1,819708
3,269167	0,1	1,811331
3,270833	0,1	1,797802
3,272500	0,1	1,748273
3,274167	0,1	1,782684
3,275833	0,1	1,763379
3,277500	0,1	1,731439
3,279167	0,1	1,753139
3,280833	0,1	1,717645
3,282500	0,1	1,680621
3,284167	0,1	1,720401
3,285833	0,1	1,742754
3,287500	0,1	1,699461
3,289167	0,1	1,648431
3,290833	0,1	1,633113
3,292500	0,1	1,634478
3,294167	0,1	1,610380
3,295833	0,1	1,607937
3,297500	0,1	1,600693
3,299167	0,1	1,583283
3,300833	0,1	1,569195
3,302500	0,1	1,520059
3,304167	0,1	1,520211
3,305833	0,1	1,532593
3,307500	0,1	1,538527
3,309167	0,1	1,514040
3,310833	0,1	1,504897
3,312500	0,1	1,495871
3,314167	0,1	1,455016
3,315833	0,1	1,451242
3,317500	0,1	1,436203
3,319167	0,1	1,440091
3,320833	0,1	1,434572
3,322500	0,1	1,423440
3,324167	0,1	1,388518
3,325833	0,1	1,391441
3,327500	0,1	1,412611
3,329167	0,1	1,379339
3,330833	0,1	1,342820
3,332500	0,1	1,337562
3,334167	0,1	1,329316
3,335833	0,1	1,366448
3,337500	0,1	1,311999
3,339167	0,1	1,325803
3,340833	0,1	1,322589
3,342500	0,1	1,266272
3,344167	0,1	1,285444
3,345833	0,1	1,299842
3,347500	0,1	1,290500
3,349167	0,1	1,273226
3,350833	0,1	1,275475
3,352500	0,1	1,252672
3,354167	0,1	1,266089
3,355833	0,1	1,243933
3,357500	0,1	1,231570
3,359167	0,1	1,224673
3,360833	0,1	1,212583
3,362500	0,1	1,210718
3,364167	0,1	1,168812
3,365833	0,1	1,194445
3,367500	0,1	1,215763
3,369167	0,1	1,215970
3,370833	0,1	1,176492
3,372500	0,1	1,183222
3,374167	0,1	1,189522
3,375833	0,1	1,183360
3,377500	0,1	1,141108
3,379167	0,1	1,166490
3,380833	0,1	1,162704
3,382500	0,1	1,130124
3,384167	0,1	1,183921
3,385833	0,1	1,113495
3,387500	0,1	1,120176
3,389167	0,1	1,136832
3,390833	0,1	1,087229
3,392500	0,1	1,136471
3,394167	0,1	1,105657
3,395833	0,1	1,106668
3,397500	0,1	1,107421
3,399167	0,1	1,079459
3,400833	0,1	1,110521
3,402500	0,1	1,083608
3,404167	0,1	1,144716
3,405833	0,1	1,135285
3,407500	0,1	1,035628
3,409167	0,1	1,106741
3,410833	0,1	1,084094
3,412500	0,1	1,068568
3,414167	0,1	1,097279
3,415833	0,1	1,082252
3,417500	0,1	1,084687
3,419167	0,1	1,093891
3,420833	0,1	1,073092
3,422500	0,1	1,070515
3,424167	0,1	1,057587
3,425833	0,1	1,032862
3,427500	0,1	1,046559
3,429167	0,1	1,049155
3,430833	0,1	1,021618
3,432500	0,1	1,017643
3,434167	0,1	1,039259
3,435833	0,1	1,062880
3,437500	0,1	1,002089
3,439167	0,1	1,024822
3,440833	0,1	0,983700
3,442500	0,1	1,043353
3,444167	0,1	1,008426
3,445833	0,1	1,020833
3,447500	0,1	0,990128
3,449167	0,1	1,028831
3,450833	0,1	1,012832
3,452500	0,1	1,049014
3,454167	0,1	1,024634
3,455833	0,1	0,988934
3,457500	0,1	1,025640
3,459167	0,1	1,006846
3,460833	0,1	0,970484
3,462500	0,1	1,022330
3,464167	0,1	0,989930
3,465833	0,1	0,971568
3,467500	0,1	0,996811
3,469167	0,1	0,998704
3,470833	0,1	0,992761
3,472500	0,1	0,967333
3,474167	0,1	0,983686
3,475833	0,1	0,999187
3,477500	0,1	1,005777
3,479167	0,1	0,996422
3,480833	0,1	0,983917
3,482500	0,1	0,971493
3,484167	0,1	0,993177
3,485833	0,1	0,983273
3,487500	0,1	0,995241
3,489167	0,1	0,960170
3,490833	0,1	1,002131
3,492500	0,1	0,974117
3,494167	0,1	0,976796
3,495833	0,1	0,952697
3,497500	0,1	0,974773
3,499167	0,1	0,998343
3,500833	0,1	0,991103
3,502500	0,1	0,947535
3,504167	0,1	1,005698
3,505833	0,1	0,993472
3,507500	0,1	0,989346
3,509167	0,1	0,979481
3,510833	0,1	1,016990
3,512500	0,1	0,962548
3,514167	0,1	0,993732
3,515833	0,1	1,036660
3,517500	0,1	0,997914
3,519167	0,1	0,978683
3,520833	0,1	1,006614
3,522500	0,1	0,986003
3,524167	0,1	1,012868
3,525833	0,1	1,002433
3,527500	0,1	1,003871
3,529167	0,1	0,987505
3,530833	0,1	0,973026
3,532500	0,1	0,989206
3,534167	0,1	1,020207
3,535833	0,1	1,010349
3,537500	0,1	1,022298
3,539167	0,1	1,004941
3,540833	0,1	0,973897
3,542500	0,1	1,016635
3,544167	0,1	1,003455
3,545833	0,1	1,022495
3,547500	0,1	1,022877
3,549167	0,1	1,031411
3,550833	0,1	1,003279
3,552500	0,1	1,036131
3,554167	0,1	0,989977
3,555833	0,1	1,025085
3,557500	0,1	0,993278
3,559167	0,1	1,023712
3,560833	0,1	0,981459
3,562500	0,1	1,009076
3,564167	0,1	0,989328
3,565833	0,1	1,008744
3,567500	0,1	1,024425
3,569167	0,1	1,036290
3,570833	0,1	0,996429
3,572500	0,1	1,023892
3,574167	0,1	1,036712
3,575833	0,1	1,023391
3,577500	0,1	0,974280
3,579167	0,1	0,994816
3,580833	0,1	0,988127
3,582500	0,1	0,999213
3,584167	0,1	0,984560
3,585833	0,1	0,980321
3,587500	0,1	1,023975
3,589167	0,1	1,011612
3,590833	0,1	0,987999
3,592500	0,1	1,029963
3,594167	0,1	0,994565
3,595833	0,1	1,016549
3,597500	0,1	1,007155
3,599167	0,1	0,957578
3,600833	0,1	0,982218
3,602500	0,1	1,048741
3,604167	0,1	0,986344
3,605833	0,1	1,007990
3,607500	0,1	1,001320
3,609167	0,1	1,036640
3,610833	0,1	0,936014
3,612500	0,1	0,971199
3,614167	0,1	0,985972
3,615833	0,1	0,999278
3,617500	0,1	0,975692
3,619167	0,1	1,005793
3,620833	0,1	0,943879
3,622500	0,1	0,985058
3,624167	0,1	0,999698
3,625833	0,1	0,989726
3,627500	0,1	0,966755
3,629167	0,1	0,958859
3,630833	0,1	0,953221
3,632500	0,1	0,990178
3,634167	0,1	0,960903
3,635833	0,1	0,982333
3,637500	0,1	0,995263
3,639167	0,1	0,964053
3,640833	0,1	0,997234
3,642500	0,1	0,974585
3,644167	0,1	0,945295
3,645833	0,1	0,953729
3,647500	0,1	0,921769
3,649167	0,1	0,960597
3,650833	0,1	0,964842
3,652500	0,1	0,973135
3,654167	0,1	0,985352
3,655833	0,1	0,988547
3,657500	0,1	0,955627
3,659167	0,1	0,928306
3,660833	0,1	0,957872
3,662500	0,1	0,954022
3,664167	0,1	0,965839
3,665833	0,1	0,935644
3,667500	0,1	0,940120
3,669167	0,1	0,939231
3,670833	0,1	0,913451
3,672500	0,1	0,929358
3,674167	0,1	0,954904
3,675833	0,1	0,938526
3,677500	0,1	0,953463
3,679167	0,1	0,936043
3,680833	0,1	0,931226
3,682500	0,1	0,932471
3,684167	0,1	0,913918
3,685833	0,1	0,958313
3,687500	0,1	0,948927
3,689167	0,1	0,897910
3,690833	0,1	0,892674
3,692500	0,1	0,912310
3,694167	0,1	0,892453
3,695833	0,1	0,902288
3,697500	0,1	0,932372
3,699167	0,1	0,916242
3,700833	0,1	0,909547
3,702500	0,1	0,903249
3,704167	0,1	0,891246
3,705833	0,1	0,938600
3,707500	0,1	0,898337
3,709167	0,1	0,927558
3,710833	0,1	0,935503
3,712500	0,1	0,910903
3,714167	0,1	0,931912
3,715833	0,1	0,914891
3,717500	0,1	0,908748
3,719167	0,1	0,920357
3,720833	0,1	0,907843
3,722500	0,1	0,871635
3,724167	0,1	0,890778
3,725833	0,1	0,978351
3,727500	0,1	0,912949
3,729167	0,1	0,898149
3,730833	0,1	0,877352
3,732500	0,1	0,922106
3,734167	0,1	0,899527
3,735833	0,1	0,917899
3,737500	0,1	0,930315
3,739167	0,1	0,908818
3,740833	0,1	0,917720
3,742500	0,1	0,841075
3,744167	0,1	0,912455
3,745833	0,1	0,944433
3,747500	0,1	0,931501
3,749167	0,1	0,916324
3,750833	0,1	0,938078
3,752500	0,1	0,894612
3,754167	0,1	0,890679
3,755833	0,1	0,906590
3,757500	0,1	0,927718
3,759167	0,1	0,907926
3,760833	0,1	0,906257
3,762500	0,1	0,923109
3,764167	0,1	0,896866
3,765833	0,1	0,941660
3,767500	0,1	0,951403
3,769167	0,1	0,922075
3,770833	0,1	0,930029
3,772500	0,1	0,900237
3,774167	0,1	0,911068
3,775833	0,1	0,956275
3,777500	0,1	0,928017
3,779167	0,1	0,911610
3,780833	0,1	0,923466
3,782500	0,1	0,889664
3,784167	0,1	0,927384
3,785833	0,1	0,919629
3,787500	0,1	0,933925
3,789167	0,1	0,949539
3,790833	0,1	0,922898
3,792500	0,1	0,916503
3,794167	0,1	0,944194
3,795833	0,1	0,926111
3,797500	0,1	0,948564
3,799167	0,1	0,915092
3,800833	0,1	0,978597
3,802500	0,1	0,898873
3,804167	0,1	0,948023
3,805833	0,1	0,955724
3,807500	0,1	0,915697
3,809167	0,1	0,910650
3,810833	0,1	0,924175
3,812500	0,1	0,938765
3,814167	0,1	0,928813
3,815833	0,1	0,952175
3,817500	0,1	0,950895
3,819167	0,1	0,924340
3,820833	0,1	0,947361
3,822500	0,1	0,946106
3,824167	0,1	0,898065
3,825833	0,1	0,917767
3,827500	0,1	0,896287
3,829167	0,1	0,961836
3,830833	0,1	0,918599
3,832500	0,1	0,909876
3,834167	0,1	0,931575
3,835833	0,1	0,954483
3,837500	0,1	0,949256
3,839167	0,1	0,944069
3,840833	0,1	0,916798
3,842500	0,1	0,878445
3,844167	0,1	0,896774
3,845833	0,1	0,908233
3,847500	0,1	0,919714
3,849167	0,1	0,900614
3,850833	0,1	0,940556
3,852500	0,1	0,929391
3,854167	0,1	0,884547
3,855833	0,1	0,934388
3,857500	0,1	0,884431
3,859167	0,1	0,918225
3,860833	0,1	0,885112
3,862500	0,1	0,892184
3,864167	0,1	0,871420
3,865833	0,1	0,854075
3,867500	0,1	0,901175
3,869167	0,1	0,870728
3,870833	0,1	0,880413
3,872500	0,1	0,826730
3,874167	0,1	0,888274
3,875833	0,1	0,858512
3,877500	0,1	0,853837
3,879167	0,1	0,847512
3,880833	0,1	0,825240
3,882500	0,1	0,872468
3,884167	0,1	0,848331
3,885833	0,1	0,865756
3,887500	0,1	0,828839
3,889167	0,1	0,837512
3,890833	0,1	0,835743
3,892500	0,1	0,834522
3,894167	0,1	0,794901
3,895833	0,1	0,827889
3,897500	0,1	0,853854
3,899167	0,1	0,787139
3,900833	0,1	0,839390
3,902500	0,1	0,829856
3,904167	0,1	0,834180
3,905833	0,1	0,807307
3,907500	0,1	0,799811
3,909167	0,1	0,780885
3,910833	0,1	0,815846
3,912500	0,1	0,826256
3,914167	0,1	0,792644
3,915833	0,1	0,768002
3,917500	0,1	0,747433
3,919167	0,1	0,810787
3,920833	0,1	0,768417
3,922500	0,1	0,797993
3,924167	0,1	0,802826
3,925833	0,1	0,759129
3,927500	0,1	0,727289
3,929167	0,1	0,795387
3,930833	0,1	0,752637
3,932500	0,1	0,780453
3,934167	0,1	0,768475
3,935833	0,1	0,776285
3,937500	0,1	0,752866
3,939167	0,1	0,766055
3,940833	0,1	0,729758
3,942500	0,1	0,771647
3,944167	0,1	0,745918
3,945833	0,1	0,722080
3,947500	0,1	0,771674
3,949167	0,1	0,702161
3,950833	0,1	0,712654
3,952500	0,1	0,738863
3,954167	0,1	0,715458
3,955833	0,1	0,741377
3,957500	0,1	0,742064
3,959167	0,1	0,711214
3,960833	0,1	0,723162
3,962500	0,1	0,735113
3,964167	0,1	0,735571
3,965833	0,1	0,760176
3,967500	0,1	0,725809
3,969167	0,1	0,749697
3,970833	0,1	0,741415
3,972500	0,1	0,714304
3,974167	0,1	0,682295
3,975833	0,1	0,762891
3,977500	0,1	0,697826
3,979167	0,1	0,689717
3,980833	0,1	0,753580
3,982500	0,1	0,740130
3,984167	0,1	0,696211
3,985833	0,1	0,675677
3,987500	0,1	0,665522
3,989167	0,1	0,711968
3,990833	0,1	0,706391
3,992500	0,1	0,714158
3,994167	0,1	0,719820
3,995833	0,1	0,690201
3,997500	0,1	0,710406
3,999167	0,1	0,722294
4,000833	0,1	0,717382
4,002500	0,1	0,706810
4,004167	0,1	0,684026
4,005833	0,1	0,728900
4,007500	0,1	0,742304
4,009167	0,1	0,718029
4,010833	0,1	0,715836
4,012500	0,1	0,732541
4,014167	0,1	0,712244
4,015833	0,1	0,742019
4,017500	0,1	0,679926
4,019167	0,1	0,682033
4,020833	0,1	0,707314
4,022500	0,1	0,718943
4,024167	0,1	0,706291
4,025833	0,1	0,705269
4,027500	0,1	0,710555
4,029167	0,1	0,701575
4,030833	0,1	0,745519
4,032500	0,1	0,710860
4,034167	0,1	0,733990
4,035833	0,1	0,712114
4,037500	0,1	0,746899
4,039167	0,1	0,727768
4,040833	0,1	0,747705
4,042500	0,1	0,730491
4,044167	0,1	0,703955
4,045833	0,1	0,742372
4,047500	0,1	0,695476
4,049167	0,1	0,744875
4,050833	0,1	0,745491
4,052500	0,1	0,734801
4,054167	0,1	0,718157
4,055833	0,1	0,767975
4,057500	0,1	0,747528
4,059167	0,1	0,752216
4,060833	0,1	0,755943
4,062500	0,1	0,796745
4,064167	0,1	0,773108
4,065833	0,1	0,781391
4,067500	0,1	0,782939
4,069167	0,1	0,761313
4,070833	0,1	0,813284
4,072500	0,1	0,801544
4,074167	0,1	0,791390
4,075833	0,1	0,817003
4,077500	0,1	0,841943
4,079167	0,1	0,823364
4,080833	0,1	0,844384
4,082500	0,1	0,852299
4,084167	0,1	0,853652
4,085833	0,1	0,882824
4,087500	0,1	0,856255
4,089167	0,1	0,860592
4,090833	0,1	0,897873
4,092500	0,1	0,845017
4,094167	0,1	0,841083
4,095833	0,1	0,901462
4,097500	0,1	0,891901
4,099167	0,1	0,905265
4,100833	0,1	0,875138
4,102500	0,1	0,903925
4,104167	0,1	0,923438
4,105833	0,1	0,894830
4,107500	0,1	0,950347
4,109167	0,1	0,925865
4,110833	0,1	0,932354
4,112500	0,1	0,933378
4,114167	0,1	0,998399
4,115833	0,1	0,972254
4,117500	0,1	0,967724
4,119167	0,1	0,975016
4,120833	0,1	0,993688
4,122500	0,1	1,005042
4,124167	0,1	1,002672
4,125833	0,1	1,024623
4,127500	0,1	1,060105
4,129167	0,1	1,051332
4,130833	0,1	1,052728
4,132500	0,1	1,026718
4,134167	0,1	1,042654
4,135833	0,1	1,035540
4,137500	0,1	1,078335
4,139167	0,1	1,067567
4,140833	0,1	1,096902
4,142500	0,1	1,123919
4,144167	0,1	1,040416
4,145833	0,1	1,121534
4,147500	0,1	1,111417
4,149167	0,1	1,086934
4,150833	0,1	1,089900
4,152500	0,1	1,142193
4,154167	0,1	1,120982
4,155833	0,1	1,151714
4,157500	0,1	1,150970
4,159167	0,1	1,133713
4,160833	0,1	1,139163
4,162500	0,1	1,173967
4,164167	0,1	1,155411
4,165833	0,1	1,172350
4,167500	0,1	1,185882
4,169167	0,1	1,201408
4,170833	0,1	1,158634
4,172500	0,1	1,198454
4,174167	0,1	1,180435
4,175833	0,1	1,163351
4,177500	0,1	1,238089
4,179167	0,1	1,203178
4,180833	0,1	1,186493
4,182500	0,1	1,207937
4,184167	0,1	1,198246
4,185833	0,1	1,210820
4,187500	0,1	1,192324
4,189167	0,1	1,189082
4,190833	0,1	1,191386
4,192500	0,1	1,241342
4,194167	0,1	1,251445
4,195833	0,1	1,238292
4,197500	0,1	1,197897
4,199167	0,1	1,222869
4,200833	0,1	1,210981
4,202500	0,1	1,226972
4,204167	0,1	1,207497
4,205833	0,1	1,213550
4,207500	0,1	1,217525
4,209167	0,1	1,239822
4,210833	0,1	1,224964
4,212500	0,1	1,219142
4,214167	0,1	1,190530
4,215833	0,1	1,202303
4,217500	0,1	1,231321
4,219167	0,1	1,205788
4,220833	0,1	1,191881
4,222500	0,1	1,180720
4,224167	0,1	1,171868
4,225833	0,1	1,167028
4,227500	0,1	1,194865
4,229167	0,1	1,175066
4,230833	0,1	1,189877
4,232500	0,1	1,160226
4,234167	0,1	1,164632
4,235833	0,1	1,181195
4,237500	0,1	1,198325
4,239167	0,1	1,147256
4,240833	0,1	1,187364
4,242500	0,1	1,137647
4,244167	0,1	1,127657
4,245833	0,1	1,149544
4,247500	0,1	1,117659
4,249167	0,1	1,128693
4,250833	0,1	1,144593
4,252500	0,1	1,126303
4,254167	0,1	1,075695
4,255833	0,1	1,126665
4,257500	0,1	1,102261
4,259167	0,1	1,080988
4,260833	0,1	1,108481
4,262500	0,1	1,093917
4,264167	0,1	1,091474
4,265833	0,1	1,086752
4,267500	0,1	1,049210
4,269167	0,1	1,044655
4,270833	0,1	1,020643
4,272500	0,1	1,034538
4,274167	0,1	1,043188
4,275833	0,1	1,058202
4,277500	0,1	1,035745
4,279167	0,1	1,032724
4,280833	0,1	1,019221
4,282500	0,1	1,046401
4,284167	0,1	0,988225
4,285833	0,1	1,006837
4,287500	0,1	1,041719
4,289167	0,1	1,000909
4,290833	0,1	1,005355
4,292500	0,1	0,988243
4,294167	0,1	0,948513
4,295833	0,1	0,961000
4,297500	0,1	0,946110
4,299167	0,1	0,944712
4,300833	0,1	0,954486
4,302500	0,1	0,961471
4,304167	0,1	0,924187
4,305833	0,1	0,945639
4,307500	0,1	0,908218
4,309167	0,1	0,919097
4,310833	0,1	0,924177
4,312500	0,1	0,917460
4,314167	0,1	0,899708
4,315833	0,1	0,898460
4,317500	0,1	0,882231
4,319167	0,1	0,921225
4,320833	0,1	0,856723
4,322500	0,1	0,867085
4,324167	0,1	0,866155
4,325833	0,1	0,845206
4,327500	0,1	0,837070
4,329167	0,1	0,842013
4,330833	0,1	0,871449
4,332500	0,1	0,814059
4,334167	0,1	0,805244
4,335833	0,1	0,820834
4,337500	0,1	0,801677
4,339167	0,1	0,801226
4,340833	0,1	0,822343
4,342500	0,1	0,792299
4,344167	0,1	0,845949
4,345833	0,1	0,783412
4,347500	0,1	0,827087
4,349167	0,1	0,802742
4,350833	0,1	0,787720
4,352500	0,1	0,784830
4,354167	0,1	0,766389
4,355833	0,1	0,809757
4,357500	0,1	0,775271
4,359167	0,1	0,756656
4,360833	0,1	0,771878
4,362500	0,1	0,761376
4,364167	0,1	0,749845
4,365833	0,1	0,763233
4,367500	0,1	0,761021
4,369167	0,1	0,750961
4,370833	0,1	0,722529
4,372500	0,1	0,732998
4,374167	0,1	0,732898
4,375833	0,1	0,731837
4,377500	0,1	0,734733
4,379167	0,1	0,751375
4,380833	0,1	0,709548
4,382500	0,1	0,720814
4,384167	0,1	0,707555
4,385833	0,1	0,738674
4,387500	0,1	0,696500
4,389167	0,1	0,695530
4,390833	0,1	0,685219
4,392500	0,1	0,682711
4,394167	0,1	0,700284
4,395833	0,1	0,644102
4,397500	0,1	0,700685
4,399167	0,1	0,717051
4,400833	0,1	0,692128
4,402500	0,1	0,701629
4,404167	0,1	0,660677
4,405833	0,1	0,719034
4,407500	0,1	0,672535
4,409167	0,1	0,666099
4,410833	0,1	0,664010
4,412500	0,1	0,706725
4,414167	0,1	0,666843
4,415833	0,1	0,638150
4,417500	0,1	0,678681
4,419167	0,1	0,661728
4,420833	0,1	0,664747
4,422500	0,1	0,657870
4,424167	0,1	0,669114
4,425833	0,1	0,659480
4,427500	0,1	0,652633
4,429167	0,1	0,628446
4,430833	0,1	0,614982
4,432500	0,1	0,664570
4,434167	0,1	0,617367
4,435833	0,1	0,639940
4,437500	0,1	0,659053
4,439167	0,1	0,602785
4,440833	0,1	0,667168
4,442500	0,1	0,647333
4,444167	0,1	0,618550
4,445833	0,1	0,628631
4,447500	0,1	0,614402
4,449167	0,1	0,601489
4,450833	0,1	0,615938
4,452500	0,1	0,623298
4,454167	0,1	0,637914
4,455833	0,1	0,653108
4,457500	0,1	0,573942
4,459167	0,1	0,601063
4,460833	0,1	0,586937
4,462500	0,1	0,576109
4,464167	0,1	0,577970
4,465833	0,1	0,618050
4,467500	0,1	0,549623
4,469167	0,1	0,554745
4,470833	0,1	0,578512
4,472500	0,1	0,586481
4,474167	0,1	0,530314
4,475833	0,1	0,592379
4,477500	0,1	0,555783
4,479167	0,1	0,562839
4,480833	0,1	0,555614
4,482500	0,1	0,529215
4,484167	0,1	0,560873
4,485833	0,1	0,582367
4,487500	0,1	0,566828
4,489167	0,1	0,574113
4,490833	0,1	0,543511
4,492500	0,1	0,504357
4,494167	0,1	0,552645
4,495833	0,1	0,528636
4,497500	0,1	0,499472
4,499167	0,1	0,542368
4,500833	0,1	0,516850
4,502500	0,1	0,511384
4,504167	0,1	0,529012
4,505833	0,1	0,519929
4,507500	0,1	0,550529
4,509167	0,1	0,498899
4,510833	0,1	0,484729
4,512500	0,1	0,515808
4,514167	0,1	0,473203
4,515833	0,1	0,515322
4,517500	0,1	0,508076
4,519167	0,1	0,503933
4,520833	0,1	0,487749
4,522500	0,1	0,522904
4,524167	0,1	0,503488
4,525833	0,1	0,485308
4,527500	0,1	0,478690
4,529167	0,1	0,499943
4,530833	0,1	0,493976
4,532500	0,1	0,454290
4,534167	0,1	0,490114
4,535833	0,1	0,489446
4,537500	0,1	0,516388
4,539167	0,1	0,484155
4,540833	0,1	0,477661
4,542500	0,1	0,460062
4,544167	0,1	0,504209
4,545833	0,1	0,519281
4,547500	0,1	0,460072
4,549167	0,1	0,468825
4,550833	0,1	0,421983
4,552500	0,1	0,435297
4,554167	0,1	0,491295
4,555833	0,1	0,470117
4,557500	0,1	0,459102
4,559167	0,1	0,418612
4,560833	0,1	0,487984
4,562500	0,1	0,445328
4,564167	0,1	0,452807
4,565833	0,1	0,444486
4,567500	0,1	0,439123
4,569167	0,1	0,438703
4,570833	0,1	0,422745
4,572500	0,1	0,410320
4,574167	0,1	0,418988
4,575833	0,1	0,408265
4,577500	0,1	0,429997
4,579167	0,1	0,402617
4,580833	0,1	0,452023
4,582500	0,1	0,395850
4,584167	0,1	0,413009
4,585833	0,1	0,444448
4,587500	0,1	0,419154
4,589167	0,1	0,423352
4,590833	0,1	0,430675
4,592500	0,1	0,420052
4,594167	0,1	0,433434
4,595833	0,1	0,416552
4,597500	0,1	0,374427
4,599167	0,1	0,423728
4,600833	0,1	0,426245
4,602500	0,1	0,411287
4,604167	0,1	0,399593
4,605833	0,1	0,389381
4,607500	0,1	0,405811
4,609167	0,1	0,364697
4,610833	0,1	0,376651
4,612500	0,1	0,382122
4,614167	0,1	0,407136
4,615833	0,1	0,390730
4,617500	0,1	0,426555
4,619167	0,1	0,406886
4,620833	0,1	0,360845
4,622500	0,1	0,363917
4,624167	0,1	0,368793
4,625833	0,1	0,347904
4,627500	0,1	0,369275
4,629167	0,1	0,384174
4,630833	0,1	0,371373
4,632500	0,1	0,369090
4,634167	0,1	0,370791
4,635833	0,1	0,365619
4,637500	0,1	0,352524
4,639167	0,1	0,370306
4,640833	0,1	0,373394
4,642500	0,1	0,367228
4,644167	0,1	0,350881
4,645833	0,1	0,347511
4,647500	0,1	0,376979
4,649167	0,1	0,351787
4,650833	0,1	0,339681
4,652500	0,1	0,329182
4,654167	0,1	0,311521
4,655833	0,1	0,344844
4,657500	0,1	0,332972
4,659167	0,1	0,369977
4,660833	0,1	0,337923
4,662500	0,1	0,347093
4,664167	0,1	0,345774
4,665833	0,1	0,349824
4,667500	0,1	0,329248
4,669167	0,1	0,338455
4,670833	0,1	0,327382
4,672500	0,1	0,296276
4,674167	0,1	0,278334
4,675833	0,1	0,338696
4,677500	0,1	0,319100
4,679167	0,1	0,279297
4,680833	0,1	0,294630
4,682500	0,1	0,264201
4,684167	0,1	0,327238
4,685833	0,1	0,328183
4,687500	0,1	0,291495
4,689167	0,1	0,302977
4,690833	0,1	0,313666
4,692500	0,1	0,310016
4,694167	0,1	0,332837
4,695833	0,1	0,300094
4,697500	0,1	0,303432
4,699167	0,1	0,309498
4,700833	0,1	0,319220
4,702500	0,1	0,334891
4,704167	0,1	0,300673
4,705833	0,1	0,295765
4,707500	0,1	0,285395
4,709167	0,1	0,308915
4,710833	0,1	0,290495
4,712500	0,1	0,280483
4,714167	0,1	0,299285
4,715833	0,1	0,282148
4,717500	0,1	0,291937
4,719167	0,1	0,329332
4,720833	0,1	0,289633
4,722500	0,1	0,298130
4,724167	0,1	0,285711
4,725833	0,1	0,270744
4,727500	0,1	0,286181
4,729167	0,1	0,266136
4,730833	0,1	0,281273
4,732500	0,1	0,287065
4,734167	0,1	0,250253
4,735833	0,1	0,274988
4,737500	0,1	0,306509
4,739167	0,1	0,284980
4,740833	0,1	0,259112
4,742500	0,1	0,267375
4,744167	0,1	0,292701
4,745833	0,1	0,278396
4,747500	0,1	0,264461
4,749167	0,1	0,286254
4,750833	0,1	0,268413
4,752500	0,1	0,274791
4,754167	0,1	0,265969
4,755833	0,1	0,274311
4,757500	0,1	0,274214
4,759167	0,1	0,254931
4,760833	0,1	0,309812
4,762500	0,1	0,292711
4,764167	0,1	0,245083
4,765833	0,1	0,290581
4,767500	0,1	0,243508
4,769167	0,1	0,257038
4,770833	0,1	0,233598
4,772500	0,1	0,229312
4,774167	0,1	0,260823
4,775833	0,1	0,271391
4,777500	0,1	0,249382
4,779167	0,1	0,241699
4,780833	0,1	0,257743
4,782500	0,1	0,229066
4,784167	0,1	0,251423
4,785833	0,1	0,252146
4,787500	0,1	0,242632
4,789167	0,1	0,244945
4,790833	0,1	0,249349
4,792500	0,1	0,271652
4,794167	0,1	0,206821
4,795833	0,1	0,212379
4,797500	0,1	0,237236
4,799167	0,1	0,249688
4,800833	0,1	0,218117
4,802500	0,1	0,237198
4,804167	0,1	0,236021
4,805833	0,1	0,236184
4,807500	0,1	0,243396
4,809167	0,1	0,246481
4,810833	0,1	0,241899
4,812500	0,1	0,212025
4,814167	0,1	0,265288
4,815833	0,1	0,266734
4,817500	0,1	0,226375
4,819167	0,1	0,226491
4,820833	0,1	0,229498
4,822500	0,1	0,221874
4,824167	0,1	0,221898
4,825833	0,1	0,238069
4,827500	0,1	0,222455
4,829167	0,1	0,260671
4,830833	0,1	0,236027
4,832500	0,1	0,219295
4,834167	0,1	0,215956
4,835833	0,1	0,251936
4,837500	0,1	0,243664
4,839167	0,1	0,195089
4,840833	0,1	0,208351
4,842500	0,1	0,204401
4,844167	0,1	0,211711
4,845833	0,1	0,232277
4,847500	0,1	0,251007
4,849167	0,1	0,241384
4,850833	0,1	0,246883
4,852500	0,1	0,233090
4,854167	0,1	0,236497
4,855833	0,1	0,229679
4,857500	0,1	0,223799
4,859167	0,1	0,198769
4,860833	0,1	0,240316
4,862500	0,1	0,173771
4,864167	0,1	0,264799
4,865833	0,1	0,205901
4,867500	0,1	0,227293
4,869167	0,1	0,248151
4,870833	0,1	0,276987
4,872500	0,1	0,212635
4,874167	0,1	0,232353
4,875833	0,1	0,246829
4,877500	0,1	0,239772
4,879167	0,1	0,220781
4,880833	0,1	0,207967
4,882500	0,1	0,226626
4,884167	0,1	0,229323
4,885833	0,1	0,221169
4,887500	0,1	0,203435
4,889167	0,1	0,242885
4,890833	0,1	0,228837
4,892500	0,1	0,208939
4,894167	0,1	0,239753
4,895833	0,1	0,209292
4,897500	0,1	0,223404
4,899167	0,1	0,195962
4,900833	0,1	0,231846
4,902500	0,1	0,222165
4,904167	0,1	0,220036
4,905833	0,1	0,234608
4,907500	0,1	0,250039
4,909167	0,1	0,194910
4,910833	0,1	0,247475
4,912500	0,1	0,212956
4,914167	0,1	0,244006
4,915833	0,1	0,250381
4,917500	0,1	0,204374
4,919167	0,1	0,238101
4,920833	0,1	0,242086
4,922500	0,1	0,197099
4,924167	0,1	0,222862
4,925833	0,1	0,185090
4,927500	0,1	0,232158
4,929167	0,1	0,226972
4,930833	0,1	0,211542
4,932500	0,1	0,232101
4,934167	0,1	0,219912
4,935833	0,1	0,234671
4,937500	0,1	0,204699
4,939167	0,1	0,214974
4,940833	0,1	0,231434
4,942500	0,1	0,250881
4,944167	0,1	0,245298
4,945833	0,1	0,247715
4,947500	0,1	0,207996
4,949167	0,1	0,205231
4,950833	0,1	0,257029
4,952500	0,1	0,244823
4,954167	0,1	0,233066
4,955833	0,1	0,203655
4,957500	0,1	0,245641
4,959167	0,1	0,235193
4,960833	0,1	0,229540
4,962500	0,1	0,211027
4,964167	0,1	0,218584
4,965833	0,1	0,207878
4,967500	0,1	0,215186
4,969167	0,1	0,245845
4,970833	0,1	0,236665
4,972500	0,1	0,211796
4,974167	0,1	0,197985
4,975833	0,1	0,228850
4,977500	0,1	0,241859
4,979167	0,1	0,247033
4,980833	0,1	0,218404
4,982500	0,1	0,228931
4,984167	0,1	0,247797
4,985833	0,1	0,239044
4,987500	0,1	0,271071
4,989167	0,1	0,227686
4,990833	0,1	0,203852
4,992500	0,1	0,268621
4,994167	0,1	0,252477
4,995833	0,1	0,201808
4,997500	0,1	0,177963
4,999167	0,1	0,248139
5,000833	0,1	0,218507
5,002500	0,1	0,205374
5,004167	0,1	0,248748
5,005833	0,1	0,244242
5,007500	0,1	0,219148
5,009167	0,1	0,235412
5,010833	0,1	0,224545
5,012500	0,1	0,247835
5,014167	0,1	0,242505
5,015833	0,1	0,227553
5,017500	0,1	0,265706
5,019167	0,1	0,274097
5,020833	0,1	0,250174
5,022500	0,1	0,246519
5,024167	0,1	0,267033
5,025833	0,1	0,229899
5,027500	0,1	0,250719
5,029167	0,1	0,263333
5,030833	0,1	0,260870
5,032500	0,1	0,229735
5,034167	0,1	0,264611
5,035833	0,1	0,248613
5,037500	0,1	0,250621
5,039167	0,1	0,301793
5,040833	0,1	0,247047
5,042500	0,1	0,296909
5,044167	0,1	0,271475
5,045833	0,1	0,247003
5,047500	0,1	0,254031
5,049167	0,1	0,262503
5,050833	0,1	0,278326
5,052500	0,1	0,262320
5,054167	0,1	0,241288
5,055833	0,1	0,264716
5,057500	0,1	0,275795
5,059167	0,1	0,271305
5,060833	0,1	0,295533
5,062500	0,1	0,271147
5,064167	0,1	0,268346
5,065833	0,1	0,285739
5,067500	0,1	0,322215
5,069167	0,1	0,282255
5,070833	0,1	0,275385
5,072500	0,1	0,284822
5,074167	0,1	0,278041
5,075833	0,1	0,298870
5,077500	0,1	0,274421
5,079167	0,1	0,312223
5,080833	0,1	0,314393
5,082500	0,1	0,264959
5,084167	0,1	0,296461
5,085833	0,1	0,230296
5,087500	0,1	0,292086
5,089167	0,1	0,306261
5,090833	0,1	0,283507
5,092500	0,1	0,291783
5,094167	0,1	0,309884
5,095833	0,1	0,291375
5,097500	0,1	0,290564
5,099167	0,1	0,291659
5,100833	0,1	0,317651
5,102500	0,1	0,307134
5,104167	0,1	0,283823
5,105833	0,1	0,282671
5,107500	0,1	0,298391
5,109167	0,1	0,300801
5,110833	0,1	0,311170
5,112500	0,1	0,298373
5,114167	0,1	0,296343
5,115833	0,1	0,258059
5,117500	0,1	0,277719
5,119167	0,1	0,271179
5,120833	0,1	0,330494
5,122500	0,1	0,296414
5,124167	0,1	0,290113
5,125833	0,1	0,285555
5,127500	0,1	0,283340
5,129167	0,1	0,304848
5,130833	0,1	0,279494
5,132500	0,1	0,306963
5,134167	0,1	0,268544
5,135833	0,1	0,307086
5,137500	0,1	0,290985
5,139167	0,1	0,285492
5,140833	0,1	0,303780
5,142500	0,1	0,291563
5,144167	0,1	0,322046
5,145833	0,1	0,289793
5,147500	0,1	0,309116
5,149167	0,1	0,349916
5,150833	0,1	0,289585
5,152500	0,1	0,322849
5,154167	0,1	0,290147
5,155833	0,1	0,298431
5,157500	0,1	0,249640
5,159167	0,1	0,305444
5,160833	0,1	0,311462
5,162500	0,1	0,261926
5,164167	0,1	0,264658
5,165833	0,1	0,300828
5,167500	0,1	0,289574
5,169167	0,1	0,328022
5,170833	0,1	0,274743
5,172500	0,1	0,286130
5,174167	0,1	0,269961
5,175833	0,1	0,278970
5,177500	0,1	0,268474
5,179167	0,1	0,326028
5,180833	0,1	0,286560
5,182500	0,1	0,285593
5,184167	0,1	0,265983
5,185833	0,1	0,269404
5,187500	0,1	0,216219
5,189167	0,1	0,295997
5,190833	0,1	0,306802
5,192500	0,1	0,260944
5,194167	0,1	0,270396
5,195833	0,1	0,252564
5,197500	0,1	0,265660
5,199167	0,1	0,253043
5,200833	0,1	0,284073
5,202500	0,1	0,263542
5,204167	0,1	0,264946
5,205833	0,1	0,236253
5,207500	0,1	0,259352
5,209167	0,1	0,258275
5,210833	0,1	0,270107
5,212500	0,1	0,273004
5,214167	0,1	0,290044
5,215833	0,1	0,258534
5,217500	0,1	0,232238
5,219167	0,1	0,272101
5,220833	0,1	0,264771
5,222500	0,1	0,214347
5,224167	0,1	0,268912
5,225833	0,1	0,246649
5,227500	0,1	0,215423
5,229167	0,1	0,221417
5,230833	0,1	0,224376
5,232500	0,1	0,240611
5,234167	0,1	0,231050
5,235833	0,1	0,264788
5,237500	0,1	0,245983
5,239167	0,1	0,228938
5,240833	0,1	0,227713
5,242500	0,1	0,245143
5,244167	0,1	0,208903
5,245833	0,1	0,221995
5,247500	0,1	0,216285
5,249167	0,1	0,227131
5,250833	0,1	0,216349
5,252500	0,1	0,217567
5,254167	0,1	0,216095
5,255833	0,1	0,214295
5,257500	0,1	0,239966
5,259167	0,1	0,233141
5,260833	0,1	0,196909
5,262500	0,1	0,212656
5,264167	0,1	0,247869
5,265833	0,1	0,220181
5,267500	0,1	0,189330
5,269167	0,1	0,202877
5,270833	0,1	0,191377
5,272500	0,1	0,169721
5,274167	0,1	0,199461
5,275833	0,1	0,241286
5,277500	0,1	0,224444
5,279167	0,1	0,175589
5,280833	0,1	0,191724
5,282500	0,1	0,166575
5,284167	0,1	0,212107
5,285833	0,1	0,221065
5,287500	0,1	0,162607
5,289167	0,1	0,211213
5,290833	0,1	0,188749
5,292500	0,1	0,171542
5,294167	0,1	0,198015
5,295833	0,1	0,222359
5,297500	0,1	0,189331
5,299167	0,1	0,145670
5,300833	0,1	0,167181
5,302500	0,1	0,158869
5,304167	0,1	0,191720
5,305833	0,1	0,180402
5,307500	0,1	0,147298
5,309167	0,1	0,138414
5,310833	0,1	0,162571
5,312500	0,1	0,186414
5,314167	0,1	0,178022
5,315833	0,1	0,131529
5,317500	0,1	0,150102
5,319167	0,1	0,186724
5,320833	0,1	0,163099
5,322500	0,1	0,199437
5,324167	0,1	0,154072
5,325833	0,1	0,130154
5,327500	0,1	0,154344
5,329167	0,1	0,139491
5,330833	0,1	0,163517
5,332500	0,1	0,133905
5,334167	0,1	0,149524
5,335833	0,1	0,154764
5,337500	0,1	0,112706
5,339167	0,1	0,165852
5,340833	0,1	0,138585
5,342500	0,1	0,119266
5,344167	0,1	0,115700
5,345833	0,1	0,148856
5,347500	0,1	0,116702
5,349167	0,1	0,122656
5,350833	0,1	0,161300
5,352500	0,1	0,160605
5,354167	0,1	0,151229
5,355833	0,1	0,136115
5,357500	0,1	0,122512
5,359167	0,1	0,114934
5,360833	0,1	0,129527
5,362500	0,1	0,133193
5,364167	0,1	0,164283
5,365833	0,1	0,112606
5,367500	0,1	0,168394
5,369167	0,1	0,111532
5,370833	0,1	0,104172
5,372500	0,1	0,128508
5,374167	0,1	0,135798
5,375833	0,1	0,099457
5,377500	0,1	0,068796
5,379167	0,1	0,153337
5,380833	0,1	0,134856
5,382500	0,1	0,116779
5,384167	0,1	0,137845
5,385833	0,1	0,132304
5,387500	0,1	0,112929
5,389167	0,1	0,096138
5,390833	0,1	0,105738
5,392500	0,1	0,088977
5,394167	0,1	0,148888
5,395833	0,1	0,106560
5,397500	0,1	0,105865
5,399167	0,1	0,107231
5,400833	0,1	0,121388
5,402500	0,1	0,095374
5,404167	0,1	0,081152
5,405833	0,1	0,084955
5,407500	0,1	0,108738
5,409167	0,1	0,094690
5,410833	0,1	0,074569
5,412500	0,1	0,118048
5,414167	0,1	0,089105
5,415833	0,1	0,113786
5,417500	0,1	0,074118
5,419167	0,1	0,087624
5,420833	0,1	0,118526
5,422500	0,1	0,075734
5,424167	0,1	0,119724
5,425833	0,1	0,094857
5,427500	0,1	0,106815
5,429167	0,1	0,084176
5,430833	0,1	0,123471
5,432500	0,1	0,108911
5,434167	0,1	0,087983
5,435833	0,1	0,075602
5,437500	0,1	0,055215
5,439167	0,1	0,079113
5,440833	0,1	0,077400
5,442500	0,1	0,065521
5,444167	0,1	0,087786
5,445833	0,1	0,117555
5,447500	0,1	0,082607
5,449167	0,1	0,078520
5,450833	0,1	0,086031
5,452500	0,1	0,063784
5,454167	0,1	0,076817
5,455833	0,1	0,061569
5,457500	0,1	0,073278
5,459167	0,1	0,079965
5,460833	0,1	0,059831
5,462500	0,1	0,092567
5,464167	0,1	0,094975
5,465833	0,1	0,120476
5,467500	0,1	0,070313
5,469167	0,1	0,080049
5,470833	0,1	0,077773
5,472500	0,1	0,066162
5,474167	0,1	0,119742
5,475833	0,1	0,054212
5,477500	0,1	0,076029
5,479167	0,1	0,030589
5,480833	0,1	0,045085
5,482500	0,1	0,092914
5,484167	0,1	0,017782
5,485833	0,1	0,036389
5,487500	0,1	0,089665
5,489167	0,1	0,021591
5,490833	0,1	0,069750
5,492500	0,1	0,083836
5,494167	0,1	0,098409
5,495833	0,1	0,073018
5,497500	0,1	0,078436
5,499167	0,1	0,071648
5,500833	0,1	0,066017
5,502500	0,1	0,094265
5,504167	0,1	0,063414
5,505833	0,1	0,048465
5,507500	0,1	0,054899
5,509167	0,1	0,066903
5,510833	0,1	0,054261
5,512500	0,1	0,076753
5,514167	0,1	0,055050
5,515833	0,1	0,072573
5,517500	0,1	0,074584
5,519167	0,1	0,023656
5,520833	0,1	0,062281
5,522500	0,1	0,047616
5,524167	0,1	0,021146
5,525833	0,1	0,017973
5,527500	0,1	0,052263
5,529167	0,1	0,037826
5,530833	0,1	0,032505
5,532500	0,1	0,048997
5,534167	0,1	0,041117
5,535833	0,1	0,068596
5,537500	0,1	0,064920
5,539167	0,1	0,016306
5,540833	0,1	0,096632
5,542500	0,1	0,044190
5,544167	0,1	0,052372
5,545833	0,1	0,053120
5,547500	0,1	0,049457
5,549167	0,1	0,072365
5,550833	0,1	0,053599
5,552500	0,1	0,095007
5,554167	0,1	0,074465
5,555833	0,1	0,051821
5,557500	0,1	0,057050
5,559167	0,1	0,058273
5,560833	0,1	0,068311
5,562500	0,1	0,036711
5,564167	0,1	0,034243
5,565833	0,1	0,073582
5,567500	0,1	0,061091
5,569167	0,1	0,053556
5,570833	0,1	0,039503
5,572500	0,1	0,062180
5,574167	0,1	0,058150
5,575833	0,1	0,069326
5,577500	0,1	0,073238
5,579167	0,1	0,054986
5,580833	0,1	0,054671
5,582500	0,1	0,052188
5,584167	0,1	0,000310
5,585833	0,1	-0,004175
5,587500	0,1	0,004995
5,589167	0,1	0,048928
5,590833	0,1	0,035238
5,592500	0,1	0,057564
5,594167	0,1	0,030833
5,595833	0,1	0,045104
5,597500	0,1	0,014027
5,599167	0,1	0,042577
5,600833	0,1	0,050924
5,602500	0,1	0,048193
5,604167	0,1	0,025451
5,605833	0,1	0,060791
5,607500	0,1	0,047492
5,609167	0,1	0,038944
5,610833	0,1	0,065616
5,612500	0,1	0,069161
5,614167	0,1	0,040976
5,615833	0,1	0,047446
5,617500	0,1	0,033998
5,619167	0,1	0,070394
5,620833	0,1	0,021192
5,622500	0,1	0,044026
5,624167	0,1	0,063879
5,625833	0,1	0,052376
5,627500	0,1	0,069717
5,629167	0,1	0,060842
5,630833	0,1	0,066905
5,632500	0,1	0,049625
5,634167	0,1	0,029341
5,635833	0,1	0,054522
5,637500	0,1	0,048856
5,639167	0,1	0,023567
5,640833	0,1	0,098951
5,642500	0,1	0,066312
5,644167	0,1	0,014343
5,645833	0,1	0,036822
5,647500	0,1	0,074762
5,649167	0,1	0,052648
5,650833	0,1	0,103842
5,652500	0,1	0,017518
5,654167	0,1	0,057147
5,655833	0,1	0,022555
5,657500	0,1	0,079828
5,659167	0,1	0,053954
5,660833	0,1	0,054320
5,662500	0,1	0,095047
5,664167	0,1	0,070762
5,665833	0,1	0,062456
5,667500	0,1	0,093311
5,669167	0,1	0,052923
5,670833	0,1	0,054444
5,672500	0,1	0,053326
5,674167	0,1	0,061832
5,675833	0,1	0,031764
5,677500	0,1	0,070083
5,679167	0,1	0,057925
5,680833	0,1	0,027998
5,682500	0,1	0,051562
5,684167	0,1	0,084389
5,685833	0,1	0,106995
5,687500	0,1	0,068385
5,689167	0,1	0,072536
5,690833	0,1	0,043750
5,692500	0,1	0,013302
5,694167	0,1	0,129309
5,695833	0,1	0,076482
5,697500	0,1	0,093831
5,699167	0,1	0,084503
5,700833	0,1	0,032039
5,702500	0,1	0,080410
5,704167	0,1	0,068605
5,705833	0,1	0,039569
5,707500	0,1	0,072012
5,709167	0,1	0,089300
5,710833	0,1	0,074361
5,712500	0,1	0,078973
5,714167	0,1	0,057865
5,715833	0,1	0,109373
5,717500	0,1	0,067329
5,719167	0,1	0,080255
5,720833	0,1	0,117241
5,722500	0,1	0,052742
5,724167	0,1	0,056285
5,725833	0,1	0,081823
5,727500	0,1	0,095014
5,729167	0,1	0,097253
5,730833	0,1	0,098475
5,732500	0,1	0,094750
5,734167	0,1	0,071113
5,735833	0,1	0,072743
5,737500	0,1	0,087811
5,739167	0,1	0,138770
5,740833	0,1	0,098590
5,742500	0,1	0,084586
5,744167	0,1	0,109958
5,745833	0,1	0,083823
5,747500	0,1	0,107971
5,749167	0,1	0,084942
5,750833	0,1	0,135686
5,752500	0,1	0,126546
5,754167	0,1	0,113488
5,755833	0,1	0,078714
5,757500	0,1	0,112357
5,759167	0,1	0,111144
5,760833	0,1	0,140451
5,762500	0,1	0,131850
5,764167	0,1	0,070502
5,765833	0,1	0,095715
5,767500	0,1	0,102675
5,769167	0,1	0,079042
5,770833	0,1	0,051283
5,772500	0,1	0,107174
5,774167	0,1	0,130205
5,775833	0,1	0,096433
5,777500	0,1	0,110728
5,779167	0,1	0,085129
5,780833	0,1	0,105735
5,782500	0,1	0,100235
5,784167	0,1	0,114823
5,785833	0,1	0,148527
5,787500	0,1	0,093996
5,789167	0,1	0,122502
5,790833	0,1	0,074101
5,792500	0,1	0,088306
5,794167	0,1	0,097559
5,795833	0,1	0,127449
5,797500	0,1	0,127706
5,799167	0,1	0,116242
5,800833	0,1	0,053920
5,802500	0,1	0,079217
5,804167	0,1	0,078188
5,805833	0,1	0,140710
5,807500	0,1	0,125888
5,809167	0,1	0,066713
5,810833	0,1	0,077439
5,812500	0,1	0,101076
5,814167	0,1	0,126645
5,815833	0,1	0,080187
5,817500	0,1	0,105921
5,819167	0,1	0,126004
5,820833	0,1	0,093431
5,822500	0,1	0,097440
5,824167	0,1	0,085188
5,825833	0,1	0,089633
5,827500	0,1	0,092408
5,829167	0,1	0,106337
5,830833	0,1	0,109486
5,832500	0,1	0,143777
5,834167	0,1	0,118023
5,835833	0,1	0,165062
5,837500	0,1	0,098966
5,839167	0,1	0,112941
5,840833	0,1	0,154381
5,842500	0,1	0,087497
5,844167	0,1	0,076348
5,845833	0,1	0,108195
5,847500	0,1	0,077407
5,849167	0,1	0,098283
5,850833	0,1	0,119233
5,852500	0,1	0,133087
5,854167	0,1	0,077144
5,855833	0,1	0,111365
5,857500	0,1	0,089454
5,859167	0,1	0,080983
5,860833	0,1	0,057348
5,862500	0,1	0,104341
5,864167	0,1	0,093302
5,865833	0,1	0,050232
5,867500	0,1	0,100552
5,869167	0,1	0,099468
5,870833	0,1	0,092452
5,872500	0,1	0,065586
5,874167	0,1	0,080150
5,875833	0,1	0,085184
5,877500	0,1	0,109356
5,879167	0,1	0,120498
5,880833	0,1	0,126649
5,882500	0,1	0,088380
5,884167	0,1	0,072416
5,885833	0,1	0,094391
5,887500	0,1	0,081937
5,889167	0,1	0,118276
5,890833	0,1	0,101626
5,892500	0,1	0,107085
5,894167	0,1	0,096779
5,895833	0,1	0,072936
5,897500	0,1	0,074668
5,899167	0,1	0,074564
5,900833	0,1	0,104034
5,902500	0,1	0,088460
5,904167	0,1	0,055900
5,905833	0,1	0,084536
5,907500	0,1	0,067552
5,909167	0,1	0,103931
5,910833	0,1	0,095619
5,912500	0,1	0,069148
5,914167	0,1	0,079738
5,915833	0,1	0,080091
5,917500	0,1	0,073489
5,919167	0,1	0,113369
5,920833	0,1	0,069876
5,922500	0,1	0,058069
5,924167	0,1	0,064812
5,925833	0,1	0,076653
5,927500	0,1	0,086797
5,929167	0,1	0,099278
5,930833	0,1	0,046032
5,932500	0,1	0,046722
5,934167	0,1	0,061893
5,935833	0,1	0,065393
5,937500	0,1	0,098156
5,939167	0,1	0,060704
5,940833	0,1	0,048569
5,942500	0,1	0,066653
5,944167	0,1	0,099728
5,945833	0,1	0,038377
5,947500	0,1	0,058972
5,949167	0,1	0,030232
5,950833	0,1	0,126542
5,952500	0,1	0,072694
5,954167	0,1	0,078495
5,955833	0,1	0,028436
5,957500	0,1	0,047651
5,959167	0,1	0,055871
5,960833	0,1	0,051569
5,962500	0,1	0,031907
5,964167	0,1	0,084757
5,965833	0,1	0,075126
5,967500	0,1	0,034727
5,969167	0,1	0,037016
5,970833	0,1	0,024311
5,972500	0,1	0,066978
5,974167	0,1	0,044099
5,975833	0,1	0,046267
5,977500	0,1	0,022469
5,979167	0,1	0,035687
5,980833	0,1	0,043512
5,982500	0,1	0,052538
5,984167	0,1	0,033274
5,985833	0,1	0,035401
5,987500	0,1	0,026895
5,989167	0,1	0,035357
5,990833	0,1	0,025138
5,992500	0,1	0,057976
5,994167	0,1	0,019327
5,995833	0,1	0,051455
5,997500	0,1	0,033398
5,999167	0,1	0,028283
6,000833	0,1	0,061535
