File Path	chrom://chromeleon01/ikbm_chromeleon/2022/Rezex/Esteban/220612_chitin_4_7.seq/163.smp/UV_VIS_1.channel/UV_VIS_1.chm
Channel	UV_VIS_1

Injection Information:
Data Vault	ikbm_chromeleon
Injection	7_01h-EGS_3
Injection Number	93
Position	GE4
Comment	
Processing Method	New ProcMethod
Instrument Method	Short_Rezex_6min_194nm
Type	Unknown
Status	Finished
Injection Date	13.06.2022
Injection Time	03:09:35
Injection Volume (µl)	8,000
Dilution Factor	1,0000
Weight	1,0000

Chromatogram Data Information:
Time Min. (min)	0,000833
Time Max. (min)	6,000833
Data Points	3601
Detector	UV
Generating Data System	Chromeleon 7.2.9.11323
Exporting Data System	Chromeleon 7.2.9.0
Operator	Instrument Controller
Signal Quantity	Absorbance
Signal Unit	mAU
Signal Min.	-0,133074
Signal Max.	110,839775
Channel	UV_VIS_1
Driver Name	VWD3000.dll
Channel Type	Evaluation
Min. Step (s)	0,1
Max. Step (s)	0,1
Average Step (s)	0,1

Signal Parameter Information:
Signal Info	WVL:194 nm

Chromatogram Data:
Time (min)	Step (s)	Value (mAU)
0,000833	n.a.	-0,043784
0,002500	0,1	-0,056158
0,004167	0,1	-0,101860
0,005833	0,1	-0,083206
0,007500	0,1	-0,009533
0,009167	0,1	-0,053018
0,010833	0,1	-0,071265
0,012500	0,1	-0,075929
0,014167	0,1	-0,053996
0,015833	0,1	-0,062514
0,017500	0,1	-0,034700
0,019167	0,1	-0,044991
0,020833	0,1	-0,076503
0,022500	0,1	-0,079365
0,024167	0,1	-0,057449
0,025833	0,1	-0,096270
0,027500	0,1	-0,091209
0,029167	0,1	-0,073260
0,030833	0,1	-0,056561
0,032500	0,1	-0,088511
0,034167	0,1	-0,104264
0,035833	0,1	-0,085895
0,037500	0,1	-0,074772
0,039167	0,1	-0,111028
0,040833	0,1	-0,133074
0,042500	0,1	-0,076568
0,044167	0,1	-0,102934
0,045833	0,1	-0,069230
0,047500	0,1	-0,105206
0,049167	0,1	-0,077692
0,050833	0,1	-0,107577
0,052500	0,1	-0,048061
0,054167	0,1	-0,071783
0,055833	0,1	-0,102061
0,057500	0,1	-0,050856
0,059167	0,1	-0,081803
0,060833	0,1	-0,072280
0,062500	0,1	-0,110919
0,064167	0,1	-0,100665
0,065833	0,1	-0,083098
0,067500	0,1	-0,066630
0,069167	0,1	-0,072245
0,070833	0,1	-0,053263
0,072500	0,1	-0,085439
0,074167	0,1	-0,074632
0,075833	0,1	-0,052774
0,077500	0,1	-0,096039
0,079167	0,1	-0,075643
0,080833	0,1	-0,049642
0,082500	0,1	-0,014976
0,084167	0,1	-0,071760
0,085833	0,1	-0,057279
0,087500	0,1	-0,057672
0,089167	0,1	-0,038671
0,090833	0,1	-0,014578
0,092500	0,1	-0,044358
0,094167	0,1	-0,039064
0,095833	0,1	-0,034142
0,097500	0,1	-0,104482
0,099167	0,1	-0,034068
0,100833	0,1	-0,072835
0,102500	0,1	-0,055004
0,104167	0,1	-0,061214
0,105833	0,1	-0,038137
0,107500	0,1	-0,107629
0,109167	0,1	-0,082458
0,110833	0,1	-0,061678
0,112500	0,1	-0,077484
0,114167	0,1	-0,084911
0,115833	0,1	-0,090931
0,117500	0,1	-0,066372
0,119167	0,1	-0,072323
0,120833	0,1	-0,093264
0,122500	0,1	-0,097684
0,124167	0,1	-0,037873
0,125833	0,1	-0,065657
0,127500	0,1	-0,060654
0,129167	0,1	-0,047346
0,130833	0,1	-0,084674
0,132500	0,1	-0,097682
0,134167	0,1	-0,098249
0,135833	0,1	-0,088046
0,137500	0,1	-0,061651
0,139167	0,1	-0,078110
0,140833	0,1	-0,100643
0,142500	0,1	-0,042837
0,144167	0,1	-0,041463
0,145833	0,1	-0,070332
0,147500	0,1	-0,040108
0,149167	0,1	-0,052949
0,150833	0,1	-0,062986
0,152500	0,1	-0,019778
0,154167	0,1	-0,061389
0,155833	0,1	-0,063157
0,157500	0,1	-0,054862
0,159167	0,1	-0,060345
0,160833	0,1	-0,054342
0,162500	0,1	-0,025347
0,164167	0,1	-0,066875
0,165833	0,1	-0,064319
0,167500	0,1	-0,127870
0,169167	0,1	-0,056773
0,170833	0,1	-0,036562
0,172500	0,1	-0,071246
0,174167	0,1	-0,067712
0,175833	0,1	-0,037804
0,177500	0,1	-0,030783
0,179167	0,1	-0,035272
0,180833	0,1	-0,058492
0,182500	0,1	-0,004590
0,184167	0,1	-0,042982
0,185833	0,1	-0,020703
0,187500	0,1	-0,056380
0,189167	0,1	-0,070012
0,190833	0,1	-0,057062
0,192500	0,1	-0,082463
0,194167	0,1	-0,069791
0,195833	0,1	-0,013987
0,197500	0,1	-0,051721
0,199167	0,1	-0,005449
0,200833	0,1	-0,012645
0,202500	0,1	-0,034749
0,204167	0,1	-0,075217
0,205833	0,1	-0,048114
0,207500	0,1	-0,048918
0,209167	0,1	-0,026251
0,210833	0,1	-0,077368
0,212500	0,1	-0,022759
0,214167	0,1	-0,060705
0,215833	0,1	-0,037143
0,217500	0,1	-0,011017
0,219167	0,1	-0,089155
0,220833	0,1	-0,057312
0,222500	0,1	-0,038336
0,224167	0,1	-0,050426
0,225833	0,1	-0,116962
0,227500	0,1	-0,082644
0,229167	0,1	-0,083155
0,230833	0,1	-0,070890
0,232500	0,1	-0,043395
0,234167	0,1	-0,005140
0,235833	0,1	-0,075852
0,237500	0,1	-0,039697
0,239167	0,1	-0,042148
0,240833	0,1	-0,030127
0,242500	0,1	-0,097760
0,244167	0,1	-0,060478
0,245833	0,1	-0,073191
0,247500	0,1	-0,083963
0,249167	0,1	-0,024977
0,250833	0,1	-0,038251
0,252500	0,1	-0,086932
0,254167	0,1	-0,048866
0,255833	0,1	-0,063137
0,257500	0,1	-0,065829
0,259167	0,1	-0,064363
0,260833	0,1	-0,024576
0,262500	0,1	-0,019750
0,264167	0,1	-0,099591
0,265833	0,1	-0,082106
0,267500	0,1	-0,016160
0,269167	0,1	-0,002048
0,270833	0,1	-0,042369
0,272500	0,1	-0,052766
0,274167	0,1	-0,035919
0,275833	0,1	-0,076728
0,277500	0,1	-0,034080
0,279167	0,1	-0,033287
0,280833	0,1	-0,037305
0,282500	0,1	-0,050884
0,284167	0,1	-0,056343
0,285833	0,1	-0,040930
0,287500	0,1	-0,036039
0,289167	0,1	-0,039141
0,290833	0,1	-0,030203
0,292500	0,1	-0,036512
0,294167	0,1	-0,047967
0,295833	0,1	-0,052843
0,297500	0,1	-0,052891
0,299167	0,1	-0,059656
0,300833	0,1	-0,063921
0,302500	0,1	-0,055153
0,304167	0,1	-0,021348
0,305833	0,1	-0,045152
0,307500	0,1	-0,047343
0,309167	0,1	-0,009201
0,310833	0,1	-0,001800
0,312500	0,1	-0,065814
0,314167	0,1	-0,046630
0,315833	0,1	-0,080382
0,317500	0,1	-0,041577
0,319167	0,1	-0,017707
0,320833	0,1	-0,021385
0,322500	0,1	-0,045809
0,324167	0,1	-0,030785
0,325833	0,1	-0,017950
0,327500	0,1	-0,006689
0,329167	0,1	0,000935
0,330833	0,1	-0,049440
0,332500	0,1	-0,024950
0,334167	0,1	-0,012158
0,335833	0,1	-0,041852
0,337500	0,1	-0,062847
0,339167	0,1	-0,002850
0,340833	0,1	-0,068687
0,342500	0,1	0,011475
0,344167	0,1	-0,054660
0,345833	0,1	-0,033019
0,347500	0,1	-0,004995
0,349167	0,1	-0,038747
0,350833	0,1	-0,025089
0,352500	0,1	0,013947
0,354167	0,1	0,008076
0,355833	0,1	-0,076076
0,357500	0,1	-0,025036
0,359167	0,1	-0,028303
0,360833	0,1	-0,017642
0,362500	0,1	-0,068279
0,364167	0,1	-0,020587
0,365833	0,1	-0,041151
0,367500	0,1	-0,012608
0,369167	0,1	-0,014967
0,370833	0,1	0,006769
0,372500	0,1	-0,040184
0,374167	0,1	-0,045189
0,375833	0,1	-0,015141
0,377500	0,1	-0,002609
0,379167	0,1	-0,030468
0,380833	0,1	-0,022794
0,382500	0,1	-0,038294
0,384167	0,1	-0,048289
0,385833	0,1	-0,017224
0,387500	0,1	-0,043717
0,389167	0,1	-0,020783
0,390833	0,1	-0,028197
0,392500	0,1	-0,009074
0,394167	0,1	-0,018850
0,395833	0,1	-0,045138
0,397500	0,1	-0,027104
0,399167	0,1	-0,015551
0,400833	0,1	-0,003312
0,402500	0,1	-0,034351
0,404167	0,1	-0,013794
0,405833	0,1	-0,017058
0,407500	0,1	-0,025523
0,409167	0,1	-0,018283
0,410833	0,1	-0,038293
0,412500	0,1	0,002165
0,414167	0,1	-0,004241
0,415833	0,1	-0,017821
0,417500	0,1	-0,053124
0,419167	0,1	-0,005933
0,420833	0,1	0,016956
0,422500	0,1	-0,017570
0,424167	0,1	-0,020636
0,425833	0,1	-0,031405
0,427500	0,1	0,024274
0,429167	0,1	-0,071002
0,430833	0,1	-0,031752
0,432500	0,1	-0,045476
0,434167	0,1	-0,011890
0,435833	0,1	-0,025644
0,437500	0,1	0,000947
0,439167	0,1	-0,028849
0,440833	0,1	0,023403
0,442500	0,1	0,004335
0,444167	0,1	-0,042032
0,445833	0,1	-0,021909
0,447500	0,1	-0,028152
0,449167	0,1	-0,020322
0,450833	0,1	-0,041992
0,452500	0,1	-0,021882
0,454167	0,1	-0,021094
0,455833	0,1	0,006907
0,457500	0,1	-0,032224
0,459167	0,1	-0,001145
0,460833	0,1	-0,023382
0,462500	0,1	-0,030629
0,464167	0,1	-0,018776
0,465833	0,1	0,013658
0,467500	0,1	-0,022906
0,469167	0,1	-0,033284
0,470833	0,1	-0,013644
0,472500	0,1	-0,046282
0,474167	0,1	0,001249
0,475833	0,1	-0,029905
0,477500	0,1	0,003574
0,479167	0,1	-0,035660
0,480833	0,1	0,003530
0,482500	0,1	-0,016351
0,484167	0,1	-0,033117
0,485833	0,1	-0,017450
0,487500	0,1	-0,008921
0,489167	0,1	-0,013745
0,490833	0,1	0,023135
0,492500	0,1	-0,005078
0,494167	0,1	-0,028086
0,495833	0,1	-0,004994
0,497500	0,1	-0,043775
0,499167	0,1	-0,009032
0,500833	0,1	-0,019185
0,502500	0,1	0,043983
0,504167	0,1	-0,004977
0,505833	0,1	0,006710
0,507500	0,1	-0,027951
0,509167	0,1	-0,021983
0,510833	0,1	0,014133
0,512500	0,1	-0,001196
0,514167	0,1	-0,028972
0,515833	0,1	-0,019567
0,517500	0,1	0,002215
0,519167	0,1	-0,007326
0,520833	0,1	-0,025047
0,522500	0,1	0,007654
0,524167	0,1	0,017329
0,525833	0,1	0,017059
0,527500	0,1	0,005678
0,529167	0,1	-0,002973
0,530833	0,1	-0,017943
0,532500	0,1	0,013369
0,534167	0,1	0,009404
0,535833	0,1	-0,001673
0,537500	0,1	0,036638
0,539167	0,1	0,028095
0,540833	0,1	0,003983
0,542500	0,1	-0,029490
0,544167	0,1	-0,003131
0,545833	0,1	0,003914
0,547500	0,1	-0,006120
0,549167	0,1	-0,012108
0,550833	0,1	-0,007864
0,552500	0,1	-0,016845
0,554167	0,1	0,001863
0,555833	0,1	-0,007818
0,557500	0,1	0,018732
0,559167	0,1	-0,002539
0,560833	0,1	0,002816
0,562500	0,1	0,029976
0,564167	0,1	0,015824
0,565833	0,1	0,023106
0,567500	0,1	-0,005458
0,569167	0,1	-0,026944
0,570833	0,1	0,023465
0,572500	0,1	-0,003041
0,574167	0,1	0,040532
0,575833	0,1	-0,028155
0,577500	0,1	0,032991
0,579167	0,1	0,038739
0,580833	0,1	-0,015016
0,582500	0,1	0,010988
0,584167	0,1	-0,021666
0,585833	0,1	-0,032520
0,587500	0,1	0,022971
0,589167	0,1	-0,009323
0,590833	0,1	0,023038
0,592500	0,1	0,033702
0,594167	0,1	0,004917
0,595833	0,1	-0,024280
0,597500	0,1	-0,008370
0,599167	0,1	0,013511
0,600833	0,1	0,002635
0,602500	0,1	-0,010181
0,604167	0,1	0,004968
0,605833	0,1	0,026250
0,607500	0,1	0,008458
0,609167	0,1	0,021630
0,610833	0,1	0,016402
0,612500	0,1	0,015425
0,614167	0,1	0,010335
0,615833	0,1	0,015133
0,617500	0,1	0,014871
0,619167	0,1	0,030015
0,620833	0,1	0,005101
0,622500	0,1	0,003627
0,624167	0,1	0,060775
0,625833	0,1	0,060871
0,627500	0,1	0,039696
0,629167	0,1	-0,026196
0,630833	0,1	0,013095
0,632500	0,1	-0,000554
0,634167	0,1	0,014780
0,635833	0,1	0,056472
0,637500	0,1	0,017710
0,639167	0,1	0,014703
0,640833	0,1	0,003111
0,642500	0,1	0,030284
0,644167	0,1	0,001647
0,645833	0,1	0,057007
0,647500	0,1	0,057432
0,649167	0,1	0,064515
0,650833	0,1	0,027690
0,652500	0,1	0,023770
0,654167	0,1	0,064816
0,655833	0,1	0,033403
0,657500	0,1	0,045148
0,659167	0,1	0,088732
0,660833	0,1	0,020161
0,662500	0,1	0,030473
0,664167	0,1	0,059104
0,665833	0,1	0,044661
0,667500	0,1	0,047619
0,669167	0,1	0,040685
0,670833	0,1	0,038593
0,672500	0,1	0,084712
0,674167	0,1	0,036616
0,675833	0,1	0,063950
0,677500	0,1	0,050190
0,679167	0,1	0,062856
0,680833	0,1	0,062135
0,682500	0,1	0,029261
0,684167	0,1	0,048960
0,685833	0,1	0,078589
0,687500	0,1	0,027052
0,689167	0,1	0,101686
0,690833	0,1	0,057240
0,692500	0,1	0,046857
0,694167	0,1	0,057763
0,695833	0,1	0,068571
0,697500	0,1	0,059607
0,699167	0,1	0,057889
0,700833	0,1	0,081385
0,702500	0,1	0,056858
0,704167	0,1	0,063955
0,705833	0,1	0,068240
0,707500	0,1	0,068055
0,709167	0,1	0,107410
0,710833	0,1	0,100298
0,712500	0,1	0,068063
0,714167	0,1	0,064847
0,715833	0,1	0,041577
0,717500	0,1	0,097734
0,719167	0,1	0,093670
0,720833	0,1	0,084849
0,722500	0,1	0,090250
0,724167	0,1	0,123540
0,725833	0,1	0,109761
0,727500	0,1	0,077794
0,729167	0,1	0,090890
0,730833	0,1	0,102135
0,732500	0,1	0,121825
0,734167	0,1	0,085745
0,735833	0,1	0,102528
0,737500	0,1	0,123667
0,739167	0,1	0,107857
0,740833	0,1	0,152695
0,742500	0,1	0,135647
0,744167	0,1	0,128790
0,745833	0,1	0,116843
0,747500	0,1	0,124375
0,749167	0,1	0,163508
0,750833	0,1	0,135774
0,752500	0,1	0,129950
0,754167	0,1	0,162164
0,755833	0,1	0,151031
0,757500	0,1	0,170182
0,759167	0,1	0,141821
0,760833	0,1	0,155644
0,762500	0,1	0,164178
0,764167	0,1	0,125443
0,765833	0,1	0,166364
0,767500	0,1	0,181117
0,769167	0,1	0,131803
0,770833	0,1	0,159990
0,772500	0,1	0,172212
0,774167	0,1	0,133001
0,775833	0,1	0,152308
0,777500	0,1	0,130078
0,779167	0,1	0,137650
0,780833	0,1	0,172082
0,782500	0,1	0,101554
0,784167	0,1	0,119093
0,785833	0,1	0,139304
0,787500	0,1	0,155996
0,789167	0,1	0,159000
0,790833	0,1	0,161238
0,792500	0,1	0,148775
0,794167	0,1	0,172500
0,795833	0,1	0,140352
0,797500	0,1	0,127403
0,799167	0,1	0,195187
0,800833	0,1	0,133379
0,802500	0,1	0,143260
0,804167	0,1	0,161856
0,805833	0,1	0,185920
0,807500	0,1	0,115862
0,809167	0,1	0,128579
0,810833	0,1	0,153178
0,812500	0,1	0,129312
0,814167	0,1	0,129865
0,815833	0,1	0,150775
0,817500	0,1	0,122209
0,819167	0,1	0,128849
0,820833	0,1	0,110611
0,822500	0,1	0,123319
0,824167	0,1	0,127855
0,825833	0,1	0,113467
0,827500	0,1	0,136756
0,829167	0,1	0,133386
0,830833	0,1	0,138830
0,832500	0,1	0,076518
0,834167	0,1	0,121488
0,835833	0,1	0,128415
0,837500	0,1	0,081255
0,839167	0,1	0,109648
0,840833	0,1	0,123256
0,842500	0,1	0,112762
0,844167	0,1	0,116529
0,845833	0,1	0,101394
0,847500	0,1	0,128553
0,849167	0,1	0,137319
0,850833	0,1	0,102683
0,852500	0,1	0,132116
0,854167	0,1	0,112972
0,855833	0,1	0,109386
0,857500	0,1	0,145678
0,859167	0,1	0,090638
0,860833	0,1	0,128200
0,862500	0,1	0,091752
0,864167	0,1	0,092509
0,865833	0,1	0,080068
0,867500	0,1	0,105838
0,869167	0,1	0,086404
0,870833	0,1	0,108530
0,872500	0,1	0,092907
0,874167	0,1	0,125094
0,875833	0,1	0,111460
0,877500	0,1	0,118287
0,879167	0,1	0,088435
0,880833	0,1	0,114412
0,882500	0,1	0,072971
0,884167	0,1	0,140079
0,885833	0,1	0,130798
0,887500	0,1	0,107072
0,889167	0,1	0,109239
0,890833	0,1	0,109571
0,892500	0,1	0,106093
0,894167	0,1	0,065930
0,895833	0,1	0,125999
0,897500	0,1	0,078046
0,899167	0,1	0,105505
0,900833	0,1	0,090667
0,902500	0,1	0,103357
0,904167	0,1	0,112800
0,905833	0,1	0,114747
0,907500	0,1	0,094604
0,909167	0,1	0,109754
0,910833	0,1	0,060180
0,912500	0,1	0,095999
0,914167	0,1	0,111639
0,915833	0,1	0,124891
0,917500	0,1	0,132078
0,919167	0,1	0,107611
0,920833	0,1	0,076345
0,922500	0,1	0,109895
0,924167	0,1	0,151061
0,925833	0,1	0,131879
0,927500	0,1	0,120155
0,929167	0,1	0,145018
0,930833	0,1	0,073331
0,932500	0,1	0,103932
0,934167	0,1	0,128926
0,935833	0,1	0,124833
0,937500	0,1	0,118643
0,939167	0,1	0,093052
0,940833	0,1	0,120912
0,942500	0,1	0,128539
0,944167	0,1	0,111771
0,945833	0,1	0,076635
0,947500	0,1	0,071181
0,949167	0,1	0,134074
0,950833	0,1	0,107050
0,952500	0,1	0,116361
0,954167	0,1	0,148227
0,955833	0,1	0,121920
0,957500	0,1	0,150380
0,959167	0,1	0,116641
0,960833	0,1	0,117191
0,962500	0,1	0,121271
0,964167	0,1	0,123777
0,965833	0,1	0,087091
0,967500	0,1	0,136314
0,969167	0,1	0,151418
0,970833	0,1	0,135811
0,972500	0,1	0,146450
0,974167	0,1	0,154714
0,975833	0,1	0,125648
0,977500	0,1	0,112412
0,979167	0,1	0,133483
0,980833	0,1	0,134586
0,982500	0,1	0,133882
0,984167	0,1	0,160921
0,985833	0,1	0,147118
0,987500	0,1	0,147736
0,989167	0,1	0,114156
0,990833	0,1	0,136735
0,992500	0,1	0,217218
0,994167	0,1	0,163842
0,995833	0,1	0,200580
0,997500	0,1	0,179095
0,999167	0,1	0,200459
1,000833	0,1	0,180628
1,002500	0,1	0,192177
1,004167	0,1	0,198742
1,005833	0,1	0,199801
1,007500	0,1	0,206845
1,009167	0,1	0,210095
1,010833	0,1	0,219145
1,012500	0,1	0,209456
1,014167	0,1	0,175662
1,015833	0,1	0,214292
1,017500	0,1	0,226520
1,019167	0,1	0,190263
1,020833	0,1	0,218130
1,022500	0,1	0,268641
1,024167	0,1	0,232852
1,025833	0,1	0,265146
1,027500	0,1	0,241939
1,029167	0,1	0,292465
1,030833	0,1	0,340609
1,032500	0,1	0,269375
1,034167	0,1	0,289010
1,035833	0,1	0,296759
1,037500	0,1	0,299289
1,039167	0,1	0,338909
1,040833	0,1	0,299137
1,042500	0,1	0,322014
1,044167	0,1	0,336863
1,045833	0,1	0,351788
1,047500	0,1	0,339654
1,049167	0,1	0,413083
1,050833	0,1	0,377166
1,052500	0,1	0,398938
1,054167	0,1	0,414636
1,055833	0,1	0,483433
1,057500	0,1	0,498126
1,059167	0,1	0,581158
1,060833	0,1	0,651376
1,062500	0,1	0,774592
1,064167	0,1	0,936430
1,065833	0,1	1,170047
1,067500	0,1	1,369556
1,069167	0,1	1,723315
1,070833	0,1	2,100167
1,072500	0,1	2,580046
1,074167	0,1	3,169800
1,075833	0,1	3,891060
1,077500	0,1	4,655713
1,079167	0,1	5,559200
1,080833	0,1	6,631589
1,082500	0,1	7,861280
1,084167	0,1	9,190345
1,085833	0,1	10,631745
1,087500	0,1	12,222308
1,089167	0,1	13,895704
1,090833	0,1	15,652542
1,092500	0,1	17,426476
1,094167	0,1	19,278022
1,095833	0,1	21,061014
1,097500	0,1	22,882147
1,099167	0,1	24,654871
1,100833	0,1	26,291041
1,102500	0,1	27,872598
1,104167	0,1	29,352957
1,105833	0,1	30,628731
1,107500	0,1	31,749067
1,109167	0,1	32,755494
1,110833	0,1	33,540241
1,112500	0,1	34,224694
1,114167	0,1	34,736737
1,115833	0,1	35,101707
1,117500	0,1	35,349734
1,119167	0,1	35,493885
1,120833	0,1	35,510445
1,122500	0,1	35,441214
1,124167	0,1	35,389311
1,125833	0,1	35,228722
1,127500	0,1	35,042490
1,129167	0,1	34,883643
1,130833	0,1	34,728364
1,132500	0,1	34,477259
1,134167	0,1	34,360587
1,135833	0,1	34,273948
1,137500	0,1	34,177848
1,139167	0,1	34,214984
1,140833	0,1	34,249394
1,142500	0,1	34,444107
1,144167	0,1	34,637946
1,145833	0,1	34,944500
1,147500	0,1	35,400778
1,149167	0,1	35,907230
1,150833	0,1	36,532945
1,152500	0,1	37,200115
1,154167	0,1	37,967047
1,155833	0,1	38,821232
1,157500	0,1	39,742653
1,159167	0,1	40,787052
1,160833	0,1	41,836656
1,162500	0,1	42,951942
1,164167	0,1	44,066527
1,165833	0,1	45,188200
1,167500	0,1	46,367974
1,169167	0,1	47,504469
1,170833	0,1	48,650494
1,172500	0,1	49,708155
1,174167	0,1	50,718098
1,175833	0,1	51,657133
1,177500	0,1	52,546304
1,179167	0,1	53,413968
1,180833	0,1	54,106969
1,182500	0,1	54,769286
1,184167	0,1	55,386724
1,185833	0,1	55,842445
1,187500	0,1	56,279226
1,189167	0,1	56,660756
1,190833	0,1	56,999912
1,192500	0,1	57,236157
1,194167	0,1	57,492359
1,195833	0,1	57,771152
1,197500	0,1	58,012619
1,199167	0,1	58,318690
1,200833	0,1	58,697410
1,202500	0,1	59,145715
1,204167	0,1	59,718828
1,205833	0,1	60,374560
1,207500	0,1	61,228878
1,209167	0,1	62,223410
1,210833	0,1	63,421876
1,212500	0,1	64,746881
1,214167	0,1	66,285259
1,215833	0,1	67,999015
1,217500	0,1	69,911320
1,219167	0,1	71,998795
1,220833	0,1	74,265421
1,222500	0,1	76,639804
1,224167	0,1	79,111201
1,225833	0,1	81,628264
1,227500	0,1	84,227219
1,229167	0,1	86,841080
1,230833	0,1	89,420882
1,232500	0,1	91,962294
1,234167	0,1	94,396522
1,235833	0,1	96,791334
1,237500	0,1	98,963849
1,239167	0,1	101,090039
1,240833	0,1	103,003241
1,242500	0,1	104,714327
1,244167	0,1	106,250153
1,245833	0,1	107,618603
1,247500	0,1	108,653573
1,249167	0,1	109,573049
1,250833	0,1	110,208100
1,252500	0,1	110,587383
1,254167	0,1	110,839775
1,255833	0,1	110,816855
1,257500	0,1	110,577077
1,259167	0,1	110,130751
1,260833	0,1	109,492332
1,262500	0,1	108,646673
1,264167	0,1	107,605910
1,265833	0,1	106,409852
1,267500	0,1	105,070828
1,269167	0,1	103,503346
1,270833	0,1	101,844598
1,272500	0,1	100,036891
1,274167	0,1	98,052076
1,275833	0,1	96,066175
1,277500	0,1	93,914309
1,279167	0,1	91,709891
1,280833	0,1	89,462692
1,282500	0,1	87,085822
1,284167	0,1	84,785210
1,285833	0,1	82,377611
1,287500	0,1	79,974452
1,289167	0,1	77,644833
1,290833	0,1	75,212123
1,292500	0,1	72,861527
1,294167	0,1	70,589540
1,295833	0,1	68,217604
1,297500	0,1	65,984230
1,299167	0,1	63,787959
1,300833	0,1	61,680026
1,302500	0,1	59,607606
1,304167	0,1	57,546394
1,305833	0,1	55,608287
1,307500	0,1	53,690513
1,309167	0,1	51,880594
1,310833	0,1	50,134772
1,312500	0,1	48,433528
1,314167	0,1	46,801447
1,315833	0,1	45,237449
1,317500	0,1	43,722138
1,319167	0,1	42,293389
1,320833	0,1	40,887078
1,322500	0,1	39,588201
1,324167	0,1	38,275377
1,325833	0,1	37,066116
1,327500	0,1	35,877443
1,329167	0,1	34,736279
1,330833	0,1	33,658850
1,332500	0,1	32,633550
1,334167	0,1	31,601887
1,335833	0,1	30,696100
1,337500	0,1	29,726940
1,339167	0,1	28,882188
1,340833	0,1	27,972082
1,342500	0,1	27,146632
1,344167	0,1	26,388425
1,345833	0,1	25,611190
1,347500	0,1	24,879997
1,349167	0,1	24,165996
1,350833	0,1	23,449174
1,352500	0,1	22,801421
1,354167	0,1	22,162903
1,355833	0,1	21,543666
1,357500	0,1	20,988356
1,359167	0,1	20,367191
1,360833	0,1	19,806521
1,362500	0,1	19,325921
1,364167	0,1	18,788303
1,365833	0,1	18,283045
1,367500	0,1	17,806191
1,369167	0,1	17,330517
1,370833	0,1	16,851926
1,372500	0,1	16,395954
1,374167	0,1	16,023929
1,375833	0,1	15,617149
1,377500	0,1	15,217388
1,379167	0,1	14,867376
1,380833	0,1	14,472028
1,382500	0,1	14,097002
1,384167	0,1	13,769843
1,385833	0,1	13,461366
1,387500	0,1	13,138980
1,389167	0,1	12,808752
1,390833	0,1	12,553548
1,392500	0,1	12,233133
1,394167	0,1	11,981536
1,395833	0,1	11,743010
1,397500	0,1	11,467203
1,399167	0,1	11,235773
1,400833	0,1	11,086369
1,402500	0,1	10,837282
1,404167	0,1	10,630443
1,405833	0,1	10,378366
1,407500	0,1	10,182726
1,409167	0,1	10,001380
1,410833	0,1	9,855985
1,412500	0,1	9,678863
1,414167	0,1	9,517737
1,415833	0,1	9,351806
1,417500	0,1	9,198316
1,419167	0,1	9,040859
1,420833	0,1	8,942842
1,422500	0,1	8,765411
1,424167	0,1	8,665163
1,425833	0,1	8,503440
1,427500	0,1	8,440412
1,429167	0,1	8,300919
1,430833	0,1	8,175946
1,432500	0,1	8,090147
1,434167	0,1	7,971187
1,435833	0,1	7,849059
1,437500	0,1	7,766452
1,439167	0,1	7,690267
1,440833	0,1	7,584203
1,442500	0,1	7,469281
1,444167	0,1	7,350487
1,445833	0,1	7,296284
1,447500	0,1	7,179777
1,449167	0,1	7,098403
1,450833	0,1	7,004291
1,452500	0,1	6,958442
1,454167	0,1	6,858222
1,455833	0,1	6,799732
1,457500	0,1	6,740965
1,459167	0,1	6,664909
1,460833	0,1	6,646466
1,462500	0,1	6,507699
1,464167	0,1	6,451657
1,465833	0,1	6,392477
1,467500	0,1	6,368653
1,469167	0,1	6,305011
1,470833	0,1	6,247928
1,472500	0,1	6,216200
1,474167	0,1	6,171490
1,475833	0,1	6,182810
1,477500	0,1	6,126121
1,479167	0,1	6,037733
1,480833	0,1	6,029551
1,482500	0,1	6,031252
1,484167	0,1	6,005583
1,485833	0,1	6,028274
1,487500	0,1	5,987647
1,489167	0,1	6,001861
1,490833	0,1	6,003430
1,492500	0,1	6,032371
1,494167	0,1	6,024642
1,495833	0,1	6,037386
1,497500	0,1	6,028564
1,499167	0,1	6,037670
1,500833	0,1	6,063311
1,502500	0,1	6,084241
1,504167	0,1	6,027168
1,505833	0,1	6,113618
1,507500	0,1	6,099780
1,509167	0,1	6,135198
1,510833	0,1	6,124410
1,512500	0,1	6,171453
1,514167	0,1	6,181447
1,515833	0,1	6,178269
1,517500	0,1	6,177618
1,519167	0,1	6,202081
1,520833	0,1	6,149187
1,522500	0,1	6,217757
1,524167	0,1	6,188280
1,525833	0,1	6,227927
1,527500	0,1	6,207987
1,529167	0,1	6,202802
1,530833	0,1	6,177952
1,532500	0,1	6,205591
1,534167	0,1	6,165554
1,535833	0,1	6,206622
1,537500	0,1	6,172096
1,539167	0,1	6,191654
1,540833	0,1	6,145987
1,542500	0,1	6,109046
1,544167	0,1	6,157544
1,545833	0,1	6,114862
1,547500	0,1	6,037288
1,549167	0,1	6,054186
1,550833	0,1	6,052728
1,552500	0,1	6,005813
1,554167	0,1	5,976303
1,555833	0,1	5,973831
1,557500	0,1	5,938970
1,559167	0,1	5,888249
1,560833	0,1	5,894793
1,562500	0,1	5,853839
1,564167	0,1	5,788872
1,565833	0,1	5,795533
1,567500	0,1	5,753283
1,569167	0,1	5,709527
1,570833	0,1	5,663728
1,572500	0,1	5,627662
1,574167	0,1	5,607072
1,575833	0,1	5,574007
1,577500	0,1	5,555222
1,579167	0,1	5,504201
1,580833	0,1	5,486584
1,582500	0,1	5,431868
1,584167	0,1	5,393046
1,585833	0,1	5,338325
1,587500	0,1	5,344389
1,589167	0,1	5,287907
1,590833	0,1	5,235798
1,592500	0,1	5,219071
1,594167	0,1	5,193121
1,595833	0,1	5,131886
1,597500	0,1	5,099380
1,599167	0,1	5,083143
1,600833	0,1	5,040183
1,602500	0,1	5,001228
1,604167	0,1	4,930027
1,605833	0,1	4,936416
1,607500	0,1	4,879165
1,609167	0,1	4,835049
1,610833	0,1	4,816058
1,612500	0,1	4,776529
1,614167	0,1	4,726291
1,615833	0,1	4,689803
1,617500	0,1	4,680869
1,619167	0,1	4,644147
1,620833	0,1	4,597887
1,622500	0,1	4,565134
1,624167	0,1	4,573431
1,625833	0,1	4,499565
1,627500	0,1	4,492987
1,629167	0,1	4,406651
1,630833	0,1	4,427209
1,632500	0,1	4,391685
1,634167	0,1	4,376203
1,635833	0,1	4,371663
1,637500	0,1	4,307831
1,639167	0,1	4,258643
1,640833	0,1	4,256168
1,642500	0,1	4,212839
1,644167	0,1	4,210645
1,645833	0,1	4,175574
1,647500	0,1	4,143016
1,649167	0,1	4,161029
1,650833	0,1	4,120305
1,652500	0,1	4,065847
1,654167	0,1	4,090090
1,655833	0,1	4,108258
1,657500	0,1	4,046904
1,659167	0,1	4,061419
1,660833	0,1	4,041394
1,662500	0,1	4,052181
1,664167	0,1	4,084826
1,665833	0,1	4,070451
1,667500	0,1	4,048552
1,669167	0,1	4,048694
1,670833	0,1	4,095214
1,672500	0,1	4,086609
1,674167	0,1	4,086836
1,675833	0,1	4,163964
1,677500	0,1	4,191400
1,679167	0,1	4,223719
1,680833	0,1	4,252272
1,682500	0,1	4,273376
1,684167	0,1	4,321819
1,685833	0,1	4,351518
1,687500	0,1	4,444655
1,689167	0,1	4,453185
1,690833	0,1	4,514410
1,692500	0,1	4,566902
1,694167	0,1	4,661500
1,695833	0,1	4,727148
1,697500	0,1	4,758510
1,699167	0,1	4,845318
1,700833	0,1	4,903950
1,702500	0,1	4,936675
1,704167	0,1	5,027990
1,705833	0,1	5,127218
1,707500	0,1	5,163627
1,709167	0,1	5,208465
1,710833	0,1	5,325067
1,712500	0,1	5,359488
1,714167	0,1	5,458634
1,715833	0,1	5,491488
1,717500	0,1	5,558686
1,719167	0,1	5,635851
1,720833	0,1	5,717643
1,722500	0,1	5,734416
1,724167	0,1	5,770180
1,725833	0,1	5,809785
1,727500	0,1	5,871310
1,729167	0,1	5,916814
1,730833	0,1	5,990538
1,732500	0,1	5,926037
1,734167	0,1	5,966526
1,735833	0,1	5,969804
1,737500	0,1	5,996531
1,739167	0,1	6,027741
1,740833	0,1	6,059140
1,742500	0,1	6,021218
1,744167	0,1	6,000674
1,745833	0,1	6,050866
1,747500	0,1	6,084728
1,749167	0,1	6,055458
1,750833	0,1	6,003726
1,752500	0,1	5,988799
1,754167	0,1	5,932541
1,755833	0,1	5,920820
1,757500	0,1	5,884957
1,759167	0,1	5,897498
1,760833	0,1	5,888520
1,762500	0,1	5,795187
1,764167	0,1	5,773593
1,765833	0,1	5,704070
1,767500	0,1	5,679457
1,769167	0,1	5,643073
1,770833	0,1	5,583332
1,772500	0,1	5,539298
1,774167	0,1	5,515747
1,775833	0,1	5,419862
1,777500	0,1	5,403940
1,779167	0,1	5,275667
1,780833	0,1	5,251097
1,782500	0,1	5,176473
1,784167	0,1	5,137700
1,785833	0,1	5,065289
1,787500	0,1	4,964491
1,789167	0,1	4,922765
1,790833	0,1	4,915463
1,792500	0,1	4,812517
1,794167	0,1	4,749085
1,795833	0,1	4,712345
1,797500	0,1	4,588177
1,799167	0,1	4,569634
1,800833	0,1	4,436728
1,802500	0,1	4,421664
1,804167	0,1	4,329954
1,805833	0,1	4,299760
1,807500	0,1	4,183457
1,809167	0,1	4,180145
1,810833	0,1	4,046624
1,812500	0,1	4,028597
1,814167	0,1	3,942315
1,815833	0,1	3,888511
1,817500	0,1	3,799200
1,819167	0,1	3,763296
1,820833	0,1	3,702273
1,822500	0,1	3,626788
1,824167	0,1	3,622008
1,825833	0,1	3,543058
1,827500	0,1	3,518224
1,829167	0,1	3,464818
1,830833	0,1	3,403621
1,832500	0,1	3,372218
1,834167	0,1	3,315372
1,835833	0,1	3,282842
1,837500	0,1	3,271218
1,839167	0,1	3,238949
1,840833	0,1	3,200748
1,842500	0,1	3,211197
1,844167	0,1	3,203687
1,845833	0,1	3,177018
1,847500	0,1	3,185429
1,849167	0,1	3,187638
1,850833	0,1	3,254443
1,852500	0,1	3,258452
1,854167	0,1	3,299637
1,855833	0,1	3,298564
1,857500	0,1	3,330773
1,859167	0,1	3,356989
1,860833	0,1	3,381960
1,862500	0,1	3,413158
1,864167	0,1	3,442957
1,865833	0,1	3,492302
1,867500	0,1	3,517748
1,869167	0,1	3,588108
1,870833	0,1	3,577875
1,872500	0,1	3,596842
1,874167	0,1	3,642549
1,875833	0,1	3,703821
1,877500	0,1	3,743674
1,879167	0,1	3,745596
1,880833	0,1	3,779279
1,882500	0,1	3,770148
1,884167	0,1	3,800024
1,885833	0,1	3,795688
1,887500	0,1	3,839926
1,889167	0,1	3,837014
1,890833	0,1	3,868056
1,892500	0,1	3,947171
1,894167	0,1	3,949734
1,895833	0,1	3,957504
1,897500	0,1	3,981588
1,899167	0,1	3,991592
1,900833	0,1	3,997295
1,902500	0,1	4,018666
1,904167	0,1	4,021261
1,905833	0,1	4,055255
1,907500	0,1	4,045060
1,909167	0,1	4,085143
1,910833	0,1	4,072120
1,912500	0,1	4,149352
1,914167	0,1	4,128121
1,915833	0,1	4,092154
1,917500	0,1	4,109925
1,919167	0,1	4,096773
1,920833	0,1	4,157859
1,922500	0,1	4,123942
1,924167	0,1	4,096411
1,925833	0,1	4,149315
1,927500	0,1	4,139495
1,929167	0,1	4,134798
1,930833	0,1	4,140416
1,932500	0,1	4,111552
1,934167	0,1	4,131430
1,935833	0,1	4,122889
1,937500	0,1	4,087380
1,939167	0,1	4,088587
1,940833	0,1	4,092722
1,942500	0,1	4,054592
1,944167	0,1	4,090133
1,945833	0,1	4,053817
1,947500	0,1	4,039993
1,949167	0,1	4,020527
1,950833	0,1	4,046756
1,952500	0,1	4,059238
1,954167	0,1	4,053527
1,955833	0,1	4,006252
1,957500	0,1	4,031302
1,959167	0,1	4,049508
1,960833	0,1	3,994389
1,962500	0,1	4,044807
1,964167	0,1	4,043571
1,965833	0,1	4,000342
1,967500	0,1	4,041729
1,969167	0,1	4,035322
1,970833	0,1	4,003260
1,972500	0,1	4,013864
1,974167	0,1	4,032475
1,975833	0,1	4,016585
1,977500	0,1	4,012433
1,979167	0,1	4,034132
1,980833	0,1	4,040819
1,982500	0,1	4,046081
1,984167	0,1	4,013180
1,985833	0,1	4,023111
1,987500	0,1	4,047122
1,989167	0,1	4,041184
1,990833	0,1	4,024584
1,992500	0,1	4,069674
1,994167	0,1	4,045961
1,995833	0,1	4,034867
1,997500	0,1	4,114731
1,999167	0,1	4,070014
2,000833	0,1	4,119884
2,002500	0,1	4,094503
2,004167	0,1	4,123973
2,005833	0,1	4,079890
2,007500	0,1	4,136844
2,009167	0,1	4,177710
2,010833	0,1	4,149911
2,012500	0,1	4,205206
2,014167	0,1	4,201041
2,015833	0,1	4,240846
2,017500	0,1	4,242112
2,019167	0,1	4,259565
2,020833	0,1	4,277554
2,022500	0,1	4,266009
2,024167	0,1	4,273258
2,025833	0,1	4,340044
2,027500	0,1	4,316935
2,029167	0,1	4,371324
2,030833	0,1	4,437975
2,032500	0,1	4,426972
2,034167	0,1	4,434706
2,035833	0,1	4,438112
2,037500	0,1	4,461166
2,039167	0,1	4,509099
2,040833	0,1	4,506639
2,042500	0,1	4,522729
2,044167	0,1	4,557499
2,045833	0,1	4,591502
2,047500	0,1	4,605701
2,049167	0,1	4,684966
2,050833	0,1	4,695819
2,052500	0,1	4,708995
2,054167	0,1	4,708159
2,055833	0,1	4,780997
2,057500	0,1	4,793553
2,059167	0,1	4,836160
2,060833	0,1	4,860390
2,062500	0,1	4,854924
2,064167	0,1	4,895783
2,065833	0,1	4,912348
2,067500	0,1	4,965763
2,069167	0,1	4,953130
2,070833	0,1	4,996045
2,072500	0,1	5,045730
2,074167	0,1	5,011812
2,075833	0,1	5,015311
2,077500	0,1	5,135655
2,079167	0,1	5,137912
2,080833	0,1	5,162388
2,082500	0,1	5,204175
2,084167	0,1	5,196732
2,085833	0,1	5,226176
2,087500	0,1	5,225759
2,089167	0,1	5,249505
2,090833	0,1	5,241098
2,092500	0,1	5,299233
2,094167	0,1	5,301813
2,095833	0,1	5,321358
2,097500	0,1	5,342659
2,099167	0,1	5,385954
2,100833	0,1	5,383906
2,102500	0,1	5,390402
2,104167	0,1	5,424073
2,105833	0,1	5,394480
2,107500	0,1	5,446041
2,109167	0,1	5,433610
2,110833	0,1	5,459536
2,112500	0,1	5,471543
2,114167	0,1	5,454739
2,115833	0,1	5,512930
2,117500	0,1	5,484526
2,119167	0,1	5,502971
2,120833	0,1	5,537009
2,122500	0,1	5,570050
2,124167	0,1	5,526495
2,125833	0,1	5,556464
2,127500	0,1	5,566397
2,129167	0,1	5,522571
2,130833	0,1	5,569224
2,132500	0,1	5,593713
2,134167	0,1	5,562351
2,135833	0,1	5,597134
2,137500	0,1	5,580462
2,139167	0,1	5,575024
2,140833	0,1	5,591332
2,142500	0,1	5,586593
2,144167	0,1	5,564232
2,145833	0,1	5,601317
2,147500	0,1	5,606546
2,149167	0,1	5,608867
2,150833	0,1	5,607395
2,152500	0,1	5,599267
2,154167	0,1	5,587245
2,155833	0,1	5,605938
2,157500	0,1	5,607674
2,159167	0,1	5,595890
2,160833	0,1	5,631397
2,162500	0,1	5,574255
2,164167	0,1	5,589880
2,165833	0,1	5,581847
2,167500	0,1	5,572638
2,169167	0,1	5,540251
2,170833	0,1	5,521742
2,172500	0,1	5,557723
2,174167	0,1	5,529397
2,175833	0,1	5,546308
2,177500	0,1	5,537975
2,179167	0,1	5,499524
2,180833	0,1	5,545848
2,182500	0,1	5,541264
2,184167	0,1	5,515731
2,185833	0,1	5,461934
2,187500	0,1	5,497706
2,189167	0,1	5,463080
2,190833	0,1	5,460216
2,192500	0,1	5,466174
2,194167	0,1	5,439254
2,195833	0,1	5,458690
2,197500	0,1	5,442478
2,199167	0,1	5,459046
2,200833	0,1	5,434167
2,202500	0,1	5,443145
2,204167	0,1	5,424821
2,205833	0,1	5,444442
2,207500	0,1	5,397535
2,209167	0,1	5,445428
2,210833	0,1	5,402476
2,212500	0,1	5,424409
2,214167	0,1	5,462805
2,215833	0,1	5,422253
2,217500	0,1	5,456871
2,219167	0,1	5,468183
2,220833	0,1	5,452028
2,222500	0,1	5,491990
2,224167	0,1	5,463986
2,225833	0,1	5,525350
2,227500	0,1	5,502747
2,229167	0,1	5,538700
2,230833	0,1	5,556254
2,232500	0,1	5,535307
2,234167	0,1	5,535585
2,235833	0,1	5,591865
2,237500	0,1	5,565924
2,239167	0,1	5,621250
2,240833	0,1	5,638226
2,242500	0,1	5,614811
2,244167	0,1	5,670162
2,245833	0,1	5,650371
2,247500	0,1	5,685967
2,249167	0,1	5,678825
2,250833	0,1	5,715575
2,252500	0,1	5,765965
2,254167	0,1	5,763921
2,255833	0,1	5,751179
2,257500	0,1	5,792068
2,259167	0,1	5,823872
2,260833	0,1	5,796318
2,262500	0,1	5,794466
2,264167	0,1	5,810459
2,265833	0,1	5,815277
2,267500	0,1	5,823469
2,269167	0,1	5,806809
2,270833	0,1	5,864455
2,272500	0,1	5,855732
2,274167	0,1	5,801633
2,275833	0,1	5,860795
2,277500	0,1	5,828840
2,279167	0,1	5,843068
2,280833	0,1	5,845005
2,282500	0,1	5,838978
2,284167	0,1	5,811403
2,285833	0,1	5,824827
2,287500	0,1	5,799112
2,289167	0,1	5,838792
2,290833	0,1	5,829590
2,292500	0,1	5,790807
2,294167	0,1	5,812972
2,295833	0,1	5,773838
2,297500	0,1	5,755558
2,299167	0,1	5,750720
2,300833	0,1	5,763333
2,302500	0,1	5,700817
2,304167	0,1	5,685027
2,305833	0,1	5,697133
2,307500	0,1	5,670355
2,309167	0,1	5,645561
2,310833	0,1	5,659141
2,312500	0,1	5,637672
2,314167	0,1	5,612447
2,315833	0,1	5,584279
2,317500	0,1	5,585268
2,319167	0,1	5,564735
2,320833	0,1	5,544884
2,322500	0,1	5,510730
2,324167	0,1	5,481254
2,325833	0,1	5,499119
2,327500	0,1	5,433613
2,329167	0,1	5,407354
2,330833	0,1	5,391108
2,332500	0,1	5,359052
2,334167	0,1	5,364010
2,335833	0,1	5,299092
2,337500	0,1	5,303537
2,339167	0,1	5,247745
2,340833	0,1	5,238667
2,342500	0,1	5,195412
2,344167	0,1	5,176318
2,345833	0,1	5,174226
2,347500	0,1	5,112465
2,349167	0,1	5,059296
2,350833	0,1	5,067951
2,352500	0,1	5,060134
2,354167	0,1	4,998981
2,355833	0,1	4,998182
2,357500	0,1	5,008366
2,359167	0,1	4,968017
2,360833	0,1	4,928137
2,362500	0,1	4,914816
2,364167	0,1	4,880974
2,365833	0,1	4,854031
2,367500	0,1	4,799175
2,369167	0,1	4,773649
2,370833	0,1	4,778865
2,372500	0,1	4,753816
2,374167	0,1	4,740874
2,375833	0,1	4,742036
2,377500	0,1	4,692875
2,379167	0,1	4,708676
2,380833	0,1	4,685283
2,382500	0,1	4,680820
2,384167	0,1	4,641060
2,385833	0,1	4,607284
2,387500	0,1	4,608089
2,389167	0,1	4,560965
2,390833	0,1	4,567437
2,392500	0,1	4,589111
2,394167	0,1	4,543127
2,395833	0,1	4,560904
2,397500	0,1	4,506901
2,399167	0,1	4,554814
2,400833	0,1	4,528408
2,402500	0,1	4,491371
2,404167	0,1	4,498816
2,405833	0,1	4,509353
2,407500	0,1	4,486258
2,409167	0,1	4,511575
2,410833	0,1	4,464021
2,412500	0,1	4,514816
2,414167	0,1	4,459441
2,415833	0,1	4,524985
2,417500	0,1	4,508951
2,419167	0,1	4,498661
2,420833	0,1	4,521869
2,422500	0,1	4,496677
2,424167	0,1	4,557451
2,425833	0,1	4,560422
2,427500	0,1	4,638382
2,429167	0,1	4,588889
2,430833	0,1	4,574085
2,432500	0,1	4,598600
2,434167	0,1	4,620489
2,435833	0,1	4,665113
2,437500	0,1	4,656171
2,439167	0,1	4,656982
2,440833	0,1	4,713042
2,442500	0,1	4,702713
2,444167	0,1	4,704739
2,445833	0,1	4,717523
2,447500	0,1	4,759441
2,449167	0,1	4,727997
2,450833	0,1	4,743297
2,452500	0,1	4,821709
2,454167	0,1	4,783647
2,455833	0,1	4,841329
2,457500	0,1	4,824609
2,459167	0,1	4,823690
2,460833	0,1	4,861803
2,462500	0,1	4,867485
2,464167	0,1	4,852164
2,465833	0,1	4,904916
2,467500	0,1	4,858329
2,469167	0,1	4,912055
2,470833	0,1	4,884200
2,472500	0,1	4,898552
2,474167	0,1	4,913962
2,475833	0,1	4,904649
2,477500	0,1	4,905278
2,479167	0,1	4,923913
2,480833	0,1	4,917846
2,482500	0,1	4,908259
2,484167	0,1	4,934266
2,485833	0,1	4,943787
2,487500	0,1	4,965489
2,489167	0,1	4,938572
2,490833	0,1	4,963842
2,492500	0,1	4,920086
2,494167	0,1	4,930657
2,495833	0,1	4,975953
2,497500	0,1	4,958127
2,499167	0,1	5,003364
2,500833	0,1	4,977519
2,502500	0,1	4,970060
2,504167	0,1	5,045242
2,505833	0,1	5,015655
2,507500	0,1	5,009920
2,509167	0,1	5,053751
2,510833	0,1	5,009439
2,512500	0,1	5,087613
2,514167	0,1	5,128390
2,515833	0,1	5,112563
2,517500	0,1	5,144287
2,519167	0,1	5,155924
2,520833	0,1	5,158186
2,522500	0,1	5,178821
2,524167	0,1	5,192942
2,525833	0,1	5,267086
2,527500	0,1	5,271680
2,529167	0,1	5,321095
2,530833	0,1	5,323705
2,532500	0,1	5,392678
2,534167	0,1	5,409157
2,535833	0,1	5,456845
2,537500	0,1	5,516790
2,539167	0,1	5,530145
2,540833	0,1	5,590346
2,542500	0,1	5,644958
2,544167	0,1	5,687112
2,545833	0,1	5,690546
2,547500	0,1	5,734820
2,549167	0,1	5,754335
2,550833	0,1	5,799853
2,552500	0,1	5,810335
2,554167	0,1	5,896761
2,555833	0,1	5,944139
2,557500	0,1	5,973544
2,559167	0,1	6,020282
2,560833	0,1	6,049153
2,562500	0,1	6,099988
2,564167	0,1	6,128779
2,565833	0,1	6,151295
2,567500	0,1	6,203748
2,569167	0,1	6,229232
2,570833	0,1	6,254724
2,572500	0,1	6,259440
2,574167	0,1	6,301036
2,575833	0,1	6,330992
2,577500	0,1	6,344953
2,579167	0,1	6,366788
2,580833	0,1	6,381499
2,582500	0,1	6,426721
2,584167	0,1	6,448040
2,585833	0,1	6,396755
2,587500	0,1	6,401129
2,589167	0,1	6,421057
2,590833	0,1	6,465974
2,592500	0,1	6,444393
2,594167	0,1	6,450359
2,595833	0,1	6,447955
2,597500	0,1	6,457534
2,599167	0,1	6,450444
2,600833	0,1	6,412031
2,602500	0,1	6,438449
2,604167	0,1	6,406639
2,605833	0,1	6,438549
2,607500	0,1	6,361075
2,609167	0,1	6,341884
2,610833	0,1	6,343249
2,612500	0,1	6,352194
2,614167	0,1	6,281340
2,615833	0,1	6,245408
2,617500	0,1	6,242897
2,619167	0,1	6,216492
2,620833	0,1	6,209989
2,622500	0,1	6,128421
2,624167	0,1	6,142629
2,625833	0,1	6,103337
2,627500	0,1	6,042981
2,629167	0,1	6,043352
2,630833	0,1	6,025238
2,632500	0,1	5,979065
2,634167	0,1	5,924505
2,635833	0,1	5,888753
2,637500	0,1	5,823012
2,639167	0,1	5,793280
2,640833	0,1	5,745266
2,642500	0,1	5,701959
2,644167	0,1	5,705395
2,645833	0,1	5,619570
2,647500	0,1	5,562640
2,649167	0,1	5,536091
2,650833	0,1	5,461424
2,652500	0,1	5,400788
2,654167	0,1	5,370268
2,655833	0,1	5,333688
2,657500	0,1	5,308146
2,659167	0,1	5,215108
2,660833	0,1	5,170563
2,662500	0,1	5,142100
2,664167	0,1	5,053774
2,665833	0,1	5,036175
2,667500	0,1	4,958570
2,669167	0,1	4,923759
2,670833	0,1	4,862559
2,672500	0,1	4,832815
2,674167	0,1	4,808673
2,675833	0,1	4,758305
2,677500	0,1	4,672783
2,679167	0,1	4,604788
2,680833	0,1	4,567723
2,682500	0,1	4,511359
2,684167	0,1	4,510688
2,685833	0,1	4,433796
2,687500	0,1	4,349520
2,689167	0,1	4,329656
2,690833	0,1	4,278981
2,692500	0,1	4,254918
2,694167	0,1	4,163764
2,695833	0,1	4,130059
2,697500	0,1	4,128479
2,699167	0,1	4,023674
2,700833	0,1	4,010822
2,702500	0,1	3,975946
2,704167	0,1	3,961065
2,705833	0,1	3,908585
2,707500	0,1	3,838532
2,709167	0,1	3,804778
2,710833	0,1	3,753120
2,712500	0,1	3,728802
2,714167	0,1	3,686215
2,715833	0,1	3,632191
2,717500	0,1	3,630187
2,719167	0,1	3,560705
2,720833	0,1	3,526843
2,722500	0,1	3,517448
2,724167	0,1	3,513719
2,725833	0,1	3,443530
2,727500	0,1	3,413173
2,729167	0,1	3,375377
2,730833	0,1	3,332771
2,732500	0,1	3,297639
2,734167	0,1	3,302156
2,735833	0,1	3,252362
2,737500	0,1	3,205125
2,739167	0,1	3,207739
2,740833	0,1	3,160423
2,742500	0,1	3,149594
2,744167	0,1	3,137413
2,745833	0,1	3,078983
2,747500	0,1	3,078323
2,749167	0,1	3,022438
2,750833	0,1	3,062426
2,752500	0,1	3,021807
2,754167	0,1	2,961881
2,755833	0,1	2,960486
2,757500	0,1	2,937170
2,759167	0,1	2,860526
2,760833	0,1	2,860159
2,762500	0,1	2,842931
2,764167	0,1	2,809917
2,765833	0,1	2,824330
2,767500	0,1	2,785577
2,769167	0,1	2,762838
2,770833	0,1	2,749550
2,772500	0,1	2,722798
2,774167	0,1	2,730097
2,775833	0,1	2,726660
2,777500	0,1	2,709790
2,779167	0,1	2,669892
2,780833	0,1	2,619488
2,782500	0,1	2,623429
2,784167	0,1	2,622918
2,785833	0,1	2,616451
2,787500	0,1	2,580608
2,789167	0,1	2,633223
2,790833	0,1	2,589064
2,792500	0,1	2,538425
2,794167	0,1	2,526730
2,795833	0,1	2,552109
2,797500	0,1	2,461553
2,799167	0,1	2,499962
2,800833	0,1	2,480040
2,802500	0,1	2,464266
2,804167	0,1	2,461525
2,805833	0,1	2,452641
2,807500	0,1	2,450631
2,809167	0,1	2,450064
2,810833	0,1	2,398588
2,812500	0,1	2,403808
2,814167	0,1	2,382088
2,815833	0,1	2,366099
2,817500	0,1	2,360718
2,819167	0,1	2,330757
2,820833	0,1	2,326524
2,822500	0,1	2,312474
2,824167	0,1	2,341356
2,825833	0,1	2,286534
2,827500	0,1	2,327730
2,829167	0,1	2,268042
2,830833	0,1	2,265233
2,832500	0,1	2,277056
2,834167	0,1	2,254844
2,835833	0,1	2,268454
2,837500	0,1	2,215646
2,839167	0,1	2,211045
2,840833	0,1	2,198004
2,842500	0,1	2,193633
2,844167	0,1	2,192485
2,845833	0,1	2,168413
2,847500	0,1	2,186533
2,849167	0,1	2,157308
2,850833	0,1	2,106718
2,852500	0,1	2,108718
2,854167	0,1	2,143103
2,855833	0,1	2,137233
2,857500	0,1	2,085155
2,859167	0,1	2,144031
2,860833	0,1	2,080927
2,862500	0,1	2,058852
2,864167	0,1	2,060563
2,865833	0,1	2,051759
2,867500	0,1	2,018304
2,869167	0,1	2,054748
2,870833	0,1	2,020957
2,872500	0,1	2,013503
2,874167	0,1	2,011208
2,875833	0,1	1,966296
2,877500	0,1	1,991649
2,879167	0,1	1,989073
2,880833	0,1	2,013922
2,882500	0,1	1,985141
2,884167	0,1	1,983622
2,885833	0,1	1,950177
2,887500	0,1	2,000951
2,889167	0,1	1,960498
2,890833	0,1	1,943739
2,892500	0,1	1,941290
2,894167	0,1	1,936786
2,895833	0,1	1,921178
2,897500	0,1	1,888860
2,899167	0,1	1,904263
2,900833	0,1	1,891099
2,902500	0,1	1,897029
2,904167	0,1	1,864811
2,905833	0,1	1,939569
2,907500	0,1	1,863688
2,909167	0,1	1,884630
2,910833	0,1	1,820757
2,912500	0,1	1,861431
2,914167	0,1	1,850704
2,915833	0,1	1,822491
2,917500	0,1	1,820195
2,919167	0,1	1,826488
2,920833	0,1	1,786606
2,922500	0,1	1,835588
2,924167	0,1	1,789343
2,925833	0,1	1,787102
2,927500	0,1	1,749815
2,929167	0,1	1,744077
2,930833	0,1	1,757844
2,932500	0,1	1,786964
2,934167	0,1	1,782253
2,935833	0,1	1,765286
2,937500	0,1	1,736453
2,939167	0,1	1,711728
2,940833	0,1	1,714725
2,942500	0,1	1,739788
2,944167	0,1	1,759319
2,945833	0,1	1,740305
2,947500	0,1	1,735285
2,949167	0,1	1,712302
2,950833	0,1	1,684163
2,952500	0,1	1,719743
2,954167	0,1	1,728207
2,955833	0,1	1,654297
2,957500	0,1	1,693547
2,959167	0,1	1,656983
2,960833	0,1	1,689578
2,962500	0,1	1,692991
2,964167	0,1	1,675292
2,965833	0,1	1,691262
2,967500	0,1	1,686665
2,969167	0,1	1,649022
2,970833	0,1	1,646516
2,972500	0,1	1,612234
2,974167	0,1	1,633765
2,975833	0,1	1,614163
2,977500	0,1	1,641218
2,979167	0,1	1,648942
2,980833	0,1	1,642652
2,982500	0,1	1,674153
2,984167	0,1	1,678288
2,985833	0,1	1,609240
2,987500	0,1	1,592399
2,989167	0,1	1,601122
2,990833	0,1	1,602919
2,992500	0,1	1,622622
2,994167	0,1	1,617587
2,995833	0,1	1,624257
2,997500	0,1	1,585537
2,999167	0,1	1,596833
3,000833	0,1	1,592602
3,002500	0,1	1,606575
3,004167	0,1	1,617883
3,005833	0,1	1,615147
3,007500	0,1	1,587741
3,009167	0,1	1,555992
3,010833	0,1	1,583508
3,012500	0,1	1,598228
3,014167	0,1	1,565351
3,015833	0,1	1,586236
3,017500	0,1	1,592132
3,019167	0,1	1,571295
3,020833	0,1	1,595184
3,022500	0,1	1,578393
3,024167	0,1	1,579033
3,025833	0,1	1,567017
3,027500	0,1	1,564205
3,029167	0,1	1,540010
3,030833	0,1	1,543171
3,032500	0,1	1,539156
3,034167	0,1	1,563993
3,035833	0,1	1,536202
3,037500	0,1	1,585722
3,039167	0,1	1,586268
3,040833	0,1	1,546538
3,042500	0,1	1,556912
3,044167	0,1	1,580328
3,045833	0,1	1,521985
3,047500	0,1	1,540809
3,049167	0,1	1,548951
3,050833	0,1	1,542445
3,052500	0,1	1,545965
3,054167	0,1	1,553680
3,055833	0,1	1,569587
3,057500	0,1	1,533777
3,059167	0,1	1,548715
3,060833	0,1	1,544187
3,062500	0,1	1,532005
3,064167	0,1	1,590557
3,065833	0,1	1,552910
3,067500	0,1	1,519858
3,069167	0,1	1,548989
3,070833	0,1	1,536529
3,072500	0,1	1,546555
3,074167	0,1	1,568366
3,075833	0,1	1,526860
3,077500	0,1	1,541591
3,079167	0,1	1,587107
3,080833	0,1	1,552430
3,082500	0,1	1,528788
3,084167	0,1	1,532798
3,085833	0,1	1,517786
3,087500	0,1	1,557276
3,089167	0,1	1,506135
3,090833	0,1	1,529284
3,092500	0,1	1,565690
3,094167	0,1	1,563645
3,095833	0,1	1,550054
3,097500	0,1	1,554792
3,099167	0,1	1,558339
3,100833	0,1	1,565354
3,102500	0,1	1,535587
3,104167	0,1	1,548047
3,105833	0,1	1,542734
3,107500	0,1	1,586463
3,109167	0,1	1,538607
3,110833	0,1	1,600328
3,112500	0,1	1,580258
3,114167	0,1	1,583869
3,115833	0,1	1,610794
3,117500	0,1	1,598482
3,119167	0,1	1,603631
3,120833	0,1	1,638791
3,122500	0,1	1,682742
3,124167	0,1	1,640304
3,125833	0,1	1,713659
3,127500	0,1	1,672018
3,129167	0,1	1,708918
3,130833	0,1	1,713723
3,132500	0,1	1,703568
3,134167	0,1	1,754960
3,135833	0,1	1,744298
3,137500	0,1	1,761848
3,139167	0,1	1,769721
3,140833	0,1	1,750466
3,142500	0,1	1,769857
3,144167	0,1	1,797981
3,145833	0,1	1,826145
3,147500	0,1	1,847902
3,149167	0,1	1,861880
3,150833	0,1	1,851122
3,152500	0,1	1,894667
3,154167	0,1	1,888170
3,155833	0,1	1,898828
3,157500	0,1	1,933783
3,159167	0,1	1,955830
3,160833	0,1	1,919235
3,162500	0,1	1,921664
3,164167	0,1	1,988130
3,165833	0,1	1,962436
3,167500	0,1	1,993589
3,169167	0,1	1,977331
3,170833	0,1	1,981972
3,172500	0,1	2,012637
3,174167	0,1	2,014216
3,175833	0,1	2,035568
3,177500	0,1	2,057634
3,179167	0,1	2,045886
3,180833	0,1	2,025185
3,182500	0,1	2,052969
3,184167	0,1	2,070740
3,185833	0,1	2,046896
3,187500	0,1	2,104618
3,189167	0,1	2,030494
3,190833	0,1	2,067726
3,192500	0,1	2,035786
3,194167	0,1	2,060274
3,195833	0,1	2,107923
3,197500	0,1	2,051555
3,199167	0,1	2,070514
3,200833	0,1	2,064360
3,202500	0,1	2,068450
3,204167	0,1	2,106279
3,205833	0,1	2,042883
3,207500	0,1	2,043955
3,209167	0,1	2,072675
3,210833	0,1	2,071895
3,212500	0,1	2,067021
3,214167	0,1	2,062866
3,215833	0,1	2,059786
3,217500	0,1	2,025330
3,219167	0,1	2,063786
3,220833	0,1	2,017314
3,222500	0,1	2,037647
3,224167	0,1	2,022172
3,225833	0,1	1,977190
3,227500	0,1	2,015074
3,229167	0,1	2,011853
3,230833	0,1	1,936080
3,232500	0,1	1,995791
3,234167	0,1	1,935861
3,235833	0,1	1,956623
3,237500	0,1	1,916299
3,239167	0,1	1,938355
3,240833	0,1	1,914586
3,242500	0,1	1,907500
3,244167	0,1	1,916590
3,245833	0,1	1,901482
3,247500	0,1	1,858159
3,249167	0,1	1,899745
3,250833	0,1	1,862381
3,252500	0,1	1,881284
3,254167	0,1	1,838188
3,255833	0,1	1,827503
3,257500	0,1	1,838672
3,259167	0,1	1,791207
3,260833	0,1	1,763849
3,262500	0,1	1,792775
3,264167	0,1	1,771661
3,265833	0,1	1,722975
3,267500	0,1	1,721179
3,269167	0,1	1,701855
3,270833	0,1	1,732552
3,272500	0,1	1,713810
3,274167	0,1	1,701843
3,275833	0,1	1,687049
3,277500	0,1	1,702375
3,279167	0,1	1,660629
3,280833	0,1	1,640505
3,282500	0,1	1,622892
3,284167	0,1	1,590429
3,285833	0,1	1,590490
3,287500	0,1	1,575528
3,289167	0,1	1,588486
3,290833	0,1	1,563993
3,292500	0,1	1,557576
3,294167	0,1	1,548339
3,295833	0,1	1,551982
3,297500	0,1	1,526365
3,299167	0,1	1,515495
3,300833	0,1	1,459637
3,302500	0,1	1,495303
3,304167	0,1	1,444640
3,305833	0,1	1,450082
3,307500	0,1	1,478985
3,309167	0,1	1,459171
3,310833	0,1	1,454237
3,312500	0,1	1,407735
3,314167	0,1	1,410452
3,315833	0,1	1,423173
3,317500	0,1	1,426345
3,319167	0,1	1,390639
3,320833	0,1	1,360022
3,322500	0,1	1,380273
3,324167	0,1	1,358176
3,325833	0,1	1,318269
3,327500	0,1	1,304132
3,329167	0,1	1,301419
3,330833	0,1	1,349942
3,332500	0,1	1,292661
3,334167	0,1	1,291138
3,335833	0,1	1,321182
3,337500	0,1	1,277978
3,339167	0,1	1,315895
3,340833	0,1	1,267777
3,342500	0,1	1,275200
3,344167	0,1	1,237927
3,345833	0,1	1,218615
3,347500	0,1	1,192808
3,349167	0,1	1,255387
3,350833	0,1	1,214934
3,352500	0,1	1,215147
3,354167	0,1	1,200018
3,355833	0,1	1,202697
3,357500	0,1	1,208045
3,359167	0,1	1,140742
3,360833	0,1	1,203660
3,362500	0,1	1,180294
3,364167	0,1	1,127670
3,365833	0,1	1,176659
3,367500	0,1	1,158724
3,369167	0,1	1,143880
3,370833	0,1	1,152904
3,372500	0,1	1,126932
3,374167	0,1	1,166386
3,375833	0,1	1,139133
3,377500	0,1	1,127925
3,379167	0,1	1,132604
3,380833	0,1	1,132826
3,382500	0,1	1,124309
3,384167	0,1	1,113260
3,385833	0,1	1,102812
3,387500	0,1	1,092473
3,389167	0,1	1,110459
3,390833	0,1	1,107691
3,392500	0,1	1,094581
3,394167	0,1	1,082691
3,395833	0,1	1,082575
3,397500	0,1	1,053657
3,399167	0,1	1,079642
3,400833	0,1	1,075656
3,402500	0,1	1,088320
3,404167	0,1	1,079120
3,405833	0,1	1,062282
3,407500	0,1	1,054847
3,409167	0,1	1,060990
3,410833	0,1	1,092554
3,412500	0,1	1,105691
3,414167	0,1	1,041153
3,415833	0,1	1,037701
3,417500	0,1	1,013616
3,419167	0,1	1,024098
3,420833	0,1	1,060362
3,422500	0,1	1,037548
3,424167	0,1	1,061472
3,425833	0,1	1,037482
3,427500	0,1	1,026834
3,429167	0,1	1,050674
3,430833	0,1	1,008517
3,432500	0,1	1,018532
3,434167	0,1	1,018360
3,435833	0,1	0,980253
3,437500	0,1	0,999834
3,439167	0,1	1,014497
3,440833	0,1	1,020552
3,442500	0,1	1,018667
3,444167	0,1	1,049427
3,445833	0,1	0,988605
3,447500	0,1	1,005204
3,449167	0,1	1,025029
3,450833	0,1	1,024215
3,452500	0,1	1,030425
3,454167	0,1	1,005742
3,455833	0,1	1,011613
3,457500	0,1	0,981944
3,459167	0,1	1,004978
3,460833	0,1	1,017532
3,462500	0,1	0,955698
3,464167	0,1	1,024818
3,465833	0,1	1,006515
3,467500	0,1	1,008951
3,469167	0,1	0,997466
3,470833	0,1	1,016336
3,472500	0,1	1,006381
3,474167	0,1	1,018383
3,475833	0,1	1,024437
3,477500	0,1	0,992441
3,479167	0,1	1,030994
3,480833	0,1	1,019181
3,482500	0,1	1,052180
3,484167	0,1	1,042030
3,485833	0,1	0,998645
3,487500	0,1	1,019773
3,489167	0,1	1,042617
3,490833	0,1	1,008604
3,492500	0,1	1,003897
3,494167	0,1	1,054395
3,495833	0,1	1,033599
3,497500	0,1	1,058327
3,499167	0,1	0,992415
3,500833	0,1	1,023960
3,502500	0,1	1,016053
3,504167	0,1	1,010791
3,505833	0,1	1,033083
3,507500	0,1	1,027697
3,509167	0,1	1,053865
3,510833	0,1	1,035066
3,512500	0,1	1,050875
3,514167	0,1	1,046443
3,515833	0,1	1,061653
3,517500	0,1	1,067956
3,519167	0,1	1,049218
3,520833	0,1	1,055446
3,522500	0,1	1,058531
3,524167	0,1	1,070462
3,525833	0,1	1,088274
3,527500	0,1	1,049024
3,529167	0,1	1,077559
3,530833	0,1	1,045270
3,532500	0,1	1,034263
3,534167	0,1	1,041515
3,535833	0,1	1,055085
3,537500	0,1	1,078847
3,539167	0,1	1,052297
3,540833	0,1	1,091796
3,542500	0,1	1,068565
3,544167	0,1	1,079645
3,545833	0,1	1,088920
3,547500	0,1	1,069227
3,549167	0,1	1,071066
3,550833	0,1	1,098453
3,552500	0,1	1,049380
3,554167	0,1	1,130211
3,555833	0,1	1,072254
3,557500	0,1	1,072306
3,559167	0,1	1,073480
3,560833	0,1	1,081976
3,562500	0,1	1,088609
3,564167	0,1	1,099191
3,565833	0,1	1,107710
3,567500	0,1	1,057232
3,569167	0,1	1,065383
3,570833	0,1	1,068512
3,572500	0,1	1,055139
3,574167	0,1	1,071063
3,575833	0,1	1,056647
3,577500	0,1	1,089469
3,579167	0,1	1,091694
3,580833	0,1	1,047004
3,582500	0,1	1,073940
3,584167	0,1	1,063013
3,585833	0,1	1,066251
3,587500	0,1	1,096679
3,589167	0,1	1,055631
3,590833	0,1	1,050501
3,592500	0,1	1,094012
3,594167	0,1	1,039643
3,595833	0,1	1,094898
3,597500	0,1	1,071312
3,599167	0,1	1,049153
3,600833	0,1	1,055601
3,602500	0,1	1,042008
3,604167	0,1	1,040315
3,605833	0,1	1,064158
3,607500	0,1	1,058287
3,609167	0,1	1,045512
3,610833	0,1	1,071944
3,612500	0,1	1,037775
3,614167	0,1	1,013748
3,615833	0,1	1,065549
3,617500	0,1	1,037171
3,619167	0,1	1,015703
3,620833	0,1	1,026564
3,622500	0,1	1,066355
3,624167	0,1	1,040303
3,625833	0,1	1,017409
3,627500	0,1	1,025609
3,629167	0,1	0,997892
3,630833	0,1	1,031194
3,632500	0,1	0,994833
3,634167	0,1	0,994890
3,635833	0,1	1,005519
3,637500	0,1	1,010369
3,639167	0,1	0,962231
3,640833	0,1	0,994018
3,642500	0,1	1,033681
3,644167	0,1	0,999912
3,645833	0,1	0,970037
3,647500	0,1	0,968008
3,649167	0,1	1,023584
3,650833	0,1	1,020959
3,652500	0,1	1,016276
3,654167	0,1	0,991525
3,655833	0,1	0,979143
3,657500	0,1	0,985515
3,659167	0,1	0,978393
3,660833	0,1	0,968653
3,662500	0,1	0,975305
3,664167	0,1	0,989032
3,665833	0,1	0,967881
3,667500	0,1	0,967574
3,669167	0,1	1,000763
3,670833	0,1	0,964908
3,672500	0,1	0,912711
3,674167	0,1	0,946094
3,675833	0,1	0,975037
3,677500	0,1	0,972891
3,679167	0,1	0,949808
3,680833	0,1	0,910688
3,682500	0,1	0,931568
3,684167	0,1	0,949469
3,685833	0,1	0,925594
3,687500	0,1	0,993482
3,689167	0,1	0,986425
3,690833	0,1	0,926049
3,692500	0,1	0,954677
3,694167	0,1	0,928323
3,695833	0,1	0,923370
3,697500	0,1	0,920416
3,699167	0,1	0,970817
3,700833	0,1	0,929114
3,702500	0,1	0,926757
3,704167	0,1	0,941044
3,705833	0,1	0,914989
3,707500	0,1	0,911282
3,709167	0,1	0,964031
3,710833	0,1	0,907017
3,712500	0,1	0,910637
3,714167	0,1	0,929992
3,715833	0,1	0,896629
3,717500	0,1	0,933178
3,719167	0,1	0,859251
3,720833	0,1	0,876878
3,722500	0,1	0,929275
3,724167	0,1	0,929537
3,725833	0,1	0,927203
3,727500	0,1	0,949022
3,729167	0,1	0,932548
3,730833	0,1	0,933751
3,732500	0,1	0,941754
3,734167	0,1	0,926235
3,735833	0,1	0,930154
3,737500	0,1	0,946741
3,739167	0,1	0,950444
3,740833	0,1	0,944869
3,742500	0,1	0,957137
3,744167	0,1	0,903932
3,745833	0,1	0,889460
3,747500	0,1	0,959812
3,749167	0,1	0,969540
3,750833	0,1	0,956566
3,752500	0,1	0,971956
3,754167	0,1	0,978704
3,755833	0,1	0,951161
3,757500	0,1	0,944122
3,759167	0,1	0,945811
3,760833	0,1	0,968029
3,762500	0,1	0,991563
3,764167	0,1	1,000324
3,765833	0,1	1,008841
3,767500	0,1	1,000707
3,769167	0,1	0,979525
3,770833	0,1	1,007906
3,772500	0,1	1,023436
3,774167	0,1	1,020267
3,775833	0,1	1,041379
3,777500	0,1	1,076735
3,779167	0,1	1,062149
3,780833	0,1	1,056556
3,782500	0,1	1,042339
3,784167	0,1	1,134536
3,785833	0,1	1,059301
3,787500	0,1	1,063233
3,789167	0,1	1,091334
3,790833	0,1	1,098703
3,792500	0,1	1,115960
3,794167	0,1	1,130272
3,795833	0,1	1,138792
3,797500	0,1	1,123688
3,799167	0,1	1,160641
3,800833	0,1	1,181967
3,802500	0,1	1,165492
3,804167	0,1	1,153065
3,805833	0,1	1,171605
3,807500	0,1	1,193973
3,809167	0,1	1,200077
3,810833	0,1	1,217603
3,812500	0,1	1,234074
3,814167	0,1	1,211358
3,815833	0,1	1,262643
3,817500	0,1	1,271087
3,819167	0,1	1,274201
3,820833	0,1	1,282096
3,822500	0,1	1,278467
3,824167	0,1	1,349042
3,825833	0,1	1,307105
3,827500	0,1	1,325758
3,829167	0,1	1,311490
3,830833	0,1	1,336173
3,832500	0,1	1,382149
3,834167	0,1	1,336668
3,835833	0,1	1,364804
3,837500	0,1	1,396451
3,839167	0,1	1,361649
3,840833	0,1	1,366673
3,842500	0,1	1,423501
3,844167	0,1	1,406881
3,845833	0,1	1,396189
3,847500	0,1	1,435365
3,849167	0,1	1,406240
3,850833	0,1	1,446804
3,852500	0,1	1,442883
3,854167	0,1	1,490026
3,855833	0,1	1,466627
3,857500	0,1	1,469689
3,859167	0,1	1,481868
3,860833	0,1	1,499512
3,862500	0,1	1,463327
3,864167	0,1	1,469975
3,865833	0,1	1,492782
3,867500	0,1	1,486161
3,869167	0,1	1,499172
3,870833	0,1	1,526873
3,872500	0,1	1,463317
3,874167	0,1	1,528509
3,875833	0,1	1,520867
3,877500	0,1	1,535810
3,879167	0,1	1,534101
3,880833	0,1	1,543608
3,882500	0,1	1,543776
3,884167	0,1	1,541132
3,885833	0,1	1,562706
3,887500	0,1	1,523640
3,889167	0,1	1,525578
3,890833	0,1	1,546552
3,892500	0,1	1,577586
3,894167	0,1	1,552481
3,895833	0,1	1,496408
3,897500	0,1	1,537037
3,899167	0,1	1,542828
3,900833	0,1	1,531240
3,902500	0,1	1,553334
3,904167	0,1	1,503171
3,905833	0,1	1,527368
3,907500	0,1	1,540771
3,909167	0,1	1,512130
3,910833	0,1	1,525165
3,912500	0,1	1,504550
3,914167	0,1	1,499888
3,915833	0,1	1,462412
3,917500	0,1	1,486798
3,919167	0,1	1,517788
3,920833	0,1	1,486045
3,922500	0,1	1,505828
3,924167	0,1	1,481573
3,925833	0,1	1,442587
3,927500	0,1	1,456587
3,929167	0,1	1,456319
3,930833	0,1	1,435923
3,932500	0,1	1,432056
3,934167	0,1	1,441507
3,935833	0,1	1,454723
3,937500	0,1	1,439038
3,939167	0,1	1,432497
3,940833	0,1	1,455618
3,942500	0,1	1,385716
3,944167	0,1	1,378570
3,945833	0,1	1,443443
3,947500	0,1	1,360170
3,949167	0,1	1,353849
3,950833	0,1	1,414674
3,952500	0,1	1,344582
3,954167	0,1	1,362470
3,955833	0,1	1,364151
3,957500	0,1	1,346790
3,959167	0,1	1,319284
3,960833	0,1	1,303678
3,962500	0,1	1,269109
3,964167	0,1	1,296368
3,965833	0,1	1,279135
3,967500	0,1	1,290781
3,969167	0,1	1,302692
3,970833	0,1	1,276071
3,972500	0,1	1,235885
3,974167	0,1	1,251403
3,975833	0,1	1,220772
3,977500	0,1	1,247788
3,979167	0,1	1,287065
3,980833	0,1	1,255169
3,982500	0,1	1,211609
3,984167	0,1	1,208913
3,985833	0,1	1,201017
3,987500	0,1	1,216450
3,989167	0,1	1,169071
3,990833	0,1	1,145546
3,992500	0,1	1,155944
3,994167	0,1	1,149070
3,995833	0,1	1,138132
3,997500	0,1	1,136354
3,999167	0,1	1,162174
4,000833	0,1	1,127511
4,002500	0,1	1,141564
4,004167	0,1	1,116127
4,005833	0,1	1,112905
4,007500	0,1	1,058630
4,009167	0,1	1,098740
4,010833	0,1	1,100812
4,012500	0,1	1,085663
4,014167	0,1	1,036311
4,015833	0,1	1,071942
4,017500	0,1	1,068668
4,019167	0,1	1,053408
4,020833	0,1	1,095810
4,022500	0,1	1,063885
4,024167	0,1	1,075653
4,025833	0,1	1,099787
4,027500	0,1	1,064283
4,029167	0,1	1,034179
4,030833	0,1	1,056729
4,032500	0,1	1,040499
4,034167	0,1	0,994852
4,035833	0,1	1,000588
4,037500	0,1	0,985997
4,039167	0,1	0,979521
4,040833	0,1	0,990625
4,042500	0,1	1,014182
4,044167	0,1	0,986404
4,045833	0,1	0,996636
4,047500	0,1	0,981297
4,049167	0,1	1,005928
4,050833	0,1	1,001432
4,052500	0,1	0,991967
4,054167	0,1	0,997396
4,055833	0,1	0,979236
4,057500	0,1	0,967409
4,059167	0,1	1,017325
4,060833	0,1	1,024256
4,062500	0,1	0,969110
4,064167	0,1	1,010318
4,065833	0,1	1,004095
4,067500	0,1	1,022456
4,069167	0,1	1,032641
4,070833	0,1	1,015834
4,072500	0,1	1,003479
4,074167	0,1	0,998282
4,075833	0,1	1,013813
4,077500	0,1	0,950278
4,079167	0,1	0,982061
4,080833	0,1	0,999455
4,082500	0,1	0,990851
4,084167	0,1	1,015114
4,085833	0,1	0,992521
4,087500	0,1	0,975377
4,089167	0,1	1,041923
4,090833	0,1	1,021598
4,092500	0,1	1,032773
4,094167	0,1	1,029718
4,095833	0,1	1,062624
4,097500	0,1	1,028522
4,099167	0,1	1,064332
4,100833	0,1	1,038192
4,102500	0,1	1,022662
4,104167	0,1	1,028759
4,105833	0,1	1,087089
4,107500	0,1	1,033986
4,109167	0,1	1,064002
4,110833	0,1	1,067178
4,112500	0,1	1,096456
4,114167	0,1	1,084665
4,115833	0,1	1,093775
4,117500	0,1	1,086437
4,119167	0,1	1,101386
4,120833	0,1	1,060443
4,122500	0,1	1,078266
4,124167	0,1	1,123408
4,125833	0,1	1,077351
4,127500	0,1	1,122855
4,129167	0,1	1,148552
4,130833	0,1	1,118545
4,132500	0,1	1,087351
4,134167	0,1	1,139071
4,135833	0,1	1,168319
4,137500	0,1	1,119259
4,139167	0,1	1,119181
4,140833	0,1	1,134752
4,142500	0,1	1,133560
4,144167	0,1	1,134846
4,145833	0,1	1,159001
4,147500	0,1	1,128109
4,149167	0,1	1,208693
4,150833	0,1	1,162125
4,152500	0,1	1,195057
4,154167	0,1	1,174255
4,155833	0,1	1,181173
4,157500	0,1	1,169639
4,159167	0,1	1,204177
4,160833	0,1	1,170288
4,162500	0,1	1,195103
4,164167	0,1	1,186545
4,165833	0,1	1,205668
4,167500	0,1	1,215056
4,169167	0,1	1,195579
4,170833	0,1	1,243029
4,172500	0,1	1,208606
4,174167	0,1	1,222424
4,175833	0,1	1,215369
4,177500	0,1	1,223464
4,179167	0,1	1,243813
4,180833	0,1	1,203752
4,182500	0,1	1,198904
4,184167	0,1	1,207910
4,185833	0,1	1,221357
4,187500	0,1	1,206852
4,189167	0,1	1,219159
4,190833	0,1	1,214174
4,192500	0,1	1,195690
4,194167	0,1	1,223064
4,195833	0,1	1,194406
4,197500	0,1	1,197992
4,199167	0,1	1,177519
4,200833	0,1	1,213985
4,202500	0,1	1,244079
4,204167	0,1	1,183788
4,205833	0,1	1,224099
4,207500	0,1	1,226463
4,209167	0,1	1,200620
4,210833	0,1	1,206866
4,212500	0,1	1,192605
4,214167	0,1	1,184548
4,215833	0,1	1,191227
4,217500	0,1	1,205778
4,219167	0,1	1,180094
4,220833	0,1	1,166512
4,222500	0,1	1,169591
4,224167	0,1	1,142661
4,225833	0,1	1,176862
4,227500	0,1	1,136053
4,229167	0,1	1,176284
4,230833	0,1	1,145548
4,232500	0,1	1,150907
4,234167	0,1	1,170765
4,235833	0,1	1,122965
4,237500	0,1	1,122664
4,239167	0,1	1,124795
4,240833	0,1	1,099242
4,242500	0,1	1,083956
4,244167	0,1	1,148653
4,245833	0,1	1,135626
4,247500	0,1	1,108827
4,249167	0,1	1,106338
4,250833	0,1	1,067547
4,252500	0,1	1,102577
4,254167	0,1	1,108487
4,255833	0,1	1,089590
4,257500	0,1	1,046692
4,259167	0,1	1,067017
4,260833	0,1	1,090115
4,262500	0,1	1,029129
4,264167	0,1	1,068238
4,265833	0,1	1,071193
4,267500	0,1	0,989741
4,269167	0,1	1,028973
4,270833	0,1	1,024259
4,272500	0,1	1,037451
4,274167	0,1	1,034574
4,275833	0,1	0,987934
4,277500	0,1	0,992672
4,279167	0,1	1,023960
4,280833	0,1	0,994033
4,282500	0,1	0,985771
4,284167	0,1	0,967055
4,285833	0,1	0,944939
4,287500	0,1	0,946140
4,289167	0,1	1,001781
4,290833	0,1	0,946980
4,292500	0,1	0,933059
4,294167	0,1	0,941795
4,295833	0,1	0,919936
4,297500	0,1	0,906311
4,299167	0,1	0,918261
4,300833	0,1	0,876213
4,302500	0,1	0,915773
4,304167	0,1	0,882428
4,305833	0,1	0,940273
4,307500	0,1	0,925657
4,309167	0,1	0,884703
4,310833	0,1	0,859425
4,312500	0,1	0,886223
4,314167	0,1	0,901185
4,315833	0,1	0,853000
4,317500	0,1	0,881733
4,319167	0,1	0,860158
4,320833	0,1	0,855496
4,322500	0,1	0,841575
4,324167	0,1	0,849194
4,325833	0,1	0,861661
4,327500	0,1	0,817606
4,329167	0,1	0,884546
4,330833	0,1	0,867688
4,332500	0,1	0,848333
4,334167	0,1	0,819336
4,335833	0,1	0,781601
4,337500	0,1	0,835325
4,339167	0,1	0,787932
4,340833	0,1	0,789466
4,342500	0,1	0,789214
4,344167	0,1	0,785320
4,345833	0,1	0,796088
4,347500	0,1	0,757230
4,349167	0,1	0,778402
4,350833	0,1	0,796217
4,352500	0,1	0,768381
4,354167	0,1	0,786443
4,355833	0,1	0,790526
4,357500	0,1	0,767614
4,359167	0,1	0,759605
4,360833	0,1	0,757994
4,362500	0,1	0,748872
4,364167	0,1	0,763163
4,365833	0,1	0,744757
4,367500	0,1	0,758509
4,369167	0,1	0,732004
4,370833	0,1	0,723642
4,372500	0,1	0,707444
4,374167	0,1	0,689479
4,375833	0,1	0,715661
4,377500	0,1	0,746386
4,379167	0,1	0,724895
4,380833	0,1	0,723545
4,382500	0,1	0,723187
4,384167	0,1	0,682640
4,385833	0,1	0,740174
4,387500	0,1	0,698610
4,389167	0,1	0,713898
4,390833	0,1	0,691922
4,392500	0,1	0,698182
4,394167	0,1	0,728003
4,395833	0,1	0,669018
4,397500	0,1	0,661965
4,399167	0,1	0,691170
4,400833	0,1	0,679933
4,402500	0,1	0,682113
4,404167	0,1	0,672669
4,405833	0,1	0,667813
4,407500	0,1	0,650014
4,409167	0,1	0,660611
4,410833	0,1	0,650397
4,412500	0,1	0,649079
4,414167	0,1	0,641334
4,415833	0,1	0,661606
4,417500	0,1	0,658686
4,419167	0,1	0,663024
4,420833	0,1	0,632568
4,422500	0,1	0,644543
4,424167	0,1	0,619744
4,425833	0,1	0,663786
4,427500	0,1	0,642816
4,429167	0,1	0,641237
4,430833	0,1	0,652868
4,432500	0,1	0,649495
4,434167	0,1	0,634492
4,435833	0,1	0,623982
4,437500	0,1	0,623692
4,439167	0,1	0,608593
4,440833	0,1	0,634385
4,442500	0,1	0,621446
4,444167	0,1	0,605026
4,445833	0,1	0,614821
4,447500	0,1	0,633263
4,449167	0,1	0,612772
4,450833	0,1	0,624170
4,452500	0,1	0,604289
4,454167	0,1	0,610002
4,455833	0,1	0,595804
4,457500	0,1	0,586807
4,459167	0,1	0,594193
4,460833	0,1	0,570197
4,462500	0,1	0,608902
4,464167	0,1	0,584561
4,465833	0,1	0,594094
4,467500	0,1	0,598178
4,469167	0,1	0,566602
4,470833	0,1	0,594091
4,472500	0,1	0,579740
4,474167	0,1	0,579318
4,475833	0,1	0,561008
4,477500	0,1	0,543626
4,479167	0,1	0,545134
4,480833	0,1	0,579117
4,482500	0,1	0,572699
4,484167	0,1	0,569392
4,485833	0,1	0,560845
4,487500	0,1	0,524706
4,489167	0,1	0,545321
4,490833	0,1	0,542210
4,492500	0,1	0,544104
4,494167	0,1	0,552133
4,495833	0,1	0,523100
4,497500	0,1	0,544419
4,499167	0,1	0,542919
4,500833	0,1	0,550883
4,502500	0,1	0,541022
4,504167	0,1	0,537009
4,505833	0,1	0,533633
4,507500	0,1	0,554029
4,509167	0,1	0,551141
4,510833	0,1	0,506881
4,512500	0,1	0,510596
4,514167	0,1	0,506037
4,515833	0,1	0,519270
4,517500	0,1	0,475624
4,519167	0,1	0,486532
4,520833	0,1	0,494597
4,522500	0,1	0,513259
4,524167	0,1	0,470350
4,525833	0,1	0,523723
4,527500	0,1	0,520719
4,529167	0,1	0,445049
4,530833	0,1	0,491536
4,532500	0,1	0,515956
4,534167	0,1	0,482491
4,535833	0,1	0,515538
4,537500	0,1	0,510598
4,539167	0,1	0,483844
4,540833	0,1	0,487021
4,542500	0,1	0,467938
4,544167	0,1	0,492826
4,545833	0,1	0,479056
4,547500	0,1	0,486921
4,549167	0,1	0,451309
4,550833	0,1	0,492498
4,552500	0,1	0,472760
4,554167	0,1	0,471822
4,555833	0,1	0,495050
4,557500	0,1	0,461297
4,559167	0,1	0,466935
4,560833	0,1	0,459329
4,562500	0,1	0,440990
4,564167	0,1	0,476735
4,565833	0,1	0,443607
4,567500	0,1	0,440571
4,569167	0,1	0,416491
4,570833	0,1	0,435688
4,572500	0,1	0,435331
4,574167	0,1	0,446222
4,575833	0,1	0,432548
4,577500	0,1	0,409489
4,579167	0,1	0,433921
4,580833	0,1	0,420504
4,582500	0,1	0,440439
4,584167	0,1	0,441609
4,585833	0,1	0,460578
4,587500	0,1	0,441225
4,589167	0,1	0,397378
4,590833	0,1	0,452409
4,592500	0,1	0,409548
4,594167	0,1	0,419758
4,595833	0,1	0,370150
4,597500	0,1	0,428288
4,599167	0,1	0,423743
4,600833	0,1	0,429683
4,602500	0,1	0,399112
4,604167	0,1	0,413461
4,605833	0,1	0,405631
4,607500	0,1	0,436391
4,609167	0,1	0,377533
4,610833	0,1	0,409954
4,612500	0,1	0,394992
4,614167	0,1	0,402416
4,615833	0,1	0,341062
4,617500	0,1	0,368141
4,619167	0,1	0,342880
4,620833	0,1	0,389332
4,622500	0,1	0,402124
4,624167	0,1	0,400390
4,625833	0,1	0,361561
4,627500	0,1	0,432047
4,629167	0,1	0,401618
4,630833	0,1	0,398916
4,632500	0,1	0,360677
4,634167	0,1	0,338924
4,635833	0,1	0,377773
4,637500	0,1	0,370077
4,639167	0,1	0,362243
4,640833	0,1	0,343230
4,642500	0,1	0,350541
4,644167	0,1	0,392194
4,645833	0,1	0,339991
4,647500	0,1	0,380632
4,649167	0,1	0,358483
4,650833	0,1	0,335878
4,652500	0,1	0,336326
4,654167	0,1	0,367487
4,655833	0,1	0,349263
4,657500	0,1	0,336392
4,659167	0,1	0,329878
4,660833	0,1	0,350250
4,662500	0,1	0,363133
4,664167	0,1	0,321072
4,665833	0,1	0,338953
4,667500	0,1	0,334814
4,669167	0,1	0,333115
4,670833	0,1	0,325662
4,672500	0,1	0,359085
4,674167	0,1	0,307439
4,675833	0,1	0,366660
4,677500	0,1	0,328086
4,679167	0,1	0,311926
4,680833	0,1	0,323956
4,682500	0,1	0,309380
4,684167	0,1	0,303234
4,685833	0,1	0,306846
4,687500	0,1	0,292974
4,689167	0,1	0,306642
4,690833	0,1	0,309703
4,692500	0,1	0,326460
4,694167	0,1	0,302318
4,695833	0,1	0,318943
4,697500	0,1	0,312275
4,699167	0,1	0,300074
4,700833	0,1	0,279652
4,702500	0,1	0,326201
4,704167	0,1	0,294590
4,705833	0,1	0,342347
4,707500	0,1	0,328848
4,709167	0,1	0,285931
4,710833	0,1	0,304311
4,712500	0,1	0,314399
4,714167	0,1	0,281770
4,715833	0,1	0,296178
4,717500	0,1	0,263148
4,719167	0,1	0,297292
4,720833	0,1	0,321460
4,722500	0,1	0,319440
4,724167	0,1	0,304382
4,725833	0,1	0,284336
4,727500	0,1	0,314609
4,729167	0,1	0,311783
4,730833	0,1	0,300881
4,732500	0,1	0,274103
4,734167	0,1	0,307557
4,735833	0,1	0,283672
4,737500	0,1	0,290500
4,739167	0,1	0,285177
4,740833	0,1	0,293031
4,742500	0,1	0,303319
4,744167	0,1	0,252424
4,745833	0,1	0,296889
4,747500	0,1	0,272818
4,749167	0,1	0,283475
4,750833	0,1	0,286711
4,752500	0,1	0,288777
4,754167	0,1	0,285154
4,755833	0,1	0,280431
4,757500	0,1	0,313738
4,759167	0,1	0,293178
4,760833	0,1	0,296306
4,762500	0,1	0,234980
4,764167	0,1	0,284507
4,765833	0,1	0,264532
4,767500	0,1	0,232968
4,769167	0,1	0,229917
4,770833	0,1	0,285767
4,772500	0,1	0,304462
4,774167	0,1	0,259752
4,775833	0,1	0,254872
4,777500	0,1	0,292559
4,779167	0,1	0,250182
4,780833	0,1	0,225182
4,782500	0,1	0,261120
4,784167	0,1	0,264173
4,785833	0,1	0,223096
4,787500	0,1	0,271531
4,789167	0,1	0,258297
4,790833	0,1	0,240858
4,792500	0,1	0,231594
4,794167	0,1	0,253769
4,795833	0,1	0,256429
4,797500	0,1	0,250277
4,799167	0,1	0,254002
4,800833	0,1	0,284526
4,802500	0,1	0,268196
4,804167	0,1	0,242043
4,805833	0,1	0,267732
4,807500	0,1	0,268026
4,809167	0,1	0,228413
4,810833	0,1	0,249587
4,812500	0,1	0,252740
4,814167	0,1	0,248663
4,815833	0,1	0,263490
4,817500	0,1	0,300314
4,819167	0,1	0,272693
4,820833	0,1	0,259431
4,822500	0,1	0,233007
4,824167	0,1	0,253794
4,825833	0,1	0,233999
4,827500	0,1	0,207533
4,829167	0,1	0,274181
4,830833	0,1	0,251690
4,832500	0,1	0,214474
4,834167	0,1	0,230929
4,835833	0,1	0,230159
4,837500	0,1	0,275721
4,839167	0,1	0,242741
4,840833	0,1	0,255963
4,842500	0,1	0,256217
4,844167	0,1	0,247997
4,845833	0,1	0,250024
4,847500	0,1	0,252630
4,849167	0,1	0,240622
4,850833	0,1	0,221862
4,852500	0,1	0,196886
4,854167	0,1	0,216865
4,855833	0,1	0,244653
4,857500	0,1	0,283491
4,859167	0,1	0,236536
4,860833	0,1	0,232235
4,862500	0,1	0,219088
4,864167	0,1	0,211836
4,865833	0,1	0,251033
4,867500	0,1	0,255371
4,869167	0,1	0,213316
4,870833	0,1	0,230429
4,872500	0,1	0,252359
4,874167	0,1	0,184760
4,875833	0,1	0,267843
4,877500	0,1	0,287677
4,879167	0,1	0,231480
4,880833	0,1	0,246645
4,882500	0,1	0,260937
4,884167	0,1	0,250488
4,885833	0,1	0,230209
4,887500	0,1	0,258490
4,889167	0,1	0,258003
4,890833	0,1	0,221515
4,892500	0,1	0,227221
4,894167	0,1	0,230432
4,895833	0,1	0,239708
4,897500	0,1	0,251431
4,899167	0,1	0,230313
4,900833	0,1	0,242942
4,902500	0,1	0,259120
4,904167	0,1	0,253299
4,905833	0,1	0,206522
4,907500	0,1	0,231757
4,909167	0,1	0,244453
4,910833	0,1	0,214802
4,912500	0,1	0,234319
4,914167	0,1	0,196208
4,915833	0,1	0,237611
4,917500	0,1	0,217017
4,919167	0,1	0,284440
4,920833	0,1	0,272022
4,922500	0,1	0,244212
4,924167	0,1	0,203146
4,925833	0,1	0,242435
4,927500	0,1	0,233583
4,929167	0,1	0,269365
4,930833	0,1	0,250859
4,932500	0,1	0,258455
4,934167	0,1	0,282539
4,935833	0,1	0,272172
4,937500	0,1	0,215474
4,939167	0,1	0,244261
4,940833	0,1	0,246773
4,942500	0,1	0,200288
4,944167	0,1	0,269522
4,945833	0,1	0,249246
4,947500	0,1	0,245553
4,949167	0,1	0,239258
4,950833	0,1	0,225259
4,952500	0,1	0,249602
4,954167	0,1	0,258001
4,955833	0,1	0,269599
4,957500	0,1	0,250505
4,959167	0,1	0,274442
4,960833	0,1	0,220985
4,962500	0,1	0,264351
4,964167	0,1	0,273843
4,965833	0,1	0,232078
4,967500	0,1	0,228717
4,969167	0,1	0,246894
4,970833	0,1	0,257108
4,972500	0,1	0,244333
4,974167	0,1	0,236777
4,975833	0,1	0,283529
4,977500	0,1	0,249892
4,979167	0,1	0,247338
4,980833	0,1	0,249780
4,982500	0,1	0,258392
4,984167	0,1	0,254605
4,985833	0,1	0,251310
4,987500	0,1	0,272907
4,989167	0,1	0,291242
4,990833	0,1	0,252070
4,992500	0,1	0,260695
4,994167	0,1	0,268832
4,995833	0,1	0,272232
4,997500	0,1	0,245129
4,999167	0,1	0,245035
5,000833	0,1	0,267920
5,002500	0,1	0,281836
5,004167	0,1	0,236552
5,005833	0,1	0,299000
5,007500	0,1	0,288164
5,009167	0,1	0,262293
5,010833	0,1	0,249408
5,012500	0,1	0,241701
5,014167	0,1	0,260983
5,015833	0,1	0,280827
5,017500	0,1	0,255894
5,019167	0,1	0,294282
5,020833	0,1	0,279942
5,022500	0,1	0,315538
5,024167	0,1	0,289740
5,025833	0,1	0,318499
5,027500	0,1	0,299182
5,029167	0,1	0,302828
5,030833	0,1	0,293175
5,032500	0,1	0,279488
5,034167	0,1	0,319453
5,035833	0,1	0,297117
5,037500	0,1	0,284688
5,039167	0,1	0,287267
5,040833	0,1	0,263123
5,042500	0,1	0,302279
5,044167	0,1	0,306581
5,045833	0,1	0,287798
5,047500	0,1	0,285139
5,049167	0,1	0,297211
5,050833	0,1	0,297754
5,052500	0,1	0,319875
5,054167	0,1	0,294800
5,055833	0,1	0,296558
5,057500	0,1	0,291661
5,059167	0,1	0,345340
5,060833	0,1	0,305093
5,062500	0,1	0,343381
5,064167	0,1	0,303381
5,065833	0,1	0,340270
5,067500	0,1	0,324617
5,069167	0,1	0,364674
5,070833	0,1	0,324838
5,072500	0,1	0,333944
5,074167	0,1	0,366466
5,075833	0,1	0,316592
5,077500	0,1	0,383259
5,079167	0,1	0,345125
5,080833	0,1	0,328521
5,082500	0,1	0,366050
5,084167	0,1	0,307503
5,085833	0,1	0,322130
5,087500	0,1	0,375365
5,089167	0,1	0,335165
5,090833	0,1	0,335771
5,092500	0,1	0,345114
5,094167	0,1	0,390291
5,095833	0,1	0,385266
5,097500	0,1	0,360284
5,099167	0,1	0,384399
5,100833	0,1	0,353611
5,102500	0,1	0,366092
5,104167	0,1	0,313722
5,105833	0,1	0,345208
5,107500	0,1	0,314812
5,109167	0,1	0,353619
5,110833	0,1	0,397041
5,112500	0,1	0,358323
5,114167	0,1	0,372100
5,115833	0,1	0,369370
5,117500	0,1	0,338827
5,119167	0,1	0,358572
5,120833	0,1	0,353478
5,122500	0,1	0,361270
5,124167	0,1	0,360732
5,125833	0,1	0,366093
5,127500	0,1	0,383144
5,129167	0,1	0,369446
5,130833	0,1	0,338926
5,132500	0,1	0,343225
5,134167	0,1	0,378381
5,135833	0,1	0,368567
5,137500	0,1	0,343913
5,139167	0,1	0,323612
5,140833	0,1	0,387528
5,142500	0,1	0,374963
5,144167	0,1	0,385335
5,145833	0,1	0,348990
5,147500	0,1	0,351223
5,149167	0,1	0,329128
5,150833	0,1	0,347075
5,152500	0,1	0,396461
5,154167	0,1	0,349182
5,155833	0,1	0,348529
5,157500	0,1	0,332702
5,159167	0,1	0,382367
5,160833	0,1	0,337621
5,162500	0,1	0,385326
5,164167	0,1	0,368632
5,165833	0,1	0,350775
5,167500	0,1	0,343707
5,169167	0,1	0,351837
5,170833	0,1	0,350456
5,172500	0,1	0,343416
5,174167	0,1	0,298156
5,175833	0,1	0,340520
5,177500	0,1	0,346852
5,179167	0,1	0,382207
5,180833	0,1	0,318509
5,182500	0,1	0,334999
5,184167	0,1	0,352150
5,185833	0,1	0,315909
5,187500	0,1	0,338598
5,189167	0,1	0,317895
5,190833	0,1	0,332784
5,192500	0,1	0,335128
5,194167	0,1	0,329326
5,195833	0,1	0,334233
5,197500	0,1	0,329527
5,199167	0,1	0,316834
5,200833	0,1	0,318784
5,202500	0,1	0,338563
5,204167	0,1	0,308867
5,205833	0,1	0,334519
5,207500	0,1	0,339788
5,209167	0,1	0,304601
5,210833	0,1	0,291915
5,212500	0,1	0,299265
5,214167	0,1	0,313491
5,215833	0,1	0,296474
5,217500	0,1	0,317393
5,219167	0,1	0,330681
5,220833	0,1	0,284279
5,222500	0,1	0,305657
5,224167	0,1	0,299582
5,225833	0,1	0,292016
5,227500	0,1	0,287771
5,229167	0,1	0,283815
5,230833	0,1	0,311171
5,232500	0,1	0,303122
5,234167	0,1	0,311830
5,235833	0,1	0,299683
5,237500	0,1	0,258529
5,239167	0,1	0,298489
5,240833	0,1	0,268033
5,242500	0,1	0,287842
5,244167	0,1	0,280996
5,245833	0,1	0,310604
5,247500	0,1	0,262713
5,249167	0,1	0,263531
5,250833	0,1	0,277732
5,252500	0,1	0,321958
5,254167	0,1	0,267021
5,255833	0,1	0,283245
5,257500	0,1	0,265189
5,259167	0,1	0,266240
5,260833	0,1	0,288507
5,262500	0,1	0,237179
5,264167	0,1	0,247538
5,265833	0,1	0,266737
5,267500	0,1	0,255477
5,269167	0,1	0,234908
5,270833	0,1	0,213227
5,272500	0,1	0,217778
5,274167	0,1	0,210201
5,275833	0,1	0,224009
5,277500	0,1	0,260187
5,279167	0,1	0,219236
5,280833	0,1	0,250142
5,282500	0,1	0,242798
5,284167	0,1	0,243212
5,285833	0,1	0,216790
5,287500	0,1	0,239063
5,289167	0,1	0,192085
5,290833	0,1	0,245126
5,292500	0,1	0,193518
5,294167	0,1	0,218477
5,295833	0,1	0,205770
5,297500	0,1	0,255046
5,299167	0,1	0,191634
5,300833	0,1	0,233092
5,302500	0,1	0,250083
5,304167	0,1	0,201160
5,305833	0,1	0,257425
5,307500	0,1	0,210353
5,309167	0,1	0,230945
5,310833	0,1	0,212147
5,312500	0,1	0,201519
5,314167	0,1	0,181125
5,315833	0,1	0,209238
5,317500	0,1	0,196657
5,319167	0,1	0,228208
5,320833	0,1	0,171130
5,322500	0,1	0,187536
5,324167	0,1	0,176132
5,325833	0,1	0,213359
5,327500	0,1	0,186780
5,329167	0,1	0,192010
5,330833	0,1	0,167625
5,332500	0,1	0,141137
5,334167	0,1	0,170756
5,335833	0,1	0,180663
5,337500	0,1	0,157972
5,339167	0,1	0,175047
5,340833	0,1	0,222404
5,342500	0,1	0,202642
5,344167	0,1	0,216821
5,345833	0,1	0,143218
5,347500	0,1	0,121816
5,349167	0,1	0,160256
5,350833	0,1	0,178855
5,352500	0,1	0,156232
5,354167	0,1	0,149891
5,355833	0,1	0,151464
5,357500	0,1	0,146081
5,359167	0,1	0,178108
5,360833	0,1	0,141885
5,362500	0,1	0,131006
5,364167	0,1	0,154564
5,365833	0,1	0,156371
5,367500	0,1	0,183141
5,369167	0,1	0,140126
5,370833	0,1	0,134939
5,372500	0,1	0,140343
5,374167	0,1	0,150613
5,375833	0,1	0,135625
5,377500	0,1	0,176947
5,379167	0,1	0,146480
5,380833	0,1	0,158978
5,382500	0,1	0,134572
5,384167	0,1	0,120779
5,385833	0,1	0,170712
5,387500	0,1	0,154966
5,389167	0,1	0,147074
5,390833	0,1	0,152704
5,392500	0,1	0,126828
5,394167	0,1	0,098169
5,395833	0,1	0,116628
5,397500	0,1	0,140918
5,399167	0,1	0,122166
5,400833	0,1	0,131270
5,402500	0,1	0,114878
5,404167	0,1	0,184644
5,405833	0,1	0,084230
5,407500	0,1	0,151572
5,409167	0,1	0,140802
5,410833	0,1	0,131566
5,412500	0,1	0,112559
5,414167	0,1	0,154000
5,415833	0,1	0,127656
5,417500	0,1	0,131439
5,419167	0,1	0,104278
5,420833	0,1	0,108618
5,422500	0,1	0,137334
5,424167	0,1	0,122351
5,425833	0,1	0,092951
5,427500	0,1	0,094705
5,429167	0,1	0,111536
5,430833	0,1	0,121021
5,432500	0,1	0,136137
5,434167	0,1	0,118605
5,435833	0,1	0,126882
5,437500	0,1	0,108292
5,439167	0,1	0,118971
5,440833	0,1	0,133899
5,442500	0,1	0,138748
5,444167	0,1	0,085896
5,445833	0,1	0,112672
5,447500	0,1	0,128288
5,449167	0,1	0,105601
5,450833	0,1	0,114001
5,452500	0,1	0,118082
5,454167	0,1	0,104483
5,455833	0,1	0,072974
5,457500	0,1	0,150264
5,459167	0,1	0,122004
5,460833	0,1	0,101626
5,462500	0,1	0,101621
5,464167	0,1	0,080279
5,465833	0,1	0,117514
5,467500	0,1	0,101934
5,469167	0,1	0,133544
5,470833	0,1	0,126284
5,472500	0,1	0,091731
5,474167	0,1	0,070960
5,475833	0,1	0,089854
5,477500	0,1	0,050302
5,479167	0,1	0,133820
5,480833	0,1	0,146532
5,482500	0,1	0,070270
5,484167	0,1	0,091531
5,485833	0,1	0,096484
5,487500	0,1	0,058004
5,489167	0,1	0,083021
5,490833	0,1	0,095220
5,492500	0,1	0,104310
5,494167	0,1	0,095328
5,495833	0,1	0,126027
5,497500	0,1	0,073182
5,499167	0,1	0,072819
5,500833	0,1	0,059570
5,502500	0,1	0,065054
5,504167	0,1	0,041992
5,505833	0,1	0,056084
5,507500	0,1	0,090783
5,509167	0,1	0,087230
5,510833	0,1	0,062450
5,512500	0,1	0,078654
5,514167	0,1	0,089961
5,515833	0,1	0,091080
5,517500	0,1	0,075741
5,519167	0,1	0,094100
5,520833	0,1	0,072515
5,522500	0,1	0,071992
5,524167	0,1	0,043343
5,525833	0,1	0,082708
5,527500	0,1	0,124514
5,529167	0,1	0,052919
5,530833	0,1	0,049237
5,532500	0,1	0,073664
5,534167	0,1	0,051434
5,535833	0,1	0,073497
5,537500	0,1	0,082012
5,539167	0,1	0,119399
5,540833	0,1	0,061945
5,542500	0,1	0,078986
5,544167	0,1	0,079362
5,545833	0,1	0,078885
5,547500	0,1	0,057129
5,549167	0,1	0,091943
5,550833	0,1	0,016542
5,552500	0,1	0,083614
5,554167	0,1	0,090790
5,555833	0,1	0,086361
5,557500	0,1	0,080917
5,559167	0,1	0,118282
5,560833	0,1	0,051548
5,562500	0,1	0,029987
5,564167	0,1	0,056187
5,565833	0,1	0,094343
5,567500	0,1	0,086880
5,569167	0,1	0,051153
5,570833	0,1	0,085710
5,572500	0,1	0,060919
5,574167	0,1	0,044644
5,575833	0,1	0,071220
5,577500	0,1	0,055017
5,579167	0,1	0,087079
5,580833	0,1	0,086422
5,582500	0,1	0,040570
5,584167	0,1	0,070139
5,585833	0,1	0,091761
5,587500	0,1	0,024839
5,589167	0,1	0,066679
5,590833	0,1	0,086543
5,592500	0,1	0,080585
5,594167	0,1	0,087209
5,595833	0,1	0,041237
5,597500	0,1	0,092457
5,599167	0,1	0,084831
5,600833	0,1	0,071433
5,602500	0,1	0,069072
5,604167	0,1	0,050771
5,605833	0,1	0,095501
5,607500	0,1	0,069139
5,609167	0,1	0,061556
5,610833	0,1	0,047359
5,612500	0,1	0,099208
5,614167	0,1	0,096074
5,615833	0,1	0,051007
5,617500	0,1	0,053687
5,619167	0,1	0,031686
5,620833	0,1	0,072147
5,622500	0,1	0,094576
5,624167	0,1	0,062187
5,625833	0,1	0,078074
5,627500	0,1	0,055618
5,629167	0,1	0,067599
5,630833	0,1	0,070955
5,632500	0,1	0,084826
5,634167	0,1	0,066405
5,635833	0,1	0,118858
5,637500	0,1	0,090945
5,639167	0,1	0,054733
5,640833	0,1	0,055901
5,642500	0,1	0,077557
5,644167	0,1	0,093564
5,645833	0,1	0,119774
5,647500	0,1	0,072292
5,649167	0,1	0,094740
5,650833	0,1	0,058707
5,652500	0,1	0,088258
5,654167	0,1	0,059286
5,655833	0,1	0,083248
5,657500	0,1	0,080231
5,659167	0,1	0,090024
5,660833	0,1	0,056263
5,662500	0,1	0,115895
5,664167	0,1	0,086576
5,665833	0,1	0,063757
5,667500	0,1	0,070892
5,669167	0,1	0,061124
5,670833	0,1	0,076172
5,672500	0,1	0,091948
5,674167	0,1	0,115200
5,675833	0,1	0,120194
5,677500	0,1	0,092414
5,679167	0,1	0,098016
5,680833	0,1	0,051629
5,682500	0,1	0,084468
5,684167	0,1	0,087623
5,685833	0,1	0,060672
5,687500	0,1	0,066276
5,689167	0,1	0,083271
5,690833	0,1	0,091867
5,692500	0,1	0,073071
5,694167	0,1	0,050175
5,695833	0,1	0,053625
5,697500	0,1	0,104362
5,699167	0,1	0,120067
5,700833	0,1	0,100798
5,702500	0,1	0,135076
5,704167	0,1	0,071427
5,705833	0,1	0,093624
5,707500	0,1	0,096547
5,709167	0,1	0,093568
5,710833	0,1	0,085924
5,712500	0,1	0,097249
5,714167	0,1	0,100584
5,715833	0,1	0,119651
5,717500	0,1	0,101665
5,719167	0,1	0,081563
5,720833	0,1	0,078597
5,722500	0,1	0,076898
5,724167	0,1	0,091700
5,725833	0,1	0,087377
5,727500	0,1	0,109401
5,729167	0,1	0,118599
5,730833	0,1	0,124272
5,732500	0,1	0,086140
5,734167	0,1	0,102984
5,735833	0,1	0,139423
5,737500	0,1	0,105210
5,739167	0,1	0,123463
5,740833	0,1	0,161704
5,742500	0,1	0,114615
5,744167	0,1	0,115392
5,745833	0,1	0,114397
5,747500	0,1	0,136610
5,749167	0,1	0,103037
5,750833	0,1	0,106631
5,752500	0,1	0,114974
5,754167	0,1	0,108974
5,755833	0,1	0,130005
5,757500	0,1	0,088647
5,759167	0,1	0,121202
5,760833	0,1	0,129097
5,762500	0,1	0,143155
5,764167	0,1	0,144442
5,765833	0,1	0,116868
5,767500	0,1	0,110568
5,769167	0,1	0,126651
5,770833	0,1	0,131541
5,772500	0,1	0,155497
5,774167	0,1	0,134032
5,775833	0,1	0,139721
5,777500	0,1	0,132911
5,779167	0,1	0,127422
5,780833	0,1	0,175393
5,782500	0,1	0,096628
5,784167	0,1	0,150416
5,785833	0,1	0,149476
5,787500	0,1	0,108071
5,789167	0,1	0,121247
5,790833	0,1	0,122514
5,792500	0,1	0,147606
5,794167	0,1	0,112315
5,795833	0,1	0,116923
5,797500	0,1	0,128184
5,799167	0,1	0,116945
5,800833	0,1	0,092515
5,802500	0,1	0,106173
5,804167	0,1	0,105658
5,805833	0,1	0,165779
5,807500	0,1	0,125173
5,809167	0,1	0,131333
5,810833	0,1	0,157275
5,812500	0,1	0,147448
5,814167	0,1	0,143244
5,815833	0,1	0,141524
5,817500	0,1	0,098691
5,819167	0,1	0,143852
5,820833	0,1	0,114962
5,822500	0,1	0,090797
5,824167	0,1	0,137225
5,825833	0,1	0,143530
5,827500	0,1	0,150385
5,829167	0,1	0,126745
5,830833	0,1	0,153508
5,832500	0,1	0,080890
5,834167	0,1	0,118716
5,835833	0,1	0,091046
5,837500	0,1	0,097498
5,839167	0,1	0,142423
5,840833	0,1	0,118046
5,842500	0,1	0,104563
5,844167	0,1	0,099302
5,845833	0,1	0,143812
5,847500	0,1	0,121878
5,849167	0,1	0,107007
5,850833	0,1	0,124787
5,852500	0,1	0,146985
5,854167	0,1	0,131152
5,855833	0,1	0,111068
5,857500	0,1	0,158577
5,859167	0,1	0,099895
5,860833	0,1	0,140643
5,862500	0,1	0,110097
5,864167	0,1	0,123216
5,865833	0,1	0,130216
5,867500	0,1	0,153817
5,869167	0,1	0,110038
5,870833	0,1	0,109801
5,872500	0,1	0,081397
5,874167	0,1	0,104018
5,875833	0,1	0,103692
5,877500	0,1	0,130748
5,879167	0,1	0,111254
5,880833	0,1	0,120274
5,882500	0,1	0,065999
5,884167	0,1	0,127282
5,885833	0,1	0,115538
5,887500	0,1	0,111479
5,889167	0,1	0,096985
5,890833	0,1	0,076964
5,892500	0,1	0,097662
5,894167	0,1	0,086342
5,895833	0,1	0,123148
5,897500	0,1	0,087423
5,899167	0,1	0,105551
5,900833	0,1	0,105493
5,902500	0,1	0,098723
5,904167	0,1	0,097915
5,905833	0,1	0,129692
5,907500	0,1	0,070019
5,909167	0,1	0,046922
5,910833	0,1	0,114960
5,912500	0,1	0,096967
5,914167	0,1	0,094684
5,915833	0,1	0,123646
5,917500	0,1	0,122639
5,919167	0,1	0,117650
5,920833	0,1	0,103385
5,922500	0,1	0,118411
5,924167	0,1	0,107524
5,925833	0,1	0,075333
5,927500	0,1	0,107163
5,929167	0,1	0,083489
5,930833	0,1	0,059882
5,932500	0,1	0,067891
5,934167	0,1	0,027215
5,935833	0,1	0,060492
5,937500	0,1	0,069546
5,939167	0,1	0,081140
5,940833	0,1	0,072777
5,942500	0,1	0,118817
5,944167	0,1	0,088644
5,945833	0,1	0,110810
5,947500	0,1	0,090196
5,949167	0,1	0,082658
5,950833	0,1	0,074850
5,952500	0,1	0,056363
5,954167	0,1	0,042303
5,955833	0,1	0,092272
5,957500	0,1	0,034094
5,959167	0,1	0,081856
5,960833	0,1	0,076610
5,962500	0,1	0,074825
5,964167	0,1	0,061952
5,965833	0,1	0,098858
5,967500	0,1	0,100460
5,969167	0,1	0,050662
5,970833	0,1	0,060330
5,972500	0,1	0,055494
5,974167	0,1	0,074573
5,975833	0,1	0,069134
5,977500	0,1	0,108216
5,979167	0,1	0,084688
5,980833	0,1	0,047776
5,982500	0,1	0,075071
5,984167	0,1	0,079963
5,985833	0,1	0,041440
5,987500	0,1	0,044578
5,989167	0,1	0,108604
5,990833	0,1	0,067780
5,992500	0,1	0,075532
5,994167	0,1	0,027278
5,995833	0,1	0,067878
5,997500	0,1	0,060396
5,999167	0,1	0,076852
6,000833	0,1	0,069158
