File Path	chrom://chromeleon01/ikbm_chromeleon/2022/Rezex/Esteban/220612_chitin_4_7.seq/494.smp/UV_VIS_1.channel/UV_VIS_1.chm
Channel	UV_VIS_1

Injection Information:
Data Vault	ikbm_chromeleon
Injection	7_01h-EGS_1
Injection Number	91
Position	GE2
Comment	
Processing Method	New ProcMethod
Instrument Method	Short_Rezex_6min_194nm
Type	Unknown
Status	Finished
Injection Date	13.06.2022
Injection Time	02:56:36
Injection Volume (µl)	8,000
Dilution Factor	1,0000
Weight	1,0000

Chromatogram Data Information:
Time Min. (min)	0,000833
Time Max. (min)	6,000833
Data Points	3601
Detector	UV
Generating Data System	Chromeleon 7.2.9.11323
Exporting Data System	Chromeleon 7.2.9.0
Operator	Instrument Controller
Signal Quantity	Absorbance
Signal Unit	mAU
Signal Min.	-0,087487
Signal Max.	119,277670
Channel	UV_VIS_1
Driver Name	VWD3000.dll
Channel Type	Evaluation
Min. Step (s)	0,1
Max. Step (s)	0,1
Average Step (s)	0,1

Signal Parameter Information:
Signal Info	WVL:194 nm

Chromatogram Data:
Time (min)	Step (s)	Value (mAU)
0,000833	n.a.	0,036239
0,002500	0,1	-0,023740
0,004167	0,1	0,049696
0,005833	0,1	0,010308
0,007500	0,1	0,033651
0,009167	0,1	0,001795
0,010833	0,1	-0,049525
0,012500	0,1	0,043641
0,014167	0,1	0,014675
0,015833	0,1	0,009886
0,017500	0,1	0,007778
0,019167	0,1	0,013781
0,020833	0,1	0,030778
0,022500	0,1	0,021911
0,024167	0,1	0,010301
0,025833	0,1	-0,011039
0,027500	0,1	-0,015607
0,029167	0,1	-0,004765
0,030833	0,1	-0,010596
0,032500	0,1	-0,002502
0,034167	0,1	-0,057925
0,035833	0,1	-0,087487
0,037500	0,1	-0,034335
0,039167	0,1	-0,018941
0,040833	0,1	-0,048030
0,042500	0,1	-0,012470
0,044167	0,1	-0,034849
0,045833	0,1	-0,019947
0,047500	0,1	-0,044521
0,049167	0,1	-0,058805
0,050833	0,1	-0,009265
0,052500	0,1	0,027780
0,054167	0,1	-0,015935
0,055833	0,1	-0,034439
0,057500	0,1	0,010592
0,059167	0,1	-0,037929
0,060833	0,1	-0,009598
0,062500	0,1	0,003864
0,064167	0,1	0,021341
0,065833	0,1	0,007140
0,067500	0,1	-0,013193
0,069167	0,1	-0,009667
0,070833	0,1	0,016404
0,072500	0,1	-0,001504
0,074167	0,1	0,002124
0,075833	0,1	0,002356
0,077500	0,1	0,029066
0,079167	0,1	-0,014193
0,080833	0,1	0,022846
0,082500	0,1	0,020841
0,084167	0,1	0,000327
0,085833	0,1	0,008007
0,087500	0,1	0,027893
0,089167	0,1	0,061897
0,090833	0,1	0,052985
0,092500	0,1	0,028896
0,094167	0,1	0,035625
0,095833	0,1	-0,010161
0,097500	0,1	0,031003
0,099167	0,1	0,011875
0,100833	0,1	0,015996
0,102500	0,1	0,003305
0,104167	0,1	-0,004046
0,105833	0,1	0,029295
0,107500	0,1	-0,005106
0,109167	0,1	-0,002184
0,110833	0,1	0,002428
0,112500	0,1	-0,013740
0,114167	0,1	-0,033627
0,115833	0,1	-0,030703
0,117500	0,1	-0,011763
0,119167	0,1	-0,025372
0,120833	0,1	-0,022761
0,122500	0,1	-0,014835
0,124167	0,1	-0,032793
0,125833	0,1	-0,031055
0,127500	0,1	-0,022777
0,129167	0,1	0,015589
0,130833	0,1	-0,007843
0,132500	0,1	-0,011989
0,134167	0,1	-0,014203
0,135833	0,1	-0,055483
0,137500	0,1	-0,013910
0,139167	0,1	-0,023608
0,140833	0,1	-0,005104
0,142500	0,1	0,002874
0,144167	0,1	0,039317
0,145833	0,1	0,037921
0,147500	0,1	-0,008020
0,149167	0,1	0,005804
0,150833	0,1	0,023416
0,152500	0,1	-0,005263
0,154167	0,1	-0,018679
0,155833	0,1	0,003114
0,157500	0,1	-0,001128
0,159167	0,1	0,004353
0,160833	0,1	0,051444
0,162500	0,1	0,015790
0,164167	0,1	0,005445
0,165833	0,1	-0,037156
0,167500	0,1	0,016978
0,169167	0,1	-0,001124
0,170833	0,1	-0,029244
0,172500	0,1	-0,014025
0,174167	0,1	0,034425
0,175833	0,1	0,015481
0,177500	0,1	0,016869
0,179167	0,1	0,006053
0,180833	0,1	0,034369
0,182500	0,1	0,047847
0,184167	0,1	0,051744
0,185833	0,1	0,032622
0,187500	0,1	0,039459
0,189167	0,1	0,007037
0,190833	0,1	0,009000
0,192500	0,1	0,011183
0,194167	0,1	0,043687
0,195833	0,1	0,017928
0,197500	0,1	0,033958
0,199167	0,1	0,028404
0,200833	0,1	0,036116
0,202500	0,1	0,004532
0,204167	0,1	-0,005268
0,205833	0,1	0,000901
0,207500	0,1	0,042996
0,209167	0,1	0,007266
0,210833	0,1	0,036996
0,212500	0,1	0,024937
0,214167	0,1	-0,001840
0,215833	0,1	-0,024815
0,217500	0,1	0,004335
0,219167	0,1	-0,011682
0,220833	0,1	0,022818
0,222500	0,1	0,051645
0,224167	0,1	0,023244
0,225833	0,1	0,029302
0,227500	0,1	0,056643
0,229167	0,1	0,020390
0,230833	0,1	0,038497
0,232500	0,1	0,026983
0,234167	0,1	0,024399
0,235833	0,1	0,024049
0,237500	0,1	0,034203
0,239167	0,1	0,050824
0,240833	0,1	0,031050
0,242500	0,1	0,039215
0,244167	0,1	0,050122
0,245833	0,1	0,050064
0,247500	0,1	0,025029
0,249167	0,1	-0,004101
0,250833	0,1	0,031922
0,252500	0,1	0,038224
0,254167	0,1	0,017678
0,255833	0,1	0,025404
0,257500	0,1	0,053602
0,259167	0,1	0,013638
0,260833	0,1	0,015018
0,262500	0,1	0,000569
0,264167	0,1	0,042524
0,265833	0,1	0,065505
0,267500	0,1	0,040920
0,269167	0,1	0,018995
0,270833	0,1	0,039456
0,272500	0,1	0,029717
0,274167	0,1	0,008607
0,275833	0,1	-0,005616
0,277500	0,1	0,049822
0,279167	0,1	0,030469
0,280833	0,1	0,035962
0,282500	0,1	0,012275
0,284167	0,1	0,064398
0,285833	0,1	-0,015854
0,287500	0,1	0,048948
0,289167	0,1	-0,002488
0,290833	0,1	0,053428
0,292500	0,1	0,037540
0,294167	0,1	0,033321
0,295833	0,1	0,023118
0,297500	0,1	0,015905
0,299167	0,1	-0,003812
0,300833	0,1	0,032442
0,302500	0,1	0,008912
0,304167	0,1	0,006632
0,305833	0,1	0,037102
0,307500	0,1	0,043601
0,309167	0,1	0,010137
0,310833	0,1	0,018346
0,312500	0,1	0,030840
0,314167	0,1	0,027729
0,315833	0,1	0,038527
0,317500	0,1	0,034543
0,319167	0,1	0,026967
0,320833	0,1	0,002727
0,322500	0,1	0,043577
0,324167	0,1	0,030664
0,325833	0,1	-0,036049
0,327500	0,1	0,018565
0,329167	0,1	-0,002130
0,330833	0,1	0,039848
0,332500	0,1	0,042899
0,334167	0,1	0,040745
0,335833	0,1	-0,014467
0,337500	0,1	0,031920
0,339167	0,1	0,068144
0,340833	0,1	0,022378
0,342500	0,1	0,062476
0,344167	0,1	0,006016
0,345833	0,1	0,017947
0,347500	0,1	0,043628
0,349167	0,1	0,024358
0,350833	0,1	-0,005093
0,352500	0,1	0,067785
0,354167	0,1	0,036369
0,355833	0,1	0,051466
0,357500	0,1	-0,011744
0,359167	0,1	0,031231
0,360833	0,1	0,039506
0,362500	0,1	0,036436
0,364167	0,1	-0,008358
0,365833	0,1	0,031905
0,367500	0,1	0,024644
0,369167	0,1	-0,010042
0,370833	0,1	0,055670
0,372500	0,1	-0,009806
0,374167	0,1	0,001602
0,375833	0,1	0,054206
0,377500	0,1	0,025063
0,379167	0,1	0,045750
0,380833	0,1	0,043189
0,382500	0,1	0,009832
0,384167	0,1	0,032384
0,385833	0,1	0,034741
0,387500	0,1	0,003996
0,389167	0,1	0,009534
0,390833	0,1	0,037988
0,392500	0,1	0,012749
0,394167	0,1	0,043457
0,395833	0,1	0,012094
0,397500	0,1	0,003654
0,399167	0,1	0,028181
0,400833	0,1	0,053144
0,402500	0,1	0,039281
0,404167	0,1	0,087745
0,405833	0,1	0,040053
0,407500	0,1	0,038637
0,409167	0,1	0,005739
0,410833	0,1	0,036550
0,412500	0,1	0,033093
0,414167	0,1	0,033031
0,415833	0,1	0,038439
0,417500	0,1	0,039325
0,419167	0,1	0,011479
0,420833	0,1	0,078190
0,422500	0,1	0,024074
0,424167	0,1	0,076254
0,425833	0,1	0,026566
0,427500	0,1	0,042347
0,429167	0,1	0,008780
0,430833	0,1	0,042830
0,432500	0,1	0,085865
0,434167	0,1	0,076191
0,435833	0,1	0,015905
0,437500	0,1	0,046451
0,439167	0,1	0,018813
0,440833	0,1	0,036280
0,442500	0,1	0,043845
0,444167	0,1	0,065978
0,445833	0,1	0,023965
0,447500	0,1	0,024735
0,449167	0,1	0,053570
0,450833	0,1	0,063308
0,452500	0,1	0,070595
0,454167	0,1	0,036430
0,455833	0,1	0,044945
0,457500	0,1	0,043266
0,459167	0,1	0,046627
0,460833	0,1	0,033782
0,462500	0,1	0,081083
0,464167	0,1	0,006142
0,465833	0,1	0,037589
0,467500	0,1	0,049663
0,469167	0,1	0,059503
0,470833	0,1	0,027447
0,472500	0,1	0,049019
0,474167	0,1	0,041083
0,475833	0,1	0,054049
0,477500	0,1	0,044307
0,479167	0,1	0,049665
0,480833	0,1	0,079040
0,482500	0,1	0,031759
0,484167	0,1	0,040209
0,485833	0,1	0,042440
0,487500	0,1	0,044654
0,489167	0,1	0,098758
0,490833	0,1	0,042224
0,492500	0,1	0,031629
0,494167	0,1	0,071521
0,495833	0,1	0,004005
0,497500	0,1	0,010586
0,499167	0,1	0,043639
0,500833	0,1	0,066803
0,502500	0,1	0,034092
0,504167	0,1	0,063548
0,505833	0,1	0,009655
0,507500	0,1	0,050940
0,509167	0,1	0,012874
0,510833	0,1	0,039961
0,512500	0,1	0,054613
0,514167	0,1	0,061856
0,515833	0,1	0,044309
0,517500	0,1	0,031597
0,519167	0,1	0,047907
0,520833	0,1	0,026405
0,522500	0,1	0,070006
0,524167	0,1	0,079395
0,525833	0,1	0,061862
0,527500	0,1	0,038244
0,529167	0,1	0,037247
0,530833	0,1	0,028218
0,532500	0,1	0,062430
0,534167	0,1	0,061675
0,535833	0,1	0,028102
0,537500	0,1	0,044468
0,539167	0,1	0,061029
0,540833	0,1	0,068212
0,542500	0,1	0,071849
0,544167	0,1	0,039058
0,545833	0,1	0,040272
0,547500	0,1	0,070881
0,549167	0,1	0,066734
0,550833	0,1	0,053108
0,552500	0,1	0,059154
0,554167	0,1	0,062393
0,555833	0,1	0,062791
0,557500	0,1	0,069390
0,559167	0,1	0,074629
0,560833	0,1	0,038247
0,562500	0,1	0,044044
0,564167	0,1	0,057668
0,565833	0,1	0,055564
0,567500	0,1	0,096775
0,569167	0,1	0,050611
0,570833	0,1	0,067035
0,572500	0,1	0,064486
0,574167	0,1	0,066288
0,575833	0,1	0,080280
0,577500	0,1	0,056441
0,579167	0,1	0,066347
0,580833	0,1	0,057307
0,582500	0,1	0,011349
0,584167	0,1	0,055155
0,585833	0,1	0,079300
0,587500	0,1	0,052881
0,589167	0,1	0,074917
0,590833	0,1	0,064016
0,592500	0,1	0,073101
0,594167	0,1	0,064915
0,595833	0,1	0,079411
0,597500	0,1	0,084835
0,599167	0,1	0,091177
0,600833	0,1	0,087116
0,602500	0,1	0,076406
0,604167	0,1	0,101501
0,605833	0,1	0,092845
0,607500	0,1	0,093409
0,609167	0,1	0,078012
0,610833	0,1	0,040631
0,612500	0,1	0,069965
0,614167	0,1	0,086849
0,615833	0,1	0,100509
0,617500	0,1	0,074042
0,619167	0,1	0,071606
0,620833	0,1	0,075546
0,622500	0,1	0,079183
0,624167	0,1	0,090382
0,625833	0,1	0,084044
0,627500	0,1	0,086455
0,629167	0,1	0,067852
0,630833	0,1	0,065420
0,632500	0,1	0,078539
0,634167	0,1	0,084010
0,635833	0,1	0,061177
0,637500	0,1	0,104615
0,639167	0,1	0,100117
0,640833	0,1	0,092892
0,642500	0,1	0,067870
0,644167	0,1	0,110189
0,645833	0,1	0,098027
0,647500	0,1	0,089666
0,649167	0,1	0,080592
0,650833	0,1	0,093896
0,652500	0,1	0,083206
0,654167	0,1	0,091497
0,655833	0,1	0,089910
0,657500	0,1	0,070741
0,659167	0,1	0,111350
0,660833	0,1	0,124271
0,662500	0,1	0,116268
0,664167	0,1	0,097889
0,665833	0,1	0,101917
0,667500	0,1	0,062631
0,669167	0,1	0,117537
0,670833	0,1	0,101236
0,672500	0,1	0,079434
0,674167	0,1	0,112898
0,675833	0,1	0,054997
0,677500	0,1	0,106246
0,679167	0,1	0,110321
0,680833	0,1	0,083224
0,682500	0,1	0,111782
0,684167	0,1	0,111515
0,685833	0,1	0,125324
0,687500	0,1	0,129239
0,689167	0,1	0,116681
0,690833	0,1	0,093447
0,692500	0,1	0,115545
0,694167	0,1	0,118040
0,695833	0,1	0,136752
0,697500	0,1	0,098278
0,699167	0,1	0,135360
0,700833	0,1	0,118932
0,702500	0,1	0,122241
0,704167	0,1	0,127817
0,705833	0,1	0,156111
0,707500	0,1	0,153463
0,709167	0,1	0,149471
0,710833	0,1	0,123442
0,712500	0,1	0,115948
0,714167	0,1	0,155298
0,715833	0,1	0,150297
0,717500	0,1	0,132760
0,719167	0,1	0,136667
0,720833	0,1	0,145221
0,722500	0,1	0,125913
0,724167	0,1	0,187737
0,725833	0,1	0,142378
0,727500	0,1	0,145268
0,729167	0,1	0,147851
0,730833	0,1	0,157495
0,732500	0,1	0,190620
0,734167	0,1	0,155043
0,735833	0,1	0,142263
0,737500	0,1	0,148080
0,739167	0,1	0,133278
0,740833	0,1	0,209389
0,742500	0,1	0,162186
0,744167	0,1	0,196500
0,745833	0,1	0,150614
0,747500	0,1	0,215399
0,749167	0,1	0,174326
0,750833	0,1	0,176215
0,752500	0,1	0,216750
0,754167	0,1	0,180182
0,755833	0,1	0,187812
0,757500	0,1	0,201166
0,759167	0,1	0,189907
0,760833	0,1	0,211472
0,762500	0,1	0,163435
0,764167	0,1	0,216456
0,765833	0,1	0,193596
0,767500	0,1	0,240727
0,769167	0,1	0,178217
0,770833	0,1	0,196400
0,772500	0,1	0,168873
0,774167	0,1	0,250680
0,775833	0,1	0,200848
0,777500	0,1	0,213713
0,779167	0,1	0,184566
0,780833	0,1	0,190108
0,782500	0,1	0,188991
0,784167	0,1	0,227643
0,785833	0,1	0,186119
0,787500	0,1	0,208699
0,789167	0,1	0,184276
0,790833	0,1	0,171356
0,792500	0,1	0,163153
0,794167	0,1	0,167731
0,795833	0,1	0,201618
0,797500	0,1	0,201643
0,799167	0,1	0,172996
0,800833	0,1	0,222172
0,802500	0,1	0,134106
0,804167	0,1	0,141555
0,805833	0,1	0,175380
0,807500	0,1	0,192258
0,809167	0,1	0,149068
0,810833	0,1	0,158822
0,812500	0,1	0,138441
0,814167	0,1	0,190904
0,815833	0,1	0,167157
0,817500	0,1	0,156735
0,819167	0,1	0,202854
0,820833	0,1	0,189224
0,822500	0,1	0,141261
0,824167	0,1	0,150892
0,825833	0,1	0,161434
0,827500	0,1	0,143090
0,829167	0,1	0,149195
0,830833	0,1	0,177492
0,832500	0,1	0,146330
0,834167	0,1	0,141296
0,835833	0,1	0,124020
0,837500	0,1	0,117902
0,839167	0,1	0,152293
0,840833	0,1	0,127277
0,842500	0,1	0,183324
0,844167	0,1	0,155087
0,845833	0,1	0,164106
0,847500	0,1	0,104409
0,849167	0,1	0,143580
0,850833	0,1	0,144872
0,852500	0,1	0,123883
0,854167	0,1	0,164056
0,855833	0,1	0,165349
0,857500	0,1	0,161042
0,859167	0,1	0,154394
0,860833	0,1	0,166630
0,862500	0,1	0,152498
0,864167	0,1	0,100513
0,865833	0,1	0,135299
0,867500	0,1	0,127150
0,869167	0,1	0,134099
0,870833	0,1	0,190701
0,872500	0,1	0,167631
0,874167	0,1	0,184370
0,875833	0,1	0,155333
0,877500	0,1	0,165943
0,879167	0,1	0,127615
0,880833	0,1	0,139690
0,882500	0,1	0,136177
0,884167	0,1	0,189788
0,885833	0,1	0,166162
0,887500	0,1	0,133574
0,889167	0,1	0,171405
0,890833	0,1	0,188987
0,892500	0,1	0,130555
0,894167	0,1	0,178858
0,895833	0,1	0,207475
0,897500	0,1	0,173701
0,899167	0,1	0,179222
0,900833	0,1	0,148212
0,902500	0,1	0,147440
0,904167	0,1	0,170038
0,905833	0,1	0,200007
0,907500	0,1	0,187298
0,909167	0,1	0,183338
0,910833	0,1	0,186899
0,912500	0,1	0,178143
0,914167	0,1	0,214534
0,915833	0,1	0,202412
0,917500	0,1	0,211314
0,919167	0,1	0,184796
0,920833	0,1	0,206484
0,922500	0,1	0,206884
0,924167	0,1	0,195457
0,925833	0,1	0,202760
0,927500	0,1	0,188310
0,929167	0,1	0,219029
0,930833	0,1	0,204481
0,932500	0,1	0,175353
0,934167	0,1	0,266394
0,935833	0,1	0,209318
0,937500	0,1	0,231746
0,939167	0,1	0,223284
0,940833	0,1	0,238352
0,942500	0,1	0,203720
0,944167	0,1	0,245845
0,945833	0,1	0,216310
0,947500	0,1	0,231768
0,949167	0,1	0,207446
0,950833	0,1	0,248390
0,952500	0,1	0,266288
0,954167	0,1	0,247680
0,955833	0,1	0,260117
0,957500	0,1	0,276932
0,959167	0,1	0,250497
0,960833	0,1	0,243351
0,962500	0,1	0,192126
0,964167	0,1	0,280974
0,965833	0,1	0,269774
0,967500	0,1	0,290392
0,969167	0,1	0,302387
0,970833	0,1	0,294439
0,972500	0,1	0,295306
0,974167	0,1	0,289427
0,975833	0,1	0,314397
0,977500	0,1	0,251540
0,979167	0,1	0,314139
0,980833	0,1	0,280030
0,982500	0,1	0,303377
0,984167	0,1	0,301314
0,985833	0,1	0,287958
0,987500	0,1	0,362042
0,989167	0,1	0,305840
0,990833	0,1	0,334381
0,992500	0,1	0,346543
0,994167	0,1	0,311676
0,995833	0,1	0,349809
0,997500	0,1	0,349262
0,999167	0,1	0,377985
1,000833	0,1	0,341628
1,002500	0,1	0,389556
1,004167	0,1	0,421026
1,005833	0,1	0,413846
1,007500	0,1	0,397302
1,009167	0,1	0,398228
1,010833	0,1	0,433870
1,012500	0,1	0,431874
1,014167	0,1	0,427708
1,015833	0,1	0,498151
1,017500	0,1	0,496721
1,019167	0,1	0,456931
1,020833	0,1	0,486877
1,022500	0,1	0,544767
1,024167	0,1	0,535878
1,025833	0,1	0,522190
1,027500	0,1	0,543316
1,029167	0,1	0,503015
1,030833	0,1	0,581813
1,032500	0,1	0,578148
1,034167	0,1	0,611864
1,035833	0,1	0,586243
1,037500	0,1	0,624776
1,039167	0,1	0,649486
1,040833	0,1	0,663074
1,042500	0,1	0,622479
1,044167	0,1	0,654074
1,045833	0,1	0,672520
1,047500	0,1	0,684731
1,049167	0,1	0,729934
1,050833	0,1	0,691460
1,052500	0,1	0,709181
1,054167	0,1	0,763768
1,055833	0,1	0,775959
1,057500	0,1	0,879137
1,059167	0,1	0,929297
1,060833	0,1	0,979906
1,062500	0,1	1,084341
1,064167	0,1	1,274776
1,065833	0,1	1,431156
1,067500	0,1	1,666902
1,069167	0,1	1,974633
1,070833	0,1	2,370736
1,072500	0,1	2,864852
1,074167	0,1	3,448691
1,075833	0,1	4,164452
1,077500	0,1	4,983987
1,079167	0,1	5,945359
1,080833	0,1	7,069325
1,082500	0,1	8,302402
1,084167	0,1	9,743334
1,085833	0,1	11,324700
1,087500	0,1	13,027838
1,089167	0,1	14,843299
1,090833	0,1	16,757906
1,092500	0,1	18,771958
1,094167	0,1	20,754561
1,095833	0,1	22,823032
1,097500	0,1	24,871376
1,099167	0,1	26,871230
1,100833	0,1	28,786151
1,102500	0,1	30,585546
1,104167	0,1	32,265278
1,105833	0,1	33,749192
1,107500	0,1	35,083768
1,109167	0,1	36,246307
1,110833	0,1	37,304682
1,112500	0,1	38,098516
1,114167	0,1	38,779164
1,115833	0,1	39,277382
1,117500	0,1	39,547445
1,119167	0,1	39,795318
1,120833	0,1	39,868985
1,122500	0,1	39,898025
1,124167	0,1	39,805522
1,125833	0,1	39,686676
1,127500	0,1	39,516614
1,129167	0,1	39,345566
1,130833	0,1	39,093084
1,132500	0,1	38,923912
1,134167	0,1	38,706254
1,135833	0,1	38,559616
1,137500	0,1	38,460778
1,139167	0,1	38,423335
1,140833	0,1	38,423573
1,142500	0,1	38,500934
1,144167	0,1	38,647935
1,145833	0,1	38,952341
1,147500	0,1	39,278331
1,149167	0,1	39,711180
1,150833	0,1	40,267372
1,152500	0,1	40,937026
1,154167	0,1	41,670896
1,155833	0,1	42,518047
1,157500	0,1	43,412853
1,159167	0,1	44,414901
1,160833	0,1	45,435223
1,162500	0,1	46,567938
1,164167	0,1	47,699853
1,165833	0,1	48,855283
1,167500	0,1	50,041181
1,169167	0,1	51,222052
1,170833	0,1	52,347515
1,172500	0,1	53,478610
1,174167	0,1	54,464547
1,175833	0,1	55,514322
1,177500	0,1	56,434820
1,179167	0,1	57,264432
1,180833	0,1	58,047875
1,182500	0,1	58,720780
1,184167	0,1	59,295645
1,185833	0,1	59,848677
1,187500	0,1	60,297913
1,189167	0,1	60,684508
1,190833	0,1	60,949216
1,192500	0,1	61,215525
1,194167	0,1	61,438158
1,195833	0,1	61,645059
1,197500	0,1	61,854502
1,199167	0,1	62,116236
1,200833	0,1	62,427842
1,202500	0,1	62,858861
1,204167	0,1	63,432012
1,205833	0,1	64,001055
1,207500	0,1	64,822379
1,209167	0,1	65,855389
1,210833	0,1	66,942940
1,212500	0,1	68,394297
1,214167	0,1	69,934170
1,215833	0,1	71,731291
1,217500	0,1	73,667506
1,219167	0,1	75,924911
1,220833	0,1	78,305243
1,222500	0,1	80,844405
1,224167	0,1	83,461765
1,225833	0,1	86,274641
1,227500	0,1	89,086644
1,229167	0,1	91,933658
1,230833	0,1	94,860287
1,232500	0,1	97,630003
1,234167	0,1	100,384014
1,235833	0,1	103,053561
1,237500	0,1	105,558979
1,239167	0,1	107,851489
1,240833	0,1	110,016783
1,242500	0,1	112,014326
1,244167	0,1	113,769081
1,245833	0,1	115,260735
1,247500	0,1	116,504273
1,249167	0,1	117,654129
1,250833	0,1	118,369164
1,252500	0,1	118,902851
1,254167	0,1	119,223151
1,255833	0,1	119,277670
1,257500	0,1	119,143732
1,259167	0,1	118,672087
1,260833	0,1	118,130208
1,262500	0,1	117,228698
1,264167	0,1	116,170197
1,265833	0,1	114,958997
1,267500	0,1	113,542755
1,269167	0,1	111,878739
1,270833	0,1	110,128055
1,272500	0,1	108,180081
1,274167	0,1	106,146830
1,275833	0,1	103,988187
1,277500	0,1	101,716495
1,279167	0,1	99,347789
1,280833	0,1	96,955684
1,282500	0,1	94,438075
1,284167	0,1	91,941138
1,285833	0,1	89,393440
1,287500	0,1	86,805125
1,289167	0,1	84,217359
1,290833	0,1	81,693535
1,292500	0,1	79,151611
1,294167	0,1	76,612536
1,295833	0,1	74,154055
1,297500	0,1	71,711187
1,299167	0,1	69,283533
1,300833	0,1	67,024492
1,302500	0,1	64,744720
1,304167	0,1	62,552743
1,305833	0,1	60,480473
1,307500	0,1	58,436781
1,309167	0,1	56,446882
1,310833	0,1	54,554349
1,312500	0,1	52,740387
1,314167	0,1	50,949494
1,315833	0,1	49,254736
1,317500	0,1	47,651481
1,319167	0,1	46,059556
1,320833	0,1	44,614383
1,322500	0,1	43,175753
1,324167	0,1	41,801561
1,325833	0,1	40,475409
1,327500	0,1	39,196770
1,329167	0,1	37,991611
1,330833	0,1	36,842635
1,332500	0,1	35,707820
1,334167	0,1	34,667072
1,335833	0,1	33,607434
1,337500	0,1	32,634349
1,339167	0,1	31,623227
1,340833	0,1	30,754911
1,342500	0,1	29,884996
1,344167	0,1	29,054454
1,345833	0,1	28,196630
1,347500	0,1	27,402501
1,349167	0,1	26,634457
1,350833	0,1	25,901429
1,352500	0,1	25,187808
1,354167	0,1	24,488250
1,355833	0,1	23,850035
1,357500	0,1	23,196376
1,359167	0,1	22,580893
1,360833	0,1	21,972416
1,362500	0,1	21,429287
1,364167	0,1	20,843248
1,365833	0,1	20,292670
1,367500	0,1	19,809648
1,369167	0,1	19,271317
1,370833	0,1	18,796005
1,372500	0,1	18,328143
1,374167	0,1	17,912484
1,375833	0,1	17,432756
1,377500	0,1	17,022351
1,379167	0,1	16,578341
1,380833	0,1	16,214938
1,382500	0,1	15,803036
1,384167	0,1	15,414080
1,385833	0,1	15,072665
1,387500	0,1	14,719166
1,389167	0,1	14,410803
1,390833	0,1	14,088808
1,392500	0,1	13,790251
1,394167	0,1	13,483043
1,395833	0,1	13,163964
1,397500	0,1	12,856753
1,399167	0,1	12,678230
1,400833	0,1	12,376600
1,402500	0,1	12,150286
1,404167	0,1	11,950148
1,405833	0,1	11,729922
1,407500	0,1	11,513412
1,409167	0,1	11,331993
1,410833	0,1	11,121760
1,412500	0,1	10,909588
1,414167	0,1	10,777682
1,415833	0,1	10,581526
1,417500	0,1	10,422609
1,419167	0,1	10,289446
1,420833	0,1	10,095149
1,422500	0,1	9,948872
1,424167	0,1	9,785960
1,425833	0,1	9,655768
1,427500	0,1	9,532972
1,429167	0,1	9,400996
1,430833	0,1	9,298487
1,432500	0,1	9,143659
1,434167	0,1	9,037688
1,435833	0,1	8,945933
1,437500	0,1	8,806437
1,439167	0,1	8,716236
1,440833	0,1	8,580691
1,442500	0,1	8,499146
1,444167	0,1	8,382335
1,445833	0,1	8,299938
1,447500	0,1	8,169745
1,449167	0,1	8,133643
1,450833	0,1	7,992624
1,452500	0,1	7,904653
1,454167	0,1	7,805738
1,455833	0,1	7,751322
1,457500	0,1	7,622986
1,459167	0,1	7,563733
1,460833	0,1	7,510944
1,462500	0,1	7,412860
1,464167	0,1	7,360548
1,465833	0,1	7,339472
1,467500	0,1	7,248239
1,469167	0,1	7,155328
1,470833	0,1	7,125780
1,472500	0,1	7,077988
1,474167	0,1	7,023405
1,475833	0,1	6,998337
1,477500	0,1	6,925697
1,479167	0,1	6,927651
1,480833	0,1	6,924671
1,482500	0,1	6,888263
1,484167	0,1	6,841232
1,485833	0,1	6,858728
1,487500	0,1	6,807810
1,489167	0,1	6,808091
1,490833	0,1	6,799046
1,492500	0,1	6,775506
1,494167	0,1	6,850631
1,495833	0,1	6,838732
1,497500	0,1	6,875586
1,499167	0,1	6,834066
1,500833	0,1	6,890200
1,502500	0,1	6,852223
1,504167	0,1	6,900444
1,505833	0,1	6,925873
1,507500	0,1	6,967035
1,509167	0,1	6,978498
1,510833	0,1	6,972727
1,512500	0,1	6,957459
1,514167	0,1	6,958569
1,515833	0,1	6,992744
1,517500	0,1	7,010536
1,519167	0,1	7,020127
1,520833	0,1	7,066885
1,522500	0,1	7,033547
1,524167	0,1	7,046020
1,525833	0,1	7,074153
1,527500	0,1	7,042768
1,529167	0,1	7,077135
1,530833	0,1	7,062796
1,532500	0,1	7,035871
1,534167	0,1	7,065681
1,535833	0,1	7,007755
1,537500	0,1	7,012391
1,539167	0,1	7,005234
1,540833	0,1	7,016486
1,542500	0,1	6,965741
1,544167	0,1	6,980156
1,545833	0,1	6,951773
1,547500	0,1	6,934165
1,549167	0,1	6,908295
1,550833	0,1	6,906510
1,552500	0,1	6,849907
1,554167	0,1	6,834437
1,555833	0,1	6,802324
1,557500	0,1	6,738727
1,559167	0,1	6,742091
1,560833	0,1	6,692278
1,562500	0,1	6,681391
1,564167	0,1	6,642598
1,565833	0,1	6,592252
1,567500	0,1	6,581910
1,569167	0,1	6,519215
1,570833	0,1	6,552709
1,572500	0,1	6,461070
1,574167	0,1	6,433258
1,575833	0,1	6,392573
1,577500	0,1	6,364971
1,579167	0,1	6,326002
1,580833	0,1	6,286589
1,582500	0,1	6,205949
1,584167	0,1	6,150450
1,585833	0,1	6,154428
1,587500	0,1	6,092012
1,589167	0,1	6,054164
1,590833	0,1	6,050060
1,592500	0,1	5,997621
1,594167	0,1	5,966392
1,595833	0,1	5,898495
1,597500	0,1	5,866012
1,599167	0,1	5,808146
1,600833	0,1	5,805055
1,602500	0,1	5,740658
1,604167	0,1	5,722622
1,605833	0,1	5,642271
1,607500	0,1	5,596398
1,609167	0,1	5,575230
1,610833	0,1	5,526192
1,612500	0,1	5,519000
1,614167	0,1	5,441310
1,615833	0,1	5,418528
1,617500	0,1	5,359593
1,619167	0,1	5,365933
1,620833	0,1	5,284204
1,622500	0,1	5,265608
1,624167	0,1	5,240788
1,625833	0,1	5,182272
1,627500	0,1	5,134338
1,629167	0,1	5,150553
1,630833	0,1	5,096155
1,632500	0,1	5,066653
1,634167	0,1	5,030191
1,635833	0,1	4,991848
1,637500	0,1	4,984453
1,639167	0,1	4,899430
1,640833	0,1	4,886188
1,642500	0,1	4,868187
1,644167	0,1	4,847142
1,645833	0,1	4,817466
1,647500	0,1	4,792329
1,649167	0,1	4,729821
1,650833	0,1	4,750796
1,652500	0,1	4,729163
1,654167	0,1	4,681501
1,655833	0,1	4,687043
1,657500	0,1	4,670224
1,659167	0,1	4,655270
1,660833	0,1	4,620621
1,662500	0,1	4,640948
1,664167	0,1	4,644000
1,665833	0,1	4,676007
1,667500	0,1	4,626745
1,669167	0,1	4,689013
1,670833	0,1	4,662930
1,672500	0,1	4,689430
1,674167	0,1	4,722745
1,675833	0,1	4,715217
1,677500	0,1	4,752909
1,679167	0,1	4,782788
1,680833	0,1	4,799419
1,682500	0,1	4,865936
1,684167	0,1	4,947690
1,685833	0,1	4,978902
1,687500	0,1	5,045360
1,689167	0,1	5,088110
1,690833	0,1	5,116560
1,692500	0,1	5,201830
1,694167	0,1	5,280069
1,695833	0,1	5,327686
1,697500	0,1	5,416637
1,699167	0,1	5,449613
1,700833	0,1	5,510851
1,702500	0,1	5,591733
1,704167	0,1	5,643233
1,705833	0,1	5,754856
1,707500	0,1	5,817503
1,709167	0,1	5,845449
1,710833	0,1	5,950612
1,712500	0,1	6,021873
1,714167	0,1	6,083505
1,715833	0,1	6,183616
1,717500	0,1	6,245630
1,719167	0,1	6,295029
1,720833	0,1	6,322553
1,722500	0,1	6,400358
1,724167	0,1	6,429863
1,725833	0,1	6,542338
1,727500	0,1	6,532957
1,729167	0,1	6,597235
1,730833	0,1	6,645265
1,732500	0,1	6,669945
1,734167	0,1	6,672928
1,735833	0,1	6,721131
1,737500	0,1	6,733329
1,739167	0,1	6,797538
1,740833	0,1	6,774012
1,742500	0,1	6,764431
1,744167	0,1	6,792443
1,745833	0,1	6,770466
1,747500	0,1	6,760794
1,749167	0,1	6,803786
1,750833	0,1	6,784068
1,752500	0,1	6,765357
1,754167	0,1	6,727007
1,755833	0,1	6,696952
1,757500	0,1	6,652363
1,759167	0,1	6,640448
1,760833	0,1	6,579035
1,762500	0,1	6,543645
1,764167	0,1	6,512862
1,765833	0,1	6,468325
1,767500	0,1	6,440396
1,769167	0,1	6,378165
1,770833	0,1	6,329922
1,772500	0,1	6,272523
1,774167	0,1	6,268634
1,775833	0,1	6,162102
1,777500	0,1	6,092171
1,779167	0,1	6,071778
1,780833	0,1	5,969031
1,782500	0,1	5,932348
1,784167	0,1	5,838065
1,785833	0,1	5,778259
1,787500	0,1	5,712750
1,789167	0,1	5,628709
1,790833	0,1	5,586883
1,792500	0,1	5,511757
1,794167	0,1	5,417416
1,795833	0,1	5,363773
1,797500	0,1	5,289423
1,799167	0,1	5,212717
1,800833	0,1	5,169345
1,802500	0,1	5,124716
1,804167	0,1	5,014181
1,805833	0,1	4,951971
1,807500	0,1	4,890258
1,809167	0,1	4,810700
1,810833	0,1	4,743236
1,812500	0,1	4,682475
1,814167	0,1	4,638451
1,815833	0,1	4,539872
1,817500	0,1	4,494480
1,819167	0,1	4,453315
1,820833	0,1	4,373239
1,822500	0,1	4,280009
1,824167	0,1	4,218532
1,825833	0,1	4,168171
1,827500	0,1	4,098905
1,829167	0,1	4,056848
1,830833	0,1	4,032268
1,832500	0,1	3,938888
1,834167	0,1	3,916026
1,835833	0,1	3,871989
1,837500	0,1	3,852795
1,839167	0,1	3,787411
1,840833	0,1	3,754681
1,842500	0,1	3,772401
1,844167	0,1	3,687395
1,845833	0,1	3,732223
1,847500	0,1	3,675535
1,849167	0,1	3,704066
1,850833	0,1	3,724823
1,852500	0,1	3,712329
1,854167	0,1	3,746797
1,855833	0,1	3,783709
1,857500	0,1	3,815140
1,859167	0,1	3,829228
1,860833	0,1	3,864101
1,862500	0,1	3,880546
1,864167	0,1	3,947805
1,865833	0,1	4,009159
1,867500	0,1	4,014208
1,869167	0,1	4,023477
1,870833	0,1	4,079981
1,872500	0,1	4,099245
1,874167	0,1	4,211216
1,875833	0,1	4,222731
1,877500	0,1	4,268552
1,879167	0,1	4,270872
1,880833	0,1	4,276816
1,882500	0,1	4,340802
1,884167	0,1	4,393464
1,885833	0,1	4,428140
1,887500	0,1	4,459498
1,889167	0,1	4,502481
1,890833	0,1	4,523593
1,892500	0,1	4,506626
1,894167	0,1	4,576788
1,895833	0,1	4,621207
1,897500	0,1	4,646908
1,899167	0,1	4,648941
1,900833	0,1	4,686424
1,902500	0,1	4,687688
1,904167	0,1	4,747386
1,905833	0,1	4,767297
1,907500	0,1	4,799161
1,909167	0,1	4,797642
1,910833	0,1	4,851820
1,912500	0,1	4,898465
1,914167	0,1	4,883440
1,915833	0,1	4,895101
1,917500	0,1	4,913693
1,919167	0,1	4,958932
1,920833	0,1	4,958990
1,922500	0,1	4,980919
1,924167	0,1	5,018756
1,925833	0,1	4,985143
1,927500	0,1	5,032716
1,929167	0,1	5,008038
1,930833	0,1	5,038114
1,932500	0,1	5,098838
1,934167	0,1	5,049982
1,935833	0,1	5,069606
1,937500	0,1	5,084305
1,939167	0,1	5,138001
1,940833	0,1	5,074451
1,942500	0,1	5,112726
1,944167	0,1	5,082149
1,945833	0,1	5,106804
1,947500	0,1	5,128344
1,949167	0,1	5,178642
1,950833	0,1	5,150962
1,952500	0,1	5,158409
1,954167	0,1	5,144530
1,955833	0,1	5,211803
1,957500	0,1	5,201717
1,959167	0,1	5,206311
1,960833	0,1	5,216424
1,962500	0,1	5,183480
1,964167	0,1	5,230494
1,965833	0,1	5,232453
1,967500	0,1	5,234401
1,969167	0,1	5,315535
1,970833	0,1	5,259489
1,972500	0,1	5,294705
1,974167	0,1	5,315011
1,975833	0,1	5,327891
1,977500	0,1	5,341983
1,979167	0,1	5,421187
1,980833	0,1	5,413892
1,982500	0,1	5,414315
1,984167	0,1	5,410473
1,985833	0,1	5,484800
1,987500	0,1	5,486767
1,989167	0,1	5,520400
1,990833	0,1	5,553515
1,992500	0,1	5,556352
1,994167	0,1	5,591830
1,995833	0,1	5,637542
1,997500	0,1	5,638352
1,999167	0,1	5,668305
2,000833	0,1	5,698012
2,002500	0,1	5,751641
2,004167	0,1	5,786538
2,005833	0,1	5,800826
2,007500	0,1	5,844318
2,009167	0,1	5,860302
2,010833	0,1	5,935768
2,012500	0,1	5,913853
2,014167	0,1	5,972826
2,015833	0,1	5,983014
2,017500	0,1	6,029830
2,019167	0,1	6,122732
2,020833	0,1	6,106315
2,022500	0,1	6,188193
2,024167	0,1	6,220728
2,025833	0,1	6,215578
2,027500	0,1	6,270366
2,029167	0,1	6,340399
2,030833	0,1	6,360887
2,032500	0,1	6,376795
2,034167	0,1	6,459344
2,035833	0,1	6,518702
2,037500	0,1	6,542179
2,039167	0,1	6,596595
2,040833	0,1	6,609173
2,042500	0,1	6,689114
2,044167	0,1	6,720961
2,045833	0,1	6,766372
2,047500	0,1	6,784247
2,049167	0,1	6,841888
2,050833	0,1	6,899322
2,052500	0,1	6,940486
2,054167	0,1	6,990225
2,055833	0,1	7,029631
2,057500	0,1	7,084582
2,059167	0,1	7,119711
2,060833	0,1	7,150831
2,062500	0,1	7,218102
2,064167	0,1	7,277747
2,065833	0,1	7,278879
2,067500	0,1	7,304133
2,069167	0,1	7,378692
2,070833	0,1	7,420649
2,072500	0,1	7,389725
2,074167	0,1	7,449271
2,075833	0,1	7,522561
2,077500	0,1	7,531905
2,079167	0,1	7,556058
2,080833	0,1	7,624682
2,082500	0,1	7,692496
2,084167	0,1	7,673584
2,085833	0,1	7,726186
2,087500	0,1	7,742719
2,089167	0,1	7,778169
2,090833	0,1	7,790967
2,092500	0,1	7,833229
2,094167	0,1	7,850480
2,095833	0,1	7,844172
2,097500	0,1	7,892851
2,099167	0,1	7,949489
2,100833	0,1	7,967538
2,102500	0,1	7,963536
2,104167	0,1	8,022059
2,105833	0,1	7,984359
2,107500	0,1	8,051080
2,109167	0,1	8,045409
2,110833	0,1	8,082169
2,112500	0,1	8,096386
2,114167	0,1	8,138783
2,115833	0,1	8,138852
2,117500	0,1	8,137183
2,119167	0,1	8,138393
2,120833	0,1	8,147905
2,122500	0,1	8,203739
2,124167	0,1	8,215449
2,125833	0,1	8,207595
2,127500	0,1	8,188763
2,129167	0,1	8,229826
2,130833	0,1	8,198699
2,132500	0,1	8,205282
2,134167	0,1	8,215855
2,135833	0,1	8,234575
2,137500	0,1	8,196947
2,139167	0,1	8,271764
2,140833	0,1	8,214714
2,142500	0,1	8,184746
2,144167	0,1	8,219923
2,145833	0,1	8,184176
2,147500	0,1	8,205445
2,149167	0,1	8,213378
2,150833	0,1	8,183228
2,152500	0,1	8,185279
2,154167	0,1	8,128904
2,155833	0,1	8,141379
2,157500	0,1	8,146916
2,159167	0,1	8,169654
2,160833	0,1	8,149064
2,162500	0,1	8,129161
2,164167	0,1	8,125040
2,165833	0,1	8,124942
2,167500	0,1	8,095717
2,169167	0,1	8,107642
2,170833	0,1	8,107211
2,172500	0,1	8,016586
2,174167	0,1	8,043973
2,175833	0,1	8,009918
2,177500	0,1	8,040632
2,179167	0,1	7,970848
2,180833	0,1	7,969407
2,182500	0,1	7,948213
2,184167	0,1	7,931319
2,185833	0,1	7,926474
2,187500	0,1	7,925800
2,189167	0,1	7,885398
2,190833	0,1	7,899305
2,192500	0,1	7,844993
2,194167	0,1	7,843230
2,195833	0,1	7,830332
2,197500	0,1	7,803754
2,199167	0,1	7,800100
2,200833	0,1	7,788335
2,202500	0,1	7,776125
2,204167	0,1	7,736386
2,205833	0,1	7,713706
2,207500	0,1	7,776649
2,209167	0,1	7,706439
2,210833	0,1	7,710905
2,212500	0,1	7,716606
2,214167	0,1	7,725176
2,215833	0,1	7,696075
2,217500	0,1	7,686002
2,219167	0,1	7,694012
2,220833	0,1	7,734685
2,222500	0,1	7,686747
2,224167	0,1	7,703628
2,225833	0,1	7,668562
2,227500	0,1	7,690928
2,229167	0,1	7,713037
2,230833	0,1	7,700996
2,232500	0,1	7,683855
2,234167	0,1	7,704008
2,235833	0,1	7,704558
2,237500	0,1	7,706810
2,239167	0,1	7,762017
2,240833	0,1	7,775100
2,242500	0,1	7,767442
2,244167	0,1	7,783947
2,245833	0,1	7,783951
2,247500	0,1	7,812886
2,249167	0,1	7,826399
2,250833	0,1	7,764476
2,252500	0,1	7,805226
2,254167	0,1	7,814187
2,255833	0,1	7,861386
2,257500	0,1	7,890597
2,259167	0,1	7,820660
2,260833	0,1	7,887985
2,262500	0,1	7,877090
2,264167	0,1	7,843699
2,265833	0,1	7,896106
2,267500	0,1	7,894439
2,269167	0,1	7,894266
2,270833	0,1	7,920374
2,272500	0,1	7,886250
2,274167	0,1	7,871315
2,275833	0,1	7,883319
2,277500	0,1	7,857694
2,279167	0,1	7,868695
2,280833	0,1	7,894806
2,282500	0,1	7,873756
2,284167	0,1	7,862803
2,285833	0,1	7,836512
2,287500	0,1	7,808040
2,289167	0,1	7,802076
2,290833	0,1	7,828373
2,292500	0,1	7,773052
2,294167	0,1	7,806798
2,295833	0,1	7,774728
2,297500	0,1	7,773766
2,299167	0,1	7,725372
2,300833	0,1	7,758661
2,302500	0,1	7,681455
2,304167	0,1	7,709218
2,305833	0,1	7,676010
2,307500	0,1	7,638435
2,309167	0,1	7,623585
2,310833	0,1	7,618648
2,312500	0,1	7,623111
2,314167	0,1	7,570156
2,315833	0,1	7,547583
2,317500	0,1	7,538990
2,319167	0,1	7,513541
2,320833	0,1	7,478391
2,322500	0,1	7,446965
2,324167	0,1	7,441272
2,325833	0,1	7,431672
2,327500	0,1	7,415728
2,329167	0,1	7,378167
2,330833	0,1	7,340407
2,332500	0,1	7,300793
2,334167	0,1	7,281495
2,335833	0,1	7,261178
2,337500	0,1	7,232567
2,339167	0,1	7,219891
2,340833	0,1	7,168181
2,342500	0,1	7,154289
2,344167	0,1	7,112369
2,345833	0,1	7,075006
2,347500	0,1	7,077800
2,349167	0,1	7,030198
2,350833	0,1	7,033269
2,352500	0,1	7,016221
2,354167	0,1	6,973290
2,355833	0,1	6,941817
2,357500	0,1	6,946274
2,359167	0,1	6,906611
2,360833	0,1	6,896547
2,362500	0,1	6,849344
2,364167	0,1	6,856044
2,365833	0,1	6,853817
2,367500	0,1	6,774034
2,369167	0,1	6,760879
2,370833	0,1	6,746725
2,372500	0,1	6,712879
2,374167	0,1	6,719375
2,375833	0,1	6,711099
2,377500	0,1	6,665310
2,379167	0,1	6,644160
2,380833	0,1	6,648623
2,382500	0,1	6,614746
2,384167	0,1	6,610288
2,385833	0,1	6,587424
2,387500	0,1	6,579755
2,389167	0,1	6,540579
2,390833	0,1	6,516040
2,392500	0,1	6,549221
2,394167	0,1	6,547507
2,395833	0,1	6,570097
2,397500	0,1	6,520874
2,399167	0,1	6,516978
2,400833	0,1	6,529088
2,402500	0,1	6,558551
2,404167	0,1	6,515864
2,405833	0,1	6,537633
2,407500	0,1	6,501725
2,409167	0,1	6,495856
2,410833	0,1	6,488491
2,412500	0,1	6,493036
2,414167	0,1	6,521888
2,415833	0,1	6,544124
2,417500	0,1	6,570657
2,419167	0,1	6,511095
2,420833	0,1	6,569718
2,422500	0,1	6,563671
2,424167	0,1	6,607792
2,425833	0,1	6,632170
2,427500	0,1	6,639701
2,429167	0,1	6,648840
2,430833	0,1	6,639506
2,432500	0,1	6,636255
2,434167	0,1	6,656174
2,435833	0,1	6,649213
2,437500	0,1	6,689587
2,439167	0,1	6,683411
2,440833	0,1	6,733684
2,442500	0,1	6,745907
2,444167	0,1	6,808454
2,445833	0,1	6,784803
2,447500	0,1	6,838527
2,449167	0,1	6,822993
2,450833	0,1	6,834061
2,452500	0,1	6,862838
2,454167	0,1	6,916373
2,455833	0,1	6,874301
2,457500	0,1	6,913586
2,459167	0,1	6,914424
2,460833	0,1	6,941701
2,462500	0,1	6,933428
2,464167	0,1	6,959959
2,465833	0,1	6,977753
2,467500	0,1	7,004661
2,469167	0,1	6,952338
2,470833	0,1	6,981013
2,472500	0,1	7,017975
2,474167	0,1	7,039135
2,475833	0,1	6,962028
2,477500	0,1	7,018443
2,479167	0,1	7,008863
2,480833	0,1	7,033363
2,482500	0,1	7,009429
2,484167	0,1	7,023854
2,485833	0,1	7,037738
2,487500	0,1	7,049384
2,489167	0,1	7,022846
2,490833	0,1	7,013989
2,492500	0,1	7,056926
2,494167	0,1	7,024243
2,495833	0,1	7,004033
2,497500	0,1	7,064093
2,499167	0,1	6,995748
2,500833	0,1	7,031581
2,502500	0,1	7,052925
2,504167	0,1	7,030392
2,505833	0,1	7,053109
2,507500	0,1	7,051622
2,509167	0,1	7,061121
2,510833	0,1	7,104153
2,512500	0,1	7,098018
2,514167	0,1	7,094290
2,515833	0,1	7,173836
2,517500	0,1	7,163793
2,519167	0,1	7,165191
2,520833	0,1	7,152984
2,522500	0,1	7,226019
2,524167	0,1	7,243087
2,525833	0,1	7,254739
2,527500	0,1	7,297417
2,529167	0,1	7,313547
2,530833	0,1	7,348872
2,532500	0,1	7,356150
2,534167	0,1	7,378517
2,535833	0,1	7,448618
2,537500	0,1	7,490866
2,539167	0,1	7,507092
2,540833	0,1	7,587190
2,542500	0,1	7,592793
2,544167	0,1	7,647352
2,545833	0,1	7,684292
2,547500	0,1	7,701751
2,549167	0,1	7,756419
2,550833	0,1	7,814255
2,552500	0,1	7,855143
2,554167	0,1	7,845732
2,555833	0,1	7,939691
2,557500	0,1	7,903795
2,559167	0,1	7,977423
2,560833	0,1	8,027156
2,562500	0,1	8,047157
2,564167	0,1	8,103929
2,565833	0,1	8,111408
2,567500	0,1	8,141207
2,569167	0,1	8,169695
2,570833	0,1	8,178296
2,572500	0,1	8,244859
2,574167	0,1	8,286963
2,575833	0,1	8,301125
2,577500	0,1	8,295996
2,579167	0,1	8,347401
2,580833	0,1	8,321342
2,582500	0,1	8,301200
2,584167	0,1	8,367770
2,585833	0,1	8,304036
2,587500	0,1	8,354417
2,589167	0,1	8,384247
2,590833	0,1	8,350430
2,592500	0,1	8,348101
2,594167	0,1	8,383180
2,595833	0,1	8,331584
2,597500	0,1	8,320914
2,599167	0,1	8,305301
2,600833	0,1	8,291420
2,602500	0,1	8,281037
2,604167	0,1	8,233231
2,605833	0,1	8,245526
2,607500	0,1	8,225167
2,609167	0,1	8,238027
2,610833	0,1	8,168773
2,612500	0,1	8,183774
2,614167	0,1	8,072232
2,615833	0,1	8,063963
2,617500	0,1	8,036797
2,619167	0,1	8,010087
2,620833	0,1	7,923035
2,622500	0,1	7,952485
2,624167	0,1	7,908543
2,625833	0,1	7,806290
2,627500	0,1	7,816602
2,629167	0,1	7,766322
2,630833	0,1	7,706069
2,632500	0,1	7,662489
2,634167	0,1	7,599629
2,635833	0,1	7,556715
2,637500	0,1	7,501240
2,639167	0,1	7,455829
2,640833	0,1	7,401469
2,642500	0,1	7,376755
2,644167	0,1	7,283004
2,645833	0,1	7,205553
2,647500	0,1	7,158863
2,649167	0,1	7,099424
2,650833	0,1	7,006651
2,652500	0,1	6,972452
2,654167	0,1	6,911654
2,655833	0,1	6,825351
2,657500	0,1	6,798504
2,659167	0,1	6,739317
2,660833	0,1	6,721073
2,662500	0,1	6,605225
2,664167	0,1	6,589647
2,665833	0,1	6,451989
2,667500	0,1	6,433907
2,669167	0,1	6,374667
2,670833	0,1	6,300369
2,672500	0,1	6,206086
2,674167	0,1	6,189872
2,675833	0,1	6,119059
2,677500	0,1	6,051676
2,679167	0,1	6,012724
2,680833	0,1	5,957001
2,682500	0,1	5,848949
2,684167	0,1	5,788337
2,685833	0,1	5,710350
2,687500	0,1	5,711089
2,689167	0,1	5,621046
2,690833	0,1	5,553368
2,692500	0,1	5,530529
2,694167	0,1	5,471075
2,695833	0,1	5,418026
2,697500	0,1	5,345618
2,699167	0,1	5,290408
2,700833	0,1	5,189454
2,702500	0,1	5,168523
2,704167	0,1	5,144502
2,705833	0,1	5,070027
2,707500	0,1	5,038694
2,709167	0,1	4,984099
2,710833	0,1	4,963559
2,712500	0,1	4,870104
2,714167	0,1	4,798373
2,715833	0,1	4,803379
2,717500	0,1	4,677909
2,719167	0,1	4,688617
2,720833	0,1	4,620545
2,722500	0,1	4,597234
2,724167	0,1	4,567004
2,725833	0,1	4,503113
2,727500	0,1	4,459758
2,729167	0,1	4,403859
2,730833	0,1	4,357196
2,732500	0,1	4,322033
2,734167	0,1	4,306317
2,735833	0,1	4,281946
2,737500	0,1	4,201104
2,739167	0,1	4,179995
2,740833	0,1	4,174765
2,742500	0,1	4,152746
2,744167	0,1	4,059277
2,745833	0,1	4,024057
2,747500	0,1	4,002989
2,749167	0,1	3,975589
2,750833	0,1	3,976359
2,752500	0,1	3,897735
2,754167	0,1	3,888885
2,755833	0,1	3,836258
2,757500	0,1	3,854572
2,759167	0,1	3,817898
2,760833	0,1	3,798324
2,762500	0,1	3,760041
2,764167	0,1	3,745438
2,765833	0,1	3,687080
2,767500	0,1	3,671827
2,769167	0,1	3,634745
2,770833	0,1	3,617712
2,772500	0,1	3,640147
2,774167	0,1	3,545510
2,775833	0,1	3,562431
2,777500	0,1	3,521182
2,779167	0,1	3,511778
2,780833	0,1	3,511413
2,782500	0,1	3,399485
2,784167	0,1	3,422312
2,785833	0,1	3,402487
2,787500	0,1	3,383584
2,789167	0,1	3,375479
2,790833	0,1	3,383442
2,792500	0,1	3,376241
2,794167	0,1	3,326393
2,795833	0,1	3,295448
2,797500	0,1	3,318197
2,799167	0,1	3,228806
2,800833	0,1	3,245466
2,802500	0,1	3,213942
2,804167	0,1	3,184510
2,805833	0,1	3,190711
2,807500	0,1	3,194528
2,809167	0,1	3,155477
2,810833	0,1	3,113037
2,812500	0,1	3,154647
2,814167	0,1	3,116267
2,815833	0,1	3,073124
2,817500	0,1	3,130000
2,819167	0,1	3,025602
2,820833	0,1	3,055736
2,822500	0,1	3,020355
2,824167	0,1	3,005915
2,825833	0,1	2,980584
2,827500	0,1	3,002803
2,829167	0,1	2,957926
2,830833	0,1	2,970971
2,832500	0,1	2,982854
2,834167	0,1	2,905872
2,835833	0,1	2,907653
2,837500	0,1	2,888420
2,839167	0,1	2,903424
2,840833	0,1	2,819997
2,842500	0,1	2,900520
2,844167	0,1	2,862234
2,845833	0,1	2,815380
2,847500	0,1	2,774781
2,849167	0,1	2,801311
2,850833	0,1	2,817824
2,852500	0,1	2,779300
2,854167	0,1	2,770684
2,855833	0,1	2,809415
2,857500	0,1	2,725430
2,859167	0,1	2,715951
2,860833	0,1	2,700449
2,862500	0,1	2,685465
2,864167	0,1	2,662870
2,865833	0,1	2,707042
2,867500	0,1	2,705755
2,869167	0,1	2,669329
2,870833	0,1	2,658914
2,872500	0,1	2,622000
2,874167	0,1	2,622127
2,875833	0,1	2,608866
2,877500	0,1	2,622914
2,879167	0,1	2,618895
2,880833	0,1	2,592373
2,882500	0,1	2,541182
2,884167	0,1	2,554286
2,885833	0,1	2,545040
2,887500	0,1	2,540811
2,889167	0,1	2,510487
2,890833	0,1	2,515860
2,892500	0,1	2,505608
2,894167	0,1	2,519943
2,895833	0,1	2,504175
2,897500	0,1	2,482453
2,899167	0,1	2,464458
2,900833	0,1	2,447394
2,902500	0,1	2,437644
2,904167	0,1	2,442587
2,905833	0,1	2,435779
2,907500	0,1	2,403743
2,909167	0,1	2,430752
2,910833	0,1	2,409187
2,912500	0,1	2,388757
2,914167	0,1	2,395704
2,915833	0,1	2,365108
2,917500	0,1	2,405804
2,919167	0,1	2,356873
2,920833	0,1	2,358938
2,922500	0,1	2,349119
2,924167	0,1	2,343245
2,925833	0,1	2,321603
2,927500	0,1	2,333921
2,929167	0,1	2,290359
2,930833	0,1	2,322448
2,932500	0,1	2,316654
2,934167	0,1	2,328904
2,935833	0,1	2,271944
2,937500	0,1	2,289918
2,939167	0,1	2,259831
2,940833	0,1	2,286118
2,942500	0,1	2,227664
2,944167	0,1	2,218906
2,945833	0,1	2,248282
2,947500	0,1	2,213616
2,949167	0,1	2,229943
2,950833	0,1	2,228086
2,952500	0,1	2,219631
2,954167	0,1	2,187033
2,955833	0,1	2,225850
2,957500	0,1	2,187965
2,959167	0,1	2,215888
2,960833	0,1	2,182724
2,962500	0,1	2,200280
2,964167	0,1	2,182439
2,965833	0,1	2,131880
2,967500	0,1	2,153414
2,969167	0,1	2,131221
2,970833	0,1	2,184221
2,972500	0,1	2,112594
2,974167	0,1	2,161585
2,975833	0,1	2,138602
2,977500	0,1	2,133568
2,979167	0,1	2,131427
2,980833	0,1	2,120113
2,982500	0,1	2,122623
2,984167	0,1	2,095114
2,985833	0,1	2,099835
2,987500	0,1	2,095254
2,989167	0,1	2,106499
2,990833	0,1	2,070205
2,992500	0,1	2,094967
2,994167	0,1	2,106517
2,995833	0,1	2,072847
2,997500	0,1	2,086883
2,999167	0,1	2,098986
3,000833	0,1	2,102282
3,002500	0,1	2,085237
3,004167	0,1	2,048857
3,005833	0,1	2,071325
3,007500	0,1	2,028448
3,009167	0,1	2,064310
3,010833	0,1	2,027576
3,012500	0,1	2,027856
3,014167	0,1	2,049478
3,015833	0,1	2,052000
3,017500	0,1	2,081288
3,019167	0,1	2,062830
3,020833	0,1	2,044480
3,022500	0,1	2,057161
3,024167	0,1	2,063378
3,025833	0,1	2,021507
3,027500	0,1	1,989748
3,029167	0,1	2,019469
3,030833	0,1	1,991263
3,032500	0,1	1,992475
3,034167	0,1	2,050907
3,035833	0,1	1,985688
3,037500	0,1	1,983530
3,039167	0,1	1,989757
3,040833	0,1	1,999580
3,042500	0,1	2,010241
3,044167	0,1	1,984268
3,045833	0,1	1,975728
3,047500	0,1	2,000134
3,049167	0,1	1,996640
3,050833	0,1	1,979241
3,052500	0,1	1,980742
3,054167	0,1	2,005673
3,055833	0,1	1,993628
3,057500	0,1	1,999362
3,059167	0,1	1,969219
3,060833	0,1	1,934431
3,062500	0,1	1,995335
3,064167	0,1	1,946242
3,065833	0,1	2,007947
3,067500	0,1	1,957623
3,069167	0,1	2,001635
3,070833	0,1	1,958188
3,072500	0,1	1,934547
3,074167	0,1	1,946950
3,075833	0,1	1,930837
3,077500	0,1	1,926382
3,079167	0,1	1,939049
3,080833	0,1	1,902317
3,082500	0,1	1,936753
3,084167	0,1	1,962047
3,085833	0,1	1,973434
3,087500	0,1	1,943660
3,089167	0,1	1,967272
3,090833	0,1	1,941656
3,092500	0,1	1,976084
3,094167	0,1	1,958835
3,095833	0,1	1,977003
3,097500	0,1	1,973507
3,099167	0,1	1,946940
3,100833	0,1	1,957886
3,102500	0,1	2,022621
3,104167	0,1	1,962565
3,105833	0,1	1,982316
3,107500	0,1	2,016758
3,109167	0,1	2,028079
3,110833	0,1	2,002515
3,112500	0,1	2,029650
3,114167	0,1	1,989976
3,115833	0,1	2,008584
3,117500	0,1	2,026779
3,119167	0,1	2,052995
3,120833	0,1	2,084589
3,122500	0,1	2,057730
3,124167	0,1	2,061879
3,125833	0,1	2,110007
3,127500	0,1	2,131723
3,129167	0,1	2,126137
3,130833	0,1	2,139020
3,132500	0,1	2,173913
3,134167	0,1	2,170050
3,135833	0,1	2,147844
3,137500	0,1	2,180428
3,139167	0,1	2,199564
3,140833	0,1	2,228441
3,142500	0,1	2,190832
3,144167	0,1	2,268118
3,145833	0,1	2,281828
3,147500	0,1	2,265710
3,149167	0,1	2,290562
3,150833	0,1	2,280969
3,152500	0,1	2,321950
3,154167	0,1	2,285559
3,155833	0,1	2,349033
3,157500	0,1	2,340591
3,159167	0,1	2,354063
3,160833	0,1	2,360729
3,162500	0,1	2,417412
3,164167	0,1	2,421440
3,165833	0,1	2,443658
3,167500	0,1	2,402597
3,169167	0,1	2,411688
3,170833	0,1	2,430826
3,172500	0,1	2,424022
3,174167	0,1	2,472613
3,175833	0,1	2,463594
3,177500	0,1	2,454776
3,179167	0,1	2,482154
3,180833	0,1	2,498358
3,182500	0,1	2,501659
3,184167	0,1	2,474853
3,185833	0,1	2,483878
3,187500	0,1	2,521009
3,189167	0,1	2,477797
3,190833	0,1	2,540647
3,192500	0,1	2,543387
3,194167	0,1	2,509339
3,195833	0,1	2,515785
3,197500	0,1	2,514064
3,199167	0,1	2,517863
3,200833	0,1	2,459306
3,202500	0,1	2,496062
3,204167	0,1	2,522662
3,205833	0,1	2,522453
3,207500	0,1	2,506255
3,209167	0,1	2,506033
3,210833	0,1	2,491841
3,212500	0,1	2,471698
3,214167	0,1	2,467464
3,215833	0,1	2,515415
3,217500	0,1	2,460594
3,219167	0,1	2,468249
3,220833	0,1	2,482299
3,222500	0,1	2,451627
3,224167	0,1	2,433128
3,225833	0,1	2,443516
3,227500	0,1	2,419797
3,229167	0,1	2,420865
3,230833	0,1	2,412985
3,232500	0,1	2,401300
3,234167	0,1	2,382667
3,235833	0,1	2,369405
3,237500	0,1	2,352349
3,239167	0,1	2,325618
3,240833	0,1	2,361510
3,242500	0,1	2,334430
3,244167	0,1	2,299245
3,245833	0,1	2,300094
3,247500	0,1	2,302888
3,249167	0,1	2,285058
3,250833	0,1	2,241701
3,252500	0,1	2,239046
3,254167	0,1	2,254951
3,255833	0,1	2,263124
3,257500	0,1	2,231097
3,259167	0,1	2,160891
3,260833	0,1	2,192532
3,262500	0,1	2,178428
3,264167	0,1	2,188679
3,265833	0,1	2,147133
3,267500	0,1	2,143186
3,269167	0,1	2,113031
3,270833	0,1	2,097331
3,272500	0,1	2,108872
3,274167	0,1	2,049926
3,275833	0,1	2,087741
3,277500	0,1	2,016410
3,279167	0,1	2,058443
3,280833	0,1	2,040263
3,282500	0,1	2,012958
3,284167	0,1	1,979977
3,285833	0,1	1,961691
3,287500	0,1	1,947959
3,289167	0,1	1,949105
3,290833	0,1	1,924453
3,292500	0,1	1,881858
3,294167	0,1	1,892294
3,295833	0,1	1,876134
3,297500	0,1	1,856161
3,299167	0,1	1,875193
3,300833	0,1	1,865029
3,302500	0,1	1,878922
3,304167	0,1	1,824024
3,305833	0,1	1,810554
3,307500	0,1	1,801820
3,309167	0,1	1,804969
3,310833	0,1	1,790746
3,312500	0,1	1,730260
3,314167	0,1	1,718738
3,315833	0,1	1,734408
3,317500	0,1	1,750278
3,319167	0,1	1,739293
3,320833	0,1	1,729111
3,322500	0,1	1,676580
3,324167	0,1	1,677323
3,325833	0,1	1,658454
3,327500	0,1	1,672918
3,329167	0,1	1,671498
3,330833	0,1	1,635595
3,332500	0,1	1,641956
3,334167	0,1	1,583984
3,335833	0,1	1,611972
3,337500	0,1	1,604797
3,339167	0,1	1,536272
3,340833	0,1	1,565087
3,342500	0,1	1,534061
3,344167	0,1	1,556345
3,345833	0,1	1,512902
3,347500	0,1	1,549716
3,349167	0,1	1,507648
3,350833	0,1	1,532470
3,352500	0,1	1,500766
3,354167	0,1	1,523016
3,355833	0,1	1,489687
3,357500	0,1	1,478977
3,359167	0,1	1,490542
3,360833	0,1	1,488190
3,362500	0,1	1,448951
3,364167	0,1	1,487623
3,365833	0,1	1,461889
3,367500	0,1	1,433720
3,369167	0,1	1,433204
3,370833	0,1	1,458571
3,372500	0,1	1,429242
3,374167	0,1	1,407932
3,375833	0,1	1,444360
3,377500	0,1	1,375895
3,379167	0,1	1,428023
3,380833	0,1	1,390981
3,382500	0,1	1,337433
3,384167	0,1	1,408285
3,385833	0,1	1,352168
3,387500	0,1	1,380177
3,389167	0,1	1,354602
3,390833	0,1	1,337224
3,392500	0,1	1,367460
3,394167	0,1	1,322296
3,395833	0,1	1,322905
3,397500	0,1	1,363106
3,399167	0,1	1,357790
3,400833	0,1	1,349492
3,402500	0,1	1,358054
3,404167	0,1	1,303259
3,405833	0,1	1,330134
3,407500	0,1	1,281356
3,409167	0,1	1,301775
3,410833	0,1	1,307483
3,412500	0,1	1,318508
3,414167	0,1	1,311547
3,415833	0,1	1,319332
3,417500	0,1	1,261746
3,419167	0,1	1,287374
3,420833	0,1	1,290708
3,422500	0,1	1,289534
3,424167	0,1	1,277598
3,425833	0,1	1,277996
3,427500	0,1	1,306057
3,429167	0,1	1,295704
3,430833	0,1	1,266820
3,432500	0,1	1,236202
3,434167	0,1	1,240698
3,435833	0,1	1,260794
3,437500	0,1	1,266190
3,439167	0,1	1,256165
3,440833	0,1	1,245559
3,442500	0,1	1,245269
3,444167	0,1	1,284687
3,445833	0,1	1,232725
3,447500	0,1	1,244888
3,449167	0,1	1,220712
3,450833	0,1	1,258950
3,452500	0,1	1,227993
3,454167	0,1	1,217694
3,455833	0,1	1,212590
3,457500	0,1	1,196443
3,459167	0,1	1,249271
3,460833	0,1	1,228634
3,462500	0,1	1,242692
3,464167	0,1	1,180262
3,465833	0,1	1,205727
3,467500	0,1	1,234570
3,469167	0,1	1,242030
3,470833	0,1	1,237748
3,472500	0,1	1,225260
3,474167	0,1	1,214077
3,475833	0,1	1,272035
3,477500	0,1	1,243122
3,479167	0,1	1,232271
3,480833	0,1	1,232045
3,482500	0,1	1,252720
3,484167	0,1	1,225551
3,485833	0,1	1,239144
3,487500	0,1	1,248795
3,489167	0,1	1,210535
3,490833	0,1	1,250939
3,492500	0,1	1,262527
3,494167	0,1	1,256653
3,495833	0,1	1,234648
3,497500	0,1	1,264166
3,499167	0,1	1,267410
3,500833	0,1	1,256654
3,502500	0,1	1,252834
3,504167	0,1	1,269649
3,505833	0,1	1,274733
3,507500	0,1	1,254083
3,509167	0,1	1,254763
3,510833	0,1	1,250795
3,512500	0,1	1,260730
3,514167	0,1	1,260488
3,515833	0,1	1,295781
3,517500	0,1	1,284633
3,519167	0,1	1,247960
3,520833	0,1	1,259974
3,522500	0,1	1,262285
3,524167	0,1	1,299044
3,525833	0,1	1,261717
3,527500	0,1	1,279433
3,529167	0,1	1,262645
3,530833	0,1	1,301484
3,532500	0,1	1,283037
3,534167	0,1	1,279858
3,535833	0,1	1,276109
3,537500	0,1	1,302530
3,539167	0,1	1,290090
3,540833	0,1	1,263956
3,542500	0,1	1,282937
3,544167	0,1	1,292459
3,545833	0,1	1,261117
3,547500	0,1	1,284090
3,549167	0,1	1,276023
3,550833	0,1	1,268168
3,552500	0,1	1,316392
3,554167	0,1	1,274786
3,555833	0,1	1,332211
3,557500	0,1	1,267515
3,559167	0,1	1,314306
3,560833	0,1	1,281020
3,562500	0,1	1,284252
3,564167	0,1	1,305326
3,565833	0,1	1,264893
3,567500	0,1	1,285357
3,569167	0,1	1,274803
3,570833	0,1	1,272448
3,572500	0,1	1,311979
3,574167	0,1	1,309326
3,575833	0,1	1,301562
3,577500	0,1	1,293396
3,579167	0,1	1,292661
3,580833	0,1	1,302377
3,582500	0,1	1,275915
3,584167	0,1	1,283251
3,585833	0,1	1,294479
3,587500	0,1	1,276557
3,589167	0,1	1,288265
3,590833	0,1	1,278730
3,592500	0,1	1,272893
3,594167	0,1	1,262511
3,595833	0,1	1,260645
3,597500	0,1	1,267011
3,599167	0,1	1,285025
3,600833	0,1	1,270478
3,602500	0,1	1,276817
3,604167	0,1	1,267813
3,605833	0,1	1,273222
3,607500	0,1	1,243545
3,609167	0,1	1,255428
3,610833	0,1	1,256585
3,612500	0,1	1,267521
3,614167	0,1	1,263087
3,615833	0,1	1,236867
3,617500	0,1	1,265541
3,619167	0,1	1,269030
3,620833	0,1	1,217260
3,622500	0,1	1,184108
3,624167	0,1	1,281079
3,625833	0,1	1,251246
3,627500	0,1	1,224709
3,629167	0,1	1,224813
3,630833	0,1	1,194498
3,632500	0,1	1,206818
3,634167	0,1	1,226562
3,635833	0,1	1,208733
3,637500	0,1	1,192715
3,639167	0,1	1,206134
3,640833	0,1	1,193314
3,642500	0,1	1,215113
3,644167	0,1	1,200633
3,645833	0,1	1,257747
3,647500	0,1	1,190911
3,649167	0,1	1,191579
3,650833	0,1	1,206174
3,652500	0,1	1,185019
3,654167	0,1	1,156913
3,655833	0,1	1,212244
3,657500	0,1	1,186266
3,659167	0,1	1,181709
3,660833	0,1	1,167203
3,662500	0,1	1,160810
3,664167	0,1	1,155845
3,665833	0,1	1,172813
3,667500	0,1	1,139968
3,669167	0,1	1,149053
3,670833	0,1	1,166024
3,672500	0,1	1,199490
3,674167	0,1	1,128306
3,675833	0,1	1,144130
3,677500	0,1	1,165043
3,679167	0,1	1,123823
3,680833	0,1	1,131554
3,682500	0,1	1,169393
3,684167	0,1	1,194327
3,685833	0,1	1,128843
3,687500	0,1	1,144971
3,689167	0,1	1,144998
3,690833	0,1	1,118030
3,692500	0,1	1,150295
3,694167	0,1	1,139633
3,695833	0,1	1,115744
3,697500	0,1	1,140086
3,699167	0,1	1,137528
3,700833	0,1	1,153043
3,702500	0,1	1,121601
3,704167	0,1	1,090321
3,705833	0,1	1,111704
3,707500	0,1	1,135987
3,709167	0,1	1,102422
3,710833	0,1	1,116707
3,712500	0,1	1,099268
3,714167	0,1	1,132613
3,715833	0,1	1,132672
3,717500	0,1	1,112306
3,719167	0,1	1,101566
3,720833	0,1	1,153612
3,722500	0,1	1,111626
3,724167	0,1	1,101839
3,725833	0,1	1,130592
3,727500	0,1	1,129471
3,729167	0,1	1,125059
3,730833	0,1	1,090886
3,732500	0,1	1,068766
3,734167	0,1	1,144023
3,735833	0,1	1,109605
3,737500	0,1	1,151843
3,739167	0,1	1,086601
3,740833	0,1	1,111427
3,742500	0,1	1,081210
3,744167	0,1	1,123316
3,745833	0,1	1,129981
3,747500	0,1	1,125520
3,749167	0,1	1,126673
3,750833	0,1	1,098157
3,752500	0,1	1,132152
3,754167	0,1	1,146505
3,755833	0,1	1,136863
3,757500	0,1	1,142935
3,759167	0,1	1,129301
3,760833	0,1	1,127697
3,762500	0,1	1,094586
3,764167	0,1	1,129660
3,765833	0,1	1,113591
3,767500	0,1	1,130885
3,769167	0,1	1,138656
3,770833	0,1	1,134683
3,772500	0,1	1,117344
3,774167	0,1	1,135833
3,775833	0,1	1,136728
3,777500	0,1	1,129143
3,779167	0,1	1,116872
3,780833	0,1	1,107786
3,782500	0,1	1,156723
3,784167	0,1	1,144977
3,785833	0,1	1,138594
3,787500	0,1	1,164933
3,789167	0,1	1,143430
3,790833	0,1	1,151379
3,792500	0,1	1,172499
3,794167	0,1	1,129298
3,795833	0,1	1,177308
3,797500	0,1	1,191840
3,799167	0,1	1,166588
3,800833	0,1	1,166978
3,802500	0,1	1,151081
3,804167	0,1	1,094855
3,805833	0,1	1,144385
3,807500	0,1	1,179282
3,809167	0,1	1,148288
3,810833	0,1	1,172168
3,812500	0,1	1,216353
3,814167	0,1	1,145057
3,815833	0,1	1,132492
3,817500	0,1	1,137634
3,819167	0,1	1,175619
3,820833	0,1	1,157581
3,822500	0,1	1,125107
3,824167	0,1	1,121884
3,825833	0,1	1,142552
3,827500	0,1	1,125011
3,829167	0,1	1,129494
3,830833	0,1	1,186198
3,832500	0,1	1,182137
3,834167	0,1	1,115952
3,835833	0,1	1,151818
3,837500	0,1	1,151407
3,839167	0,1	1,120736
3,840833	0,1	1,141068
3,842500	0,1	1,127478
3,844167	0,1	1,153107
3,845833	0,1	1,137992
3,847500	0,1	1,143645
3,849167	0,1	1,125128
3,850833	0,1	1,104809
3,852500	0,1	1,142261
3,854167	0,1	1,107962
3,855833	0,1	1,121722
3,857500	0,1	1,118064
3,859167	0,1	1,113574
3,860833	0,1	1,110265
3,862500	0,1	1,103875
3,864167	0,1	1,134543
3,865833	0,1	1,111805
3,867500	0,1	1,123744
3,869167	0,1	1,111003
3,870833	0,1	1,091657
3,872500	0,1	1,123121
3,874167	0,1	1,070019
3,875833	0,1	1,108968
3,877500	0,1	1,080435
3,879167	0,1	1,089012
3,880833	0,1	1,097360
3,882500	0,1	1,091744
3,884167	0,1	1,087151
3,885833	0,1	1,087203
3,887500	0,1	1,059264
3,889167	0,1	1,083310
3,890833	0,1	1,033651
3,892500	0,1	1,068936
3,894167	0,1	1,060967
3,895833	0,1	1,084178
3,897500	0,1	1,055762
3,899167	0,1	1,031715
3,900833	0,1	1,022980
3,902500	0,1	1,051573
3,904167	0,1	1,062078
3,905833	0,1	1,035415
3,907500	0,1	1,000495
3,909167	0,1	1,038866
3,910833	0,1	1,037814
3,912500	0,1	1,041315
3,914167	0,1	1,040739
3,915833	0,1	0,998988
3,917500	0,1	1,016402
3,919167	0,1	1,012669
3,920833	0,1	0,997340
3,922500	0,1	0,989622
3,924167	0,1	1,012764
3,925833	0,1	1,012417
3,927500	0,1	1,011709
3,929167	0,1	0,988014
3,930833	0,1	0,958670
3,932500	0,1	1,006487
3,934167	0,1	0,980206
3,935833	0,1	0,985408
3,937500	0,1	0,999588
3,939167	0,1	0,990108
3,940833	0,1	1,012960
3,942500	0,1	0,980691
3,944167	0,1	0,998618
3,945833	0,1	0,966349
3,947500	0,1	1,009097
3,949167	0,1	0,966129
3,950833	0,1	0,967757
3,952500	0,1	0,983056
3,954167	0,1	0,983667
3,955833	0,1	0,944042
3,957500	0,1	0,981151
3,959167	0,1	0,954521
3,960833	0,1	0,926939
3,962500	0,1	0,960194
3,964167	0,1	0,973571
3,965833	0,1	0,928578
3,967500	0,1	0,950457
3,969167	0,1	0,962583
3,970833	0,1	0,942621
3,972500	0,1	0,945861
3,974167	0,1	0,971284
3,975833	0,1	0,956122
3,977500	0,1	0,963220
3,979167	0,1	0,958309
3,980833	0,1	0,971902
3,982500	0,1	0,987009
3,984167	0,1	0,881277
3,985833	0,1	0,929940
3,987500	0,1	0,975875
3,989167	0,1	0,949213
3,990833	0,1	0,915268
3,992500	0,1	0,953537
3,994167	0,1	0,968036
3,995833	0,1	0,986943
3,997500	0,1	0,969786
3,999167	0,1	0,950432
4,000833	0,1	0,906983
4,002500	0,1	0,953826
4,004167	0,1	0,944482
4,005833	0,1	0,946056
4,007500	0,1	0,942227
4,009167	0,1	0,962126
4,010833	0,1	0,945547
4,012500	0,1	0,952809
4,014167	0,1	0,963927
4,015833	0,1	0,953679
4,017500	0,1	0,917485
4,019167	0,1	0,960574
4,020833	0,1	0,922400
4,022500	0,1	0,956076
4,024167	0,1	0,979074
4,025833	0,1	0,993113
4,027500	0,1	0,970978
4,029167	0,1	0,982218
4,030833	0,1	0,995982
4,032500	0,1	0,976699
4,034167	0,1	0,994855
4,035833	0,1	0,981750
4,037500	0,1	0,997688
4,039167	0,1	1,008657
4,040833	0,1	0,978725
4,042500	0,1	0,988071
4,044167	0,1	1,027515
4,045833	0,1	1,013968
4,047500	0,1	1,016050
4,049167	0,1	1,037071
4,050833	0,1	1,041893
4,052500	0,1	1,048716
4,054167	0,1	1,029011
4,055833	0,1	1,047455
4,057500	0,1	1,091470
4,059167	0,1	1,063385
4,060833	0,1	1,061043
4,062500	0,1	1,075320
4,064167	0,1	1,084023
4,065833	0,1	1,091872
4,067500	0,1	1,111258
4,069167	0,1	1,113611
4,070833	0,1	1,113283
4,072500	0,1	1,114793
4,074167	0,1	1,146056
4,075833	0,1	1,125012
4,077500	0,1	1,205563
4,079167	0,1	1,185151
4,080833	0,1	1,195635
4,082500	0,1	1,208725
4,084167	0,1	1,248722
4,085833	0,1	1,246644
4,087500	0,1	1,266875
4,089167	0,1	1,233894
4,090833	0,1	1,297150
4,092500	0,1	1,312139
4,094167	0,1	1,273589
4,095833	0,1	1,270363
4,097500	0,1	1,321076
4,099167	0,1	1,356604
4,100833	0,1	1,357170
4,102500	0,1	1,353087
4,104167	0,1	1,384480
4,105833	0,1	1,412688
4,107500	0,1	1,399275
4,109167	0,1	1,448046
4,110833	0,1	1,448719
4,112500	0,1	1,459709
4,114167	0,1	1,471142
4,115833	0,1	1,479885
4,117500	0,1	1,498198
4,119167	0,1	1,579560
4,120833	0,1	1,559473
4,122500	0,1	1,546441
4,124167	0,1	1,595446
4,125833	0,1	1,609399
4,127500	0,1	1,599935
4,129167	0,1	1,624533
4,130833	0,1	1,617185
4,132500	0,1	1,703201
4,134167	0,1	1,723239
4,135833	0,1	1,704062
4,137500	0,1	1,717223
4,139167	0,1	1,731887
4,140833	0,1	1,724888
4,142500	0,1	1,744700
4,144167	0,1	1,765299
4,145833	0,1	1,802109
4,147500	0,1	1,788455
4,149167	0,1	1,845476
4,150833	0,1	1,827375
4,152500	0,1	1,851858
4,154167	0,1	1,872339
4,155833	0,1	1,866329
4,157500	0,1	1,886850
4,159167	0,1	1,903834
4,160833	0,1	1,931471
4,162500	0,1	1,943292
4,164167	0,1	1,939062
4,165833	0,1	1,949797
4,167500	0,1	1,954954
4,169167	0,1	2,003368
4,170833	0,1	1,962044
4,172500	0,1	2,010588
4,174167	0,1	1,968708
4,175833	0,1	2,019402
4,177500	0,1	2,024204
4,179167	0,1	2,002574
4,180833	0,1	2,010946
4,182500	0,1	2,056362
4,184167	0,1	2,086019
4,185833	0,1	2,060308
4,187500	0,1	2,061740
4,189167	0,1	2,084583
4,190833	0,1	2,069969
4,192500	0,1	2,082155
4,194167	0,1	2,114383
4,195833	0,1	2,095840
4,197500	0,1	2,103071
4,199167	0,1	2,109294
4,200833	0,1	2,154216
4,202500	0,1	2,145327
4,204167	0,1	2,111891
4,205833	0,1	2,117109
4,207500	0,1	2,110454
4,209167	0,1	2,137880
4,210833	0,1	2,113240
4,212500	0,1	2,114308
4,214167	0,1	2,138736
4,215833	0,1	2,138526
4,217500	0,1	2,111301
4,219167	0,1	2,108161
4,220833	0,1	2,123125
4,222500	0,1	2,140449
4,224167	0,1	2,134371
4,225833	0,1	2,104076
4,227500	0,1	2,114955
4,229167	0,1	2,093599
4,230833	0,1	2,119254
4,232500	0,1	2,091484
4,234167	0,1	2,093907
4,235833	0,1	2,067548
4,237500	0,1	2,098267
4,239167	0,1	2,076782
4,240833	0,1	2,067684
4,242500	0,1	2,091169
4,244167	0,1	2,066553
4,245833	0,1	2,033221
4,247500	0,1	2,021762
4,249167	0,1	2,065752
4,250833	0,1	2,032383
4,252500	0,1	2,021559
4,254167	0,1	2,002800
4,255833	0,1	2,017407
4,257500	0,1	1,980744
4,259167	0,1	2,009296
4,260833	0,1	1,951678
4,262500	0,1	1,965839
4,264167	0,1	1,935707
4,265833	0,1	1,967340
4,267500	0,1	1,955106
4,269167	0,1	1,936627
4,270833	0,1	1,952591
4,272500	0,1	1,913432
4,274167	0,1	1,963897
4,275833	0,1	1,935807
4,277500	0,1	1,889327
4,279167	0,1	1,871405
4,280833	0,1	1,872481
4,282500	0,1	1,844680
4,284167	0,1	1,841132
4,285833	0,1	1,835633
4,287500	0,1	1,843624
4,289167	0,1	1,816586
4,290833	0,1	1,807056
4,292500	0,1	1,810492
4,294167	0,1	1,821800
4,295833	0,1	1,775416
4,297500	0,1	1,773267
4,299167	0,1	1,778650
4,300833	0,1	1,733203
4,302500	0,1	1,746113
4,304167	0,1	1,711219
4,305833	0,1	1,726377
4,307500	0,1	1,738040
4,309167	0,1	1,697695
4,310833	0,1	1,705276
4,312500	0,1	1,642024
4,314167	0,1	1,634723
4,315833	0,1	1,687313
4,317500	0,1	1,663911
4,319167	0,1	1,630394
4,320833	0,1	1,634280
4,322500	0,1	1,639160
4,324167	0,1	1,633131
4,325833	0,1	1,580593
4,327500	0,1	1,587052
4,329167	0,1	1,562897
4,330833	0,1	1,568888
4,332500	0,1	1,560875
4,334167	0,1	1,531994
4,335833	0,1	1,560223
4,337500	0,1	1,516546
4,339167	0,1	1,529389
4,340833	0,1	1,509661
4,342500	0,1	1,484861
4,344167	0,1	1,466680
4,345833	0,1	1,464353
4,347500	0,1	1,487001
4,349167	0,1	1,476911
4,350833	0,1	1,424629
4,352500	0,1	1,433049
4,354167	0,1	1,443857
4,355833	0,1	1,429440
4,357500	0,1	1,459050
4,359167	0,1	1,441307
4,360833	0,1	1,394577
4,362500	0,1	1,408964
4,364167	0,1	1,398717
4,365833	0,1	1,378990
4,367500	0,1	1,408737
4,369167	0,1	1,366101
4,370833	0,1	1,345524
4,372500	0,1	1,375492
4,374167	0,1	1,346679
4,375833	0,1	1,335379
4,377500	0,1	1,342010
4,379167	0,1	1,314923
4,380833	0,1	1,289473
4,382500	0,1	1,291774
4,384167	0,1	1,305638
4,385833	0,1	1,257216
4,387500	0,1	1,299396
4,389167	0,1	1,282236
4,390833	0,1	1,274890
4,392500	0,1	1,256390
4,394167	0,1	1,215592
4,395833	0,1	1,256708
4,397500	0,1	1,268762
4,399167	0,1	1,224360
4,400833	0,1	1,216385
4,402500	0,1	1,228759
4,404167	0,1	1,223616
4,405833	0,1	1,206736
4,407500	0,1	1,197372
4,409167	0,1	1,206488
4,410833	0,1	1,189564
4,412500	0,1	1,189649
4,414167	0,1	1,179936
4,415833	0,1	1,181418
4,417500	0,1	1,141559
4,419167	0,1	1,166131
4,420833	0,1	1,135399
4,422500	0,1	1,114391
4,424167	0,1	1,156280
4,425833	0,1	1,100709
4,427500	0,1	1,101259
4,429167	0,1	1,161197
4,430833	0,1	1,081288
4,432500	0,1	1,080756
4,434167	0,1	1,102475
4,435833	0,1	1,085499
4,437500	0,1	1,090431
4,439167	0,1	1,096534
4,440833	0,1	1,121193
4,442500	0,1	1,091619
4,444167	0,1	1,062808
4,445833	0,1	1,060585
4,447500	0,1	1,071356
4,449167	0,1	1,037440
4,450833	0,1	1,032260
4,452500	0,1	1,031866
4,454167	0,1	1,023126
4,455833	0,1	1,036822
4,457500	0,1	0,995065
4,459167	0,1	1,027582
4,460833	0,1	1,021542
4,462500	0,1	0,965815
4,464167	0,1	0,987164
4,465833	0,1	0,975151
4,467500	0,1	1,005336
4,469167	0,1	0,985506
4,470833	0,1	1,003801
4,472500	0,1	0,978212
4,474167	0,1	0,985565
4,475833	0,1	0,967314
4,477500	0,1	0,960108
4,479167	0,1	0,945677
4,480833	0,1	0,905082
4,482500	0,1	0,885502
4,484167	0,1	0,941867
4,485833	0,1	0,967203
4,487500	0,1	0,903866
4,489167	0,1	0,943120
4,490833	0,1	0,946568
4,492500	0,1	0,953538
4,494167	0,1	0,882199
4,495833	0,1	0,884753
4,497500	0,1	0,970331
4,499167	0,1	0,893967
4,500833	0,1	0,880576
4,502500	0,1	0,864283
4,504167	0,1	0,860681
4,505833	0,1	0,876393
4,507500	0,1	0,866627
4,509167	0,1	0,848307
4,510833	0,1	0,853737
4,512500	0,1	0,838728
4,514167	0,1	0,853121
4,515833	0,1	0,837413
4,517500	0,1	0,797632
4,519167	0,1	0,861398
4,520833	0,1	0,883846
4,522500	0,1	0,817306
4,524167	0,1	0,844729
4,525833	0,1	0,817969
4,527500	0,1	0,840812
4,529167	0,1	0,831656
4,530833	0,1	0,759685
4,532500	0,1	0,752440
4,534167	0,1	0,799988
4,535833	0,1	0,808033
4,537500	0,1	0,793735
4,539167	0,1	0,781557
4,540833	0,1	0,797425
4,542500	0,1	0,818150
4,544167	0,1	0,784968
4,545833	0,1	0,772911
4,547500	0,1	0,765745
4,549167	0,1	0,748652
4,550833	0,1	0,746109
4,552500	0,1	0,758221
4,554167	0,1	0,760696
4,555833	0,1	0,737566
4,557500	0,1	0,731682
4,559167	0,1	0,717807
4,560833	0,1	0,717894
4,562500	0,1	0,698914
4,564167	0,1	0,713942
4,565833	0,1	0,726022
4,567500	0,1	0,760560
4,569167	0,1	0,687390
4,570833	0,1	0,715736
4,572500	0,1	0,705818
4,574167	0,1	0,686187
4,575833	0,1	0,714355
4,577500	0,1	0,686129
4,579167	0,1	0,695787
4,580833	0,1	0,657084
4,582500	0,1	0,645448
4,584167	0,1	0,663241
4,585833	0,1	0,697680
4,587500	0,1	0,648670
4,589167	0,1	0,670568
4,590833	0,1	0,683613
4,592500	0,1	0,663123
4,594167	0,1	0,658007
4,595833	0,1	0,671659
4,597500	0,1	0,674683
4,599167	0,1	0,658433
4,600833	0,1	0,656183
4,602500	0,1	0,650269
4,604167	0,1	0,645256
4,605833	0,1	0,651770
4,607500	0,1	0,644323
4,609167	0,1	0,622709
4,610833	0,1	0,635353
4,612500	0,1	0,621258
4,614167	0,1	0,684630
4,615833	0,1	0,643886
4,617500	0,1	0,635907
4,619167	0,1	0,634684
4,620833	0,1	0,605137
4,622500	0,1	0,598707
4,624167	0,1	0,600479
4,625833	0,1	0,618751
4,627500	0,1	0,589655
4,629167	0,1	0,606574
4,630833	0,1	0,618103
4,632500	0,1	0,575490
4,634167	0,1	0,593633
4,635833	0,1	0,606321
4,637500	0,1	0,618428
4,639167	0,1	0,605521
4,640833	0,1	0,607799
4,642500	0,1	0,578572
4,644167	0,1	0,618903
4,645833	0,1	0,557858
4,647500	0,1	0,593684
4,649167	0,1	0,573719
4,650833	0,1	0,550821
4,652500	0,1	0,548246
4,654167	0,1	0,563469
4,655833	0,1	0,546575
4,657500	0,1	0,580674
4,659167	0,1	0,537561
4,660833	0,1	0,564135
4,662500	0,1	0,555956
4,664167	0,1	0,583796
4,665833	0,1	0,541478
4,667500	0,1	0,518640
4,669167	0,1	0,552607
4,670833	0,1	0,542755
4,672500	0,1	0,537716
4,674167	0,1	0,549075
4,675833	0,1	0,581740
4,677500	0,1	0,526707
4,679167	0,1	0,550167
4,680833	0,1	0,519762
4,682500	0,1	0,527362
4,684167	0,1	0,543682
4,685833	0,1	0,512381
4,687500	0,1	0,557102
4,689167	0,1	0,506026
4,690833	0,1	0,512750
4,692500	0,1	0,530417
4,694167	0,1	0,493881
4,695833	0,1	0,538888
4,697500	0,1	0,511990
4,699167	0,1	0,507362
4,700833	0,1	0,506052
4,702500	0,1	0,526464
4,704167	0,1	0,503930
4,705833	0,1	0,478176
4,707500	0,1	0,489086
4,709167	0,1	0,504689
4,710833	0,1	0,459416
4,712500	0,1	0,511139
4,714167	0,1	0,500388
4,715833	0,1	0,519750
4,717500	0,1	0,487143
4,719167	0,1	0,474117
4,720833	0,1	0,520108
4,722500	0,1	0,470875
4,724167	0,1	0,509128
4,725833	0,1	0,483490
4,727500	0,1	0,483308
4,729167	0,1	0,488935
4,730833	0,1	0,500092
4,732500	0,1	0,494453
4,734167	0,1	0,487037
4,735833	0,1	0,479066
4,737500	0,1	0,483307
4,739167	0,1	0,471396
4,740833	0,1	0,477688
4,742500	0,1	0,498616
4,744167	0,1	0,497714
4,745833	0,1	0,483272
4,747500	0,1	0,468046
4,749167	0,1	0,492267
4,750833	0,1	0,503858
4,752500	0,1	0,484861
4,754167	0,1	0,463717
4,755833	0,1	0,475849
4,757500	0,1	0,470590
4,759167	0,1	0,472426
4,760833	0,1	0,427592
4,762500	0,1	0,500644
4,764167	0,1	0,457112
4,765833	0,1	0,447267
4,767500	0,1	0,466025
4,769167	0,1	0,442398
4,770833	0,1	0,493608
4,772500	0,1	0,435239
4,774167	0,1	0,456477
4,775833	0,1	0,468079
4,777500	0,1	0,452004
4,779167	0,1	0,456997
4,780833	0,1	0,469049
4,782500	0,1	0,492771
4,784167	0,1	0,453106
4,785833	0,1	0,400842
4,787500	0,1	0,459944
4,789167	0,1	0,437275
4,790833	0,1	0,454111
4,792500	0,1	0,453034
4,794167	0,1	0,423031
4,795833	0,1	0,454853
4,797500	0,1	0,388920
4,799167	0,1	0,444343
4,800833	0,1	0,482984
4,802500	0,1	0,444140
4,804167	0,1	0,499010
4,805833	0,1	0,467461
4,807500	0,1	0,440573
4,809167	0,1	0,419645
4,810833	0,1	0,435550
4,812500	0,1	0,413458
4,814167	0,1	0,456714
4,815833	0,1	0,416009
4,817500	0,1	0,404302
4,819167	0,1	0,442760
4,820833	0,1	0,436739
4,822500	0,1	0,434912
4,824167	0,1	0,439697
4,825833	0,1	0,443550
4,827500	0,1	0,433755
4,829167	0,1	0,437542
4,830833	0,1	0,397800
4,832500	0,1	0,414874
4,834167	0,1	0,436708
4,835833	0,1	0,379887
4,837500	0,1	0,438009
4,839167	0,1	0,428429
4,840833	0,1	0,441973
4,842500	0,1	0,424227
4,844167	0,1	0,424599
4,845833	0,1	0,422688
4,847500	0,1	0,405024
4,849167	0,1	0,397150
4,850833	0,1	0,417818
4,852500	0,1	0,416930
4,854167	0,1	0,433335
4,855833	0,1	0,384608
4,857500	0,1	0,408617
4,859167	0,1	0,417987
4,860833	0,1	0,428926
4,862500	0,1	0,430102
4,864167	0,1	0,421265
4,865833	0,1	0,392309
4,867500	0,1	0,418562
4,869167	0,1	0,448077
4,870833	0,1	0,431063
4,872500	0,1	0,418468
4,874167	0,1	0,381354
4,875833	0,1	0,413423
4,877500	0,1	0,422567
4,879167	0,1	0,386907
4,880833	0,1	0,419203
4,882500	0,1	0,432528
4,884167	0,1	0,435327
4,885833	0,1	0,417389
4,887500	0,1	0,350290
4,889167	0,1	0,424330
4,890833	0,1	0,394899
4,892500	0,1	0,416386
4,894167	0,1	0,432128
4,895833	0,1	0,412793
4,897500	0,1	0,405106
4,899167	0,1	0,412474
4,900833	0,1	0,469516
4,902500	0,1	0,408597
4,904167	0,1	0,425879
4,905833	0,1	0,434370
4,907500	0,1	0,395772
4,909167	0,1	0,421898
4,910833	0,1	0,415359
4,912500	0,1	0,447608
4,914167	0,1	0,399478
4,915833	0,1	0,415251
4,917500	0,1	0,413908
4,919167	0,1	0,393817
4,920833	0,1	0,410733
4,922500	0,1	0,402742
4,924167	0,1	0,401293
4,925833	0,1	0,397995
4,927500	0,1	0,413324
4,929167	0,1	0,422958
4,930833	0,1	0,428942
4,932500	0,1	0,450673
4,934167	0,1	0,439019
4,935833	0,1	0,424086
4,937500	0,1	0,397696
4,939167	0,1	0,407649
4,940833	0,1	0,402328
4,942500	0,1	0,414587
4,944167	0,1	0,424988
4,945833	0,1	0,395520
4,947500	0,1	0,415124
4,949167	0,1	0,384125
4,950833	0,1	0,416180
4,952500	0,1	0,446401
4,954167	0,1	0,388901
4,955833	0,1	0,423306
4,957500	0,1	0,410762
4,959167	0,1	0,432212
4,960833	0,1	0,435907
4,962500	0,1	0,436336
4,964167	0,1	0,436613
4,965833	0,1	0,425369
4,967500	0,1	0,460278
4,969167	0,1	0,410771
4,970833	0,1	0,439237
4,972500	0,1	0,432307
4,974167	0,1	0,450423
4,975833	0,1	0,391712
4,977500	0,1	0,436060
4,979167	0,1	0,420709
4,980833	0,1	0,412750
4,982500	0,1	0,441906
4,984167	0,1	0,439448
4,985833	0,1	0,440466
4,987500	0,1	0,400268
4,989167	0,1	0,431881
4,990833	0,1	0,427786
4,992500	0,1	0,433478
4,994167	0,1	0,471070
4,995833	0,1	0,418644
4,997500	0,1	0,453379
4,999167	0,1	0,422968
5,000833	0,1	0,467026
5,002500	0,1	0,440989
5,004167	0,1	0,439949
5,005833	0,1	0,442883
5,007500	0,1	0,422135
5,009167	0,1	0,471686
5,010833	0,1	0,487068
5,012500	0,1	0,457764
5,014167	0,1	0,435622
5,015833	0,1	0,439055
5,017500	0,1	0,458732
5,019167	0,1	0,486387
5,020833	0,1	0,435315
5,022500	0,1	0,440793
5,024167	0,1	0,487640
5,025833	0,1	0,440124
5,027500	0,1	0,449392
5,029167	0,1	0,473794
5,030833	0,1	0,432807
5,032500	0,1	0,466022
5,034167	0,1	0,451034
5,035833	0,1	0,470683
5,037500	0,1	0,464909
5,039167	0,1	0,485971
5,040833	0,1	0,457976
5,042500	0,1	0,481753
5,044167	0,1	0,442565
5,045833	0,1	0,474534
5,047500	0,1	0,463424
5,049167	0,1	0,503851
5,050833	0,1	0,506265
5,052500	0,1	0,508810
5,054167	0,1	0,533476
5,055833	0,1	0,460744
5,057500	0,1	0,489585
5,059167	0,1	0,467822
5,060833	0,1	0,518910
5,062500	0,1	0,494269
5,064167	0,1	0,531472
5,065833	0,1	0,497887
5,067500	0,1	0,514650
5,069167	0,1	0,524476
5,070833	0,1	0,487257
5,072500	0,1	0,491203
5,074167	0,1	0,521674
5,075833	0,1	0,506458
5,077500	0,1	0,525468
5,079167	0,1	0,472488
5,080833	0,1	0,532597
5,082500	0,1	0,525411
5,084167	0,1	0,499887
5,085833	0,1	0,489733
5,087500	0,1	0,510984
5,089167	0,1	0,523001
5,090833	0,1	0,516520
5,092500	0,1	0,548238
5,094167	0,1	0,529131
5,095833	0,1	0,527326
5,097500	0,1	0,531417
5,099167	0,1	0,529807
5,100833	0,1	0,557558
5,102500	0,1	0,580559
5,104167	0,1	0,548959
5,105833	0,1	0,552425
5,107500	0,1	0,543850
5,109167	0,1	0,552902
5,110833	0,1	0,516867
5,112500	0,1	0,551927
5,114167	0,1	0,553736
5,115833	0,1	0,567612
5,117500	0,1	0,557855
5,119167	0,1	0,582612
5,120833	0,1	0,558112
5,122500	0,1	0,505927
5,124167	0,1	0,569138
5,125833	0,1	0,558137
5,127500	0,1	0,539672
5,129167	0,1	0,518060
5,130833	0,1	0,556913
5,132500	0,1	0,568897
5,134167	0,1	0,577376
5,135833	0,1	0,532285
5,137500	0,1	0,564867
5,139167	0,1	0,556671
5,140833	0,1	0,538751
5,142500	0,1	0,591663
5,144167	0,1	0,518336
5,145833	0,1	0,572353
5,147500	0,1	0,535822
5,149167	0,1	0,549110
5,150833	0,1	0,542013
5,152500	0,1	0,564942
5,154167	0,1	0,558588
5,155833	0,1	0,572843
5,157500	0,1	0,537523
5,159167	0,1	0,490282
5,160833	0,1	0,521322
5,162500	0,1	0,523281
5,164167	0,1	0,540080
5,165833	0,1	0,538610
5,167500	0,1	0,558845
5,169167	0,1	0,556632
5,170833	0,1	0,540956
5,172500	0,1	0,517355
5,174167	0,1	0,522638
5,175833	0,1	0,557936
5,177500	0,1	0,537709
5,179167	0,1	0,547664
5,180833	0,1	0,549302
5,182500	0,1	0,557851
5,184167	0,1	0,523101
5,185833	0,1	0,525373
5,187500	0,1	0,518345
5,189167	0,1	0,546375
5,190833	0,1	0,541760
5,192500	0,1	0,560988
5,194167	0,1	0,507286
5,195833	0,1	0,524699
5,197500	0,1	0,502933
5,199167	0,1	0,484269
5,200833	0,1	0,511941
5,202500	0,1	0,524511
5,204167	0,1	0,507077
5,205833	0,1	0,461482
5,207500	0,1	0,537433
5,209167	0,1	0,496541
5,210833	0,1	0,469019
5,212500	0,1	0,484777
5,214167	0,1	0,524669
5,215833	0,1	0,479690
5,217500	0,1	0,504686
5,219167	0,1	0,498370
5,220833	0,1	0,500460
5,222500	0,1	0,499692
5,224167	0,1	0,485754
5,225833	0,1	0,452411
5,227500	0,1	0,487594
5,229167	0,1	0,486682
5,230833	0,1	0,471132
5,232500	0,1	0,488643
5,234167	0,1	0,501325
5,235833	0,1	0,515809
5,237500	0,1	0,446691
5,239167	0,1	0,491005
5,240833	0,1	0,477958
5,242500	0,1	0,464332
5,244167	0,1	0,466960
5,245833	0,1	0,444450
5,247500	0,1	0,489240
5,249167	0,1	0,469395
5,250833	0,1	0,454536
5,252500	0,1	0,444713
5,254167	0,1	0,396605
5,255833	0,1	0,413966
5,257500	0,1	0,430187
5,259167	0,1	0,435036
5,260833	0,1	0,457901
5,262500	0,1	0,452190
5,264167	0,1	0,446019
5,265833	0,1	0,419608
5,267500	0,1	0,412625
5,269167	0,1	0,474440
5,270833	0,1	0,475928
5,272500	0,1	0,420759
5,274167	0,1	0,421137
5,275833	0,1	0,420824
5,277500	0,1	0,434683
5,279167	0,1	0,432118
5,280833	0,1	0,442014
5,282500	0,1	0,429175
5,284167	0,1	0,387488
5,285833	0,1	0,381863
5,287500	0,1	0,445109
5,289167	0,1	0,430294
5,290833	0,1	0,437644
5,292500	0,1	0,387569
5,294167	0,1	0,395095
5,295833	0,1	0,375445
5,297500	0,1	0,372976
5,299167	0,1	0,437026
5,300833	0,1	0,375018
5,302500	0,1	0,370117
5,304167	0,1	0,355744
5,305833	0,1	0,378812
5,307500	0,1	0,419943
5,309167	0,1	0,379861
5,310833	0,1	0,404660
5,312500	0,1	0,354861
5,314167	0,1	0,369387
5,315833	0,1	0,353675
5,317500	0,1	0,374317
5,319167	0,1	0,376662
5,320833	0,1	0,354940
5,322500	0,1	0,389083
5,324167	0,1	0,375235
5,325833	0,1	0,365790
5,327500	0,1	0,396665
5,329167	0,1	0,382382
5,330833	0,1	0,358333
5,332500	0,1	0,421889
5,334167	0,1	0,382430
5,335833	0,1	0,332183
5,337500	0,1	0,371682
5,339167	0,1	0,344377
5,340833	0,1	0,367191
5,342500	0,1	0,350818
5,344167	0,1	0,344538
5,345833	0,1	0,318386
5,347500	0,1	0,348527
5,349167	0,1	0,316190
5,350833	0,1	0,352976
5,352500	0,1	0,375806
5,354167	0,1	0,361005
5,355833	0,1	0,370860
5,357500	0,1	0,344894
5,359167	0,1	0,332629
5,360833	0,1	0,346480
5,362500	0,1	0,328365
5,364167	0,1	0,319332
5,365833	0,1	0,357657
5,367500	0,1	0,339961
5,369167	0,1	0,318156
5,370833	0,1	0,369958
5,372500	0,1	0,342492
5,374167	0,1	0,336916
5,375833	0,1	0,301817
5,377500	0,1	0,347900
5,379167	0,1	0,279790
5,380833	0,1	0,357814
5,382500	0,1	0,322073
5,384167	0,1	0,304195
5,385833	0,1	0,312639
5,387500	0,1	0,323222
5,389167	0,1	0,336992
5,390833	0,1	0,314406
5,392500	0,1	0,282392
5,394167	0,1	0,337025
5,395833	0,1	0,287490
5,397500	0,1	0,283214
5,399167	0,1	0,307728
5,400833	0,1	0,311252
5,402500	0,1	0,248394
5,404167	0,1	0,291362
5,405833	0,1	0,310379
5,407500	0,1	0,314006
5,409167	0,1	0,273757
5,410833	0,1	0,309609
5,412500	0,1	0,318728
5,414167	0,1	0,287693
5,415833	0,1	0,284891
5,417500	0,1	0,307293
5,419167	0,1	0,273799
5,420833	0,1	0,236857
5,422500	0,1	0,295542
5,424167	0,1	0,303609
5,425833	0,1	0,259656
5,427500	0,1	0,281902
5,429167	0,1	0,289216
5,430833	0,1	0,275677
5,432500	0,1	0,265302
5,434167	0,1	0,274388
5,435833	0,1	0,247084
5,437500	0,1	0,279704
5,439167	0,1	0,276400
5,440833	0,1	0,264555
5,442500	0,1	0,248136
5,444167	0,1	0,280284
5,445833	0,1	0,295925
5,447500	0,1	0,319717
5,449167	0,1	0,275665
5,450833	0,1	0,322342
5,452500	0,1	0,261918
5,454167	0,1	0,270951
5,455833	0,1	0,261615
5,457500	0,1	0,263953
5,459167	0,1	0,269606
5,460833	0,1	0,252797
5,462500	0,1	0,307803
5,464167	0,1	0,260879
5,465833	0,1	0,298757
5,467500	0,1	0,249471
5,469167	0,1	0,247366
5,470833	0,1	0,267137
5,472500	0,1	0,239213
5,474167	0,1	0,259973
5,475833	0,1	0,241926
5,477500	0,1	0,292272
5,479167	0,1	0,257728
5,480833	0,1	0,275173
5,482500	0,1	0,280085
5,484167	0,1	0,213670
5,485833	0,1	0,282452
5,487500	0,1	0,237212
5,489167	0,1	0,238237
5,490833	0,1	0,260924
5,492500	0,1	0,225384
5,494167	0,1	0,254216
5,495833	0,1	0,247512
5,497500	0,1	0,281672
5,499167	0,1	0,222655
5,500833	0,1	0,281750
5,502500	0,1	0,209116
5,504167	0,1	0,248578
5,505833	0,1	0,249477
5,507500	0,1	0,237346
5,509167	0,1	0,203947
5,510833	0,1	0,227955
5,512500	0,1	0,236743
5,514167	0,1	0,258977
5,515833	0,1	0,255671
5,517500	0,1	0,211035
5,519167	0,1	0,261064
5,520833	0,1	0,253725
5,522500	0,1	0,245504
5,524167	0,1	0,268876
5,525833	0,1	0,213297
5,527500	0,1	0,254709
5,529167	0,1	0,228530
5,530833	0,1	0,253717
5,532500	0,1	0,232731
5,534167	0,1	0,264381
5,535833	0,1	0,215969
5,537500	0,1	0,252970
5,539167	0,1	0,233643
5,540833	0,1	0,228254
5,542500	0,1	0,215583
5,544167	0,1	0,228377
5,545833	0,1	0,239951
5,547500	0,1	0,271423
5,549167	0,1	0,256834
5,550833	0,1	0,232917
5,552500	0,1	0,255976
5,554167	0,1	0,226999
5,555833	0,1	0,251773
5,557500	0,1	0,229442
5,559167	0,1	0,232374
5,560833	0,1	0,213473
5,562500	0,1	0,223157
5,564167	0,1	0,219229
5,565833	0,1	0,224922
5,567500	0,1	0,282640
5,569167	0,1	0,212555
5,570833	0,1	0,255453
5,572500	0,1	0,238260
5,574167	0,1	0,191034
5,575833	0,1	0,280831
5,577500	0,1	0,209573
5,579167	0,1	0,242988
5,580833	0,1	0,241177
5,582500	0,1	0,198074
5,584167	0,1	0,206011
5,585833	0,1	0,205976
5,587500	0,1	0,210073
5,589167	0,1	0,230753
5,590833	0,1	0,234300
5,592500	0,1	0,234095
5,594167	0,1	0,237218
5,595833	0,1	0,216727
5,597500	0,1	0,261977
5,599167	0,1	0,242859
5,600833	0,1	0,226231
5,602500	0,1	0,223554
5,604167	0,1	0,266843
5,605833	0,1	0,242466
5,607500	0,1	0,210020
5,609167	0,1	0,199498
5,610833	0,1	0,185373
5,612500	0,1	0,223959
5,614167	0,1	0,227943
5,615833	0,1	0,226887
5,617500	0,1	0,241400
5,619167	0,1	0,248568
5,620833	0,1	0,231675
5,622500	0,1	0,233096
5,624167	0,1	0,216640
5,625833	0,1	0,235789
5,627500	0,1	0,221570
5,629167	0,1	0,223017
5,630833	0,1	0,227053
5,632500	0,1	0,266615
5,634167	0,1	0,220894
5,635833	0,1	0,239597
5,637500	0,1	0,229913
5,639167	0,1	0,253367
5,640833	0,1	0,228485
5,642500	0,1	0,212398
5,644167	0,1	0,253757
5,645833	0,1	0,242834
5,647500	0,1	0,223331
5,649167	0,1	0,224442
5,650833	0,1	0,245559
5,652500	0,1	0,226891
5,654167	0,1	0,209456
5,655833	0,1	0,251746
5,657500	0,1	0,247140
5,659167	0,1	0,277468
5,660833	0,1	0,238512
5,662500	0,1	0,231031
5,664167	0,1	0,248066
5,665833	0,1	0,268340
5,667500	0,1	0,226793
5,669167	0,1	0,279122
5,670833	0,1	0,234373
5,672500	0,1	0,242976
5,674167	0,1	0,247200
5,675833	0,1	0,209380
5,677500	0,1	0,241519
5,679167	0,1	0,224676
5,680833	0,1	0,232724
5,682500	0,1	0,260945
5,684167	0,1	0,231572
5,685833	0,1	0,244339
5,687500	0,1	0,238381
5,689167	0,1	0,285791
5,690833	0,1	0,238909
5,692500	0,1	0,262187
5,694167	0,1	0,237534
5,695833	0,1	0,272954
5,697500	0,1	0,227083
5,699167	0,1	0,268397
5,700833	0,1	0,212798
5,702500	0,1	0,281416
5,704167	0,1	0,253441
5,705833	0,1	0,254842
5,707500	0,1	0,290244
5,709167	0,1	0,256175
5,710833	0,1	0,290536
5,712500	0,1	0,266713
5,714167	0,1	0,277432
5,715833	0,1	0,267436
5,717500	0,1	0,263189
5,719167	0,1	0,239565
5,720833	0,1	0,268937
5,722500	0,1	0,246667
5,724167	0,1	0,277986
5,725833	0,1	0,256420
5,727500	0,1	0,239378
5,729167	0,1	0,290572
5,730833	0,1	0,272387
5,732500	0,1	0,284038
5,734167	0,1	0,272405
5,735833	0,1	0,301637
5,737500	0,1	0,278703
5,739167	0,1	0,286752
5,740833	0,1	0,246631
5,742500	0,1	0,270699
5,744167	0,1	0,261491
5,745833	0,1	0,276085
5,747500	0,1	0,271243
5,749167	0,1	0,289318
5,750833	0,1	0,317832
5,752500	0,1	0,296907
5,754167	0,1	0,266467
5,755833	0,1	0,274037
5,757500	0,1	0,268343
5,759167	0,1	0,278425
5,760833	0,1	0,268428
5,762500	0,1	0,287163
5,764167	0,1	0,265014
5,765833	0,1	0,320290
5,767500	0,1	0,275932
5,769167	0,1	0,333751
5,770833	0,1	0,285420
5,772500	0,1	0,279880
5,774167	0,1	0,287001
5,775833	0,1	0,322345
5,777500	0,1	0,302291
5,779167	0,1	0,288228
5,780833	0,1	0,276898
5,782500	0,1	0,291533
5,784167	0,1	0,278018
5,785833	0,1	0,256193
5,787500	0,1	0,285048
5,789167	0,1	0,297436
5,790833	0,1	0,265369
5,792500	0,1	0,310560
5,794167	0,1	0,322186
5,795833	0,1	0,239889
5,797500	0,1	0,275727
5,799167	0,1	0,307684
5,800833	0,1	0,329702
5,802500	0,1	0,290842
5,804167	0,1	0,267666
5,805833	0,1	0,271718
5,807500	0,1	0,320520
5,809167	0,1	0,284484
5,810833	0,1	0,305904
5,812500	0,1	0,311749
5,814167	0,1	0,234979
5,815833	0,1	0,258273
5,817500	0,1	0,277182
5,819167	0,1	0,276316
5,820833	0,1	0,335284
5,822500	0,1	0,252666
5,824167	0,1	0,291695
5,825833	0,1	0,276983
5,827500	0,1	0,294454
5,829167	0,1	0,257459
5,830833	0,1	0,266001
5,832500	0,1	0,279026
5,834167	0,1	0,273460
5,835833	0,1	0,274929
5,837500	0,1	0,270582
5,839167	0,1	0,286646
5,840833	0,1	0,260874
5,842500	0,1	0,252751
5,844167	0,1	0,259623
5,845833	0,1	0,248073
5,847500	0,1	0,254779
5,849167	0,1	0,300432
5,850833	0,1	0,255328
5,852500	0,1	0,277346
5,854167	0,1	0,299403
5,855833	0,1	0,268415
5,857500	0,1	0,305321
5,859167	0,1	0,244295
5,860833	0,1	0,281693
5,862500	0,1	0,269381
5,864167	0,1	0,270724
5,865833	0,1	0,264948
5,867500	0,1	0,277060
5,869167	0,1	0,243522
5,870833	0,1	0,229705
5,872500	0,1	0,245148
5,874167	0,1	0,261918
5,875833	0,1	0,263497
5,877500	0,1	0,282938
5,879167	0,1	0,248223
5,880833	0,1	0,276516
5,882500	0,1	0,275860
5,884167	0,1	0,279649
5,885833	0,1	0,263418
5,887500	0,1	0,272483
5,889167	0,1	0,299483
5,890833	0,1	0,231211
5,892500	0,1	0,280447
5,894167	0,1	0,285364
5,895833	0,1	0,260254
5,897500	0,1	0,237928
5,899167	0,1	0,253573
5,900833	0,1	0,271508
5,902500	0,1	0,250416
5,904167	0,1	0,247658
5,905833	0,1	0,241010
5,907500	0,1	0,258005
5,909167	0,1	0,242255
5,910833	0,1	0,263223
5,912500	0,1	0,266229
5,914167	0,1	0,265694
5,915833	0,1	0,207664
5,917500	0,1	0,232843
5,919167	0,1	0,231318
5,920833	0,1	0,239372
5,922500	0,1	0,237591
5,924167	0,1	0,228982
5,925833	0,1	0,249016
5,927500	0,1	0,262025
5,929167	0,1	0,275859
5,930833	0,1	0,248594
5,932500	0,1	0,261671
5,934167	0,1	0,249856
5,935833	0,1	0,229188
5,937500	0,1	0,260839
5,939167	0,1	0,227622
5,940833	0,1	0,193974
5,942500	0,1	0,220481
5,944167	0,1	0,229102
5,945833	0,1	0,227364
5,947500	0,1	0,239766
5,949167	0,1	0,202857
5,950833	0,1	0,219657
5,952500	0,1	0,233241
5,954167	0,1	0,223014
5,955833	0,1	0,199230
5,957500	0,1	0,247708
5,959167	0,1	0,232131
5,960833	0,1	0,232787
5,962500	0,1	0,190848
5,964167	0,1	0,225471
5,965833	0,1	0,204964
5,967500	0,1	0,244603
5,969167	0,1	0,202259
5,970833	0,1	0,225079
5,972500	0,1	0,237858
5,974167	0,1	0,194038
5,975833	0,1	0,176184
5,977500	0,1	0,228220
5,979167	0,1	0,218544
5,980833	0,1	0,260424
5,982500	0,1	0,199239
5,984167	0,1	0,226715
5,985833	0,1	0,218132
5,987500	0,1	0,210718
5,989167	0,1	0,193883
5,990833	0,1	0,238183
5,992500	0,1	0,195198
5,994167	0,1	0,230026
5,995833	0,1	0,181776
5,997500	0,1	0,247806
5,999167	0,1	0,217969
6,000833	0,1	0,209706
