File Path	chrom://chromeleon01/ikbm_chromeleon/2022/Rezex/Esteban/220612_chitin_4_7.seq/487.smp/UV_VIS_1.channel/UV_VIS_1.chm
Channel	UV_VIS_1

Injection Information:
Data Vault	ikbm_chromeleon
Injection	7_01h-EGS_2
Injection Number	92
Position	GE3
Comment	
Processing Method	New ProcMethod
Instrument Method	Short_Rezex_6min_194nm
Type	Unknown
Status	Finished
Injection Date	13.06.2022
Injection Time	03:03:06
Injection Volume (µl)	8,000
Dilution Factor	1,0000
Weight	1,0000

Chromatogram Data Information:
Time Min. (min)	0,000833
Time Max. (min)	6,000833
Data Points	3601
Detector	UV
Generating Data System	Chromeleon 7.2.9.11323
Exporting Data System	Chromeleon 7.2.9.0
Operator	Instrument Controller
Signal Quantity	Absorbance
Signal Unit	mAU
Signal Min.	-0,081946
Signal Max.	104,646602
Channel	UV_VIS_1
Driver Name	VWD3000.dll
Channel Type	Evaluation
Min. Step (s)	0,1
Max. Step (s)	0,1
Average Step (s)	0,1

Signal Parameter Information:
Signal Info	WVL:194 nm

Chromatogram Data:
Time (min)	Step (s)	Value (mAU)
0,000833	n.a.	-0,009921
0,002500	0,1	0,001735
0,004167	0,1	-0,022458
0,005833	0,1	-0,007419
0,007500	0,1	-0,006940
0,009167	0,1	-0,008424
0,010833	0,1	0,002957
0,012500	0,1	0,000348
0,014167	0,1	-0,003748
0,015833	0,1	-0,042974
0,017500	0,1	0,002412
0,019167	0,1	-0,016042
0,020833	0,1	0,001918
0,022500	0,1	-0,009828
0,024167	0,1	0,000971
0,025833	0,1	-0,008300
0,027500	0,1	0,010242
0,029167	0,1	-0,041885
0,030833	0,1	-0,081946
0,032500	0,1	-0,051333
0,034167	0,1	-0,021951
0,035833	0,1	-0,042643
0,037500	0,1	-0,028778
0,039167	0,1	-0,023351
0,040833	0,1	-0,018891
0,042500	0,1	-0,015636
0,044167	0,1	-0,027259
0,045833	0,1	-0,046965
0,047500	0,1	-0,021784
0,049167	0,1	-0,035189
0,050833	0,1	-0,025645
0,052500	0,1	-0,025611
0,054167	0,1	0,026217
0,055833	0,1	-0,007256
0,057500	0,1	0,030976
0,059167	0,1	-0,067892
0,060833	0,1	-0,019450
0,062500	0,1	0,019391
0,064167	0,1	-0,050270
0,065833	0,1	0,035378
0,067500	0,1	-0,029262
0,069167	0,1	-0,006671
0,070833	0,1	0,023154
0,072500	0,1	-0,005253
0,074167	0,1	0,002406
0,075833	0,1	-0,005059
0,077500	0,1	0,023164
0,079167	0,1	0,011551
0,080833	0,1	-0,005439
0,082500	0,1	0,036137
0,084167	0,1	-0,042170
0,085833	0,1	-0,000366
0,087500	0,1	0,015438
0,089167	0,1	0,033892
0,090833	0,1	-0,019365
0,092500	0,1	0,016349
0,094167	0,1	0,015961
0,095833	0,1	0,005223
0,097500	0,1	0,000211
0,099167	0,1	-0,001610
0,100833	0,1	0,011404
0,102500	0,1	-0,032431
0,104167	0,1	-0,009194
0,105833	0,1	-0,002651
0,107500	0,1	-0,015113
0,109167	0,1	-0,013267
0,110833	0,1	-0,006851
0,112500	0,1	-0,011052
0,114167	0,1	-0,034667
0,115833	0,1	-0,022758
0,117500	0,1	-0,032562
0,119167	0,1	-0,007237
0,120833	0,1	-0,047205
0,122500	0,1	-0,029130
0,124167	0,1	-0,041253
0,125833	0,1	-0,042295
0,127500	0,1	-0,029586
0,129167	0,1	-0,019855
0,130833	0,1	-0,044245
0,132500	0,1	-0,026105
0,134167	0,1	-0,033676
0,135833	0,1	-0,014126
0,137500	0,1	-0,025625
0,139167	0,1	-0,039314
0,140833	0,1	-0,032199
0,142500	0,1	-0,001294
0,144167	0,1	-0,001225
0,145833	0,1	-0,019481
0,147500	0,1	-0,005141
0,149167	0,1	0,040337
0,150833	0,1	0,007230
0,152500	0,1	-0,016700
0,154167	0,1	-0,039142
0,155833	0,1	-0,007607
0,157500	0,1	-0,013907
0,159167	0,1	-0,044854
0,160833	0,1	0,024963
0,162500	0,1	-0,049169
0,164167	0,1	-0,033376
0,165833	0,1	-0,011180
0,167500	0,1	0,003476
0,169167	0,1	0,012372
0,170833	0,1	-0,001467
0,172500	0,1	0,000393
0,174167	0,1	-0,027132
0,175833	0,1	-0,006335
0,177500	0,1	-0,001288
0,179167	0,1	-0,000663
0,180833	0,1	-0,028049
0,182500	0,1	-0,002638
0,184167	0,1	0,021381
0,185833	0,1	0,002673
0,187500	0,1	-0,021480
0,189167	0,1	-0,006135
0,190833	0,1	0,046173
0,192500	0,1	0,025654
0,194167	0,1	-0,007194
0,195833	0,1	0,011615
0,197500	0,1	0,029741
0,199167	0,1	-0,000471
0,200833	0,1	0,000040
0,202500	0,1	-0,010575
0,204167	0,1	-0,018092
0,205833	0,1	-0,016689
0,207500	0,1	0,012929
0,209167	0,1	-0,002628
0,210833	0,1	-0,019496
0,212500	0,1	0,018414
0,214167	0,1	0,034964
0,215833	0,1	0,010974
0,217500	0,1	-0,002109
0,219167	0,1	-0,012316
0,220833	0,1	0,024771
0,222500	0,1	-0,007162
0,224167	0,1	-0,010025
0,225833	0,1	0,011068
0,227500	0,1	-0,014407
0,229167	0,1	0,000556
0,230833	0,1	0,000884
0,232500	0,1	0,011451
0,234167	0,1	-0,011549
0,235833	0,1	0,028787
0,237500	0,1	0,014392
0,239167	0,1	-0,003532
0,240833	0,1	-0,010042
0,242500	0,1	0,035099
0,244167	0,1	0,024263
0,245833	0,1	-0,006658
0,247500	0,1	-0,006835
0,249167	0,1	0,000637
0,250833	0,1	0,020679
0,252500	0,1	0,043843
0,254167	0,1	0,003962
0,255833	0,1	0,019562
0,257500	0,1	-0,014174
0,259167	0,1	0,011005
0,260833	0,1	0,009317
0,262500	0,1	0,041731
0,264167	0,1	0,007644
0,265833	0,1	-0,016988
0,267500	0,1	0,022124
0,269167	0,1	0,027634
0,270833	0,1	-0,000595
0,272500	0,1	0,031751
0,274167	0,1	0,030387
0,275833	0,1	0,014469
0,277500	0,1	0,000105
0,279167	0,1	0,001569
0,280833	0,1	-0,003380
0,282500	0,1	0,003020
0,284167	0,1	0,025416
0,285833	0,1	0,013793
0,287500	0,1	0,026456
0,289167	0,1	0,002981
0,290833	0,1	-0,007427
0,292500	0,1	0,008916
0,294167	0,1	0,033283
0,295833	0,1	0,018197
0,297500	0,1	0,014267
0,299167	0,1	0,008921
0,300833	0,1	0,014510
0,302500	0,1	0,018773
0,304167	0,1	0,068724
0,305833	0,1	-0,011063
0,307500	0,1	-0,004865
0,309167	0,1	0,047836
0,310833	0,1	0,041422
0,312500	0,1	-0,004715
0,314167	0,1	-0,006193
0,315833	0,1	0,017224
0,317500	0,1	-0,038706
0,319167	0,1	0,023709
0,320833	0,1	0,000338
0,322500	0,1	0,022557
0,324167	0,1	0,036205
0,325833	0,1	-0,005876
0,327500	0,1	0,030651
0,329167	0,1	0,040118
0,330833	0,1	0,017296
0,332500	0,1	0,044834
0,334167	0,1	0,003320
0,335833	0,1	-0,043048
0,337500	0,1	0,014498
0,339167	0,1	0,001969
0,340833	0,1	-0,005045
0,342500	0,1	0,019762
0,344167	0,1	0,010678
0,345833	0,1	0,001282
0,347500	0,1	0,005191
0,349167	0,1	-0,007121
0,350833	0,1	0,027477
0,352500	0,1	-0,000945
0,354167	0,1	0,023718
0,355833	0,1	0,037505
0,357500	0,1	0,009428
0,359167	0,1	0,027035
0,360833	0,1	0,001621
0,362500	0,1	0,004214
0,364167	0,1	0,037131
0,365833	0,1	0,029977
0,367500	0,1	-0,000303
0,369167	0,1	-0,004220
0,370833	0,1	0,044329
0,372500	0,1	0,067009
0,374167	0,1	0,025493
0,375833	0,1	0,037655
0,377500	0,1	0,014210
0,379167	0,1	0,033575
0,380833	0,1	0,033104
0,382500	0,1	0,053013
0,384167	0,1	0,057095
0,385833	0,1	0,049169
0,387500	0,1	0,000589
0,389167	0,1	0,023261
0,390833	0,1	0,012377
0,392500	0,1	0,027482
0,394167	0,1	0,088408
0,395833	0,1	0,022228
0,397500	0,1	0,014651
0,399167	0,1	0,046820
0,400833	0,1	0,016030
0,402500	0,1	0,029269
0,404167	0,1	0,030721
0,405833	0,1	0,023805
0,407500	0,1	0,011428
0,409167	0,1	0,059590
0,410833	0,1	-0,019939
0,412500	0,1	0,002512
0,414167	0,1	0,059880
0,415833	0,1	0,039315
0,417500	0,1	0,017864
0,419167	0,1	0,016575
0,420833	0,1	0,014131
0,422500	0,1	0,031789
0,424167	0,1	0,046201
0,425833	0,1	0,009542
0,427500	0,1	0,021629
0,429167	0,1	0,044273
0,430833	0,1	0,019544
0,432500	0,1	0,040405
0,434167	0,1	-0,012169
0,435833	0,1	0,056042
0,437500	0,1	0,037435
0,439167	0,1	0,035629
0,440833	0,1	0,034468
0,442500	0,1	-0,027232
0,444167	0,1	0,035244
0,445833	0,1	0,070611
0,447500	0,1	0,062709
0,449167	0,1	0,030149
0,450833	0,1	0,041110
0,452500	0,1	0,070489
0,454167	0,1	0,033377
0,455833	0,1	0,036146
0,457500	0,1	0,071561
0,459167	0,1	0,045058
0,460833	0,1	0,044675
0,462500	0,1	0,004665
0,464167	0,1	0,017794
0,465833	0,1	0,063399
0,467500	0,1	0,024147
0,469167	0,1	0,037778
0,470833	0,1	0,019665
0,472500	0,1	0,071038
0,474167	0,1	0,052916
0,475833	0,1	0,020249
0,477500	0,1	0,017447
0,479167	0,1	0,044192
0,480833	0,1	0,038258
0,482500	0,1	-0,010032
0,484167	0,1	0,043194
0,485833	0,1	0,056759
0,487500	0,1	0,042357
0,489167	0,1	0,087234
0,490833	0,1	0,043602
0,492500	0,1	0,037951
0,494167	0,1	0,051028
0,495833	0,1	0,034057
0,497500	0,1	0,065099
0,499167	0,1	-0,006281
0,500833	0,1	0,019102
0,502500	0,1	0,034191
0,504167	0,1	0,049391
0,505833	0,1	0,059917
0,507500	0,1	0,029875
0,509167	0,1	0,050077
0,510833	0,1	0,050001
0,512500	0,1	0,066615
0,514167	0,1	0,068755
0,515833	0,1	0,075127
0,517500	0,1	0,075771
0,519167	0,1	0,064862
0,520833	0,1	0,051404
0,522500	0,1	0,030911
0,524167	0,1	0,042105
0,525833	0,1	0,072765
0,527500	0,1	0,034996
0,529167	0,1	0,049760
0,530833	0,1	0,024328
0,532500	0,1	0,038772
0,534167	0,1	0,067631
0,535833	0,1	0,050059
0,537500	0,1	0,054881
0,539167	0,1	0,016446
0,540833	0,1	0,040238
0,542500	0,1	0,060608
0,544167	0,1	0,034597
0,545833	0,1	0,054174
0,547500	0,1	0,034322
0,549167	0,1	0,019895
0,550833	0,1	0,042575
0,552500	0,1	0,047671
0,554167	0,1	0,031859
0,555833	0,1	0,059938
0,557500	0,1	0,046392
0,559167	0,1	0,039312
0,560833	0,1	0,042168
0,562500	0,1	0,076800
0,564167	0,1	0,095997
0,565833	0,1	0,034771
0,567500	0,1	0,060688
0,569167	0,1	0,032672
0,570833	0,1	0,064061
0,572500	0,1	0,058769
0,574167	0,1	0,065561
0,575833	0,1	0,031847
0,577500	0,1	0,021607
0,579167	0,1	0,074351
0,580833	0,1	0,042193
0,582500	0,1	0,056742
0,584167	0,1	0,087571
0,585833	0,1	0,033689
0,587500	0,1	0,088101
0,589167	0,1	0,034251
0,590833	0,1	0,098845
0,592500	0,1	0,107590
0,594167	0,1	0,039846
0,595833	0,1	0,034423
0,597500	0,1	0,075550
0,599167	0,1	0,069460
0,600833	0,1	0,112971
0,602500	0,1	0,086980
0,604167	0,1	0,070702
0,605833	0,1	0,080015
0,607500	0,1	0,060206
0,609167	0,1	0,056747
0,610833	0,1	0,069184
0,612500	0,1	0,110298
0,614167	0,1	0,070480
0,615833	0,1	0,070574
0,617500	0,1	0,121355
0,619167	0,1	0,065392
0,620833	0,1	0,069387
0,622500	0,1	0,074628
0,624167	0,1	0,097880
0,625833	0,1	0,049944
0,627500	0,1	0,112880
0,629167	0,1	0,093377
0,630833	0,1	0,086667
0,632500	0,1	0,063643
0,634167	0,1	0,088787
0,635833	0,1	0,056401
0,637500	0,1	0,110253
0,639167	0,1	0,099498
0,640833	0,1	0,104530
0,642500	0,1	0,111590
0,644167	0,1	0,088596
0,645833	0,1	0,100055
0,647500	0,1	0,138936
0,649167	0,1	0,136626
0,650833	0,1	0,087935
0,652500	0,1	0,114091
0,654167	0,1	0,100930
0,655833	0,1	0,143615
0,657500	0,1	0,102906
0,659167	0,1	0,118834
0,660833	0,1	0,124057
0,662500	0,1	0,152897
0,664167	0,1	0,102161
0,665833	0,1	0,113868
0,667500	0,1	0,128463
0,669167	0,1	0,150039
0,670833	0,1	0,108351
0,672500	0,1	0,116825
0,674167	0,1	0,113309
0,675833	0,1	0,108860
0,677500	0,1	0,118485
0,679167	0,1	0,098779
0,680833	0,1	0,154919
0,682500	0,1	0,156755
0,684167	0,1	0,144415
0,685833	0,1	0,147206
0,687500	0,1	0,137580
0,689167	0,1	0,137786
0,690833	0,1	0,142070
0,692500	0,1	0,150228
0,694167	0,1	0,151452
0,695833	0,1	0,154723
0,697500	0,1	0,165988
0,699167	0,1	0,160255
0,700833	0,1	0,144063
0,702500	0,1	0,143935
0,704167	0,1	0,125447
0,705833	0,1	0,176849
0,707500	0,1	0,159864
0,709167	0,1	0,132325
0,710833	0,1	0,152585
0,712500	0,1	0,147043
0,714167	0,1	0,163357
0,715833	0,1	0,127916
0,717500	0,1	0,163371
0,719167	0,1	0,172160
0,720833	0,1	0,196323
0,722500	0,1	0,200347
0,724167	0,1	0,203059
0,725833	0,1	0,182976
0,727500	0,1	0,200881
0,729167	0,1	0,198773
0,730833	0,1	0,164548
0,732500	0,1	0,194209
0,734167	0,1	0,165892
0,735833	0,1	0,196219
0,737500	0,1	0,232854
0,739167	0,1	0,231602
0,740833	0,1	0,236033
0,742500	0,1	0,259598
0,744167	0,1	0,253928
0,745833	0,1	0,209782
0,747500	0,1	0,224099
0,749167	0,1	0,239820
0,750833	0,1	0,255394
0,752500	0,1	0,268424
0,754167	0,1	0,254242
0,755833	0,1	0,238294
0,757500	0,1	0,252683
0,759167	0,1	0,255421
0,760833	0,1	0,197669
0,762500	0,1	0,286136
0,764167	0,1	0,272699
0,765833	0,1	0,264184
0,767500	0,1	0,275842
0,769167	0,1	0,250847
0,770833	0,1	0,247717
0,772500	0,1	0,269168
0,774167	0,1	0,230036
0,775833	0,1	0,252455
0,777500	0,1	0,251938
0,779167	0,1	0,262749
0,780833	0,1	0,275363
0,782500	0,1	0,270747
0,784167	0,1	0,214672
0,785833	0,1	0,232507
0,787500	0,1	0,242990
0,789167	0,1	0,248419
0,790833	0,1	0,251586
0,792500	0,1	0,234504
0,794167	0,1	0,231291
0,795833	0,1	0,253365
0,797500	0,1	0,216699
0,799167	0,1	0,243277
0,800833	0,1	0,273331
0,802500	0,1	0,258612
0,804167	0,1	0,252150
0,805833	0,1	0,207751
0,807500	0,1	0,279367
0,809167	0,1	0,232629
0,810833	0,1	0,218577
0,812500	0,1	0,260587
0,814167	0,1	0,260410
0,815833	0,1	0,237778
0,817500	0,1	0,206608
0,819167	0,1	0,213416
0,820833	0,1	0,227330
0,822500	0,1	0,262164
0,824167	0,1	0,232352
0,825833	0,1	0,207913
0,827500	0,1	0,241326
0,829167	0,1	0,277466
0,830833	0,1	0,191422
0,832500	0,1	0,210844
0,834167	0,1	0,257292
0,835833	0,1	0,232312
0,837500	0,1	0,227521
0,839167	0,1	0,236674
0,840833	0,1	0,254855
0,842500	0,1	0,239867
0,844167	0,1	0,240442
0,845833	0,1	0,212180
0,847500	0,1	0,219751
0,849167	0,1	0,216255
0,850833	0,1	0,236484
0,852500	0,1	0,208907
0,854167	0,1	0,199563
0,855833	0,1	0,222482
0,857500	0,1	0,210541
0,859167	0,1	0,228426
0,860833	0,1	0,214973
0,862500	0,1	0,230870
0,864167	0,1	0,208906
0,865833	0,1	0,263794
0,867500	0,1	0,243619
0,869167	0,1	0,184353
0,870833	0,1	0,255523
0,872500	0,1	0,231335
0,874167	0,1	0,237873
0,875833	0,1	0,236240
0,877500	0,1	0,195077
0,879167	0,1	0,231239
0,880833	0,1	0,217086
0,882500	0,1	0,194741
0,884167	0,1	0,215067
0,885833	0,1	0,256155
0,887500	0,1	0,228892
0,889167	0,1	0,223358
0,890833	0,1	0,250278
0,892500	0,1	0,188848
0,894167	0,1	0,242959
0,895833	0,1	0,202552
0,897500	0,1	0,207035
0,899167	0,1	0,250479
0,900833	0,1	0,259498
0,902500	0,1	0,216327
0,904167	0,1	0,230769
0,905833	0,1	0,241417
0,907500	0,1	0,243322
0,909167	0,1	0,248191
0,910833	0,1	0,243740
0,912500	0,1	0,241501
0,914167	0,1	0,222388
0,915833	0,1	0,209153
0,917500	0,1	0,229153
0,919167	0,1	0,226629
0,920833	0,1	0,267650
0,922500	0,1	0,214816
0,924167	0,1	0,260155
0,925833	0,1	0,229846
0,927500	0,1	0,263015
0,929167	0,1	0,262939
0,930833	0,1	0,273124
0,932500	0,1	0,258840
0,934167	0,1	0,235436
0,935833	0,1	0,255580
0,937500	0,1	0,257573
0,939167	0,1	0,284578
0,940833	0,1	0,242589
0,942500	0,1	0,293992
0,944167	0,1	0,269821
0,945833	0,1	0,302870
0,947500	0,1	0,253751
0,949167	0,1	0,261386
0,950833	0,1	0,298145
0,952500	0,1	0,257295
0,954167	0,1	0,268261
0,955833	0,1	0,290233
0,957500	0,1	0,314328
0,959167	0,1	0,328991
0,960833	0,1	0,249474
0,962500	0,1	0,306567
0,964167	0,1	0,301758
0,965833	0,1	0,314512
0,967500	0,1	0,277450
0,969167	0,1	0,276855
0,970833	0,1	0,287564
0,972500	0,1	0,285186
0,974167	0,1	0,348020
0,975833	0,1	0,326017
0,977500	0,1	0,334030
0,979167	0,1	0,305225
0,980833	0,1	0,327416
0,982500	0,1	0,334758
0,984167	0,1	0,338424
0,985833	0,1	0,335380
0,987500	0,1	0,330594
0,989167	0,1	0,362180
0,990833	0,1	0,350795
0,992500	0,1	0,305974
0,994167	0,1	0,338808
0,995833	0,1	0,353421
0,997500	0,1	0,362262
0,999167	0,1	0,331784
1,000833	0,1	0,405531
1,002500	0,1	0,369552
1,004167	0,1	0,390632
1,005833	0,1	0,382680
1,007500	0,1	0,383800
1,009167	0,1	0,395005
1,010833	0,1	0,413315
1,012500	0,1	0,407504
1,014167	0,1	0,440869
1,015833	0,1	0,458635
1,017500	0,1	0,474151
1,019167	0,1	0,509480
1,020833	0,1	0,531937
1,022500	0,1	0,504195
1,024167	0,1	0,507554
1,025833	0,1	0,519759
1,027500	0,1	0,538814
1,029167	0,1	0,540004
1,030833	0,1	0,509074
1,032500	0,1	0,538360
1,034167	0,1	0,599748
1,035833	0,1	0,561763
1,037500	0,1	0,570393
1,039167	0,1	0,579680
1,040833	0,1	0,579906
1,042500	0,1	0,580417
1,044167	0,1	0,611805
1,045833	0,1	0,612327
1,047500	0,1	0,644388
1,049167	0,1	0,641055
1,050833	0,1	0,654450
1,052500	0,1	0,688349
1,054167	0,1	0,717084
1,055833	0,1	0,774929
1,057500	0,1	0,815053
1,059167	0,1	0,874967
1,060833	0,1	1,037654
1,062500	0,1	1,074285
1,064167	0,1	1,275136
1,065833	0,1	1,441580
1,067500	0,1	1,743332
1,069167	0,1	2,059866
1,070833	0,1	2,456131
1,072500	0,1	2,987343
1,074167	0,1	3,596941
1,075833	0,1	4,339568
1,077500	0,1	5,170164
1,079167	0,1	6,165978
1,080833	0,1	7,257971
1,082500	0,1	8,506473
1,084167	0,1	9,904775
1,085833	0,1	11,454371
1,087500	0,1	13,049623
1,089167	0,1	14,803332
1,090833	0,1	16,569065
1,092500	0,1	18,419464
1,094167	0,1	20,289533
1,095833	0,1	22,110958
1,097500	0,1	23,952445
1,099167	0,1	25,679778
1,100833	0,1	27,371580
1,102500	0,1	28,865066
1,104167	0,1	30,234057
1,105833	0,1	31,461847
1,107500	0,1	32,519279
1,109167	0,1	33,422163
1,110833	0,1	34,178078
1,112500	0,1	34,729948
1,114167	0,1	35,147746
1,115833	0,1	35,434563
1,117500	0,1	35,538537
1,119167	0,1	35,607983
1,120833	0,1	35,569708
1,122500	0,1	35,432137
1,124167	0,1	35,267536
1,125833	0,1	35,000895
1,127500	0,1	34,740983
1,129167	0,1	34,458632
1,130833	0,1	34,243197
1,132500	0,1	33,934259
1,134167	0,1	33,743890
1,135833	0,1	33,586866
1,137500	0,1	33,405982
1,139167	0,1	33,308706
1,140833	0,1	33,347838
1,142500	0,1	33,394983
1,144167	0,1	33,510427
1,145833	0,1	33,760494
1,147500	0,1	34,051415
1,149167	0,1	34,479661
1,150833	0,1	34,991958
1,152500	0,1	35,521269
1,154167	0,1	36,215674
1,155833	0,1	36,965703
1,157500	0,1	37,775344
1,159167	0,1	38,651785
1,160833	0,1	39,525987
1,162500	0,1	40,541274
1,164167	0,1	41,501771
1,165833	0,1	42,497741
1,167500	0,1	43,435216
1,169167	0,1	44,448192
1,170833	0,1	45,364352
1,172500	0,1	46,231268
1,174167	0,1	47,155057
1,175833	0,1	47,956044
1,177500	0,1	48,670505
1,179167	0,1	49,360832
1,180833	0,1	49,984438
1,182500	0,1	50,531536
1,184167	0,1	50,945354
1,185833	0,1	51,339947
1,187500	0,1	51,655514
1,189167	0,1	51,914659
1,190833	0,1	52,135901
1,192500	0,1	52,368655
1,194167	0,1	52,566135
1,195833	0,1	52,766093
1,197500	0,1	52,990880
1,199167	0,1	53,340239
1,200833	0,1	53,669466
1,202500	0,1	54,137331
1,204167	0,1	54,703060
1,205833	0,1	55,439737
1,207500	0,1	56,320208
1,209167	0,1	57,313768
1,210833	0,1	58,565493
1,212500	0,1	59,982965
1,214167	0,1	61,615310
1,215833	0,1	63,363446
1,217500	0,1	65,306321
1,219167	0,1	67,434486
1,220833	0,1	69,728113
1,222500	0,1	72,078525
1,224167	0,1	74,524258
1,225833	0,1	77,084548
1,227500	0,1	79,712138
1,229167	0,1	82,233859
1,230833	0,1	84,707195
1,232500	0,1	87,208648
1,234167	0,1	89,632099
1,235833	0,1	91,850529
1,237500	0,1	94,000439
1,239167	0,1	95,916479
1,240833	0,1	97,708025
1,242500	0,1	99,308677
1,244167	0,1	100,701899
1,245833	0,1	101,882030
1,247500	0,1	102,873014
1,249167	0,1	103,630784
1,250833	0,1	104,201706
1,252500	0,1	104,521073
1,254167	0,1	104,646602
1,255833	0,1	104,589400
1,257500	0,1	104,231064
1,259167	0,1	103,744926
1,260833	0,1	103,058613
1,262500	0,1	102,203419
1,264167	0,1	101,149881
1,265833	0,1	99,889123
1,267500	0,1	98,521774
1,269167	0,1	96,986022
1,270833	0,1	95,342959
1,272500	0,1	93,583517
1,274167	0,1	91,704163
1,275833	0,1	89,675411
1,277500	0,1	87,704946
1,279167	0,1	85,526017
1,280833	0,1	83,363577
1,282500	0,1	81,152027
1,284167	0,1	78,918073
1,285833	0,1	76,668277
1,287500	0,1	74,406295
1,289167	0,1	72,125386
1,290833	0,1	69,841278
1,292500	0,1	67,661072
1,294167	0,1	65,495124
1,295833	0,1	63,357334
1,297500	0,1	61,244605
1,299167	0,1	59,197597
1,300833	0,1	57,224557
1,302500	0,1	55,295276
1,304167	0,1	53,375502
1,305833	0,1	51,586295
1,307500	0,1	49,860079
1,309167	0,1	48,156282
1,310833	0,1	46,538970
1,312500	0,1	44,980111
1,314167	0,1	43,493230
1,315833	0,1	42,054214
1,317500	0,1	40,661045
1,319167	0,1	39,351459
1,320833	0,1	38,088202
1,322500	0,1	36,896308
1,324167	0,1	35,720227
1,325833	0,1	34,580025
1,327500	0,1	33,509925
1,329167	0,1	32,488717
1,330833	0,1	31,466285
1,332500	0,1	30,544690
1,334167	0,1	29,621586
1,335833	0,1	28,761166
1,337500	0,1	27,897671
1,339167	0,1	27,135127
1,340833	0,1	26,330335
1,342500	0,1	25,594635
1,344167	0,1	24,862634
1,345833	0,1	24,172650
1,347500	0,1	23,493955
1,349167	0,1	22,833918
1,350833	0,1	22,241881
1,352500	0,1	21,607751
1,354167	0,1	21,022381
1,355833	0,1	20,449665
1,357500	0,1	19,924122
1,359167	0,1	19,382185
1,360833	0,1	18,871062
1,362500	0,1	18,343165
1,364167	0,1	17,909216
1,365833	0,1	17,421526
1,367500	0,1	16,987692
1,369167	0,1	16,576283
1,370833	0,1	16,140746
1,372500	0,1	15,718290
1,374167	0,1	15,338931
1,375833	0,1	14,978081
1,377500	0,1	14,605209
1,379167	0,1	14,277292
1,380833	0,1	13,898004
1,382500	0,1	13,612715
1,384167	0,1	13,278117
1,385833	0,1	12,974124
1,387500	0,1	12,693933
1,389167	0,1	12,356864
1,390833	0,1	12,147003
1,392500	0,1	11,887899
1,394167	0,1	11,630374
1,395833	0,1	11,376165
1,397500	0,1	11,203606
1,399167	0,1	10,889112
1,400833	0,1	10,706736
1,402500	0,1	10,498944
1,404167	0,1	10,344858
1,405833	0,1	10,148442
1,407500	0,1	9,967846
1,409167	0,1	9,766802
1,410833	0,1	9,652870
1,412500	0,1	9,461924
1,414167	0,1	9,333793
1,415833	0,1	9,165740
1,417500	0,1	9,033680
1,419167	0,1	8,924473
1,420833	0,1	8,752094
1,422500	0,1	8,596298
1,424167	0,1	8,534275
1,425833	0,1	8,390001
1,427500	0,1	8,323847
1,429167	0,1	8,200344
1,430833	0,1	8,095592
1,432500	0,1	7,984031
1,434167	0,1	7,894197
1,435833	0,1	7,801228
1,437500	0,1	7,698467
1,439167	0,1	7,570302
1,440833	0,1	7,482870
1,442500	0,1	7,422155
1,444167	0,1	7,299933
1,445833	0,1	7,243891
1,447500	0,1	7,141562
1,449167	0,1	7,074550
1,450833	0,1	6,977843
1,452500	0,1	6,908156
1,454167	0,1	6,843251
1,455833	0,1	6,746764
1,457500	0,1	6,703091
1,459167	0,1	6,603130
1,460833	0,1	6,626119
1,462500	0,1	6,522996
1,464167	0,1	6,440074
1,465833	0,1	6,412437
1,467500	0,1	6,351894
1,469167	0,1	6,312692
1,470833	0,1	6,253016
1,472500	0,1	6,234736
1,474167	0,1	6,173287
1,475833	0,1	6,144196
1,477500	0,1	6,154335
1,479167	0,1	6,086194
1,480833	0,1	6,066450
1,482500	0,1	6,040318
1,484167	0,1	6,036585
1,485833	0,1	6,026963
1,487500	0,1	6,049962
1,489167	0,1	6,044251
1,490833	0,1	6,081365
1,492500	0,1	6,043255
1,494167	0,1	6,020620
1,495833	0,1	6,012191
1,497500	0,1	6,101686
1,499167	0,1	6,074102
1,500833	0,1	6,108401
1,502500	0,1	6,107180
1,504167	0,1	6,120090
1,505833	0,1	6,114180
1,507500	0,1	6,125386
1,509167	0,1	6,204337
1,510833	0,1	6,158388
1,512500	0,1	6,189272
1,514167	0,1	6,239482
1,515833	0,1	6,194114
1,517500	0,1	6,212175
1,519167	0,1	6,233568
1,520833	0,1	6,247050
1,522500	0,1	6,264601
1,524167	0,1	6,243699
1,525833	0,1	6,238960
1,527500	0,1	6,234287
1,529167	0,1	6,259135
1,530833	0,1	6,214665
1,532500	0,1	6,244148
1,534167	0,1	6,230294
1,535833	0,1	6,204273
1,537500	0,1	6,196429
1,539167	0,1	6,192151
1,540833	0,1	6,182226
1,542500	0,1	6,167493
1,544167	0,1	6,180385
1,545833	0,1	6,140191
1,547500	0,1	6,134887
1,549167	0,1	6,085170
1,550833	0,1	6,075590
1,552500	0,1	6,043750
1,554167	0,1	6,016154
1,555833	0,1	5,995347
1,557500	0,1	5,998120
1,559167	0,1	5,924339
1,560833	0,1	5,934570
1,562500	0,1	5,877002
1,564167	0,1	5,861807
1,565833	0,1	5,880070
1,567500	0,1	5,796028
1,569167	0,1	5,721415
1,570833	0,1	5,742763
1,572500	0,1	5,728789
1,574167	0,1	5,626236
1,575833	0,1	5,611954
1,577500	0,1	5,600969
1,579167	0,1	5,555024
1,580833	0,1	5,535493
1,582500	0,1	5,491857
1,584167	0,1	5,495218
1,585833	0,1	5,433300
1,587500	0,1	5,367452
1,589167	0,1	5,344393
1,590833	0,1	5,298667
1,592500	0,1	5,257884
1,594167	0,1	5,242628
1,595833	0,1	5,215494
1,597500	0,1	5,199876
1,599167	0,1	5,094133
1,600833	0,1	5,132414
1,602500	0,1	5,081729
1,604167	0,1	5,044572
1,605833	0,1	4,988997
1,607500	0,1	4,955719
1,609167	0,1	4,928174
1,610833	0,1	4,905639
1,612500	0,1	4,875622
1,614167	0,1	4,865000
1,615833	0,1	4,793685
1,617500	0,1	4,744122
1,619167	0,1	4,739899
1,620833	0,1	4,709202
1,622500	0,1	4,700033
1,624167	0,1	4,624001
1,625833	0,1	4,602257
1,627500	0,1	4,574372
1,629167	0,1	4,550140
1,630833	0,1	4,562488
1,632500	0,1	4,481333
1,634167	0,1	4,474021
1,635833	0,1	4,466363
1,637500	0,1	4,391054
1,639167	0,1	4,409872
1,640833	0,1	4,367102
1,642500	0,1	4,353768
1,644167	0,1	4,326383
1,645833	0,1	4,316585
1,647500	0,1	4,269515
1,649167	0,1	4,293848
1,650833	0,1	4,256028
1,652500	0,1	4,191349
1,654167	0,1	4,221221
1,655833	0,1	4,240423
1,657500	0,1	4,209572
1,659167	0,1	4,169198
1,660833	0,1	4,186953
1,662500	0,1	4,195955
1,664167	0,1	4,194981
1,665833	0,1	4,214423
1,667500	0,1	4,206886
1,669167	0,1	4,219726
1,670833	0,1	4,236734
1,672500	0,1	4,283348
1,674167	0,1	4,254409
1,675833	0,1	4,278164
1,677500	0,1	4,295750
1,679167	0,1	4,380442
1,680833	0,1	4,404279
1,682500	0,1	4,395293
1,684167	0,1	4,492031
1,685833	0,1	4,543514
1,687500	0,1	4,573835
1,689167	0,1	4,630330
1,690833	0,1	4,671772
1,692500	0,1	4,766027
1,694167	0,1	4,785145
1,695833	0,1	4,837316
1,697500	0,1	4,879564
1,699167	0,1	5,004199
1,700833	0,1	5,074422
1,702500	0,1	5,096332
1,704167	0,1	5,198096
1,705833	0,1	5,254671
1,707500	0,1	5,266570
1,709167	0,1	5,384301
1,710833	0,1	5,415059
1,712500	0,1	5,511222
1,714167	0,1	5,545707
1,715833	0,1	5,601689
1,717500	0,1	5,638403
1,719167	0,1	5,700725
1,720833	0,1	5,781117
1,722500	0,1	5,784105
1,724167	0,1	5,840570
1,725833	0,1	5,847017
1,727500	0,1	5,929823
1,729167	0,1	5,958268
1,730833	0,1	5,978017
1,732500	0,1	6,033174
1,734167	0,1	6,042454
1,735833	0,1	6,070673
1,737500	0,1	6,095388
1,739167	0,1	6,043538
1,740833	0,1	6,088963
1,742500	0,1	6,079969
1,744167	0,1	6,076313
1,745833	0,1	6,047212
1,747500	0,1	6,045180
1,749167	0,1	6,040556
1,750833	0,1	6,000082
1,752500	0,1	5,969271
1,754167	0,1	5,983997
1,755833	0,1	5,945341
1,757500	0,1	5,877851
1,759167	0,1	5,861489
1,760833	0,1	5,807251
1,762500	0,1	5,832549
1,764167	0,1	5,768750
1,765833	0,1	5,725135
1,767500	0,1	5,668851
1,769167	0,1	5,654582
1,770833	0,1	5,567383
1,772500	0,1	5,517436
1,774167	0,1	5,453103
1,775833	0,1	5,436367
1,777500	0,1	5,373438
1,779167	0,1	5,288792
1,780833	0,1	5,235972
1,782500	0,1	5,175886
1,784167	0,1	5,140332
1,785833	0,1	5,063388
1,787500	0,1	4,995305
1,789167	0,1	4,926720
1,790833	0,1	4,865794
1,792500	0,1	4,742156
1,794167	0,1	4,742081
1,795833	0,1	4,709358
1,797500	0,1	4,624615
1,799167	0,1	4,540341
1,800833	0,1	4,496965
1,802500	0,1	4,435944
1,804167	0,1	4,314655
1,805833	0,1	4,295839
1,807500	0,1	4,216349
1,809167	0,1	4,166130
1,810833	0,1	4,114938
1,812500	0,1	4,047651
1,814167	0,1	4,003488
1,815833	0,1	3,939901
1,817500	0,1	3,866604
1,819167	0,1	3,817856
1,820833	0,1	3,751263
1,822500	0,1	3,728078
1,824167	0,1	3,649239
1,825833	0,1	3,595807
1,827500	0,1	3,540502
1,829167	0,1	3,539096
1,830833	0,1	3,478192
1,832500	0,1	3,460146
1,834167	0,1	3,394925
1,835833	0,1	3,432296
1,837500	0,1	3,372497
1,839167	0,1	3,350195
1,840833	0,1	3,377211
1,842500	0,1	3,342932
1,844167	0,1	3,395502
1,845833	0,1	3,364766
1,847500	0,1	3,411749
1,849167	0,1	3,390499
1,850833	0,1	3,406624
1,852500	0,1	3,455032
1,854167	0,1	3,474915
1,855833	0,1	3,485521
1,857500	0,1	3,470802
1,859167	0,1	3,527822
1,860833	0,1	3,596656
1,862500	0,1	3,644888
1,864167	0,1	3,678463
1,865833	0,1	3,689342
1,867500	0,1	3,725168
1,869167	0,1	3,728825
1,870833	0,1	3,801899
1,872500	0,1	3,787478
1,874167	0,1	3,810227
1,875833	0,1	3,813134
1,877500	0,1	3,839908
1,879167	0,1	3,914756
1,880833	0,1	3,914406
1,882500	0,1	3,932551
1,884167	0,1	3,993796
1,885833	0,1	4,032693
1,887500	0,1	4,023872
1,889167	0,1	4,041925
1,890833	0,1	4,041250
1,892500	0,1	4,112738
1,894167	0,1	4,110686
1,895833	0,1	4,134287
1,897500	0,1	4,131941
1,899167	0,1	4,118328
1,900833	0,1	4,204688
1,902500	0,1	4,200707
1,904167	0,1	4,204745
1,905833	0,1	4,195631
1,907500	0,1	4,214176
1,909167	0,1	4,242525
1,910833	0,1	4,253633
1,912500	0,1	4,238881
1,914167	0,1	4,271805
1,915833	0,1	4,272948
1,917500	0,1	4,257164
1,919167	0,1	4,277683
1,920833	0,1	4,297089
1,922500	0,1	4,320255
1,924167	0,1	4,285929
1,925833	0,1	4,289632
1,927500	0,1	4,358449
1,929167	0,1	4,279454
1,930833	0,1	4,284051
1,932500	0,1	4,279713
1,934167	0,1	4,300125
1,935833	0,1	4,303124
1,937500	0,1	4,291546
1,939167	0,1	4,303774
1,940833	0,1	4,300457
1,942500	0,1	4,298266
1,944167	0,1	4,281419
1,945833	0,1	4,291300
1,947500	0,1	4,277569
1,949167	0,1	4,286517
1,950833	0,1	4,257081
1,952500	0,1	4,253957
1,954167	0,1	4,284853
1,955833	0,1	4,282997
1,957500	0,1	4,273765
1,959167	0,1	4,262383
1,960833	0,1	4,289556
1,962500	0,1	4,239830
1,964167	0,1	4,255367
1,965833	0,1	4,244517
1,967500	0,1	4,271688
1,969167	0,1	4,245291
1,970833	0,1	4,311051
1,972500	0,1	4,257931
1,974167	0,1	4,271168
1,975833	0,1	4,286314
1,977500	0,1	4,298789
1,979167	0,1	4,286235
1,980833	0,1	4,295591
1,982500	0,1	4,332164
1,984167	0,1	4,354047
1,985833	0,1	4,351132
1,987500	0,1	4,330234
1,989167	0,1	4,374133
1,990833	0,1	4,359196
1,992500	0,1	4,373368
1,994167	0,1	4,435590
1,995833	0,1	4,426288
1,997500	0,1	4,428515
1,999167	0,1	4,451201
2,000833	0,1	4,448410
2,002500	0,1	4,471258
2,004167	0,1	4,485363
2,005833	0,1	4,513443
2,007500	0,1	4,488249
2,009167	0,1	4,490958
2,010833	0,1	4,560000
2,012500	0,1	4,591014
2,014167	0,1	4,553099
2,015833	0,1	4,566988
2,017500	0,1	4,669034
2,019167	0,1	4,660218
2,020833	0,1	4,666271
2,022500	0,1	4,700636
2,024167	0,1	4,701904
2,025833	0,1	4,755445
2,027500	0,1	4,776380
2,029167	0,1	4,773270
2,030833	0,1	4,806306
2,032500	0,1	4,863988
2,034167	0,1	4,874397
2,035833	0,1	4,915841
2,037500	0,1	4,941491
2,039167	0,1	4,958171
2,040833	0,1	4,973184
2,042500	0,1	5,017152
2,044167	0,1	5,057319
2,045833	0,1	5,051874
2,047500	0,1	5,109958
2,049167	0,1	5,121826
2,050833	0,1	5,131117
2,052500	0,1	5,173036
2,054167	0,1	5,182394
2,055833	0,1	5,246478
2,057500	0,1	5,249429
2,059167	0,1	5,328635
2,060833	0,1	5,314136
2,062500	0,1	5,356718
2,064167	0,1	5,376385
2,065833	0,1	5,418894
2,067500	0,1	5,460201
2,069167	0,1	5,467101
2,070833	0,1	5,486310
2,072500	0,1	5,515468
2,074167	0,1	5,516273
2,075833	0,1	5,581694
2,077500	0,1	5,554086
2,079167	0,1	5,603164
2,080833	0,1	5,642282
2,082500	0,1	5,627688
2,084167	0,1	5,697538
2,085833	0,1	5,711206
2,087500	0,1	5,760984
2,089167	0,1	5,745850
2,090833	0,1	5,785263
2,092500	0,1	5,769389
2,094167	0,1	5,788607
2,095833	0,1	5,796958
2,097500	0,1	5,808689
2,099167	0,1	5,866189
2,100833	0,1	5,848218
2,102500	0,1	5,926659
2,104167	0,1	5,922337
2,105833	0,1	5,898111
2,107500	0,1	5,925178
2,109167	0,1	5,935308
2,110833	0,1	5,914710
2,112500	0,1	6,002707
2,114167	0,1	5,963489
2,115833	0,1	5,972778
2,117500	0,1	5,990415
2,119167	0,1	5,984669
2,120833	0,1	5,989871
2,122500	0,1	6,044534
2,124167	0,1	6,047028
2,125833	0,1	6,013514
2,127500	0,1	6,068787
2,129167	0,1	6,046255
2,130833	0,1	6,049172
2,132500	0,1	6,037077
2,134167	0,1	6,046865
2,135833	0,1	6,057983
2,137500	0,1	6,090548
2,139167	0,1	6,088975
2,140833	0,1	6,062105
2,142500	0,1	6,110647
2,144167	0,1	6,051492
2,145833	0,1	6,082579
2,147500	0,1	6,043237
2,149167	0,1	6,022973
2,150833	0,1	6,059487
2,152500	0,1	6,070203
2,154167	0,1	6,066302
2,155833	0,1	6,033916
2,157500	0,1	6,040149
2,159167	0,1	6,031870
2,160833	0,1	6,048447
2,162500	0,1	6,030638
2,164167	0,1	6,016923
2,165833	0,1	5,996578
2,167500	0,1	6,028184
2,169167	0,1	6,046003
2,170833	0,1	6,008100
2,172500	0,1	5,996278
2,174167	0,1	6,004379
2,175833	0,1	5,945190
2,177500	0,1	6,017675
2,179167	0,1	5,942292
2,180833	0,1	5,964477
2,182500	0,1	5,926124
2,184167	0,1	5,930280
2,185833	0,1	5,896482
2,187500	0,1	5,900706
2,189167	0,1	5,912875
2,190833	0,1	5,883539
2,192500	0,1	5,874552
2,194167	0,1	5,917229
2,195833	0,1	5,865613
2,197500	0,1	5,886817
2,199167	0,1	5,811439
2,200833	0,1	5,845381
2,202500	0,1	5,856356
2,204167	0,1	5,826884
2,205833	0,1	5,849723
2,207500	0,1	5,836519
2,209167	0,1	5,836088
2,210833	0,1	5,821939
2,212500	0,1	5,820635
2,214167	0,1	5,858738
2,215833	0,1	5,835443
2,217500	0,1	5,819774
2,219167	0,1	5,815520
2,220833	0,1	5,855485
2,222500	0,1	5,870994
2,224167	0,1	5,835668
2,225833	0,1	5,856490
2,227500	0,1	5,885234
2,229167	0,1	5,919709
2,230833	0,1	5,939720
2,232500	0,1	5,926752
2,234167	0,1	5,923496
2,235833	0,1	5,912069
2,237500	0,1	5,936605
2,239167	0,1	5,957600
2,240833	0,1	5,993856
2,242500	0,1	5,983528
2,244167	0,1	6,034668
2,245833	0,1	6,025944
2,247500	0,1	6,048622
2,249167	0,1	6,056611
2,250833	0,1	6,050493
2,252500	0,1	6,090369
2,254167	0,1	6,122260
2,255833	0,1	6,133138
2,257500	0,1	6,132089
2,259167	0,1	6,137502
2,260833	0,1	6,156019
2,262500	0,1	6,127274
2,264167	0,1	6,186128
2,265833	0,1	6,174031
2,267500	0,1	6,122413
2,269167	0,1	6,197088
2,270833	0,1	6,170247
2,272500	0,1	6,129526
2,274167	0,1	6,191233
2,275833	0,1	6,135653
2,277500	0,1	6,174949
2,279167	0,1	6,172829
2,280833	0,1	6,160464
2,282500	0,1	6,161927
2,284167	0,1	6,194523
2,285833	0,1	6,136852
2,287500	0,1	6,135758
2,289167	0,1	6,129800
2,290833	0,1	6,123837
2,292500	0,1	6,133612
2,294167	0,1	6,083218
2,295833	0,1	6,102828
2,297500	0,1	6,060351
2,299167	0,1	6,081440
2,300833	0,1	6,072796
2,302500	0,1	6,016845
2,304167	0,1	6,003099
2,305833	0,1	6,000670
2,307500	0,1	5,992021
2,309167	0,1	5,920699
2,310833	0,1	5,948175
2,312500	0,1	5,939323
2,314167	0,1	5,882565
2,315833	0,1	5,876766
2,317500	0,1	5,897750
2,319167	0,1	5,846750
2,320833	0,1	5,878358
2,322500	0,1	5,828081
2,324167	0,1	5,782943
2,325833	0,1	5,771230
2,327500	0,1	5,734778
2,329167	0,1	5,725993
2,330833	0,1	5,684841
2,332500	0,1	5,699349
2,334167	0,1	5,665812
2,335833	0,1	5,670007
2,337500	0,1	5,569875
2,339167	0,1	5,590413
2,340833	0,1	5,578782
2,342500	0,1	5,510354
2,344167	0,1	5,506720
2,345833	0,1	5,472933
2,347500	0,1	5,450640
2,349167	0,1	5,446590
2,350833	0,1	5,442555
2,352500	0,1	5,418407
2,354167	0,1	5,373887
2,355833	0,1	5,396072
2,357500	0,1	5,336464
2,359167	0,1	5,336785
2,360833	0,1	5,303496
2,362500	0,1	5,268050
2,364167	0,1	5,232693
2,365833	0,1	5,223706
2,367500	0,1	5,209983
2,369167	0,1	5,230900
2,370833	0,1	5,161657
2,372500	0,1	5,145553
2,374167	0,1	5,091889
2,375833	0,1	5,130377
2,377500	0,1	5,076955
2,379167	0,1	5,079655
2,380833	0,1	5,052791
2,382500	0,1	4,986319
2,384167	0,1	4,991643
2,385833	0,1	5,018307
2,387500	0,1	5,005647
2,389167	0,1	4,969301
2,390833	0,1	4,949790
2,392500	0,1	4,999308
2,394167	0,1	4,988184
2,395833	0,1	4,993841
2,397500	0,1	4,919498
2,399167	0,1	4,941925
2,400833	0,1	4,896424
2,402500	0,1	4,917144
2,404167	0,1	4,933305
2,405833	0,1	4,937452
2,407500	0,1	4,959749
2,409167	0,1	4,928523
2,410833	0,1	4,915056
2,412500	0,1	4,918779
2,414167	0,1	4,920612
2,415833	0,1	4,934687
2,417500	0,1	4,971763
2,419167	0,1	4,929126
2,420833	0,1	4,942992
2,422500	0,1	4,996106
2,424167	0,1	5,015357
2,425833	0,1	5,013582
2,427500	0,1	5,057768
2,429167	0,1	5,005540
2,430833	0,1	5,047946
2,432500	0,1	5,094096
2,434167	0,1	5,094557
2,435833	0,1	5,084790
2,437500	0,1	5,110195
2,439167	0,1	5,132754
2,440833	0,1	5,163100
2,442500	0,1	5,137282
2,444167	0,1	5,170977
2,445833	0,1	5,194275
2,447500	0,1	5,191852
2,449167	0,1	5,270197
2,450833	0,1	5,246303
2,452500	0,1	5,262221
2,454167	0,1	5,248588
2,455833	0,1	5,297685
2,457500	0,1	5,322572
2,459167	0,1	5,287452
2,460833	0,1	5,314270
2,462500	0,1	5,313089
2,464167	0,1	5,350898
2,465833	0,1	5,310470
2,467500	0,1	5,371820
2,469167	0,1	5,367657
2,470833	0,1	5,344277
2,472500	0,1	5,334104
2,474167	0,1	5,394568
2,475833	0,1	5,381957
2,477500	0,1	5,397519
2,479167	0,1	5,401729
2,480833	0,1	5,416046
2,482500	0,1	5,355220
2,484167	0,1	5,415266
2,485833	0,1	5,415912
2,487500	0,1	5,393990
2,489167	0,1	5,366453
2,490833	0,1	5,375369
2,492500	0,1	5,452932
2,494167	0,1	5,469672
2,495833	0,1	5,405952
2,497500	0,1	5,420826
2,499167	0,1	5,446302
2,500833	0,1	5,409816
2,502500	0,1	5,436836
2,504167	0,1	5,438203
2,505833	0,1	5,454418
2,507500	0,1	5,472578
2,509167	0,1	5,490210
2,510833	0,1	5,490976
2,512500	0,1	5,516033
2,514167	0,1	5,501695
2,515833	0,1	5,535222
2,517500	0,1	5,543225
2,519167	0,1	5,592849
2,520833	0,1	5,620985
2,522500	0,1	5,593370
2,524167	0,1	5,638011
2,525833	0,1	5,683803
2,527500	0,1	5,686674
2,529167	0,1	5,731549
2,530833	0,1	5,731300
2,532500	0,1	5,745344
2,534167	0,1	5,804641
2,535833	0,1	5,886752
2,537500	0,1	5,876448
2,539167	0,1	5,915767
2,540833	0,1	5,991665
2,542500	0,1	5,980838
2,544167	0,1	5,999577
2,545833	0,1	6,049708
2,547500	0,1	6,059358
2,549167	0,1	6,118335
2,550833	0,1	6,178215
2,552500	0,1	6,197559
2,554167	0,1	6,277276
2,555833	0,1	6,243334
2,557500	0,1	6,323299
2,559167	0,1	6,334689
2,560833	0,1	6,374446
2,562500	0,1	6,397346
2,564167	0,1	6,435408
2,565833	0,1	6,470589
2,567500	0,1	6,477572
2,569167	0,1	6,546317
2,570833	0,1	6,565049
2,572500	0,1	6,575303
2,574167	0,1	6,614825
2,575833	0,1	6,588332
2,577500	0,1	6,633106
2,579167	0,1	6,635231
2,580833	0,1	6,655993
2,582500	0,1	6,649847
2,584167	0,1	6,695646
2,585833	0,1	6,689584
2,587500	0,1	6,697688
2,589167	0,1	6,666986
2,590833	0,1	6,706447
2,592500	0,1	6,684962
2,594167	0,1	6,677589
2,595833	0,1	6,660164
2,597500	0,1	6,626556
2,599167	0,1	6,661364
2,600833	0,1	6,641176
2,602500	0,1	6,657109
2,604167	0,1	6,630774
2,605833	0,1	6,585814
2,607500	0,1	6,565413
2,609167	0,1	6,561699
2,610833	0,1	6,527638
2,612500	0,1	6,540403
2,614167	0,1	6,498408
2,615833	0,1	6,462139
2,617500	0,1	6,450130
2,619167	0,1	6,375407
2,620833	0,1	6,350367
2,622500	0,1	6,384531
2,624167	0,1	6,286189
2,625833	0,1	6,295497
2,627500	0,1	6,272334
2,629167	0,1	6,222033
2,630833	0,1	6,154990
2,632500	0,1	6,155461
2,634167	0,1	6,076805
2,635833	0,1	6,033478
2,637500	0,1	6,039675
2,639167	0,1	5,947852
2,640833	0,1	5,912937
2,642500	0,1	5,847055
2,644167	0,1	5,837324
2,645833	0,1	5,773952
2,647500	0,1	5,725352
2,649167	0,1	5,651020
2,650833	0,1	5,635643
2,652500	0,1	5,580070
2,654167	0,1	5,534849
2,655833	0,1	5,513530
2,657500	0,1	5,433280
2,659167	0,1	5,437098
2,660833	0,1	5,357508
2,662500	0,1	5,287516
2,664167	0,1	5,226515
2,665833	0,1	5,215463
2,667500	0,1	5,158803
2,669167	0,1	5,112558
2,670833	0,1	5,034739
2,672500	0,1	4,974281
2,674167	0,1	4,940741
2,675833	0,1	4,890204
2,677500	0,1	4,873722
2,679167	0,1	4,829036
2,680833	0,1	4,734731
2,682500	0,1	4,693225
2,684167	0,1	4,649894
2,685833	0,1	4,625161
2,687500	0,1	4,569512
2,689167	0,1	4,496003
2,690833	0,1	4,463776
2,692500	0,1	4,430711
2,694167	0,1	4,340460
2,695833	0,1	4,309576
2,697500	0,1	4,280170
2,699167	0,1	4,234645
2,700833	0,1	4,219333
2,702500	0,1	4,196896
2,704167	0,1	4,096243
2,705833	0,1	4,072109
2,707500	0,1	4,009969
2,709167	0,1	3,998235
2,710833	0,1	3,944195
2,712500	0,1	3,883407
2,714167	0,1	3,866464
2,715833	0,1	3,816562
2,717500	0,1	3,786984
2,719167	0,1	3,725269
2,720833	0,1	3,711895
2,722500	0,1	3,696002
2,724167	0,1	3,653062
2,725833	0,1	3,643503
2,727500	0,1	3,619591
2,729167	0,1	3,565473
2,730833	0,1	3,518350
2,732500	0,1	3,467136
2,734167	0,1	3,489946
2,735833	0,1	3,428802
2,737500	0,1	3,375235
2,739167	0,1	3,394370
2,740833	0,1	3,357730
2,742500	0,1	3,332791
2,744167	0,1	3,299699
2,745833	0,1	3,272260
2,747500	0,1	3,254039
2,749167	0,1	3,197625
2,750833	0,1	3,191133
2,752500	0,1	3,176838
2,754167	0,1	3,171798
2,755833	0,1	3,100067
2,757500	0,1	3,144127
2,759167	0,1	3,088805
2,760833	0,1	3,053344
2,762500	0,1	3,028832
2,764167	0,1	3,026527
2,765833	0,1	2,997305
2,767500	0,1	2,956615
2,769167	0,1	2,964134
2,770833	0,1	2,939228
2,772500	0,1	2,919348
2,774167	0,1	2,935829
2,775833	0,1	2,889056
2,777500	0,1	2,857197
2,779167	0,1	2,845270
2,780833	0,1	2,849565
2,782500	0,1	2,791949
2,784167	0,1	2,810014
2,785833	0,1	2,755012
2,787500	0,1	2,780100
2,789167	0,1	2,718858
2,790833	0,1	2,719034
2,792500	0,1	2,720193
2,794167	0,1	2,706921
2,795833	0,1	2,694152
2,797500	0,1	2,702601
2,799167	0,1	2,674633
2,800833	0,1	2,674765
2,802500	0,1	2,632466
2,804167	0,1	2,588426
2,805833	0,1	2,583606
2,807500	0,1	2,602461
2,809167	0,1	2,572986
2,810833	0,1	2,552398
2,812500	0,1	2,549029
2,814167	0,1	2,514398
2,815833	0,1	2,532381
2,817500	0,1	2,523138
2,819167	0,1	2,483563
2,820833	0,1	2,501255
2,822500	0,1	2,519399
2,824167	0,1	2,481116
2,825833	0,1	2,441177
2,827500	0,1	2,419664
2,829167	0,1	2,437579
2,830833	0,1	2,394074
2,832500	0,1	2,429690
2,834167	0,1	2,371421
2,835833	0,1	2,394127
2,837500	0,1	2,383741
2,839167	0,1	2,378363
2,840833	0,1	2,357575
2,842500	0,1	2,371189
2,844167	0,1	2,354061
2,845833	0,1	2,322309
2,847500	0,1	2,287111
2,849167	0,1	2,266324
2,850833	0,1	2,294768
2,852500	0,1	2,261380
2,854167	0,1	2,278138
2,855833	0,1	2,238951
2,857500	0,1	2,225538
2,859167	0,1	2,265735
2,860833	0,1	2,208280
2,862500	0,1	2,212992
2,864167	0,1	2,170792
2,865833	0,1	2,222803
2,867500	0,1	2,203035
2,869167	0,1	2,179247
2,870833	0,1	2,141987
2,872500	0,1	2,158741
2,874167	0,1	2,159392
2,875833	0,1	2,182893
2,877500	0,1	2,139270
2,879167	0,1	2,132518
2,880833	0,1	2,134453
2,882500	0,1	2,107241
2,884167	0,1	2,086092
2,885833	0,1	2,107512
2,887500	0,1	2,102071
2,889167	0,1	2,102640
2,890833	0,1	2,062172
2,892500	0,1	2,070972
2,894167	0,1	2,066109
2,895833	0,1	2,065749
2,897500	0,1	2,054787
2,899167	0,1	2,053136
2,900833	0,1	2,033938
2,902500	0,1	2,034949
2,904167	0,1	2,014171
2,905833	0,1	1,956230
2,907500	0,1	1,975775
2,909167	0,1	1,968457
2,910833	0,1	1,995749
2,912500	0,1	1,965753
2,914167	0,1	1,983651
2,915833	0,1	2,010725
2,917500	0,1	1,928378
2,919167	0,1	1,941037
2,920833	0,1	1,943463
2,922500	0,1	1,932305
2,924167	0,1	1,935378
2,925833	0,1	1,922986
2,927500	0,1	1,908371
2,929167	0,1	1,898928
2,930833	0,1	1,924120
2,932500	0,1	1,880315
2,934167	0,1	1,858258
2,935833	0,1	1,881232
2,937500	0,1	1,898625
2,939167	0,1	1,854832
2,940833	0,1	1,862901
2,942500	0,1	1,846945
2,944167	0,1	1,835055
2,945833	0,1	1,812633
2,947500	0,1	1,878278
2,949167	0,1	1,831197
2,950833	0,1	1,859326
2,952500	0,1	1,816791
2,954167	0,1	1,793817
2,955833	0,1	1,778985
2,957500	0,1	1,815861
2,959167	0,1	1,856825
2,960833	0,1	1,745283
2,962500	0,1	1,824217
2,964167	0,1	1,777921
2,965833	0,1	1,800963
2,967500	0,1	1,790522
2,969167	0,1	1,751422
2,970833	0,1	1,718479
2,972500	0,1	1,775677
2,974167	0,1	1,734543
2,975833	0,1	1,747705
2,977500	0,1	1,765377
2,979167	0,1	1,763954
2,980833	0,1	1,736486
2,982500	0,1	1,742966
2,984167	0,1	1,739195
2,985833	0,1	1,768951
2,987500	0,1	1,724005
2,989167	0,1	1,747712
2,990833	0,1	1,720011
2,992500	0,1	1,760226
2,994167	0,1	1,667887
2,995833	0,1	1,730642
2,997500	0,1	1,694174
2,999167	0,1	1,705952
3,000833	0,1	1,702541
3,002500	0,1	1,721195
3,004167	0,1	1,688994
3,005833	0,1	1,738538
3,007500	0,1	1,697441
3,009167	0,1	1,679559
3,010833	0,1	1,707330
3,012500	0,1	1,645867
3,014167	0,1	1,669159
3,015833	0,1	1,682773
3,017500	0,1	1,679980
3,019167	0,1	1,685721
3,020833	0,1	1,672690
3,022500	0,1	1,680621
3,024167	0,1	1,638982
3,025833	0,1	1,620761
3,027500	0,1	1,669591
3,029167	0,1	1,692145
3,030833	0,1	1,631653
3,032500	0,1	1,620787
3,034167	0,1	1,645107
3,035833	0,1	1,659937
3,037500	0,1	1,679424
3,039167	0,1	1,634391
3,040833	0,1	1,621214
3,042500	0,1	1,644668
3,044167	0,1	1,622230
3,045833	0,1	1,624157
3,047500	0,1	1,612852
3,049167	0,1	1,615441
3,050833	0,1	1,606890
3,052500	0,1	1,644417
3,054167	0,1	1,650661
3,055833	0,1	1,612996
3,057500	0,1	1,545635
3,059167	0,1	1,610970
3,060833	0,1	1,603902
3,062500	0,1	1,621508
3,064167	0,1	1,612139
3,065833	0,1	1,598039
3,067500	0,1	1,628659
3,069167	0,1	1,616005
3,070833	0,1	1,605412
3,072500	0,1	1,632182
3,074167	0,1	1,615788
3,075833	0,1	1,613578
3,077500	0,1	1,613167
3,079167	0,1	1,652064
3,080833	0,1	1,563128
3,082500	0,1	1,596823
3,084167	0,1	1,600968
3,085833	0,1	1,604394
3,087500	0,1	1,591887
3,089167	0,1	1,656280
3,090833	0,1	1,553318
3,092500	0,1	1,611603
3,094167	0,1	1,571966
3,095833	0,1	1,609346
3,097500	0,1	1,583736
3,099167	0,1	1,612500
3,100833	0,1	1,632156
3,102500	0,1	1,653851
3,104167	0,1	1,660872
3,105833	0,1	1,659955
3,107500	0,1	1,629604
3,109167	0,1	1,645258
3,110833	0,1	1,665309
3,112500	0,1	1,680634
3,114167	0,1	1,662659
3,115833	0,1	1,700216
3,117500	0,1	1,680997
3,119167	0,1	1,676046
3,120833	0,1	1,695942
3,122500	0,1	1,743841
3,124167	0,1	1,768606
3,125833	0,1	1,734048
3,127500	0,1	1,737467
3,129167	0,1	1,752271
3,130833	0,1	1,781124
3,132500	0,1	1,773241
3,134167	0,1	1,781268
3,135833	0,1	1,799308
3,137500	0,1	1,834461
3,139167	0,1	1,847938
3,140833	0,1	1,855665
3,142500	0,1	1,855528
3,144167	0,1	1,826257
3,145833	0,1	1,886309
3,147500	0,1	1,884234
3,149167	0,1	1,894481
3,150833	0,1	1,908155
3,152500	0,1	1,938811
3,154167	0,1	1,942110
3,155833	0,1	1,934527
3,157500	0,1	1,964370
3,159167	0,1	1,966326
3,160833	0,1	1,971608
3,162500	0,1	1,988226
3,164167	0,1	1,973050
3,165833	0,1	1,994596
3,167500	0,1	1,994110
3,169167	0,1	2,008207
3,170833	0,1	2,016594
3,172500	0,1	2,059791
3,174167	0,1	2,100770
3,175833	0,1	2,069480
3,177500	0,1	2,056570
3,179167	0,1	2,079280
3,180833	0,1	2,108225
3,182500	0,1	2,106157
3,184167	0,1	2,109671
3,185833	0,1	2,068328
3,187500	0,1	2,099916
3,189167	0,1	2,092546
3,190833	0,1	2,106651
3,192500	0,1	2,087253
3,194167	0,1	2,100485
3,195833	0,1	2,105652
3,197500	0,1	2,111958
3,199167	0,1	2,113464
3,200833	0,1	2,092976
3,202500	0,1	2,080568
3,204167	0,1	2,113595
3,205833	0,1	2,086315
3,207500	0,1	2,097845
3,209167	0,1	2,068331
3,210833	0,1	2,080794
3,212500	0,1	2,062167
3,214167	0,1	2,089449
3,215833	0,1	2,073497
3,217500	0,1	2,059446
3,219167	0,1	2,057938
3,220833	0,1	2,033295
3,222500	0,1	2,026351
3,224167	0,1	2,037448
3,225833	0,1	2,030993
3,227500	0,1	2,027073
3,229167	0,1	2,028572
3,230833	0,1	1,974130
3,232500	0,1	1,976339
3,234167	0,1	2,011654
3,235833	0,1	1,969778
3,237500	0,1	1,961810
3,239167	0,1	1,936386
3,240833	0,1	1,943532
3,242500	0,1	1,917042
3,244167	0,1	1,880393
3,245833	0,1	1,899200
3,247500	0,1	1,906581
3,249167	0,1	1,917205
3,250833	0,1	1,891207
3,252500	0,1	1,869938
3,254167	0,1	1,819301
3,255833	0,1	1,845218
3,257500	0,1	1,828485
3,259167	0,1	1,790667
3,260833	0,1	1,787220
3,262500	0,1	1,791383
3,264167	0,1	1,770126
3,265833	0,1	1,729871
3,267500	0,1	1,728011
3,269167	0,1	1,723881
3,270833	0,1	1,725444
3,272500	0,1	1,712689
3,274167	0,1	1,730732
3,275833	0,1	1,669824
3,277500	0,1	1,667740
3,279167	0,1	1,643499
3,280833	0,1	1,633657
3,282500	0,1	1,653494
3,284167	0,1	1,594474
3,285833	0,1	1,623506
3,287500	0,1	1,619677
3,289167	0,1	1,605221
3,290833	0,1	1,572993
3,292500	0,1	1,550466
3,294167	0,1	1,525167
3,295833	0,1	1,578307
3,297500	0,1	1,533387
3,299167	0,1	1,516538
3,300833	0,1	1,507944
3,302500	0,1	1,474382
3,304167	0,1	1,470105
3,305833	0,1	1,457771
3,307500	0,1	1,473252
3,309167	0,1	1,437325
3,310833	0,1	1,428255
3,312500	0,1	1,402996
3,314167	0,1	1,461803
3,315833	0,1	1,371093
3,317500	0,1	1,362321
3,319167	0,1	1,408284
3,320833	0,1	1,364884
3,322500	0,1	1,336203
3,324167	0,1	1,314893
3,325833	0,1	1,321256
3,327500	0,1	1,330688
3,329167	0,1	1,336789
3,330833	0,1	1,336685
3,332500	0,1	1,312185
3,334167	0,1	1,294274
3,335833	0,1	1,219479
3,337500	0,1	1,282669
3,339167	0,1	1,251799
3,340833	0,1	1,248773
3,342500	0,1	1,248154
3,344167	0,1	1,242806
3,345833	0,1	1,237858
3,347500	0,1	1,236723
3,349167	0,1	1,227162
3,350833	0,1	1,236500
3,352500	0,1	1,227095
3,354167	0,1	1,172942
3,355833	0,1	1,251706
3,357500	0,1	1,168600
3,359167	0,1	1,229543
3,360833	0,1	1,196390
3,362500	0,1	1,180965
3,364167	0,1	1,172886
3,365833	0,1	1,149415
3,367500	0,1	1,120152
3,369167	0,1	1,167239
3,370833	0,1	1,134619
3,372500	0,1	1,139914
3,374167	0,1	1,154155
3,375833	0,1	1,108111
3,377500	0,1	1,135692
3,379167	0,1	1,081556
3,380833	0,1	1,116083
3,382500	0,1	1,098587
3,384167	0,1	1,070860
3,385833	0,1	1,110352
3,387500	0,1	1,080823
3,389167	0,1	1,066667
3,390833	0,1	1,075314
3,392500	0,1	1,070567
3,394167	0,1	1,060853
3,395833	0,1	1,059407
3,397500	0,1	1,038052
3,399167	0,1	1,071514
3,400833	0,1	1,068752
3,402500	0,1	1,052202
3,404167	0,1	1,029376
3,405833	0,1	1,042061
3,407500	0,1	1,057812
3,409167	0,1	0,998734
3,410833	0,1	0,995595
3,412500	0,1	1,005371
3,414167	0,1	1,039169
3,415833	0,1	1,017824
3,417500	0,1	1,020992
3,419167	0,1	1,043016
3,420833	0,1	1,017272
3,422500	0,1	0,984602
3,424167	0,1	1,012352
3,425833	0,1	0,985113
3,427500	0,1	1,017613
3,429167	0,1	0,983803
3,430833	0,1	0,982731
3,432500	0,1	0,975436
3,434167	0,1	0,955276
3,435833	0,1	0,971571
3,437500	0,1	0,981732
3,439167	0,1	1,012088
3,440833	0,1	0,965089
3,442500	0,1	1,002266
3,444167	0,1	0,981988
3,445833	0,1	0,955318
3,447500	0,1	0,976425
3,449167	0,1	0,961931
3,450833	0,1	0,947176
3,452500	0,1	0,977118
3,454167	0,1	0,985657
3,455833	0,1	0,960004
3,457500	0,1	0,952086
3,459167	0,1	0,945720
3,460833	0,1	0,955007
3,462500	0,1	0,955562
3,464167	0,1	0,974970
3,465833	0,1	0,949518
3,467500	0,1	0,972684
3,469167	0,1	0,957364
3,470833	0,1	0,963462
3,472500	0,1	0,959578
3,474167	0,1	0,974525
3,475833	0,1	0,941105
3,477500	0,1	0,928739
3,479167	0,1	0,984608
3,480833	0,1	0,941739
3,482500	0,1	0,921863
3,484167	0,1	0,970879
3,485833	0,1	0,971416
3,487500	0,1	0,995432
3,489167	0,1	0,945153
3,490833	0,1	0,953815
3,492500	0,1	0,962082
3,494167	0,1	0,959762
3,495833	0,1	0,954826
3,497500	0,1	0,964367
3,499167	0,1	0,958451
3,500833	0,1	0,966637
3,502500	0,1	0,972151
3,504167	0,1	0,994040
3,505833	0,1	0,997128
3,507500	0,1	0,924616
3,509167	0,1	0,991798
3,510833	0,1	0,995620
3,512500	0,1	0,976843
3,514167	0,1	0,959281
3,515833	0,1	0,941798
3,517500	0,1	0,969626
3,519167	0,1	0,966914
3,520833	0,1	0,972058
3,522500	0,1	0,987768
3,524167	0,1	0,965595
3,525833	0,1	0,972925
3,527500	0,1	0,969802
3,529167	0,1	0,977977
3,530833	0,1	0,992665
3,532500	0,1	0,983953
3,534167	0,1	0,994239
3,535833	0,1	0,974087
3,537500	0,1	0,952536
3,539167	0,1	0,974548
3,540833	0,1	0,976838
3,542500	0,1	0,985104
3,544167	0,1	1,013334
3,545833	0,1	0,995114
3,547500	0,1	0,996434
3,549167	0,1	0,981316
3,550833	0,1	0,934993
3,552500	0,1	0,992942
3,554167	0,1	0,971671
3,555833	0,1	0,983595
3,557500	0,1	0,951514
3,559167	0,1	0,983787
3,560833	0,1	1,005198
3,562500	0,1	0,995689
3,564167	0,1	0,974533
3,565833	0,1	0,977874
3,567500	0,1	0,969516
3,569167	0,1	0,981862
3,570833	0,1	1,008897
3,572500	0,1	0,954997
3,574167	0,1	0,957032
3,575833	0,1	1,020427
3,577500	0,1	0,977229
3,579167	0,1	1,003292
3,580833	0,1	0,961058
3,582500	0,1	0,951088
3,584167	0,1	0,969666
3,585833	0,1	0,964015
3,587500	0,1	0,945183
3,589167	0,1	0,942856
3,590833	0,1	0,956424
3,592500	0,1	0,893840
3,594167	0,1	0,939956
3,595833	0,1	0,952565
3,597500	0,1	0,967069
3,599167	0,1	0,974776
3,600833	0,1	0,944923
3,602500	0,1	0,955612
3,604167	0,1	0,957360
3,605833	0,1	0,951061
3,607500	0,1	0,928201
3,609167	0,1	0,918355
3,610833	0,1	0,886665
3,612500	0,1	0,900475
3,614167	0,1	0,912497
3,615833	0,1	0,926553
3,617500	0,1	0,941697
3,619167	0,1	0,934682
3,620833	0,1	0,931019
3,622500	0,1	0,905116
3,624167	0,1	0,914362
3,625833	0,1	0,900873
3,627500	0,1	0,907001
3,629167	0,1	0,901674
3,630833	0,1	0,875435
3,632500	0,1	0,913069
3,634167	0,1	0,926095
3,635833	0,1	0,885541
3,637500	0,1	0,864539
3,639167	0,1	0,897414
3,640833	0,1	0,846312
3,642500	0,1	0,847556
3,644167	0,1	0,880210
3,645833	0,1	0,871088
3,647500	0,1	0,892365
3,649167	0,1	0,851293
3,650833	0,1	0,840141
3,652500	0,1	0,828113
3,654167	0,1	0,827754
3,655833	0,1	0,892775
3,657500	0,1	0,843552
3,659167	0,1	0,868415
3,660833	0,1	0,817928
3,662500	0,1	0,831386
3,664167	0,1	0,820237
3,665833	0,1	0,823413
3,667500	0,1	0,816344
3,669167	0,1	0,852496
3,670833	0,1	0,815931
3,672500	0,1	0,844789
3,674167	0,1	0,840645
3,675833	0,1	0,808057
3,677500	0,1	0,819489
3,679167	0,1	0,816767
3,680833	0,1	0,826719
3,682500	0,1	0,839167
3,684167	0,1	0,807513
3,685833	0,1	0,816794
3,687500	0,1	0,778296
3,689167	0,1	0,816528
3,690833	0,1	0,786032
3,692500	0,1	0,786515
3,694167	0,1	0,801008
3,695833	0,1	0,809846
3,697500	0,1	0,824147
3,699167	0,1	0,802068
3,700833	0,1	0,821481
3,702500	0,1	0,795809
3,704167	0,1	0,797920
3,705833	0,1	0,773692
3,707500	0,1	0,774041
3,709167	0,1	0,746018
3,710833	0,1	0,811017
3,712500	0,1	0,788703
3,714167	0,1	0,773690
3,715833	0,1	0,786092
3,717500	0,1	0,727772
3,719167	0,1	0,782769
3,720833	0,1	0,778187
3,722500	0,1	0,807304
3,724167	0,1	0,770387
3,725833	0,1	0,764016
3,727500	0,1	0,748461
3,729167	0,1	0,766291
3,730833	0,1	0,815882
3,732500	0,1	0,806512
3,734167	0,1	0,784268
3,735833	0,1	0,799493
3,737500	0,1	0,755151
3,739167	0,1	0,773139
3,740833	0,1	0,779765
3,742500	0,1	0,791461
3,744167	0,1	0,770250
3,745833	0,1	0,791842
3,747500	0,1	0,757012
3,749167	0,1	0,785671
3,750833	0,1	0,755341
3,752500	0,1	0,789527
3,754167	0,1	0,828966
3,755833	0,1	0,779968
3,757500	0,1	0,816976
3,759167	0,1	0,845808
3,760833	0,1	0,802567
3,762500	0,1	0,823054
3,764167	0,1	0,814125
3,765833	0,1	0,789893
3,767500	0,1	0,795190
3,769167	0,1	0,810104
3,770833	0,1	0,808980
3,772500	0,1	0,830163
3,774167	0,1	0,800666
3,775833	0,1	0,844361
3,777500	0,1	0,798741
3,779167	0,1	0,852752
3,780833	0,1	0,833026
3,782500	0,1	0,828528
3,784167	0,1	0,809923
3,785833	0,1	0,827036
3,787500	0,1	0,850030
3,789167	0,1	0,830296
3,790833	0,1	0,842929
3,792500	0,1	0,852567
3,794167	0,1	0,875199
3,795833	0,1	0,851484
3,797500	0,1	0,853733
3,799167	0,1	0,851992
3,800833	0,1	0,897663
3,802500	0,1	0,880678
3,804167	0,1	0,899122
3,805833	0,1	0,911501
3,807500	0,1	0,897331
3,809167	0,1	0,879748
3,810833	0,1	0,861101
3,812500	0,1	0,897544
3,814167	0,1	0,919804
3,815833	0,1	0,885445
3,817500	0,1	0,891595
3,819167	0,1	0,915699
3,820833	0,1	0,915362
3,822500	0,1	0,882901
3,824167	0,1	0,863960
3,825833	0,1	0,934348
3,827500	0,1	0,896854
3,829167	0,1	0,914976
3,830833	0,1	0,933967
3,832500	0,1	0,938447
3,834167	0,1	0,935549
3,835833	0,1	0,949127
3,837500	0,1	0,925537
3,839167	0,1	0,918159
3,840833	0,1	0,940699
3,842500	0,1	0,948801
3,844167	0,1	0,955205
3,845833	0,1	0,927391
3,847500	0,1	0,961854
3,849167	0,1	0,960995
3,850833	0,1	0,921999
3,852500	0,1	0,956000
3,854167	0,1	0,991858
3,855833	0,1	0,944993
3,857500	0,1	0,974652
3,859167	0,1	0,946499
3,860833	0,1	0,948040
3,862500	0,1	0,951990
3,864167	0,1	0,971045
3,865833	0,1	0,953727
3,867500	0,1	0,958486
3,869167	0,1	0,972817
3,870833	0,1	0,965395
3,872500	0,1	0,964304
3,874167	0,1	0,951259
3,875833	0,1	0,928713
3,877500	0,1	0,940531
3,879167	0,1	0,961922
3,880833	0,1	0,968042
3,882500	0,1	0,928114
3,884167	0,1	0,954884
3,885833	0,1	0,951283
3,887500	0,1	0,951085
3,889167	0,1	0,973433
3,890833	0,1	0,962364
3,892500	0,1	0,914992
3,894167	0,1	0,964869
3,895833	0,1	0,958320
3,897500	0,1	0,897594
3,899167	0,1	0,946665
3,900833	0,1	0,956359
3,902500	0,1	0,930617
3,904167	0,1	0,934691
3,905833	0,1	0,932399
3,907500	0,1	0,909998
3,909167	0,1	0,924623
3,910833	0,1	0,927842
3,912500	0,1	0,904462
3,914167	0,1	0,926838
3,915833	0,1	0,886984
3,917500	0,1	0,925025
3,919167	0,1	0,892090
3,920833	0,1	0,899898
3,922500	0,1	0,909348
3,924167	0,1	0,963438
3,925833	0,1	0,890180
3,927500	0,1	0,868910
3,929167	0,1	0,872314
3,930833	0,1	0,902149
3,932500	0,1	0,897293
3,934167	0,1	0,911043
3,935833	0,1	0,895301
3,937500	0,1	0,858560
3,939167	0,1	0,898046
3,940833	0,1	0,816461
3,942500	0,1	0,855365
3,944167	0,1	0,859476
3,945833	0,1	0,828983
3,947500	0,1	0,860155
3,949167	0,1	0,865392
3,950833	0,1	0,856720
3,952500	0,1	0,847688
3,954167	0,1	0,839394
3,955833	0,1	0,816895
3,957500	0,1	0,753615
3,959167	0,1	0,795759
3,960833	0,1	0,826939
3,962500	0,1	0,812429
3,964167	0,1	0,795066
3,965833	0,1	0,845485
3,967500	0,1	0,782025
3,969167	0,1	0,801551
3,970833	0,1	0,800783
3,972500	0,1	0,756375
3,974167	0,1	0,821022
3,975833	0,1	0,758883
3,977500	0,1	0,808773
3,979167	0,1	0,764697
3,980833	0,1	0,771626
3,982500	0,1	0,737182
3,984167	0,1	0,757452
3,985833	0,1	0,761665
3,987500	0,1	0,756909
3,989167	0,1	0,758997
3,990833	0,1	0,772656
3,992500	0,1	0,765331
3,994167	0,1	0,726482
3,995833	0,1	0,749253
3,997500	0,1	0,705045
3,999167	0,1	0,759850
4,000833	0,1	0,749455
4,002500	0,1	0,740232
4,004167	0,1	0,734701
4,005833	0,1	0,765802
4,007500	0,1	0,717036
4,009167	0,1	0,724058
4,010833	0,1	0,732898
4,012500	0,1	0,741833
4,014167	0,1	0,728533
4,015833	0,1	0,714650
4,017500	0,1	0,765895
4,019167	0,1	0,740394
4,020833	0,1	0,740100
4,022500	0,1	0,719729
4,024167	0,1	0,720012
4,025833	0,1	0,726213
4,027500	0,1	0,741990
4,029167	0,1	0,714040
4,030833	0,1	0,737074
4,032500	0,1	0,751089
4,034167	0,1	0,790580
4,035833	0,1	0,737283
4,037500	0,1	0,781356
4,039167	0,1	0,757172
4,040833	0,1	0,763625
4,042500	0,1	0,717003
4,044167	0,1	0,721361
4,045833	0,1	0,736014
4,047500	0,1	0,775864
4,049167	0,1	0,757684
4,050833	0,1	0,743092
4,052500	0,1	0,817703
4,054167	0,1	0,792561
4,055833	0,1	0,797248
4,057500	0,1	0,796830
4,059167	0,1	0,817883
4,060833	0,1	0,792626
4,062500	0,1	0,815181
4,064167	0,1	0,845490
4,065833	0,1	0,840197
4,067500	0,1	0,849873
4,069167	0,1	0,817382
4,070833	0,1	0,874977
4,072500	0,1	0,862803
4,074167	0,1	0,947300
4,075833	0,1	0,890502
4,077500	0,1	0,910501
4,079167	0,1	0,897005
4,080833	0,1	0,895689
4,082500	0,1	0,944813
4,084167	0,1	0,953340
4,085833	0,1	0,947911
4,087500	0,1	1,006030
4,089167	0,1	0,978812
4,090833	0,1	0,979121
4,092500	0,1	1,013622
4,094167	0,1	1,049864
4,095833	0,1	0,994165
4,097500	0,1	1,054493
4,099167	0,1	1,056305
4,100833	0,1	1,026451
4,102500	0,1	1,067159
4,104167	0,1	1,073913
4,105833	0,1	1,101174
4,107500	0,1	1,136268
4,109167	0,1	1,163072
4,110833	0,1	1,185615
4,112500	0,1	1,172066
4,114167	0,1	1,183732
4,115833	0,1	1,201371
4,117500	0,1	1,219434
4,119167	0,1	1,239649
4,120833	0,1	1,217402
4,122500	0,1	1,226424
4,124167	0,1	1,241425
4,125833	0,1	1,276549
4,127500	0,1	1,304494
4,129167	0,1	1,318591
4,130833	0,1	1,323416
4,132500	0,1	1,374787
4,134167	0,1	1,383425
4,135833	0,1	1,387643
4,137500	0,1	1,385255
4,139167	0,1	1,418163
4,140833	0,1	1,430826
4,142500	0,1	1,455745
4,144167	0,1	1,427192
4,145833	0,1	1,450477
4,147500	0,1	1,464577
4,149167	0,1	1,488467
4,150833	0,1	1,472766
4,152500	0,1	1,506917
4,154167	0,1	1,546996
4,155833	0,1	1,538295
4,157500	0,1	1,564456
4,159167	0,1	1,544517
4,160833	0,1	1,571707
4,162500	0,1	1,584728
4,164167	0,1	1,578799
4,165833	0,1	1,592935
4,167500	0,1	1,622286
4,169167	0,1	1,639982
4,170833	0,1	1,637601
4,172500	0,1	1,640683
4,174167	0,1	1,648633
4,175833	0,1	1,630821
4,177500	0,1	1,678241
4,179167	0,1	1,671675
4,180833	0,1	1,639499
4,182500	0,1	1,688230
4,184167	0,1	1,687941
4,185833	0,1	1,656303
4,187500	0,1	1,706531
4,189167	0,1	1,716780
4,190833	0,1	1,704556
4,192500	0,1	1,685137
4,194167	0,1	1,741551
4,195833	0,1	1,716789
4,197500	0,1	1,703970
4,199167	0,1	1,743038
4,200833	0,1	1,693302
4,202500	0,1	1,746900
4,204167	0,1	1,732742
4,205833	0,1	1,727585
4,207500	0,1	1,727780
4,209167	0,1	1,735902
4,210833	0,1	1,750568
4,212500	0,1	1,734744
4,214167	0,1	1,740619
4,215833	0,1	1,744209
4,217500	0,1	1,720815
4,219167	0,1	1,738983
4,220833	0,1	1,747913
4,222500	0,1	1,738769
4,224167	0,1	1,737686
4,225833	0,1	1,717201
4,227500	0,1	1,750287
4,229167	0,1	1,762248
4,230833	0,1	1,703348
4,232500	0,1	1,760153
4,234167	0,1	1,712664
4,235833	0,1	1,714987
4,237500	0,1	1,712711
4,239167	0,1	1,697814
4,240833	0,1	1,724656
4,242500	0,1	1,666479
4,244167	0,1	1,708029
4,245833	0,1	1,675217
4,247500	0,1	1,691722
4,249167	0,1	1,663237
4,250833	0,1	1,648021
4,252500	0,1	1,696180
4,254167	0,1	1,641643
4,255833	0,1	1,646358
4,257500	0,1	1,648276
4,259167	0,1	1,618093
4,260833	0,1	1,591754
4,262500	0,1	1,615600
4,264167	0,1	1,613880
4,265833	0,1	1,566338
4,267500	0,1	1,572574
4,269167	0,1	1,596058
4,270833	0,1	1,565417
4,272500	0,1	1,545093
4,274167	0,1	1,560458
4,275833	0,1	1,494671
4,277500	0,1	1,514734
4,279167	0,1	1,506520
4,280833	0,1	1,530710
4,282500	0,1	1,502206
4,284167	0,1	1,506889
4,285833	0,1	1,447989
4,287500	0,1	1,455293
4,289167	0,1	1,460020
4,290833	0,1	1,494172
4,292500	0,1	1,435147
4,294167	0,1	1,459965
4,295833	0,1	1,420891
4,297500	0,1	1,386550
4,299167	0,1	1,446045
4,300833	0,1	1,367774
4,302500	0,1	1,369005
4,304167	0,1	1,373106
4,305833	0,1	1,400175
4,307500	0,1	1,351013
4,309167	0,1	1,355304
4,310833	0,1	1,347159
4,312500	0,1	1,313099
4,314167	0,1	1,298135
4,315833	0,1	1,286040
4,317500	0,1	1,302963
4,319167	0,1	1,259484
4,320833	0,1	1,290642
4,322500	0,1	1,276917
4,324167	0,1	1,279662
4,325833	0,1	1,260405
4,327500	0,1	1,244048
4,329167	0,1	1,230334
4,330833	0,1	1,238894
4,332500	0,1	1,247193
4,334167	0,1	1,172060
4,335833	0,1	1,192383
4,337500	0,1	1,189171
4,339167	0,1	1,215570
4,340833	0,1	1,173671
4,342500	0,1	1,153478
4,344167	0,1	1,128694
4,345833	0,1	1,153932
4,347500	0,1	1,133354
4,349167	0,1	1,103916
4,350833	0,1	1,106375
4,352500	0,1	1,119479
4,354167	0,1	1,126980
4,355833	0,1	1,150604
4,357500	0,1	1,124773
4,359167	0,1	1,059052
4,360833	0,1	1,044367
4,362500	0,1	1,064376
4,364167	0,1	1,067306
4,365833	0,1	1,058659
4,367500	0,1	1,028587
4,369167	0,1	1,065790
4,370833	0,1	1,051914
4,372500	0,1	1,038785
4,374167	0,1	1,062247
4,375833	0,1	1,028878
4,377500	0,1	0,973898
4,379167	0,1	0,971575
4,380833	0,1	1,025994
4,382500	0,1	0,995183
4,384167	0,1	0,992247
4,385833	0,1	0,996879
4,387500	0,1	0,961200
4,389167	0,1	1,011004
4,390833	0,1	0,978592
4,392500	0,1	1,002138
4,394167	0,1	0,918663
4,395833	0,1	0,971194
4,397500	0,1	0,954017
4,399167	0,1	0,935553
4,400833	0,1	0,935363
4,402500	0,1	0,960361
4,404167	0,1	0,867483
4,405833	0,1	0,872856
4,407500	0,1	0,895710
4,409167	0,1	0,882766
4,410833	0,1	0,904491
4,412500	0,1	0,886169
4,414167	0,1	0,872608
4,415833	0,1	0,864509
4,417500	0,1	0,891684
4,419167	0,1	0,826839
4,420833	0,1	0,828687
4,422500	0,1	0,852434
4,424167	0,1	0,849738
4,425833	0,1	0,854562
4,427500	0,1	0,879598
4,429167	0,1	0,825291
4,430833	0,1	0,802108
4,432500	0,1	0,802291
4,434167	0,1	0,819327
4,435833	0,1	0,833185
4,437500	0,1	0,785334
4,439167	0,1	0,815142
4,440833	0,1	0,801170
4,442500	0,1	0,809840
4,444167	0,1	0,759074
4,445833	0,1	0,801864
4,447500	0,1	0,746028
4,449167	0,1	0,749900
4,450833	0,1	0,741194
4,452500	0,1	0,785532
4,454167	0,1	0,767840
4,455833	0,1	0,771308
4,457500	0,1	0,765491
4,459167	0,1	0,747848
4,460833	0,1	0,719344
4,462500	0,1	0,740286
4,464167	0,1	0,686407
4,465833	0,1	0,718267
4,467500	0,1	0,687529
4,469167	0,1	0,739700
4,470833	0,1	0,688785
4,472500	0,1	0,701979
4,474167	0,1	0,664102
4,475833	0,1	0,666984
4,477500	0,1	0,709587
4,479167	0,1	0,677661
4,480833	0,1	0,686683
4,482500	0,1	0,657321
4,484167	0,1	0,669779
4,485833	0,1	0,663388
4,487500	0,1	0,658888
4,489167	0,1	0,658406
4,490833	0,1	0,644014
4,492500	0,1	0,627786
4,494167	0,1	0,599386
4,495833	0,1	0,656015
4,497500	0,1	0,587733
4,499167	0,1	0,641298
4,500833	0,1	0,636108
4,502500	0,1	0,614903
4,504167	0,1	0,603205
4,505833	0,1	0,595334
4,507500	0,1	0,634748
4,509167	0,1	0,610536
4,510833	0,1	0,593184
4,512500	0,1	0,600502
4,514167	0,1	0,601725
4,515833	0,1	0,575801
4,517500	0,1	0,555333
4,519167	0,1	0,608011
4,520833	0,1	0,581943
4,522500	0,1	0,529321
4,524167	0,1	0,565026
4,525833	0,1	0,549778
4,527500	0,1	0,516339
4,529167	0,1	0,561457
4,530833	0,1	0,546693
4,532500	0,1	0,548844
4,534167	0,1	0,569787
4,535833	0,1	0,557842
4,537500	0,1	0,504680
4,539167	0,1	0,556766
4,540833	0,1	0,528064
4,542500	0,1	0,560338
4,544167	0,1	0,541011
4,545833	0,1	0,504937
4,547500	0,1	0,498344
4,549167	0,1	0,497446
4,550833	0,1	0,520314
4,552500	0,1	0,500817
4,554167	0,1	0,526350
4,555833	0,1	0,459197
4,557500	0,1	0,498558
4,559167	0,1	0,557183
4,560833	0,1	0,502887
4,562500	0,1	0,503389
4,564167	0,1	0,499726
4,565833	0,1	0,489575
4,567500	0,1	0,473453
4,569167	0,1	0,470402
4,570833	0,1	0,443263
4,572500	0,1	0,438372
4,574167	0,1	0,465898
4,575833	0,1	0,479391
4,577500	0,1	0,446505
4,579167	0,1	0,466225
4,580833	0,1	0,433994
4,582500	0,1	0,413868
4,584167	0,1	0,458084
4,585833	0,1	0,461505
4,587500	0,1	0,434723
4,589167	0,1	0,441556
4,590833	0,1	0,468395
4,592500	0,1	0,450716
4,594167	0,1	0,414939
4,595833	0,1	0,421770
4,597500	0,1	0,395242
4,599167	0,1	0,418400
4,600833	0,1	0,421922
4,602500	0,1	0,400328
4,604167	0,1	0,431725
4,605833	0,1	0,417893
4,607500	0,1	0,413548
4,609167	0,1	0,408635
4,610833	0,1	0,447807
4,612500	0,1	0,397916
4,614167	0,1	0,403533
4,615833	0,1	0,429599
4,617500	0,1	0,393266
4,619167	0,1	0,406352
4,620833	0,1	0,400991
4,622500	0,1	0,389860
4,624167	0,1	0,365090
4,625833	0,1	0,378128
4,627500	0,1	0,389137
4,629167	0,1	0,380249
4,630833	0,1	0,379380
4,632500	0,1	0,372631
4,634167	0,1	0,357811
4,635833	0,1	0,347042
4,637500	0,1	0,367132
4,639167	0,1	0,329708
4,640833	0,1	0,376610
4,642500	0,1	0,354588
4,644167	0,1	0,357681
4,645833	0,1	0,374714
4,647500	0,1	0,367655
4,649167	0,1	0,310660
4,650833	0,1	0,369731
4,652500	0,1	0,314200
4,654167	0,1	0,342374
4,655833	0,1	0,330595
4,657500	0,1	0,359688
4,659167	0,1	0,338218
4,660833	0,1	0,323509
4,662500	0,1	0,320960
4,664167	0,1	0,280991
4,665833	0,1	0,371611
4,667500	0,1	0,338447
4,669167	0,1	0,345627
4,670833	0,1	0,303687
4,672500	0,1	0,308193
4,674167	0,1	0,338948
4,675833	0,1	0,318912
4,677500	0,1	0,367718
4,679167	0,1	0,304506
4,680833	0,1	0,328386
4,682500	0,1	0,305427
4,684167	0,1	0,284010
4,685833	0,1	0,282408
4,687500	0,1	0,324466
4,689167	0,1	0,308426
4,690833	0,1	0,294924
4,692500	0,1	0,288830
4,694167	0,1	0,309952
4,695833	0,1	0,317433
4,697500	0,1	0,279831
4,699167	0,1	0,316621
4,700833	0,1	0,304219
4,702500	0,1	0,274709
4,704167	0,1	0,309119
4,705833	0,1	0,298793
4,707500	0,1	0,304778
4,709167	0,1	0,313871
4,710833	0,1	0,282415
4,712500	0,1	0,286197
4,714167	0,1	0,277732
4,715833	0,1	0,309204
4,717500	0,1	0,257666
4,719167	0,1	0,277571
4,720833	0,1	0,321277
4,722500	0,1	0,303640
4,724167	0,1	0,241827
4,725833	0,1	0,285795
4,727500	0,1	0,288537
4,729167	0,1	0,243334
4,730833	0,1	0,231974
4,732500	0,1	0,278974
4,734167	0,1	0,282861
4,735833	0,1	0,291230
4,737500	0,1	0,254515
4,739167	0,1	0,251775
4,740833	0,1	0,249269
4,742500	0,1	0,262624
4,744167	0,1	0,225583
4,745833	0,1	0,262681
4,747500	0,1	0,273908
4,749167	0,1	0,273252
4,750833	0,1	0,262692
4,752500	0,1	0,253060
4,754167	0,1	0,274055
4,755833	0,1	0,247075
4,757500	0,1	0,271337
4,759167	0,1	0,290022
4,760833	0,1	0,248280
4,762500	0,1	0,225723
4,764167	0,1	0,224165
4,765833	0,1	0,269179
4,767500	0,1	0,235231
4,769167	0,1	0,284276
4,770833	0,1	0,222604
4,772500	0,1	0,227374
4,774167	0,1	0,260669
4,775833	0,1	0,220424
4,777500	0,1	0,226378
4,779167	0,1	0,246838
4,780833	0,1	0,258522
4,782500	0,1	0,222142
4,784167	0,1	0,225943
4,785833	0,1	0,228118
4,787500	0,1	0,239860
4,789167	0,1	0,229840
4,790833	0,1	0,226422
4,792500	0,1	0,196172
4,794167	0,1	0,255589
4,795833	0,1	0,199739
4,797500	0,1	0,231550
4,799167	0,1	0,215760
4,800833	0,1	0,197142
4,802500	0,1	0,213224
4,804167	0,1	0,262137
4,805833	0,1	0,211543
4,807500	0,1	0,247497
4,809167	0,1	0,219592
4,810833	0,1	0,214224
4,812500	0,1	0,245364
4,814167	0,1	0,231437
4,815833	0,1	0,253320
4,817500	0,1	0,235682
4,819167	0,1	0,229571
4,820833	0,1	0,235035
4,822500	0,1	0,212840
4,824167	0,1	0,207762
4,825833	0,1	0,198362
4,827500	0,1	0,217366
4,829167	0,1	0,213002
4,830833	0,1	0,197243
4,832500	0,1	0,176432
4,834167	0,1	0,232704
4,835833	0,1	0,218118
4,837500	0,1	0,207514
4,839167	0,1	0,230536
4,840833	0,1	0,258456
4,842500	0,1	0,202514
4,844167	0,1	0,210307
4,845833	0,1	0,207928
4,847500	0,1	0,215463
4,849167	0,1	0,235382
4,850833	0,1	0,232365
4,852500	0,1	0,186068
4,854167	0,1	0,223429
4,855833	0,1	0,225262
4,857500	0,1	0,217475
4,859167	0,1	0,186064
4,860833	0,1	0,197755
4,862500	0,1	0,229936
4,864167	0,1	0,179050
4,865833	0,1	0,215829
4,867500	0,1	0,209793
4,869167	0,1	0,223434
4,870833	0,1	0,214121
4,872500	0,1	0,173642
4,874167	0,1	0,198187
4,875833	0,1	0,251425
4,877500	0,1	0,256386
4,879167	0,1	0,222037
4,880833	0,1	0,198552
4,882500	0,1	0,210719
4,884167	0,1	0,197492
4,885833	0,1	0,195314
4,887500	0,1	0,181504
4,889167	0,1	0,202930
4,890833	0,1	0,217718
4,892500	0,1	0,180331
4,894167	0,1	0,201355
4,895833	0,1	0,185399
4,897500	0,1	0,200302
4,899167	0,1	0,205005
4,900833	0,1	0,213392
4,902500	0,1	0,217907
4,904167	0,1	0,236729
4,905833	0,1	0,195657
4,907500	0,1	0,171877
4,909167	0,1	0,174999
4,910833	0,1	0,231957
4,912500	0,1	0,218180
4,914167	0,1	0,204492
4,915833	0,1	0,195980
4,917500	0,1	0,213764
4,919167	0,1	0,262734
4,920833	0,1	0,214834
4,922500	0,1	0,227349
4,924167	0,1	0,209091
4,925833	0,1	0,214510
4,927500	0,1	0,232713
4,929167	0,1	0,222572
4,930833	0,1	0,198012
4,932500	0,1	0,192685
4,934167	0,1	0,214051
4,935833	0,1	0,211593
4,937500	0,1	0,205980
4,939167	0,1	0,225110
4,940833	0,1	0,202486
4,942500	0,1	0,220410
4,944167	0,1	0,235303
4,945833	0,1	0,246923
4,947500	0,1	0,251419
4,949167	0,1	0,241459
4,950833	0,1	0,221972
4,952500	0,1	0,225012
4,954167	0,1	0,243815
4,955833	0,1	0,226694
4,957500	0,1	0,175217
4,959167	0,1	0,219162
4,960833	0,1	0,225094
4,962500	0,1	0,207247
4,964167	0,1	0,217182
4,965833	0,1	0,194844
4,967500	0,1	0,205750
4,969167	0,1	0,242339
4,970833	0,1	0,250339
4,972500	0,1	0,215123
4,974167	0,1	0,220911
4,975833	0,1	0,219193
4,977500	0,1	0,187224
4,979167	0,1	0,262047
4,980833	0,1	0,222992
4,982500	0,1	0,197950
4,984167	0,1	0,211589
4,985833	0,1	0,219708
4,987500	0,1	0,253089
4,989167	0,1	0,246553
4,990833	0,1	0,194415
4,992500	0,1	0,219085
4,994167	0,1	0,221783
4,995833	0,1	0,231906
4,997500	0,1	0,239487
4,999167	0,1	0,251747
5,000833	0,1	0,204149
5,002500	0,1	0,253789
5,004167	0,1	0,273618
5,005833	0,1	0,256353
5,007500	0,1	0,214482
5,009167	0,1	0,234846
5,010833	0,1	0,241600
5,012500	0,1	0,246675
5,014167	0,1	0,243428
5,015833	0,1	0,239513
5,017500	0,1	0,247049
5,019167	0,1	0,213029
5,020833	0,1	0,261825
5,022500	0,1	0,252873
5,024167	0,1	0,278049
5,025833	0,1	0,254615
5,027500	0,1	0,233965
5,029167	0,1	0,253672
5,030833	0,1	0,278837
5,032500	0,1	0,278906
5,034167	0,1	0,273128
5,035833	0,1	0,254840
5,037500	0,1	0,305904
5,039167	0,1	0,302541
5,040833	0,1	0,270049
5,042500	0,1	0,312516
5,044167	0,1	0,259821
5,045833	0,1	0,275340
5,047500	0,1	0,299176
5,049167	0,1	0,296034
5,050833	0,1	0,271497
5,052500	0,1	0,280166
5,054167	0,1	0,258780
5,055833	0,1	0,327608
5,057500	0,1	0,268709
5,059167	0,1	0,300129
5,060833	0,1	0,330625
5,062500	0,1	0,290224
5,064167	0,1	0,305747
5,065833	0,1	0,293036
5,067500	0,1	0,287317
5,069167	0,1	0,308502
5,070833	0,1	0,285708
5,072500	0,1	0,303632
5,074167	0,1	0,337514
5,075833	0,1	0,300951
5,077500	0,1	0,319523
5,079167	0,1	0,330002
5,080833	0,1	0,306423
5,082500	0,1	0,320823
5,084167	0,1	0,315181
5,085833	0,1	0,276659
5,087500	0,1	0,306307
5,089167	0,1	0,312712
5,090833	0,1	0,355001
5,092500	0,1	0,326144
5,094167	0,1	0,309444
5,095833	0,1	0,319259
5,097500	0,1	0,331497
5,099167	0,1	0,314165
5,100833	0,1	0,335137
5,102500	0,1	0,354804
5,104167	0,1	0,315871
5,105833	0,1	0,311014
5,107500	0,1	0,324824
5,109167	0,1	0,350409
5,110833	0,1	0,353663
5,112500	0,1	0,345594
5,114167	0,1	0,347783
5,115833	0,1	0,328231
5,117500	0,1	0,342994
5,119167	0,1	0,306652
5,120833	0,1	0,377988
5,122500	0,1	0,311242
5,124167	0,1	0,337048
5,125833	0,1	0,342102
5,127500	0,1	0,314027
5,129167	0,1	0,338926
5,130833	0,1	0,362963
5,132500	0,1	0,344577
5,134167	0,1	0,325788
5,135833	0,1	0,353243
5,137500	0,1	0,307462
5,139167	0,1	0,315343
5,140833	0,1	0,353591
5,142500	0,1	0,339704
5,144167	0,1	0,312720
5,145833	0,1	0,344314
5,147500	0,1	0,353966
5,149167	0,1	0,327591
5,150833	0,1	0,375563
5,152500	0,1	0,392269
5,154167	0,1	0,323005
5,155833	0,1	0,338726
5,157500	0,1	0,346988
5,159167	0,1	0,353473
5,160833	0,1	0,350932
5,162500	0,1	0,301001
5,164167	0,1	0,359618
5,165833	0,1	0,312600
5,167500	0,1	0,339554
5,169167	0,1	0,327439
5,170833	0,1	0,285816
5,172500	0,1	0,330120
5,174167	0,1	0,321736
5,175833	0,1	0,316731
5,177500	0,1	0,346906
5,179167	0,1	0,331027
5,180833	0,1	0,319279
5,182500	0,1	0,319173
5,184167	0,1	0,344629
5,185833	0,1	0,336842
5,187500	0,1	0,285590
5,189167	0,1	0,322087
5,190833	0,1	0,327232
5,192500	0,1	0,321540
5,194167	0,1	0,354751
5,195833	0,1	0,329657
5,197500	0,1	0,307369
5,199167	0,1	0,305462
5,200833	0,1	0,319900
5,202500	0,1	0,292939
5,204167	0,1	0,347354
5,205833	0,1	0,308870
5,207500	0,1	0,292707
5,209167	0,1	0,271785
5,210833	0,1	0,276110
5,212500	0,1	0,310920
5,214167	0,1	0,316666
5,215833	0,1	0,292687
5,217500	0,1	0,303258
5,219167	0,1	0,292080
5,220833	0,1	0,286425
5,222500	0,1	0,245857
5,224167	0,1	0,302918
5,225833	0,1	0,299621
5,227500	0,1	0,262282
5,229167	0,1	0,285071
5,230833	0,1	0,264184
5,232500	0,1	0,270535
5,234167	0,1	0,243615
5,235833	0,1	0,250363
5,237500	0,1	0,284576
5,239167	0,1	0,253333
5,240833	0,1	0,272355
5,242500	0,1	0,247779
5,244167	0,1	0,299332
5,245833	0,1	0,236044
5,247500	0,1	0,272704
5,249167	0,1	0,246519
5,250833	0,1	0,261628
5,252500	0,1	0,213013
5,254167	0,1	0,251515
5,255833	0,1	0,255477
5,257500	0,1	0,217276
5,259167	0,1	0,254913
5,260833	0,1	0,266744
5,262500	0,1	0,212268
5,264167	0,1	0,240210
5,265833	0,1	0,283203
5,267500	0,1	0,244260
5,269167	0,1	0,241353
5,270833	0,1	0,231810
5,272500	0,1	0,203771
5,274167	0,1	0,213516
5,275833	0,1	0,225236
5,277500	0,1	0,212651
5,279167	0,1	0,239773
5,280833	0,1	0,200210
5,282500	0,1	0,231675
5,284167	0,1	0,221743
5,285833	0,1	0,180518
5,287500	0,1	0,238687
5,289167	0,1	0,242410
5,290833	0,1	0,194726
5,292500	0,1	0,219291
5,294167	0,1	0,208923
5,295833	0,1	0,201156
5,297500	0,1	0,236021
5,299167	0,1	0,220231
5,300833	0,1	0,218406
5,302500	0,1	0,198302
5,304167	0,1	0,208442
5,305833	0,1	0,206519
5,307500	0,1	0,210203
5,309167	0,1	0,176000
5,310833	0,1	0,214316
5,312500	0,1	0,212360
5,314167	0,1	0,187079
5,315833	0,1	0,209184
5,317500	0,1	0,230825
5,319167	0,1	0,204184
5,320833	0,1	0,161300
5,322500	0,1	0,148103
5,324167	0,1	0,224932
5,325833	0,1	0,201884
5,327500	0,1	0,158670
5,329167	0,1	0,178369
5,330833	0,1	0,185642
5,332500	0,1	0,188810
5,334167	0,1	0,163221
5,335833	0,1	0,182512
5,337500	0,1	0,161338
5,339167	0,1	0,192719
5,340833	0,1	0,200013
5,342500	0,1	0,171009
5,344167	0,1	0,181168
5,345833	0,1	0,168189
5,347500	0,1	0,180650
5,349167	0,1	0,157425
5,350833	0,1	0,164497
5,352500	0,1	0,113968
5,354167	0,1	0,162292
5,355833	0,1	0,154106
5,357500	0,1	0,201640
5,359167	0,1	0,173245
5,360833	0,1	0,172286
5,362500	0,1	0,184915
5,364167	0,1	0,172993
5,365833	0,1	0,146907
5,367500	0,1	0,147561
5,369167	0,1	0,170252
5,370833	0,1	0,131647
5,372500	0,1	0,125944
5,374167	0,1	0,162028
5,375833	0,1	0,117052
5,377500	0,1	0,176415
5,379167	0,1	0,151790
5,380833	0,1	0,143008
5,382500	0,1	0,156070
5,384167	0,1	0,155431
5,385833	0,1	0,138475
5,387500	0,1	0,141017
5,389167	0,1	0,149010
5,390833	0,1	0,136278
5,392500	0,1	0,146110
5,394167	0,1	0,112866
5,395833	0,1	0,140908
5,397500	0,1	0,092162
5,399167	0,1	0,120368
5,400833	0,1	0,148320
5,402500	0,1	0,142613
5,404167	0,1	0,149714
5,405833	0,1	0,100716
5,407500	0,1	0,125336
5,409167	0,1	0,141904
5,410833	0,1	0,152570
5,412500	0,1	0,106468
5,414167	0,1	0,136043
5,415833	0,1	0,095537
5,417500	0,1	0,112977
5,419167	0,1	0,091435
5,420833	0,1	0,119102
5,422500	0,1	0,134949
5,424167	0,1	0,123216
5,425833	0,1	0,131594
5,427500	0,1	0,111332
5,429167	0,1	0,112524
5,430833	0,1	0,082011
5,432500	0,1	0,108918
5,434167	0,1	0,097789
5,435833	0,1	0,113723
5,437500	0,1	0,146579
5,439167	0,1	0,122762
5,440833	0,1	0,113667
5,442500	0,1	0,119090
5,444167	0,1	0,147204
5,445833	0,1	0,097095
5,447500	0,1	0,051850
5,449167	0,1	0,098392
5,450833	0,1	0,097700
5,452500	0,1	0,080128
5,454167	0,1	0,070375
5,455833	0,1	0,090121
5,457500	0,1	0,117986
5,459167	0,1	0,110975
5,460833	0,1	0,104804
5,462500	0,1	0,089051
5,464167	0,1	0,057606
5,465833	0,1	0,071880
5,467500	0,1	0,113593
5,469167	0,1	0,121904
5,470833	0,1	0,079596
5,472500	0,1	0,112829
5,474167	0,1	0,089325
5,475833	0,1	0,106538
5,477500	0,1	0,119833
5,479167	0,1	0,085740
5,480833	0,1	0,107179
5,482500	0,1	0,145958
5,484167	0,1	0,043397
5,485833	0,1	0,108971
5,487500	0,1	0,076552
5,489167	0,1	0,104445
5,490833	0,1	0,103148
5,492500	0,1	0,098052
5,494167	0,1	0,086544
5,495833	0,1	0,095086
5,497500	0,1	0,120990
5,499167	0,1	0,043832
5,500833	0,1	0,068898
5,502500	0,1	0,072684
5,504167	0,1	0,088278
5,505833	0,1	0,081117
5,507500	0,1	0,053437
5,509167	0,1	0,091956
5,510833	0,1	0,109377
5,512500	0,1	0,068334
5,514167	0,1	0,098976
5,515833	0,1	0,071786
5,517500	0,1	0,079399
5,519167	0,1	0,053893
5,520833	0,1	0,104131
5,522500	0,1	0,076341
5,524167	0,1	0,055678
5,525833	0,1	0,089953
5,527500	0,1	0,081056
5,529167	0,1	0,077680
5,530833	0,1	0,068343
5,532500	0,1	0,067391
5,534167	0,1	0,073976
5,535833	0,1	0,064554
5,537500	0,1	0,081218
5,539167	0,1	0,076501
5,540833	0,1	0,071033
5,542500	0,1	0,097261
5,544167	0,1	0,054812
5,545833	0,1	0,104007
5,547500	0,1	0,083609
5,549167	0,1	0,099997
5,550833	0,1	0,091765
5,552500	0,1	0,092775
5,554167	0,1	0,091245
5,555833	0,1	0,065718
5,557500	0,1	0,097944
5,559167	0,1	0,054277
5,560833	0,1	0,046645
5,562500	0,1	0,069849
5,564167	0,1	0,081113
5,565833	0,1	0,057209
5,567500	0,1	0,067100
5,569167	0,1	0,056149
5,570833	0,1	0,069770
5,572500	0,1	0,067991
5,574167	0,1	0,069501
5,575833	0,1	0,069423
5,577500	0,1	0,058927
5,579167	0,1	0,061783
5,580833	0,1	0,097012
5,582500	0,1	0,089358
5,584167	0,1	0,082779
5,585833	0,1	0,040324
5,587500	0,1	0,062604
5,589167	0,1	0,104730
5,590833	0,1	0,093691
5,592500	0,1	0,078140
5,594167	0,1	0,063087
5,595833	0,1	0,062652
5,597500	0,1	0,075459
5,599167	0,1	0,066735
5,600833	0,1	0,081280
5,602500	0,1	0,089458
5,604167	0,1	0,043718
5,605833	0,1	0,090196
5,607500	0,1	0,079131
5,609167	0,1	0,083937
5,610833	0,1	0,092815
5,612500	0,1	0,100764
5,614167	0,1	0,088327
5,615833	0,1	0,073171
5,617500	0,1	0,068157
5,619167	0,1	0,107755
5,620833	0,1	0,086774
5,622500	0,1	0,064997
5,624167	0,1	0,086167
5,625833	0,1	0,084073
5,627500	0,1	0,048146
5,629167	0,1	0,078936
5,630833	0,1	0,088445
5,632500	0,1	0,100763
5,634167	0,1	0,062557
5,635833	0,1	0,045409
5,637500	0,1	0,045509
5,639167	0,1	0,087549
5,640833	0,1	0,074165
5,642500	0,1	0,078362
5,644167	0,1	0,085466
5,645833	0,1	0,109642
5,647500	0,1	0,092549
5,649167	0,1	0,090435
5,650833	0,1	0,100516
5,652500	0,1	0,069842
5,654167	0,1	0,097241
5,655833	0,1	0,056095
5,657500	0,1	0,067408
5,659167	0,1	0,083001
5,660833	0,1	0,082276
5,662500	0,1	0,076835
5,664167	0,1	0,095565
5,665833	0,1	0,088968
5,667500	0,1	0,095049
5,669167	0,1	0,071785
5,670833	0,1	0,078942
5,672500	0,1	0,057497
5,674167	0,1	0,132823
5,675833	0,1	0,071072
5,677500	0,1	0,045181
5,679167	0,1	0,101105
5,680833	0,1	0,080442
5,682500	0,1	0,087866
5,684167	0,1	0,103848
5,685833	0,1	0,077193
5,687500	0,1	0,093351
5,689167	0,1	0,077683
5,690833	0,1	0,112125
5,692500	0,1	0,105137
5,694167	0,1	0,067585
5,695833	0,1	0,084444
5,697500	0,1	0,103620
5,699167	0,1	0,073570
5,700833	0,1	0,105831
5,702500	0,1	0,123041
5,704167	0,1	0,106608
5,705833	0,1	0,127866
5,707500	0,1	0,121060
5,709167	0,1	0,080324
5,710833	0,1	0,088261
5,712500	0,1	0,098672
5,714167	0,1	0,048791
5,715833	0,1	0,097626
5,717500	0,1	0,079671
5,719167	0,1	0,120303
5,720833	0,1	0,132732
5,722500	0,1	0,062274
5,724167	0,1	0,105601
5,725833	0,1	0,152499
5,727500	0,1	0,113200
5,729167	0,1	0,089342
5,730833	0,1	0,106600
5,732500	0,1	0,108488
5,734167	0,1	0,123351
5,735833	0,1	0,087957
5,737500	0,1	0,145603
5,739167	0,1	0,124396
5,740833	0,1	0,102778
5,742500	0,1	0,120930
5,744167	0,1	0,136294
5,745833	0,1	0,123296
5,747500	0,1	0,114353
5,749167	0,1	0,100999
5,750833	0,1	0,112835
5,752500	0,1	0,120909
5,754167	0,1	0,111347
5,755833	0,1	0,138050
5,757500	0,1	0,116361
5,759167	0,1	0,102196
5,760833	0,1	0,097331
5,762500	0,1	0,095651
5,764167	0,1	0,111632
5,765833	0,1	0,152439
5,767500	0,1	0,146797
5,769167	0,1	0,156589
5,770833	0,1	0,164187
5,772500	0,1	0,154026
5,774167	0,1	0,120074
5,775833	0,1	0,121325
5,777500	0,1	0,187739
5,779167	0,1	0,166514
5,780833	0,1	0,114652
5,782500	0,1	0,104286
5,784167	0,1	0,134675
5,785833	0,1	0,134970
5,787500	0,1	0,142300
5,789167	0,1	0,165820
5,790833	0,1	0,148725
5,792500	0,1	0,130358
5,794167	0,1	0,133915
5,795833	0,1	0,137870
5,797500	0,1	0,124685
5,799167	0,1	0,138509
5,800833	0,1	0,116323
5,802500	0,1	0,125734
5,804167	0,1	0,117871
5,805833	0,1	0,175835
5,807500	0,1	0,155042
5,809167	0,1	0,165948
5,810833	0,1	0,085796
5,812500	0,1	0,126080
5,814167	0,1	0,149419
5,815833	0,1	0,138909
5,817500	0,1	0,146629
5,819167	0,1	0,142904
5,820833	0,1	0,126094
5,822500	0,1	0,104684
5,824167	0,1	0,101408
5,825833	0,1	0,126891
5,827500	0,1	0,124577
5,829167	0,1	0,107188
5,830833	0,1	0,089859
5,832500	0,1	0,143117
5,834167	0,1	0,115991
5,835833	0,1	0,117165
5,837500	0,1	0,140472
5,839167	0,1	0,123921
5,840833	0,1	0,154180
5,842500	0,1	0,109824
5,844167	0,1	0,094721
5,845833	0,1	0,150363
5,847500	0,1	0,128889
5,849167	0,1	0,148716
5,850833	0,1	0,074505
5,852500	0,1	0,111027
5,854167	0,1	0,118756
5,855833	0,1	0,122712
5,857500	0,1	0,135073
5,859167	0,1	0,144973
5,860833	0,1	0,146153
5,862500	0,1	0,153690
5,864167	0,1	0,133882
5,865833	0,1	0,120834
5,867500	0,1	0,075370
5,869167	0,1	0,091319
5,870833	0,1	0,123594
5,872500	0,1	0,104333
5,874167	0,1	0,117389
5,875833	0,1	0,108700
5,877500	0,1	0,118797
5,879167	0,1	0,091560
5,880833	0,1	0,140612
5,882500	0,1	0,138039
5,884167	0,1	0,111371
5,885833	0,1	0,136872
5,887500	0,1	0,135737
5,889167	0,1	0,118309
5,890833	0,1	0,127804
5,892500	0,1	0,079325
5,894167	0,1	0,140857
5,895833	0,1	0,123341
5,897500	0,1	0,124120
5,899167	0,1	0,148612
5,900833	0,1	0,126343
5,902500	0,1	0,108263
5,904167	0,1	0,147428
5,905833	0,1	0,099538
5,907500	0,1	0,101987
5,909167	0,1	0,043175
5,910833	0,1	0,098662
5,912500	0,1	0,082263
5,914167	0,1	0,130386
5,915833	0,1	0,123936
5,917500	0,1	0,128780
5,919167	0,1	0,097046
5,920833	0,1	0,121011
5,922500	0,1	0,109799
5,924167	0,1	0,106896
5,925833	0,1	0,109277
5,927500	0,1	0,113128
5,929167	0,1	0,101077
5,930833	0,1	0,111342
5,932500	0,1	0,087330
5,934167	0,1	0,088817
5,935833	0,1	0,091182
5,937500	0,1	0,116788
5,939167	0,1	0,090663
5,940833	0,1	0,085654
5,942500	0,1	0,120964
5,944167	0,1	0,092367
5,945833	0,1	0,125896
5,947500	0,1	0,102179
5,949167	0,1	0,116064
5,950833	0,1	0,086899
5,952500	0,1	0,103724
5,954167	0,1	0,102156
5,955833	0,1	0,118919
5,957500	0,1	0,074876
5,959167	0,1	0,105066
5,960833	0,1	0,055851
5,962500	0,1	0,097275
5,964167	0,1	0,093706
5,965833	0,1	0,066756
5,967500	0,1	0,087425
5,969167	0,1	0,079131
5,970833	0,1	0,079235
5,972500	0,1	0,064143
5,974167	0,1	0,104318
5,975833	0,1	0,108615
5,977500	0,1	0,077729
5,979167	0,1	0,107757
5,980833	0,1	0,091125
5,982500	0,1	0,116517
5,984167	0,1	0,096754
5,985833	0,1	0,087870
5,987500	0,1	0,079007
5,989167	0,1	0,091074
5,990833	0,1	0,066590
5,992500	0,1	0,080162
5,994167	0,1	0,095109
5,995833	0,1	0,080169
5,997500	0,1	0,096331
5,999167	0,1	0,101406
6,000833	0,1	0,094263
