File Path	chrom://chromeleon01/ikbm_chromeleon/2022/Rezex/Esteban/220612_chitin_4_7.seq/348.smp/UV_VIS_1.channel/UV_VIS_1.chm
Channel	UV_VIS_1

Injection Information:
Data Vault	ikbm_chromeleon
Injection	7_02h-EGS_1
Injection Number	81
Position	GD1
Comment	
Processing Method	New ProcMethod
Instrument Method	Short_Rezex_6min_194nm
Type	Unknown
Status	Finished
Injection Date	13.06.2022
Injection Time	01:51:56
Injection Volume (µl)	8,000
Dilution Factor	1,0000
Weight	1,0000

Chromatogram Data Information:
Time Min. (min)	0,000833
Time Max. (min)	6,000833
Data Points	3601
Detector	UV
Generating Data System	Chromeleon 7.2.9.11323
Exporting Data System	Chromeleon 7.2.9.0
Operator	Instrument Controller
Signal Quantity	Absorbance
Signal Unit	mAU
Signal Min.	-0,089805
Signal Max.	113,697388
Channel	UV_VIS_1
Driver Name	VWD3000.dll
Channel Type	Evaluation
Min. Step (s)	0,1
Max. Step (s)	0,1
Average Step (s)	0,1

Signal Parameter Information:
Signal Info	WVL:194 nm

Chromatogram Data:
Time (min)	Step (s)	Value (mAU)
0,000833	n.a.	-0,012802
0,002500	0,1	-0,053342
0,004167	0,1	-0,045666
0,005833	0,1	-0,030645
0,007500	0,1	-0,044707
0,009167	0,1	-0,044441
0,010833	0,1	-0,004688
0,012500	0,1	-0,023986
0,014167	0,1	-0,041455
0,015833	0,1	-0,017718
0,017500	0,1	-0,017754
0,019167	0,1	-0,036604
0,020833	0,1	-0,047424
0,022500	0,1	0,005026
0,024167	0,1	-0,065269
0,025833	0,1	-0,014906
0,027500	0,1	-0,021378
0,029167	0,1	-0,056782
0,030833	0,1	-0,064642
0,032500	0,1	-0,087863
0,034167	0,1	-0,009443
0,035833	0,1	-0,083231
0,037500	0,1	-0,031443
0,039167	0,1	-0,055603
0,040833	0,1	-0,056251
0,042500	0,1	-0,078499
0,044167	0,1	-0,043289
0,045833	0,1	-0,080754
0,047500	0,1	-0,070427
0,049167	0,1	-0,056235
0,050833	0,1	-0,050846
0,052500	0,1	-0,039472
0,054167	0,1	-0,019106
0,055833	0,1	-0,032689
0,057500	0,1	-0,004833
0,059167	0,1	-0,056508
0,060833	0,1	-0,059297
0,062500	0,1	-0,004402
0,064167	0,1	-0,047934
0,065833	0,1	-0,039865
0,067500	0,1	-0,045538
0,069167	0,1	-0,049932
0,070833	0,1	-0,029197
0,072500	0,1	-0,038203
0,074167	0,1	-0,003196
0,075833	0,1	-0,044785
0,077500	0,1	-0,029609
0,079167	0,1	-0,027410
0,080833	0,1	-0,024572
0,082500	0,1	-0,034224
0,084167	0,1	0,001259
0,085833	0,1	0,022565
0,087500	0,1	-0,011778
0,089167	0,1	0,029297
0,090833	0,1	-0,010574
0,092500	0,1	-0,016530
0,094167	0,1	0,002839
0,095833	0,1	-0,026740
0,097500	0,1	0,039983
0,099167	0,1	-0,037773
0,100833	0,1	-0,024368
0,102500	0,1	-0,013591
0,104167	0,1	-0,062870
0,105833	0,1	-0,034275
0,107500	0,1	-0,020720
0,109167	0,1	-0,033912
0,110833	0,1	-0,022565
0,112500	0,1	-0,016390
0,114167	0,1	-0,066599
0,115833	0,1	-0,047782
0,117500	0,1	-0,014633
0,119167	0,1	-0,070182
0,120833	0,1	-0,051098
0,122500	0,1	-0,049727
0,124167	0,1	-0,057928
0,125833	0,1	-0,009685
0,127500	0,1	-0,044269
0,129167	0,1	-0,041044
0,130833	0,1	-0,089805
0,132500	0,1	-0,021481
0,134167	0,1	-0,042820
0,135833	0,1	-0,031017
0,137500	0,1	-0,053719
0,139167	0,1	-0,042166
0,140833	0,1	-0,038497
0,142500	0,1	0,007680
0,144167	0,1	-0,051161
0,145833	0,1	-0,004502
0,147500	0,1	-0,017296
0,149167	0,1	0,008556
0,150833	0,1	-0,042027
0,152500	0,1	0,007016
0,154167	0,1	-0,034174
0,155833	0,1	-0,014711
0,157500	0,1	-0,032026
0,159167	0,1	-0,024986
0,160833	0,1	-0,040004
0,162500	0,1	-0,031577
0,164167	0,1	-0,005930
0,165833	0,1	-0,032335
0,167500	0,1	-0,012516
0,169167	0,1	-0,039070
0,170833	0,1	-0,036963
0,172500	0,1	-0,022254
0,174167	0,1	0,006524
0,175833	0,1	-0,012837
0,177500	0,1	-0,015722
0,179167	0,1	-0,015310
0,180833	0,1	-0,008825
0,182500	0,1	-0,041926
0,184167	0,1	-0,004604
0,185833	0,1	-0,007476
0,187500	0,1	0,000272
0,189167	0,1	-0,031649
0,190833	0,1	-0,036568
0,192500	0,1	-0,023516
0,194167	0,1	0,008513
0,195833	0,1	-0,022991
0,197500	0,1	-0,003047
0,199167	0,1	0,032674
0,200833	0,1	0,013376
0,202500	0,1	-0,024087
0,204167	0,1	-0,041350
0,205833	0,1	0,006543
0,207500	0,1	0,013721
0,209167	0,1	-0,043765
0,210833	0,1	-0,032718
0,212500	0,1	-0,030209
0,214167	0,1	-0,016224
0,215833	0,1	-0,007666
0,217500	0,1	-0,002110
0,219167	0,1	-0,015038
0,220833	0,1	0,026852
0,222500	0,1	0,019069
0,224167	0,1	-0,000944
0,225833	0,1	-0,022017
0,227500	0,1	-0,013735
0,229167	0,1	-0,020362
0,230833	0,1	0,018540
0,232500	0,1	-0,001586
0,234167	0,1	0,007588
0,235833	0,1	0,017387
0,237500	0,1	-0,005481
0,239167	0,1	0,003523
0,240833	0,1	0,019313
0,242500	0,1	-0,029367
0,244167	0,1	0,010189
0,245833	0,1	0,012728
0,247500	0,1	-0,022157
0,249167	0,1	0,009798
0,250833	0,1	-0,012194
0,252500	0,1	0,024010
0,254167	0,1	-0,017971
0,255833	0,1	-0,011600
0,257500	0,1	-0,003333
0,259167	0,1	-0,007912
0,260833	0,1	0,018935
0,262500	0,1	0,004545
0,264167	0,1	-0,030488
0,265833	0,1	0,035794
0,267500	0,1	0,023715
0,269167	0,1	0,013868
0,270833	0,1	-0,024189
0,272500	0,1	-0,001183
0,274167	0,1	-0,005980
0,275833	0,1	-0,018102
0,277500	0,1	-0,007375
0,279167	0,1	-0,022224
0,280833	0,1	-0,018067
0,282500	0,1	0,039485
0,284167	0,1	-0,001643
0,285833	0,1	-0,001240
0,287500	0,1	0,001267
0,289167	0,1	0,014136
0,290833	0,1	-0,004198
0,292500	0,1	-0,024691
0,294167	0,1	-0,013424
0,295833	0,1	-0,011082
0,297500	0,1	0,023868
0,299167	0,1	0,007656
0,300833	0,1	-0,005465
0,302500	0,1	-0,030697
0,304167	0,1	0,032730
0,305833	0,1	-0,036572
0,307500	0,1	0,003247
0,309167	0,1	0,039577
0,310833	0,1	0,029848
0,312500	0,1	0,021433
0,314167	0,1	0,037091
0,315833	0,1	0,020192
0,317500	0,1	-0,025140
0,319167	0,1	0,008866
0,320833	0,1	-0,008859
0,322500	0,1	-0,005924
0,324167	0,1	-0,010147
0,325833	0,1	0,022833
0,327500	0,1	-0,021038
0,329167	0,1	-0,008247
0,330833	0,1	0,015293
0,332500	0,1	-0,001462
0,334167	0,1	0,020308
0,335833	0,1	0,019942
0,337500	0,1	-0,017080
0,339167	0,1	0,038451
0,340833	0,1	0,016526
0,342500	0,1	0,002704
0,344167	0,1	-0,001652
0,345833	0,1	0,044276
0,347500	0,1	-0,004354
0,349167	0,1	0,027809
0,350833	0,1	0,048779
0,352500	0,1	0,024753
0,354167	0,1	0,002620
0,355833	0,1	0,015688
0,357500	0,1	-0,006392
0,359167	0,1	-0,022224
0,360833	0,1	0,034784
0,362500	0,1	0,053073
0,364167	0,1	0,020446
0,365833	0,1	0,038255
0,367500	0,1	-0,020310
0,369167	0,1	0,053059
0,370833	0,1	0,020963
0,372500	0,1	0,029139
0,374167	0,1	0,038508
0,375833	0,1	-0,001974
0,377500	0,1	0,015128
0,379167	0,1	0,008608
0,380833	0,1	0,006407
0,382500	0,1	0,027788
0,384167	0,1	0,022905
0,385833	0,1	0,062830
0,387500	0,1	0,073900
0,389167	0,1	0,041191
0,390833	0,1	0,058228
0,392500	0,1	0,051214
0,394167	0,1	0,009485
0,395833	0,1	0,037298
0,397500	0,1	0,010579
0,399167	0,1	0,023192
0,400833	0,1	0,009024
0,402500	0,1	0,004980
0,404167	0,1	0,049086
0,405833	0,1	0,014231
0,407500	0,1	0,041011
0,409167	0,1	0,008529
0,410833	0,1	0,041135
0,412500	0,1	0,008199
0,414167	0,1	0,059615
0,415833	0,1	0,054636
0,417500	0,1	0,047569
0,419167	0,1	0,045180
0,420833	0,1	0,020631
0,422500	0,1	0,041320
0,424167	0,1	0,069358
0,425833	0,1	0,032323
0,427500	0,1	0,055601
0,429167	0,1	0,070812
0,430833	0,1	0,076165
0,432500	0,1	0,016535
0,434167	0,1	0,025284
0,435833	0,1	0,062147
0,437500	0,1	0,031099
0,439167	0,1	0,057465
0,440833	0,1	0,057017
0,442500	0,1	0,070797
0,444167	0,1	0,030952
0,445833	0,1	0,052076
0,447500	0,1	0,050263
0,449167	0,1	0,074915
0,450833	0,1	0,068395
0,452500	0,1	0,028844
0,454167	0,1	0,056555
0,455833	0,1	0,029727
0,457500	0,1	0,052821
0,459167	0,1	0,083492
0,460833	0,1	0,060416
0,462500	0,1	0,034991
0,464167	0,1	0,049094
0,465833	0,1	0,072596
0,467500	0,1	0,067918
0,469167	0,1	0,015811
0,470833	0,1	0,078924
0,472500	0,1	0,069392
0,474167	0,1	0,061494
0,475833	0,1	0,069654
0,477500	0,1	0,087955
0,479167	0,1	0,051205
0,480833	0,1	0,062523
0,482500	0,1	0,056579
0,484167	0,1	0,057903
0,485833	0,1	0,087310
0,487500	0,1	0,052919
0,489167	0,1	0,070316
0,490833	0,1	0,049249
0,492500	0,1	0,090934
0,494167	0,1	0,070968
0,495833	0,1	0,040486
0,497500	0,1	0,082935
0,499167	0,1	0,061998
0,500833	0,1	0,040984
0,502500	0,1	0,076198
0,504167	0,1	0,049768
0,505833	0,1	0,048893
0,507500	0,1	0,098228
0,509167	0,1	0,041048
0,510833	0,1	0,025001
0,512500	0,1	0,059869
0,514167	0,1	0,035696
0,515833	0,1	0,065424
0,517500	0,1	0,117729
0,519167	0,1	0,055771
0,520833	0,1	0,062296
0,522500	0,1	0,079234
0,524167	0,1	0,095312
0,525833	0,1	0,068628
0,527500	0,1	0,107415
0,529167	0,1	0,067243
0,530833	0,1	0,077589
0,532500	0,1	0,037689
0,534167	0,1	0,065299
0,535833	0,1	0,125163
0,537500	0,1	0,075701
0,539167	0,1	0,058697
0,540833	0,1	0,082688
0,542500	0,1	0,092680
0,544167	0,1	0,121050
0,545833	0,1	0,073585
0,547500	0,1	0,114003
0,549167	0,1	0,096128
0,550833	0,1	0,106276
0,552500	0,1	0,080419
0,554167	0,1	0,099229
0,555833	0,1	0,077722
0,557500	0,1	0,104507
0,559167	0,1	0,096163
0,560833	0,1	0,086426
0,562500	0,1	0,080251
0,564167	0,1	0,097028
0,565833	0,1	0,072154
0,567500	0,1	0,119181
0,569167	0,1	0,128060
0,570833	0,1	0,081066
0,572500	0,1	0,120958
0,574167	0,1	0,097766
0,575833	0,1	0,093946
0,577500	0,1	0,128594
0,579167	0,1	0,071143
0,580833	0,1	0,119141
0,582500	0,1	0,133866
0,584167	0,1	0,151569
0,585833	0,1	0,130449
0,587500	0,1	0,122923
0,589167	0,1	0,119193
0,590833	0,1	0,096732
0,592500	0,1	0,138585
0,594167	0,1	0,093362
0,595833	0,1	0,131001
0,597500	0,1	0,103778
0,599167	0,1	0,113596
0,600833	0,1	0,081213
0,602500	0,1	0,120859
0,604167	0,1	0,084427
0,605833	0,1	0,080476
0,607500	0,1	0,113173
0,609167	0,1	0,128788
0,610833	0,1	0,136792
0,612500	0,1	0,131213
0,614167	0,1	0,137345
0,615833	0,1	0,143797
0,617500	0,1	0,084141
0,619167	0,1	0,149894
0,620833	0,1	0,124654
0,622500	0,1	0,149538
0,624167	0,1	0,124402
0,625833	0,1	0,117290
0,627500	0,1	0,108083
0,629167	0,1	0,149951
0,630833	0,1	0,146950
0,632500	0,1	0,115142
0,634167	0,1	0,161855
0,635833	0,1	0,115348
0,637500	0,1	0,167953
0,639167	0,1	0,156780
0,640833	0,1	0,119678
0,642500	0,1	0,128753
0,644167	0,1	0,169403
0,645833	0,1	0,184155
0,647500	0,1	0,148042
0,649167	0,1	0,165806
0,650833	0,1	0,166906
0,652500	0,1	0,205076
0,654167	0,1	0,149923
0,655833	0,1	0,172168
0,657500	0,1	0,142206
0,659167	0,1	0,166963
0,660833	0,1	0,182841
0,662500	0,1	0,153797
0,664167	0,1	0,205253
0,665833	0,1	0,201827
0,667500	0,1	0,194088
0,669167	0,1	0,149113
0,670833	0,1	0,174133
0,672500	0,1	0,185114
0,674167	0,1	0,146505
0,675833	0,1	0,208210
0,677500	0,1	0,199711
0,679167	0,1	0,154407
0,680833	0,1	0,195046
0,682500	0,1	0,195789
0,684167	0,1	0,219373
0,685833	0,1	0,243931
0,687500	0,1	0,195636
0,689167	0,1	0,226865
0,690833	0,1	0,207261
0,692500	0,1	0,208199
0,694167	0,1	0,213982
0,695833	0,1	0,212753
0,697500	0,1	0,227376
0,699167	0,1	0,234773
0,700833	0,1	0,238270
0,702500	0,1	0,245927
0,704167	0,1	0,213213
0,705833	0,1	0,253433
0,707500	0,1	0,220482
0,709167	0,1	0,245758
0,710833	0,1	0,223402
0,712500	0,1	0,224808
0,714167	0,1	0,221950
0,715833	0,1	0,240584
0,717500	0,1	0,257520
0,719167	0,1	0,245669
0,720833	0,1	0,272401
0,722500	0,1	0,277027
0,724167	0,1	0,312571
0,725833	0,1	0,322161
0,727500	0,1	0,230191
0,729167	0,1	0,265781
0,730833	0,1	0,271275
0,732500	0,1	0,272689
0,734167	0,1	0,293254
0,735833	0,1	0,300137
0,737500	0,1	0,283848
0,739167	0,1	0,307559
0,740833	0,1	0,291850
0,742500	0,1	0,344902
0,744167	0,1	0,329650
0,745833	0,1	0,295775
0,747500	0,1	0,314892
0,749167	0,1	0,339607
0,750833	0,1	0,359828
0,752500	0,1	0,332931
0,754167	0,1	0,364258
0,755833	0,1	0,366194
0,757500	0,1	0,296653
0,759167	0,1	0,354382
0,760833	0,1	0,376604
0,762500	0,1	0,346947
0,764167	0,1	0,354781
0,765833	0,1	0,396147
0,767500	0,1	0,367648
0,769167	0,1	0,335603
0,770833	0,1	0,351567
0,772500	0,1	0,379175
0,774167	0,1	0,360285
0,775833	0,1	0,390394
0,777500	0,1	0,389084
0,779167	0,1	0,357138
0,780833	0,1	0,387405
0,782500	0,1	0,345955
0,784167	0,1	0,368537
0,785833	0,1	0,428901
0,787500	0,1	0,399508
0,789167	0,1	0,324042
0,790833	0,1	0,352946
0,792500	0,1	0,351536
0,794167	0,1	0,372072
0,795833	0,1	0,406017
0,797500	0,1	0,405640
0,799167	0,1	0,391240
0,800833	0,1	0,417207
0,802500	0,1	0,360745
0,804167	0,1	0,399779
0,805833	0,1	0,376874
0,807500	0,1	0,385320
0,809167	0,1	0,368032
0,810833	0,1	0,383262
0,812500	0,1	0,367871
0,814167	0,1	0,427841
0,815833	0,1	0,385074
0,817500	0,1	0,376516
0,819167	0,1	0,420096
0,820833	0,1	0,413519
0,822500	0,1	0,357432
0,824167	0,1	0,372236
0,825833	0,1	0,382911
0,827500	0,1	0,373784
0,829167	0,1	0,389819
0,830833	0,1	0,368259
0,832500	0,1	0,389303
0,834167	0,1	0,394451
0,835833	0,1	0,382239
0,837500	0,1	0,379601
0,839167	0,1	0,404702
0,840833	0,1	0,381084
0,842500	0,1	0,368865
0,844167	0,1	0,386059
0,845833	0,1	0,369477
0,847500	0,1	0,418166
0,849167	0,1	0,404262
0,850833	0,1	0,383946
0,852500	0,1	0,367615
0,854167	0,1	0,378408
0,855833	0,1	0,395990
0,857500	0,1	0,363535
0,859167	0,1	0,405693
0,860833	0,1	0,394647
0,862500	0,1	0,397892
0,864167	0,1	0,367811
0,865833	0,1	0,399715
0,867500	0,1	0,435177
0,869167	0,1	0,421524
0,870833	0,1	0,410785
0,872500	0,1	0,398925
0,874167	0,1	0,396510
0,875833	0,1	0,423958
0,877500	0,1	0,406800
0,879167	0,1	0,406573
0,880833	0,1	0,425215
0,882500	0,1	0,323689
0,884167	0,1	0,399353
0,885833	0,1	0,391560
0,887500	0,1	0,403226
0,889167	0,1	0,377323
0,890833	0,1	0,427039
0,892500	0,1	0,423806
0,894167	0,1	0,428626
0,895833	0,1	0,428049
0,897500	0,1	0,428787
0,899167	0,1	0,428692
0,900833	0,1	0,455208
0,902500	0,1	0,366312
0,904167	0,1	0,411351
0,905833	0,1	0,424316
0,907500	0,1	0,385716
0,909167	0,1	0,437039
0,910833	0,1	0,406001
0,912500	0,1	0,412486
0,914167	0,1	0,420524
0,915833	0,1	0,409692
0,917500	0,1	0,495642
0,919167	0,1	0,448187
0,920833	0,1	0,442870
0,922500	0,1	0,401598
0,924167	0,1	0,423221
0,925833	0,1	0,466170
0,927500	0,1	0,461166
0,929167	0,1	0,466951
0,930833	0,1	0,443551
0,932500	0,1	0,461512
0,934167	0,1	0,444609
0,935833	0,1	0,454732
0,937500	0,1	0,480642
0,939167	0,1	0,477337
0,940833	0,1	0,447346
0,942500	0,1	0,465051
0,944167	0,1	0,474345
0,945833	0,1	0,447860
0,947500	0,1	0,492052
0,949167	0,1	0,486053
0,950833	0,1	0,484636
0,952500	0,1	0,482514
0,954167	0,1	0,488332
0,955833	0,1	0,480779
0,957500	0,1	0,451815
0,959167	0,1	0,506585
0,960833	0,1	0,472940
0,962500	0,1	0,458306
0,964167	0,1	0,439242
0,965833	0,1	0,488321
0,967500	0,1	0,465480
0,969167	0,1	0,464797
0,970833	0,1	0,519638
0,972500	0,1	0,480789
0,974167	0,1	0,507077
0,975833	0,1	0,500010
0,977500	0,1	0,504251
0,979167	0,1	0,474356
0,980833	0,1	0,511318
0,982500	0,1	0,532190
0,984167	0,1	0,541104
0,985833	0,1	0,559489
0,987500	0,1	0,491342
0,989167	0,1	0,520162
0,990833	0,1	0,507439
0,992500	0,1	0,536661
0,994167	0,1	0,547535
0,995833	0,1	0,565089
0,997500	0,1	0,534038
0,999167	0,1	0,592838
1,000833	0,1	0,596132
1,002500	0,1	0,524883
1,004167	0,1	0,563967
1,005833	0,1	0,619886
1,007500	0,1	0,601632
1,009167	0,1	0,611737
1,010833	0,1	0,589028
1,012500	0,1	0,601950
1,014167	0,1	0,676837
1,015833	0,1	0,639504
1,017500	0,1	0,631125
1,019167	0,1	0,637303
1,020833	0,1	0,700696
1,022500	0,1	0,755115
1,024167	0,1	0,676858
1,025833	0,1	0,717996
1,027500	0,1	0,716572
1,029167	0,1	0,737342
1,030833	0,1	0,748311
1,032500	0,1	0,745110
1,034167	0,1	0,767074
1,035833	0,1	0,777621
1,037500	0,1	0,755791
1,039167	0,1	0,761130
1,040833	0,1	0,789975
1,042500	0,1	0,819909
1,044167	0,1	0,833322
1,045833	0,1	0,802193
1,047500	0,1	0,824706
1,049167	0,1	0,829948
1,050833	0,1	0,835206
1,052500	0,1	0,893079
1,054167	0,1	0,891253
1,055833	0,1	0,914906
1,057500	0,1	1,000697
1,059167	0,1	1,042915
1,060833	0,1	1,145760
1,062500	0,1	1,227652
1,064167	0,1	1,368024
1,065833	0,1	1,508351
1,067500	0,1	1,724925
1,069167	0,1	1,952706
1,070833	0,1	2,299472
1,072500	0,1	2,740093
1,074167	0,1	3,207942
1,075833	0,1	3,797371
1,077500	0,1	4,506532
1,079167	0,1	5,352809
1,080833	0,1	6,228290
1,082500	0,1	7,296025
1,084167	0,1	8,471440
1,085833	0,1	9,786899
1,087500	0,1	11,175595
1,089167	0,1	12,590739
1,090833	0,1	14,261086
1,092500	0,1	15,805619
1,094167	0,1	17,471529
1,095833	0,1	19,125465
1,097500	0,1	20,731495
1,099167	0,1	22,311987
1,100833	0,1	23,806005
1,102500	0,1	25,271152
1,104167	0,1	26,525053
1,105833	0,1	27,701507
1,107500	0,1	28,728741
1,109167	0,1	29,607931
1,110833	0,1	30,299059
1,112500	0,1	30,934837
1,114167	0,1	31,321353
1,115833	0,1	31,630856
1,117500	0,1	31,815356
1,119167	0,1	31,867166
1,120833	0,1	31,801801
1,122500	0,1	31,659737
1,124167	0,1	31,479344
1,125833	0,1	31,202332
1,127500	0,1	30,889274
1,129167	0,1	30,551554
1,130833	0,1	30,243998
1,132500	0,1	29,874027
1,134167	0,1	29,509806
1,135833	0,1	29,228079
1,137500	0,1	28,880214
1,139167	0,1	28,589146
1,140833	0,1	28,387259
1,142500	0,1	28,200330
1,144167	0,1	28,076867
1,145833	0,1	28,034265
1,147500	0,1	28,040272
1,149167	0,1	28,129012
1,150833	0,1	28,266312
1,152500	0,1	28,457319
1,154167	0,1	28,766946
1,155833	0,1	29,150285
1,157500	0,1	29,559418
1,159167	0,1	30,061426
1,160833	0,1	30,518325
1,162500	0,1	31,053857
1,164167	0,1	31,623334
1,165833	0,1	32,273653
1,167500	0,1	32,864124
1,169167	0,1	33,462407
1,170833	0,1	34,045874
1,172500	0,1	34,631458
1,174167	0,1	35,144060
1,175833	0,1	35,698825
1,177500	0,1	36,153295
1,179167	0,1	36,601308
1,180833	0,1	37,032953
1,182500	0,1	37,395966
1,184167	0,1	37,712077
1,185833	0,1	38,024196
1,187500	0,1	38,304954
1,189167	0,1	38,583843
1,190833	0,1	38,817954
1,192500	0,1	39,020850
1,194167	0,1	39,300078
1,195833	0,1	39,634411
1,197500	0,1	40,019411
1,199167	0,1	40,488837
1,200833	0,1	41,021264
1,202500	0,1	41,787109
1,204167	0,1	42,623722
1,205833	0,1	43,685429
1,207500	0,1	44,840424
1,209167	0,1	46,376179
1,210833	0,1	48,017675
1,212500	0,1	49,882193
1,214167	0,1	51,996080
1,215833	0,1	54,381276
1,217500	0,1	56,960017
1,219167	0,1	59,758942
1,220833	0,1	62,719270
1,222500	0,1	65,830558
1,224167	0,1	69,092734
1,225833	0,1	72,420853
1,227500	0,1	75,773788
1,229167	0,1	79,267102
1,230833	0,1	82,665062
1,232500	0,1	85,992213
1,234167	0,1	89,293232
1,235833	0,1	92,434928
1,237500	0,1	95,373483
1,239167	0,1	98,261433
1,240833	0,1	100,890064
1,242500	0,1	103,301095
1,244167	0,1	105,479717
1,245833	0,1	107,392622
1,247500	0,1	109,090196
1,249167	0,1	110,492426
1,250833	0,1	111,695619
1,252500	0,1	112,609914
1,254167	0,1	113,167601
1,255833	0,1	113,610022
1,257500	0,1	113,697388
1,259167	0,1	113,634001
1,260833	0,1	113,254802
1,262500	0,1	112,662897
1,264167	0,1	111,830322
1,265833	0,1	110,873739
1,267500	0,1	109,600040
1,269167	0,1	108,245067
1,270833	0,1	106,670989
1,272500	0,1	104,906043
1,274167	0,1	103,089391
1,275833	0,1	101,088539
1,277500	0,1	98,981387
1,279167	0,1	96,799694
1,280833	0,1	94,534201
1,282500	0,1	92,168263
1,284167	0,1	89,788367
1,285833	0,1	87,403906
1,287500	0,1	84,954030
1,289167	0,1	82,523043
1,290833	0,1	80,149941
1,292500	0,1	77,654489
1,294167	0,1	75,356057
1,295833	0,1	72,951747
1,297500	0,1	70,619362
1,299167	0,1	68,406338
1,300833	0,1	66,210835
1,302500	0,1	64,120783
1,304167	0,1	62,023145
1,305833	0,1	60,086927
1,307500	0,1	58,218006
1,309167	0,1	56,323679
1,310833	0,1	54,562395
1,312500	0,1	52,932553
1,314167	0,1	51,270701
1,315833	0,1	49,731932
1,317500	0,1	48,262715
1,319167	0,1	46,857832
1,320833	0,1	45,468505
1,322500	0,1	44,183400
1,324167	0,1	42,914221
1,325833	0,1	41,738260
1,327500	0,1	40,592913
1,329167	0,1	39,538506
1,330833	0,1	38,472587
1,332500	0,1	37,448094
1,334167	0,1	36,472854
1,335833	0,1	35,547660
1,337500	0,1	34,650985
1,339167	0,1	33,808436
1,340833	0,1	33,017605
1,342500	0,1	32,218682
1,344167	0,1	31,387304
1,345833	0,1	30,609717
1,347500	0,1	29,939612
1,349167	0,1	29,190893
1,350833	0,1	28,549896
1,352500	0,1	27,823913
1,354167	0,1	27,208550
1,355833	0,1	26,575408
1,357500	0,1	25,923653
1,359167	0,1	25,359005
1,360833	0,1	24,777813
1,362500	0,1	24,233426
1,364167	0,1	23,640540
1,365833	0,1	23,118461
1,367500	0,1	22,574938
1,369167	0,1	22,089481
1,370833	0,1	21,549351
1,372500	0,1	21,066114
1,374167	0,1	20,594206
1,375833	0,1	20,097883
1,377500	0,1	19,650158
1,379167	0,1	19,198924
1,380833	0,1	18,760002
1,382500	0,1	18,375828
1,384167	0,1	17,973336
1,385833	0,1	17,591314
1,387500	0,1	17,129274
1,389167	0,1	16,813671
1,390833	0,1	16,426877
1,392500	0,1	16,067568
1,394167	0,1	15,727070
1,395833	0,1	15,417857
1,397500	0,1	15,089164
1,399167	0,1	14,763178
1,400833	0,1	14,508822
1,402500	0,1	14,224100
1,404167	0,1	13,892196
1,405833	0,1	13,643755
1,407500	0,1	13,427764
1,409167	0,1	13,124052
1,410833	0,1	12,913959
1,412500	0,1	12,671324
1,414167	0,1	12,445946
1,415833	0,1	12,289737
1,417500	0,1	12,070772
1,419167	0,1	11,877412
1,420833	0,1	11,677304
1,422500	0,1	11,476703
1,424167	0,1	11,273375
1,425833	0,1	11,108871
1,427500	0,1	10,939138
1,429167	0,1	10,777993
1,430833	0,1	10,597163
1,432500	0,1	10,466181
1,434167	0,1	10,288014
1,435833	0,1	10,170110
1,437500	0,1	10,026282
1,439167	0,1	9,872394
1,440833	0,1	9,754754
1,442500	0,1	9,571581
1,444167	0,1	9,510274
1,445833	0,1	9,339726
1,447500	0,1	9,200287
1,449167	0,1	9,105703
1,450833	0,1	8,944411
1,452500	0,1	8,843761
1,454167	0,1	8,742726
1,455833	0,1	8,610512
1,457500	0,1	8,523641
1,459167	0,1	8,393759
1,460833	0,1	8,298123
1,462500	0,1	8,220706
1,464167	0,1	8,084377
1,465833	0,1	8,001258
1,467500	0,1	7,919560
1,469167	0,1	7,861434
1,470833	0,1	7,750638
1,472500	0,1	7,671331
1,474167	0,1	7,587372
1,475833	0,1	7,488227
1,477500	0,1	7,476695
1,479167	0,1	7,372174
1,480833	0,1	7,325025
1,482500	0,1	7,296925
1,484167	0,1	7,199538
1,485833	0,1	7,199417
1,487500	0,1	7,122100
1,489167	0,1	7,091489
1,490833	0,1	7,076091
1,492500	0,1	7,004756
1,494167	0,1	6,974161
1,495833	0,1	6,961195
1,497500	0,1	6,916257
1,499167	0,1	6,869175
1,500833	0,1	6,881561
1,502500	0,1	6,860031
1,504167	0,1	6,817157
1,505833	0,1	6,807451
1,507500	0,1	6,805683
1,509167	0,1	6,798316
1,510833	0,1	6,732617
1,512500	0,1	6,755244
1,514167	0,1	6,773796
1,515833	0,1	6,709598
1,517500	0,1	6,736134
1,519167	0,1	6,709404
1,520833	0,1	6,699430
1,522500	0,1	6,693275
1,524167	0,1	6,658529
1,525833	0,1	6,651985
1,527500	0,1	6,649014
1,529167	0,1	6,618457
1,530833	0,1	6,622629
1,532500	0,1	6,614073
1,534167	0,1	6,581465
1,535833	0,1	6,572605
1,537500	0,1	6,594781
1,539167	0,1	6,567579
1,540833	0,1	6,499307
1,542500	0,1	6,527986
1,544167	0,1	6,493443
1,545833	0,1	6,473689
1,547500	0,1	6,437743
1,549167	0,1	6,461194
1,550833	0,1	6,421894
1,552500	0,1	6,388084
1,554167	0,1	6,313412
1,555833	0,1	6,353433
1,557500	0,1	6,300182
1,559167	0,1	6,240205
1,560833	0,1	6,236502
1,562500	0,1	6,225725
1,564167	0,1	6,168748
1,565833	0,1	6,140532
1,567500	0,1	6,160628
1,569167	0,1	6,107236
1,570833	0,1	6,065081
1,572500	0,1	6,084060
1,574167	0,1	6,022352
1,575833	0,1	6,025757
1,577500	0,1	5,932690
1,579167	0,1	5,949935
1,580833	0,1	5,906423
1,582500	0,1	5,869426
1,584167	0,1	5,862434
1,585833	0,1	5,835448
1,587500	0,1	5,769705
1,589167	0,1	5,747191
1,590833	0,1	5,739324
1,592500	0,1	5,716530
1,594167	0,1	5,675056
1,595833	0,1	5,631279
1,597500	0,1	5,615480
1,599167	0,1	5,543034
1,600833	0,1	5,533804
1,602500	0,1	5,506090
1,604167	0,1	5,490432
1,605833	0,1	5,445467
1,607500	0,1	5,422630
1,609167	0,1	5,383005
1,610833	0,1	5,325994
1,612500	0,1	5,307213
1,614167	0,1	5,348191
1,615833	0,1	5,247167
1,617500	0,1	5,241257
1,619167	0,1	5,199938
1,620833	0,1	5,152005
1,622500	0,1	5,134394
1,624167	0,1	5,105061
1,625833	0,1	5,130255
1,627500	0,1	5,031241
1,629167	0,1	5,025370
1,630833	0,1	5,009662
1,632500	0,1	4,933569
1,634167	0,1	4,944087
1,635833	0,1	4,933613
1,637500	0,1	4,905056
1,639167	0,1	4,857889
1,640833	0,1	4,838405
1,642500	0,1	4,834610
1,644167	0,1	4,785455
1,645833	0,1	4,752579
1,647500	0,1	4,750122
1,649167	0,1	4,717228
1,650833	0,1	4,704101
1,652500	0,1	4,703865
1,654167	0,1	4,667545
1,655833	0,1	4,615056
1,657500	0,1	4,664761
1,659167	0,1	4,642252
1,660833	0,1	4,635889
1,662500	0,1	4,616732
1,664167	0,1	4,613648
1,665833	0,1	4,597703
1,667500	0,1	4,629088
1,669167	0,1	4,628082
1,670833	0,1	4,656891
1,672500	0,1	4,651305
1,674167	0,1	4,667366
1,675833	0,1	4,657400
1,677500	0,1	4,731920
1,679167	0,1	4,713579
1,680833	0,1	4,725892
1,682500	0,1	4,775669
1,684167	0,1	4,775828
1,685833	0,1	4,820287
1,687500	0,1	4,803402
1,689167	0,1	4,875577
1,690833	0,1	4,911681
1,692500	0,1	4,985205
1,694167	0,1	4,972146
1,695833	0,1	5,027559
1,697500	0,1	5,025059
1,699167	0,1	5,101474
1,700833	0,1	5,139491
1,702500	0,1	5,189001
1,704167	0,1	5,199251
1,705833	0,1	5,277524
1,707500	0,1	5,341377
1,709167	0,1	5,379927
1,710833	0,1	5,422289
1,712500	0,1	5,458304
1,714167	0,1	5,475916
1,715833	0,1	5,498596
1,717500	0,1	5,587912
1,719167	0,1	5,625578
1,720833	0,1	5,639092
1,722500	0,1	5,654129
1,724167	0,1	5,691308
1,725833	0,1	5,699476
1,727500	0,1	5,737221
1,729167	0,1	5,746903
1,730833	0,1	5,738059
1,732500	0,1	5,756118
1,734167	0,1	5,801665
1,735833	0,1	5,831960
1,737500	0,1	5,827733
1,739167	0,1	5,826271
1,740833	0,1	5,804830
1,742500	0,1	5,829767
1,744167	0,1	5,802929
1,745833	0,1	5,815183
1,747500	0,1	5,767395
1,749167	0,1	5,803267
1,750833	0,1	5,788200
1,752500	0,1	5,763185
1,754167	0,1	5,745203
1,755833	0,1	5,726572
1,757500	0,1	5,680018
1,759167	0,1	5,655653
1,760833	0,1	5,599484
1,762500	0,1	5,629491
1,764167	0,1	5,535667
1,765833	0,1	5,547696
1,767500	0,1	5,495037
1,769167	0,1	5,443711
1,770833	0,1	5,413049
1,772500	0,1	5,391842
1,774167	0,1	5,329811
1,775833	0,1	5,303386
1,777500	0,1	5,231973
1,779167	0,1	5,186707
1,780833	0,1	5,187234
1,782500	0,1	5,096624
1,784167	0,1	5,042135
1,785833	0,1	5,005798
1,787500	0,1	4,933034
1,789167	0,1	4,907745
1,790833	0,1	4,849037
1,792500	0,1	4,735747
1,794167	0,1	4,724547
1,795833	0,1	4,694281
1,797500	0,1	4,581013
1,799167	0,1	4,589326
1,800833	0,1	4,503725
1,802500	0,1	4,472795
1,804167	0,1	4,412812
1,805833	0,1	4,307182
1,807500	0,1	4,304888
1,809167	0,1	4,281049
1,810833	0,1	4,182026
1,812500	0,1	4,132685
1,814167	0,1	4,051191
1,815833	0,1	4,040474
1,817500	0,1	3,965257
1,819167	0,1	3,929950
1,820833	0,1	3,913990
1,822500	0,1	3,858659
1,824167	0,1	3,821398
1,825833	0,1	3,763243
1,827500	0,1	3,663985
1,829167	0,1	3,715524
1,830833	0,1	3,586877
1,832500	0,1	3,597541
1,834167	0,1	3,581662
1,835833	0,1	3,573581
1,837500	0,1	3,509197
1,839167	0,1	3,520393
1,840833	0,1	3,514156
1,842500	0,1	3,443176
1,844167	0,1	3,513981
1,845833	0,1	3,505220
1,847500	0,1	3,493074
1,849167	0,1	3,534119
1,850833	0,1	3,544746
1,852500	0,1	3,599446
1,854167	0,1	3,626559
1,855833	0,1	3,645217
1,857500	0,1	3,678821
1,859167	0,1	3,751834
1,860833	0,1	3,800879
1,862500	0,1	3,808017
1,864167	0,1	3,892078
1,865833	0,1	3,915916
1,867500	0,1	4,007149
1,869167	0,1	3,949847
1,870833	0,1	4,028333
1,872500	0,1	4,105459
1,874167	0,1	4,102478
1,875833	0,1	4,138421
1,877500	0,1	4,216076
1,879167	0,1	4,217230
1,880833	0,1	4,252330
1,882500	0,1	4,291129
1,884167	0,1	4,328354
1,885833	0,1	4,424447
1,887500	0,1	4,419408
1,889167	0,1	4,413001
1,890833	0,1	4,479863
1,892500	0,1	4,478300
1,894167	0,1	4,521078
1,895833	0,1	4,582941
1,897500	0,1	4,592221
1,899167	0,1	4,621914
1,900833	0,1	4,680009
1,902500	0,1	4,661681
1,904167	0,1	4,718071
1,905833	0,1	4,778130
1,907500	0,1	4,761815
1,909167	0,1	4,815286
1,910833	0,1	4,791441
1,912500	0,1	4,843439
1,914167	0,1	4,834757
1,915833	0,1	4,834923
1,917500	0,1	4,920255
1,919167	0,1	4,925332
1,920833	0,1	4,949591
1,922500	0,1	4,963946
1,924167	0,1	4,942171
1,925833	0,1	4,985862
1,927500	0,1	4,990897
1,929167	0,1	4,980450
1,930833	0,1	4,987732
1,932500	0,1	4,985589
1,934167	0,1	4,997027
1,935833	0,1	5,026944
1,937500	0,1	5,032317
1,939167	0,1	5,084916
1,940833	0,1	5,064192
1,942500	0,1	5,068484
1,944167	0,1	5,093991
1,945833	0,1	5,096601
1,947500	0,1	5,048520
1,949167	0,1	5,086135
1,950833	0,1	5,079055
1,952500	0,1	5,073912
1,954167	0,1	5,140244
1,955833	0,1	5,142441
1,957500	0,1	5,117602
1,959167	0,1	5,129069
1,960833	0,1	5,152382
1,962500	0,1	5,156622
1,964167	0,1	5,183156
1,965833	0,1	5,191330
1,967500	0,1	5,222810
1,969167	0,1	5,243532
1,970833	0,1	5,206951
1,972500	0,1	5,253990
1,974167	0,1	5,286478
1,975833	0,1	5,280942
1,977500	0,1	5,332323
1,979167	0,1	5,343668
1,980833	0,1	5,341785
1,982500	0,1	5,340265
1,984167	0,1	5,385541
1,985833	0,1	5,420492
1,987500	0,1	5,421651
1,989167	0,1	5,437581
1,990833	0,1	5,466221
1,992500	0,1	5,505597
1,994167	0,1	5,520653
1,995833	0,1	5,536226
1,997500	0,1	5,565996
1,999167	0,1	5,611366
2,000833	0,1	5,637294
2,002500	0,1	5,656486
2,004167	0,1	5,680247
2,005833	0,1	5,722847
2,007500	0,1	5,759403
2,009167	0,1	5,749915
2,010833	0,1	5,787360
2,012500	0,1	5,836778
2,014167	0,1	5,845591
2,015833	0,1	5,926238
2,017500	0,1	5,951813
2,019167	0,1	5,991015
2,020833	0,1	6,037996
2,022500	0,1	6,061514
2,024167	0,1	6,043758
2,025833	0,1	6,091742
2,027500	0,1	6,179811
2,029167	0,1	6,183629
2,030833	0,1	6,262196
2,032500	0,1	6,305960
2,034167	0,1	6,260534
2,035833	0,1	6,317572
2,037500	0,1	6,365265
2,039167	0,1	6,400196
2,040833	0,1	6,484760
2,042500	0,1	6,460384
2,044167	0,1	6,504124
2,045833	0,1	6,577999
2,047500	0,1	6,577086
2,049167	0,1	6,594684
2,050833	0,1	6,662418
2,052500	0,1	6,729415
2,054167	0,1	6,817592
2,055833	0,1	6,771762
2,057500	0,1	6,835402
2,059167	0,1	6,879037
2,060833	0,1	6,911390
2,062500	0,1	6,963789
2,064167	0,1	7,005197
2,065833	0,1	7,000354
2,067500	0,1	7,051636
2,069167	0,1	7,072818
2,070833	0,1	7,152081
2,072500	0,1	7,114250
2,074167	0,1	7,151083
2,075833	0,1	7,193993
2,077500	0,1	7,258273
2,079167	0,1	7,249884
2,080833	0,1	7,315289
2,082500	0,1	7,326313
2,084167	0,1	7,370158
2,085833	0,1	7,399488
2,087500	0,1	7,379797
2,089167	0,1	7,480483
2,090833	0,1	7,463435
2,092500	0,1	7,519418
2,094167	0,1	7,514300
2,095833	0,1	7,529346
2,097500	0,1	7,600475
2,099167	0,1	7,559610
2,100833	0,1	7,589553
2,102500	0,1	7,638128
2,104167	0,1	7,649518
2,105833	0,1	7,678280
2,107500	0,1	7,648704
2,109167	0,1	7,664747
2,110833	0,1	7,699128
2,112500	0,1	7,720055
2,114167	0,1	7,697931
2,115833	0,1	7,700431
2,117500	0,1	7,760743
2,119167	0,1	7,759353
2,120833	0,1	7,770843
2,122500	0,1	7,802061
2,124167	0,1	7,762754
2,125833	0,1	7,795883
2,127500	0,1	7,768289
2,129167	0,1	7,761219
2,130833	0,1	7,777602
2,132500	0,1	7,785355
2,134167	0,1	7,784953
2,135833	0,1	7,761469
2,137500	0,1	7,807289
2,139167	0,1	7,800288
2,140833	0,1	7,797032
2,142500	0,1	7,728215
2,144167	0,1	7,756576
2,145833	0,1	7,773846
2,147500	0,1	7,763162
2,149167	0,1	7,726619
2,150833	0,1	7,755279
2,152500	0,1	7,709730
2,154167	0,1	7,705216
2,155833	0,1	7,734450
2,157500	0,1	7,688310
2,159167	0,1	7,678107
2,160833	0,1	7,657552
2,162500	0,1	7,709731
2,164167	0,1	7,652803
2,165833	0,1	7,637490
2,167500	0,1	7,636810
2,169167	0,1	7,609295
2,170833	0,1	7,590239
2,172500	0,1	7,560269
2,174167	0,1	7,523764
2,175833	0,1	7,516280
2,177500	0,1	7,501040
2,179167	0,1	7,500611
2,180833	0,1	7,485575
2,182500	0,1	7,461301
2,184167	0,1	7,421364
2,185833	0,1	7,407993
2,187500	0,1	7,386713
2,189167	0,1	7,367941
2,190833	0,1	7,368413
2,192500	0,1	7,346388
2,194167	0,1	7,294323
2,195833	0,1	7,275371
2,197500	0,1	7,286286
2,199167	0,1	7,246446
2,200833	0,1	7,221250
2,202500	0,1	7,255109
2,204167	0,1	7,201753
2,205833	0,1	7,174323
2,207500	0,1	7,196790
2,209167	0,1	7,141869
2,210833	0,1	7,091956
2,212500	0,1	7,117127
2,214167	0,1	7,095681
2,215833	0,1	7,098369
2,217500	0,1	7,056135
2,219167	0,1	7,030767
2,220833	0,1	7,052859
2,222500	0,1	7,078410
2,224167	0,1	7,042611
2,225833	0,1	7,042321
2,227500	0,1	7,005684
2,229167	0,1	7,000079
2,230833	0,1	7,003063
2,232500	0,1	6,964185
2,234167	0,1	6,987014
2,235833	0,1	6,977792
2,237500	0,1	7,015358
2,239167	0,1	6,980687
2,240833	0,1	7,002494
2,242500	0,1	6,954114
2,244167	0,1	7,013579
2,245833	0,1	6,937432
2,247500	0,1	6,960997
2,249167	0,1	6,983378
2,250833	0,1	6,966788
2,252500	0,1	6,973219
2,254167	0,1	6,927354
2,255833	0,1	6,908978
2,257500	0,1	6,937313
2,259167	0,1	6,945708
2,260833	0,1	6,969670
2,262500	0,1	6,974059
2,264167	0,1	6,928194
2,265833	0,1	6,912988
2,267500	0,1	6,921653
2,269167	0,1	6,913078
2,270833	0,1	6,876258
2,272500	0,1	6,888181
2,274167	0,1	6,878582
2,275833	0,1	6,825171
2,277500	0,1	6,863747
2,279167	0,1	6,888550
2,280833	0,1	6,871406
2,282500	0,1	6,851454
2,284167	0,1	6,813238
2,285833	0,1	6,838206
2,287500	0,1	6,816685
2,289167	0,1	6,823482
2,290833	0,1	6,811277
2,292500	0,1	6,758247
2,294167	0,1	6,814523
2,295833	0,1	6,721630
2,297500	0,1	6,779103
2,299167	0,1	6,752184
2,300833	0,1	6,756840
2,302500	0,1	6,767741
2,304167	0,1	6,747801
2,305833	0,1	6,724602
2,307500	0,1	6,665046
2,309167	0,1	6,678917
2,310833	0,1	6,639799
2,312500	0,1	6,621910
2,314167	0,1	6,623391
2,315833	0,1	6,594043
2,317500	0,1	6,581005
2,319167	0,1	6,558366
2,320833	0,1	6,593569
2,322500	0,1	6,581372
2,324167	0,1	6,525860
2,325833	0,1	6,520632
2,327500	0,1	6,518480
2,329167	0,1	6,516714
2,330833	0,1	6,465038
2,332500	0,1	6,476380
2,334167	0,1	6,439320
2,335833	0,1	6,427664
2,337500	0,1	6,418451
2,339167	0,1	6,400573
2,340833	0,1	6,426932
2,342500	0,1	6,370709
2,344167	0,1	6,327001
2,345833	0,1	6,328865
2,347500	0,1	6,344982
2,349167	0,1	6,293563
2,350833	0,1	6,293750
2,352500	0,1	6,304284
2,354167	0,1	6,259140
2,355833	0,1	6,216028
2,357500	0,1	6,262467
2,359167	0,1	6,207290
2,360833	0,1	6,266212
2,362500	0,1	6,202259
2,364167	0,1	6,228594
2,365833	0,1	6,224322
2,367500	0,1	6,161020
2,369167	0,1	6,194978
2,370833	0,1	6,151859
2,372500	0,1	6,202523
2,374167	0,1	6,160913
2,375833	0,1	6,154491
2,377500	0,1	6,200569
2,379167	0,1	6,128536
2,380833	0,1	6,139659
2,382500	0,1	6,218647
2,384167	0,1	6,186815
2,385833	0,1	6,222558
2,387500	0,1	6,185513
2,389167	0,1	6,227467
2,390833	0,1	6,270838
2,392500	0,1	6,276543
2,394167	0,1	6,299067
2,395833	0,1	6,340208
2,397500	0,1	6,408572
2,399167	0,1	6,443684
2,400833	0,1	6,456345
2,402500	0,1	6,553966
2,404167	0,1	6,623935
2,405833	0,1	6,670903
2,407500	0,1	6,728301
2,409167	0,1	6,836139
2,410833	0,1	6,904202
2,412500	0,1	6,992782
2,414167	0,1	7,172686
2,415833	0,1	7,249217
2,417500	0,1	7,354197
2,419167	0,1	7,487107
2,420833	0,1	7,649408
2,422500	0,1	7,779537
2,424167	0,1	7,892009
2,425833	0,1	8,055298
2,427500	0,1	8,199290
2,429167	0,1	8,372152
2,430833	0,1	8,548196
2,432500	0,1	8,712995
2,434167	0,1	8,868872
2,435833	0,1	9,063620
2,437500	0,1	9,230118
2,439167	0,1	9,364003
2,440833	0,1	9,604444
2,442500	0,1	9,772721
2,444167	0,1	9,982626
2,445833	0,1	10,113943
2,447500	0,1	10,334295
2,449167	0,1	10,527087
2,450833	0,1	10,654086
2,452500	0,1	10,856329
2,454167	0,1	11,012499
2,455833	0,1	11,185002
2,457500	0,1	11,333635
2,459167	0,1	11,479120
2,460833	0,1	11,626542
2,462500	0,1	11,723637
2,464167	0,1	11,903771
2,465833	0,1	11,982672
2,467500	0,1	12,150674
2,469167	0,1	12,225397
2,470833	0,1	12,344483
2,472500	0,1	12,473546
2,474167	0,1	12,536113
2,475833	0,1	12,649271
2,477500	0,1	12,731682
2,479167	0,1	12,761308
2,480833	0,1	12,844952
2,482500	0,1	12,917411
2,484167	0,1	12,939864
2,485833	0,1	12,977159
2,487500	0,1	13,027669
2,489167	0,1	13,105021
2,490833	0,1	13,110427
2,492500	0,1	13,167651
2,494167	0,1	13,169990
2,495833	0,1	13,245584
2,497500	0,1	13,244870
2,499167	0,1	13,232019
2,500833	0,1	13,305956
2,502500	0,1	13,270017
2,504167	0,1	13,307873
2,505833	0,1	13,345923
2,507500	0,1	13,329500
2,509167	0,1	13,385542
2,510833	0,1	13,375326
2,512500	0,1	13,373533
2,514167	0,1	13,399977
2,515833	0,1	13,375429
2,517500	0,1	13,438245
2,519167	0,1	13,406027
2,520833	0,1	13,458887
2,522500	0,1	13,445354
2,524167	0,1	13,460590
2,525833	0,1	13,486401
2,527500	0,1	13,499070
2,529167	0,1	13,498410
2,530833	0,1	13,484767
2,532500	0,1	13,560582
2,534167	0,1	13,543398
2,535833	0,1	13,582563
2,537500	0,1	13,608560
2,539167	0,1	13,640601
2,540833	0,1	13,674537
2,542500	0,1	13,655836
2,544167	0,1	13,711298
2,545833	0,1	13,770202
2,547500	0,1	13,760748
2,549167	0,1	13,751756
2,550833	0,1	13,805968
2,552500	0,1	13,809768
2,554167	0,1	13,828273
2,555833	0,1	13,824051
2,557500	0,1	13,898950
2,559167	0,1	13,889310
2,560833	0,1	13,876258
2,562500	0,1	13,906152
2,564167	0,1	13,920834
2,565833	0,1	13,948852
2,567500	0,1	13,932673
2,569167	0,1	13,930017
2,570833	0,1	13,966509
2,572500	0,1	13,909056
2,574167	0,1	13,945821
2,575833	0,1	13,927943
2,577500	0,1	13,911824
2,579167	0,1	13,881713
2,580833	0,1	13,921567
2,582500	0,1	13,809862
2,584167	0,1	13,801734
2,585833	0,1	13,790627
2,587500	0,1	13,781365
2,589167	0,1	13,700433
2,590833	0,1	13,668333
2,592500	0,1	13,606963
2,594167	0,1	13,568315
2,595833	0,1	13,534270
2,597500	0,1	13,515074
2,599167	0,1	13,378033
2,600833	0,1	13,341355
2,602500	0,1	13,309170
2,604167	0,1	13,219334
2,605833	0,1	13,178390
2,607500	0,1	13,043153
2,609167	0,1	13,001488
2,610833	0,1	12,895196
2,612500	0,1	12,831485
2,614167	0,1	12,777382
2,615833	0,1	12,695096
2,617500	0,1	12,588844
2,619167	0,1	12,537530
2,620833	0,1	12,456035
2,622500	0,1	12,361907
2,624167	0,1	12,246269
2,625833	0,1	12,149381
2,627500	0,1	12,068873
2,629167	0,1	11,933086
2,630833	0,1	11,850790
2,632500	0,1	11,724885
2,634167	0,1	11,655555
2,635833	0,1	11,547738
2,637500	0,1	11,447431
2,639167	0,1	11,322218
2,640833	0,1	11,213347
2,642500	0,1	11,114981
2,644167	0,1	11,031279
2,645833	0,1	10,896254
2,647500	0,1	10,796015
2,649167	0,1	10,691613
2,650833	0,1	10,577400
2,652500	0,1	10,440907
2,654167	0,1	10,369181
2,655833	0,1	10,214629
2,657500	0,1	10,115109
2,659167	0,1	9,972349
2,660833	0,1	9,877974
2,662500	0,1	9,768695
2,664167	0,1	9,692212
2,665833	0,1	9,507190
2,667500	0,1	9,402027
2,669167	0,1	9,311135
2,670833	0,1	9,174663
2,672500	0,1	9,069564
2,674167	0,1	8,907487
2,675833	0,1	8,845194
2,677500	0,1	8,717679
2,679167	0,1	8,597027
2,680833	0,1	8,481929
2,682500	0,1	8,368826
2,684167	0,1	8,279234
2,685833	0,1	8,160713
2,687500	0,1	8,082742
2,689167	0,1	7,996875
2,690833	0,1	7,871037
2,692500	0,1	7,771886
2,694167	0,1	7,657938
2,695833	0,1	7,542230
2,697500	0,1	7,440017
2,699167	0,1	7,317109
2,700833	0,1	7,266682
2,702500	0,1	7,150363
2,704167	0,1	7,076194
2,705833	0,1	6,972497
2,707500	0,1	6,817184
2,709167	0,1	6,782573
2,710833	0,1	6,698061
2,712500	0,1	6,626113
2,714167	0,1	6,511822
2,715833	0,1	6,420996
2,717500	0,1	6,317266
2,719167	0,1	6,235046
2,720833	0,1	6,173242
2,722500	0,1	6,091632
2,724167	0,1	6,020542
2,725833	0,1	5,954304
2,727500	0,1	5,886570
2,729167	0,1	5,823891
2,730833	0,1	5,739078
2,732500	0,1	5,692966
2,734167	0,1	5,609679
2,735833	0,1	5,552114
2,737500	0,1	5,436681
2,739167	0,1	5,381296
2,740833	0,1	5,337979
2,742500	0,1	5,286461
2,744167	0,1	5,208534
2,745833	0,1	5,174326
2,747500	0,1	5,092552
2,749167	0,1	5,069902
2,750833	0,1	5,047496
2,752500	0,1	4,977639
2,754167	0,1	4,864181
2,755833	0,1	4,879633
2,757500	0,1	4,820195
2,759167	0,1	4,768318
2,760833	0,1	4,725071
2,762500	0,1	4,674192
2,764167	0,1	4,654821
2,765833	0,1	4,596202
2,767500	0,1	4,542227
2,769167	0,1	4,476368
2,770833	0,1	4,470950
2,772500	0,1	4,414504
2,774167	0,1	4,385255
2,775833	0,1	4,354966
2,777500	0,1	4,303069
2,779167	0,1	4,254820
2,780833	0,1	4,251688
2,782500	0,1	4,171848
2,784167	0,1	4,152660
2,785833	0,1	4,144877
2,787500	0,1	4,057560
2,789167	0,1	4,040073
2,790833	0,1	4,046476
2,792500	0,1	3,977485
2,794167	0,1	3,966733
2,795833	0,1	3,960506
2,797500	0,1	3,935188
2,799167	0,1	3,825383
2,800833	0,1	3,831530
2,802500	0,1	3,803285
2,804167	0,1	3,760364
2,805833	0,1	3,706512
2,807500	0,1	3,771478
2,809167	0,1	3,691647
2,810833	0,1	3,630278
2,812500	0,1	3,627056
2,814167	0,1	3,617754
2,815833	0,1	3,556777
2,817500	0,1	3,524731
2,819167	0,1	3,505842
2,820833	0,1	3,522592
2,822500	0,1	3,512237
2,824167	0,1	3,463916
2,825833	0,1	3,433275
2,827500	0,1	3,434562
2,829167	0,1	3,380138
2,830833	0,1	3,378289
2,832500	0,1	3,324805
2,834167	0,1	3,304371
2,835833	0,1	3,266473
2,837500	0,1	3,287431
2,839167	0,1	3,241104
2,840833	0,1	3,216891
2,842500	0,1	3,231229
2,844167	0,1	3,156924
2,845833	0,1	3,143404
2,847500	0,1	3,124547
2,849167	0,1	3,090946
2,850833	0,1	3,110017
2,852500	0,1	3,053240
2,854167	0,1	3,076776
2,855833	0,1	3,039365
2,857500	0,1	3,000934
2,859167	0,1	3,030998
2,860833	0,1	3,003786
2,862500	0,1	2,945452
2,864167	0,1	2,942834
2,865833	0,1	2,882618
2,867500	0,1	2,883506
2,869167	0,1	2,859225
2,870833	0,1	2,871113
2,872500	0,1	2,862366
2,874167	0,1	2,840052
2,875833	0,1	2,791765
2,877500	0,1	2,772800
2,879167	0,1	2,787485
2,880833	0,1	2,771541
2,882500	0,1	2,729917
2,884167	0,1	2,711599
2,885833	0,1	2,756261
2,887500	0,1	2,688268
2,889167	0,1	2,663190
2,890833	0,1	2,654414
2,892500	0,1	2,638713
2,894167	0,1	2,634305
2,895833	0,1	2,633094
2,897500	0,1	2,593334
2,899167	0,1	2,602221
2,900833	0,1	2,535980
2,902500	0,1	2,574143
2,904167	0,1	2,545220
2,905833	0,1	2,568535
2,907500	0,1	2,535530
2,909167	0,1	2,514999
2,910833	0,1	2,475095
2,912500	0,1	2,509964
2,914167	0,1	2,456071
2,915833	0,1	2,479743
2,917500	0,1	2,463095
2,919167	0,1	2,466241
2,920833	0,1	2,396721
2,922500	0,1	2,379339
2,924167	0,1	2,402446
2,925833	0,1	2,386235
2,927500	0,1	2,361761
2,929167	0,1	2,411975
2,930833	0,1	2,338601
2,932500	0,1	2,339369
2,934167	0,1	2,327675
2,935833	0,1	2,344455
2,937500	0,1	2,299341
2,939167	0,1	2,274005
2,940833	0,1	2,262531
2,942500	0,1	2,230180
2,944167	0,1	2,304758
2,945833	0,1	2,284763
2,947500	0,1	2,235704
2,949167	0,1	2,254262
2,950833	0,1	2,216617
2,952500	0,1	2,210013
2,954167	0,1	2,215672
2,955833	0,1	2,202837
2,957500	0,1	2,181321
2,959167	0,1	2,173931
2,960833	0,1	2,172494
2,962500	0,1	2,177444
2,964167	0,1	2,160089
2,965833	0,1	2,094545
2,967500	0,1	2,161645
2,969167	0,1	2,160944
2,970833	0,1	2,141081
2,972500	0,1	2,163451
2,974167	0,1	2,119427
2,975833	0,1	2,115043
2,977500	0,1	2,090662
2,979167	0,1	2,084491
2,980833	0,1	2,089437
2,982500	0,1	2,088935
2,984167	0,1	2,047138
2,985833	0,1	2,036157
2,987500	0,1	2,040956
2,989167	0,1	2,043467
2,990833	0,1	2,020599
2,992500	0,1	2,060239
2,994167	0,1	2,048850
2,995833	0,1	2,025837
2,997500	0,1	2,020812
2,999167	0,1	2,004753
3,000833	0,1	2,025469
3,002500	0,1	2,026402
3,004167	0,1	1,977872
3,005833	0,1	1,949618
3,007500	0,1	1,950681
3,009167	0,1	1,958069
3,010833	0,1	1,961012
3,012500	0,1	1,962018
3,014167	0,1	2,000583
3,015833	0,1	2,006184
3,017500	0,1	1,979660
3,019167	0,1	1,937291
3,020833	0,1	1,927747
3,022500	0,1	1,932260
3,024167	0,1	1,951049
3,025833	0,1	1,891484
3,027500	0,1	1,935483
3,029167	0,1	1,938783
3,030833	0,1	1,899145
3,032500	0,1	1,926518
3,034167	0,1	1,901161
3,035833	0,1	1,893698
3,037500	0,1	1,855283
3,039167	0,1	1,882433
3,040833	0,1	1,898924
3,042500	0,1	1,889751
3,044167	0,1	1,859370
3,045833	0,1	1,855705
3,047500	0,1	1,905085
3,049167	0,1	1,841168
3,050833	0,1	1,850535
3,052500	0,1	1,841443
3,054167	0,1	1,878566
3,055833	0,1	1,874988
3,057500	0,1	1,839081
3,059167	0,1	1,853977
3,060833	0,1	1,823884
3,062500	0,1	1,816642
3,064167	0,1	1,864291
3,065833	0,1	1,834645
3,067500	0,1	1,842447
3,069167	0,1	1,827821
3,070833	0,1	1,779816
3,072500	0,1	1,826153
3,074167	0,1	1,779025
3,075833	0,1	1,779581
3,077500	0,1	1,801154
3,079167	0,1	1,783033
3,080833	0,1	1,839426
3,082500	0,1	1,777450
3,084167	0,1	1,810189
3,085833	0,1	1,792774
3,087500	0,1	1,805238
3,089167	0,1	1,782244
3,090833	0,1	1,758169
3,092500	0,1	1,817342
3,094167	0,1	1,798443
3,095833	0,1	1,772364
3,097500	0,1	1,773068
3,099167	0,1	1,807672
3,100833	0,1	1,769704
3,102500	0,1	1,758874
3,104167	0,1	1,826370
3,105833	0,1	1,843649
3,107500	0,1	1,788057
3,109167	0,1	1,842214
3,110833	0,1	1,820945
3,112500	0,1	1,837778
3,114167	0,1	1,852404
3,115833	0,1	1,792003
3,117500	0,1	1,888370
3,119167	0,1	1,862377
3,120833	0,1	1,911319
3,122500	0,1	1,874059
3,124167	0,1	1,910391
3,125833	0,1	1,899143
3,127500	0,1	1,895420
3,129167	0,1	1,876638
3,130833	0,1	1,940130
3,132500	0,1	1,940576
3,134167	0,1	1,928683
3,135833	0,1	1,967526
3,137500	0,1	1,995276
3,139167	0,1	1,992279
3,140833	0,1	2,026468
3,142500	0,1	1,999376
3,144167	0,1	2,038655
3,145833	0,1	2,042178
3,147500	0,1	2,039168
3,149167	0,1	2,065693
3,150833	0,1	2,088286
3,152500	0,1	2,131383
3,154167	0,1	2,087440
3,155833	0,1	2,115249
3,157500	0,1	2,110525
3,159167	0,1	2,146591
3,160833	0,1	2,127455
3,162500	0,1	2,177214
3,164167	0,1	2,159872
3,165833	0,1	2,176364
3,167500	0,1	2,190207
3,169167	0,1	2,168911
3,170833	0,1	2,183250
3,172500	0,1	2,220545
3,174167	0,1	2,193304
3,175833	0,1	2,241421
3,177500	0,1	2,251759
3,179167	0,1	2,245598
3,180833	0,1	2,233904
3,182500	0,1	2,245871
3,184167	0,1	2,258574
3,185833	0,1	2,236705
3,187500	0,1	2,271698
3,189167	0,1	2,247750
3,190833	0,1	2,256354
3,192500	0,1	2,240429
3,194167	0,1	2,254271
3,195833	0,1	2,261447
3,197500	0,1	2,222144
3,199167	0,1	2,279799
3,200833	0,1	2,230400
3,202500	0,1	2,257351
3,204167	0,1	2,261947
3,205833	0,1	2,285553
3,207500	0,1	2,221219
3,209167	0,1	2,240855
3,210833	0,1	2,201123
3,212500	0,1	2,210298
3,214167	0,1	2,227507
3,215833	0,1	2,233181
3,217500	0,1	2,253406
3,219167	0,1	2,212676
3,220833	0,1	2,208436
3,222500	0,1	2,186633
3,224167	0,1	2,173143
3,225833	0,1	2,174860
3,227500	0,1	2,151196
3,229167	0,1	2,153342
3,230833	0,1	2,126308
3,232500	0,1	2,148891
3,234167	0,1	2,115623
3,235833	0,1	2,116261
3,237500	0,1	2,144726
3,239167	0,1	2,087729
3,240833	0,1	2,073163
3,242500	0,1	2,085992
3,244167	0,1	2,062982
3,245833	0,1	2,033796
3,247500	0,1	2,041458
3,249167	0,1	1,990129
3,250833	0,1	1,999006
3,252500	0,1	2,008904
3,254167	0,1	2,011918
3,255833	0,1	1,956579
3,257500	0,1	1,941156
3,259167	0,1	1,975129
3,260833	0,1	1,961233
3,262500	0,1	1,912562
3,264167	0,1	1,887251
3,265833	0,1	1,887457
3,267500	0,1	1,887239
3,269167	0,1	1,853055
3,270833	0,1	1,846103
3,272500	0,1	1,821947
3,274167	0,1	1,839784
3,275833	0,1	1,795799
3,277500	0,1	1,753870
3,279167	0,1	1,725405
3,280833	0,1	1,782862
3,282500	0,1	1,786624
3,284167	0,1	1,762536
3,285833	0,1	1,743699
3,287500	0,1	1,680347
3,289167	0,1	1,683625
3,290833	0,1	1,709345
3,292500	0,1	1,691035
3,294167	0,1	1,650260
3,295833	0,1	1,635563
3,297500	0,1	1,622319
3,299167	0,1	1,630637
3,300833	0,1	1,655612
3,302500	0,1	1,557583
3,304167	0,1	1,562565
3,305833	0,1	1,548824
3,307500	0,1	1,580402
3,309167	0,1	1,544745
3,310833	0,1	1,520832
3,312500	0,1	1,521976
3,314167	0,1	1,527962
3,315833	0,1	1,484510
3,317500	0,1	1,510000
3,319167	0,1	1,460846
3,320833	0,1	1,506611
3,322500	0,1	1,456948
3,324167	0,1	1,414111
3,325833	0,1	1,436388
3,327500	0,1	1,441536
3,329167	0,1	1,421850
3,330833	0,1	1,382875
3,332500	0,1	1,383236
3,334167	0,1	1,430719
3,335833	0,1	1,385112
3,337500	0,1	1,380096
3,339167	0,1	1,371297
3,340833	0,1	1,350817
3,342500	0,1	1,395345
3,344167	0,1	1,355839
3,345833	0,1	1,349509
3,347500	0,1	1,322618
3,349167	0,1	1,332973
3,350833	0,1	1,332399
3,352500	0,1	1,367283
3,354167	0,1	1,295129
3,355833	0,1	1,288080
3,357500	0,1	1,277583
3,359167	0,1	1,255159
3,360833	0,1	1,281697
3,362500	0,1	1,273921
3,364167	0,1	1,257749
3,365833	0,1	1,257101
3,367500	0,1	1,240492
3,369167	0,1	1,262318
3,370833	0,1	1,248966
3,372500	0,1	1,208138
3,374167	0,1	1,212990
3,375833	0,1	1,261820
3,377500	0,1	1,240511
3,379167	0,1	1,192967
3,380833	0,1	1,166978
3,382500	0,1	1,196001
3,384167	0,1	1,205768
3,385833	0,1	1,173775
3,387500	0,1	1,221592
3,389167	0,1	1,187302
3,390833	0,1	1,232272
3,392500	0,1	1,165851
3,394167	0,1	1,163971
3,395833	0,1	1,210389
3,397500	0,1	1,163338
3,399167	0,1	1,141875
3,400833	0,1	1,181284
3,402500	0,1	1,142101
3,404167	0,1	1,148480
3,405833	0,1	1,165783
3,407500	0,1	1,160414
3,409167	0,1	1,117898
3,410833	0,1	1,147150
3,412500	0,1	1,174913
3,414167	0,1	1,123272
3,415833	0,1	1,137934
3,417500	0,1	1,153526
3,419167	0,1	1,144566
3,420833	0,1	1,119931
3,422500	0,1	1,095775
3,424167	0,1	1,138285
3,425833	0,1	1,068163
3,427500	0,1	1,106354
3,429167	0,1	1,129071
3,430833	0,1	1,136648
3,432500	0,1	1,082924
3,434167	0,1	1,089194
3,435833	0,1	1,109309
3,437500	0,1	1,138460
3,439167	0,1	1,111185
3,440833	0,1	1,108554
3,442500	0,1	1,073596
3,444167	0,1	1,115118
3,445833	0,1	1,109181
3,447500	0,1	1,115243
3,449167	0,1	1,105722
3,450833	0,1	1,108178
3,452500	0,1	1,105383
3,454167	0,1	1,066580
3,455833	0,1	1,088076
3,457500	0,1	1,077338
3,459167	0,1	1,104241
3,460833	0,1	1,110618
3,462500	0,1	1,137884
3,464167	0,1	1,093360
3,465833	0,1	1,132998
3,467500	0,1	1,141820
3,469167	0,1	1,104122
3,470833	0,1	1,115971
3,472500	0,1	1,144709
3,474167	0,1	1,121468
3,475833	0,1	1,120464
3,477500	0,1	1,103686
3,479167	0,1	1,121189
3,480833	0,1	1,131717
3,482500	0,1	1,145798
3,484167	0,1	1,150157
3,485833	0,1	1,160275
3,487500	0,1	1,130574
3,489167	0,1	1,158389
3,490833	0,1	1,160479
3,492500	0,1	1,159549
3,494167	0,1	1,166072
3,495833	0,1	1,175716
3,497500	0,1	1,167550
3,499167	0,1	1,149400
3,500833	0,1	1,203505
3,502500	0,1	1,161117
3,504167	0,1	1,148364
3,505833	0,1	1,160393
3,507500	0,1	1,211759
3,509167	0,1	1,190419
3,510833	0,1	1,196905
3,512500	0,1	1,210920
3,514167	0,1	1,182369
3,515833	0,1	1,227611
3,517500	0,1	1,221537
3,519167	0,1	1,215724
3,520833	0,1	1,243634
3,522500	0,1	1,220678
3,524167	0,1	1,231636
3,525833	0,1	1,227250
3,527500	0,1	1,255451
3,529167	0,1	1,229679
3,530833	0,1	1,245147
3,532500	0,1	1,184039
3,534167	0,1	1,270033
3,535833	0,1	1,240495
3,537500	0,1	1,290181
3,539167	0,1	1,236044
3,540833	0,1	1,248877
3,542500	0,1	1,239642
3,544167	0,1	1,243997
3,545833	0,1	1,262047
3,547500	0,1	1,283459
3,549167	0,1	1,283228
3,550833	0,1	1,260449
3,552500	0,1	1,221511
3,554167	0,1	1,224179
3,555833	0,1	1,252638
3,557500	0,1	1,234898
3,559167	0,1	1,243639
3,560833	0,1	1,258811
3,562500	0,1	1,229239
3,564167	0,1	1,260264
3,565833	0,1	1,248951
3,567500	0,1	1,289743
3,569167	0,1	1,210588
3,570833	0,1	1,233193
3,572500	0,1	1,236622
3,574167	0,1	1,235420
3,575833	0,1	1,246469
3,577500	0,1	1,245863
3,579167	0,1	1,236846
3,580833	0,1	1,273011
3,582500	0,1	1,235275
3,584167	0,1	1,236912
3,585833	0,1	1,255604
3,587500	0,1	1,279388
3,589167	0,1	1,214449
3,590833	0,1	1,229178
3,592500	0,1	1,234485
3,594167	0,1	1,186729
3,595833	0,1	1,183871
3,597500	0,1	1,203716
3,599167	0,1	1,188604
3,600833	0,1	1,217019
3,602500	0,1	1,196757
3,604167	0,1	1,195822
3,605833	0,1	1,187585
3,607500	0,1	1,197446
3,609167	0,1	1,168946
3,610833	0,1	1,148298
3,612500	0,1	1,168407
3,614167	0,1	1,180733
3,615833	0,1	1,142542
3,617500	0,1	1,156716
3,619167	0,1	1,131995
3,620833	0,1	1,187469
3,622500	0,1	1,128072
3,624167	0,1	1,146134
3,625833	0,1	1,123505
3,627500	0,1	1,156185
3,629167	0,1	1,083619
3,630833	0,1	1,125876
3,632500	0,1	1,139580
3,634167	0,1	1,118268
3,635833	0,1	1,092287
3,637500	0,1	1,079337
3,639167	0,1	1,081602
3,640833	0,1	1,084842
3,642500	0,1	1,071726
3,644167	0,1	1,075692
3,645833	0,1	1,065103
3,647500	0,1	1,078400
3,649167	0,1	1,051652
3,650833	0,1	1,050090
3,652500	0,1	1,062482
3,654167	0,1	1,086500
3,655833	0,1	1,050433
3,657500	0,1	1,063791
3,659167	0,1	1,017068
3,660833	0,1	1,004403
3,662500	0,1	1,034320
3,664167	0,1	1,038122
3,665833	0,1	0,996149
3,667500	0,1	0,995919
3,669167	0,1	1,028123
3,670833	0,1	1,027843
3,672500	0,1	1,025068
3,674167	0,1	0,955376
3,675833	0,1	0,977309
3,677500	0,1	0,981554
3,679167	0,1	0,968505
3,680833	0,1	0,969722
3,682500	0,1	0,974582
3,684167	0,1	0,959315
3,685833	0,1	0,943175
3,687500	0,1	0,947456
3,689167	0,1	0,989604
3,690833	0,1	0,958009
3,692500	0,1	0,910974
3,694167	0,1	0,977189
3,695833	0,1	0,944777
3,697500	0,1	0,956134
3,699167	0,1	0,908354
3,700833	0,1	0,986953
3,702500	0,1	0,958718
3,704167	0,1	0,957201
3,705833	0,1	0,939203
3,707500	0,1	0,961658
3,709167	0,1	0,925423
3,710833	0,1	0,964450
3,712500	0,1	0,939782
3,714167	0,1	0,929899
3,715833	0,1	0,934492
3,717500	0,1	0,897654
3,719167	0,1	0,945402
3,720833	0,1	0,943195
3,722500	0,1	0,962923
3,724167	0,1	0,907202
3,725833	0,1	0,906213
3,727500	0,1	0,906967
3,729167	0,1	0,937593
3,730833	0,1	0,928766
3,732500	0,1	0,942547
3,734167	0,1	0,978727
3,735833	0,1	0,942980
3,737500	0,1	0,905465
3,739167	0,1	0,909587
3,740833	0,1	0,948045
3,742500	0,1	0,932898
3,744167	0,1	0,904109
3,745833	0,1	0,917995
3,747500	0,1	0,924923
3,749167	0,1	0,937685
3,750833	0,1	0,892418
3,752500	0,1	0,947488
3,754167	0,1	0,913280
3,755833	0,1	0,967755
3,757500	0,1	0,934544
3,759167	0,1	0,918782
3,760833	0,1	0,978898
3,762500	0,1	0,920853
3,764167	0,1	0,930828
3,765833	0,1	0,946276
3,767500	0,1	0,941841
3,769167	0,1	0,917916
3,770833	0,1	0,926742
3,772500	0,1	0,957483
3,774167	0,1	0,952629
3,775833	0,1	0,930235
3,777500	0,1	0,935091
3,779167	0,1	0,947898
3,780833	0,1	0,951472
3,782500	0,1	0,944460
3,784167	0,1	0,942128
3,785833	0,1	0,932320
3,787500	0,1	0,949628
3,789167	0,1	0,938180
3,790833	0,1	0,931875
3,792500	0,1	0,930740
3,794167	0,1	0,954377
3,795833	0,1	0,948856
3,797500	0,1	0,927505
3,799167	0,1	0,956196
3,800833	0,1	0,963593
3,802500	0,1	0,936142
3,804167	0,1	0,917870
3,805833	0,1	0,914228
3,807500	0,1	0,923614
3,809167	0,1	0,901865
3,810833	0,1	0,947733
3,812500	0,1	0,963812
3,814167	0,1	0,947083
3,815833	0,1	0,943150
3,817500	0,1	0,955333
3,819167	0,1	0,900432
3,820833	0,1	0,907963
3,822500	0,1	0,905880
3,824167	0,1	0,927739
3,825833	0,1	0,878877
3,827500	0,1	0,939251
3,829167	0,1	0,899672
3,830833	0,1	0,943471
3,832500	0,1	0,912545
3,834167	0,1	0,892744
3,835833	0,1	0,908783
3,837500	0,1	0,911561
3,839167	0,1	0,894920
3,840833	0,1	0,906632
3,842500	0,1	0,904215
3,844167	0,1	0,900265
3,845833	0,1	0,905057
3,847500	0,1	0,890057
3,849167	0,1	0,856592
3,850833	0,1	0,901318
3,852500	0,1	0,890413
3,854167	0,1	0,885616
3,855833	0,1	0,907651
3,857500	0,1	0,866826
3,859167	0,1	0,880307
3,860833	0,1	0,898840
3,862500	0,1	0,832606
3,864167	0,1	0,910146
3,865833	0,1	0,859701
3,867500	0,1	0,872804
3,869167	0,1	0,862537
3,870833	0,1	0,856762
3,872500	0,1	0,859911
3,874167	0,1	0,880328
3,875833	0,1	0,859826
3,877500	0,1	0,847818
3,879167	0,1	0,878461
3,880833	0,1	0,809282
3,882500	0,1	0,852425
3,884167	0,1	0,820973
3,885833	0,1	0,837051
3,887500	0,1	0,830643
3,889167	0,1	0,841267
3,890833	0,1	0,804109
3,892500	0,1	0,798284
3,894167	0,1	0,806449
3,895833	0,1	0,811020
3,897500	0,1	0,814083
3,899167	0,1	0,813975
3,900833	0,1	0,793782
3,902500	0,1	0,799700
3,904167	0,1	0,825002
3,905833	0,1	0,767904
3,907500	0,1	0,801426
3,909167	0,1	0,781358
3,910833	0,1	0,735677
3,912500	0,1	0,796271
3,914167	0,1	0,763567
3,915833	0,1	0,773407
3,917500	0,1	0,775692
3,919167	0,1	0,723203
3,920833	0,1	0,776351
3,922500	0,1	0,771348
3,924167	0,1	0,760213
3,925833	0,1	0,727415
3,927500	0,1	0,764993
3,929167	0,1	0,744693
3,930833	0,1	0,738176
3,932500	0,1	0,720228
3,934167	0,1	0,788993
3,935833	0,1	0,753114
3,937500	0,1	0,701933
3,939167	0,1	0,718289
3,940833	0,1	0,690989
3,942500	0,1	0,724104
3,944167	0,1	0,747598
3,945833	0,1	0,722934
3,947500	0,1	0,713438
3,949167	0,1	0,701502
3,950833	0,1	0,710636
3,952500	0,1	0,675747
3,954167	0,1	0,715972
3,955833	0,1	0,705940
3,957500	0,1	0,726902
3,959167	0,1	0,686068
3,960833	0,1	0,706772
3,962500	0,1	0,677610
3,964167	0,1	0,706930
3,965833	0,1	0,743313
3,967500	0,1	0,648871
3,969167	0,1	0,720300
3,970833	0,1	0,698353
3,972500	0,1	0,679117
3,974167	0,1	0,670081
3,975833	0,1	0,696386
3,977500	0,1	0,708967
3,979167	0,1	0,634387
3,980833	0,1	0,709399
3,982500	0,1	0,692114
3,984167	0,1	0,692978
3,985833	0,1	0,683356
3,987500	0,1	0,675701
3,989167	0,1	0,668739
3,990833	0,1	0,683176
3,992500	0,1	0,693449
3,994167	0,1	0,654321
3,995833	0,1	0,669523
3,997500	0,1	0,668345
3,999167	0,1	0,677154
4,000833	0,1	0,666760
4,002500	0,1	0,691555
4,004167	0,1	0,686768
4,005833	0,1	0,639367
4,007500	0,1	0,670322
4,009167	0,1	0,684125
4,010833	0,1	0,675217
4,012500	0,1	0,656824
4,014167	0,1	0,653734
4,015833	0,1	0,716098
4,017500	0,1	0,679252
4,019167	0,1	0,673901
4,020833	0,1	0,685227
4,022500	0,1	0,672365
4,024167	0,1	0,679950
4,025833	0,1	0,678824
4,027500	0,1	0,705262
4,029167	0,1	0,733179
4,030833	0,1	0,715843
4,032500	0,1	0,667713
4,034167	0,1	0,692395
4,035833	0,1	0,691783
4,037500	0,1	0,717709
4,039167	0,1	0,733969
4,040833	0,1	0,738857
4,042500	0,1	0,705892
4,044167	0,1	0,729266
4,045833	0,1	0,735836
4,047500	0,1	0,753232
4,049167	0,1	0,704662
4,050833	0,1	0,756797
4,052500	0,1	0,734844
4,054167	0,1	0,772021
4,055833	0,1	0,770728
4,057500	0,1	0,773447
4,059167	0,1	0,754725
4,060833	0,1	0,796210
4,062500	0,1	0,764183
4,064167	0,1	0,789506
4,065833	0,1	0,784482
4,067500	0,1	0,801942
4,069167	0,1	0,856151
4,070833	0,1	0,819357
4,072500	0,1	0,845191
4,074167	0,1	0,839053
4,075833	0,1	0,825358
4,077500	0,1	0,846877
4,079167	0,1	0,876596
4,080833	0,1	0,860005
4,082500	0,1	0,894019
4,084167	0,1	0,834222
4,085833	0,1	0,904530
4,087500	0,1	0,912668
4,089167	0,1	0,971173
4,090833	0,1	0,951391
4,092500	0,1	0,930700
4,094167	0,1	0,921198
4,095833	0,1	0,996101
4,097500	0,1	0,976809
4,099167	0,1	0,996491
4,100833	0,1	0,994676
4,102500	0,1	1,057809
4,104167	0,1	1,024368
4,105833	0,1	1,078659
4,107500	0,1	1,063730
4,109167	0,1	1,025348
4,110833	0,1	1,044673
4,112500	0,1	1,075713
4,114167	0,1	1,105308
4,115833	0,1	1,068598
4,117500	0,1	1,153664
4,119167	0,1	1,134331
4,120833	0,1	1,183098
4,122500	0,1	1,162535
4,124167	0,1	1,164546
4,125833	0,1	1,153547
4,127500	0,1	1,183099
4,129167	0,1	1,161669
4,130833	0,1	1,175477
4,132500	0,1	1,258863
4,134167	0,1	1,227664
4,135833	0,1	1,255366
4,137500	0,1	1,294648
4,139167	0,1	1,252011
4,140833	0,1	1,317564
4,142500	0,1	1,271830
4,144167	0,1	1,373832
4,145833	0,1	1,350681
4,147500	0,1	1,335130
4,149167	0,1	1,352194
4,150833	0,1	1,406079
4,152500	0,1	1,352879
4,154167	0,1	1,412275
4,155833	0,1	1,372948
4,157500	0,1	1,366894
4,159167	0,1	1,394650
4,160833	0,1	1,423677
4,162500	0,1	1,422384
4,164167	0,1	1,415433
4,165833	0,1	1,477533
4,167500	0,1	1,505833
4,169167	0,1	1,444829
4,170833	0,1	1,423540
4,172500	0,1	1,452980
4,174167	0,1	1,492215
4,175833	0,1	1,522742
4,177500	0,1	1,517641
4,179167	0,1	1,527973
4,180833	0,1	1,547725
4,182500	0,1	1,495171
4,184167	0,1	1,516000
4,185833	0,1	1,533532
4,187500	0,1	1,539475
4,189167	0,1	1,526231
4,190833	0,1	1,531830
4,192500	0,1	1,494650
4,194167	0,1	1,567776
4,195833	0,1	1,555469
4,197500	0,1	1,585829
4,199167	0,1	1,580472
4,200833	0,1	1,537137
4,202500	0,1	1,576939
4,204167	0,1	1,550948
4,205833	0,1	1,583308
4,207500	0,1	1,574887
4,209167	0,1	1,515340
4,210833	0,1	1,553601
4,212500	0,1	1,544578
4,214167	0,1	1,563623
4,215833	0,1	1,565353
4,217500	0,1	1,600954
4,219167	0,1	1,570163
4,220833	0,1	1,545871
4,222500	0,1	1,490705
4,224167	0,1	1,566416
4,225833	0,1	1,562498
4,227500	0,1	1,538976
4,229167	0,1	1,525457
4,230833	0,1	1,561913
4,232500	0,1	1,523253
4,234167	0,1	1,510828
4,235833	0,1	1,548803
4,237500	0,1	1,530122
4,239167	0,1	1,521082
4,240833	0,1	1,513668
4,242500	0,1	1,508478
4,244167	0,1	1,500536
4,245833	0,1	1,470523
4,247500	0,1	1,454037
4,249167	0,1	1,472663
4,250833	0,1	1,483405
4,252500	0,1	1,477318
4,254167	0,1	1,464798
4,255833	0,1	1,457927
4,257500	0,1	1,450686
4,259167	0,1	1,445091
4,260833	0,1	1,491372
4,262500	0,1	1,438071
4,264167	0,1	1,419315
4,265833	0,1	1,440410
4,267500	0,1	1,409925
4,269167	0,1	1,398142
4,270833	0,1	1,399895
4,272500	0,1	1,419251
4,274167	0,1	1,387960
4,275833	0,1	1,382167
4,277500	0,1	1,363949
4,279167	0,1	1,361956
4,280833	0,1	1,339984
4,282500	0,1	1,316130
4,284167	0,1	1,358587
4,285833	0,1	1,311639
4,287500	0,1	1,297426
4,289167	0,1	1,277690
4,290833	0,1	1,312029
4,292500	0,1	1,272404
4,294167	0,1	1,268090
4,295833	0,1	1,260345
4,297500	0,1	1,253374
4,299167	0,1	1,261305
4,300833	0,1	1,266104
4,302500	0,1	1,214853
4,304167	0,1	1,241533
4,305833	0,1	1,235675
4,307500	0,1	1,207031
4,309167	0,1	1,203025
4,310833	0,1	1,211618
4,312500	0,1	1,190960
4,314167	0,1	1,196464
4,315833	0,1	1,165604
4,317500	0,1	1,163445
4,319167	0,1	1,155225
4,320833	0,1	1,146498
4,322500	0,1	1,104336
4,324167	0,1	1,138537
4,325833	0,1	1,131991
4,327500	0,1	1,152220
4,329167	0,1	1,080600
4,330833	0,1	1,086090
4,332500	0,1	1,079470
4,334167	0,1	1,073165
4,335833	0,1	1,084713
4,337500	0,1	1,098257
4,339167	0,1	1,075034
4,340833	0,1	1,036718
4,342500	0,1	1,033777
4,344167	0,1	1,009381
4,345833	0,1	1,026086
4,347500	0,1	1,013063
4,349167	0,1	1,026377
4,350833	0,1	0,990533
4,352500	0,1	0,982424
4,354167	0,1	0,973631
4,355833	0,1	0,984905
4,357500	0,1	0,981312
4,359167	0,1	0,926380
4,360833	0,1	0,956239
4,362500	0,1	0,948390
4,364167	0,1	0,976621
4,365833	0,1	0,954054
4,367500	0,1	0,939336
4,369167	0,1	0,948186
4,370833	0,1	0,940265
4,372500	0,1	0,944324
4,374167	0,1	0,905665
4,375833	0,1	0,890367
4,377500	0,1	0,893316
4,379167	0,1	0,861958
4,380833	0,1	0,915988
4,382500	0,1	0,920373
4,384167	0,1	0,887332
4,385833	0,1	0,857676
4,387500	0,1	0,874687
4,389167	0,1	0,858827
4,390833	0,1	0,847108
4,392500	0,1	0,857401
4,394167	0,1	0,842627
4,395833	0,1	0,835100
4,397500	0,1	0,834366
4,399167	0,1	0,818633
4,400833	0,1	0,818942
4,402500	0,1	0,808822
4,404167	0,1	0,806626
4,405833	0,1	0,791249
4,407500	0,1	0,779967
4,409167	0,1	0,799095
4,410833	0,1	0,810979
4,412500	0,1	0,797131
4,414167	0,1	0,809774
4,415833	0,1	0,797840
4,417500	0,1	0,778379
4,419167	0,1	0,812986
4,420833	0,1	0,791918
4,422500	0,1	0,770014
4,424167	0,1	0,798945
4,425833	0,1	0,724983
4,427500	0,1	0,737396
4,429167	0,1	0,732450
4,430833	0,1	0,715343
4,432500	0,1	0,766530
4,434167	0,1	0,748671
4,435833	0,1	0,719390
4,437500	0,1	0,726434
4,439167	0,1	0,713374
4,440833	0,1	0,710351
4,442500	0,1	0,671411
4,444167	0,1	0,708870
4,445833	0,1	0,669053
4,447500	0,1	0,722338
4,449167	0,1	0,687495
4,450833	0,1	0,671239
4,452500	0,1	0,641453
4,454167	0,1	0,633606
4,455833	0,1	0,703621
4,457500	0,1	0,678514
4,459167	0,1	0,642424
4,460833	0,1	0,636914
4,462500	0,1	0,665791
4,464167	0,1	0,652777
4,465833	0,1	0,658272
4,467500	0,1	0,624959
4,469167	0,1	0,651797
4,470833	0,1	0,662829
4,472500	0,1	0,626564
4,474167	0,1	0,650864
4,475833	0,1	0,612767
4,477500	0,1	0,648158
4,479167	0,1	0,601283
4,480833	0,1	0,642432
4,482500	0,1	0,588745
4,484167	0,1	0,564614
4,485833	0,1	0,596118
4,487500	0,1	0,582210
4,489167	0,1	0,582778
4,490833	0,1	0,586931
4,492500	0,1	0,565293
4,494167	0,1	0,589465
4,495833	0,1	0,584261
4,497500	0,1	0,562300
4,499167	0,1	0,589334
4,500833	0,1	0,552013
4,502500	0,1	0,532620
4,504167	0,1	0,570836
4,505833	0,1	0,558729
4,507500	0,1	0,549659
4,509167	0,1	0,572553
4,510833	0,1	0,550689
4,512500	0,1	0,520496
4,514167	0,1	0,539265
4,515833	0,1	0,519563
4,517500	0,1	0,515151
4,519167	0,1	0,499399
4,520833	0,1	0,523379
4,522500	0,1	0,511006
4,524167	0,1	0,504574
4,525833	0,1	0,486314
4,527500	0,1	0,526044
4,529167	0,1	0,476834
4,530833	0,1	0,477113
4,532500	0,1	0,487784
4,534167	0,1	0,468854
4,535833	0,1	0,493055
4,537500	0,1	0,503571
4,539167	0,1	0,504123
4,540833	0,1	0,518427
4,542500	0,1	0,462880
4,544167	0,1	0,479100
4,545833	0,1	0,461006
4,547500	0,1	0,441364
4,549167	0,1	0,457559
4,550833	0,1	0,479839
4,552500	0,1	0,429442
4,554167	0,1	0,443542
4,555833	0,1	0,428374
4,557500	0,1	0,471700
4,559167	0,1	0,424009
4,560833	0,1	0,417729
4,562500	0,1	0,406864
4,564167	0,1	0,424989
4,565833	0,1	0,402816
4,567500	0,1	0,444178
4,569167	0,1	0,415324
4,570833	0,1	0,422998
4,572500	0,1	0,411043
4,574167	0,1	0,424252
4,575833	0,1	0,405741
4,577500	0,1	0,423865
4,579167	0,1	0,413070
4,580833	0,1	0,397639
4,582500	0,1	0,400593
4,584167	0,1	0,390565
4,585833	0,1	0,390209
4,587500	0,1	0,413062
4,589167	0,1	0,391885
4,590833	0,1	0,371346
4,592500	0,1	0,378283
4,594167	0,1	0,398241
4,595833	0,1	0,394260
4,597500	0,1	0,417272
4,599167	0,1	0,366882
4,600833	0,1	0,356330
4,602500	0,1	0,377796
4,604167	0,1	0,382235
4,605833	0,1	0,358747
4,607500	0,1	0,341481
4,609167	0,1	0,358188
4,610833	0,1	0,391423
4,612500	0,1	0,352642
4,614167	0,1	0,336466
4,615833	0,1	0,356965
4,617500	0,1	0,377282
4,619167	0,1	0,346436
4,620833	0,1	0,327530
4,622500	0,1	0,359118
4,624167	0,1	0,319694
4,625833	0,1	0,331448
4,627500	0,1	0,333439
4,629167	0,1	0,285720
4,630833	0,1	0,363122
4,632500	0,1	0,348648
4,634167	0,1	0,316090
4,635833	0,1	0,342919
4,637500	0,1	0,337848
4,639167	0,1	0,256422
4,640833	0,1	0,320858
4,642500	0,1	0,323189
4,644167	0,1	0,329748
4,645833	0,1	0,328911
4,647500	0,1	0,330033
4,649167	0,1	0,357705
4,650833	0,1	0,288940
4,652500	0,1	0,301236
4,654167	0,1	0,316566
4,655833	0,1	0,290539
4,657500	0,1	0,312932
4,659167	0,1	0,320776
4,660833	0,1	0,291471
4,662500	0,1	0,257017
4,664167	0,1	0,291131
4,665833	0,1	0,335780
4,667500	0,1	0,283445
4,669167	0,1	0,278609
4,670833	0,1	0,260002
4,672500	0,1	0,276197
4,674167	0,1	0,279287
4,675833	0,1	0,258878
4,677500	0,1	0,271280
4,679167	0,1	0,285260
4,680833	0,1	0,306731
4,682500	0,1	0,274019
4,684167	0,1	0,277576
4,685833	0,1	0,265150
4,687500	0,1	0,252613
4,689167	0,1	0,286702
4,690833	0,1	0,279838
4,692500	0,1	0,254317
4,694167	0,1	0,224401
4,695833	0,1	0,258902
4,697500	0,1	0,265343
4,699167	0,1	0,259300
4,700833	0,1	0,258331
4,702500	0,1	0,272786
4,704167	0,1	0,254415
4,705833	0,1	0,255984
4,707500	0,1	0,255152
4,709167	0,1	0,272856
4,710833	0,1	0,259202
4,712500	0,1	0,258619
4,714167	0,1	0,213994
4,715833	0,1	0,252246
4,717500	0,1	0,235485
4,719167	0,1	0,220740
4,720833	0,1	0,239235
4,722500	0,1	0,234868
4,724167	0,1	0,284833
4,725833	0,1	0,198226
4,727500	0,1	0,233763
4,729167	0,1	0,204541
4,730833	0,1	0,227446
4,732500	0,1	0,230148
4,734167	0,1	0,226132
4,735833	0,1	0,215949
4,737500	0,1	0,210835
4,739167	0,1	0,245954
4,740833	0,1	0,209266
4,742500	0,1	0,203601
4,744167	0,1	0,225538
4,745833	0,1	0,249263
4,747500	0,1	0,221222
4,749167	0,1	0,187541
4,750833	0,1	0,220239
4,752500	0,1	0,205278
4,754167	0,1	0,232388
4,755833	0,1	0,236350
4,757500	0,1	0,207953
4,759167	0,1	0,231656
4,760833	0,1	0,212196
4,762500	0,1	0,226797
4,764167	0,1	0,187391
4,765833	0,1	0,198104
4,767500	0,1	0,212568
4,769167	0,1	0,209296
4,770833	0,1	0,212733
4,772500	0,1	0,163669
4,774167	0,1	0,161966
4,775833	0,1	0,227148
4,777500	0,1	0,184748
4,779167	0,1	0,170677
4,780833	0,1	0,188488
4,782500	0,1	0,194702
4,784167	0,1	0,201933
4,785833	0,1	0,174824
4,787500	0,1	0,212914
4,789167	0,1	0,162494
4,790833	0,1	0,183900
4,792500	0,1	0,178222
4,794167	0,1	0,181686
4,795833	0,1	0,188729
4,797500	0,1	0,156659
4,799167	0,1	0,200765
4,800833	0,1	0,216741
4,802500	0,1	0,193171
4,804167	0,1	0,175682
4,805833	0,1	0,228626
4,807500	0,1	0,155810
4,809167	0,1	0,170179
4,810833	0,1	0,162121
4,812500	0,1	0,154509
4,814167	0,1	0,178404
4,815833	0,1	0,159238
4,817500	0,1	0,172661
4,819167	0,1	0,207169
4,820833	0,1	0,184715
4,822500	0,1	0,166646
4,824167	0,1	0,181331
4,825833	0,1	0,187117
4,827500	0,1	0,192522
4,829167	0,1	0,138065
4,830833	0,1	0,191576
4,832500	0,1	0,183465
4,834167	0,1	0,160788
4,835833	0,1	0,146637
4,837500	0,1	0,162920
4,839167	0,1	0,165016
4,840833	0,1	0,175422
4,842500	0,1	0,264998
4,844167	0,1	0,176921
4,845833	0,1	0,144360
4,847500	0,1	0,173841
4,849167	0,1	0,179178
4,850833	0,1	0,125127
4,852500	0,1	0,168862
4,854167	0,1	0,183902
4,855833	0,1	0,172050
4,857500	0,1	0,177151
4,859167	0,1	0,157941
4,860833	0,1	0,169537
4,862500	0,1	0,218670
4,864167	0,1	0,176014
4,865833	0,1	0,164855
4,867500	0,1	0,174225
4,869167	0,1	0,140958
4,870833	0,1	0,173388
4,872500	0,1	0,159615
4,874167	0,1	0,200415
4,875833	0,1	0,156950
4,877500	0,1	0,209798
4,879167	0,1	0,160393
4,880833	0,1	0,186179
4,882500	0,1	0,152714
4,884167	0,1	0,139517
4,885833	0,1	0,160186
4,887500	0,1	0,170092
4,889167	0,1	0,163722
4,890833	0,1	0,191231
4,892500	0,1	0,186930
4,894167	0,1	0,200067
4,895833	0,1	0,183720
4,897500	0,1	0,185643
4,899167	0,1	0,171281
4,900833	0,1	0,168118
4,902500	0,1	0,190263
4,904167	0,1	0,168361
4,905833	0,1	0,179920
4,907500	0,1	0,162790
4,909167	0,1	0,211047
4,910833	0,1	0,148904
4,912500	0,1	0,194114
4,914167	0,1	0,173439
4,915833	0,1	0,154575
4,917500	0,1	0,163276
4,919167	0,1	0,168797
4,920833	0,1	0,177513
4,922500	0,1	0,160736
4,924167	0,1	0,193474
4,925833	0,1	0,160941
4,927500	0,1	0,130703
4,929167	0,1	0,175439
4,930833	0,1	0,148316
4,932500	0,1	0,159393
4,934167	0,1	0,153956
4,935833	0,1	0,158136
4,937500	0,1	0,196876
4,939167	0,1	0,197401
4,940833	0,1	0,126440
4,942500	0,1	0,183737
4,944167	0,1	0,189976
4,945833	0,1	0,213171
4,947500	0,1	0,180736
4,949167	0,1	0,202446
4,950833	0,1	0,161297
4,952500	0,1	0,169439
4,954167	0,1	0,186925
4,955833	0,1	0,191363
4,957500	0,1	0,242322
4,959167	0,1	0,139200
4,960833	0,1	0,186626
4,962500	0,1	0,174947
4,964167	0,1	0,196336
4,965833	0,1	0,178098
4,967500	0,1	0,186183
4,969167	0,1	0,147097
4,970833	0,1	0,213841
4,972500	0,1	0,191595
4,974167	0,1	0,209870
4,975833	0,1	0,201547
4,977500	0,1	0,198532
4,979167	0,1	0,183203
4,980833	0,1	0,201414
4,982500	0,1	0,200488
4,984167	0,1	0,175230
4,985833	0,1	0,224834
4,987500	0,1	0,215623
4,989167	0,1	0,167851
4,990833	0,1	0,212080
4,992500	0,1	0,181669
4,994167	0,1	0,211242
4,995833	0,1	0,175584
4,997500	0,1	0,192291
4,999167	0,1	0,222303
5,000833	0,1	0,231813
5,002500	0,1	0,166633
5,004167	0,1	0,197267
5,005833	0,1	0,210577
5,007500	0,1	0,192100
5,009167	0,1	0,210928
5,010833	0,1	0,210796
5,012500	0,1	0,223748
5,014167	0,1	0,198502
5,015833	0,1	0,215680
5,017500	0,1	0,230627
5,019167	0,1	0,185970
5,020833	0,1	0,191026
5,022500	0,1	0,213551
5,024167	0,1	0,251342
5,025833	0,1	0,222824
5,027500	0,1	0,240039
5,029167	0,1	0,224135
5,030833	0,1	0,213053
5,032500	0,1	0,248263
5,034167	0,1	0,267071
5,035833	0,1	0,219941
5,037500	0,1	0,209994
5,039167	0,1	0,277631
5,040833	0,1	0,234143
5,042500	0,1	0,224748
5,044167	0,1	0,217968
5,045833	0,1	0,231088
5,047500	0,1	0,237373
5,049167	0,1	0,231329
5,050833	0,1	0,271465
5,052500	0,1	0,248307
5,054167	0,1	0,254981
5,055833	0,1	0,241784
5,057500	0,1	0,251512
5,059167	0,1	0,232618
5,060833	0,1	0,266133
5,062500	0,1	0,258550
5,064167	0,1	0,258140
5,065833	0,1	0,293484
5,067500	0,1	0,269461
5,069167	0,1	0,246513
5,070833	0,1	0,281305
5,072500	0,1	0,286484
5,074167	0,1	0,284169
5,075833	0,1	0,308368
5,077500	0,1	0,242723
5,079167	0,1	0,247467
5,080833	0,1	0,301029
5,082500	0,1	0,271575
5,084167	0,1	0,276581
5,085833	0,1	0,255186
5,087500	0,1	0,306491
5,089167	0,1	0,261900
5,090833	0,1	0,276613
5,092500	0,1	0,280438
5,094167	0,1	0,314273
5,095833	0,1	0,303519
5,097500	0,1	0,237290
5,099167	0,1	0,287080
5,100833	0,1	0,294070
5,102500	0,1	0,280506
5,104167	0,1	0,267135
5,105833	0,1	0,334101
5,107500	0,1	0,320075
5,109167	0,1	0,309917
5,110833	0,1	0,302748
5,112500	0,1	0,347444
5,114167	0,1	0,299156
5,115833	0,1	0,291790
5,117500	0,1	0,306276
5,119167	0,1	0,306886
5,120833	0,1	0,285008
5,122500	0,1	0,327164
5,124167	0,1	0,345522
5,125833	0,1	0,308765
5,127500	0,1	0,330770
5,129167	0,1	0,289900
5,130833	0,1	0,268232
5,132500	0,1	0,287597
5,134167	0,1	0,288025
5,135833	0,1	0,279162
5,137500	0,1	0,293222
5,139167	0,1	0,289248
5,140833	0,1	0,297017
5,142500	0,1	0,295449
5,144167	0,1	0,288988
5,145833	0,1	0,333688
5,147500	0,1	0,321552
5,149167	0,1	0,325887
5,150833	0,1	0,335110
5,152500	0,1	0,319723
5,154167	0,1	0,260330
5,155833	0,1	0,315235
5,157500	0,1	0,336620
5,159167	0,1	0,342537
5,160833	0,1	0,269239
5,162500	0,1	0,289664
5,164167	0,1	0,267941
5,165833	0,1	0,266553
5,167500	0,1	0,313148
5,169167	0,1	0,276337
5,170833	0,1	0,283391
5,172500	0,1	0,294287
5,174167	0,1	0,287645
5,175833	0,1	0,302967
5,177500	0,1	0,292528
5,179167	0,1	0,283655
5,180833	0,1	0,264663
5,182500	0,1	0,265753
5,184167	0,1	0,289242
5,185833	0,1	0,252230
5,187500	0,1	0,278348
5,189167	0,1	0,269548
5,190833	0,1	0,255147
5,192500	0,1	0,291971
5,194167	0,1	0,263507
5,195833	0,1	0,263436
5,197500	0,1	0,268614
5,199167	0,1	0,294093
5,200833	0,1	0,262483
5,202500	0,1	0,283103
5,204167	0,1	0,245033
5,205833	0,1	0,247729
5,207500	0,1	0,221575
5,209167	0,1	0,237849
5,210833	0,1	0,240170
5,212500	0,1	0,272527
5,214167	0,1	0,235328
5,215833	0,1	0,268838
5,217500	0,1	0,264886
5,219167	0,1	0,255019
5,220833	0,1	0,235189
5,222500	0,1	0,221564
5,224167	0,1	0,240491
5,225833	0,1	0,269505
5,227500	0,1	0,225753
5,229167	0,1	0,167137
5,230833	0,1	0,203917
5,232500	0,1	0,201483
5,234167	0,1	0,185093
5,235833	0,1	0,230066
5,237500	0,1	0,220865
5,239167	0,1	0,227251
5,240833	0,1	0,212829
5,242500	0,1	0,241549
5,244167	0,1	0,214316
5,245833	0,1	0,206815
5,247500	0,1	0,255782
5,249167	0,1	0,188999
5,250833	0,1	0,146971
5,252500	0,1	0,249144
5,254167	0,1	0,201946
5,255833	0,1	0,194857
5,257500	0,1	0,171827
5,259167	0,1	0,193059
5,260833	0,1	0,163274
5,262500	0,1	0,173431
5,264167	0,1	0,188362
5,265833	0,1	0,164305
5,267500	0,1	0,176353
5,269167	0,1	0,177957
5,270833	0,1	0,171570
5,272500	0,1	0,204434
5,274167	0,1	0,202894
5,275833	0,1	0,179827
5,277500	0,1	0,204274
5,279167	0,1	0,158728
5,280833	0,1	0,163881
5,282500	0,1	0,165747
5,284167	0,1	0,181078
5,285833	0,1	0,160032
5,287500	0,1	0,161501
5,289167	0,1	0,209888
5,290833	0,1	0,154484
5,292500	0,1	0,147404
5,294167	0,1	0,123858
5,295833	0,1	0,172263
5,297500	0,1	0,123739
5,299167	0,1	0,165874
5,300833	0,1	0,164248
5,302500	0,1	0,147280
5,304167	0,1	0,134743
5,305833	0,1	0,148910
5,307500	0,1	0,127425
5,309167	0,1	0,137056
5,310833	0,1	0,106991
5,312500	0,1	0,136319
5,314167	0,1	0,128064
5,315833	0,1	0,114672
5,317500	0,1	0,070597
5,319167	0,1	0,147711
5,320833	0,1	0,128809
5,322500	0,1	0,122671
5,324167	0,1	0,115981
5,325833	0,1	0,143325
5,327500	0,1	0,098099
5,329167	0,1	0,088479
5,330833	0,1	0,141643
5,332500	0,1	0,084698
5,334167	0,1	0,100038
5,335833	0,1	0,123142
5,337500	0,1	0,141111
5,339167	0,1	0,108919
5,340833	0,1	0,102753
5,342500	0,1	0,118520
5,344167	0,1	0,126169
5,345833	0,1	0,084215
5,347500	0,1	0,085866
5,349167	0,1	0,078010
5,350833	0,1	0,083789
5,352500	0,1	0,102747
5,354167	0,1	0,102838
5,355833	0,1	0,096391
5,357500	0,1	0,101277
5,359167	0,1	0,086653
5,360833	0,1	0,092493
5,362500	0,1	0,081677
5,364167	0,1	0,058386
5,365833	0,1	0,074172
5,367500	0,1	0,106536
5,369167	0,1	0,094376
5,370833	0,1	0,088201
5,372500	0,1	0,087355
5,374167	0,1	0,091537
5,375833	0,1	0,091955
5,377500	0,1	0,074612
5,379167	0,1	0,077653
5,380833	0,1	0,111510
5,382500	0,1	0,016315
5,384167	0,1	0,084705
5,385833	0,1	0,103592
5,387500	0,1	0,087938
5,389167	0,1	0,073514
5,390833	0,1	0,049996
5,392500	0,1	0,091214
5,394167	0,1	0,060769
5,395833	0,1	0,109039
5,397500	0,1	0,112349
5,399167	0,1	0,044075
5,400833	0,1	0,074638
5,402500	0,1	0,085339
5,404167	0,1	0,056522
5,405833	0,1	0,040066
5,407500	0,1	0,049838
5,409167	0,1	0,053490
5,410833	0,1	0,028608
5,412500	0,1	0,065830
5,414167	0,1	0,033044
5,415833	0,1	0,034196
5,417500	0,1	0,063036
5,419167	0,1	0,049639
5,420833	0,1	0,036644
5,422500	0,1	0,043439
5,424167	0,1	0,060720
5,425833	0,1	0,050423
5,427500	0,1	0,068883
5,429167	0,1	0,054115
5,430833	0,1	0,015825
5,432500	0,1	0,065059
5,434167	0,1	0,031492
5,435833	0,1	0,010744
5,437500	0,1	0,046143
5,439167	0,1	0,007370
5,440833	0,1	0,044153
5,442500	0,1	-0,003592
5,444167	0,1	0,018835
5,445833	0,1	-0,000530
5,447500	0,1	0,038847
5,449167	0,1	0,050213
5,450833	0,1	0,010021
5,452500	0,1	0,030979
5,454167	0,1	0,033945
5,455833	0,1	0,039105
5,457500	0,1	0,001339
5,459167	0,1	0,033192
5,460833	0,1	0,063575
5,462500	0,1	0,018022
5,464167	0,1	0,027870
5,465833	0,1	0,057912
5,467500	0,1	0,056406
5,469167	0,1	0,025123
5,470833	0,1	0,037944
5,472500	0,1	0,013291
5,474167	0,1	0,034042
5,475833	0,1	-0,001520
5,477500	0,1	0,039551
5,479167	0,1	-0,005808
5,480833	0,1	0,009570
5,482500	0,1	0,019106
5,484167	0,1	0,023916
5,485833	0,1	-0,004133
5,487500	0,1	0,033624
5,489167	0,1	0,052860
5,490833	0,1	-0,006801
5,492500	0,1	0,000810
5,494167	0,1	0,006922
5,495833	0,1	0,010881
5,497500	0,1	0,012871
5,499167	0,1	0,013865
5,500833	0,1	-0,021331
5,502500	0,1	-0,027365
5,504167	0,1	0,011640
5,505833	0,1	0,001748
5,507500	0,1	-0,015948
5,509167	0,1	0,030164
5,510833	0,1	-0,035393
5,512500	0,1	0,004220
5,514167	0,1	0,009079
5,515833	0,1	-0,030841
5,517500	0,1	0,013896
5,519167	0,1	-0,006270
5,520833	0,1	0,017196
5,522500	0,1	-0,041009
5,524167	0,1	0,005714
5,525833	0,1	0,040316
5,527500	0,1	-0,000814
5,529167	0,1	0,020034
5,530833	0,1	-0,000239
5,532500	0,1	-0,012427
5,534167	0,1	-0,007727
5,535833	0,1	0,013280
5,537500	0,1	-0,020752
5,539167	0,1	-0,037270
5,540833	0,1	-0,006737
5,542500	0,1	-0,013175
5,544167	0,1	0,005510
5,545833	0,1	-0,033804
5,547500	0,1	-0,002782
5,549167	0,1	-0,043333
5,550833	0,1	-0,036633
5,552500	0,1	-0,017759
5,554167	0,1	0,004474
5,555833	0,1	-0,004077
5,557500	0,1	-0,009446
5,559167	0,1	-0,016386
5,560833	0,1	-0,013570
5,562500	0,1	-0,030640
5,564167	0,1	-0,062273
5,565833	0,1	-0,003805
5,567500	0,1	-0,020713
5,569167	0,1	0,001304
5,570833	0,1	-0,031587
5,572500	0,1	-0,006304
5,574167	0,1	0,001120
5,575833	0,1	-0,003498
5,577500	0,1	-0,022080
5,579167	0,1	-0,012661
5,580833	0,1	-0,005595
5,582500	0,1	-0,039088
5,584167	0,1	-0,028241
5,585833	0,1	-0,009657
5,587500	0,1	-0,007479
5,589167	0,1	-0,027923
5,590833	0,1	0,005985
5,592500	0,1	0,006861
5,594167	0,1	-0,008903
5,595833	0,1	-0,035111
5,597500	0,1	-0,025714
5,599167	0,1	-0,022874
5,600833	0,1	-0,011520
5,602500	0,1	-0,038221
5,604167	0,1	-0,060431
5,605833	0,1	-0,019381
5,607500	0,1	-0,027119
5,609167	0,1	-0,036816
5,610833	0,1	0,005608
5,612500	0,1	-0,025911
5,614167	0,1	-0,019539
5,615833	0,1	-0,043711
5,617500	0,1	-0,027332
5,619167	0,1	-0,044148
5,620833	0,1	-0,025736
5,622500	0,1	0,037080
5,624167	0,1	0,011115
5,625833	0,1	0,007068
5,627500	0,1	-0,077426
5,629167	0,1	-0,038152
5,630833	0,1	-0,028054
5,632500	0,1	-0,031348
5,634167	0,1	-0,032672
5,635833	0,1	-0,039137
5,637500	0,1	-0,005994
5,639167	0,1	-0,037473
5,640833	0,1	-0,009080
5,642500	0,1	0,006899
5,644167	0,1	-0,032994
5,645833	0,1	-0,038432
5,647500	0,1	-0,022691
5,649167	0,1	-0,015561
5,650833	0,1	-0,044021
5,652500	0,1	-0,003029
5,654167	0,1	-0,038487
5,655833	0,1	-0,045848
5,657500	0,1	-0,037856
5,659167	0,1	-0,035947
5,660833	0,1	0,016815
5,662500	0,1	0,015980
5,664167	0,1	-0,036203
5,665833	0,1	-0,005538
5,667500	0,1	-0,048638
5,669167	0,1	-0,012395
5,670833	0,1	-0,020011
5,672500	0,1	-0,012700
5,674167	0,1	-0,008864
5,675833	0,1	-0,055703
5,677500	0,1	0,024728
5,679167	0,1	0,001915
5,680833	0,1	-0,003334
5,682500	0,1	0,003006
5,684167	0,1	0,025753
5,685833	0,1	0,001996
5,687500	0,1	-0,048470
5,689167	0,1	0,006063
5,690833	0,1	0,008892
5,692500	0,1	-0,014724
5,694167	0,1	-0,059226
5,695833	0,1	-0,008773
5,697500	0,1	-0,019866
5,699167	0,1	0,017422
5,700833	0,1	0,003382
5,702500	0,1	0,008891
5,704167	0,1	-0,000928
5,705833	0,1	-0,034447
5,707500	0,1	-0,009679
5,709167	0,1	0,017754
5,710833	0,1	-0,007491
5,712500	0,1	-0,008038
5,714167	0,1	-0,006275
5,715833	0,1	-0,010357
5,717500	0,1	-0,002053
5,719167	0,1	0,003547
5,720833	0,1	0,011811
5,722500	0,1	0,000277
5,724167	0,1	-0,014271
5,725833	0,1	0,022686
5,727500	0,1	0,028038
5,729167	0,1	0,000093
5,730833	0,1	0,032528
5,732500	0,1	0,026652
5,734167	0,1	0,037444
5,735833	0,1	0,012649
5,737500	0,1	0,044568
5,739167	0,1	0,027838
5,740833	0,1	0,049443
5,742500	0,1	-0,000936
5,744167	0,1	0,025172
5,745833	0,1	-0,011260
5,747500	0,1	0,026454
5,749167	0,1	0,042644
5,750833	0,1	0,014975
5,752500	0,1	-0,007141
5,754167	0,1	-0,021087
5,755833	0,1	0,031943
5,757500	0,1	-0,001708
5,759167	0,1	0,023786
5,760833	0,1	0,036880
5,762500	0,1	0,037988
5,764167	0,1	0,042046
5,765833	0,1	0,082345
5,767500	0,1	0,042595
5,769167	0,1	-0,007485
5,770833	0,1	0,009905
5,772500	0,1	0,011170
5,774167	0,1	0,050098
5,775833	0,1	0,049114
5,777500	0,1	-0,007153
5,779167	0,1	-0,013319
5,780833	0,1	0,012910
5,782500	0,1	0,021572
5,784167	0,1	0,026962
5,785833	0,1	0,048779
5,787500	0,1	0,047600
5,789167	0,1	0,039667
5,790833	0,1	0,052720
5,792500	0,1	-0,000543
5,794167	0,1	0,006012
5,795833	0,1	0,040095
5,797500	0,1	0,006932
5,799167	0,1	0,028180
5,800833	0,1	0,067797
5,802500	0,1	0,009032
5,804167	0,1	-0,004550
5,805833	0,1	0,013242
5,807500	0,1	0,029382
5,809167	0,1	0,061688
5,810833	0,1	0,036793
5,812500	0,1	0,074839
5,814167	0,1	0,025652
5,815833	0,1	0,045238
5,817500	0,1	0,036909
5,819167	0,1	0,026302
5,820833	0,1	-0,013953
5,822500	0,1	0,026415
5,824167	0,1	0,039457
5,825833	0,1	0,048782
5,827500	0,1	0,014703
5,829167	0,1	0,025075
5,830833	0,1	0,031959
5,832500	0,1	0,043209
5,834167	0,1	-0,013886
5,835833	0,1	0,018628
5,837500	0,1	-0,000013
5,839167	0,1	0,044135
5,840833	0,1	0,013379
5,842500	0,1	0,026796
5,844167	0,1	0,028765
5,845833	0,1	0,016087
5,847500	0,1	0,044631
5,849167	0,1	0,039296
5,850833	0,1	-0,000421
5,852500	0,1	-0,019552
5,854167	0,1	0,015971
5,855833	0,1	0,055362
5,857500	0,1	-0,009057
5,859167	0,1	0,020924
5,860833	0,1	0,003261
5,862500	0,1	-0,009814
5,864167	0,1	0,031474
5,865833	0,1	0,015029
5,867500	0,1	0,004339
5,869167	0,1	0,000938
5,870833	0,1	0,039114
5,872500	0,1	0,019571
5,874167	0,1	0,056296
5,875833	0,1	0,012716
5,877500	0,1	0,027518
5,879167	0,1	0,009498
5,880833	0,1	0,018651
5,882500	0,1	0,005291
5,884167	0,1	-0,006209
5,885833	0,1	0,030166
5,887500	0,1	-0,006308
5,889167	0,1	0,000790
5,890833	0,1	-0,017914
5,892500	0,1	0,001947
5,894167	0,1	0,011543
5,895833	0,1	0,018673
5,897500	0,1	-0,020335
5,899167	0,1	0,020383
5,900833	0,1	-0,000449
5,902500	0,1	-0,009609
5,904167	0,1	0,058818
5,905833	0,1	-0,013199
5,907500	0,1	0,031428
5,909167	0,1	0,053464
5,910833	0,1	0,051730
5,912500	0,1	-0,026355
5,914167	0,1	0,027509
5,915833	0,1	0,007821
5,917500	0,1	0,022150
5,919167	0,1	-0,024891
5,920833	0,1	-0,003897
5,922500	0,1	-0,006253
5,924167	0,1	-0,024940
5,925833	0,1	-0,012371
5,927500	0,1	-0,036501
5,929167	0,1	-0,002595
5,930833	0,1	-0,012633
5,932500	0,1	-0,023595
5,934167	0,1	-0,022313
5,935833	0,1	-0,054565
5,937500	0,1	0,008711
5,939167	0,1	0,001685
5,940833	0,1	-0,009153
5,942500	0,1	0,005199
5,944167	0,1	-0,013191
5,945833	0,1	-0,026724
5,947500	0,1	-0,022770
5,949167	0,1	-0,012412
5,950833	0,1	0,009176
5,952500	0,1	-0,035978
5,954167	0,1	-0,005309
5,955833	0,1	-0,008058
5,957500	0,1	-0,010378
5,959167	0,1	-0,005014
5,960833	0,1	0,017777
5,962500	0,1	-0,039580
5,964167	0,1	-0,019149
5,965833	0,1	-0,036689
5,967500	0,1	0,013211
5,969167	0,1	0,008932
5,970833	0,1	-0,017955
5,972500	0,1	-0,007460
5,974167	0,1	-0,040228
5,975833	0,1	-0,030604
5,977500	0,1	0,003415
5,979167	0,1	-0,012694
5,980833	0,1	-0,035279
5,982500	0,1	-0,040317
5,984167	0,1	-0,016063
5,985833	0,1	-0,002117
5,987500	0,1	-0,006648
5,989167	0,1	-0,027136
5,990833	0,1	-0,012931
5,992500	0,1	-0,024900
5,994167	0,1	-0,041785
5,995833	0,1	-0,013495
5,997500	0,1	0,018770
5,999167	0,1	-0,035229
6,000833	0,1	-0,042244
