File Path	chrom://chromeleon01/ikbm_chromeleon/2022/Rezex/Esteban/220612_chitin_4_7.seq/426.smp/UV_VIS_1.channel/UV_VIS_1.chm
Channel	UV_VIS_1

Injection Information:
Data Vault	ikbm_chromeleon
Injection	7_02h-EGS_2
Injection Number	82
Position	GD2
Comment	
Processing Method	New ProcMethod
Instrument Method	Short_Rezex_6min_194nm
Type	Unknown
Status	Finished
Injection Date	13.06.2022
Injection Time	01:58:24
Injection Volume (µl)	8,000
Dilution Factor	1,0000
Weight	1,0000

Chromatogram Data Information:
Time Min. (min)	0,000833
Time Max. (min)	6,000833
Data Points	3601
Detector	UV
Generating Data System	Chromeleon 7.2.9.11323
Exporting Data System	Chromeleon 7.2.9.0
Operator	Instrument Controller
Signal Quantity	Absorbance
Signal Unit	mAU
Signal Min.	-0,119322
Signal Max.	106,180018
Channel	UV_VIS_1
Driver Name	VWD3000.dll
Channel Type	Evaluation
Min. Step (s)	0,1
Max. Step (s)	0,1
Average Step (s)	0,1

Signal Parameter Information:
Signal Info	WVL:194 nm

Chromatogram Data:
Time (min)	Step (s)	Value (mAU)
0,000833	n.a.	-0,053204
0,002500	0,1	-0,096095
0,004167	0,1	-0,060981
0,005833	0,1	-0,036557
0,007500	0,1	-0,077579
0,009167	0,1	-0,069199
0,010833	0,1	-0,070192
0,012500	0,1	-0,014809
0,014167	0,1	-0,065537
0,015833	0,1	0,004910
0,017500	0,1	-0,060544
0,019167	0,1	-0,018536
0,020833	0,1	-0,069538
0,022500	0,1	-0,109871
0,024167	0,1	-0,075960
0,025833	0,1	-0,068020
0,027500	0,1	-0,064352
0,029167	0,1	-0,085475
0,030833	0,1	-0,051577
0,032500	0,1	-0,097978
0,034167	0,1	-0,084446
0,035833	0,1	-0,096394
0,037500	0,1	-0,119322
0,039167	0,1	-0,109092
0,040833	0,1	-0,114251
0,042500	0,1	-0,107314
0,044167	0,1	-0,055515
0,045833	0,1	-0,077374
0,047500	0,1	-0,046169
0,049167	0,1	-0,081014
0,050833	0,1	-0,033143
0,052500	0,1	-0,038247
0,054167	0,1	-0,067596
0,055833	0,1	-0,095518
0,057500	0,1	-0,020616
0,059167	0,1	-0,045057
0,060833	0,1	-0,043801
0,062500	0,1	-0,081327
0,064167	0,1	-0,045507
0,065833	0,1	-0,062211
0,067500	0,1	-0,050473
0,069167	0,1	-0,089304
0,070833	0,1	-0,047582
0,072500	0,1	-0,064388
0,074167	0,1	-0,010875
0,075833	0,1	-0,074195
0,077500	0,1	-0,056876
0,079167	0,1	-0,008510
0,080833	0,1	-0,046650
0,082500	0,1	-0,084809
0,084167	0,1	-0,044909
0,085833	0,1	-0,067265
0,087500	0,1	-0,069093
0,089167	0,1	0,014312
0,090833	0,1	-0,027674
0,092500	0,1	0,017886
0,094167	0,1	-0,074480
0,095833	0,1	-0,037283
0,097500	0,1	-0,050220
0,099167	0,1	-0,044445
0,100833	0,1	-0,072648
0,102500	0,1	-0,023510
0,104167	0,1	-0,038204
0,105833	0,1	-0,053410
0,107500	0,1	-0,070144
0,109167	0,1	-0,096539
0,110833	0,1	-0,072433
0,112500	0,1	-0,034962
0,114167	0,1	-0,090769
0,115833	0,1	-0,098691
0,117500	0,1	-0,085957
0,119167	0,1	-0,071065
0,120833	0,1	-0,068661
0,122500	0,1	-0,081308
0,124167	0,1	-0,048366
0,125833	0,1	-0,042394
0,127500	0,1	-0,043429
0,129167	0,1	-0,068754
0,130833	0,1	-0,071414
0,132500	0,1	-0,052899
0,134167	0,1	-0,058526
0,135833	0,1	-0,027049
0,137500	0,1	-0,071033
0,139167	0,1	-0,005945
0,140833	0,1	-0,117725
0,142500	0,1	-0,029673
0,144167	0,1	-0,065606
0,145833	0,1	-0,039126
0,147500	0,1	-0,069313
0,149167	0,1	-0,046084
0,150833	0,1	-0,050967
0,152500	0,1	-0,024064
0,154167	0,1	-0,073951
0,155833	0,1	-0,047599
0,157500	0,1	-0,037608
0,159167	0,1	-0,047299
0,160833	0,1	-0,022199
0,162500	0,1	0,004546
0,164167	0,1	-0,052469
0,165833	0,1	-0,047841
0,167500	0,1	0,006094
0,169167	0,1	-0,034553
0,170833	0,1	-0,071966
0,172500	0,1	-0,035108
0,174167	0,1	-0,044459
0,175833	0,1	-0,068154
0,177500	0,1	-0,042129
0,179167	0,1	-0,080042
0,180833	0,1	0,008884
0,182500	0,1	-0,055678
0,184167	0,1	-0,058798
0,185833	0,1	-0,050349
0,187500	0,1	0,002532
0,189167	0,1	-0,061829
0,190833	0,1	-0,018970
0,192500	0,1	-0,043898
0,194167	0,1	-0,067598
0,195833	0,1	-0,041651
0,197500	0,1	-0,048313
0,199167	0,1	-0,035559
0,200833	0,1	-0,031330
0,202500	0,1	-0,053243
0,204167	0,1	-0,076151
0,205833	0,1	-0,045859
0,207500	0,1	-0,038042
0,209167	0,1	-0,038225
0,210833	0,1	-0,040360
0,212500	0,1	-0,000676
0,214167	0,1	-0,015664
0,215833	0,1	-0,064381
0,217500	0,1	-0,068035
0,219167	0,1	-0,037095
0,220833	0,1	-0,035244
0,222500	0,1	-0,048706
0,224167	0,1	-0,030794
0,225833	0,1	-0,067035
0,227500	0,1	-0,038069
0,229167	0,1	-0,048170
0,230833	0,1	-0,012217
0,232500	0,1	-0,038512
0,234167	0,1	-0,055522
0,235833	0,1	-0,008199
0,237500	0,1	-0,071252
0,239167	0,1	-0,018020
0,240833	0,1	-0,061357
0,242500	0,1	-0,060103
0,244167	0,1	-0,049065
0,245833	0,1	-0,026902
0,247500	0,1	-0,041685
0,249167	0,1	-0,049868
0,250833	0,1	-0,053660
0,252500	0,1	-0,041506
0,254167	0,1	-0,020748
0,255833	0,1	-0,048331
0,257500	0,1	-0,035247
0,259167	0,1	-0,008380
0,260833	0,1	-0,004853
0,262500	0,1	-0,067361
0,264167	0,1	-0,019263
0,265833	0,1	-0,075234
0,267500	0,1	0,025062
0,269167	0,1	-0,027898
0,270833	0,1	-0,025072
0,272500	0,1	-0,014426
0,274167	0,1	-0,013657
0,275833	0,1	-0,039880
0,277500	0,1	-0,052954
0,279167	0,1	-0,009256
0,280833	0,1	-0,050855
0,282500	0,1	-0,003352
0,284167	0,1	0,004097
0,285833	0,1	-0,021504
0,287500	0,1	-0,042512
0,289167	0,1	-0,022964
0,290833	0,1	-0,031721
0,292500	0,1	-0,022920
0,294167	0,1	-0,018899
0,295833	0,1	-0,055166
0,297500	0,1	-0,047470
0,299167	0,1	-0,004801
0,300833	0,1	-0,055596
0,302500	0,1	-0,017728
0,304167	0,1	-0,006326
0,305833	0,1	-0,028839
0,307500	0,1	-0,016583
0,309167	0,1	0,000676
0,310833	0,1	-0,016905
0,312500	0,1	-0,035262
0,314167	0,1	-0,043446
0,315833	0,1	-0,003038
0,317500	0,1	-0,044784
0,319167	0,1	-0,040529
0,320833	0,1	0,009679
0,322500	0,1	0,000515
0,324167	0,1	-0,005803
0,325833	0,1	-0,008891
0,327500	0,1	-0,048058
0,329167	0,1	0,005598
0,330833	0,1	-0,044078
0,332500	0,1	-0,032306
0,334167	0,1	-0,022920
0,335833	0,1	-0,039611
0,337500	0,1	-0,054135
0,339167	0,1	-0,011347
0,340833	0,1	-0,044206
0,342500	0,1	0,006966
0,344167	0,1	0,011057
0,345833	0,1	-0,001554
0,347500	0,1	-0,030432
0,349167	0,1	-0,033525
0,350833	0,1	-0,014345
0,352500	0,1	-0,032609
0,354167	0,1	0,007155
0,355833	0,1	-0,012927
0,357500	0,1	-0,024138
0,359167	0,1	-0,036548
0,360833	0,1	-0,031477
0,362500	0,1	0,010282
0,364167	0,1	0,017501
0,365833	0,1	-0,012117
0,367500	0,1	-0,012767
0,369167	0,1	-0,008086
0,370833	0,1	-0,028858
0,372500	0,1	0,021260
0,374167	0,1	-0,023196
0,375833	0,1	-0,018300
0,377500	0,1	-0,043795
0,379167	0,1	-0,004573
0,380833	0,1	-0,043420
0,382500	0,1	-0,004635
0,384167	0,1	-0,012082
0,385833	0,1	0,023875
0,387500	0,1	-0,001759
0,389167	0,1	0,008218
0,390833	0,1	-0,006775
0,392500	0,1	0,026985
0,394167	0,1	-0,002276
0,395833	0,1	0,022986
0,397500	0,1	-0,010522
0,399167	0,1	-0,002763
0,400833	0,1	-0,000212
0,402500	0,1	0,011884
0,404167	0,1	0,008242
0,405833	0,1	0,000226
0,407500	0,1	-0,005617
0,409167	0,1	-0,001248
0,410833	0,1	-0,001309
0,412500	0,1	0,015219
0,414167	0,1	0,029579
0,415833	0,1	-0,020958
0,417500	0,1	-0,024224
0,419167	0,1	0,035018
0,420833	0,1	0,008309
0,422500	0,1	0,031068
0,424167	0,1	0,030969
0,425833	0,1	0,010588
0,427500	0,1	0,033077
0,429167	0,1	0,020820
0,430833	0,1	-0,003230
0,432500	0,1	-0,017985
0,434167	0,1	0,046329
0,435833	0,1	0,061115
0,437500	0,1	0,019024
0,439167	0,1	0,016344
0,440833	0,1	0,017172
0,442500	0,1	0,028813
0,444167	0,1	0,000333
0,445833	0,1	0,009794
0,447500	0,1	0,023985
0,449167	0,1	0,016096
0,450833	0,1	0,029186
0,452500	0,1	-0,001655
0,454167	0,1	0,055176
0,455833	0,1	0,043716
0,457500	0,1	0,051895
0,459167	0,1	0,006782
0,460833	0,1	0,051263
0,462500	0,1	0,045062
0,464167	0,1	-0,004365
0,465833	0,1	0,006539
0,467500	0,1	0,073138
0,469167	0,1	0,029881
0,470833	0,1	0,027945
0,472500	0,1	0,058479
0,474167	0,1	0,040899
0,475833	0,1	0,042946
0,477500	0,1	0,019125
0,479167	0,1	0,054811
0,480833	0,1	0,026564
0,482500	0,1	0,017608
0,484167	0,1	0,046213
0,485833	0,1	0,041889
0,487500	0,1	0,023413
0,489167	0,1	-0,009259
0,490833	0,1	0,036552
0,492500	0,1	0,035901
0,494167	0,1	0,034885
0,495833	0,1	0,000750
0,497500	0,1	0,042832
0,499167	0,1	0,034660
0,500833	0,1	0,049985
0,502500	0,1	0,030518
0,504167	0,1	0,040312
0,505833	0,1	0,042054
0,507500	0,1	0,024841
0,509167	0,1	0,041595
0,510833	0,1	0,010279
0,512500	0,1	0,049092
0,514167	0,1	0,046408
0,515833	0,1	-0,004570
0,517500	0,1	0,014514
0,519167	0,1	0,050209
0,520833	0,1	0,012001
0,522500	0,1	0,040288
0,524167	0,1	0,025028
0,525833	0,1	0,032730
0,527500	0,1	0,074535
0,529167	0,1	0,013435
0,530833	0,1	0,045859
0,532500	0,1	-0,002789
0,534167	0,1	0,027668
0,535833	0,1	0,045324
0,537500	0,1	0,076670
0,539167	0,1	0,070090
0,540833	0,1	0,065200
0,542500	0,1	0,074315
0,544167	0,1	0,046515
0,545833	0,1	0,010466
0,547500	0,1	0,066283
0,549167	0,1	0,091672
0,550833	0,1	0,044429
0,552500	0,1	0,031244
0,554167	0,1	0,070266
0,555833	0,1	0,045833
0,557500	0,1	0,023371
0,559167	0,1	0,066224
0,560833	0,1	0,083886
0,562500	0,1	0,102139
0,564167	0,1	0,094312
0,565833	0,1	0,119796
0,567500	0,1	0,084808
0,569167	0,1	0,057414
0,570833	0,1	0,049205
0,572500	0,1	0,018110
0,574167	0,1	0,046047
0,575833	0,1	0,034330
0,577500	0,1	0,093490
0,579167	0,1	0,072912
0,580833	0,1	0,092032
0,582500	0,1	0,060484
0,584167	0,1	0,011941
0,585833	0,1	0,110700
0,587500	0,1	0,097133
0,589167	0,1	0,054125
0,590833	0,1	0,046533
0,592500	0,1	0,062501
0,594167	0,1	0,068284
0,595833	0,1	0,065137
0,597500	0,1	0,082663
0,599167	0,1	0,059361
0,600833	0,1	0,069194
0,602500	0,1	0,086125
0,604167	0,1	0,083845
0,605833	0,1	0,081157
0,607500	0,1	0,075377
0,609167	0,1	0,075227
0,610833	0,1	0,049976
0,612500	0,1	0,085457
0,614167	0,1	0,088528
0,615833	0,1	0,094458
0,617500	0,1	0,077199
0,619167	0,1	0,118836
0,620833	0,1	0,070516
0,622500	0,1	0,084695
0,624167	0,1	0,068376
0,625833	0,1	0,081983
0,627500	0,1	0,099941
0,629167	0,1	0,075381
0,630833	0,1	0,085502
0,632500	0,1	0,086602
0,634167	0,1	0,123005
0,635833	0,1	0,110727
0,637500	0,1	0,103063
0,639167	0,1	0,130366
0,640833	0,1	0,099106
0,642500	0,1	0,100758
0,644167	0,1	0,088038
0,645833	0,1	0,131747
0,647500	0,1	0,075469
0,649167	0,1	0,094205
0,650833	0,1	0,095720
0,652500	0,1	0,114345
0,654167	0,1	0,072979
0,655833	0,1	0,155243
0,657500	0,1	0,127026
0,659167	0,1	0,146554
0,660833	0,1	0,131410
0,662500	0,1	0,114002
0,664167	0,1	0,156655
0,665833	0,1	0,174924
0,667500	0,1	0,169173
0,669167	0,1	0,069243
0,670833	0,1	0,128468
0,672500	0,1	0,136669
0,674167	0,1	0,125815
0,675833	0,1	0,103497
0,677500	0,1	0,152784
0,679167	0,1	0,150829
0,680833	0,1	0,145290
0,682500	0,1	0,133979
0,684167	0,1	0,171330
0,685833	0,1	0,150191
0,687500	0,1	0,196034
0,689167	0,1	0,156118
0,690833	0,1	0,128843
0,692500	0,1	0,168911
0,694167	0,1	0,143328
0,695833	0,1	0,170918
0,697500	0,1	0,134336
0,699167	0,1	0,177514
0,700833	0,1	0,182701
0,702500	0,1	0,167537
0,704167	0,1	0,174927
0,705833	0,1	0,159575
0,707500	0,1	0,175027
0,709167	0,1	0,183961
0,710833	0,1	0,189278
0,712500	0,1	0,159933
0,714167	0,1	0,161890
0,715833	0,1	0,189537
0,717500	0,1	0,187326
0,719167	0,1	0,189669
0,720833	0,1	0,222949
0,722500	0,1	0,214227
0,724167	0,1	0,229506
0,725833	0,1	0,219684
0,727500	0,1	0,235879
0,729167	0,1	0,243301
0,730833	0,1	0,244904
0,732500	0,1	0,215316
0,734167	0,1	0,236436
0,735833	0,1	0,271987
0,737500	0,1	0,217703
0,739167	0,1	0,236447
0,740833	0,1	0,246668
0,742500	0,1	0,244869
0,744167	0,1	0,275037
0,745833	0,1	0,210575
0,747500	0,1	0,266541
0,749167	0,1	0,277324
0,750833	0,1	0,296185
0,752500	0,1	0,237940
0,754167	0,1	0,283743
0,755833	0,1	0,292876
0,757500	0,1	0,305086
0,759167	0,1	0,277270
0,760833	0,1	0,301417
0,762500	0,1	0,310038
0,764167	0,1	0,246647
0,765833	0,1	0,256459
0,767500	0,1	0,304435
0,769167	0,1	0,278944
0,770833	0,1	0,313343
0,772500	0,1	0,287742
0,774167	0,1	0,301129
0,775833	0,1	0,277269
0,777500	0,1	0,290529
0,779167	0,1	0,300524
0,780833	0,1	0,278283
0,782500	0,1	0,296058
0,784167	0,1	0,310743
0,785833	0,1	0,295614
0,787500	0,1	0,288090
0,789167	0,1	0,300912
0,790833	0,1	0,287068
0,792500	0,1	0,273465
0,794167	0,1	0,284909
0,795833	0,1	0,298304
0,797500	0,1	0,306436
0,799167	0,1	0,282373
0,800833	0,1	0,297661
0,802500	0,1	0,324689
0,804167	0,1	0,316787
0,805833	0,1	0,257283
0,807500	0,1	0,289910
0,809167	0,1	0,313629
0,810833	0,1	0,297090
0,812500	0,1	0,327640
0,814167	0,1	0,313709
0,815833	0,1	0,312384
0,817500	0,1	0,332755
0,819167	0,1	0,265513
0,820833	0,1	0,309548
0,822500	0,1	0,324946
0,824167	0,1	0,305636
0,825833	0,1	0,332147
0,827500	0,1	0,317592
0,829167	0,1	0,308014
0,830833	0,1	0,320702
0,832500	0,1	0,312901
0,834167	0,1	0,349308
0,835833	0,1	0,303714
0,837500	0,1	0,333713
0,839167	0,1	0,310173
0,840833	0,1	0,337480
0,842500	0,1	0,312038
0,844167	0,1	0,315850
0,845833	0,1	0,307625
0,847500	0,1	0,324909
0,849167	0,1	0,353645
0,850833	0,1	0,336911
0,852500	0,1	0,312934
0,854167	0,1	0,351708
0,855833	0,1	0,340730
0,857500	0,1	0,335941
0,859167	0,1	0,360619
0,860833	0,1	0,334878
0,862500	0,1	0,315990
0,864167	0,1	0,348560
0,865833	0,1	0,356412
0,867500	0,1	0,317889
0,869167	0,1	0,328640
0,870833	0,1	0,372728
0,872500	0,1	0,350889
0,874167	0,1	0,330964
0,875833	0,1	0,386323
0,877500	0,1	0,365609
0,879167	0,1	0,354743
0,880833	0,1	0,360815
0,882500	0,1	0,373575
0,884167	0,1	0,341053
0,885833	0,1	0,367462
0,887500	0,1	0,361170
0,889167	0,1	0,346904
0,890833	0,1	0,367655
0,892500	0,1	0,389801
0,894167	0,1	0,365964
0,895833	0,1	0,375917
0,897500	0,1	0,344846
0,899167	0,1	0,385006
0,900833	0,1	0,388420
0,902500	0,1	0,374573
0,904167	0,1	0,407282
0,905833	0,1	0,392222
0,907500	0,1	0,383859
0,909167	0,1	0,401181
0,910833	0,1	0,384152
0,912500	0,1	0,375052
0,914167	0,1	0,387232
0,915833	0,1	0,420751
0,917500	0,1	0,402795
0,919167	0,1	0,424642
0,920833	0,1	0,434417
0,922500	0,1	0,382488
0,924167	0,1	0,423739
0,925833	0,1	0,408644
0,927500	0,1	0,434381
0,929167	0,1	0,394315
0,930833	0,1	0,426793
0,932500	0,1	0,464723
0,934167	0,1	0,430666
0,935833	0,1	0,464145
0,937500	0,1	0,464187
0,939167	0,1	0,454962
0,940833	0,1	0,420415
0,942500	0,1	0,464627
0,944167	0,1	0,424913
0,945833	0,1	0,471891
0,947500	0,1	0,480965
0,949167	0,1	0,481739
0,950833	0,1	0,454708
0,952500	0,1	0,437219
0,954167	0,1	0,487930
0,955833	0,1	0,496877
0,957500	0,1	0,461431
0,959167	0,1	0,464957
0,960833	0,1	0,465439
0,962500	0,1	0,516769
0,964167	0,1	0,516074
0,965833	0,1	0,486856
0,967500	0,1	0,488490
0,969167	0,1	0,492699
0,970833	0,1	0,494114
0,972500	0,1	0,497201
0,974167	0,1	0,515907
0,975833	0,1	0,552749
0,977500	0,1	0,503129
0,979167	0,1	0,530761
0,980833	0,1	0,571074
0,982500	0,1	0,536402
0,984167	0,1	0,524693
0,985833	0,1	0,556515
0,987500	0,1	0,553628
0,989167	0,1	0,579183
0,990833	0,1	0,577389
0,992500	0,1	0,613904
0,994167	0,1	0,613080
0,995833	0,1	0,627894
0,997500	0,1	0,606177
0,999167	0,1	0,638966
1,000833	0,1	0,650895
1,002500	0,1	0,686779
1,004167	0,1	0,645060
1,005833	0,1	0,702473
1,007500	0,1	0,660918
1,009167	0,1	0,696270
1,010833	0,1	0,687246
1,012500	0,1	0,755287
1,014167	0,1	0,751550
1,015833	0,1	0,771961
1,017500	0,1	0,777112
1,019167	0,1	0,805772
1,020833	0,1	0,808456
1,022500	0,1	0,879027
1,024167	0,1	0,849631
1,025833	0,1	0,888094
1,027500	0,1	0,871104
1,029167	0,1	0,937241
1,030833	0,1	0,923455
1,032500	0,1	0,953832
1,034167	0,1	0,935577
1,035833	0,1	0,942026
1,037500	0,1	0,888644
1,039167	0,1	0,966358
1,040833	0,1	0,971525
1,042500	0,1	0,981846
1,044167	0,1	1,006213
1,045833	0,1	0,961282
1,047500	0,1	1,008229
1,049167	0,1	0,994636
1,050833	0,1	1,016337
1,052500	0,1	1,027837
1,054167	0,1	1,037850
1,055833	0,1	1,073740
1,057500	0,1	1,105867
1,059167	0,1	1,184751
1,060833	0,1	1,143038
1,062500	0,1	1,297007
1,064167	0,1	1,388505
1,065833	0,1	1,512935
1,067500	0,1	1,704952
1,069167	0,1	1,948735
1,070833	0,1	2,260073
1,072500	0,1	2,630362
1,074167	0,1	3,132166
1,075833	0,1	3,709539
1,077500	0,1	4,415701
1,079167	0,1	5,188899
1,080833	0,1	6,158374
1,082500	0,1	7,257639
1,084167	0,1	8,497208
1,085833	0,1	9,820359
1,087500	0,1	11,318391
1,089167	0,1	12,884311
1,090833	0,1	14,523694
1,092500	0,1	16,322030
1,094167	0,1	18,182376
1,095833	0,1	19,984795
1,097500	0,1	21,823785
1,099167	0,1	23,646234
1,100833	0,1	25,367210
1,102500	0,1	27,003571
1,104167	0,1	28,453400
1,105833	0,1	29,884796
1,107500	0,1	31,079690
1,109167	0,1	32,092394
1,110833	0,1	32,993725
1,112500	0,1	33,699324
1,114167	0,1	34,204687
1,115833	0,1	34,581900
1,117500	0,1	34,780305
1,119167	0,1	34,842044
1,120833	0,1	34,769711
1,122500	0,1	34,537094
1,124167	0,1	34,357344
1,125833	0,1	33,978666
1,127500	0,1	33,540039
1,129167	0,1	33,059865
1,130833	0,1	32,596302
1,132500	0,1	32,047773
1,134167	0,1	31,525095
1,135833	0,1	31,054565
1,137500	0,1	30,493175
1,139167	0,1	30,069355
1,140833	0,1	29,634090
1,142500	0,1	29,230160
1,144167	0,1	28,883082
1,145833	0,1	28,569396
1,147500	0,1	28,382069
1,149167	0,1	28,221113
1,150833	0,1	28,187119
1,152500	0,1	28,198758
1,154167	0,1	28,307905
1,155833	0,1	28,436243
1,157500	0,1	28,628586
1,159167	0,1	28,893128
1,160833	0,1	29,228855
1,162500	0,1	29,570895
1,164167	0,1	29,989964
1,165833	0,1	30,409987
1,167500	0,1	30,861201
1,169167	0,1	31,329636
1,170833	0,1	31,821181
1,172500	0,1	32,271487
1,174167	0,1	32,692008
1,175833	0,1	33,157301
1,177500	0,1	33,571922
1,179167	0,1	33,934159
1,180833	0,1	34,229569
1,182500	0,1	34,545369
1,184167	0,1	34,772171
1,185833	0,1	35,021822
1,187500	0,1	35,198183
1,189167	0,1	35,391377
1,190833	0,1	35,524733
1,192500	0,1	35,749253
1,194167	0,1	35,888242
1,195833	0,1	36,075717
1,197500	0,1	36,310229
1,199167	0,1	36,632221
1,200833	0,1	37,068436
1,202500	0,1	37,545960
1,204167	0,1	38,191764
1,205833	0,1	38,957021
1,207500	0,1	39,954505
1,209167	0,1	41,101947
1,210833	0,1	42,500954
1,212500	0,1	44,101306
1,214167	0,1	45,933019
1,215833	0,1	48,026629
1,217500	0,1	50,288091
1,219167	0,1	52,814547
1,220833	0,1	55,476837
1,222500	0,1	58,396622
1,224167	0,1	61,425847
1,225833	0,1	64,594131
1,227500	0,1	67,863558
1,229167	0,1	71,098394
1,230833	0,1	74,423969
1,232500	0,1	77,715690
1,234167	0,1	80,914078
1,235833	0,1	84,042964
1,237500	0,1	87,075461
1,239167	0,1	89,860846
1,240833	0,1	92,535220
1,242500	0,1	94,979471
1,244167	0,1	97,218578
1,245833	0,1	99,235208
1,247500	0,1	100,920870
1,249167	0,1	102,426646
1,250833	0,1	103,646614
1,252500	0,1	104,661574
1,254167	0,1	105,462903
1,255833	0,1	105,932048
1,257500	0,1	106,166363
1,259167	0,1	106,180018
1,260833	0,1	105,942139
1,262500	0,1	105,502867
1,264167	0,1	104,856527
1,265833	0,1	103,958700
1,267500	0,1	102,875596
1,269167	0,1	101,620693
1,270833	0,1	100,201669
1,272500	0,1	98,619209
1,274167	0,1	96,944105
1,275833	0,1	95,037400
1,277500	0,1	93,126033
1,279167	0,1	91,061574
1,280833	0,1	88,976169
1,282500	0,1	86,789567
1,284167	0,1	84,509398
1,285833	0,1	82,288181
1,287500	0,1	79,992508
1,289167	0,1	77,698763
1,290833	0,1	75,390891
1,292500	0,1	73,094264
1,294167	0,1	70,857199
1,295833	0,1	68,587211
1,297500	0,1	66,498395
1,299167	0,1	64,354395
1,300833	0,1	62,273386
1,302500	0,1	60,266166
1,304167	0,1	58,353054
1,305833	0,1	56,464956
1,307500	0,1	54,641019
1,309167	0,1	52,926441
1,310833	0,1	51,244280
1,312500	0,1	49,648227
1,314167	0,1	48,127864
1,315833	0,1	46,672573
1,317500	0,1	45,287377
1,319167	0,1	44,012739
1,320833	0,1	42,704365
1,322500	0,1	41,483279
1,324167	0,1	40,323629
1,325833	0,1	39,248885
1,327500	0,1	38,153421
1,329167	0,1	37,155763
1,330833	0,1	36,186953
1,332500	0,1	35,260235
1,334167	0,1	34,374145
1,335833	0,1	33,493574
1,337500	0,1	32,654625
1,339167	0,1	31,890739
1,340833	0,1	31,116355
1,342500	0,1	30,382437
1,344167	0,1	29,626291
1,345833	0,1	28,901359
1,347500	0,1	28,299165
1,349167	0,1	27,620951
1,350833	0,1	26,958956
1,352500	0,1	26,364877
1,354167	0,1	25,776550
1,355833	0,1	25,162453
1,357500	0,1	24,600539
1,359167	0,1	24,041431
1,360833	0,1	23,459674
1,362500	0,1	22,946377
1,364167	0,1	22,385078
1,365833	0,1	21,886616
1,367500	0,1	21,418008
1,369167	0,1	20,974017
1,370833	0,1	20,453852
1,372500	0,1	20,037051
1,374167	0,1	19,566102
1,375833	0,1	19,111631
1,377500	0,1	18,729094
1,379167	0,1	18,253474
1,380833	0,1	17,857372
1,382500	0,1	17,465100
1,384167	0,1	17,018548
1,385833	0,1	16,657581
1,387500	0,1	16,347741
1,389167	0,1	15,986987
1,390833	0,1	15,640631
1,392500	0,1	15,315305
1,394167	0,1	14,953955
1,395833	0,1	14,617536
1,397500	0,1	14,345167
1,399167	0,1	14,063999
1,400833	0,1	13,792247
1,402500	0,1	13,469283
1,404167	0,1	13,268090
1,405833	0,1	12,983463
1,407500	0,1	12,728645
1,409167	0,1	12,489963
1,410833	0,1	12,252772
1,412500	0,1	12,100256
1,414167	0,1	11,808613
1,415833	0,1	11,608373
1,417500	0,1	11,432465
1,419167	0,1	11,247111
1,420833	0,1	11,045641
1,422500	0,1	10,851736
1,424167	0,1	10,701610
1,425833	0,1	10,547221
1,427500	0,1	10,376396
1,429167	0,1	10,255699
1,430833	0,1	10,038716
1,432500	0,1	9,920952
1,434167	0,1	9,757890
1,435833	0,1	9,623744
1,437500	0,1	9,528668
1,439167	0,1	9,361705
1,440833	0,1	9,252010
1,442500	0,1	9,117093
1,444167	0,1	8,997328
1,445833	0,1	8,836580
1,447500	0,1	8,759094
1,449167	0,1	8,646983
1,450833	0,1	8,521368
1,452500	0,1	8,410912
1,454167	0,1	8,274305
1,455833	0,1	8,165610
1,457500	0,1	8,054274
1,459167	0,1	7,970905
1,460833	0,1	7,893808
1,462500	0,1	7,763872
1,464167	0,1	7,677278
1,465833	0,1	7,595037
1,467500	0,1	7,520901
1,469167	0,1	7,410205
1,470833	0,1	7,349811
1,472500	0,1	7,263341
1,474167	0,1	7,147481
1,475833	0,1	7,123124
1,477500	0,1	7,065219
1,479167	0,1	6,977854
1,480833	0,1	6,951268
1,482500	0,1	6,910536
1,484167	0,1	6,871759
1,485833	0,1	6,783322
1,487500	0,1	6,773046
1,489167	0,1	6,667964
1,490833	0,1	6,670822
1,492500	0,1	6,656396
1,494167	0,1	6,579277
1,495833	0,1	6,546945
1,497500	0,1	6,539866
1,499167	0,1	6,502426
1,500833	0,1	6,491343
1,502500	0,1	6,467590
1,504167	0,1	6,434909
1,505833	0,1	6,421233
1,507500	0,1	6,409575
1,509167	0,1	6,441684
1,510833	0,1	6,380539
1,512500	0,1	6,380243
1,514167	0,1	6,366751
1,515833	0,1	6,334713
1,517500	0,1	6,356124
1,519167	0,1	6,325409
1,520833	0,1	6,267040
1,522500	0,1	6,339928
1,524167	0,1	6,291819
1,525833	0,1	6,264636
1,527500	0,1	6,244899
1,529167	0,1	6,219681
1,530833	0,1	6,231681
1,532500	0,1	6,232705
1,534167	0,1	6,185900
1,535833	0,1	6,163273
1,537500	0,1	6,186075
1,539167	0,1	6,162915
1,540833	0,1	6,108465
1,542500	0,1	6,120503
1,544167	0,1	6,110344
1,545833	0,1	6,020580
1,547500	0,1	6,023401
1,549167	0,1	6,004166
1,550833	0,1	5,989970
1,552500	0,1	5,941664
1,554167	0,1	5,919504
1,555833	0,1	5,896470
1,557500	0,1	5,850117
1,559167	0,1	5,894339
1,560833	0,1	5,864518
1,562500	0,1	5,825255
1,564167	0,1	5,804212
1,565833	0,1	5,754348
1,567500	0,1	5,769286
1,569167	0,1	5,704562
1,570833	0,1	5,708363
1,572500	0,1	5,668642
1,574167	0,1	5,647271
1,575833	0,1	5,588116
1,577500	0,1	5,559466
1,579167	0,1	5,532709
1,580833	0,1	5,562377
1,582500	0,1	5,490072
1,584167	0,1	5,490272
1,585833	0,1	5,435157
1,587500	0,1	5,402049
1,589167	0,1	5,407054
1,590833	0,1	5,365404
1,592500	0,1	5,296074
1,594167	0,1	5,287351
1,595833	0,1	5,267399
1,597500	0,1	5,237072
1,599167	0,1	5,191748
1,600833	0,1	5,147696
1,602500	0,1	5,117713
1,604167	0,1	5,127367
1,605833	0,1	5,105958
1,607500	0,1	5,046439
1,609167	0,1	5,016265
1,610833	0,1	5,021934
1,612500	0,1	4,937704
1,614167	0,1	4,910011
1,615833	0,1	4,897948
1,617500	0,1	4,886625
1,619167	0,1	4,893375
1,620833	0,1	4,835630
1,622500	0,1	4,818150
1,624167	0,1	4,752828
1,625833	0,1	4,738215
1,627500	0,1	4,759817
1,629167	0,1	4,693730
1,630833	0,1	4,667353
1,632500	0,1	4,640268
1,634167	0,1	4,624660
1,635833	0,1	4,556170
1,637500	0,1	4,581247
1,639167	0,1	4,513576
1,640833	0,1	4,483679
1,642500	0,1	4,456105
1,644167	0,1	4,487604
1,645833	0,1	4,440940
1,647500	0,1	4,420248
1,649167	0,1	4,470272
1,650833	0,1	4,413329
1,652500	0,1	4,348253
1,654167	0,1	4,391405
1,655833	0,1	4,385053
1,657500	0,1	4,380388
1,659167	0,1	4,316428
1,660833	0,1	4,286056
1,662500	0,1	4,308501
1,664167	0,1	4,321234
1,665833	0,1	4,344951
1,667500	0,1	4,303895
1,669167	0,1	4,298941
1,670833	0,1	4,333839
1,672500	0,1	4,295100
1,674167	0,1	4,314258
1,675833	0,1	4,344620
1,677500	0,1	4,336037
1,679167	0,1	4,353385
1,680833	0,1	4,382853
1,682500	0,1	4,437023
1,684167	0,1	4,420493
1,685833	0,1	4,483000
1,687500	0,1	4,497542
1,689167	0,1	4,541134
1,690833	0,1	4,543538
1,692500	0,1	4,558746
1,694167	0,1	4,626670
1,695833	0,1	4,649049
1,697500	0,1	4,752888
1,699167	0,1	4,762050
1,700833	0,1	4,777850
1,702500	0,1	4,812828
1,704167	0,1	4,863606
1,705833	0,1	4,868519
1,707500	0,1	4,940035
1,709167	0,1	4,980210
1,710833	0,1	5,019724
1,712500	0,1	5,065541
1,714167	0,1	5,062389
1,715833	0,1	5,169668
1,717500	0,1	5,192126
1,719167	0,1	5,178235
1,720833	0,1	5,231483
1,722500	0,1	5,248881
1,724167	0,1	5,300082
1,725833	0,1	5,298992
1,727500	0,1	5,346721
1,729167	0,1	5,368075
1,730833	0,1	5,335467
1,732500	0,1	5,408637
1,734167	0,1	5,409046
1,735833	0,1	5,373721
1,737500	0,1	5,418679
1,739167	0,1	5,446584
1,740833	0,1	5,441044
1,742500	0,1	5,411457
1,744167	0,1	5,424523
1,745833	0,1	5,414337
1,747500	0,1	5,427140
1,749167	0,1	5,359753
1,750833	0,1	5,395921
1,752500	0,1	5,340356
1,754167	0,1	5,338172
1,755833	0,1	5,335509
1,757500	0,1	5,268745
1,759167	0,1	5,311726
1,760833	0,1	5,222255
1,762500	0,1	5,207706
1,764167	0,1	5,132246
1,765833	0,1	5,138415
1,767500	0,1	5,073140
1,769167	0,1	5,052676
1,770833	0,1	5,078541
1,772500	0,1	4,951552
1,774167	0,1	4,970748
1,775833	0,1	4,876337
1,777500	0,1	4,850791
1,779167	0,1	4,831423
1,780833	0,1	4,753581
1,782500	0,1	4,724535
1,784167	0,1	4,660671
1,785833	0,1	4,624029
1,787500	0,1	4,591292
1,789167	0,1	4,519746
1,790833	0,1	4,450478
1,792500	0,1	4,444905
1,794167	0,1	4,367636
1,795833	0,1	4,335150
1,797500	0,1	4,240065
1,799167	0,1	4,205436
1,800833	0,1	4,175283
1,802500	0,1	4,107855
1,804167	0,1	4,075517
1,805833	0,1	4,004503
1,807500	0,1	3,935916
1,809167	0,1	3,957043
1,810833	0,1	3,846465
1,812500	0,1	3,857671
1,814167	0,1	3,777498
1,815833	0,1	3,721320
1,817500	0,1	3,701171
1,819167	0,1	3,661353
1,820833	0,1	3,591396
1,822500	0,1	3,541015
1,824167	0,1	3,554724
1,825833	0,1	3,456783
1,827500	0,1	3,419894
1,829167	0,1	3,393952
1,830833	0,1	3,331073
1,832500	0,1	3,330204
1,834167	0,1	3,291361
1,835833	0,1	3,226966
1,837500	0,1	3,247061
1,839167	0,1	3,289170
1,840833	0,1	3,253204
1,842500	0,1	3,263447
1,844167	0,1	3,306795
1,845833	0,1	3,292628
1,847500	0,1	3,275848
1,849167	0,1	3,310263
1,850833	0,1	3,335966
1,852500	0,1	3,339701
1,854167	0,1	3,415960
1,855833	0,1	3,434410
1,857500	0,1	3,451317
1,859167	0,1	3,532513
1,860833	0,1	3,547782
1,862500	0,1	3,551591
1,864167	0,1	3,570497
1,865833	0,1	3,677461
1,867500	0,1	3,650448
1,869167	0,1	3,706699
1,870833	0,1	3,757194
1,872500	0,1	3,792496
1,874167	0,1	3,783312
1,875833	0,1	3,816468
1,877500	0,1	3,885983
1,879167	0,1	3,957371
1,880833	0,1	3,942475
1,882500	0,1	3,988228
1,884167	0,1	3,994559
1,885833	0,1	4,053984
1,887500	0,1	4,041604
1,889167	0,1	4,098876
1,890833	0,1	4,114565
1,892500	0,1	4,164889
1,894167	0,1	4,191238
1,895833	0,1	4,153967
1,897500	0,1	4,231389
1,899167	0,1	4,227599
1,900833	0,1	4,280077
1,902500	0,1	4,319079
1,904167	0,1	4,310252
1,905833	0,1	4,320139
1,907500	0,1	4,342923
1,909167	0,1	4,308920
1,910833	0,1	4,369141
1,912500	0,1	4,365875
1,914167	0,1	4,348323
1,915833	0,1	4,416579
1,917500	0,1	4,429205
1,919167	0,1	4,398646
1,920833	0,1	4,415136
1,922500	0,1	4,468453
1,924167	0,1	4,434122
1,925833	0,1	4,418470
1,927500	0,1	4,449759
1,929167	0,1	4,455045
1,930833	0,1	4,443766
1,932500	0,1	4,379191
1,934167	0,1	4,424294
1,935833	0,1	4,445177
1,937500	0,1	4,425168
1,939167	0,1	4,425642
1,940833	0,1	4,431844
1,942500	0,1	4,406385
1,944167	0,1	4,415990
1,945833	0,1	4,431105
1,947500	0,1	4,398805
1,949167	0,1	4,396366
1,950833	0,1	4,390810
1,952500	0,1	4,438116
1,954167	0,1	4,370959
1,955833	0,1	4,395022
1,957500	0,1	4,421252
1,959167	0,1	4,344527
1,960833	0,1	4,360114
1,962500	0,1	4,366440
1,964167	0,1	4,431421
1,965833	0,1	4,334356
1,967500	0,1	4,409889
1,969167	0,1	4,393370
1,970833	0,1	4,383189
1,972500	0,1	4,359393
1,974167	0,1	4,417521
1,975833	0,1	4,412944
1,977500	0,1	4,402774
1,979167	0,1	4,393166
1,980833	0,1	4,392310
1,982500	0,1	4,378812
1,984167	0,1	4,417884
1,985833	0,1	4,409216
1,987500	0,1	4,429088
1,989167	0,1	4,442672
1,990833	0,1	4,462778
1,992500	0,1	4,423666
1,994167	0,1	4,462332
1,995833	0,1	4,463028
1,997500	0,1	4,420259
1,999167	0,1	4,481390
2,000833	0,1	4,477512
2,002500	0,1	4,497705
2,004167	0,1	4,521788
2,005833	0,1	4,530668
2,007500	0,1	4,538465
2,009167	0,1	4,597265
2,010833	0,1	4,596796
2,012500	0,1	4,594328
2,014167	0,1	4,614196
2,015833	0,1	4,604786
2,017500	0,1	4,627248
2,019167	0,1	4,634073
2,020833	0,1	4,651799
2,022500	0,1	4,697981
2,024167	0,1	4,675957
2,025833	0,1	4,737648
2,027500	0,1	4,762413
2,029167	0,1	4,715517
2,030833	0,1	4,777023
2,032500	0,1	4,841606
2,034167	0,1	4,828509
2,035833	0,1	4,821144
2,037500	0,1	4,844265
2,039167	0,1	4,858407
2,040833	0,1	4,895225
2,042500	0,1	4,948629
2,044167	0,1	4,969958
2,045833	0,1	4,996280
2,047500	0,1	4,972255
2,049167	0,1	5,045534
2,050833	0,1	5,018893
2,052500	0,1	5,076218
2,054167	0,1	5,098967
2,055833	0,1	5,119200
2,057500	0,1	5,103612
2,059167	0,1	5,144031
2,060833	0,1	5,182740
2,062500	0,1	5,197413
2,064167	0,1	5,212224
2,065833	0,1	5,277718
2,067500	0,1	5,290476
2,069167	0,1	5,278706
2,070833	0,1	5,337224
2,072500	0,1	5,377283
2,074167	0,1	5,429371
2,075833	0,1	5,386603
2,077500	0,1	5,417320
2,079167	0,1	5,408656
2,080833	0,1	5,419205
2,082500	0,1	5,477143
2,084167	0,1	5,426373
2,085833	0,1	5,478899
2,087500	0,1	5,573681
2,089167	0,1	5,530565
2,090833	0,1	5,520150
2,092500	0,1	5,559254
2,094167	0,1	5,602404
2,095833	0,1	5,608529
2,097500	0,1	5,640122
2,099167	0,1	5,661051
2,100833	0,1	5,633522
2,102500	0,1	5,687528
2,104167	0,1	5,680928
2,105833	0,1	5,698336
2,107500	0,1	5,705651
2,109167	0,1	5,731801
2,110833	0,1	5,752715
2,112500	0,1	5,763800
2,114167	0,1	5,751141
2,115833	0,1	5,728435
2,117500	0,1	5,766800
2,119167	0,1	5,761569
2,120833	0,1	5,775039
2,122500	0,1	5,799258
2,124167	0,1	5,799088
2,125833	0,1	5,835564
2,127500	0,1	5,793995
2,129167	0,1	5,785422
2,130833	0,1	5,829141
2,132500	0,1	5,833286
2,134167	0,1	5,788754
2,135833	0,1	5,808020
2,137500	0,1	5,791844
2,139167	0,1	5,804097
2,140833	0,1	5,813808
2,142500	0,1	5,834564
2,144167	0,1	5,826003
2,145833	0,1	5,809522
2,147500	0,1	5,771567
2,149167	0,1	5,797796
2,150833	0,1	5,788781
2,152500	0,1	5,785174
2,154167	0,1	5,782183
2,155833	0,1	5,794705
2,157500	0,1	5,779407
2,159167	0,1	5,750670
2,160833	0,1	5,755517
2,162500	0,1	5,753159
2,164167	0,1	5,758576
2,165833	0,1	5,725554
2,167500	0,1	5,713502
2,169167	0,1	5,700520
2,170833	0,1	5,731608
2,172500	0,1	5,700105
2,174167	0,1	5,693311
2,175833	0,1	5,696562
2,177500	0,1	5,642008
2,179167	0,1	5,622829
2,180833	0,1	5,648212
2,182500	0,1	5,652142
2,184167	0,1	5,602709
2,185833	0,1	5,615899
2,187500	0,1	5,607120
2,189167	0,1	5,598948
2,190833	0,1	5,544251
2,192500	0,1	5,577557
2,194167	0,1	5,551702
2,195833	0,1	5,604440
2,197500	0,1	5,505775
2,199167	0,1	5,484639
2,200833	0,1	5,532734
2,202500	0,1	5,511784
2,204167	0,1	5,466047
2,205833	0,1	5,476895
2,207500	0,1	5,467058
2,209167	0,1	5,441198
2,210833	0,1	5,429575
2,212500	0,1	5,447472
2,214167	0,1	5,407644
2,215833	0,1	5,439883
2,217500	0,1	5,394812
2,219167	0,1	5,391748
2,220833	0,1	5,424559
2,222500	0,1	5,430486
2,224167	0,1	5,443053
2,225833	0,1	5,434259
2,227500	0,1	5,383845
2,229167	0,1	5,426030
2,230833	0,1	5,388983
2,232500	0,1	5,373567
2,234167	0,1	5,401603
2,235833	0,1	5,431516
2,237500	0,1	5,407295
2,239167	0,1	5,384967
2,240833	0,1	5,436910
2,242500	0,1	5,433977
2,244167	0,1	5,408815
2,245833	0,1	5,403343
2,247500	0,1	5,437109
2,249167	0,1	5,391022
2,250833	0,1	5,425859
2,252500	0,1	5,460347
2,254167	0,1	5,420933
2,255833	0,1	5,445651
2,257500	0,1	5,444184
2,259167	0,1	5,429489
2,260833	0,1	5,422898
2,262500	0,1	5,428248
2,264167	0,1	5,400402
2,265833	0,1	5,396925
2,267500	0,1	5,431992
2,269167	0,1	5,444049
2,270833	0,1	5,384609
2,272500	0,1	5,473061
2,274167	0,1	5,402560
2,275833	0,1	5,435981
2,277500	0,1	5,382226
2,279167	0,1	5,381758
2,280833	0,1	5,413566
2,282500	0,1	5,398362
2,284167	0,1	5,402761
2,285833	0,1	5,395087
2,287500	0,1	5,336210
2,289167	0,1	5,397999
2,290833	0,1	5,360654
2,292500	0,1	5,354144
2,294167	0,1	5,365500
2,295833	0,1	5,315993
2,297500	0,1	5,348309
2,299167	0,1	5,367780
2,300833	0,1	5,313565
2,302500	0,1	5,316237
2,304167	0,1	5,316288
2,305833	0,1	5,317159
2,307500	0,1	5,295120
2,309167	0,1	5,274293
2,310833	0,1	5,212044
2,312500	0,1	5,232056
2,314167	0,1	5,212257
2,315833	0,1	5,198160
2,317500	0,1	5,215782
2,319167	0,1	5,164453
2,320833	0,1	5,156559
2,322500	0,1	5,133562
2,324167	0,1	5,142597
2,325833	0,1	5,151072
2,327500	0,1	5,106500
2,329167	0,1	5,056863
2,330833	0,1	5,084673
2,332500	0,1	5,082757
2,334167	0,1	5,062676
2,335833	0,1	5,030870
2,337500	0,1	5,033291
2,339167	0,1	5,035014
2,340833	0,1	4,996666
2,342500	0,1	4,998378
2,344167	0,1	4,961474
2,345833	0,1	4,942740
2,347500	0,1	4,956349
2,349167	0,1	4,935119
2,350833	0,1	4,880476
2,352500	0,1	4,899554
2,354167	0,1	4,880979
2,355833	0,1	4,887132
2,357500	0,1	4,837139
2,359167	0,1	4,861685
2,360833	0,1	4,799678
2,362500	0,1	4,817610
2,364167	0,1	4,793510
2,365833	0,1	4,810247
2,367500	0,1	4,758102
2,369167	0,1	4,747006
2,370833	0,1	4,717393
2,372500	0,1	4,744965
2,374167	0,1	4,723599
2,375833	0,1	4,720099
2,377500	0,1	4,699411
2,379167	0,1	4,720544
2,380833	0,1	4,700143
2,382500	0,1	4,734774
2,384167	0,1	4,710650
2,385833	0,1	4,751055
2,387500	0,1	4,779378
2,389167	0,1	4,753252
2,390833	0,1	4,807325
2,392500	0,1	4,785234
2,394167	0,1	4,820602
2,395833	0,1	4,845248
2,397500	0,1	4,890057
2,399167	0,1	4,896028
2,400833	0,1	4,968418
2,402500	0,1	5,041693
2,404167	0,1	5,086448
2,405833	0,1	5,108377
2,407500	0,1	5,205303
2,409167	0,1	5,260084
2,410833	0,1	5,348871
2,412500	0,1	5,396827
2,414167	0,1	5,548928
2,415833	0,1	5,593818
2,417500	0,1	5,733814
2,419167	0,1	5,823835
2,420833	0,1	5,965900
2,422500	0,1	6,076305
2,424167	0,1	6,190242
2,425833	0,1	6,349855
2,427500	0,1	6,506108
2,429167	0,1	6,659613
2,430833	0,1	6,815133
2,432500	0,1	6,978073
2,434167	0,1	7,114782
2,435833	0,1	7,311129
2,437500	0,1	7,421919
2,439167	0,1	7,578353
2,440833	0,1	7,783977
2,442500	0,1	7,989678
2,444167	0,1	8,149150
2,445833	0,1	8,344327
2,447500	0,1	8,489512
2,449167	0,1	8,643466
2,450833	0,1	8,841911
2,452500	0,1	9,007001
2,454167	0,1	9,181816
2,455833	0,1	9,301300
2,457500	0,1	9,473407
2,459167	0,1	9,595933
2,460833	0,1	9,770055
2,462500	0,1	9,915420
2,464167	0,1	10,047479
2,465833	0,1	10,178805
2,467500	0,1	10,308965
2,469167	0,1	10,387788
2,470833	0,1	10,493865
2,472500	0,1	10,600627
2,474167	0,1	10,664752
2,475833	0,1	10,770454
2,477500	0,1	10,858623
2,479167	0,1	10,943295
2,480833	0,1	10,995506
2,482500	0,1	11,030697
2,484167	0,1	11,099810
2,485833	0,1	11,168162
2,487500	0,1	11,168689
2,489167	0,1	11,256753
2,490833	0,1	11,279404
2,492500	0,1	11,342769
2,494167	0,1	11,355213
2,495833	0,1	11,419605
2,497500	0,1	11,403553
2,499167	0,1	11,421254
2,500833	0,1	11,484024
2,502500	0,1	11,480106
2,504167	0,1	11,482241
2,505833	0,1	11,518777
2,507500	0,1	11,493344
2,509167	0,1	11,532536
2,510833	0,1	11,524268
2,512500	0,1	11,559122
2,514167	0,1	11,596577
2,515833	0,1	11,563595
2,517500	0,1	11,576230
2,519167	0,1	11,606770
2,520833	0,1	11,623995
2,522500	0,1	11,648604
2,524167	0,1	11,649067
2,525833	0,1	11,642525
2,527500	0,1	11,690504
2,529167	0,1	11,673966
2,530833	0,1	11,717626
2,532500	0,1	11,740080
2,534167	0,1	11,772669
2,535833	0,1	11,785642
2,537500	0,1	11,823535
2,539167	0,1	11,833933
2,540833	0,1	11,876760
2,542500	0,1	11,877842
2,544167	0,1	11,885141
2,545833	0,1	11,943804
2,547500	0,1	11,960631
2,549167	0,1	11,954965
2,550833	0,1	12,012660
2,552500	0,1	11,978773
2,554167	0,1	12,039301
2,555833	0,1	12,047117
2,557500	0,1	12,072790
2,559167	0,1	12,133187
2,560833	0,1	12,153360
2,562500	0,1	12,128624
2,564167	0,1	12,166372
2,565833	0,1	12,187939
2,567500	0,1	12,187283
2,569167	0,1	12,193653
2,570833	0,1	12,225738
2,572500	0,1	12,194979
2,574167	0,1	12,220689
2,575833	0,1	12,163439
2,577500	0,1	12,201689
2,579167	0,1	12,150192
2,580833	0,1	12,159501
2,582500	0,1	12,122411
2,584167	0,1	12,107060
2,585833	0,1	12,102980
2,587500	0,1	12,071094
2,589167	0,1	12,046041
2,590833	0,1	11,985961
2,592500	0,1	12,014568
2,594167	0,1	11,964994
2,595833	0,1	11,879570
2,597500	0,1	11,856644
2,599167	0,1	11,819226
2,600833	0,1	11,782081
2,602500	0,1	11,736581
2,604167	0,1	11,657274
2,605833	0,1	11,608611
2,607500	0,1	11,551229
2,609167	0,1	11,472211
2,610833	0,1	11,410703
2,612500	0,1	11,323688
2,614167	0,1	11,307982
2,615833	0,1	11,177527
2,617500	0,1	11,145073
2,619167	0,1	11,070026
2,620833	0,1	11,020501
2,622500	0,1	10,952005
2,624167	0,1	10,842263
2,625833	0,1	10,739886
2,627500	0,1	10,671255
2,629167	0,1	10,558946
2,630833	0,1	10,495058
2,632500	0,1	10,416064
2,634167	0,1	10,314772
2,635833	0,1	10,237061
2,637500	0,1	10,166169
2,639167	0,1	10,027218
2,640833	0,1	9,953964
2,642500	0,1	9,825731
2,644167	0,1	9,772061
2,645833	0,1	9,656870
2,647500	0,1	9,587721
2,649167	0,1	9,493733
2,650833	0,1	9,379922
2,652500	0,1	9,275420
2,654167	0,1	9,175601
2,655833	0,1	9,086502
2,657500	0,1	8,942332
2,659167	0,1	8,876498
2,660833	0,1	8,748899
2,662500	0,1	8,649399
2,664167	0,1	8,557585
2,665833	0,1	8,449026
2,667500	0,1	8,345136
2,669167	0,1	8,280179
2,670833	0,1	8,113550
2,672500	0,1	8,023045
2,674167	0,1	7,895879
2,675833	0,1	7,825877
2,677500	0,1	7,694574
2,679167	0,1	7,642647
2,680833	0,1	7,518108
2,682500	0,1	7,408354
2,684167	0,1	7,334609
2,685833	0,1	7,227412
2,687500	0,1	7,126961
2,689167	0,1	7,028670
2,690833	0,1	6,927887
2,692500	0,1	6,846691
2,694167	0,1	6,729280
2,695833	0,1	6,656416
2,697500	0,1	6,578168
2,699167	0,1	6,436132
2,700833	0,1	6,382329
2,702500	0,1	6,307563
2,704167	0,1	6,169894
2,705833	0,1	6,125333
2,707500	0,1	6,027256
2,709167	0,1	5,973599
2,710833	0,1	5,883113
2,712500	0,1	5,826175
2,714167	0,1	5,738794
2,715833	0,1	5,651793
2,717500	0,1	5,527486
2,719167	0,1	5,436834
2,720833	0,1	5,461110
2,722500	0,1	5,379718
2,724167	0,1	5,302518
2,725833	0,1	5,270053
2,727500	0,1	5,163422
2,729167	0,1	5,111194
2,730833	0,1	5,058589
2,732500	0,1	4,980857
2,734167	0,1	4,912839
2,735833	0,1	4,876772
2,737500	0,1	4,786581
2,739167	0,1	4,719549
2,740833	0,1	4,745282
2,742500	0,1	4,677634
2,744167	0,1	4,566209
2,745833	0,1	4,564993
2,747500	0,1	4,522453
2,749167	0,1	4,426847
2,750833	0,1	4,375255
2,752500	0,1	4,324089
2,754167	0,1	4,346327
2,755833	0,1	4,249833
2,757500	0,1	4,216500
2,759167	0,1	4,177593
2,760833	0,1	4,172441
2,762500	0,1	4,071926
2,764167	0,1	4,078588
2,765833	0,1	4,044683
2,767500	0,1	3,977725
2,769167	0,1	3,949448
2,770833	0,1	3,879536
2,772500	0,1	3,862359
2,774167	0,1	3,851039
2,775833	0,1	3,817007
2,777500	0,1	3,784455
2,779167	0,1	3,754086
2,780833	0,1	3,694546
2,782500	0,1	3,694846
2,784167	0,1	3,669152
2,785833	0,1	3,613020
2,787500	0,1	3,587110
2,789167	0,1	3,580887
2,790833	0,1	3,527730
2,792500	0,1	3,505553
2,794167	0,1	3,492861
2,795833	0,1	3,450503
2,797500	0,1	3,411402
2,799167	0,1	3,416753
2,800833	0,1	3,369670
2,802500	0,1	3,376730
2,804167	0,1	3,356904
2,805833	0,1	3,315722
2,807500	0,1	3,306293
2,809167	0,1	3,258625
2,810833	0,1	3,215997
2,812500	0,1	3,196088
2,814167	0,1	3,192489
2,815833	0,1	3,158133
2,817500	0,1	3,166228
2,819167	0,1	3,112798
2,820833	0,1	3,077370
2,822500	0,1	3,072876
2,824167	0,1	3,082877
2,825833	0,1	3,062683
2,827500	0,1	3,033869
2,829167	0,1	2,978501
2,830833	0,1	2,961303
2,832500	0,1	2,939261
2,834167	0,1	2,939301
2,835833	0,1	2,897103
2,837500	0,1	2,911421
2,839167	0,1	2,885508
2,840833	0,1	2,879685
2,842500	0,1	2,806604
2,844167	0,1	2,815971
2,845833	0,1	2,777076
2,847500	0,1	2,787953
2,849167	0,1	2,748001
2,850833	0,1	2,776738
2,852500	0,1	2,757086
2,854167	0,1	2,713081
2,855833	0,1	2,711556
2,857500	0,1	2,655424
2,859167	0,1	2,654044
2,860833	0,1	2,633032
2,862500	0,1	2,577844
2,864167	0,1	2,615415
2,865833	0,1	2,607730
2,867500	0,1	2,572450
2,869167	0,1	2,587345
2,870833	0,1	2,555554
2,872500	0,1	2,486309
2,874167	0,1	2,526623
2,875833	0,1	2,451725
2,877500	0,1	2,480472
2,879167	0,1	2,461331
2,880833	0,1	2,445826
2,882500	0,1	2,417416
2,884167	0,1	2,409876
2,885833	0,1	2,398966
2,887500	0,1	2,411663
2,889167	0,1	2,366546
2,890833	0,1	2,388631
2,892500	0,1	2,363523
2,894167	0,1	2,326513
2,895833	0,1	2,287557
2,897500	0,1	2,333020
2,899167	0,1	2,260093
2,900833	0,1	2,308909
2,902500	0,1	2,284402
2,904167	0,1	2,271983
2,905833	0,1	2,249676
2,907500	0,1	2,240062
2,909167	0,1	2,256552
2,910833	0,1	2,216258
2,912500	0,1	2,209509
2,914167	0,1	2,182260
2,915833	0,1	2,183758
2,917500	0,1	2,164258
2,919167	0,1	2,144466
2,920833	0,1	2,154642
2,922500	0,1	2,147258
2,924167	0,1	2,157152
2,925833	0,1	2,108762
2,927500	0,1	2,145886
2,929167	0,1	2,074638
2,930833	0,1	2,081286
2,932500	0,1	2,044658
2,934167	0,1	2,078056
2,935833	0,1	2,064581
2,937500	0,1	2,053183
2,939167	0,1	2,059782
2,940833	0,1	2,038990
2,942500	0,1	2,024367
2,944167	0,1	1,997698
2,945833	0,1	2,034820
2,947500	0,1	2,010820
2,949167	0,1	1,977486
2,950833	0,1	1,948806
2,952500	0,1	1,946510
2,954167	0,1	1,976826
2,955833	0,1	1,944011
2,957500	0,1	1,950961
2,959167	0,1	1,943869
2,960833	0,1	1,914404
2,962500	0,1	1,902365
2,964167	0,1	1,905445
2,965833	0,1	1,888820
2,967500	0,1	1,898207
2,969167	0,1	1,897840
2,970833	0,1	1,891825
2,972500	0,1	1,900929
2,974167	0,1	1,833651
2,975833	0,1	1,899256
2,977500	0,1	1,883079
2,979167	0,1	1,875196
2,980833	0,1	1,842820
2,982500	0,1	1,836926
2,984167	0,1	1,827981
2,985833	0,1	1,815931
2,987500	0,1	1,811773
2,989167	0,1	1,809984
2,990833	0,1	1,761988
2,992500	0,1	1,782102
2,994167	0,1	1,781903
2,995833	0,1	1,758688
2,997500	0,1	1,813918
2,999167	0,1	1,758261
3,000833	0,1	1,790699
3,002500	0,1	1,767147
3,004167	0,1	1,754312
3,005833	0,1	1,777308
3,007500	0,1	1,729180
3,009167	0,1	1,756796
3,010833	0,1	1,745135
3,012500	0,1	1,752877
3,014167	0,1	1,739907
3,015833	0,1	1,773357
3,017500	0,1	1,744580
3,019167	0,1	1,763627
3,020833	0,1	1,749386
3,022500	0,1	1,741561
3,024167	0,1	1,734973
3,025833	0,1	1,694343
3,027500	0,1	1,690616
3,029167	0,1	1,747364
3,030833	0,1	1,698730
3,032500	0,1	1,702436
3,034167	0,1	1,742204
3,035833	0,1	1,709111
3,037500	0,1	1,686968
3,039167	0,1	1,718140
3,040833	0,1	1,685194
3,042500	0,1	1,727154
3,044167	0,1	1,704753
3,045833	0,1	1,704608
3,047500	0,1	1,674285
3,049167	0,1	1,671092
3,050833	0,1	1,690636
3,052500	0,1	1,610555
3,054167	0,1	1,649353
3,055833	0,1	1,650373
3,057500	0,1	1,696267
3,059167	0,1	1,653102
3,060833	0,1	1,660181
3,062500	0,1	1,640431
3,064167	0,1	1,642915
3,065833	0,1	1,642291
3,067500	0,1	1,640854
3,069167	0,1	1,647230
3,070833	0,1	1,666764
3,072500	0,1	1,618858
3,074167	0,1	1,608903
3,075833	0,1	1,646627
3,077500	0,1	1,615701
3,079167	0,1	1,591135
3,080833	0,1	1,625216
3,082500	0,1	1,612335
3,084167	0,1	1,634024
3,085833	0,1	1,621299
3,087500	0,1	1,608247
3,089167	0,1	1,605955
3,090833	0,1	1,601513
3,092500	0,1	1,624089
3,094167	0,1	1,632758
3,095833	0,1	1,628318
3,097500	0,1	1,612474
3,099167	0,1	1,605243
3,100833	0,1	1,644334
3,102500	0,1	1,629185
3,104167	0,1	1,633831
3,105833	0,1	1,621865
3,107500	0,1	1,643774
3,109167	0,1	1,631763
3,110833	0,1	1,677666
3,112500	0,1	1,645641
3,114167	0,1	1,699280
3,115833	0,1	1,657328
3,117500	0,1	1,661679
3,119167	0,1	1,706235
3,120833	0,1	1,679094
3,122500	0,1	1,722929
3,124167	0,1	1,668499
3,125833	0,1	1,698937
3,127500	0,1	1,762536
3,129167	0,1	1,757766
3,130833	0,1	1,743350
3,132500	0,1	1,693206
3,134167	0,1	1,771342
3,135833	0,1	1,762335
3,137500	0,1	1,791353
3,139167	0,1	1,796658
3,140833	0,1	1,823016
3,142500	0,1	1,816517
3,144167	0,1	1,850829
3,145833	0,1	1,855276
3,147500	0,1	1,853847
3,149167	0,1	1,858278
3,150833	0,1	1,902351
3,152500	0,1	1,881786
3,154167	0,1	1,894471
3,155833	0,1	1,936681
3,157500	0,1	1,959409
3,159167	0,1	1,935976
3,160833	0,1	1,981705
3,162500	0,1	1,939644
3,164167	0,1	1,965860
3,165833	0,1	1,972103
3,167500	0,1	1,985430
3,169167	0,1	2,009015
3,170833	0,1	2,025577
3,172500	0,1	2,004716
3,174167	0,1	2,010736
3,175833	0,1	1,998989
3,177500	0,1	2,066144
3,179167	0,1	2,042937
3,180833	0,1	2,076334
3,182500	0,1	2,041151
3,184167	0,1	2,047372
3,185833	0,1	2,085867
3,187500	0,1	2,091614
3,189167	0,1	2,061719
3,190833	0,1	2,085011
3,192500	0,1	2,073764
3,194167	0,1	2,077415
3,195833	0,1	2,091752
3,197500	0,1	2,072975
3,199167	0,1	2,077629
3,200833	0,1	2,053832
3,202500	0,1	2,067088
3,204167	0,1	2,081499
3,205833	0,1	2,041076
3,207500	0,1	2,065438
3,209167	0,1	2,061285
3,210833	0,1	2,042718
3,212500	0,1	2,046441
3,214167	0,1	2,010746
3,215833	0,1	2,008299
3,217500	0,1	2,044641
3,219167	0,1	2,051100
3,220833	0,1	2,054046
3,222500	0,1	2,019707
3,224167	0,1	2,019060
3,225833	0,1	2,005151
3,227500	0,1	1,971614
3,229167	0,1	1,983778
3,230833	0,1	2,004286
3,232500	0,1	1,977060
3,234167	0,1	1,916712
3,235833	0,1	1,977752
3,237500	0,1	1,945655
3,239167	0,1	1,927514
3,240833	0,1	1,936769
3,242500	0,1	1,891834
3,244167	0,1	1,916194
3,245833	0,1	1,901371
3,247500	0,1	1,891322
3,249167	0,1	1,889173
3,250833	0,1	1,862957
3,252500	0,1	1,844177
3,254167	0,1	1,876406
3,255833	0,1	1,804561
3,257500	0,1	1,810271
3,259167	0,1	1,827194
3,260833	0,1	1,785846
3,262500	0,1	1,777111
3,264167	0,1	1,782051
3,265833	0,1	1,796241
3,267500	0,1	1,752890
3,269167	0,1	1,723007
3,270833	0,1	1,702504
3,272500	0,1	1,701671
3,274167	0,1	1,688702
3,275833	0,1	1,670413
3,277500	0,1	1,694119
3,279167	0,1	1,677454
3,280833	0,1	1,647297
3,282500	0,1	1,593937
3,284167	0,1	1,608954
3,285833	0,1	1,610834
3,287500	0,1	1,628879
3,289167	0,1	1,599296
3,290833	0,1	1,599163
3,292500	0,1	1,547230
3,294167	0,1	1,558346
3,295833	0,1	1,526039
3,297500	0,1	1,549031
3,299167	0,1	1,532146
3,300833	0,1	1,496105
3,302500	0,1	1,506050
3,304167	0,1	1,425000
3,305833	0,1	1,456425
3,307500	0,1	1,466603
3,309167	0,1	1,464741
3,310833	0,1	1,475582
3,312500	0,1	1,394020
3,314167	0,1	1,409255
3,315833	0,1	1,441097
3,317500	0,1	1,399178
3,319167	0,1	1,355900
3,320833	0,1	1,370074
3,322500	0,1	1,397381
3,324167	0,1	1,358643
3,325833	0,1	1,374903
3,327500	0,1	1,300079
3,329167	0,1	1,324484
3,330833	0,1	1,339607
3,332500	0,1	1,289224
3,334167	0,1	1,329634
3,335833	0,1	1,278342
3,337500	0,1	1,264723
3,339167	0,1	1,285851
3,340833	0,1	1,297533
3,342500	0,1	1,286656
3,344167	0,1	1,236766
3,345833	0,1	1,248344
3,347500	0,1	1,264377
3,349167	0,1	1,251841
3,350833	0,1	1,248058
3,352500	0,1	1,251702
3,354167	0,1	1,218391
3,355833	0,1	1,202624
3,357500	0,1	1,222732
3,359167	0,1	1,237343
3,360833	0,1	1,235618
3,362500	0,1	1,238972
3,364167	0,1	1,199005
3,365833	0,1	1,202501
3,367500	0,1	1,188321
3,369167	0,1	1,199991
3,370833	0,1	1,164315
3,372500	0,1	1,167441
3,374167	0,1	1,159207
3,375833	0,1	1,167199
3,377500	0,1	1,189617
3,379167	0,1	1,182781
3,380833	0,1	1,151754
3,382500	0,1	1,098049
3,384167	0,1	1,126981
3,385833	0,1	1,125481
3,387500	0,1	1,156487
3,389167	0,1	1,135895
3,390833	0,1	1,143151
3,392500	0,1	1,117202
3,394167	0,1	1,110115
3,395833	0,1	1,112889
3,397500	0,1	1,101057
3,399167	0,1	1,092578
3,400833	0,1	1,095036
3,402500	0,1	1,071068
3,404167	0,1	1,107328
3,405833	0,1	1,045947
3,407500	0,1	1,092718
3,409167	0,1	1,075974
3,410833	0,1	1,101115
3,412500	0,1	1,064276
3,414167	0,1	1,055457
3,415833	0,1	1,057919
3,417500	0,1	1,058297
3,419167	0,1	1,090812
3,420833	0,1	1,095125
3,422500	0,1	1,063545
3,424167	0,1	1,054769
3,425833	0,1	1,058896
3,427500	0,1	1,014976
3,429167	0,1	1,052116
3,430833	0,1	1,019458
3,432500	0,1	1,083588
3,434167	0,1	1,075348
3,435833	0,1	1,034710
3,437500	0,1	1,041357
3,439167	0,1	1,030440
3,440833	0,1	1,056735
3,442500	0,1	1,051837
3,444167	0,1	1,030199
3,445833	0,1	1,056249
3,447500	0,1	1,059493
3,449167	0,1	1,029578
3,450833	0,1	1,068210
3,452500	0,1	1,050042
3,454167	0,1	1,084440
3,455833	0,1	1,054618
3,457500	0,1	1,078935
3,459167	0,1	1,027298
3,460833	0,1	1,075557
3,462500	0,1	1,054373
3,464167	0,1	1,036590
3,465833	0,1	1,060822
3,467500	0,1	1,051862
3,469167	0,1	1,072565
3,470833	0,1	1,087508
3,472500	0,1	1,047385
3,474167	0,1	1,047396
3,475833	0,1	1,070037
3,477500	0,1	1,070948
3,479167	0,1	1,081782
3,480833	0,1	1,077836
3,482500	0,1	1,052532
3,484167	0,1	1,110121
3,485833	0,1	1,136326
3,487500	0,1	1,075252
3,489167	0,1	1,083780
3,490833	0,1	1,097676
3,492500	0,1	1,121102
3,494167	0,1	1,087411
3,495833	0,1	1,104537
3,497500	0,1	1,129378
3,499167	0,1	1,124878
3,500833	0,1	1,142505
3,502500	0,1	1,126281
3,504167	0,1	1,172140
3,505833	0,1	1,127664
3,507500	0,1	1,169565
3,509167	0,1	1,131996
3,510833	0,1	1,135694
3,512500	0,1	1,112917
3,514167	0,1	1,155908
3,515833	0,1	1,120807
3,517500	0,1	1,149585
3,519167	0,1	1,152928
3,520833	0,1	1,208622
3,522500	0,1	1,161456
3,524167	0,1	1,207913
3,525833	0,1	1,186543
3,527500	0,1	1,215240
3,529167	0,1	1,232767
3,530833	0,1	1,165813
3,532500	0,1	1,190867
3,534167	0,1	1,193431
3,535833	0,1	1,171474
3,537500	0,1	1,220081
3,539167	0,1	1,163840
3,540833	0,1	1,224300
3,542500	0,1	1,242852
3,544167	0,1	1,237331
3,545833	0,1	1,201628
3,547500	0,1	1,235744
3,549167	0,1	1,232938
3,550833	0,1	1,186397
3,552500	0,1	1,215763
3,554167	0,1	1,198134
3,555833	0,1	1,205175
3,557500	0,1	1,270027
3,559167	0,1	1,223698
3,560833	0,1	1,174853
3,562500	0,1	1,186420
3,564167	0,1	1,198820
3,565833	0,1	1,212699
3,567500	0,1	1,237900
3,569167	0,1	1,194768
3,570833	0,1	1,217376
3,572500	0,1	1,177245
3,574167	0,1	1,163253
3,575833	0,1	1,219824
3,577500	0,1	1,206130
3,579167	0,1	1,187438
3,580833	0,1	1,187471
3,582500	0,1	1,178016
3,584167	0,1	1,191447
3,585833	0,1	1,189182
3,587500	0,1	1,210802
3,589167	0,1	1,194117
3,590833	0,1	1,162988
3,592500	0,1	1,161646
3,594167	0,1	1,198717
3,595833	0,1	1,193084
3,597500	0,1	1,169917
3,599167	0,1	1,169728
3,600833	0,1	1,160032
3,602500	0,1	1,133723
3,604167	0,1	1,122773
3,605833	0,1	1,156823
3,607500	0,1	1,135989
3,609167	0,1	1,186104
3,610833	0,1	1,121584
3,612500	0,1	1,148029
3,614167	0,1	1,109613
3,615833	0,1	1,142657
3,617500	0,1	1,140800
3,619167	0,1	1,076916
3,620833	0,1	1,101938
3,622500	0,1	1,122275
3,624167	0,1	1,096512
3,625833	0,1	1,122408
3,627500	0,1	1,098530
3,629167	0,1	1,062835
3,630833	0,1	1,091457
3,632500	0,1	1,064742
3,634167	0,1	1,031290
3,635833	0,1	1,062953
3,637500	0,1	1,079762
3,639167	0,1	1,059189
3,640833	0,1	1,041496
3,642500	0,1	1,054321
3,644167	0,1	1,030844
3,645833	0,1	1,054142
3,647500	0,1	1,029690
3,649167	0,1	1,019474
3,650833	0,1	1,052585
3,652500	0,1	1,024295
3,654167	0,1	0,989603
3,655833	0,1	1,027454
3,657500	0,1	1,026065
3,659167	0,1	1,007112
3,660833	0,1	1,001427
3,662500	0,1	1,000117
3,664167	0,1	0,961082
3,665833	0,1	0,986282
3,667500	0,1	0,957284
3,669167	0,1	0,961562
3,670833	0,1	1,011668
3,672500	0,1	0,982388
3,674167	0,1	0,998158
3,675833	0,1	0,930639
3,677500	0,1	0,967323
3,679167	0,1	0,971038
3,680833	0,1	0,946164
3,682500	0,1	0,927233
3,684167	0,1	0,939141
3,685833	0,1	0,924098
3,687500	0,1	0,995570
3,689167	0,1	0,929440
3,690833	0,1	0,927872
3,692500	0,1	0,966325
3,694167	0,1	0,910526
3,695833	0,1	0,926804
3,697500	0,1	0,932088
3,699167	0,1	0,941338
3,700833	0,1	0,932224
3,702500	0,1	0,958248
3,704167	0,1	0,934115
3,705833	0,1	0,898721
3,707500	0,1	0,912400
3,709167	0,1	0,886535
3,710833	0,1	0,926972
3,712500	0,1	0,858114
3,714167	0,1	0,899099
3,715833	0,1	0,909223
3,717500	0,1	0,960708
3,719167	0,1	0,901566
3,720833	0,1	0,900687
3,722500	0,1	0,915838
3,724167	0,1	0,923383
3,725833	0,1	0,904329
3,727500	0,1	0,887711
3,729167	0,1	0,901416
3,730833	0,1	0,897668
3,732500	0,1	0,881516
3,734167	0,1	0,904697
3,735833	0,1	0,881122
3,737500	0,1	0,918036
3,739167	0,1	0,875731
3,740833	0,1	0,909597
3,742500	0,1	0,890443
3,744167	0,1	0,922337
3,745833	0,1	0,894571
3,747500	0,1	0,911664
3,749167	0,1	0,923455
3,750833	0,1	0,897475
3,752500	0,1	0,880675
3,754167	0,1	0,910844
3,755833	0,1	0,901884
3,757500	0,1	0,958353
3,759167	0,1	0,951687
3,760833	0,1	0,923152
3,762500	0,1	0,883650
3,764167	0,1	0,908734
3,765833	0,1	0,942824
3,767500	0,1	0,935530
3,769167	0,1	0,926299
3,770833	0,1	0,933952
3,772500	0,1	0,925498
3,774167	0,1	0,923969
3,775833	0,1	0,903843
3,777500	0,1	0,933969
3,779167	0,1	0,917181
3,780833	0,1	0,939098
3,782500	0,1	0,921308
3,784167	0,1	0,924370
3,785833	0,1	0,944137
3,787500	0,1	0,952771
3,789167	0,1	0,890652
3,790833	0,1	0,933035
3,792500	0,1	0,934572
3,794167	0,1	0,926119
3,795833	0,1	0,934198
3,797500	0,1	0,921174
3,799167	0,1	0,950968
3,800833	0,1	0,891335
3,802500	0,1	0,912975
3,804167	0,1	0,906455
3,805833	0,1	0,953516
3,807500	0,1	0,905979
3,809167	0,1	0,928932
3,810833	0,1	0,915779
3,812500	0,1	0,949525
3,814167	0,1	0,937150
3,815833	0,1	0,983038
3,817500	0,1	0,978786
3,819167	0,1	0,960123
3,820833	0,1	0,943167
3,822500	0,1	0,935464
3,824167	0,1	0,912167
3,825833	0,1	0,966787
3,827500	0,1	0,908001
3,829167	0,1	0,923940
3,830833	0,1	0,953164
3,832500	0,1	0,879401
3,834167	0,1	0,920518
3,835833	0,1	0,919350
3,837500	0,1	0,914780
3,839167	0,1	0,932373
3,840833	0,1	0,941186
3,842500	0,1	0,920352
3,844167	0,1	0,899982
3,845833	0,1	0,884559
3,847500	0,1	0,927706
3,849167	0,1	0,920662
3,850833	0,1	0,884647
3,852500	0,1	0,926798
3,854167	0,1	0,934240
3,855833	0,1	0,905420
3,857500	0,1	0,875504
3,859167	0,1	0,871966
3,860833	0,1	0,907978
3,862500	0,1	0,912870
3,864167	0,1	0,867366
3,865833	0,1	0,899458
3,867500	0,1	0,902286
3,869167	0,1	0,903128
3,870833	0,1	0,885978
3,872500	0,1	0,894735
3,874167	0,1	0,872376
3,875833	0,1	0,861985
3,877500	0,1	0,875147
3,879167	0,1	0,866136
3,880833	0,1	0,883149
3,882500	0,1	0,854557
3,884167	0,1	0,844374
3,885833	0,1	0,855859
3,887500	0,1	0,852803
3,889167	0,1	0,862278
3,890833	0,1	0,829041
3,892500	0,1	0,837396
3,894167	0,1	0,828931
3,895833	0,1	0,809091
3,897500	0,1	0,829672
3,899167	0,1	0,822351
3,900833	0,1	0,844629
3,902500	0,1	0,761561
3,904167	0,1	0,826312
3,905833	0,1	0,814040
3,907500	0,1	0,801593
3,909167	0,1	0,834975
3,910833	0,1	0,819924
3,912500	0,1	0,825946
3,914167	0,1	0,788612
3,915833	0,1	0,777104
3,917500	0,1	0,807688
3,919167	0,1	0,752391
3,920833	0,1	0,781756
3,922500	0,1	0,749354
3,924167	0,1	0,778802
3,925833	0,1	0,784439
3,927500	0,1	0,798356
3,929167	0,1	0,721673
3,930833	0,1	0,789124
3,932500	0,1	0,718037
3,934167	0,1	0,773620
3,935833	0,1	0,784846
3,937500	0,1	0,769097
3,939167	0,1	0,775721
3,940833	0,1	0,748997
3,942500	0,1	0,729575
3,944167	0,1	0,766155
3,945833	0,1	0,746134
3,947500	0,1	0,788278
3,949167	0,1	0,714942
3,950833	0,1	0,695184
3,952500	0,1	0,779707
3,954167	0,1	0,723719
3,955833	0,1	0,712586
3,957500	0,1	0,719566
3,959167	0,1	0,717534
3,960833	0,1	0,738339
3,962500	0,1	0,722422
3,964167	0,1	0,748816
3,965833	0,1	0,744974
3,967500	0,1	0,746576
3,969167	0,1	0,696739
3,970833	0,1	0,702188
3,972500	0,1	0,717690
3,974167	0,1	0,720237
3,975833	0,1	0,698436
3,977500	0,1	0,714882
3,979167	0,1	0,700364
3,980833	0,1	0,745791
3,982500	0,1	0,759505
3,984167	0,1	0,715484
3,985833	0,1	0,701008
3,987500	0,1	0,678469
3,989167	0,1	0,728076
3,990833	0,1	0,725675
3,992500	0,1	0,691980
3,994167	0,1	0,706819
3,995833	0,1	0,734216
3,997500	0,1	0,679733
3,999167	0,1	0,705566
4,000833	0,1	0,698815
4,002500	0,1	0,694024
4,004167	0,1	0,691320
4,005833	0,1	0,747849
4,007500	0,1	0,711465
4,009167	0,1	0,682900
4,010833	0,1	0,741612
4,012500	0,1	0,730311
4,014167	0,1	0,694293
4,015833	0,1	0,730456
4,017500	0,1	0,733103
4,019167	0,1	0,765959
4,020833	0,1	0,725367
4,022500	0,1	0,752528
4,024167	0,1	0,748769
4,025833	0,1	0,718641
4,027500	0,1	0,786473
4,029167	0,1	0,747200
4,030833	0,1	0,784812
4,032500	0,1	0,763411
4,034167	0,1	0,786655
4,035833	0,1	0,793249
4,037500	0,1	0,782999
4,039167	0,1	0,775278
4,040833	0,1	0,802673
4,042500	0,1	0,817029
4,044167	0,1	0,807646
4,045833	0,1	0,816255
4,047500	0,1	0,828307
4,049167	0,1	0,839260
4,050833	0,1	0,832186
4,052500	0,1	0,867106
4,054167	0,1	0,885392
4,055833	0,1	0,896558
4,057500	0,1	0,894697
4,059167	0,1	0,897623
4,060833	0,1	0,920367
4,062500	0,1	0,935417
4,064167	0,1	0,974137
4,065833	0,1	0,941619
4,067500	0,1	0,959250
4,069167	0,1	1,007763
4,070833	0,1	0,969982
4,072500	0,1	1,007321
4,074167	0,1	0,996744
4,075833	0,1	1,074129
4,077500	0,1	1,024766
4,079167	0,1	1,062641
4,080833	0,1	1,066399
4,082500	0,1	1,113477
4,084167	0,1	1,127583
4,085833	0,1	1,118794
4,087500	0,1	1,156178
4,089167	0,1	1,144645
4,090833	0,1	1,182156
4,092500	0,1	1,215681
4,094167	0,1	1,215298
4,095833	0,1	1,216364
4,097500	0,1	1,287145
4,099167	0,1	1,275621
4,100833	0,1	1,340254
4,102500	0,1	1,331882
4,104167	0,1	1,348694
4,105833	0,1	1,393306
4,107500	0,1	1,381843
4,109167	0,1	1,396437
4,110833	0,1	1,430444
4,112500	0,1	1,456289
4,114167	0,1	1,474772
4,115833	0,1	1,512268
4,117500	0,1	1,543011
4,119167	0,1	1,560841
4,120833	0,1	1,572434
4,122500	0,1	1,578651
4,124167	0,1	1,631082
4,125833	0,1	1,635476
4,127500	0,1	1,647772
4,129167	0,1	1,642758
4,130833	0,1	1,701927
4,132500	0,1	1,716767
4,134167	0,1	1,732102
4,135833	0,1	1,785689
4,137500	0,1	1,762478
4,139167	0,1	1,826743
4,140833	0,1	1,829611
4,142500	0,1	1,884444
4,144167	0,1	1,833564
4,145833	0,1	1,918468
4,147500	0,1	1,920272
4,149167	0,1	1,945791
4,150833	0,1	1,987507
4,152500	0,1	1,990811
4,154167	0,1	1,986439
4,155833	0,1	2,037829
4,157500	0,1	2,018484
4,159167	0,1	2,070662
4,160833	0,1	2,069887
4,162500	0,1	2,078850
4,164167	0,1	2,088812
4,165833	0,1	2,147316
4,167500	0,1	2,160090
4,169167	0,1	2,192859
4,170833	0,1	2,180894
4,172500	0,1	2,186914
4,174167	0,1	2,174727
4,175833	0,1	2,194657
4,177500	0,1	2,191936
4,179167	0,1	2,227858
4,180833	0,1	2,243644
4,182500	0,1	2,278645
4,184167	0,1	2,285392
4,185833	0,1	2,251547
4,187500	0,1	2,256558
4,189167	0,1	2,295069
4,190833	0,1	2,322404
4,192500	0,1	2,315099
4,194167	0,1	2,269698
4,195833	0,1	2,343412
4,197500	0,1	2,352613
4,199167	0,1	2,356779
4,200833	0,1	2,315391
4,202500	0,1	2,369819
4,204167	0,1	2,380021
4,205833	0,1	2,365748
4,207500	0,1	2,371622
4,209167	0,1	2,393943
4,210833	0,1	2,364605
4,212500	0,1	2,389558
4,214167	0,1	2,353842
4,215833	0,1	2,363953
4,217500	0,1	2,367321
4,219167	0,1	2,414669
4,220833	0,1	2,375653
4,222500	0,1	2,360150
4,224167	0,1	2,389270
4,225833	0,1	2,365172
4,227500	0,1	2,371982
4,229167	0,1	2,332323
4,230833	0,1	2,329878
4,232500	0,1	2,342571
4,234167	0,1	2,343575
4,235833	0,1	2,340420
4,237500	0,1	2,327223
4,239167	0,1	2,314382
4,240833	0,1	2,338474
4,242500	0,1	2,348666
4,244167	0,1	2,273724
4,245833	0,1	2,331509
4,247500	0,1	2,325285
4,249167	0,1	2,302546
4,250833	0,1	2,255568
4,252500	0,1	2,306541
4,254167	0,1	2,270626
4,255833	0,1	2,283241
4,257500	0,1	2,262947
4,259167	0,1	2,267673
4,260833	0,1	2,210310
4,262500	0,1	2,198177
4,264167	0,1	2,209650
4,265833	0,1	2,247869
4,267500	0,1	2,172733
4,269167	0,1	2,157445
4,270833	0,1	2,185833
4,272500	0,1	2,156802
4,274167	0,1	2,169486
4,275833	0,1	2,184330
4,277500	0,1	2,126833
4,279167	0,1	2,139223
4,280833	0,1	2,142667
4,282500	0,1	2,079079
4,284167	0,1	2,091324
4,285833	0,1	2,157999
4,287500	0,1	2,101521
4,289167	0,1	2,059002
4,290833	0,1	2,079204
4,292500	0,1	2,036054
4,294167	0,1	2,006299
4,295833	0,1	2,023855
4,297500	0,1	1,965943
4,299167	0,1	1,990950
4,300833	0,1	2,000854
4,302500	0,1	1,969813
4,304167	0,1	1,946518
4,305833	0,1	1,950886
4,307500	0,1	1,934045
4,309167	0,1	1,927948
4,310833	0,1	1,915552
4,312500	0,1	1,910884
4,314167	0,1	1,874991
4,315833	0,1	1,879856
4,317500	0,1	1,836002
4,319167	0,1	1,842943
4,320833	0,1	1,833496
4,322500	0,1	1,802462
4,324167	0,1	1,806828
4,325833	0,1	1,805693
4,327500	0,1	1,815434
4,329167	0,1	1,778962
4,330833	0,1	1,764566
4,332500	0,1	1,741704
4,334167	0,1	1,769784
4,335833	0,1	1,737977
4,337500	0,1	1,756620
4,339167	0,1	1,752607
4,340833	0,1	1,726449
4,342500	0,1	1,695004
4,344167	0,1	1,682471
4,345833	0,1	1,684742
4,347500	0,1	1,690771
4,349167	0,1	1,649592
4,350833	0,1	1,598509
4,352500	0,1	1,629371
4,354167	0,1	1,590217
4,355833	0,1	1,607101
4,357500	0,1	1,579304
4,359167	0,1	1,661086
4,360833	0,1	1,567934
4,362500	0,1	1,591202
4,364167	0,1	1,577527
4,365833	0,1	1,565222
4,367500	0,1	1,560685
4,369167	0,1	1,542654
4,370833	0,1	1,553328
4,372500	0,1	1,482649
4,374167	0,1	1,476479
4,375833	0,1	1,498889
4,377500	0,1	1,484500
4,379167	0,1	1,477040
4,380833	0,1	1,487361
4,382500	0,1	1,466774
4,384167	0,1	1,474623
4,385833	0,1	1,416633
4,387500	0,1	1,451913
4,389167	0,1	1,410843
4,390833	0,1	1,418563
4,392500	0,1	1,410972
4,394167	0,1	1,405446
4,395833	0,1	1,367458
4,397500	0,1	1,395721
4,399167	0,1	1,370622
4,400833	0,1	1,364532
4,402500	0,1	1,356090
4,404167	0,1	1,348768
4,405833	0,1	1,325648
4,407500	0,1	1,304440
4,409167	0,1	1,347481
4,410833	0,1	1,342036
4,412500	0,1	1,308409
4,414167	0,1	1,294014
4,415833	0,1	1,298687
4,417500	0,1	1,290351
4,419167	0,1	1,296025
4,420833	0,1	1,260999
4,422500	0,1	1,266667
4,424167	0,1	1,295680
4,425833	0,1	1,223330
4,427500	0,1	1,237276
4,429167	0,1	1,250801
4,430833	0,1	1,202410
4,432500	0,1	1,155601
4,434167	0,1	1,202032
4,435833	0,1	1,185763
4,437500	0,1	1,161698
4,439167	0,1	1,200696
4,440833	0,1	1,153891
4,442500	0,1	1,200849
4,444167	0,1	1,147780
4,445833	0,1	1,165927
4,447500	0,1	1,133435
4,449167	0,1	1,119957
4,450833	0,1	1,122789
4,452500	0,1	1,083416
4,454167	0,1	1,119677
4,455833	0,1	1,046306
4,457500	0,1	1,112694
4,459167	0,1	1,110779
4,460833	0,1	1,105071
4,462500	0,1	1,060019
4,464167	0,1	1,096892
4,465833	0,1	1,068647
4,467500	0,1	1,058899
4,469167	0,1	1,081820
4,470833	0,1	1,011253
4,472500	0,1	1,014654
4,474167	0,1	1,038468
4,475833	0,1	1,012441
4,477500	0,1	1,011126
4,479167	0,1	0,971759
4,480833	0,1	1,025031
4,482500	0,1	0,978285
4,484167	0,1	1,008278
4,485833	0,1	1,012833
4,487500	0,1	0,924520
4,489167	0,1	0,945575
4,490833	0,1	0,927144
4,492500	0,1	0,947553
4,494167	0,1	0,947445
4,495833	0,1	0,919338
4,497500	0,1	0,967499
4,499167	0,1	0,903986
4,500833	0,1	0,911691
4,502500	0,1	0,863974
4,504167	0,1	0,890696
4,505833	0,1	0,887641
4,507500	0,1	0,851078
4,509167	0,1	0,891271
4,510833	0,1	0,884689
4,512500	0,1	0,872176
4,514167	0,1	0,847882
4,515833	0,1	0,836757
4,517500	0,1	0,875339
4,519167	0,1	0,814853
4,520833	0,1	0,819276
4,522500	0,1	0,860332
4,524167	0,1	0,825693
4,525833	0,1	0,813043
4,527500	0,1	0,841946
4,529167	0,1	0,798173
4,530833	0,1	0,807247
4,532500	0,1	0,764244
4,534167	0,1	0,810546
4,535833	0,1	0,734921
4,537500	0,1	0,736254
4,539167	0,1	0,747228
4,540833	0,1	0,742885
4,542500	0,1	0,750434
4,544167	0,1	0,737414
4,545833	0,1	0,700370
4,547500	0,1	0,725694
4,549167	0,1	0,721264
4,550833	0,1	0,734769
4,552500	0,1	0,709654
4,554167	0,1	0,714829
4,555833	0,1	0,722707
4,557500	0,1	0,711720
4,559167	0,1	0,683095
4,560833	0,1	0,698848
4,562500	0,1	0,675758
4,564167	0,1	0,712313
4,565833	0,1	0,674185
4,567500	0,1	0,698034
4,569167	0,1	0,668336
4,570833	0,1	0,651610
4,572500	0,1	0,682112
4,574167	0,1	0,631225
4,575833	0,1	0,636263
4,577500	0,1	0,646098
4,579167	0,1	0,632632
4,580833	0,1	0,568786
4,582500	0,1	0,620072
4,584167	0,1	0,620344
4,585833	0,1	0,608322
4,587500	0,1	0,604044
4,589167	0,1	0,624900
4,590833	0,1	0,596716
4,592500	0,1	0,635575
4,594167	0,1	0,578527
4,595833	0,1	0,572278
4,597500	0,1	0,607598
4,599167	0,1	0,577295
4,600833	0,1	0,606123
4,602500	0,1	0,539109
4,604167	0,1	0,579531
4,605833	0,1	0,547554
4,607500	0,1	0,588433
4,609167	0,1	0,565977
4,610833	0,1	0,532894
4,612500	0,1	0,564035
4,614167	0,1	0,529327
4,615833	0,1	0,521091
4,617500	0,1	0,525267
4,619167	0,1	0,521827
4,620833	0,1	0,514596
4,622500	0,1	0,535808
4,624167	0,1	0,492101
4,625833	0,1	0,516549
4,627500	0,1	0,520701
4,629167	0,1	0,512217
4,630833	0,1	0,523817
4,632500	0,1	0,492579
4,634167	0,1	0,490129
4,635833	0,1	0,538081
4,637500	0,1	0,502065
4,639167	0,1	0,496850
4,640833	0,1	0,432860
4,642500	0,1	0,476167
4,644167	0,1	0,488004
4,645833	0,1	0,480263
4,647500	0,1	0,468948
4,649167	0,1	0,463289
4,650833	0,1	0,458948
4,652500	0,1	0,444263
4,654167	0,1	0,457562
4,655833	0,1	0,417266
4,657500	0,1	0,442002
4,659167	0,1	0,485360
4,660833	0,1	0,420937
4,662500	0,1	0,443384
4,664167	0,1	0,440210
4,665833	0,1	0,406436
4,667500	0,1	0,422654
4,669167	0,1	0,407042
4,670833	0,1	0,439138
4,672500	0,1	0,389208
4,674167	0,1	0,438235
4,675833	0,1	0,377704
4,677500	0,1	0,406741
4,679167	0,1	0,373234
4,680833	0,1	0,388585
4,682500	0,1	0,408543
4,684167	0,1	0,377929
4,685833	0,1	0,367668
4,687500	0,1	0,428010
4,689167	0,1	0,326846
4,690833	0,1	0,354803
4,692500	0,1	0,354464
4,694167	0,1	0,367147
4,695833	0,1	0,400023
4,697500	0,1	0,347274
4,699167	0,1	0,345066
4,700833	0,1	0,372864
4,702500	0,1	0,361595
4,704167	0,1	0,307199
4,705833	0,1	0,348182
4,707500	0,1	0,371743
4,709167	0,1	0,384022
4,710833	0,1	0,360961
4,712500	0,1	0,359797
4,714167	0,1	0,371519
4,715833	0,1	0,344506
4,717500	0,1	0,382121
4,719167	0,1	0,358418
4,720833	0,1	0,315192
4,722500	0,1	0,330356
4,724167	0,1	0,337809
4,725833	0,1	0,328363
4,727500	0,1	0,325500
4,729167	0,1	0,361329
4,730833	0,1	0,301961
4,732500	0,1	0,325564
4,734167	0,1	0,328839
4,735833	0,1	0,321200
4,737500	0,1	0,364186
4,739167	0,1	0,318739
4,740833	0,1	0,317858
4,742500	0,1	0,267934
4,744167	0,1	0,294707
4,745833	0,1	0,311329
4,747500	0,1	0,297296
4,749167	0,1	0,297774
4,750833	0,1	0,339050
4,752500	0,1	0,308064
4,754167	0,1	0,311332
4,755833	0,1	0,274711
4,757500	0,1	0,283181
4,759167	0,1	0,310676
4,760833	0,1	0,277759
4,762500	0,1	0,299080
4,764167	0,1	0,286924
4,765833	0,1	0,272360
4,767500	0,1	0,311712
4,769167	0,1	0,302981
4,770833	0,1	0,274871
4,772500	0,1	0,276665
4,774167	0,1	0,248299
4,775833	0,1	0,312032
4,777500	0,1	0,259391
4,779167	0,1	0,243546
4,780833	0,1	0,297216
4,782500	0,1	0,271531
4,784167	0,1	0,275949
4,785833	0,1	0,254524
4,787500	0,1	0,267757
4,789167	0,1	0,284626
4,790833	0,1	0,241059
4,792500	0,1	0,302837
4,794167	0,1	0,230066
4,795833	0,1	0,273217
4,797500	0,1	0,287134
4,799167	0,1	0,266705
4,800833	0,1	0,249544
4,802500	0,1	0,275500
4,804167	0,1	0,259284
4,805833	0,1	0,260274
4,807500	0,1	0,260727
4,809167	0,1	0,242539
4,810833	0,1	0,260659
4,812500	0,1	0,282118
4,814167	0,1	0,270179
4,815833	0,1	0,253915
4,817500	0,1	0,251885
4,819167	0,1	0,215429
4,820833	0,1	0,269938
4,822500	0,1	0,250387
4,824167	0,1	0,256971
4,825833	0,1	0,234313
4,827500	0,1	0,243249
4,829167	0,1	0,197795
4,830833	0,1	0,247737
4,832500	0,1	0,247460
4,834167	0,1	0,241325
4,835833	0,1	0,207328
4,837500	0,1	0,243723
4,839167	0,1	0,248833
4,840833	0,1	0,227445
4,842500	0,1	0,236397
4,844167	0,1	0,205664
4,845833	0,1	0,229010
4,847500	0,1	0,247744
4,849167	0,1	0,223326
4,850833	0,1	0,241898
4,852500	0,1	0,251275
4,854167	0,1	0,227925
4,855833	0,1	0,213169
4,857500	0,1	0,228468
4,859167	0,1	0,226825
4,860833	0,1	0,203962
4,862500	0,1	0,244452
4,864167	0,1	0,222016
4,865833	0,1	0,219630
4,867500	0,1	0,197411
4,869167	0,1	0,265272
4,870833	0,1	0,212031
4,872500	0,1	0,285137
4,874167	0,1	0,219657
4,875833	0,1	0,218030
4,877500	0,1	0,245425
4,879167	0,1	0,205780
4,880833	0,1	0,203126
4,882500	0,1	0,186928
4,884167	0,1	0,171608
4,885833	0,1	0,239127
4,887500	0,1	0,239195
4,889167	0,1	0,165449
4,890833	0,1	0,243712
4,892500	0,1	0,196219
4,894167	0,1	0,203979
4,895833	0,1	0,225861
4,897500	0,1	0,236306
4,899167	0,1	0,189178
4,900833	0,1	0,193361
4,902500	0,1	0,211435
4,904167	0,1	0,238620
4,905833	0,1	0,235730
4,907500	0,1	0,213726
4,909167	0,1	0,215333
4,910833	0,1	0,231744
4,912500	0,1	0,198660
4,914167	0,1	0,201675
4,915833	0,1	0,196537
4,917500	0,1	0,244324
4,919167	0,1	0,239108
4,920833	0,1	0,206283
4,922500	0,1	0,244491
4,924167	0,1	0,232520
4,925833	0,1	0,231433
4,927500	0,1	0,176469
4,929167	0,1	0,186028
4,930833	0,1	0,210956
4,932500	0,1	0,194764
4,934167	0,1	0,203147
4,935833	0,1	0,274204
4,937500	0,1	0,215107
4,939167	0,1	0,217158
4,940833	0,1	0,239997
4,942500	0,1	0,199241
4,944167	0,1	0,203830
4,945833	0,1	0,231390
4,947500	0,1	0,193421
4,949167	0,1	0,214484
4,950833	0,1	0,166148
4,952500	0,1	0,208507
4,954167	0,1	0,189763
4,955833	0,1	0,223930
4,957500	0,1	0,197916
4,959167	0,1	0,206840
4,960833	0,1	0,208932
4,962500	0,1	0,212987
4,964167	0,1	0,203278
4,965833	0,1	0,242563
4,967500	0,1	0,220440
4,969167	0,1	0,213242
4,970833	0,1	0,183984
4,972500	0,1	0,234495
4,974167	0,1	0,227957
4,975833	0,1	0,228535
4,977500	0,1	0,237820
4,979167	0,1	0,220892
4,980833	0,1	0,221242
4,982500	0,1	0,227350
4,984167	0,1	0,220752
4,985833	0,1	0,218054
4,987500	0,1	0,246611
4,989167	0,1	0,192114
4,990833	0,1	0,190011
4,992500	0,1	0,231955
4,994167	0,1	0,192362
4,995833	0,1	0,230165
4,997500	0,1	0,237782
4,999167	0,1	0,237847
5,000833	0,1	0,198661
5,002500	0,1	0,237511
5,004167	0,1	0,246072
5,005833	0,1	0,230115
5,007500	0,1	0,208838
5,009167	0,1	0,235849
5,010833	0,1	0,253292
5,012500	0,1	0,227674
5,014167	0,1	0,225312
5,015833	0,1	0,244974
5,017500	0,1	0,269717
5,019167	0,1	0,238244
5,020833	0,1	0,253139
5,022500	0,1	0,231553
5,024167	0,1	0,225994
5,025833	0,1	0,234470
5,027500	0,1	0,294094
5,029167	0,1	0,226423
5,030833	0,1	0,279894
5,032500	0,1	0,227605
5,034167	0,1	0,237693
5,035833	0,1	0,252359
5,037500	0,1	0,240799
5,039167	0,1	0,235857
5,040833	0,1	0,227784
5,042500	0,1	0,218698
5,044167	0,1	0,264410
5,045833	0,1	0,268880
5,047500	0,1	0,264710
5,049167	0,1	0,254746
5,050833	0,1	0,293491
5,052500	0,1	0,256392
5,054167	0,1	0,263286
5,055833	0,1	0,285432
5,057500	0,1	0,305960
5,059167	0,1	0,303712
5,060833	0,1	0,247979
5,062500	0,1	0,273627
5,064167	0,1	0,275560
5,065833	0,1	0,296256
5,067500	0,1	0,292887
5,069167	0,1	0,289674
5,070833	0,1	0,281321
5,072500	0,1	0,281834
5,074167	0,1	0,310620
5,075833	0,1	0,306582
5,077500	0,1	0,300076
5,079167	0,1	0,257514
5,080833	0,1	0,260880
5,082500	0,1	0,288027
5,084167	0,1	0,281871
5,085833	0,1	0,300239
5,087500	0,1	0,304036
5,089167	0,1	0,287006
5,090833	0,1	0,289309
5,092500	0,1	0,290315
5,094167	0,1	0,270905
5,095833	0,1	0,293812
5,097500	0,1	0,278109
5,099167	0,1	0,320474
5,100833	0,1	0,337001
5,102500	0,1	0,301575
5,104167	0,1	0,287368
5,105833	0,1	0,307118
5,107500	0,1	0,316697
5,109167	0,1	0,319116
5,110833	0,1	0,323831
5,112500	0,1	0,316921
5,114167	0,1	0,308862
5,115833	0,1	0,320228
5,117500	0,1	0,343751
5,119167	0,1	0,332190
5,120833	0,1	0,329038
5,122500	0,1	0,325339
5,124167	0,1	0,316152
5,125833	0,1	0,337133
5,127500	0,1	0,311564
5,129167	0,1	0,302817
5,130833	0,1	0,309142
5,132500	0,1	0,331633
5,134167	0,1	0,333663
5,135833	0,1	0,298650
5,137500	0,1	0,327521
5,139167	0,1	0,328749
5,140833	0,1	0,348414
5,142500	0,1	0,290871
5,144167	0,1	0,314575
5,145833	0,1	0,371768
5,147500	0,1	0,340805
5,149167	0,1	0,313937
5,150833	0,1	0,290347
5,152500	0,1	0,307055
5,154167	0,1	0,310208
5,155833	0,1	0,319197
5,157500	0,1	0,345551
5,159167	0,1	0,316030
5,160833	0,1	0,302881
5,162500	0,1	0,287296
5,164167	0,1	0,293816
5,165833	0,1	0,298251
5,167500	0,1	0,283060
5,169167	0,1	0,321924
5,170833	0,1	0,281971
5,172500	0,1	0,293010
5,174167	0,1	0,338216
5,175833	0,1	0,304045
5,177500	0,1	0,274093
5,179167	0,1	0,316528
5,180833	0,1	0,310049
5,182500	0,1	0,269119
5,184167	0,1	0,338634
5,185833	0,1	0,313529
5,187500	0,1	0,292439
5,189167	0,1	0,264769
5,190833	0,1	0,279096
5,192500	0,1	0,298320
5,194167	0,1	0,291565
5,195833	0,1	0,280714
5,197500	0,1	0,277046
5,199167	0,1	0,278684
5,200833	0,1	0,258515
5,202500	0,1	0,291818
5,204167	0,1	0,225327
5,205833	0,1	0,275586
5,207500	0,1	0,255998
5,209167	0,1	0,257415
5,210833	0,1	0,312505
5,212500	0,1	0,267933
5,214167	0,1	0,263352
5,215833	0,1	0,248890
5,217500	0,1	0,252726
5,219167	0,1	0,234086
5,220833	0,1	0,256476
5,222500	0,1	0,237047
5,224167	0,1	0,222972
5,225833	0,1	0,266300
5,227500	0,1	0,224453
5,229167	0,1	0,248982
5,230833	0,1	0,235079
5,232500	0,1	0,254033
5,234167	0,1	0,236113
5,235833	0,1	0,205147
5,237500	0,1	0,225408
5,239167	0,1	0,199717
5,240833	0,1	0,240382
5,242500	0,1	0,186255
5,244167	0,1	0,205489
5,245833	0,1	0,243143
5,247500	0,1	0,221536
5,249167	0,1	0,199906
5,250833	0,1	0,230771
5,252500	0,1	0,214265
5,254167	0,1	0,227247
5,255833	0,1	0,247491
5,257500	0,1	0,216587
5,259167	0,1	0,184551
5,260833	0,1	0,152818
5,262500	0,1	0,226188
5,264167	0,1	0,182172
5,265833	0,1	0,175524
5,267500	0,1	0,236069
5,269167	0,1	0,188284
5,270833	0,1	0,160940
5,272500	0,1	0,220711
5,274167	0,1	0,190723
5,275833	0,1	0,170387
5,277500	0,1	0,169475
5,279167	0,1	0,151755
5,280833	0,1	0,226463
5,282500	0,1	0,190271
5,284167	0,1	0,177780
5,285833	0,1	0,157866
5,287500	0,1	0,198642
5,289167	0,1	0,201095
5,290833	0,1	0,161814
5,292500	0,1	0,166426
5,294167	0,1	0,169753
5,295833	0,1	0,178709
5,297500	0,1	0,170636
5,299167	0,1	0,164790
5,300833	0,1	0,144463
5,302500	0,1	0,163148
5,304167	0,1	0,186124
5,305833	0,1	0,150828
5,307500	0,1	0,160554
5,309167	0,1	0,138243
5,310833	0,1	0,147957
5,312500	0,1	0,139462
5,314167	0,1	0,143047
5,315833	0,1	0,137165
5,317500	0,1	0,163865
5,319167	0,1	0,107917
5,320833	0,1	0,127249
5,322500	0,1	0,168736
5,324167	0,1	0,161592
5,325833	0,1	0,126893
5,327500	0,1	0,129353
5,329167	0,1	0,130262
5,330833	0,1	0,143020
5,332500	0,1	0,119432
5,334167	0,1	0,170612
5,335833	0,1	0,091117
5,337500	0,1	0,113946
5,339167	0,1	0,109728
5,340833	0,1	0,086774
5,342500	0,1	0,119725
5,344167	0,1	0,128935
5,345833	0,1	0,124936
5,347500	0,1	0,110060
5,349167	0,1	0,123130
5,350833	0,1	0,139190
5,352500	0,1	0,088707
5,354167	0,1	0,137934
5,355833	0,1	0,132291
5,357500	0,1	0,081038
5,359167	0,1	0,102673
5,360833	0,1	0,080826
5,362500	0,1	0,129583
5,364167	0,1	0,091336
5,365833	0,1	0,071044
5,367500	0,1	0,113816
5,369167	0,1	0,107551
5,370833	0,1	0,107237
5,372500	0,1	0,086749
5,374167	0,1	0,102094
5,375833	0,1	0,097853
5,377500	0,1	0,085486
5,379167	0,1	0,107006
5,380833	0,1	0,118922
5,382500	0,1	0,107945
5,384167	0,1	0,070053
5,385833	0,1	0,111269
5,387500	0,1	0,103801
5,389167	0,1	0,097252
5,390833	0,1	0,051677
5,392500	0,1	0,068573
5,394167	0,1	0,067144
5,395833	0,1	0,079988
5,397500	0,1	0,063398
5,399167	0,1	0,083278
5,400833	0,1	0,091301
5,402500	0,1	0,059506
5,404167	0,1	0,088893
5,405833	0,1	0,090848
5,407500	0,1	0,056131
5,409167	0,1	0,047588
5,410833	0,1	0,127523
5,412500	0,1	0,053715
5,414167	0,1	0,073313
5,415833	0,1	0,090986
5,417500	0,1	0,033470
5,419167	0,1	0,072377
5,420833	0,1	0,032139
5,422500	0,1	0,075814
5,424167	0,1	0,069073
5,425833	0,1	0,056083
5,427500	0,1	0,067807
5,429167	0,1	0,079033
5,430833	0,1	0,089436
5,432500	0,1	0,064269
5,434167	0,1	0,083881
5,435833	0,1	0,045026
5,437500	0,1	0,048165
5,439167	0,1	0,063536
5,440833	0,1	0,059437
5,442500	0,1	0,039343
5,444167	0,1	0,063677
5,445833	0,1	0,055852
5,447500	0,1	0,040689
5,449167	0,1	0,034906
5,450833	0,1	0,061773
5,452500	0,1	0,043550
5,454167	0,1	0,070287
5,455833	0,1	0,062504
5,457500	0,1	0,056289
5,459167	0,1	0,058107
5,460833	0,1	0,028178
5,462500	0,1	0,019535
5,464167	0,1	0,065206
5,465833	0,1	0,019399
5,467500	0,1	0,037469
5,469167	0,1	0,055659
5,470833	0,1	0,005642
5,472500	0,1	0,039972
5,474167	0,1	0,027718
5,475833	0,1	0,011911
5,477500	0,1	0,039269
5,479167	0,1	0,006902
5,480833	0,1	0,054534
5,482500	0,1	0,050445
5,484167	0,1	0,070723
5,485833	0,1	-0,010178
5,487500	0,1	0,016210
5,489167	0,1	0,005593
5,490833	0,1	0,021869
5,492500	0,1	-0,003146
5,494167	0,1	0,026361
5,495833	0,1	0,008825
5,497500	0,1	0,018495
5,499167	0,1	0,028231
5,500833	0,1	0,043791
5,502500	0,1	0,031614
5,504167	0,1	0,043356
5,505833	0,1	0,033498
5,507500	0,1	0,037803
5,509167	0,1	-0,017705
5,510833	0,1	0,004838
5,512500	0,1	0,025472
5,514167	0,1	-0,001074
5,515833	0,1	0,042250
5,517500	0,1	0,002844
5,519167	0,1	0,023961
5,520833	0,1	0,005676
5,522500	0,1	-0,009053
5,524167	0,1	0,037816
5,525833	0,1	0,021712
5,527500	0,1	0,031795
5,529167	0,1	0,016283
5,530833	0,1	-0,003542
5,532500	0,1	0,032038
5,534167	0,1	-0,007369
5,535833	0,1	0,025243
5,537500	0,1	0,002797
5,539167	0,1	-0,003855
5,540833	0,1	-0,001744
5,542500	0,1	-0,000149
5,544167	0,1	0,021061
5,545833	0,1	-0,009341
5,547500	0,1	0,001049
5,549167	0,1	0,021766
5,550833	0,1	0,012077
5,552500	0,1	0,005343
5,554167	0,1	-0,005657
5,555833	0,1	-0,053608
5,557500	0,1	0,033206
5,559167	0,1	0,022704
5,560833	0,1	0,005614
5,562500	0,1	0,017954
5,564167	0,1	0,004578
5,565833	0,1	-0,043475
5,567500	0,1	0,008975
5,569167	0,1	-0,006589
5,570833	0,1	0,005007
5,572500	0,1	0,004679
5,574167	0,1	-0,021646
5,575833	0,1	0,005190
5,577500	0,1	0,009049
5,579167	0,1	0,002794
5,580833	0,1	0,032391
5,582500	0,1	-0,005256
5,584167	0,1	-0,022768
5,585833	0,1	-0,007425
5,587500	0,1	0,006809
5,589167	0,1	-0,038320
5,590833	0,1	0,000462
5,592500	0,1	-0,003443
5,594167	0,1	-0,025668
5,595833	0,1	0,009559
5,597500	0,1	-0,023406
5,599167	0,1	0,010366
5,600833	0,1	0,004140
5,602500	0,1	0,021642
5,604167	0,1	0,007022
5,605833	0,1	-0,024980
5,607500	0,1	-0,006886
5,609167	0,1	-0,030491
5,610833	0,1	-0,019440
5,612500	0,1	0,013538
5,614167	0,1	-0,025164
5,615833	0,1	-0,013555
5,617500	0,1	-0,000835
5,619167	0,1	0,019858
5,620833	0,1	-0,003665
5,622500	0,1	-0,031694
5,624167	0,1	-0,035842
5,625833	0,1	0,009433
5,627500	0,1	-0,034259
5,629167	0,1	-0,007884
5,630833	0,1	0,012525
5,632500	0,1	-0,012925
5,634167	0,1	-0,047870
5,635833	0,1	-0,012856
5,637500	0,1	-0,007835
5,639167	0,1	0,003081
5,640833	0,1	-0,063336
5,642500	0,1	-0,006793
5,644167	0,1	0,030815
5,645833	0,1	-0,023482
5,647500	0,1	0,013121
5,649167	0,1	0,013359
5,650833	0,1	-0,026120
5,652500	0,1	-0,015068
5,654167	0,1	0,020891
5,655833	0,1	0,007002
5,657500	0,1	-0,018351
5,659167	0,1	0,005584
5,660833	0,1	0,003041
5,662500	0,1	0,000639
5,664167	0,1	0,033737
5,665833	0,1	0,006488
5,667500	0,1	-0,013215
5,669167	0,1	-0,028942
5,670833	0,1	0,034725
5,672500	0,1	0,027592
5,674167	0,1	0,017690
5,675833	0,1	0,024793
5,677500	0,1	0,074278
5,679167	0,1	0,027811
5,680833	0,1	0,025107
5,682500	0,1	0,014397
5,684167	0,1	0,005798
5,685833	0,1	0,054367
5,687500	0,1	-0,004630
5,689167	0,1	0,018325
5,690833	0,1	0,015287
5,692500	0,1	-0,015989
5,694167	0,1	0,005874
5,695833	0,1	0,018618
5,697500	0,1	0,027673
5,699167	0,1	-0,000474
5,700833	0,1	0,016399
5,702500	0,1	0,054910
5,704167	0,1	0,027682
5,705833	0,1	0,051205
5,707500	0,1	0,007714
5,709167	0,1	0,014062
5,710833	0,1	0,024668
5,712500	0,1	-0,012240
5,714167	0,1	0,048027
5,715833	0,1	0,070579
5,717500	0,1	0,014552
5,719167	0,1	0,032809
5,720833	0,1	0,022124
5,722500	0,1	0,053422
5,724167	0,1	0,032983
5,725833	0,1	0,058686
5,727500	0,1	0,037315
5,729167	0,1	0,046090
5,730833	0,1	0,038242
5,732500	0,1	0,007875
5,734167	0,1	0,009980
5,735833	0,1	0,023881
5,737500	0,1	0,024110
5,739167	0,1	0,040330
5,740833	0,1	0,012764
5,742500	0,1	0,058989
5,744167	0,1	0,040483
5,745833	0,1	0,033310
5,747500	0,1	0,032378
5,749167	0,1	0,047645
5,750833	0,1	0,045637
5,752500	0,1	0,014009
5,754167	0,1	0,051470
5,755833	0,1	0,075944
5,757500	0,1	0,004798
5,759167	0,1	0,056025
5,760833	0,1	0,065506
5,762500	0,1	0,033857
5,764167	0,1	0,042878
5,765833	0,1	0,016183
5,767500	0,1	0,018952
5,769167	0,1	0,042295
5,770833	0,1	0,068565
5,772500	0,1	0,030418
5,774167	0,1	0,018395
5,775833	0,1	-0,013712
5,777500	0,1	0,003803
5,779167	0,1	0,004719
5,780833	0,1	0,033138
5,782500	0,1	0,012328
5,784167	0,1	0,034588
5,785833	0,1	0,044268
5,787500	0,1	0,052392
5,789167	0,1	0,071079
5,790833	0,1	0,063477
5,792500	0,1	0,013722
5,794167	0,1	0,051680
5,795833	0,1	0,043505
5,797500	0,1	0,024737
5,799167	0,1	0,008058
5,800833	0,1	0,022698
5,802500	0,1	0,068977
5,804167	0,1	0,060185
5,805833	0,1	0,029069
5,807500	0,1	0,066823
5,809167	0,1	0,059524
5,810833	0,1	0,024928
5,812500	0,1	0,029021
5,814167	0,1	0,009158
5,815833	0,1	0,029535
5,817500	0,1	0,058249
5,819167	0,1	0,038887
5,820833	0,1	0,056015
5,822500	0,1	0,038369
5,824167	0,1	0,049760
5,825833	0,1	0,085781
5,827500	0,1	0,065121
5,829167	0,1	0,028844
5,830833	0,1	0,014647
5,832500	0,1	0,037861
5,834167	0,1	0,050608
5,835833	0,1	0,095726
5,837500	0,1	0,034549
5,839167	0,1	0,046213
5,840833	0,1	0,025855
5,842500	0,1	0,050729
5,844167	0,1	0,024366
5,845833	0,1	0,033640
5,847500	0,1	0,042901
5,849167	0,1	0,031883
5,850833	0,1	-0,007763
5,852500	0,1	0,042787
5,854167	0,1	0,020927
5,855833	0,1	0,033535
5,857500	0,1	0,040683
5,859167	0,1	0,027574
5,860833	0,1	0,087333
5,862500	0,1	0,020397
5,864167	0,1	0,048552
5,865833	0,1	0,027265
5,867500	0,1	0,048886
5,869167	0,1	0,044334
5,870833	0,1	0,043689
5,872500	0,1	0,047149
5,874167	0,1	0,020015
5,875833	0,1	0,072083
5,877500	0,1	0,014946
5,879167	0,1	0,026512
5,880833	0,1	0,015351
5,882500	0,1	0,054536
5,884167	0,1	0,019459
5,885833	0,1	0,008866
5,887500	0,1	0,021725
5,889167	0,1	0,039458
5,890833	0,1	0,013012
5,892500	0,1	0,030922
5,894167	0,1	0,045593
5,895833	0,1	0,052307
5,897500	0,1	0,034227
5,899167	0,1	0,039461
5,900833	0,1	0,044498
5,902500	0,1	0,007297
5,904167	0,1	0,009462
5,905833	0,1	0,039724
5,907500	0,1	0,025896
5,909167	0,1	0,041222
5,910833	0,1	0,004439
5,912500	0,1	0,030176
5,914167	0,1	0,071818
5,915833	0,1	-0,004710
5,917500	0,1	-0,012827
5,919167	0,1	0,002478
5,920833	0,1	0,008757
5,922500	0,1	0,054204
5,924167	0,1	0,025009
5,925833	0,1	0,011020
5,927500	0,1	0,018908
5,929167	0,1	-0,007043
5,930833	0,1	-0,018895
5,932500	0,1	0,031392
5,934167	0,1	0,052509
5,935833	0,1	0,046012
5,937500	0,1	0,015997
5,939167	0,1	0,012882
5,940833	0,1	0,036246
5,942500	0,1	0,001931
5,944167	0,1	-0,001225
5,945833	0,1	0,034896
5,947500	0,1	-0,013376
5,949167	0,1	0,016563
5,950833	0,1	0,013691
5,952500	0,1	0,005301
5,954167	0,1	-0,021689
5,955833	0,1	-0,018792
5,957500	0,1	0,000985
5,959167	0,1	-0,052941
5,960833	0,1	0,015518
5,962500	0,1	0,042130
5,964167	0,1	0,045534
5,965833	0,1	0,027182
5,967500	0,1	0,038716
5,969167	0,1	0,001622
5,970833	0,1	-0,000686
5,972500	0,1	0,008343
5,974167	0,1	-0,010917
5,975833	0,1	0,002127
5,977500	0,1	-0,015474
5,979167	0,1	0,013166
5,980833	0,1	-0,045296
5,982500	0,1	0,004812
5,984167	0,1	-0,022784
5,985833	0,1	-0,025030
5,987500	0,1	0,007323
5,989167	0,1	0,019487
5,990833	0,1	0,001596
5,992500	0,1	0,016234
5,994167	0,1	0,001905
5,995833	0,1	-0,008889
5,997500	0,1	-0,024633
5,999167	0,1	0,008773
6,000833	0,1	0,009775
