File Path	chrom://chromeleon01/ikbm_chromeleon/2022/Rezex/Esteban/220612_chitin_4_7.seq/823.smp/UV_VIS_1.channel/UV_VIS_1.chm
Channel	UV_VIS_1

Injection Information:
Data Vault	ikbm_chromeleon
Injection	7_02h-EGS_3
Injection Number	83
Position	GD3
Comment	
Processing Method	New ProcMethod
Instrument Method	Short_Rezex_6min_194nm
Type	Unknown
Status	Finished
Injection Date	13.06.2022
Injection Time	02:04:55
Injection Volume (µl)	8,000
Dilution Factor	1,0000
Weight	1,0000

Chromatogram Data Information:
Time Min. (min)	0,000833
Time Max. (min)	6,000833
Data Points	3601
Detector	UV
Generating Data System	Chromeleon 7.2.9.11323
Exporting Data System	Chromeleon 7.2.9.0
Operator	Instrument Controller
Signal Quantity	Absorbance
Signal Unit	mAU
Signal Min.	-0,156444
Signal Max.	115,252893
Channel	UV_VIS_1
Driver Name	VWD3000.dll
Channel Type	Evaluation
Min. Step (s)	0,1
Max. Step (s)	0,1
Average Step (s)	0,1

Signal Parameter Information:
Signal Info	WVL:194 nm

Chromatogram Data:
Time (min)	Step (s)	Value (mAU)
0,000833	n.a.	-0,042434
0,002500	0,1	-0,113870
0,004167	0,1	-0,079375
0,005833	0,1	-0,089884
0,007500	0,1	-0,056798
0,009167	0,1	-0,107358
0,010833	0,1	-0,066703
0,012500	0,1	-0,043415
0,014167	0,1	-0,059997
0,015833	0,1	-0,048655
0,017500	0,1	-0,026740
0,019167	0,1	-0,049993
0,020833	0,1	-0,040448
0,022500	0,1	-0,056063
0,024167	0,1	-0,070691
0,025833	0,1	-0,045009
0,027500	0,1	-0,054903
0,029167	0,1	-0,078200
0,030833	0,1	-0,090113
0,032500	0,1	-0,111341
0,034167	0,1	-0,101902
0,035833	0,1	-0,087736
0,037500	0,1	-0,123720
0,039167	0,1	-0,093042
0,040833	0,1	-0,134571
0,042500	0,1	-0,057204
0,044167	0,1	-0,081102
0,045833	0,1	-0,106099
0,047500	0,1	-0,112339
0,049167	0,1	-0,156444
0,050833	0,1	-0,114734
0,052500	0,1	-0,095591
0,054167	0,1	-0,055039
0,055833	0,1	-0,089096
0,057500	0,1	-0,034371
0,059167	0,1	-0,088819
0,060833	0,1	-0,052655
0,062500	0,1	-0,041444
0,064167	0,1	-0,041774
0,065833	0,1	-0,092364
0,067500	0,1	-0,030169
0,069167	0,1	-0,115926
0,070833	0,1	-0,029015
0,072500	0,1	-0,095340
0,074167	0,1	-0,071070
0,075833	0,1	-0,068205
0,077500	0,1	-0,075989
0,079167	0,1	-0,056609
0,080833	0,1	-0,099428
0,082500	0,1	-0,071651
0,084167	0,1	-0,037244
0,085833	0,1	-0,018100
0,087500	0,1	-0,024724
0,089167	0,1	-0,049183
0,090833	0,1	-0,019864
0,092500	0,1	-0,053860
0,094167	0,1	0,012545
0,095833	0,1	-0,085290
0,097500	0,1	-0,047648
0,099167	0,1	-0,047554
0,100833	0,1	-0,027405
0,102500	0,1	-0,080657
0,104167	0,1	-0,065455
0,105833	0,1	-0,066587
0,107500	0,1	-0,072594
0,109167	0,1	-0,056670
0,110833	0,1	-0,071782
0,112500	0,1	-0,040041
0,114167	0,1	-0,068049
0,115833	0,1	-0,075557
0,117500	0,1	-0,088501
0,119167	0,1	-0,089992
0,120833	0,1	-0,087319
0,122500	0,1	-0,100992
0,124167	0,1	-0,121033
0,125833	0,1	-0,079834
0,127500	0,1	-0,099450
0,129167	0,1	-0,076243
0,130833	0,1	-0,096636
0,132500	0,1	-0,113129
0,134167	0,1	-0,082831
0,135833	0,1	-0,057171
0,137500	0,1	-0,100070
0,139167	0,1	-0,031555
0,140833	0,1	-0,054735
0,142500	0,1	-0,059918
0,144167	0,1	-0,059277
0,145833	0,1	-0,101433
0,147500	0,1	-0,026691
0,149167	0,1	-0,024955
0,150833	0,1	-0,067510
0,152500	0,1	-0,066113
0,154167	0,1	-0,073648
0,155833	0,1	-0,024405
0,157500	0,1	-0,028227
0,159167	0,1	-0,053079
0,160833	0,1	-0,070752
0,162500	0,1	-0,038633
0,164167	0,1	-0,065358
0,165833	0,1	-0,037348
0,167500	0,1	-0,034070
0,169167	0,1	-0,018207
0,170833	0,1	-0,069039
0,172500	0,1	-0,040477
0,174167	0,1	-0,090912
0,175833	0,1	-0,089562
0,177500	0,1	-0,017615
0,179167	0,1	-0,072809
0,180833	0,1	-0,039609
0,182500	0,1	-0,087993
0,184167	0,1	-0,050835
0,185833	0,1	-0,033183
0,187500	0,1	-0,052209
0,189167	0,1	-0,056189
0,190833	0,1	-0,059400
0,192500	0,1	-0,017755
0,194167	0,1	-0,020498
0,195833	0,1	-0,007824
0,197500	0,1	-0,089348
0,199167	0,1	-0,012667
0,200833	0,1	-0,079950
0,202500	0,1	-0,069491
0,204167	0,1	-0,033701
0,205833	0,1	-0,048463
0,207500	0,1	-0,013405
0,209167	0,1	-0,049015
0,210833	0,1	-0,041485
0,212500	0,1	-0,050100
0,214167	0,1	-0,033967
0,215833	0,1	-0,028477
0,217500	0,1	-0,043591
0,219167	0,1	-0,048466
0,220833	0,1	-0,042830
0,222500	0,1	-0,045459
0,224167	0,1	-0,044508
0,225833	0,1	-0,046372
0,227500	0,1	-0,050990
0,229167	0,1	-0,031856
0,230833	0,1	-0,035438
0,232500	0,1	-0,026530
0,234167	0,1	-0,040610
0,235833	0,1	-0,045811
0,237500	0,1	-0,049064
0,239167	0,1	-0,036764
0,240833	0,1	-0,083710
0,242500	0,1	-0,058850
0,244167	0,1	-0,036766
0,245833	0,1	-0,034544
0,247500	0,1	-0,047444
0,249167	0,1	-0,057410
0,250833	0,1	-0,041136
0,252500	0,1	-0,078884
0,254167	0,1	-0,063405
0,255833	0,1	-0,054286
0,257500	0,1	-0,070085
0,259167	0,1	-0,050374
0,260833	0,1	-0,077249
0,262500	0,1	-0,045302
0,264167	0,1	-0,047323
0,265833	0,1	-0,058114
0,267500	0,1	-0,031630
0,269167	0,1	-0,029946
0,270833	0,1	-0,044339
0,272500	0,1	-0,055545
0,274167	0,1	-0,052585
0,275833	0,1	-0,054098
0,277500	0,1	-0,058053
0,279167	0,1	-0,029684
0,280833	0,1	-0,031974
0,282500	0,1	-0,044234
0,284167	0,1	-0,037343
0,285833	0,1	-0,038107
0,287500	0,1	-0,038378
0,289167	0,1	0,014661
0,290833	0,1	-0,038798
0,292500	0,1	-0,030754
0,294167	0,1	-0,012054
0,295833	0,1	-0,015673
0,297500	0,1	-0,028805
0,299167	0,1	0,024688
0,300833	0,1	-0,035586
0,302500	0,1	-0,038272
0,304167	0,1	-0,009736
0,305833	0,1	-0,013063
0,307500	0,1	-0,008735
0,309167	0,1	-0,047129
0,310833	0,1	-0,019015
0,312500	0,1	-0,021785
0,314167	0,1	-0,020584
0,315833	0,1	-0,034708
0,317500	0,1	-0,008346
0,319167	0,1	-0,026338
0,320833	0,1	-0,000453
0,322500	0,1	-0,050670
0,324167	0,1	0,007059
0,325833	0,1	-0,007446
0,327500	0,1	-0,010579
0,329167	0,1	-0,052224
0,330833	0,1	-0,030036
0,332500	0,1	-0,027148
0,334167	0,1	-0,013523
0,335833	0,1	-0,020353
0,337500	0,1	0,012928
0,339167	0,1	-0,046482
0,340833	0,1	-0,046788
0,342500	0,1	-0,026368
0,344167	0,1	-0,021825
0,345833	0,1	-0,053861
0,347500	0,1	-0,003443
0,349167	0,1	-0,004963
0,350833	0,1	-0,044413
0,352500	0,1	0,013729
0,354167	0,1	-0,008210
0,355833	0,1	-0,043507
0,357500	0,1	-0,039310
0,359167	0,1	-0,029532
0,360833	0,1	-0,042184
0,362500	0,1	-0,014107
0,364167	0,1	-0,041600
0,365833	0,1	-0,026034
0,367500	0,1	-0,001095
0,369167	0,1	-0,003183
0,370833	0,1	0,033519
0,372500	0,1	-0,022724
0,374167	0,1	-0,054856
0,375833	0,1	0,010557
0,377500	0,1	-0,018194
0,379167	0,1	-0,020230
0,380833	0,1	-0,008904
0,382500	0,1	-0,027499
0,384167	0,1	-0,020585
0,385833	0,1	-0,011348
0,387500	0,1	0,011293
0,389167	0,1	0,002952
0,390833	0,1	0,024345
0,392500	0,1	-0,006676
0,394167	0,1	0,053194
0,395833	0,1	-0,001966
0,397500	0,1	-0,015546
0,399167	0,1	-0,007243
0,400833	0,1	-0,020975
0,402500	0,1	0,036765
0,404167	0,1	0,002357
0,405833	0,1	0,019932
0,407500	0,1	-0,073591
0,409167	0,1	0,011297
0,410833	0,1	-0,000550
0,412500	0,1	-0,004405
0,414167	0,1	0,013677
0,415833	0,1	-0,040333
0,417500	0,1	-0,025805
0,419167	0,1	-0,006461
0,420833	0,1	-0,007036
0,422500	0,1	-0,038907
0,424167	0,1	0,007475
0,425833	0,1	0,028860
0,427500	0,1	-0,023039
0,429167	0,1	-0,016689
0,430833	0,1	0,011829
0,432500	0,1	-0,019478
0,434167	0,1	0,019864
0,435833	0,1	0,008732
0,437500	0,1	-0,013223
0,439167	0,1	-0,006272
0,440833	0,1	-0,001609
0,442500	0,1	-0,018344
0,444167	0,1	-0,032304
0,445833	0,1	0,015782
0,447500	0,1	0,000261
0,449167	0,1	-0,011405
0,450833	0,1	0,001061
0,452500	0,1	-0,006163
0,454167	0,1	-0,013085
0,455833	0,1	-0,018635
0,457500	0,1	0,010876
0,459167	0,1	0,011069
0,460833	0,1	-0,006679
0,462500	0,1	0,020801
0,464167	0,1	-0,002721
0,465833	0,1	-0,023189
0,467500	0,1	0,019988
0,469167	0,1	0,029836
0,470833	0,1	0,050097
0,472500	0,1	0,069011
0,474167	0,1	-0,001196
0,475833	0,1	0,010985
0,477500	0,1	0,035573
0,479167	0,1	-0,006840
0,480833	0,1	0,061996
0,482500	0,1	0,016798
0,484167	0,1	0,009001
0,485833	0,1	0,019043
0,487500	0,1	0,054733
0,489167	0,1	0,007497
0,490833	0,1	-0,006595
0,492500	0,1	0,029685
0,494167	0,1	-0,015892
0,495833	0,1	-0,016254
0,497500	0,1	0,022228
0,499167	0,1	-0,025604
0,500833	0,1	-0,008263
0,502500	0,1	0,032853
0,504167	0,1	0,073276
0,505833	0,1	0,056505
0,507500	0,1	0,025143
0,509167	0,1	0,035970
0,510833	0,1	0,033610
0,512500	0,1	0,006291
0,514167	0,1	-0,000238
0,515833	0,1	0,056281
0,517500	0,1	0,046250
0,519167	0,1	0,008199
0,520833	0,1	0,028156
0,522500	0,1	0,040361
0,524167	0,1	-0,006901
0,525833	0,1	-0,028617
0,527500	0,1	0,034381
0,529167	0,1	0,021204
0,530833	0,1	0,024142
0,532500	0,1	0,029899
0,534167	0,1	0,000283
0,535833	0,1	0,014919
0,537500	0,1	0,049969
0,539167	0,1	0,033758
0,540833	0,1	0,028826
0,542500	0,1	0,027374
0,544167	0,1	0,011653
0,545833	0,1	0,027288
0,547500	0,1	0,049867
0,549167	0,1	0,020523
0,550833	0,1	0,035988
0,552500	0,1	0,023897
0,554167	0,1	0,029899
0,555833	0,1	0,017910
0,557500	0,1	0,047505
0,559167	0,1	0,022055
0,560833	0,1	0,059271
0,562500	0,1	0,071499
0,564167	0,1	0,060049
0,565833	0,1	0,071065
0,567500	0,1	0,054021
0,569167	0,1	0,093619
0,570833	0,1	0,055311
0,572500	0,1	0,041258
0,574167	0,1	0,055525
0,575833	0,1	0,060747
0,577500	0,1	0,069656
0,579167	0,1	0,079352
0,580833	0,1	0,029001
0,582500	0,1	0,059934
0,584167	0,1	0,044636
0,585833	0,1	0,013295
0,587500	0,1	0,094087
0,589167	0,1	0,033604
0,590833	0,1	0,067081
0,592500	0,1	0,037532
0,594167	0,1	0,069755
0,595833	0,1	0,048780
0,597500	0,1	0,087178
0,599167	0,1	0,081699
0,600833	0,1	0,080702
0,602500	0,1	0,067259
0,604167	0,1	0,091844
0,605833	0,1	0,058128
0,607500	0,1	0,090370
0,609167	0,1	0,084411
0,610833	0,1	0,032111
0,612500	0,1	0,084212
0,614167	0,1	0,073288
0,615833	0,1	0,072500
0,617500	0,1	0,051827
0,619167	0,1	0,088918
0,620833	0,1	0,065377
0,622500	0,1	0,078608
0,624167	0,1	0,078816
0,625833	0,1	0,101268
0,627500	0,1	0,089533
0,629167	0,1	0,119171
0,630833	0,1	0,080630
0,632500	0,1	0,088800
0,634167	0,1	0,110909
0,635833	0,1	0,067411
0,637500	0,1	0,118627
0,639167	0,1	0,089826
0,640833	0,1	0,123378
0,642500	0,1	0,129596
0,644167	0,1	0,141909
0,645833	0,1	0,121173
0,647500	0,1	0,152120
0,649167	0,1	0,119391
0,650833	0,1	0,094321
0,652500	0,1	0,092804
0,654167	0,1	0,117700
0,655833	0,1	0,122226
0,657500	0,1	0,098237
0,659167	0,1	0,126012
0,660833	0,1	0,113008
0,662500	0,1	0,120649
0,664167	0,1	0,151807
0,665833	0,1	0,122296
0,667500	0,1	0,134075
0,669167	0,1	0,124712
0,670833	0,1	0,133662
0,672500	0,1	0,162628
0,674167	0,1	0,142434
0,675833	0,1	0,107069
0,677500	0,1	0,153364
0,679167	0,1	0,096547
0,680833	0,1	0,123630
0,682500	0,1	0,158584
0,684167	0,1	0,118341
0,685833	0,1	0,180231
0,687500	0,1	0,179752
0,689167	0,1	0,149856
0,690833	0,1	0,135391
0,692500	0,1	0,180133
0,694167	0,1	0,138835
0,695833	0,1	0,191318
0,697500	0,1	0,147619
0,699167	0,1	0,145187
0,700833	0,1	0,155300
0,702500	0,1	0,210716
0,704167	0,1	0,170517
0,705833	0,1	0,162988
0,707500	0,1	0,187935
0,709167	0,1	0,177930
0,710833	0,1	0,195747
0,712500	0,1	0,197389
0,714167	0,1	0,189140
0,715833	0,1	0,204970
0,717500	0,1	0,224823
0,719167	0,1	0,207674
0,720833	0,1	0,217179
0,722500	0,1	0,260736
0,724167	0,1	0,216486
0,725833	0,1	0,244160
0,727500	0,1	0,251068
0,729167	0,1	0,220034
0,730833	0,1	0,218238
0,732500	0,1	0,267449
0,734167	0,1	0,218276
0,735833	0,1	0,268635
0,737500	0,1	0,272438
0,739167	0,1	0,234148
0,740833	0,1	0,290571
0,742500	0,1	0,257089
0,744167	0,1	0,266163
0,745833	0,1	0,250785
0,747500	0,1	0,251976
0,749167	0,1	0,293572
0,750833	0,1	0,277194
0,752500	0,1	0,268323
0,754167	0,1	0,288851
0,755833	0,1	0,311633
0,757500	0,1	0,266467
0,759167	0,1	0,292189
0,760833	0,1	0,262165
0,762500	0,1	0,318575
0,764167	0,1	0,270295
0,765833	0,1	0,280626
0,767500	0,1	0,277644
0,769167	0,1	0,277001
0,770833	0,1	0,242335
0,772500	0,1	0,271653
0,774167	0,1	0,267651
0,775833	0,1	0,279540
0,777500	0,1	0,268938
0,779167	0,1	0,267868
0,780833	0,1	0,243755
0,782500	0,1	0,272496
0,784167	0,1	0,296697
0,785833	0,1	0,280534
0,787500	0,1	0,222398
0,789167	0,1	0,241743
0,790833	0,1	0,263048
0,792500	0,1	0,260484
0,794167	0,1	0,308097
0,795833	0,1	0,241700
0,797500	0,1	0,273390
0,799167	0,1	0,266746
0,800833	0,1	0,275865
0,802500	0,1	0,238645
0,804167	0,1	0,258877
0,805833	0,1	0,259802
0,807500	0,1	0,234145
0,809167	0,1	0,299185
0,810833	0,1	0,204215
0,812500	0,1	0,257573
0,814167	0,1	0,282750
0,815833	0,1	0,282078
0,817500	0,1	0,290746
0,819167	0,1	0,250464
0,820833	0,1	0,254798
0,822500	0,1	0,289553
0,824167	0,1	0,261511
0,825833	0,1	0,279883
0,827500	0,1	0,283198
0,829167	0,1	0,246770
0,830833	0,1	0,271879
0,832500	0,1	0,283459
0,834167	0,1	0,269872
0,835833	0,1	0,273850
0,837500	0,1	0,256278
0,839167	0,1	0,334628
0,840833	0,1	0,259631
0,842500	0,1	0,278218
0,844167	0,1	0,285578
0,845833	0,1	0,265565
0,847500	0,1	0,284416
0,849167	0,1	0,251847
0,850833	0,1	0,279726
0,852500	0,1	0,255511
0,854167	0,1	0,285474
0,855833	0,1	0,281851
0,857500	0,1	0,274467
0,859167	0,1	0,271117
0,860833	0,1	0,288399
0,862500	0,1	0,265981
0,864167	0,1	0,284707
0,865833	0,1	0,278351
0,867500	0,1	0,267428
0,869167	0,1	0,269605
0,870833	0,1	0,270954
0,872500	0,1	0,309638
0,874167	0,1	0,298019
0,875833	0,1	0,312765
0,877500	0,1	0,283079
0,879167	0,1	0,303251
0,880833	0,1	0,293030
0,882500	0,1	0,301389
0,884167	0,1	0,284804
0,885833	0,1	0,283199
0,887500	0,1	0,283778
0,889167	0,1	0,290592
0,890833	0,1	0,311561
0,892500	0,1	0,293874
0,894167	0,1	0,319407
0,895833	0,1	0,263671
0,897500	0,1	0,302332
0,899167	0,1	0,271478
0,900833	0,1	0,319077
0,902500	0,1	0,252209
0,904167	0,1	0,308991
0,905833	0,1	0,297051
0,907500	0,1	0,323353
0,909167	0,1	0,333330
0,910833	0,1	0,302865
0,912500	0,1	0,307582
0,914167	0,1	0,290816
0,915833	0,1	0,322683
0,917500	0,1	0,315885
0,919167	0,1	0,304056
0,920833	0,1	0,287340
0,922500	0,1	0,343948
0,924167	0,1	0,321284
0,925833	0,1	0,368698
0,927500	0,1	0,339052
0,929167	0,1	0,301844
0,930833	0,1	0,343119
0,932500	0,1	0,330080
0,934167	0,1	0,342129
0,935833	0,1	0,327996
0,937500	0,1	0,314501
0,939167	0,1	0,379648
0,940833	0,1	0,326107
0,942500	0,1	0,371136
0,944167	0,1	0,311517
0,945833	0,1	0,339520
0,947500	0,1	0,325489
0,949167	0,1	0,343831
0,950833	0,1	0,327129
0,952500	0,1	0,372555
0,954167	0,1	0,374297
0,955833	0,1	0,359842
0,957500	0,1	0,327324
0,959167	0,1	0,363750
0,960833	0,1	0,377153
0,962500	0,1	0,353261
0,964167	0,1	0,363656
0,965833	0,1	0,398747
0,967500	0,1	0,392775
0,969167	0,1	0,389306
0,970833	0,1	0,367423
0,972500	0,1	0,409672
0,974167	0,1	0,381571
0,975833	0,1	0,377418
0,977500	0,1	0,351517
0,979167	0,1	0,407034
0,980833	0,1	0,403674
0,982500	0,1	0,398241
0,984167	0,1	0,437604
0,985833	0,1	0,358021
0,987500	0,1	0,375606
0,989167	0,1	0,414943
0,990833	0,1	0,409943
0,992500	0,1	0,434071
0,994167	0,1	0,452845
0,995833	0,1	0,406447
0,997500	0,1	0,445990
0,999167	0,1	0,398570
1,000833	0,1	0,447596
1,002500	0,1	0,440152
1,004167	0,1	0,458564
1,005833	0,1	0,451339
1,007500	0,1	0,446708
1,009167	0,1	0,498866
1,010833	0,1	0,501836
1,012500	0,1	0,447426
1,014167	0,1	0,500504
1,015833	0,1	0,490780
1,017500	0,1	0,500258
1,019167	0,1	0,515365
1,020833	0,1	0,559821
1,022500	0,1	0,541413
1,024167	0,1	0,546295
1,025833	0,1	0,541379
1,027500	0,1	0,575964
1,029167	0,1	0,561958
1,030833	0,1	0,577284
1,032500	0,1	0,602780
1,034167	0,1	0,583341
1,035833	0,1	0,568098
1,037500	0,1	0,600817
1,039167	0,1	0,595617
1,040833	0,1	0,612044
1,042500	0,1	0,596970
1,044167	0,1	0,582535
1,045833	0,1	0,663992
1,047500	0,1	0,697710
1,049167	0,1	0,643029
1,050833	0,1	0,670081
1,052500	0,1	0,692537
1,054167	0,1	0,759706
1,055833	0,1	0,771652
1,057500	0,1	0,800349
1,059167	0,1	0,870852
1,060833	0,1	0,929084
1,062500	0,1	1,032518
1,064167	0,1	1,161631
1,065833	0,1	1,326833
1,067500	0,1	1,526219
1,069167	0,1	1,813282
1,070833	0,1	2,139922
1,072500	0,1	2,581310
1,074167	0,1	3,084048
1,075833	0,1	3,660493
1,077500	0,1	4,397350
1,079167	0,1	5,222904
1,080833	0,1	6,211586
1,082500	0,1	7,330580
1,084167	0,1	8,598961
1,085833	0,1	9,983837
1,087500	0,1	11,492614
1,089167	0,1	13,092580
1,090833	0,1	14,863464
1,092500	0,1	16,620742
1,094167	0,1	18,510192
1,095833	0,1	20,372581
1,097500	0,1	22,284437
1,099167	0,1	24,104329
1,100833	0,1	25,929748
1,102500	0,1	27,618032
1,104167	0,1	29,165448
1,105833	0,1	30,707445
1,107500	0,1	32,008586
1,109167	0,1	33,173662
1,110833	0,1	34,208180
1,112500	0,1	35,039435
1,114167	0,1	35,645761
1,115833	0,1	36,181529
1,117500	0,1	36,567731
1,119167	0,1	36,697045
1,120833	0,1	36,795364
1,122500	0,1	36,697334
1,124167	0,1	36,545026
1,125833	0,1	36,282245
1,127500	0,1	35,953805
1,129167	0,1	35,620672
1,130833	0,1	35,212603
1,132500	0,1	34,735640
1,134167	0,1	34,278406
1,135833	0,1	33,868130
1,137500	0,1	33,365207
1,139167	0,1	32,969914
1,140833	0,1	32,582153
1,142500	0,1	32,250547
1,144167	0,1	31,931285
1,145833	0,1	31,700547
1,147500	0,1	31,566837
1,149167	0,1	31,490137
1,150833	0,1	31,463610
1,152500	0,1	31,553731
1,154167	0,1	31,657981
1,155833	0,1	31,872797
1,157500	0,1	32,052106
1,159167	0,1	32,468029
1,160833	0,1	32,837365
1,162500	0,1	33,325605
1,164167	0,1	33,776032
1,165833	0,1	34,269565
1,167500	0,1	34,814512
1,169167	0,1	35,333629
1,170833	0,1	35,900561
1,172500	0,1	36,456861
1,174167	0,1	36,956520
1,175833	0,1	37,470060
1,177500	0,1	37,967642
1,179167	0,1	38,419428
1,180833	0,1	38,801030
1,182500	0,1	39,171031
1,184167	0,1	39,497525
1,185833	0,1	39,845883
1,187500	0,1	40,073107
1,189167	0,1	40,327877
1,190833	0,1	40,575526
1,192500	0,1	40,797848
1,194167	0,1	41,061901
1,195833	0,1	41,353822
1,197500	0,1	41,652977
1,199167	0,1	42,064088
1,200833	0,1	42,502594
1,202500	0,1	43,141229
1,204167	0,1	43,895938
1,205833	0,1	44,786820
1,207500	0,1	45,846100
1,209167	0,1	47,145324
1,210833	0,1	48,658028
1,212500	0,1	50,311698
1,214167	0,1	52,257681
1,215833	0,1	54,432676
1,217500	0,1	56,811042
1,219167	0,1	59,382219
1,220833	0,1	62,209935
1,222500	0,1	65,196043
1,224167	0,1	68,229443
1,225833	0,1	71,495653
1,227500	0,1	74,811654
1,229167	0,1	78,170095
1,230833	0,1	81,575839
1,232500	0,1	84,859222
1,234167	0,1	88,182772
1,235833	0,1	91,469693
1,237500	0,1	94,518843
1,239167	0,1	97,445366
1,240833	0,1	100,201109
1,242500	0,1	102,842537
1,244167	0,1	105,172667
1,245833	0,1	107,308485
1,247500	0,1	109,186468
1,249167	0,1	110,761679
1,250833	0,1	112,187872
1,252500	0,1	113,302108
1,254167	0,1	114,166255
1,255833	0,1	114,804823
1,257500	0,1	115,136850
1,259167	0,1	115,252893
1,260833	0,1	115,088247
1,262500	0,1	114,713096
1,264167	0,1	114,111984
1,265833	0,1	113,279317
1,267500	0,1	112,231581
1,269167	0,1	111,061934
1,270833	0,1	109,653290
1,272500	0,1	108,029062
1,274167	0,1	106,264342
1,275833	0,1	104,427086
1,277500	0,1	102,453810
1,279167	0,1	100,315024
1,280833	0,1	98,088140
1,282500	0,1	95,780405
1,284167	0,1	93,440884
1,285833	0,1	91,056969
1,287500	0,1	88,644361
1,289167	0,1	86,178212
1,290833	0,1	83,753918
1,292500	0,1	81,287683
1,294167	0,1	78,913866
1,295833	0,1	76,472185
1,297500	0,1	74,106642
1,299167	0,1	71,786314
1,300833	0,1	69,541174
1,302500	0,1	67,324495
1,304167	0,1	65,165383
1,305833	0,1	63,099814
1,307500	0,1	61,068307
1,309167	0,1	59,186995
1,310833	0,1	57,328715
1,312500	0,1	55,487852
1,314167	0,1	53,814324
1,315833	0,1	52,117538
1,317500	0,1	50,567998
1,319167	0,1	49,074760
1,320833	0,1	47,609675
1,322500	0,1	46,215998
1,324167	0,1	44,915871
1,325833	0,1	43,587074
1,327500	0,1	42,398253
1,329167	0,1	41,240827
1,330833	0,1	40,116296
1,332500	0,1	39,065749
1,334167	0,1	38,034598
1,335833	0,1	37,029372
1,337500	0,1	36,081370
1,339167	0,1	35,137323
1,340833	0,1	34,265109
1,342500	0,1	33,442358
1,344167	0,1	32,600118
1,345833	0,1	31,828772
1,347500	0,1	31,032019
1,349167	0,1	30,258763
1,350833	0,1	29,562553
1,352500	0,1	28,842147
1,354167	0,1	28,167057
1,355833	0,1	27,490895
1,357500	0,1	26,829490
1,359167	0,1	26,218721
1,360833	0,1	25,620630
1,362500	0,1	24,990634
1,364167	0,1	24,430009
1,365833	0,1	23,862624
1,367500	0,1	23,362035
1,369167	0,1	22,772692
1,370833	0,1	22,243019
1,372500	0,1	21,702642
1,374167	0,1	21,189335
1,375833	0,1	20,739668
1,377500	0,1	20,286841
1,379167	0,1	19,782569
1,380833	0,1	19,333101
1,382500	0,1	18,945216
1,384167	0,1	18,489690
1,385833	0,1	18,071991
1,387500	0,1	17,628852
1,389167	0,1	17,258964
1,390833	0,1	16,877032
1,392500	0,1	16,507845
1,394167	0,1	16,165235
1,395833	0,1	15,786147
1,397500	0,1	15,487751
1,399167	0,1	15,163114
1,400833	0,1	14,802275
1,402500	0,1	14,564328
1,404167	0,1	14,243065
1,405833	0,1	13,979751
1,407500	0,1	13,706786
1,409167	0,1	13,415215
1,410833	0,1	13,143611
1,412500	0,1	12,973953
1,414167	0,1	12,719993
1,415833	0,1	12,497208
1,417500	0,1	12,256311
1,419167	0,1	12,025216
1,420833	0,1	11,838471
1,422500	0,1	11,645624
1,424167	0,1	11,444233
1,425833	0,1	11,322419
1,427500	0,1	11,062967
1,429167	0,1	10,950561
1,430833	0,1	10,740000
1,432500	0,1	10,607636
1,434167	0,1	10,457848
1,435833	0,1	10,264606
1,437500	0,1	10,107138
1,439167	0,1	9,969854
1,440833	0,1	9,847544
1,442500	0,1	9,696639
1,444167	0,1	9,523287
1,445833	0,1	9,372187
1,447500	0,1	9,285770
1,449167	0,1	9,190312
1,450833	0,1	9,025245
1,452500	0,1	8,917602
1,454167	0,1	8,804342
1,455833	0,1	8,682491
1,457500	0,1	8,540321
1,459167	0,1	8,463972
1,460833	0,1	8,339927
1,462500	0,1	8,223073
1,464167	0,1	8,132707
1,465833	0,1	8,032512
1,467500	0,1	7,930572
1,469167	0,1	7,821463
1,470833	0,1	7,773720
1,472500	0,1	7,670629
1,474167	0,1	7,580165
1,475833	0,1	7,552314
1,477500	0,1	7,426533
1,479167	0,1	7,375832
1,480833	0,1	7,339626
1,482500	0,1	7,274524
1,484167	0,1	7,170804
1,485833	0,1	7,152691
1,487500	0,1	7,125833
1,489167	0,1	7,082566
1,490833	0,1	6,997168
1,492500	0,1	6,989319
1,494167	0,1	6,936098
1,495833	0,1	6,933381
1,497500	0,1	6,898437
1,499167	0,1	6,825742
1,500833	0,1	6,841664
1,502500	0,1	6,810548
1,504167	0,1	6,805415
1,505833	0,1	6,718499
1,507500	0,1	6,773621
1,509167	0,1	6,746154
1,510833	0,1	6,708790
1,512500	0,1	6,737753
1,514167	0,1	6,696776
1,515833	0,1	6,713627
1,517500	0,1	6,655227
1,519167	0,1	6,645440
1,520833	0,1	6,605665
1,522500	0,1	6,625300
1,524167	0,1	6,629227
1,525833	0,1	6,579764
1,527500	0,1	6,587770
1,529167	0,1	6,608357
1,530833	0,1	6,541693
1,532500	0,1	6,561413
1,534167	0,1	6,552032
1,535833	0,1	6,495201
1,537500	0,1	6,482077
1,539167	0,1	6,500512
1,540833	0,1	6,480602
1,542500	0,1	6,423698
1,544167	0,1	6,406942
1,545833	0,1	6,408993
1,547500	0,1	6,391022
1,549167	0,1	6,358901
1,550833	0,1	6,343901
1,552500	0,1	6,260503
1,554167	0,1	6,304418
1,555833	0,1	6,241437
1,557500	0,1	6,201590
1,559167	0,1	6,180561
1,560833	0,1	6,181590
1,562500	0,1	6,132725
1,564167	0,1	6,109375
1,565833	0,1	6,115524
1,567500	0,1	6,081106
1,569167	0,1	6,065779
1,570833	0,1	5,997467
1,572500	0,1	5,990527
1,574167	0,1	5,968998
1,575833	0,1	5,894338
1,577500	0,1	5,895251
1,579167	0,1	5,865932
1,580833	0,1	5,831646
1,582500	0,1	5,782608
1,584167	0,1	5,782281
1,585833	0,1	5,730814
1,587500	0,1	5,682606
1,589167	0,1	5,684778
1,590833	0,1	5,631965
1,592500	0,1	5,598199
1,594167	0,1	5,588433
1,595833	0,1	5,593350
1,597500	0,1	5,510636
1,599167	0,1	5,468526
1,600833	0,1	5,425459
1,602500	0,1	5,417906
1,604167	0,1	5,367395
1,605833	0,1	5,348226
1,607500	0,1	5,316521
1,609167	0,1	5,250418
1,610833	0,1	5,229181
1,612500	0,1	5,207111
1,614167	0,1	5,202472
1,615833	0,1	5,169025
1,617500	0,1	5,121590
1,619167	0,1	5,123470
1,620833	0,1	5,064414
1,622500	0,1	5,040114
1,624167	0,1	5,021778
1,625833	0,1	4,999467
1,627500	0,1	4,915063
1,629167	0,1	4,923148
1,630833	0,1	4,913494
1,632500	0,1	4,856805
1,634167	0,1	4,832519
1,635833	0,1	4,816731
1,637500	0,1	4,762931
1,639167	0,1	4,719761
1,640833	0,1	4,683289
1,642500	0,1	4,717430
1,644167	0,1	4,684040
1,645833	0,1	4,639550
1,647500	0,1	4,614798
1,649167	0,1	4,642683
1,650833	0,1	4,588641
1,652500	0,1	4,578731
1,654167	0,1	4,550465
1,655833	0,1	4,549727
1,657500	0,1	4,488580
1,659167	0,1	4,512411
1,660833	0,1	4,526881
1,662500	0,1	4,488246
1,664167	0,1	4,507988
1,665833	0,1	4,455493
1,667500	0,1	4,488318
1,669167	0,1	4,489459
1,670833	0,1	4,484024
1,672500	0,1	4,496794
1,674167	0,1	4,506610
1,675833	0,1	4,522550
1,677500	0,1	4,542583
1,679167	0,1	4,548747
1,680833	0,1	4,560262
1,682500	0,1	4,595631
1,684167	0,1	4,588146
1,685833	0,1	4,630525
1,687500	0,1	4,717533
1,689167	0,1	4,721235
1,690833	0,1	4,790838
1,692500	0,1	4,803122
1,694167	0,1	4,802609
1,695833	0,1	4,848452
1,697500	0,1	4,908168
1,699167	0,1	4,936418
1,700833	0,1	5,019181
1,702500	0,1	5,019007
1,704167	0,1	5,098507
1,705833	0,1	5,113128
1,707500	0,1	5,187026
1,709167	0,1	5,231339
1,710833	0,1	5,257830
1,712500	0,1	5,289619
1,714167	0,1	5,332499
1,715833	0,1	5,383210
1,717500	0,1	5,448427
1,719167	0,1	5,435048
1,720833	0,1	5,532532
1,722500	0,1	5,515196
1,724167	0,1	5,530037
1,725833	0,1	5,617728
1,727500	0,1	5,610466
1,729167	0,1	5,644735
1,730833	0,1	5,670742
1,732500	0,1	5,688338
1,734167	0,1	5,704451
1,735833	0,1	5,719680
1,737500	0,1	5,718120
1,739167	0,1	5,700147
1,740833	0,1	5,753739
1,742500	0,1	5,761542
1,744167	0,1	5,742464
1,745833	0,1	5,747982
1,747500	0,1	5,775995
1,749167	0,1	5,751981
1,750833	0,1	5,705030
1,752500	0,1	5,689406
1,754167	0,1	5,694781
1,755833	0,1	5,660587
1,757500	0,1	5,609282
1,759167	0,1	5,591255
1,760833	0,1	5,555742
1,762500	0,1	5,539411
1,764167	0,1	5,518339
1,765833	0,1	5,471692
1,767500	0,1	5,444180
1,769167	0,1	5,430740
1,770833	0,1	5,362396
1,772500	0,1	5,312111
1,774167	0,1	5,309464
1,775833	0,1	5,211934
1,777500	0,1	5,205328
1,779167	0,1	5,136992
1,780833	0,1	5,095483
1,782500	0,1	5,038907
1,784167	0,1	5,001079
1,785833	0,1	4,922658
1,787500	0,1	4,888736
1,789167	0,1	4,846327
1,790833	0,1	4,787206
1,792500	0,1	4,710384
1,794167	0,1	4,651520
1,795833	0,1	4,594685
1,797500	0,1	4,597267
1,799167	0,1	4,491350
1,800833	0,1	4,443043
1,802500	0,1	4,393531
1,804167	0,1	4,374868
1,805833	0,1	4,287768
1,807500	0,1	4,246090
1,809167	0,1	4,223066
1,810833	0,1	4,131244
1,812500	0,1	4,081037
1,814167	0,1	4,065070
1,815833	0,1	3,973448
1,817500	0,1	3,967559
1,819167	0,1	3,855356
1,820833	0,1	3,837475
1,822500	0,1	3,761771
1,824167	0,1	3,725820
1,825833	0,1	3,705297
1,827500	0,1	3,596056
1,829167	0,1	3,602269
1,830833	0,1	3,588315
1,832500	0,1	3,486141
1,834167	0,1	3,486791
1,835833	0,1	3,481846
1,837500	0,1	3,450239
1,839167	0,1	3,368262
1,840833	0,1	3,377085
1,842500	0,1	3,372403
1,844167	0,1	3,392621
1,845833	0,1	3,351031
1,847500	0,1	3,386478
1,849167	0,1	3,383529
1,850833	0,1	3,375955
1,852500	0,1	3,425178
1,854167	0,1	3,467359
1,855833	0,1	3,495305
1,857500	0,1	3,528941
1,859167	0,1	3,538375
1,860833	0,1	3,592131
1,862500	0,1	3,597531
1,864167	0,1	3,649923
1,865833	0,1	3,714835
1,867500	0,1	3,730216
1,869167	0,1	3,744467
1,870833	0,1	3,843120
1,872500	0,1	3,804077
1,874167	0,1	3,911391
1,875833	0,1	3,924704
1,877500	0,1	4,007880
1,879167	0,1	4,008717
1,880833	0,1	4,029074
1,882500	0,1	4,036544
1,884167	0,1	4,118889
1,885833	0,1	4,102095
1,887500	0,1	4,155806
1,889167	0,1	4,196220
1,890833	0,1	4,234720
1,892500	0,1	4,274524
1,894167	0,1	4,269751
1,895833	0,1	4,307763
1,897500	0,1	4,322930
1,899167	0,1	4,323059
1,900833	0,1	4,371248
1,902500	0,1	4,425741
1,904167	0,1	4,447117
1,905833	0,1	4,448016
1,907500	0,1	4,439304
1,909167	0,1	4,437963
1,910833	0,1	4,487993
1,912500	0,1	4,510383
1,914167	0,1	4,534228
1,915833	0,1	4,585206
1,917500	0,1	4,590045
1,919167	0,1	4,590575
1,920833	0,1	4,591581
1,922500	0,1	4,591014
1,924167	0,1	4,605489
1,925833	0,1	4,603357
1,927500	0,1	4,622693
1,929167	0,1	4,648559
1,930833	0,1	4,642502
1,932500	0,1	4,598930
1,934167	0,1	4,621360
1,935833	0,1	4,595657
1,937500	0,1	4,622042
1,939167	0,1	4,600991
1,940833	0,1	4,608866
1,942500	0,1	4,564591
1,944167	0,1	4,604563
1,945833	0,1	4,557196
1,947500	0,1	4,589142
1,949167	0,1	4,577433
1,950833	0,1	4,561529
1,952500	0,1	4,566726
1,954167	0,1	4,529334
1,955833	0,1	4,580700
1,957500	0,1	4,582093
1,959167	0,1	4,553589
1,960833	0,1	4,565261
1,962500	0,1	4,573205
1,964167	0,1	4,501931
1,965833	0,1	4,538932
1,967500	0,1	4,530671
1,969167	0,1	4,508775
1,970833	0,1	4,541365
1,972500	0,1	4,513839
1,974167	0,1	4,529888
1,975833	0,1	4,491662
1,977500	0,1	4,517118
1,979167	0,1	4,519472
1,980833	0,1	4,471920
1,982500	0,1	4,517754
1,984167	0,1	4,570032
1,985833	0,1	4,535942
1,987500	0,1	4,570156
1,989167	0,1	4,561455
1,990833	0,1	4,578030
1,992500	0,1	4,618381
1,994167	0,1	4,571813
1,995833	0,1	4,572650
1,997500	0,1	4,618473
1,999167	0,1	4,613612
2,000833	0,1	4,593543
2,002500	0,1	4,638182
2,004167	0,1	4,628024
2,005833	0,1	4,657141
2,007500	0,1	4,614848
2,009167	0,1	4,662012
2,010833	0,1	4,679616
2,012500	0,1	4,705015
2,014167	0,1	4,711544
2,015833	0,1	4,723709
2,017500	0,1	4,752807
2,019167	0,1	4,771454
2,020833	0,1	4,792815
2,022500	0,1	4,799978
2,024167	0,1	4,785032
2,025833	0,1	4,808249
2,027500	0,1	4,880686
2,029167	0,1	4,851937
2,030833	0,1	4,873859
2,032500	0,1	4,924627
2,034167	0,1	4,914366
2,035833	0,1	4,957872
2,037500	0,1	4,955201
2,039167	0,1	4,991545
2,040833	0,1	5,043058
2,042500	0,1	5,031465
2,044167	0,1	5,042193
2,045833	0,1	5,078825
2,047500	0,1	5,079963
2,049167	0,1	5,117220
2,050833	0,1	5,159965
2,052500	0,1	5,175855
2,054167	0,1	5,176931
2,055833	0,1	5,273243
2,057500	0,1	5,220405
2,059167	0,1	5,268677
2,060833	0,1	5,306948
2,062500	0,1	5,329253
2,064167	0,1	5,361979
2,065833	0,1	5,333704
2,067500	0,1	5,390336
2,069167	0,1	5,420232
2,070833	0,1	5,408670
2,072500	0,1	5,458921
2,074167	0,1	5,453319
2,075833	0,1	5,507026
2,077500	0,1	5,531142
2,079167	0,1	5,579637
2,080833	0,1	5,571435
2,082500	0,1	5,641433
2,084167	0,1	5,617774
2,085833	0,1	5,609775
2,087500	0,1	5,651790
2,089167	0,1	5,671547
2,090833	0,1	5,707505
2,092500	0,1	5,706775
2,094167	0,1	5,731866
2,095833	0,1	5,724716
2,097500	0,1	5,726121
2,099167	0,1	5,764805
2,100833	0,1	5,767137
2,102500	0,1	5,787639
2,104167	0,1	5,825578
2,105833	0,1	5,817197
2,107500	0,1	5,839339
2,109167	0,1	5,853500
2,110833	0,1	5,822850
2,112500	0,1	5,871227
2,114167	0,1	5,894635
2,115833	0,1	5,890327
2,117500	0,1	5,918311
2,119167	0,1	5,938197
2,120833	0,1	5,922019
2,122500	0,1	5,964426
2,124167	0,1	5,918297
2,125833	0,1	5,948700
2,127500	0,1	5,958100
2,129167	0,1	5,962747
2,130833	0,1	5,976152
2,132500	0,1	5,926793
2,134167	0,1	5,961792
2,135833	0,1	5,981257
2,137500	0,1	5,944633
2,139167	0,1	5,943588
2,140833	0,1	5,972494
2,142500	0,1	5,991954
2,144167	0,1	5,957268
2,145833	0,1	5,945752
2,147500	0,1	5,974863
2,149167	0,1	5,960992
2,150833	0,1	5,995710
2,152500	0,1	5,959798
2,154167	0,1	5,953577
2,155833	0,1	5,925468
2,157500	0,1	5,930195
2,159167	0,1	5,918095
2,160833	0,1	5,930667
2,162500	0,1	5,934264
2,164167	0,1	5,912744
2,165833	0,1	5,890331
2,167500	0,1	5,894882
2,169167	0,1	5,904556
2,170833	0,1	5,855908
2,172500	0,1	5,830782
2,174167	0,1	5,876028
2,175833	0,1	5,845436
2,177500	0,1	5,825979
2,179167	0,1	5,827134
2,180833	0,1	5,834626
2,182500	0,1	5,816568
2,184167	0,1	5,785487
2,185833	0,1	5,752229
2,187500	0,1	5,760696
2,189167	0,1	5,753999
2,190833	0,1	5,756425
2,192500	0,1	5,723722
2,194167	0,1	5,740996
2,195833	0,1	5,724806
2,197500	0,1	5,693206
2,199167	0,1	5,683742
2,200833	0,1	5,696168
2,202500	0,1	5,644500
2,204167	0,1	5,636530
2,205833	0,1	5,652204
2,207500	0,1	5,617240
2,209167	0,1	5,601187
2,210833	0,1	5,618112
2,212500	0,1	5,615428
2,214167	0,1	5,595117
2,215833	0,1	5,588541
2,217500	0,1	5,577549
2,219167	0,1	5,565495
2,220833	0,1	5,578888
2,222500	0,1	5,588885
2,224167	0,1	5,567860
2,225833	0,1	5,573383
2,227500	0,1	5,566121
2,229167	0,1	5,534124
2,230833	0,1	5,537802
2,232500	0,1	5,596502
2,234167	0,1	5,567103
2,235833	0,1	5,583483
2,237500	0,1	5,557866
2,239167	0,1	5,562671
2,240833	0,1	5,565554
2,242500	0,1	5,573556
2,244167	0,1	5,584158
2,245833	0,1	5,610110
2,247500	0,1	5,564222
2,249167	0,1	5,594735
2,250833	0,1	5,572153
2,252500	0,1	5,606118
2,254167	0,1	5,591970
2,255833	0,1	5,637295
2,257500	0,1	5,615848
2,259167	0,1	5,590411
2,260833	0,1	5,598360
2,262500	0,1	5,609744
2,264167	0,1	5,621562
2,265833	0,1	5,634312
2,267500	0,1	5,616626
2,269167	0,1	5,614194
2,270833	0,1	5,599190
2,272500	0,1	5,630859
2,274167	0,1	5,611161
2,275833	0,1	5,602592
2,277500	0,1	5,586701
2,279167	0,1	5,593375
2,280833	0,1	5,636994
2,282500	0,1	5,570885
2,284167	0,1	5,598768
2,285833	0,1	5,602979
2,287500	0,1	5,563570
2,289167	0,1	5,545635
2,290833	0,1	5,550420
2,292500	0,1	5,553739
2,294167	0,1	5,551462
2,295833	0,1	5,516478
2,297500	0,1	5,486970
2,299167	0,1	5,523614
2,300833	0,1	5,486063
2,302500	0,1	5,472725
2,304167	0,1	5,495088
2,305833	0,1	5,411436
2,307500	0,1	5,417291
2,309167	0,1	5,408080
2,310833	0,1	5,390440
2,312500	0,1	5,452095
2,314167	0,1	5,385078
2,315833	0,1	5,398111
2,317500	0,1	5,394691
2,319167	0,1	5,307749
2,320833	0,1	5,345896
2,322500	0,1	5,354243
2,324167	0,1	5,293542
2,325833	0,1	5,294581
2,327500	0,1	5,265216
2,329167	0,1	5,212094
2,330833	0,1	5,260791
2,332500	0,1	5,214611
2,334167	0,1	5,222674
2,335833	0,1	5,185021
2,337500	0,1	5,174275
2,339167	0,1	5,172607
2,340833	0,1	5,146928
2,342500	0,1	5,147712
2,344167	0,1	5,110400
2,345833	0,1	5,083022
2,347500	0,1	5,046467
2,349167	0,1	5,059650
2,350833	0,1	5,066713
2,352500	0,1	5,083915
2,354167	0,1	5,031138
2,355833	0,1	4,972777
2,357500	0,1	4,935187
2,359167	0,1	4,918326
2,360833	0,1	4,927413
2,362500	0,1	4,901861
2,364167	0,1	4,904817
2,365833	0,1	4,880291
2,367500	0,1	4,910467
2,369167	0,1	4,873003
2,370833	0,1	4,866816
2,372500	0,1	4,863916
2,374167	0,1	4,846603
2,375833	0,1	4,851542
2,377500	0,1	4,820798
2,379167	0,1	4,841496
2,380833	0,1	4,843351
2,382500	0,1	4,823161
2,384167	0,1	4,829033
2,385833	0,1	4,855684
2,387500	0,1	4,829174
2,389167	0,1	4,859613
2,390833	0,1	4,883412
2,392500	0,1	4,913484
2,394167	0,1	4,930772
2,395833	0,1	4,954551
2,397500	0,1	4,992363
2,399167	0,1	5,028628
2,400833	0,1	5,095345
2,402500	0,1	5,077312
2,404167	0,1	5,173713
2,405833	0,1	5,222128
2,407500	0,1	5,230251
2,409167	0,1	5,361059
2,410833	0,1	5,451737
2,412500	0,1	5,536611
2,414167	0,1	5,630046
2,415833	0,1	5,734255
2,417500	0,1	5,823629
2,419167	0,1	5,971385
2,420833	0,1	6,033989
2,422500	0,1	6,189717
2,424167	0,1	6,322190
2,425833	0,1	6,480838
2,427500	0,1	6,623043
2,429167	0,1	6,779092
2,430833	0,1	6,940802
2,432500	0,1	7,113757
2,434167	0,1	7,278942
2,435833	0,1	7,444954
2,437500	0,1	7,608013
2,439167	0,1	7,829242
2,440833	0,1	7,964720
2,442500	0,1	8,189900
2,444167	0,1	8,334269
2,445833	0,1	8,551547
2,447500	0,1	8,706135
2,449167	0,1	8,868478
2,450833	0,1	9,061766
2,452500	0,1	9,240647
2,454167	0,1	9,422227
2,455833	0,1	9,567536
2,457500	0,1	9,732131
2,459167	0,1	9,924146
2,460833	0,1	10,030053
2,462500	0,1	10,159430
2,464167	0,1	10,358009
2,465833	0,1	10,472962
2,467500	0,1	10,577911
2,469167	0,1	10,760477
2,470833	0,1	10,840440
2,472500	0,1	10,935150
2,474167	0,1	11,053218
2,475833	0,1	11,159427
2,477500	0,1	11,211735
2,479167	0,1	11,316675
2,480833	0,1	11,374149
2,482500	0,1	11,458986
2,484167	0,1	11,566333
2,485833	0,1	11,589373
2,487500	0,1	11,637764
2,489167	0,1	11,685218
2,490833	0,1	11,707267
2,492500	0,1	11,760202
2,494167	0,1	11,816604
2,495833	0,1	11,853020
2,497500	0,1	11,867429
2,499167	0,1	11,901240
2,500833	0,1	11,926637
2,502500	0,1	11,945005
2,504167	0,1	11,929899
2,505833	0,1	11,956648
2,507500	0,1	11,959642
2,509167	0,1	12,009298
2,510833	0,1	11,984067
2,512500	0,1	12,075043
2,514167	0,1	12,031033
2,515833	0,1	12,065579
2,517500	0,1	12,085043
2,519167	0,1	12,123338
2,520833	0,1	12,118220
2,522500	0,1	12,145093
2,524167	0,1	12,110652
2,525833	0,1	12,148819
2,527500	0,1	12,156404
2,529167	0,1	12,178349
2,530833	0,1	12,219487
2,532500	0,1	12,235153
2,534167	0,1	12,229837
2,535833	0,1	12,314639
2,537500	0,1	12,338825
2,539167	0,1	12,333708
2,540833	0,1	12,342059
2,542500	0,1	12,417642
2,544167	0,1	12,401153
2,545833	0,1	12,432263
2,547500	0,1	12,486024
2,549167	0,1	12,476904
2,550833	0,1	12,499061
2,552500	0,1	12,523398
2,554167	0,1	12,542805
2,555833	0,1	12,593731
2,557500	0,1	12,591254
2,559167	0,1	12,601911
2,560833	0,1	12,649861
2,562500	0,1	12,673347
2,564167	0,1	12,694658
2,565833	0,1	12,694089
2,567500	0,1	12,696138
2,569167	0,1	12,694090
2,570833	0,1	12,701142
2,572500	0,1	12,737486
2,574167	0,1	12,689591
2,575833	0,1	12,723446
2,577500	0,1	12,686705
2,579167	0,1	12,672153
2,580833	0,1	12,653336
2,582500	0,1	12,656109
2,584167	0,1	12,684447
2,585833	0,1	12,599053
2,587500	0,1	12,577222
2,589167	0,1	12,573287
2,590833	0,1	12,554525
2,592500	0,1	12,492967
2,594167	0,1	12,467878
2,595833	0,1	12,443355
2,597500	0,1	12,332030
2,599167	0,1	12,351760
2,600833	0,1	12,262880
2,602500	0,1	12,220478
2,604167	0,1	12,133700
2,605833	0,1	12,096631
2,607500	0,1	12,044355
2,609167	0,1	11,991192
2,610833	0,1	11,935314
2,612500	0,1	11,820016
2,614167	0,1	11,768301
2,615833	0,1	11,694342
2,617500	0,1	11,611825
2,619167	0,1	11,528584
2,620833	0,1	11,454593
2,622500	0,1	11,398953
2,624167	0,1	11,314310
2,625833	0,1	11,237018
2,627500	0,1	11,112892
2,629167	0,1	11,068011
2,630833	0,1	10,946014
2,632500	0,1	10,876308
2,634167	0,1	10,783088
2,635833	0,1	10,674922
2,637500	0,1	10,546054
2,639167	0,1	10,481561
2,640833	0,1	10,364155
2,642500	0,1	10,276366
2,644167	0,1	10,146572
2,645833	0,1	10,092130
2,647500	0,1	9,917326
2,649167	0,1	9,833425
2,650833	0,1	9,769282
2,652500	0,1	9,676097
2,654167	0,1	9,514816
2,655833	0,1	9,429333
2,657500	0,1	9,332771
2,659167	0,1	9,194253
2,660833	0,1	9,115713
2,662500	0,1	8,980060
2,664167	0,1	8,905720
2,665833	0,1	8,756082
2,667500	0,1	8,620007
2,669167	0,1	8,518097
2,670833	0,1	8,464531
2,672500	0,1	8,361128
2,674167	0,1	8,236387
2,675833	0,1	8,140167
2,677500	0,1	8,048570
2,679167	0,1	7,915801
2,680833	0,1	7,822332
2,682500	0,1	7,725171
2,684167	0,1	7,595216
2,685833	0,1	7,490091
2,687500	0,1	7,365506
2,689167	0,1	7,304929
2,690833	0,1	7,194028
2,692500	0,1	7,094423
2,694167	0,1	7,003322
2,695833	0,1	6,896958
2,697500	0,1	6,814192
2,699167	0,1	6,726885
2,700833	0,1	6,626369
2,702500	0,1	6,526608
2,704167	0,1	6,436923
2,705833	0,1	6,373166
2,707500	0,1	6,307263
2,709167	0,1	6,156122
2,710833	0,1	6,104198
2,712500	0,1	6,004400
2,714167	0,1	5,945883
2,715833	0,1	5,840284
2,717500	0,1	5,781537
2,719167	0,1	5,673337
2,720833	0,1	5,598183
2,722500	0,1	5,541828
2,724167	0,1	5,437067
2,725833	0,1	5,405493
2,727500	0,1	5,343712
2,729167	0,1	5,258531
2,730833	0,1	5,179604
2,732500	0,1	5,147806
2,734167	0,1	5,066565
2,735833	0,1	5,040140
2,737500	0,1	4,986507
2,739167	0,1	4,904586
2,740833	0,1	4,849159
2,742500	0,1	4,792833
2,744167	0,1	4,740523
2,745833	0,1	4,653709
2,747500	0,1	4,657016
2,749167	0,1	4,578949
2,750833	0,1	4,510523
2,752500	0,1	4,483470
2,754167	0,1	4,425235
2,755833	0,1	4,392715
2,757500	0,1	4,342366
2,759167	0,1	4,296838
2,760833	0,1	4,275917
2,762500	0,1	4,227246
2,764167	0,1	4,184082
2,765833	0,1	4,167667
2,767500	0,1	4,116901
2,769167	0,1	4,055480
2,770833	0,1	4,018768
2,772500	0,1	4,045008
2,774167	0,1	3,948095
2,775833	0,1	3,923246
2,777500	0,1	3,865108
2,779167	0,1	3,813703
2,780833	0,1	3,827703
2,782500	0,1	3,789713
2,784167	0,1	3,757766
2,785833	0,1	3,739418
2,787500	0,1	3,695047
2,789167	0,1	3,711480
2,790833	0,1	3,602453
2,792500	0,1	3,617837
2,794167	0,1	3,588602
2,795833	0,1	3,570521
2,797500	0,1	3,555810
2,799167	0,1	3,503325
2,800833	0,1	3,469216
2,802500	0,1	3,447335
2,804167	0,1	3,430093
2,805833	0,1	3,400245
2,807500	0,1	3,416231
2,809167	0,1	3,345839
2,810833	0,1	3,271085
2,812500	0,1	3,284059
2,814167	0,1	3,267759
2,815833	0,1	3,262997
2,817500	0,1	3,256757
2,819167	0,1	3,183019
2,820833	0,1	3,170980
2,822500	0,1	3,160571
2,824167	0,1	3,147216
2,825833	0,1	3,094226
2,827500	0,1	3,062852
2,829167	0,1	3,123743
2,830833	0,1	3,072524
2,832500	0,1	3,023045
2,834167	0,1	2,959558
2,835833	0,1	2,959184
2,837500	0,1	2,930575
2,839167	0,1	2,963551
2,840833	0,1	2,899239
2,842500	0,1	2,915516
2,844167	0,1	2,876383
2,845833	0,1	2,872175
2,847500	0,1	2,808778
2,849167	0,1	2,801556
2,850833	0,1	2,775223
2,852500	0,1	2,773999
2,854167	0,1	2,798181
2,855833	0,1	2,741899
2,857500	0,1	2,721783
2,859167	0,1	2,708561
2,860833	0,1	2,715599
2,862500	0,1	2,648361
2,864167	0,1	2,618484
2,865833	0,1	2,635910
2,867500	0,1	2,616258
2,869167	0,1	2,645247
2,870833	0,1	2,581808
2,872500	0,1	2,551591
2,874167	0,1	2,562343
2,875833	0,1	2,575461
2,877500	0,1	2,521163
2,879167	0,1	2,479744
2,880833	0,1	2,483109
2,882500	0,1	2,458355
2,884167	0,1	2,482670
2,885833	0,1	2,427227
2,887500	0,1	2,434810
2,889167	0,1	2,445069
2,890833	0,1	2,394356
2,892500	0,1	2,352675
2,894167	0,1	2,379198
2,895833	0,1	2,376978
2,897500	0,1	2,329288
2,899167	0,1	2,322319
2,900833	0,1	2,308690
2,902500	0,1	2,291978
2,904167	0,1	2,335861
2,905833	0,1	2,265664
2,907500	0,1	2,236318
2,909167	0,1	2,244273
2,910833	0,1	2,252233
2,912500	0,1	2,204408
2,914167	0,1	2,202102
2,915833	0,1	2,198805
2,917500	0,1	2,198731
2,919167	0,1	2,188551
2,920833	0,1	2,169046
2,922500	0,1	2,175854
2,924167	0,1	2,177432
2,925833	0,1	2,137572
2,927500	0,1	2,119209
2,929167	0,1	2,100998
2,930833	0,1	2,107873
2,932500	0,1	2,107306
2,934167	0,1	2,082286
2,935833	0,1	2,086151
2,937500	0,1	2,061277
2,939167	0,1	2,055896
2,940833	0,1	2,057755
2,942500	0,1	1,997770
2,944167	0,1	2,055166
2,945833	0,1	2,012678
2,947500	0,1	2,037392
2,949167	0,1	1,965013
2,950833	0,1	1,997819
2,952500	0,1	1,991812
2,954167	0,1	2,016750
2,955833	0,1	1,956406
2,957500	0,1	1,982550
2,959167	0,1	1,983563
2,960833	0,1	1,962570
2,962500	0,1	1,913980
2,964167	0,1	1,945998
2,965833	0,1	1,902580
2,967500	0,1	1,976955
2,969167	0,1	1,882386
2,970833	0,1	1,897987
2,972500	0,1	1,912816
2,974167	0,1	1,913964
2,975833	0,1	1,893978
2,977500	0,1	1,882578
2,979167	0,1	1,883660
2,980833	0,1	1,842382
2,982500	0,1	1,837149
2,984167	0,1	1,843231
2,985833	0,1	1,841293
2,987500	0,1	1,852119
2,989167	0,1	1,855774
2,990833	0,1	1,819955
2,992500	0,1	1,844657
2,994167	0,1	1,809356
2,995833	0,1	1,781690
2,997500	0,1	1,833266
2,999167	0,1	1,828905
3,000833	0,1	1,791435
3,002500	0,1	1,761126
3,004167	0,1	1,760395
3,005833	0,1	1,809835
3,007500	0,1	1,802825
3,009167	0,1	1,787785
3,010833	0,1	1,769296
3,012500	0,1	1,762620
3,014167	0,1	1,748662
3,015833	0,1	1,760967
3,017500	0,1	1,723731
3,019167	0,1	1,722005
3,020833	0,1	1,735551
3,022500	0,1	1,773431
3,024167	0,1	1,746372
3,025833	0,1	1,739477
3,027500	0,1	1,710903
3,029167	0,1	1,729824
3,030833	0,1	1,696937
3,032500	0,1	1,699211
3,034167	0,1	1,729803
3,035833	0,1	1,735901
3,037500	0,1	1,697583
3,039167	0,1	1,662770
3,040833	0,1	1,713680
3,042500	0,1	1,710052
3,044167	0,1	1,691142
3,045833	0,1	1,677881
3,047500	0,1	1,714973
3,049167	0,1	1,682745
3,050833	0,1	1,681179
3,052500	0,1	1,676956
3,054167	0,1	1,683470
3,055833	0,1	1,688705
3,057500	0,1	1,661906
3,059167	0,1	1,700529
3,060833	0,1	1,636151
3,062500	0,1	1,646435
3,064167	0,1	1,640420
3,065833	0,1	1,678313
3,067500	0,1	1,605973
3,069167	0,1	1,640329
3,070833	0,1	1,660050
3,072500	0,1	1,622240
3,074167	0,1	1,647434
3,075833	0,1	1,636126
3,077500	0,1	1,624316
3,079167	0,1	1,662902
3,080833	0,1	1,649744
3,082500	0,1	1,657822
3,084167	0,1	1,617729
3,085833	0,1	1,644578
3,087500	0,1	1,639348
3,089167	0,1	1,640626
3,090833	0,1	1,624446
3,092500	0,1	1,646949
3,094167	0,1	1,674875
3,095833	0,1	1,613945
3,097500	0,1	1,613691
3,099167	0,1	1,656969
3,100833	0,1	1,650457
3,102500	0,1	1,637416
3,104167	0,1	1,668289
3,105833	0,1	1,665788
3,107500	0,1	1,621506
3,109167	0,1	1,659610
3,110833	0,1	1,652509
3,112500	0,1	1,655016
3,114167	0,1	1,705536
3,115833	0,1	1,669942
3,117500	0,1	1,701079
3,119167	0,1	1,681095
3,120833	0,1	1,712684
3,122500	0,1	1,732977
3,124167	0,1	1,760039
3,125833	0,1	1,760620
3,127500	0,1	1,717937
3,129167	0,1	1,751578
3,130833	0,1	1,770793
3,132500	0,1	1,767070
3,134167	0,1	1,765570
3,135833	0,1	1,842647
3,137500	0,1	1,824114
3,139167	0,1	1,765211
3,140833	0,1	1,835191
3,142500	0,1	1,876122
3,144167	0,1	1,848763
3,145833	0,1	1,840944
3,147500	0,1	1,868953
3,149167	0,1	1,907576
3,150833	0,1	1,962405
3,152500	0,1	1,942567
3,154167	0,1	1,933681
3,155833	0,1	1,944280
3,157500	0,1	1,958615
3,159167	0,1	1,956180
3,160833	0,1	1,993304
3,162500	0,1	2,003633
3,164167	0,1	2,053089
3,165833	0,1	1,989961
3,167500	0,1	1,989223
3,169167	0,1	2,007004
3,170833	0,1	2,039040
3,172500	0,1	2,077322
3,174167	0,1	2,082710
3,175833	0,1	2,075540
3,177500	0,1	2,095686
3,179167	0,1	2,101708
3,180833	0,1	2,098987
3,182500	0,1	2,119131
3,184167	0,1	2,081141
3,185833	0,1	2,119624
3,187500	0,1	2,114760
3,189167	0,1	2,095047
3,190833	0,1	2,098554
3,192500	0,1	2,106728
3,194167	0,1	2,157628
3,195833	0,1	2,143874
3,197500	0,1	2,139571
3,199167	0,1	2,140072
3,200833	0,1	2,155270
3,202500	0,1	2,105665
3,204167	0,1	2,123720
3,205833	0,1	2,132826
3,207500	0,1	2,135411
3,209167	0,1	2,105375
3,210833	0,1	2,135474
3,212500	0,1	2,123296
3,214167	0,1	2,078205
3,215833	0,1	2,128728
3,217500	0,1	2,123149
3,219167	0,1	2,080140
3,220833	0,1	2,100126
3,222500	0,1	2,135832
3,224167	0,1	2,066383
3,225833	0,1	2,093599
3,227500	0,1	2,037847
3,229167	0,1	2,053454
3,230833	0,1	2,034177
3,232500	0,1	2,039118
3,234167	0,1	2,012958
3,235833	0,1	2,007933
3,237500	0,1	2,017115
3,239167	0,1	2,037032
3,240833	0,1	1,993392
3,242500	0,1	1,984929
3,244167	0,1	2,002991
3,245833	0,1	1,951894
3,247500	0,1	1,956470
3,249167	0,1	1,950738
3,250833	0,1	1,918985
3,252500	0,1	1,910319
3,254167	0,1	1,883937
3,255833	0,1	1,902008
3,257500	0,1	1,847979
3,259167	0,1	1,868880
3,260833	0,1	1,856147
3,262500	0,1	1,839872
3,264167	0,1	1,822748
3,265833	0,1	1,787720
3,267500	0,1	1,829968
3,269167	0,1	1,752692
3,270833	0,1	1,772432
3,272500	0,1	1,745152
3,274167	0,1	1,777168
3,275833	0,1	1,732331
3,277500	0,1	1,750021
3,279167	0,1	1,702387
3,280833	0,1	1,689346
3,282500	0,1	1,705021
3,284167	0,1	1,666719
3,285833	0,1	1,672580
3,287500	0,1	1,623589
3,289167	0,1	1,637538
3,290833	0,1	1,612314
3,292500	0,1	1,565016
3,294167	0,1	1,586417
3,295833	0,1	1,602347
3,297500	0,1	1,575472
3,299167	0,1	1,569955
3,300833	0,1	1,555189
3,302500	0,1	1,515702
3,304167	0,1	1,518794
3,305833	0,1	1,516337
3,307500	0,1	1,451244
3,309167	0,1	1,471624
3,310833	0,1	1,459554
3,312500	0,1	1,475122
3,314167	0,1	1,407008
3,315833	0,1	1,431469
3,317500	0,1	1,413628
3,319167	0,1	1,416805
3,320833	0,1	1,398280
3,322500	0,1	1,392363
3,324167	0,1	1,371700
3,325833	0,1	1,358102
3,327500	0,1	1,348438
3,329167	0,1	1,358247
3,330833	0,1	1,345300
3,332500	0,1	1,366635
3,334167	0,1	1,336880
3,335833	0,1	1,322401
3,337500	0,1	1,315024
3,339167	0,1	1,318514
3,340833	0,1	1,299790
3,342500	0,1	1,303446
3,344167	0,1	1,293057
3,345833	0,1	1,284175
3,347500	0,1	1,292292
3,349167	0,1	1,213092
3,350833	0,1	1,240422
3,352500	0,1	1,217691
3,354167	0,1	1,233088
3,355833	0,1	1,201304
3,357500	0,1	1,221073
3,359167	0,1	1,197237
3,360833	0,1	1,189997
3,362500	0,1	1,147901
3,364167	0,1	1,244151
3,365833	0,1	1,178795
3,367500	0,1	1,210834
3,369167	0,1	1,168130
3,370833	0,1	1,164104
3,372500	0,1	1,184569
3,374167	0,1	1,202533
3,375833	0,1	1,133683
3,377500	0,1	1,162098
3,379167	0,1	1,183905
3,380833	0,1	1,144708
3,382500	0,1	1,118797
3,384167	0,1	1,166753
3,385833	0,1	1,125038
3,387500	0,1	1,149462
3,389167	0,1	1,157461
3,390833	0,1	1,136555
3,392500	0,1	1,156948
3,394167	0,1	1,103103
3,395833	0,1	1,136320
3,397500	0,1	1,103897
3,399167	0,1	1,109440
3,400833	0,1	1,048364
3,402500	0,1	1,101502
3,404167	0,1	1,074683
3,405833	0,1	1,084108
3,407500	0,1	1,120620
3,409167	0,1	1,099480
3,410833	0,1	1,085334
3,412500	0,1	1,067753
3,414167	0,1	1,055233
3,415833	0,1	1,056917
3,417500	0,1	1,086168
3,419167	0,1	1,056902
3,420833	0,1	1,085547
3,422500	0,1	1,028030
3,424167	0,1	1,037603
3,425833	0,1	1,085830
3,427500	0,1	1,066245
3,429167	0,1	1,071323
3,430833	0,1	1,069636
3,432500	0,1	1,043936
3,434167	0,1	1,025201
3,435833	0,1	1,097345
3,437500	0,1	1,049935
3,439167	0,1	1,036342
3,440833	0,1	1,047280
3,442500	0,1	1,045485
3,444167	0,1	1,057979
3,445833	0,1	1,039762
3,447500	0,1	1,064591
3,449167	0,1	1,029910
3,450833	0,1	1,028904
3,452500	0,1	1,043773
3,454167	0,1	1,044263
3,455833	0,1	1,058599
3,457500	0,1	1,037477
3,459167	0,1	1,037316
3,460833	0,1	1,062459
3,462500	0,1	1,042471
3,464167	0,1	1,085853
3,465833	0,1	1,080601
3,467500	0,1	1,062182
3,469167	0,1	1,035391
3,470833	0,1	1,032767
3,472500	0,1	1,043484
3,474167	0,1	1,073202
3,475833	0,1	1,041653
3,477500	0,1	1,102632
3,479167	0,1	1,112324
3,480833	0,1	1,074438
3,482500	0,1	1,050396
3,484167	0,1	1,091182
3,485833	0,1	1,115049
3,487500	0,1	1,106043
3,489167	0,1	1,086027
3,490833	0,1	1,128036
3,492500	0,1	1,117190
3,494167	0,1	1,080766
3,495833	0,1	1,150565
3,497500	0,1	1,108741
3,499167	0,1	1,069359
3,500833	0,1	1,073942
3,502500	0,1	1,139043
3,504167	0,1	1,178366
3,505833	0,1	1,113830
3,507500	0,1	1,139407
3,509167	0,1	1,108583
3,510833	0,1	1,170988
3,512500	0,1	1,182927
3,514167	0,1	1,152673
3,515833	0,1	1,164388
3,517500	0,1	1,178132
3,519167	0,1	1,183151
3,520833	0,1	1,152298
3,522500	0,1	1,181260
3,524167	0,1	1,183842
3,525833	0,1	1,233147
3,527500	0,1	1,193204
3,529167	0,1	1,164397
3,530833	0,1	1,147278
3,532500	0,1	1,179886
3,534167	0,1	1,168968
3,535833	0,1	1,225707
3,537500	0,1	1,242207
3,539167	0,1	1,231162
3,540833	0,1	1,186853
3,542500	0,1	1,217696
3,544167	0,1	1,209825
3,545833	0,1	1,214397
3,547500	0,1	1,200167
3,549167	0,1	1,242693
3,550833	0,1	1,242445
3,552500	0,1	1,248529
3,554167	0,1	1,206239
3,555833	0,1	1,244522
3,557500	0,1	1,232807
3,559167	0,1	1,226366
3,560833	0,1	1,244968
3,562500	0,1	1,248498
3,564167	0,1	1,221708
3,565833	0,1	1,219348
3,567500	0,1	1,231274
3,569167	0,1	1,199305
3,570833	0,1	1,196895
3,572500	0,1	1,213481
3,574167	0,1	1,253979
3,575833	0,1	1,248973
3,577500	0,1	1,182726
3,579167	0,1	1,203446
3,580833	0,1	1,191438
3,582500	0,1	1,185421
3,584167	0,1	1,195855
3,585833	0,1	1,210329
3,587500	0,1	1,185069
3,589167	0,1	1,229523
3,590833	0,1	1,222809
3,592500	0,1	1,211555
3,594167	0,1	1,231751
3,595833	0,1	1,181855
3,597500	0,1	1,182508
3,599167	0,1	1,147725
3,600833	0,1	1,172978
3,602500	0,1	1,146944
3,604167	0,1	1,162437
3,605833	0,1	1,163566
3,607500	0,1	1,125968
3,609167	0,1	1,153044
3,610833	0,1	1,137083
3,612500	0,1	1,179296
3,614167	0,1	1,113608
3,615833	0,1	1,176361
3,617500	0,1	1,153624
3,619167	0,1	1,144319
3,620833	0,1	1,131113
3,622500	0,1	1,161050
3,624167	0,1	1,096868
3,625833	0,1	1,111791
3,627500	0,1	1,101913
3,629167	0,1	1,071952
3,630833	0,1	1,058009
3,632500	0,1	1,076247
3,634167	0,1	1,066243
3,635833	0,1	1,128649
3,637500	0,1	1,064345
3,639167	0,1	1,070745
3,640833	0,1	1,075096
3,642500	0,1	1,056055
3,644167	0,1	1,046174
3,645833	0,1	1,100234
3,647500	0,1	1,035444
3,649167	0,1	1,006271
3,650833	0,1	1,069398
3,652500	0,1	1,038367
3,654167	0,1	1,013416
3,655833	0,1	1,067845
3,657500	0,1	1,029844
3,659167	0,1	0,998081
3,660833	0,1	1,034088
3,662500	0,1	1,006693
3,664167	0,1	1,020176
3,665833	0,1	1,023376
3,667500	0,1	0,998434
3,669167	0,1	1,025389
3,670833	0,1	0,992912
3,672500	0,1	0,984559
3,674167	0,1	1,001022
3,675833	0,1	0,956693
3,677500	0,1	0,950867
3,679167	0,1	1,002102
3,680833	0,1	0,985583
3,682500	0,1	0,981008
3,684167	0,1	0,979740
3,685833	0,1	0,959773
3,687500	0,1	0,937025
3,689167	0,1	0,973388
3,690833	0,1	0,939535
3,692500	0,1	0,975095
3,694167	0,1	0,944197
3,695833	0,1	0,892736
3,697500	0,1	0,897779
3,699167	0,1	0,964923
3,700833	0,1	0,934676
3,702500	0,1	0,951842
3,704167	0,1	0,931011
3,705833	0,1	0,959562
3,707500	0,1	0,969864
3,709167	0,1	0,932350
3,710833	0,1	0,945960
3,712500	0,1	0,916102
3,714167	0,1	0,909414
3,715833	0,1	0,913035
3,717500	0,1	0,892621
3,719167	0,1	0,875470
3,720833	0,1	0,913265
3,722500	0,1	0,925061
3,724167	0,1	0,936266
3,725833	0,1	0,924309
3,727500	0,1	0,904114
3,729167	0,1	0,905891
3,730833	0,1	0,873765
3,732500	0,1	0,893544
3,734167	0,1	0,915538
3,735833	0,1	0,882921
3,737500	0,1	0,909588
3,739167	0,1	0,921085
3,740833	0,1	0,926680
3,742500	0,1	0,927589
3,744167	0,1	0,905804
3,745833	0,1	0,904868
3,747500	0,1	0,884453
3,749167	0,1	0,891749
3,750833	0,1	0,907257
3,752500	0,1	0,888050
3,754167	0,1	0,910677
3,755833	0,1	0,906328
3,757500	0,1	0,955141
3,759167	0,1	0,898958
3,760833	0,1	0,922855
3,762500	0,1	0,889538
3,764167	0,1	0,931952
3,765833	0,1	0,917320
3,767500	0,1	0,918003
3,769167	0,1	0,919999
3,770833	0,1	0,894397
3,772500	0,1	0,894654
3,774167	0,1	0,947972
3,775833	0,1	0,919205
3,777500	0,1	0,952037
3,779167	0,1	0,937493
3,780833	0,1	0,940814
3,782500	0,1	0,959366
3,784167	0,1	0,948738
3,785833	0,1	0,936379
3,787500	0,1	0,925438
3,789167	0,1	0,902983
3,790833	0,1	0,929333
3,792500	0,1	0,918402
3,794167	0,1	0,959559
3,795833	0,1	0,956040
3,797500	0,1	0,973699
3,799167	0,1	0,950054
3,800833	0,1	0,944011
3,802500	0,1	0,895425
3,804167	0,1	0,945020
3,805833	0,1	0,896201
3,807500	0,1	0,889888
3,809167	0,1	0,942468
3,810833	0,1	0,951819
3,812500	0,1	0,904962
3,814167	0,1	0,972445
3,815833	0,1	0,956355
3,817500	0,1	0,949917
3,819167	0,1	0,939217
3,820833	0,1	0,922931
3,822500	0,1	0,934755
3,824167	0,1	0,942967
3,825833	0,1	0,946498
3,827500	0,1	0,938374
3,829167	0,1	0,879604
3,830833	0,1	0,930795
3,832500	0,1	0,934024
3,834167	0,1	0,907597
3,835833	0,1	0,910593
3,837500	0,1	0,902939
3,839167	0,1	0,938875
3,840833	0,1	0,935137
3,842500	0,1	0,900438
3,844167	0,1	0,879018
3,845833	0,1	0,892061
3,847500	0,1	0,886760
3,849167	0,1	0,924297
3,850833	0,1	0,910505
3,852500	0,1	0,890452
3,854167	0,1	0,939541
3,855833	0,1	0,938307
3,857500	0,1	0,919780
3,859167	0,1	0,939926
3,860833	0,1	0,930009
3,862500	0,1	0,897573
3,864167	0,1	0,864888
3,865833	0,1	0,876238
3,867500	0,1	0,907145
3,869167	0,1	0,917225
3,870833	0,1	0,853158
3,872500	0,1	0,900574
3,874167	0,1	0,862893
3,875833	0,1	0,862728
3,877500	0,1	0,906630
3,879167	0,1	0,899722
3,880833	0,1	0,840641
3,882500	0,1	0,896331
3,884167	0,1	0,842373
3,885833	0,1	0,867960
3,887500	0,1	0,853236
3,889167	0,1	0,858471
3,890833	0,1	0,851121
3,892500	0,1	0,860293
3,894167	0,1	0,821493
3,895833	0,1	0,832575
3,897500	0,1	0,805050
3,899167	0,1	0,836852
3,900833	0,1	0,843752
3,902500	0,1	0,810108
3,904167	0,1	0,793336
3,905833	0,1	0,848898
3,907500	0,1	0,814992
3,909167	0,1	0,783009
3,910833	0,1	0,819438
3,912500	0,1	0,781052
3,914167	0,1	0,785676
3,915833	0,1	0,807127
3,917500	0,1	0,816072
3,919167	0,1	0,742855
3,920833	0,1	0,769076
3,922500	0,1	0,761458
3,924167	0,1	0,821272
3,925833	0,1	0,787288
3,927500	0,1	0,811852
3,929167	0,1	0,769343
3,930833	0,1	0,784874
3,932500	0,1	0,796758
3,934167	0,1	0,761912
3,935833	0,1	0,777154
3,937500	0,1	0,727989
3,939167	0,1	0,765242
3,940833	0,1	0,749078
3,942500	0,1	0,752802
3,944167	0,1	0,747211
3,945833	0,1	0,765338
3,947500	0,1	0,756208
3,949167	0,1	0,737490
3,950833	0,1	0,725623
3,952500	0,1	0,739125
3,954167	0,1	0,737982
3,955833	0,1	0,743088
3,957500	0,1	0,763026
3,959167	0,1	0,731714
3,960833	0,1	0,745436
3,962500	0,1	0,729389
3,964167	0,1	0,726039
3,965833	0,1	0,731603
3,967500	0,1	0,727847
3,969167	0,1	0,693186
3,970833	0,1	0,707998
3,972500	0,1	0,715558
3,974167	0,1	0,714469
3,975833	0,1	0,723306
3,977500	0,1	0,702570
3,979167	0,1	0,709807
3,980833	0,1	0,739522
3,982500	0,1	0,682387
3,984167	0,1	0,675207
3,985833	0,1	0,699661
3,987500	0,1	0,688996
3,989167	0,1	0,661439
3,990833	0,1	0,651822
3,992500	0,1	0,702097
3,994167	0,1	0,682761
3,995833	0,1	0,686354
3,997500	0,1	0,657875
3,999167	0,1	0,686899
4,000833	0,1	0,706580
4,002500	0,1	0,714654
4,004167	0,1	0,687555
4,005833	0,1	0,686486
4,007500	0,1	0,673748
4,009167	0,1	0,660156
4,010833	0,1	0,681943
4,012500	0,1	0,694779
4,014167	0,1	0,715715
4,015833	0,1	0,717975
4,017500	0,1	0,671834
4,019167	0,1	0,690948
4,020833	0,1	0,698994
4,022500	0,1	0,650227
4,024167	0,1	0,689952
4,025833	0,1	0,687072
4,027500	0,1	0,665628
4,029167	0,1	0,668729
4,030833	0,1	0,690282
4,032500	0,1	0,711882
4,034167	0,1	0,685813
4,035833	0,1	0,691277
4,037500	0,1	0,722014
4,039167	0,1	0,702404
4,040833	0,1	0,735287
4,042500	0,1	0,683897
4,044167	0,1	0,696195
4,045833	0,1	0,712787
4,047500	0,1	0,735681
4,049167	0,1	0,708613
4,050833	0,1	0,736519
4,052500	0,1	0,702508
4,054167	0,1	0,739641
4,055833	0,1	0,708166
4,057500	0,1	0,715140
4,059167	0,1	0,761733
4,060833	0,1	0,724704
4,062500	0,1	0,713475
4,064167	0,1	0,744528
4,065833	0,1	0,765980
4,067500	0,1	0,738136
4,069167	0,1	0,770771
4,070833	0,1	0,761524
4,072500	0,1	0,771391
4,074167	0,1	0,819882
4,075833	0,1	0,773243
4,077500	0,1	0,777063
4,079167	0,1	0,823099
4,080833	0,1	0,754789
4,082500	0,1	0,794150
4,084167	0,1	0,752562
4,085833	0,1	0,803010
4,087500	0,1	0,796038
4,089167	0,1	0,829602
4,090833	0,1	0,802058
4,092500	0,1	0,815715
4,094167	0,1	0,824370
4,095833	0,1	0,824857
4,097500	0,1	0,837894
4,099167	0,1	0,809107
4,100833	0,1	0,877601
4,102500	0,1	0,884720
4,104167	0,1	0,887361
4,105833	0,1	0,865975
4,107500	0,1	0,871340
4,109167	0,1	0,917684
4,110833	0,1	0,912879
4,112500	0,1	0,906955
4,114167	0,1	0,924037
4,115833	0,1	0,911016
4,117500	0,1	0,939744
4,119167	0,1	0,923089
4,120833	0,1	0,931894
4,122500	0,1	0,939238
4,124167	0,1	0,968440
4,125833	0,1	0,967160
4,127500	0,1	0,975367
4,129167	0,1	0,995229
4,130833	0,1	0,978171
4,132500	0,1	1,039877
4,134167	0,1	1,015836
4,135833	0,1	0,997257
4,137500	0,1	1,033779
4,139167	0,1	1,013306
4,140833	0,1	1,023153
4,142500	0,1	1,048987
4,144167	0,1	1,028531
4,145833	0,1	1,056331
4,147500	0,1	1,062043
4,149167	0,1	1,069411
4,150833	0,1	1,059426
4,152500	0,1	1,052590
4,154167	0,1	1,069099
4,155833	0,1	1,056941
4,157500	0,1	1,068813
4,159167	0,1	1,088521
4,160833	0,1	1,067020
4,162500	0,1	1,071586
4,164167	0,1	1,074208
4,165833	0,1	1,110096
4,167500	0,1	1,101826
4,169167	0,1	1,082139
4,170833	0,1	1,115114
4,172500	0,1	1,112439
4,174167	0,1	1,124288
4,175833	0,1	1,142802
4,177500	0,1	1,107271
4,179167	0,1	1,115696
4,180833	0,1	1,143068
4,182500	0,1	1,171689
4,184167	0,1	1,137377
4,185833	0,1	1,145447
4,187500	0,1	1,100902
4,189167	0,1	1,159756
4,190833	0,1	1,162278
4,192500	0,1	1,169667
4,194167	0,1	1,159504
4,195833	0,1	1,150401
4,197500	0,1	1,157278
4,199167	0,1	1,149268
4,200833	0,1	1,146670
4,202500	0,1	1,186131
4,204167	0,1	1,165213
4,205833	0,1	1,170715
4,207500	0,1	1,121840
4,209167	0,1	1,141917
4,210833	0,1	1,142230
4,212500	0,1	1,144161
4,214167	0,1	1,142029
4,215833	0,1	1,143740
4,217500	0,1	1,155730
4,219167	0,1	1,155638
4,220833	0,1	1,149180
4,222500	0,1	1,123564
4,224167	0,1	1,118498
4,225833	0,1	1,141379
4,227500	0,1	1,122383
4,229167	0,1	1,124532
4,230833	0,1	1,114789
4,232500	0,1	1,135277
4,234167	0,1	1,100456
4,235833	0,1	1,118537
4,237500	0,1	1,101051
4,239167	0,1	1,133940
4,240833	0,1	1,119874
4,242500	0,1	1,089711
4,244167	0,1	1,099891
4,245833	0,1	1,084758
4,247500	0,1	1,086064
4,249167	0,1	1,068287
4,250833	0,1	1,065108
4,252500	0,1	1,053368
4,254167	0,1	1,070099
4,255833	0,1	1,040252
4,257500	0,1	1,056047
4,259167	0,1	1,042736
4,260833	0,1	0,997330
4,262500	0,1	1,044229
4,264167	0,1	1,027221
4,265833	0,1	1,034340
4,267500	0,1	0,983262
4,269167	0,1	1,034506
4,270833	0,1	1,012439
4,272500	0,1	0,976066
4,274167	0,1	0,951757
4,275833	0,1	0,972279
4,277500	0,1	0,982736
4,279167	0,1	0,972286
4,280833	0,1	0,988594
4,282500	0,1	0,958066
4,284167	0,1	0,924891
4,285833	0,1	0,939193
4,287500	0,1	0,969150
4,289167	0,1	0,938626
4,290833	0,1	0,908604
4,292500	0,1	0,943049
4,294167	0,1	0,919252
4,295833	0,1	0,930184
4,297500	0,1	0,874034
4,299167	0,1	0,887111
4,300833	0,1	0,854883
4,302500	0,1	0,908073
4,304167	0,1	0,860217
4,305833	0,1	0,842942
4,307500	0,1	0,901099
4,309167	0,1	0,865179
4,310833	0,1	0,837337
4,312500	0,1	0,859216
4,314167	0,1	0,824734
4,315833	0,1	0,825946
4,317500	0,1	0,821706
4,319167	0,1	0,792511
4,320833	0,1	0,822854
4,322500	0,1	0,794036
4,324167	0,1	0,820952
4,325833	0,1	0,794968
4,327500	0,1	0,796838
4,329167	0,1	0,806065
4,330833	0,1	0,771561
4,332500	0,1	0,754868
4,334167	0,1	0,742067
4,335833	0,1	0,767974
4,337500	0,1	0,799180
4,339167	0,1	0,780313
4,340833	0,1	0,735260
4,342500	0,1	0,772987
4,344167	0,1	0,775543
4,345833	0,1	0,744458
4,347500	0,1	0,737918
4,349167	0,1	0,733767
4,350833	0,1	0,771293
4,352500	0,1	0,729172
4,354167	0,1	0,719161
4,355833	0,1	0,739094
4,357500	0,1	0,708977
4,359167	0,1	0,717200
4,360833	0,1	0,725627
4,362500	0,1	0,704500
4,364167	0,1	0,707162
4,365833	0,1	0,720667
4,367500	0,1	0,706941
4,369167	0,1	0,689388
4,370833	0,1	0,684652
4,372500	0,1	0,684008
4,374167	0,1	0,717286
4,375833	0,1	0,664473
4,377500	0,1	0,722651
4,379167	0,1	0,659364
4,380833	0,1	0,679659
4,382500	0,1	0,667036
4,384167	0,1	0,669249
4,385833	0,1	0,647712
4,387500	0,1	0,642854
4,389167	0,1	0,679019
4,390833	0,1	0,669802
4,392500	0,1	0,686909
4,394167	0,1	0,616785
4,395833	0,1	0,709005
4,397500	0,1	0,635342
4,399167	0,1	0,652366
4,400833	0,1	0,603312
4,402500	0,1	0,596835
4,404167	0,1	0,632549
4,405833	0,1	0,631142
4,407500	0,1	0,640856
4,409167	0,1	0,635196
4,410833	0,1	0,617132
4,412500	0,1	0,635094
4,414167	0,1	0,542364
4,415833	0,1	0,622443
4,417500	0,1	0,622782
4,419167	0,1	0,604914
4,420833	0,1	0,579578
4,422500	0,1	0,598309
4,424167	0,1	0,593978
4,425833	0,1	0,605610
4,427500	0,1	0,616641
4,429167	0,1	0,597417
4,430833	0,1	0,570415
4,432500	0,1	0,570408
4,434167	0,1	0,640836
4,435833	0,1	0,588616
4,437500	0,1	0,538818
4,439167	0,1	0,610834
4,440833	0,1	0,581443
4,442500	0,1	0,585484
4,444167	0,1	0,572114
4,445833	0,1	0,605509
4,447500	0,1	0,552802
4,449167	0,1	0,570404
4,450833	0,1	0,540451
4,452500	0,1	0,571555
4,454167	0,1	0,550641
4,455833	0,1	0,513482
4,457500	0,1	0,531374
4,459167	0,1	0,531476
4,460833	0,1	0,567281
4,462500	0,1	0,523000
4,464167	0,1	0,533209
4,465833	0,1	0,510231
4,467500	0,1	0,535487
4,469167	0,1	0,544042
4,470833	0,1	0,550762
4,472500	0,1	0,523638
4,474167	0,1	0,533338
4,475833	0,1	0,497054
4,477500	0,1	0,529925
4,479167	0,1	0,488988
4,480833	0,1	0,505369
4,482500	0,1	0,502544
4,484167	0,1	0,498332
4,485833	0,1	0,510706
4,487500	0,1	0,535745
4,489167	0,1	0,498598
4,490833	0,1	0,488240
4,492500	0,1	0,500000
4,494167	0,1	0,475355
4,495833	0,1	0,487305
4,497500	0,1	0,456327
4,499167	0,1	0,469238
4,500833	0,1	0,443693
4,502500	0,1	0,482926
4,504167	0,1	0,484830
4,505833	0,1	0,452180
4,507500	0,1	0,487620
4,509167	0,1	0,495244
4,510833	0,1	0,428663
4,512500	0,1	0,465247
4,514167	0,1	0,470814
4,515833	0,1	0,448643
4,517500	0,1	0,434534
4,519167	0,1	0,457344
4,520833	0,1	0,463294
4,522500	0,1	0,454135
4,524167	0,1	0,461013
4,525833	0,1	0,413194
4,527500	0,1	0,463832
4,529167	0,1	0,472936
4,530833	0,1	0,425475
4,532500	0,1	0,478615
4,534167	0,1	0,442445
4,535833	0,1	0,422387
4,537500	0,1	0,412095
4,539167	0,1	0,416816
4,540833	0,1	0,413511
4,542500	0,1	0,386197
4,544167	0,1	0,449492
4,545833	0,1	0,446809
4,547500	0,1	0,431832
4,549167	0,1	0,416114
4,550833	0,1	0,403744
4,552500	0,1	0,406919
4,554167	0,1	0,433558
4,555833	0,1	0,415216
4,557500	0,1	0,389666
4,559167	0,1	0,410998
4,560833	0,1	0,409846
4,562500	0,1	0,367137
4,564167	0,1	0,393479
4,565833	0,1	0,390308
4,567500	0,1	0,418615
4,569167	0,1	0,358793
4,570833	0,1	0,408935
4,572500	0,1	0,395771
4,574167	0,1	0,391107
4,575833	0,1	0,382433
4,577500	0,1	0,387024
4,579167	0,1	0,398018
4,580833	0,1	0,371766
4,582500	0,1	0,401643
4,584167	0,1	0,369069
4,585833	0,1	0,381016
4,587500	0,1	0,349590
4,589167	0,1	0,393029
4,590833	0,1	0,367012
4,592500	0,1	0,393387
4,594167	0,1	0,318852
4,595833	0,1	0,354816
4,597500	0,1	0,357365
4,599167	0,1	0,371150
4,600833	0,1	0,324212
4,602500	0,1	0,316972
4,604167	0,1	0,357808
4,605833	0,1	0,334108
4,607500	0,1	0,347658
4,609167	0,1	0,309556
4,610833	0,1	0,284806
4,612500	0,1	0,323133
4,614167	0,1	0,313632
4,615833	0,1	0,338912
4,617500	0,1	0,320894
4,619167	0,1	0,343385
4,620833	0,1	0,366070
4,622500	0,1	0,308312
4,624167	0,1	0,325426
4,625833	0,1	0,302230
4,627500	0,1	0,303319
4,629167	0,1	0,316514
4,630833	0,1	0,315783
4,632500	0,1	0,297784
4,634167	0,1	0,324456
4,635833	0,1	0,317395
4,637500	0,1	0,317486
4,639167	0,1	0,298727
4,640833	0,1	0,308351
4,642500	0,1	0,283812
4,644167	0,1	0,308137
4,645833	0,1	0,328477
4,647500	0,1	0,310320
4,649167	0,1	0,286680
4,650833	0,1	0,311342
4,652500	0,1	0,262521
4,654167	0,1	0,328657
4,655833	0,1	0,292179
4,657500	0,1	0,288125
4,659167	0,1	0,300809
4,660833	0,1	0,249256
4,662500	0,1	0,271086
4,664167	0,1	0,281468
4,665833	0,1	0,284167
4,667500	0,1	0,276911
4,669167	0,1	0,260723
4,670833	0,1	0,274589
4,672500	0,1	0,252198
4,674167	0,1	0,302575
4,675833	0,1	0,270782
4,677500	0,1	0,274212
4,679167	0,1	0,252108
4,680833	0,1	0,303117
4,682500	0,1	0,280055
4,684167	0,1	0,310346
4,685833	0,1	0,257772
4,687500	0,1	0,275468
4,689167	0,1	0,241404
4,690833	0,1	0,252138
4,692500	0,1	0,257922
4,694167	0,1	0,273405
4,695833	0,1	0,282311
4,697500	0,1	0,255802
4,699167	0,1	0,239445
4,700833	0,1	0,196367
4,702500	0,1	0,214997
4,704167	0,1	0,229511
4,705833	0,1	0,246280
4,707500	0,1	0,227364
4,709167	0,1	0,255599
4,710833	0,1	0,233537
4,712500	0,1	0,265915
4,714167	0,1	0,219057
4,715833	0,1	0,228327
4,717500	0,1	0,244364
4,719167	0,1	0,236167
4,720833	0,1	0,267327
4,722500	0,1	0,241666
4,724167	0,1	0,241333
4,725833	0,1	0,231166
4,727500	0,1	0,199967
4,729167	0,1	0,205059
4,730833	0,1	0,227972
4,732500	0,1	0,248407
4,734167	0,1	0,230036
4,735833	0,1	0,273724
4,737500	0,1	0,212698
4,739167	0,1	0,224345
4,740833	0,1	0,246932
4,742500	0,1	0,202249
4,744167	0,1	0,224961
4,745833	0,1	0,260637
4,747500	0,1	0,236687
4,749167	0,1	0,209451
4,750833	0,1	0,213362
4,752500	0,1	0,214899
4,754167	0,1	0,209863
4,755833	0,1	0,234232
4,757500	0,1	0,226316
4,759167	0,1	0,217057
4,760833	0,1	0,230896
4,762500	0,1	0,227210
4,764167	0,1	0,239276
4,765833	0,1	0,223319
4,767500	0,1	0,268583
4,769167	0,1	0,201903
4,770833	0,1	0,246801
4,772500	0,1	0,224731
4,774167	0,1	0,233317
4,775833	0,1	0,212914
4,777500	0,1	0,197456
4,779167	0,1	0,204807
4,780833	0,1	0,215125
4,782500	0,1	0,165442
4,784167	0,1	0,140696
4,785833	0,1	0,211004
4,787500	0,1	0,183299
4,789167	0,1	0,220232
4,790833	0,1	0,189764
4,792500	0,1	0,161623
4,794167	0,1	0,205996
4,795833	0,1	0,195816
4,797500	0,1	0,184455
4,799167	0,1	0,201857
4,800833	0,1	0,171496
4,802500	0,1	0,167587
4,804167	0,1	0,223983
4,805833	0,1	0,210657
4,807500	0,1	0,182078
4,809167	0,1	0,189387
4,810833	0,1	0,200537
4,812500	0,1	0,182289
4,814167	0,1	0,202952
4,815833	0,1	0,159659
4,817500	0,1	0,176550
4,819167	0,1	0,186377
4,820833	0,1	0,192060
4,822500	0,1	0,190234
4,824167	0,1	0,221230
4,825833	0,1	0,203918
4,827500	0,1	0,199167
4,829167	0,1	0,199619
4,830833	0,1	0,201181
4,832500	0,1	0,188273
4,834167	0,1	0,185675
4,835833	0,1	0,155450
4,837500	0,1	0,207015
4,839167	0,1	0,234117
4,840833	0,1	0,196793
4,842500	0,1	0,178095
4,844167	0,1	0,203494
4,845833	0,1	0,140517
4,847500	0,1	0,173571
4,849167	0,1	0,172726
4,850833	0,1	0,186213
4,852500	0,1	0,182879
4,854167	0,1	0,183684
4,855833	0,1	0,187663
4,857500	0,1	0,202728
4,859167	0,1	0,178927
4,860833	0,1	0,167651
4,862500	0,1	0,164500
4,864167	0,1	0,156416
4,865833	0,1	0,193603
4,867500	0,1	0,160894
4,869167	0,1	0,177093
4,870833	0,1	0,215055
4,872500	0,1	0,194196
4,874167	0,1	0,150540
4,875833	0,1	0,137693
4,877500	0,1	0,210550
4,879167	0,1	0,182180
4,880833	0,1	0,175688
4,882500	0,1	0,163295
4,884167	0,1	0,166614
4,885833	0,1	0,140282
4,887500	0,1	0,142970
4,889167	0,1	0,183511
4,890833	0,1	0,192864
4,892500	0,1	0,157996
4,894167	0,1	0,163730
4,895833	0,1	0,191084
4,897500	0,1	0,190234
4,899167	0,1	0,218118
4,900833	0,1	0,185331
4,902500	0,1	0,171027
4,904167	0,1	0,167562
4,905833	0,1	0,167874
4,907500	0,1	0,181613
4,909167	0,1	0,183458
4,910833	0,1	0,169830
4,912500	0,1	0,189775
4,914167	0,1	0,196494
4,915833	0,1	0,165087
4,917500	0,1	0,143531
4,919167	0,1	0,187693
4,920833	0,1	0,170865
4,922500	0,1	0,176719
4,924167	0,1	0,202560
4,925833	0,1	0,197630
4,927500	0,1	0,182177
4,929167	0,1	0,179479
4,930833	0,1	0,193154
4,932500	0,1	0,175831
4,934167	0,1	0,170471
4,935833	0,1	0,198328
4,937500	0,1	0,209896
4,939167	0,1	0,173023
4,940833	0,1	0,183581
4,942500	0,1	0,220271
4,944167	0,1	0,172548
4,945833	0,1	0,176391
4,947500	0,1	0,179626
4,949167	0,1	0,167940
4,950833	0,1	0,225556
4,952500	0,1	0,169198
4,954167	0,1	0,191262
4,955833	0,1	0,182176
4,957500	0,1	0,175234
4,959167	0,1	0,198745
4,960833	0,1	0,210690
4,962500	0,1	0,197493
4,964167	0,1	0,133138
4,965833	0,1	0,199503
4,967500	0,1	0,178487
4,969167	0,1	0,153293
4,970833	0,1	0,216434
4,972500	0,1	0,220607
4,974167	0,1	0,191049
4,975833	0,1	0,166370
4,977500	0,1	0,183063
4,979167	0,1	0,209213
4,980833	0,1	0,185491
4,982500	0,1	0,187375
4,984167	0,1	0,204755
4,985833	0,1	0,157090
4,987500	0,1	0,239106
4,989167	0,1	0,197085
4,990833	0,1	0,192328
4,992500	0,1	0,197137
4,994167	0,1	0,196407
4,995833	0,1	0,173160
4,997500	0,1	0,199033
4,999167	0,1	0,199645
5,000833	0,1	0,212969
5,002500	0,1	0,249346
5,004167	0,1	0,209745
5,005833	0,1	0,190944
5,007500	0,1	0,210827
5,009167	0,1	0,222216
5,010833	0,1	0,258042
5,012500	0,1	0,198375
5,014167	0,1	0,234658
5,015833	0,1	0,192297
5,017500	0,1	0,224253
5,019167	0,1	0,204561
5,020833	0,1	0,216284
5,022500	0,1	0,247798
5,024167	0,1	0,202577
5,025833	0,1	0,212492
5,027500	0,1	0,247698
5,029167	0,1	0,219506
5,030833	0,1	0,247510
5,032500	0,1	0,208547
5,034167	0,1	0,246259
5,035833	0,1	0,238749
5,037500	0,1	0,232387
5,039167	0,1	0,227916
5,040833	0,1	0,202612
5,042500	0,1	0,222668
5,044167	0,1	0,250243
5,045833	0,1	0,229973
5,047500	0,1	0,238292
5,049167	0,1	0,265021
5,050833	0,1	0,237721
5,052500	0,1	0,251231
5,054167	0,1	0,247960
5,055833	0,1	0,259684
5,057500	0,1	0,233992
5,059167	0,1	0,277795
5,060833	0,1	0,267210
5,062500	0,1	0,280382
5,064167	0,1	0,286294
5,065833	0,1	0,306691
5,067500	0,1	0,297411
5,069167	0,1	0,299400
5,070833	0,1	0,222565
5,072500	0,1	0,284352
5,074167	0,1	0,298365
5,075833	0,1	0,302485
5,077500	0,1	0,249130
5,079167	0,1	0,273364
5,080833	0,1	0,274149
5,082500	0,1	0,287162
5,084167	0,1	0,266545
5,085833	0,1	0,295727
5,087500	0,1	0,314239
5,089167	0,1	0,302299
5,090833	0,1	0,276890
5,092500	0,1	0,297242
5,094167	0,1	0,324239
5,095833	0,1	0,295969
5,097500	0,1	0,307789
5,099167	0,1	0,294617
5,100833	0,1	0,310194
5,102500	0,1	0,291630
5,104167	0,1	0,295581
5,105833	0,1	0,297409
5,107500	0,1	0,305925
5,109167	0,1	0,321951
5,110833	0,1	0,307314
5,112500	0,1	0,344412
5,114167	0,1	0,318757
5,115833	0,1	0,309232
5,117500	0,1	0,315239
5,119167	0,1	0,304825
5,120833	0,1	0,276400
5,122500	0,1	0,348548
5,124167	0,1	0,338576
5,125833	0,1	0,240008
5,127500	0,1	0,315836
5,129167	0,1	0,316399
5,130833	0,1	0,294745
5,132500	0,1	0,315587
5,134167	0,1	0,275925
5,135833	0,1	0,300771
5,137500	0,1	0,299492
5,139167	0,1	0,322494
5,140833	0,1	0,307504
5,142500	0,1	0,314406
5,144167	0,1	0,320317
5,145833	0,1	0,313603
5,147500	0,1	0,280801
5,149167	0,1	0,333674
5,150833	0,1	0,313352
5,152500	0,1	0,287134
5,154167	0,1	0,316844
5,155833	0,1	0,302591
5,157500	0,1	0,348682
5,159167	0,1	0,308144
5,160833	0,1	0,316043
5,162500	0,1	0,283371
5,164167	0,1	0,336787
5,165833	0,1	0,291538
5,167500	0,1	0,314592
5,169167	0,1	0,300717
5,170833	0,1	0,285757
5,172500	0,1	0,277038
5,174167	0,1	0,279542
5,175833	0,1	0,268713
5,177500	0,1	0,266720
5,179167	0,1	0,274039
5,180833	0,1	0,322333
5,182500	0,1	0,297380
5,184167	0,1	0,307308
5,185833	0,1	0,294173
5,187500	0,1	0,290306
5,189167	0,1	0,291916
5,190833	0,1	0,269948
5,192500	0,1	0,284202
5,194167	0,1	0,270361
5,195833	0,1	0,273506
5,197500	0,1	0,293975
5,199167	0,1	0,275920
5,200833	0,1	0,278874
5,202500	0,1	0,272803
5,204167	0,1	0,290890
5,205833	0,1	0,247201
5,207500	0,1	0,256093
5,209167	0,1	0,254385
5,210833	0,1	0,282344
5,212500	0,1	0,232902
5,214167	0,1	0,259076
5,215833	0,1	0,252368
5,217500	0,1	0,280189
5,219167	0,1	0,284141
5,220833	0,1	0,244339
5,222500	0,1	0,262316
5,224167	0,1	0,243856
5,225833	0,1	0,226028
5,227500	0,1	0,246969
5,229167	0,1	0,244846
5,230833	0,1	0,214039
5,232500	0,1	0,242559
5,234167	0,1	0,206695
5,235833	0,1	0,239244
5,237500	0,1	0,239780
5,239167	0,1	0,231354
5,240833	0,1	0,196590
5,242500	0,1	0,193573
5,244167	0,1	0,225337
5,245833	0,1	0,212561
5,247500	0,1	0,249562
5,249167	0,1	0,193486
5,250833	0,1	0,197489
5,252500	0,1	0,213726
5,254167	0,1	0,221173
5,255833	0,1	0,204663
5,257500	0,1	0,211119
5,259167	0,1	0,193060
5,260833	0,1	0,225058
5,262500	0,1	0,184978
5,264167	0,1	0,188534
5,265833	0,1	0,154846
5,267500	0,1	0,200704
5,269167	0,1	0,154787
5,270833	0,1	0,156727
5,272500	0,1	0,155732
5,274167	0,1	0,138995
5,275833	0,1	0,163020
5,277500	0,1	0,183867
5,279167	0,1	0,176228
5,280833	0,1	0,155548
5,282500	0,1	0,178125
5,284167	0,1	0,183494
5,285833	0,1	0,172905
5,287500	0,1	0,163771
5,289167	0,1	0,144110
5,290833	0,1	0,139275
5,292500	0,1	0,165198
5,294167	0,1	0,124556
5,295833	0,1	0,176590
5,297500	0,1	0,134004
5,299167	0,1	0,156823
5,300833	0,1	0,152561
5,302500	0,1	0,156037
5,304167	0,1	0,108975
5,305833	0,1	0,140949
5,307500	0,1	0,096520
5,309167	0,1	0,143555
5,310833	0,1	0,139713
5,312500	0,1	0,143917
5,314167	0,1	0,107291
5,315833	0,1	0,134817
5,317500	0,1	0,109528
5,319167	0,1	0,108072
5,320833	0,1	0,161164
5,322500	0,1	0,136961
5,324167	0,1	0,146463
5,325833	0,1	0,126579
5,327500	0,1	0,129409
5,329167	0,1	0,096291
5,330833	0,1	0,126316
5,332500	0,1	0,105757
5,334167	0,1	0,125489
5,335833	0,1	0,073462
5,337500	0,1	0,089565
5,339167	0,1	0,075733
5,340833	0,1	0,104353
5,342500	0,1	0,120705
5,344167	0,1	0,103187
5,345833	0,1	0,101194
5,347500	0,1	0,088100
5,349167	0,1	0,086233
5,350833	0,1	0,089176
5,352500	0,1	0,053590
5,354167	0,1	0,070793
5,355833	0,1	0,113883
5,357500	0,1	0,105566
5,359167	0,1	0,062770
5,360833	0,1	0,084529
5,362500	0,1	0,126338
5,364167	0,1	0,080630
5,365833	0,1	0,050833
5,367500	0,1	0,118373
5,369167	0,1	0,086571
5,370833	0,1	0,102658
5,372500	0,1	0,094769
5,374167	0,1	0,077120
5,375833	0,1	0,092277
5,377500	0,1	0,050174
5,379167	0,1	0,051759
5,380833	0,1	0,072615
5,382500	0,1	0,079582
5,384167	0,1	0,041863
5,385833	0,1	0,092417
5,387500	0,1	0,085093
5,389167	0,1	0,112766
5,390833	0,1	0,060285
5,392500	0,1	0,071811
5,394167	0,1	0,050271
5,395833	0,1	0,102132
5,397500	0,1	0,050216
5,399167	0,1	0,081210
5,400833	0,1	0,074590
5,402500	0,1	0,033640
5,404167	0,1	0,019526
5,405833	0,1	0,022587
5,407500	0,1	0,062646
5,409167	0,1	0,033637
5,410833	0,1	0,049495
5,412500	0,1	0,072677
5,414167	0,1	0,035028
5,415833	0,1	0,051651
5,417500	0,1	0,052939
5,419167	0,1	0,024813
5,420833	0,1	0,025799
5,422500	0,1	0,032449
5,424167	0,1	0,021266
5,425833	0,1	0,068859
5,427500	0,1	0,056153
5,429167	0,1	0,078375
5,430833	0,1	0,033352
5,432500	0,1	0,029508
5,434167	0,1	0,047237
5,435833	0,1	0,004452
5,437500	0,1	0,019622
5,439167	0,1	0,028719
5,440833	0,1	0,021721
5,442500	0,1	0,027125
5,444167	0,1	0,066643
5,445833	0,1	0,060130
5,447500	0,1	0,027196
5,449167	0,1	0,012999
5,450833	0,1	0,038202
5,452500	0,1	0,034233
5,454167	0,1	0,001506
5,455833	0,1	0,024633
5,457500	0,1	0,055750
5,459167	0,1	0,015908
5,460833	0,1	0,001006
5,462500	0,1	0,026704
5,464167	0,1	0,014202
5,465833	0,1	0,048498
5,467500	0,1	0,022306
5,469167	0,1	-0,003754
5,470833	0,1	-0,004362
5,472500	0,1	-0,005956
5,474167	0,1	0,006056
5,475833	0,1	-0,006928
5,477500	0,1	0,013986
5,479167	0,1	-0,005372
5,480833	0,1	-0,028697
5,482500	0,1	0,044635
5,484167	0,1	-0,001574
5,485833	0,1	0,051580
5,487500	0,1	0,045296
5,489167	0,1	0,014331
5,490833	0,1	0,028345
5,492500	0,1	-0,016720
5,494167	0,1	0,025127
5,495833	0,1	0,013373
5,497500	0,1	0,020495
5,499167	0,1	-0,017093
5,500833	0,1	0,037863
5,502500	0,1	0,016711
5,504167	0,1	-0,007712
5,505833	0,1	0,062514
5,507500	0,1	0,007397
5,509167	0,1	0,006245
5,510833	0,1	0,025152
5,512500	0,1	0,034250
5,514167	0,1	-0,001474
5,515833	0,1	0,011379
5,517500	0,1	0,032216
5,519167	0,1	-0,017256
5,520833	0,1	0,007046
5,522500	0,1	-0,049961
5,524167	0,1	-0,014582
5,525833	0,1	-0,013622
5,527500	0,1	0,006280
5,529167	0,1	0,002973
5,530833	0,1	0,010136
5,532500	0,1	-0,005103
5,534167	0,1	-0,010680
5,535833	0,1	-0,005564
5,537500	0,1	0,044556
5,539167	0,1	0,002194
5,540833	0,1	0,007423
5,542500	0,1	-0,002433
5,544167	0,1	0,033953
5,545833	0,1	-0,007854
5,547500	0,1	-0,005439
5,549167	0,1	-0,003512
5,550833	0,1	-0,054271
5,552500	0,1	-0,000438
5,554167	0,1	0,011711
5,555833	0,1	0,000964
5,557500	0,1	-0,006162
5,559167	0,1	-0,001733
5,560833	0,1	-0,014448
5,562500	0,1	-0,005794
5,564167	0,1	0,027655
5,565833	0,1	-0,007586
5,567500	0,1	0,017239
5,569167	0,1	0,020205
5,570833	0,1	0,022215
5,572500	0,1	-0,018542
5,574167	0,1	-0,028553
5,575833	0,1	0,004289
5,577500	0,1	-0,021238
5,579167	0,1	-0,008549
5,580833	0,1	-0,031080
5,582500	0,1	0,007498
5,584167	0,1	-0,018089
5,585833	0,1	-0,009541
5,587500	0,1	0,007441
5,589167	0,1	-0,016184
5,590833	0,1	0,007170
5,592500	0,1	0,005417
5,594167	0,1	-0,043497
5,595833	0,1	-0,033096
5,597500	0,1	0,007892
5,599167	0,1	0,009601
5,600833	0,1	-0,040578
5,602500	0,1	-0,051898
5,604167	0,1	0,031539
5,605833	0,1	-0,028479
5,607500	0,1	-0,002255
5,609167	0,1	-0,032963
5,610833	0,1	-0,008013
5,612500	0,1	0,016783
5,614167	0,1	-0,038630
5,615833	0,1	0,008470
5,617500	0,1	-0,020306
5,619167	0,1	0,001310
5,620833	0,1	-0,026395
5,622500	0,1	-0,009711
5,624167	0,1	0,017900
5,625833	0,1	-0,015725
5,627500	0,1	-0,029029
5,629167	0,1	-0,016649
5,630833	0,1	-0,042967
5,632500	0,1	0,006999
5,634167	0,1	-0,033974
5,635833	0,1	-0,033713
5,637500	0,1	0,000665
5,639167	0,1	0,023246
5,640833	0,1	-0,004687
5,642500	0,1	-0,004322
5,644167	0,1	-0,035820
5,645833	0,1	-0,004329
5,647500	0,1	0,023971
5,649167	0,1	-0,020011
5,650833	0,1	-0,007597
5,652500	0,1	-0,002871
5,654167	0,1	-0,000696
5,655833	0,1	0,008976
5,657500	0,1	0,018900
5,659167	0,1	0,004384
5,660833	0,1	0,001170
5,662500	0,1	0,010012
5,664167	0,1	-0,013616
5,665833	0,1	0,009326
5,667500	0,1	-0,004337
5,669167	0,1	-0,010760
5,670833	0,1	-0,044081
5,672500	0,1	-0,025805
5,674167	0,1	-0,000351
5,675833	0,1	-0,045634
5,677500	0,1	0,051962
5,679167	0,1	-0,023877
5,680833	0,1	0,009674
5,682500	0,1	-0,013222
5,684167	0,1	-0,025736
5,685833	0,1	0,009239
5,687500	0,1	0,008482
5,689167	0,1	-0,026002
5,690833	0,1	0,008597
5,692500	0,1	-0,041780
5,694167	0,1	-0,001886
5,695833	0,1	-0,004197
5,697500	0,1	0,024551
5,699167	0,1	-0,010920
5,700833	0,1	0,004603
5,702500	0,1	0,051270
5,704167	0,1	0,018392
5,705833	0,1	-0,022642
5,707500	0,1	-0,003021
5,709167	0,1	0,008479
5,710833	0,1	0,005625
5,712500	0,1	0,019479
5,714167	0,1	-0,003882
5,715833	0,1	0,038407
5,717500	0,1	0,027604
5,719167	0,1	-0,021813
5,720833	0,1	0,001266
5,722500	0,1	0,003737
5,724167	0,1	0,017096
5,725833	0,1	0,052806
5,727500	0,1	-0,026592
5,729167	0,1	0,010771
5,730833	0,1	0,044706
5,732500	0,1	0,017500
5,734167	0,1	0,012956
5,735833	0,1	-0,002391
5,737500	0,1	-0,011339
5,739167	0,1	0,018603
5,740833	0,1	0,057612
5,742500	0,1	0,009467
5,744167	0,1	-0,001998
5,745833	0,1	0,003737
5,747500	0,1	-0,008836
5,749167	0,1	0,057294
5,750833	0,1	0,001927
5,752500	0,1	0,046670
5,754167	0,1	0,008593
5,755833	0,1	0,036297
5,757500	0,1	0,020272
5,759167	0,1	0,040608
5,760833	0,1	0,026962
5,762500	0,1	0,023129
5,764167	0,1	-0,005931
5,765833	0,1	-0,007616
5,767500	0,1	0,046213
5,769167	0,1	0,036575
5,770833	0,1	0,026506
5,772500	0,1	0,004116
5,774167	0,1	0,041970
5,775833	0,1	0,016588
5,777500	0,1	0,015648
5,779167	0,1	0,044377
5,780833	0,1	0,018142
5,782500	0,1	0,007054
5,784167	0,1	0,055661
5,785833	0,1	0,059463
5,787500	0,1	0,027300
5,789167	0,1	-0,008954
5,790833	0,1	0,017922
5,792500	0,1	0,040483
5,794167	0,1	0,010083
5,795833	0,1	0,039176
5,797500	0,1	0,045480
5,799167	0,1	0,021663
5,800833	0,1	0,018280
5,802500	0,1	0,038058
5,804167	0,1	0,071265
5,805833	0,1	0,029911
5,807500	0,1	0,013207
5,809167	0,1	0,041474
5,810833	0,1	0,075491
5,812500	0,1	0,013218
5,814167	0,1	0,033252
5,815833	0,1	0,040797
5,817500	0,1	0,030588
5,819167	0,1	0,026691
5,820833	0,1	-0,019722
5,822500	0,1	0,002944
5,824167	0,1	-0,016664
5,825833	0,1	0,007542
5,827500	0,1	-0,013348
5,829167	0,1	0,042234
5,830833	0,1	0,036512
5,832500	0,1	-0,012781
5,834167	0,1	0,036000
5,835833	0,1	-0,020774
5,837500	0,1	0,035025
5,839167	0,1	0,012318
5,840833	0,1	0,013432
5,842500	0,1	0,033088
5,844167	0,1	0,011490
5,845833	0,1	-0,004296
5,847500	0,1	0,035838
5,849167	0,1	0,008054
5,850833	0,1	0,042157
5,852500	0,1	0,041668
5,854167	0,1	0,031355
5,855833	0,1	0,039284
5,857500	0,1	-0,005242
5,859167	0,1	0,006676
5,860833	0,1	0,043421
5,862500	0,1	0,004514
5,864167	0,1	0,043234
5,865833	0,1	0,069238
5,867500	0,1	0,046811
5,869167	0,1	0,009111
5,870833	0,1	-0,022397
5,872500	0,1	0,027838
5,874167	0,1	0,009479
5,875833	0,1	0,036546
5,877500	0,1	0,069050
5,879167	0,1	0,028502
5,880833	0,1	0,033566
5,882500	0,1	-0,005057
5,884167	0,1	0,016949
5,885833	0,1	0,024514
5,887500	0,1	0,011779
5,889167	0,1	0,028240
5,890833	0,1	-0,009676
5,892500	0,1	-0,012607
5,894167	0,1	-0,013020
5,895833	0,1	-0,000471
5,897500	0,1	0,009348
5,899167	0,1	0,007424
5,900833	0,1	-0,015127
5,902500	0,1	-0,024288
5,904167	0,1	0,023157
5,905833	0,1	0,010681
5,907500	0,1	-0,028422
5,909167	0,1	0,014976
5,910833	0,1	0,034310
5,912500	0,1	0,023481
5,914167	0,1	0,010908
5,915833	0,1	-0,067872
5,917500	0,1	0,012688
5,919167	0,1	-0,003508
5,920833	0,1	0,004440
5,922500	0,1	-0,012312
5,924167	0,1	0,035712
5,925833	0,1	-0,009280
5,927500	0,1	-0,013767
5,929167	0,1	-0,019936
5,930833	0,1	-0,027602
5,932500	0,1	-0,017270
5,934167	0,1	-0,018861
5,935833	0,1	0,017380
5,937500	0,1	-0,012433
5,939167	0,1	0,015706
5,940833	0,1	-0,038984
5,942500	0,1	-0,000208
5,944167	0,1	-0,004506
5,945833	0,1	-0,037001
5,947500	0,1	-0,036514
5,949167	0,1	0,003542
5,950833	0,1	-0,038571
5,952500	0,1	-0,006854
5,954167	0,1	0,020263
5,955833	0,1	-0,010692
5,957500	0,1	-0,025983
5,959167	0,1	-0,011636
5,960833	0,1	-0,026648
5,962500	0,1	-0,019402
5,964167	0,1	0,007625
5,965833	0,1	-0,050602
5,967500	0,1	-0,054880
5,969167	0,1	-0,027693
5,970833	0,1	-0,041562
5,972500	0,1	-0,024851
5,974167	0,1	-0,024246
5,975833	0,1	-0,002980
5,977500	0,1	-0,061041
5,979167	0,1	-0,024422
5,980833	0,1	-0,024476
5,982500	0,1	-0,020541
5,984167	0,1	-0,025387
5,985833	0,1	-0,065066
5,987500	0,1	-0,001871
5,989167	0,1	-0,006703
5,990833	0,1	-0,023290
5,992500	0,1	-0,038536
5,994167	0,1	-0,047922
5,995833	0,1	-0,034979
5,997500	0,1	-0,012343
5,999167	0,1	-0,053402
6,000833	0,1	-0,012883
