File Path	chrom://chromeleon01/ikbm_chromeleon/2022/Rezex/Esteban/220612_chitin_4_7.seq/255.smp/UV_VIS_1.channel/UV_VIS_1.chm
Channel	UV_VIS_1

Injection Information:
Data Vault	ikbm_chromeleon
Injection	7_04h-EGS_3
Injection Number	74
Position	GC2
Comment	
Processing Method	New ProcMethod
Instrument Method	Short_Rezex_6min_194nm
Type	Unknown
Status	Finished
Injection Date	13.06.2022
Injection Time	01:06:27
Injection Volume (µl)	8,000
Dilution Factor	1,0000
Weight	1,0000

Chromatogram Data Information:
Time Min. (min)	0,000833
Time Max. (min)	6,000833
Data Points	3601
Detector	UV
Generating Data System	Chromeleon 7.2.9.11323
Exporting Data System	Chromeleon 7.2.9.0
Operator	Instrument Controller
Signal Quantity	Absorbance
Signal Unit	mAU
Signal Min.	-0,150530
Signal Max.	115,779093
Channel	UV_VIS_1
Driver Name	VWD3000.dll
Channel Type	Evaluation
Min. Step (s)	0,1
Max. Step (s)	0,1
Average Step (s)	0,1

Signal Parameter Information:
Signal Info	WVL:194 nm

Chromatogram Data:
Time (min)	Step (s)	Value (mAU)
0,000833	n.a.	-0,063701
0,002500	0,1	-0,088216
0,004167	0,1	-0,093653
0,005833	0,1	-0,108700
0,007500	0,1	-0,090300
0,009167	0,1	-0,040618
0,010833	0,1	-0,066597
0,012500	0,1	-0,092444
0,014167	0,1	-0,080369
0,015833	0,1	-0,081858
0,017500	0,1	-0,088283
0,019167	0,1	-0,072990
0,020833	0,1	-0,072760
0,022500	0,1	-0,071121
0,024167	0,1	-0,082603
0,025833	0,1	-0,066607
0,027500	0,1	-0,120709
0,029167	0,1	-0,102673
0,030833	0,1	-0,094007
0,032500	0,1	-0,104076
0,034167	0,1	-0,075356
0,035833	0,1	-0,150530
0,037500	0,1	-0,125579
0,039167	0,1	-0,128723
0,040833	0,1	-0,103070
0,042500	0,1	-0,126999
0,044167	0,1	-0,096728
0,045833	0,1	-0,095769
0,047500	0,1	-0,091436
0,049167	0,1	-0,114686
0,050833	0,1	-0,073164
0,052500	0,1	-0,068656
0,054167	0,1	-0,073358
0,055833	0,1	-0,088054
0,057500	0,1	-0,056122
0,059167	0,1	-0,051781
0,060833	0,1	-0,047594
0,062500	0,1	-0,141698
0,064167	0,1	-0,038684
0,065833	0,1	-0,076501
0,067500	0,1	-0,075868
0,069167	0,1	-0,074645
0,070833	0,1	-0,066687
0,072500	0,1	-0,051846
0,074167	0,1	-0,050849
0,075833	0,1	-0,068484
0,077500	0,1	-0,066001
0,079167	0,1	-0,083431
0,080833	0,1	-0,083041
0,082500	0,1	-0,083953
0,084167	0,1	-0,061136
0,085833	0,1	-0,020425
0,087500	0,1	-0,076456
0,089167	0,1	-0,028243
0,090833	0,1	-0,049909
0,092500	0,1	-0,056817
0,094167	0,1	-0,078578
0,095833	0,1	-0,031870
0,097500	0,1	-0,045062
0,099167	0,1	-0,025665
0,100833	0,1	-0,071090
0,102500	0,1	-0,102785
0,104167	0,1	-0,064229
0,105833	0,1	-0,069338
0,107500	0,1	-0,107096
0,109167	0,1	-0,050656
0,110833	0,1	-0,101663
0,112500	0,1	-0,054591
0,114167	0,1	-0,093127
0,115833	0,1	-0,128467
0,117500	0,1	-0,103256
0,119167	0,1	-0,113714
0,120833	0,1	-0,103274
0,122500	0,1	-0,083378
0,124167	0,1	-0,096988
0,125833	0,1	-0,100846
0,127500	0,1	-0,127141
0,129167	0,1	-0,045852
0,130833	0,1	-0,067136
0,132500	0,1	-0,073752
0,134167	0,1	-0,066460
0,135833	0,1	-0,102266
0,137500	0,1	-0,100618
0,139167	0,1	-0,088474
0,140833	0,1	-0,101173
0,142500	0,1	-0,071420
0,144167	0,1	-0,058914
0,145833	0,1	-0,076403
0,147500	0,1	-0,092136
0,149167	0,1	-0,056641
0,150833	0,1	-0,087470
0,152500	0,1	-0,097672
0,154167	0,1	-0,060435
0,155833	0,1	-0,039057
0,157500	0,1	-0,054347
0,159167	0,1	-0,058786
0,160833	0,1	-0,081977
0,162500	0,1	-0,055331
0,164167	0,1	-0,069459
0,165833	0,1	-0,071909
0,167500	0,1	-0,058977
0,169167	0,1	-0,086412
0,170833	0,1	-0,077260
0,172500	0,1	-0,118619
0,174167	0,1	-0,074738
0,175833	0,1	-0,057692
0,177500	0,1	-0,091489
0,179167	0,1	-0,074111
0,180833	0,1	-0,051828
0,182500	0,1	-0,056153
0,184167	0,1	-0,071573
0,185833	0,1	-0,068325
0,187500	0,1	-0,064758
0,189167	0,1	-0,075597
0,190833	0,1	-0,060905
0,192500	0,1	-0,074331
0,194167	0,1	-0,037799
0,195833	0,1	-0,050741
0,197500	0,1	-0,062371
0,199167	0,1	-0,066953
0,200833	0,1	-0,057566
0,202500	0,1	-0,044675
0,204167	0,1	-0,049271
0,205833	0,1	-0,067758
0,207500	0,1	-0,093937
0,209167	0,1	-0,064909
0,210833	0,1	-0,051246
0,212500	0,1	-0,049086
0,214167	0,1	-0,050432
0,215833	0,1	-0,063862
0,217500	0,1	-0,041048
0,219167	0,1	-0,035408
0,220833	0,1	-0,049104
0,222500	0,1	-0,017522
0,224167	0,1	-0,048333
0,225833	0,1	-0,072338
0,227500	0,1	-0,015930
0,229167	0,1	-0,061306
0,230833	0,1	-0,096421
0,232500	0,1	-0,056124
0,234167	0,1	-0,052073
0,235833	0,1	-0,042910
0,237500	0,1	-0,035427
0,239167	0,1	-0,097514
0,240833	0,1	-0,104182
0,242500	0,1	-0,069782
0,244167	0,1	-0,053216
0,245833	0,1	-0,036384
0,247500	0,1	-0,031466
0,249167	0,1	-0,079361
0,250833	0,1	-0,060077
0,252500	0,1	-0,059141
0,254167	0,1	-0,046583
0,255833	0,1	-0,094099
0,257500	0,1	-0,080536
0,259167	0,1	-0,030067
0,260833	0,1	-0,046097
0,262500	0,1	-0,065519
0,264167	0,1	-0,084300
0,265833	0,1	-0,057115
0,267500	0,1	-0,061586
0,269167	0,1	-0,038664
0,270833	0,1	-0,047571
0,272500	0,1	-0,054040
0,274167	0,1	-0,010684
0,275833	0,1	-0,050715
0,277500	0,1	-0,059325
0,279167	0,1	-0,053627
0,280833	0,1	-0,063843
0,282500	0,1	-0,080280
0,284167	0,1	-0,065921
0,285833	0,1	-0,018067
0,287500	0,1	-0,041555
0,289167	0,1	-0,070369
0,290833	0,1	-0,048988
0,292500	0,1	-0,060734
0,294167	0,1	-0,040571
0,295833	0,1	-0,019385
0,297500	0,1	-0,096557
0,299167	0,1	-0,056019
0,300833	0,1	-0,084090
0,302500	0,1	-0,016039
0,304167	0,1	-0,078134
0,305833	0,1	-0,070046
0,307500	0,1	-0,064594
0,309167	0,1	-0,037091
0,310833	0,1	-0,012277
0,312500	0,1	-0,042156
0,314167	0,1	-0,025128
0,315833	0,1	-0,049079
0,317500	0,1	-0,046515
0,319167	0,1	-0,033563
0,320833	0,1	-0,044420
0,322500	0,1	-0,067945
0,324167	0,1	-0,073090
0,325833	0,1	-0,044242
0,327500	0,1	-0,075549
0,329167	0,1	-0,047849
0,330833	0,1	-0,040631
0,332500	0,1	-0,062948
0,334167	0,1	-0,049504
0,335833	0,1	-0,053127
0,337500	0,1	-0,021812
0,339167	0,1	-0,041431
0,340833	0,1	-0,047261
0,342500	0,1	-0,020775
0,344167	0,1	-0,059794
0,345833	0,1	-0,067824
0,347500	0,1	-0,036676
0,349167	0,1	-0,045021
0,350833	0,1	-0,031055
0,352500	0,1	-0,013082
0,354167	0,1	-0,084536
0,355833	0,1	-0,061757
0,357500	0,1	-0,032656
0,359167	0,1	-0,075360
0,360833	0,1	-0,053736
0,362500	0,1	-0,041501
0,364167	0,1	-0,047343
0,365833	0,1	-0,020609
0,367500	0,1	-0,078218
0,369167	0,1	-0,019935
0,370833	0,1	-0,047049
0,372500	0,1	-0,079032
0,374167	0,1	-0,057218
0,375833	0,1	-0,017940
0,377500	0,1	-0,024725
0,379167	0,1	-0,032004
0,380833	0,1	-0,011217
0,382500	0,1	-0,032850
0,384167	0,1	-0,061724
0,385833	0,1	-0,017025
0,387500	0,1	-0,033306
0,389167	0,1	-0,044813
0,390833	0,1	-0,050267
0,392500	0,1	-0,046869
0,394167	0,1	0,003432
0,395833	0,1	-0,048679
0,397500	0,1	-0,032754
0,399167	0,1	-0,034803
0,400833	0,1	-0,018514
0,402500	0,1	-0,041784
0,404167	0,1	-0,028671
0,405833	0,1	-0,066158
0,407500	0,1	-0,029877
0,409167	0,1	-0,027735
0,410833	0,1	-0,025058
0,412500	0,1	-0,052065
0,414167	0,1	-0,027015
0,415833	0,1	-0,047588
0,417500	0,1	-0,077126
0,419167	0,1	-0,048679
0,420833	0,1	-0,028070
0,422500	0,1	-0,002221
0,424167	0,1	-0,031562
0,425833	0,1	-0,020293
0,427500	0,1	-0,050966
0,429167	0,1	-0,014226
0,430833	0,1	-0,049844
0,432500	0,1	-0,020609
0,434167	0,1	-0,048540
0,435833	0,1	0,013216
0,437500	0,1	-0,050873
0,439167	0,1	-0,009812
0,440833	0,1	0,002593
0,442500	0,1	-0,017239
0,444167	0,1	-0,040332
0,445833	0,1	-0,024793
0,447500	0,1	-0,003836
0,449167	0,1	-0,029635
0,450833	0,1	-0,030885
0,452500	0,1	-0,011422
0,454167	0,1	0,001121
0,455833	0,1	-0,016180
0,457500	0,1	-0,030861
0,459167	0,1	-0,016500
0,460833	0,1	-0,025037
0,462500	0,1	-0,043008
0,464167	0,1	-0,024400
0,465833	0,1	-0,013866
0,467500	0,1	-0,018093
0,469167	0,1	-0,043256
0,470833	0,1	0,000925
0,472500	0,1	-0,052535
0,474167	0,1	0,013733
0,475833	0,1	0,002644
0,477500	0,1	0,002305
0,479167	0,1	-0,004596
0,480833	0,1	-0,012576
0,482500	0,1	-0,035584
0,484167	0,1	-0,067859
0,485833	0,1	-0,015099
0,487500	0,1	-0,016889
0,489167	0,1	-0,011357
0,490833	0,1	-0,019190
0,492500	0,1	-0,027524
0,494167	0,1	-0,009205
0,495833	0,1	-0,044414
0,497500	0,1	0,004614
0,499167	0,1	-0,005860
0,500833	0,1	-0,029532
0,502500	0,1	-0,029743
0,504167	0,1	-0,013162
0,505833	0,1	-0,008872
0,507500	0,1	-0,016289
0,509167	0,1	-0,069016
0,510833	0,1	-0,034811
0,512500	0,1	-0,026077
0,514167	0,1	-0,010615
0,515833	0,1	-0,037885
0,517500	0,1	-0,020836
0,519167	0,1	0,014219
0,520833	0,1	-0,013238
0,522500	0,1	-0,013408
0,524167	0,1	-0,044330
0,525833	0,1	-0,043675
0,527500	0,1	-0,029913
0,529167	0,1	-0,045828
0,530833	0,1	0,007514
0,532500	0,1	-0,015934
0,534167	0,1	-0,047690
0,535833	0,1	-0,018744
0,537500	0,1	-0,032061
0,539167	0,1	0,006506
0,540833	0,1	0,032093
0,542500	0,1	-0,009480
0,544167	0,1	-0,014341
0,545833	0,1	-0,014756
0,547500	0,1	-0,019316
0,549167	0,1	-0,017494
0,550833	0,1	-0,019876
0,552500	0,1	-0,018612
0,554167	0,1	-0,019689
0,555833	0,1	0,008663
0,557500	0,1	0,030699
0,559167	0,1	-0,032653
0,560833	0,1	-0,047570
0,562500	0,1	-0,016340
0,564167	0,1	-0,024787
0,565833	0,1	-0,034695
0,567500	0,1	-0,043549
0,569167	0,1	-0,010845
0,570833	0,1	0,015483
0,572500	0,1	-0,013401
0,574167	0,1	0,019111
0,575833	0,1	-0,037733
0,577500	0,1	0,000823
0,579167	0,1	-0,013218
0,580833	0,1	-0,008559
0,582500	0,1	0,014591
0,584167	0,1	-0,022545
0,585833	0,1	-0,009618
0,587500	0,1	0,047032
0,589167	0,1	0,021467
0,590833	0,1	0,015077
0,592500	0,1	0,003156
0,594167	0,1	0,003340
0,595833	0,1	0,011155
0,597500	0,1	0,003179
0,599167	0,1	0,018143
0,600833	0,1	-0,029856
0,602500	0,1	-0,018656
0,604167	0,1	0,002466
0,605833	0,1	-0,020659
0,607500	0,1	-0,015174
0,609167	0,1	-0,007194
0,610833	0,1	-0,013243
0,612500	0,1	0,010883
0,614167	0,1	-0,005817
0,615833	0,1	-0,016205
0,617500	0,1	0,017951
0,619167	0,1	0,010082
0,620833	0,1	0,013748
0,622500	0,1	0,028302
0,624167	0,1	0,041649
0,625833	0,1	-0,005292
0,627500	0,1	-0,016681
0,629167	0,1	0,039194
0,630833	0,1	0,035602
0,632500	0,1	0,015268
0,634167	0,1	-0,016676
0,635833	0,1	-0,003896
0,637500	0,1	0,028877
0,639167	0,1	0,003784
0,640833	0,1	0,013520
0,642500	0,1	0,019431
0,644167	0,1	-0,006499
0,645833	0,1	0,041892
0,647500	0,1	-0,015010
0,649167	0,1	0,059820
0,650833	0,1	0,023916
0,652500	0,1	0,043601
0,654167	0,1	0,056646
0,655833	0,1	0,029017
0,657500	0,1	0,057903
0,659167	0,1	0,057950
0,660833	0,1	0,032644
0,662500	0,1	0,049449
0,664167	0,1	0,032370
0,665833	0,1	0,046587
0,667500	0,1	0,076166
0,669167	0,1	0,101451
0,670833	0,1	0,027310
0,672500	0,1	0,069846
0,674167	0,1	0,029764
0,675833	0,1	0,046461
0,677500	0,1	0,053534
0,679167	0,1	0,073269
0,680833	0,1	0,046660
0,682500	0,1	0,051653
0,684167	0,1	0,041868
0,685833	0,1	0,049223
0,687500	0,1	0,073810
0,689167	0,1	0,066910
0,690833	0,1	0,063304
0,692500	0,1	0,048648
0,694167	0,1	0,077563
0,695833	0,1	0,074357
0,697500	0,1	0,058910
0,699167	0,1	0,080136
0,700833	0,1	0,090878
0,702500	0,1	0,110287
0,704167	0,1	0,080994
0,705833	0,1	0,056740
0,707500	0,1	0,064110
0,709167	0,1	0,115978
0,710833	0,1	0,099847
0,712500	0,1	0,141242
0,714167	0,1	0,076654
0,715833	0,1	0,087461
0,717500	0,1	0,091108
0,719167	0,1	0,101617
0,720833	0,1	0,105061
0,722500	0,1	0,132068
0,724167	0,1	0,078994
0,725833	0,1	0,146442
0,727500	0,1	0,155229
0,729167	0,1	0,114222
0,730833	0,1	0,152914
0,732500	0,1	0,134827
0,734167	0,1	0,111874
0,735833	0,1	0,162835
0,737500	0,1	0,139732
0,739167	0,1	0,073463
0,740833	0,1	0,163089
0,742500	0,1	0,158738
0,744167	0,1	0,154652
0,745833	0,1	0,149548
0,747500	0,1	0,154386
0,749167	0,1	0,120321
0,750833	0,1	0,140277
0,752500	0,1	0,168058
0,754167	0,1	0,174001
0,755833	0,1	0,115223
0,757500	0,1	0,153774
0,759167	0,1	0,152659
0,760833	0,1	0,190558
0,762500	0,1	0,141705
0,764167	0,1	0,150124
0,765833	0,1	0,156894
0,767500	0,1	0,161785
0,769167	0,1	0,154375
0,770833	0,1	0,114864
0,772500	0,1	0,170623
0,774167	0,1	0,157037
0,775833	0,1	0,143535
0,777500	0,1	0,132152
0,779167	0,1	0,142598
0,780833	0,1	0,162463
0,782500	0,1	0,123576
0,784167	0,1	0,139091
0,785833	0,1	0,141567
0,787500	0,1	0,125562
0,789167	0,1	0,129742
0,790833	0,1	0,150863
0,792500	0,1	0,143825
0,794167	0,1	0,121832
0,795833	0,1	0,159027
0,797500	0,1	0,130102
0,799167	0,1	0,119231
0,800833	0,1	0,138712
0,802500	0,1	0,137620
0,804167	0,1	0,127048
0,805833	0,1	0,109464
0,807500	0,1	0,123083
0,809167	0,1	0,127107
0,810833	0,1	0,087739
0,812500	0,1	0,093742
0,814167	0,1	0,137736
0,815833	0,1	0,110010
0,817500	0,1	0,152017
0,819167	0,1	0,087519
0,820833	0,1	0,127414
0,822500	0,1	0,125217
0,824167	0,1	0,131481
0,825833	0,1	0,074864
0,827500	0,1	0,152325
0,829167	0,1	0,076757
0,830833	0,1	0,120769
0,832500	0,1	0,105858
0,834167	0,1	0,116555
0,835833	0,1	0,134906
0,837500	0,1	0,086190
0,839167	0,1	0,125876
0,840833	0,1	0,104650
0,842500	0,1	0,086222
0,844167	0,1	0,072368
0,845833	0,1	0,151720
0,847500	0,1	0,101141
0,849167	0,1	0,100384
0,850833	0,1	0,103700
0,852500	0,1	0,136290
0,854167	0,1	0,142056
0,855833	0,1	0,112254
0,857500	0,1	0,102871
0,859167	0,1	0,123598
0,860833	0,1	0,115740
0,862500	0,1	0,085645
0,864167	0,1	0,094321
0,865833	0,1	0,125235
0,867500	0,1	0,116686
0,869167	0,1	0,135308
0,870833	0,1	0,124576
0,872500	0,1	0,108102
0,874167	0,1	0,085140
0,875833	0,1	0,116977
0,877500	0,1	0,097062
0,879167	0,1	0,125047
0,880833	0,1	0,131165
0,882500	0,1	0,079008
0,884167	0,1	0,123201
0,885833	0,1	0,093233
0,887500	0,1	0,121568
0,889167	0,1	0,118788
0,890833	0,1	0,105317
0,892500	0,1	0,122995
0,894167	0,1	0,082888
0,895833	0,1	0,125647
0,897500	0,1	0,136232
0,899167	0,1	0,082208
0,900833	0,1	0,123241
0,902500	0,1	0,113560
0,904167	0,1	0,121006
0,905833	0,1	0,136105
0,907500	0,1	0,138944
0,909167	0,1	0,131067
0,910833	0,1	0,150915
0,912500	0,1	0,169609
0,914167	0,1	0,093307
0,915833	0,1	0,152909
0,917500	0,1	0,123937
0,919167	0,1	0,109880
0,920833	0,1	0,115661
0,922500	0,1	0,154364
0,924167	0,1	0,182455
0,925833	0,1	0,138979
0,927500	0,1	0,163910
0,929167	0,1	0,175675
0,930833	0,1	0,153824
0,932500	0,1	0,140057
0,934167	0,1	0,174169
0,935833	0,1	0,147912
0,937500	0,1	0,139061
0,939167	0,1	0,105196
0,940833	0,1	0,144394
0,942500	0,1	0,174033
0,944167	0,1	0,159584
0,945833	0,1	0,144053
0,947500	0,1	0,169018
0,949167	0,1	0,154602
0,950833	0,1	0,174352
0,952500	0,1	0,170599
0,954167	0,1	0,151606
0,955833	0,1	0,154208
0,957500	0,1	0,196987
0,959167	0,1	0,161026
0,960833	0,1	0,157704
0,962500	0,1	0,183577
0,964167	0,1	0,178062
0,965833	0,1	0,198440
0,967500	0,1	0,198698
0,969167	0,1	0,189056
0,970833	0,1	0,224573
0,972500	0,1	0,172150
0,974167	0,1	0,173939
0,975833	0,1	0,208879
0,977500	0,1	0,198349
0,979167	0,1	0,196317
0,980833	0,1	0,205227
0,982500	0,1	0,210914
0,984167	0,1	0,198755
0,985833	0,1	0,227393
0,987500	0,1	0,190776
0,989167	0,1	0,254110
0,990833	0,1	0,224552
0,992500	0,1	0,194866
0,994167	0,1	0,258223
0,995833	0,1	0,236450
0,997500	0,1	0,255704
0,999167	0,1	0,260330
1,000833	0,1	0,270363
1,002500	0,1	0,269368
1,004167	0,1	0,277756
1,005833	0,1	0,276830
1,007500	0,1	0,291451
1,009167	0,1	0,296823
1,010833	0,1	0,308370
1,012500	0,1	0,303968
1,014167	0,1	0,356694
1,015833	0,1	0,387444
1,017500	0,1	0,374912
1,019167	0,1	0,388736
1,020833	0,1	0,362307
1,022500	0,1	0,404682
1,024167	0,1	0,427588
1,025833	0,1	0,397142
1,027500	0,1	0,372695
1,029167	0,1	0,405070
1,030833	0,1	0,489946
1,032500	0,1	0,475624
1,034167	0,1	0,475876
1,035833	0,1	0,510227
1,037500	0,1	0,468712
1,039167	0,1	0,454393
1,040833	0,1	0,505364
1,042500	0,1	0,475146
1,044167	0,1	0,508362
1,045833	0,1	0,521843
1,047500	0,1	0,563309
1,049167	0,1	0,557658
1,050833	0,1	0,570877
1,052500	0,1	0,613474
1,054167	0,1	0,642571
1,055833	0,1	0,630446
1,057500	0,1	0,711498
1,059167	0,1	0,781146
1,060833	0,1	0,862136
1,062500	0,1	0,937687
1,064167	0,1	1,103096
1,065833	0,1	1,325805
1,067500	0,1	1,587028
1,069167	0,1	1,949746
1,070833	0,1	2,338680
1,072500	0,1	2,765503
1,074167	0,1	3,414881
1,075833	0,1	4,127097
1,077500	0,1	4,930825
1,079167	0,1	5,927622
1,080833	0,1	7,069218
1,082500	0,1	8,301316
1,084167	0,1	9,762736
1,085833	0,1	11,303964
1,087500	0,1	12,951884
1,089167	0,1	14,732227
1,090833	0,1	16,674177
1,092500	0,1	18,593022
1,094167	0,1	20,502783
1,095833	0,1	22,538566
1,097500	0,1	24,451473
1,099167	0,1	26,334692
1,100833	0,1	28,112885
1,102500	0,1	29,795394
1,104167	0,1	31,415517
1,105833	0,1	32,808730
1,107500	0,1	34,031719
1,109167	0,1	35,143781
1,110833	0,1	36,007585
1,112500	0,1	36,693621
1,114167	0,1	37,306938
1,115833	0,1	37,663362
1,117500	0,1	37,919756
1,119167	0,1	38,012625
1,120833	0,1	38,027643
1,122500	0,1	37,812364
1,124167	0,1	37,608397
1,125833	0,1	37,354990
1,127500	0,1	36,999596
1,129167	0,1	36,608570
1,130833	0,1	36,177154
1,132500	0,1	35,693612
1,134167	0,1	35,274240
1,135833	0,1	34,822518
1,137500	0,1	34,413302
1,139167	0,1	34,031979
1,140833	0,1	33,773124
1,142500	0,1	33,443709
1,144167	0,1	33,228659
1,145833	0,1	33,070083
1,147500	0,1	32,975607
1,149167	0,1	33,017142
1,150833	0,1	33,129046
1,152500	0,1	33,253915
1,154167	0,1	33,544198
1,155833	0,1	33,868736
1,157500	0,1	34,244319
1,159167	0,1	34,710953
1,160833	0,1	35,244952
1,162500	0,1	35,796881
1,164167	0,1	36,428226
1,165833	0,1	36,994941
1,167500	0,1	37,653737
1,169167	0,1	38,298091
1,170833	0,1	38,967287
1,172500	0,1	39,606710
1,174167	0,1	40,193840
1,175833	0,1	40,791642
1,177500	0,1	41,332758
1,179167	0,1	41,825586
1,180833	0,1	42,296644
1,182500	0,1	42,690259
1,184167	0,1	43,056418
1,185833	0,1	43,345635
1,187500	0,1	43,688717
1,189167	0,1	43,933468
1,190833	0,1	44,106004
1,192500	0,1	44,378081
1,194167	0,1	44,678197
1,195833	0,1	44,952956
1,197500	0,1	45,294495
1,199167	0,1	45,733544
1,200833	0,1	46,225390
1,202500	0,1	46,905252
1,204167	0,1	47,688010
1,205833	0,1	48,643265
1,207500	0,1	49,803494
1,209167	0,1	51,145679
1,210833	0,1	52,700577
1,212500	0,1	54,534912
1,214167	0,1	56,534959
1,215833	0,1	58,806842
1,217500	0,1	61,231882
1,219167	0,1	63,893755
1,220833	0,1	66,768033
1,222500	0,1	69,755895
1,224167	0,1	72,975932
1,225833	0,1	76,174048
1,227500	0,1	79,440643
1,229167	0,1	82,788879
1,230833	0,1	86,121501
1,232500	0,1	89,310228
1,234167	0,1	92,504164
1,235833	0,1	95,585603
1,237500	0,1	98,468663
1,239167	0,1	101,185492
1,240833	0,1	103,723824
1,242500	0,1	105,998463
1,244167	0,1	108,141248
1,245833	0,1	109,926848
1,247500	0,1	111,597999
1,249167	0,1	112,926451
1,250833	0,1	114,031153
1,252500	0,1	114,825432
1,254167	0,1	115,406133
1,255833	0,1	115,753572
1,257500	0,1	115,779093
1,259167	0,1	115,634490
1,260833	0,1	115,225620
1,262500	0,1	114,535482
1,264167	0,1	113,684873
1,265833	0,1	112,672429
1,267500	0,1	111,352168
1,269167	0,1	109,944080
1,270833	0,1	108,260358
1,272500	0,1	106,593216
1,274167	0,1	104,621262
1,275833	0,1	102,577538
1,277500	0,1	100,471045
1,279167	0,1	98,186628
1,280833	0,1	95,888841
1,282500	0,1	93,494188
1,284167	0,1	91,091694
1,285833	0,1	88,617307
1,287500	0,1	86,164015
1,289167	0,1	83,686578
1,290833	0,1	81,203828
1,292500	0,1	78,770230
1,294167	0,1	76,377066
1,295833	0,1	74,017117
1,297500	0,1	71,667150
1,299167	0,1	69,418984
1,300833	0,1	67,219360
1,302500	0,1	65,034656
1,304167	0,1	63,036953
1,305833	0,1	61,033934
1,307500	0,1	59,173318
1,309167	0,1	57,280885
1,310833	0,1	55,514853
1,312500	0,1	53,902089
1,314167	0,1	52,258765
1,315833	0,1	50,715380
1,317500	0,1	49,275949
1,319167	0,1	47,903473
1,320833	0,1	46,556698
1,322500	0,1	45,273979
1,324167	0,1	44,024730
1,325833	0,1	42,935680
1,327500	0,1	41,829895
1,329167	0,1	40,780871
1,330833	0,1	39,768452
1,332500	0,1	38,777238
1,334167	0,1	37,827032
1,335833	0,1	36,958197
1,337500	0,1	36,082285
1,339167	0,1	35,201102
1,340833	0,1	34,395639
1,342500	0,1	33,640289
1,344167	0,1	32,880405
1,345833	0,1	32,144471
1,347500	0,1	31,448064
1,349167	0,1	30,788246
1,350833	0,1	30,102643
1,352500	0,1	29,427113
1,354167	0,1	28,815645
1,355833	0,1	28,185554
1,357500	0,1	27,559212
1,359167	0,1	26,969942
1,360833	0,1	26,368385
1,362500	0,1	25,817836
1,364167	0,1	25,231096
1,365833	0,1	24,742671
1,367500	0,1	24,173031
1,369167	0,1	23,703220
1,370833	0,1	23,139241
1,372500	0,1	22,636812
1,374167	0,1	22,189138
1,375833	0,1	21,643091
1,377500	0,1	21,145823
1,379167	0,1	20,758143
1,380833	0,1	20,271390
1,382500	0,1	19,885744
1,384167	0,1	19,444963
1,385833	0,1	18,985236
1,387500	0,1	18,599382
1,389167	0,1	18,240715
1,390833	0,1	17,857880
1,392500	0,1	17,439029
1,394167	0,1	17,077945
1,395833	0,1	16,767823
1,397500	0,1	16,421702
1,399167	0,1	16,050911
1,400833	0,1	15,781539
1,402500	0,1	15,500248
1,404167	0,1	15,220085
1,405833	0,1	14,954588
1,407500	0,1	14,655858
1,409167	0,1	14,361526
1,410833	0,1	14,144311
1,412500	0,1	13,882444
1,414167	0,1	13,651542
1,415833	0,1	13,406378
1,417500	0,1	13,160175
1,419167	0,1	12,976282
1,420833	0,1	12,753798
1,422500	0,1	12,529188
1,424167	0,1	12,362776
1,425833	0,1	12,171957
1,427500	0,1	11,965015
1,429167	0,1	11,813735
1,430833	0,1	11,622768
1,432500	0,1	11,412286
1,434167	0,1	11,301954
1,435833	0,1	11,121498
1,437500	0,1	10,942801
1,439167	0,1	10,826358
1,440833	0,1	10,660911
1,442500	0,1	10,540930
1,444167	0,1	10,339502
1,445833	0,1	10,189501
1,447500	0,1	10,078431
1,449167	0,1	9,946077
1,450833	0,1	9,796712
1,452500	0,1	9,657287
1,454167	0,1	9,538868
1,455833	0,1	9,377728
1,457500	0,1	9,228947
1,459167	0,1	9,133027
1,460833	0,1	9,035418
1,462500	0,1	8,914208
1,464167	0,1	8,802359
1,465833	0,1	8,680264
1,467500	0,1	8,592533
1,469167	0,1	8,485930
1,470833	0,1	8,364422
1,472500	0,1	8,262356
1,474167	0,1	8,174111
1,475833	0,1	8,109951
1,477500	0,1	8,041597
1,479167	0,1	7,960785
1,480833	0,1	7,861764
1,482500	0,1	7,804363
1,484167	0,1	7,722293
1,485833	0,1	7,694707
1,487500	0,1	7,639114
1,489167	0,1	7,552242
1,490833	0,1	7,518398
1,492500	0,1	7,484215
1,494167	0,1	7,464962
1,495833	0,1	7,379997
1,497500	0,1	7,372510
1,499167	0,1	7,299509
1,500833	0,1	7,298458
1,502500	0,1	7,263464
1,504167	0,1	7,200079
1,505833	0,1	7,238233
1,507500	0,1	7,188403
1,509167	0,1	7,203700
1,510833	0,1	7,155923
1,512500	0,1	7,153674
1,514167	0,1	7,162057
1,515833	0,1	7,086490
1,517500	0,1	7,092438
1,519167	0,1	7,093840
1,520833	0,1	7,071075
1,522500	0,1	7,045043
1,524167	0,1	7,037017
1,525833	0,1	6,961831
1,527500	0,1	6,960226
1,529167	0,1	6,980841
1,530833	0,1	6,864451
1,532500	0,1	6,922618
1,534167	0,1	6,901647
1,535833	0,1	6,941834
1,537500	0,1	6,889621
1,539167	0,1	6,853706
1,540833	0,1	6,831225
1,542500	0,1	6,789074
1,544167	0,1	6,754663
1,545833	0,1	6,752137
1,547500	0,1	6,659287
1,549167	0,1	6,665979
1,550833	0,1	6,638764
1,552500	0,1	6,617041
1,554167	0,1	6,584145
1,555833	0,1	6,594847
1,557500	0,1	6,588795
1,559167	0,1	6,461700
1,560833	0,1	6,487482
1,562500	0,1	6,466997
1,564167	0,1	6,415379
1,565833	0,1	6,345211
1,567500	0,1	6,331883
1,569167	0,1	6,349285
1,570833	0,1	6,281588
1,572500	0,1	6,283354
1,574167	0,1	6,206149
1,575833	0,1	6,180823
1,577500	0,1	6,135459
1,579167	0,1	6,126999
1,580833	0,1	6,057750
1,582500	0,1	6,037895
1,584167	0,1	6,018714
1,585833	0,1	5,952470
1,587500	0,1	5,912709
1,589167	0,1	5,876862
1,590833	0,1	5,844100
1,592500	0,1	5,850485
1,594167	0,1	5,744169
1,595833	0,1	5,735733
1,597500	0,1	5,735429
1,599167	0,1	5,666756
1,600833	0,1	5,638028
1,602500	0,1	5,605875
1,604167	0,1	5,560299
1,605833	0,1	5,495020
1,607500	0,1	5,485202
1,609167	0,1	5,413064
1,610833	0,1	5,411897
1,612500	0,1	5,404221
1,614167	0,1	5,374163
1,615833	0,1	5,381052
1,617500	0,1	5,303846
1,619167	0,1	5,246571
1,620833	0,1	5,190523
1,622500	0,1	5,204018
1,624167	0,1	5,130268
1,625833	0,1	5,133054
1,627500	0,1	5,082935
1,629167	0,1	5,061979
1,630833	0,1	5,018679
1,632500	0,1	4,989955
1,634167	0,1	4,989610
1,635833	0,1	4,958867
1,637500	0,1	4,885060
1,639167	0,1	4,857836
1,640833	0,1	4,849980
1,642500	0,1	4,808954
1,644167	0,1	4,788040
1,645833	0,1	4,766493
1,647500	0,1	4,749398
1,649167	0,1	4,677230
1,650833	0,1	4,684173
1,652500	0,1	4,691819
1,654167	0,1	4,673586
1,655833	0,1	4,644239
1,657500	0,1	4,624218
1,659167	0,1	4,601085
1,660833	0,1	4,590972
1,662500	0,1	4,568064
1,664167	0,1	4,588167
1,665833	0,1	4,554537
1,667500	0,1	4,568966
1,669167	0,1	4,559879
1,670833	0,1	4,551307
1,672500	0,1	4,534755
1,674167	0,1	4,569965
1,675833	0,1	4,549788
1,677500	0,1	4,623013
1,679167	0,1	4,592477
1,680833	0,1	4,619343
1,682500	0,1	4,603183
1,684167	0,1	4,593252
1,685833	0,1	4,631164
1,687500	0,1	4,657019
1,689167	0,1	4,702688
1,690833	0,1	4,702250
1,692500	0,1	4,759210
1,694167	0,1	4,761172
1,695833	0,1	4,818290
1,697500	0,1	4,808045
1,699167	0,1	4,880896
1,700833	0,1	4,883007
1,702500	0,1	4,898996
1,704167	0,1	4,920869
1,705833	0,1	4,993097
1,707500	0,1	5,028412
1,709167	0,1	5,025115
1,710833	0,1	5,078557
1,712500	0,1	5,108645
1,714167	0,1	5,135650
1,715833	0,1	5,142235
1,717500	0,1	5,162316
1,719167	0,1	5,198734
1,720833	0,1	5,204903
1,722500	0,1	5,282686
1,724167	0,1	5,277868
1,725833	0,1	5,277146
1,727500	0,1	5,323114
1,729167	0,1	5,327787
1,730833	0,1	5,346848
1,732500	0,1	5,337025
1,734167	0,1	5,330173
1,735833	0,1	5,374837
1,737500	0,1	5,311358
1,739167	0,1	5,363930
1,740833	0,1	5,329051
1,742500	0,1	5,354244
1,744167	0,1	5,311598
1,745833	0,1	5,342439
1,747500	0,1	5,307801
1,749167	0,1	5,311328
1,750833	0,1	5,253640
1,752500	0,1	5,268513
1,754167	0,1	5,250441
1,755833	0,1	5,204718
1,757500	0,1	5,207787
1,759167	0,1	5,138103
1,760833	0,1	5,193663
1,762500	0,1	5,093607
1,764167	0,1	5,083405
1,765833	0,1	5,063620
1,767500	0,1	5,026083
1,769167	0,1	4,984108
1,770833	0,1	4,982658
1,772500	0,1	4,921595
1,774167	0,1	4,868854
1,775833	0,1	4,844585
1,777500	0,1	4,797207
1,779167	0,1	4,756269
1,780833	0,1	4,682577
1,782500	0,1	4,684709
1,784167	0,1	4,611840
1,785833	0,1	4,532987
1,787500	0,1	4,523382
1,789167	0,1	4,485524
1,790833	0,1	4,384867
1,792500	0,1	4,405731
1,794167	0,1	4,334144
1,795833	0,1	4,289350
1,797500	0,1	4,229118
1,799167	0,1	4,203556
1,800833	0,1	4,138801
1,802500	0,1	4,099339
1,804167	0,1	4,068806
1,805833	0,1	4,018737
1,807500	0,1	3,973259
1,809167	0,1	3,886555
1,810833	0,1	3,882778
1,812500	0,1	3,822161
1,814167	0,1	3,801166
1,815833	0,1	3,712434
1,817500	0,1	3,665726
1,819167	0,1	3,665478
1,820833	0,1	3,582781
1,822500	0,1	3,519277
1,824167	0,1	3,552946
1,825833	0,1	3,516053
1,827500	0,1	3,433401
1,829167	0,1	3,438874
1,830833	0,1	3,390202
1,832500	0,1	3,337406
1,834167	0,1	3,293209
1,835833	0,1	3,315263
1,837500	0,1	3,267076
1,839167	0,1	3,265770
1,840833	0,1	3,268622
1,842500	0,1	3,233371
1,844167	0,1	3,270710
1,845833	0,1	3,259273
1,847500	0,1	3,235704
1,849167	0,1	3,277468
1,850833	0,1	3,347272
1,852500	0,1	3,338972
1,854167	0,1	3,365417
1,855833	0,1	3,378657
1,857500	0,1	3,445984
1,859167	0,1	3,497088
1,860833	0,1	3,517206
1,862500	0,1	3,596214
1,864167	0,1	3,620880
1,865833	0,1	3,669119
1,867500	0,1	3,745074
1,869167	0,1	3,763193
1,870833	0,1	3,808157
1,872500	0,1	3,848846
1,874167	0,1	3,875798
1,875833	0,1	3,920378
1,877500	0,1	3,967312
1,879167	0,1	4,022694
1,880833	0,1	4,052530
1,882500	0,1	4,103049
1,884167	0,1	4,143356
1,885833	0,1	4,147989
1,887500	0,1	4,205767
1,889167	0,1	4,223137
1,890833	0,1	4,258826
1,892500	0,1	4,289491
1,894167	0,1	4,331116
1,895833	0,1	4,347873
1,897500	0,1	4,331048
1,899167	0,1	4,379801
1,900833	0,1	4,396560
1,902500	0,1	4,487513
1,904167	0,1	4,487747
1,905833	0,1	4,520456
1,907500	0,1	4,504811
1,909167	0,1	4,517285
1,910833	0,1	4,550859
1,912500	0,1	4,532758
1,914167	0,1	4,567781
1,915833	0,1	4,582807
1,917500	0,1	4,607118
1,919167	0,1	4,566017
1,920833	0,1	4,602803
1,922500	0,1	4,615517
1,924167	0,1	4,615769
1,925833	0,1	4,647590
1,927500	0,1	4,605103
1,929167	0,1	4,570595
1,930833	0,1	4,586502
1,932500	0,1	4,569692
1,934167	0,1	4,607800
1,935833	0,1	4,555923
1,937500	0,1	4,529773
1,939167	0,1	4,545420
1,940833	0,1	4,514991
1,942500	0,1	4,530884
1,944167	0,1	4,504930
1,945833	0,1	4,490889
1,947500	0,1	4,449904
1,949167	0,1	4,471317
1,950833	0,1	4,399910
1,952500	0,1	4,417784
1,954167	0,1	4,408014
1,955833	0,1	4,413854
1,957500	0,1	4,379284
1,959167	0,1	4,348937
1,960833	0,1	4,368608
1,962500	0,1	4,360124
1,964167	0,1	4,290937
1,965833	0,1	4,318623
1,967500	0,1	4,257025
1,969167	0,1	4,298494
1,970833	0,1	4,224091
1,972500	0,1	4,219448
1,974167	0,1	4,225896
1,975833	0,1	4,207085
1,977500	0,1	4,207972
1,979167	0,1	4,159113
1,980833	0,1	4,167089
1,982500	0,1	4,160767
1,984167	0,1	4,167859
1,985833	0,1	4,172362
1,987500	0,1	4,092982
1,989167	0,1	4,110436
1,990833	0,1	4,077404
1,992500	0,1	4,118377
1,994167	0,1	4,118672
1,995833	0,1	4,084863
1,997500	0,1	4,102370
1,999167	0,1	4,095197
2,000833	0,1	4,117490
2,002500	0,1	4,112915
2,004167	0,1	4,101158
2,005833	0,1	4,034675
2,007500	0,1	4,095100
2,009167	0,1	4,092560
2,010833	0,1	4,063378
2,012500	0,1	4,082904
2,014167	0,1	4,037713
2,015833	0,1	4,087721
2,017500	0,1	4,104072
2,019167	0,1	4,084252
2,020833	0,1	4,052383
2,022500	0,1	4,068755
2,024167	0,1	4,104188
2,025833	0,1	4,108939
2,027500	0,1	4,079061
2,029167	0,1	4,099610
2,030833	0,1	4,122842
2,032500	0,1	4,137484
2,034167	0,1	4,151273
2,035833	0,1	4,147871
2,037500	0,1	4,158248
2,039167	0,1	4,190402
2,040833	0,1	4,148730
2,042500	0,1	4,198307
2,044167	0,1	4,227189
2,045833	0,1	4,229954
2,047500	0,1	4,256070
2,049167	0,1	4,260252
2,050833	0,1	4,270311
2,052500	0,1	4,308149
2,054167	0,1	4,330298
2,055833	0,1	4,291455
2,057500	0,1	4,345716
2,059167	0,1	4,357896
2,060833	0,1	4,347188
2,062500	0,1	4,369129
2,064167	0,1	4,330895
2,065833	0,1	4,409330
2,067500	0,1	4,406342
2,069167	0,1	4,426424
2,070833	0,1	4,451700
2,072500	0,1	4,476985
2,074167	0,1	4,515376
2,075833	0,1	4,506333
2,077500	0,1	4,527259
2,079167	0,1	4,521433
2,080833	0,1	4,546869
2,082500	0,1	4,542863
2,084167	0,1	4,576473
2,085833	0,1	4,652709
2,087500	0,1	4,618326
2,089167	0,1	4,610424
2,090833	0,1	4,630804
2,092500	0,1	4,656203
2,094167	0,1	4,638025
2,095833	0,1	4,678353
2,097500	0,1	4,682193
2,099167	0,1	4,653467
2,100833	0,1	4,681871
2,102500	0,1	4,696681
2,104167	0,1	4,735573
2,105833	0,1	4,738696
2,107500	0,1	4,722026
2,109167	0,1	4,743206
2,110833	0,1	4,723892
2,112500	0,1	4,731568
2,114167	0,1	4,730784
2,115833	0,1	4,743094
2,117500	0,1	4,767979
2,119167	0,1	4,805978
2,120833	0,1	4,814235
2,122500	0,1	4,800699
2,124167	0,1	4,775591
2,125833	0,1	4,803403
2,127500	0,1	4,807675
2,129167	0,1	4,789234
2,130833	0,1	4,807734
2,132500	0,1	4,818301
2,134167	0,1	4,811209
2,135833	0,1	4,851405
2,137500	0,1	4,810085
2,139167	0,1	4,833045
2,140833	0,1	4,821892
2,142500	0,1	4,814239
2,144167	0,1	4,852653
2,145833	0,1	4,811501
2,147500	0,1	4,814434
2,149167	0,1	4,850872
2,150833	0,1	4,809016
2,152500	0,1	4,868643
2,154167	0,1	4,782552
2,155833	0,1	4,841914
2,157500	0,1	4,806813
2,159167	0,1	4,811436
2,160833	0,1	4,826862
2,162500	0,1	4,802148
2,164167	0,1	4,816121
2,165833	0,1	4,788051
2,167500	0,1	4,789511
2,169167	0,1	4,778929
2,170833	0,1	4,794739
2,172500	0,1	4,775640
2,174167	0,1	4,792673
2,175833	0,1	4,786516
2,177500	0,1	4,748483
2,179167	0,1	4,738518
2,180833	0,1	4,775471
2,182500	0,1	4,719953
2,184167	0,1	4,747669
2,185833	0,1	4,708871
2,187500	0,1	4,758910
2,189167	0,1	4,733988
2,190833	0,1	4,714431
2,192500	0,1	4,747534
2,194167	0,1	4,737837
2,195833	0,1	4,711101
2,197500	0,1	4,744902
2,199167	0,1	4,667837
2,200833	0,1	4,710101
2,202500	0,1	4,720652
2,204167	0,1	4,651877
2,205833	0,1	4,688348
2,207500	0,1	4,716452
2,209167	0,1	4,681102
2,210833	0,1	4,703859
2,212500	0,1	4,724597
2,214167	0,1	4,712113
2,215833	0,1	4,714259
2,217500	0,1	4,705365
2,219167	0,1	4,681814
2,220833	0,1	4,702610
2,222500	0,1	4,746168
2,224167	0,1	4,717515
2,225833	0,1	4,753464
2,227500	0,1	4,744680
2,229167	0,1	4,751040
2,230833	0,1	4,757755
2,232500	0,1	4,823549
2,234167	0,1	4,788756
2,235833	0,1	4,785479
2,237500	0,1	4,773240
2,239167	0,1	4,857954
2,240833	0,1	4,842352
2,242500	0,1	4,873625
2,244167	0,1	4,865999
2,245833	0,1	4,904844
2,247500	0,1	4,886490
2,249167	0,1	4,941835
2,250833	0,1	4,977506
2,252500	0,1	4,931935
2,254167	0,1	4,997960
2,255833	0,1	4,989980
2,257500	0,1	5,038527
2,259167	0,1	5,012653
2,260833	0,1	5,053003
2,262500	0,1	5,014888
2,264167	0,1	5,075160
2,265833	0,1	5,059942
2,267500	0,1	5,027014
2,269167	0,1	5,070102
2,270833	0,1	5,044821
2,272500	0,1	5,060471
2,274167	0,1	5,033429
2,275833	0,1	5,101622
2,277500	0,1	5,083776
2,279167	0,1	5,067376
2,280833	0,1	5,086618
2,282500	0,1	5,085354
2,284167	0,1	5,084363
2,285833	0,1	5,051184
2,287500	0,1	5,101651
2,289167	0,1	5,055625
2,290833	0,1	5,065958
2,292500	0,1	5,013056
2,294167	0,1	5,039267
2,295833	0,1	5,023334
2,297500	0,1	4,993264
2,299167	0,1	5,034797
2,300833	0,1	5,044077
2,302500	0,1	5,016977
2,304167	0,1	4,993291
2,305833	0,1	4,947678
2,307500	0,1	4,999915
2,309167	0,1	4,965961
2,310833	0,1	4,918826
2,312500	0,1	4,909267
2,314167	0,1	4,925310
2,315833	0,1	4,900056
2,317500	0,1	4,868459
2,319167	0,1	4,851596
2,320833	0,1	4,820794
2,322500	0,1	4,847289
2,324167	0,1	4,814442
2,325833	0,1	4,788868
2,327500	0,1	4,753532
2,329167	0,1	4,751042
2,330833	0,1	4,685857
2,332500	0,1	4,693802
2,334167	0,1	4,679464
2,335833	0,1	4,697878
2,337500	0,1	4,665910
2,339167	0,1	4,605958
2,340833	0,1	4,617348
2,342500	0,1	4,586665
2,344167	0,1	4,573008
2,345833	0,1	4,493776
2,347500	0,1	4,528117
2,349167	0,1	4,543591
2,350833	0,1	4,462032
2,352500	0,1	4,449878
2,354167	0,1	4,414551
2,355833	0,1	4,462200
2,357500	0,1	4,363601
2,359167	0,1	4,360168
2,360833	0,1	4,357332
2,362500	0,1	4,312268
2,364167	0,1	4,302968
2,365833	0,1	4,259044
2,367500	0,1	4,246627
2,369167	0,1	4,222254
2,370833	0,1	4,262269
2,372500	0,1	4,227772
2,374167	0,1	4,185108
2,375833	0,1	4,199004
2,377500	0,1	4,175572
2,379167	0,1	4,150429
2,380833	0,1	4,205119
2,382500	0,1	4,164464
2,384167	0,1	4,136966
2,385833	0,1	4,168382
2,387500	0,1	4,120470
2,389167	0,1	4,157107
2,390833	0,1	4,163440
2,392500	0,1	4,168226
2,394167	0,1	4,154443
2,395833	0,1	4,158088
2,397500	0,1	4,191092
2,399167	0,1	4,224144
2,400833	0,1	4,239604
2,402500	0,1	4,309194
2,404167	0,1	4,308686
2,405833	0,1	4,338985
2,407500	0,1	4,430714
2,409167	0,1	4,441926
2,410833	0,1	4,561902
2,412500	0,1	4,600323
2,414167	0,1	4,670050
2,415833	0,1	4,678544
2,417500	0,1	4,796642
2,419167	0,1	4,855697
2,420833	0,1	4,944312
2,422500	0,1	5,023059
2,424167	0,1	5,171100
2,425833	0,1	5,270564
2,427500	0,1	5,332414
2,429167	0,1	5,428706
2,430833	0,1	5,562986
2,432500	0,1	5,655878
2,434167	0,1	5,770778
2,435833	0,1	5,920790
2,437500	0,1	6,086572
2,439167	0,1	6,166478
2,440833	0,1	6,291637
2,442500	0,1	6,436673
2,444167	0,1	6,563044
2,445833	0,1	6,691503
2,447500	0,1	6,805829
2,449167	0,1	6,901154
2,450833	0,1	7,037166
2,452500	0,1	7,151483
2,454167	0,1	7,299043
2,455833	0,1	7,390112
2,457500	0,1	7,520850
2,459167	0,1	7,622036
2,460833	0,1	7,703887
2,462500	0,1	7,804450
2,464167	0,1	7,865788
2,465833	0,1	8,012146
2,467500	0,1	8,082247
2,469167	0,1	8,165419
2,470833	0,1	8,252444
2,472500	0,1	8,347426
2,474167	0,1	8,412751
2,475833	0,1	8,483748
2,477500	0,1	8,552309
2,479167	0,1	8,624843
2,480833	0,1	8,648253
2,482500	0,1	8,721699
2,484167	0,1	8,814627
2,485833	0,1	8,863171
2,487500	0,1	8,854266
2,489167	0,1	8,974771
2,490833	0,1	9,022406
2,492500	0,1	9,070166
2,494167	0,1	9,129537
2,495833	0,1	9,218383
2,497500	0,1	9,252913
2,499167	0,1	9,365752
2,500833	0,1	9,361741
2,502500	0,1	9,474254
2,504167	0,1	9,511476
2,505833	0,1	9,611578
2,507500	0,1	9,646628
2,509167	0,1	9,753432
2,510833	0,1	9,883108
2,512500	0,1	9,904187
2,514167	0,1	10,010507
2,515833	0,1	10,113706
2,517500	0,1	10,229216
2,519167	0,1	10,338286
2,520833	0,1	10,444643
2,522500	0,1	10,591841
2,524167	0,1	10,714570
2,525833	0,1	10,865709
2,527500	0,1	10,985174
2,529167	0,1	11,135893
2,530833	0,1	11,296867
2,532500	0,1	11,455403
2,534167	0,1	11,620618
2,535833	0,1	11,744383
2,537500	0,1	11,930569
2,539167	0,1	12,107097
2,540833	0,1	12,298264
2,542500	0,1	12,430924
2,544167	0,1	12,667936
2,545833	0,1	12,867035
2,547500	0,1	12,982889
2,549167	0,1	13,200308
2,550833	0,1	13,392058
2,552500	0,1	13,578462
2,554167	0,1	13,766522
2,555833	0,1	13,973570
2,557500	0,1	14,149071
2,559167	0,1	14,358804
2,560833	0,1	14,473986
2,562500	0,1	14,629493
2,564167	0,1	14,829853
2,565833	0,1	14,959576
2,567500	0,1	15,117623
2,569167	0,1	15,305981
2,570833	0,1	15,431303
2,572500	0,1	15,556639
2,574167	0,1	15,648712
2,575833	0,1	15,801558
2,577500	0,1	15,983130
2,579167	0,1	16,055313
2,580833	0,1	16,153083
2,582500	0,1	16,260612
2,584167	0,1	16,347883
2,585833	0,1	16,433170
2,587500	0,1	16,506870
2,589167	0,1	16,559184
2,590833	0,1	16,617054
2,592500	0,1	16,667084
2,594167	0,1	16,694607
2,595833	0,1	16,718961
2,597500	0,1	16,726828
2,599167	0,1	16,720695
2,600833	0,1	16,781171
2,602500	0,1	16,744205
2,604167	0,1	16,740719
2,605833	0,1	16,729678
2,607500	0,1	16,705753
2,609167	0,1	16,698634
2,610833	0,1	16,646970
2,612500	0,1	16,628128
2,614167	0,1	16,554304
2,615833	0,1	16,470605
2,617500	0,1	16,455767
2,619167	0,1	16,404641
2,620833	0,1	16,284018
2,622500	0,1	16,222360
2,624167	0,1	16,125912
2,625833	0,1	16,039749
2,627500	0,1	15,953462
2,629167	0,1	15,866535
2,630833	0,1	15,751376
2,632500	0,1	15,660084
2,634167	0,1	15,524999
2,635833	0,1	15,401131
2,637500	0,1	15,257315
2,639167	0,1	15,170795
2,640833	0,1	15,063803
2,642500	0,1	14,912419
2,644167	0,1	14,777930
2,645833	0,1	14,645364
2,647500	0,1	14,519484
2,649167	0,1	14,349059
2,650833	0,1	14,176219
2,652500	0,1	14,016208
2,654167	0,1	13,913343
2,655833	0,1	13,776447
2,657500	0,1	13,569994
2,659167	0,1	13,455418
2,660833	0,1	13,244329
2,662500	0,1	13,126591
2,664167	0,1	12,974404
2,665833	0,1	12,790438
2,667500	0,1	12,661168
2,669167	0,1	12,457442
2,670833	0,1	12,305972
2,672500	0,1	12,172828
2,674167	0,1	11,965132
2,675833	0,1	11,778332
2,677500	0,1	11,632258
2,679167	0,1	11,448181
2,680833	0,1	11,310358
2,682500	0,1	11,150989
2,684167	0,1	10,953613
2,685833	0,1	10,845832
2,687500	0,1	10,624584
2,689167	0,1	10,483435
2,690833	0,1	10,307585
2,692500	0,1	10,163360
2,694167	0,1	9,987437
2,695833	0,1	9,864211
2,697500	0,1	9,720249
2,699167	0,1	9,547106
2,700833	0,1	9,368246
2,702500	0,1	9,240169
2,704167	0,1	9,158659
2,705833	0,1	8,945802
2,707500	0,1	8,834264
2,709167	0,1	8,730312
2,710833	0,1	8,564466
2,712500	0,1	8,407684
2,714167	0,1	8,280639
2,715833	0,1	8,151657
2,717500	0,1	8,067341
2,719167	0,1	7,938590
2,720833	0,1	7,787152
2,722500	0,1	7,671833
2,724167	0,1	7,537108
2,725833	0,1	7,437879
2,727500	0,1	7,349065
2,729167	0,1	7,283988
2,730833	0,1	7,126636
2,732500	0,1	6,988063
2,734167	0,1	6,867812
2,735833	0,1	6,812955
2,737500	0,1	6,691567
2,739167	0,1	6,607293
2,740833	0,1	6,531691
2,742500	0,1	6,440467
2,744167	0,1	6,306762
2,745833	0,1	6,241291
2,747500	0,1	6,158776
2,749167	0,1	6,028247
2,750833	0,1	6,003948
2,752500	0,1	5,937692
2,754167	0,1	5,822077
2,755833	0,1	5,779845
2,757500	0,1	5,668335
2,759167	0,1	5,617713
2,760833	0,1	5,544160
2,762500	0,1	5,491305
2,764167	0,1	5,469582
2,765833	0,1	5,346623
2,767500	0,1	5,292632
2,769167	0,1	5,224534
2,770833	0,1	5,169146
2,772500	0,1	5,065422
2,774167	0,1	5,047900
2,775833	0,1	4,973856
2,777500	0,1	4,893229
2,779167	0,1	4,892957
2,780833	0,1	4,800215
2,782500	0,1	4,796975
2,784167	0,1	4,703752
2,785833	0,1	4,687544
2,787500	0,1	4,609311
2,789167	0,1	4,534968
2,790833	0,1	4,506255
2,792500	0,1	4,500582
2,794167	0,1	4,413824
2,795833	0,1	4,394750
2,797500	0,1	4,337663
2,799167	0,1	4,289793
2,800833	0,1	4,253893
2,802500	0,1	4,207211
2,804167	0,1	4,178169
2,805833	0,1	4,123391
2,807500	0,1	4,019806
2,809167	0,1	4,029552
2,810833	0,1	3,969409
2,812500	0,1	3,946663
2,814167	0,1	3,924810
2,815833	0,1	3,887202
2,817500	0,1	3,833308
2,819167	0,1	3,815066
2,820833	0,1	3,754309
2,822500	0,1	3,736353
2,824167	0,1	3,699237
2,825833	0,1	3,658692
2,827500	0,1	3,604101
2,829167	0,1	3,595410
2,830833	0,1	3,606755
2,832500	0,1	3,511041
2,834167	0,1	3,501921
2,835833	0,1	3,470830
2,837500	0,1	3,467481
2,839167	0,1	3,405518
2,840833	0,1	3,383227
2,842500	0,1	3,385967
2,844167	0,1	3,318214
2,845833	0,1	3,294350
2,847500	0,1	3,268551
2,849167	0,1	3,275981
2,850833	0,1	3,206382
2,852500	0,1	3,212323
2,854167	0,1	3,170352
2,855833	0,1	3,144894
2,857500	0,1	3,118715
2,859167	0,1	3,115454
2,860833	0,1	3,070652
2,862500	0,1	3,039640
2,864167	0,1	2,981972
2,865833	0,1	2,997469
2,867500	0,1	3,008052
2,869167	0,1	2,924569
2,870833	0,1	2,877514
2,872500	0,1	2,907465
2,874167	0,1	2,879779
2,875833	0,1	2,911300
2,877500	0,1	2,834841
2,879167	0,1	2,826579
2,880833	0,1	2,814590
2,882500	0,1	2,788646
2,884167	0,1	2,820898
2,885833	0,1	2,749278
2,887500	0,1	2,724194
2,889167	0,1	2,683034
2,890833	0,1	2,681772
2,892500	0,1	2,658881
2,894167	0,1	2,701669
2,895833	0,1	2,656129
2,897500	0,1	2,646518
2,899167	0,1	2,592514
2,900833	0,1	2,645274
2,902500	0,1	2,596224
2,904167	0,1	2,573029
2,905833	0,1	2,526646
2,907500	0,1	2,531281
2,909167	0,1	2,494176
2,910833	0,1	2,497392
2,912500	0,1	2,503992
2,914167	0,1	2,493066
2,915833	0,1	2,447636
2,917500	0,1	2,448982
2,919167	0,1	2,458463
2,920833	0,1	2,419199
2,922500	0,1	2,409059
2,924167	0,1	2,389033
2,925833	0,1	2,369794
2,927500	0,1	2,382132
2,929167	0,1	2,341650
2,930833	0,1	2,362026
2,932500	0,1	2,323200
2,934167	0,1	2,306763
2,935833	0,1	2,321179
2,937500	0,1	2,303888
2,939167	0,1	2,275179
2,940833	0,1	2,287657
2,942500	0,1	2,304381
2,944167	0,1	2,255513
2,945833	0,1	2,262456
2,947500	0,1	2,255498
2,949167	0,1	2,245313
2,950833	0,1	2,220914
2,952500	0,1	2,204403
2,954167	0,1	2,194857
2,955833	0,1	2,210208
2,957500	0,1	2,222911
2,959167	0,1	2,158414
2,960833	0,1	2,160405
2,962500	0,1	2,131134
2,964167	0,1	2,167714
2,965833	0,1	2,173178
2,967500	0,1	2,097852
2,969167	0,1	2,153075
2,970833	0,1	2,124964
2,972500	0,1	2,111542
2,974167	0,1	2,083204
2,975833	0,1	2,097975
2,977500	0,1	2,072154
2,979167	0,1	2,078891
2,980833	0,1	2,059596
2,982500	0,1	2,053781
2,984167	0,1	2,045533
2,985833	0,1	2,084478
2,987500	0,1	2,054864
2,989167	0,1	1,993605
2,990833	0,1	2,038129
2,992500	0,1	2,021429
2,994167	0,1	1,999335
2,995833	0,1	2,006930
2,997500	0,1	2,027376
2,999167	0,1	1,997757
3,000833	0,1	1,965767
3,002500	0,1	1,985842
3,004167	0,1	2,036336
3,005833	0,1	1,956237
3,007500	0,1	1,983686
3,009167	0,1	1,935360
3,010833	0,1	1,977013
3,012500	0,1	1,985987
3,014167	0,1	1,978676
3,015833	0,1	1,903517
3,017500	0,1	1,971843
3,019167	0,1	1,943029
3,020833	0,1	1,961094
3,022500	0,1	1,902726
3,024167	0,1	1,932901
3,025833	0,1	1,945962
3,027500	0,1	1,949192
3,029167	0,1	1,915492
3,030833	0,1	1,926735
3,032500	0,1	1,906873
3,034167	0,1	1,883926
3,035833	0,1	1,908090
3,037500	0,1	1,927021
3,039167	0,1	1,913546
3,040833	0,1	1,929397
3,042500	0,1	1,869666
3,044167	0,1	1,880118
3,045833	0,1	1,825486
3,047500	0,1	1,851645
3,049167	0,1	1,878036
3,050833	0,1	1,847218
3,052500	0,1	1,884417
3,054167	0,1	1,835676
3,055833	0,1	1,825405
3,057500	0,1	1,814007
3,059167	0,1	1,786614
3,060833	0,1	1,869496
3,062500	0,1	1,828504
3,064167	0,1	1,821750
3,065833	0,1	1,839249
3,067500	0,1	1,830433
3,069167	0,1	1,826341
3,070833	0,1	1,787414
3,072500	0,1	1,809200
3,074167	0,1	1,824195
3,075833	0,1	1,795078
3,077500	0,1	1,809342
3,079167	0,1	1,768190
3,080833	0,1	1,767823
3,082500	0,1	1,789629
3,084167	0,1	1,806327
3,085833	0,1	1,776142
3,087500	0,1	1,769690
3,089167	0,1	1,806181
3,090833	0,1	1,802178
3,092500	0,1	1,784687
3,094167	0,1	1,785117
3,095833	0,1	1,822032
3,097500	0,1	1,812716
3,099167	0,1	1,795580
3,100833	0,1	1,801026
3,102500	0,1	1,798810
3,104167	0,1	1,834727
3,105833	0,1	1,791855
3,107500	0,1	1,836219
3,109167	0,1	1,808273
3,110833	0,1	1,837160
3,112500	0,1	1,827633
3,114167	0,1	1,834301
3,115833	0,1	1,850507
3,117500	0,1	1,809642
3,119167	0,1	1,844765
3,120833	0,1	1,843117
3,122500	0,1	1,835156
3,124167	0,1	1,887284
3,125833	0,1	1,901061
3,127500	0,1	1,894464
3,129167	0,1	1,946315
3,130833	0,1	1,920577
3,132500	0,1	1,911323
3,134167	0,1	1,975360
3,135833	0,1	1,950774
3,137500	0,1	1,973643
3,139167	0,1	2,005276
3,140833	0,1	1,945330
3,142500	0,1	1,983609
3,144167	0,1	1,998395
3,145833	0,1	2,057210
3,147500	0,1	2,095169
3,149167	0,1	2,050850
3,150833	0,1	2,065256
3,152500	0,1	2,095458
3,154167	0,1	2,119713
3,155833	0,1	2,122087
3,157500	0,1	2,133780
3,159167	0,1	2,121659
3,160833	0,1	2,150714
3,162500	0,1	2,135294
3,164167	0,1	2,132566
3,165833	0,1	2,159609
3,167500	0,1	2,191251
3,169167	0,1	2,199229
3,170833	0,1	2,180147
3,172500	0,1	2,229501
3,174167	0,1	2,197156
3,175833	0,1	2,208417
3,177500	0,1	2,236616
3,179167	0,1	2,239781
3,180833	0,1	2,209288
3,182500	0,1	2,271709
3,184167	0,1	2,223648
3,185833	0,1	2,271417
3,187500	0,1	2,258372
3,189167	0,1	2,235197
3,190833	0,1	2,227945
3,192500	0,1	2,279814
3,194167	0,1	2,193081
3,195833	0,1	2,266821
3,197500	0,1	2,251774
3,199167	0,1	2,276954
3,200833	0,1	2,240938
3,202500	0,1	2,318289
3,204167	0,1	2,307900
3,205833	0,1	2,266276
3,207500	0,1	2,216612
3,209167	0,1	2,197944
3,210833	0,1	2,220971
3,212500	0,1	2,255783
3,214167	0,1	2,254923
3,215833	0,1	2,226368
3,217500	0,1	2,232168
3,219167	0,1	2,192709
3,220833	0,1	2,224772
3,222500	0,1	2,199522
3,224167	0,1	2,179000
3,225833	0,1	2,167870
3,227500	0,1	2,148641
3,229167	0,1	2,207398
3,230833	0,1	2,195498
3,232500	0,1	2,134587
3,234167	0,1	2,197558
3,235833	0,1	2,137386
3,237500	0,1	2,135432
3,239167	0,1	2,102578
3,240833	0,1	2,131194
3,242500	0,1	2,087153
3,244167	0,1	2,079181
3,245833	0,1	2,080469
3,247500	0,1	2,068347
3,249167	0,1	2,029256
3,250833	0,1	2,020783
3,252500	0,1	1,997331
3,254167	0,1	1,976956
3,255833	0,1	2,021130
3,257500	0,1	1,960898
3,259167	0,1	1,935567
3,260833	0,1	1,939860
3,262500	0,1	1,949618
3,264167	0,1	1,940661
3,265833	0,1	1,904948
3,267500	0,1	1,862056
3,269167	0,1	1,912961
3,270833	0,1	1,888958
3,272500	0,1	1,871522
3,274167	0,1	1,864782
3,275833	0,1	1,761759
3,277500	0,1	1,827050
3,279167	0,1	1,787267
3,280833	0,1	1,793070
3,282500	0,1	1,788990
3,284167	0,1	1,723743
3,285833	0,1	1,749973
3,287500	0,1	1,697155
3,289167	0,1	1,680868
3,290833	0,1	1,704514
3,292500	0,1	1,694059
3,294167	0,1	1,678948
3,295833	0,1	1,667764
3,297500	0,1	1,637300
3,299167	0,1	1,648997
3,300833	0,1	1,609198
3,302500	0,1	1,649043
3,304167	0,1	1,609278
3,305833	0,1	1,571639
3,307500	0,1	1,566124
3,309167	0,1	1,577599
3,310833	0,1	1,547010
3,312500	0,1	1,535605
3,314167	0,1	1,551065
3,315833	0,1	1,522997
3,317500	0,1	1,502717
3,319167	0,1	1,534097
3,320833	0,1	1,445689
3,322500	0,1	1,487651
3,324167	0,1	1,459940
3,325833	0,1	1,462374
3,327500	0,1	1,448399
3,329167	0,1	1,471327
3,330833	0,1	1,384079
3,332500	0,1	1,452537
3,334167	0,1	1,406565
3,335833	0,1	1,439374
3,337500	0,1	1,359868
3,339167	0,1	1,378690
3,340833	0,1	1,370097
3,342500	0,1	1,349894
3,344167	0,1	1,367826
3,345833	0,1	1,357765
3,347500	0,1	1,391526
3,349167	0,1	1,371389
3,350833	0,1	1,329424
3,352500	0,1	1,333294
3,354167	0,1	1,350558
3,355833	0,1	1,350413
3,357500	0,1	1,312071
3,359167	0,1	1,344466
3,360833	0,1	1,319461
3,362500	0,1	1,288342
3,364167	0,1	1,297826
3,365833	0,1	1,314158
3,367500	0,1	1,267424
3,369167	0,1	1,266601
3,370833	0,1	1,298449
3,372500	0,1	1,275107
3,374167	0,1	1,245188
3,375833	0,1	1,260796
3,377500	0,1	1,292187
3,379167	0,1	1,299692
3,380833	0,1	1,229068
3,382500	0,1	1,277563
3,384167	0,1	1,233809
3,385833	0,1	1,227220
3,387500	0,1	1,201718
3,389167	0,1	1,198000
3,390833	0,1	1,228636
3,392500	0,1	1,224810
3,394167	0,1	1,273883
3,395833	0,1	1,238115
3,397500	0,1	1,233324
3,399167	0,1	1,227001
3,400833	0,1	1,194717
3,402500	0,1	1,249847
3,404167	0,1	1,217306
3,405833	0,1	1,228809
3,407500	0,1	1,195294
3,409167	0,1	1,203593
3,410833	0,1	1,217412
3,412500	0,1	1,195359
3,414167	0,1	1,144527
3,415833	0,1	1,199987
3,417500	0,1	1,204612
3,419167	0,1	1,189471
3,420833	0,1	1,163495
3,422500	0,1	1,186478
3,424167	0,1	1,190281
3,425833	0,1	1,182162
3,427500	0,1	1,161647
3,429167	0,1	1,183037
3,430833	0,1	1,183245
3,432500	0,1	1,160256
3,434167	0,1	1,211027
3,435833	0,1	1,164569
3,437500	0,1	1,151300
3,439167	0,1	1,215688
3,440833	0,1	1,190830
3,442500	0,1	1,229228
3,444167	0,1	1,197819
3,445833	0,1	1,180214
3,447500	0,1	1,191349
3,449167	0,1	1,217563
3,450833	0,1	1,210057
3,452500	0,1	1,195000
3,454167	0,1	1,186553
3,455833	0,1	1,232295
3,457500	0,1	1,206636
3,459167	0,1	1,255921
3,460833	0,1	1,230872
3,462500	0,1	1,227964
3,464167	0,1	1,245445
3,465833	0,1	1,191941
3,467500	0,1	1,194844
3,469167	0,1	1,265295
3,470833	0,1	1,288253
3,472500	0,1	1,249566
3,474167	0,1	1,235076
3,475833	0,1	1,256405
3,477500	0,1	1,265023
3,479167	0,1	1,257192
3,480833	0,1	1,353202
3,482500	0,1	1,304726
3,484167	0,1	1,336155
3,485833	0,1	1,314372
3,487500	0,1	1,350267
3,489167	0,1	1,361163
3,490833	0,1	1,364305
3,492500	0,1	1,342051
3,494167	0,1	1,318308
3,495833	0,1	1,366792
3,497500	0,1	1,394641
3,499167	0,1	1,373034
3,500833	0,1	1,371466
3,502500	0,1	1,389939
3,504167	0,1	1,423831
3,505833	0,1	1,410727
3,507500	0,1	1,392157
3,509167	0,1	1,472109
3,510833	0,1	1,437156
3,512500	0,1	1,420456
3,514167	0,1	1,450829
3,515833	0,1	1,469821
3,517500	0,1	1,485873
3,519167	0,1	1,478059
3,520833	0,1	1,480349
3,522500	0,1	1,481570
3,524167	0,1	1,475561
3,525833	0,1	1,503499
3,527500	0,1	1,497542
3,529167	0,1	1,513590
3,530833	0,1	1,515688
3,532500	0,1	1,529367
3,534167	0,1	1,526276
3,535833	0,1	1,531662
3,537500	0,1	1,512309
3,539167	0,1	1,526787
3,540833	0,1	1,556956
3,542500	0,1	1,542272
3,544167	0,1	1,529662
3,545833	0,1	1,553643
3,547500	0,1	1,553967
3,549167	0,1	1,546625
3,550833	0,1	1,534602
3,552500	0,1	1,512529
3,554167	0,1	1,523771
3,555833	0,1	1,556877
3,557500	0,1	1,562786
3,559167	0,1	1,543771
3,560833	0,1	1,507006
3,562500	0,1	1,579797
3,564167	0,1	1,535601
3,565833	0,1	1,526702
3,567500	0,1	1,524639
3,569167	0,1	1,516890
3,570833	0,1	1,558888
3,572500	0,1	1,512315
3,574167	0,1	1,528194
3,575833	0,1	1,535600
3,577500	0,1	1,524214
3,579167	0,1	1,517742
3,580833	0,1	1,544923
3,582500	0,1	1,489898
3,584167	0,1	1,531653
3,585833	0,1	1,517190
3,587500	0,1	1,500216
3,589167	0,1	1,494894
3,590833	0,1	1,474183
3,592500	0,1	1,512871
3,594167	0,1	1,447766
3,595833	0,1	1,479191
3,597500	0,1	1,458210
3,599167	0,1	1,484338
3,600833	0,1	1,457774
3,602500	0,1	1,430130
3,604167	0,1	1,482502
3,605833	0,1	1,428778
3,607500	0,1	1,434209
3,609167	0,1	1,452929
3,610833	0,1	1,433939
3,612500	0,1	1,409440
3,614167	0,1	1,418584
3,615833	0,1	1,427416
3,617500	0,1	1,428859
3,619167	0,1	1,397398
3,620833	0,1	1,415508
3,622500	0,1	1,362727
3,624167	0,1	1,389785
3,625833	0,1	1,376504
3,627500	0,1	1,335294
3,629167	0,1	1,349338
3,630833	0,1	1,328540
3,632500	0,1	1,367245
3,634167	0,1	1,335291
3,635833	0,1	1,334516
3,637500	0,1	1,328686
3,639167	0,1	1,326781
3,640833	0,1	1,317676
3,642500	0,1	1,317453
3,644167	0,1	1,292995
3,645833	0,1	1,284090
3,647500	0,1	1,269455
3,649167	0,1	1,279625
3,650833	0,1	1,240543
3,652500	0,1	1,301613
3,654167	0,1	1,236342
3,655833	0,1	1,242329
3,657500	0,1	1,262237
3,659167	0,1	1,250659
3,660833	0,1	1,230717
3,662500	0,1	1,236257
3,664167	0,1	1,232511
3,665833	0,1	1,180255
3,667500	0,1	1,205082
3,669167	0,1	1,185741
3,670833	0,1	1,206541
3,672500	0,1	1,208174
3,674167	0,1	1,175453
3,675833	0,1	1,206690
3,677500	0,1	1,174740
3,679167	0,1	1,171019
3,680833	0,1	1,139300
3,682500	0,1	1,145667
3,684167	0,1	1,146178
3,685833	0,1	1,106729
3,687500	0,1	1,111738
3,689167	0,1	1,097905
3,690833	0,1	1,124889
3,692500	0,1	1,162786
3,694167	0,1	1,152962
3,695833	0,1	1,119971
3,697500	0,1	1,130135
3,699167	0,1	1,081856
3,700833	0,1	1,075662
3,702500	0,1	1,109579
3,704167	0,1	1,094924
3,705833	0,1	1,158508
3,707500	0,1	1,100311
3,709167	0,1	1,129621
3,710833	0,1	1,136443
3,712500	0,1	1,113900
3,714167	0,1	1,073557
3,715833	0,1	1,086323
3,717500	0,1	1,075001
3,719167	0,1	1,077373
3,720833	0,1	1,100898
3,722500	0,1	1,091058
3,724167	0,1	1,062255
3,725833	0,1	1,069620
3,727500	0,1	1,091032
3,729167	0,1	1,061455
3,730833	0,1	1,043723
3,732500	0,1	1,113483
3,734167	0,1	1,088215
3,735833	0,1	1,086191
3,737500	0,1	1,090410
3,739167	0,1	1,084154
3,740833	0,1	1,101784
3,742500	0,1	1,075023
3,744167	0,1	1,101647
3,745833	0,1	1,130572
3,747500	0,1	1,097400
3,749167	0,1	1,066804
3,750833	0,1	1,134679
3,752500	0,1	1,068745
3,754167	0,1	1,084503
3,755833	0,1	1,072491
3,757500	0,1	1,086659
3,759167	0,1	1,105649
3,760833	0,1	1,095635
3,762500	0,1	1,088307
3,764167	0,1	1,138808
3,765833	0,1	1,079590
3,767500	0,1	1,124769
3,769167	0,1	1,100438
3,770833	0,1	1,106988
3,772500	0,1	1,152965
3,774167	0,1	1,106836
3,775833	0,1	1,130708
3,777500	0,1	1,097825
3,779167	0,1	1,146588
3,780833	0,1	1,111238
3,782500	0,1	1,150421
3,784167	0,1	1,160367
3,785833	0,1	1,146758
3,787500	0,1	1,185610
3,789167	0,1	1,203049
3,790833	0,1	1,154836
3,792500	0,1	1,155707
3,794167	0,1	1,199293
3,795833	0,1	1,187623
3,797500	0,1	1,137898
3,799167	0,1	1,170501
3,800833	0,1	1,164662
3,802500	0,1	1,202890
3,804167	0,1	1,188065
3,805833	0,1	1,205574
3,807500	0,1	1,234029
3,809167	0,1	1,172508
3,810833	0,1	1,212251
3,812500	0,1	1,235744
3,814167	0,1	1,215573
3,815833	0,1	1,244834
3,817500	0,1	1,254012
3,819167	0,1	1,290457
3,820833	0,1	1,215161
3,822500	0,1	1,295040
3,824167	0,1	1,257808
3,825833	0,1	1,286387
3,827500	0,1	1,284119
3,829167	0,1	1,246698
3,830833	0,1	1,267308
3,832500	0,1	1,290443
3,834167	0,1	1,266047
3,835833	0,1	1,275281
3,837500	0,1	1,308642
3,839167	0,1	1,297708
3,840833	0,1	1,282499
3,842500	0,1	1,287446
3,844167	0,1	1,295907
3,845833	0,1	1,321125
3,847500	0,1	1,278706
3,849167	0,1	1,317170
3,850833	0,1	1,293404
3,852500	0,1	1,301557
3,854167	0,1	1,313394
3,855833	0,1	1,312736
3,857500	0,1	1,305702
3,859167	0,1	1,343434
3,860833	0,1	1,320818
3,862500	0,1	1,342672
3,864167	0,1	1,317898
3,865833	0,1	1,364706
3,867500	0,1	1,345479
3,869167	0,1	1,335162
3,870833	0,1	1,332911
3,872500	0,1	1,357853
3,874167	0,1	1,343241
3,875833	0,1	1,319145
3,877500	0,1	1,378077
3,879167	0,1	1,330151
3,880833	0,1	1,310231
3,882500	0,1	1,342956
3,884167	0,1	1,331790
3,885833	0,1	1,357812
3,887500	0,1	1,310980
3,889167	0,1	1,320605
3,890833	0,1	1,363529
3,892500	0,1	1,318753
3,894167	0,1	1,345907
3,895833	0,1	1,352990
3,897500	0,1	1,344271
3,899167	0,1	1,311607
3,900833	0,1	1,315889
3,902500	0,1	1,325147
3,904167	0,1	1,327493
3,905833	0,1	1,314604
3,907500	0,1	1,283996
3,909167	0,1	1,284224
3,910833	0,1	1,308354
3,912500	0,1	1,311091
3,914167	0,1	1,311023
3,915833	0,1	1,259864
3,917500	0,1	1,292238
3,919167	0,1	1,269897
3,920833	0,1	1,244915
3,922500	0,1	1,280349
3,924167	0,1	1,283661
3,925833	0,1	1,226233
3,927500	0,1	1,288653
3,929167	0,1	1,231829
3,930833	0,1	1,243617
3,932500	0,1	1,260387
3,934167	0,1	1,209577
3,935833	0,1	1,237236
3,937500	0,1	1,236631
3,939167	0,1	1,226407
3,940833	0,1	1,179847
3,942500	0,1	1,223646
3,944167	0,1	1,201242
3,945833	0,1	1,158498
3,947500	0,1	1,217623
3,949167	0,1	1,209616
3,950833	0,1	1,168553
3,952500	0,1	1,171797
3,954167	0,1	1,139925
3,955833	0,1	1,167299
3,957500	0,1	1,150844
3,959167	0,1	1,134190
3,960833	0,1	1,128647
3,962500	0,1	1,129290
3,964167	0,1	1,159125
3,965833	0,1	1,130076
3,967500	0,1	1,102266
3,969167	0,1	1,113382
3,970833	0,1	1,113318
3,972500	0,1	1,132881
3,974167	0,1	1,053892
3,975833	0,1	1,095862
3,977500	0,1	1,109668
3,979167	0,1	1,102299
3,980833	0,1	1,096942
3,982500	0,1	1,054634
3,984167	0,1	1,097133
3,985833	0,1	1,051729
3,987500	0,1	1,067812
3,989167	0,1	1,048367
3,990833	0,1	1,022199
3,992500	0,1	1,060586
3,994167	0,1	1,046781
3,995833	0,1	1,073145
3,997500	0,1	1,036797
3,999167	0,1	1,062299
4,000833	0,1	1,035525
4,002500	0,1	1,015066
4,004167	0,1	1,009754
4,005833	0,1	1,065754
4,007500	0,1	1,024872
4,009167	0,1	1,004496
4,010833	0,1	1,038068
4,012500	0,1	1,009450
4,014167	0,1	1,029697
4,015833	0,1	1,049619
4,017500	0,1	1,022247
4,019167	0,1	1,003383
4,020833	0,1	1,032004
4,022500	0,1	1,044024
4,024167	0,1	0,994373
4,025833	0,1	0,971246
4,027500	0,1	0,994536
4,029167	0,1	1,023522
4,030833	0,1	0,981202
4,032500	0,1	1,014238
4,034167	0,1	1,019882
4,035833	0,1	0,997258
4,037500	0,1	1,027561
4,039167	0,1	1,039622
4,040833	0,1	1,061992
4,042500	0,1	1,050539
4,044167	0,1	1,019403
4,045833	0,1	1,013243
4,047500	0,1	1,044377
4,049167	0,1	1,025686
4,050833	0,1	1,050356
4,052500	0,1	1,044297
4,054167	0,1	1,060552
4,055833	0,1	1,045475
4,057500	0,1	1,055620
4,059167	0,1	1,025911
4,060833	0,1	1,060499
4,062500	0,1	1,091490
4,064167	0,1	1,089056
4,065833	0,1	1,069290
4,067500	0,1	1,127728
4,069167	0,1	1,071607
4,070833	0,1	1,139262
4,072500	0,1	1,127985
4,074167	0,1	1,129222
4,075833	0,1	1,132221
4,077500	0,1	1,124610
4,079167	0,1	1,119742
4,080833	0,1	1,157513
4,082500	0,1	1,146216
4,084167	0,1	1,176761
4,085833	0,1	1,155271
4,087500	0,1	1,157689
4,089167	0,1	1,197870
4,090833	0,1	1,213903
4,092500	0,1	1,255870
4,094167	0,1	1,220714
4,095833	0,1	1,227370
4,097500	0,1	1,261013
4,099167	0,1	1,272180
4,100833	0,1	1,279929
4,102500	0,1	1,320324
4,104167	0,1	1,313398
4,105833	0,1	1,292895
4,107500	0,1	1,330255
4,109167	0,1	1,354714
4,110833	0,1	1,363166
4,112500	0,1	1,360740
4,114167	0,1	1,404117
4,115833	0,1	1,381362
4,117500	0,1	1,434060
4,119167	0,1	1,434086
4,120833	0,1	1,463864
4,122500	0,1	1,472403
4,124167	0,1	1,486598
4,125833	0,1	1,487650
4,127500	0,1	1,482792
4,129167	0,1	1,522210
4,130833	0,1	1,512951
4,132500	0,1	1,504580
4,134167	0,1	1,514802
4,135833	0,1	1,574293
4,137500	0,1	1,608406
4,139167	0,1	1,597808
4,140833	0,1	1,637649
4,142500	0,1	1,643821
4,144167	0,1	1,642603
4,145833	0,1	1,617730
4,147500	0,1	1,646403
4,149167	0,1	1,696141
4,150833	0,1	1,740948
4,152500	0,1	1,685978
4,154167	0,1	1,723886
4,155833	0,1	1,725460
4,157500	0,1	1,768041
4,159167	0,1	1,735222
4,160833	0,1	1,748269
4,162500	0,1	1,788416
4,164167	0,1	1,761389
4,165833	0,1	1,799731
4,167500	0,1	1,809566
4,169167	0,1	1,855159
4,170833	0,1	1,789139
4,172500	0,1	1,845764
4,174167	0,1	1,852375
4,175833	0,1	1,833383
4,177500	0,1	1,849579
4,179167	0,1	1,854806
4,180833	0,1	1,831579
4,182500	0,1	1,866060
4,184167	0,1	1,885072
4,185833	0,1	1,915834
4,187500	0,1	1,908239
4,189167	0,1	1,901356
4,190833	0,1	1,884643
4,192500	0,1	1,961302
4,194167	0,1	1,936152
4,195833	0,1	1,892764
4,197500	0,1	1,895327
4,199167	0,1	1,938356
4,200833	0,1	1,926744
4,202500	0,1	1,951555
4,204167	0,1	1,970780
4,205833	0,1	1,961536
4,207500	0,1	1,913051
4,209167	0,1	1,935844
4,210833	0,1	1,938579
4,212500	0,1	1,946468
4,214167	0,1	1,931483
4,215833	0,1	1,923512
4,217500	0,1	1,895183
4,219167	0,1	1,933906
4,220833	0,1	1,878638
4,222500	0,1	1,921350
4,224167	0,1	1,889448
4,225833	0,1	1,914686
4,227500	0,1	1,928890
4,229167	0,1	1,916204
4,230833	0,1	1,923514
4,232500	0,1	1,909820
4,234167	0,1	1,896123
4,235833	0,1	1,880917
4,237500	0,1	1,884142
4,239167	0,1	1,905300
4,240833	0,1	1,909241
4,242500	0,1	1,862281
4,244167	0,1	1,858404
4,245833	0,1	1,844340
4,247500	0,1	1,877468
4,249167	0,1	1,854244
4,250833	0,1	1,885646
4,252500	0,1	1,872749
4,254167	0,1	1,833237
4,255833	0,1	1,839393
4,257500	0,1	1,812936
4,259167	0,1	1,797738
4,260833	0,1	1,791783
4,262500	0,1	1,754708
4,264167	0,1	1,800815
4,265833	0,1	1,776445
4,267500	0,1	1,776376
4,269167	0,1	1,725473
4,270833	0,1	1,751703
4,272500	0,1	1,749053
4,274167	0,1	1,723957
4,275833	0,1	1,697225
4,277500	0,1	1,717074
4,279167	0,1	1,678807
4,280833	0,1	1,677499
4,282500	0,1	1,719083
4,284167	0,1	1,685483
4,285833	0,1	1,661246
4,287500	0,1	1,625411
4,289167	0,1	1,669911
4,290833	0,1	1,661747
4,292500	0,1	1,654059
4,294167	0,1	1,609862
4,295833	0,1	1,602542
4,297500	0,1	1,567510
4,299167	0,1	1,609416
4,300833	0,1	1,567859
4,302500	0,1	1,554595
4,304167	0,1	1,553383
4,305833	0,1	1,549156
4,307500	0,1	1,528224
4,309167	0,1	1,560666
4,310833	0,1	1,531393
4,312500	0,1	1,539581
4,314167	0,1	1,500014
4,315833	0,1	1,484015
4,317500	0,1	1,438861
4,319167	0,1	1,468160
4,320833	0,1	1,442667
4,322500	0,1	1,444826
4,324167	0,1	1,489976
4,325833	0,1	1,437485
4,327500	0,1	1,417545
4,329167	0,1	1,424700
4,330833	0,1	1,409601
4,332500	0,1	1,373602
4,334167	0,1	1,365516
4,335833	0,1	1,327200
4,337500	0,1	1,415147
4,339167	0,1	1,386300
4,340833	0,1	1,381220
4,342500	0,1	1,311737
4,344167	0,1	1,329780
4,345833	0,1	1,311740
4,347500	0,1	1,289553
4,349167	0,1	1,323467
4,350833	0,1	1,313877
4,352500	0,1	1,303949
4,354167	0,1	1,325433
4,355833	0,1	1,268275
4,357500	0,1	1,215344
4,359167	0,1	1,214024
4,360833	0,1	1,260025
4,362500	0,1	1,229635
4,364167	0,1	1,224913
4,365833	0,1	1,176252
4,367500	0,1	1,184193
4,369167	0,1	1,176446
4,370833	0,1	1,207115
4,372500	0,1	1,216414
4,374167	0,1	1,179591
4,375833	0,1	1,146234
4,377500	0,1	1,140667
4,379167	0,1	1,181676
4,380833	0,1	1,100519
4,382500	0,1	1,092173
4,384167	0,1	1,090171
4,385833	0,1	1,132060
4,387500	0,1	1,149395
4,389167	0,1	1,095338
4,390833	0,1	1,121465
4,392500	0,1	1,114203
4,394167	0,1	1,107433
4,395833	0,1	1,091771
4,397500	0,1	1,073580
4,399167	0,1	1,071997
4,400833	0,1	1,018031
4,402500	0,1	1,072600
4,404167	0,1	1,069778
4,405833	0,1	1,037150
4,407500	0,1	1,024437
4,409167	0,1	1,018887
4,410833	0,1	1,021059
4,412500	0,1	1,033430
4,414167	0,1	0,990665
4,415833	0,1	0,961055
4,417500	0,1	1,007079
4,419167	0,1	1,002694
4,420833	0,1	1,018922
4,422500	0,1	1,015994
4,424167	0,1	0,988660
4,425833	0,1	0,962807
4,427500	0,1	0,961379
4,429167	0,1	0,959003
4,430833	0,1	0,958892
4,432500	0,1	0,960447
4,434167	0,1	0,934959
4,435833	0,1	0,878362
4,437500	0,1	0,946039
4,439167	0,1	0,913551
4,440833	0,1	0,933393
4,442500	0,1	0,907554
4,444167	0,1	0,922691
4,445833	0,1	0,915988
4,447500	0,1	0,893830
4,449167	0,1	0,862147
4,450833	0,1	0,916707
4,452500	0,1	0,884306
4,454167	0,1	0,875531
4,455833	0,1	0,855172
4,457500	0,1	0,849348
4,459167	0,1	0,880073
4,460833	0,1	0,858126
4,462500	0,1	0,856521
4,464167	0,1	0,854678
4,465833	0,1	0,827839
4,467500	0,1	0,814117
4,469167	0,1	0,833984
4,470833	0,1	0,782159
4,472500	0,1	0,811310
4,474167	0,1	0,763594
4,475833	0,1	0,792414
4,477500	0,1	0,781991
4,479167	0,1	0,819189
4,480833	0,1	0,806020
4,482500	0,1	0,771316
4,484167	0,1	0,729698
4,485833	0,1	0,771192
4,487500	0,1	0,729500
4,489167	0,1	0,774896
4,490833	0,1	0,764477
4,492500	0,1	0,731849
4,494167	0,1	0,762562
4,495833	0,1	0,763477
4,497500	0,1	0,772224
4,499167	0,1	0,701603
4,500833	0,1	0,712108
4,502500	0,1	0,700592
4,504167	0,1	0,718699
4,505833	0,1	0,706189
4,507500	0,1	0,718372
4,509167	0,1	0,751972
4,510833	0,1	0,695545
4,512500	0,1	0,674390
4,514167	0,1	0,690575
4,515833	0,1	0,674033
4,517500	0,1	0,676668
4,519167	0,1	0,691600
4,520833	0,1	0,651617
4,522500	0,1	0,630466
4,524167	0,1	0,651667
4,525833	0,1	0,658358
4,527500	0,1	0,613069
4,529167	0,1	0,641208
4,530833	0,1	0,621586
4,532500	0,1	0,651691
4,534167	0,1	0,628153
4,535833	0,1	0,629043
4,537500	0,1	0,605724
4,539167	0,1	0,612896
4,540833	0,1	0,604403
4,542500	0,1	0,632385
4,544167	0,1	0,593918
4,545833	0,1	0,628456
4,547500	0,1	0,584623
4,549167	0,1	0,603110
4,550833	0,1	0,605139
4,552500	0,1	0,581688
4,554167	0,1	0,557013
4,555833	0,1	0,597929
4,557500	0,1	0,562164
4,559167	0,1	0,572028
4,560833	0,1	0,575305
4,562500	0,1	0,540416
4,564167	0,1	0,576266
4,565833	0,1	0,544011
4,567500	0,1	0,549631
4,569167	0,1	0,549805
4,570833	0,1	0,524841
4,572500	0,1	0,530723
4,574167	0,1	0,562791
4,575833	0,1	0,530504
4,577500	0,1	0,519016
4,579167	0,1	0,527949
4,580833	0,1	0,487241
4,582500	0,1	0,536275
4,584167	0,1	0,518175
4,585833	0,1	0,522265
4,587500	0,1	0,516052
4,589167	0,1	0,487975
4,590833	0,1	0,506974
4,592500	0,1	0,504627
4,594167	0,1	0,471187
4,595833	0,1	0,494202
4,597500	0,1	0,493148
4,599167	0,1	0,502828
4,600833	0,1	0,476203
4,602500	0,1	0,497582
4,604167	0,1	0,415359
4,605833	0,1	0,464731
4,607500	0,1	0,433453
4,609167	0,1	0,457018
4,610833	0,1	0,438887
4,612500	0,1	0,483293
4,614167	0,1	0,484780
4,615833	0,1	0,462399
4,617500	0,1	0,464487
4,619167	0,1	0,450047
4,620833	0,1	0,443645
4,622500	0,1	0,464063
4,624167	0,1	0,440271
4,625833	0,1	0,431390
4,627500	0,1	0,437145
4,629167	0,1	0,409588
4,630833	0,1	0,421671
4,632500	0,1	0,446854
4,634167	0,1	0,423965
4,635833	0,1	0,475280
4,637500	0,1	0,452655
4,639167	0,1	0,448242
4,640833	0,1	0,415733
4,642500	0,1	0,473865
4,644167	0,1	0,397378
4,645833	0,1	0,408325
4,647500	0,1	0,415723
4,649167	0,1	0,392413
4,650833	0,1	0,413469
4,652500	0,1	0,418328
4,654167	0,1	0,412091
4,655833	0,1	0,392702
4,657500	0,1	0,381057
4,659167	0,1	0,379512
4,660833	0,1	0,367808
4,662500	0,1	0,365263
4,664167	0,1	0,391371
4,665833	0,1	0,380736
4,667500	0,1	0,393659
4,669167	0,1	0,387167
4,670833	0,1	0,393854
4,672500	0,1	0,377137
4,674167	0,1	0,375075
4,675833	0,1	0,332471
4,677500	0,1	0,369790
4,679167	0,1	0,394750
4,680833	0,1	0,399772
4,682500	0,1	0,407392
4,684167	0,1	0,380225
4,685833	0,1	0,395074
4,687500	0,1	0,350323
4,689167	0,1	0,350763
4,690833	0,1	0,385966
4,692500	0,1	0,368775
4,694167	0,1	0,361536
4,695833	0,1	0,331313
4,697500	0,1	0,350563
4,699167	0,1	0,346713
4,700833	0,1	0,328833
4,702500	0,1	0,325678
4,704167	0,1	0,352328
4,705833	0,1	0,340249
4,707500	0,1	0,373039
4,709167	0,1	0,353404
4,710833	0,1	0,327969
4,712500	0,1	0,372972
4,714167	0,1	0,332186
4,715833	0,1	0,322983
4,717500	0,1	0,349244
4,719167	0,1	0,343108
4,720833	0,1	0,334137
4,722500	0,1	0,323814
4,724167	0,1	0,349084
4,725833	0,1	0,325495
4,727500	0,1	0,361365
4,729167	0,1	0,315143
4,730833	0,1	0,311593
4,732500	0,1	0,336896
4,734167	0,1	0,352046
4,735833	0,1	0,336324
4,737500	0,1	0,313432
4,739167	0,1	0,294626
4,740833	0,1	0,343223
4,742500	0,1	0,347575
4,744167	0,1	0,310672
4,745833	0,1	0,328505
4,747500	0,1	0,315650
4,749167	0,1	0,304235
4,750833	0,1	0,289991
4,752500	0,1	0,322649
4,754167	0,1	0,324011
4,755833	0,1	0,303658
4,757500	0,1	0,295065
4,759167	0,1	0,311366
4,760833	0,1	0,297192
4,762500	0,1	0,296679
4,764167	0,1	0,312879
4,765833	0,1	0,303591
4,767500	0,1	0,334898
4,769167	0,1	0,282120
4,770833	0,1	0,307153
4,772500	0,1	0,344355
4,774167	0,1	0,292508
4,775833	0,1	0,316253
4,777500	0,1	0,315136
4,779167	0,1	0,287386
4,780833	0,1	0,286193
4,782500	0,1	0,285195
4,784167	0,1	0,265781
4,785833	0,1	0,298952
4,787500	0,1	0,315161
4,789167	0,1	0,276781
4,790833	0,1	0,254301
4,792500	0,1	0,256901
4,794167	0,1	0,284645
4,795833	0,1	0,314869
4,797500	0,1	0,315743
4,799167	0,1	0,305811
4,800833	0,1	0,282055
4,802500	0,1	0,283041
4,804167	0,1	0,346441
4,805833	0,1	0,286947
4,807500	0,1	0,285811
4,809167	0,1	0,280052
4,810833	0,1	0,310528
4,812500	0,1	0,312691
4,814167	0,1	0,287455
4,815833	0,1	0,237107
4,817500	0,1	0,277702
4,819167	0,1	0,262113
4,820833	0,1	0,294162
4,822500	0,1	0,290792
4,824167	0,1	0,260187
4,825833	0,1	0,306734
4,827500	0,1	0,290055
4,829167	0,1	0,250708
4,830833	0,1	0,292519
4,832500	0,1	0,265528
4,834167	0,1	0,277958
4,835833	0,1	0,282982
4,837500	0,1	0,226985
4,839167	0,1	0,273418
4,840833	0,1	0,261081
4,842500	0,1	0,255489
4,844167	0,1	0,254684
4,845833	0,1	0,280172
4,847500	0,1	0,270344
4,849167	0,1	0,289016
4,850833	0,1	0,297447
4,852500	0,1	0,284979
4,854167	0,1	0,301564
4,855833	0,1	0,246308
4,857500	0,1	0,295026
4,859167	0,1	0,265813
4,860833	0,1	0,310588
4,862500	0,1	0,280770
4,864167	0,1	0,288154
4,865833	0,1	0,290275
4,867500	0,1	0,271250
4,869167	0,1	0,257068
4,870833	0,1	0,311456
4,872500	0,1	0,235891
4,874167	0,1	0,262337
4,875833	0,1	0,261600
4,877500	0,1	0,254876
4,879167	0,1	0,257898
4,880833	0,1	0,295220
4,882500	0,1	0,249387
4,884167	0,1	0,285378
4,885833	0,1	0,339046
4,887500	0,1	0,256596
4,889167	0,1	0,277601
4,890833	0,1	0,290436
4,892500	0,1	0,275907
4,894167	0,1	0,244015
4,895833	0,1	0,273904
4,897500	0,1	0,256842
4,899167	0,1	0,283902
4,900833	0,1	0,286034
4,902500	0,1	0,289344
4,904167	0,1	0,262116
4,905833	0,1	0,275710
4,907500	0,1	0,270985
4,909167	0,1	0,281689
4,910833	0,1	0,281176
4,912500	0,1	0,250867
4,914167	0,1	0,296313
4,915833	0,1	0,286774
4,917500	0,1	0,293908
4,919167	0,1	0,294458
4,920833	0,1	0,268964
4,922500	0,1	0,293521
4,924167	0,1	0,287832
4,925833	0,1	0,239417
4,927500	0,1	0,243109
4,929167	0,1	0,276412
4,930833	0,1	0,326473
4,932500	0,1	0,284435
4,934167	0,1	0,301755
4,935833	0,1	0,279704
4,937500	0,1	0,248295
4,939167	0,1	0,285865
4,940833	0,1	0,312685
4,942500	0,1	0,296067
4,944167	0,1	0,303682
4,945833	0,1	0,259357
4,947500	0,1	0,313253
4,949167	0,1	0,257106
4,950833	0,1	0,260307
4,952500	0,1	0,305474
4,954167	0,1	0,284141
4,955833	0,1	0,302750
4,957500	0,1	0,290054
4,959167	0,1	0,295679
4,960833	0,1	0,289473
4,962500	0,1	0,288962
4,964167	0,1	0,276423
4,965833	0,1	0,280629
4,967500	0,1	0,318179
4,969167	0,1	0,323651
4,970833	0,1	0,282824
4,972500	0,1	0,277574
4,974167	0,1	0,310946
4,975833	0,1	0,283852
4,977500	0,1	0,256456
4,979167	0,1	0,306728
4,980833	0,1	0,274626
4,982500	0,1	0,285315
4,984167	0,1	0,292882
4,985833	0,1	0,289634
4,987500	0,1	0,305191
4,989167	0,1	0,260057
4,990833	0,1	0,289975
4,992500	0,1	0,308441
4,994167	0,1	0,319567
4,995833	0,1	0,313332
4,997500	0,1	0,306066
4,999167	0,1	0,301176
5,000833	0,1	0,311623
5,002500	0,1	0,336349
5,004167	0,1	0,349409
5,005833	0,1	0,305883
5,007500	0,1	0,292851
5,009167	0,1	0,328789
5,010833	0,1	0,334232
5,012500	0,1	0,307645
5,014167	0,1	0,291086
5,015833	0,1	0,331200
5,017500	0,1	0,301215
5,019167	0,1	0,337022
5,020833	0,1	0,343492
5,022500	0,1	0,327068
5,024167	0,1	0,325486
5,025833	0,1	0,316935
5,027500	0,1	0,346862
5,029167	0,1	0,342240
5,030833	0,1	0,337319
5,032500	0,1	0,341563
5,034167	0,1	0,335681
5,035833	0,1	0,362750
5,037500	0,1	0,357996
5,039167	0,1	0,341504
5,040833	0,1	0,337994
5,042500	0,1	0,340149
5,044167	0,1	0,383585
5,045833	0,1	0,304473
5,047500	0,1	0,357918
5,049167	0,1	0,354975
5,050833	0,1	0,374748
5,052500	0,1	0,400346
5,054167	0,1	0,335791
5,055833	0,1	0,390657
5,057500	0,1	0,403789
5,059167	0,1	0,413150
5,060833	0,1	0,344668
5,062500	0,1	0,372783
5,064167	0,1	0,382467
5,065833	0,1	0,392952
5,067500	0,1	0,404016
5,069167	0,1	0,378425
5,070833	0,1	0,394045
5,072500	0,1	0,402439
5,074167	0,1	0,389099
5,075833	0,1	0,397036
5,077500	0,1	0,414015
5,079167	0,1	0,400805
5,080833	0,1	0,397746
5,082500	0,1	0,397553
5,084167	0,1	0,399738
5,085833	0,1	0,380577
5,087500	0,1	0,392018
5,089167	0,1	0,405752
5,090833	0,1	0,391479
5,092500	0,1	0,428163
5,094167	0,1	0,423317
5,095833	0,1	0,427591
5,097500	0,1	0,377079
5,099167	0,1	0,420539
5,100833	0,1	0,411706
5,102500	0,1	0,423923
5,104167	0,1	0,422382
5,105833	0,1	0,423282
5,107500	0,1	0,437528
5,109167	0,1	0,386116
5,110833	0,1	0,395718
5,112500	0,1	0,426911
5,114167	0,1	0,388428
5,115833	0,1	0,411667
5,117500	0,1	0,427172
5,119167	0,1	0,443927
5,120833	0,1	0,432355
5,122500	0,1	0,377947
5,124167	0,1	0,424656
5,125833	0,1	0,432127
5,127500	0,1	0,418109
5,129167	0,1	0,400516
5,130833	0,1	0,439419
5,132500	0,1	0,415312
5,134167	0,1	0,441257
5,135833	0,1	0,434219
5,137500	0,1	0,441228
5,139167	0,1	0,434219
5,140833	0,1	0,423382
5,142500	0,1	0,403539
5,144167	0,1	0,390064
5,145833	0,1	0,480256
5,147500	0,1	0,389760
5,149167	0,1	0,438710
5,150833	0,1	0,406051
5,152500	0,1	0,445015
5,154167	0,1	0,443579
5,155833	0,1	0,425088
5,157500	0,1	0,408268
5,159167	0,1	0,428521
5,160833	0,1	0,396466
5,162500	0,1	0,443984
5,164167	0,1	0,391617
5,165833	0,1	0,414850
5,167500	0,1	0,380870
5,169167	0,1	0,422500
5,170833	0,1	0,441644
5,172500	0,1	0,447050
5,174167	0,1	0,416986
5,175833	0,1	0,442800
5,177500	0,1	0,390266
5,179167	0,1	0,402858
5,180833	0,1	0,403182
5,182500	0,1	0,382185
5,184167	0,1	0,398449
5,185833	0,1	0,402697
5,187500	0,1	0,376816
5,189167	0,1	0,370444
5,190833	0,1	0,409700
5,192500	0,1	0,357365
5,194167	0,1	0,387769
5,195833	0,1	0,374529
5,197500	0,1	0,383399
5,199167	0,1	0,359674
5,200833	0,1	0,383847
5,202500	0,1	0,347105
5,204167	0,1	0,359634
5,205833	0,1	0,367385
5,207500	0,1	0,371407
5,209167	0,1	0,368129
5,210833	0,1	0,394236
5,212500	0,1	0,340291
5,214167	0,1	0,353138
5,215833	0,1	0,374072
5,217500	0,1	0,342567
5,219167	0,1	0,360019
5,220833	0,1	0,400664
5,222500	0,1	0,328335
5,224167	0,1	0,327866
5,225833	0,1	0,313721
5,227500	0,1	0,383161
5,229167	0,1	0,354466
5,230833	0,1	0,319510
5,232500	0,1	0,303049
5,234167	0,1	0,346315
5,235833	0,1	0,315491
5,237500	0,1	0,312241
5,239167	0,1	0,292210
5,240833	0,1	0,321168
5,242500	0,1	0,317414
5,244167	0,1	0,294395
5,245833	0,1	0,284845
5,247500	0,1	0,310884
5,249167	0,1	0,270669
5,250833	0,1	0,276806
5,252500	0,1	0,294003
5,254167	0,1	0,299788
5,255833	0,1	0,272659
5,257500	0,1	0,320617
5,259167	0,1	0,265495
5,260833	0,1	0,293903
5,262500	0,1	0,256331
5,264167	0,1	0,310007
5,265833	0,1	0,259904
5,267500	0,1	0,241058
5,269167	0,1	0,265991
5,270833	0,1	0,273809
5,272500	0,1	0,279633
5,274167	0,1	0,257064
5,275833	0,1	0,232346
5,277500	0,1	0,273292
5,279167	0,1	0,228882
5,280833	0,1	0,259593
5,282500	0,1	0,273004
5,284167	0,1	0,257775
5,285833	0,1	0,241021
5,287500	0,1	0,221316
5,289167	0,1	0,217354
5,290833	0,1	0,218766
5,292500	0,1	0,285667
5,294167	0,1	0,247075
5,295833	0,1	0,267249
5,297500	0,1	0,235238
5,299167	0,1	0,232624
5,300833	0,1	0,211347
5,302500	0,1	0,220376
5,304167	0,1	0,219473
5,305833	0,1	0,220922
5,307500	0,1	0,231343
5,309167	0,1	0,265125
5,310833	0,1	0,232412
5,312500	0,1	0,190875
5,314167	0,1	0,229886
5,315833	0,1	0,204826
5,317500	0,1	0,219125
5,319167	0,1	0,212600
5,320833	0,1	0,232952
5,322500	0,1	0,199659
5,324167	0,1	0,238054
5,325833	0,1	0,203995
5,327500	0,1	0,194183
5,329167	0,1	0,244100
5,330833	0,1	0,205409
5,332500	0,1	0,220530
5,334167	0,1	0,218486
5,335833	0,1	0,198370
5,337500	0,1	0,170653
5,339167	0,1	0,169361
5,340833	0,1	0,197551
5,342500	0,1	0,221729
5,344167	0,1	0,200515
5,345833	0,1	0,201931
5,347500	0,1	0,166481
5,349167	0,1	0,192797
5,350833	0,1	0,205007
5,352500	0,1	0,179590
5,354167	0,1	0,174035
5,355833	0,1	0,214229
5,357500	0,1	0,169860
5,359167	0,1	0,172673
5,360833	0,1	0,150470
5,362500	0,1	0,231678
5,364167	0,1	0,186322
5,365833	0,1	0,180653
5,367500	0,1	0,164864
5,369167	0,1	0,145969
5,370833	0,1	0,182182
5,372500	0,1	0,153496
5,374167	0,1	0,143093
5,375833	0,1	0,176913
5,377500	0,1	0,193823
5,379167	0,1	0,153661
5,380833	0,1	0,135002
5,382500	0,1	0,167470
5,384167	0,1	0,119620
5,385833	0,1	0,149207
5,387500	0,1	0,161036
5,389167	0,1	0,143749
5,390833	0,1	0,166061
5,392500	0,1	0,139932
5,394167	0,1	0,168040
5,395833	0,1	0,119809
5,397500	0,1	0,192045
5,399167	0,1	0,175829
5,400833	0,1	0,095539
5,402500	0,1	0,130212
5,404167	0,1	0,123755
5,405833	0,1	0,144509
5,407500	0,1	0,143102
5,409167	0,1	0,162510
5,410833	0,1	0,076648
5,412500	0,1	0,140427
5,414167	0,1	0,146617
5,415833	0,1	0,145901
5,417500	0,1	0,146379
5,419167	0,1	0,153160
5,420833	0,1	0,082052
5,422500	0,1	0,126327
5,424167	0,1	0,145064
5,425833	0,1	0,137167
5,427500	0,1	0,151873
5,429167	0,1	0,113995
5,430833	0,1	0,137160
5,432500	0,1	0,118188
5,434167	0,1	0,133215
5,435833	0,1	0,113536
5,437500	0,1	0,116330
5,439167	0,1	0,115751
5,440833	0,1	0,116418
5,442500	0,1	0,097227
5,444167	0,1	0,129594
5,445833	0,1	0,093677
5,447500	0,1	0,133651
5,449167	0,1	0,123795
5,450833	0,1	0,097054
5,452500	0,1	0,103739
5,454167	0,1	0,133554
5,455833	0,1	0,131480
5,457500	0,1	0,103972
5,459167	0,1	0,086162
5,460833	0,1	0,100420
5,462500	0,1	0,071115
5,464167	0,1	0,080285
5,465833	0,1	0,108508
5,467500	0,1	0,101611
5,469167	0,1	0,108464
5,470833	0,1	0,120927
5,472500	0,1	0,094506
5,474167	0,1	0,070700
5,475833	0,1	0,124585
5,477500	0,1	0,058952
5,479167	0,1	0,087059
5,480833	0,1	0,061122
5,482500	0,1	0,084147
5,484167	0,1	0,080133
5,485833	0,1	0,074386
5,487500	0,1	0,131907
5,489167	0,1	0,100269
5,490833	0,1	0,109384
5,492500	0,1	0,086163
5,494167	0,1	0,052211
5,495833	0,1	0,103109
5,497500	0,1	0,062474
5,499167	0,1	0,047519
5,500833	0,1	0,095561
5,502500	0,1	0,091741
5,504167	0,1	0,082352
5,505833	0,1	0,116008
5,507500	0,1	0,069028
5,509167	0,1	0,089406
5,510833	0,1	0,073041
5,512500	0,1	0,063021
5,514167	0,1	0,070401
5,515833	0,1	0,065262
5,517500	0,1	0,081403
5,519167	0,1	0,074692
5,520833	0,1	0,059003
5,522500	0,1	0,076246
5,524167	0,1	0,089785
5,525833	0,1	0,068003
5,527500	0,1	0,023951
5,529167	0,1	0,065542
5,530833	0,1	0,054049
5,532500	0,1	0,097716
5,534167	0,1	0,066720
5,535833	0,1	0,062628
5,537500	0,1	0,063749
5,539167	0,1	0,065198
5,540833	0,1	0,071687
5,542500	0,1	0,072597
5,544167	0,1	0,026334
5,545833	0,1	0,064712
5,547500	0,1	0,047269
5,549167	0,1	0,046004
5,550833	0,1	0,072905
5,552500	0,1	0,046895
5,554167	0,1	0,072239
5,555833	0,1	0,026443
5,557500	0,1	0,080839
5,559167	0,1	0,073241
5,560833	0,1	0,061902
5,562500	0,1	0,071600
5,564167	0,1	0,084100
5,565833	0,1	0,054405
5,567500	0,1	0,061857
5,569167	0,1	0,049008
5,570833	0,1	0,027973
5,572500	0,1	0,051946
5,574167	0,1	0,046209
5,575833	0,1	0,061112
5,577500	0,1	0,025525
5,579167	0,1	0,061358
5,580833	0,1	0,014812
5,582500	0,1	0,065149
5,584167	0,1	0,052058
5,585833	0,1	0,065032
5,587500	0,1	0,047206
5,589167	0,1	0,071205
5,590833	0,1	0,050712
5,592500	0,1	0,059374
5,594167	0,1	0,065385
5,595833	0,1	0,036825
5,597500	0,1	0,051384
5,599167	0,1	0,033938
5,600833	0,1	0,056900
5,602500	0,1	0,038171
5,604167	0,1	0,103950
5,605833	0,1	0,057826
5,607500	0,1	0,027599
5,609167	0,1	0,078975
5,610833	0,1	0,040722
5,612500	0,1	0,046849
5,614167	0,1	0,079293
5,615833	0,1	0,060352
5,617500	0,1	0,029857
5,619167	0,1	0,043509
5,620833	0,1	0,034124
5,622500	0,1	0,011572
5,624167	0,1	0,088724
5,625833	0,1	0,067877
5,627500	0,1	0,083091
5,629167	0,1	0,034259
5,630833	0,1	0,066099
5,632500	0,1	0,013795
5,634167	0,1	0,044664
5,635833	0,1	0,016322
5,637500	0,1	0,080069
5,639167	0,1	0,072787
5,640833	0,1	0,085928
5,642500	0,1	0,032245
5,644167	0,1	0,070722
5,645833	0,1	0,049803
5,647500	0,1	0,025444
5,649167	0,1	0,039715
5,650833	0,1	0,074454
5,652500	0,1	0,081242
5,654167	0,1	0,083069
5,655833	0,1	0,072599
5,657500	0,1	0,068162
5,659167	0,1	0,061118
5,660833	0,1	0,066106
5,662500	0,1	0,043931
5,664167	0,1	0,048361
5,665833	0,1	0,029775
5,667500	0,1	0,070205
5,669167	0,1	0,086670
5,670833	0,1	0,063050
5,672500	0,1	0,060411
5,674167	0,1	0,085711
5,675833	0,1	0,082907
5,677500	0,1	0,070697
5,679167	0,1	0,093348
5,680833	0,1	0,054093
5,682500	0,1	0,078690
5,684167	0,1	0,040596
5,685833	0,1	0,063430
5,687500	0,1	0,058734
5,689167	0,1	0,079836
5,690833	0,1	0,077160
5,692500	0,1	0,052099
5,694167	0,1	0,068825
5,695833	0,1	0,054378
5,697500	0,1	0,048285
5,699167	0,1	0,078728
5,700833	0,1	0,048661
5,702500	0,1	0,079345
5,704167	0,1	0,062882
5,705833	0,1	0,097758
5,707500	0,1	0,075236
5,709167	0,1	0,093223
5,710833	0,1	0,063857
5,712500	0,1	0,053594
5,714167	0,1	0,059641
5,715833	0,1	0,077483
5,717500	0,1	0,087983
5,719167	0,1	0,109961
5,720833	0,1	0,068525
5,722500	0,1	0,050899
5,724167	0,1	0,120787
5,725833	0,1	0,080711
5,727500	0,1	0,111635
5,729167	0,1	0,089314
5,730833	0,1	0,085264
5,732500	0,1	0,060062
5,734167	0,1	0,077797
5,735833	0,1	0,087264
5,737500	0,1	0,084418
5,739167	0,1	0,048270
5,740833	0,1	0,084660
5,742500	0,1	0,086925
5,744167	0,1	0,068911
5,745833	0,1	0,075395
5,747500	0,1	0,096499
5,749167	0,1	0,058263
5,750833	0,1	0,079333
5,752500	0,1	0,068831
5,754167	0,1	0,121725
5,755833	0,1	0,081214
5,757500	0,1	0,107200
5,759167	0,1	0,077206
5,760833	0,1	0,125004
5,762500	0,1	0,082211
5,764167	0,1	0,071237
5,765833	0,1	0,082449
5,767500	0,1	0,123050
5,769167	0,1	0,095414
5,770833	0,1	0,046345
5,772500	0,1	0,087270
5,774167	0,1	0,051296
5,775833	0,1	0,090547
5,777500	0,1	0,079053
5,779167	0,1	0,046050
5,780833	0,1	0,072350
5,782500	0,1	0,078631
5,784167	0,1	0,092896
5,785833	0,1	0,101028
5,787500	0,1	0,096443
5,789167	0,1	0,083261
5,790833	0,1	0,087733
5,792500	0,1	0,098947
5,794167	0,1	0,079243
5,795833	0,1	0,072044
5,797500	0,1	0,084352
5,799167	0,1	0,084732
5,800833	0,1	0,112378
5,802500	0,1	0,106399
5,804167	0,1	0,052169
5,805833	0,1	0,095851
5,807500	0,1	0,092837
5,809167	0,1	0,080464
5,810833	0,1	0,091737
5,812500	0,1	0,053576
5,814167	0,1	0,089551
5,815833	0,1	0,069554
5,817500	0,1	0,120566
5,819167	0,1	0,082210
5,820833	0,1	0,064622
5,822500	0,1	0,105228
5,824167	0,1	0,073350
5,825833	0,1	0,107297
5,827500	0,1	0,099369
5,829167	0,1	0,110228
5,830833	0,1	0,058015
5,832500	0,1	0,116204
5,834167	0,1	0,084528
5,835833	0,1	0,103381
5,837500	0,1	0,101319
5,839167	0,1	0,086552
5,840833	0,1	0,049202
5,842500	0,1	0,105655
5,844167	0,1	0,115560
5,845833	0,1	0,048817
5,847500	0,1	0,122363
5,849167	0,1	0,073668
5,850833	0,1	0,067771
5,852500	0,1	0,076728
5,854167	0,1	0,082276
5,855833	0,1	0,100131
5,857500	0,1	0,110908
5,859167	0,1	0,072820
5,860833	0,1	0,090324
5,862500	0,1	0,065658
5,864167	0,1	0,088786
5,865833	0,1	0,080437
5,867500	0,1	0,089760
5,869167	0,1	0,081434
5,870833	0,1	0,078571
5,872500	0,1	0,058321
5,874167	0,1	0,072077
5,875833	0,1	0,066385
5,877500	0,1	0,123740
5,879167	0,1	0,027844
5,880833	0,1	0,079403
5,882500	0,1	0,103569
5,884167	0,1	0,100262
5,885833	0,1	0,061602
5,887500	0,1	0,057261
5,889167	0,1	0,038851
5,890833	0,1	0,094563
5,892500	0,1	0,055341
5,894167	0,1	0,055911
5,895833	0,1	0,071168
5,897500	0,1	0,054088
5,899167	0,1	0,039001
5,900833	0,1	0,074025
5,902500	0,1	0,054794
5,904167	0,1	0,083305
5,905833	0,1	0,032432
5,907500	0,1	0,046744
5,909167	0,1	0,093216
5,910833	0,1	0,064540
5,912500	0,1	0,034230
5,914167	0,1	0,060050
5,915833	0,1	0,043516
5,917500	0,1	0,030103
5,919167	0,1	0,079304
5,920833	0,1	0,023853
5,922500	0,1	0,022742
5,924167	0,1	0,041454
5,925833	0,1	0,034413
5,927500	0,1	0,065231
5,929167	0,1	0,036346
5,930833	0,1	0,056690
5,932500	0,1	0,043327
5,934167	0,1	0,051056
5,935833	0,1	0,060900
5,937500	0,1	0,042849
5,939167	0,1	0,019260
5,940833	0,1	0,039281
5,942500	0,1	0,084030
5,944167	0,1	0,012952
5,945833	0,1	0,059443
5,947500	0,1	0,053028
5,949167	0,1	0,029588
5,950833	0,1	0,035382
5,952500	0,1	0,016791
5,954167	0,1	0,059341
5,955833	0,1	0,019718
5,957500	0,1	0,017889
5,959167	0,1	0,009765
5,960833	0,1	0,056621
5,962500	0,1	0,027452
5,964167	0,1	0,039174
5,965833	0,1	0,045564
5,967500	0,1	-0,007224
5,969167	0,1	0,031229
5,970833	0,1	0,017972
5,972500	0,1	0,020146
5,974167	0,1	0,012437
5,975833	0,1	0,058838
5,977500	0,1	0,018708
5,979167	0,1	-0,004807
5,980833	0,1	0,043312
5,982500	0,1	0,056880
5,984167	0,1	-0,004589
5,985833	0,1	0,027437
5,987500	0,1	0,029498
5,989167	0,1	0,040835
5,990833	0,1	0,005211
5,992500	0,1	-0,003088
5,994167	0,1	0,026607
5,995833	0,1	-0,006381
5,997500	0,1	-0,026947
5,999167	0,1	-0,011510
6,000833	0,1	0,020264
