File Path	chrom://chromeleon01/ikbm_chromeleon/2022/Rezex/Esteban/220612_chitin_4_7.seq/247.smp/UV_VIS_1.channel/UV_VIS_1.chm
Channel	UV_VIS_1

Injection Information:
Data Vault	ikbm_chromeleon
Injection	7_04h-EGS_1
Injection Number	72
Position	GB8
Comment	
Processing Method	New ProcMethod
Instrument Method	Short_Rezex_6min_194nm
Type	Unknown
Status	Finished
Injection Date	13.06.2022
Injection Time	00:53:28
Injection Volume (µl)	8,000
Dilution Factor	1,0000
Weight	1,0000

Chromatogram Data Information:
Time Min. (min)	0,000833
Time Max. (min)	6,000833
Data Points	3601
Detector	UV
Generating Data System	Chromeleon 7.2.9.11323
Exporting Data System	Chromeleon 7.2.9.0
Operator	Instrument Controller
Signal Quantity	Absorbance
Signal Unit	mAU
Signal Min.	-0,152242
Signal Max.	115,775631
Channel	UV_VIS_1
Driver Name	VWD3000.dll
Channel Type	Evaluation
Min. Step (s)	0,1
Max. Step (s)	0,1
Average Step (s)	0,1

Signal Parameter Information:
Signal Info	WVL:194 nm

Chromatogram Data:
Time (min)	Step (s)	Value (mAU)
0,000833	n.a.	-0,054038
0,002500	0,1	-0,069834
0,004167	0,1	-0,063950
0,005833	0,1	-0,056529
0,007500	0,1	-0,073938
0,009167	0,1	-0,061318
0,010833	0,1	-0,078871
0,012500	0,1	-0,105672
0,014167	0,1	-0,050258
0,015833	0,1	-0,076258
0,017500	0,1	-0,128637
0,019167	0,1	-0,078576
0,020833	0,1	-0,062667
0,022500	0,1	-0,062849
0,024167	0,1	-0,066580
0,025833	0,1	-0,088116
0,027500	0,1	-0,103166
0,029167	0,1	-0,087526
0,030833	0,1	-0,102981
0,032500	0,1	-0,101575
0,034167	0,1	-0,145532
0,035833	0,1	-0,082560
0,037500	0,1	-0,128244
0,039167	0,1	-0,100647
0,040833	0,1	-0,117574
0,042500	0,1	-0,087112
0,044167	0,1	-0,152242
0,045833	0,1	-0,112241
0,047500	0,1	-0,085950
0,049167	0,1	-0,064183
0,050833	0,1	-0,055865
0,052500	0,1	-0,079410
0,054167	0,1	-0,099209
0,055833	0,1	-0,039832
0,057500	0,1	-0,101663
0,059167	0,1	-0,040950
0,060833	0,1	-0,086284
0,062500	0,1	-0,079789
0,064167	0,1	-0,084037
0,065833	0,1	-0,132556
0,067500	0,1	-0,070824
0,069167	0,1	-0,077713
0,070833	0,1	-0,070730
0,072500	0,1	-0,022682
0,074167	0,1	-0,055275
0,075833	0,1	-0,060507
0,077500	0,1	-0,073234
0,079167	0,1	-0,058997
0,080833	0,1	-0,084488
0,082500	0,1	-0,045487
0,084167	0,1	-0,100898
0,085833	0,1	-0,029925
0,087500	0,1	-0,067153
0,089167	0,1	-0,073338
0,090833	0,1	-0,053651
0,092500	0,1	-0,039654
0,094167	0,1	-0,049682
0,095833	0,1	-0,022202
0,097500	0,1	-0,055585
0,099167	0,1	-0,065417
0,100833	0,1	-0,050393
0,102500	0,1	-0,032834
0,104167	0,1	-0,093415
0,105833	0,1	-0,059231
0,107500	0,1	-0,062662
0,109167	0,1	-0,132197
0,110833	0,1	-0,085397
0,112500	0,1	-0,088058
0,114167	0,1	-0,098772
0,115833	0,1	-0,066880
0,117500	0,1	-0,091310
0,119167	0,1	-0,061468
0,120833	0,1	-0,087658
0,122500	0,1	-0,104412
0,124167	0,1	-0,089844
0,125833	0,1	-0,052762
0,127500	0,1	-0,080322
0,129167	0,1	-0,066522
0,130833	0,1	-0,090353
0,132500	0,1	-0,073738
0,134167	0,1	-0,072241
0,135833	0,1	-0,061960
0,137500	0,1	-0,077316
0,139167	0,1	-0,057672
0,140833	0,1	-0,082765
0,142500	0,1	-0,104783
0,144167	0,1	-0,070550
0,145833	0,1	-0,073671
0,147500	0,1	-0,073774
0,149167	0,1	-0,055908
0,150833	0,1	-0,064983
0,152500	0,1	-0,049046
0,154167	0,1	-0,046183
0,155833	0,1	-0,054908
0,157500	0,1	-0,037562
0,159167	0,1	-0,087425
0,160833	0,1	-0,056616
0,162500	0,1	-0,082600
0,164167	0,1	-0,084951
0,165833	0,1	-0,060989
0,167500	0,1	-0,041170
0,169167	0,1	-0,093582
0,170833	0,1	-0,046774
0,172500	0,1	-0,037724
0,174167	0,1	-0,073269
0,175833	0,1	-0,070438
0,177500	0,1	-0,056075
0,179167	0,1	-0,053377
0,180833	0,1	-0,072817
0,182500	0,1	-0,028384
0,184167	0,1	-0,073040
0,185833	0,1	-0,069485
0,187500	0,1	-0,052675
0,189167	0,1	-0,068880
0,190833	0,1	-0,036280
0,192500	0,1	-0,020953
0,194167	0,1	-0,025552
0,195833	0,1	-0,026756
0,197500	0,1	-0,048354
0,199167	0,1	-0,052109
0,200833	0,1	-0,027425
0,202500	0,1	-0,023481
0,204167	0,1	-0,027956
0,205833	0,1	-0,059153
0,207500	0,1	-0,047263
0,209167	0,1	-0,044193
0,210833	0,1	-0,034117
0,212500	0,1	-0,038262
0,214167	0,1	-0,032251
0,215833	0,1	-0,053620
0,217500	0,1	-0,048256
0,219167	0,1	-0,028273
0,220833	0,1	-0,056707
0,222500	0,1	-0,064446
0,224167	0,1	-0,042974
0,225833	0,1	-0,070992
0,227500	0,1	-0,080366
0,229167	0,1	-0,049154
0,230833	0,1	-0,050514
0,232500	0,1	-0,029228
0,234167	0,1	-0,058986
0,235833	0,1	-0,026122
0,237500	0,1	-0,050695
0,239167	0,1	-0,042204
0,240833	0,1	-0,039982
0,242500	0,1	-0,064814
0,244167	0,1	-0,053274
0,245833	0,1	-0,063511
0,247500	0,1	-0,054477
0,249167	0,1	-0,066041
0,250833	0,1	-0,063949
0,252500	0,1	-0,036155
0,254167	0,1	-0,087736
0,255833	0,1	-0,051290
0,257500	0,1	-0,054723
0,259167	0,1	-0,000313
0,260833	0,1	-0,036720
0,262500	0,1	-0,024871
0,264167	0,1	-0,054695
0,265833	0,1	-0,046722
0,267500	0,1	-0,001990
0,269167	0,1	-0,089966
0,270833	0,1	-0,050628
0,272500	0,1	-0,061024
0,274167	0,1	-0,032630
0,275833	0,1	-0,019293
0,277500	0,1	-0,017755
0,279167	0,1	-0,014296
0,280833	0,1	-0,042817
0,282500	0,1	-0,035320
0,284167	0,1	-0,026054
0,285833	0,1	-0,014298
0,287500	0,1	-0,034566
0,289167	0,1	-0,042386
0,290833	0,1	-0,043900
0,292500	0,1	-0,028190
0,294167	0,1	-0,058405
0,295833	0,1	-0,042910
0,297500	0,1	-0,056773
0,299167	0,1	-0,021207
0,300833	0,1	-0,050612
0,302500	0,1	-0,026720
0,304167	0,1	-0,041991
0,305833	0,1	-0,009057
0,307500	0,1	-0,032493
0,309167	0,1	-0,047775
0,310833	0,1	-0,042160
0,312500	0,1	-0,031527
0,314167	0,1	-0,007208
0,315833	0,1	-0,067603
0,317500	0,1	-0,078314
0,319167	0,1	-0,001646
0,320833	0,1	-0,010476
0,322500	0,1	-0,034234
0,324167	0,1	-0,029473
0,325833	0,1	0,004542
0,327500	0,1	-0,016838
0,329167	0,1	-0,003411
0,330833	0,1	-0,017175
0,332500	0,1	-0,040370
0,334167	0,1	-0,022468
0,335833	0,1	-0,040040
0,337500	0,1	-0,016000
0,339167	0,1	-0,041448
0,340833	0,1	-0,034989
0,342500	0,1	-0,013615
0,344167	0,1	-0,042962
0,345833	0,1	-0,015565
0,347500	0,1	-0,025321
0,349167	0,1	-0,071754
0,350833	0,1	0,003582
0,352500	0,1	-0,002662
0,354167	0,1	-0,052846
0,355833	0,1	-0,014242
0,357500	0,1	-0,014171
0,359167	0,1	-0,047293
0,360833	0,1	-0,023880
0,362500	0,1	-0,042113
0,364167	0,1	-0,058616
0,365833	0,1	-0,046310
0,367500	0,1	-0,049851
0,369167	0,1	-0,047468
0,370833	0,1	-0,042616
0,372500	0,1	-0,048503
0,374167	0,1	-0,050721
0,375833	0,1	-0,039280
0,377500	0,1	-0,030054
0,379167	0,1	-0,071464
0,380833	0,1	-0,056634
0,382500	0,1	-0,013145
0,384167	0,1	-0,048993
0,385833	0,1	-0,053583
0,387500	0,1	-0,011984
0,389167	0,1	-0,031166
0,390833	0,1	-0,012703
0,392500	0,1	-0,035022
0,394167	0,1	-0,014631
0,395833	0,1	-0,022731
0,397500	0,1	-0,024805
0,399167	0,1	-0,000473
0,400833	0,1	-0,019928
0,402500	0,1	-0,033614
0,404167	0,1	-0,013241
0,405833	0,1	-0,074424
0,407500	0,1	-0,057277
0,409167	0,1	-0,041749
0,410833	0,1	0,004045
0,412500	0,1	-0,037981
0,414167	0,1	-0,059900
0,415833	0,1	-0,013123
0,417500	0,1	-0,060974
0,419167	0,1	-0,027073
0,420833	0,1	-0,032848
0,422500	0,1	-0,018299
0,424167	0,1	0,005312
0,425833	0,1	-0,027556
0,427500	0,1	-0,039814
0,429167	0,1	-0,044604
0,430833	0,1	0,014615
0,432500	0,1	-0,015220
0,434167	0,1	-0,035376
0,435833	0,1	-0,022238
0,437500	0,1	0,010556
0,439167	0,1	-0,033731
0,440833	0,1	-0,040105
0,442500	0,1	-0,049580
0,444167	0,1	-0,044482
0,445833	0,1	-0,009493
0,447500	0,1	0,001089
0,449167	0,1	-0,024177
0,450833	0,1	-0,014524
0,452500	0,1	-0,030462
0,454167	0,1	0,003444
0,455833	0,1	-0,033132
0,457500	0,1	-0,032810
0,459167	0,1	-0,017034
0,460833	0,1	-0,007972
0,462500	0,1	0,009875
0,464167	0,1	-0,006828
0,465833	0,1	0,014311
0,467500	0,1	-0,026746
0,469167	0,1	-0,039172
0,470833	0,1	-0,001056
0,472500	0,1	0,015785
0,474167	0,1	-0,002804
0,475833	0,1	-0,015515
0,477500	0,1	-0,017384
0,479167	0,1	-0,004782
0,480833	0,1	0,008096
0,482500	0,1	-0,033629
0,484167	0,1	-0,056771
0,485833	0,1	0,016706
0,487500	0,1	0,008409
0,489167	0,1	-0,004628
0,490833	0,1	0,018646
0,492500	0,1	-0,040154
0,494167	0,1	-0,031651
0,495833	0,1	-0,014526
0,497500	0,1	-0,010355
0,499167	0,1	-0,001711
0,500833	0,1	0,016139
0,502500	0,1	0,001446
0,504167	0,1	-0,026045
0,505833	0,1	-0,047836
0,507500	0,1	-0,017598
0,509167	0,1	0,021731
0,510833	0,1	-0,017500
0,512500	0,1	0,015100
0,514167	0,1	0,023046
0,515833	0,1	-0,042248
0,517500	0,1	-0,011709
0,519167	0,1	-0,044390
0,520833	0,1	0,009578
0,522500	0,1	-0,017935
0,524167	0,1	0,012693
0,525833	0,1	-0,006909
0,527500	0,1	0,019413
0,529167	0,1	0,029497
0,530833	0,1	-0,001722
0,532500	0,1	-0,018872
0,534167	0,1	0,040430
0,535833	0,1	0,022781
0,537500	0,1	0,014467
0,539167	0,1	0,008369
0,540833	0,1	0,006172
0,542500	0,1	-0,036240
0,544167	0,1	0,037502
0,545833	0,1	-0,025725
0,547500	0,1	-0,042135
0,549167	0,1	-0,014591
0,550833	0,1	0,038400
0,552500	0,1	-0,007876
0,554167	0,1	-0,036472
0,555833	0,1	0,009663
0,557500	0,1	0,019769
0,559167	0,1	-0,008212
0,560833	0,1	0,019247
0,562500	0,1	-0,016733
0,564167	0,1	0,035147
0,565833	0,1	-0,003523
0,567500	0,1	0,049845
0,569167	0,1	-0,025659
0,570833	0,1	-0,010068
0,572500	0,1	0,022665
0,574167	0,1	0,059595
0,575833	0,1	0,014726
0,577500	0,1	-0,025957
0,579167	0,1	0,004878
0,580833	0,1	0,025263
0,582500	0,1	0,016976
0,584167	0,1	0,014466
0,585833	0,1	0,027648
0,587500	0,1	0,014694
0,589167	0,1	0,032271
0,590833	0,1	0,033252
0,592500	0,1	0,019860
0,594167	0,1	0,011110
0,595833	0,1	-0,008257
0,597500	0,1	0,019413
0,599167	0,1	0,016290
0,600833	0,1	0,023855
0,602500	0,1	0,026699
0,604167	0,1	-0,009390
0,605833	0,1	-0,004219
0,607500	0,1	0,033552
0,609167	0,1	0,025808
0,610833	0,1	-0,001991
0,612500	0,1	0,052394
0,614167	0,1	0,042233
0,615833	0,1	0,032362
0,617500	0,1	0,035590
0,619167	0,1	0,032982
0,620833	0,1	-0,033746
0,622500	0,1	0,066839
0,624167	0,1	0,012196
0,625833	0,1	0,026925
0,627500	0,1	0,045542
0,629167	0,1	0,061058
0,630833	0,1	0,073499
0,632500	0,1	0,040265
0,634167	0,1	0,037708
0,635833	0,1	0,038829
0,637500	0,1	0,044071
0,639167	0,1	0,039206
0,640833	0,1	0,048720
0,642500	0,1	0,034850
0,644167	0,1	0,016544
0,645833	0,1	0,067516
0,647500	0,1	0,067152
0,649167	0,1	0,043168
0,650833	0,1	0,056142
0,652500	0,1	0,070262
0,654167	0,1	0,079718
0,655833	0,1	0,069233
0,657500	0,1	0,029155
0,659167	0,1	0,051953
0,660833	0,1	0,059232
0,662500	0,1	0,021670
0,664167	0,1	0,085702
0,665833	0,1	0,084786
0,667500	0,1	0,081923
0,669167	0,1	0,087371
0,670833	0,1	0,008077
0,672500	0,1	0,062726
0,674167	0,1	0,068358
0,675833	0,1	0,071777
0,677500	0,1	0,091350
0,679167	0,1	0,059696
0,680833	0,1	0,059297
0,682500	0,1	0,060936
0,684167	0,1	0,073728
0,685833	0,1	0,062012
0,687500	0,1	0,063341
0,689167	0,1	0,101390
0,690833	0,1	0,075729
0,692500	0,1	0,094048
0,694167	0,1	0,085092
0,695833	0,1	0,131659
0,697500	0,1	0,089145
0,699167	0,1	0,054867
0,700833	0,1	0,108952
0,702500	0,1	0,080684
0,704167	0,1	0,115423
0,705833	0,1	0,123347
0,707500	0,1	0,082011
0,709167	0,1	0,124157
0,710833	0,1	0,126715
0,712500	0,1	0,122971
0,714167	0,1	0,131340
0,715833	0,1	0,129186
0,717500	0,1	0,132879
0,719167	0,1	0,126074
0,720833	0,1	0,167312
0,722500	0,1	0,156105
0,724167	0,1	0,132760
0,725833	0,1	0,172547
0,727500	0,1	0,121343
0,729167	0,1	0,168333
0,730833	0,1	0,171116
0,732500	0,1	0,185312
0,734167	0,1	0,203190
0,735833	0,1	0,146006
0,737500	0,1	0,139639
0,739167	0,1	0,142650
0,740833	0,1	0,204893
0,742500	0,1	0,163111
0,744167	0,1	0,202643
0,745833	0,1	0,154789
0,747500	0,1	0,175349
0,749167	0,1	0,122440
0,750833	0,1	0,168459
0,752500	0,1	0,174256
0,754167	0,1	0,082399
0,755833	0,1	0,162892
0,757500	0,1	0,112115
0,759167	0,1	0,109066
0,760833	0,1	0,105751
0,762500	0,1	0,112341
0,764167	0,1	0,133518
0,765833	0,1	0,148497
0,767500	0,1	0,108306
0,769167	0,1	0,167272
0,770833	0,1	0,109496
0,772500	0,1	0,147053
0,774167	0,1	0,120770
0,775833	0,1	0,091825
0,777500	0,1	0,143709
0,779167	0,1	0,130865
0,780833	0,1	0,111856
0,782500	0,1	0,138988
0,784167	0,1	0,115072
0,785833	0,1	0,138157
0,787500	0,1	0,121702
0,789167	0,1	0,132208
0,790833	0,1	0,095636
0,792500	0,1	0,107525
0,794167	0,1	0,144670
0,795833	0,1	0,108268
0,797500	0,1	0,097684
0,799167	0,1	0,111571
0,800833	0,1	0,151075
0,802500	0,1	0,090915
0,804167	0,1	0,086073
0,805833	0,1	0,099381
0,807500	0,1	0,118870
0,809167	0,1	0,086586
0,810833	0,1	0,083335
0,812500	0,1	0,080324
0,814167	0,1	0,090607
0,815833	0,1	0,109541
0,817500	0,1	0,077508
0,819167	0,1	0,071678
0,820833	0,1	0,126348
0,822500	0,1	0,090407
0,824167	0,1	0,112526
0,825833	0,1	0,098165
0,827500	0,1	0,108131
0,829167	0,1	0,105360
0,830833	0,1	0,101391
0,832500	0,1	0,131537
0,834167	0,1	0,112613
0,835833	0,1	0,101393
0,837500	0,1	0,064740
0,839167	0,1	0,107063
0,840833	0,1	0,095504
0,842500	0,1	0,106176
0,844167	0,1	0,158145
0,845833	0,1	0,131259
0,847500	0,1	0,129175
0,849167	0,1	0,147184
0,850833	0,1	0,075614
0,852500	0,1	0,129463
0,854167	0,1	0,108781
0,855833	0,1	0,115493
0,857500	0,1	0,121531
0,859167	0,1	0,107557
0,860833	0,1	0,080016
0,862500	0,1	0,134998
0,864167	0,1	0,125658
0,865833	0,1	0,146742
0,867500	0,1	0,123404
0,869167	0,1	0,127560
0,870833	0,1	0,117780
0,872500	0,1	0,145682
0,874167	0,1	0,145083
0,875833	0,1	0,120544
0,877500	0,1	0,129537
0,879167	0,1	0,144009
0,880833	0,1	0,100012
0,882500	0,1	0,157438
0,884167	0,1	0,154238
0,885833	0,1	0,145225
0,887500	0,1	0,122926
0,889167	0,1	0,148318
0,890833	0,1	0,153782
0,892500	0,1	0,167926
0,894167	0,1	0,148290
0,895833	0,1	0,151688
0,897500	0,1	0,165026
0,899167	0,1	0,159571
0,900833	0,1	0,173232
0,902500	0,1	0,125730
0,904167	0,1	0,150109
0,905833	0,1	0,164155
0,907500	0,1	0,122729
0,909167	0,1	0,158513
0,910833	0,1	0,184452
0,912500	0,1	0,219690
0,914167	0,1	0,168419
0,915833	0,1	0,165094
0,917500	0,1	0,155423
0,919167	0,1	0,178311
0,920833	0,1	0,167679
0,922500	0,1	0,179852
0,924167	0,1	0,203389
0,925833	0,1	0,183982
0,927500	0,1	0,208850
0,929167	0,1	0,227022
0,930833	0,1	0,178998
0,932500	0,1	0,142116
0,934167	0,1	0,244366
0,935833	0,1	0,215141
0,937500	0,1	0,168682
0,939167	0,1	0,215123
0,940833	0,1	0,211755
0,942500	0,1	0,222294
0,944167	0,1	0,173211
0,945833	0,1	0,202998
0,947500	0,1	0,219179
0,949167	0,1	0,218793
0,950833	0,1	0,241876
0,952500	0,1	0,239825
0,954167	0,1	0,213816
0,955833	0,1	0,244573
0,957500	0,1	0,273613
0,959167	0,1	0,268894
0,960833	0,1	0,216839
0,962500	0,1	0,253512
0,964167	0,1	0,221408
0,965833	0,1	0,250949
0,967500	0,1	0,256706
0,969167	0,1	0,279821
0,970833	0,1	0,272754
0,972500	0,1	0,277507
0,974167	0,1	0,292623
0,975833	0,1	0,307741
0,977500	0,1	0,318577
0,979167	0,1	0,326970
0,980833	0,1	0,297715
0,982500	0,1	0,284268
0,984167	0,1	0,293683
0,985833	0,1	0,308864
0,987500	0,1	0,313236
0,989167	0,1	0,312849
0,990833	0,1	0,316169
0,992500	0,1	0,325556
0,994167	0,1	0,345591
0,995833	0,1	0,335630
0,997500	0,1	0,349743
0,999167	0,1	0,359617
1,000833	0,1	0,344152
1,002500	0,1	0,360451
1,004167	0,1	0,362739
1,005833	0,1	0,362254
1,007500	0,1	0,443878
1,009167	0,1	0,423926
1,010833	0,1	0,397644
1,012500	0,1	0,441604
1,014167	0,1	0,421190
1,015833	0,1	0,462838
1,017500	0,1	0,435509
1,019167	0,1	0,509770
1,020833	0,1	0,509949
1,022500	0,1	0,513325
1,024167	0,1	0,491552
1,025833	0,1	0,521045
1,027500	0,1	0,540803
1,029167	0,1	0,570016
1,030833	0,1	0,546536
1,032500	0,1	0,562491
1,034167	0,1	0,599144
1,035833	0,1	0,618868
1,037500	0,1	0,642843
1,039167	0,1	0,623709
1,040833	0,1	0,626309
1,042500	0,1	0,607199
1,044167	0,1	0,668070
1,045833	0,1	0,640542
1,047500	0,1	0,692310
1,049167	0,1	0,675141
1,050833	0,1	0,685947
1,052500	0,1	0,746034
1,054167	0,1	0,803539
1,055833	0,1	0,871112
1,057500	0,1	0,866243
1,059167	0,1	0,917377
1,060833	0,1	0,990807
1,062500	0,1	1,125679
1,064167	0,1	1,268405
1,065833	0,1	1,484532
1,067500	0,1	1,728319
1,069167	0,1	2,108762
1,070833	0,1	2,479504
1,072500	0,1	3,000598
1,074167	0,1	3,609488
1,075833	0,1	4,361489
1,077500	0,1	5,271182
1,079167	0,1	6,276870
1,080833	0,1	7,443055
1,082500	0,1	8,763247
1,084167	0,1	10,170393
1,085833	0,1	11,743011
1,087500	0,1	13,556244
1,089167	0,1	15,391691
1,090833	0,1	17,353535
1,092500	0,1	19,375728
1,094167	0,1	21,443806
1,095833	0,1	23,479488
1,097500	0,1	25,548698
1,099167	0,1	27,556114
1,100833	0,1	29,491713
1,102500	0,1	31,251154
1,104167	0,1	32,897426
1,105833	0,1	34,428158
1,107500	0,1	35,741242
1,109167	0,1	36,939585
1,110833	0,1	37,925886
1,112500	0,1	38,737483
1,114167	0,1	39,300124
1,115833	0,1	39,785983
1,117500	0,1	40,045309
1,119167	0,1	40,195289
1,120833	0,1	40,170362
1,122500	0,1	40,105388
1,124167	0,1	39,864834
1,125833	0,1	39,550869
1,127500	0,1	39,213098
1,129167	0,1	38,713018
1,130833	0,1	38,270959
1,132500	0,1	37,750928
1,134167	0,1	37,284424
1,135833	0,1	36,738503
1,137500	0,1	36,315930
1,139167	0,1	35,839637
1,140833	0,1	35,409627
1,142500	0,1	35,047575
1,144167	0,1	34,766359
1,145833	0,1	34,494917
1,147500	0,1	34,276249
1,149167	0,1	34,165173
1,150833	0,1	34,151550
1,152500	0,1	34,159562
1,154167	0,1	34,273148
1,155833	0,1	34,513126
1,157500	0,1	34,741405
1,159167	0,1	35,058302
1,160833	0,1	35,457121
1,162500	0,1	35,922511
1,164167	0,1	36,377472
1,165833	0,1	36,898229
1,167500	0,1	37,380168
1,169167	0,1	37,965727
1,170833	0,1	38,482522
1,172500	0,1	39,024984
1,174167	0,1	39,493005
1,175833	0,1	40,042669
1,177500	0,1	40,471572
1,179167	0,1	40,918671
1,180833	0,1	41,289861
1,182500	0,1	41,641152
1,184167	0,1	41,967859
1,185833	0,1	42,210425
1,187500	0,1	42,464086
1,189167	0,1	42,741819
1,190833	0,1	42,921129
1,192500	0,1	43,178256
1,194167	0,1	43,442562
1,195833	0,1	43,694560
1,197500	0,1	44,067987
1,199167	0,1	44,479018
1,200833	0,1	45,002155
1,202500	0,1	45,652256
1,204167	0,1	46,508036
1,205833	0,1	47,455544
1,207500	0,1	48,595981
1,209167	0,1	49,983588
1,210833	0,1	51,592098
1,212500	0,1	53,376856
1,214167	0,1	55,380655
1,215833	0,1	57,655695
1,217500	0,1	60,143811
1,219167	0,1	62,811164
1,220833	0,1	65,675415
1,222500	0,1	68,700211
1,224167	0,1	71,875169
1,225833	0,1	75,105561
1,227500	0,1	78,439608
1,229167	0,1	81,743190
1,230833	0,1	85,105914
1,232500	0,1	88,335914
1,234167	0,1	91,531899
1,235833	0,1	94,621435
1,237500	0,1	97,543101
1,239167	0,1	100,313513
1,240833	0,1	102,921544
1,242500	0,1	105,281942
1,244167	0,1	107,430569
1,245833	0,1	109,342732
1,247500	0,1	111,054700
1,249167	0,1	112,419886
1,250833	0,1	113,594509
1,252500	0,1	114,524824
1,254167	0,1	115,149814
1,255833	0,1	115,572847
1,257500	0,1	115,775631
1,259167	0,1	115,637932
1,260833	0,1	115,338796
1,262500	0,1	114,759498
1,264167	0,1	113,978071
1,265833	0,1	113,008336
1,267500	0,1	111,821559
1,269167	0,1	110,410157
1,270833	0,1	108,901043
1,272500	0,1	107,195983
1,274167	0,1	105,331059
1,275833	0,1	103,345975
1,277500	0,1	101,240987
1,279167	0,1	99,072380
1,280833	0,1	96,809091
1,282500	0,1	94,505939
1,284167	0,1	92,097093
1,285833	0,1	89,671491
1,287500	0,1	87,248546
1,289167	0,1	84,743942
1,290833	0,1	82,358922
1,292500	0,1	79,928590
1,294167	0,1	77,494390
1,295833	0,1	75,129659
1,297500	0,1	72,794508
1,299167	0,1	70,549610
1,300833	0,1	68,348729
1,302500	0,1	66,243680
1,304167	0,1	64,142237
1,305833	0,1	62,145471
1,307500	0,1	60,220915
1,309167	0,1	58,370709
1,310833	0,1	56,601514
1,312500	0,1	54,924092
1,314167	0,1	53,281664
1,315833	0,1	51,737262
1,317500	0,1	50,251016
1,319167	0,1	48,865405
1,320833	0,1	47,475317
1,322500	0,1	46,190190
1,324167	0,1	44,980031
1,325833	0,1	43,812063
1,327500	0,1	42,649377
1,329167	0,1	41,519306
1,330833	0,1	40,570303
1,332500	0,1	39,591516
1,334167	0,1	38,633115
1,335833	0,1	37,684441
1,337500	0,1	36,808070
1,339167	0,1	35,957712
1,340833	0,1	35,163867
1,342500	0,1	34,350754
1,344167	0,1	33,594945
1,345833	0,1	32,806604
1,347500	0,1	32,106753
1,349167	0,1	31,419714
1,350833	0,1	30,713230
1,352500	0,1	30,061197
1,354167	0,1	29,428448
1,355833	0,1	28,780150
1,357500	0,1	28,162157
1,359167	0,1	27,548407
1,360833	0,1	26,948085
1,362500	0,1	26,409304
1,364167	0,1	25,796655
1,365833	0,1	25,253645
1,367500	0,1	24,711997
1,369167	0,1	24,171339
1,370833	0,1	23,688601
1,372500	0,1	23,184990
1,374167	0,1	22,646435
1,375833	0,1	22,171705
1,377500	0,1	21,691488
1,379167	0,1	21,261053
1,380833	0,1	20,796537
1,382500	0,1	20,316875
1,384167	0,1	19,851751
1,385833	0,1	19,494331
1,387500	0,1	19,054212
1,389167	0,1	18,682792
1,390833	0,1	18,292596
1,392500	0,1	17,943663
1,394167	0,1	17,554180
1,395833	0,1	17,175806
1,397500	0,1	16,837831
1,399167	0,1	16,507246
1,400833	0,1	16,222894
1,402500	0,1	15,886628
1,404167	0,1	15,611094
1,405833	0,1	15,329354
1,407500	0,1	15,064832
1,409167	0,1	14,792721
1,410833	0,1	14,539230
1,412500	0,1	14,261998
1,414167	0,1	14,009381
1,415833	0,1	13,784437
1,417500	0,1	13,528721
1,419167	0,1	13,372235
1,420833	0,1	13,106857
1,422500	0,1	12,912935
1,424167	0,1	12,711302
1,425833	0,1	12,534197
1,427500	0,1	12,350473
1,429167	0,1	12,188632
1,430833	0,1	11,954749
1,432500	0,1	11,816616
1,434167	0,1	11,646811
1,435833	0,1	11,512711
1,437500	0,1	11,320927
1,439167	0,1	11,148556
1,440833	0,1	11,000552
1,442500	0,1	10,876740
1,444167	0,1	10,694844
1,445833	0,1	10,556456
1,447500	0,1	10,424494
1,449167	0,1	10,267994
1,450833	0,1	10,098674
1,452500	0,1	9,997451
1,454167	0,1	9,878946
1,455833	0,1	9,746488
1,457500	0,1	9,622458
1,459167	0,1	9,484796
1,460833	0,1	9,351871
1,462500	0,1	9,218325
1,464167	0,1	9,101715
1,465833	0,1	9,027929
1,467500	0,1	8,881563
1,469167	0,1	8,789644
1,470833	0,1	8,687673
1,472500	0,1	8,611581
1,474167	0,1	8,460704
1,475833	0,1	8,425116
1,477500	0,1	8,355745
1,479167	0,1	8,230868
1,480833	0,1	8,158966
1,482500	0,1	8,123692
1,484167	0,1	8,049983
1,485833	0,1	7,986196
1,487500	0,1	7,925788
1,489167	0,1	7,869610
1,490833	0,1	7,831992
1,492500	0,1	7,766574
1,494167	0,1	7,691720
1,495833	0,1	7,710381
1,497500	0,1	7,681205
1,499167	0,1	7,602548
1,500833	0,1	7,571614
1,502500	0,1	7,555325
1,504167	0,1	7,526206
1,505833	0,1	7,540479
1,507500	0,1	7,497235
1,509167	0,1	7,456039
1,510833	0,1	7,472397
1,512500	0,1	7,431008
1,514167	0,1	7,431748
1,515833	0,1	7,406909
1,517500	0,1	7,365453
1,519167	0,1	7,411653
1,520833	0,1	7,374599
1,522500	0,1	7,325400
1,524167	0,1	7,326488
1,525833	0,1	7,297556
1,527500	0,1	7,316125
1,529167	0,1	7,267863
1,530833	0,1	7,214552
1,532500	0,1	7,223133
1,534167	0,1	7,183749
1,535833	0,1	7,143141
1,537500	0,1	7,165057
1,539167	0,1	7,154232
1,540833	0,1	7,108224
1,542500	0,1	7,077243
1,544167	0,1	7,063327
1,545833	0,1	7,040097
1,547500	0,1	7,013778
1,549167	0,1	6,956963
1,550833	0,1	6,989035
1,552500	0,1	6,907334
1,554167	0,1	6,914591
1,555833	0,1	6,903772
1,557500	0,1	6,876071
1,559167	0,1	6,795119
1,560833	0,1	6,782045
1,562500	0,1	6,739710
1,564167	0,1	6,739983
1,565833	0,1	6,688614
1,567500	0,1	6,649824
1,569167	0,1	6,592114
1,570833	0,1	6,582675
1,572500	0,1	6,572520
1,574167	0,1	6,528072
1,575833	0,1	6,472513
1,577500	0,1	6,451368
1,579167	0,1	6,383359
1,580833	0,1	6,394601
1,582500	0,1	6,345227
1,584167	0,1	6,337202
1,585833	0,1	6,267256
1,587500	0,1	6,265103
1,589167	0,1	6,223111
1,590833	0,1	6,154775
1,592500	0,1	6,129294
1,594167	0,1	6,088321
1,595833	0,1	6,060494
1,597500	0,1	6,030232
1,599167	0,1	6,018702
1,600833	0,1	5,977063
1,602500	0,1	5,886978
1,604167	0,1	5,858934
1,605833	0,1	5,877653
1,607500	0,1	5,814500
1,609167	0,1	5,787943
1,610833	0,1	5,725724
1,612500	0,1	5,683460
1,614167	0,1	5,641133
1,615833	0,1	5,624148
1,617500	0,1	5,566697
1,619167	0,1	5,571258
1,620833	0,1	5,536067
1,622500	0,1	5,497903
1,624167	0,1	5,443274
1,625833	0,1	5,392051
1,627500	0,1	5,394752
1,629167	0,1	5,349193
1,630833	0,1	5,318561
1,632500	0,1	5,249433
1,634167	0,1	5,268242
1,635833	0,1	5,243789
1,637500	0,1	5,197139
1,639167	0,1	5,182983
1,640833	0,1	5,160983
1,642500	0,1	5,114389
1,644167	0,1	5,107310
1,645833	0,1	5,071888
1,647500	0,1	5,016623
1,649167	0,1	5,008498
1,650833	0,1	4,983710
1,652500	0,1	4,936620
1,654167	0,1	4,947717
1,655833	0,1	4,916835
1,657500	0,1	4,922280
1,659167	0,1	4,883859
1,660833	0,1	4,854485
1,662500	0,1	4,837291
1,664167	0,1	4,868748
1,665833	0,1	4,855529
1,667500	0,1	4,818404
1,669167	0,1	4,808850
1,670833	0,1	4,789838
1,672500	0,1	4,799264
1,674167	0,1	4,826440
1,675833	0,1	4,825314
1,677500	0,1	4,847407
1,679167	0,1	4,859623
1,680833	0,1	4,840132
1,682500	0,1	4,883358
1,684167	0,1	4,891779
1,685833	0,1	4,898625
1,687500	0,1	4,893199
1,689167	0,1	4,905942
1,690833	0,1	4,974105
1,692500	0,1	4,988025
1,694167	0,1	4,968587
1,695833	0,1	5,065524
1,697500	0,1	5,054044
1,699167	0,1	5,041434
1,700833	0,1	5,094823
1,702500	0,1	5,155503
1,704167	0,1	5,158631
1,705833	0,1	5,213025
1,707500	0,1	5,207425
1,709167	0,1	5,258145
1,710833	0,1	5,262292
1,712500	0,1	5,310281
1,714167	0,1	5,339674
1,715833	0,1	5,385849
1,717500	0,1	5,414682
1,719167	0,1	5,437982
1,720833	0,1	5,428619
1,722500	0,1	5,472344
1,724167	0,1	5,467649
1,725833	0,1	5,522549
1,727500	0,1	5,522630
1,729167	0,1	5,525581
1,730833	0,1	5,531894
1,732500	0,1	5,572224
1,734167	0,1	5,549043
1,735833	0,1	5,572771
1,737500	0,1	5,553988
1,739167	0,1	5,545504
1,740833	0,1	5,552399
1,742500	0,1	5,559822
1,744167	0,1	5,548323
1,745833	0,1	5,524479
1,747500	0,1	5,520114
1,749167	0,1	5,472106
1,750833	0,1	5,518906
1,752500	0,1	5,478873
1,754167	0,1	5,472899
1,755833	0,1	5,407307
1,757500	0,1	5,399678
1,759167	0,1	5,392086
1,760833	0,1	5,379747
1,762500	0,1	5,344244
1,764167	0,1	5,305441
1,765833	0,1	5,257076
1,767500	0,1	5,253714
1,769167	0,1	5,184187
1,770833	0,1	5,129804
1,772500	0,1	5,137955
1,774167	0,1	5,072292
1,775833	0,1	5,075752
1,777500	0,1	4,997997
1,779167	0,1	4,936260
1,780833	0,1	4,917739
1,782500	0,1	4,840450
1,784167	0,1	4,819470
1,785833	0,1	4,734155
1,787500	0,1	4,773480
1,789167	0,1	4,699880
1,790833	0,1	4,648433
1,792500	0,1	4,579322
1,794167	0,1	4,555716
1,795833	0,1	4,502795
1,797500	0,1	4,527645
1,799167	0,1	4,385399
1,800833	0,1	4,387797
1,802500	0,1	4,312143
1,804167	0,1	4,242688
1,805833	0,1	4,253458
1,807500	0,1	4,225273
1,809167	0,1	4,158519
1,810833	0,1	4,128663
1,812500	0,1	4,058556
1,814167	0,1	4,001303
1,815833	0,1	3,966430
1,817500	0,1	3,921438
1,819167	0,1	3,922315
1,820833	0,1	3,808253
1,822500	0,1	3,793223
1,824167	0,1	3,782895
1,825833	0,1	3,728130
1,827500	0,1	3,697861
1,829167	0,1	3,673101
1,830833	0,1	3,614854
1,832500	0,1	3,627642
1,834167	0,1	3,554195
1,835833	0,1	3,557004
1,837500	0,1	3,522333
1,839167	0,1	3,471486
1,840833	0,1	3,521379
1,842500	0,1	3,504080
1,844167	0,1	3,468112
1,845833	0,1	3,464139
1,847500	0,1	3,516710
1,849167	0,1	3,516675
1,850833	0,1	3,563031
1,852500	0,1	3,549649
1,854167	0,1	3,584576
1,855833	0,1	3,627085
1,857500	0,1	3,699988
1,859167	0,1	3,702676
1,860833	0,1	3,752375
1,862500	0,1	3,818333
1,864167	0,1	3,856849
1,865833	0,1	3,875536
1,867500	0,1	3,944554
1,869167	0,1	4,020170
1,870833	0,1	4,075238
1,872500	0,1	4,107479
1,874167	0,1	4,166075
1,875833	0,1	4,182429
1,877500	0,1	4,248820
1,879167	0,1	4,258004
1,880833	0,1	4,320586
1,882500	0,1	4,393260
1,884167	0,1	4,402162
1,885833	0,1	4,473978
1,887500	0,1	4,496427
1,889167	0,1	4,439600
1,890833	0,1	4,549094
1,892500	0,1	4,585484
1,894167	0,1	4,590135
1,895833	0,1	4,598814
1,897500	0,1	4,625090
1,899167	0,1	4,680907
1,900833	0,1	4,752209
1,902500	0,1	4,763438
1,904167	0,1	4,789961
1,905833	0,1	4,771146
1,907500	0,1	4,847595
1,909167	0,1	4,855472
1,910833	0,1	4,895756
1,912500	0,1	4,905575
1,914167	0,1	4,927674
1,915833	0,1	4,936525
1,917500	0,1	4,944045
1,919167	0,1	4,999634
1,920833	0,1	5,023219
1,922500	0,1	4,989365
1,924167	0,1	5,017761
1,925833	0,1	5,019718
1,927500	0,1	5,007453
1,929167	0,1	5,005724
1,930833	0,1	5,037493
1,932500	0,1	5,027778
1,934167	0,1	5,023252
1,935833	0,1	5,049764
1,937500	0,1	5,042649
1,939167	0,1	5,058135
1,940833	0,1	5,013934
1,942500	0,1	5,033226
1,944167	0,1	4,987616
1,945833	0,1	4,988537
1,947500	0,1	4,992240
1,949167	0,1	4,953127
1,950833	0,1	4,991382
1,952500	0,1	4,961919
1,954167	0,1	4,986638
1,955833	0,1	4,992155
1,957500	0,1	4,956349
1,959167	0,1	4,985052
1,960833	0,1	4,975001
1,962500	0,1	4,936930
1,964167	0,1	4,957975
1,965833	0,1	4,951877
1,967500	0,1	4,941646
1,969167	0,1	4,907704
1,970833	0,1	4,904193
1,972500	0,1	4,960455
1,974167	0,1	4,932580
1,975833	0,1	4,909230
1,977500	0,1	4,937567
1,979167	0,1	4,909652
1,980833	0,1	4,921235
1,982500	0,1	4,900526
1,984167	0,1	4,950055
1,985833	0,1	4,921469
1,987500	0,1	4,937570
1,989167	0,1	4,929037
1,990833	0,1	4,947659
1,992500	0,1	4,953259
1,994167	0,1	4,984375
1,995833	0,1	4,923312
1,997500	0,1	4,995360
1,999167	0,1	4,979042
2,000833	0,1	5,017194
2,002500	0,1	4,988375
2,004167	0,1	4,975113
2,005833	0,1	5,018435
2,007500	0,1	5,052759
2,009167	0,1	5,044966
2,010833	0,1	5,102061
2,012500	0,1	5,070388
2,014167	0,1	5,121633
2,015833	0,1	5,139397
2,017500	0,1	5,126595
2,019167	0,1	5,138268
2,020833	0,1	5,162135
2,022500	0,1	5,205478
2,024167	0,1	5,219882
2,025833	0,1	5,160741
2,027500	0,1	5,272467
2,029167	0,1	5,265230
2,030833	0,1	5,254686
2,032500	0,1	5,258242
2,034167	0,1	5,321141
2,035833	0,1	5,283539
2,037500	0,1	5,333899
2,039167	0,1	5,361736
2,040833	0,1	5,398106
2,042500	0,1	5,446418
2,044167	0,1	5,455799
2,045833	0,1	5,479248
2,047500	0,1	5,482054
2,049167	0,1	5,515461
2,050833	0,1	5,523646
2,052500	0,1	5,529245
2,054167	0,1	5,618613
2,055833	0,1	5,683539
2,057500	0,1	5,635099
2,059167	0,1	5,696547
2,060833	0,1	5,738373
2,062500	0,1	5,744526
2,064167	0,1	5,801161
2,065833	0,1	5,784261
2,067500	0,1	5,830847
2,069167	0,1	5,820913
2,070833	0,1	5,816422
2,072500	0,1	5,897023
2,074167	0,1	5,908928
2,075833	0,1	5,922788
2,077500	0,1	5,939655
2,079167	0,1	5,993258
2,080833	0,1	5,957246
2,082500	0,1	5,980957
2,084167	0,1	6,048163
2,085833	0,1	6,021836
2,087500	0,1	6,061972
2,089167	0,1	6,119417
2,090833	0,1	6,098118
2,092500	0,1	6,158170
2,094167	0,1	6,118161
2,095833	0,1	6,170177
2,097500	0,1	6,179214
2,099167	0,1	6,200186
2,100833	0,1	6,193009
2,102500	0,1	6,237243
2,104167	0,1	6,233915
2,105833	0,1	6,267601
2,107500	0,1	6,267601
2,109167	0,1	6,242196
2,110833	0,1	6,285406
2,112500	0,1	6,273843
2,114167	0,1	6,277962
2,115833	0,1	6,313260
2,117500	0,1	6,323527
2,119167	0,1	6,319048
2,120833	0,1	6,296688
2,122500	0,1	6,335433
2,124167	0,1	6,363396
2,125833	0,1	6,320749
2,127500	0,1	6,322406
2,129167	0,1	6,348553
2,130833	0,1	6,301740
2,132500	0,1	6,379592
2,134167	0,1	6,354906
2,135833	0,1	6,369996
2,137500	0,1	6,343365
2,139167	0,1	6,338513
2,140833	0,1	6,380789
2,142500	0,1	6,369830
2,144167	0,1	6,351758
2,145833	0,1	6,331053
2,147500	0,1	6,358081
2,149167	0,1	6,334332
2,150833	0,1	6,302733
2,152500	0,1	6,352014
2,154167	0,1	6,299395
2,155833	0,1	6,343718
2,157500	0,1	6,299874
2,159167	0,1	6,289613
2,160833	0,1	6,280664
2,162500	0,1	6,285415
2,164167	0,1	6,265858
2,165833	0,1	6,310848
2,167500	0,1	6,268483
2,169167	0,1	6,244612
2,170833	0,1	6,230195
2,172500	0,1	6,238104
2,174167	0,1	6,190209
2,175833	0,1	6,156722
2,177500	0,1	6,208844
2,179167	0,1	6,160884
2,180833	0,1	6,185740
2,182500	0,1	6,163877
2,184167	0,1	6,167031
2,185833	0,1	6,095306
2,187500	0,1	6,094740
2,189167	0,1	6,111539
2,190833	0,1	6,097375
2,192500	0,1	6,085731
2,194167	0,1	6,110940
2,195833	0,1	6,073339
2,197500	0,1	6,060208
2,199167	0,1	5,999046
2,200833	0,1	6,029387
2,202500	0,1	6,010514
2,204167	0,1	6,027819
2,205833	0,1	6,025115
2,207500	0,1	6,000624
2,209167	0,1	5,955842
2,210833	0,1	5,967543
2,212500	0,1	6,015265
2,214167	0,1	5,980096
2,215833	0,1	5,986307
2,217500	0,1	5,997074
2,219167	0,1	5,977903
2,220833	0,1	6,002757
2,222500	0,1	5,993526
2,224167	0,1	5,979368
2,225833	0,1	5,977425
2,227500	0,1	6,001380
2,229167	0,1	5,951295
2,230833	0,1	5,993925
2,232500	0,1	6,007438
2,234167	0,1	5,999713
2,235833	0,1	5,990740
2,237500	0,1	6,026216
2,239167	0,1	6,026671
2,240833	0,1	6,023619
2,242500	0,1	6,059469
2,244167	0,1	6,105386
2,245833	0,1	6,028020
2,247500	0,1	6,109264
2,249167	0,1	6,089093
2,250833	0,1	6,073921
2,252500	0,1	6,137884
2,254167	0,1	6,113211
2,255833	0,1	6,092341
2,257500	0,1	6,147911
2,259167	0,1	6,118889
2,260833	0,1	6,161244
2,262500	0,1	6,093756
2,264167	0,1	6,122248
2,265833	0,1	6,126906
2,267500	0,1	6,177811
2,269167	0,1	6,127727
2,270833	0,1	6,120546
2,272500	0,1	6,120365
2,274167	0,1	6,118217
2,275833	0,1	6,101262
2,277500	0,1	6,213594
2,279167	0,1	6,108543
2,280833	0,1	6,119183
2,282500	0,1	6,134354
2,284167	0,1	6,166192
2,285833	0,1	6,124220
2,287500	0,1	6,105567
2,289167	0,1	6,106635
2,290833	0,1	6,097936
2,292500	0,1	6,084249
2,294167	0,1	6,105085
2,295833	0,1	6,086792
2,297500	0,1	6,074203
2,299167	0,1	6,055405
2,300833	0,1	6,062019
2,302500	0,1	6,011798
2,304167	0,1	6,033287
2,305833	0,1	6,008828
2,307500	0,1	6,018211
2,309167	0,1	6,000889
2,310833	0,1	5,961763
2,312500	0,1	5,973362
2,314167	0,1	5,956516
2,315833	0,1	5,946369
2,317500	0,1	5,887475
2,319167	0,1	5,893500
2,320833	0,1	5,890777
2,322500	0,1	5,821914
2,324167	0,1	5,822390
2,325833	0,1	5,826209
2,327500	0,1	5,779833
2,329167	0,1	5,792350
2,330833	0,1	5,782835
2,332500	0,1	5,714003
2,334167	0,1	5,736882
2,335833	0,1	5,752075
2,337500	0,1	5,710001
2,339167	0,1	5,667022
2,340833	0,1	5,643625
2,342500	0,1	5,617619
2,344167	0,1	5,604925
2,345833	0,1	5,607915
2,347500	0,1	5,557273
2,349167	0,1	5,518298
2,350833	0,1	5,510760
2,352500	0,1	5,513490
2,354167	0,1	5,438354
2,355833	0,1	5,442957
2,357500	0,1	5,462977
2,359167	0,1	5,422750
2,360833	0,1	5,386133
2,362500	0,1	5,374414
2,364167	0,1	5,356690
2,365833	0,1	5,332554
2,367500	0,1	5,341458
2,369167	0,1	5,324008
2,370833	0,1	5,293652
2,372500	0,1	5,269272
2,374167	0,1	5,266418
2,375833	0,1	5,300423
2,377500	0,1	5,236814
2,379167	0,1	5,207704
2,380833	0,1	5,216802
2,382500	0,1	5,261165
2,384167	0,1	5,216866
2,385833	0,1	5,222462
2,387500	0,1	5,206743
2,389167	0,1	5,234669
2,390833	0,1	5,237327
2,392500	0,1	5,265577
2,394167	0,1	5,250011
2,395833	0,1	5,290247
2,397500	0,1	5,265994
2,399167	0,1	5,326458
2,400833	0,1	5,341482
2,402500	0,1	5,387955
2,404167	0,1	5,430626
2,405833	0,1	5,441328
2,407500	0,1	5,504623
2,409167	0,1	5,578203
2,410833	0,1	5,627105
2,412500	0,1	5,734273
2,414167	0,1	5,750278
2,415833	0,1	5,832407
2,417500	0,1	5,905686
2,419167	0,1	6,020079
2,420833	0,1	6,066175
2,422500	0,1	6,175580
2,424167	0,1	6,276914
2,425833	0,1	6,364316
2,427500	0,1	6,521785
2,429167	0,1	6,597591
2,430833	0,1	6,776131
2,432500	0,1	6,868580
2,434167	0,1	6,988829
2,435833	0,1	7,089996
2,437500	0,1	7,238027
2,439167	0,1	7,392372
2,440833	0,1	7,464615
2,442500	0,1	7,607707
2,444167	0,1	7,735386
2,445833	0,1	7,876899
2,447500	0,1	8,011321
2,449167	0,1	8,111951
2,450833	0,1	8,245118
2,452500	0,1	8,378373
2,454167	0,1	8,517008
2,455833	0,1	8,647236
2,457500	0,1	8,733098
2,459167	0,1	8,857152
2,460833	0,1	9,010687
2,462500	0,1	9,085126
2,464167	0,1	9,176463
2,465833	0,1	9,270310
2,467500	0,1	9,371578
2,469167	0,1	9,482428
2,470833	0,1	9,526574
2,472500	0,1	9,624803
2,474167	0,1	9,695446
2,475833	0,1	9,783202
2,477500	0,1	9,827303
2,479167	0,1	9,935106
2,480833	0,1	9,988249
2,482500	0,1	10,018771
2,484167	0,1	10,081981
2,485833	0,1	10,158880
2,487500	0,1	10,220726
2,489167	0,1	10,293620
2,490833	0,1	10,324725
2,492500	0,1	10,374357
2,494167	0,1	10,442000
2,495833	0,1	10,499943
2,497500	0,1	10,592677
2,499167	0,1	10,611849
2,500833	0,1	10,702842
2,502500	0,1	10,734095
2,504167	0,1	10,803872
2,505833	0,1	10,887012
2,507500	0,1	10,958798
2,509167	0,1	11,063397
2,510833	0,1	11,158674
2,512500	0,1	11,247306
2,514167	0,1	11,292943
2,515833	0,1	11,427192
2,517500	0,1	11,505304
2,519167	0,1	11,638312
2,520833	0,1	11,748083
2,522500	0,1	11,894119
2,524167	0,1	11,990156
2,525833	0,1	12,144621
2,527500	0,1	12,263500
2,529167	0,1	12,387857
2,530833	0,1	12,527063
2,532500	0,1	12,740361
2,534167	0,1	12,864376
2,535833	0,1	13,005595
2,537500	0,1	13,255868
2,539167	0,1	13,375089
2,540833	0,1	13,538705
2,542500	0,1	13,718952
2,544167	0,1	13,887710
2,545833	0,1	14,122482
2,547500	0,1	14,269106
2,549167	0,1	14,462265
2,550833	0,1	14,637509
2,552500	0,1	14,863292
2,554167	0,1	15,025891
2,555833	0,1	15,263466
2,557500	0,1	15,385463
2,559167	0,1	15,566881
2,560833	0,1	15,753318
2,562500	0,1	15,904638
2,564167	0,1	16,068537
2,565833	0,1	16,282555
2,567500	0,1	16,396838
2,569167	0,1	16,571591
2,570833	0,1	16,686364
2,572500	0,1	16,849951
2,574167	0,1	16,999407
2,575833	0,1	17,101008
2,577500	0,1	17,220490
2,579167	0,1	17,357670
2,580833	0,1	17,475461
2,582500	0,1	17,552427
2,584167	0,1	17,618933
2,585833	0,1	17,711852
2,587500	0,1	17,836055
2,589167	0,1	17,876281
2,590833	0,1	17,901113
2,592500	0,1	17,969302
2,594167	0,1	18,004719
2,595833	0,1	18,032714
2,597500	0,1	18,012295
2,599167	0,1	18,052666
2,600833	0,1	18,047157
2,602500	0,1	18,087008
2,604167	0,1	18,042255
2,605833	0,1	18,020667
2,607500	0,1	17,983780
2,609167	0,1	17,980354
2,610833	0,1	17,935385
2,612500	0,1	17,926787
2,614167	0,1	17,858082
2,615833	0,1	17,752554
2,617500	0,1	17,742083
2,619167	0,1	17,633884
2,620833	0,1	17,574808
2,622500	0,1	17,487478
2,624167	0,1	17,427009
2,625833	0,1	17,344063
2,627500	0,1	17,201391
2,629167	0,1	17,107850
2,630833	0,1	16,953516
2,632500	0,1	16,887058
2,634167	0,1	16,771369
2,635833	0,1	16,649115
2,637500	0,1	16,518625
2,639167	0,1	16,372190
2,640833	0,1	16,277278
2,642500	0,1	16,148657
2,644167	0,1	15,945526
2,645833	0,1	15,820313
2,647500	0,1	15,665035
2,649167	0,1	15,524196
2,650833	0,1	15,395123
2,652500	0,1	15,202187
2,654167	0,1	15,057772
2,655833	0,1	14,901555
2,657500	0,1	14,757127
2,659167	0,1	14,556345
2,660833	0,1	14,402010
2,662500	0,1	14,212590
2,664167	0,1	14,044867
2,665833	0,1	13,883183
2,667500	0,1	13,720796
2,669167	0,1	13,573825
2,670833	0,1	13,354872
2,672500	0,1	13,220615
2,674167	0,1	13,024305
2,675833	0,1	12,838360
2,677500	0,1	12,655564
2,679167	0,1	12,508609
2,680833	0,1	12,285203
2,682500	0,1	12,110565
2,684167	0,1	12,000038
2,685833	0,1	11,814822
2,687500	0,1	11,605615
2,689167	0,1	11,479159
2,690833	0,1	11,281045
2,692500	0,1	11,113335
2,694167	0,1	10,932271
2,695833	0,1	10,825992
2,697500	0,1	10,598736
2,699167	0,1	10,438654
2,700833	0,1	10,340065
2,702500	0,1	10,157468
2,704167	0,1	10,021899
2,705833	0,1	9,821738
2,707500	0,1	9,682034
2,709167	0,1	9,519634
2,710833	0,1	9,417668
2,712500	0,1	9,241590
2,714167	0,1	9,131152
2,715833	0,1	8,990194
2,717500	0,1	8,787397
2,719167	0,1	8,734362
2,720833	0,1	8,557042
2,722500	0,1	8,457297
2,724167	0,1	8,322879
2,725833	0,1	8,205143
2,727500	0,1	8,045927
2,729167	0,1	7,951770
2,730833	0,1	7,847784
2,732500	0,1	7,731398
2,734167	0,1	7,609070
2,735833	0,1	7,475024
2,737500	0,1	7,396169
2,739167	0,1	7,315756
2,740833	0,1	7,158747
2,742500	0,1	7,098522
2,744167	0,1	6,976480
2,745833	0,1	6,854077
2,747500	0,1	6,835960
2,749167	0,1	6,667097
2,750833	0,1	6,637054
2,752500	0,1	6,548783
2,754167	0,1	6,450370
2,755833	0,1	6,366882
2,757500	0,1	6,279560
2,759167	0,1	6,202064
2,760833	0,1	6,151296
2,762500	0,1	6,056905
2,764167	0,1	5,975518
2,765833	0,1	5,894173
2,767500	0,1	5,850933
2,769167	0,1	5,805321
2,770833	0,1	5,690502
2,772500	0,1	5,644921
2,774167	0,1	5,594487
2,775833	0,1	5,533881
2,777500	0,1	5,440485
2,779167	0,1	5,406216
2,780833	0,1	5,319814
2,782500	0,1	5,295468
2,784167	0,1	5,209841
2,785833	0,1	5,142868
2,787500	0,1	5,088715
2,789167	0,1	5,020216
2,790833	0,1	4,969049
2,792500	0,1	4,979009
2,794167	0,1	4,882544
2,795833	0,1	4,875318
2,797500	0,1	4,781418
2,799167	0,1	4,751500
2,800833	0,1	4,721193
2,802500	0,1	4,622590
2,804167	0,1	4,566398
2,805833	0,1	4,565689
2,807500	0,1	4,513330
2,809167	0,1	4,507144
2,810833	0,1	4,477927
2,812500	0,1	4,403109
2,814167	0,1	4,318392
2,815833	0,1	4,289205
2,817500	0,1	4,259429
2,819167	0,1	4,223166
2,820833	0,1	4,212492
2,822500	0,1	4,140676
2,824167	0,1	4,098981
2,825833	0,1	4,101525
2,827500	0,1	4,025798
2,829167	0,1	3,981962
2,830833	0,1	3,939721
2,832500	0,1	3,922932
2,834167	0,1	3,869887
2,835833	0,1	3,876232
2,837500	0,1	3,837665
2,839167	0,1	3,793292
2,840833	0,1	3,789075
2,842500	0,1	3,755211
2,844167	0,1	3,683090
2,845833	0,1	3,690169
2,847500	0,1	3,638931
2,849167	0,1	3,602299
2,850833	0,1	3,614621
2,852500	0,1	3,540614
2,854167	0,1	3,520615
2,855833	0,1	3,520633
2,857500	0,1	3,492316
2,859167	0,1	3,469872
2,860833	0,1	3,405072
2,862500	0,1	3,366356
2,864167	0,1	3,413622
2,865833	0,1	3,312429
2,867500	0,1	3,287261
2,869167	0,1	3,303287
2,870833	0,1	3,303861
2,872500	0,1	3,250270
2,874167	0,1	3,255336
2,875833	0,1	3,218032
2,877500	0,1	3,206031
2,879167	0,1	3,167968
2,880833	0,1	3,121017
2,882500	0,1	3,080406
2,884167	0,1	3,118959
2,885833	0,1	3,051836
2,887500	0,1	3,050449
2,889167	0,1	3,046147
2,890833	0,1	3,006315
2,892500	0,1	3,010187
2,894167	0,1	2,957385
2,895833	0,1	2,963742
2,897500	0,1	2,900419
2,899167	0,1	2,913400
2,900833	0,1	2,911613
2,902500	0,1	2,914772
2,904167	0,1	2,893336
2,905833	0,1	2,844954
2,907500	0,1	2,814512
2,909167	0,1	2,789342
2,910833	0,1	2,797172
2,912500	0,1	2,786452
2,914167	0,1	2,760159
2,915833	0,1	2,740195
2,917500	0,1	2,728899
2,919167	0,1	2,724867
2,920833	0,1	2,708901
2,922500	0,1	2,708348
2,924167	0,1	2,666871
2,925833	0,1	2,642950
2,927500	0,1	2,654952
2,929167	0,1	2,624623
2,930833	0,1	2,637335
2,932500	0,1	2,595965
2,934167	0,1	2,602704
2,935833	0,1	2,587701
2,937500	0,1	2,575194
2,939167	0,1	2,591433
2,940833	0,1	2,603645
2,942500	0,1	2,537579
2,944167	0,1	2,524127
2,945833	0,1	2,517302
2,947500	0,1	2,552997
2,949167	0,1	2,473436
2,950833	0,1	2,470538
2,952500	0,1	2,483248
2,954167	0,1	2,482305
2,955833	0,1	2,440754
2,957500	0,1	2,444328
2,959167	0,1	2,462703
2,960833	0,1	2,436998
2,962500	0,1	2,449709
2,964167	0,1	2,328032
2,965833	0,1	2,414216
2,967500	0,1	2,368070
2,969167	0,1	2,376819
2,970833	0,1	2,367995
2,972500	0,1	2,379111
2,974167	0,1	2,350260
2,975833	0,1	2,368416
2,977500	0,1	2,333682
2,979167	0,1	2,342069
2,980833	0,1	2,317880
2,982500	0,1	2,291248
2,984167	0,1	2,354042
2,985833	0,1	2,260391
2,987500	0,1	2,271499
2,989167	0,1	2,283408
2,990833	0,1	2,280614
2,992500	0,1	2,245594
2,994167	0,1	2,282542
2,995833	0,1	2,245878
2,997500	0,1	2,223192
2,999167	0,1	2,226415
3,000833	0,1	2,204168
3,002500	0,1	2,227702
3,004167	0,1	2,233517
3,005833	0,1	2,235599
3,007500	0,1	2,225126
3,009167	0,1	2,222034
3,010833	0,1	2,221172
3,012500	0,1	2,191247
3,014167	0,1	2,154575
3,015833	0,1	2,188005
3,017500	0,1	2,186646
3,019167	0,1	2,198559
3,020833	0,1	2,198132
3,022500	0,1	2,163190
3,024167	0,1	2,178966
3,025833	0,1	2,140797
3,027500	0,1	2,138565
3,029167	0,1	2,159730
3,030833	0,1	2,085262
3,032500	0,1	2,097943
3,034167	0,1	2,168473
3,035833	0,1	2,098967
3,037500	0,1	2,135970
3,039167	0,1	2,147674
3,040833	0,1	2,101974
3,042500	0,1	2,093212
3,044167	0,1	2,095146
3,045833	0,1	2,096295
3,047500	0,1	2,096152
3,049167	0,1	2,113299
3,050833	0,1	2,088121
3,052500	0,1	2,071829
3,054167	0,1	2,012286
3,055833	0,1	2,051007
3,057500	0,1	2,036816
3,059167	0,1	2,026052
3,060833	0,1	2,036881
3,062500	0,1	2,043697
3,064167	0,1	2,046281
3,065833	0,1	2,043485
3,067500	0,1	2,014430
3,069167	0,1	2,015215
3,070833	0,1	2,015143
3,072500	0,1	1,985516
3,074167	0,1	1,942764
3,075833	0,1	1,955952
3,077500	0,1	1,992175
3,079167	0,1	1,988813
3,080833	0,1	1,999145
3,082500	0,1	1,992257
3,084167	0,1	1,979492
3,085833	0,1	1,951580
3,087500	0,1	1,990241
3,089167	0,1	1,971384
3,090833	0,1	1,985439
3,092500	0,1	1,971240
3,094167	0,1	1,980492
3,095833	0,1	1,967439
3,097500	0,1	1,975110
3,099167	0,1	1,971666
3,100833	0,1	1,994907
3,102500	0,1	1,984367
3,104167	0,1	1,983933
3,105833	0,1	1,976329
3,107500	0,1	1,985012
3,109167	0,1	2,032998
3,110833	0,1	2,016510
3,112500	0,1	2,008831
3,114167	0,1	2,033289
3,115833	0,1	2,061344
3,117500	0,1	2,029500
3,119167	0,1	2,053739
3,120833	0,1	2,041264
3,122500	0,1	2,073612
3,124167	0,1	2,087682
3,125833	0,1	2,049805
3,127500	0,1	2,080932
3,129167	0,1	2,103321
3,130833	0,1	2,121263
3,132500	0,1	2,139780
3,134167	0,1	2,141720
3,135833	0,1	2,146600
3,137500	0,1	2,149256
3,139167	0,1	2,195249
3,140833	0,1	2,168926
3,142500	0,1	2,187215
3,144167	0,1	2,192602
3,145833	0,1	2,172013
3,147500	0,1	2,235801
3,149167	0,1	2,217805
3,150833	0,1	2,235601
3,152500	0,1	2,267969
3,154167	0,1	2,302065
3,155833	0,1	2,266983
3,157500	0,1	2,348576
3,159167	0,1	2,354050
3,160833	0,1	2,304394
3,162500	0,1	2,395749
3,164167	0,1	2,350831
3,165833	0,1	2,363529
3,167500	0,1	2,395190
3,169167	0,1	2,410119
3,170833	0,1	2,378621
3,172500	0,1	2,400721
3,174167	0,1	2,396057
3,175833	0,1	2,407478
3,177500	0,1	2,400093
3,179167	0,1	2,451267
3,180833	0,1	2,427876
3,182500	0,1	2,417832
3,184167	0,1	2,492776
3,185833	0,1	2,463353
3,187500	0,1	2,427752
3,189167	0,1	2,449840
3,190833	0,1	2,471238
3,192500	0,1	2,471895
3,194167	0,1	2,447779
3,195833	0,1	2,446109
3,197500	0,1	2,425724
3,199167	0,1	2,430242
3,200833	0,1	2,475190
3,202500	0,1	2,425024
3,204167	0,1	2,440874
3,205833	0,1	2,462629
3,207500	0,1	2,424728
3,209167	0,1	2,448189
3,210833	0,1	2,431972
3,212500	0,1	2,414668
3,214167	0,1	2,418894
3,215833	0,1	2,403461
3,217500	0,1	2,396565
3,219167	0,1	2,374818
3,220833	0,1	2,411485
3,222500	0,1	2,425143
3,224167	0,1	2,381199
3,225833	0,1	2,338923
3,227500	0,1	2,382339
3,229167	0,1	2,362821
3,230833	0,1	2,315160
3,232500	0,1	2,343569
3,234167	0,1	2,335177
3,235833	0,1	2,305819
3,237500	0,1	2,271934
3,239167	0,1	2,305936
3,240833	0,1	2,284567
3,242500	0,1	2,263743
3,244167	0,1	2,262090
3,245833	0,1	2,238191
3,247500	0,1	2,233518
3,249167	0,1	2,209766
3,250833	0,1	2,248941
3,252500	0,1	2,196279
3,254167	0,1	2,186150
3,255833	0,1	2,146179
3,257500	0,1	2,157433
3,259167	0,1	2,107359
3,260833	0,1	2,088335
3,262500	0,1	2,091056
3,264167	0,1	2,122983
3,265833	0,1	2,086257
3,267500	0,1	2,086895
3,269167	0,1	2,041698
3,270833	0,1	2,042838
3,272500	0,1	2,047862
3,274167	0,1	2,034521
3,275833	0,1	1,998079
3,277500	0,1	1,941702
3,279167	0,1	1,949645
3,280833	0,1	1,946348
3,282500	0,1	1,931141
3,284167	0,1	1,930279
3,285833	0,1	1,904384
3,287500	0,1	1,896856
3,289167	0,1	1,856764
3,290833	0,1	1,806199
3,292500	0,1	1,869728
3,294167	0,1	1,814597
3,295833	0,1	1,769352
3,297500	0,1	1,785760
3,299167	0,1	1,797953
3,300833	0,1	1,797381
3,302500	0,1	1,741606
3,304167	0,1	1,775571
3,305833	0,1	1,762821
3,307500	0,1	1,725974
3,309167	0,1	1,709762
3,310833	0,1	1,696567
3,312500	0,1	1,702518
3,314167	0,1	1,649616
3,315833	0,1	1,660935
3,317500	0,1	1,667328
3,319167	0,1	1,641163
3,320833	0,1	1,595581
3,322500	0,1	1,631252
3,324167	0,1	1,615147
3,325833	0,1	1,631971
3,327500	0,1	1,548195
3,329167	0,1	1,552767
3,330833	0,1	1,568454
3,332500	0,1	1,573776
3,334167	0,1	1,566912
3,335833	0,1	1,505837
3,337500	0,1	1,521896
3,339167	0,1	1,498250
3,340833	0,1	1,506984
3,342500	0,1	1,498305
3,344167	0,1	1,500478
3,345833	0,1	1,509357
3,347500	0,1	1,516716
3,349167	0,1	1,475406
3,350833	0,1	1,442422
3,352500	0,1	1,482480
3,354167	0,1	1,445291
3,355833	0,1	1,424733
3,357500	0,1	1,458403
3,359167	0,1	1,422363
3,360833	0,1	1,436031
3,362500	0,1	1,425608
3,364167	0,1	1,433811
3,365833	0,1	1,425581
3,367500	0,1	1,437991
3,369167	0,1	1,377878
3,370833	0,1	1,398080
3,372500	0,1	1,397440
3,374167	0,1	1,392435
3,375833	0,1	1,424720
3,377500	0,1	1,387544
3,379167	0,1	1,349725
3,380833	0,1	1,363470
3,382500	0,1	1,343957
3,384167	0,1	1,403805
3,385833	0,1	1,375375
3,387500	0,1	1,366784
3,389167	0,1	1,348415
3,390833	0,1	1,342694
3,392500	0,1	1,396549
3,394167	0,1	1,374427
3,395833	0,1	1,339559
3,397500	0,1	1,344639
3,399167	0,1	1,346014
3,400833	0,1	1,323425
3,402500	0,1	1,310203
3,404167	0,1	1,304286
3,405833	0,1	1,320207
3,407500	0,1	1,298754
3,409167	0,1	1,330449
3,410833	0,1	1,306187
3,412500	0,1	1,313271
3,414167	0,1	1,305607
3,415833	0,1	1,304572
3,417500	0,1	1,298447
3,419167	0,1	1,301463
3,420833	0,1	1,289052
3,422500	0,1	1,326156
3,424167	0,1	1,284529
3,425833	0,1	1,333480
3,427500	0,1	1,314225
3,429167	0,1	1,309883
3,430833	0,1	1,297841
3,432500	0,1	1,321016
3,434167	0,1	1,312340
3,435833	0,1	1,303588
3,437500	0,1	1,272379
3,439167	0,1	1,291129
3,440833	0,1	1,269411
3,442500	0,1	1,285754
3,444167	0,1	1,252891
3,445833	0,1	1,276455
3,447500	0,1	1,287112
3,449167	0,1	1,297205
3,450833	0,1	1,307823
3,452500	0,1	1,316084
3,454167	0,1	1,291565
3,455833	0,1	1,302447
3,457500	0,1	1,274584
3,459167	0,1	1,319708
3,460833	0,1	1,329742
3,462500	0,1	1,294759
3,464167	0,1	1,358522
3,465833	0,1	1,339474
3,467500	0,1	1,345641
3,469167	0,1	1,341252
3,470833	0,1	1,359669
3,472500	0,1	1,369290
3,474167	0,1	1,357303
3,475833	0,1	1,339708
3,477500	0,1	1,336246
3,479167	0,1	1,381874
3,480833	0,1	1,402375
3,482500	0,1	1,400527
3,484167	0,1	1,421155
3,485833	0,1	1,426099
3,487500	0,1	1,387682
3,489167	0,1	1,455320
3,490833	0,1	1,417300
3,492500	0,1	1,498514
3,494167	0,1	1,490876
3,495833	0,1	1,430465
3,497500	0,1	1,469076
3,499167	0,1	1,482256
3,500833	0,1	1,475387
3,502500	0,1	1,495084
3,504167	0,1	1,499671
3,505833	0,1	1,500537
3,507500	0,1	1,535206
3,509167	0,1	1,520591
3,510833	0,1	1,527325
3,512500	0,1	1,562942
3,514167	0,1	1,557743
3,515833	0,1	1,593479
3,517500	0,1	1,581035
3,519167	0,1	1,561309
3,520833	0,1	1,566394
3,522500	0,1	1,606836
3,524167	0,1	1,619516
3,525833	0,1	1,617079
3,527500	0,1	1,612197
3,529167	0,1	1,660430
3,530833	0,1	1,591211
3,532500	0,1	1,604957
3,534167	0,1	1,673555
3,535833	0,1	1,631915
3,537500	0,1	1,636926
3,539167	0,1	1,632056
3,540833	0,1	1,639777
3,542500	0,1	1,612828
3,544167	0,1	1,623725
3,545833	0,1	1,627886
3,547500	0,1	1,684011
3,549167	0,1	1,659147
3,550833	0,1	1,657137
3,552500	0,1	1,660152
3,554167	0,1	1,668531
3,555833	0,1	1,663223
3,557500	0,1	1,620303
3,559167	0,1	1,678197
3,560833	0,1	1,655694
3,562500	0,1	1,637429
3,564167	0,1	1,614631
3,565833	0,1	1,707806
3,567500	0,1	1,635071
3,569167	0,1	1,620655
3,570833	0,1	1,669872
3,572500	0,1	1,634843
3,574167	0,1	1,647020
3,575833	0,1	1,666164
3,577500	0,1	1,620304
3,579167	0,1	1,654993
3,580833	0,1	1,617574
3,582500	0,1	1,644237
3,584167	0,1	1,653133
3,585833	0,1	1,624973
3,587500	0,1	1,610689
3,589167	0,1	1,599583
3,590833	0,1	1,613988
3,592500	0,1	1,565889
3,594167	0,1	1,547763
3,595833	0,1	1,570052
3,597500	0,1	1,617005
3,599167	0,1	1,570783
3,600833	0,1	1,594861
3,602500	0,1	1,590194
3,604167	0,1	1,540767
3,605833	0,1	1,546260
3,607500	0,1	1,586680
3,609167	0,1	1,562908
3,610833	0,1	1,528924
3,612500	0,1	1,520256
3,614167	0,1	1,497029
3,615833	0,1	1,531428
3,617500	0,1	1,466659
3,619167	0,1	1,485699
3,620833	0,1	1,499382
3,622500	0,1	1,477243
3,624167	0,1	1,472255
3,625833	0,1	1,440106
3,627500	0,1	1,424362
3,629167	0,1	1,465978
3,630833	0,1	1,435479
3,632500	0,1	1,415418
3,634167	0,1	1,422173
3,635833	0,1	1,414550
3,637500	0,1	1,420075
3,639167	0,1	1,381371
3,640833	0,1	1,408807
3,642500	0,1	1,419292
3,644167	0,1	1,385102
3,645833	0,1	1,393626
3,647500	0,1	1,371300
3,649167	0,1	1,395061
3,650833	0,1	1,336836
3,652500	0,1	1,352646
3,654167	0,1	1,352432
3,655833	0,1	1,352432
3,657500	0,1	1,359551
3,659167	0,1	1,323852
3,660833	0,1	1,355101
3,662500	0,1	1,308399
3,664167	0,1	1,303740
3,665833	0,1	1,308622
3,667500	0,1	1,314120
3,669167	0,1	1,251523
3,670833	0,1	1,290752
3,672500	0,1	1,285759
3,674167	0,1	1,297085
3,675833	0,1	1,269581
3,677500	0,1	1,290024
3,679167	0,1	1,277889
3,680833	0,1	1,240849
3,682500	0,1	1,243113
3,684167	0,1	1,246419
3,685833	0,1	1,214456
3,687500	0,1	1,287688
3,689167	0,1	1,226318
3,690833	0,1	1,223031
3,692500	0,1	1,220691
3,694167	0,1	1,201307
3,695833	0,1	1,212716
3,697500	0,1	1,214719
3,699167	0,1	1,171599
3,700833	0,1	1,209739
3,702500	0,1	1,212225
3,704167	0,1	1,181926
3,705833	0,1	1,252119
3,707500	0,1	1,178627
3,709167	0,1	1,205503
3,710833	0,1	1,234403
3,712500	0,1	1,215742
3,714167	0,1	1,178786
3,715833	0,1	1,148328
3,717500	0,1	1,200577
3,719167	0,1	1,185483
3,720833	0,1	1,204961
3,722500	0,1	1,185433
3,724167	0,1	1,220087
3,725833	0,1	1,180130
3,727500	0,1	1,169100
3,729167	0,1	1,172876
3,730833	0,1	1,170761
3,732500	0,1	1,163924
3,734167	0,1	1,200532
3,735833	0,1	1,173699
3,737500	0,1	1,202687
3,739167	0,1	1,193454
3,740833	0,1	1,150757
3,742500	0,1	1,158973
3,744167	0,1	1,192799
3,745833	0,1	1,144381
3,747500	0,1	1,178061
3,749167	0,1	1,139241
3,750833	0,1	1,161033
3,752500	0,1	1,176962
3,754167	0,1	1,172270
3,755833	0,1	1,167539
3,757500	0,1	1,164384
3,759167	0,1	1,182405
3,760833	0,1	1,142379
3,762500	0,1	1,172158
3,764167	0,1	1,173779
3,765833	0,1	1,191666
3,767500	0,1	1,188161
3,769167	0,1	1,155620
3,770833	0,1	1,218994
3,772500	0,1	1,147983
3,774167	0,1	1,183383
3,775833	0,1	1,199757
3,777500	0,1	1,194384
3,779167	0,1	1,220157
3,780833	0,1	1,198052
3,782500	0,1	1,221379
3,784167	0,1	1,186880
3,785833	0,1	1,158332
3,787500	0,1	1,201040
3,789167	0,1	1,196827
3,790833	0,1	1,216784
3,792500	0,1	1,155934
3,794167	0,1	1,203768
3,795833	0,1	1,175071
3,797500	0,1	1,172607
3,799167	0,1	1,167877
3,800833	0,1	1,199312
3,802500	0,1	1,217513
3,804167	0,1	1,207836
3,805833	0,1	1,152086
3,807500	0,1	1,156582
3,809167	0,1	1,134776
3,810833	0,1	1,172598
3,812500	0,1	1,160433
3,814167	0,1	1,195547
3,815833	0,1	1,203049
3,817500	0,1	1,171106
3,819167	0,1	1,171962
3,820833	0,1	1,140916
3,822500	0,1	1,170041
3,824167	0,1	1,153500
3,825833	0,1	1,127861
3,827500	0,1	1,119038
3,829167	0,1	1,152334
3,830833	0,1	1,164854
3,832500	0,1	1,150939
3,834167	0,1	1,167619
3,835833	0,1	1,153277
3,837500	0,1	1,162853
3,839167	0,1	1,161891
3,840833	0,1	1,131506
3,842500	0,1	1,096404
3,844167	0,1	1,133933
3,845833	0,1	1,108530
3,847500	0,1	1,129089
3,849167	0,1	1,141654
3,850833	0,1	1,144049
3,852500	0,1	1,086053
3,854167	0,1	1,128507
3,855833	0,1	1,101355
3,857500	0,1	1,122964
3,859167	0,1	1,124161
3,860833	0,1	1,079653
3,862500	0,1	1,081394
3,864167	0,1	1,106518
3,865833	0,1	1,086197
3,867500	0,1	1,072848
3,869167	0,1	1,107581
3,870833	0,1	1,046328
3,872500	0,1	1,091626
3,874167	0,1	1,087435
3,875833	0,1	1,077241
3,877500	0,1	1,035263
3,879167	0,1	0,996363
3,880833	0,1	1,071932
3,882500	0,1	1,036148
3,884167	0,1	1,029746
3,885833	0,1	0,964228
3,887500	0,1	1,047295
3,889167	0,1	1,020684
3,890833	0,1	1,028763
3,892500	0,1	1,043800
3,894167	0,1	1,032988
3,895833	0,1	1,025323
3,897500	0,1	1,020570
3,899167	0,1	1,016526
3,900833	0,1	1,022899
3,902500	0,1	0,988166
3,904167	0,1	0,977876
3,905833	0,1	0,979759
3,907500	0,1	1,020534
3,909167	0,1	1,004643
3,910833	0,1	0,963912
3,912500	0,1	0,946448
3,914167	0,1	0,949551
3,915833	0,1	0,981974
3,917500	0,1	0,970677
3,919167	0,1	0,969299
3,920833	0,1	0,942231
3,922500	0,1	0,956967
3,924167	0,1	0,964298
3,925833	0,1	0,984020
3,927500	0,1	0,933283
3,929167	0,1	0,924791
3,930833	0,1	0,955632
3,932500	0,1	0,968739
3,934167	0,1	0,955352
3,935833	0,1	0,910119
3,937500	0,1	0,954894
3,939167	0,1	0,919267
3,940833	0,1	0,942352
3,942500	0,1	0,940314
3,944167	0,1	0,894927
3,945833	0,1	0,950473
3,947500	0,1	0,911784
3,949167	0,1	0,899715
3,950833	0,1	0,917521
3,952500	0,1	0,919968
3,954167	0,1	0,866037
3,955833	0,1	0,903614
3,957500	0,1	0,900225
3,959167	0,1	0,901200
3,960833	0,1	0,911394
3,962500	0,1	0,886730
3,964167	0,1	0,891897
3,965833	0,1	0,871339
3,967500	0,1	0,888030
3,969167	0,1	0,842521
3,970833	0,1	0,856272
3,972500	0,1	0,892732
3,974167	0,1	0,890564
3,975833	0,1	0,918541
3,977500	0,1	0,893391
3,979167	0,1	0,883572
3,980833	0,1	0,842431
3,982500	0,1	0,924703
3,984167	0,1	0,881046
3,985833	0,1	0,877462
3,987500	0,1	0,859191
3,989167	0,1	0,848219
3,990833	0,1	0,894507
3,992500	0,1	0,898116
3,994167	0,1	0,860906
3,995833	0,1	0,902836
3,997500	0,1	0,901205
3,999167	0,1	0,877136
4,000833	0,1	0,883568
4,002500	0,1	0,862364
4,004167	0,1	0,892933
4,005833	0,1	0,876446
4,007500	0,1	0,868958
4,009167	0,1	0,863269
4,010833	0,1	0,898507
4,012500	0,1	0,863390
4,014167	0,1	0,898662
4,015833	0,1	0,904377
4,017500	0,1	0,882262
4,019167	0,1	0,888010
4,020833	0,1	0,899889
4,022500	0,1	0,925826
4,024167	0,1	0,864173
4,025833	0,1	0,922685
4,027500	0,1	0,899211
4,029167	0,1	0,896095
4,030833	0,1	0,938970
4,032500	0,1	0,908006
4,034167	0,1	0,924984
4,035833	0,1	0,899677
4,037500	0,1	0,903330
4,039167	0,1	0,963354
4,040833	0,1	0,903903
4,042500	0,1	0,952140
4,044167	0,1	0,925950
4,045833	0,1	0,925433
4,047500	0,1	0,913797
4,049167	0,1	0,934687
4,050833	0,1	0,932718
4,052500	0,1	0,992274
4,054167	0,1	0,996997
4,055833	0,1	0,981696
4,057500	0,1	1,012538
4,059167	0,1	0,959139
4,060833	0,1	0,988837
4,062500	0,1	1,016161
4,064167	0,1	0,995735
4,065833	0,1	1,001263
4,067500	0,1	1,025781
4,069167	0,1	1,027476
4,070833	0,1	1,061279
4,072500	0,1	1,066285
4,074167	0,1	1,058779
4,075833	0,1	1,079246
4,077500	0,1	1,062405
4,079167	0,1	1,081033
4,080833	0,1	1,081770
4,082500	0,1	1,072645
4,084167	0,1	1,154428
4,085833	0,1	1,103651
4,087500	0,1	1,186224
4,089167	0,1	1,160591
4,090833	0,1	1,190052
4,092500	0,1	1,193857
4,094167	0,1	1,194876
4,095833	0,1	1,187212
4,097500	0,1	1,174729
4,099167	0,1	1,202671
4,100833	0,1	1,201811
4,102500	0,1	1,219582
4,104167	0,1	1,272867
4,105833	0,1	1,282819
4,107500	0,1	1,291321
4,109167	0,1	1,297646
4,110833	0,1	1,293645
4,112500	0,1	1,333974
4,114167	0,1	1,351812
4,115833	0,1	1,351982
4,117500	0,1	1,334124
4,119167	0,1	1,337231
4,120833	0,1	1,423802
4,122500	0,1	1,379672
4,124167	0,1	1,394350
4,125833	0,1	1,420372
4,127500	0,1	1,451035
4,129167	0,1	1,449464
4,130833	0,1	1,457776
4,132500	0,1	1,477740
4,134167	0,1	1,506427
4,135833	0,1	1,501631
4,137500	0,1	1,503127
4,139167	0,1	1,510796
4,140833	0,1	1,532145
4,142500	0,1	1,563449
4,144167	0,1	1,545699
4,145833	0,1	1,562660
4,147500	0,1	1,600069
4,149167	0,1	1,592278
4,150833	0,1	1,643157
4,152500	0,1	1,651694
4,154167	0,1	1,678368
4,155833	0,1	1,687824
4,157500	0,1	1,665755
4,159167	0,1	1,673926
4,160833	0,1	1,685827
4,162500	0,1	1,687330
4,164167	0,1	1,684165
4,165833	0,1	1,734202
4,167500	0,1	1,692276
4,169167	0,1	1,745390
4,170833	0,1	1,762527
4,172500	0,1	1,796873
4,174167	0,1	1,745112
4,175833	0,1	1,763108
4,177500	0,1	1,809209
4,179167	0,1	1,798322
4,180833	0,1	1,775238
4,182500	0,1	1,830217
4,184167	0,1	1,766068
4,185833	0,1	1,821470
4,187500	0,1	1,833683
4,189167	0,1	1,845078
4,190833	0,1	1,849027
4,192500	0,1	1,803271
4,194167	0,1	1,795095
4,195833	0,1	1,816590
4,197500	0,1	1,869525
4,199167	0,1	1,858416
4,200833	0,1	1,864800
4,202500	0,1	1,856483
4,204167	0,1	1,813096
4,205833	0,1	1,868811
4,207500	0,1	1,837337
4,209167	0,1	1,870744
4,210833	0,1	1,856272
4,212500	0,1	1,829439
4,214167	0,1	1,853748
4,215833	0,1	1,829879
4,217500	0,1	1,854464
4,219167	0,1	1,809161
4,220833	0,1	1,836321
4,222500	0,1	1,862646
4,224167	0,1	1,817692
4,225833	0,1	1,855322
4,227500	0,1	1,852317
4,229167	0,1	1,832389
4,230833	0,1	1,852099
4,232500	0,1	1,845218
4,234167	0,1	1,844440
4,235833	0,1	1,800982
4,237500	0,1	1,803545
4,239167	0,1	1,809371
4,240833	0,1	1,806644
4,242500	0,1	1,823267
4,244167	0,1	1,798326
4,245833	0,1	1,781045
4,247500	0,1	1,776160
4,249167	0,1	1,799687
4,250833	0,1	1,787063
4,252500	0,1	1,736311
4,254167	0,1	1,752651
4,255833	0,1	1,755867
4,257500	0,1	1,732269
4,259167	0,1	1,699953
4,260833	0,1	1,712421
4,262500	0,1	1,741369
4,264167	0,1	1,693365
4,265833	0,1	1,705750
4,267500	0,1	1,728409
4,269167	0,1	1,700746
4,270833	0,1	1,667780
4,272500	0,1	1,661741
4,274167	0,1	1,672705
4,275833	0,1	1,659590
4,277500	0,1	1,642686
4,279167	0,1	1,657272
4,280833	0,1	1,647192
4,282500	0,1	1,625836
4,284167	0,1	1,650992
4,285833	0,1	1,616808
4,287500	0,1	1,582171
4,289167	0,1	1,533373
4,290833	0,1	1,555355
4,292500	0,1	1,585540
4,294167	0,1	1,570278
4,295833	0,1	1,541762
4,297500	0,1	1,544048
4,299167	0,1	1,551636
4,300833	0,1	1,530013
4,302500	0,1	1,523826
4,304167	0,1	1,463447
4,305833	0,1	1,445780
4,307500	0,1	1,537149
4,309167	0,1	1,474111
4,310833	0,1	1,437140
4,312500	0,1	1,457610
4,314167	0,1	1,413269
4,315833	0,1	1,433352
4,317500	0,1	1,447953
4,319167	0,1	1,366128
4,320833	0,1	1,403592
4,322500	0,1	1,365349
4,324167	0,1	1,386187
4,325833	0,1	1,383408
4,327500	0,1	1,379375
4,329167	0,1	1,382790
4,330833	0,1	1,325313
4,332500	0,1	1,293992
4,334167	0,1	1,334892
4,335833	0,1	1,358971
4,337500	0,1	1,341929
4,339167	0,1	1,283176
4,340833	0,1	1,281160
4,342500	0,1	1,269288
4,344167	0,1	1,276306
4,345833	0,1	1,269795
4,347500	0,1	1,250189
4,349167	0,1	1,227378
4,350833	0,1	1,259812
4,352500	0,1	1,245032
4,354167	0,1	1,207028
4,355833	0,1	1,200795
4,357500	0,1	1,202271
4,359167	0,1	1,199981
4,360833	0,1	1,229062
4,362500	0,1	1,167044
4,364167	0,1	1,179644
4,365833	0,1	1,198229
4,367500	0,1	1,138737
4,369167	0,1	1,157395
4,370833	0,1	1,161161
4,372500	0,1	1,105719
4,374167	0,1	1,175677
4,375833	0,1	1,131442
4,377500	0,1	1,126567
4,379167	0,1	1,083848
4,380833	0,1	1,092990
4,382500	0,1	1,078485
4,384167	0,1	1,104142
4,385833	0,1	1,102696
4,387500	0,1	1,085860
4,389167	0,1	1,089703
4,390833	0,1	1,103788
4,392500	0,1	1,055747
4,394167	0,1	1,069968
4,395833	0,1	1,051070
4,397500	0,1	1,026462
4,399167	0,1	1,049972
4,400833	0,1	1,027457
4,402500	0,1	1,059433
4,404167	0,1	1,075699
4,405833	0,1	1,014183
4,407500	0,1	1,022341
4,409167	0,1	1,018922
4,410833	0,1	0,997758
4,412500	0,1	1,002237
4,414167	0,1	0,981209
4,415833	0,1	0,952181
4,417500	0,1	0,992433
4,419167	0,1	0,983583
4,420833	0,1	0,954578
4,422500	0,1	0,991325
4,424167	0,1	0,952915
4,425833	0,1	0,956082
4,427500	0,1	0,945980
4,429167	0,1	0,934964
4,430833	0,1	0,976972
4,432500	0,1	0,931328
4,434167	0,1	0,938047
4,435833	0,1	0,902567
4,437500	0,1	0,918898
4,439167	0,1	0,924364
4,440833	0,1	0,922679
4,442500	0,1	0,877674
4,444167	0,1	0,899221
4,445833	0,1	0,869541
4,447500	0,1	0,877592
4,449167	0,1	0,878238
4,450833	0,1	0,863278
4,452500	0,1	0,865199
4,454167	0,1	0,887874
4,455833	0,1	0,839857
4,457500	0,1	0,871194
4,459167	0,1	0,858281
4,460833	0,1	0,862563
4,462500	0,1	0,856414
4,464167	0,1	0,839987
4,465833	0,1	0,833522
4,467500	0,1	0,819398
4,469167	0,1	0,839484
4,470833	0,1	0,812922
4,472500	0,1	0,813642
4,474167	0,1	0,839928
4,475833	0,1	0,793204
4,477500	0,1	0,809065
4,479167	0,1	0,826077
4,480833	0,1	0,781823
4,482500	0,1	0,792399
4,484167	0,1	0,813109
4,485833	0,1	0,778326
4,487500	0,1	0,768046
4,489167	0,1	0,768279
4,490833	0,1	0,741744
4,492500	0,1	0,743906
4,494167	0,1	0,736117
4,495833	0,1	0,703160
4,497500	0,1	0,772599
4,499167	0,1	0,780391
4,500833	0,1	0,744072
4,502500	0,1	0,716046
4,504167	0,1	0,705320
4,505833	0,1	0,727635
4,507500	0,1	0,724816
4,509167	0,1	0,691992
4,510833	0,1	0,665281
4,512500	0,1	0,718196
4,514167	0,1	0,749877
4,515833	0,1	0,699171
4,517500	0,1	0,695690
4,519167	0,1	0,680335
4,520833	0,1	0,699351
4,522500	0,1	0,695138
4,524167	0,1	0,654659
4,525833	0,1	0,695352
4,527500	0,1	0,641593
4,529167	0,1	0,688688
4,530833	0,1	0,658743
4,532500	0,1	0,675076
4,534167	0,1	0,696604
4,535833	0,1	0,648384
4,537500	0,1	0,639399
4,539167	0,1	0,641123
4,540833	0,1	0,676816
4,542500	0,1	0,684377
4,544167	0,1	0,623676
4,545833	0,1	0,658820
4,547500	0,1	0,625796
4,549167	0,1	0,644114
4,550833	0,1	0,611888
4,552500	0,1	0,622464
4,554167	0,1	0,628771
4,555833	0,1	0,623559
4,557500	0,1	0,625266
4,559167	0,1	0,599658
4,560833	0,1	0,580863
4,562500	0,1	0,622486
4,564167	0,1	0,616806
4,565833	0,1	0,575624
4,567500	0,1	0,594715
4,569167	0,1	0,601769
4,570833	0,1	0,590580
4,572500	0,1	0,596200
4,574167	0,1	0,565006
4,575833	0,1	0,601892
4,577500	0,1	0,570084
4,579167	0,1	0,573454
4,580833	0,1	0,570272
4,582500	0,1	0,587030
4,584167	0,1	0,545443
4,585833	0,1	0,584225
4,587500	0,1	0,562331
4,589167	0,1	0,577058
4,590833	0,1	0,554318
4,592500	0,1	0,580945
4,594167	0,1	0,573976
4,595833	0,1	0,549360
4,597500	0,1	0,530827
4,599167	0,1	0,539958
4,600833	0,1	0,548005
4,602500	0,1	0,574698
4,604167	0,1	0,549780
4,605833	0,1	0,575024
4,607500	0,1	0,554997
4,609167	0,1	0,485541
4,610833	0,1	0,498743
4,612500	0,1	0,551401
4,614167	0,1	0,523945
4,615833	0,1	0,563696
4,617500	0,1	0,548913
4,619167	0,1	0,501913
4,620833	0,1	0,547736
4,622500	0,1	0,519311
4,624167	0,1	0,481641
4,625833	0,1	0,514375
4,627500	0,1	0,511519
4,629167	0,1	0,518400
4,630833	0,1	0,513294
4,632500	0,1	0,472408
4,634167	0,1	0,501510
4,635833	0,1	0,478453
4,637500	0,1	0,493983
4,639167	0,1	0,474398
4,640833	0,1	0,497712
4,642500	0,1	0,496332
4,644167	0,1	0,513156
4,645833	0,1	0,500036
4,647500	0,1	0,453881
4,649167	0,1	0,486516
4,650833	0,1	0,455325
4,652500	0,1	0,483941
4,654167	0,1	0,460728
4,655833	0,1	0,470885
4,657500	0,1	0,492662
4,659167	0,1	0,461210
4,660833	0,1	0,463488
4,662500	0,1	0,510187
4,664167	0,1	0,464817
4,665833	0,1	0,494173
4,667500	0,1	0,442141
4,669167	0,1	0,478471
4,670833	0,1	0,420205
4,672500	0,1	0,453316
4,674167	0,1	0,416983
4,675833	0,1	0,450613
4,677500	0,1	0,422159
4,679167	0,1	0,436109
4,680833	0,1	0,456180
4,682500	0,1	0,464290
4,684167	0,1	0,435766
4,685833	0,1	0,433025
4,687500	0,1	0,441355
4,689167	0,1	0,454286
4,690833	0,1	0,471365
4,692500	0,1	0,449564
4,694167	0,1	0,424602
4,695833	0,1	0,430964
4,697500	0,1	0,412090
4,699167	0,1	0,426394
4,700833	0,1	0,384594
4,702500	0,1	0,427322
4,704167	0,1	0,420385
4,705833	0,1	0,415946
4,707500	0,1	0,445048
4,709167	0,1	0,459784
4,710833	0,1	0,433450
4,712500	0,1	0,425370
4,714167	0,1	0,427169
4,715833	0,1	0,429099
4,717500	0,1	0,420836
4,719167	0,1	0,376938
4,720833	0,1	0,411177
4,722500	0,1	0,423371
4,724167	0,1	0,430611
4,725833	0,1	0,414436
4,727500	0,1	0,404721
4,729167	0,1	0,393785
4,730833	0,1	0,377897
4,732500	0,1	0,421691
4,734167	0,1	0,427910
4,735833	0,1	0,405173
4,737500	0,1	0,397772
4,739167	0,1	0,423175
4,740833	0,1	0,399770
4,742500	0,1	0,365839
4,744167	0,1	0,381493
4,745833	0,1	0,404970
4,747500	0,1	0,415814
4,749167	0,1	0,369993
4,750833	0,1	0,392974
4,752500	0,1	0,385841
4,754167	0,1	0,451215
4,755833	0,1	0,376368
4,757500	0,1	0,417865
4,759167	0,1	0,380347
4,760833	0,1	0,416932
4,762500	0,1	0,337900
4,764167	0,1	0,372515
4,765833	0,1	0,373617
4,767500	0,1	0,391013
4,769167	0,1	0,367834
4,770833	0,1	0,397219
4,772500	0,1	0,353333
4,774167	0,1	0,391587
4,775833	0,1	0,365389
4,777500	0,1	0,357986
4,779167	0,1	0,371327
4,780833	0,1	0,381043
4,782500	0,1	0,391980
4,784167	0,1	0,365200
4,785833	0,1	0,391879
4,787500	0,1	0,373816
4,789167	0,1	0,385193
4,790833	0,1	0,402398
4,792500	0,1	0,378769
4,794167	0,1	0,357250
4,795833	0,1	0,353131
4,797500	0,1	0,376601
4,799167	0,1	0,353843
4,800833	0,1	0,358335
4,802500	0,1	0,375511
4,804167	0,1	0,358280
4,805833	0,1	0,342810
4,807500	0,1	0,363865
4,809167	0,1	0,374194
4,810833	0,1	0,381431
4,812500	0,1	0,399858
4,814167	0,1	0,331309
4,815833	0,1	0,375825
4,817500	0,1	0,342587
4,819167	0,1	0,362034
4,820833	0,1	0,360203
4,822500	0,1	0,374321
4,824167	0,1	0,392398
4,825833	0,1	0,360469
4,827500	0,1	0,357246
4,829167	0,1	0,372650
4,830833	0,1	0,392427
4,832500	0,1	0,329246
4,834167	0,1	0,343730
4,835833	0,1	0,365989
4,837500	0,1	0,383230
4,839167	0,1	0,355066
4,840833	0,1	0,356249
4,842500	0,1	0,331426
4,844167	0,1	0,362611
4,845833	0,1	0,360846
4,847500	0,1	0,383164
4,849167	0,1	0,334553
4,850833	0,1	0,345082
4,852500	0,1	0,358401
4,854167	0,1	0,328280
4,855833	0,1	0,360585
4,857500	0,1	0,346186
4,859167	0,1	0,379529
4,860833	0,1	0,383553
4,862500	0,1	0,390406
4,864167	0,1	0,353846
4,865833	0,1	0,342007
4,867500	0,1	0,363608
4,869167	0,1	0,347924
4,870833	0,1	0,368754
4,872500	0,1	0,372266
4,874167	0,1	0,347442
4,875833	0,1	0,353385
4,877500	0,1	0,382261
4,879167	0,1	0,408830
4,880833	0,1	0,385684
4,882500	0,1	0,368892
4,884167	0,1	0,345162
4,885833	0,1	0,351039
4,887500	0,1	0,383002
4,889167	0,1	0,357542
4,890833	0,1	0,393002
4,892500	0,1	0,342111
4,894167	0,1	0,363480
4,895833	0,1	0,344485
4,897500	0,1	0,346345
4,899167	0,1	0,369368
4,900833	0,1	0,363036
4,902500	0,1	0,364385
4,904167	0,1	0,362005
4,905833	0,1	0,398599
4,907500	0,1	0,380054
4,909167	0,1	0,367511
4,910833	0,1	0,368887
4,912500	0,1	0,357120
4,914167	0,1	0,377568
4,915833	0,1	0,367024
4,917500	0,1	0,378792
4,919167	0,1	0,347796
4,920833	0,1	0,351974
4,922500	0,1	0,371557
4,924167	0,1	0,396384
4,925833	0,1	0,334715
4,927500	0,1	0,354187
4,929167	0,1	0,416091
4,930833	0,1	0,377710
4,932500	0,1	0,389407
4,934167	0,1	0,367606
4,935833	0,1	0,327088
4,937500	0,1	0,387980
4,939167	0,1	0,357096
4,940833	0,1	0,380783
4,942500	0,1	0,380725
4,944167	0,1	0,398702
4,945833	0,1	0,378864
4,947500	0,1	0,388183
4,949167	0,1	0,403783
4,950833	0,1	0,390089
4,952500	0,1	0,406807
4,954167	0,1	0,336232
4,955833	0,1	0,363543
4,957500	0,1	0,380497
4,959167	0,1	0,391434
4,960833	0,1	0,364778
4,962500	0,1	0,408762
4,964167	0,1	0,365073
4,965833	0,1	0,373682
4,967500	0,1	0,378506
4,969167	0,1	0,381722
4,970833	0,1	0,416740
4,972500	0,1	0,375010
4,974167	0,1	0,349789
4,975833	0,1	0,386025
4,977500	0,1	0,394907
4,979167	0,1	0,415876
4,980833	0,1	0,376587
4,982500	0,1	0,384422
4,984167	0,1	0,401724
4,985833	0,1	0,381373
4,987500	0,1	0,354391
4,989167	0,1	0,411652
4,990833	0,1	0,388418
4,992500	0,1	0,393974
4,994167	0,1	0,419315
4,995833	0,1	0,437459
4,997500	0,1	0,414536
4,999167	0,1	0,376263
5,000833	0,1	0,391270
5,002500	0,1	0,394844
5,004167	0,1	0,413111
5,005833	0,1	0,404270
5,007500	0,1	0,426941
5,009167	0,1	0,399677
5,010833	0,1	0,416165
5,012500	0,1	0,431991
5,014167	0,1	0,407040
5,015833	0,1	0,423499
5,017500	0,1	0,391153
5,019167	0,1	0,451314
5,020833	0,1	0,452903
5,022500	0,1	0,429268
5,024167	0,1	0,444248
5,025833	0,1	0,440200
5,027500	0,1	0,424762
5,029167	0,1	0,424952
5,030833	0,1	0,431157
5,032500	0,1	0,464412
5,034167	0,1	0,451620
5,035833	0,1	0,436245
5,037500	0,1	0,437368
5,039167	0,1	0,444731
5,040833	0,1	0,492298
5,042500	0,1	0,426383
5,044167	0,1	0,475957
5,045833	0,1	0,476741
5,047500	0,1	0,461722
5,049167	0,1	0,422869
5,050833	0,1	0,477274
5,052500	0,1	0,468059
5,054167	0,1	0,458438
5,055833	0,1	0,476610
5,057500	0,1	0,479572
5,059167	0,1	0,469989
5,060833	0,1	0,453230
5,062500	0,1	0,496386
5,064167	0,1	0,466520
5,065833	0,1	0,441942
5,067500	0,1	0,470332
5,069167	0,1	0,506168
5,070833	0,1	0,508233
5,072500	0,1	0,472663
5,074167	0,1	0,501956
5,075833	0,1	0,489453
5,077500	0,1	0,470377
5,079167	0,1	0,499318
5,080833	0,1	0,516593
5,082500	0,1	0,525190
5,084167	0,1	0,508370
5,085833	0,1	0,487137
5,087500	0,1	0,482470
5,089167	0,1	0,531485
5,090833	0,1	0,484540
5,092500	0,1	0,546311
5,094167	0,1	0,496249
5,095833	0,1	0,526472
5,097500	0,1	0,491550
5,099167	0,1	0,515050
5,100833	0,1	0,499490
5,102500	0,1	0,499936
5,104167	0,1	0,530879
5,105833	0,1	0,548608
5,107500	0,1	0,510017
5,109167	0,1	0,548442
5,110833	0,1	0,535969
5,112500	0,1	0,516221
5,114167	0,1	0,537478
5,115833	0,1	0,514837
5,117500	0,1	0,548284
5,119167	0,1	0,533496
5,120833	0,1	0,535807
5,122500	0,1	0,560129
5,124167	0,1	0,521535
5,125833	0,1	0,500905
5,127500	0,1	0,506466
5,129167	0,1	0,534357
5,130833	0,1	0,517794
5,132500	0,1	0,524964
5,134167	0,1	0,536995
5,135833	0,1	0,488721
5,137500	0,1	0,508137
5,139167	0,1	0,543619
5,140833	0,1	0,544047
5,142500	0,1	0,548421
5,144167	0,1	0,539958
5,145833	0,1	0,483961
5,147500	0,1	0,545478
5,149167	0,1	0,525485
5,150833	0,1	0,532912
5,152500	0,1	0,510847
5,154167	0,1	0,536190
5,155833	0,1	0,531402
5,157500	0,1	0,524999
5,159167	0,1	0,508948
5,160833	0,1	0,547316
5,162500	0,1	0,543947
5,164167	0,1	0,483706
5,165833	0,1	0,508906
5,167500	0,1	0,487267
5,169167	0,1	0,516785
5,170833	0,1	0,504992
5,172500	0,1	0,494856
5,174167	0,1	0,494307
5,175833	0,1	0,488999
5,177500	0,1	0,487615
5,179167	0,1	0,501091
5,180833	0,1	0,503861
5,182500	0,1	0,508461
5,184167	0,1	0,465300
5,185833	0,1	0,490535
5,187500	0,1	0,500897
5,189167	0,1	0,533614
5,190833	0,1	0,487143
5,192500	0,1	0,476840
5,194167	0,1	0,480568
5,195833	0,1	0,462044
5,197500	0,1	0,450333
5,199167	0,1	0,471555
5,200833	0,1	0,478222
5,202500	0,1	0,445804
5,204167	0,1	0,472810
5,205833	0,1	0,443453
5,207500	0,1	0,433670
5,209167	0,1	0,481651
5,210833	0,1	0,473012
5,212500	0,1	0,447989
5,214167	0,1	0,479918
5,215833	0,1	0,466224
5,217500	0,1	0,438726
5,219167	0,1	0,483358
5,220833	0,1	0,414610
5,222500	0,1	0,468945
5,224167	0,1	0,407469
5,225833	0,1	0,450963
5,227500	0,1	0,396594
5,229167	0,1	0,394362
5,230833	0,1	0,444850
5,232500	0,1	0,379486
5,234167	0,1	0,421018
5,235833	0,1	0,478817
5,237500	0,1	0,416634
5,239167	0,1	0,415204
5,240833	0,1	0,437587
5,242500	0,1	0,383792
5,244167	0,1	0,465207
5,245833	0,1	0,398078
5,247500	0,1	0,421696
5,249167	0,1	0,425046
5,250833	0,1	0,422315
5,252500	0,1	0,415689
5,254167	0,1	0,399288
5,255833	0,1	0,395457
5,257500	0,1	0,393332
5,259167	0,1	0,379858
5,260833	0,1	0,374035
5,262500	0,1	0,450376
5,264167	0,1	0,383378
5,265833	0,1	0,359242
5,267500	0,1	0,409274
5,269167	0,1	0,349154
5,270833	0,1	0,379687
5,272500	0,1	0,349274
5,274167	0,1	0,380942
5,275833	0,1	0,378828
5,277500	0,1	0,405389
5,279167	0,1	0,368317
5,280833	0,1	0,383841
5,282500	0,1	0,351915
5,284167	0,1	0,403967
5,285833	0,1	0,352787
5,287500	0,1	0,370234
5,289167	0,1	0,378793
5,290833	0,1	0,339280
5,292500	0,1	0,355667
5,294167	0,1	0,327764
5,295833	0,1	0,327821
5,297500	0,1	0,318464
5,299167	0,1	0,333507
5,300833	0,1	0,308017
5,302500	0,1	0,336592
5,304167	0,1	0,339653
5,305833	0,1	0,335377
5,307500	0,1	0,319943
5,309167	0,1	0,295860
5,310833	0,1	0,312090
5,312500	0,1	0,340583
5,314167	0,1	0,324642
5,315833	0,1	0,336728
5,317500	0,1	0,314863
5,319167	0,1	0,346111
5,320833	0,1	0,354091
5,322500	0,1	0,330492
5,324167	0,1	0,313931
5,325833	0,1	0,307530
5,327500	0,1	0,294089
5,329167	0,1	0,333536
5,330833	0,1	0,305797
5,332500	0,1	0,301805
5,334167	0,1	0,296499
5,335833	0,1	0,332603
5,337500	0,1	0,282234
5,339167	0,1	0,304690
5,340833	0,1	0,271783
5,342500	0,1	0,272766
5,344167	0,1	0,293177
5,345833	0,1	0,276572
5,347500	0,1	0,270483
5,349167	0,1	0,282862
5,350833	0,1	0,287620
5,352500	0,1	0,332636
5,354167	0,1	0,252558
5,355833	0,1	0,281732
5,357500	0,1	0,284375
5,359167	0,1	0,287208
5,360833	0,1	0,283281
5,362500	0,1	0,263442
5,364167	0,1	0,267041
5,365833	0,1	0,273957
5,367500	0,1	0,262098
5,369167	0,1	0,285211
5,370833	0,1	0,259076
5,372500	0,1	0,247434
5,374167	0,1	0,250672
5,375833	0,1	0,289123
5,377500	0,1	0,240912
5,379167	0,1	0,246170
5,380833	0,1	0,246018
5,382500	0,1	0,257972
5,384167	0,1	0,238488
5,385833	0,1	0,228875
5,387500	0,1	0,253692
5,389167	0,1	0,255174
5,390833	0,1	0,262699
5,392500	0,1	0,242318
5,394167	0,1	0,282564
5,395833	0,1	0,225256
5,397500	0,1	0,246720
5,399167	0,1	0,219198
5,400833	0,1	0,206271
5,402500	0,1	0,254845
5,404167	0,1	0,233543
5,405833	0,1	0,264821
5,407500	0,1	0,262384
5,409167	0,1	0,275406
5,410833	0,1	0,221232
5,412500	0,1	0,218132
5,414167	0,1	0,278121
5,415833	0,1	0,207932
5,417500	0,1	0,197341
5,419167	0,1	0,197754
5,420833	0,1	0,214858
5,422500	0,1	0,208461
5,424167	0,1	0,207336
5,425833	0,1	0,269831
5,427500	0,1	0,258946
5,429167	0,1	0,222678
5,430833	0,1	0,222480
5,432500	0,1	0,189694
5,434167	0,1	0,243332
5,435833	0,1	0,234408
5,437500	0,1	0,189824
5,439167	0,1	0,226646
5,440833	0,1	0,227586
5,442500	0,1	0,168961
5,444167	0,1	0,204077
5,445833	0,1	0,212832
5,447500	0,1	0,175649
5,449167	0,1	0,221534
5,450833	0,1	0,219427
5,452500	0,1	0,199916
5,454167	0,1	0,177626
5,455833	0,1	0,169240
5,457500	0,1	0,180102
5,459167	0,1	0,210717
5,460833	0,1	0,180176
5,462500	0,1	0,203890
5,464167	0,1	0,196533
5,465833	0,1	0,147642
5,467500	0,1	0,223393
5,469167	0,1	0,169792
5,470833	0,1	0,185825
5,472500	0,1	0,208011
5,474167	0,1	0,167003
5,475833	0,1	0,189365
5,477500	0,1	0,199139
5,479167	0,1	0,194097
5,480833	0,1	0,161530
5,482500	0,1	0,226069
5,484167	0,1	0,178578
5,485833	0,1	0,208716
5,487500	0,1	0,182430
5,489167	0,1	0,182007
5,490833	0,1	0,184869
5,492500	0,1	0,188537
5,494167	0,1	0,211252
5,495833	0,1	0,208923
5,497500	0,1	0,150391
5,499167	0,1	0,161646
5,500833	0,1	0,187460
5,502500	0,1	0,156095
5,504167	0,1	0,173671
5,505833	0,1	0,168443
5,507500	0,1	0,163326
5,509167	0,1	0,174769
5,510833	0,1	0,173901
5,512500	0,1	0,207619
5,514167	0,1	0,200591
5,515833	0,1	0,165878
5,517500	0,1	0,200065
5,519167	0,1	0,206919
5,520833	0,1	0,186322
5,522500	0,1	0,143555
5,524167	0,1	0,152039
5,525833	0,1	0,139288
5,527500	0,1	0,176112
5,529167	0,1	0,154227
5,530833	0,1	0,184851
5,532500	0,1	0,171585
5,534167	0,1	0,151568
5,535833	0,1	0,134875
5,537500	0,1	0,197486
5,539167	0,1	0,136791
5,540833	0,1	0,176073
5,542500	0,1	0,195820
5,544167	0,1	0,158227
5,545833	0,1	0,131222
5,547500	0,1	0,151973
5,549167	0,1	0,118227
5,550833	0,1	0,153129
5,552500	0,1	0,162389
5,554167	0,1	0,155395
5,555833	0,1	0,141923
5,557500	0,1	0,134823
5,559167	0,1	0,153034
5,560833	0,1	0,152534
5,562500	0,1	0,130830
5,564167	0,1	0,146479
5,565833	0,1	0,144591
5,567500	0,1	0,140950
5,569167	0,1	0,168852
5,570833	0,1	0,164900
5,572500	0,1	0,131350
5,574167	0,1	0,104474
5,575833	0,1	0,153504
5,577500	0,1	0,144493
5,579167	0,1	0,110778
5,580833	0,1	0,145414
5,582500	0,1	0,155670
5,584167	0,1	0,152685
5,585833	0,1	0,151173
5,587500	0,1	0,142426
5,589167	0,1	0,157018
5,590833	0,1	0,104066
5,592500	0,1	0,130921
5,594167	0,1	0,132111
5,595833	0,1	0,126641
5,597500	0,1	0,167173
5,599167	0,1	0,167384
5,600833	0,1	0,119430
5,602500	0,1	0,169072
5,604167	0,1	0,124572
5,605833	0,1	0,126162
5,607500	0,1	0,145709
5,609167	0,1	0,116602
5,610833	0,1	0,153231
5,612500	0,1	0,147554
5,614167	0,1	0,144906
5,615833	0,1	0,161365
5,617500	0,1	0,141798
5,619167	0,1	0,137911
5,620833	0,1	0,118930
5,622500	0,1	0,150042
5,624167	0,1	0,163106
5,625833	0,1	0,157765
5,627500	0,1	0,155673
5,629167	0,1	0,160172
5,630833	0,1	0,126750
5,632500	0,1	0,165218
5,634167	0,1	0,137261
5,635833	0,1	0,162511
5,637500	0,1	0,119843
5,639167	0,1	0,150495
5,640833	0,1	0,144970
5,642500	0,1	0,134459
5,644167	0,1	0,158338
5,645833	0,1	0,179078
5,647500	0,1	0,150020
5,649167	0,1	0,144189
5,650833	0,1	0,138541
5,652500	0,1	0,147866
5,654167	0,1	0,192294
5,655833	0,1	0,145914
5,657500	0,1	0,140383
5,659167	0,1	0,179098
5,660833	0,1	0,166543
5,662500	0,1	0,142757
5,664167	0,1	0,176929
5,665833	0,1	0,154392
5,667500	0,1	0,192376
5,669167	0,1	0,123001
5,670833	0,1	0,195691
5,672500	0,1	0,142801
5,674167	0,1	0,149921
5,675833	0,1	0,146547
5,677500	0,1	0,179591
5,679167	0,1	0,161980
5,680833	0,1	0,148640
5,682500	0,1	0,122663
5,684167	0,1	0,149009
5,685833	0,1	0,188127
5,687500	0,1	0,126529
5,689167	0,1	0,170411
5,690833	0,1	0,144005
5,692500	0,1	0,162993
5,694167	0,1	0,189399
5,695833	0,1	0,157054
5,697500	0,1	0,157475
5,699167	0,1	0,143070
5,700833	0,1	0,147957
5,702500	0,1	0,189423
5,704167	0,1	0,150085
5,705833	0,1	0,188553
5,707500	0,1	0,199971
5,709167	0,1	0,107767
5,710833	0,1	0,147444
5,712500	0,1	0,180877
5,714167	0,1	0,152012
5,715833	0,1	0,168816
5,717500	0,1	0,133570
5,719167	0,1	0,131518
5,720833	0,1	0,164402
5,722500	0,1	0,149019
5,724167	0,1	0,116261
5,725833	0,1	0,167396
5,727500	0,1	0,190170
5,729167	0,1	0,193997
5,730833	0,1	0,170175
5,732500	0,1	0,196373
5,734167	0,1	0,148057
5,735833	0,1	0,153779
5,737500	0,1	0,175824
5,739167	0,1	0,185636
5,740833	0,1	0,148736
5,742500	0,1	0,164733
5,744167	0,1	0,168141
5,745833	0,1	0,179685
5,747500	0,1	0,221345
5,749167	0,1	0,188798
5,750833	0,1	0,181656
5,752500	0,1	0,197107
5,754167	0,1	0,220000
5,755833	0,1	0,164750
5,757500	0,1	0,156054
5,759167	0,1	0,161104
5,760833	0,1	0,203822
5,762500	0,1	0,176254
5,764167	0,1	0,195831
5,765833	0,1	0,173717
5,767500	0,1	0,193775
5,769167	0,1	0,175633
5,770833	0,1	0,189936
5,772500	0,1	0,234594
5,774167	0,1	0,185423
5,775833	0,1	0,197561
5,777500	0,1	0,213863
5,779167	0,1	0,163563
5,780833	0,1	0,173192
5,782500	0,1	0,186605
5,784167	0,1	0,215662
5,785833	0,1	0,169375
5,787500	0,1	0,190588
5,789167	0,1	0,181492
5,790833	0,1	0,171848
5,792500	0,1	0,196047
5,794167	0,1	0,160080
5,795833	0,1	0,203920
5,797500	0,1	0,158457
5,799167	0,1	0,188618
5,800833	0,1	0,189922
5,802500	0,1	0,206147
5,804167	0,1	0,118217
5,805833	0,1	0,184362
5,807500	0,1	0,203384
5,809167	0,1	0,208278
5,810833	0,1	0,201107
5,812500	0,1	0,175231
5,814167	0,1	0,119721
5,815833	0,1	0,205712
5,817500	0,1	0,196850
5,819167	0,1	0,141831
5,820833	0,1	0,149053
5,822500	0,1	0,180108
5,824167	0,1	0,167348
5,825833	0,1	0,197015
5,827500	0,1	0,190809
5,829167	0,1	0,193797
5,830833	0,1	0,140457
5,832500	0,1	0,161289
5,834167	0,1	0,174189
5,835833	0,1	0,141573
5,837500	0,1	0,179011
5,839167	0,1	0,197914
5,840833	0,1	0,175709
5,842500	0,1	0,176448
5,844167	0,1	0,195542
5,845833	0,1	0,217755
5,847500	0,1	0,187259
5,849167	0,1	0,185928
5,850833	0,1	0,152503
5,852500	0,1	0,178044
5,854167	0,1	0,183972
5,855833	0,1	0,177356
5,857500	0,1	0,155588
5,859167	0,1	0,153781
5,860833	0,1	0,135306
5,862500	0,1	0,139119
5,864167	0,1	0,189358
5,865833	0,1	0,148962
5,867500	0,1	0,133993
5,869167	0,1	0,165637
5,870833	0,1	0,200103
5,872500	0,1	0,116993
5,874167	0,1	0,144169
5,875833	0,1	0,154132
5,877500	0,1	0,170808
5,879167	0,1	0,155109
5,880833	0,1	0,160145
5,882500	0,1	0,114638
5,884167	0,1	0,139796
5,885833	0,1	0,153513
5,887500	0,1	0,190911
5,889167	0,1	0,161302
5,890833	0,1	0,158573
5,892500	0,1	0,169700
5,894167	0,1	0,196373
5,895833	0,1	0,153854
5,897500	0,1	0,126560
5,899167	0,1	0,148343
5,900833	0,1	0,116941
5,902500	0,1	0,173244
5,904167	0,1	0,139999
5,905833	0,1	0,139285
5,907500	0,1	0,149127
5,909167	0,1	0,181520
5,910833	0,1	0,129528
5,912500	0,1	0,170904
5,914167	0,1	0,167346
5,915833	0,1	0,171240
5,917500	0,1	0,095925
5,919167	0,1	0,184167
5,920833	0,1	0,139836
5,922500	0,1	0,169168
5,924167	0,1	0,159833
5,925833	0,1	0,126813
5,927500	0,1	0,128316
5,929167	0,1	0,115816
5,930833	0,1	0,129662
5,932500	0,1	0,126842
5,934167	0,1	0,132338
5,935833	0,1	0,115943
5,937500	0,1	0,169904
5,939167	0,1	0,155034
5,940833	0,1	0,124052
5,942500	0,1	0,128040
5,944167	0,1	0,130761
5,945833	0,1	0,097632
5,947500	0,1	0,134133
5,949167	0,1	0,167565
5,950833	0,1	0,122730
5,952500	0,1	0,171065
5,954167	0,1	0,121774
5,955833	0,1	0,120956
5,957500	0,1	0,104574
5,959167	0,1	0,103990
5,960833	0,1	0,130693
5,962500	0,1	0,119421
5,964167	0,1	0,111289
5,965833	0,1	0,137337
5,967500	0,1	0,109945
5,969167	0,1	0,138055
5,970833	0,1	0,112314
5,972500	0,1	0,098748
5,974167	0,1	0,136061
5,975833	0,1	0,091355
5,977500	0,1	0,144313
5,979167	0,1	0,143305
5,980833	0,1	0,125560
5,982500	0,1	0,099394
5,984167	0,1	0,120597
5,985833	0,1	0,113343
5,987500	0,1	0,105466
5,989167	0,1	0,118898
5,990833	0,1	0,115774
5,992500	0,1	0,123765
5,994167	0,1	0,143439
5,995833	0,1	0,110804
5,997500	0,1	0,123952
5,999167	0,1	0,128746
6,000833	0,1	0,100406
