File Path	chrom://chromeleon01/ikbm_chromeleon/2022/Rezex/Esteban/220612_chitin_4_7.seq/982.smp/UV_VIS_1.channel/UV_VIS_1.chm
Channel	UV_VIS_1

Injection Information:
Data Vault	ikbm_chromeleon
Injection	7_04h-EGS_2
Injection Number	73
Position	GC1
Comment	
Processing Method	New ProcMethod
Instrument Method	Short_Rezex_6min_194nm
Type	Unknown
Status	Finished
Injection Date	13.06.2022
Injection Time	00:59:57
Injection Volume (µl)	8,000
Dilution Factor	1,0000
Weight	1,0000

Chromatogram Data Information:
Time Min. (min)	0,000833
Time Max. (min)	6,000833
Data Points	3601
Detector	UV
Generating Data System	Chromeleon 7.2.9.11323
Exporting Data System	Chromeleon 7.2.9.0
Operator	Instrument Controller
Signal Quantity	Absorbance
Signal Unit	mAU
Signal Min.	-0,099571
Signal Max.	114,921771
Channel	UV_VIS_1
Driver Name	VWD3000.dll
Channel Type	Evaluation
Min. Step (s)	0,1
Max. Step (s)	0,1
Average Step (s)	0,1

Signal Parameter Information:
Signal Info	WVL:194 nm

Chromatogram Data:
Time (min)	Step (s)	Value (mAU)
0,000833	n.a.	-0,026252
0,002500	0,1	0,003573
0,004167	0,1	-0,007632
0,005833	0,1	-0,026661
0,007500	0,1	-0,030170
0,009167	0,1	-0,020946
0,010833	0,1	-0,032510
0,012500	0,1	-0,057633
0,014167	0,1	-0,022386
0,015833	0,1	-0,000799
0,017500	0,1	-0,079615
0,019167	0,1	-0,019673
0,020833	0,1	0,009837
0,022500	0,1	-0,018054
0,024167	0,1	-0,017151
0,025833	0,1	-0,022395
0,027500	0,1	-0,027682
0,029167	0,1	-0,045985
0,030833	0,1	-0,074114
0,032500	0,1	-0,052005
0,034167	0,1	-0,068311
0,035833	0,1	-0,077974
0,037500	0,1	-0,099571
0,039167	0,1	-0,033587
0,040833	0,1	-0,097156
0,042500	0,1	-0,086311
0,044167	0,1	-0,062166
0,045833	0,1	-0,047714
0,047500	0,1	-0,061036
0,049167	0,1	-0,055775
0,050833	0,1	-0,030198
0,052500	0,1	-0,040245
0,054167	0,1	-0,026339
0,055833	0,1	-0,043975
0,057500	0,1	-0,014381
0,059167	0,1	-0,091142
0,060833	0,1	-0,024049
0,062500	0,1	-0,060803
0,064167	0,1	-0,056729
0,065833	0,1	-0,026902
0,067500	0,1	-0,035622
0,069167	0,1	-0,001671
0,070833	0,1	-0,020008
0,072500	0,1	-0,004323
0,074167	0,1	-0,028112
0,075833	0,1	-0,017837
0,077500	0,1	-0,001149
0,079167	0,1	-0,031738
0,080833	0,1	-0,050503
0,082500	0,1	-0,009448
0,084167	0,1	-0,055867
0,085833	0,1	0,007463
0,087500	0,1	-0,017704
0,089167	0,1	-0,036177
0,090833	0,1	-0,004366
0,092500	0,1	-0,016216
0,094167	0,1	-0,015576
0,095833	0,1	-0,020550
0,097500	0,1	-0,060387
0,099167	0,1	-0,013141
0,100833	0,1	0,001280
0,102500	0,1	-0,003652
0,104167	0,1	-0,004564
0,105833	0,1	-0,013458
0,107500	0,1	-0,068531
0,109167	0,1	-0,041477
0,110833	0,1	-0,088619
0,112500	0,1	-0,011408
0,114167	0,1	-0,044945
0,115833	0,1	-0,092785
0,117500	0,1	-0,028839
0,119167	0,1	-0,011019
0,120833	0,1	-0,028590
0,122500	0,1	-0,089051
0,124167	0,1	-0,040486
0,125833	0,1	-0,059149
0,127500	0,1	-0,063838
0,129167	0,1	-0,039942
0,130833	0,1	-0,039438
0,132500	0,1	-0,042444
0,134167	0,1	-0,027250
0,135833	0,1	-0,039311
0,137500	0,1	0,001643
0,139167	0,1	-0,035615
0,140833	0,1	-0,035208
0,142500	0,1	-0,018401
0,144167	0,1	-0,024323
0,145833	0,1	-0,050295
0,147500	0,1	-0,007457
0,149167	0,1	-0,041895
0,150833	0,1	-0,054714
0,152500	0,1	-0,013304
0,154167	0,1	-0,049856
0,155833	0,1	-0,051835
0,157500	0,1	-0,030488
0,159167	0,1	-0,025382
0,160833	0,1	-0,023578
0,162500	0,1	-0,033297
0,164167	0,1	-0,038358
0,165833	0,1	0,009253
0,167500	0,1	-0,030349
0,169167	0,1	-0,018501
0,170833	0,1	-0,031640
0,172500	0,1	-0,033155
0,174167	0,1	-0,034771
0,175833	0,1	0,011675
0,177500	0,1	-0,055095
0,179167	0,1	-0,011189
0,180833	0,1	-0,042561
0,182500	0,1	-0,026836
0,184167	0,1	-0,053010
0,185833	0,1	-0,014982
0,187500	0,1	-0,031328
0,189167	0,1	-0,064162
0,190833	0,1	-0,031048
0,192500	0,1	-0,037715
0,194167	0,1	0,005703
0,195833	0,1	0,001841
0,197500	0,1	-0,030619
0,199167	0,1	-0,022398
0,200833	0,1	0,002352
0,202500	0,1	-0,030350
0,204167	0,1	-0,045985
0,205833	0,1	-0,006421
0,207500	0,1	-0,023136
0,209167	0,1	-0,022540
0,210833	0,1	0,006169
0,212500	0,1	-0,008479
0,214167	0,1	-0,038371
0,215833	0,1	0,004213
0,217500	0,1	-0,037975
0,219167	0,1	-0,026812
0,220833	0,1	-0,015061
0,222500	0,1	-0,003885
0,224167	0,1	-0,018370
0,225833	0,1	-0,033318
0,227500	0,1	-0,030461
0,229167	0,1	-0,035249
0,230833	0,1	-0,033674
0,232500	0,1	-0,021072
0,234167	0,1	-0,035247
0,235833	0,1	-0,065262
0,237500	0,1	-0,050055
0,239167	0,1	-0,019895
0,240833	0,1	-0,020632
0,242500	0,1	-0,014126
0,244167	0,1	-0,004736
0,245833	0,1	-0,045336
0,247500	0,1	-0,018278
0,249167	0,1	-0,025959
0,250833	0,1	0,008676
0,252500	0,1	-0,009746
0,254167	0,1	-0,020902
0,255833	0,1	-0,041381
0,257500	0,1	0,002371
0,259167	0,1	-0,017169
0,260833	0,1	-0,015389
0,262500	0,1	-0,040799
0,264167	0,1	-0,017486
0,265833	0,1	0,025424
0,267500	0,1	-0,004000
0,269167	0,1	-0,035573
0,270833	0,1	-0,012987
0,272500	0,1	-0,024797
0,274167	0,1	-0,053258
0,275833	0,1	-0,032268
0,277500	0,1	-0,023228
0,279167	0,1	-0,015453
0,280833	0,1	-0,038747
0,282500	0,1	-0,032350
0,284167	0,1	-0,062235
0,285833	0,1	-0,049806
0,287500	0,1	0,017580
0,289167	0,1	-0,024728
0,290833	0,1	-0,034189
0,292500	0,1	-0,036473
0,294167	0,1	-0,053405
0,295833	0,1	-0,012185
0,297500	0,1	-0,033918
0,299167	0,1	-0,014834
0,300833	0,1	0,006625
0,302500	0,1	-0,047426
0,304167	0,1	-0,028162
0,305833	0,1	0,008817
0,307500	0,1	0,029991
0,309167	0,1	0,019613
0,310833	0,1	-0,034326
0,312500	0,1	-0,002313
0,314167	0,1	-0,044818
0,315833	0,1	-0,004243
0,317500	0,1	-0,022267
0,319167	0,1	-0,030107
0,320833	0,1	0,010227
0,322500	0,1	0,006903
0,324167	0,1	-0,011778
0,325833	0,1	-0,022807
0,327500	0,1	-0,028323
0,329167	0,1	-0,014832
0,330833	0,1	-0,040697
0,332500	0,1	0,001604
0,334167	0,1	-0,039595
0,335833	0,1	-0,018066
0,337500	0,1	-0,017567
0,339167	0,1	-0,028591
0,340833	0,1	-0,018212
0,342500	0,1	-0,017299
0,344167	0,1	-0,007741
0,345833	0,1	-0,019305
0,347500	0,1	-0,016571
0,349167	0,1	0,015000
0,350833	0,1	-0,004229
0,352500	0,1	-0,011325
0,354167	0,1	-0,014558
0,355833	0,1	0,011641
0,357500	0,1	0,006153
0,359167	0,1	-0,014699
0,360833	0,1	-0,033442
0,362500	0,1	-0,004053
0,364167	0,1	0,010421
0,365833	0,1	0,012290
0,367500	0,1	-0,021391
0,369167	0,1	-0,003699
0,370833	0,1	-0,006679
0,372500	0,1	-0,015033
0,374167	0,1	0,022315
0,375833	0,1	-0,041081
0,377500	0,1	-0,028371
0,379167	0,1	0,000423
0,380833	0,1	0,008369
0,382500	0,1	-0,006470
0,384167	0,1	0,011000
0,385833	0,1	-0,049539
0,387500	0,1	-0,009635
0,389167	0,1	0,022049
0,390833	0,1	-0,005036
0,392500	0,1	-0,024257
0,394167	0,1	0,016864
0,395833	0,1	0,004806
0,397500	0,1	-0,009372
0,399167	0,1	-0,001751
0,400833	0,1	-0,024215
0,402500	0,1	0,032327
0,404167	0,1	-0,005284
0,405833	0,1	-0,000920
0,407500	0,1	-0,023158
0,409167	0,1	-0,011056
0,410833	0,1	0,013074
0,412500	0,1	-0,018657
0,414167	0,1	-0,051640
0,415833	0,1	0,022390
0,417500	0,1	-0,018881
0,419167	0,1	-0,019802
0,420833	0,1	0,018605
0,422500	0,1	0,016540
0,424167	0,1	0,003771
0,425833	0,1	0,000350
0,427500	0,1	0,026071
0,429167	0,1	-0,011482
0,430833	0,1	-0,013835
0,432500	0,1	0,006438
0,434167	0,1	0,001552
0,435833	0,1	0,012680
0,437500	0,1	0,022281
0,439167	0,1	0,002591
0,440833	0,1	-0,021581
0,442500	0,1	0,005297
0,444167	0,1	0,001886
0,445833	0,1	0,013306
0,447500	0,1	-0,004310
0,449167	0,1	-0,001767
0,450833	0,1	0,019213
0,452500	0,1	0,033231
0,454167	0,1	0,002365
0,455833	0,1	-0,029685
0,457500	0,1	0,007161
0,459167	0,1	-0,009868
0,460833	0,1	-0,013709
0,462500	0,1	-0,009418
0,464167	0,1	-0,011220
0,465833	0,1	-0,034352
0,467500	0,1	-0,010583
0,469167	0,1	-0,028507
0,470833	0,1	0,002868
0,472500	0,1	0,029080
0,474167	0,1	0,009331
0,475833	0,1	0,005305
0,477500	0,1	0,020601
0,479167	0,1	-0,028975
0,480833	0,1	-0,048824
0,482500	0,1	-0,000305
0,484167	0,1	0,005906
0,485833	0,1	0,034551
0,487500	0,1	0,021338
0,489167	0,1	0,051389
0,490833	0,1	0,013936
0,492500	0,1	-0,031360
0,494167	0,1	0,016470
0,495833	0,1	-0,007316
0,497500	0,1	0,034799
0,499167	0,1	0,026950
0,500833	0,1	0,027488
0,502500	0,1	0,035365
0,504167	0,1	0,023196
0,505833	0,1	0,022863
0,507500	0,1	0,014885
0,509167	0,1	0,014445
0,510833	0,1	-0,013805
0,512500	0,1	-0,001148
0,514167	0,1	0,015726
0,515833	0,1	0,023629
0,517500	0,1	-0,004557
0,519167	0,1	0,026837
0,520833	0,1	0,010428
0,522500	0,1	0,028518
0,524167	0,1	-0,015087
0,525833	0,1	-0,015927
0,527500	0,1	-0,033170
0,529167	0,1	-0,014295
0,530833	0,1	0,019790
0,532500	0,1	0,032439
0,534167	0,1	0,007137
0,535833	0,1	0,026903
0,537500	0,1	-0,034445
0,539167	0,1	0,020780
0,540833	0,1	-0,018738
0,542500	0,1	-0,000587
0,544167	0,1	-0,000002
0,545833	0,1	0,013736
0,547500	0,1	-0,008438
0,549167	0,1	0,058451
0,550833	0,1	0,043310
0,552500	0,1	0,039287
0,554167	0,1	0,049011
0,555833	0,1	-0,020490
0,557500	0,1	-0,025028
0,559167	0,1	0,063009
0,560833	0,1	0,013195
0,562500	0,1	0,034820
0,564167	0,1	0,000545
0,565833	0,1	0,024810
0,567500	0,1	-0,013740
0,569167	0,1	-0,008775
0,570833	0,1	0,027002
0,572500	0,1	0,009995
0,574167	0,1	0,011818
0,575833	0,1	0,031982
0,577500	0,1	0,018312
0,579167	0,1	0,035096
0,580833	0,1	0,064386
0,582500	0,1	0,032496
0,584167	0,1	0,010639
0,585833	0,1	0,029207
0,587500	0,1	0,024400
0,589167	0,1	0,019133
0,590833	0,1	0,031780
0,592500	0,1	0,011031
0,594167	0,1	0,003110
0,595833	0,1	0,015109
0,597500	0,1	0,004375
0,599167	0,1	0,006630
0,600833	0,1	0,035194
0,602500	0,1	-0,010049
0,604167	0,1	-0,002905
0,605833	0,1	0,038076
0,607500	0,1	0,009271
0,609167	0,1	0,032875
0,610833	0,1	0,046275
0,612500	0,1	0,000902
0,614167	0,1	0,064780
0,615833	0,1	0,029612
0,617500	0,1	0,015859
0,619167	0,1	0,019860
0,620833	0,1	0,004251
0,622500	0,1	0,031980
0,624167	0,1	0,035639
0,625833	0,1	0,008149
0,627500	0,1	0,066459
0,629167	0,1	0,047961
0,630833	0,1	0,026975
0,632500	0,1	0,050522
0,634167	0,1	0,036286
0,635833	0,1	0,016423
0,637500	0,1	0,063827
0,639167	0,1	0,087013
0,640833	0,1	0,042800
0,642500	0,1	0,091735
0,644167	0,1	0,048318
0,645833	0,1	0,059311
0,647500	0,1	0,038319
0,649167	0,1	0,023204
0,650833	0,1	0,018969
0,652500	0,1	0,050003
0,654167	0,1	0,078389
0,655833	0,1	0,021991
0,657500	0,1	0,074880
0,659167	0,1	0,030571
0,660833	0,1	0,060554
0,662500	0,1	0,039088
0,664167	0,1	0,057657
0,665833	0,1	0,063217
0,667500	0,1	0,046775
0,669167	0,1	0,015432
0,670833	0,1	0,080977
0,672500	0,1	0,056859
0,674167	0,1	0,053491
0,675833	0,1	0,083697
0,677500	0,1	0,096847
0,679167	0,1	0,043344
0,680833	0,1	0,061906
0,682500	0,1	0,087226
0,684167	0,1	0,023379
0,685833	0,1	0,096795
0,687500	0,1	0,088974
0,689167	0,1	0,063124
0,690833	0,1	0,108461
0,692500	0,1	0,078882
0,694167	0,1	0,103942
0,695833	0,1	0,058729
0,697500	0,1	0,098858
0,699167	0,1	0,087235
0,700833	0,1	0,078712
0,702500	0,1	0,107672
0,704167	0,1	0,089291
0,705833	0,1	0,080263
0,707500	0,1	0,113746
0,709167	0,1	0,126092
0,710833	0,1	0,114337
0,712500	0,1	0,103496
0,714167	0,1	0,148879
0,715833	0,1	0,100102
0,717500	0,1	0,108092
0,719167	0,1	0,152811
0,720833	0,1	0,153742
0,722500	0,1	0,134560
0,724167	0,1	0,139382
0,725833	0,1	0,136031
0,727500	0,1	0,125266
0,729167	0,1	0,100676
0,730833	0,1	0,133703
0,732500	0,1	0,162221
0,734167	0,1	0,114372
0,735833	0,1	0,183025
0,737500	0,1	0,140440
0,739167	0,1	0,162296
0,740833	0,1	0,173872
0,742500	0,1	0,154038
0,744167	0,1	0,147251
0,745833	0,1	0,154485
0,747500	0,1	0,197367
0,749167	0,1	0,169054
0,750833	0,1	0,196275
0,752500	0,1	0,219325
0,754167	0,1	0,192782
0,755833	0,1	0,167605
0,757500	0,1	0,185409
0,759167	0,1	0,244658
0,760833	0,1	0,215516
0,762500	0,1	0,204289
0,764167	0,1	0,192616
0,765833	0,1	0,171751
0,767500	0,1	0,160982
0,769167	0,1	0,189807
0,770833	0,1	0,166962
0,772500	0,1	0,169981
0,774167	0,1	0,243405
0,775833	0,1	0,211341
0,777500	0,1	0,192327
0,779167	0,1	0,187379
0,780833	0,1	0,233657
0,782500	0,1	0,176035
0,784167	0,1	0,213859
0,785833	0,1	0,191016
0,787500	0,1	0,228777
0,789167	0,1	0,188474
0,790833	0,1	0,204573
0,792500	0,1	0,148513
0,794167	0,1	0,151914
0,795833	0,1	0,183150
0,797500	0,1	0,147297
0,799167	0,1	0,162842
0,800833	0,1	0,211919
0,802500	0,1	0,202334
0,804167	0,1	0,190976
0,805833	0,1	0,178986
0,807500	0,1	0,190808
0,809167	0,1	0,171788
0,810833	0,1	0,156191
0,812500	0,1	0,210161
0,814167	0,1	0,169500
0,815833	0,1	0,158952
0,817500	0,1	0,166157
0,819167	0,1	0,175513
0,820833	0,1	0,193442
0,822500	0,1	0,198371
0,824167	0,1	0,186639
0,825833	0,1	0,195700
0,827500	0,1	0,167090
0,829167	0,1	0,188522
0,830833	0,1	0,176731
0,832500	0,1	0,212764
0,834167	0,1	0,162278
0,835833	0,1	0,135557
0,837500	0,1	0,163861
0,839167	0,1	0,160816
0,840833	0,1	0,187108
0,842500	0,1	0,202290
0,844167	0,1	0,185490
0,845833	0,1	0,131669
0,847500	0,1	0,142773
0,849167	0,1	0,182477
0,850833	0,1	0,179311
0,852500	0,1	0,240481
0,854167	0,1	0,218023
0,855833	0,1	0,174645
0,857500	0,1	0,180620
0,859167	0,1	0,210040
0,860833	0,1	0,153456
0,862500	0,1	0,183867
0,864167	0,1	0,229518
0,865833	0,1	0,172466
0,867500	0,1	0,189556
0,869167	0,1	0,172684
0,870833	0,1	0,179235
0,872500	0,1	0,205439
0,874167	0,1	0,177676
0,875833	0,1	0,198142
0,877500	0,1	0,161277
0,879167	0,1	0,215686
0,880833	0,1	0,189113
0,882500	0,1	0,164489
0,884167	0,1	0,181966
0,885833	0,1	0,210130
0,887500	0,1	0,197026
0,889167	0,1	0,190876
0,890833	0,1	0,247492
0,892500	0,1	0,193241
0,894167	0,1	0,189010
0,895833	0,1	0,192005
0,897500	0,1	0,217305
0,899167	0,1	0,193551
0,900833	0,1	0,191870
0,902500	0,1	0,207535
0,904167	0,1	0,189365
0,905833	0,1	0,190104
0,907500	0,1	0,212487
0,909167	0,1	0,219755
0,910833	0,1	0,248524
0,912500	0,1	0,219147
0,914167	0,1	0,192556
0,915833	0,1	0,213638
0,917500	0,1	0,226057
0,919167	0,1	0,194902
0,920833	0,1	0,259187
0,922500	0,1	0,198260
0,924167	0,1	0,242762
0,925833	0,1	0,248757
0,927500	0,1	0,223711
0,929167	0,1	0,258644
0,930833	0,1	0,212784
0,932500	0,1	0,236209
0,934167	0,1	0,221517
0,935833	0,1	0,234697
0,937500	0,1	0,235280
0,939167	0,1	0,248501
0,940833	0,1	0,240879
0,942500	0,1	0,235281
0,944167	0,1	0,243384
0,945833	0,1	0,282510
0,947500	0,1	0,266641
0,949167	0,1	0,264963
0,950833	0,1	0,256441
0,952500	0,1	0,283444
0,954167	0,1	0,287212
0,955833	0,1	0,319721
0,957500	0,1	0,279213
0,959167	0,1	0,310844
0,960833	0,1	0,270500
0,962500	0,1	0,278658
0,964167	0,1	0,246186
0,965833	0,1	0,244441
0,967500	0,1	0,246630
0,969167	0,1	0,304661
0,970833	0,1	0,300365
0,972500	0,1	0,337313
0,974167	0,1	0,337837
0,975833	0,1	0,294331
0,977500	0,1	0,320588
0,979167	0,1	0,302814
0,980833	0,1	0,333711
0,982500	0,1	0,309155
0,984167	0,1	0,299017
0,985833	0,1	0,315542
0,987500	0,1	0,310948
0,989167	0,1	0,332296
0,990833	0,1	0,356354
0,992500	0,1	0,327322
0,994167	0,1	0,380148
0,995833	0,1	0,337588
0,997500	0,1	0,371918
0,999167	0,1	0,399163
1,000833	0,1	0,362575
1,002500	0,1	0,405819
1,004167	0,1	0,370200
1,005833	0,1	0,443126
1,007500	0,1	0,397219
1,009167	0,1	0,452618
1,010833	0,1	0,418735
1,012500	0,1	0,427958
1,014167	0,1	0,419792
1,015833	0,1	0,470443
1,017500	0,1	0,535625
1,019167	0,1	0,501931
1,020833	0,1	0,547597
1,022500	0,1	0,530208
1,024167	0,1	0,531909
1,025833	0,1	0,572799
1,027500	0,1	0,586704
1,029167	0,1	0,585486
1,030833	0,1	0,563225
1,032500	0,1	0,595515
1,034167	0,1	0,624962
1,035833	0,1	0,597178
1,037500	0,1	0,622650
1,039167	0,1	0,651971
1,040833	0,1	0,630872
1,042500	0,1	0,674709
1,044167	0,1	0,673945
1,045833	0,1	0,663789
1,047500	0,1	0,713306
1,049167	0,1	0,709941
1,050833	0,1	0,712096
1,052500	0,1	0,771602
1,054167	0,1	0,795880
1,055833	0,1	0,808490
1,057500	0,1	0,827807
1,059167	0,1	0,920374
1,060833	0,1	1,021041
1,062500	0,1	1,119757
1,064167	0,1	1,266914
1,065833	0,1	1,429934
1,067500	0,1	1,664715
1,069167	0,1	1,976884
1,070833	0,1	2,329048
1,072500	0,1	2,787150
1,074167	0,1	3,380312
1,075833	0,1	4,056544
1,077500	0,1	4,890245
1,079167	0,1	5,835742
1,080833	0,1	6,881024
1,082500	0,1	8,078102
1,084167	0,1	9,503515
1,085833	0,1	10,954513
1,087500	0,1	12,556269
1,089167	0,1	14,297386
1,090833	0,1	16,115370
1,092500	0,1	18,019603
1,094167	0,1	19,950147
1,095833	0,1	21,880834
1,097500	0,1	23,794760
1,099167	0,1	25,652486
1,100833	0,1	27,396627
1,102500	0,1	29,098408
1,104167	0,1	30,631695
1,105833	0,1	32,033834
1,107500	0,1	33,226236
1,109167	0,1	34,345331
1,110833	0,1	35,242951
1,112500	0,1	35,941772
1,114167	0,1	36,477421
1,115833	0,1	36,872139
1,117500	0,1	37,086577
1,119167	0,1	37,215653
1,120833	0,1	37,147078
1,122500	0,1	37,035550
1,124167	0,1	36,805825
1,125833	0,1	36,459221
1,127500	0,1	36,095668
1,129167	0,1	35,659627
1,130833	0,1	35,223477
1,132500	0,1	34,718495
1,134167	0,1	34,237212
1,135833	0,1	33,773434
1,137500	0,1	33,291240
1,139167	0,1	32,887135
1,140833	0,1	32,461798
1,142500	0,1	32,110404
1,144167	0,1	31,848081
1,145833	0,1	31,583364
1,147500	0,1	31,434542
1,149167	0,1	31,339460
1,150833	0,1	31,330289
1,152500	0,1	31,410794
1,154167	0,1	31,522212
1,155833	0,1	31,681641
1,157500	0,1	31,988307
1,159167	0,1	32,335362
1,160833	0,1	32,769917
1,162500	0,1	33,168912
1,164167	0,1	33,645737
1,165833	0,1	34,124244
1,167500	0,1	34,655562
1,169167	0,1	35,163362
1,170833	0,1	35,699611
1,172500	0,1	36,255658
1,174167	0,1	36,728470
1,175833	0,1	37,230969
1,177500	0,1	37,654860
1,179167	0,1	38,114900
1,180833	0,1	38,497925
1,182500	0,1	38,849292
1,184167	0,1	39,159382
1,185833	0,1	39,447361
1,187500	0,1	39,672030
1,189167	0,1	39,893421
1,190833	0,1	40,144023
1,192500	0,1	40,338425
1,194167	0,1	40,588834
1,195833	0,1	40,899058
1,197500	0,1	41,277932
1,199167	0,1	41,730194
1,200833	0,1	42,270243
1,202500	0,1	42,921681
1,204167	0,1	43,756667
1,205833	0,1	44,754241
1,207500	0,1	45,941431
1,209167	0,1	47,371078
1,210833	0,1	49,015756
1,212500	0,1	50,834175
1,214167	0,1	52,902266
1,215833	0,1	55,246385
1,217500	0,1	57,765323
1,219167	0,1	60,538490
1,220833	0,1	63,448201
1,222500	0,1	66,529115
1,224167	0,1	69,769814
1,225833	0,1	73,107581
1,227500	0,1	76,511821
1,229167	0,1	79,913395
1,230833	0,1	83,342101
1,232500	0,1	86,684674
1,234167	0,1	89,977251
1,235833	0,1	93,113014
1,237500	0,1	96,176878
1,239167	0,1	99,041474
1,240833	0,1	101,666766
1,242500	0,1	104,138714
1,244167	0,1	106,338433
1,245833	0,1	108,299106
1,247500	0,1	110,042347
1,249167	0,1	111,503652
1,250833	0,1	112,745783
1,252500	0,1	113,648002
1,254167	0,1	114,297154
1,255833	0,1	114,713606
1,257500	0,1	114,921771
1,259167	0,1	114,834634
1,260833	0,1	114,526257
1,262500	0,1	113,963602
1,264167	0,1	113,272611
1,265833	0,1	112,217739
1,267500	0,1	111,050750
1,269167	0,1	109,662032
1,270833	0,1	108,134893
1,272500	0,1	106,456194
1,274167	0,1	104,590101
1,275833	0,1	102,616928
1,277500	0,1	100,540038
1,279167	0,1	98,341069
1,280833	0,1	96,124862
1,282500	0,1	93,738697
1,284167	0,1	91,354805
1,285833	0,1	88,911355
1,287500	0,1	86,506178
1,289167	0,1	84,079219
1,290833	0,1	81,613141
1,292500	0,1	79,227046
1,294167	0,1	76,797185
1,295833	0,1	74,420980
1,297500	0,1	72,152999
1,299167	0,1	69,916729
1,300833	0,1	67,729083
1,302500	0,1	65,528972
1,304167	0,1	63,540893
1,305833	0,1	61,566033
1,307500	0,1	59,613640
1,309167	0,1	57,792016
1,310833	0,1	56,082173
1,312500	0,1	54,329993
1,314167	0,1	52,759417
1,315833	0,1	51,197101
1,317500	0,1	49,728990
1,319167	0,1	48,380952
1,320833	0,1	47,003621
1,322500	0,1	45,760189
1,324167	0,1	44,516107
1,325833	0,1	43,357919
1,327500	0,1	42,246933
1,329167	0,1	41,168882
1,330833	0,1	40,195448
1,332500	0,1	39,202558
1,334167	0,1	38,283880
1,335833	0,1	37,387711
1,337500	0,1	36,518784
1,339167	0,1	35,675334
1,340833	0,1	34,863171
1,342500	0,1	34,069534
1,344167	0,1	33,311863
1,345833	0,1	32,607581
1,347500	0,1	31,877034
1,349167	0,1	31,221901
1,350833	0,1	30,535195
1,352500	0,1	29,880857
1,354167	0,1	29,198548
1,355833	0,1	28,554997
1,357500	0,1	27,997668
1,359167	0,1	27,393334
1,360833	0,1	26,771812
1,362500	0,1	26,219547
1,364167	0,1	25,661679
1,365833	0,1	25,100873
1,367500	0,1	24,585572
1,369167	0,1	24,069961
1,370833	0,1	23,537011
1,372500	0,1	23,015860
1,374167	0,1	22,545714
1,375833	0,1	22,044422
1,377500	0,1	21,563707
1,379167	0,1	21,083297
1,380833	0,1	20,639703
1,382500	0,1	20,230500
1,384167	0,1	19,799451
1,385833	0,1	19,373463
1,387500	0,1	18,932782
1,389167	0,1	18,559424
1,390833	0,1	18,153935
1,392500	0,1	17,816928
1,394167	0,1	17,413023
1,395833	0,1	17,075872
1,397500	0,1	16,750312
1,399167	0,1	16,434822
1,400833	0,1	16,100669
1,402500	0,1	15,775962
1,404167	0,1	15,489848
1,405833	0,1	15,176631
1,407500	0,1	14,942380
1,409167	0,1	14,687818
1,410833	0,1	14,423854
1,412500	0,1	14,170903
1,414167	0,1	13,887917
1,415833	0,1	13,722758
1,417500	0,1	13,481257
1,419167	0,1	13,274664
1,420833	0,1	13,039118
1,422500	0,1	12,810917
1,424167	0,1	12,665992
1,425833	0,1	12,449084
1,427500	0,1	12,259210
1,429167	0,1	12,050853
1,430833	0,1	11,884739
1,432500	0,1	11,722111
1,434167	0,1	11,562202
1,435833	0,1	11,395150
1,437500	0,1	11,227543
1,439167	0,1	11,046525
1,440833	0,1	10,923302
1,442500	0,1	10,795441
1,444167	0,1	10,603330
1,445833	0,1	10,474134
1,447500	0,1	10,311544
1,449167	0,1	10,185246
1,450833	0,1	10,030046
1,452500	0,1	9,851655
1,454167	0,1	9,756390
1,455833	0,1	9,623259
1,457500	0,1	9,474133
1,459167	0,1	9,380362
1,460833	0,1	9,233486
1,462500	0,1	9,133071
1,464167	0,1	8,991387
1,465833	0,1	8,879985
1,467500	0,1	8,779216
1,469167	0,1	8,682058
1,470833	0,1	8,556313
1,472500	0,1	8,483997
1,474167	0,1	8,346953
1,475833	0,1	8,294164
1,477500	0,1	8,246200
1,479167	0,1	8,159218
1,480833	0,1	8,038980
1,482500	0,1	7,954375
1,484167	0,1	7,913126
1,485833	0,1	7,847792
1,487500	0,1	7,773165
1,489167	0,1	7,710099
1,490833	0,1	7,685312
1,492500	0,1	7,650172
1,494167	0,1	7,597202
1,495833	0,1	7,588293
1,497500	0,1	7,501332
1,499167	0,1	7,506733
1,500833	0,1	7,450339
1,502500	0,1	7,410537
1,504167	0,1	7,395670
1,505833	0,1	7,336111
1,507500	0,1	7,344007
1,509167	0,1	7,308373
1,510833	0,1	7,289419
1,512500	0,1	7,303405
1,514167	0,1	7,248984
1,515833	0,1	7,152284
1,517500	0,1	7,221131
1,519167	0,1	7,177110
1,520833	0,1	7,169351
1,522500	0,1	7,180721
1,524167	0,1	7,113074
1,525833	0,1	7,088708
1,527500	0,1	7,071348
1,529167	0,1	7,053244
1,530833	0,1	7,006305
1,532500	0,1	7,044823
1,534167	0,1	7,019364
1,535833	0,1	6,971038
1,537500	0,1	6,958899
1,539167	0,1	6,929422
1,540833	0,1	6,893226
1,542500	0,1	6,912336
1,544167	0,1	6,855822
1,545833	0,1	6,886678
1,547500	0,1	6,827377
1,549167	0,1	6,815334
1,550833	0,1	6,770104
1,552500	0,1	6,743150
1,554167	0,1	6,725429
1,555833	0,1	6,648512
1,557500	0,1	6,651671
1,559167	0,1	6,593127
1,560833	0,1	6,589951
1,562500	0,1	6,596664
1,564167	0,1	6,567404
1,565833	0,1	6,493767
1,567500	0,1	6,484812
1,569167	0,1	6,428442
1,570833	0,1	6,388170
1,572500	0,1	6,373838
1,574167	0,1	6,330882
1,575833	0,1	6,280670
1,577500	0,1	6,285033
1,579167	0,1	6,236982
1,580833	0,1	6,198593
1,582500	0,1	6,162195
1,584167	0,1	6,165805
1,585833	0,1	6,114725
1,587500	0,1	6,050715
1,589167	0,1	5,981174
1,590833	0,1	5,994188
1,592500	0,1	5,933220
1,594167	0,1	5,936122
1,595833	0,1	5,874049
1,597500	0,1	5,854494
1,599167	0,1	5,821363
1,600833	0,1	5,753561
1,602500	0,1	5,765530
1,604167	0,1	5,684389
1,605833	0,1	5,617648
1,607500	0,1	5,668677
1,609167	0,1	5,608870
1,610833	0,1	5,552268
1,612500	0,1	5,521364
1,614167	0,1	5,521335
1,615833	0,1	5,482115
1,617500	0,1	5,426906
1,619167	0,1	5,370657
1,620833	0,1	5,377408
1,622500	0,1	5,342132
1,624167	0,1	5,294833
1,625833	0,1	5,289815
1,627500	0,1	5,257268
1,629167	0,1	5,206447
1,630833	0,1	5,169454
1,632500	0,1	5,166331
1,634167	0,1	5,137786
1,635833	0,1	5,092659
1,637500	0,1	5,079444
1,639167	0,1	5,035294
1,640833	0,1	5,027283
1,642500	0,1	4,957900
1,644167	0,1	4,974982
1,645833	0,1	4,956757
1,647500	0,1	4,959356
1,649167	0,1	4,872947
1,650833	0,1	4,841675
1,652500	0,1	4,853004
1,654167	0,1	4,803564
1,655833	0,1	4,789938
1,657500	0,1	4,800246
1,659167	0,1	4,772281
1,660833	0,1	4,780185
1,662500	0,1	4,739175
1,664167	0,1	4,751361
1,665833	0,1	4,721731
1,667500	0,1	4,733933
1,669167	0,1	4,755940
1,670833	0,1	4,716068
1,672500	0,1	4,681000
1,674167	0,1	4,685903
1,675833	0,1	4,725312
1,677500	0,1	4,721706
1,679167	0,1	4,714928
1,680833	0,1	4,759214
1,682500	0,1	4,763039
1,684167	0,1	4,747468
1,685833	0,1	4,799556
1,687500	0,1	4,772982
1,689167	0,1	4,798545
1,690833	0,1	4,848016
1,692500	0,1	4,841249
1,694167	0,1	4,898576
1,695833	0,1	4,915540
1,697500	0,1	4,953635
1,699167	0,1	4,963901
1,700833	0,1	4,997591
1,702500	0,1	5,014528
1,704167	0,1	5,051191
1,705833	0,1	5,092667
1,707500	0,1	5,154892
1,709167	0,1	5,134361
1,710833	0,1	5,168933
1,712500	0,1	5,165269
1,714167	0,1	5,209002
1,715833	0,1	5,273509
1,717500	0,1	5,280458
1,719167	0,1	5,323330
1,720833	0,1	5,299764
1,722500	0,1	5,336345
1,724167	0,1	5,344222
1,725833	0,1	5,370637
1,727500	0,1	5,371791
1,729167	0,1	5,407423
1,730833	0,1	5,426127
1,732500	0,1	5,422598
1,734167	0,1	5,447993
1,735833	0,1	5,424078
1,737500	0,1	5,408737
1,739167	0,1	5,475474
1,740833	0,1	5,419183
1,742500	0,1	5,440424
1,744167	0,1	5,385755
1,745833	0,1	5,402048
1,747500	0,1	5,355297
1,749167	0,1	5,382329
1,750833	0,1	5,365029
1,752500	0,1	5,348674
1,754167	0,1	5,328159
1,755833	0,1	5,340449
1,757500	0,1	5,248065
1,759167	0,1	5,275925
1,760833	0,1	5,262946
1,762500	0,1	5,190252
1,764167	0,1	5,154836
1,765833	0,1	5,122572
1,767500	0,1	5,112641
1,769167	0,1	5,088775
1,770833	0,1	5,054429
1,772500	0,1	5,028983
1,774167	0,1	4,961462
1,775833	0,1	4,953958
1,777500	0,1	4,875261
1,779167	0,1	4,860694
1,780833	0,1	4,804131
1,782500	0,1	4,769965
1,784167	0,1	4,710392
1,785833	0,1	4,696385
1,787500	0,1	4,594281
1,789167	0,1	4,575424
1,790833	0,1	4,540235
1,792500	0,1	4,489086
1,794167	0,1	4,427684
1,795833	0,1	4,406620
1,797500	0,1	4,335859
1,799167	0,1	4,310208
1,800833	0,1	4,241702
1,802500	0,1	4,216701
1,804167	0,1	4,166696
1,805833	0,1	4,173294
1,807500	0,1	4,091719
1,809167	0,1	4,009081
1,810833	0,1	4,012390
1,812500	0,1	3,980774
1,814167	0,1	3,892125
1,815833	0,1	3,860834
1,817500	0,1	3,845427
1,819167	0,1	3,779686
1,820833	0,1	3,741411
1,822500	0,1	3,687784
1,824167	0,1	3,678271
1,825833	0,1	3,620007
1,827500	0,1	3,598462
1,829167	0,1	3,550367
1,830833	0,1	3,551103
1,832500	0,1	3,497284
1,834167	0,1	3,440738
1,835833	0,1	3,469896
1,837500	0,1	3,407753
1,839167	0,1	3,379969
1,840833	0,1	3,380168
1,842500	0,1	3,396176
1,844167	0,1	3,409705
1,845833	0,1	3,388310
1,847500	0,1	3,391698
1,849167	0,1	3,392061
1,850833	0,1	3,426153
1,852500	0,1	3,472561
1,854167	0,1	3,494986
1,855833	0,1	3,555133
1,857500	0,1	3,566062
1,859167	0,1	3,624378
1,860833	0,1	3,697349
1,862500	0,1	3,698725
1,864167	0,1	3,767145
1,865833	0,1	3,798333
1,867500	0,1	3,844640
1,869167	0,1	3,855672
1,870833	0,1	3,937610
1,872500	0,1	3,950881
1,874167	0,1	4,046545
1,875833	0,1	4,054717
1,877500	0,1	4,099922
1,879167	0,1	4,104350
1,880833	0,1	4,261277
1,882500	0,1	4,230209
1,884167	0,1	4,259565
1,885833	0,1	4,320046
1,887500	0,1	4,370326
1,889167	0,1	4,330745
1,890833	0,1	4,390361
1,892500	0,1	4,412171
1,894167	0,1	4,507883
1,895833	0,1	4,482431
1,897500	0,1	4,516837
1,899167	0,1	4,563100
1,900833	0,1	4,556502
1,902500	0,1	4,643638
1,904167	0,1	4,612535
1,905833	0,1	4,645151
1,907500	0,1	4,664460
1,909167	0,1	4,664332
1,910833	0,1	4,729855
1,912500	0,1	4,705687
1,914167	0,1	4,749468
1,915833	0,1	4,686086
1,917500	0,1	4,786263
1,919167	0,1	4,742330
1,920833	0,1	4,794273
1,922500	0,1	4,779310
1,924167	0,1	4,788800
1,925833	0,1	4,793321
1,927500	0,1	4,753208
1,929167	0,1	4,755797
1,930833	0,1	4,760262
1,932500	0,1	4,801140
1,934167	0,1	4,772198
1,935833	0,1	4,723403
1,937500	0,1	4,707717
1,939167	0,1	4,748902
1,940833	0,1	4,704656
1,942500	0,1	4,725766
1,944167	0,1	4,726253
1,945833	0,1	4,677619
1,947500	0,1	4,667183
1,949167	0,1	4,678970
1,950833	0,1	4,635307
1,952500	0,1	4,622625
1,954167	0,1	4,598409
1,955833	0,1	4,597786
1,957500	0,1	4,603231
1,959167	0,1	4,566252
1,960833	0,1	4,534707
1,962500	0,1	4,529223
1,964167	0,1	4,508891
1,965833	0,1	4,533878
1,967500	0,1	4,494882
1,969167	0,1	4,442588
1,970833	0,1	4,481106
1,972500	0,1	4,466478
1,974167	0,1	4,444895
1,975833	0,1	4,415669
1,977500	0,1	4,413796
1,979167	0,1	4,433553
1,980833	0,1	4,405726
1,982500	0,1	4,391970
1,984167	0,1	4,365032
1,985833	0,1	4,388058
1,987500	0,1	4,318908
1,989167	0,1	4,343708
1,990833	0,1	4,339089
1,992500	0,1	4,362377
1,994167	0,1	4,364569
1,995833	0,1	4,386065
1,997500	0,1	4,366807
1,999167	0,1	4,356051
2,000833	0,1	4,342986
2,002500	0,1	4,353531
2,004167	0,1	4,327126
2,005833	0,1	4,318321
2,007500	0,1	4,377333
2,009167	0,1	4,365746
2,010833	0,1	4,359423
2,012500	0,1	4,369076
2,014167	0,1	4,349643
2,015833	0,1	4,342908
2,017500	0,1	4,386836
2,019167	0,1	4,358452
2,020833	0,1	4,375239
2,022500	0,1	4,378249
2,024167	0,1	4,387373
2,025833	0,1	4,428383
2,027500	0,1	4,407949
2,029167	0,1	4,418694
2,030833	0,1	4,403939
2,032500	0,1	4,421501
2,034167	0,1	4,445889
2,035833	0,1	4,446626
2,037500	0,1	4,444232
2,039167	0,1	4,497634
2,040833	0,1	4,483408
2,042500	0,1	4,547922
2,044167	0,1	4,527631
2,045833	0,1	4,512787
2,047500	0,1	4,568344
2,049167	0,1	4,547045
2,050833	0,1	4,594162
2,052500	0,1	4,618519
2,054167	0,1	4,629732
2,055833	0,1	4,631497
2,057500	0,1	4,690820
2,059167	0,1	4,642221
2,060833	0,1	4,704348
2,062500	0,1	4,713457
2,064167	0,1	4,728335
2,065833	0,1	4,744128
2,067500	0,1	4,792690
2,069167	0,1	4,797732
2,070833	0,1	4,852480
2,072500	0,1	4,828484
2,074167	0,1	4,850318
2,075833	0,1	4,864732
2,077500	0,1	4,869050
2,079167	0,1	4,878406
2,080833	0,1	4,904571
2,082500	0,1	4,916191
2,084167	0,1	4,910966
2,085833	0,1	4,975337
2,087500	0,1	4,958822
2,089167	0,1	4,980436
2,090833	0,1	4,978265
2,092500	0,1	5,036569
2,094167	0,1	5,032484
2,095833	0,1	5,050205
2,097500	0,1	5,066912
2,099167	0,1	5,066946
2,100833	0,1	5,050157
2,102500	0,1	5,092042
2,104167	0,1	5,076113
2,105833	0,1	5,120005
2,107500	0,1	5,107524
2,109167	0,1	5,134857
2,110833	0,1	5,156886
2,112500	0,1	5,119349
2,114167	0,1	5,140257
2,115833	0,1	5,144618
2,117500	0,1	5,165992
2,119167	0,1	5,186720
2,120833	0,1	5,201878
2,122500	0,1	5,184923
2,124167	0,1	5,215963
2,125833	0,1	5,191062
2,127500	0,1	5,198260
2,129167	0,1	5,244264
2,130833	0,1	5,192592
2,132500	0,1	5,203241
2,134167	0,1	5,230103
2,135833	0,1	5,190073
2,137500	0,1	5,178502
2,139167	0,1	5,183702
2,140833	0,1	5,224357
2,142500	0,1	5,201065
2,144167	0,1	5,221074
2,145833	0,1	5,193065
2,147500	0,1	5,210026
2,149167	0,1	5,172373
2,150833	0,1	5,201543
2,152500	0,1	5,174545
2,154167	0,1	5,173690
2,155833	0,1	5,221605
2,157500	0,1	5,144387
2,159167	0,1	5,154877
2,160833	0,1	5,196129
2,162500	0,1	5,154804
2,164167	0,1	5,161665
2,165833	0,1	5,133936
2,167500	0,1	5,124741
2,169167	0,1	5,142860
2,170833	0,1	5,114144
2,172500	0,1	5,113342
2,174167	0,1	5,127817
2,175833	0,1	5,126462
2,177500	0,1	5,114645
2,179167	0,1	5,127732
2,180833	0,1	5,105912
2,182500	0,1	5,077528
2,184167	0,1	5,109407
2,185833	0,1	5,096806
2,187500	0,1	5,085782
2,189167	0,1	5,084984
2,190833	0,1	5,092899
2,192500	0,1	5,086201
2,194167	0,1	5,051322
2,195833	0,1	5,028248
2,197500	0,1	5,036751
2,199167	0,1	5,037969
2,200833	0,1	5,039579
2,202500	0,1	5,016574
2,204167	0,1	4,978727
2,205833	0,1	4,981995
2,207500	0,1	5,035100
2,209167	0,1	5,042940
2,210833	0,1	5,031806
2,212500	0,1	5,015327
2,214167	0,1	5,035445
2,215833	0,1	5,037939
2,217500	0,1	5,039974
2,219167	0,1	5,027651
2,220833	0,1	5,065070
2,222500	0,1	5,008580
2,224167	0,1	5,061280
2,225833	0,1	5,005642
2,227500	0,1	5,043893
2,229167	0,1	5,080369
2,230833	0,1	5,102025
2,232500	0,1	5,111363
2,234167	0,1	5,104043
2,235833	0,1	5,084792
2,237500	0,1	5,129000
2,239167	0,1	5,164346
2,240833	0,1	5,138968
2,242500	0,1	5,205401
2,244167	0,1	5,163070
2,245833	0,1	5,187763
2,247500	0,1	5,212688
2,249167	0,1	5,220779
2,250833	0,1	5,225495
2,252500	0,1	5,255757
2,254167	0,1	5,275056
2,255833	0,1	5,272115
2,257500	0,1	5,254381
2,259167	0,1	5,318943
2,260833	0,1	5,283747
2,262500	0,1	5,301323
2,264167	0,1	5,346149
2,265833	0,1	5,290736
2,267500	0,1	5,316975
2,269167	0,1	5,319216
2,270833	0,1	5,346561
2,272500	0,1	5,323949
2,274167	0,1	5,359683
2,275833	0,1	5,358650
2,277500	0,1	5,352881
2,279167	0,1	5,328332
2,280833	0,1	5,385838
2,282500	0,1	5,348442
2,284167	0,1	5,315516
2,285833	0,1	5,346106
2,287500	0,1	5,344202
2,289167	0,1	5,330131
2,290833	0,1	5,323231
2,292500	0,1	5,303456
2,294167	0,1	5,305269
2,295833	0,1	5,333547
2,297500	0,1	5,312173
2,299167	0,1	5,286739
2,300833	0,1	5,292501
2,302500	0,1	5,289250
2,304167	0,1	5,268780
2,305833	0,1	5,219799
2,307500	0,1	5,240084
2,309167	0,1	5,231670
2,310833	0,1	5,207803
2,312500	0,1	5,173441
2,314167	0,1	5,221324
2,315833	0,1	5,139436
2,317500	0,1	5,155245
2,319167	0,1	5,138087
2,320833	0,1	5,133137
2,322500	0,1	5,127882
2,324167	0,1	5,108652
2,325833	0,1	5,070432
2,327500	0,1	5,025087
2,329167	0,1	5,035705
2,330833	0,1	4,987888
2,332500	0,1	5,019246
2,334167	0,1	4,957248
2,335833	0,1	4,959579
2,337500	0,1	4,922931
2,339167	0,1	4,913402
2,340833	0,1	4,914640
2,342500	0,1	4,883700
2,344167	0,1	4,869007
2,345833	0,1	4,835635
2,347500	0,1	4,799304
2,349167	0,1	4,789886
2,350833	0,1	4,737962
2,352500	0,1	4,757670
2,354167	0,1	4,712737
2,355833	0,1	4,682896
2,357500	0,1	4,639973
2,359167	0,1	4,596097
2,360833	0,1	4,612011
2,362500	0,1	4,581140
2,364167	0,1	4,607592
2,365833	0,1	4,530622
2,367500	0,1	4,576975
2,369167	0,1	4,565666
2,370833	0,1	4,542121
2,372500	0,1	4,530441
2,374167	0,1	4,483370
2,375833	0,1	4,490738
2,377500	0,1	4,457958
2,379167	0,1	4,483909
2,380833	0,1	4,458359
2,382500	0,1	4,480770
2,384167	0,1	4,397299
2,385833	0,1	4,453145
2,387500	0,1	4,420743
2,389167	0,1	4,427347
2,390833	0,1	4,445964
2,392500	0,1	4,451858
2,394167	0,1	4,477982
2,395833	0,1	4,524085
2,397500	0,1	4,477396
2,399167	0,1	4,482131
2,400833	0,1	4,557119
2,402500	0,1	4,583475
2,404167	0,1	4,613639
2,405833	0,1	4,653928
2,407500	0,1	4,678984
2,409167	0,1	4,813758
2,410833	0,1	4,833443
2,412500	0,1	4,877045
2,414167	0,1	4,948907
2,415833	0,1	5,010476
2,417500	0,1	5,121627
2,419167	0,1	5,175149
2,420833	0,1	5,250063
2,422500	0,1	5,380310
2,424167	0,1	5,495595
2,425833	0,1	5,571814
2,427500	0,1	5,695078
2,429167	0,1	5,785437
2,430833	0,1	5,930799
2,432500	0,1	6,066627
2,434167	0,1	6,147813
2,435833	0,1	6,319925
2,437500	0,1	6,393931
2,439167	0,1	6,542756
2,440833	0,1	6,704967
2,442500	0,1	6,877970
2,444167	0,1	6,944137
2,445833	0,1	7,120478
2,447500	0,1	7,206002
2,449167	0,1	7,369582
2,450833	0,1	7,459345
2,452500	0,1	7,615167
2,454167	0,1	7,737131
2,455833	0,1	7,847151
2,457500	0,1	7,960121
2,459167	0,1	8,100188
2,460833	0,1	8,213808
2,462500	0,1	8,317967
2,464167	0,1	8,371106
2,465833	0,1	8,512914
2,467500	0,1	8,612310
2,469167	0,1	8,720917
2,470833	0,1	8,747705
2,472500	0,1	8,916665
2,474167	0,1	8,932755
2,475833	0,1	9,021736
2,477500	0,1	9,086777
2,479167	0,1	9,164536
2,480833	0,1	9,236957
2,482500	0,1	9,280094
2,484167	0,1	9,337703
2,485833	0,1	9,426731
2,487500	0,1	9,434120
2,489167	0,1	9,511235
2,490833	0,1	9,594464
2,492500	0,1	9,656133
2,494167	0,1	9,687199
2,495833	0,1	9,779522
2,497500	0,1	9,815586
2,499167	0,1	9,911686
2,500833	0,1	9,932379
2,502500	0,1	10,022416
2,504167	0,1	10,107454
2,505833	0,1	10,133665
2,507500	0,1	10,228953
2,509167	0,1	10,315325
2,510833	0,1	10,402924
2,512500	0,1	10,489665
2,514167	0,1	10,613735
2,515833	0,1	10,686205
2,517500	0,1	10,783429
2,519167	0,1	10,908611
2,520833	0,1	11,041223
2,522500	0,1	11,164255
2,524167	0,1	11,273355
2,525833	0,1	11,454682
2,527500	0,1	11,563343
2,529167	0,1	11,729810
2,530833	0,1	11,879737
2,532500	0,1	12,015166
2,534167	0,1	12,208089
2,535833	0,1	12,376429
2,537500	0,1	12,518996
2,539167	0,1	12,699741
2,540833	0,1	12,917160
2,542500	0,1	13,052612
2,544167	0,1	13,296353
2,545833	0,1	13,466080
2,547500	0,1	13,685166
2,549167	0,1	13,854224
2,550833	0,1	14,042580
2,552500	0,1	14,234153
2,554167	0,1	14,410653
2,555833	0,1	14,579382
2,557500	0,1	14,793061
2,559167	0,1	14,956187
2,560833	0,1	15,163892
2,562500	0,1	15,299818
2,564167	0,1	15,435530
2,565833	0,1	15,647880
2,567500	0,1	15,812766
2,569167	0,1	15,939047
2,570833	0,1	16,102021
2,572500	0,1	16,256261
2,574167	0,1	16,422040
2,575833	0,1	16,510827
2,577500	0,1	16,643832
2,579167	0,1	16,786503
2,580833	0,1	16,882889
2,582500	0,1	16,980404
2,584167	0,1	17,059545
2,585833	0,1	17,126725
2,587500	0,1	17,235587
2,589167	0,1	17,281590
2,590833	0,1	17,313576
2,592500	0,1	17,366396
2,594167	0,1	17,416147
2,595833	0,1	17,450717
2,597500	0,1	17,475965
2,599167	0,1	17,493587
2,600833	0,1	17,513984
2,602500	0,1	17,483601
2,604167	0,1	17,481427
2,605833	0,1	17,453936
2,607500	0,1	17,444809
2,609167	0,1	17,431201
2,610833	0,1	17,418697
2,612500	0,1	17,357127
2,614167	0,1	17,264762
2,615833	0,1	17,282302
2,617500	0,1	17,170585
2,619167	0,1	17,086743
2,620833	0,1	17,036768
2,622500	0,1	16,988598
2,624167	0,1	16,902552
2,625833	0,1	16,741957
2,627500	0,1	16,709600
2,629167	0,1	16,571502
2,630833	0,1	16,494844
2,632500	0,1	16,347231
2,634167	0,1	16,252577
2,635833	0,1	16,136233
2,637500	0,1	16,015103
2,639167	0,1	15,887496
2,640833	0,1	15,795629
2,642500	0,1	15,652097
2,644167	0,1	15,492221
2,645833	0,1	15,340651
2,647500	0,1	15,183936
2,649167	0,1	15,022076
2,650833	0,1	14,870025
2,652500	0,1	14,729320
2,654167	0,1	14,544882
2,655833	0,1	14,433146
2,657500	0,1	14,235670
2,659167	0,1	14,090535
2,660833	0,1	13,886589
2,662500	0,1	13,751649
2,664167	0,1	13,632750
2,665833	0,1	13,411644
2,667500	0,1	13,245576
2,669167	0,1	13,074843
2,670833	0,1	12,900493
2,672500	0,1	12,708610
2,674167	0,1	12,557489
2,675833	0,1	12,370765
2,677500	0,1	12,222023
2,679167	0,1	12,048358
2,680833	0,1	11,900083
2,682500	0,1	11,704105
2,684167	0,1	11,562224
2,685833	0,1	11,362282
2,687500	0,1	11,201818
2,689167	0,1	11,037825
2,690833	0,1	10,855424
2,692500	0,1	10,673423
2,694167	0,1	10,554302
2,695833	0,1	10,396073
2,697500	0,1	10,216076
2,699167	0,1	10,112223
2,700833	0,1	9,881990
2,702500	0,1	9,764348
2,704167	0,1	9,582953
2,705833	0,1	9,449129
2,707500	0,1	9,340334
2,709167	0,1	9,144874
2,710833	0,1	9,008280
2,712500	0,1	8,853142
2,714167	0,1	8,759030
2,715833	0,1	8,599233
2,717500	0,1	8,456967
2,719167	0,1	8,325786
2,720833	0,1	8,204992
2,722500	0,1	8,060923
2,724167	0,1	7,956900
2,725833	0,1	7,849821
2,727500	0,1	7,699239
2,729167	0,1	7,601116
2,730833	0,1	7,504863
2,732500	0,1	7,366753
2,734167	0,1	7,267959
2,735833	0,1	7,120650
2,737500	0,1	7,062860
2,739167	0,1	6,946234
2,740833	0,1	6,848838
2,742500	0,1	6,783163
2,744167	0,1	6,641540
2,745833	0,1	6,572440
2,747500	0,1	6,474299
2,749167	0,1	6,468144
2,750833	0,1	6,295038
2,752500	0,1	6,215465
2,754167	0,1	6,142814
2,755833	0,1	6,064416
2,757500	0,1	5,967985
2,759167	0,1	5,920496
2,760833	0,1	5,790860
2,762500	0,1	5,754363
2,764167	0,1	5,693556
2,765833	0,1	5,598199
2,767500	0,1	5,552615
2,769167	0,1	5,472620
2,770833	0,1	5,403350
2,772500	0,1	5,356190
2,774167	0,1	5,260094
2,775833	0,1	5,220045
2,777500	0,1	5,149043
2,779167	0,1	5,136449
2,780833	0,1	5,055996
2,782500	0,1	4,975937
2,784167	0,1	4,963880
2,785833	0,1	4,906938
2,787500	0,1	4,823069
2,789167	0,1	4,807065
2,790833	0,1	4,711917
2,792500	0,1	4,715222
2,794167	0,1	4,617547
2,795833	0,1	4,562690
2,797500	0,1	4,505277
2,799167	0,1	4,466886
2,800833	0,1	4,427514
2,802500	0,1	4,422797
2,804167	0,1	4,337609
2,805833	0,1	4,279425
2,807500	0,1	4,263956
2,809167	0,1	4,239860
2,810833	0,1	4,181785
2,812500	0,1	4,137696
2,814167	0,1	4,105982
2,815833	0,1	4,058664
2,817500	0,1	4,063965
2,819167	0,1	3,936326
2,820833	0,1	3,969732
2,822500	0,1	3,905385
2,824167	0,1	3,861692
2,825833	0,1	3,829539
2,827500	0,1	3,817102
2,829167	0,1	3,745561
2,830833	0,1	3,750443
2,832500	0,1	3,725737
2,834167	0,1	3,688429
2,835833	0,1	3,623316
2,837500	0,1	3,614150
2,839167	0,1	3,561689
2,840833	0,1	3,537137
2,842500	0,1	3,523322
2,844167	0,1	3,469916
2,845833	0,1	3,485449
2,847500	0,1	3,395658
2,849167	0,1	3,396362
2,850833	0,1	3,348186
2,852500	0,1	3,354417
2,854167	0,1	3,292745
2,855833	0,1	3,233091
2,857500	0,1	3,254024
2,859167	0,1	3,213453
2,860833	0,1	3,199850
2,862500	0,1	3,201876
2,864167	0,1	3,135744
2,865833	0,1	3,164395
2,867500	0,1	3,114948
2,869167	0,1	3,069065
2,870833	0,1	3,040390
2,872500	0,1	3,021525
2,874167	0,1	3,001747
2,875833	0,1	2,980618
2,877500	0,1	2,971253
2,879167	0,1	2,958102
2,880833	0,1	2,896448
2,882500	0,1	2,923014
2,884167	0,1	2,904379
2,885833	0,1	2,900224
2,887500	0,1	2,851785
2,889167	0,1	2,809524
2,890833	0,1	2,809861
2,892500	0,1	2,789375
2,894167	0,1	2,770033
2,895833	0,1	2,779665
2,897500	0,1	2,737362
2,899167	0,1	2,697337
2,900833	0,1	2,723539
2,902500	0,1	2,700766
2,904167	0,1	2,699765
2,905833	0,1	2,646251
2,907500	0,1	2,673815
2,909167	0,1	2,611685
2,910833	0,1	2,621432
2,912500	0,1	2,579352
2,914167	0,1	2,588964
2,915833	0,1	2,556288
2,917500	0,1	2,557156
2,919167	0,1	2,564388
2,920833	0,1	2,549882
2,922500	0,1	2,515273
2,924167	0,1	2,532577
2,925833	0,1	2,456248
2,927500	0,1	2,479133
2,929167	0,1	2,452652
2,930833	0,1	2,467714
2,932500	0,1	2,419112
2,934167	0,1	2,423417
2,935833	0,1	2,395848
2,937500	0,1	2,407331
2,939167	0,1	2,374949
2,940833	0,1	2,422308
2,942500	0,1	2,387156
2,944167	0,1	2,340703
2,945833	0,1	2,363731
2,947500	0,1	2,308187
2,949167	0,1	2,327326
2,950833	0,1	2,350873
2,952500	0,1	2,311550
2,954167	0,1	2,319214
2,955833	0,1	2,297689
2,957500	0,1	2,265819
2,959167	0,1	2,303705
2,960833	0,1	2,246588
2,962500	0,1	2,271187
2,964167	0,1	2,250517
2,965833	0,1	2,209326
2,967500	0,1	2,258686
2,969167	0,1	2,266589
2,970833	0,1	2,219520
2,972500	0,1	2,240171
2,974167	0,1	2,210611
2,975833	0,1	2,172866
2,977500	0,1	2,180675
2,979167	0,1	2,202630
2,980833	0,1	2,158584
2,982500	0,1	2,125353
2,984167	0,1	2,156914
2,985833	0,1	2,124060
2,987500	0,1	2,112573
2,989167	0,1	2,148230
2,990833	0,1	2,177649
2,992500	0,1	2,136260
2,994167	0,1	2,069890
2,995833	0,1	2,099790
2,997500	0,1	2,069450
2,999167	0,1	2,105314
3,000833	0,1	2,125124
3,002500	0,1	2,109920
3,004167	0,1	2,099153
3,005833	0,1	2,080426
3,007500	0,1	2,079849
3,009167	0,1	2,045918
3,010833	0,1	2,065422
3,012500	0,1	2,048064
3,014167	0,1	2,068147
3,015833	0,1	2,032429
3,017500	0,1	2,020944
3,019167	0,1	1,997127
3,020833	0,1	2,010966
3,022500	0,1	2,037580
3,024167	0,1	2,005811
3,025833	0,1	1,948279
3,027500	0,1	1,960743
3,029167	0,1	2,019923
3,030833	0,1	1,970665
3,032500	0,1	1,984782
3,034167	0,1	1,971944
3,035833	0,1	1,938878
3,037500	0,1	1,982117
3,039167	0,1	1,956309
3,040833	0,1	1,968567
3,042500	0,1	1,940819
3,044167	0,1	1,980039
3,045833	0,1	1,932142
3,047500	0,1	1,929260
3,049167	0,1	1,952067
3,050833	0,1	1,910043
3,052500	0,1	1,944962
3,054167	0,1	1,916353
3,055833	0,1	1,874758
3,057500	0,1	1,900485
3,059167	0,1	1,876045
3,060833	0,1	1,870014
3,062500	0,1	1,891888
3,064167	0,1	1,929752
3,065833	0,1	1,878634
3,067500	0,1	1,861554
3,069167	0,1	1,876676
3,070833	0,1	1,882771
3,072500	0,1	1,892099
3,074167	0,1	1,861416
3,075833	0,1	1,875320
3,077500	0,1	1,825841
3,079167	0,1	1,869503
3,080833	0,1	1,871020
3,082500	0,1	1,893392
3,084167	0,1	1,808856
3,085833	0,1	1,872366
3,087500	0,1	1,825493
3,089167	0,1	1,832936
3,090833	0,1	1,849359
3,092500	0,1	1,835090
3,094167	0,1	1,864414
3,095833	0,1	1,833376
3,097500	0,1	1,850287
3,099167	0,1	1,791924
3,100833	0,1	1,825256
3,102500	0,1	1,824256
3,104167	0,1	1,890220
3,105833	0,1	1,878915
3,107500	0,1	1,883564
3,109167	0,1	1,873460
3,110833	0,1	1,879911
3,112500	0,1	1,886366
3,114167	0,1	1,952774
3,115833	0,1	1,880861
3,117500	0,1	1,902141
3,119167	0,1	1,915626
3,120833	0,1	1,919646
3,122500	0,1	1,909391
3,124167	0,1	1,930978
3,125833	0,1	1,965622
3,127500	0,1	1,979253
3,129167	0,1	1,958677
3,130833	0,1	1,965265
3,132500	0,1	1,979970
3,134167	0,1	2,027818
3,135833	0,1	2,024890
3,137500	0,1	2,023093
3,139167	0,1	2,068501
3,140833	0,1	2,070090
3,142500	0,1	2,053303
3,144167	0,1	2,070158
3,145833	0,1	2,098139
3,147500	0,1	2,094631
3,149167	0,1	2,079422
3,150833	0,1	2,109047
3,152500	0,1	2,115297
3,154167	0,1	2,162291
3,155833	0,1	2,144870
3,157500	0,1	2,176574
3,159167	0,1	2,196387
3,160833	0,1	2,177668
3,162500	0,1	2,218133
3,164167	0,1	2,222955
3,165833	0,1	2,231063
3,167500	0,1	2,220880
3,169167	0,1	2,209248
3,170833	0,1	2,223883
3,172500	0,1	2,268170
3,174167	0,1	2,323789
3,175833	0,1	2,279175
3,177500	0,1	2,286267
3,179167	0,1	2,263661
3,180833	0,1	2,289203
3,182500	0,1	2,319063
3,184167	0,1	2,310536
3,185833	0,1	2,331057
3,187500	0,1	2,297689
3,189167	0,1	2,295461
3,190833	0,1	2,336221
3,192500	0,1	2,302360
3,194167	0,1	2,287645
3,195833	0,1	2,303059
3,197500	0,1	2,361137
3,199167	0,1	2,328495
3,200833	0,1	2,297837
3,202500	0,1	2,294960
3,204167	0,1	2,326240
3,205833	0,1	2,344992
3,207500	0,1	2,310475
3,209167	0,1	2,290581
3,210833	0,1	2,306717
3,212500	0,1	2,277371
3,214167	0,1	2,315621
3,215833	0,1	2,256921
3,217500	0,1	2,305641
3,219167	0,1	2,302280
3,220833	0,1	2,268331
3,222500	0,1	2,242838
3,224167	0,1	2,260917
3,225833	0,1	2,221957
3,227500	0,1	2,225678
3,229167	0,1	2,207744
3,230833	0,1	2,218354
3,232500	0,1	2,184489
3,234167	0,1	2,174437
3,235833	0,1	2,164029
3,237500	0,1	2,203200
3,239167	0,1	2,140359
3,240833	0,1	2,140771
3,242500	0,1	2,112434
3,244167	0,1	2,111638
3,245833	0,1	2,096070
3,247500	0,1	2,065576
3,249167	0,1	2,068582
3,250833	0,1	2,057320
3,252500	0,1	2,047993
3,254167	0,1	2,031060
3,255833	0,1	2,010829
3,257500	0,1	1,991672
3,259167	0,1	2,009314
3,260833	0,1	1,994685
3,262500	0,1	2,023445
3,264167	0,1	1,942550
3,265833	0,1	1,953357
3,267500	0,1	1,929767
3,269167	0,1	1,928541
3,270833	0,1	1,917711
3,272500	0,1	1,875761
3,274167	0,1	1,881126
3,275833	0,1	1,856036
3,277500	0,1	1,827772
3,279167	0,1	1,800952
3,280833	0,1	1,800890
3,282500	0,1	1,836092
3,284167	0,1	1,804103
3,285833	0,1	1,768690
3,287500	0,1	1,732834
3,289167	0,1	1,743147
3,290833	0,1	1,744734
3,292500	0,1	1,724379
3,294167	0,1	1,682148
3,295833	0,1	1,650671
3,297500	0,1	1,672315
3,299167	0,1	1,662575
3,300833	0,1	1,667453
3,302500	0,1	1,597361
3,304167	0,1	1,608088
3,305833	0,1	1,673315
3,307500	0,1	1,589245
3,309167	0,1	1,597420
3,310833	0,1	1,582430
3,312500	0,1	1,579352
3,314167	0,1	1,567882
3,315833	0,1	1,531755
3,317500	0,1	1,507472
3,319167	0,1	1,502298
3,320833	0,1	1,471209
3,322500	0,1	1,507112
3,324167	0,1	1,474365
3,325833	0,1	1,461531
3,327500	0,1	1,500454
3,329167	0,1	1,466051
3,330833	0,1	1,445918
3,332500	0,1	1,459094
3,334167	0,1	1,471578
3,335833	0,1	1,416318
3,337500	0,1	1,402793
3,339167	0,1	1,422925
3,340833	0,1	1,391824
3,342500	0,1	1,375686
3,344167	0,1	1,363531
3,345833	0,1	1,387954
3,347500	0,1	1,388222
3,349167	0,1	1,341098
3,350833	0,1	1,348890
3,352500	0,1	1,364978
3,354167	0,1	1,369180
3,355833	0,1	1,329149
3,357500	0,1	1,321610
3,359167	0,1	1,319978
3,360833	0,1	1,355851
3,362500	0,1	1,351650
3,364167	0,1	1,276075
3,365833	0,1	1,312353
3,367500	0,1	1,301050
3,369167	0,1	1,306135
3,370833	0,1	1,294450
3,372500	0,1	1,271959
3,374167	0,1	1,292031
3,375833	0,1	1,329131
3,377500	0,1	1,292130
3,379167	0,1	1,247265
3,380833	0,1	1,280865
3,382500	0,1	1,229168
3,384167	0,1	1,259086
3,385833	0,1	1,282225
3,387500	0,1	1,270903
3,389167	0,1	1,220960
3,390833	0,1	1,239311
3,392500	0,1	1,248186
3,394167	0,1	1,233822
3,395833	0,1	1,263226
3,397500	0,1	1,211545
3,399167	0,1	1,217825
3,400833	0,1	1,189407
3,402500	0,1	1,213833
3,404167	0,1	1,215399
3,405833	0,1	1,217758
3,407500	0,1	1,244619
3,409167	0,1	1,193991
3,410833	0,1	1,164695
3,412500	0,1	1,210537
3,414167	0,1	1,200494
3,415833	0,1	1,184213
3,417500	0,1	1,150673
3,419167	0,1	1,194832
3,420833	0,1	1,190622
3,422500	0,1	1,179565
3,424167	0,1	1,189583
3,425833	0,1	1,169900
3,427500	0,1	1,174354
3,429167	0,1	1,176239
3,430833	0,1	1,143381
3,432500	0,1	1,138065
3,434167	0,1	1,148220
3,435833	0,1	1,200140
3,437500	0,1	1,172396
3,439167	0,1	1,169065
3,440833	0,1	1,162131
3,442500	0,1	1,159839
3,444167	0,1	1,121281
3,445833	0,1	1,172055
3,447500	0,1	1,155009
3,449167	0,1	1,185101
3,450833	0,1	1,192840
3,452500	0,1	1,180464
3,454167	0,1	1,186701
3,455833	0,1	1,204728
3,457500	0,1	1,182365
3,459167	0,1	1,184956
3,460833	0,1	1,173951
3,462500	0,1	1,206081
3,464167	0,1	1,188522
3,465833	0,1	1,228958
3,467500	0,1	1,217776
3,469167	0,1	1,201427
3,470833	0,1	1,243258
3,472500	0,1	1,228293
3,474167	0,1	1,206807
3,475833	0,1	1,244076
3,477500	0,1	1,208081
3,479167	0,1	1,272446
3,480833	0,1	1,237544
3,482500	0,1	1,283525
3,484167	0,1	1,287979
3,485833	0,1	1,284946
3,487500	0,1	1,310148
3,489167	0,1	1,373980
3,490833	0,1	1,301573
3,492500	0,1	1,298688
3,494167	0,1	1,303117
3,495833	0,1	1,350472
3,497500	0,1	1,328432
3,499167	0,1	1,329208
3,500833	0,1	1,373833
3,502500	0,1	1,360363
3,504167	0,1	1,397786
3,505833	0,1	1,382080
3,507500	0,1	1,384941
3,509167	0,1	1,397479
3,510833	0,1	1,412183
3,512500	0,1	1,362443
3,514167	0,1	1,410874
3,515833	0,1	1,385223
3,517500	0,1	1,433280
3,519167	0,1	1,423013
3,520833	0,1	1,415249
3,522500	0,1	1,396896
3,524167	0,1	1,466336
3,525833	0,1	1,469658
3,527500	0,1	1,453504
3,529167	0,1	1,455572
3,530833	0,1	1,444557
3,532500	0,1	1,450161
3,534167	0,1	1,486901
3,535833	0,1	1,454084
3,537500	0,1	1,458602
3,539167	0,1	1,455873
3,540833	0,1	1,501144
3,542500	0,1	1,492335
3,544167	0,1	1,508488
3,545833	0,1	1,483310
3,547500	0,1	1,505825
3,549167	0,1	1,487974
3,550833	0,1	1,539356
3,552500	0,1	1,514878
3,554167	0,1	1,428947
3,555833	0,1	1,496348
3,557500	0,1	1,472635
3,559167	0,1	1,456811
3,560833	0,1	1,455218
3,562500	0,1	1,489330
3,564167	0,1	1,478585
3,565833	0,1	1,525514
3,567500	0,1	1,449004
3,569167	0,1	1,470931
3,570833	0,1	1,471995
3,572500	0,1	1,434808
3,574167	0,1	1,429297
3,575833	0,1	1,462590
3,577500	0,1	1,455299
3,579167	0,1	1,434391
3,580833	0,1	1,464894
3,582500	0,1	1,411887
3,584167	0,1	1,445836
3,585833	0,1	1,451244
3,587500	0,1	1,454940
3,589167	0,1	1,437038
3,590833	0,1	1,414184
3,592500	0,1	1,405016
3,594167	0,1	1,367091
3,595833	0,1	1,364310
3,597500	0,1	1,433148
3,599167	0,1	1,353698
3,600833	0,1	1,354473
3,602500	0,1	1,384015
3,604167	0,1	1,373463
3,605833	0,1	1,316175
3,607500	0,1	1,356482
3,609167	0,1	1,354421
3,610833	0,1	1,325855
3,612500	0,1	1,332346
3,614167	0,1	1,352768
3,615833	0,1	1,332534
3,617500	0,1	1,298930
3,619167	0,1	1,294547
3,620833	0,1	1,276691
3,622500	0,1	1,306296
3,624167	0,1	1,282880
3,625833	0,1	1,298782
3,627500	0,1	1,257359
3,629167	0,1	1,260131
3,630833	0,1	1,267488
3,632500	0,1	1,245615
3,634167	0,1	1,265974
3,635833	0,1	1,233318
3,637500	0,1	1,211368
3,639167	0,1	1,237579
3,640833	0,1	1,183662
3,642500	0,1	1,207712
3,644167	0,1	1,205581
3,645833	0,1	1,180383
3,647500	0,1	1,176460
3,649167	0,1	1,175238
3,650833	0,1	1,162574
3,652500	0,1	1,157600
3,654167	0,1	1,178744
3,655833	0,1	1,127920
3,657500	0,1	1,144706
3,659167	0,1	1,094884
3,660833	0,1	1,154092
3,662500	0,1	1,135915
3,664167	0,1	1,120958
3,665833	0,1	1,113136
3,667500	0,1	1,072773
3,669167	0,1	1,093684
3,670833	0,1	1,096064
3,672500	0,1	1,089690
3,674167	0,1	1,064057
3,675833	0,1	1,042755
3,677500	0,1	1,064690
3,679167	0,1	1,025692
3,680833	0,1	1,060110
3,682500	0,1	1,059205
3,684167	0,1	1,002572
3,685833	0,1	1,096733
3,687500	0,1	1,018816
3,689167	0,1	1,030592
3,690833	0,1	1,002411
3,692500	0,1	1,015353
3,694167	0,1	1,008915
3,695833	0,1	1,031255
3,697500	0,1	0,965769
3,699167	0,1	1,011480
3,700833	0,1	1,034141
3,702500	0,1	0,977473
3,704167	0,1	0,977992
3,705833	0,1	0,965733
3,707500	0,1	1,003394
3,709167	0,1	0,922526
3,710833	0,1	1,000473
3,712500	0,1	0,990254
3,714167	0,1	0,960874
3,715833	0,1	0,982382
3,717500	0,1	1,011436
3,719167	0,1	0,981441
3,720833	0,1	0,957806
3,722500	0,1	0,963572
3,724167	0,1	0,925670
3,725833	0,1	0,955527
3,727500	0,1	0,959044
3,729167	0,1	0,974411
3,730833	0,1	0,931425
3,732500	0,1	0,954574
3,734167	0,1	0,938459
3,735833	0,1	0,956397
3,737500	0,1	0,943655
3,739167	0,1	0,976963
3,740833	0,1	0,923986
3,742500	0,1	0,953084
3,744167	0,1	0,935927
3,745833	0,1	0,925509
3,747500	0,1	0,958880
3,749167	0,1	0,965972
3,750833	0,1	0,960622
3,752500	0,1	0,997041
3,754167	0,1	0,976328
3,755833	0,1	0,949412
3,757500	0,1	0,969834
3,759167	0,1	0,956248
3,760833	0,1	0,989976
3,762500	0,1	0,993472
3,764167	0,1	0,973241
3,765833	0,1	0,916968
3,767500	0,1	0,960677
3,769167	0,1	0,966793
3,770833	0,1	0,967262
3,772500	0,1	0,955650
3,774167	0,1	0,984293
3,775833	0,1	0,996933
3,777500	0,1	0,977306
3,779167	0,1	0,955696
3,780833	0,1	0,949672
3,782500	0,1	0,948051
3,784167	0,1	0,973807
3,785833	0,1	0,944126
3,787500	0,1	0,963038
3,789167	0,1	0,977077
3,790833	0,1	0,977836
3,792500	0,1	0,976103
3,794167	0,1	0,936953
3,795833	0,1	0,976470
3,797500	0,1	0,971438
3,799167	0,1	0,979990
3,800833	0,1	0,978369
3,802500	0,1	0,990960
3,804167	0,1	0,946684
3,805833	0,1	0,953513
3,807500	0,1	0,946651
3,809167	0,1	0,967014
3,810833	0,1	0,926315
3,812500	0,1	0,950709
3,814167	0,1	0,953447
3,815833	0,1	0,983736
3,817500	0,1	0,937976
3,819167	0,1	0,949113
3,820833	0,1	0,978959
3,822500	0,1	0,935888
3,824167	0,1	0,964569
3,825833	0,1	0,933397
3,827500	0,1	0,920822
3,829167	0,1	0,953927
3,830833	0,1	0,945787
3,832500	0,1	0,923933
3,834167	0,1	0,923196
3,835833	0,1	0,930791
3,837500	0,1	0,926507
3,839167	0,1	0,925905
3,840833	0,1	0,923907
3,842500	0,1	0,952440
3,844167	0,1	0,917474
3,845833	0,1	0,915047
3,847500	0,1	0,941490
3,849167	0,1	0,916407
3,850833	0,1	0,855029
3,852500	0,1	0,904862
3,854167	0,1	0,898145
3,855833	0,1	0,889773
3,857500	0,1	0,898541
3,859167	0,1	0,901853
3,860833	0,1	0,933406
3,862500	0,1	0,916959
3,864167	0,1	0,927502
3,865833	0,1	0,888537
3,867500	0,1	0,869902
3,869167	0,1	0,824519
3,870833	0,1	0,867420
3,872500	0,1	0,884748
3,874167	0,1	0,875583
3,875833	0,1	0,851825
3,877500	0,1	0,860543
3,879167	0,1	0,828998
3,880833	0,1	0,849305
3,882500	0,1	0,826066
3,884167	0,1	0,850705
3,885833	0,1	0,875219
3,887500	0,1	0,820410
3,889167	0,1	0,845506
3,890833	0,1	0,853241
3,892500	0,1	0,858659
3,894167	0,1	0,805887
3,895833	0,1	0,809317
3,897500	0,1	0,831965
3,899167	0,1	0,826309
3,900833	0,1	0,784282
3,902500	0,1	0,818043
3,904167	0,1	0,805061
3,905833	0,1	0,767854
3,907500	0,1	0,809662
3,909167	0,1	0,771757
3,910833	0,1	0,800032
3,912500	0,1	0,733133
3,914167	0,1	0,822710
3,915833	0,1	0,750306
3,917500	0,1	0,749950
3,919167	0,1	0,757425
3,920833	0,1	0,779941
3,922500	0,1	0,754370
3,924167	0,1	0,721471
3,925833	0,1	0,757798
3,927500	0,1	0,755679
3,929167	0,1	0,762576
3,930833	0,1	0,740651
3,932500	0,1	0,732240
3,934167	0,1	0,738439
3,935833	0,1	0,731568
3,937500	0,1	0,747526
3,939167	0,1	0,735788
3,940833	0,1	0,747725
3,942500	0,1	0,737273
3,944167	0,1	0,700452
3,945833	0,1	0,712959
3,947500	0,1	0,718218
3,949167	0,1	0,704084
3,950833	0,1	0,739138
3,952500	0,1	0,724844
3,954167	0,1	0,697100
3,955833	0,1	0,702411
3,957500	0,1	0,693233
3,959167	0,1	0,701400
3,960833	0,1	0,679754
3,962500	0,1	0,740014
3,964167	0,1	0,700834
3,965833	0,1	0,666726
3,967500	0,1	0,701775
3,969167	0,1	0,698775
3,970833	0,1	0,708941
3,972500	0,1	0,736710
3,974167	0,1	0,735010
3,975833	0,1	0,647613
3,977500	0,1	0,664230
3,979167	0,1	0,672154
3,980833	0,1	0,673798
3,982500	0,1	0,667193
3,984167	0,1	0,700501
3,985833	0,1	0,699918
3,987500	0,1	0,619878
3,989167	0,1	0,670779
3,990833	0,1	0,716579
3,992500	0,1	0,729553
3,994167	0,1	0,688563
3,995833	0,1	0,692586
3,997500	0,1	0,692652
3,999167	0,1	0,663652
4,000833	0,1	0,692002
4,002500	0,1	0,700113
4,004167	0,1	0,677917
4,005833	0,1	0,712088
4,007500	0,1	0,701496
4,009167	0,1	0,709032
4,010833	0,1	0,671615
4,012500	0,1	0,698821
4,014167	0,1	0,715758
4,015833	0,1	0,742466
4,017500	0,1	0,670743
4,019167	0,1	0,688458
4,020833	0,1	0,693623
4,022500	0,1	0,718463
4,024167	0,1	0,693208
4,025833	0,1	0,719459
4,027500	0,1	0,690019
4,029167	0,1	0,709358
4,030833	0,1	0,689176
4,032500	0,1	0,747319
4,034167	0,1	0,703710
4,035833	0,1	0,693914
4,037500	0,1	0,771690
4,039167	0,1	0,728804
4,040833	0,1	0,742812
4,042500	0,1	0,774474
4,044167	0,1	0,753213
4,045833	0,1	0,760067
4,047500	0,1	0,812747
4,049167	0,1	0,747785
4,050833	0,1	0,781292
4,052500	0,1	0,775127
4,054167	0,1	0,790443
4,055833	0,1	0,797304
4,057500	0,1	0,761167
4,059167	0,1	0,820587
4,060833	0,1	0,806680
4,062500	0,1	0,792290
4,064167	0,1	0,816660
4,065833	0,1	0,820198
4,067500	0,1	0,878010
4,069167	0,1	0,840524
4,070833	0,1	0,869001
4,072500	0,1	0,879642
4,074167	0,1	0,870075
4,075833	0,1	0,911925
4,077500	0,1	0,892884
4,079167	0,1	1,006928
4,080833	0,1	0,954171
4,082500	0,1	0,932240
4,084167	0,1	0,951975
4,085833	0,1	1,009879
4,087500	0,1	0,989169
4,089167	0,1	0,996340
4,090833	0,1	1,022924
4,092500	0,1	0,999900
4,094167	0,1	1,039296
4,095833	0,1	1,049835
4,097500	0,1	1,079044
4,099167	0,1	1,087955
4,100833	0,1	1,084631
4,102500	0,1	1,136953
4,104167	0,1	1,125738
4,105833	0,1	1,160339
4,107500	0,1	1,125012
4,109167	0,1	1,172513
4,110833	0,1	1,179000
4,112500	0,1	1,161911
4,114167	0,1	1,174845
4,115833	0,1	1,254107
4,117500	0,1	1,278493
4,119167	0,1	1,279583
4,120833	0,1	1,296902
4,122500	0,1	1,295617
4,124167	0,1	1,265940
4,125833	0,1	1,351024
4,127500	0,1	1,310082
4,129167	0,1	1,397309
4,130833	0,1	1,388374
4,132500	0,1	1,378278
4,134167	0,1	1,433152
4,135833	0,1	1,456801
4,137500	0,1	1,446502
4,139167	0,1	1,486486
4,140833	0,1	1,513702
4,142500	0,1	1,522597
4,144167	0,1	1,509841
4,145833	0,1	1,553111
4,147500	0,1	1,575059
4,149167	0,1	1,559437
4,150833	0,1	1,517418
4,152500	0,1	1,571309
4,154167	0,1	1,621190
4,155833	0,1	1,618633
4,157500	0,1	1,618065
4,159167	0,1	1,626292
4,160833	0,1	1,640623
4,162500	0,1	1,669949
4,164167	0,1	1,679911
4,165833	0,1	1,667737
4,167500	0,1	1,732607
4,169167	0,1	1,727461
4,170833	0,1	1,720917
4,172500	0,1	1,743223
4,174167	0,1	1,750535
4,175833	0,1	1,769745
4,177500	0,1	1,781656
4,179167	0,1	1,780305
4,180833	0,1	1,745313
4,182500	0,1	1,775128
4,184167	0,1	1,825252
4,185833	0,1	1,819950
4,187500	0,1	1,843471
4,189167	0,1	1,835377
4,190833	0,1	1,836448
4,192500	0,1	1,841257
4,194167	0,1	1,848064
4,195833	0,1	1,890304
4,197500	0,1	1,877840
4,199167	0,1	1,860481
4,200833	0,1	1,900703
4,202500	0,1	1,835667
4,204167	0,1	1,854513
4,205833	0,1	1,873172
4,207500	0,1	1,869798
4,209167	0,1	1,898550
4,210833	0,1	1,906880
4,212500	0,1	1,886155
4,214167	0,1	1,877902
4,215833	0,1	1,889380
4,217500	0,1	1,922073
4,219167	0,1	1,880712
4,220833	0,1	1,891820
4,222500	0,1	1,891378
4,224167	0,1	1,885435
4,225833	0,1	1,883788
4,227500	0,1	1,888240
4,229167	0,1	1,847713
4,230833	0,1	1,904719
4,232500	0,1	1,875616
4,234167	0,1	1,877403
4,235833	0,1	1,856097
4,237500	0,1	1,870156
4,239167	0,1	1,861128
4,240833	0,1	1,881485
4,242500	0,1	1,858974
4,244167	0,1	1,866859
4,245833	0,1	1,854524
4,247500	0,1	1,869652
4,249167	0,1	1,814654
4,250833	0,1	1,846199
4,252500	0,1	1,810364
4,254167	0,1	1,849999
4,255833	0,1	1,816811
4,257500	0,1	1,784971
4,259167	0,1	1,821096
4,260833	0,1	1,825844
4,262500	0,1	1,776867
4,264167	0,1	1,778080
4,265833	0,1	1,735065
4,267500	0,1	1,766733
4,269167	0,1	1,750190
4,270833	0,1	1,746684
4,272500	0,1	1,692180
4,274167	0,1	1,701359
4,275833	0,1	1,728380
4,277500	0,1	1,704088
4,279167	0,1	1,701216
4,280833	0,1	1,723084
4,282500	0,1	1,714192
4,284167	0,1	1,648517
4,285833	0,1	1,670465
4,287500	0,1	1,670610
4,289167	0,1	1,664081
4,290833	0,1	1,637347
4,292500	0,1	1,590101
4,294167	0,1	1,612839
4,295833	0,1	1,596066
4,297500	0,1	1,617536
4,299167	0,1	1,581234
4,300833	0,1	1,576781
4,302500	0,1	1,565588
4,304167	0,1	1,570845
4,305833	0,1	1,553612
4,307500	0,1	1,535653
4,309167	0,1	1,535281
4,310833	0,1	1,505183
4,312500	0,1	1,509044
4,314167	0,1	1,474514
4,315833	0,1	1,518294
4,317500	0,1	1,486480
4,319167	0,1	1,449133
4,320833	0,1	1,474730
4,322500	0,1	1,439184
4,324167	0,1	1,394281
4,325833	0,1	1,439071
4,327500	0,1	1,395982
4,329167	0,1	1,391391
4,330833	0,1	1,376578
4,332500	0,1	1,408405
4,334167	0,1	1,371644
4,335833	0,1	1,434660
4,337500	0,1	1,374297
4,339167	0,1	1,377135
4,340833	0,1	1,335912
4,342500	0,1	1,336026
4,344167	0,1	1,320049
4,345833	0,1	1,301369
4,347500	0,1	1,290476
4,349167	0,1	1,347122
4,350833	0,1	1,329254
4,352500	0,1	1,314768
4,354167	0,1	1,297722
4,355833	0,1	1,275434
4,357500	0,1	1,253382
4,359167	0,1	1,246984
4,360833	0,1	1,236825
4,362500	0,1	1,213980
4,364167	0,1	1,224642
4,365833	0,1	1,176267
4,367500	0,1	1,181884
4,369167	0,1	1,237149
4,370833	0,1	1,191514
4,372500	0,1	1,190553
4,374167	0,1	1,196165
4,375833	0,1	1,125550
4,377500	0,1	1,189841
4,379167	0,1	1,157626
4,380833	0,1	1,134020
4,382500	0,1	1,120890
4,384167	0,1	1,138552
4,385833	0,1	1,121910
4,387500	0,1	1,140637
4,389167	0,1	1,101565
4,390833	0,1	1,110305
4,392500	0,1	1,128632
4,394167	0,1	1,098274
4,395833	0,1	1,070586
4,397500	0,1	1,068647
4,399167	0,1	1,062764
4,400833	0,1	1,066935
4,402500	0,1	1,054524
4,404167	0,1	1,006348
4,405833	0,1	1,024371
4,407500	0,1	1,034989
4,409167	0,1	1,017003
4,410833	0,1	1,036898
4,412500	0,1	1,043317
4,414167	0,1	1,021777
4,415833	0,1	0,966564
4,417500	0,1	0,942924
4,419167	0,1	0,967546
4,420833	0,1	0,989025
4,422500	0,1	0,958585
4,424167	0,1	1,016382
4,425833	0,1	0,945291
4,427500	0,1	0,936657
4,429167	0,1	0,959616
4,430833	0,1	0,915123
4,432500	0,1	0,935428
4,434167	0,1	0,949890
4,435833	0,1	0,896935
4,437500	0,1	0,912333
4,439167	0,1	0,899659
4,440833	0,1	0,926787
4,442500	0,1	0,901769
4,444167	0,1	0,908471
4,445833	0,1	0,864444
4,447500	0,1	0,907307
4,449167	0,1	0,861247
4,450833	0,1	0,907195
4,452500	0,1	0,841440
4,454167	0,1	0,884899
4,455833	0,1	0,874143
4,457500	0,1	0,812955
4,459167	0,1	0,849058
4,460833	0,1	0,831305
4,462500	0,1	0,826622
4,464167	0,1	0,821824
4,465833	0,1	0,830655
4,467500	0,1	0,804553
4,469167	0,1	0,801417
4,470833	0,1	0,802060
4,472500	0,1	0,790697
4,474167	0,1	0,789959
4,475833	0,1	0,790470
4,477500	0,1	0,789803
4,479167	0,1	0,787515
4,480833	0,1	0,772538
4,482500	0,1	0,778855
4,484167	0,1	0,782347
4,485833	0,1	0,739015
4,487500	0,1	0,753034
4,489167	0,1	0,730903
4,490833	0,1	0,725670
4,492500	0,1	0,707291
4,494167	0,1	0,722131
4,495833	0,1	0,698227
4,497500	0,1	0,686730
4,499167	0,1	0,727497
4,500833	0,1	0,732302
4,502500	0,1	0,642082
4,504167	0,1	0,691629
4,505833	0,1	0,690066
4,507500	0,1	0,700597
4,509167	0,1	0,660672
4,510833	0,1	0,658852
4,512500	0,1	0,669726
4,514167	0,1	0,661978
4,515833	0,1	0,637421
4,517500	0,1	0,641825
4,519167	0,1	0,649090
4,520833	0,1	0,624548
4,522500	0,1	0,599903
4,524167	0,1	0,617363
4,525833	0,1	0,622423
4,527500	0,1	0,619011
4,529167	0,1	0,617181
4,530833	0,1	0,616407
4,532500	0,1	0,625537
4,534167	0,1	0,634390
4,535833	0,1	0,622362
4,537500	0,1	0,605751
4,539167	0,1	0,561099
4,540833	0,1	0,569097
4,542500	0,1	0,568715
4,544167	0,1	0,562636
4,545833	0,1	0,570862
4,547500	0,1	0,569807
4,549167	0,1	0,578780
4,550833	0,1	0,552243
4,552500	0,1	0,508336
4,554167	0,1	0,597098
4,555833	0,1	0,538708
4,557500	0,1	0,542134
4,559167	0,1	0,553456
4,560833	0,1	0,540013
4,562500	0,1	0,496653
4,564167	0,1	0,505231
4,565833	0,1	0,523145
4,567500	0,1	0,522153
4,569167	0,1	0,488705
4,570833	0,1	0,479139
4,572500	0,1	0,535557
4,574167	0,1	0,516371
4,575833	0,1	0,486225
4,577500	0,1	0,486508
4,579167	0,1	0,507733
4,580833	0,1	0,481271
4,582500	0,1	0,460968
4,584167	0,1	0,496953
4,585833	0,1	0,518959
4,587500	0,1	0,479664
4,589167	0,1	0,495028
4,590833	0,1	0,442641
4,592500	0,1	0,443302
4,594167	0,1	0,454109
4,595833	0,1	0,466430
4,597500	0,1	0,431473
4,599167	0,1	0,446130
4,600833	0,1	0,467616
4,602500	0,1	0,448453
4,604167	0,1	0,420342
4,605833	0,1	0,462659
4,607500	0,1	0,428642
4,609167	0,1	0,450795
4,610833	0,1	0,413044
4,612500	0,1	0,468251
4,614167	0,1	0,398769
4,615833	0,1	0,393029
4,617500	0,1	0,433418
4,619167	0,1	0,448124
4,620833	0,1	0,420311
4,622500	0,1	0,412908
4,624167	0,1	0,390619
4,625833	0,1	0,355757
4,627500	0,1	0,383565
4,629167	0,1	0,390612
4,630833	0,1	0,382930
4,632500	0,1	0,339198
4,634167	0,1	0,427069
4,635833	0,1	0,370429
4,637500	0,1	0,386398
4,639167	0,1	0,363732
4,640833	0,1	0,384370
4,642500	0,1	0,379101
4,644167	0,1	0,401674
4,645833	0,1	0,359653
4,647500	0,1	0,366490
4,649167	0,1	0,417140
4,650833	0,1	0,376023
4,652500	0,1	0,386851
4,654167	0,1	0,381224
4,655833	0,1	0,349647
4,657500	0,1	0,389575
4,659167	0,1	0,352477
4,660833	0,1	0,314077
4,662500	0,1	0,383813
4,664167	0,1	0,311484
4,665833	0,1	0,382750
4,667500	0,1	0,324437
4,669167	0,1	0,325133
4,670833	0,1	0,359506
4,672500	0,1	0,332375
4,674167	0,1	0,346676
4,675833	0,1	0,348000
4,677500	0,1	0,300896
4,679167	0,1	0,308924
4,680833	0,1	0,319662
4,682500	0,1	0,316964
4,684167	0,1	0,316321
4,685833	0,1	0,322399
4,687500	0,1	0,340438
4,689167	0,1	0,288932
4,690833	0,1	0,285450
4,692500	0,1	0,296798
4,694167	0,1	0,321077
4,695833	0,1	0,319729
4,697500	0,1	0,299310
4,699167	0,1	0,346673
4,700833	0,1	0,296198
4,702500	0,1	0,297222
4,704167	0,1	0,277384
4,705833	0,1	0,291425
4,707500	0,1	0,296190
4,709167	0,1	0,336221
4,710833	0,1	0,305841
4,712500	0,1	0,270857
4,714167	0,1	0,283680
4,715833	0,1	0,294647
4,717500	0,1	0,270827
4,719167	0,1	0,307662
4,720833	0,1	0,281990
4,722500	0,1	0,272816
4,724167	0,1	0,287214
4,725833	0,1	0,265390
4,727500	0,1	0,299330
4,729167	0,1	0,282498
4,730833	0,1	0,271403
4,732500	0,1	0,253807
4,734167	0,1	0,304124
4,735833	0,1	0,251286
4,737500	0,1	0,316468
4,739167	0,1	0,244308
4,740833	0,1	0,303635
4,742500	0,1	0,276840
4,744167	0,1	0,247958
4,745833	0,1	0,277916
4,747500	0,1	0,238640
4,749167	0,1	0,251589
4,750833	0,1	0,273579
4,752500	0,1	0,234048
4,754167	0,1	0,279808
4,755833	0,1	0,257640
4,757500	0,1	0,238148
4,759167	0,1	0,259656
4,760833	0,1	0,272168
4,762500	0,1	0,257290
4,764167	0,1	0,226872
4,765833	0,1	0,246831
4,767500	0,1	0,266215
4,769167	0,1	0,227255
4,770833	0,1	0,259817
4,772500	0,1	0,249729
4,774167	0,1	0,293644
4,775833	0,1	0,247453
4,777500	0,1	0,266958
4,779167	0,1	0,280980
4,780833	0,1	0,251472
4,782500	0,1	0,215743
4,784167	0,1	0,213462
4,785833	0,1	0,219692
4,787500	0,1	0,291384
4,789167	0,1	0,236912
4,790833	0,1	0,244714
4,792500	0,1	0,224009
4,794167	0,1	0,213752
4,795833	0,1	0,239360
4,797500	0,1	0,220666
4,799167	0,1	0,266406
4,800833	0,1	0,267930
4,802500	0,1	0,201993
4,804167	0,1	0,216474
4,805833	0,1	0,222970
4,807500	0,1	0,217800
4,809167	0,1	0,221494
4,810833	0,1	0,232268
4,812500	0,1	0,233713
4,814167	0,1	0,223771
4,815833	0,1	0,224483
4,817500	0,1	0,206583
4,819167	0,1	0,267075
4,820833	0,1	0,252111
4,822500	0,1	0,245036
4,824167	0,1	0,263551
4,825833	0,1	0,229926
4,827500	0,1	0,243229
4,829167	0,1	0,249788
4,830833	0,1	0,238027
4,832500	0,1	0,215777
4,834167	0,1	0,236958
4,835833	0,1	0,230724
4,837500	0,1	0,231175
4,839167	0,1	0,228252
4,840833	0,1	0,251911
4,842500	0,1	0,213788
4,844167	0,1	0,198413
4,845833	0,1	0,230461
4,847500	0,1	0,244930
4,849167	0,1	0,235354
4,850833	0,1	0,250597
4,852500	0,1	0,221891
4,854167	0,1	0,246475
4,855833	0,1	0,218033
4,857500	0,1	0,238046
4,859167	0,1	0,257120
4,860833	0,1	0,272589
4,862500	0,1	0,237805
4,864167	0,1	0,241209
4,865833	0,1	0,259947
4,867500	0,1	0,224854
4,869167	0,1	0,219919
4,870833	0,1	0,255047
4,872500	0,1	0,230313
4,874167	0,1	0,245637
4,875833	0,1	0,213948
4,877500	0,1	0,227668
4,879167	0,1	0,273382
4,880833	0,1	0,218590
4,882500	0,1	0,229662
4,884167	0,1	0,246343
4,885833	0,1	0,246863
4,887500	0,1	0,232012
4,889167	0,1	0,256955
4,890833	0,1	0,234912
4,892500	0,1	0,209762
4,894167	0,1	0,235409
4,895833	0,1	0,223652
4,897500	0,1	0,225641
4,899167	0,1	0,258112
4,900833	0,1	0,255676
4,902500	0,1	0,200387
4,904167	0,1	0,226668
4,905833	0,1	0,249014
4,907500	0,1	0,258282
4,909167	0,1	0,210737
4,910833	0,1	0,215643
4,912500	0,1	0,234251
4,914167	0,1	0,264283
4,915833	0,1	0,226784
4,917500	0,1	0,239913
4,919167	0,1	0,258441
4,920833	0,1	0,252009
4,922500	0,1	0,256763
4,924167	0,1	0,238537
4,925833	0,1	0,258434
4,927500	0,1	0,251848
4,929167	0,1	0,210409
4,930833	0,1	0,251582
4,932500	0,1	0,238091
4,934167	0,1	0,227992
4,935833	0,1	0,222428
4,937500	0,1	0,221305
4,939167	0,1	0,231583
4,940833	0,1	0,215069
4,942500	0,1	0,261036
4,944167	0,1	0,237350
4,945833	0,1	0,245548
4,947500	0,1	0,230247
4,949167	0,1	0,169905
4,950833	0,1	0,261153
4,952500	0,1	0,265320
4,954167	0,1	0,242721
4,955833	0,1	0,233488
4,957500	0,1	0,238113
4,959167	0,1	0,264799
4,960833	0,1	0,256129
4,962500	0,1	0,230250
4,964167	0,1	0,251714
4,965833	0,1	0,236868
4,967500	0,1	0,245575
4,969167	0,1	0,236774
4,970833	0,1	0,274862
4,972500	0,1	0,267932
4,974167	0,1	0,242659
4,975833	0,1	0,299909
4,977500	0,1	0,283912
4,979167	0,1	0,304386
4,980833	0,1	0,241797
4,982500	0,1	0,230826
4,984167	0,1	0,247636
4,985833	0,1	0,267028
4,987500	0,1	0,266283
4,989167	0,1	0,283615
4,990833	0,1	0,301299
4,992500	0,1	0,274522
4,994167	0,1	0,260726
4,995833	0,1	0,237088
4,997500	0,1	0,260137
4,999167	0,1	0,271722
5,000833	0,1	0,282492
5,002500	0,1	0,277769
5,004167	0,1	0,287986
5,005833	0,1	0,305446
5,007500	0,1	0,296867
5,009167	0,1	0,267385
5,010833	0,1	0,334285
5,012500	0,1	0,269359
5,014167	0,1	0,293388
5,015833	0,1	0,236164
5,017500	0,1	0,324533
5,019167	0,1	0,291404
5,020833	0,1	0,298566
5,022500	0,1	0,294135
5,024167	0,1	0,314166
5,025833	0,1	0,307897
5,027500	0,1	0,318831
5,029167	0,1	0,296551
5,030833	0,1	0,291175
5,032500	0,1	0,311785
5,034167	0,1	0,305871
5,035833	0,1	0,316290
5,037500	0,1	0,310857
5,039167	0,1	0,331016
5,040833	0,1	0,309315
5,042500	0,1	0,315932
5,044167	0,1	0,341594
5,045833	0,1	0,297779
5,047500	0,1	0,317058
5,049167	0,1	0,365646
5,050833	0,1	0,331122
5,052500	0,1	0,307098
5,054167	0,1	0,351494
5,055833	0,1	0,342793
5,057500	0,1	0,346713
5,059167	0,1	0,359962
5,060833	0,1	0,317553
5,062500	0,1	0,346128
5,064167	0,1	0,349286
5,065833	0,1	0,356104
5,067500	0,1	0,298193
5,069167	0,1	0,360046
5,070833	0,1	0,341637
5,072500	0,1	0,359862
5,074167	0,1	0,349257
5,075833	0,1	0,325199
5,077500	0,1	0,383910
5,079167	0,1	0,330004
5,080833	0,1	0,383526
5,082500	0,1	0,361255
5,084167	0,1	0,383918
5,085833	0,1	0,354119
5,087500	0,1	0,380059
5,089167	0,1	0,353601
5,090833	0,1	0,364335
5,092500	0,1	0,395465
5,094167	0,1	0,360454
5,095833	0,1	0,369255
5,097500	0,1	0,366589
5,099167	0,1	0,398167
5,100833	0,1	0,406599
5,102500	0,1	0,395732
5,104167	0,1	0,352641
5,105833	0,1	0,371182
5,107500	0,1	0,409294
5,109167	0,1	0,356661
5,110833	0,1	0,412249
5,112500	0,1	0,394255
5,114167	0,1	0,369682
5,115833	0,1	0,389228
5,117500	0,1	0,376049
5,119167	0,1	0,386014
5,120833	0,1	0,375340
5,122500	0,1	0,378617
5,124167	0,1	0,388618
5,125833	0,1	0,391128
5,127500	0,1	0,383990
5,129167	0,1	0,400324
5,130833	0,1	0,401841
5,132500	0,1	0,441298
5,134167	0,1	0,387187
5,135833	0,1	0,429074
5,137500	0,1	0,379531
5,139167	0,1	0,373281
5,140833	0,1	0,409712
5,142500	0,1	0,404382
5,144167	0,1	0,409655
5,145833	0,1	0,354766
5,147500	0,1	0,451483
5,149167	0,1	0,403590
5,150833	0,1	0,365278
5,152500	0,1	0,400834
5,154167	0,1	0,421102
5,155833	0,1	0,417827
5,157500	0,1	0,391328
5,159167	0,1	0,404411
5,160833	0,1	0,372932
5,162500	0,1	0,402958
5,164167	0,1	0,392838
5,165833	0,1	0,424285
5,167500	0,1	0,382970
5,169167	0,1	0,361385
5,170833	0,1	0,395817
5,172500	0,1	0,392129
5,174167	0,1	0,379103
5,175833	0,1	0,355498
5,177500	0,1	0,374883
5,179167	0,1	0,362411
5,180833	0,1	0,371507
5,182500	0,1	0,397749
5,184167	0,1	0,366757
5,185833	0,1	0,358873
5,187500	0,1	0,325465
5,189167	0,1	0,355840
5,190833	0,1	0,344045
5,192500	0,1	0,362854
5,194167	0,1	0,349642
5,195833	0,1	0,320830
5,197500	0,1	0,379214
5,199167	0,1	0,299038
5,200833	0,1	0,350689
5,202500	0,1	0,398387
5,204167	0,1	0,308144
5,205833	0,1	0,347185
5,207500	0,1	0,365043
5,209167	0,1	0,320801
5,210833	0,1	0,372398
5,212500	0,1	0,338713
5,214167	0,1	0,289899
5,215833	0,1	0,352648
5,217500	0,1	0,295141
5,219167	0,1	0,320401
5,220833	0,1	0,282273
5,222500	0,1	0,347310
5,224167	0,1	0,302213
5,225833	0,1	0,278608
5,227500	0,1	0,322227
5,229167	0,1	0,292339
5,230833	0,1	0,316187
5,232500	0,1	0,351467
5,234167	0,1	0,306812
5,235833	0,1	0,273556
5,237500	0,1	0,285383
5,239167	0,1	0,284327
5,240833	0,1	0,307055
5,242500	0,1	0,274942
5,244167	0,1	0,239120
5,245833	0,1	0,279136
5,247500	0,1	0,274714
5,249167	0,1	0,293678
5,250833	0,1	0,267032
5,252500	0,1	0,298919
5,254167	0,1	0,269988
5,255833	0,1	0,273999
5,257500	0,1	0,270143
5,259167	0,1	0,276034
5,260833	0,1	0,228390
5,262500	0,1	0,258304
5,264167	0,1	0,261492
5,265833	0,1	0,262269
5,267500	0,1	0,258376
5,269167	0,1	0,261526
5,270833	0,1	0,274386
5,272500	0,1	0,253653
5,274167	0,1	0,291552
5,275833	0,1	0,252569
5,277500	0,1	0,257124
5,279167	0,1	0,262296
5,280833	0,1	0,236453
5,282500	0,1	0,209022
5,284167	0,1	0,231906
5,285833	0,1	0,248634
5,287500	0,1	0,189096
5,289167	0,1	0,223099
5,290833	0,1	0,181474
5,292500	0,1	0,220941
5,294167	0,1	0,247282
5,295833	0,1	0,204343
5,297500	0,1	0,190659
5,299167	0,1	0,249428
5,300833	0,1	0,209287
5,302500	0,1	0,206415
5,304167	0,1	0,191350
5,305833	0,1	0,206085
5,307500	0,1	0,218603
5,309167	0,1	0,209568
5,310833	0,1	0,199543
5,312500	0,1	0,200754
5,314167	0,1	0,234864
5,315833	0,1	0,190993
5,317500	0,1	0,203776
5,319167	0,1	0,184810
5,320833	0,1	0,152992
5,322500	0,1	0,192974
5,324167	0,1	0,223100
5,325833	0,1	0,193273
5,327500	0,1	0,194298
5,329167	0,1	0,185134
5,330833	0,1	0,179701
5,332500	0,1	0,158624
5,334167	0,1	0,162048
5,335833	0,1	0,197024
5,337500	0,1	0,171699
5,339167	0,1	0,194907
5,340833	0,1	0,161477
5,342500	0,1	0,137875
5,344167	0,1	0,182296
5,345833	0,1	0,171759
5,347500	0,1	0,154301
5,349167	0,1	0,132731
5,350833	0,1	0,144560
5,352500	0,1	0,185765
5,354167	0,1	0,146855
5,355833	0,1	0,148472
5,357500	0,1	0,124211
5,359167	0,1	0,157062
5,360833	0,1	0,156388
5,362500	0,1	0,177801
5,364167	0,1	0,143538
5,365833	0,1	0,146139
5,367500	0,1	0,143025
5,369167	0,1	0,147350
5,370833	0,1	0,130423
5,372500	0,1	0,179245
5,374167	0,1	0,153897
5,375833	0,1	0,128295
5,377500	0,1	0,176119
5,379167	0,1	0,113391
5,380833	0,1	0,133793
5,382500	0,1	0,148807
5,384167	0,1	0,163622
5,385833	0,1	0,101945
5,387500	0,1	0,168627
5,389167	0,1	0,165201
5,390833	0,1	0,148452
5,392500	0,1	0,140896
5,394167	0,1	0,109589
5,395833	0,1	0,162074
5,397500	0,1	0,153176
5,399167	0,1	0,138401
5,400833	0,1	0,123188
5,402500	0,1	0,160729
5,404167	0,1	0,122322
5,405833	0,1	0,121962
5,407500	0,1	0,129032
5,409167	0,1	0,114602
5,410833	0,1	0,122437
5,412500	0,1	0,124758
5,414167	0,1	0,116655
5,415833	0,1	0,120522
5,417500	0,1	0,093264
5,419167	0,1	0,085406
5,420833	0,1	0,133913
5,422500	0,1	0,116922
5,424167	0,1	0,076679
5,425833	0,1	0,106210
5,427500	0,1	0,113639
5,429167	0,1	0,127240
5,430833	0,1	0,105352
5,432500	0,1	0,096083
5,434167	0,1	0,122571
5,435833	0,1	0,076455
5,437500	0,1	0,082682
5,439167	0,1	0,113368
5,440833	0,1	0,106925
5,442500	0,1	0,114649
5,444167	0,1	0,076516
5,445833	0,1	0,067181
5,447500	0,1	0,089395
5,449167	0,1	0,114466
5,450833	0,1	0,060753
5,452500	0,1	0,090831
5,454167	0,1	0,086479
5,455833	0,1	0,071908
5,457500	0,1	0,059771
5,459167	0,1	0,096854
5,460833	0,1	0,067717
5,462500	0,1	0,090681
5,464167	0,1	0,087284
5,465833	0,1	0,095413
5,467500	0,1	0,057811
5,469167	0,1	0,083258
5,470833	0,1	0,065369
5,472500	0,1	0,139756
5,474167	0,1	0,083189
5,475833	0,1	0,069454
5,477500	0,1	0,076065
5,479167	0,1	0,091491
5,480833	0,1	0,078453
5,482500	0,1	0,052478
5,484167	0,1	0,077824
5,485833	0,1	0,090849
5,487500	0,1	0,059258
5,489167	0,1	0,083092
5,490833	0,1	0,069665
5,492500	0,1	0,065281
5,494167	0,1	0,070695
5,495833	0,1	0,081496
5,497500	0,1	0,091821
5,499167	0,1	0,088116
5,500833	0,1	0,076750
5,502500	0,1	0,087307
5,504167	0,1	0,043004
5,505833	0,1	0,056011
5,507500	0,1	0,063764
5,509167	0,1	0,085287
5,510833	0,1	0,069805
5,512500	0,1	0,069019
5,514167	0,1	0,074074
5,515833	0,1	0,077743
5,517500	0,1	0,074099
5,519167	0,1	0,066590
5,520833	0,1	0,079175
5,522500	0,1	0,050095
5,524167	0,1	0,090730
5,525833	0,1	0,052001
5,527500	0,1	0,049923
5,529167	0,1	0,032487
5,530833	0,1	0,069190
5,532500	0,1	0,064121
5,534167	0,1	0,041399
5,535833	0,1	0,053049
5,537500	0,1	0,042707
5,539167	0,1	0,061341
5,540833	0,1	0,030044
5,542500	0,1	0,045397
5,544167	0,1	0,031756
5,545833	0,1	0,053523
5,547500	0,1	0,062315
5,549167	0,1	-0,002126
5,550833	0,1	0,047317
5,552500	0,1	0,032282
5,554167	0,1	0,055115
5,555833	0,1	0,047331
5,557500	0,1	0,042163
5,559167	0,1	0,060761
5,560833	0,1	0,047245
5,562500	0,1	0,034806
5,564167	0,1	0,015092
5,565833	0,1	0,061372
5,567500	0,1	0,029048
5,569167	0,1	0,058538
5,570833	0,1	0,078970
5,572500	0,1	0,045722
5,574167	0,1	0,044279
5,575833	0,1	0,116045
5,577500	0,1	0,042847
5,579167	0,1	0,037501
5,580833	0,1	0,035860
5,582500	0,1	0,060280
5,584167	0,1	0,088211
5,585833	0,1	0,027042
5,587500	0,1	0,035670
5,589167	0,1	0,071230
5,590833	0,1	0,080462
5,592500	0,1	0,035479
5,594167	0,1	0,012647
5,595833	0,1	0,027359
5,597500	0,1	0,014614
5,599167	0,1	0,045227
5,600833	0,1	0,019923
5,602500	0,1	0,045683
5,604167	0,1	0,027157
5,605833	0,1	0,031321
5,607500	0,1	0,045106
5,609167	0,1	0,034664
5,610833	0,1	0,061831
5,612500	0,1	0,035474
5,614167	0,1	0,064841
5,615833	0,1	0,036180
5,617500	0,1	0,010924
5,619167	0,1	0,058637
5,620833	0,1	0,011141
5,622500	0,1	0,029719
5,624167	0,1	0,023298
5,625833	0,1	0,080450
5,627500	0,1	0,007228
5,629167	0,1	0,041762
5,630833	0,1	0,066230
5,632500	0,1	0,023312
5,634167	0,1	0,053953
5,635833	0,1	0,075699
5,637500	0,1	0,029177
5,639167	0,1	0,104496
5,640833	0,1	0,090667
5,642500	0,1	0,042691
5,644167	0,1	0,052570
5,645833	0,1	0,082802
5,647500	0,1	0,061021
5,649167	0,1	0,041383
5,650833	0,1	0,022947
5,652500	0,1	0,059220
5,654167	0,1	0,031288
5,655833	0,1	0,065194
5,657500	0,1	0,081785
5,659167	0,1	0,044391
5,660833	0,1	0,030808
5,662500	0,1	0,021329
5,664167	0,1	0,051304
5,665833	0,1	0,050691
5,667500	0,1	0,033067
5,669167	0,1	0,039943
5,670833	0,1	0,064011
5,672500	0,1	0,032177
5,674167	0,1	0,050436
5,675833	0,1	0,062048
5,677500	0,1	0,071525
5,679167	0,1	0,074301
5,680833	0,1	0,057593
5,682500	0,1	0,082261
5,684167	0,1	0,047767
5,685833	0,1	0,083355
5,687500	0,1	0,038504
5,689167	0,1	0,048509
5,690833	0,1	0,074195
5,692500	0,1	0,066324
5,694167	0,1	0,014686
5,695833	0,1	0,045745
5,697500	0,1	0,047971
5,699167	0,1	0,124464
5,700833	0,1	0,077567
5,702500	0,1	0,072563
5,704167	0,1	0,073847
5,705833	0,1	0,074615
5,707500	0,1	0,047398
5,709167	0,1	0,064869
5,710833	0,1	0,048782
5,712500	0,1	0,033606
5,714167	0,1	0,057608
5,715833	0,1	0,078179
5,717500	0,1	0,061412
5,719167	0,1	0,055396
5,720833	0,1	0,087302
5,722500	0,1	0,048019
5,724167	0,1	0,082550
5,725833	0,1	0,097353
5,727500	0,1	0,043673
5,729167	0,1	0,075228
5,730833	0,1	0,077289
5,732500	0,1	0,093631
5,734167	0,1	0,066557
5,735833	0,1	0,083485
5,737500	0,1	0,064109
5,739167	0,1	0,096050
5,740833	0,1	0,063758
5,742500	0,1	0,084770
5,744167	0,1	0,085960
5,745833	0,1	0,097440
5,747500	0,1	0,086152
5,749167	0,1	0,072299
5,750833	0,1	0,071590
5,752500	0,1	0,140247
5,754167	0,1	0,073386
5,755833	0,1	0,046818
5,757500	0,1	0,086820
5,759167	0,1	0,093485
5,760833	0,1	0,090624
5,762500	0,1	0,096080
5,764167	0,1	0,097595
5,765833	0,1	0,072442
5,767500	0,1	0,083878
5,769167	0,1	0,066969
5,770833	0,1	0,087796
5,772500	0,1	0,071054
5,774167	0,1	0,070304
5,775833	0,1	0,097374
5,777500	0,1	0,118301
5,779167	0,1	0,062212
5,780833	0,1	0,082616
5,782500	0,1	0,088279
5,784167	0,1	0,128934
5,785833	0,1	0,073180
5,787500	0,1	0,079342
5,789167	0,1	0,074288
5,790833	0,1	0,074427
5,792500	0,1	0,086740
5,794167	0,1	0,125720
5,795833	0,1	0,059558
5,797500	0,1	0,092418
5,799167	0,1	0,056086
5,800833	0,1	0,109356
5,802500	0,1	0,092493
5,804167	0,1	0,104601
5,805833	0,1	0,150061
5,807500	0,1	0,100404
5,809167	0,1	0,073628
5,810833	0,1	0,091553
5,812500	0,1	0,105860
5,814167	0,1	0,099045
5,815833	0,1	0,113915
5,817500	0,1	0,106382
5,819167	0,1	0,056237
5,820833	0,1	0,066899
5,822500	0,1	0,060601
5,824167	0,1	0,070405
5,825833	0,1	0,129056
5,827500	0,1	0,053358
5,829167	0,1	0,110287
5,830833	0,1	0,081896
5,832500	0,1	0,132209
5,834167	0,1	0,095712
5,835833	0,1	0,079473
5,837500	0,1	0,117753
5,839167	0,1	0,106283
5,840833	0,1	0,083975
5,842500	0,1	0,135009
5,844167	0,1	0,098207
5,845833	0,1	0,095932
5,847500	0,1	0,091722
5,849167	0,1	0,096119
5,850833	0,1	0,077294
5,852500	0,1	0,099909
5,854167	0,1	0,052771
5,855833	0,1	0,042274
5,857500	0,1	0,107461
5,859167	0,1	0,082501
5,860833	0,1	0,096797
5,862500	0,1	0,070059
5,864167	0,1	0,081724
5,865833	0,1	0,076068
5,867500	0,1	0,116947
5,869167	0,1	0,085628
5,870833	0,1	0,030652
5,872500	0,1	0,090460
5,874167	0,1	0,079535
5,875833	0,1	0,075865
5,877500	0,1	0,052954
5,879167	0,1	0,043396
5,880833	0,1	0,087979
5,882500	0,1	0,087926
5,884167	0,1	0,095287
5,885833	0,1	0,098665
5,887500	0,1	0,096095
5,889167	0,1	0,113235
5,890833	0,1	0,068135
5,892500	0,1	0,048250
5,894167	0,1	0,075355
5,895833	0,1	0,038690
5,897500	0,1	0,049114
5,899167	0,1	0,055496
5,900833	0,1	0,064343
5,902500	0,1	0,048180
5,904167	0,1	0,054624
5,905833	0,1	0,057613
5,907500	0,1	0,050748
5,909167	0,1	0,072117
5,910833	0,1	0,083967
5,912500	0,1	0,045887
5,914167	0,1	0,028197
5,915833	0,1	0,073382
5,917500	0,1	0,043439
5,919167	0,1	0,021624
5,920833	0,1	0,020292
5,922500	0,1	0,048482
5,924167	0,1	0,059514
5,925833	0,1	0,035827
5,927500	0,1	0,038659
5,929167	0,1	0,037358
5,930833	0,1	0,023613
5,932500	0,1	0,070308
5,934167	0,1	0,055955
5,935833	0,1	0,035325
5,937500	0,1	0,011983
5,939167	0,1	0,027024
5,940833	0,1	0,026761
5,942500	0,1	0,032770
5,944167	0,1	0,048815
5,945833	0,1	-0,008680
5,947500	0,1	0,053074
5,949167	0,1	0,049484
5,950833	0,1	0,072102
5,952500	0,1	0,003826
5,954167	0,1	0,014772
5,955833	0,1	0,042924
5,957500	0,1	0,039200
5,959167	0,1	0,050540
5,960833	0,1	0,055433
5,962500	0,1	0,015239
5,964167	0,1	0,002753
5,965833	0,1	0,036620
5,967500	0,1	0,053336
5,969167	0,1	0,027448
5,970833	0,1	0,024190
5,972500	0,1	0,016933
5,974167	0,1	0,022924
5,975833	0,1	0,041164
5,977500	0,1	0,021833
5,979167	0,1	0,055213
5,980833	0,1	0,046914
5,982500	0,1	0,007839
5,984167	0,1	0,015894
5,985833	0,1	0,037658
5,987500	0,1	0,030594
5,989167	0,1	0,008251
5,990833	0,1	0,039107
5,992500	0,1	0,028049
5,994167	0,1	0,054823
5,995833	0,1	0,028671
5,997500	0,1	0,010696
5,999167	0,1	0,028246
6,000833	0,1	0,022325
