File Path	chrom://chromeleon01/ikbm_chromeleon/2022/Rezex/Esteban/220612_chitin_4_7.seq/252.smp/UV_VIS_1.channel/UV_VIS_1.chm
Channel	UV_VIS_1

Injection Information:
Data Vault	ikbm_chromeleon
Injection	7_06h-ChiBS_2
Injection Number	63
Position	GA8
Comment	
Processing Method	New ProcMethod
Instrument Method	Short_Rezex_6min_194nm
Type	Unknown
Status	Finished
Injection Date	12.06.2022
Injection Time	23:55:13
Injection Volume (µl)	8,000
Dilution Factor	1,0000
Weight	1,0000

Chromatogram Data Information:
Time Min. (min)	0,000833
Time Max. (min)	6,000833
Data Points	3601
Detector	UV
Generating Data System	Chromeleon 7.2.9.11323
Exporting Data System	Chromeleon 7.2.9.0
Operator	Instrument Controller
Signal Quantity	Absorbance
Signal Unit	mAU
Signal Min.	-0,150912
Signal Max.	114,236130
Channel	UV_VIS_1
Driver Name	VWD3000.dll
Channel Type	Evaluation
Min. Step (s)	0,1
Max. Step (s)	0,1
Average Step (s)	0,1

Signal Parameter Information:
Signal Info	WVL:194 nm

Chromatogram Data:
Time (min)	Step (s)	Value (mAU)
0,000833	n.a.	-0,092404
0,002500	0,1	-0,064553
0,004167	0,1	-0,077127
0,005833	0,1	-0,093611
0,007500	0,1	-0,048588
0,009167	0,1	-0,073848
0,010833	0,1	-0,095813
0,012500	0,1	-0,078141
0,014167	0,1	-0,062391
0,015833	0,1	-0,106201
0,017500	0,1	-0,060592
0,019167	0,1	-0,037733
0,020833	0,1	-0,092070
0,022500	0,1	-0,090675
0,024167	0,1	-0,054372
0,025833	0,1	-0,081652
0,027500	0,1	-0,115371
0,029167	0,1	-0,090652
0,030833	0,1	-0,108916
0,032500	0,1	-0,129136
0,034167	0,1	-0,105651
0,035833	0,1	-0,127850
0,037500	0,1	-0,121595
0,039167	0,1	-0,150912
0,040833	0,1	-0,105060
0,042500	0,1	-0,100045
0,044167	0,1	-0,095194
0,045833	0,1	-0,114626
0,047500	0,1	-0,110605
0,049167	0,1	-0,091553
0,050833	0,1	-0,097102
0,052500	0,1	-0,082080
0,054167	0,1	-0,075019
0,055833	0,1	-0,068405
0,057500	0,1	-0,102653
0,059167	0,1	-0,041265
0,060833	0,1	-0,072897
0,062500	0,1	-0,081383
0,064167	0,1	-0,060297
0,065833	0,1	-0,127944
0,067500	0,1	-0,096010
0,069167	0,1	-0,054885
0,070833	0,1	-0,124210
0,072500	0,1	-0,106032
0,074167	0,1	-0,077639
0,075833	0,1	-0,096702
0,077500	0,1	-0,087693
0,079167	0,1	-0,064779
0,080833	0,1	-0,093716
0,082500	0,1	-0,070600
0,084167	0,1	-0,078061
0,085833	0,1	-0,064214
0,087500	0,1	-0,050131
0,089167	0,1	-0,059797
0,090833	0,1	-0,086734
0,092500	0,1	-0,068301
0,094167	0,1	-0,077172
0,095833	0,1	-0,057998
0,097500	0,1	-0,047647
0,099167	0,1	-0,049485
0,100833	0,1	-0,059462
0,102500	0,1	-0,045446
0,104167	0,1	-0,086349
0,105833	0,1	-0,084889
0,107500	0,1	-0,055340
0,109167	0,1	-0,069456
0,110833	0,1	-0,094710
0,112500	0,1	-0,080699
0,114167	0,1	-0,114085
0,115833	0,1	-0,144759
0,117500	0,1	-0,091331
0,119167	0,1	-0,114350
0,120833	0,1	-0,129579
0,122500	0,1	-0,112353
0,124167	0,1	-0,122465
0,125833	0,1	-0,110440
0,127500	0,1	-0,118378
0,129167	0,1	-0,088876
0,130833	0,1	-0,076137
0,132500	0,1	-0,119012
0,134167	0,1	-0,078592
0,135833	0,1	-0,083663
0,137500	0,1	-0,079137
0,139167	0,1	-0,083602
0,140833	0,1	-0,088806
0,142500	0,1	-0,033256
0,144167	0,1	-0,052175
0,145833	0,1	-0,037166
0,147500	0,1	-0,099996
0,149167	0,1	-0,079126
0,150833	0,1	-0,115969
0,152500	0,1	-0,079404
0,154167	0,1	-0,072094
0,155833	0,1	-0,070763
0,157500	0,1	-0,093013
0,159167	0,1	-0,097456
0,160833	0,1	-0,090633
0,162500	0,1	-0,094928
0,164167	0,1	-0,075022
0,165833	0,1	-0,075827
0,167500	0,1	-0,076884
0,169167	0,1	-0,126006
0,170833	0,1	-0,099956
0,172500	0,1	-0,061771
0,174167	0,1	-0,086353
0,175833	0,1	-0,073381
0,177500	0,1	-0,071176
0,179167	0,1	-0,046354
0,180833	0,1	-0,123197
0,182500	0,1	-0,106277
0,184167	0,1	-0,096297
0,185833	0,1	-0,076111
0,187500	0,1	-0,066080
0,189167	0,1	-0,085130
0,190833	0,1	-0,097530
0,192500	0,1	-0,105170
0,194167	0,1	-0,108262
0,195833	0,1	-0,061023
0,197500	0,1	-0,075349
0,199167	0,1	-0,112462
0,200833	0,1	-0,083213
0,202500	0,1	-0,073045
0,204167	0,1	-0,059210
0,205833	0,1	-0,060212
0,207500	0,1	-0,073375
0,209167	0,1	-0,092202
0,210833	0,1	-0,067782
0,212500	0,1	-0,065602
0,214167	0,1	-0,078915
0,215833	0,1	-0,101064
0,217500	0,1	-0,067769
0,219167	0,1	-0,081382
0,220833	0,1	-0,060693
0,222500	0,1	-0,053221
0,224167	0,1	-0,107087
0,225833	0,1	-0,084789
0,227500	0,1	-0,072799
0,229167	0,1	-0,079885
0,230833	0,1	-0,068988
0,232500	0,1	-0,025538
0,234167	0,1	-0,094472
0,235833	0,1	-0,065704
0,237500	0,1	-0,118367
0,239167	0,1	-0,039983
0,240833	0,1	-0,058956
0,242500	0,1	-0,069229
0,244167	0,1	-0,048986
0,245833	0,1	-0,050005
0,247500	0,1	-0,088553
0,249167	0,1	-0,101110
0,250833	0,1	-0,069300
0,252500	0,1	-0,093197
0,254167	0,1	-0,067555
0,255833	0,1	-0,092001
0,257500	0,1	-0,064781
0,259167	0,1	-0,087288
0,260833	0,1	-0,060756
0,262500	0,1	-0,093011
0,264167	0,1	-0,058141
0,265833	0,1	-0,101488
0,267500	0,1	-0,064448
0,269167	0,1	-0,108957
0,270833	0,1	-0,092149
0,272500	0,1	-0,083439
0,274167	0,1	-0,094424
0,275833	0,1	-0,070981
0,277500	0,1	-0,058532
0,279167	0,1	-0,124149
0,280833	0,1	-0,099883
0,282500	0,1	-0,067830
0,284167	0,1	-0,107611
0,285833	0,1	-0,075455
0,287500	0,1	-0,111881
0,289167	0,1	-0,070069
0,290833	0,1	-0,066710
0,292500	0,1	-0,108665
0,294167	0,1	-0,087880
0,295833	0,1	-0,085012
0,297500	0,1	-0,120758
0,299167	0,1	-0,107042
0,300833	0,1	-0,083258
0,302500	0,1	-0,094959
0,304167	0,1	-0,080103
0,305833	0,1	-0,073672
0,307500	0,1	-0,086233
0,309167	0,1	-0,067430
0,310833	0,1	-0,038085
0,312500	0,1	-0,048012
0,314167	0,1	-0,090408
0,315833	0,1	-0,058740
0,317500	0,1	-0,082329
0,319167	0,1	-0,085180
0,320833	0,1	-0,067245
0,322500	0,1	-0,094359
0,324167	0,1	-0,093784
0,325833	0,1	-0,073217
0,327500	0,1	-0,055980
0,329167	0,1	-0,070787
0,330833	0,1	-0,067134
0,332500	0,1	-0,083906
0,334167	0,1	-0,093519
0,335833	0,1	-0,053457
0,337500	0,1	-0,079555
0,339167	0,1	-0,099793
0,340833	0,1	-0,070171
0,342500	0,1	-0,091085
0,344167	0,1	-0,055677
0,345833	0,1	-0,084882
0,347500	0,1	-0,094530
0,349167	0,1	-0,074792
0,350833	0,1	-0,080326
0,352500	0,1	-0,072325
0,354167	0,1	-0,091895
0,355833	0,1	-0,104771
0,357500	0,1	-0,042259
0,359167	0,1	-0,086930
0,360833	0,1	-0,064841
0,362500	0,1	-0,115170
0,364167	0,1	-0,051579
0,365833	0,1	-0,076297
0,367500	0,1	-0,030850
0,369167	0,1	-0,045228
0,370833	0,1	-0,068890
0,372500	0,1	-0,071741
0,374167	0,1	-0,074356
0,375833	0,1	-0,057890
0,377500	0,1	-0,062816
0,379167	0,1	-0,076820
0,380833	0,1	-0,079868
0,382500	0,1	-0,058245
0,384167	0,1	-0,122391
0,385833	0,1	-0,057813
0,387500	0,1	-0,076757
0,389167	0,1	-0,031036
0,390833	0,1	-0,081388
0,392500	0,1	-0,070501
0,394167	0,1	-0,033482
0,395833	0,1	-0,093752
0,397500	0,1	-0,042591
0,399167	0,1	-0,084023
0,400833	0,1	-0,029567
0,402500	0,1	-0,103485
0,404167	0,1	-0,074581
0,405833	0,1	-0,077693
0,407500	0,1	-0,072217
0,409167	0,1	-0,094191
0,410833	0,1	-0,051547
0,412500	0,1	-0,071322
0,414167	0,1	-0,082025
0,415833	0,1	-0,043215
0,417500	0,1	-0,052848
0,419167	0,1	-0,057596
0,420833	0,1	-0,110652
0,422500	0,1	-0,071705
0,424167	0,1	-0,078704
0,425833	0,1	-0,090718
0,427500	0,1	-0,038214
0,429167	0,1	-0,082061
0,430833	0,1	-0,044578
0,432500	0,1	-0,086244
0,434167	0,1	-0,105564
0,435833	0,1	-0,071580
0,437500	0,1	-0,108330
0,439167	0,1	-0,047448
0,440833	0,1	-0,080258
0,442500	0,1	-0,062179
0,444167	0,1	-0,089137
0,445833	0,1	-0,094134
0,447500	0,1	-0,074010
0,449167	0,1	-0,030700
0,450833	0,1	-0,086837
0,452500	0,1	-0,042316
0,454167	0,1	-0,063624
0,455833	0,1	-0,120814
0,457500	0,1	-0,092762
0,459167	0,1	-0,093997
0,460833	0,1	-0,094488
0,462500	0,1	-0,066605
0,464167	0,1	-0,077876
0,465833	0,1	-0,059653
0,467500	0,1	-0,086627
0,469167	0,1	-0,063115
0,470833	0,1	-0,067424
0,472500	0,1	-0,065417
0,474167	0,1	-0,046811
0,475833	0,1	-0,050127
0,477500	0,1	-0,085339
0,479167	0,1	-0,078461
0,480833	0,1	-0,071177
0,482500	0,1	-0,044487
0,484167	0,1	-0,101362
0,485833	0,1	-0,052377
0,487500	0,1	-0,067957
0,489167	0,1	-0,080158
0,490833	0,1	-0,092019
0,492500	0,1	-0,083590
0,494167	0,1	-0,061995
0,495833	0,1	-0,081027
0,497500	0,1	-0,052442
0,499167	0,1	-0,035510
0,500833	0,1	-0,071625
0,502500	0,1	-0,107612
0,504167	0,1	-0,045123
0,505833	0,1	-0,030613
0,507500	0,1	-0,092314
0,509167	0,1	-0,089328
0,510833	0,1	-0,071991
0,512500	0,1	-0,097679
0,514167	0,1	-0,064201
0,515833	0,1	-0,068357
0,517500	0,1	-0,080158
0,519167	0,1	-0,050883
0,520833	0,1	-0,087574
0,522500	0,1	-0,037174
0,524167	0,1	-0,071247
0,525833	0,1	-0,057142
0,527500	0,1	-0,091389
0,529167	0,1	-0,034604
0,530833	0,1	-0,067522
0,532500	0,1	-0,046934
0,534167	0,1	-0,084590
0,535833	0,1	-0,066433
0,537500	0,1	-0,080631
0,539167	0,1	-0,080222
0,540833	0,1	-0,096626
0,542500	0,1	-0,065381
0,544167	0,1	-0,071448
0,545833	0,1	-0,063112
0,547500	0,1	-0,085985
0,549167	0,1	-0,047062
0,550833	0,1	-0,064453
0,552500	0,1	-0,082024
0,554167	0,1	-0,067887
0,555833	0,1	-0,030160
0,557500	0,1	-0,045104
0,559167	0,1	-0,036813
0,560833	0,1	-0,066483
0,562500	0,1	-0,071694
0,564167	0,1	-0,071741
0,565833	0,1	-0,059633
0,567500	0,1	-0,077585
0,569167	0,1	-0,076319
0,570833	0,1	-0,048064
0,572500	0,1	-0,076173
0,574167	0,1	-0,037525
0,575833	0,1	-0,082967
0,577500	0,1	-0,045071
0,579167	0,1	-0,053480
0,580833	0,1	-0,044863
0,582500	0,1	-0,056721
0,584167	0,1	-0,066534
0,585833	0,1	-0,061718
0,587500	0,1	-0,043931
0,589167	0,1	0,005181
0,590833	0,1	-0,037567
0,592500	0,1	-0,086701
0,594167	0,1	-0,022575
0,595833	0,1	-0,056303
0,597500	0,1	-0,063643
0,599167	0,1	-0,028874
0,600833	0,1	-0,039011
0,602500	0,1	-0,034988
0,604167	0,1	-0,042992
0,605833	0,1	-0,039595
0,607500	0,1	-0,105646
0,609167	0,1	-0,055327
0,610833	0,1	-0,023791
0,612500	0,1	-0,037124
0,614167	0,1	-0,045853
0,615833	0,1	-0,059734
0,617500	0,1	-0,042706
0,619167	0,1	-0,027963
0,620833	0,1	-0,055203
0,622500	0,1	-0,003513
0,624167	0,1	-0,046472
0,625833	0,1	-0,063641
0,627500	0,1	-0,055732
0,629167	0,1	-0,050850
0,630833	0,1	-0,105387
0,632500	0,1	-0,061693
0,634167	0,1	-0,078563
0,635833	0,1	-0,073961
0,637500	0,1	-0,067470
0,639167	0,1	-0,018801
0,640833	0,1	-0,021026
0,642500	0,1	-0,022708
0,644167	0,1	-0,023475
0,645833	0,1	-0,031127
0,647500	0,1	-0,001789
0,649167	0,1	-0,070147
0,650833	0,1	0,007457
0,652500	0,1	-0,015217
0,654167	0,1	-0,034693
0,655833	0,1	-0,005021
0,657500	0,1	-0,012481
0,659167	0,1	0,003631
0,660833	0,1	-0,048688
0,662500	0,1	-0,047768
0,664167	0,1	0,007022
0,665833	0,1	0,011411
0,667500	0,1	-0,006896
0,669167	0,1	-0,029178
0,670833	0,1	-0,024639
0,672500	0,1	-0,007404
0,674167	0,1	-0,016111
0,675833	0,1	-0,019123
0,677500	0,1	0,021172
0,679167	0,1	0,007286
0,680833	0,1	-0,017744
0,682500	0,1	-0,024866
0,684167	0,1	0,021401
0,685833	0,1	-0,009799
0,687500	0,1	0,030776
0,689167	0,1	0,013613
0,690833	0,1	-0,012785
0,692500	0,1	0,010413
0,694167	0,1	0,012117
0,695833	0,1	-0,006357
0,697500	0,1	0,018813
0,699167	0,1	0,033605
0,700833	0,1	0,049640
0,702500	0,1	0,031289
0,704167	0,1	0,021889
0,705833	0,1	0,000111
0,707500	0,1	0,005871
0,709167	0,1	0,016265
0,710833	0,1	0,045092
0,712500	0,1	0,011087
0,714167	0,1	0,001646
0,715833	0,1	0,050337
0,717500	0,1	0,014303
0,719167	0,1	0,029744
0,720833	0,1	0,020417
0,722500	0,1	0,029911
0,724167	0,1	0,055217
0,725833	0,1	0,032078
0,727500	0,1	0,033753
0,729167	0,1	0,045677
0,730833	0,1	0,061567
0,732500	0,1	0,063229
0,734167	0,1	0,050579
0,735833	0,1	0,100976
0,737500	0,1	0,058325
0,739167	0,1	0,101892
0,740833	0,1	0,078027
0,742500	0,1	0,073874
0,744167	0,1	0,092104
0,745833	0,1	0,044134
0,747500	0,1	0,096349
0,749167	0,1	0,109244
0,750833	0,1	0,028419
0,752500	0,1	0,090394
0,754167	0,1	0,115443
0,755833	0,1	0,072098
0,757500	0,1	0,065098
0,759167	0,1	0,067793
0,760833	0,1	0,143856
0,762500	0,1	0,075652
0,764167	0,1	0,094116
0,765833	0,1	0,079063
0,767500	0,1	0,095218
0,769167	0,1	0,042911
0,770833	0,1	0,078429
0,772500	0,1	0,099594
0,774167	0,1	0,074687
0,775833	0,1	0,086609
0,777500	0,1	0,037766
0,779167	0,1	0,100662
0,780833	0,1	0,060688
0,782500	0,1	0,096313
0,784167	0,1	0,025992
0,785833	0,1	0,026697
0,787500	0,1	0,061749
0,789167	0,1	0,055287
0,790833	0,1	0,102346
0,792500	0,1	0,075374
0,794167	0,1	0,042640
0,795833	0,1	0,070651
0,797500	0,1	0,010989
0,799167	0,1	0,044221
0,800833	0,1	0,070900
0,802500	0,1	0,026337
0,804167	0,1	0,017865
0,805833	0,1	0,039887
0,807500	0,1	0,034749
0,809167	0,1	0,042049
0,810833	0,1	0,027801
0,812500	0,1	0,036571
0,814167	0,1	0,059347
0,815833	0,1	0,044875
0,817500	0,1	0,010279
0,819167	0,1	0,022485
0,820833	0,1	0,072907
0,822500	0,1	0,021899
0,824167	0,1	0,006416
0,825833	0,1	0,020308
0,827500	0,1	0,042937
0,829167	0,1	0,042423
0,830833	0,1	0,047381
0,832500	0,1	0,011459
0,834167	0,1	0,042062
0,835833	0,1	0,017226
0,837500	0,1	0,056584
0,839167	0,1	-0,000507
0,840833	0,1	0,029950
0,842500	0,1	0,011269
0,844167	0,1	0,016761
0,845833	0,1	0,035097
0,847500	0,1	0,037381
0,849167	0,1	0,017163
0,850833	0,1	0,035430
0,852500	0,1	0,000094
0,854167	0,1	0,014872
0,855833	0,1	0,026757
0,857500	0,1	0,049080
0,859167	0,1	0,000822
0,860833	0,1	-0,006306
0,862500	0,1	0,043821
0,864167	0,1	0,059057
0,865833	0,1	-0,004672
0,867500	0,1	0,030362
0,869167	0,1	0,021703
0,870833	0,1	0,015767
0,872500	0,1	0,008199
0,874167	0,1	0,028831
0,875833	0,1	0,039433
0,877500	0,1	0,013615
0,879167	0,1	0,071703
0,880833	0,1	0,065204
0,882500	0,1	0,000682
0,884167	0,1	-0,005346
0,885833	0,1	0,004708
0,887500	0,1	-0,004455
0,889167	0,1	0,038183
0,890833	0,1	0,032363
0,892500	0,1	0,033004
0,894167	0,1	0,009695
0,895833	0,1	-0,014431
0,897500	0,1	0,026089
0,899167	0,1	0,014692
0,900833	0,1	0,013194
0,902500	0,1	0,033000
0,904167	0,1	0,044683
0,905833	0,1	0,040619
0,907500	0,1	0,033507
0,909167	0,1	0,033981
0,910833	0,1	0,019194
0,912500	0,1	0,028896
0,914167	0,1	0,046030
0,915833	0,1	0,048211
0,917500	0,1	0,047010
0,919167	0,1	0,040018
0,920833	0,1	0,066004
0,922500	0,1	0,049170
0,924167	0,1	0,018593
0,925833	0,1	0,051770
0,927500	0,1	0,049020
0,929167	0,1	0,059350
0,930833	0,1	0,078703
0,932500	0,1	0,048946
0,934167	0,1	0,063683
0,935833	0,1	0,038300
0,937500	0,1	0,036778
0,939167	0,1	0,063037
0,940833	0,1	0,029012
0,942500	0,1	0,062330
0,944167	0,1	0,023079
0,945833	0,1	0,080167
0,947500	0,1	0,043532
0,949167	0,1	0,082203
0,950833	0,1	0,123450
0,952500	0,1	0,078718
0,954167	0,1	0,074642
0,955833	0,1	0,059645
0,957500	0,1	0,100191
0,959167	0,1	0,084457
0,960833	0,1	0,081530
0,962500	0,1	0,078438
0,964167	0,1	0,100258
0,965833	0,1	0,085599
0,967500	0,1	0,080471
0,969167	0,1	0,057633
0,970833	0,1	0,081980
0,972500	0,1	0,085821
0,974167	0,1	0,130376
0,975833	0,1	0,092449
0,977500	0,1	0,087588
0,979167	0,1	0,102789
0,980833	0,1	0,091241
0,982500	0,1	0,122372
0,984167	0,1	0,103254
0,985833	0,1	0,102275
0,987500	0,1	0,070746
0,989167	0,1	0,144874
0,990833	0,1	0,113652
0,992500	0,1	0,111860
0,994167	0,1	0,087904
0,995833	0,1	0,129114
0,997500	0,1	0,150738
0,999167	0,1	0,174725
1,000833	0,1	0,179522
1,002500	0,1	0,194544
1,004167	0,1	0,162124
1,005833	0,1	0,207755
1,007500	0,1	0,192433
1,009167	0,1	0,152828
1,010833	0,1	0,187384
1,012500	0,1	0,215519
1,014167	0,1	0,233620
1,015833	0,1	0,286410
1,017500	0,1	0,257248
1,019167	0,1	0,260294
1,020833	0,1	0,261290
1,022500	0,1	0,295095
1,024167	0,1	0,317138
1,025833	0,1	0,281271
1,027500	0,1	0,310184
1,029167	0,1	0,315756
1,030833	0,1	0,360276
1,032500	0,1	0,357396
1,034167	0,1	0,361862
1,035833	0,1	0,372737
1,037500	0,1	0,400670
1,039167	0,1	0,402289
1,040833	0,1	0,411779
1,042500	0,1	0,424487
1,044167	0,1	0,410300
1,045833	0,1	0,426411
1,047500	0,1	0,436492
1,049167	0,1	0,448849
1,050833	0,1	0,472180
1,052500	0,1	0,488978
1,054167	0,1	0,550293
1,055833	0,1	0,590441
1,057500	0,1	0,597403
1,059167	0,1	0,679265
1,060833	0,1	0,781959
1,062500	0,1	0,926045
1,064167	0,1	1,105544
1,065833	0,1	1,245914
1,067500	0,1	1,558894
1,069167	0,1	1,862585
1,070833	0,1	2,297531
1,072500	0,1	2,780945
1,074167	0,1	3,423646
1,075833	0,1	4,202885
1,077500	0,1	5,047450
1,079167	0,1	6,038277
1,080833	0,1	7,228289
1,082500	0,1	8,545336
1,084167	0,1	9,963795
1,085833	0,1	11,555308
1,087500	0,1	13,292576
1,089167	0,1	15,084433
1,090833	0,1	17,026023
1,092500	0,1	18,992144
1,094167	0,1	20,975622
1,095833	0,1	22,954431
1,097500	0,1	24,944109
1,099167	0,1	26,842475
1,100833	0,1	28,642481
1,102500	0,1	30,333210
1,104167	0,1	31,890674
1,105833	0,1	33,332251
1,107500	0,1	34,525719
1,109167	0,1	35,567227
1,110833	0,1	36,446584
1,112500	0,1	37,102399
1,114167	0,1	37,628014
1,115833	0,1	37,936728
1,117500	0,1	38,165560
1,119167	0,1	38,217061
1,120833	0,1	38,135174
1,122500	0,1	37,941014
1,124167	0,1	37,639417
1,125833	0,1	37,274030
1,127500	0,1	36,817014
1,129167	0,1	36,328275
1,130833	0,1	35,838272
1,132500	0,1	35,293969
1,134167	0,1	34,726131
1,135833	0,1	34,173139
1,137500	0,1	33,630361
1,139167	0,1	33,122560
1,140833	0,1	32,643307
1,142500	0,1	32,291662
1,144167	0,1	31,885711
1,145833	0,1	31,616406
1,147500	0,1	31,377287
1,149167	0,1	31,230068
1,150833	0,1	31,114162
1,152500	0,1	31,167875
1,154167	0,1	31,223967
1,155833	0,1	31,373009
1,157500	0,1	31,587036
1,159167	0,1	31,812222
1,160833	0,1	32,128606
1,162500	0,1	32,547804
1,164167	0,1	32,949148
1,165833	0,1	33,372361
1,167500	0,1	33,886823
1,169167	0,1	34,303694
1,170833	0,1	34,796290
1,172500	0,1	35,281416
1,174167	0,1	35,673723
1,175833	0,1	36,106509
1,177500	0,1	36,529702
1,179167	0,1	36,900810
1,180833	0,1	37,255638
1,182500	0,1	37,565665
1,184167	0,1	37,847371
1,185833	0,1	38,038054
1,187500	0,1	38,270391
1,189167	0,1	38,486472
1,190833	0,1	38,676003
1,192500	0,1	38,844068
1,194167	0,1	39,100512
1,195833	0,1	39,380146
1,197500	0,1	39,778026
1,199167	0,1	40,134692
1,200833	0,1	40,752227
1,202500	0,1	41,378102
1,204167	0,1	42,268795
1,205833	0,1	43,216304
1,207500	0,1	44,449426
1,209167	0,1	45,931504
1,210833	0,1	47,577990
1,212500	0,1	49,435353
1,214167	0,1	51,604340
1,215833	0,1	53,954061
1,217500	0,1	56,516589
1,219167	0,1	59,345591
1,220833	0,1	62,355035
1,222500	0,1	65,472391
1,224167	0,1	68,779603
1,225833	0,1	72,152476
1,227500	0,1	75,656580
1,229167	0,1	79,130245
1,230833	0,1	82,569740
1,232500	0,1	86,019628
1,234167	0,1	89,341045
1,235833	0,1	92,504553
1,237500	0,1	95,561343
1,239167	0,1	98,425936
1,240833	0,1	101,104895
1,242500	0,1	103,559910
1,244167	0,1	105,805799
1,245833	0,1	107,763758
1,247500	0,1	109,438152
1,249167	0,1	110,940231
1,250833	0,1	112,083279
1,252500	0,1	113,013119
1,254167	0,1	113,658736
1,255833	0,1	114,086263
1,257500	0,1	114,236130
1,259167	0,1	114,122991
1,260833	0,1	113,726707
1,262500	0,1	113,175923
1,264167	0,1	112,371758
1,265833	0,1	111,337423
1,267500	0,1	110,142584
1,269167	0,1	108,716921
1,270833	0,1	107,164531
1,272500	0,1	105,411619
1,274167	0,1	103,561423
1,275833	0,1	101,590257
1,277500	0,1	99,372973
1,279167	0,1	97,166905
1,280833	0,1	94,924599
1,282500	0,1	92,594266
1,284167	0,1	90,141227
1,285833	0,1	87,699408
1,287500	0,1	85,248341
1,289167	0,1	82,789264
1,290833	0,1	80,323456
1,292500	0,1	77,947316
1,294167	0,1	75,518937
1,295833	0,1	73,121149
1,297500	0,1	70,833641
1,299167	0,1	68,634438
1,300833	0,1	66,438418
1,302500	0,1	64,330700
1,304167	0,1	62,273220
1,305833	0,1	60,324669
1,307500	0,1	58,414335
1,309167	0,1	56,640360
1,310833	0,1	54,834724
1,312500	0,1	53,209922
1,314167	0,1	51,595340
1,315833	0,1	50,085868
1,317500	0,1	48,649353
1,319167	0,1	47,269023
1,320833	0,1	45,957217
1,322500	0,1	44,653410
1,324167	0,1	43,503494
1,325833	0,1	42,336523
1,327500	0,1	41,279105
1,329167	0,1	40,206918
1,330833	0,1	39,189086
1,332500	0,1	38,251488
1,334167	0,1	37,320175
1,335833	0,1	36,445152
1,337500	0,1	35,581878
1,339167	0,1	34,699235
1,340833	0,1	33,904019
1,342500	0,1	33,185150
1,344167	0,1	32,397991
1,345833	0,1	31,687472
1,347500	0,1	31,021399
1,349167	0,1	30,317898
1,350833	0,1	29,612891
1,352500	0,1	28,980914
1,354167	0,1	28,310213
1,355833	0,1	27,710827
1,357500	0,1	27,121058
1,359167	0,1	26,506625
1,360833	0,1	25,926091
1,362500	0,1	25,353744
1,364167	0,1	24,847663
1,365833	0,1	24,264573
1,367500	0,1	23,720754
1,369167	0,1	23,242917
1,370833	0,1	22,702111
1,372500	0,1	22,220748
1,374167	0,1	21,728802
1,375833	0,1	21,195052
1,377500	0,1	20,770170
1,379167	0,1	20,328546
1,380833	0,1	19,854855
1,382500	0,1	19,407325
1,384167	0,1	18,999920
1,385833	0,1	18,567175
1,387500	0,1	18,192477
1,389167	0,1	17,777399
1,390833	0,1	17,397243
1,392500	0,1	17,085933
1,394167	0,1	16,711326
1,395833	0,1	16,349031
1,397500	0,1	16,051863
1,399167	0,1	15,694260
1,400833	0,1	15,367827
1,402500	0,1	15,065364
1,404167	0,1	14,774778
1,405833	0,1	14,494951
1,407500	0,1	14,257392
1,409167	0,1	13,985012
1,410833	0,1	13,763469
1,412500	0,1	13,488941
1,414167	0,1	13,229979
1,415833	0,1	13,041978
1,417500	0,1	12,801676
1,419167	0,1	12,566637
1,420833	0,1	12,377399
1,422500	0,1	12,213034
1,424167	0,1	12,006600
1,425833	0,1	11,842184
1,427500	0,1	11,622581
1,429167	0,1	11,465562
1,430833	0,1	11,263577
1,432500	0,1	11,131925
1,434167	0,1	10,950627
1,435833	0,1	10,796612
1,437500	0,1	10,611533
1,439167	0,1	10,462254
1,440833	0,1	10,366417
1,442500	0,1	10,110408
1,444167	0,1	10,019296
1,445833	0,1	9,813691
1,447500	0,1	9,703194
1,449167	0,1	9,582717
1,450833	0,1	9,399685
1,452500	0,1	9,280963
1,454167	0,1	9,148665
1,455833	0,1	9,062510
1,457500	0,1	8,870817
1,459167	0,1	8,762272
1,460833	0,1	8,643812
1,462500	0,1	8,521063
1,464167	0,1	8,415575
1,465833	0,1	8,288987
1,467500	0,1	8,187764
1,469167	0,1	8,058887
1,470833	0,1	7,964074
1,472500	0,1	7,894947
1,474167	0,1	7,769354
1,475833	0,1	7,672686
1,477500	0,1	7,621775
1,479167	0,1	7,487037
1,480833	0,1	7,439160
1,482500	0,1	7,377403
1,484167	0,1	7,332457
1,485833	0,1	7,251943
1,487500	0,1	7,190483
1,489167	0,1	7,136790
1,490833	0,1	7,066669
1,492500	0,1	7,037342
1,494167	0,1	6,965379
1,495833	0,1	6,982348
1,497500	0,1	6,920575
1,499167	0,1	6,855525
1,500833	0,1	6,827242
1,502500	0,1	6,819030
1,504167	0,1	6,808958
1,505833	0,1	6,774438
1,507500	0,1	6,760722
1,509167	0,1	6,725265
1,510833	0,1	6,711652
1,512500	0,1	6,658748
1,514167	0,1	6,675445
1,515833	0,1	6,640665
1,517500	0,1	6,599344
1,519167	0,1	6,617793
1,520833	0,1	6,552530
1,522500	0,1	6,518108
1,524167	0,1	6,496582
1,525833	0,1	6,502154
1,527500	0,1	6,478019
1,529167	0,1	6,436627
1,530833	0,1	6,457413
1,532500	0,1	6,415473
1,534167	0,1	6,390290
1,535833	0,1	6,330742
1,537500	0,1	6,374442
1,539167	0,1	6,329825
1,540833	0,1	6,279649
1,542500	0,1	6,253763
1,544167	0,1	6,266161
1,545833	0,1	6,199519
1,547500	0,1	6,173304
1,549167	0,1	6,140517
1,550833	0,1	6,173893
1,552500	0,1	6,107176
1,554167	0,1	5,998281
1,555833	0,1	6,044389
1,557500	0,1	6,010311
1,559167	0,1	5,950623
1,560833	0,1	5,934670
1,562500	0,1	5,910411
1,564167	0,1	5,856479
1,565833	0,1	5,821441
1,567500	0,1	5,804793
1,569167	0,1	5,777816
1,570833	0,1	5,696083
1,572500	0,1	5,650839
1,574167	0,1	5,695809
1,575833	0,1	5,622294
1,577500	0,1	5,602740
1,579167	0,1	5,546279
1,580833	0,1	5,526670
1,582500	0,1	5,453876
1,584167	0,1	5,458023
1,585833	0,1	5,381323
1,587500	0,1	5,380396
1,589167	0,1	5,288410
1,590833	0,1	5,276610
1,592500	0,1	5,231547
1,594167	0,1	5,202344
1,595833	0,1	5,223918
1,597500	0,1	5,134177
1,599167	0,1	5,120465
1,600833	0,1	5,048832
1,602500	0,1	5,014234
1,604167	0,1	4,983859
1,605833	0,1	4,932086
1,607500	0,1	4,927502
1,609167	0,1	4,866974
1,610833	0,1	4,813738
1,612500	0,1	4,785826
1,614167	0,1	4,768455
1,615833	0,1	4,712005
1,617500	0,1	4,616717
1,619167	0,1	4,696430
1,620833	0,1	4,625306
1,622500	0,1	4,564877
1,624167	0,1	4,540947
1,625833	0,1	4,515608
1,627500	0,1	4,472856
1,629167	0,1	4,458593
1,630833	0,1	4,397666
1,632500	0,1	4,374479
1,634167	0,1	4,307675
1,635833	0,1	4,273247
1,637500	0,1	4,267967
1,639167	0,1	4,221917
1,640833	0,1	4,190503
1,642500	0,1	4,197796
1,644167	0,1	4,152081
1,645833	0,1	4,137761
1,647500	0,1	4,125908
1,649167	0,1	4,064407
1,650833	0,1	4,000760
1,652500	0,1	4,009394
1,654167	0,1	4,058355
1,655833	0,1	3,951941
1,657500	0,1	3,960110
1,659167	0,1	3,924478
1,660833	0,1	3,924410
1,662500	0,1	3,884033
1,664167	0,1	3,880747
1,665833	0,1	3,906251
1,667500	0,1	3,931238
1,669167	0,1	3,879809
1,670833	0,1	3,869594
1,672500	0,1	3,858217
1,674167	0,1	3,869447
1,675833	0,1	3,869401
1,677500	0,1	3,836481
1,679167	0,1	3,904751
1,680833	0,1	3,876465
1,682500	0,1	3,890570
1,684167	0,1	3,871068
1,685833	0,1	3,920644
1,687500	0,1	3,936066
1,689167	0,1	3,966515
1,690833	0,1	3,976253
1,692500	0,1	4,000591
1,694167	0,1	3,979458
1,695833	0,1	4,030391
1,697500	0,1	4,040252
1,699167	0,1	4,090833
1,700833	0,1	4,132832
1,702500	0,1	4,137298
1,704167	0,1	4,153204
1,705833	0,1	4,147970
1,707500	0,1	4,232152
1,709167	0,1	4,244184
1,710833	0,1	4,246329
1,712500	0,1	4,314868
1,714167	0,1	4,342518
1,715833	0,1	4,354212
1,717500	0,1	4,346991
1,719167	0,1	4,349830
1,720833	0,1	4,406935
1,722500	0,1	4,421195
1,724167	0,1	4,430902
1,725833	0,1	4,424328
1,727500	0,1	4,440400
1,729167	0,1	4,452094
1,730833	0,1	4,474871
1,732500	0,1	4,454174
1,734167	0,1	4,450067
1,735833	0,1	4,504826
1,737500	0,1	4,468020
1,739167	0,1	4,468579
1,740833	0,1	4,470487
1,742500	0,1	4,449545
1,744167	0,1	4,478763
1,745833	0,1	4,429655
1,747500	0,1	4,447093
1,749167	0,1	4,383582
1,750833	0,1	4,375406
1,752500	0,1	4,351866
1,754167	0,1	4,351617
1,755833	0,1	4,338387
1,757500	0,1	4,293221
1,759167	0,1	4,254743
1,760833	0,1	4,236561
1,762500	0,1	4,216148
1,764167	0,1	4,150540
1,765833	0,1	4,139452
1,767500	0,1	4,066846
1,769167	0,1	4,091248
1,770833	0,1	4,001790
1,772500	0,1	4,008746
1,774167	0,1	3,961024
1,775833	0,1	3,924320
1,777500	0,1	3,852962
1,779167	0,1	3,814523
1,780833	0,1	3,772551
1,782500	0,1	3,716982
1,784167	0,1	3,695423
1,785833	0,1	3,645028
1,787500	0,1	3,624452
1,789167	0,1	3,549542
1,790833	0,1	3,494956
1,792500	0,1	3,448132
1,794167	0,1	3,412868
1,795833	0,1	3,372569
1,797500	0,1	3,297435
1,799167	0,1	3,250858
1,800833	0,1	3,216237
1,802500	0,1	3,159526
1,804167	0,1	3,134621
1,805833	0,1	3,060487
1,807500	0,1	3,060620
1,809167	0,1	3,018408
1,810833	0,1	2,951714
1,812500	0,1	2,940198
1,814167	0,1	2,814976
1,815833	0,1	2,838567
1,817500	0,1	2,782526
1,819167	0,1	2,688627
1,820833	0,1	2,702031
1,822500	0,1	2,651525
1,824167	0,1	2,635549
1,825833	0,1	2,553923
1,827500	0,1	2,544778
1,829167	0,1	2,502747
1,830833	0,1	2,471634
1,832500	0,1	2,437577
1,834167	0,1	2,435412
1,835833	0,1	2,381683
1,837500	0,1	2,353452
1,839167	0,1	2,373622
1,840833	0,1	2,324651
1,842500	0,1	2,318609
1,844167	0,1	2,341871
1,845833	0,1	2,362630
1,847500	0,1	2,322210
1,849167	0,1	2,369880
1,850833	0,1	2,410325
1,852500	0,1	2,415724
1,854167	0,1	2,483888
1,855833	0,1	2,519689
1,857500	0,1	2,547349
1,859167	0,1	2,563106
1,860833	0,1	2,631877
1,862500	0,1	2,652427
1,864167	0,1	2,735078
1,865833	0,1	2,763690
1,867500	0,1	2,829858
1,869167	0,1	2,897008
1,870833	0,1	2,868240
1,872500	0,1	2,939246
1,874167	0,1	2,973382
1,875833	0,1	3,013569
1,877500	0,1	3,068183
1,879167	0,1	3,121101
1,880833	0,1	3,161445
1,882500	0,1	3,171360
1,884167	0,1	3,255552
1,885833	0,1	3,232485
1,887500	0,1	3,292619
1,889167	0,1	3,279072
1,890833	0,1	3,360359
1,892500	0,1	3,424002
1,894167	0,1	3,389130
1,895833	0,1	3,435641
1,897500	0,1	3,454233
1,899167	0,1	3,504783
1,900833	0,1	3,526806
1,902500	0,1	3,538373
1,904167	0,1	3,556134
1,905833	0,1	3,550460
1,907500	0,1	3,615638
1,909167	0,1	3,633984
1,910833	0,1	3,646281
1,912500	0,1	3,685413
1,914167	0,1	3,696392
1,915833	0,1	3,657447
1,917500	0,1	3,672632
1,919167	0,1	3,737188
1,920833	0,1	3,689951
1,922500	0,1	3,701893
1,924167	0,1	3,727412
1,925833	0,1	3,690753
1,927500	0,1	3,697641
1,929167	0,1	3,705993
1,930833	0,1	3,695052
1,932500	0,1	3,660972
1,934167	0,1	3,687909
1,935833	0,1	3,688870
1,937500	0,1	3,655472
1,939167	0,1	3,694235
1,940833	0,1	3,592000
1,942500	0,1	3,612796
1,944167	0,1	3,640494
1,945833	0,1	3,581929
1,947500	0,1	3,580046
1,949167	0,1	3,522520
1,950833	0,1	3,544565
1,952500	0,1	3,539129
1,954167	0,1	3,490572
1,955833	0,1	3,516018
1,957500	0,1	3,504256
1,959167	0,1	3,430068
1,960833	0,1	3,425074
1,962500	0,1	3,424974
1,964167	0,1	3,392964
1,965833	0,1	3,403376
1,967500	0,1	3,363594
1,969167	0,1	3,353012
1,970833	0,1	3,336124
1,972500	0,1	3,302135
1,974167	0,1	3,347508
1,975833	0,1	3,274798
1,977500	0,1	3,316462
1,979167	0,1	3,270599
1,980833	0,1	3,279638
1,982500	0,1	3,273276
1,984167	0,1	3,254378
1,985833	0,1	3,229876
1,987500	0,1	3,248157
1,989167	0,1	3,201738
1,990833	0,1	3,276743
1,992500	0,1	3,231347
1,994167	0,1	3,207070
1,995833	0,1	3,228321
1,997500	0,1	3,207145
1,999167	0,1	3,178530
2,000833	0,1	3,180945
2,002500	0,1	3,187210
2,004167	0,1	3,187727
2,005833	0,1	3,207231
2,007500	0,1	3,206225
2,009167	0,1	3,197026
2,010833	0,1	3,212318
2,012500	0,1	3,169829
2,014167	0,1	3,204388
2,015833	0,1	3,209958
2,017500	0,1	3,208875
2,019167	0,1	3,220778
2,020833	0,1	3,211963
2,022500	0,1	3,214056
2,024167	0,1	3,238248
2,025833	0,1	3,242729
2,027500	0,1	3,257494
2,029167	0,1	3,243630
2,030833	0,1	3,269457
2,032500	0,1	3,290379
2,034167	0,1	3,314675
2,035833	0,1	3,309958
2,037500	0,1	3,311157
2,039167	0,1	3,318302
2,040833	0,1	3,373369
2,042500	0,1	3,365531
2,044167	0,1	3,382122
2,045833	0,1	3,368181
2,047500	0,1	3,390776
2,049167	0,1	3,426591
2,050833	0,1	3,461907
2,052500	0,1	3,441049
2,054167	0,1	3,454466
2,055833	0,1	3,515932
2,057500	0,1	3,543062
2,059167	0,1	3,535835
2,060833	0,1	3,515481
2,062500	0,1	3,550502
2,064167	0,1	3,602156
2,065833	0,1	3,589749
2,067500	0,1	3,601205
2,069167	0,1	3,646146
2,070833	0,1	3,631062
2,072500	0,1	3,620404
2,074167	0,1	3,667232
2,075833	0,1	3,693623
2,077500	0,1	3,688514
2,079167	0,1	3,728398
2,080833	0,1	3,723407
2,082500	0,1	3,769208
2,084167	0,1	3,743046
2,085833	0,1	3,781455
2,087500	0,1	3,791397
2,089167	0,1	3,853167
2,090833	0,1	3,870585
2,092500	0,1	3,864577
2,094167	0,1	3,844137
2,095833	0,1	3,873968
2,097500	0,1	3,881963
2,099167	0,1	3,863155
2,100833	0,1	3,914566
2,102500	0,1	3,926176
2,104167	0,1	3,921181
2,105833	0,1	3,950385
2,107500	0,1	3,967498
2,109167	0,1	3,884659
2,110833	0,1	3,944207
2,112500	0,1	3,949695
2,114167	0,1	3,979366
2,115833	0,1	3,953457
2,117500	0,1	3,992721
2,119167	0,1	3,997065
2,120833	0,1	4,008335
2,122500	0,1	4,001168
2,124167	0,1	4,021359
2,125833	0,1	3,991017
2,127500	0,1	4,020172
2,129167	0,1	4,015285
2,130833	0,1	4,039849
2,132500	0,1	4,062406
2,134167	0,1	4,045950
2,135833	0,1	4,058684
2,137500	0,1	4,061442
2,139167	0,1	4,026872
2,140833	0,1	4,054057
2,142500	0,1	4,027893
2,144167	0,1	4,017712
2,145833	0,1	4,039484
2,147500	0,1	4,044886
2,149167	0,1	4,044239
2,150833	0,1	3,993675
2,152500	0,1	3,998351
2,154167	0,1	4,028779
2,155833	0,1	4,043710
2,157500	0,1	4,002713
2,159167	0,1	4,007472
2,160833	0,1	4,019323
2,162500	0,1	4,011095
2,164167	0,1	4,002546
2,165833	0,1	3,997513
2,167500	0,1	4,008187
2,169167	0,1	3,991230
2,170833	0,1	3,981415
2,172500	0,1	3,993170
2,174167	0,1	3,952936
2,175833	0,1	3,990285
2,177500	0,1	3,975954
2,179167	0,1	4,003425
2,180833	0,1	3,957162
2,182500	0,1	3,937783
2,184167	0,1	3,937367
2,185833	0,1	3,964442
2,187500	0,1	3,938830
2,189167	0,1	3,963303
2,190833	0,1	3,884516
2,192500	0,1	3,931689
2,194167	0,1	3,923302
2,195833	0,1	3,928693
2,197500	0,1	3,941006
2,199167	0,1	3,893338
2,200833	0,1	3,938226
2,202500	0,1	3,885475
2,204167	0,1	3,877995
2,205833	0,1	3,930265
2,207500	0,1	3,916528
2,209167	0,1	3,904407
2,210833	0,1	3,904563
2,212500	0,1	3,894422
2,214167	0,1	3,906095
2,215833	0,1	3,935493
2,217500	0,1	3,955531
2,219167	0,1	3,924556
2,220833	0,1	3,973251
2,222500	0,1	3,991507
2,224167	0,1	3,958047
2,225833	0,1	4,023589
2,227500	0,1	3,992623
2,229167	0,1	3,975452
2,230833	0,1	4,019475
2,232500	0,1	4,043664
2,234167	0,1	4,064477
2,235833	0,1	4,060669
2,237500	0,1	4,102447
2,239167	0,1	4,084847
2,240833	0,1	4,125319
2,242500	0,1	4,093655
2,244167	0,1	4,167633
2,245833	0,1	4,193050
2,247500	0,1	4,188468
2,249167	0,1	4,210859
2,250833	0,1	4,242147
2,252500	0,1	4,226571
2,254167	0,1	4,267794
2,255833	0,1	4,257210
2,257500	0,1	4,255222
2,259167	0,1	4,298476
2,260833	0,1	4,251902
2,262500	0,1	4,322293
2,264167	0,1	4,315859
2,265833	0,1	4,333752
2,267500	0,1	4,338587
2,269167	0,1	4,338994
2,270833	0,1	4,349058
2,272500	0,1	4,357583
2,274167	0,1	4,338593
2,275833	0,1	4,394270
2,277500	0,1	4,345663
2,279167	0,1	4,373936
2,280833	0,1	4,388595
2,282500	0,1	4,350489
2,284167	0,1	4,373085
2,285833	0,1	4,364488
2,287500	0,1	4,372928
2,289167	0,1	4,329870
2,290833	0,1	4,327263
2,292500	0,1	4,355425
2,294167	0,1	4,313920
2,295833	0,1	4,344426
2,297500	0,1	4,290949
2,299167	0,1	4,325711
2,300833	0,1	4,266358
2,302500	0,1	4,244306
2,304167	0,1	4,293522
2,305833	0,1	4,293006
2,307500	0,1	4,288989
2,309167	0,1	4,259491
2,310833	0,1	4,248896
2,312500	0,1	4,215336
2,314167	0,1	4,233870
2,315833	0,1	4,196392
2,317500	0,1	4,195245
2,319167	0,1	4,156710
2,320833	0,1	4,156942
2,322500	0,1	4,127737
2,324167	0,1	4,138602
2,325833	0,1	4,075042
2,327500	0,1	4,053783
2,329167	0,1	4,034508
2,330833	0,1	4,007252
2,332500	0,1	4,016134
2,334167	0,1	3,990949
2,335833	0,1	3,955054
2,337500	0,1	3,948810
2,339167	0,1	3,929951
2,340833	0,1	3,946906
2,342500	0,1	3,876475
2,344167	0,1	3,821870
2,345833	0,1	3,878677
2,347500	0,1	3,819481
2,349167	0,1	3,766351
2,350833	0,1	3,774171
2,352500	0,1	3,757156
2,354167	0,1	3,734771
2,355833	0,1	3,698770
2,357500	0,1	3,707887
2,359167	0,1	3,669559
2,360833	0,1	3,646914
2,362500	0,1	3,684143
2,364167	0,1	3,635453
2,365833	0,1	3,653100
2,367500	0,1	3,539776
2,369167	0,1	3,561630
2,370833	0,1	3,565240
2,372500	0,1	3,537317
2,374167	0,1	3,511777
2,375833	0,1	3,515946
2,377500	0,1	3,528960
2,379167	0,1	3,454280
2,380833	0,1	3,500169
2,382500	0,1	3,525199
2,384167	0,1	3,463065
2,385833	0,1	3,500951
2,387500	0,1	3,518065
2,389167	0,1	3,485905
2,390833	0,1	3,520527
2,392500	0,1	3,475246
2,394167	0,1	3,508106
2,395833	0,1	3,560117
2,397500	0,1	3,565810
2,399167	0,1	3,564668
2,400833	0,1	3,600655
2,402500	0,1	3,640931
2,404167	0,1	3,657460
2,405833	0,1	3,691020
2,407500	0,1	3,748499
2,409167	0,1	3,774245
2,410833	0,1	3,831778
2,412500	0,1	3,911568
2,414167	0,1	4,000779
2,415833	0,1	4,028746
2,417500	0,1	4,138257
2,419167	0,1	4,199609
2,420833	0,1	4,285923
2,422500	0,1	4,365804
2,424167	0,1	4,452722
2,425833	0,1	4,507874
2,427500	0,1	4,616130
2,429167	0,1	4,693359
2,430833	0,1	4,811698
2,432500	0,1	4,927526
2,434167	0,1	5,040362
2,435833	0,1	5,183683
2,437500	0,1	5,294182
2,439167	0,1	5,370725
2,440833	0,1	5,497896
2,442500	0,1	5,587299
2,444167	0,1	5,743654
2,445833	0,1	5,840414
2,447500	0,1	5,959810
2,449167	0,1	6,066853
2,450833	0,1	6,174513
2,452500	0,1	6,300911
2,454167	0,1	6,388585
2,455833	0,1	6,522562
2,457500	0,1	6,600054
2,459167	0,1	6,667414
2,460833	0,1	6,791568
2,462500	0,1	6,845699
2,464167	0,1	6,966735
2,465833	0,1	7,038906
2,467500	0,1	7,137964
2,469167	0,1	7,187376
2,470833	0,1	7,301496
2,472500	0,1	7,352053
2,474167	0,1	7,395958
2,475833	0,1	7,525177
2,477500	0,1	7,568298
2,479167	0,1	7,652222
2,480833	0,1	7,729086
2,482500	0,1	7,787349
2,484167	0,1	7,887315
2,485833	0,1	7,940631
2,487500	0,1	8,025107
2,489167	0,1	8,079788
2,490833	0,1	8,145316
2,492500	0,1	8,258172
2,494167	0,1	8,304064
2,495833	0,1	8,430833
2,497500	0,1	8,510058
2,499167	0,1	8,575282
2,500833	0,1	8,716411
2,502500	0,1	8,809035
2,504167	0,1	8,930411
2,505833	0,1	9,077626
2,507500	0,1	9,245773
2,509167	0,1	9,299280
2,510833	0,1	9,476170
2,512500	0,1	9,614903
2,514167	0,1	9,812387
2,515833	0,1	9,998281
2,517500	0,1	10,172801
2,519167	0,1	10,346164
2,520833	0,1	10,549288
2,522500	0,1	10,789481
2,524167	0,1	11,028424
2,525833	0,1	11,207398
2,527500	0,1	11,504115
2,529167	0,1	11,721256
2,530833	0,1	12,019304
2,532500	0,1	12,273275
2,534167	0,1	12,605864
2,535833	0,1	12,867068
2,537500	0,1	13,157711
2,539167	0,1	13,469810
2,540833	0,1	13,776469
2,542500	0,1	14,069422
2,544167	0,1	14,358593
2,545833	0,1	14,695526
2,547500	0,1	15,022781
2,549167	0,1	15,315098
2,550833	0,1	15,642902
2,552500	0,1	16,000989
2,554167	0,1	16,257008
2,555833	0,1	16,603290
2,557500	0,1	16,929816
2,559167	0,1	17,219833
2,560833	0,1	17,530869
2,562500	0,1	17,798367
2,564167	0,1	18,136657
2,565833	0,1	18,378163
2,567500	0,1	18,658717
2,569167	0,1	18,954941
2,570833	0,1	19,194774
2,572500	0,1	19,456536
2,574167	0,1	19,712060
2,575833	0,1	19,901358
2,577500	0,1	20,101648
2,579167	0,1	20,310670
2,580833	0,1	20,513786
2,582500	0,1	20,657406
2,584167	0,1	20,830579
2,585833	0,1	20,977199
2,587500	0,1	21,155693
2,589167	0,1	21,232069
2,590833	0,1	21,378995
2,592500	0,1	21,487246
2,594167	0,1	21,571095
2,595833	0,1	21,656956
2,597500	0,1	21,710196
2,599167	0,1	21,783074
2,600833	0,1	21,814279
2,602500	0,1	21,853494
2,604167	0,1	21,856404
2,605833	0,1	21,877196
2,607500	0,1	21,870153
2,609167	0,1	21,819420
2,610833	0,1	21,789568
2,612500	0,1	21,796998
2,614167	0,1	21,764203
2,615833	0,1	21,684799
2,617500	0,1	21,649550
2,619167	0,1	21,516159
2,620833	0,1	21,492842
2,622500	0,1	21,397310
2,624167	0,1	21,270030
2,625833	0,1	21,197294
2,627500	0,1	21,041450
2,629167	0,1	20,952649
2,630833	0,1	20,812955
2,632500	0,1	20,689373
2,634167	0,1	20,544985
2,635833	0,1	20,385757
2,637500	0,1	20,249040
2,639167	0,1	20,059073
2,640833	0,1	19,938476
2,642500	0,1	19,741489
2,644167	0,1	19,583829
2,645833	0,1	19,397849
2,647500	0,1	19,202195
2,649167	0,1	18,994682
2,650833	0,1	18,807510
2,652500	0,1	18,641751
2,654167	0,1	18,425982
2,655833	0,1	18,167785
2,657500	0,1	17,990035
2,659167	0,1	17,759897
2,660833	0,1	17,504932
2,662500	0,1	17,343570
2,664167	0,1	17,123923
2,665833	0,1	16,877405
2,667500	0,1	16,700806
2,669167	0,1	16,408571
2,670833	0,1	16,209317
2,672500	0,1	15,958713
2,674167	0,1	15,756497
2,675833	0,1	15,534137
2,677500	0,1	15,289102
2,679167	0,1	15,033813
2,680833	0,1	14,818457
2,682500	0,1	14,619198
2,684167	0,1	14,366555
2,685833	0,1	14,127337
2,687500	0,1	13,934129
2,689167	0,1	13,701773
2,690833	0,1	13,447841
2,692500	0,1	13,259934
2,694167	0,1	13,004467
2,695833	0,1	12,794003
2,697500	0,1	12,617611
2,699167	0,1	12,378655
2,700833	0,1	12,170799
2,702500	0,1	12,007143
2,704167	0,1	11,750024
2,705833	0,1	11,585605
2,707500	0,1	11,362804
2,709167	0,1	11,101399
2,710833	0,1	10,945554
2,712500	0,1	10,746633
2,714167	0,1	10,580069
2,715833	0,1	10,408633
2,717500	0,1	10,189720
2,719167	0,1	10,015030
2,720833	0,1	9,872089
2,722500	0,1	9,656815
2,724167	0,1	9,519239
2,725833	0,1	9,365995
2,727500	0,1	9,178966
2,729167	0,1	9,024928
2,730833	0,1	8,880493
2,732500	0,1	8,749632
2,734167	0,1	8,558770
2,735833	0,1	8,437471
2,737500	0,1	8,291101
2,739167	0,1	8,113517
2,740833	0,1	8,034707
2,742500	0,1	7,865977
2,744167	0,1	7,762790
2,745833	0,1	7,640848
2,747500	0,1	7,538780
2,749167	0,1	7,379846
2,750833	0,1	7,298360
2,752500	0,1	7,130466
2,754167	0,1	7,031664
2,755833	0,1	6,926469
2,757500	0,1	6,799366
2,759167	0,1	6,714461
2,760833	0,1	6,598430
2,762500	0,1	6,531005
2,764167	0,1	6,395357
2,765833	0,1	6,340145
2,767500	0,1	6,218025
2,769167	0,1	6,126061
2,770833	0,1	6,056167
2,772500	0,1	5,960039
2,774167	0,1	5,902686
2,775833	0,1	5,802137
2,777500	0,1	5,720597
2,779167	0,1	5,634823
2,780833	0,1	5,577260
2,782500	0,1	5,482321
2,784167	0,1	5,389645
2,785833	0,1	5,323633
2,787500	0,1	5,289522
2,789167	0,1	5,183037
2,790833	0,1	5,125823
2,792500	0,1	5,058757
2,794167	0,1	5,014326
2,795833	0,1	4,957745
2,797500	0,1	4,805861
2,799167	0,1	4,831408
2,800833	0,1	4,749571
2,802500	0,1	4,640640
2,804167	0,1	4,667526
2,805833	0,1	4,556070
2,807500	0,1	4,522914
2,809167	0,1	4,458564
2,810833	0,1	4,363331
2,812500	0,1	4,361644
2,814167	0,1	4,297730
2,815833	0,1	4,203874
2,817500	0,1	4,209617
2,819167	0,1	4,103284
2,820833	0,1	4,106511
2,822500	0,1	4,068235
2,824167	0,1	4,027589
2,825833	0,1	3,942910
2,827500	0,1	3,895982
2,829167	0,1	3,860106
2,830833	0,1	3,789775
2,832500	0,1	3,746136
2,834167	0,1	3,722832
2,835833	0,1	3,656933
2,837500	0,1	3,671981
2,839167	0,1	3,595598
2,840833	0,1	3,522031
2,842500	0,1	3,520252
2,844167	0,1	3,490829
2,845833	0,1	3,452620
2,847500	0,1	3,439828
2,849167	0,1	3,363944
2,850833	0,1	3,346415
2,852500	0,1	3,285540
2,854167	0,1	3,307035
2,855833	0,1	3,200229
2,857500	0,1	3,223311
2,859167	0,1	3,173833
2,860833	0,1	3,118589
2,862500	0,1	3,102658
2,864167	0,1	3,093917
2,865833	0,1	3,046975
2,867500	0,1	3,038531
2,869167	0,1	3,022045
2,870833	0,1	2,986094
2,872500	0,1	2,935751
2,874167	0,1	2,895341
2,875833	0,1	2,863486
2,877500	0,1	2,820908
2,879167	0,1	2,848636
2,880833	0,1	2,763267
2,882500	0,1	2,762868
2,884167	0,1	2,741944
2,885833	0,1	2,743592
2,887500	0,1	2,711110
2,889167	0,1	2,674665
2,890833	0,1	2,678889
2,892500	0,1	2,642449
2,894167	0,1	2,629359
2,895833	0,1	2,586540
2,897500	0,1	2,604770
2,899167	0,1	2,547870
2,900833	0,1	2,550742
2,902500	0,1	2,527881
2,904167	0,1	2,522353
2,905833	0,1	2,475724
2,907500	0,1	2,497479
2,909167	0,1	2,456536
2,910833	0,1	2,465650
2,912500	0,1	2,445980
2,914167	0,1	2,431172
2,915833	0,1	2,417022
2,917500	0,1	2,425202
2,919167	0,1	2,376368
2,920833	0,1	2,359696
2,922500	0,1	2,338436
2,924167	0,1	2,334336
2,925833	0,1	2,267412
2,927500	0,1	2,276156
2,929167	0,1	2,291666
2,930833	0,1	2,304810
2,932500	0,1	2,241198
2,934167	0,1	2,291657
2,935833	0,1	2,219154
2,937500	0,1	2,206573
2,939167	0,1	2,214971
2,940833	0,1	2,193652
2,942500	0,1	2,209226
2,944167	0,1	2,195157
2,945833	0,1	2,148352
2,947500	0,1	2,155732
2,949167	0,1	2,156955
2,950833	0,1	2,119562
2,952500	0,1	2,131180
2,954167	0,1	2,128528
2,955833	0,1	2,148265
2,957500	0,1	2,087689
2,959167	0,1	2,079350
2,960833	0,1	2,021220
2,962500	0,1	2,014960
2,964167	0,1	2,030671
2,965833	0,1	2,036567
2,967500	0,1	2,025586
2,969167	0,1	2,042370
2,970833	0,1	2,017407
2,972500	0,1	2,004410
2,974167	0,1	1,958127
2,975833	0,1	1,946558
2,977500	0,1	1,970025
2,979167	0,1	1,999811
2,980833	0,1	1,987629
2,982500	0,1	1,943412
2,984167	0,1	1,966877
2,985833	0,1	1,926970
2,987500	0,1	1,933860
2,989167	0,1	1,945982
2,990833	0,1	1,883193
2,992500	0,1	1,930703
2,994167	0,1	1,926911
2,995833	0,1	1,933731
2,997500	0,1	1,840095
2,999167	0,1	1,885849
3,000833	0,1	1,896336
3,002500	0,1	1,870648
3,004167	0,1	1,896248
3,005833	0,1	1,837863
3,007500	0,1	1,901489
3,009167	0,1	1,879912
3,010833	0,1	1,857373
3,012500	0,1	1,830612
3,014167	0,1	1,869355
3,015833	0,1	1,810028
3,017500	0,1	1,842517
3,019167	0,1	1,808022
3,020833	0,1	1,837282
3,022500	0,1	1,832474
3,024167	0,1	1,758955
3,025833	0,1	1,791568
3,027500	0,1	1,748966
3,029167	0,1	1,787476
3,030833	0,1	1,773948
3,032500	0,1	1,760302
3,034167	0,1	1,745899
3,035833	0,1	1,761088
3,037500	0,1	1,739784
3,039167	0,1	1,741724
3,040833	0,1	1,727942
3,042500	0,1	1,716530
3,044167	0,1	1,770704
3,045833	0,1	1,729271
3,047500	0,1	1,728665
3,049167	0,1	1,750837
3,050833	0,1	1,722295
3,052500	0,1	1,695550
3,054167	0,1	1,725152
3,055833	0,1	1,692176
3,057500	0,1	1,714180
3,059167	0,1	1,676340
3,060833	0,1	1,691598
3,062500	0,1	1,665411
3,064167	0,1	1,655310
3,065833	0,1	1,687781
3,067500	0,1	1,684203
3,069167	0,1	1,701280
3,070833	0,1	1,658463
3,072500	0,1	1,705007
3,074167	0,1	1,690374
3,075833	0,1	1,664051
3,077500	0,1	1,638026
3,079167	0,1	1,642339
3,080833	0,1	1,629481
3,082500	0,1	1,604465
3,084167	0,1	1,662611
3,085833	0,1	1,635869
3,087500	0,1	1,641670
3,089167	0,1	1,597784
3,090833	0,1	1,576537
3,092500	0,1	1,608624
3,094167	0,1	1,655596
3,095833	0,1	1,609288
3,097500	0,1	1,647333
3,099167	0,1	1,637146
3,100833	0,1	1,649127
3,102500	0,1	1,649729
3,104167	0,1	1,640107
3,105833	0,1	1,634863
3,107500	0,1	1,691588
3,109167	0,1	1,671656
3,110833	0,1	1,673748
3,112500	0,1	1,661983
3,114167	0,1	1,672364
3,115833	0,1	1,704872
3,117500	0,1	1,692597
3,119167	0,1	1,708429
3,120833	0,1	1,705942
3,122500	0,1	1,709527
3,124167	0,1	1,730478
3,125833	0,1	1,747967
3,127500	0,1	1,784552
3,129167	0,1	1,756788
3,130833	0,1	1,770504
3,132500	0,1	1,772007
3,134167	0,1	1,823211
3,135833	0,1	1,809318
3,137500	0,1	1,825942
3,139167	0,1	1,849046
3,140833	0,1	1,857654
3,142500	0,1	1,857236
3,144167	0,1	1,854934
3,145833	0,1	1,857220
3,147500	0,1	1,880253
3,149167	0,1	1,913704
3,150833	0,1	1,902864
3,152500	0,1	1,954392
3,154167	0,1	1,956971
3,155833	0,1	1,913205
3,157500	0,1	1,948994
3,159167	0,1	1,965082
3,160833	0,1	1,966219
3,162500	0,1	1,999739
3,164167	0,1	2,020339
3,165833	0,1	1,971833
3,167500	0,1	2,001745
3,169167	0,1	2,010939
3,170833	0,1	2,037279
3,172500	0,1	2,065710
3,174167	0,1	2,062765
3,175833	0,1	2,083011
3,177500	0,1	2,072315
3,179167	0,1	2,067931
3,180833	0,1	2,054227
3,182500	0,1	2,070945
3,184167	0,1	2,072594
3,185833	0,1	2,055803
3,187500	0,1	2,082577
3,189167	0,1	2,075330
3,190833	0,1	2,115164
3,192500	0,1	2,078787
3,194167	0,1	2,095210
3,195833	0,1	2,096289
3,197500	0,1	2,104619
3,199167	0,1	2,081144
3,200833	0,1	2,099661
3,202500	0,1	2,103980
3,204167	0,1	2,106345
3,205833	0,1	2,063349
3,207500	0,1	2,060904
3,209167	0,1	2,078916
3,210833	0,1	2,040592
3,212500	0,1	2,063054
3,214167	0,1	2,076838
3,215833	0,1	2,059467
3,217500	0,1	2,040094
3,219167	0,1	2,066570
3,220833	0,1	2,036714
3,222500	0,1	2,024798
3,224167	0,1	2,023221
3,225833	0,1	1,980521
3,227500	0,1	2,007271
3,229167	0,1	2,022783
3,230833	0,1	2,005138
3,232500	0,1	1,935815
3,234167	0,1	1,938593
3,235833	0,1	1,967738
3,237500	0,1	1,961788
3,239167	0,1	1,915570
3,240833	0,1	1,931357
3,242500	0,1	1,922673
3,244167	0,1	1,876395
3,245833	0,1	1,863977
3,247500	0,1	1,830544
3,249167	0,1	1,858436
3,250833	0,1	1,849791
3,252500	0,1	1,838574
3,254167	0,1	1,808806
3,255833	0,1	1,806008
3,257500	0,1	1,793585
3,259167	0,1	1,791594
3,260833	0,1	1,721798
3,262500	0,1	1,710592
3,264167	0,1	1,709169
3,265833	0,1	1,719992
3,267500	0,1	1,701855
3,269167	0,1	1,663349
3,270833	0,1	1,649420
3,272500	0,1	1,650490
3,274167	0,1	1,633078
3,275833	0,1	1,594168
3,277500	0,1	1,652999
3,279167	0,1	1,583988
3,280833	0,1	1,593417
3,282500	0,1	1,564894
3,284167	0,1	1,565380
3,285833	0,1	1,535060
3,287500	0,1	1,512680
3,289167	0,1	1,518274
3,290833	0,1	1,491883
3,292500	0,1	1,469246
3,294167	0,1	1,487028
3,295833	0,1	1,456566
3,297500	0,1	1,448089
3,299167	0,1	1,424513
3,300833	0,1	1,414984
3,302500	0,1	1,427813
3,304167	0,1	1,366042
3,305833	0,1	1,418212
3,307500	0,1	1,398132
3,309167	0,1	1,378882
3,310833	0,1	1,357070
3,312500	0,1	1,350616
3,314167	0,1	1,317391
3,315833	0,1	1,329634
3,317500	0,1	1,296976
3,319167	0,1	1,304852
3,320833	0,1	1,296190
3,322500	0,1	1,264135
3,324167	0,1	1,294516
3,325833	0,1	1,286787
3,327500	0,1	1,246775
3,329167	0,1	1,199859
3,330833	0,1	1,264439
3,332500	0,1	1,181236
3,334167	0,1	1,229355
3,335833	0,1	1,243240
3,337500	0,1	1,240491
3,339167	0,1	1,213569
3,340833	0,1	1,189712
3,342500	0,1	1,134523
3,344167	0,1	1,200028
3,345833	0,1	1,157059
3,347500	0,1	1,176829
3,349167	0,1	1,143786
3,350833	0,1	1,118152
3,352500	0,1	1,127303
3,354167	0,1	1,168931
3,355833	0,1	1,133936
3,357500	0,1	1,134262
3,359167	0,1	1,101838
3,360833	0,1	1,116055
3,362500	0,1	1,095790
3,364167	0,1	1,093942
3,365833	0,1	1,154919
3,367500	0,1	1,106177
3,369167	0,1	1,092632
3,370833	0,1	1,098295
3,372500	0,1	1,122052
3,374167	0,1	1,041528
3,375833	0,1	1,094616
3,377500	0,1	1,074563
3,379167	0,1	1,051069
3,380833	0,1	1,052664
3,382500	0,1	1,062065
3,384167	0,1	1,078510
3,385833	0,1	1,063114
3,387500	0,1	1,081778
3,389167	0,1	1,055495
3,390833	0,1	1,034468
3,392500	0,1	1,048083
3,394167	0,1	1,054464
3,395833	0,1	1,040422
3,397500	0,1	0,979159
3,399167	0,1	1,036983
3,400833	0,1	1,017312
3,402500	0,1	1,044924
3,404167	0,1	1,000249
3,405833	0,1	0,982776
3,407500	0,1	1,005076
3,409167	0,1	1,003863
3,410833	0,1	1,021502
3,412500	0,1	0,995932
3,414167	0,1	0,993216
3,415833	0,1	0,994817
3,417500	0,1	1,013635
3,419167	0,1	0,984911
3,420833	0,1	1,015342
3,422500	0,1	0,984068
3,424167	0,1	0,997838
3,425833	0,1	0,992414
3,427500	0,1	0,968111
3,429167	0,1	0,993563
3,430833	0,1	0,988441
3,432500	0,1	0,989728
3,434167	0,1	0,990951
3,435833	0,1	1,026278
3,437500	0,1	1,002598
3,439167	0,1	1,011572
3,440833	0,1	1,003287
3,442500	0,1	1,034743
3,444167	0,1	1,027262
3,445833	0,1	1,002690
3,447500	0,1	1,034146
3,449167	0,1	1,023575
3,450833	0,1	1,031172
3,452500	0,1	1,030485
3,454167	0,1	1,081549
3,455833	0,1	1,056027
3,457500	0,1	1,077465
3,459167	0,1	1,086915
3,460833	0,1	1,104184
3,462500	0,1	1,095342
3,464167	0,1	1,109164
3,465833	0,1	1,065923
3,467500	0,1	1,131668
3,469167	0,1	1,160553
3,470833	0,1	1,126958
3,472500	0,1	1,154107
3,474167	0,1	1,153603
3,475833	0,1	1,134581
3,477500	0,1	1,170825
3,479167	0,1	1,168210
3,480833	0,1	1,185989
3,482500	0,1	1,219271
3,484167	0,1	1,239175
3,485833	0,1	1,239758
3,487500	0,1	1,258627
3,489167	0,1	1,216313
3,490833	0,1	1,263761
3,492500	0,1	1,264060
3,494167	0,1	1,298655
3,495833	0,1	1,281205
3,497500	0,1	1,291719
3,499167	0,1	1,342117
3,500833	0,1	1,317102
3,502500	0,1	1,405249
3,504167	0,1	1,346759
3,505833	0,1	1,383112
3,507500	0,1	1,343683
3,509167	0,1	1,380005
3,510833	0,1	1,416417
3,512500	0,1	1,382654
3,514167	0,1	1,412835
3,515833	0,1	1,447297
3,517500	0,1	1,443299
3,519167	0,1	1,408897
3,520833	0,1	1,451964
3,522500	0,1	1,478433
3,524167	0,1	1,467832
3,525833	0,1	1,477147
3,527500	0,1	1,472673
3,529167	0,1	1,473606
3,530833	0,1	1,486233
3,532500	0,1	1,463341
3,534167	0,1	1,525290
3,535833	0,1	1,507903
3,537500	0,1	1,487971
3,539167	0,1	1,475490
3,540833	0,1	1,550535
3,542500	0,1	1,533136
3,544167	0,1	1,579744
3,545833	0,1	1,544686
3,547500	0,1	1,534768
3,549167	0,1	1,523964
3,550833	0,1	1,561789
3,552500	0,1	1,579312
3,554167	0,1	1,543602
3,555833	0,1	1,557442
3,557500	0,1	1,570979
3,559167	0,1	1,522888
3,560833	0,1	1,532771
3,562500	0,1	1,549779
3,564167	0,1	1,531693
3,565833	0,1	1,517992
3,567500	0,1	1,551753
3,569167	0,1	1,500414
3,570833	0,1	1,538777
3,572500	0,1	1,522220
3,574167	0,1	1,487535
3,575833	0,1	1,502142
3,577500	0,1	1,519864
3,579167	0,1	1,492969
3,580833	0,1	1,443941
3,582500	0,1	1,504424
3,584167	0,1	1,472627
3,585833	0,1	1,463453
3,587500	0,1	1,499298
3,589167	0,1	1,473050
3,590833	0,1	1,463436
3,592500	0,1	1,434615
3,594167	0,1	1,458571
3,595833	0,1	1,418422
3,597500	0,1	1,439439
3,599167	0,1	1,426188
3,600833	0,1	1,391277
3,602500	0,1	1,370735
3,604167	0,1	1,406656
3,605833	0,1	1,413318
3,607500	0,1	1,387489
3,609167	0,1	1,418930
3,610833	0,1	1,368501
3,612500	0,1	1,365518
3,614167	0,1	1,364721
3,615833	0,1	1,349821
3,617500	0,1	1,353261
3,619167	0,1	1,328336
3,620833	0,1	1,301162
3,622500	0,1	1,300615
3,624167	0,1	1,291589
3,625833	0,1	1,273449
3,627500	0,1	1,326215
3,629167	0,1	1,277768
3,630833	0,1	1,293210
3,632500	0,1	1,264424
3,634167	0,1	1,247145
3,635833	0,1	1,263748
3,637500	0,1	1,216663
3,639167	0,1	1,223321
3,640833	0,1	1,201344
3,642500	0,1	1,201602
3,644167	0,1	1,218918
3,645833	0,1	1,182690
3,647500	0,1	1,193311
3,649167	0,1	1,202043
3,650833	0,1	1,155439
3,652500	0,1	1,164272
3,654167	0,1	1,150784
3,655833	0,1	1,134423
3,657500	0,1	1,125930
3,659167	0,1	1,120349
3,660833	0,1	1,116460
3,662500	0,1	1,141261
3,664167	0,1	1,047110
3,665833	0,1	1,096641
3,667500	0,1	1,042365
3,669167	0,1	1,110551
3,670833	0,1	1,094723
3,672500	0,1	1,080342
3,674167	0,1	1,048451
3,675833	0,1	1,044378
3,677500	0,1	1,030688
3,679167	0,1	0,981627
3,680833	0,1	1,022296
3,682500	0,1	1,015483
3,684167	0,1	1,035595
3,685833	0,1	1,013980
3,687500	0,1	0,990577
3,689167	0,1	1,015747
3,690833	0,1	1,008262
3,692500	0,1	0,987866
3,694167	0,1	0,949757
3,695833	0,1	0,975032
3,697500	0,1	0,989103
3,699167	0,1	0,987085
3,700833	0,1	0,963494
3,702500	0,1	0,935380
3,704167	0,1	0,939793
3,705833	0,1	0,961012
3,707500	0,1	0,948842
3,709167	0,1	0,933156
3,710833	0,1	0,968807
3,712500	0,1	0,915899
3,714167	0,1	0,957315
3,715833	0,1	0,941386
3,717500	0,1	0,940133
3,719167	0,1	0,924003
3,720833	0,1	0,906960
3,722500	0,1	0,902093
3,724167	0,1	0,883412
3,725833	0,1	0,914144
3,727500	0,1	0,952432
3,729167	0,1	0,902419
3,730833	0,1	0,906941
3,732500	0,1	0,929173
3,734167	0,1	0,887927
3,735833	0,1	0,907398
3,737500	0,1	0,925770
3,739167	0,1	0,920252
3,740833	0,1	0,900611
3,742500	0,1	0,880676
3,744167	0,1	0,922767
3,745833	0,1	0,939262
3,747500	0,1	0,921675
3,749167	0,1	0,913231
3,750833	0,1	0,913846
3,752500	0,1	0,944810
3,754167	0,1	0,921757
3,755833	0,1	0,892237
3,757500	0,1	0,907216
3,759167	0,1	0,941479
3,760833	0,1	0,883172
3,762500	0,1	0,903269
3,764167	0,1	0,889248
3,765833	0,1	0,893622
3,767500	0,1	0,881003
3,769167	0,1	0,925329
3,770833	0,1	0,911456
3,772500	0,1	0,858844
3,774167	0,1	0,935316
3,775833	0,1	0,896040
3,777500	0,1	0,907376
3,779167	0,1	0,894520
3,780833	0,1	0,928238
3,782500	0,1	0,905226
3,784167	0,1	0,871134
3,785833	0,1	0,905621
3,787500	0,1	0,928214
3,789167	0,1	0,900363
3,790833	0,1	0,886054
3,792500	0,1	0,875585
3,794167	0,1	0,962335
3,795833	0,1	0,916213
3,797500	0,1	0,928912
3,799167	0,1	0,901597
3,800833	0,1	0,881320
3,802500	0,1	0,906465
3,804167	0,1	0,888657
3,805833	0,1	0,897185
3,807500	0,1	0,937638
3,809167	0,1	0,944890
3,810833	0,1	0,901615
3,812500	0,1	0,917643
3,814167	0,1	0,926153
3,815833	0,1	0,903636
3,817500	0,1	0,914068
3,819167	0,1	0,940681
3,820833	0,1	0,899234
3,822500	0,1	0,900737
3,824167	0,1	0,898383
3,825833	0,1	0,886985
3,827500	0,1	0,869435
3,829167	0,1	0,867235
3,830833	0,1	0,885980
3,832500	0,1	0,879096
3,834167	0,1	0,878081
3,835833	0,1	0,914994
3,837500	0,1	0,919000
3,839167	0,1	0,863223
3,840833	0,1	0,851907
3,842500	0,1	0,838891
3,844167	0,1	0,868160
3,845833	0,1	0,833583
3,847500	0,1	0,847457
3,849167	0,1	0,839757
3,850833	0,1	0,847680
3,852500	0,1	0,836417
3,854167	0,1	0,818354
3,855833	0,1	0,877173
3,857500	0,1	0,811622
3,859167	0,1	0,841549
3,860833	0,1	0,838849
3,862500	0,1	0,866937
3,864167	0,1	0,805376
3,865833	0,1	0,821266
3,867500	0,1	0,806849
3,869167	0,1	0,839616
3,870833	0,1	0,813061
3,872500	0,1	0,835175
3,874167	0,1	0,842555
3,875833	0,1	0,829545
3,877500	0,1	0,830055
3,879167	0,1	0,810035
3,880833	0,1	0,800435
3,882500	0,1	0,759824
3,884167	0,1	0,797782
3,885833	0,1	0,797660
3,887500	0,1	0,757929
3,889167	0,1	0,775690
3,890833	0,1	0,803385
3,892500	0,1	0,733814
3,894167	0,1	0,701732
3,895833	0,1	0,757262
3,897500	0,1	0,748867
3,899167	0,1	0,767416
3,900833	0,1	0,738508
3,902500	0,1	0,741460
3,904167	0,1	0,756655
3,905833	0,1	0,747130
3,907500	0,1	0,721046
3,909167	0,1	0,737397
3,910833	0,1	0,689495
3,912500	0,1	0,737201
3,914167	0,1	0,734212
3,915833	0,1	0,706336
3,917500	0,1	0,731115
3,919167	0,1	0,713996
3,920833	0,1	0,696706
3,922500	0,1	0,719913
3,924167	0,1	0,698476
3,925833	0,1	0,692066
3,927500	0,1	0,696891
3,929167	0,1	0,682148
3,930833	0,1	0,717523
3,932500	0,1	0,694831
3,934167	0,1	0,649928
3,935833	0,1	0,749710
3,937500	0,1	0,719341
3,939167	0,1	0,655951
3,940833	0,1	0,670740
3,942500	0,1	0,697979
3,944167	0,1	0,667563
3,945833	0,1	0,692349
3,947500	0,1	0,657617
3,949167	0,1	0,665590
3,950833	0,1	0,699426
3,952500	0,1	0,664218
3,954167	0,1	0,636015
3,955833	0,1	0,671444
3,957500	0,1	0,664535
3,959167	0,1	0,671162
3,960833	0,1	0,676189
3,962500	0,1	0,671004
3,964167	0,1	0,643578
3,965833	0,1	0,652840
3,967500	0,1	0,670001
3,969167	0,1	0,669682
3,970833	0,1	0,635567
3,972500	0,1	0,620556
3,974167	0,1	0,650454
3,975833	0,1	0,634272
3,977500	0,1	0,598313
3,979167	0,1	0,654182
3,980833	0,1	0,635076
3,982500	0,1	0,652259
3,984167	0,1	0,623811
3,985833	0,1	0,658500
3,987500	0,1	0,641515
3,989167	0,1	0,668905
3,990833	0,1	0,657776
3,992500	0,1	0,617536
3,994167	0,1	0,645688
3,995833	0,1	0,636555
3,997500	0,1	0,611094
3,999167	0,1	0,597085
4,000833	0,1	0,681735
4,002500	0,1	0,660222
4,004167	0,1	0,654391
4,005833	0,1	0,689670
4,007500	0,1	0,674387
4,009167	0,1	0,709925
4,010833	0,1	0,650216
4,012500	0,1	0,661920
4,014167	0,1	0,689217
4,015833	0,1	0,680535
4,017500	0,1	0,674609
4,019167	0,1	0,670684
4,020833	0,1	0,678020
4,022500	0,1	0,682564
4,024167	0,1	0,685943
4,025833	0,1	0,678347
4,027500	0,1	0,684589
4,029167	0,1	0,726891
4,030833	0,1	0,680580
4,032500	0,1	0,691254
4,034167	0,1	0,718813
4,035833	0,1	0,719108
4,037500	0,1	0,706166
4,039167	0,1	0,732373
4,040833	0,1	0,758454
4,042500	0,1	0,737276
4,044167	0,1	0,746416
4,045833	0,1	0,707496
4,047500	0,1	0,723909
4,049167	0,1	0,762223
4,050833	0,1	0,717542
4,052500	0,1	0,759355
4,054167	0,1	0,754988
4,055833	0,1	0,774493
4,057500	0,1	0,785810
4,059167	0,1	0,782780
4,060833	0,1	0,802779
4,062500	0,1	0,811474
4,064167	0,1	0,830404
4,065833	0,1	0,843842
4,067500	0,1	0,876863
4,069167	0,1	0,857929
4,070833	0,1	0,869071
4,072500	0,1	0,880011
4,074167	0,1	0,896065
4,075833	0,1	0,897647
4,077500	0,1	0,896294
4,079167	0,1	0,932458
4,080833	0,1	0,901206
4,082500	0,1	0,946053
4,084167	0,1	0,974146
4,085833	0,1	0,933516
4,087500	0,1	0,980629
4,089167	0,1	0,994814
4,090833	0,1	1,001441
4,092500	0,1	1,013684
4,094167	0,1	1,037793
4,095833	0,1	1,039887
4,097500	0,1	1,078707
4,099167	0,1	1,082181
4,100833	0,1	1,044917
4,102500	0,1	1,088285
4,104167	0,1	1,124894
4,105833	0,1	1,148596
4,107500	0,1	1,176492
4,109167	0,1	1,163787
4,110833	0,1	1,171451
4,112500	0,1	1,200440
4,114167	0,1	1,240095
4,115833	0,1	1,249669
4,117500	0,1	1,256138
4,119167	0,1	1,303609
4,120833	0,1	1,281206
4,122500	0,1	1,340470
4,124167	0,1	1,305918
4,125833	0,1	1,320672
4,127500	0,1	1,328106
4,129167	0,1	1,359298
4,130833	0,1	1,401798
4,132500	0,1	1,395564
4,134167	0,1	1,446102
4,135833	0,1	1,433201
4,137500	0,1	1,437764
4,139167	0,1	1,491604
4,140833	0,1	1,448896
4,142500	0,1	1,492609
4,144167	0,1	1,494966
4,145833	0,1	1,549525
4,147500	0,1	1,531914
4,149167	0,1	1,554062
4,150833	0,1	1,594493
4,152500	0,1	1,578661
4,154167	0,1	1,650783
4,155833	0,1	1,594241
4,157500	0,1	1,626267
4,159167	0,1	1,648871
4,160833	0,1	1,682765
4,162500	0,1	1,681781
4,164167	0,1	1,685514
4,165833	0,1	1,679707
4,167500	0,1	1,685920
4,169167	0,1	1,739001
4,170833	0,1	1,720069
4,172500	0,1	1,769491
4,174167	0,1	1,739010
4,175833	0,1	1,755208
4,177500	0,1	1,776581
4,179167	0,1	1,772296
4,180833	0,1	1,810674
4,182500	0,1	1,800408
4,184167	0,1	1,814197
4,185833	0,1	1,786295
4,187500	0,1	1,843102
4,189167	0,1	1,824170
4,190833	0,1	1,829756
4,192500	0,1	1,857945
4,194167	0,1	1,838016
4,195833	0,1	1,858584
4,197500	0,1	1,863692
4,199167	0,1	1,843827
4,200833	0,1	1,893027
4,202500	0,1	1,865132
4,204167	0,1	1,858304
4,205833	0,1	1,849185
4,207500	0,1	1,894530
4,209167	0,1	1,869137
4,210833	0,1	1,898558
4,212500	0,1	1,891314
4,214167	0,1	1,887573
4,215833	0,1	1,914633
4,217500	0,1	1,897269
4,219167	0,1	1,927413
4,220833	0,1	1,903729
4,222500	0,1	1,905098
4,224167	0,1	1,909050
4,225833	0,1	1,892832
4,227500	0,1	1,912627
4,229167	0,1	1,880266
4,230833	0,1	1,894173
4,232500	0,1	1,860099
4,234167	0,1	1,871936
4,235833	0,1	1,869871
4,237500	0,1	1,884270
4,239167	0,1	1,885017
4,240833	0,1	1,862118
4,242500	0,1	1,858879
4,244167	0,1	1,884141
4,245833	0,1	1,860757
4,247500	0,1	1,859320
4,249167	0,1	1,843966
4,250833	0,1	1,878894
4,252500	0,1	1,849711
4,254167	0,1	1,799258
4,255833	0,1	1,817687
4,257500	0,1	1,867772
4,259167	0,1	1,840460
4,260833	0,1	1,806374
4,262500	0,1	1,785142
4,264167	0,1	1,802278
4,265833	0,1	1,773453
4,267500	0,1	1,778749
4,269167	0,1	1,781908
4,270833	0,1	1,758673
4,272500	0,1	1,800133
4,274167	0,1	1,753019
4,275833	0,1	1,753066
4,277500	0,1	1,687298
4,279167	0,1	1,730959
4,280833	0,1	1,707389
4,282500	0,1	1,737993
4,284167	0,1	1,702653
4,285833	0,1	1,723307
4,287500	0,1	1,689434
4,289167	0,1	1,668578
4,290833	0,1	1,674311
4,292500	0,1	1,689535
4,294167	0,1	1,675399
4,295833	0,1	1,612288
4,297500	0,1	1,609805
4,299167	0,1	1,603964
4,300833	0,1	1,568054
4,302500	0,1	1,598988
4,304167	0,1	1,614654
4,305833	0,1	1,592377
4,307500	0,1	1,588682
4,309167	0,1	1,537714
4,310833	0,1	1,528602
4,312500	0,1	1,530398
4,314167	0,1	1,530248
4,315833	0,1	1,536562
4,317500	0,1	1,502935
4,319167	0,1	1,512329
4,320833	0,1	1,516436
4,322500	0,1	1,525577
4,324167	0,1	1,465674
4,325833	0,1	1,486450
4,327500	0,1	1,436010
4,329167	0,1	1,446879
4,330833	0,1	1,460153
4,332500	0,1	1,385413
4,334167	0,1	1,408630
4,335833	0,1	1,377154
4,337500	0,1	1,393046
4,339167	0,1	1,386669
4,340833	0,1	1,371786
4,342500	0,1	1,382372
4,344167	0,1	1,371649
4,345833	0,1	1,349416
4,347500	0,1	1,349988
4,349167	0,1	1,328132
4,350833	0,1	1,369973
4,352500	0,1	1,330291
4,354167	0,1	1,322496
4,355833	0,1	1,332791
4,357500	0,1	1,292869
4,359167	0,1	1,287364
4,360833	0,1	1,268405
4,362500	0,1	1,288665
4,364167	0,1	1,313746
4,365833	0,1	1,223900
4,367500	0,1	1,236261
4,369167	0,1	1,239930
4,370833	0,1	1,260341
4,372500	0,1	1,248097
4,374167	0,1	1,243330
4,375833	0,1	1,247891
4,377500	0,1	1,216014
4,379167	0,1	1,221145
4,380833	0,1	1,194959
4,382500	0,1	1,210442
4,384167	0,1	1,168798
4,385833	0,1	1,188747
4,387500	0,1	1,159233
4,389167	0,1	1,137424
4,390833	0,1	1,177689
4,392500	0,1	1,157986
4,394167	0,1	1,123646
4,395833	0,1	1,103525
4,397500	0,1	1,100010
4,399167	0,1	1,145434
4,400833	0,1	1,129442
4,402500	0,1	1,118015
4,404167	0,1	1,061191
4,405833	0,1	1,083266
4,407500	0,1	1,102537
4,409167	0,1	1,020171
4,410833	0,1	1,084811
4,412500	0,1	1,069227
4,414167	0,1	1,038384
4,415833	0,1	1,053463
4,417500	0,1	1,050911
4,419167	0,1	1,024536
4,420833	0,1	0,997023
4,422500	0,1	1,004325
4,424167	0,1	1,014595
4,425833	0,1	0,992268
4,427500	0,1	0,987439
4,429167	0,1	0,998549
4,430833	0,1	0,962159
4,432500	0,1	0,985301
4,434167	0,1	0,949321
4,435833	0,1	0,959834
4,437500	0,1	0,926453
4,439167	0,1	0,963364
4,440833	0,1	0,941981
4,442500	0,1	0,913697
4,444167	0,1	0,923194
4,445833	0,1	0,903701
4,447500	0,1	0,946748
4,449167	0,1	0,949533
4,450833	0,1	0,919704
4,452500	0,1	0,891987
4,454167	0,1	0,906873
4,455833	0,1	0,912203
4,457500	0,1	0,892432
4,459167	0,1	0,896095
4,460833	0,1	0,843949
4,462500	0,1	0,860301
4,464167	0,1	0,842823
4,465833	0,1	0,862655
4,467500	0,1	0,855982
4,469167	0,1	0,812261
4,470833	0,1	0,876108
4,472500	0,1	0,825987
4,474167	0,1	0,807906
4,475833	0,1	0,831309
4,477500	0,1	0,783304
4,479167	0,1	0,820354
4,480833	0,1	0,761899
4,482500	0,1	0,811987
4,484167	0,1	0,728956
4,485833	0,1	0,785342
4,487500	0,1	0,792467
4,489167	0,1	0,767326
4,490833	0,1	0,813678
4,492500	0,1	0,783392
4,494167	0,1	0,764132
4,495833	0,1	0,755916
4,497500	0,1	0,728840
4,499167	0,1	0,738297
4,500833	0,1	0,737539
4,502500	0,1	0,722752
4,504167	0,1	0,739555
4,505833	0,1	0,696129
4,507500	0,1	0,710992
4,509167	0,1	0,689299
4,510833	0,1	0,715881
4,512500	0,1	0,702561
4,514167	0,1	0,681153
4,515833	0,1	0,702039
4,517500	0,1	0,720067
4,519167	0,1	0,679545
4,520833	0,1	0,642839
4,522500	0,1	0,680653
4,524167	0,1	0,626005
4,525833	0,1	0,649717
4,527500	0,1	0,631888
4,529167	0,1	0,692081
4,530833	0,1	0,659645
4,532500	0,1	0,665173
4,534167	0,1	0,643095
4,535833	0,1	0,646243
4,537500	0,1	0,655481
4,539167	0,1	0,653357
4,540833	0,1	0,648495
4,542500	0,1	0,638775
4,544167	0,1	0,627474
4,545833	0,1	0,593003
4,547500	0,1	0,597500
4,549167	0,1	0,645010
4,550833	0,1	0,571860
4,552500	0,1	0,595950
4,554167	0,1	0,602874
4,555833	0,1	0,628015
4,557500	0,1	0,582253
4,559167	0,1	0,569657
4,560833	0,1	0,613586
4,562500	0,1	0,582087
4,564167	0,1	0,587165
4,565833	0,1	0,587295
4,567500	0,1	0,553600
4,569167	0,1	0,577987
4,570833	0,1	0,558876
4,572500	0,1	0,531772
4,574167	0,1	0,508627
4,575833	0,1	0,589335
4,577500	0,1	0,514113
4,579167	0,1	0,536236
4,580833	0,1	0,560990
4,582500	0,1	0,530359
4,584167	0,1	0,513103
4,585833	0,1	0,523783
4,587500	0,1	0,561340
4,589167	0,1	0,548411
4,590833	0,1	0,529197
4,592500	0,1	0,532605
4,594167	0,1	0,490355
4,595833	0,1	0,458132
4,597500	0,1	0,520680
4,599167	0,1	0,474939
4,600833	0,1	0,467142
4,602500	0,1	0,503015
4,604167	0,1	0,477797
4,605833	0,1	0,468557
4,607500	0,1	0,495936
4,609167	0,1	0,470556
4,610833	0,1	0,482039
4,612500	0,1	0,469914
4,614167	0,1	0,487474
4,615833	0,1	0,493558
4,617500	0,1	0,476283
4,619167	0,1	0,460255
4,620833	0,1	0,442522
4,622500	0,1	0,491941
4,624167	0,1	0,457266
4,625833	0,1	0,459735
4,627500	0,1	0,425276
4,629167	0,1	0,446927
4,630833	0,1	0,465046
4,632500	0,1	0,488895
4,634167	0,1	0,418369
4,635833	0,1	0,390140
4,637500	0,1	0,438999
4,639167	0,1	0,430003
4,640833	0,1	0,439461
4,642500	0,1	0,420415
4,644167	0,1	0,414590
4,645833	0,1	0,440936
4,647500	0,1	0,428461
4,649167	0,1	0,415717
4,650833	0,1	0,413982
4,652500	0,1	0,399302
4,654167	0,1	0,403739
4,655833	0,1	0,442961
4,657500	0,1	0,382996
4,659167	0,1	0,409661
4,660833	0,1	0,375657
4,662500	0,1	0,397689
4,664167	0,1	0,424272
4,665833	0,1	0,388401
4,667500	0,1	0,391093
4,669167	0,1	0,389037
4,670833	0,1	0,366455
4,672500	0,1	0,399007
4,674167	0,1	0,418770
4,675833	0,1	0,367939
4,677500	0,1	0,405378
4,679167	0,1	0,383123
4,680833	0,1	0,374174
4,682500	0,1	0,385083
4,684167	0,1	0,428321
4,685833	0,1	0,354025
4,687500	0,1	0,384236
4,689167	0,1	0,353941
4,690833	0,1	0,401417
4,692500	0,1	0,352532
4,694167	0,1	0,354250
4,695833	0,1	0,354549
4,697500	0,1	0,374294
4,699167	0,1	0,382853
4,700833	0,1	0,376331
4,702500	0,1	0,363336
4,704167	0,1	0,358665
4,705833	0,1	0,354297
4,707500	0,1	0,380672
4,709167	0,1	0,340592
4,710833	0,1	0,359531
4,712500	0,1	0,347664
4,714167	0,1	0,332158
4,715833	0,1	0,344821
4,717500	0,1	0,383561
4,719167	0,1	0,368738
4,720833	0,1	0,340010
4,722500	0,1	0,365809
4,724167	0,1	0,355550
4,725833	0,1	0,354549
4,727500	0,1	0,339236
4,729167	0,1	0,338136
4,730833	0,1	0,317740
4,732500	0,1	0,367081
4,734167	0,1	0,339974
4,735833	0,1	0,319128
4,737500	0,1	0,339572
4,739167	0,1	0,364686
4,740833	0,1	0,320710
4,742500	0,1	0,328457
4,744167	0,1	0,306095
4,745833	0,1	0,319511
4,747500	0,1	0,316965
4,749167	0,1	0,330158
4,750833	0,1	0,297255
4,752500	0,1	0,334431
4,754167	0,1	0,322632
4,755833	0,1	0,300115
4,757500	0,1	0,284924
4,759167	0,1	0,329507
4,760833	0,1	0,322378
4,762500	0,1	0,351163
4,764167	0,1	0,320228
4,765833	0,1	0,339808
4,767500	0,1	0,343799
4,769167	0,1	0,336182
4,770833	0,1	0,325912
4,772500	0,1	0,299926
4,774167	0,1	0,317678
4,775833	0,1	0,348715
4,777500	0,1	0,335828
4,779167	0,1	0,366679
4,780833	0,1	0,339541
4,782500	0,1	0,345149
4,784167	0,1	0,336397
4,785833	0,1	0,304937
4,787500	0,1	0,308335
4,789167	0,1	0,306381
4,790833	0,1	0,316520
4,792500	0,1	0,303873
4,794167	0,1	0,323911
4,795833	0,1	0,313588
4,797500	0,1	0,325844
4,799167	0,1	0,323526
4,800833	0,1	0,341133
4,802500	0,1	0,284001
4,804167	0,1	0,291415
4,805833	0,1	0,315130
4,807500	0,1	0,342861
4,809167	0,1	0,315396
4,810833	0,1	0,317998
4,812500	0,1	0,287627
4,814167	0,1	0,295931
4,815833	0,1	0,312168
4,817500	0,1	0,312713
4,819167	0,1	0,311529
4,820833	0,1	0,316158
4,822500	0,1	0,300543
4,824167	0,1	0,296869
4,825833	0,1	0,311663
4,827500	0,1	0,321315
4,829167	0,1	0,314494
4,830833	0,1	0,285053
4,832500	0,1	0,305125
4,834167	0,1	0,304198
4,835833	0,1	0,299557
4,837500	0,1	0,312042
4,839167	0,1	0,287045
4,840833	0,1	0,325623
4,842500	0,1	0,320032
4,844167	0,1	0,293164
4,845833	0,1	0,318738
4,847500	0,1	0,321279
4,849167	0,1	0,297794
4,850833	0,1	0,312141
4,852500	0,1	0,263222
4,854167	0,1	0,350604
4,855833	0,1	0,300350
4,857500	0,1	0,304008
4,859167	0,1	0,341055
4,860833	0,1	0,281717
4,862500	0,1	0,320728
4,864167	0,1	0,310382
4,865833	0,1	0,323534
4,867500	0,1	0,345725
4,869167	0,1	0,272700
4,870833	0,1	0,316212
4,872500	0,1	0,256688
4,874167	0,1	0,332944
4,875833	0,1	0,298743
4,877500	0,1	0,279362
4,879167	0,1	0,331210
4,880833	0,1	0,369568
4,882500	0,1	0,301136
4,884167	0,1	0,350904
4,885833	0,1	0,305358
4,887500	0,1	0,319093
4,889167	0,1	0,310180
4,890833	0,1	0,301272
4,892500	0,1	0,311916
4,894167	0,1	0,279618
4,895833	0,1	0,290482
4,897500	0,1	0,319380
4,899167	0,1	0,340552
4,900833	0,1	0,357699
4,902500	0,1	0,270080
4,904167	0,1	0,325643
4,905833	0,1	0,308340
4,907500	0,1	0,297565
4,909167	0,1	0,342312
4,910833	0,1	0,330708
4,912500	0,1	0,356058
4,914167	0,1	0,319927
4,915833	0,1	0,314747
4,917500	0,1	0,284158
4,919167	0,1	0,338677
4,920833	0,1	0,299703
4,922500	0,1	0,314387
4,924167	0,1	0,317291
4,925833	0,1	0,325718
4,927500	0,1	0,303521
4,929167	0,1	0,317190
4,930833	0,1	0,314265
4,932500	0,1	0,317192
4,934167	0,1	0,313306
4,935833	0,1	0,304074
4,937500	0,1	0,349717
4,939167	0,1	0,302379
4,940833	0,1	0,342050
4,942500	0,1	0,356894
4,944167	0,1	0,326599
4,945833	0,1	0,327941
4,947500	0,1	0,273202
4,949167	0,1	0,303445
4,950833	0,1	0,306064
4,952500	0,1	0,325490
4,954167	0,1	0,337074
4,955833	0,1	0,341453
4,957500	0,1	0,330100
4,959167	0,1	0,335497
4,960833	0,1	0,321673
4,962500	0,1	0,340705
4,964167	0,1	0,324500
4,965833	0,1	0,397430
4,967500	0,1	0,354134
4,969167	0,1	0,348144
4,970833	0,1	0,342768
4,972500	0,1	0,342513
4,974167	0,1	0,328487
4,975833	0,1	0,325811
4,977500	0,1	0,333541
4,979167	0,1	0,334376
4,980833	0,1	0,368473
4,982500	0,1	0,386140
4,984167	0,1	0,351014
4,985833	0,1	0,335667
4,987500	0,1	0,371626
4,989167	0,1	0,350947
4,990833	0,1	0,369310
4,992500	0,1	0,346506
4,994167	0,1	0,340637
4,995833	0,1	0,354926
4,997500	0,1	0,369057
4,999167	0,1	0,388298
5,000833	0,1	0,335448
5,002500	0,1	0,412032
5,004167	0,1	0,379293
5,005833	0,1	0,374816
5,007500	0,1	0,410564
5,009167	0,1	0,405291
5,010833	0,1	0,383123
5,012500	0,1	0,409695
5,014167	0,1	0,409185
5,015833	0,1	0,388498
5,017500	0,1	0,425654
5,019167	0,1	0,376694
5,020833	0,1	0,432410
5,022500	0,1	0,414013
5,024167	0,1	0,397054
5,025833	0,1	0,409500
5,027500	0,1	0,431932
5,029167	0,1	0,407451
5,030833	0,1	0,400913
5,032500	0,1	0,385242
5,034167	0,1	0,421857
5,035833	0,1	0,430323
5,037500	0,1	0,491073
5,039167	0,1	0,386614
5,040833	0,1	0,411817
5,042500	0,1	0,423887
5,044167	0,1	0,431483
5,045833	0,1	0,462272
5,047500	0,1	0,443202
5,049167	0,1	0,445156
5,050833	0,1	0,456903
5,052500	0,1	0,461538
5,054167	0,1	0,478883
5,055833	0,1	0,473675
5,057500	0,1	0,429274
5,059167	0,1	0,444933
5,060833	0,1	0,467040
5,062500	0,1	0,472416
5,064167	0,1	0,507396
5,065833	0,1	0,447973
5,067500	0,1	0,453140
5,069167	0,1	0,485895
5,070833	0,1	0,482397
5,072500	0,1	0,469751
5,074167	0,1	0,518656
5,075833	0,1	0,474683
5,077500	0,1	0,450278
5,079167	0,1	0,540825
5,080833	0,1	0,519995
5,082500	0,1	0,454091
5,084167	0,1	0,420834
5,085833	0,1	0,491131
5,087500	0,1	0,499291
5,089167	0,1	0,510041
5,090833	0,1	0,499650
5,092500	0,1	0,501803
5,094167	0,1	0,536203
5,095833	0,1	0,531287
5,097500	0,1	0,504484
5,099167	0,1	0,519567
5,100833	0,1	0,492155
5,102500	0,1	0,526643
5,104167	0,1	0,500199
5,105833	0,1	0,511232
5,107500	0,1	0,484142
5,109167	0,1	0,483844
5,110833	0,1	0,475702
5,112500	0,1	0,498256
5,114167	0,1	0,539966
5,115833	0,1	0,549020
5,117500	0,1	0,519610
5,119167	0,1	0,500940
5,120833	0,1	0,522945
5,122500	0,1	0,551719
5,124167	0,1	0,519512
5,125833	0,1	0,481790
5,127500	0,1	0,509297
5,129167	0,1	0,503771
5,130833	0,1	0,553998
5,132500	0,1	0,528750
5,134167	0,1	0,499331
5,135833	0,1	0,481689
5,137500	0,1	0,512288
5,139167	0,1	0,506503
5,140833	0,1	0,505185
5,142500	0,1	0,533146
5,144167	0,1	0,511624
5,145833	0,1	0,543059
5,147500	0,1	0,507990
5,149167	0,1	0,489997
5,150833	0,1	0,519113
5,152500	0,1	0,508115
5,154167	0,1	0,523269
5,155833	0,1	0,518669
5,157500	0,1	0,518636
5,159167	0,1	0,489804
5,160833	0,1	0,489574
5,162500	0,1	0,484038
5,164167	0,1	0,473584
5,165833	0,1	0,513543
5,167500	0,1	0,498364
5,169167	0,1	0,459911
5,170833	0,1	0,508488
5,172500	0,1	0,478898
5,174167	0,1	0,490438
5,175833	0,1	0,481076
5,177500	0,1	0,488796
5,179167	0,1	0,479632
5,180833	0,1	0,494171
5,182500	0,1	0,468467
5,184167	0,1	0,494717
5,185833	0,1	0,437164
5,187500	0,1	0,480743
5,189167	0,1	0,481113
5,190833	0,1	0,444591
5,192500	0,1	0,454717
5,194167	0,1	0,466047
5,195833	0,1	0,487349
5,197500	0,1	0,455016
5,199167	0,1	0,425473
5,200833	0,1	0,441494
5,202500	0,1	0,447510
5,204167	0,1	0,412475
5,205833	0,1	0,424148
5,207500	0,1	0,440583
5,209167	0,1	0,452111
5,210833	0,1	0,411926
5,212500	0,1	0,439102
5,214167	0,1	0,441139
5,215833	0,1	0,419778
5,217500	0,1	0,409995
5,219167	0,1	0,422345
5,220833	0,1	0,375986
5,222500	0,1	0,412113
5,224167	0,1	0,412305
5,225833	0,1	0,429520
5,227500	0,1	0,407424
5,229167	0,1	0,410082
5,230833	0,1	0,384419
5,232500	0,1	0,403452
5,234167	0,1	0,418771
5,235833	0,1	0,399573
5,237500	0,1	0,392526
5,239167	0,1	0,395860
5,240833	0,1	0,364979
5,242500	0,1	0,403611
5,244167	0,1	0,369874
5,245833	0,1	0,357896
5,247500	0,1	0,385079
5,249167	0,1	0,364533
5,250833	0,1	0,337663
5,252500	0,1	0,361178
5,254167	0,1	0,376107
5,255833	0,1	0,349772
5,257500	0,1	0,353752
5,259167	0,1	0,358346
5,260833	0,1	0,338541
5,262500	0,1	0,351782
5,264167	0,1	0,367741
5,265833	0,1	0,362979
5,267500	0,1	0,357831
5,269167	0,1	0,299227
5,270833	0,1	0,397585
5,272500	0,1	0,347103
5,274167	0,1	0,334316
5,275833	0,1	0,292828
5,277500	0,1	0,317677
5,279167	0,1	0,392125
5,280833	0,1	0,346068
5,282500	0,1	0,342425
5,284167	0,1	0,348956
5,285833	0,1	0,302378
5,287500	0,1	0,344507
5,289167	0,1	0,307788
5,290833	0,1	0,315687
5,292500	0,1	0,311514
5,294167	0,1	0,299835
5,295833	0,1	0,302532
5,297500	0,1	0,293109
5,299167	0,1	0,302202
5,300833	0,1	0,295141
5,302500	0,1	0,286928
5,304167	0,1	0,310019
5,305833	0,1	0,330293
5,307500	0,1	0,303372
5,309167	0,1	0,289088
5,310833	0,1	0,288176
5,312500	0,1	0,227010
5,314167	0,1	0,290167
5,315833	0,1	0,305809
5,317500	0,1	0,319458
5,319167	0,1	0,235353
5,320833	0,1	0,267594
5,322500	0,1	0,271838
5,324167	0,1	0,237726
5,325833	0,1	0,257303
5,327500	0,1	0,269780
5,329167	0,1	0,269303
5,330833	0,1	0,264801
5,332500	0,1	0,251899
5,334167	0,1	0,273071
5,335833	0,1	0,253665
5,337500	0,1	0,266587
5,339167	0,1	0,261687
5,340833	0,1	0,224697
5,342500	0,1	0,224422
5,344167	0,1	0,248976
5,345833	0,1	0,262412
5,347500	0,1	0,271270
5,349167	0,1	0,243602
5,350833	0,1	0,240997
5,352500	0,1	0,243303
5,354167	0,1	0,242221
5,355833	0,1	0,243695
5,357500	0,1	0,225610
5,359167	0,1	0,245495
5,360833	0,1	0,237948
5,362500	0,1	0,222433
5,364167	0,1	0,264703
5,365833	0,1	0,233410
5,367500	0,1	0,234918
5,369167	0,1	0,236948
5,370833	0,1	0,199218
5,372500	0,1	0,193170
5,374167	0,1	0,207151
5,375833	0,1	0,229867
5,377500	0,1	0,236366
5,379167	0,1	0,213946
5,380833	0,1	0,203548
5,382500	0,1	0,197507
5,384167	0,1	0,213561
5,385833	0,1	0,196302
5,387500	0,1	0,215010
5,389167	0,1	0,195125
5,390833	0,1	0,198289
5,392500	0,1	0,201342
5,394167	0,1	0,212589
5,395833	0,1	0,206882
5,397500	0,1	0,198897
5,399167	0,1	0,170371
5,400833	0,1	0,201523
5,402500	0,1	0,194228
5,404167	0,1	0,223495
5,405833	0,1	0,221347
5,407500	0,1	0,163634
5,409167	0,1	0,206274
5,410833	0,1	0,198464
5,412500	0,1	0,157055
5,414167	0,1	0,200297
5,415833	0,1	0,201506
5,417500	0,1	0,159607
5,419167	0,1	0,182973
5,420833	0,1	0,190946
5,422500	0,1	0,172403
5,424167	0,1	0,187188
5,425833	0,1	0,154191
5,427500	0,1	0,206891
5,429167	0,1	0,170766
5,430833	0,1	0,193907
5,432500	0,1	0,195199
5,434167	0,1	0,211709
5,435833	0,1	0,187157
5,437500	0,1	0,175349
5,439167	0,1	0,185573
5,440833	0,1	0,167341
5,442500	0,1	0,171218
5,444167	0,1	0,160368
5,445833	0,1	0,157689
5,447500	0,1	0,179263
5,449167	0,1	0,169929
5,450833	0,1	0,170969
5,452500	0,1	0,136639
5,454167	0,1	0,181351
5,455833	0,1	0,156283
5,457500	0,1	0,147337
5,459167	0,1	0,152958
5,460833	0,1	0,142067
5,462500	0,1	0,213773
5,464167	0,1	0,212567
5,465833	0,1	0,157202
5,467500	0,1	0,173493
5,469167	0,1	0,162047
5,470833	0,1	0,181068
5,472500	0,1	0,124487
5,474167	0,1	0,169978
5,475833	0,1	0,151303
5,477500	0,1	0,126160
5,479167	0,1	0,140588
5,480833	0,1	0,149780
5,482500	0,1	0,160196
5,484167	0,1	0,166465
5,485833	0,1	0,163707
5,487500	0,1	0,148398
5,489167	0,1	0,129623
5,490833	0,1	0,173650
5,492500	0,1	0,176837
5,494167	0,1	0,140748
5,495833	0,1	0,168804
5,497500	0,1	0,152195
5,499167	0,1	0,175960
5,500833	0,1	0,123033
5,502500	0,1	0,165706
5,504167	0,1	0,137445
5,505833	0,1	0,117381
5,507500	0,1	0,147700
5,509167	0,1	0,116494
5,510833	0,1	0,105493
5,512500	0,1	0,109513
5,514167	0,1	0,127124
5,515833	0,1	0,136149
5,517500	0,1	0,132668
5,519167	0,1	0,155485
5,520833	0,1	0,139621
5,522500	0,1	0,121239
5,524167	0,1	0,148945
5,525833	0,1	0,133106
5,527500	0,1	0,116759
5,529167	0,1	0,155148
5,530833	0,1	0,159885
5,532500	0,1	0,147463
5,534167	0,1	0,120723
5,535833	0,1	0,112794
5,537500	0,1	0,126150
5,539167	0,1	0,110493
5,540833	0,1	0,115281
5,542500	0,1	0,145690
5,544167	0,1	0,097949
5,545833	0,1	0,131829
5,547500	0,1	0,107548
5,549167	0,1	0,149460
5,550833	0,1	0,105790
5,552500	0,1	0,125919
5,554167	0,1	0,099854
5,555833	0,1	0,114219
5,557500	0,1	0,122644
5,559167	0,1	0,133163
5,560833	0,1	0,139470
5,562500	0,1	0,111076
5,564167	0,1	0,128764
5,565833	0,1	0,104418
5,567500	0,1	0,155827
5,569167	0,1	0,140949
5,570833	0,1	0,099650
5,572500	0,1	0,148526
5,574167	0,1	0,136735
5,575833	0,1	0,120782
5,577500	0,1	0,125322
5,579167	0,1	0,089524
5,580833	0,1	0,142718
5,582500	0,1	0,156003
5,584167	0,1	0,118465
5,585833	0,1	0,101282
5,587500	0,1	0,156761
5,589167	0,1	0,094822
5,590833	0,1	0,119696
5,592500	0,1	0,122149
5,594167	0,1	0,128724
5,595833	0,1	0,121611
5,597500	0,1	0,145025
5,599167	0,1	0,159382
5,600833	0,1	0,134189
5,602500	0,1	0,143266
5,604167	0,1	0,122132
5,605833	0,1	0,104124
5,607500	0,1	0,148816
5,609167	0,1	0,122983
5,610833	0,1	0,142391
5,612500	0,1	0,147438
5,614167	0,1	0,115808
5,615833	0,1	0,103627
5,617500	0,1	0,143258
5,619167	0,1	0,135841
5,620833	0,1	0,120077
5,622500	0,1	0,129865
5,624167	0,1	0,166726
5,625833	0,1	0,143274
5,627500	0,1	0,119685
5,629167	0,1	0,122314
5,630833	0,1	0,122439
5,632500	0,1	0,146522
5,634167	0,1	0,131426
5,635833	0,1	0,149966
5,637500	0,1	0,135637
5,639167	0,1	0,116531
5,640833	0,1	0,100452
5,642500	0,1	0,110673
5,644167	0,1	0,137163
5,645833	0,1	0,170812
5,647500	0,1	0,174515
5,649167	0,1	0,159002
5,650833	0,1	0,140452
5,652500	0,1	0,124165
5,654167	0,1	0,125841
5,655833	0,1	0,141355
5,657500	0,1	0,140323
5,659167	0,1	0,169033
5,660833	0,1	0,177684
5,662500	0,1	0,134544
5,664167	0,1	0,157370
5,665833	0,1	0,199545
5,667500	0,1	0,146892
5,669167	0,1	0,154283
5,670833	0,1	0,144226
5,672500	0,1	0,134743
5,674167	0,1	0,123685
5,675833	0,1	0,160190
5,677500	0,1	0,127572
5,679167	0,1	0,115990
5,680833	0,1	0,119016
5,682500	0,1	0,141439
5,684167	0,1	0,137751
5,685833	0,1	0,165025
5,687500	0,1	0,136325
5,689167	0,1	0,177534
5,690833	0,1	0,186154
5,692500	0,1	0,158960
5,694167	0,1	0,157980
5,695833	0,1	0,137734
5,697500	0,1	0,149780
5,699167	0,1	0,162518
5,700833	0,1	0,192682
5,702500	0,1	0,138510
5,704167	0,1	0,160693
5,705833	0,1	0,132218
5,707500	0,1	0,175461
5,709167	0,1	0,184679
5,710833	0,1	0,144272
5,712500	0,1	0,153020
5,714167	0,1	0,193489
5,715833	0,1	0,162302
5,717500	0,1	0,157877
5,719167	0,1	0,158230
5,720833	0,1	0,156983
5,722500	0,1	0,158662
5,724167	0,1	0,139663
5,725833	0,1	0,174546
5,727500	0,1	0,192333
5,729167	0,1	0,167297
5,730833	0,1	0,183329
5,732500	0,1	0,161115
5,734167	0,1	0,150866
5,735833	0,1	0,206726
5,737500	0,1	0,178382
5,739167	0,1	0,221625
5,740833	0,1	0,171851
5,742500	0,1	0,163396
5,744167	0,1	0,231042
5,745833	0,1	0,148539
5,747500	0,1	0,188594
5,749167	0,1	0,166034
5,750833	0,1	0,197539
5,752500	0,1	0,225425
5,754167	0,1	0,184918
5,755833	0,1	0,194679
5,757500	0,1	0,159668
5,759167	0,1	0,178864
5,760833	0,1	0,213720
5,762500	0,1	0,191346
5,764167	0,1	0,179435
5,765833	0,1	0,213431
5,767500	0,1	0,144034
5,769167	0,1	0,162746
5,770833	0,1	0,187374
5,772500	0,1	0,169830
5,774167	0,1	0,196417
5,775833	0,1	0,173131
5,777500	0,1	0,203391
5,779167	0,1	0,175830
5,780833	0,1	0,160181
5,782500	0,1	0,188785
5,784167	0,1	0,211127
5,785833	0,1	0,187636
5,787500	0,1	0,166159
5,789167	0,1	0,198056
5,790833	0,1	0,167486
5,792500	0,1	0,171650
5,794167	0,1	0,161654
5,795833	0,1	0,166340
5,797500	0,1	0,193718
5,799167	0,1	0,182901
5,800833	0,1	0,192210
5,802500	0,1	0,182049
5,804167	0,1	0,203927
5,805833	0,1	0,173338
5,807500	0,1	0,202167
5,809167	0,1	0,215036
5,810833	0,1	0,184665
5,812500	0,1	0,208388
5,814167	0,1	0,163136
5,815833	0,1	0,206023
5,817500	0,1	0,177425
5,819167	0,1	0,179432
5,820833	0,1	0,194389
5,822500	0,1	0,180989
5,824167	0,1	0,213344
5,825833	0,1	0,182759
5,827500	0,1	0,204428
5,829167	0,1	0,160188
5,830833	0,1	0,174533
5,832500	0,1	0,167442
5,834167	0,1	0,176732
5,835833	0,1	0,162150
5,837500	0,1	0,174033
5,839167	0,1	0,160657
5,840833	0,1	0,215042
5,842500	0,1	0,168777
5,844167	0,1	0,190566
5,845833	0,1	0,190697
5,847500	0,1	0,150954
5,849167	0,1	0,181270
5,850833	0,1	0,159084
5,852500	0,1	0,182479
5,854167	0,1	0,172463
5,855833	0,1	0,190818
5,857500	0,1	0,143362
5,859167	0,1	0,155610
5,860833	0,1	0,217550
5,862500	0,1	0,169215
5,864167	0,1	0,201523
5,865833	0,1	0,203147
5,867500	0,1	0,176013
5,869167	0,1	0,165326
5,870833	0,1	0,206187
5,872500	0,1	0,159317
5,874167	0,1	0,156257
5,875833	0,1	0,158394
5,877500	0,1	0,181335
5,879167	0,1	0,164416
5,880833	0,1	0,197538
5,882500	0,1	0,169769
5,884167	0,1	0,203594
5,885833	0,1	0,172138
5,887500	0,1	0,162461
5,889167	0,1	0,140659
5,890833	0,1	0,146441
5,892500	0,1	0,162684
5,894167	0,1	0,123902
5,895833	0,1	0,132894
5,897500	0,1	0,161246
5,899167	0,1	0,125518
5,900833	0,1	0,148345
5,902500	0,1	0,140967
5,904167	0,1	0,153350
5,905833	0,1	0,139040
5,907500	0,1	0,170044
5,909167	0,1	0,131869
5,910833	0,1	0,167926
5,912500	0,1	0,134210
5,914167	0,1	0,137830
5,915833	0,1	0,163575
5,917500	0,1	0,148211
5,919167	0,1	0,148744
5,920833	0,1	0,138831
5,922500	0,1	0,141276
5,924167	0,1	0,100914
5,925833	0,1	0,149357
5,927500	0,1	0,145573
5,929167	0,1	0,148001
5,930833	0,1	0,159696
5,932500	0,1	0,135762
5,934167	0,1	0,160502
5,935833	0,1	0,142486
5,937500	0,1	0,137626
5,939167	0,1	0,079843
5,940833	0,1	0,117534
5,942500	0,1	0,131170
5,944167	0,1	0,146501
5,945833	0,1	0,146484
5,947500	0,1	0,131528
5,949167	0,1	0,157700
5,950833	0,1	0,165172
5,952500	0,1	0,114651
5,954167	0,1	0,121358
5,955833	0,1	0,101657
5,957500	0,1	0,134506
5,959167	0,1	0,127834
5,960833	0,1	0,161974
5,962500	0,1	0,128773
5,964167	0,1	0,106635
5,965833	0,1	0,121107
5,967500	0,1	0,104373
5,969167	0,1	0,130232
5,970833	0,1	0,160751
5,972500	0,1	0,096897
5,974167	0,1	0,145206
5,975833	0,1	0,128563
5,977500	0,1	0,142848
5,979167	0,1	0,133686
5,980833	0,1	0,148784
5,982500	0,1	0,152334
5,984167	0,1	0,144494
5,985833	0,1	0,109543
5,987500	0,1	0,127766
5,989167	0,1	0,086540
5,990833	0,1	0,132219
5,992500	0,1	0,106160
5,994167	0,1	0,133240
5,995833	0,1	0,143846
5,997500	0,1	0,138436
5,999167	0,1	0,082663
6,000833	0,1	0,118033
