File Path	chrom://chromeleon01/ikbm_chromeleon/2022/Rezex/Esteban/220612_chitin_4_7.seq/781.smp/UV_VIS_1.channel/UV_VIS_1.chm
Channel	UV_VIS_1

Injection Information:
Data Vault	ikbm_chromeleon
Injection	7_06h-ChiBS_3
Injection Number	64
Position	GB1
Comment	
Processing Method	New ProcMethod
Instrument Method	Short_Rezex_6min_194nm
Type	Unknown
Status	Finished
Injection Date	13.06.2022
Injection Time	00:01:44
Injection Volume (µl)	8,000
Dilution Factor	1,0000
Weight	1,0000

Chromatogram Data Information:
Time Min. (min)	0,000833
Time Max. (min)	6,000833
Data Points	3601
Detector	UV
Generating Data System	Chromeleon 7.2.9.11323
Exporting Data System	Chromeleon 7.2.9.0
Operator	Instrument Controller
Signal Quantity	Absorbance
Signal Unit	mAU
Signal Min.	-0,185464
Signal Max.	117,838172
Channel	UV_VIS_1
Driver Name	VWD3000.dll
Channel Type	Evaluation
Min. Step (s)	0,1
Max. Step (s)	0,1
Average Step (s)	0,1

Signal Parameter Information:
Signal Info	WVL:194 nm

Chromatogram Data:
Time (min)	Step (s)	Value (mAU)
0,000833	n.a.	-0,080985
0,002500	0,1	-0,103296
0,004167	0,1	-0,145782
0,005833	0,1	-0,120331
0,007500	0,1	-0,115641
0,009167	0,1	-0,083045
0,010833	0,1	-0,122621
0,012500	0,1	-0,136894
0,014167	0,1	-0,113074
0,015833	0,1	-0,115594
0,017500	0,1	-0,097722
0,019167	0,1	-0,094795
0,020833	0,1	-0,086172
0,022500	0,1	-0,103050
0,024167	0,1	-0,104314
0,025833	0,1	-0,110557
0,027500	0,1	-0,135720
0,029167	0,1	-0,122176
0,030833	0,1	-0,136374
0,032500	0,1	-0,135735
0,034167	0,1	-0,142346
0,035833	0,1	-0,126923
0,037500	0,1	-0,129156
0,039167	0,1	-0,121690
0,040833	0,1	-0,178624
0,042500	0,1	-0,183779
0,044167	0,1	-0,129231
0,045833	0,1	-0,185464
0,047500	0,1	-0,134391
0,049167	0,1	-0,092461
0,050833	0,1	-0,112606
0,052500	0,1	-0,108277
0,054167	0,1	-0,108250
0,055833	0,1	-0,101164
0,057500	0,1	-0,078666
0,059167	0,1	-0,104845
0,060833	0,1	-0,068609
0,062500	0,1	-0,123191
0,064167	0,1	-0,130609
0,065833	0,1	-0,070915
0,067500	0,1	-0,107027
0,069167	0,1	-0,073481
0,070833	0,1	-0,098857
0,072500	0,1	-0,085592
0,074167	0,1	-0,111503
0,075833	0,1	-0,073588
0,077500	0,1	-0,123835
0,079167	0,1	-0,088683
0,080833	0,1	-0,108502
0,082500	0,1	-0,097905
0,084167	0,1	-0,097305
0,085833	0,1	-0,061952
0,087500	0,1	-0,148924
0,089167	0,1	-0,089065
0,090833	0,1	-0,062821
0,092500	0,1	-0,090560
0,094167	0,1	-0,089570
0,095833	0,1	-0,090752
0,097500	0,1	-0,067403
0,099167	0,1	-0,067607
0,100833	0,1	-0,075196
0,102500	0,1	-0,111235
0,104167	0,1	-0,114873
0,105833	0,1	-0,089823
0,107500	0,1	-0,123697
0,109167	0,1	-0,164284
0,110833	0,1	-0,182244
0,112500	0,1	-0,111218
0,114167	0,1	-0,134690
0,115833	0,1	-0,128515
0,117500	0,1	-0,131480
0,119167	0,1	-0,125758
0,120833	0,1	-0,123082
0,122500	0,1	-0,149124
0,124167	0,1	-0,171529
0,125833	0,1	-0,141070
0,127500	0,1	-0,127153
0,129167	0,1	-0,093975
0,130833	0,1	-0,132926
0,132500	0,1	-0,116946
0,134167	0,1	-0,136346
0,135833	0,1	-0,089680
0,137500	0,1	-0,103273
0,139167	0,1	-0,142031
0,140833	0,1	-0,140666
0,142500	0,1	-0,129124
0,144167	0,1	-0,122298
0,145833	0,1	-0,080970
0,147500	0,1	-0,112145
0,149167	0,1	-0,112883
0,150833	0,1	-0,104255
0,152500	0,1	-0,112608
0,154167	0,1	-0,101207
0,155833	0,1	-0,096062
0,157500	0,1	-0,114473
0,159167	0,1	-0,132227
0,160833	0,1	-0,130884
0,162500	0,1	-0,115741
0,164167	0,1	-0,078686
0,165833	0,1	-0,092905
0,167500	0,1	-0,102277
0,169167	0,1	-0,073108
0,170833	0,1	-0,097818
0,172500	0,1	-0,115882
0,174167	0,1	-0,092810
0,175833	0,1	-0,061722
0,177500	0,1	-0,132504
0,179167	0,1	-0,112219
0,180833	0,1	-0,104359
0,182500	0,1	-0,078666
0,184167	0,1	-0,125041
0,185833	0,1	-0,132626
0,187500	0,1	-0,080540
0,189167	0,1	-0,130387
0,190833	0,1	-0,122791
0,192500	0,1	-0,104793
0,194167	0,1	-0,144224
0,195833	0,1	-0,080832
0,197500	0,1	-0,112207
0,199167	0,1	-0,100090
0,200833	0,1	-0,089901
0,202500	0,1	-0,116276
0,204167	0,1	-0,101578
0,205833	0,1	-0,076050
0,207500	0,1	-0,096427
0,209167	0,1	-0,116155
0,210833	0,1	-0,119574
0,212500	0,1	-0,086030
0,214167	0,1	-0,144124
0,215833	0,1	-0,113631
0,217500	0,1	-0,074478
0,219167	0,1	-0,079010
0,220833	0,1	-0,100865
0,222500	0,1	-0,098467
0,224167	0,1	-0,167921
0,225833	0,1	-0,089213
0,227500	0,1	-0,120837
0,229167	0,1	-0,079541
0,230833	0,1	-0,103270
0,232500	0,1	-0,083059
0,234167	0,1	-0,060268
0,235833	0,1	-0,076893
0,237500	0,1	-0,092756
0,239167	0,1	-0,073583
0,240833	0,1	-0,155047
0,242500	0,1	-0,142581
0,244167	0,1	-0,137225
0,245833	0,1	-0,134758
0,247500	0,1	-0,094513
0,249167	0,1	-0,092866
0,250833	0,1	-0,066221
0,252500	0,1	-0,118322
0,254167	0,1	-0,105454
0,255833	0,1	-0,109473
0,257500	0,1	-0,068631
0,259167	0,1	-0,100326
0,260833	0,1	-0,071571
0,262500	0,1	-0,102148
0,264167	0,1	-0,092807
0,265833	0,1	-0,067754
0,267500	0,1	-0,108682
0,269167	0,1	-0,080428
0,270833	0,1	-0,093815
0,272500	0,1	-0,094548
0,274167	0,1	-0,099336
0,275833	0,1	-0,119200
0,277500	0,1	-0,106704
0,279167	0,1	-0,087312
0,280833	0,1	-0,084200
0,282500	0,1	-0,137254
0,284167	0,1	-0,121861
0,285833	0,1	-0,085511
0,287500	0,1	-0,099977
0,289167	0,1	-0,106778
0,290833	0,1	-0,105432
0,292500	0,1	-0,103319
0,294167	0,1	-0,083121
0,295833	0,1	-0,095353
0,297500	0,1	-0,122951
0,299167	0,1	-0,114876
0,300833	0,1	-0,108648
0,302500	0,1	-0,131829
0,304167	0,1	-0,082423
0,305833	0,1	-0,131057
0,307500	0,1	-0,091694
0,309167	0,1	-0,084614
0,310833	0,1	-0,076610
0,312500	0,1	-0,096904
0,314167	0,1	-0,103255
0,315833	0,1	-0,116552
0,317500	0,1	-0,128449
0,319167	0,1	-0,096526
0,320833	0,1	-0,121040
0,322500	0,1	-0,093805
0,324167	0,1	-0,095227
0,325833	0,1	-0,115115
0,327500	0,1	-0,073111
0,329167	0,1	-0,089190
0,330833	0,1	-0,055708
0,332500	0,1	-0,116804
0,334167	0,1	-0,096128
0,335833	0,1	-0,134043
0,337500	0,1	-0,098846
0,339167	0,1	-0,132178
0,340833	0,1	-0,068327
0,342500	0,1	-0,126263
0,344167	0,1	-0,129305
0,345833	0,1	-0,094141
0,347500	0,1	-0,097161
0,349167	0,1	-0,089362
0,350833	0,1	-0,122888
0,352500	0,1	-0,107699
0,354167	0,1	-0,101082
0,355833	0,1	-0,100062
0,357500	0,1	-0,122371
0,359167	0,1	-0,088374
0,360833	0,1	-0,123882
0,362500	0,1	-0,052650
0,364167	0,1	-0,089289
0,365833	0,1	-0,125397
0,367500	0,1	-0,062953
0,369167	0,1	-0,087779
0,370833	0,1	-0,092697
0,372500	0,1	-0,097259
0,374167	0,1	-0,089072
0,375833	0,1	-0,124050
0,377500	0,1	-0,074234
0,379167	0,1	-0,107995
0,380833	0,1	-0,121377
0,382500	0,1	-0,119498
0,384167	0,1	-0,084621
0,385833	0,1	-0,097652
0,387500	0,1	-0,043972
0,389167	0,1	-0,088521
0,390833	0,1	-0,099767
0,392500	0,1	-0,096724
0,394167	0,1	-0,097347
0,395833	0,1	-0,081896
0,397500	0,1	-0,104388
0,399167	0,1	-0,086046
0,400833	0,1	-0,100850
0,402500	0,1	-0,066762
0,404167	0,1	-0,095703
0,405833	0,1	-0,116505
0,407500	0,1	-0,085905
0,409167	0,1	-0,116935
0,410833	0,1	-0,097099
0,412500	0,1	-0,080383
0,414167	0,1	-0,106571
0,415833	0,1	-0,111843
0,417500	0,1	-0,080102
0,419167	0,1	-0,088178
0,420833	0,1	-0,096017
0,422500	0,1	-0,084573
0,424167	0,1	-0,107751
0,425833	0,1	-0,066744
0,427500	0,1	-0,043614
0,429167	0,1	-0,120534
0,430833	0,1	-0,117111
0,432500	0,1	-0,117611
0,434167	0,1	-0,055633
0,435833	0,1	-0,079587
0,437500	0,1	-0,102319
0,439167	0,1	-0,108830
0,440833	0,1	-0,069978
0,442500	0,1	-0,090245
0,444167	0,1	-0,056723
0,445833	0,1	-0,113776
0,447500	0,1	-0,087729
0,449167	0,1	-0,079013
0,450833	0,1	-0,088714
0,452500	0,1	-0,107401
0,454167	0,1	-0,093678
0,455833	0,1	-0,087539
0,457500	0,1	-0,117084
0,459167	0,1	-0,078897
0,460833	0,1	-0,092343
0,462500	0,1	-0,105578
0,464167	0,1	-0,082103
0,465833	0,1	-0,082473
0,467500	0,1	-0,097486
0,469167	0,1	-0,100518
0,470833	0,1	-0,109641
0,472500	0,1	-0,105124
0,474167	0,1	-0,074105
0,475833	0,1	-0,057589
0,477500	0,1	-0,104612
0,479167	0,1	-0,104957
0,480833	0,1	-0,090093
0,482500	0,1	-0,099478
0,484167	0,1	-0,083392
0,485833	0,1	-0,085546
0,487500	0,1	-0,105119
0,489167	0,1	-0,071201
0,490833	0,1	-0,088960
0,492500	0,1	-0,097117
0,494167	0,1	-0,113460
0,495833	0,1	-0,092624
0,497500	0,1	-0,100806
0,499167	0,1	-0,084327
0,500833	0,1	-0,064149
0,502500	0,1	-0,080170
0,504167	0,1	-0,103481
0,505833	0,1	-0,071328
0,507500	0,1	-0,045357
0,509167	0,1	-0,152703
0,510833	0,1	-0,075402
0,512500	0,1	-0,101490
0,514167	0,1	-0,084723
0,515833	0,1	-0,081814
0,517500	0,1	-0,066448
0,519167	0,1	-0,112827
0,520833	0,1	-0,093539
0,522500	0,1	-0,102631
0,524167	0,1	-0,101909
0,525833	0,1	-0,081402
0,527500	0,1	-0,096639
0,529167	0,1	-0,101223
0,530833	0,1	-0,065061
0,532500	0,1	-0,097569
0,534167	0,1	-0,103193
0,535833	0,1	-0,079969
0,537500	0,1	-0,087140
0,539167	0,1	-0,097426
0,540833	0,1	-0,062719
0,542500	0,1	-0,119915
0,544167	0,1	-0,093454
0,545833	0,1	-0,101696
0,547500	0,1	-0,047582
0,549167	0,1	-0,089703
0,550833	0,1	-0,091931
0,552500	0,1	-0,083848
0,554167	0,1	-0,115174
0,555833	0,1	-0,093989
0,557500	0,1	-0,063694
0,559167	0,1	-0,093791
0,560833	0,1	-0,076278
0,562500	0,1	-0,067379
0,564167	0,1	-0,073557
0,565833	0,1	-0,048985
0,567500	0,1	-0,074690
0,569167	0,1	-0,050439
0,570833	0,1	-0,091279
0,572500	0,1	-0,078849
0,574167	0,1	-0,105409
0,575833	0,1	-0,095564
0,577500	0,1	-0,113187
0,579167	0,1	-0,084162
0,580833	0,1	-0,078142
0,582500	0,1	-0,094148
0,584167	0,1	-0,092224
0,585833	0,1	-0,070139
0,587500	0,1	-0,034034
0,589167	0,1	-0,059947
0,590833	0,1	-0,087840
0,592500	0,1	-0,071197
0,594167	0,1	-0,062898
0,595833	0,1	-0,060181
0,597500	0,1	-0,081578
0,599167	0,1	-0,074451
0,600833	0,1	-0,078659
0,602500	0,1	-0,061429
0,604167	0,1	-0,067086
0,605833	0,1	-0,094726
0,607500	0,1	-0,088929
0,609167	0,1	-0,070200
0,610833	0,1	-0,049857
0,612500	0,1	-0,031481
0,614167	0,1	-0,093432
0,615833	0,1	-0,048305
0,617500	0,1	-0,088814
0,619167	0,1	-0,075906
0,620833	0,1	-0,037955
0,622500	0,1	-0,077197
0,624167	0,1	-0,082039
0,625833	0,1	-0,056435
0,627500	0,1	-0,055223
0,629167	0,1	-0,046368
0,630833	0,1	-0,067334
0,632500	0,1	-0,048797
0,634167	0,1	-0,032930
0,635833	0,1	-0,103450
0,637500	0,1	-0,017556
0,639167	0,1	-0,039453
0,640833	0,1	-0,072846
0,642500	0,1	-0,073620
0,644167	0,1	-0,061593
0,645833	0,1	-0,082036
0,647500	0,1	-0,066263
0,649167	0,1	-0,052011
0,650833	0,1	-0,080167
0,652500	0,1	-0,042974
0,654167	0,1	-0,076019
0,655833	0,1	-0,033021
0,657500	0,1	-0,042632
0,659167	0,1	-0,082859
0,660833	0,1	-0,048158
0,662500	0,1	-0,061068
0,664167	0,1	-0,059538
0,665833	0,1	-0,046472
0,667500	0,1	-0,027414
0,669167	0,1	-0,022099
0,670833	0,1	-0,047625
0,672500	0,1	-0,027414
0,674167	0,1	-0,020671
0,675833	0,1	-0,038873
0,677500	0,1	-0,052258
0,679167	0,1	-0,034257
0,680833	0,1	-0,057355
0,682500	0,1	-0,047448
0,684167	0,1	-0,088794
0,685833	0,1	-0,042356
0,687500	0,1	-0,062792
0,689167	0,1	0,014306
0,690833	0,1	-0,017052
0,692500	0,1	-0,030683
0,694167	0,1	-0,027991
0,695833	0,1	-0,014407
0,697500	0,1	-0,024171
0,699167	0,1	-0,043459
0,700833	0,1	0,003735
0,702500	0,1	-0,033644
0,704167	0,1	-0,024676
0,705833	0,1	0,002079
0,707500	0,1	0,013430
0,709167	0,1	-0,012531
0,710833	0,1	0,020707
0,712500	0,1	0,002173
0,714167	0,1	0,002523
0,715833	0,1	-0,007350
0,717500	0,1	-0,022427
0,719167	0,1	-0,031182
0,720833	0,1	-0,006796
0,722500	0,1	-0,005361
0,724167	0,1	0,002022
0,725833	0,1	0,007604
0,727500	0,1	-0,005958
0,729167	0,1	0,039685
0,730833	0,1	0,031069
0,732500	0,1	0,035069
0,734167	0,1	0,029159
0,735833	0,1	0,037972
0,737500	0,1	0,038141
0,739167	0,1	0,047142
0,740833	0,1	0,042745
0,742500	0,1	0,050148
0,744167	0,1	0,012489
0,745833	0,1	0,027431
0,747500	0,1	0,072340
0,749167	0,1	0,037090
0,750833	0,1	0,073316
0,752500	0,1	0,030411
0,754167	0,1	0,086936
0,755833	0,1	0,055552
0,757500	0,1	0,028790
0,759167	0,1	0,123862
0,760833	0,1	0,003919
0,762500	0,1	0,061154
0,764167	0,1	0,100947
0,765833	0,1	0,072751
0,767500	0,1	0,075668
0,769167	0,1	0,049929
0,770833	0,1	0,072158
0,772500	0,1	0,066814
0,774167	0,1	0,088339
0,775833	0,1	0,097426
0,777500	0,1	0,037843
0,779167	0,1	0,116233
0,780833	0,1	0,074785
0,782500	0,1	0,069301
0,784167	0,1	0,051814
0,785833	0,1	0,068238
0,787500	0,1	0,030846
0,789167	0,1	0,075824
0,790833	0,1	0,033980
0,792500	0,1	0,067050
0,794167	0,1	0,039847
0,795833	0,1	0,064646
0,797500	0,1	0,038603
0,799167	0,1	0,051724
0,800833	0,1	0,044613
0,802500	0,1	0,055128
0,804167	0,1	0,035179
0,805833	0,1	0,033390
0,807500	0,1	0,016487
0,809167	0,1	0,032162
0,810833	0,1	0,033888
0,812500	0,1	0,023081
0,814167	0,1	0,051678
0,815833	0,1	-0,006965
0,817500	0,1	0,057106
0,819167	0,1	0,021967
0,820833	0,1	0,023845
0,822500	0,1	0,026604
0,824167	0,1	-0,015866
0,825833	0,1	0,037672
0,827500	0,1	0,036314
0,829167	0,1	-0,001264
0,830833	0,1	0,017348
0,832500	0,1	0,001676
0,834167	0,1	0,008079
0,835833	0,1	0,006444
0,837500	0,1	0,023096
0,839167	0,1	0,034361
0,840833	0,1	-0,016467
0,842500	0,1	-0,002687
0,844167	0,1	0,002584
0,845833	0,1	0,015132
0,847500	0,1	0,033904
0,849167	0,1	-0,025799
0,850833	0,1	0,002535
0,852500	0,1	-0,008303
0,854167	0,1	0,028112
0,855833	0,1	0,041559
0,857500	0,1	0,045316
0,859167	0,1	-0,016548
0,860833	0,1	-0,001609
0,862500	0,1	-0,033832
0,864167	0,1	0,006765
0,865833	0,1	-0,064770
0,867500	0,1	-0,011742
0,869167	0,1	-0,008658
0,870833	0,1	-0,011291
0,872500	0,1	0,032838
0,874167	0,1	-0,017088
0,875833	0,1	0,023858
0,877500	0,1	0,009453
0,879167	0,1	0,028218
0,880833	0,1	0,020114
0,882500	0,1	-0,044858
0,884167	0,1	-0,018579
0,885833	0,1	0,006894
0,887500	0,1	0,021956
0,889167	0,1	-0,018066
0,890833	0,1	-0,016479
0,892500	0,1	-0,003911
0,894167	0,1	-0,011436
0,895833	0,1	0,027343
0,897500	0,1	-0,023891
0,899167	0,1	0,018110
0,900833	0,1	0,004474
0,902500	0,1	-0,000775
0,904167	0,1	-0,014919
0,905833	0,1	0,004280
0,907500	0,1	0,019134
0,909167	0,1	0,024261
0,910833	0,1	0,013976
0,912500	0,1	0,003001
0,914167	0,1	-0,001272
0,915833	0,1	-0,017034
0,917500	0,1	-0,002606
0,919167	0,1	0,038502
0,920833	0,1	0,015492
0,922500	0,1	-0,001021
0,924167	0,1	0,040369
0,925833	0,1	0,047887
0,927500	0,1	0,020659
0,929167	0,1	0,006509
0,930833	0,1	0,002772
0,932500	0,1	0,017536
0,934167	0,1	0,044584
0,935833	0,1	0,024205
0,937500	0,1	0,020258
0,939167	0,1	0,035873
0,940833	0,1	0,026961
0,942500	0,1	0,048132
0,944167	0,1	0,019705
0,945833	0,1	0,015674
0,947500	0,1	0,011340
0,949167	0,1	0,043858
0,950833	0,1	0,066990
0,952500	0,1	0,017801
0,954167	0,1	0,069516
0,955833	0,1	0,060795
0,957500	0,1	0,046835
0,959167	0,1	0,034325
0,960833	0,1	0,025819
0,962500	0,1	0,029343
0,964167	0,1	0,045667
0,965833	0,1	0,040777
0,967500	0,1	0,047080
0,969167	0,1	0,059629
0,970833	0,1	0,017385
0,972500	0,1	0,047239
0,974167	0,1	0,048948
0,975833	0,1	0,073090
0,977500	0,1	0,062269
0,979167	0,1	0,082012
0,980833	0,1	0,084964
0,982500	0,1	0,056899
0,984167	0,1	0,085372
0,985833	0,1	0,100936
0,987500	0,1	0,043838
0,989167	0,1	0,079685
0,990833	0,1	0,114104
0,992500	0,1	0,066738
0,994167	0,1	0,094063
0,995833	0,1	0,083743
0,997500	0,1	0,088986
0,999167	0,1	0,097659
1,000833	0,1	0,081103
1,002500	0,1	0,133646
1,004167	0,1	0,112877
1,005833	0,1	0,101711
1,007500	0,1	0,169854
1,009167	0,1	0,165657
1,010833	0,1	0,156741
1,012500	0,1	0,192314
1,014167	0,1	0,208628
1,015833	0,1	0,183966
1,017500	0,1	0,198852
1,019167	0,1	0,205642
1,020833	0,1	0,256229
1,022500	0,1	0,230311
1,024167	0,1	0,246941
1,025833	0,1	0,236832
1,027500	0,1	0,247421
1,029167	0,1	0,281935
1,030833	0,1	0,301632
1,032500	0,1	0,266573
1,034167	0,1	0,297578
1,035833	0,1	0,324315
1,037500	0,1	0,302413
1,039167	0,1	0,310898
1,040833	0,1	0,333452
1,042500	0,1	0,358904
1,044167	0,1	0,395359
1,045833	0,1	0,381212
1,047500	0,1	0,388542
1,049167	0,1	0,371786
1,050833	0,1	0,410002
1,052500	0,1	0,460367
1,054167	0,1	0,467072
1,055833	0,1	0,541124
1,057500	0,1	0,602425
1,059167	0,1	0,659096
1,060833	0,1	0,755082
1,062500	0,1	0,879191
1,064167	0,1	1,106475
1,065833	0,1	1,312552
1,067500	0,1	1,630514
1,069167	0,1	2,010335
1,070833	0,1	2,451489
1,072500	0,1	3,057283
1,074167	0,1	3,718732
1,075833	0,1	4,519196
1,077500	0,1	5,422957
1,079167	0,1	6,600603
1,080833	0,1	7,793525
1,082500	0,1	9,221166
1,084167	0,1	10,767002
1,085833	0,1	12,428108
1,087500	0,1	14,243638
1,089167	0,1	16,135501
1,090833	0,1	18,125816
1,092500	0,1	20,192749
1,094167	0,1	22,203566
1,095833	0,1	24,279667
1,097500	0,1	26,297123
1,099167	0,1	28,215268
1,100833	0,1	30,060270
1,102500	0,1	31,717258
1,104167	0,1	33,303265
1,105833	0,1	34,677426
1,107500	0,1	35,920318
1,109167	0,1	36,963510
1,110833	0,1	37,794286
1,112500	0,1	38,476053
1,114167	0,1	38,918565
1,115833	0,1	39,319248
1,117500	0,1	39,486663
1,119167	0,1	39,484902
1,120833	0,1	39,413781
1,122500	0,1	39,267350
1,124167	0,1	38,992006
1,125833	0,1	38,629668
1,127500	0,1	38,181568
1,129167	0,1	37,746160
1,130833	0,1	37,244040
1,132500	0,1	36,718200
1,134167	0,1	36,243537
1,135833	0,1	35,726560
1,137500	0,1	35,298361
1,139167	0,1	34,914227
1,140833	0,1	34,452239
1,142500	0,1	34,173894
1,144167	0,1	33,916732
1,145833	0,1	33,711323
1,147500	0,1	33,536074
1,149167	0,1	33,533013
1,150833	0,1	33,543125
1,152500	0,1	33,699311
1,154167	0,1	33,848623
1,155833	0,1	34,148584
1,157500	0,1	34,497926
1,159167	0,1	34,848246
1,160833	0,1	35,315777
1,162500	0,1	35,824571
1,164167	0,1	36,361449
1,165833	0,1	36,938415
1,167500	0,1	37,531357
1,169167	0,1	38,111291
1,170833	0,1	38,693131
1,172500	0,1	39,253422
1,174167	0,1	39,771288
1,175833	0,1	40,295892
1,177500	0,1	40,788488
1,179167	0,1	41,236992
1,180833	0,1	41,608335
1,182500	0,1	41,983219
1,184167	0,1	42,299518
1,185833	0,1	42,553004
1,187500	0,1	42,822256
1,189167	0,1	43,113165
1,190833	0,1	43,307245
1,192500	0,1	43,554362
1,194167	0,1	43,818835
1,195833	0,1	44,129902
1,197500	0,1	44,562221
1,199167	0,1	44,993635
1,200833	0,1	45,589881
1,202500	0,1	46,294029
1,204167	0,1	47,145029
1,205833	0,1	48,274342
1,207500	0,1	49,561817
1,209167	0,1	51,049391
1,210833	0,1	52,739106
1,212500	0,1	54,692146
1,214167	0,1	56,899895
1,215833	0,1	59,326080
1,217500	0,1	61,956570
1,219167	0,1	64,851876
1,220833	0,1	67,873624
1,222500	0,1	70,988861
1,224167	0,1	74,392122
1,225833	0,1	77,724902
1,227500	0,1	81,161564
1,229167	0,1	84,572348
1,230833	0,1	88,019598
1,232500	0,1	91,353109
1,234167	0,1	94,680328
1,235833	0,1	97,815797
1,237500	0,1	100,716392
1,239167	0,1	103,511085
1,240833	0,1	106,050746
1,242500	0,1	108,423503
1,244167	0,1	110,465611
1,245833	0,1	112,299674
1,247500	0,1	113,920677
1,249167	0,1	115,234943
1,250833	0,1	116,263804
1,252500	0,1	117,091687
1,254167	0,1	117,606350
1,255833	0,1	117,796928
1,257500	0,1	117,838172
1,259167	0,1	117,589453
1,260833	0,1	117,102967
1,262500	0,1	116,433353
1,264167	0,1	115,453107
1,265833	0,1	114,270191
1,267500	0,1	112,984757
1,269167	0,1	111,432224
1,270833	0,1	109,736143
1,272500	0,1	107,899152
1,274167	0,1	105,865992
1,275833	0,1	103,789361
1,277500	0,1	101,518032
1,279167	0,1	99,249682
1,280833	0,1	96,847340
1,282500	0,1	94,363965
1,284167	0,1	91,877988
1,285833	0,1	89,417308
1,287500	0,1	86,804538
1,289167	0,1	84,313201
1,290833	0,1	81,823312
1,292500	0,1	79,301577
1,294167	0,1	76,874358
1,295833	0,1	74,414891
1,297500	0,1	72,102857
1,299167	0,1	69,807541
1,300833	0,1	67,592072
1,302500	0,1	65,424978
1,304167	0,1	63,331771
1,305833	0,1	61,350243
1,307500	0,1	59,442427
1,309167	0,1	57,611574
1,310833	0,1	55,800597
1,312500	0,1	54,117389
1,314167	0,1	52,500260
1,315833	0,1	50,939785
1,317500	0,1	49,456773
1,319167	0,1	48,116799
1,320833	0,1	46,712473
1,322500	0,1	45,424888
1,324167	0,1	44,221794
1,325833	0,1	43,062044
1,327500	0,1	41,941661
1,329167	0,1	40,897142
1,330833	0,1	39,813630
1,332500	0,1	38,849665
1,334167	0,1	37,927534
1,335833	0,1	37,021861
1,337500	0,1	36,153724
1,339167	0,1	35,302799
1,340833	0,1	34,468767
1,342500	0,1	33,686136
1,344167	0,1	32,953243
1,345833	0,1	32,189189
1,347500	0,1	31,460329
1,349167	0,1	30,786066
1,350833	0,1	30,108182
1,352500	0,1	29,443562
1,354167	0,1	28,780609
1,355833	0,1	28,087424
1,357500	0,1	27,529092
1,359167	0,1	26,930230
1,360833	0,1	26,309986
1,362500	0,1	25,730575
1,364167	0,1	25,152096
1,365833	0,1	24,637155
1,367500	0,1	24,076518
1,369167	0,1	23,542431
1,370833	0,1	23,023590
1,372500	0,1	22,506391
1,374167	0,1	21,996196
1,375833	0,1	21,497362
1,377500	0,1	21,051481
1,379167	0,1	20,587509
1,380833	0,1	20,155523
1,382500	0,1	19,678228
1,384167	0,1	19,274654
1,385833	0,1	18,866964
1,387500	0,1	18,442708
1,389167	0,1	18,073321
1,390833	0,1	17,702064
1,392500	0,1	17,308072
1,394167	0,1	16,945925
1,395833	0,1	16,574481
1,397500	0,1	16,270990
1,399167	0,1	15,932541
1,400833	0,1	15,577809
1,402500	0,1	15,314614
1,404167	0,1	15,052386
1,405833	0,1	14,706246
1,407500	0,1	14,479402
1,409167	0,1	14,216516
1,410833	0,1	13,957217
1,412500	0,1	13,660747
1,414167	0,1	13,457384
1,415833	0,1	13,209628
1,417500	0,1	13,017905
1,419167	0,1	12,785075
1,420833	0,1	12,563520
1,422500	0,1	12,384799
1,424167	0,1	12,199038
1,425833	0,1	11,957683
1,427500	0,1	11,811229
1,429167	0,1	11,632741
1,430833	0,1	11,418370
1,432500	0,1	11,294556
1,434167	0,1	11,084225
1,435833	0,1	10,961302
1,437500	0,1	10,761658
1,439167	0,1	10,613358
1,440833	0,1	10,420719
1,442500	0,1	10,297392
1,444167	0,1	10,144827
1,445833	0,1	10,019438
1,447500	0,1	9,872209
1,449167	0,1	9,689301
1,450833	0,1	9,568695
1,452500	0,1	9,434342
1,454167	0,1	9,273994
1,455833	0,1	9,172036
1,457500	0,1	8,995516
1,459167	0,1	8,921356
1,460833	0,1	8,748584
1,462500	0,1	8,681617
1,464167	0,1	8,515142
1,465833	0,1	8,466243
1,467500	0,1	8,299520
1,469167	0,1	8,203520
1,470833	0,1	8,139085
1,472500	0,1	7,985472
1,474167	0,1	7,904677
1,475833	0,1	7,864654
1,477500	0,1	7,761032
1,479167	0,1	7,662022
1,480833	0,1	7,597024
1,482500	0,1	7,542249
1,484167	0,1	7,458434
1,485833	0,1	7,413635
1,487500	0,1	7,319486
1,489167	0,1	7,316458
1,490833	0,1	7,226720
1,492500	0,1	7,202790
1,494167	0,1	7,154890
1,495833	0,1	7,085701
1,497500	0,1	7,046478
1,499167	0,1	7,058787
1,500833	0,1	7,014361
1,502500	0,1	7,007819
1,504167	0,1	6,974031
1,505833	0,1	6,947519
1,507500	0,1	6,899643
1,509167	0,1	6,877892
1,510833	0,1	6,882084
1,512500	0,1	6,813321
1,514167	0,1	6,782986
1,515833	0,1	6,792687
1,517500	0,1	6,805745
1,519167	0,1	6,789514
1,520833	0,1	6,744270
1,522500	0,1	6,735298
1,524167	0,1	6,681009
1,525833	0,1	6,670200
1,527500	0,1	6,641741
1,529167	0,1	6,648446
1,530833	0,1	6,626154
1,532500	0,1	6,600244
1,534167	0,1	6,572905
1,535833	0,1	6,551185
1,537500	0,1	6,552942
1,539167	0,1	6,481148
1,540833	0,1	6,457679
1,542500	0,1	6,427537
1,544167	0,1	6,401257
1,545833	0,1	6,395181
1,547500	0,1	6,332001
1,549167	0,1	6,319781
1,550833	0,1	6,254803
1,552500	0,1	6,264502
1,554167	0,1	6,242059
1,555833	0,1	6,174019
1,557500	0,1	6,149876
1,559167	0,1	6,123800
1,560833	0,1	6,062688
1,562500	0,1	6,053396
1,564167	0,1	6,018180
1,565833	0,1	5,992468
1,567500	0,1	5,956897
1,569167	0,1	5,926392
1,570833	0,1	5,880053
1,572500	0,1	5,843657
1,574167	0,1	5,760166
1,575833	0,1	5,776502
1,577500	0,1	5,726100
1,579167	0,1	5,676739
1,580833	0,1	5,703453
1,582500	0,1	5,641933
1,584167	0,1	5,561792
1,585833	0,1	5,487679
1,587500	0,1	5,495603
1,589167	0,1	5,454007
1,590833	0,1	5,410163
1,592500	0,1	5,360683
1,594167	0,1	5,281580
1,595833	0,1	5,253889
1,597500	0,1	5,217478
1,599167	0,1	5,206546
1,600833	0,1	5,105454
1,602500	0,1	5,157245
1,604167	0,1	5,079425
1,605833	0,1	5,040013
1,607500	0,1	5,012324
1,609167	0,1	4,931171
1,610833	0,1	4,933018
1,612500	0,1	4,874871
1,614167	0,1	4,832400
1,615833	0,1	4,816622
1,617500	0,1	4,765802
1,619167	0,1	4,687967
1,620833	0,1	4,659969
1,622500	0,1	4,662916
1,624167	0,1	4,587260
1,625833	0,1	4,566534
1,627500	0,1	4,568021
1,629167	0,1	4,559009
1,630833	0,1	4,454142
1,632500	0,1	4,421082
1,634167	0,1	4,401995
1,635833	0,1	4,368630
1,637500	0,1	4,349709
1,639167	0,1	4,325720
1,640833	0,1	4,301771
1,642500	0,1	4,244186
1,644167	0,1	4,237843
1,645833	0,1	4,211956
1,647500	0,1	4,222013
1,649167	0,1	4,157552
1,650833	0,1	4,125202
1,652500	0,1	4,121102
1,654167	0,1	4,056322
1,655833	0,1	4,047797
1,657500	0,1	4,026252
1,659167	0,1	4,012052
1,660833	0,1	3,946849
1,662500	0,1	3,973921
1,664167	0,1	3,922630
1,665833	0,1	3,968120
1,667500	0,1	3,963137
1,669167	0,1	3,968336
1,670833	0,1	3,909734
1,672500	0,1	3,941508
1,674167	0,1	3,912370
1,675833	0,1	3,935510
1,677500	0,1	3,938146
1,679167	0,1	3,962774
1,680833	0,1	3,951331
1,682500	0,1	3,956395
1,684167	0,1	4,016754
1,685833	0,1	4,059265
1,687500	0,1	4,033160
1,689167	0,1	4,062922
1,690833	0,1	4,090627
1,692500	0,1	4,116304
1,694167	0,1	4,150387
1,695833	0,1	4,169460
1,697500	0,1	4,156278
1,699167	0,1	4,222041
1,700833	0,1	4,220837
1,702500	0,1	4,244086
1,704167	0,1	4,318713
1,705833	0,1	4,284403
1,707500	0,1	4,327329
1,709167	0,1	4,362727
1,710833	0,1	4,411641
1,712500	0,1	4,427567
1,714167	0,1	4,486550
1,715833	0,1	4,460262
1,717500	0,1	4,484856
1,719167	0,1	4,512837
1,720833	0,1	4,519543
1,722500	0,1	4,584097
1,724167	0,1	4,578702
1,725833	0,1	4,607960
1,727500	0,1	4,609904
1,729167	0,1	4,594878
1,730833	0,1	4,583630
1,732500	0,1	4,611682
1,734167	0,1	4,643361
1,735833	0,1	4,639519
1,737500	0,1	4,654215
1,739167	0,1	4,672045
1,740833	0,1	4,600103
1,742500	0,1	4,618432
1,744167	0,1	4,579772
1,745833	0,1	4,573349
1,747500	0,1	4,570594
1,749167	0,1	4,503599
1,750833	0,1	4,530502
1,752500	0,1	4,540452
1,754167	0,1	4,498269
1,755833	0,1	4,440377
1,757500	0,1	4,392018
1,759167	0,1	4,375734
1,760833	0,1	4,335425
1,762500	0,1	4,305833
1,764167	0,1	4,317590
1,765833	0,1	4,247923
1,767500	0,1	4,204656
1,769167	0,1	4,151259
1,770833	0,1	4,132871
1,772500	0,1	4,130961
1,774167	0,1	4,063790
1,775833	0,1	4,002371
1,777500	0,1	4,013769
1,779167	0,1	3,915710
1,780833	0,1	3,866547
1,782500	0,1	3,831318
1,784167	0,1	3,793490
1,785833	0,1	3,728270
1,787500	0,1	3,661111
1,789167	0,1	3,663766
1,790833	0,1	3,554577
1,792500	0,1	3,531476
1,794167	0,1	3,509254
1,795833	0,1	3,413600
1,797500	0,1	3,394267
1,799167	0,1	3,335700
1,800833	0,1	3,320006
1,802500	0,1	3,261626
1,804167	0,1	3,207590
1,805833	0,1	3,156758
1,807500	0,1	3,073982
1,809167	0,1	3,025846
1,810833	0,1	3,019361
1,812500	0,1	3,004244
1,814167	0,1	2,944150
1,815833	0,1	2,927278
1,817500	0,1	2,843022
1,819167	0,1	2,746692
1,820833	0,1	2,754174
1,822500	0,1	2,725872
1,824167	0,1	2,686966
1,825833	0,1	2,579314
1,827500	0,1	2,594672
1,829167	0,1	2,538340
1,830833	0,1	2,519360
1,832500	0,1	2,470276
1,834167	0,1	2,442048
1,835833	0,1	2,437140
1,837500	0,1	2,373870
1,839167	0,1	2,362365
1,840833	0,1	2,351446
1,842500	0,1	2,417724
1,844167	0,1	2,402878
1,845833	0,1	2,402729
1,847500	0,1	2,347721
1,849167	0,1	2,369251
1,850833	0,1	2,421905
1,852500	0,1	2,456047
1,854167	0,1	2,465466
1,855833	0,1	2,529027
1,857500	0,1	2,561252
1,859167	0,1	2,567285
1,860833	0,1	2,610486
1,862500	0,1	2,697308
1,864167	0,1	2,765882
1,865833	0,1	2,779498
1,867500	0,1	2,881377
1,869167	0,1	2,907078
1,870833	0,1	2,924559
1,872500	0,1	3,024289
1,874167	0,1	3,050492
1,875833	0,1	3,064624
1,877500	0,1	3,138440
1,879167	0,1	3,167826
1,880833	0,1	3,208633
1,882500	0,1	3,257978
1,884167	0,1	3,274370
1,885833	0,1	3,283298
1,887500	0,1	3,384911
1,889167	0,1	3,385065
1,890833	0,1	3,426687
1,892500	0,1	3,450777
1,894167	0,1	3,473645
1,895833	0,1	3,503745
1,897500	0,1	3,533851
1,899167	0,1	3,566135
1,900833	0,1	3,613356
1,902500	0,1	3,580309
1,904167	0,1	3,624328
1,905833	0,1	3,646950
1,907500	0,1	3,638506
1,909167	0,1	3,642572
1,910833	0,1	3,717289
1,912500	0,1	3,701796
1,914167	0,1	3,730132
1,915833	0,1	3,720238
1,917500	0,1	3,732537
1,919167	0,1	3,739278
1,920833	0,1	3,732003
1,922500	0,1	3,761579
1,924167	0,1	3,749868
1,925833	0,1	3,747712
1,927500	0,1	3,749420
1,929167	0,1	3,739028
1,930833	0,1	3,752710
1,932500	0,1	3,705979
1,934167	0,1	3,755816
1,935833	0,1	3,735619
1,937500	0,1	3,740909
1,939167	0,1	3,721713
1,940833	0,1	3,665047
1,942500	0,1	3,628660
1,944167	0,1	3,664898
1,945833	0,1	3,619163
1,947500	0,1	3,614435
1,949167	0,1	3,622991
1,950833	0,1	3,528461
1,952500	0,1	3,566006
1,954167	0,1	3,481500
1,955833	0,1	3,535918
1,957500	0,1	3,443465
1,959167	0,1	3,483985
1,960833	0,1	3,462066
1,962500	0,1	3,395107
1,964167	0,1	3,409707
1,965833	0,1	3,405156
1,967500	0,1	3,398962
1,969167	0,1	3,366227
1,970833	0,1	3,343797
1,972500	0,1	3,334546
1,974167	0,1	3,320884
1,975833	0,1	3,286735
1,977500	0,1	3,290823
1,979167	0,1	3,257832
1,980833	0,1	3,223113
1,982500	0,1	3,255413
1,984167	0,1	3,231929
1,985833	0,1	3,226346
1,987500	0,1	3,183524
1,989167	0,1	3,204772
1,990833	0,1	3,179080
1,992500	0,1	3,153724
1,994167	0,1	3,195371
1,995833	0,1	3,149842
1,997500	0,1	3,147031
1,999167	0,1	3,131624
2,000833	0,1	3,143065
2,002500	0,1	3,137184
2,004167	0,1	3,094790
2,005833	0,1	3,115804
2,007500	0,1	3,141025
2,009167	0,1	3,161447
2,010833	0,1	3,092223
2,012500	0,1	3,104356
2,014167	0,1	3,119252
2,015833	0,1	3,099622
2,017500	0,1	3,121689
2,019167	0,1	3,115028
2,020833	0,1	3,113638
2,022500	0,1	3,127824
2,024167	0,1	3,137295
2,025833	0,1	3,160380
2,027500	0,1	3,140045
2,029167	0,1	3,131259
2,030833	0,1	3,170110
2,032500	0,1	3,190347
2,034167	0,1	3,181154
2,035833	0,1	3,218408
2,037500	0,1	3,233139
2,039167	0,1	3,276921
2,040833	0,1	3,222317
2,042500	0,1	3,241942
2,044167	0,1	3,287650
2,045833	0,1	3,267559
2,047500	0,1	3,313127
2,049167	0,1	3,291861
2,050833	0,1	3,317173
2,052500	0,1	3,340031
2,054167	0,1	3,373417
2,055833	0,1	3,360104
2,057500	0,1	3,366033
2,059167	0,1	3,380864
2,060833	0,1	3,422073
2,062500	0,1	3,466665
2,064167	0,1	3,477173
2,065833	0,1	3,487260
2,067500	0,1	3,465874
2,069167	0,1	3,517094
2,070833	0,1	3,494086
2,072500	0,1	3,500198
2,074167	0,1	3,561667
2,075833	0,1	3,534566
2,077500	0,1	3,620685
2,079167	0,1	3,575464
2,080833	0,1	3,605919
2,082500	0,1	3,627832
2,084167	0,1	3,616695
2,085833	0,1	3,625042
2,087500	0,1	3,672206
2,089167	0,1	3,658354
2,090833	0,1	3,703932
2,092500	0,1	3,701919
2,094167	0,1	3,711723
2,095833	0,1	3,721275
2,097500	0,1	3,749730
2,099167	0,1	3,762010
2,100833	0,1	3,751211
2,102500	0,1	3,787223
2,104167	0,1	3,722307
2,105833	0,1	3,761954
2,107500	0,1	3,818970
2,109167	0,1	3,817038
2,110833	0,1	3,778127
2,112500	0,1	3,809563
2,114167	0,1	3,802768
2,115833	0,1	3,819409
2,117500	0,1	3,865775
2,119167	0,1	3,841111
2,120833	0,1	3,855879
2,122500	0,1	3,847292
2,124167	0,1	3,904495
2,125833	0,1	3,905918
2,127500	0,1	3,903622
2,129167	0,1	3,888452
2,130833	0,1	3,890916
2,132500	0,1	3,861397
2,134167	0,1	3,875832
2,135833	0,1	3,871785
2,137500	0,1	3,875517
2,139167	0,1	3,871136
2,140833	0,1	3,895703
2,142500	0,1	3,891328
2,144167	0,1	3,917639
2,145833	0,1	3,851278
2,147500	0,1	3,884547
2,149167	0,1	3,911628
2,150833	0,1	3,869834
2,152500	0,1	3,884870
2,154167	0,1	3,893589
2,155833	0,1	3,857143
2,157500	0,1	3,877671
2,159167	0,1	3,890617
2,160833	0,1	3,869419
2,162500	0,1	3,884107
2,164167	0,1	3,863341
2,165833	0,1	3,858526
2,167500	0,1	3,833865
2,169167	0,1	3,852575
2,170833	0,1	3,881985
2,172500	0,1	3,848105
2,174167	0,1	3,871857
2,175833	0,1	3,838343
2,177500	0,1	3,861239
2,179167	0,1	3,802418
2,180833	0,1	3,840272
2,182500	0,1	3,844125
2,184167	0,1	3,796038
2,185833	0,1	3,821098
2,187500	0,1	3,855398
2,189167	0,1	3,805407
2,190833	0,1	3,790906
2,192500	0,1	3,791124
2,194167	0,1	3,814313
2,195833	0,1	3,793328
2,197500	0,1	3,790459
2,199167	0,1	3,784290
2,200833	0,1	3,783133
2,202500	0,1	3,794569
2,204167	0,1	3,792879
2,205833	0,1	3,792800
2,207500	0,1	3,761735
2,209167	0,1	3,832307
2,210833	0,1	3,823701
2,212500	0,1	3,804148
2,214167	0,1	3,806043
2,215833	0,1	3,806059
2,217500	0,1	3,821450
2,219167	0,1	3,815538
2,220833	0,1	3,911668
2,222500	0,1	3,892298
2,224167	0,1	3,855687
2,225833	0,1	3,878936
2,227500	0,1	3,855967
2,229167	0,1	3,926255
2,230833	0,1	3,927888
2,232500	0,1	3,939417
2,234167	0,1	3,956573
2,235833	0,1	3,962689
2,237500	0,1	4,041163
2,239167	0,1	4,064832
2,240833	0,1	4,028814
2,242500	0,1	4,026175
2,244167	0,1	4,087534
2,245833	0,1	4,082605
2,247500	0,1	4,100973
2,249167	0,1	4,108444
2,250833	0,1	4,121989
2,252500	0,1	4,154242
2,254167	0,1	4,168812
2,255833	0,1	4,202813
2,257500	0,1	4,202131
2,259167	0,1	4,191746
2,260833	0,1	4,244566
2,262500	0,1	4,240158
2,264167	0,1	4,264582
2,265833	0,1	4,234481
2,267500	0,1	4,256992
2,269167	0,1	4,304715
2,270833	0,1	4,241551
2,272500	0,1	4,263080
2,274167	0,1	4,272703
2,275833	0,1	4,313607
2,277500	0,1	4,297182
2,279167	0,1	4,312882
2,280833	0,1	4,335894
2,282500	0,1	4,276168
2,284167	0,1	4,319816
2,285833	0,1	4,283873
2,287500	0,1	4,261629
2,289167	0,1	4,275988
2,290833	0,1	4,246696
2,292500	0,1	4,241982
2,294167	0,1	4,234152
2,295833	0,1	4,273546
2,297500	0,1	4,267187
2,299167	0,1	4,240933
2,300833	0,1	4,193986
2,302500	0,1	4,209919
2,304167	0,1	4,187245
2,305833	0,1	4,154496
2,307500	0,1	4,180169
2,309167	0,1	4,149225
2,310833	0,1	4,150270
2,312500	0,1	4,160053
2,314167	0,1	4,099736
2,315833	0,1	4,137406
2,317500	0,1	4,132465
2,319167	0,1	4,079371
2,320833	0,1	4,087988
2,322500	0,1	4,002457
2,324167	0,1	4,013973
2,325833	0,1	4,021878
2,327500	0,1	3,976704
2,329167	0,1	3,952360
2,330833	0,1	3,948451
2,332500	0,1	3,884046
2,334167	0,1	3,892530
2,335833	0,1	3,897073
2,337500	0,1	3,847540
2,339167	0,1	3,824386
2,340833	0,1	3,840150
2,342500	0,1	3,811380
2,344167	0,1	3,798942
2,345833	0,1	3,782000
2,347500	0,1	3,712362
2,349167	0,1	3,692117
2,350833	0,1	3,700129
2,352500	0,1	3,634651
2,354167	0,1	3,608913
2,355833	0,1	3,622185
2,357500	0,1	3,573830
2,359167	0,1	3,546391
2,360833	0,1	3,567356
2,362500	0,1	3,535265
2,364167	0,1	3,524317
2,365833	0,1	3,502177
2,367500	0,1	3,467903
2,369167	0,1	3,450138
2,370833	0,1	3,403325
2,372500	0,1	3,417852
2,374167	0,1	3,452773
2,375833	0,1	3,363834
2,377500	0,1	3,376615
2,379167	0,1	3,368243
2,380833	0,1	3,337714
2,382500	0,1	3,388787
2,384167	0,1	3,349381
2,385833	0,1	3,343485
2,387500	0,1	3,351443
2,389167	0,1	3,398147
2,390833	0,1	3,359934
2,392500	0,1	3,353261
2,394167	0,1	3,366401
2,395833	0,1	3,369875
2,397500	0,1	3,422486
2,399167	0,1	3,428898
2,400833	0,1	3,452100
2,402500	0,1	3,498271
2,404167	0,1	3,520498
2,405833	0,1	3,554337
2,407500	0,1	3,607569
2,409167	0,1	3,653694
2,410833	0,1	3,700277
2,412500	0,1	3,795118
2,414167	0,1	3,845935
2,415833	0,1	3,924557
2,417500	0,1	3,970396
2,419167	0,1	4,024872
2,420833	0,1	4,146067
2,422500	0,1	4,234048
2,424167	0,1	4,277361
2,425833	0,1	4,361372
2,427500	0,1	4,487631
2,429167	0,1	4,558715
2,430833	0,1	4,683837
2,432500	0,1	4,788384
2,434167	0,1	4,866553
2,435833	0,1	5,017682
2,437500	0,1	5,108433
2,439167	0,1	5,211640
2,440833	0,1	5,299422
2,442500	0,1	5,412194
2,444167	0,1	5,529052
2,445833	0,1	5,626192
2,447500	0,1	5,799625
2,449167	0,1	5,863411
2,450833	0,1	5,984076
2,452500	0,1	6,056356
2,454167	0,1	6,143467
2,455833	0,1	6,221264
2,457500	0,1	6,359919
2,459167	0,1	6,458393
2,460833	0,1	6,535134
2,462500	0,1	6,633590
2,464167	0,1	6,714482
2,465833	0,1	6,797340
2,467500	0,1	6,846985
2,469167	0,1	6,980152
2,470833	0,1	7,024610
2,472500	0,1	7,121605
2,474167	0,1	7,168865
2,475833	0,1	7,214353
2,477500	0,1	7,336343
2,479167	0,1	7,410889
2,480833	0,1	7,436424
2,482500	0,1	7,518095
2,484167	0,1	7,604725
2,485833	0,1	7,667575
2,487500	0,1	7,711441
2,489167	0,1	7,811029
2,490833	0,1	7,895652
2,492500	0,1	7,939618
2,494167	0,1	8,051533
2,495833	0,1	8,139738
2,497500	0,1	8,265409
2,499167	0,1	8,333389
2,500833	0,1	8,436757
2,502500	0,1	8,527955
2,504167	0,1	8,646073
2,505833	0,1	8,772615
2,507500	0,1	8,913224
2,509167	0,1	9,077862
2,510833	0,1	9,209105
2,512500	0,1	9,383110
2,514167	0,1	9,564258
2,515833	0,1	9,749350
2,517500	0,1	9,886231
2,519167	0,1	10,106239
2,520833	0,1	10,297823
2,522500	0,1	10,541064
2,524167	0,1	10,747494
2,525833	0,1	10,991702
2,527500	0,1	11,273211
2,529167	0,1	11,493439
2,530833	0,1	11,769031
2,532500	0,1	11,988685
2,534167	0,1	12,296216
2,535833	0,1	12,616141
2,537500	0,1	12,854866
2,539167	0,1	13,191130
2,540833	0,1	13,491753
2,542500	0,1	13,793784
2,544167	0,1	14,054642
2,545833	0,1	14,423911
2,547500	0,1	14,754793
2,549167	0,1	15,051187
2,550833	0,1	15,372024
2,552500	0,1	15,648720
2,554167	0,1	15,990407
2,555833	0,1	16,293654
2,557500	0,1	16,557600
2,559167	0,1	16,893711
2,560833	0,1	17,192372
2,562500	0,1	17,489129
2,564167	0,1	17,777979
2,565833	0,1	18,030196
2,567500	0,1	18,293135
2,569167	0,1	18,557718
2,570833	0,1	18,796283
2,572500	0,1	19,056010
2,574167	0,1	19,237208
2,575833	0,1	19,483787
2,577500	0,1	19,723747
2,579167	0,1	19,894861
2,580833	0,1	20,071981
2,582500	0,1	20,299808
2,584167	0,1	20,434085
2,585833	0,1	20,584354
2,587500	0,1	20,692718
2,589167	0,1	20,833779
2,590833	0,1	20,919754
2,592500	0,1	21,041048
2,594167	0,1	21,104911
2,595833	0,1	21,194175
2,597500	0,1	21,245101
2,599167	0,1	21,271146
2,600833	0,1	21,340476
2,602500	0,1	21,332231
2,604167	0,1	21,352746
2,605833	0,1	21,381369
2,607500	0,1	21,381216
2,609167	0,1	21,340662
2,610833	0,1	21,332133
2,612500	0,1	21,315728
2,614167	0,1	21,264967
2,615833	0,1	21,167056
2,617500	0,1	21,138228
2,619167	0,1	21,076564
2,620833	0,1	20,964281
2,622500	0,1	20,884080
2,624167	0,1	20,786203
2,625833	0,1	20,656256
2,627500	0,1	20,549721
2,629167	0,1	20,448761
2,630833	0,1	20,310769
2,632500	0,1	20,171724
2,634167	0,1	20,049310
2,635833	0,1	19,873316
2,637500	0,1	19,752683
2,639167	0,1	19,580301
2,640833	0,1	19,418164
2,642500	0,1	19,238227
2,644167	0,1	19,068285
2,645833	0,1	18,865947
2,647500	0,1	18,758914
2,649167	0,1	18,550713
2,650833	0,1	18,278009
2,652500	0,1	18,124760
2,654167	0,1	17,893314
2,655833	0,1	17,766098
2,657500	0,1	17,526286
2,659167	0,1	17,313892
2,660833	0,1	17,056474
2,662500	0,1	16,862142
2,664167	0,1	16,688084
2,665833	0,1	16,409960
2,667500	0,1	16,240358
2,669167	0,1	15,973346
2,670833	0,1	15,757908
2,672500	0,1	15,546326
2,674167	0,1	15,273584
2,675833	0,1	15,068364
2,677500	0,1	14,866407
2,679167	0,1	14,660470
2,680833	0,1	14,423011
2,682500	0,1	14,173756
2,684167	0,1	13,977016
2,685833	0,1	13,729287
2,687500	0,1	13,548329
2,689167	0,1	13,270015
2,690833	0,1	13,092559
2,692500	0,1	12,865575
2,694167	0,1	12,686109
2,695833	0,1	12,446539
2,697500	0,1	12,238838
2,699167	0,1	12,036307
2,700833	0,1	11,839853
2,702500	0,1	11,607216
2,704167	0,1	11,411516
2,705833	0,1	11,193280
2,707500	0,1	11,033065
2,709167	0,1	10,844485
2,710833	0,1	10,638684
2,712500	0,1	10,446588
2,714167	0,1	10,274808
2,715833	0,1	10,103942
2,717500	0,1	9,904963
2,719167	0,1	9,755115
2,720833	0,1	9,614494
2,722500	0,1	9,379923
2,724167	0,1	9,226147
2,725833	0,1	9,078040
2,727500	0,1	8,972443
2,729167	0,1	8,700160
2,730833	0,1	8,623566
2,732500	0,1	8,457368
2,734167	0,1	8,357342
2,735833	0,1	8,214914
2,737500	0,1	8,082005
2,739167	0,1	7,906566
2,740833	0,1	7,785136
2,742500	0,1	7,628695
2,744167	0,1	7,535699
2,745833	0,1	7,423457
2,747500	0,1	7,325541
2,749167	0,1	7,218210
2,750833	0,1	7,059294
2,752500	0,1	6,941290
2,754167	0,1	6,878653
2,755833	0,1	6,758104
2,757500	0,1	6,631515
2,759167	0,1	6,558195
2,760833	0,1	6,423497
2,762500	0,1	6,387584
2,764167	0,1	6,272000
2,765833	0,1	6,143250
2,767500	0,1	6,109137
2,769167	0,1	5,996430
2,770833	0,1	5,928768
2,772500	0,1	5,818450
2,774167	0,1	5,734879
2,775833	0,1	5,707218
2,777500	0,1	5,573725
2,779167	0,1	5,485014
2,780833	0,1	5,429964
2,782500	0,1	5,369957
2,784167	0,1	5,271923
2,785833	0,1	5,254023
2,787500	0,1	5,157021
2,789167	0,1	5,086210
2,790833	0,1	5,000429
2,792500	0,1	4,913224
2,794167	0,1	4,895825
2,795833	0,1	4,812352
2,797500	0,1	4,718840
2,799167	0,1	4,698855
2,800833	0,1	4,638585
2,802500	0,1	4,565687
2,804167	0,1	4,512116
2,805833	0,1	4,450474
2,807500	0,1	4,413850
2,809167	0,1	4,380563
2,810833	0,1	4,295411
2,812500	0,1	4,255588
2,814167	0,1	4,197075
2,815833	0,1	4,170856
2,817500	0,1	4,119454
2,819167	0,1	4,047572
2,820833	0,1	3,989240
2,822500	0,1	3,963366
2,824167	0,1	3,887042
2,825833	0,1	3,884032
2,827500	0,1	3,818034
2,829167	0,1	3,786637
2,830833	0,1	3,759980
2,832500	0,1	3,708338
2,834167	0,1	3,655606
2,835833	0,1	3,594892
2,837500	0,1	3,566587
2,839167	0,1	3,545556
2,840833	0,1	3,457441
2,842500	0,1	3,472661
2,844167	0,1	3,396439
2,845833	0,1	3,337907
2,847500	0,1	3,342866
2,849167	0,1	3,314934
2,850833	0,1	3,275966
2,852500	0,1	3,258983
2,854167	0,1	3,207377
2,855833	0,1	3,182680
2,857500	0,1	3,147440
2,859167	0,1	3,088470
2,860833	0,1	3,104091
2,862500	0,1	3,072715
2,864167	0,1	3,036034
2,865833	0,1	2,956364
2,867500	0,1	2,965752
2,869167	0,1	2,896531
2,870833	0,1	2,870254
2,872500	0,1	2,883040
2,874167	0,1	2,840210
2,875833	0,1	2,831776
2,877500	0,1	2,780920
2,879167	0,1	2,795005
2,880833	0,1	2,768408
2,882500	0,1	2,703020
2,884167	0,1	2,705488
2,885833	0,1	2,688246
2,887500	0,1	2,663394
2,889167	0,1	2,631529
2,890833	0,1	2,596035
2,892500	0,1	2,624982
2,894167	0,1	2,597900
2,895833	0,1	2,577910
2,897500	0,1	2,547448
2,899167	0,1	2,509204
2,900833	0,1	2,543037
2,902500	0,1	2,505902
2,904167	0,1	2,480686
2,905833	0,1	2,440162
2,907500	0,1	2,479584
2,909167	0,1	2,436936
2,910833	0,1	2,373285
2,912500	0,1	2,384905
2,914167	0,1	2,330120
2,915833	0,1	2,369093
2,917500	0,1	2,325871
2,919167	0,1	2,330027
2,920833	0,1	2,364351
2,922500	0,1	2,275894
2,924167	0,1	2,299134
2,925833	0,1	2,273936
2,927500	0,1	2,264457
2,929167	0,1	2,244134
2,930833	0,1	2,223163
2,932500	0,1	2,182598
2,934167	0,1	2,191992
2,935833	0,1	2,200606
2,937500	0,1	2,198456
2,939167	0,1	2,165289
2,940833	0,1	2,191557
2,942500	0,1	2,178712
2,944167	0,1	2,161409
2,945833	0,1	2,144248
2,947500	0,1	2,094791
2,949167	0,1	2,110637
2,950833	0,1	2,091193
2,952500	0,1	2,047479
2,954167	0,1	2,063256
2,955833	0,1	2,093980
2,957500	0,1	2,065566
2,959167	0,1	2,034698
2,960833	0,1	2,041011
2,962500	0,1	2,017406
2,964167	0,1	1,995012
2,965833	0,1	1,976986
2,967500	0,1	1,979927
2,969167	0,1	1,976347
2,970833	0,1	2,011139
2,972500	0,1	1,955900
2,974167	0,1	1,927616
2,975833	0,1	1,947910
2,977500	0,1	1,946485
2,979167	0,1	1,930701
2,980833	0,1	1,958535
2,982500	0,1	1,920154
2,984167	0,1	1,897042
2,985833	0,1	1,920075
2,987500	0,1	1,906586
2,989167	0,1	1,883409
2,990833	0,1	1,854197
2,992500	0,1	1,861022
2,994167	0,1	1,911017
2,995833	0,1	1,868642
2,997500	0,1	1,843673
2,999167	0,1	1,840348
3,000833	0,1	1,868903
3,002500	0,1	1,893448
3,004167	0,1	1,835055
3,005833	0,1	1,798028
3,007500	0,1	1,826142
3,009167	0,1	1,863887
3,010833	0,1	1,798246
3,012500	0,1	1,808494
3,014167	0,1	1,825140
3,015833	0,1	1,783249
3,017500	0,1	1,789770
3,019167	0,1	1,796600
3,020833	0,1	1,798095
3,022500	0,1	1,822774
3,024167	0,1	1,809664
3,025833	0,1	1,768545
3,027500	0,1	1,773708
3,029167	0,1	1,786905
3,030833	0,1	1,746813
3,032500	0,1	1,803963
3,034167	0,1	1,750566
3,035833	0,1	1,755256
3,037500	0,1	1,747451
3,039167	0,1	1,727441
3,040833	0,1	1,760220
3,042500	0,1	1,730957
3,044167	0,1	1,716088
3,045833	0,1	1,681402
3,047500	0,1	1,720255
3,049167	0,1	1,717865
3,050833	0,1	1,730730
3,052500	0,1	1,709871
3,054167	0,1	1,721334
3,055833	0,1	1,697178
3,057500	0,1	1,681108
3,059167	0,1	1,707861
3,060833	0,1	1,651267
3,062500	0,1	1,646172
3,064167	0,1	1,686468
3,065833	0,1	1,666193
3,067500	0,1	1,650840
3,069167	0,1	1,655415
3,070833	0,1	1,650768
3,072500	0,1	1,686479
3,074167	0,1	1,652355
3,075833	0,1	1,643154
3,077500	0,1	1,656712
3,079167	0,1	1,658960
3,080833	0,1	1,639533
3,082500	0,1	1,639844
3,084167	0,1	1,656216
3,085833	0,1	1,613828
3,087500	0,1	1,653470
3,089167	0,1	1,636722
3,090833	0,1	1,611312
3,092500	0,1	1,627000
3,094167	0,1	1,631819
3,095833	0,1	1,614181
3,097500	0,1	1,635838
3,099167	0,1	1,626729
3,100833	0,1	1,655050
3,102500	0,1	1,652704
3,104167	0,1	1,661896
3,105833	0,1	1,640228
3,107500	0,1	1,636122
3,109167	0,1	1,632895
3,110833	0,1	1,690714
3,112500	0,1	1,684682
3,114167	0,1	1,668199
3,115833	0,1	1,695805
3,117500	0,1	1,668113
3,119167	0,1	1,690931
3,120833	0,1	1,709862
3,122500	0,1	1,735027
3,124167	0,1	1,756053
3,125833	0,1	1,723002
3,127500	0,1	1,811001
3,129167	0,1	1,759448
3,130833	0,1	1,766527
3,132500	0,1	1,831734
3,134167	0,1	1,796012
3,135833	0,1	1,804971
3,137500	0,1	1,824278
3,139167	0,1	1,846960
3,140833	0,1	1,843718
3,142500	0,1	1,884978
3,144167	0,1	1,859170
3,145833	0,1	1,864310
3,147500	0,1	1,902910
3,149167	0,1	1,877234
3,150833	0,1	1,941019
3,152500	0,1	1,969019
3,154167	0,1	1,961917
3,155833	0,1	1,995857
3,157500	0,1	1,987823
3,159167	0,1	1,956761
3,160833	0,1	1,998575
3,162500	0,1	2,052414
3,164167	0,1	1,996092
3,165833	0,1	2,043724
3,167500	0,1	2,048399
3,169167	0,1	2,049046
3,170833	0,1	2,092976
3,172500	0,1	2,062050
3,174167	0,1	2,033552
3,175833	0,1	2,074019
3,177500	0,1	2,106473
3,179167	0,1	2,101670
3,180833	0,1	2,132893
3,182500	0,1	2,086388
3,184167	0,1	2,146241
3,185833	0,1	2,120773
3,187500	0,1	2,074401
3,189167	0,1	2,116091
3,190833	0,1	2,133255
3,192500	0,1	2,113159
3,194167	0,1	2,118827
3,195833	0,1	2,110645
3,197500	0,1	2,089972
3,199167	0,1	2,136552
3,200833	0,1	2,118978
3,202500	0,1	2,126294
3,204167	0,1	2,088901
3,205833	0,1	2,105902
3,207500	0,1	2,115596
3,209167	0,1	2,105908
3,210833	0,1	2,095859
3,212500	0,1	2,091332
3,214167	0,1	2,104608
3,215833	0,1	2,067866
3,217500	0,1	2,084580
3,219167	0,1	2,034987
3,220833	0,1	2,058307
3,222500	0,1	2,044817
3,224167	0,1	2,039865
3,225833	0,1	2,038861
3,227500	0,1	2,030749
3,229167	0,1	2,025795
3,230833	0,1	2,029527
3,232500	0,1	2,000535
3,234167	0,1	1,982085
3,235833	0,1	1,976411
3,237500	0,1	1,944829
3,239167	0,1	1,929332
3,240833	0,1	1,950856
3,242500	0,1	1,924316
3,244167	0,1	1,888716
3,245833	0,1	1,925666
3,247500	0,1	1,883773
3,249167	0,1	1,884843
3,250833	0,1	1,863103
3,252500	0,1	1,827379
3,254167	0,1	1,838913
3,255833	0,1	1,852551
3,257500	0,1	1,805279
3,259167	0,1	1,811297
3,260833	0,1	1,821127
3,262500	0,1	1,759365
3,264167	0,1	1,733086
3,265833	0,1	1,698743
3,267500	0,1	1,741924
3,269167	0,1	1,707362
3,270833	0,1	1,685767
3,272500	0,1	1,667495
3,274167	0,1	1,679593
3,275833	0,1	1,628111
3,277500	0,1	1,638631
3,279167	0,1	1,626047
3,280833	0,1	1,603002
3,282500	0,1	1,621293
3,284167	0,1	1,598932
3,285833	0,1	1,584986
3,287500	0,1	1,549797
3,289167	0,1	1,549018
3,290833	0,1	1,578258
3,292500	0,1	1,514972
3,294167	0,1	1,489715
3,295833	0,1	1,502556
3,297500	0,1	1,500266
3,299167	0,1	1,481066
3,300833	0,1	1,455810
3,302500	0,1	1,436425
3,304167	0,1	1,424360
3,305833	0,1	1,433713
3,307500	0,1	1,414685
3,309167	0,1	1,388731
3,310833	0,1	1,360472
3,312500	0,1	1,357613
3,314167	0,1	1,368810
3,315833	0,1	1,347433
3,317500	0,1	1,368201
3,319167	0,1	1,331584
3,320833	0,1	1,305934
3,322500	0,1	1,314683
3,324167	0,1	1,289980
3,325833	0,1	1,291263
3,327500	0,1	1,320110
3,329167	0,1	1,288895
3,330833	0,1	1,262811
3,332500	0,1	1,272034
3,334167	0,1	1,262449
3,335833	0,1	1,265399
3,337500	0,1	1,263485
3,339167	0,1	1,229838
3,340833	0,1	1,228425
3,342500	0,1	1,229984
3,344167	0,1	1,236922
3,345833	0,1	1,193461
3,347500	0,1	1,192451
3,349167	0,1	1,194692
3,350833	0,1	1,191352
3,352500	0,1	1,151063
3,354167	0,1	1,172728
3,355833	0,1	1,167527
3,357500	0,1	1,152768
3,359167	0,1	1,211983
3,360833	0,1	1,142178
3,362500	0,1	1,196324
3,364167	0,1	1,141078
3,365833	0,1	1,116824
3,367500	0,1	1,099886
3,369167	0,1	1,111013
3,370833	0,1	1,136641
3,372500	0,1	1,139292
3,374167	0,1	1,127740
3,375833	0,1	1,129045
3,377500	0,1	1,138887
3,379167	0,1	1,103732
3,380833	0,1	1,094478
3,382500	0,1	1,116369
3,384167	0,1	1,121885
3,385833	0,1	1,113287
3,387500	0,1	1,113506
3,389167	0,1	1,080618
3,390833	0,1	1,101696
3,392500	0,1	1,098500
3,394167	0,1	1,096034
3,395833	0,1	1,092234
3,397500	0,1	1,069543
3,399167	0,1	1,076807
3,400833	0,1	1,060631
3,402500	0,1	1,067493
3,404167	0,1	1,087648
3,405833	0,1	1,061189
3,407500	0,1	1,103579
3,409167	0,1	1,090570
3,410833	0,1	1,029703
3,412500	0,1	1,077705
3,414167	0,1	1,077030
3,415833	0,1	1,093451
3,417500	0,1	1,086165
3,419167	0,1	1,060453
3,420833	0,1	1,071382
3,422500	0,1	1,084494
3,424167	0,1	1,054653
3,425833	0,1	1,082001
3,427500	0,1	1,074143
3,429167	0,1	1,078717
3,430833	0,1	1,120917
3,432500	0,1	1,071129
3,434167	0,1	1,076917
3,435833	0,1	1,094720
3,437500	0,1	1,082943
3,439167	0,1	1,083099
3,440833	0,1	1,061565
3,442500	0,1	1,114763
3,444167	0,1	1,086881
3,445833	0,1	1,115615
3,447500	0,1	1,119038
3,449167	0,1	1,084840
3,450833	0,1	1,099588
3,452500	0,1	1,131482
3,454167	0,1	1,128603
3,455833	0,1	1,142070
3,457500	0,1	1,174361
3,459167	0,1	1,152348
3,460833	0,1	1,164232
3,462500	0,1	1,190528
3,464167	0,1	1,180625
3,465833	0,1	1,209226
3,467500	0,1	1,186279
3,469167	0,1	1,221475
3,470833	0,1	1,211864
3,472500	0,1	1,275499
3,474167	0,1	1,245994
3,475833	0,1	1,252366
3,477500	0,1	1,240592
3,479167	0,1	1,270909
3,480833	0,1	1,271052
3,482500	0,1	1,292227
3,484167	0,1	1,319261
3,485833	0,1	1,308815
3,487500	0,1	1,338968
3,489167	0,1	1,358471
3,490833	0,1	1,348499
3,492500	0,1	1,347056
3,494167	0,1	1,364240
3,495833	0,1	1,409274
3,497500	0,1	1,435551
3,499167	0,1	1,400771
3,500833	0,1	1,408720
3,502500	0,1	1,446912
3,504167	0,1	1,433871
3,505833	0,1	1,443048
3,507500	0,1	1,437232
3,509167	0,1	1,479158
3,510833	0,1	1,477000
3,512500	0,1	1,463178
3,514167	0,1	1,516742
3,515833	0,1	1,533965
3,517500	0,1	1,559613
3,519167	0,1	1,557418
3,520833	0,1	1,567602
3,522500	0,1	1,562420
3,524167	0,1	1,578410
3,525833	0,1	1,589441
3,527500	0,1	1,605159
3,529167	0,1	1,581151
3,530833	0,1	1,593036
3,532500	0,1	1,594191
3,534167	0,1	1,582012
3,535833	0,1	1,616702
3,537500	0,1	1,600510
3,539167	0,1	1,614264
3,540833	0,1	1,641090
3,542500	0,1	1,644323
3,544167	0,1	1,656801
3,545833	0,1	1,597927
3,547500	0,1	1,604217
3,549167	0,1	1,649754
3,550833	0,1	1,619655
3,552500	0,1	1,642301
3,554167	0,1	1,623307
3,555833	0,1	1,665900
3,557500	0,1	1,628982
3,559167	0,1	1,679881
3,560833	0,1	1,623823
3,562500	0,1	1,644308
3,564167	0,1	1,647033
3,565833	0,1	1,580365
3,567500	0,1	1,615100
3,569167	0,1	1,602216
3,570833	0,1	1,606856
3,572500	0,1	1,612399
3,574167	0,1	1,596248
3,575833	0,1	1,610747
3,577500	0,1	1,597547
3,579167	0,1	1,623514
3,580833	0,1	1,601145
3,582500	0,1	1,602213
3,584167	0,1	1,566875
3,585833	0,1	1,587018
3,587500	0,1	1,603578
3,589167	0,1	1,551312
3,590833	0,1	1,544341
3,592500	0,1	1,549524
3,594167	0,1	1,570792
3,595833	0,1	1,559125
3,597500	0,1	1,547730
3,599167	0,1	1,572162
3,600833	0,1	1,500641
3,602500	0,1	1,481051
3,604167	0,1	1,559993
3,605833	0,1	1,480489
3,607500	0,1	1,532967
3,609167	0,1	1,498751
3,610833	0,1	1,506346
3,612500	0,1	1,500568
3,614167	0,1	1,481848
3,615833	0,1	1,436513
3,617500	0,1	1,476246
3,619167	0,1	1,408217
3,620833	0,1	1,410604
3,622500	0,1	1,417791
3,624167	0,1	1,440411
3,625833	0,1	1,420652
3,627500	0,1	1,406982
3,629167	0,1	1,367993
3,630833	0,1	1,372105
3,632500	0,1	1,388379
3,634167	0,1	1,344350
3,635833	0,1	1,340076
3,637500	0,1	1,344626
3,639167	0,1	1,354331
3,640833	0,1	1,362969
3,642500	0,1	1,355406
3,644167	0,1	1,298406
3,645833	0,1	1,318923
3,647500	0,1	1,328821
3,649167	0,1	1,276986
3,650833	0,1	1,249337
3,652500	0,1	1,265532
3,654167	0,1	1,277024
3,655833	0,1	1,281879
3,657500	0,1	1,251678
3,659167	0,1	1,213941
3,660833	0,1	1,236886
3,662500	0,1	1,226898
3,664167	0,1	1,191525
3,665833	0,1	1,198097
3,667500	0,1	1,202888
3,669167	0,1	1,220480
3,670833	0,1	1,202464
3,672500	0,1	1,201208
3,674167	0,1	1,161176
3,675833	0,1	1,169546
3,677500	0,1	1,202287
3,679167	0,1	1,150286
3,680833	0,1	1,187744
3,682500	0,1	1,131350
3,684167	0,1	1,158185
3,685833	0,1	1,153700
3,687500	0,1	1,133428
3,689167	0,1	1,128334
3,690833	0,1	1,125755
3,692500	0,1	1,095195
3,694167	0,1	1,153820
3,695833	0,1	1,086380
3,697500	0,1	1,076987
3,699167	0,1	1,104120
3,700833	0,1	1,082301
3,702500	0,1	1,109277
3,704167	0,1	1,071614
3,705833	0,1	1,087649
3,707500	0,1	1,098475
3,709167	0,1	1,090390
3,710833	0,1	1,071275
3,712500	0,1	1,104204
3,714167	0,1	1,088014
3,715833	0,1	1,081122
3,717500	0,1	1,050565
3,719167	0,1	1,110666
3,720833	0,1	1,040261
3,722500	0,1	1,047043
3,724167	0,1	1,040380
3,725833	0,1	1,064732
3,727500	0,1	1,089380
3,729167	0,1	1,036678
3,730833	0,1	1,072397
3,732500	0,1	1,067404
3,734167	0,1	1,048184
3,735833	0,1	1,025159
3,737500	0,1	1,053506
3,739167	0,1	1,045313
3,740833	0,1	1,029135
3,742500	0,1	1,034820
3,744167	0,1	1,045222
3,745833	0,1	1,019269
3,747500	0,1	1,052126
3,749167	0,1	1,049757
3,750833	0,1	1,052667
3,752500	0,1	1,028248
3,754167	0,1	1,025775
3,755833	0,1	1,057816
3,757500	0,1	1,058602
3,759167	0,1	1,060292
3,760833	0,1	1,085713
3,762500	0,1	1,057741
3,764167	0,1	1,041270
3,765833	0,1	1,085313
3,767500	0,1	1,071162
3,769167	0,1	1,036296
3,770833	0,1	1,042999
3,772500	0,1	1,023712
3,774167	0,1	1,050461
3,775833	0,1	1,080890
3,777500	0,1	1,043343
3,779167	0,1	1,026069
3,780833	0,1	1,070992
3,782500	0,1	1,034920
3,784167	0,1	1,087085
3,785833	0,1	1,034900
3,787500	0,1	1,060864
3,789167	0,1	1,049492
3,790833	0,1	1,058223
3,792500	0,1	1,027828
3,794167	0,1	1,041574
3,795833	0,1	1,030112
3,797500	0,1	1,033221
3,799167	0,1	1,026821
3,800833	0,1	1,038953
3,802500	0,1	1,040131
3,804167	0,1	1,018046
3,805833	0,1	1,010421
3,807500	0,1	1,082722
3,809167	0,1	1,037300
3,810833	0,1	1,044331
3,812500	0,1	1,076553
3,814167	0,1	1,044230
3,815833	0,1	1,025425
3,817500	0,1	1,049927
3,819167	0,1	1,011628
3,820833	0,1	1,019661
3,822500	0,1	1,011086
3,824167	0,1	0,973871
3,825833	0,1	1,026851
3,827500	0,1	1,020242
3,829167	0,1	1,043195
3,830833	0,1	1,042843
3,832500	0,1	1,038022
3,834167	0,1	1,005869
3,835833	0,1	1,026925
3,837500	0,1	1,014667
3,839167	0,1	1,011707
3,840833	0,1	1,006598
3,842500	0,1	0,954674
3,844167	0,1	0,978721
3,845833	0,1	0,982816
3,847500	0,1	1,014767
3,849167	0,1	0,978424
3,850833	0,1	0,976037
3,852500	0,1	0,975084
3,854167	0,1	1,004523
3,855833	0,1	0,962651
3,857500	0,1	0,918657
3,859167	0,1	0,971271
3,860833	0,1	0,946603
3,862500	0,1	1,004204
3,864167	0,1	0,922461
3,865833	0,1	0,980226
3,867500	0,1	0,953313
3,869167	0,1	0,958128
3,870833	0,1	0,930516
3,872500	0,1	0,908824
3,874167	0,1	0,920197
3,875833	0,1	0,913356
3,877500	0,1	0,926419
3,879167	0,1	0,909739
3,880833	0,1	0,889806
3,882500	0,1	0,917815
3,884167	0,1	0,917954
3,885833	0,1	0,878527
3,887500	0,1	0,888867
3,889167	0,1	0,875210
3,890833	0,1	0,907637
3,892500	0,1	0,877279
3,894167	0,1	0,897373
3,895833	0,1	0,860107
3,897500	0,1	0,860784
3,899167	0,1	0,893999
3,900833	0,1	0,905553
3,902500	0,1	0,890763
3,904167	0,1	0,871974
3,905833	0,1	0,845733
3,907500	0,1	0,863629
3,909167	0,1	0,807416
3,910833	0,1	0,860310
3,912500	0,1	0,802803
3,914167	0,1	0,834254
3,915833	0,1	0,836443
3,917500	0,1	0,816914
3,919167	0,1	0,839857
3,920833	0,1	0,792794
3,922500	0,1	0,835054
3,924167	0,1	0,834999
3,925833	0,1	0,828492
3,927500	0,1	0,837142
3,929167	0,1	0,797842
3,930833	0,1	0,806008
3,932500	0,1	0,794324
3,934167	0,1	0,807004
3,935833	0,1	0,794352
3,937500	0,1	0,768627
3,939167	0,1	0,809799
3,940833	0,1	0,791724
3,942500	0,1	0,807741
3,944167	0,1	0,811201
3,945833	0,1	0,764505
3,947500	0,1	0,795367
3,949167	0,1	0,739295
3,950833	0,1	0,792639
3,952500	0,1	0,744276
3,954167	0,1	0,777605
3,955833	0,1	0,783528
3,957500	0,1	0,799827
3,959167	0,1	0,772007
3,960833	0,1	0,778913
3,962500	0,1	0,745375
3,964167	0,1	0,784940
3,965833	0,1	0,774355
3,967500	0,1	0,755808
3,969167	0,1	0,789766
3,970833	0,1	0,754458
3,972500	0,1	0,791960
3,974167	0,1	0,771755
3,975833	0,1	0,758765
3,977500	0,1	0,746603
3,979167	0,1	0,735456
3,980833	0,1	0,764777
3,982500	0,1	0,797378
3,984167	0,1	0,780154
3,985833	0,1	0,757479
3,987500	0,1	0,771419
3,989167	0,1	0,726094
3,990833	0,1	0,743496
3,992500	0,1	0,761978
3,994167	0,1	0,775309
3,995833	0,1	0,747371
3,997500	0,1	0,744173
3,999167	0,1	0,773085
4,000833	0,1	0,765561
4,002500	0,1	0,743188
4,004167	0,1	0,740858
4,005833	0,1	0,796175
4,007500	0,1	0,726351
4,009167	0,1	0,761527
4,010833	0,1	0,783365
4,012500	0,1	0,734981
4,014167	0,1	0,777879
4,015833	0,1	0,768951
4,017500	0,1	0,803372
4,019167	0,1	0,741451
4,020833	0,1	0,793705
4,022500	0,1	0,750635
4,024167	0,1	0,774440
4,025833	0,1	0,781042
4,027500	0,1	0,811904
4,029167	0,1	0,796639
4,030833	0,1	0,784123
4,032500	0,1	0,806399
4,034167	0,1	0,816090
4,035833	0,1	0,792172
4,037500	0,1	0,819687
4,039167	0,1	0,811757
4,040833	0,1	0,779644
4,042500	0,1	0,838206
4,044167	0,1	0,799196
4,045833	0,1	0,828418
4,047500	0,1	0,847340
4,049167	0,1	0,855876
4,050833	0,1	0,848661
4,052500	0,1	0,892245
4,054167	0,1	0,846028
4,055833	0,1	0,845768
4,057500	0,1	0,891145
4,059167	0,1	0,887853
4,060833	0,1	0,917659
4,062500	0,1	0,915690
4,064167	0,1	0,923173
4,065833	0,1	0,900786
4,067500	0,1	0,927325
4,069167	0,1	0,918022
4,070833	0,1	0,978982
4,072500	0,1	0,980239
4,074167	0,1	0,983062
4,075833	0,1	0,984194
4,077500	0,1	1,021742
4,079167	0,1	0,989736
4,080833	0,1	1,001571
4,082500	0,1	1,028370
4,084167	0,1	1,018777
4,085833	0,1	1,056837
4,087500	0,1	1,067891
4,089167	0,1	1,100292
4,090833	0,1	1,093054
4,092500	0,1	1,102700
4,094167	0,1	1,111416
4,095833	0,1	1,137548
4,097500	0,1	1,127422
4,099167	0,1	1,180495
4,100833	0,1	1,195978
4,102500	0,1	1,195557
4,104167	0,1	1,195895
4,105833	0,1	1,191028
4,107500	0,1	1,273425
4,109167	0,1	1,264554
4,110833	0,1	1,250252
4,112500	0,1	1,264703
4,114167	0,1	1,266844
4,115833	0,1	1,318016
4,117500	0,1	1,337999
4,119167	0,1	1,326451
4,120833	0,1	1,376828
4,122500	0,1	1,368034
4,124167	0,1	1,362160
4,125833	0,1	1,410456
4,127500	0,1	1,381281
4,129167	0,1	1,445684
4,130833	0,1	1,437822
4,132500	0,1	1,462345
4,134167	0,1	1,474812
4,135833	0,1	1,530592
4,137500	0,1	1,494906
4,139167	0,1	1,497973
4,140833	0,1	1,537473
4,142500	0,1	1,533450
4,144167	0,1	1,572102
4,145833	0,1	1,565301
4,147500	0,1	1,594839
4,149167	0,1	1,603234
4,150833	0,1	1,635578
4,152500	0,1	1,650277
4,154167	0,1	1,646331
4,155833	0,1	1,677374
4,157500	0,1	1,660890
4,159167	0,1	1,703279
4,160833	0,1	1,686848
4,162500	0,1	1,693220
4,164167	0,1	1,726440
4,165833	0,1	1,748618
4,167500	0,1	1,752629
4,169167	0,1	1,735543
4,170833	0,1	1,779089
4,172500	0,1	1,763234
4,174167	0,1	1,792791
4,175833	0,1	1,769132
4,177500	0,1	1,811582
4,179167	0,1	1,804063
4,180833	0,1	1,803774
4,182500	0,1	1,850763
4,184167	0,1	1,827746
4,185833	0,1	1,852271
4,187500	0,1	1,832981
4,189167	0,1	1,830977
4,190833	0,1	1,843370
4,192500	0,1	1,867917
4,194167	0,1	1,881551
4,195833	0,1	1,846540
4,197500	0,1	1,850621
4,199167	0,1	1,911956
4,200833	0,1	1,827602
4,202500	0,1	1,877233
4,204167	0,1	1,882774
4,205833	0,1	1,870572
4,207500	0,1	1,909959
4,209167	0,1	1,872523
4,210833	0,1	1,910458
4,212500	0,1	1,871718
4,214167	0,1	1,966923
4,215833	0,1	1,860545
4,217500	0,1	1,880247
4,219167	0,1	1,866193
4,220833	0,1	1,888797
4,222500	0,1	1,914413
4,224167	0,1	1,903144
4,225833	0,1	1,850195
4,227500	0,1	1,900482
4,229167	0,1	1,873095
4,230833	0,1	1,872573
4,232500	0,1	1,884558
4,234167	0,1	1,820788
4,235833	0,1	1,861026
4,237500	0,1	1,846457
4,239167	0,1	1,828742
4,240833	0,1	1,882903
4,242500	0,1	1,827889
4,244167	0,1	1,855788
4,245833	0,1	1,846679
4,247500	0,1	1,831248
4,249167	0,1	1,822001
4,250833	0,1	1,819131
4,252500	0,1	1,840074
4,254167	0,1	1,832684
4,255833	0,1	1,818628
4,257500	0,1	1,819494
4,259167	0,1	1,785844
4,260833	0,1	1,790635
4,262500	0,1	1,738440
4,264167	0,1	1,770909
4,265833	0,1	1,710892
4,267500	0,1	1,789130
4,269167	0,1	1,758314
4,270833	0,1	1,746107
4,272500	0,1	1,715255
4,274167	0,1	1,726951
4,275833	0,1	1,707663
4,277500	0,1	1,727884
4,279167	0,1	1,715983
4,280833	0,1	1,685927
4,282500	0,1	1,666483
4,284167	0,1	1,647912
4,285833	0,1	1,672517
4,287500	0,1	1,673458
4,289167	0,1	1,649065
4,290833	0,1	1,637297
4,292500	0,1	1,628558
4,294167	0,1	1,640666
4,295833	0,1	1,576124
4,297500	0,1	1,601800
4,299167	0,1	1,564376
4,300833	0,1	1,597847
4,302500	0,1	1,568269
4,304167	0,1	1,582443
4,305833	0,1	1,565155
4,307500	0,1	1,492403
4,309167	0,1	1,547080
4,310833	0,1	1,519560
4,312500	0,1	1,496483
4,314167	0,1	1,510255
4,315833	0,1	1,484855
4,317500	0,1	1,485219
4,319167	0,1	1,503019
4,320833	0,1	1,465490
4,322500	0,1	1,465027
4,324167	0,1	1,433259
4,325833	0,1	1,432235
4,327500	0,1	1,419623
4,329167	0,1	1,383119
4,330833	0,1	1,374437
4,332500	0,1	1,374686
4,334167	0,1	1,411241
4,335833	0,1	1,384672
4,337500	0,1	1,374399
4,339167	0,1	1,389959
4,340833	0,1	1,339019
4,342500	0,1	1,350392
4,344167	0,1	1,364394
4,345833	0,1	1,345189
4,347500	0,1	1,315592
4,349167	0,1	1,378845
4,350833	0,1	1,296239
4,352500	0,1	1,317277
4,354167	0,1	1,288759
4,355833	0,1	1,279235
4,357500	0,1	1,273446
4,359167	0,1	1,249014
4,360833	0,1	1,256235
4,362500	0,1	1,234301
4,364167	0,1	1,259677
4,365833	0,1	1,237880
4,367500	0,1	1,224170
4,369167	0,1	1,234090
4,370833	0,1	1,195432
4,372500	0,1	1,200916
4,374167	0,1	1,186651
4,375833	0,1	1,166212
4,377500	0,1	1,169922
4,379167	0,1	1,213516
4,380833	0,1	1,129154
4,382500	0,1	1,183842
4,384167	0,1	1,161392
4,385833	0,1	1,153942
4,387500	0,1	1,106493
4,389167	0,1	1,173640
4,390833	0,1	1,114850
4,392500	0,1	1,106815
4,394167	0,1	1,094191
4,395833	0,1	1,089831
4,397500	0,1	1,101921
4,399167	0,1	1,065989
4,400833	0,1	1,050137
4,402500	0,1	1,101730
4,404167	0,1	1,047658
4,405833	0,1	1,060466
4,407500	0,1	1,083244
4,409167	0,1	1,043143
4,410833	0,1	1,051844
4,412500	0,1	1,042401
4,414167	0,1	0,964967
4,415833	0,1	1,028494
4,417500	0,1	1,029441
4,419167	0,1	0,971785
4,420833	0,1	1,042539
4,422500	0,1	1,001251
4,424167	0,1	0,979201
4,425833	0,1	0,939607
4,427500	0,1	0,976386
4,429167	0,1	0,947403
4,430833	0,1	0,968681
4,432500	0,1	0,938028
4,434167	0,1	0,943354
4,435833	0,1	0,935088
4,437500	0,1	0,931909
4,439167	0,1	0,922937
4,440833	0,1	0,960944
4,442500	0,1	0,885335
4,444167	0,1	0,908953
4,445833	0,1	0,922023
4,447500	0,1	0,896789
4,449167	0,1	0,893007
4,450833	0,1	0,888629
4,452500	0,1	0,899935
4,454167	0,1	0,903406
4,455833	0,1	0,909601
4,457500	0,1	0,863644
4,459167	0,1	0,910457
4,460833	0,1	0,866981
4,462500	0,1	0,835741
4,464167	0,1	0,811366
4,465833	0,1	0,803829
4,467500	0,1	0,840300
4,469167	0,1	0,819082
4,470833	0,1	0,823177
4,472500	0,1	0,838043
4,474167	0,1	0,826519
4,475833	0,1	0,787904
4,477500	0,1	0,787814
4,479167	0,1	0,784937
4,480833	0,1	0,818515
4,482500	0,1	0,746701
4,484167	0,1	0,804063
4,485833	0,1	0,771706
4,487500	0,1	0,754166
4,489167	0,1	0,736867
4,490833	0,1	0,748639
4,492500	0,1	0,761036
4,494167	0,1	0,721901
4,495833	0,1	0,768429
4,497500	0,1	0,741302
4,499167	0,1	0,692342
4,500833	0,1	0,719074
4,502500	0,1	0,727768
4,504167	0,1	0,708240
4,505833	0,1	0,686344
4,507500	0,1	0,731045
4,509167	0,1	0,699375
4,510833	0,1	0,664061
4,512500	0,1	0,650858
4,514167	0,1	0,678661
4,515833	0,1	0,665053
4,517500	0,1	0,676733
4,519167	0,1	0,668662
4,520833	0,1	0,656551
4,522500	0,1	0,641422
4,524167	0,1	0,670102
4,525833	0,1	0,667177
4,527500	0,1	0,643805
4,529167	0,1	0,621942
4,530833	0,1	0,615534
4,532500	0,1	0,633009
4,534167	0,1	0,648015
4,535833	0,1	0,594107
4,537500	0,1	0,594414
4,539167	0,1	0,636996
4,540833	0,1	0,612929
4,542500	0,1	0,616429
4,544167	0,1	0,657631
4,545833	0,1	0,597679
4,547500	0,1	0,574586
4,549167	0,1	0,585174
4,550833	0,1	0,616973
4,552500	0,1	0,605622
4,554167	0,1	0,553285
4,555833	0,1	0,565499
4,557500	0,1	0,547967
4,559167	0,1	0,579083
4,560833	0,1	0,516012
4,562500	0,1	0,574023
4,564167	0,1	0,552473
4,565833	0,1	0,567110
4,567500	0,1	0,505069
4,569167	0,1	0,571960
4,570833	0,1	0,535320
4,572500	0,1	0,504547
4,574167	0,1	0,544862
4,575833	0,1	0,547061
4,577500	0,1	0,546224
4,579167	0,1	0,502588
4,580833	0,1	0,566199
4,582500	0,1	0,514306
4,584167	0,1	0,499329
4,585833	0,1	0,516285
4,587500	0,1	0,499393
4,589167	0,1	0,496141
4,590833	0,1	0,497394
4,592500	0,1	0,503894
4,594167	0,1	0,513742
4,595833	0,1	0,509497
4,597500	0,1	0,515739
4,599167	0,1	0,476419
4,600833	0,1	0,505819
4,602500	0,1	0,450740
4,604167	0,1	0,453399
4,605833	0,1	0,422091
4,607500	0,1	0,484152
4,609167	0,1	0,471906
4,610833	0,1	0,465952
4,612500	0,1	0,474059
4,614167	0,1	0,488798
4,615833	0,1	0,430593
4,617500	0,1	0,448503
4,619167	0,1	0,428397
4,620833	0,1	0,463399
4,622500	0,1	0,420262
4,624167	0,1	0,449916
4,625833	0,1	0,434960
4,627500	0,1	0,447797
4,629167	0,1	0,446544
4,630833	0,1	0,435862
4,632500	0,1	0,418034
4,634167	0,1	0,420187
4,635833	0,1	0,443385
4,637500	0,1	0,427688
4,639167	0,1	0,392139
4,640833	0,1	0,435205
4,642500	0,1	0,376983
4,644167	0,1	0,436587
4,645833	0,1	0,418002
4,647500	0,1	0,383221
4,649167	0,1	0,456857
4,650833	0,1	0,409002
4,652500	0,1	0,440357
4,654167	0,1	0,417040
4,655833	0,1	0,397184
4,657500	0,1	0,349154
4,659167	0,1	0,394881
4,660833	0,1	0,389070
4,662500	0,1	0,354970
4,664167	0,1	0,371886
4,665833	0,1	0,387553
4,667500	0,1	0,378805
4,669167	0,1	0,362560
4,670833	0,1	0,353161
4,672500	0,1	0,372911
4,674167	0,1	0,378191
4,675833	0,1	0,362363
4,677500	0,1	0,397299
4,679167	0,1	0,369417
4,680833	0,1	0,388520
4,682500	0,1	0,342139
4,684167	0,1	0,342926
4,685833	0,1	0,361908
4,687500	0,1	0,368155
4,689167	0,1	0,357702
4,690833	0,1	0,342386
4,692500	0,1	0,355829
4,694167	0,1	0,372917
4,695833	0,1	0,349339
4,697500	0,1	0,323212
4,699167	0,1	0,350162
4,700833	0,1	0,366222
4,702500	0,1	0,313121
4,704167	0,1	0,344148
4,705833	0,1	0,345245
4,707500	0,1	0,343154
4,709167	0,1	0,368893
4,710833	0,1	0,336371
4,712500	0,1	0,322827
4,714167	0,1	0,322144
4,715833	0,1	0,327742
4,717500	0,1	0,332602
4,719167	0,1	0,279816
4,720833	0,1	0,307692
4,722500	0,1	0,322465
4,724167	0,1	0,346329
4,725833	0,1	0,319613
4,727500	0,1	0,291747
4,729167	0,1	0,353341
4,730833	0,1	0,286228
4,732500	0,1	0,333815
4,734167	0,1	0,306029
4,735833	0,1	0,283254
4,737500	0,1	0,306695
4,739167	0,1	0,296509
4,740833	0,1	0,317832
4,742500	0,1	0,295153
4,744167	0,1	0,322237
4,745833	0,1	0,292353
4,747500	0,1	0,277750
4,749167	0,1	0,313579
4,750833	0,1	0,293548
4,752500	0,1	0,310404
4,754167	0,1	0,313878
4,755833	0,1	0,288656
4,757500	0,1	0,321040
4,759167	0,1	0,331086
4,760833	0,1	0,278631
4,762500	0,1	0,312965
4,764167	0,1	0,298149
4,765833	0,1	0,302648
4,767500	0,1	0,304934
4,769167	0,1	0,294189
4,770833	0,1	0,323423
4,772500	0,1	0,301659
4,774167	0,1	0,324330
4,775833	0,1	0,294736
4,777500	0,1	0,316029
4,779167	0,1	0,287569
4,780833	0,1	0,256143
4,782500	0,1	0,290898
4,784167	0,1	0,292392
4,785833	0,1	0,271571
4,787500	0,1	0,280419
4,789167	0,1	0,272991
4,790833	0,1	0,304119
4,792500	0,1	0,280744
4,794167	0,1	0,281518
4,795833	0,1	0,270257
4,797500	0,1	0,315735
4,799167	0,1	0,266821
4,800833	0,1	0,284468
4,802500	0,1	0,269903
4,804167	0,1	0,271531
4,805833	0,1	0,280229
4,807500	0,1	0,315991
4,809167	0,1	0,297189
4,810833	0,1	0,295990
4,812500	0,1	0,282935
4,814167	0,1	0,254645
4,815833	0,1	0,326828
4,817500	0,1	0,290598
4,819167	0,1	0,260801
4,820833	0,1	0,313096
4,822500	0,1	0,277945
4,824167	0,1	0,275690
4,825833	0,1	0,289688
4,827500	0,1	0,252084
4,829167	0,1	0,324636
4,830833	0,1	0,281528
4,832500	0,1	0,299338
4,834167	0,1	0,253601
4,835833	0,1	0,307432
4,837500	0,1	0,281388
4,839167	0,1	0,287624
4,840833	0,1	0,268002
4,842500	0,1	0,277266
4,844167	0,1	0,271831
4,845833	0,1	0,252877
4,847500	0,1	0,295815
4,849167	0,1	0,314362
4,850833	0,1	0,244234
4,852500	0,1	0,269513
4,854167	0,1	0,255017
4,855833	0,1	0,280958
4,857500	0,1	0,281544
4,859167	0,1	0,283030
4,860833	0,1	0,311976
4,862500	0,1	0,263161
4,864167	0,1	0,297468
4,865833	0,1	0,320244
4,867500	0,1	0,297282
4,869167	0,1	0,263965
4,870833	0,1	0,292639
4,872500	0,1	0,267560
4,874167	0,1	0,277618
4,875833	0,1	0,296438
4,877500	0,1	0,300980
4,879167	0,1	0,280588
4,880833	0,1	0,272548
4,882500	0,1	0,303484
4,884167	0,1	0,235491
4,885833	0,1	0,271342
4,887500	0,1	0,289459
4,889167	0,1	0,268808
4,890833	0,1	0,315253
4,892500	0,1	0,299119
4,894167	0,1	0,334136
4,895833	0,1	0,272614
4,897500	0,1	0,248221
4,899167	0,1	0,266035
4,900833	0,1	0,317338
4,902500	0,1	0,305933
4,904167	0,1	0,261673
4,905833	0,1	0,310486
4,907500	0,1	0,288047
4,909167	0,1	0,276881
4,910833	0,1	0,296303
4,912500	0,1	0,297920
4,914167	0,1	0,319927
4,915833	0,1	0,282649
4,917500	0,1	0,283892
4,919167	0,1	0,293414
4,920833	0,1	0,328995
4,922500	0,1	0,260546
4,924167	0,1	0,259152
4,925833	0,1	0,321840
4,927500	0,1	0,325595
4,929167	0,1	0,293395
4,930833	0,1	0,254822
4,932500	0,1	0,313801
4,934167	0,1	0,286345
4,935833	0,1	0,305282
4,937500	0,1	0,294614
4,939167	0,1	0,298817
4,940833	0,1	0,275052
4,942500	0,1	0,310010
4,944167	0,1	0,294162
4,945833	0,1	0,267069
4,947500	0,1	0,299064
4,949167	0,1	0,293092
4,950833	0,1	0,292130
4,952500	0,1	0,300039
4,954167	0,1	0,346591
4,955833	0,1	0,331708
4,957500	0,1	0,298543
4,959167	0,1	0,341635
4,960833	0,1	0,302151
4,962500	0,1	0,310242
4,964167	0,1	0,304745
4,965833	0,1	0,327293
4,967500	0,1	0,274644
4,969167	0,1	0,288266
4,970833	0,1	0,323874
4,972500	0,1	0,301042
4,974167	0,1	0,325074
4,975833	0,1	0,290588
4,977500	0,1	0,301977
4,979167	0,1	0,351025
4,980833	0,1	0,323373
4,982500	0,1	0,331052
4,984167	0,1	0,331698
4,985833	0,1	0,330864
4,987500	0,1	0,304107
4,989167	0,1	0,325965
4,990833	0,1	0,318576
4,992500	0,1	0,329028
4,994167	0,1	0,336171
4,995833	0,1	0,350969
4,997500	0,1	0,326945
4,999167	0,1	0,369561
5,000833	0,1	0,306978
5,002500	0,1	0,338930
5,004167	0,1	0,363646
5,005833	0,1	0,354001
5,007500	0,1	0,385751
5,009167	0,1	0,318852
5,010833	0,1	0,340390
5,012500	0,1	0,375934
5,014167	0,1	0,359512
5,015833	0,1	0,355126
5,017500	0,1	0,372657
5,019167	0,1	0,353615
5,020833	0,1	0,369631
5,022500	0,1	0,389743
5,024167	0,1	0,352396
5,025833	0,1	0,347786
5,027500	0,1	0,374041
5,029167	0,1	0,398657
5,030833	0,1	0,407382
5,032500	0,1	0,354910
5,034167	0,1	0,369759
5,035833	0,1	0,395921
5,037500	0,1	0,375334
5,039167	0,1	0,377004
5,040833	0,1	0,451611
5,042500	0,1	0,367500
5,044167	0,1	0,383725
5,045833	0,1	0,400265
5,047500	0,1	0,430609
5,049167	0,1	0,442714
5,050833	0,1	0,367689
5,052500	0,1	0,403670
5,054167	0,1	0,430802
5,055833	0,1	0,457608
5,057500	0,1	0,413215
5,059167	0,1	0,410023
5,060833	0,1	0,436112
5,062500	0,1	0,428944
5,064167	0,1	0,433059
5,065833	0,1	0,412566
5,067500	0,1	0,414040
5,069167	0,1	0,431542
5,070833	0,1	0,484154
5,072500	0,1	0,425770
5,074167	0,1	0,442807
5,075833	0,1	0,425725
5,077500	0,1	0,432191
5,079167	0,1	0,443484
5,080833	0,1	0,415561
5,082500	0,1	0,469029
5,084167	0,1	0,435224
5,085833	0,1	0,449823
5,087500	0,1	0,454750
5,089167	0,1	0,436024
5,090833	0,1	0,446766
5,092500	0,1	0,493039
5,094167	0,1	0,456593
5,095833	0,1	0,477210
5,097500	0,1	0,471325
5,099167	0,1	0,442110
5,100833	0,1	0,425693
5,102500	0,1	0,448660
5,104167	0,1	0,450211
5,105833	0,1	0,483804
5,107500	0,1	0,460035
5,109167	0,1	0,483775
5,110833	0,1	0,465762
5,112500	0,1	0,423705
5,114167	0,1	0,456288
5,115833	0,1	0,488439
5,117500	0,1	0,491342
5,119167	0,1	0,472422
5,120833	0,1	0,459999
5,122500	0,1	0,489310
5,124167	0,1	0,493981
5,125833	0,1	0,521044
5,127500	0,1	0,476806
5,129167	0,1	0,457940
5,130833	0,1	0,465272
5,132500	0,1	0,491949
5,134167	0,1	0,461067
5,135833	0,1	0,458550
5,137500	0,1	0,466945
5,139167	0,1	0,472674
5,140833	0,1	0,508941
5,142500	0,1	0,469693
5,144167	0,1	0,456493
5,145833	0,1	0,455233
5,147500	0,1	0,478047
5,149167	0,1	0,460322
5,150833	0,1	0,456392
5,152500	0,1	0,457905
5,154167	0,1	0,414179
5,155833	0,1	0,431155
5,157500	0,1	0,467101
5,159167	0,1	0,504564
5,160833	0,1	0,455438
5,162500	0,1	0,451309
5,164167	0,1	0,433094
5,165833	0,1	0,483928
5,167500	0,1	0,390989
5,169167	0,1	0,516065
5,170833	0,1	0,436428
5,172500	0,1	0,445351
5,174167	0,1	0,412860
5,175833	0,1	0,447115
5,177500	0,1	0,432837
5,179167	0,1	0,445801
5,180833	0,1	0,390757
5,182500	0,1	0,424522
5,184167	0,1	0,425080
5,185833	0,1	0,418999
5,187500	0,1	0,434859
5,189167	0,1	0,410280
5,190833	0,1	0,433730
5,192500	0,1	0,438948
5,194167	0,1	0,414434
5,195833	0,1	0,398889
5,197500	0,1	0,401812
5,199167	0,1	0,404262
5,200833	0,1	0,386726
5,202500	0,1	0,374822
5,204167	0,1	0,374974
5,205833	0,1	0,399364
5,207500	0,1	0,398727
5,209167	0,1	0,405643
5,210833	0,1	0,377433
5,212500	0,1	0,441316
5,214167	0,1	0,400698
5,215833	0,1	0,362953
5,217500	0,1	0,376263
5,219167	0,1	0,382795
5,220833	0,1	0,365267
5,222500	0,1	0,351458
5,224167	0,1	0,381763
5,225833	0,1	0,361210
5,227500	0,1	0,363426
5,229167	0,1	0,346663
5,230833	0,1	0,366836
5,232500	0,1	0,309905
5,234167	0,1	0,327833
5,235833	0,1	0,321827
5,237500	0,1	0,347622
5,239167	0,1	0,358634
5,240833	0,1	0,337756
5,242500	0,1	0,326332
5,244167	0,1	0,328423
5,245833	0,1	0,292110
5,247500	0,1	0,349290
5,249167	0,1	0,308360
5,250833	0,1	0,310733
5,252500	0,1	0,314458
5,254167	0,1	0,362262
5,255833	0,1	0,314399
5,257500	0,1	0,295097
5,259167	0,1	0,318568
5,260833	0,1	0,290757
5,262500	0,1	0,282734
5,264167	0,1	0,332752
5,265833	0,1	0,268438
5,267500	0,1	0,281541
5,269167	0,1	0,268679
5,270833	0,1	0,294253
5,272500	0,1	0,296532
5,274167	0,1	0,307794
5,275833	0,1	0,291715
5,277500	0,1	0,281039
5,279167	0,1	0,241664
5,280833	0,1	0,289807
5,282500	0,1	0,228992
5,284167	0,1	0,288679
5,285833	0,1	0,274796
5,287500	0,1	0,272854
5,289167	0,1	0,259257
5,290833	0,1	0,284792
5,292500	0,1	0,287914
5,294167	0,1	0,281672
5,295833	0,1	0,297988
5,297500	0,1	0,269263
5,299167	0,1	0,239352
5,300833	0,1	0,254493
5,302500	0,1	0,243071
5,304167	0,1	0,222624
5,305833	0,1	0,274682
5,307500	0,1	0,273769
5,309167	0,1	0,211951
5,310833	0,1	0,204471
5,312500	0,1	0,256513
5,314167	0,1	0,221242
5,315833	0,1	0,270477
5,317500	0,1	0,243792
5,319167	0,1	0,182966
5,320833	0,1	0,246860
5,322500	0,1	0,230496
5,324167	0,1	0,229344
5,325833	0,1	0,215826
5,327500	0,1	0,189882
5,329167	0,1	0,221743
5,330833	0,1	0,184247
5,332500	0,1	0,205826
5,334167	0,1	0,242237
5,335833	0,1	0,174480
5,337500	0,1	0,174086
5,339167	0,1	0,208044
5,340833	0,1	0,197043
5,342500	0,1	0,215803
5,344167	0,1	0,151323
5,345833	0,1	0,153071
5,347500	0,1	0,196135
5,349167	0,1	0,190483
5,350833	0,1	0,182324
5,352500	0,1	0,191349
5,354167	0,1	0,169714
5,355833	0,1	0,181865
5,357500	0,1	0,143159
5,359167	0,1	0,208010
5,360833	0,1	0,193801
5,362500	0,1	0,187784
5,364167	0,1	0,185234
5,365833	0,1	0,161024
5,367500	0,1	0,218520
5,369167	0,1	0,172747
5,370833	0,1	0,211939
5,372500	0,1	0,167979
5,374167	0,1	0,203829
5,375833	0,1	0,167208
5,377500	0,1	0,147365
5,379167	0,1	0,201832
5,380833	0,1	0,173512
5,382500	0,1	0,160833
5,384167	0,1	0,130378
5,385833	0,1	0,176545
5,387500	0,1	0,163140
5,389167	0,1	0,159519
5,390833	0,1	0,174082
5,392500	0,1	0,158841
5,394167	0,1	0,176817
5,395833	0,1	0,153280
5,397500	0,1	0,153503
5,399167	0,1	0,142619
5,400833	0,1	0,141989
5,402500	0,1	0,134069
5,404167	0,1	0,126931
5,405833	0,1	0,154491
5,407500	0,1	0,133429
5,409167	0,1	0,141783
5,410833	0,1	0,128445
5,412500	0,1	0,175815
5,414167	0,1	0,121358
5,415833	0,1	0,130017
5,417500	0,1	0,188034
5,419167	0,1	0,147887
5,420833	0,1	0,127326
5,422500	0,1	0,132629
5,424167	0,1	0,145593
5,425833	0,1	0,163624
5,427500	0,1	0,153191
5,429167	0,1	0,134338
5,430833	0,1	0,153827
5,432500	0,1	0,149253
5,434167	0,1	0,128886
5,435833	0,1	0,122883
5,437500	0,1	0,145011
5,439167	0,1	0,119067
5,440833	0,1	0,181057
5,442500	0,1	0,100971
5,444167	0,1	0,111883
5,445833	0,1	0,143722
5,447500	0,1	0,092934
5,449167	0,1	0,116883
5,450833	0,1	0,136610
5,452500	0,1	0,129833
5,454167	0,1	0,118900
5,455833	0,1	0,122363
5,457500	0,1	0,130676
5,459167	0,1	0,075861
5,460833	0,1	0,156700
5,462500	0,1	0,110861
5,464167	0,1	0,139158
5,465833	0,1	0,097392
5,467500	0,1	0,099273
5,469167	0,1	0,162201
5,470833	0,1	0,121668
5,472500	0,1	0,102055
5,474167	0,1	0,096326
5,475833	0,1	0,077656
5,477500	0,1	0,090534
5,479167	0,1	0,087010
5,480833	0,1	0,107253
5,482500	0,1	0,101079
5,484167	0,1	0,063308
5,485833	0,1	0,092835
5,487500	0,1	0,069279
5,489167	0,1	0,102231
5,490833	0,1	0,128946
5,492500	0,1	0,081483
5,494167	0,1	0,131143
5,495833	0,1	0,098262
5,497500	0,1	0,096222
5,499167	0,1	0,101218
5,500833	0,1	0,060031
5,502500	0,1	0,099302
5,504167	0,1	0,109640
5,505833	0,1	0,103134
5,507500	0,1	0,081539
5,509167	0,1	0,066705
5,510833	0,1	0,096255
5,512500	0,1	0,087800
5,514167	0,1	0,052854
5,515833	0,1	0,068481
5,517500	0,1	0,066639
5,519167	0,1	0,114297
5,520833	0,1	0,077910
5,522500	0,1	0,063882
5,524167	0,1	0,054235
5,525833	0,1	0,069561
5,527500	0,1	0,082275
5,529167	0,1	0,057642
5,530833	0,1	0,093619
5,532500	0,1	0,090764
5,534167	0,1	0,080500
5,535833	0,1	0,101879
5,537500	0,1	0,066067
5,539167	0,1	0,104903
5,540833	0,1	0,071273
5,542500	0,1	0,117224
5,544167	0,1	0,047426
5,545833	0,1	0,072007
5,547500	0,1	0,084371
5,549167	0,1	0,080850
5,550833	0,1	0,072821
5,552500	0,1	0,041278
5,554167	0,1	0,071339
5,555833	0,1	0,093001
5,557500	0,1	0,074464
5,559167	0,1	0,076222
5,560833	0,1	0,096108
5,562500	0,1	0,072307
5,564167	0,1	0,079704
5,565833	0,1	0,118245
5,567500	0,1	0,065532
5,569167	0,1	0,081631
5,570833	0,1	0,074295
5,572500	0,1	0,037877
5,574167	0,1	0,095894
5,575833	0,1	0,073179
5,577500	0,1	0,071888
5,579167	0,1	0,098328
5,580833	0,1	0,055222
5,582500	0,1	0,054296
5,584167	0,1	0,062364
5,585833	0,1	0,088578
5,587500	0,1	0,083298
5,589167	0,1	0,101942
5,590833	0,1	0,063225
5,592500	0,1	0,082878
5,594167	0,1	0,072822
5,595833	0,1	0,092775
5,597500	0,1	0,063118
5,599167	0,1	0,043306
5,600833	0,1	0,069660
5,602500	0,1	0,061889
5,604167	0,1	0,058116
5,605833	0,1	0,045981
5,607500	0,1	0,106576
5,609167	0,1	0,081040
5,610833	0,1	0,062577
5,612500	0,1	0,061057
5,614167	0,1	0,130558
5,615833	0,1	0,066030
5,617500	0,1	0,068091
5,619167	0,1	0,102269
5,620833	0,1	0,046303
5,622500	0,1	0,075197
5,624167	0,1	0,074585
5,625833	0,1	0,072570
5,627500	0,1	0,110190
5,629167	0,1	0,061631
5,630833	0,1	0,073397
5,632500	0,1	0,096939
5,634167	0,1	0,087904
5,635833	0,1	0,063015
5,637500	0,1	0,062947
5,639167	0,1	0,076425
5,640833	0,1	0,093748
5,642500	0,1	0,062311
5,644167	0,1	0,057824
5,645833	0,1	0,068732
5,647500	0,1	0,066514
5,649167	0,1	0,075845
5,650833	0,1	0,097645
5,652500	0,1	0,058432
5,654167	0,1	0,080326
5,655833	0,1	0,093624
5,657500	0,1	0,096717
5,659167	0,1	0,056234
5,660833	0,1	0,086898
5,662500	0,1	0,060256
5,664167	0,1	0,103553
5,665833	0,1	0,086659
5,667500	0,1	0,081330
5,669167	0,1	0,053245
5,670833	0,1	0,051537
5,672500	0,1	0,065266
5,674167	0,1	0,098764
5,675833	0,1	0,050098
5,677500	0,1	0,096603
5,679167	0,1	0,098606
5,680833	0,1	0,124075
5,682500	0,1	0,084405
5,684167	0,1	0,110672
5,685833	0,1	0,114144
5,687500	0,1	0,052155
5,689167	0,1	0,103346
5,690833	0,1	0,078905
5,692500	0,1	0,111665
5,694167	0,1	0,092430
5,695833	0,1	0,094872
5,697500	0,1	0,095244
5,699167	0,1	0,162100
5,700833	0,1	0,103664
5,702500	0,1	0,074032
5,704167	0,1	0,106896
5,705833	0,1	0,119826
5,707500	0,1	0,096974
5,709167	0,1	0,105782
5,710833	0,1	0,080025
5,712500	0,1	0,059820
5,714167	0,1	0,117785
5,715833	0,1	0,079840
5,717500	0,1	0,106563
5,719167	0,1	0,116072
5,720833	0,1	0,108443
5,722500	0,1	0,054351
5,724167	0,1	0,075181
5,725833	0,1	0,088605
5,727500	0,1	0,108807
5,729167	0,1	0,075798
5,730833	0,1	0,096963
5,732500	0,1	0,104392
5,734167	0,1	0,095809
5,735833	0,1	0,061958
5,737500	0,1	0,103515
5,739167	0,1	0,088942
5,740833	0,1	0,094912
5,742500	0,1	0,106925
5,744167	0,1	0,080272
5,745833	0,1	0,099599
5,747500	0,1	0,129940
5,749167	0,1	0,151403
5,750833	0,1	0,077982
5,752500	0,1	0,095386
5,754167	0,1	0,146845
5,755833	0,1	0,104758
5,757500	0,1	0,102858
5,759167	0,1	0,076127
5,760833	0,1	0,104888
5,762500	0,1	0,107195
5,764167	0,1	0,119930
5,765833	0,1	0,070033
5,767500	0,1	0,156964
5,769167	0,1	0,115980
5,770833	0,1	0,099771
5,772500	0,1	0,081041
5,774167	0,1	0,119092
5,775833	0,1	0,110827
5,777500	0,1	0,138804
5,779167	0,1	0,108301
5,780833	0,1	0,094587
5,782500	0,1	0,139671
5,784167	0,1	0,121512
5,785833	0,1	0,081025
5,787500	0,1	0,097482
5,789167	0,1	0,103687
5,790833	0,1	0,143092
5,792500	0,1	0,104153
5,794167	0,1	0,134467
5,795833	0,1	0,083788
5,797500	0,1	0,104594
5,799167	0,1	0,123935
5,800833	0,1	0,112406
5,802500	0,1	0,109039
5,804167	0,1	0,106866
5,805833	0,1	0,105079
5,807500	0,1	0,139900
5,809167	0,1	0,128359
5,810833	0,1	0,111347
5,812500	0,1	0,115201
5,814167	0,1	0,093546
5,815833	0,1	0,111693
5,817500	0,1	0,114825
5,819167	0,1	0,115720
5,820833	0,1	0,128078
5,822500	0,1	0,118624
5,824167	0,1	0,095107
5,825833	0,1	0,132558
5,827500	0,1	0,093596
5,829167	0,1	0,135522
5,830833	0,1	0,076653
5,832500	0,1	0,085679
5,834167	0,1	0,101175
5,835833	0,1	0,124138
5,837500	0,1	0,111183
5,839167	0,1	0,106758
5,840833	0,1	0,114949
5,842500	0,1	0,065633
5,844167	0,1	0,123298
5,845833	0,1	0,123312
5,847500	0,1	0,073311
5,849167	0,1	0,114652
5,850833	0,1	0,112671
5,852500	0,1	0,099168
5,854167	0,1	0,095950
5,855833	0,1	0,070295
5,857500	0,1	0,091050
5,859167	0,1	0,099476
5,860833	0,1	0,074880
5,862500	0,1	0,110629
5,864167	0,1	0,051363
5,865833	0,1	0,100707
5,867500	0,1	0,091388
5,869167	0,1	0,097047
5,870833	0,1	0,133986
5,872500	0,1	0,063420
5,874167	0,1	0,092248
5,875833	0,1	0,087737
5,877500	0,1	0,086530
5,879167	0,1	0,120026
5,880833	0,1	0,079135
5,882500	0,1	0,126846
5,884167	0,1	0,118978
5,885833	0,1	0,076462
5,887500	0,1	0,054694
5,889167	0,1	0,114147
5,890833	0,1	0,086310
5,892500	0,1	0,121211
5,894167	0,1	0,067998
5,895833	0,1	0,062243
5,897500	0,1	0,082023
5,899167	0,1	0,078733
5,900833	0,1	0,083563
5,902500	0,1	0,114756
5,904167	0,1	0,050721
5,905833	0,1	0,110122
5,907500	0,1	0,044521
5,909167	0,1	0,089341
5,910833	0,1	0,104807
5,912500	0,1	0,083775
5,914167	0,1	0,077778
5,915833	0,1	0,056771
5,917500	0,1	0,103097
5,919167	0,1	0,110777
5,920833	0,1	0,066587
5,922500	0,1	0,068752
5,924167	0,1	0,098286
5,925833	0,1	0,069236
5,927500	0,1	0,067095
5,929167	0,1	0,056912
5,930833	0,1	0,090734
5,932500	0,1	0,061874
5,934167	0,1	0,080345
5,935833	0,1	0,100242
5,937500	0,1	0,034088
5,939167	0,1	0,076087
5,940833	0,1	0,057802
5,942500	0,1	0,083621
5,944167	0,1	0,071578
5,945833	0,1	0,052702
5,947500	0,1	0,002223
5,949167	0,1	0,095096
5,950833	0,1	0,039270
5,952500	0,1	0,026566
5,954167	0,1	0,038361
5,955833	0,1	0,030547
5,957500	0,1	0,067479
5,959167	0,1	0,041608
5,960833	0,1	0,068541
5,962500	0,1	0,066577
5,964167	0,1	0,037459
5,965833	0,1	0,028452
5,967500	0,1	0,066671
5,969167	0,1	0,047206
5,970833	0,1	0,035981
5,972500	0,1	0,056324
5,974167	0,1	0,076072
5,975833	0,1	0,038914
5,977500	0,1	0,077312
5,979167	0,1	0,051004
5,980833	0,1	0,025263
5,982500	0,1	0,032866
5,984167	0,1	0,017938
5,985833	0,1	0,042921
5,987500	0,1	0,031231
5,989167	0,1	0,011425
5,990833	0,1	0,077118
5,992500	0,1	0,043539
5,994167	0,1	0,069577
5,995833	0,1	0,017614
5,997500	0,1	0,039582
5,999167	0,1	0,043300
6,000833	0,1	0,057487
