File Path	chrom://chromeleon01/ikbm_chromeleon/2022/Rezex/Esteban/220612_chitin_4_7.seq/472.smp/UV_VIS_1.channel/UV_VIS_1.chm
Channel	UV_VIS_1

Injection Information:
Data Vault	ikbm_chromeleon
Injection	7_06h-ChiBS_1
Injection Number	62
Position	GA7
Comment	
Processing Method	New ProcMethod
Instrument Method	Short_Rezex_6min_194nm
Type	Unknown
Status	Finished
Injection Date	12.06.2022
Injection Time	23:48:43
Injection Volume (µl)	8,000
Dilution Factor	1,0000
Weight	1,0000

Chromatogram Data Information:
Time Min. (min)	0,000833
Time Max. (min)	6,000833
Data Points	3601
Detector	UV
Generating Data System	Chromeleon 7.2.9.11323
Exporting Data System	Chromeleon 7.2.9.0
Operator	Instrument Controller
Signal Quantity	Absorbance
Signal Unit	mAU
Signal Min.	-0,199996
Signal Max.	109,456523
Channel	UV_VIS_1
Driver Name	VWD3000.dll
Channel Type	Evaluation
Min. Step (s)	0,1
Max. Step (s)	0,1
Average Step (s)	0,1

Signal Parameter Information:
Signal Info	WVL:194 nm

Chromatogram Data:
Time (min)	Step (s)	Value (mAU)
0,000833	n.a.	-0,101847
0,002500	0,1	-0,152656
0,004167	0,1	-0,092782
0,005833	0,1	-0,115575
0,007500	0,1	-0,117324
0,009167	0,1	-0,122008
0,010833	0,1	-0,120813
0,012500	0,1	-0,106732
0,014167	0,1	-0,122067
0,015833	0,1	-0,126174
0,017500	0,1	-0,111664
0,019167	0,1	-0,112303
0,020833	0,1	-0,112655
0,022500	0,1	-0,083789
0,024167	0,1	-0,150081
0,025833	0,1	-0,143044
0,027500	0,1	-0,129525
0,029167	0,1	-0,132859
0,030833	0,1	-0,117513
0,032500	0,1	-0,131235
0,034167	0,1	-0,134437
0,035833	0,1	-0,176110
0,037500	0,1	-0,134525
0,039167	0,1	-0,174780
0,040833	0,1	-0,155844
0,042500	0,1	-0,131721
0,044167	0,1	-0,167403
0,045833	0,1	-0,132517
0,047500	0,1	-0,156643
0,049167	0,1	-0,179314
0,050833	0,1	-0,133012
0,052500	0,1	-0,102666
0,054167	0,1	-0,139527
0,055833	0,1	-0,126329
0,057500	0,1	-0,109947
0,059167	0,1	-0,154420
0,060833	0,1	-0,116275
0,062500	0,1	-0,137799
0,064167	0,1	-0,149681
0,065833	0,1	-0,168845
0,067500	0,1	-0,121528
0,069167	0,1	-0,137787
0,070833	0,1	-0,112599
0,072500	0,1	-0,115684
0,074167	0,1	-0,144841
0,075833	0,1	-0,131808
0,077500	0,1	-0,142548
0,079167	0,1	-0,115860
0,080833	0,1	-0,127440
0,082500	0,1	-0,120725
0,084167	0,1	-0,118072
0,085833	0,1	-0,129811
0,087500	0,1	-0,125622
0,089167	0,1	-0,117219
0,090833	0,1	-0,124457
0,092500	0,1	-0,120355
0,094167	0,1	-0,132857
0,095833	0,1	-0,132632
0,097500	0,1	-0,140284
0,099167	0,1	-0,099285
0,100833	0,1	-0,088347
0,102500	0,1	-0,097221
0,104167	0,1	-0,126519
0,105833	0,1	-0,169850
0,107500	0,1	-0,165361
0,109167	0,1	-0,135519
0,110833	0,1	-0,134515
0,112500	0,1	-0,152512
0,114167	0,1	-0,138163
0,115833	0,1	-0,165000
0,117500	0,1	-0,129795
0,119167	0,1	-0,138248
0,120833	0,1	-0,155146
0,122500	0,1	-0,133296
0,124167	0,1	-0,138021
0,125833	0,1	-0,137988
0,127500	0,1	-0,147768
0,129167	0,1	-0,163565
0,130833	0,1	-0,122829
0,132500	0,1	-0,199996
0,134167	0,1	-0,144692
0,135833	0,1	-0,191415
0,137500	0,1	-0,137207
0,139167	0,1	-0,165000
0,140833	0,1	-0,139391
0,142500	0,1	-0,096133
0,144167	0,1	-0,149625
0,145833	0,1	-0,142155
0,147500	0,1	-0,157764
0,149167	0,1	-0,123258
0,150833	0,1	-0,109797
0,152500	0,1	-0,136191
0,154167	0,1	-0,113611
0,155833	0,1	-0,133455
0,157500	0,1	-0,123526
0,159167	0,1	-0,155004
0,160833	0,1	-0,111548
0,162500	0,1	-0,142912
0,164167	0,1	-0,152348
0,165833	0,1	-0,100450
0,167500	0,1	-0,125280
0,169167	0,1	-0,132418
0,170833	0,1	-0,130368
0,172500	0,1	-0,113840
0,174167	0,1	-0,103551
0,175833	0,1	-0,127606
0,177500	0,1	-0,137130
0,179167	0,1	-0,118261
0,180833	0,1	-0,140877
0,182500	0,1	-0,155193
0,184167	0,1	-0,111644
0,185833	0,1	-0,114583
0,187500	0,1	-0,128525
0,189167	0,1	-0,099679
0,190833	0,1	-0,115469
0,192500	0,1	-0,168103
0,194167	0,1	-0,127788
0,195833	0,1	-0,130930
0,197500	0,1	-0,155480
0,199167	0,1	-0,132425
0,200833	0,1	-0,138389
0,202500	0,1	-0,109985
0,204167	0,1	-0,113816
0,205833	0,1	-0,137312
0,207500	0,1	-0,133427
0,209167	0,1	-0,145626
0,210833	0,1	-0,116396
0,212500	0,1	-0,115227
0,214167	0,1	-0,094552
0,215833	0,1	-0,134382
0,217500	0,1	-0,154029
0,219167	0,1	-0,148476
0,220833	0,1	-0,117471
0,222500	0,1	-0,107840
0,224167	0,1	-0,104712
0,225833	0,1	-0,106436
0,227500	0,1	-0,095465
0,229167	0,1	-0,119740
0,230833	0,1	-0,131817
0,232500	0,1	-0,091923
0,234167	0,1	-0,125813
0,235833	0,1	-0,134313
0,237500	0,1	-0,126389
0,239167	0,1	-0,116330
0,240833	0,1	-0,109441
0,242500	0,1	-0,093739
0,244167	0,1	-0,150375
0,245833	0,1	-0,110200
0,247500	0,1	-0,125467
0,249167	0,1	-0,126464
0,250833	0,1	-0,138554
0,252500	0,1	-0,141113
0,254167	0,1	-0,135495
0,255833	0,1	-0,109200
0,257500	0,1	-0,117753
0,259167	0,1	-0,116955
0,260833	0,1	-0,140772
0,262500	0,1	-0,167925
0,264167	0,1	-0,143186
0,265833	0,1	-0,090013
0,267500	0,1	-0,145890
0,269167	0,1	-0,113887
0,270833	0,1	-0,131570
0,272500	0,1	-0,089887
0,274167	0,1	-0,126545
0,275833	0,1	-0,155663
0,277500	0,1	-0,126333
0,279167	0,1	-0,098789
0,280833	0,1	-0,152153
0,282500	0,1	-0,104907
0,284167	0,1	-0,103637
0,285833	0,1	-0,098010
0,287500	0,1	-0,127955
0,289167	0,1	-0,097477
0,290833	0,1	-0,133020
0,292500	0,1	-0,139088
0,294167	0,1	-0,107853
0,295833	0,1	-0,106410
0,297500	0,1	-0,125263
0,299167	0,1	-0,134787
0,300833	0,1	-0,090576
0,302500	0,1	-0,120867
0,304167	0,1	-0,118549
0,305833	0,1	-0,116682
0,307500	0,1	-0,104176
0,309167	0,1	-0,122067
0,310833	0,1	-0,096859
0,312500	0,1	-0,131919
0,314167	0,1	-0,117759
0,315833	0,1	-0,095345
0,317500	0,1	-0,103485
0,319167	0,1	-0,171817
0,320833	0,1	-0,104727
0,322500	0,1	-0,079534
0,324167	0,1	-0,103462
0,325833	0,1	-0,122525
0,327500	0,1	-0,096024
0,329167	0,1	-0,121527
0,330833	0,1	-0,087729
0,332500	0,1	-0,127618
0,334167	0,1	-0,121430
0,335833	0,1	-0,144338
0,337500	0,1	-0,117558
0,339167	0,1	-0,101358
0,340833	0,1	-0,091211
0,342500	0,1	-0,122002
0,344167	0,1	-0,095592
0,345833	0,1	-0,136892
0,347500	0,1	-0,091077
0,349167	0,1	-0,102260
0,350833	0,1	-0,107052
0,352500	0,1	-0,094073
0,354167	0,1	-0,088742
0,355833	0,1	-0,068540
0,357500	0,1	-0,112274
0,359167	0,1	-0,123471
0,360833	0,1	-0,101898
0,362500	0,1	-0,156361
0,364167	0,1	-0,131306
0,365833	0,1	-0,124214
0,367500	0,1	-0,073840
0,369167	0,1	-0,124904
0,370833	0,1	-0,122592
0,372500	0,1	-0,103869
0,374167	0,1	-0,106136
0,375833	0,1	-0,116906
0,377500	0,1	-0,120080
0,379167	0,1	-0,101878
0,380833	0,1	-0,075491
0,382500	0,1	-0,134424
0,384167	0,1	-0,067574
0,385833	0,1	-0,094690
0,387500	0,1	-0,104690
0,389167	0,1	-0,079183
0,390833	0,1	-0,082310
0,392500	0,1	-0,055639
0,394167	0,1	-0,102171
0,395833	0,1	-0,093597
0,397500	0,1	-0,102180
0,399167	0,1	-0,111851
0,400833	0,1	-0,080451
0,402500	0,1	-0,080030
0,404167	0,1	-0,095397
0,405833	0,1	-0,081609
0,407500	0,1	-0,124799
0,409167	0,1	-0,087587
0,410833	0,1	-0,075240
0,412500	0,1	-0,125301
0,414167	0,1	-0,109824
0,415833	0,1	-0,058761
0,417500	0,1	-0,075463
0,419167	0,1	-0,111344
0,420833	0,1	-0,108288
0,422500	0,1	-0,131630
0,424167	0,1	-0,102127
0,425833	0,1	-0,091315
0,427500	0,1	-0,102303
0,429167	0,1	-0,107844
0,430833	0,1	-0,113111
0,432500	0,1	-0,125003
0,434167	0,1	-0,113866
0,435833	0,1	-0,110068
0,437500	0,1	-0,079561
0,439167	0,1	-0,106615
0,440833	0,1	-0,086923
0,442500	0,1	-0,128992
0,444167	0,1	-0,100613
0,445833	0,1	-0,131936
0,447500	0,1	-0,075147
0,449167	0,1	-0,095581
0,450833	0,1	-0,086735
0,452500	0,1	-0,080737
0,454167	0,1	-0,089154
0,455833	0,1	-0,082955
0,457500	0,1	-0,100161
0,459167	0,1	-0,091896
0,460833	0,1	-0,068108
0,462500	0,1	-0,077641
0,464167	0,1	-0,098549
0,465833	0,1	-0,083724
0,467500	0,1	-0,090317
0,469167	0,1	-0,104858
0,470833	0,1	-0,112345
0,472500	0,1	-0,100090
0,474167	0,1	-0,084886
0,475833	0,1	-0,086935
0,477500	0,1	-0,138009
0,479167	0,1	-0,135097
0,480833	0,1	-0,094829
0,482500	0,1	-0,113954
0,484167	0,1	-0,067032
0,485833	0,1	-0,097735
0,487500	0,1	-0,115637
0,489167	0,1	-0,096981
0,490833	0,1	-0,086252
0,492500	0,1	-0,104399
0,494167	0,1	-0,068192
0,495833	0,1	-0,119056
0,497500	0,1	-0,166801
0,499167	0,1	-0,100438
0,500833	0,1	-0,103882
0,502500	0,1	-0,073228
0,504167	0,1	-0,113641
0,505833	0,1	-0,085383
0,507500	0,1	-0,106008
0,509167	0,1	-0,113191
0,510833	0,1	-0,092191
0,512500	0,1	-0,090046
0,514167	0,1	-0,111409
0,515833	0,1	-0,106869
0,517500	0,1	-0,086878
0,519167	0,1	-0,056844
0,520833	0,1	-0,107148
0,522500	0,1	-0,133681
0,524167	0,1	-0,100923
0,525833	0,1	-0,093429
0,527500	0,1	-0,093216
0,529167	0,1	-0,088989
0,530833	0,1	-0,083968
0,532500	0,1	-0,104979
0,534167	0,1	-0,111764
0,535833	0,1	-0,069628
0,537500	0,1	-0,155097
0,539167	0,1	-0,123654
0,540833	0,1	-0,117784
0,542500	0,1	-0,090202
0,544167	0,1	-0,096913
0,545833	0,1	-0,147653
0,547500	0,1	-0,125107
0,549167	0,1	-0,061064
0,550833	0,1	-0,104039
0,552500	0,1	-0,139238
0,554167	0,1	-0,113596
0,555833	0,1	-0,099983
0,557500	0,1	-0,093597
0,559167	0,1	-0,095355
0,560833	0,1	-0,121068
0,562500	0,1	-0,142287
0,564167	0,1	-0,094328
0,565833	0,1	-0,045627
0,567500	0,1	-0,130698
0,569167	0,1	-0,107790
0,570833	0,1	-0,109008
0,572500	0,1	-0,124559
0,574167	0,1	-0,088064
0,575833	0,1	-0,096455
0,577500	0,1	-0,093781
0,579167	0,1	-0,097056
0,580833	0,1	-0,134076
0,582500	0,1	-0,106416
0,584167	0,1	-0,091793
0,585833	0,1	-0,099442
0,587500	0,1	-0,111076
0,589167	0,1	-0,114521
0,590833	0,1	-0,109899
0,592500	0,1	-0,076340
0,594167	0,1	-0,080091
0,595833	0,1	-0,101306
0,597500	0,1	-0,101188
0,599167	0,1	-0,122586
0,600833	0,1	-0,122591
0,602500	0,1	-0,092853
0,604167	0,1	-0,114578
0,605833	0,1	-0,113113
0,607500	0,1	-0,103612
0,609167	0,1	-0,107906
0,610833	0,1	-0,112426
0,612500	0,1	-0,105460
0,614167	0,1	-0,106517
0,615833	0,1	-0,133699
0,617500	0,1	-0,125974
0,619167	0,1	-0,122346
0,620833	0,1	-0,126033
0,622500	0,1	-0,098269
0,624167	0,1	-0,097330
0,625833	0,1	-0,144959
0,627500	0,1	-0,121249
0,629167	0,1	-0,119746
0,630833	0,1	-0,119896
0,632500	0,1	-0,170675
0,634167	0,1	-0,119466
0,635833	0,1	-0,093829
0,637500	0,1	-0,131309
0,639167	0,1	-0,105299
0,640833	0,1	-0,122218
0,642500	0,1	-0,087375
0,644167	0,1	-0,102963
0,645833	0,1	-0,099568
0,647500	0,1	-0,127436
0,649167	0,1	-0,136654
0,650833	0,1	-0,076804
0,652500	0,1	-0,139705
0,654167	0,1	-0,086720
0,655833	0,1	-0,114930
0,657500	0,1	-0,088474
0,659167	0,1	-0,107753
0,660833	0,1	-0,083021
0,662500	0,1	-0,086872
0,664167	0,1	-0,108272
0,665833	0,1	-0,114185
0,667500	0,1	-0,150915
0,669167	0,1	-0,091346
0,670833	0,1	-0,089904
0,672500	0,1	-0,118893
0,674167	0,1	-0,152952
0,675833	0,1	-0,103726
0,677500	0,1	-0,143614
0,679167	0,1	-0,108181
0,680833	0,1	-0,164657
0,682500	0,1	-0,113310
0,684167	0,1	-0,101604
0,685833	0,1	-0,087952
0,687500	0,1	-0,100665
0,689167	0,1	-0,136297
0,690833	0,1	-0,082879
0,692500	0,1	-0,111300
0,694167	0,1	-0,100106
0,695833	0,1	-0,073396
0,697500	0,1	-0,105020
0,699167	0,1	-0,133727
0,700833	0,1	-0,073112
0,702500	0,1	-0,075565
0,704167	0,1	-0,116794
0,705833	0,1	-0,096692
0,707500	0,1	-0,100148
0,709167	0,1	-0,088990
0,710833	0,1	-0,073023
0,712500	0,1	-0,094003
0,714167	0,1	-0,035482
0,715833	0,1	-0,118802
0,717500	0,1	-0,080621
0,719167	0,1	-0,078992
0,720833	0,1	-0,073680
0,722500	0,1	-0,066422
0,724167	0,1	-0,067768
0,725833	0,1	-0,080070
0,727500	0,1	-0,036083
0,729167	0,1	-0,050798
0,730833	0,1	-0,098420
0,732500	0,1	-0,051315
0,734167	0,1	-0,091842
0,735833	0,1	-0,053569
0,737500	0,1	-0,067105
0,739167	0,1	-0,039295
0,740833	0,1	-0,086264
0,742500	0,1	-0,072026
0,744167	0,1	-0,085629
0,745833	0,1	-0,070159
0,747500	0,1	-0,069557
0,749167	0,1	-0,109079
0,750833	0,1	-0,080865
0,752500	0,1	-0,101183
0,754167	0,1	-0,063110
0,755833	0,1	-0,113497
0,757500	0,1	-0,113756
0,759167	0,1	-0,083938
0,760833	0,1	-0,096700
0,762500	0,1	-0,103343
0,764167	0,1	-0,093263
0,765833	0,1	-0,063942
0,767500	0,1	-0,114906
0,769167	0,1	-0,090464
0,770833	0,1	-0,090027
0,772500	0,1	-0,083952
0,774167	0,1	-0,114515
0,775833	0,1	-0,128910
0,777500	0,1	-0,130076
0,779167	0,1	-0,100049
0,780833	0,1	-0,122294
0,782500	0,1	-0,132064
0,784167	0,1	-0,120127
0,785833	0,1	-0,089040
0,787500	0,1	-0,189521
0,789167	0,1	-0,072898
0,790833	0,1	-0,141783
0,792500	0,1	-0,099701
0,794167	0,1	-0,119522
0,795833	0,1	-0,116532
0,797500	0,1	-0,144903
0,799167	0,1	-0,121477
0,800833	0,1	-0,136591
0,802500	0,1	-0,111867
0,804167	0,1	-0,121927
0,805833	0,1	-0,120371
0,807500	0,1	-0,178248
0,809167	0,1	-0,108647
0,810833	0,1	-0,153915
0,812500	0,1	-0,124650
0,814167	0,1	-0,137145
0,815833	0,1	-0,136198
0,817500	0,1	-0,138603
0,819167	0,1	-0,111852
0,820833	0,1	-0,135706
0,822500	0,1	-0,131196
0,824167	0,1	-0,152988
0,825833	0,1	-0,119446
0,827500	0,1	-0,107390
0,829167	0,1	-0,127041
0,830833	0,1	-0,130183
0,832500	0,1	-0,100568
0,834167	0,1	-0,160737
0,835833	0,1	-0,156299
0,837500	0,1	-0,150820
0,839167	0,1	-0,146027
0,840833	0,1	-0,104078
0,842500	0,1	-0,132976
0,844167	0,1	-0,152512
0,845833	0,1	-0,133418
0,847500	0,1	-0,114192
0,849167	0,1	-0,153273
0,850833	0,1	-0,139954
0,852500	0,1	-0,105467
0,854167	0,1	-0,133988
0,855833	0,1	-0,181956
0,857500	0,1	-0,115904
0,859167	0,1	-0,135507
0,860833	0,1	-0,134823
0,862500	0,1	-0,148244
0,864167	0,1	-0,111624
0,865833	0,1	-0,160924
0,867500	0,1	-0,137904
0,869167	0,1	-0,153279
0,870833	0,1	-0,157247
0,872500	0,1	-0,134247
0,874167	0,1	-0,126177
0,875833	0,1	-0,114666
0,877500	0,1	-0,135875
0,879167	0,1	-0,140116
0,880833	0,1	-0,101814
0,882500	0,1	-0,112194
0,884167	0,1	-0,113589
0,885833	0,1	-0,158935
0,887500	0,1	-0,124052
0,889167	0,1	-0,142792
0,890833	0,1	-0,160458
0,892500	0,1	-0,156483
0,894167	0,1	-0,115421
0,895833	0,1	-0,144260
0,897500	0,1	-0,125826
0,899167	0,1	-0,101044
0,900833	0,1	-0,117090
0,902500	0,1	-0,145394
0,904167	0,1	-0,117700
0,905833	0,1	-0,096481
0,907500	0,1	-0,149733
0,909167	0,1	-0,124095
0,910833	0,1	-0,126694
0,912500	0,1	-0,085802
0,914167	0,1	-0,096103
0,915833	0,1	-0,103255
0,917500	0,1	-0,142759
0,919167	0,1	-0,102808
0,920833	0,1	-0,097224
0,922500	0,1	-0,079285
0,924167	0,1	-0,128031
0,925833	0,1	-0,117220
0,927500	0,1	-0,099325
0,929167	0,1	-0,118956
0,930833	0,1	-0,099634
0,932500	0,1	-0,051246
0,934167	0,1	-0,123217
0,935833	0,1	-0,077531
0,937500	0,1	-0,041061
0,939167	0,1	-0,053267
0,940833	0,1	-0,114384
0,942500	0,1	-0,129660
0,944167	0,1	-0,127858
0,945833	0,1	-0,094246
0,947500	0,1	-0,099381
0,949167	0,1	-0,062484
0,950833	0,1	-0,061753
0,952500	0,1	-0,067000
0,954167	0,1	-0,077473
0,955833	0,1	-0,107442
0,957500	0,1	-0,105689
0,959167	0,1	-0,088225
0,960833	0,1	-0,068213
0,962500	0,1	-0,049829
0,964167	0,1	-0,087358
0,965833	0,1	-0,073373
0,967500	0,1	-0,076831
0,969167	0,1	-0,020549
0,970833	0,1	-0,083062
0,972500	0,1	-0,051205
0,974167	0,1	-0,028485
0,975833	0,1	-0,011722
0,977500	0,1	-0,060604
0,979167	0,1	-0,056153
0,980833	0,1	-0,088486
0,982500	0,1	-0,046681
0,984167	0,1	-0,035494
0,985833	0,1	-0,044369
0,987500	0,1	-0,034957
0,989167	0,1	-0,011951
0,990833	0,1	0,000395
0,992500	0,1	-0,018477
0,994167	0,1	-0,026259
0,995833	0,1	0,019847
0,997500	0,1	0,014381
0,999167	0,1	0,012970
1,000833	0,1	0,028215
1,002500	0,1	0,046971
1,004167	0,1	0,039217
1,005833	0,1	0,026439
1,007500	0,1	0,072093
1,009167	0,1	0,091686
1,010833	0,1	0,105259
1,012500	0,1	0,116589
1,014167	0,1	0,123519
1,015833	0,1	0,135332
1,017500	0,1	0,140786
1,019167	0,1	0,153259
1,020833	0,1	0,173013
1,022500	0,1	0,183915
1,024167	0,1	0,182317
1,025833	0,1	0,219891
1,027500	0,1	0,231088
1,029167	0,1	0,209345
1,030833	0,1	0,188427
1,032500	0,1	0,242886
1,034167	0,1	0,271586
1,035833	0,1	0,272563
1,037500	0,1	0,233587
1,039167	0,1	0,269945
1,040833	0,1	0,292019
1,042500	0,1	0,311879
1,044167	0,1	0,293161
1,045833	0,1	0,330059
1,047500	0,1	0,335886
1,049167	0,1	0,379293
1,050833	0,1	0,371163
1,052500	0,1	0,388120
1,054167	0,1	0,429245
1,055833	0,1	0,388997
1,057500	0,1	0,475009
1,059167	0,1	0,563481
1,060833	0,1	0,593342
1,062500	0,1	0,725780
1,064167	0,1	0,856283
1,065833	0,1	1,042031
1,067500	0,1	1,263291
1,069167	0,1	1,519616
1,070833	0,1	1,887561
1,072500	0,1	2,333967
1,074167	0,1	2,885863
1,075833	0,1	3,539078
1,077500	0,1	4,318688
1,079167	0,1	5,182829
1,080833	0,1	6,211334
1,082500	0,1	7,353477
1,084167	0,1	8,665772
1,085833	0,1	10,096443
1,087500	0,1	11,718373
1,089167	0,1	13,334187
1,090833	0,1	15,095846
1,092500	0,1	16,913863
1,094167	0,1	18,743403
1,095833	0,1	20,609266
1,097500	0,1	22,475535
1,099167	0,1	24,267876
1,100833	0,1	25,961923
1,102500	0,1	27,596867
1,104167	0,1	29,119953
1,105833	0,1	30,457902
1,107500	0,1	31,701551
1,109167	0,1	32,720618
1,110833	0,1	33,573338
1,112500	0,1	34,319845
1,114167	0,1	34,863121
1,115833	0,1	35,218023
1,117500	0,1	35,455444
1,119167	0,1	35,547860
1,120833	0,1	35,526297
1,122500	0,1	35,399965
1,124167	0,1	35,143488
1,125833	0,1	34,903045
1,127500	0,1	34,441635
1,129167	0,1	34,069860
1,130833	0,1	33,617623
1,132500	0,1	33,204965
1,134167	0,1	32,724849
1,135833	0,1	32,224137
1,137500	0,1	31,791764
1,139167	0,1	31,369385
1,140833	0,1	30,975074
1,142500	0,1	30,626376
1,144167	0,1	30,329058
1,145833	0,1	30,111695
1,147500	0,1	29,940413
1,149167	0,1	29,866717
1,150833	0,1	29,874093
1,152500	0,1	29,889002
1,154167	0,1	30,063995
1,155833	0,1	30,244857
1,157500	0,1	30,484542
1,159167	0,1	30,831221
1,160833	0,1	31,255545
1,162500	0,1	31,703126
1,164167	0,1	32,140949
1,165833	0,1	32,640178
1,167500	0,1	33,147938
1,169167	0,1	33,726202
1,170833	0,1	34,274364
1,172500	0,1	34,829236
1,174167	0,1	35,317738
1,175833	0,1	35,829595
1,177500	0,1	36,266833
1,179167	0,1	36,667170
1,180833	0,1	37,081403
1,182500	0,1	37,472901
1,184167	0,1	37,773097
1,185833	0,1	38,043545
1,187500	0,1	38,299183
1,189167	0,1	38,520440
1,190833	0,1	38,803756
1,192500	0,1	39,011253
1,194167	0,1	39,245583
1,195833	0,1	39,474062
1,197500	0,1	39,829869
1,199167	0,1	40,179776
1,200833	0,1	40,691771
1,202500	0,1	41,320496
1,204167	0,1	42,056539
1,205833	0,1	42,928833
1,207500	0,1	44,027686
1,209167	0,1	45,328059
1,210833	0,1	46,810100
1,212500	0,1	48,479358
1,214167	0,1	50,427561
1,215833	0,1	52,574857
1,217500	0,1	54,943707
1,219167	0,1	57,488625
1,220833	0,1	60,281528
1,222500	0,1	63,170228
1,224167	0,1	66,207535
1,225833	0,1	69,363301
1,227500	0,1	72,568725
1,229167	0,1	75,817829
1,230833	0,1	79,045699
1,232500	0,1	82,275315
1,234167	0,1	85,424259
1,235833	0,1	88,442830
1,237500	0,1	91,372753
1,239167	0,1	94,049177
1,240833	0,1	96,634231
1,242500	0,1	98,976887
1,244167	0,1	101,071361
1,245833	0,1	103,024982
1,247500	0,1	104,642635
1,249167	0,1	106,094591
1,250833	0,1	107,235650
1,252500	0,1	108,176858
1,254167	0,1	108,817112
1,255833	0,1	109,245275
1,257500	0,1	109,456523
1,259167	0,1	109,380602
1,260833	0,1	109,058497
1,262500	0,1	108,618573
1,264167	0,1	107,848766
1,265833	0,1	106,968728
1,267500	0,1	105,847062
1,269167	0,1	104,563010
1,270833	0,1	103,048555
1,272500	0,1	101,441267
1,274167	0,1	99,673595
1,275833	0,1	97,748895
1,277500	0,1	95,781444
1,279167	0,1	93,757325
1,280833	0,1	91,545331
1,282500	0,1	89,294435
1,284167	0,1	87,009956
1,285833	0,1	84,659072
1,287500	0,1	82,362171
1,289167	0,1	80,029055
1,290833	0,1	77,662244
1,292500	0,1	75,334857
1,294167	0,1	73,001155
1,295833	0,1	70,774172
1,297500	0,1	68,531901
1,299167	0,1	66,417228
1,300833	0,1	64,285220
1,302500	0,1	62,186011
1,304167	0,1	60,237980
1,305833	0,1	58,326855
1,307500	0,1	56,492176
1,309167	0,1	54,747036
1,310833	0,1	53,068834
1,312500	0,1	51,445579
1,314167	0,1	49,898395
1,315833	0,1	48,410291
1,317500	0,1	46,979385
1,319167	0,1	45,692467
1,320833	0,1	44,332263
1,322500	0,1	43,158020
1,324167	0,1	41,986988
1,325833	0,1	40,840495
1,327500	0,1	39,761998
1,329167	0,1	38,829827
1,330833	0,1	37,820873
1,332500	0,1	36,880742
1,334167	0,1	36,004372
1,335833	0,1	35,110267
1,337500	0,1	34,246136
1,339167	0,1	33,456585
1,340833	0,1	32,708190
1,342500	0,1	31,987091
1,344167	0,1	31,219242
1,345833	0,1	30,550388
1,347500	0,1	29,864797
1,349167	0,1	29,167206
1,350833	0,1	28,529187
1,352500	0,1	27,902537
1,354167	0,1	27,281892
1,355833	0,1	26,678608
1,357500	0,1	26,095155
1,359167	0,1	25,514059
1,360833	0,1	24,993395
1,362500	0,1	24,412239
1,364167	0,1	23,872458
1,365833	0,1	23,359831
1,367500	0,1	22,840037
1,369167	0,1	22,356751
1,370833	0,1	21,864110
1,372500	0,1	21,383984
1,374167	0,1	20,922799
1,375833	0,1	20,450960
1,377500	0,1	20,021166
1,379167	0,1	19,560902
1,380833	0,1	19,122865
1,382500	0,1	18,682207
1,384167	0,1	18,260998
1,385833	0,1	17,932689
1,387500	0,1	17,501240
1,389167	0,1	17,159447
1,390833	0,1	16,783627
1,392500	0,1	16,428793
1,394167	0,1	16,077882
1,395833	0,1	15,768317
1,397500	0,1	15,454191
1,399167	0,1	15,141091
1,400833	0,1	14,797283
1,402500	0,1	14,488756
1,404167	0,1	14,236211
1,405833	0,1	13,972572
1,407500	0,1	13,678020
1,409167	0,1	13,432034
1,410833	0,1	13,223792
1,412500	0,1	12,957812
1,414167	0,1	12,777900
1,415833	0,1	12,493366
1,417500	0,1	12,301208
1,419167	0,1	12,105142
1,420833	0,1	11,923236
1,422500	0,1	11,696726
1,424167	0,1	11,524421
1,425833	0,1	11,333187
1,427500	0,1	11,185282
1,429167	0,1	11,009653
1,430833	0,1	10,840036
1,432500	0,1	10,611633
1,434167	0,1	10,485256
1,435833	0,1	10,336062
1,437500	0,1	10,164191
1,439167	0,1	10,059171
1,440833	0,1	9,891749
1,442500	0,1	9,763419
1,444167	0,1	9,585214
1,445833	0,1	9,455974
1,447500	0,1	9,312607
1,449167	0,1	9,228706
1,450833	0,1	9,031585
1,452500	0,1	8,927735
1,454167	0,1	8,772424
1,455833	0,1	8,651734
1,457500	0,1	8,522581
1,459167	0,1	8,377839
1,460833	0,1	8,280184
1,462500	0,1	8,181731
1,464167	0,1	8,051145
1,465833	0,1	7,952611
1,467500	0,1	7,875500
1,469167	0,1	7,770662
1,470833	0,1	7,617556
1,472500	0,1	7,556598
1,474167	0,1	7,470221
1,475833	0,1	7,371056
1,477500	0,1	7,308720
1,479167	0,1	7,195611
1,480833	0,1	7,171578
1,482500	0,1	7,081556
1,484167	0,1	7,017119
1,485833	0,1	6,974257
1,487500	0,1	6,926085
1,489167	0,1	6,869143
1,490833	0,1	6,831994
1,492500	0,1	6,778620
1,494167	0,1	6,723365
1,495833	0,1	6,662542
1,497500	0,1	6,659080
1,499167	0,1	6,579412
1,500833	0,1	6,572603
1,502500	0,1	6,580821
1,504167	0,1	6,561324
1,505833	0,1	6,454265
1,507500	0,1	6,490325
1,509167	0,1	6,459180
1,510833	0,1	6,443526
1,512500	0,1	6,392344
1,514167	0,1	6,401747
1,515833	0,1	6,416370
1,517500	0,1	6,356180
1,519167	0,1	6,354869
1,520833	0,1	6,319810
1,522500	0,1	6,336222
1,524167	0,1	6,286703
1,525833	0,1	6,276073
1,527500	0,1	6,242815
1,529167	0,1	6,188478
1,530833	0,1	6,183123
1,532500	0,1	6,171023
1,534167	0,1	6,153716
1,535833	0,1	6,141501
1,537500	0,1	6,103497
1,539167	0,1	6,141066
1,540833	0,1	6,111054
1,542500	0,1	6,055315
1,544167	0,1	6,007619
1,545833	0,1	5,971960
1,547500	0,1	5,936349
1,549167	0,1	5,916063
1,550833	0,1	5,930366
1,552500	0,1	5,896645
1,554167	0,1	5,866995
1,555833	0,1	5,801610
1,557500	0,1	5,788686
1,559167	0,1	5,749482
1,560833	0,1	5,725541
1,562500	0,1	5,711261
1,564167	0,1	5,698558
1,565833	0,1	5,655932
1,567500	0,1	5,597709
1,569167	0,1	5,542252
1,570833	0,1	5,488344
1,572500	0,1	5,530374
1,574167	0,1	5,456499
1,575833	0,1	5,393893
1,577500	0,1	5,387431
1,579167	0,1	5,379162
1,580833	0,1	5,284409
1,582500	0,1	5,265991
1,584167	0,1	5,239842
1,585833	0,1	5,188850
1,587500	0,1	5,118003
1,589167	0,1	5,108708
1,590833	0,1	5,052561
1,592500	0,1	4,982464
1,594167	0,1	5,034770
1,595833	0,1	4,938408
1,597500	0,1	4,910422
1,599167	0,1	4,900661
1,600833	0,1	4,860994
1,602500	0,1	4,819688
1,604167	0,1	4,768670
1,605833	0,1	4,708257
1,607500	0,1	4,724174
1,609167	0,1	4,621904
1,610833	0,1	4,635646
1,612500	0,1	4,564204
1,614167	0,1	4,527892
1,615833	0,1	4,487074
1,617500	0,1	4,504276
1,619167	0,1	4,399410
1,620833	0,1	4,391549
1,622500	0,1	4,346250
1,624167	0,1	4,372375
1,625833	0,1	4,287675
1,627500	0,1	4,245449
1,629167	0,1	4,239676
1,630833	0,1	4,182420
1,632500	0,1	4,159081
1,634167	0,1	4,142318
1,635833	0,1	4,113220
1,637500	0,1	4,095614
1,639167	0,1	4,007385
1,640833	0,1	3,986232
1,642500	0,1	4,000663
1,644167	0,1	3,915793
1,645833	0,1	3,923921
1,647500	0,1	3,914146
1,649167	0,1	3,824619
1,650833	0,1	3,816085
1,652500	0,1	3,823219
1,654167	0,1	3,749466
1,655833	0,1	3,752819
1,657500	0,1	3,762961
1,659167	0,1	3,748301
1,660833	0,1	3,707863
1,662500	0,1	3,721129
1,664167	0,1	3,666040
1,665833	0,1	3,659878
1,667500	0,1	3,653108
1,669167	0,1	3,666772
1,670833	0,1	3,651243
1,672500	0,1	3,631944
1,674167	0,1	3,678960
1,675833	0,1	3,690899
1,677500	0,1	3,621837
1,679167	0,1	3,648147
1,680833	0,1	3,645430
1,682500	0,1	3,656404
1,684167	0,1	3,649139
1,685833	0,1	3,695490
1,687500	0,1	3,716359
1,689167	0,1	3,736107
1,690833	0,1	3,735815
1,692500	0,1	3,809275
1,694167	0,1	3,778886
1,695833	0,1	3,833415
1,697500	0,1	3,837493
1,699167	0,1	3,859423
1,700833	0,1	3,877845
1,702500	0,1	3,887090
1,704167	0,1	3,925736
1,705833	0,1	3,957013
1,707500	0,1	3,993029
1,709167	0,1	4,035593
1,710833	0,1	4,025292
1,712500	0,1	4,070070
1,714167	0,1	4,083185
1,715833	0,1	4,100998
1,717500	0,1	4,136215
1,719167	0,1	4,096825
1,720833	0,1	4,164003
1,722500	0,1	4,164669
1,724167	0,1	4,233694
1,725833	0,1	4,207615
1,727500	0,1	4,212279
1,729167	0,1	4,228305
1,730833	0,1	4,211958
1,732500	0,1	4,209964
1,734167	0,1	4,204651
1,735833	0,1	4,241819
1,737500	0,1	4,189115
1,739167	0,1	4,211868
1,740833	0,1	4,206152
1,742500	0,1	4,179573
1,744167	0,1	4,233696
1,745833	0,1	4,184649
1,747500	0,1	4,172629
1,749167	0,1	4,159562
1,750833	0,1	4,143572
1,752500	0,1	4,123445
1,754167	0,1	4,086925
1,755833	0,1	4,102866
1,757500	0,1	4,071635
1,759167	0,1	4,010577
1,760833	0,1	4,005497
1,762500	0,1	3,953334
1,764167	0,1	3,934027
1,765833	0,1	3,876916
1,767500	0,1	3,863245
1,769167	0,1	3,855347
1,770833	0,1	3,790796
1,772500	0,1	3,740554
1,774167	0,1	3,706328
1,775833	0,1	3,653333
1,777500	0,1	3,623230
1,779167	0,1	3,570994
1,780833	0,1	3,562165
1,782500	0,1	3,532290
1,784167	0,1	3,474389
1,785833	0,1	3,421694
1,787500	0,1	3,384202
1,789167	0,1	3,338703
1,790833	0,1	3,269486
1,792500	0,1	3,263730
1,794167	0,1	3,172336
1,795833	0,1	3,139055
1,797500	0,1	3,119885
1,799167	0,1	3,055715
1,800833	0,1	3,055724
1,802500	0,1	2,971832
1,804167	0,1	2,959286
1,805833	0,1	2,879813
1,807500	0,1	2,837649
1,809167	0,1	2,820077
1,810833	0,1	2,785850
1,812500	0,1	2,728116
1,814167	0,1	2,702444
1,815833	0,1	2,658371
1,817500	0,1	2,584485
1,819167	0,1	2,544283
1,820833	0,1	2,516752
1,822500	0,1	2,493676
1,824167	0,1	2,466861
1,825833	0,1	2,392144
1,827500	0,1	2,361167
1,829167	0,1	2,314689
1,830833	0,1	2,294209
1,832500	0,1	2,277753
1,834167	0,1	2,247591
1,835833	0,1	2,225105
1,837500	0,1	2,203919
1,839167	0,1	2,218202
1,840833	0,1	2,182663
1,842500	0,1	2,221786
1,844167	0,1	2,188910
1,845833	0,1	2,235362
1,847500	0,1	2,252823
1,849167	0,1	2,236237
1,850833	0,1	2,305608
1,852500	0,1	2,298588
1,854167	0,1	2,343406
1,855833	0,1	2,412302
1,857500	0,1	2,437612
1,859167	0,1	2,481219
1,860833	0,1	2,511494
1,862500	0,1	2,568764
1,864167	0,1	2,595091
1,865833	0,1	2,612489
1,867500	0,1	2,655188
1,869167	0,1	2,736719
1,870833	0,1	2,799368
1,872500	0,1	2,821152
1,874167	0,1	2,878758
1,875833	0,1	2,897120
1,877500	0,1	2,942813
1,879167	0,1	2,959489
1,880833	0,1	3,005551
1,882500	0,1	3,063307
1,884167	0,1	3,074480
1,885833	0,1	3,157585
1,887500	0,1	3,170426
1,889167	0,1	3,208263
1,890833	0,1	3,209225
1,892500	0,1	3,262190
1,894167	0,1	3,279771
1,895833	0,1	3,338887
1,897500	0,1	3,377416
1,899167	0,1	3,424370
1,900833	0,1	3,392966
1,902500	0,1	3,445629
1,904167	0,1	3,447118
1,905833	0,1	3,494097
1,907500	0,1	3,554523
1,909167	0,1	3,533326
1,910833	0,1	3,565553
1,912500	0,1	3,584931
1,914167	0,1	3,577390
1,915833	0,1	3,617506
1,917500	0,1	3,629369
1,919167	0,1	3,660596
1,920833	0,1	3,702359
1,922500	0,1	3,661753
1,924167	0,1	3,643745
1,925833	0,1	3,690663
1,927500	0,1	3,675732
1,929167	0,1	3,670354
1,930833	0,1	3,652719
1,932500	0,1	3,685862
1,934167	0,1	3,668363
1,935833	0,1	3,653424
1,937500	0,1	3,671184
1,939167	0,1	3,690041
1,940833	0,1	3,662272
1,942500	0,1	3,672012
1,944167	0,1	3,620748
1,945833	0,1	3,624570
1,947500	0,1	3,645554
1,949167	0,1	3,642288
1,950833	0,1	3,612593
1,952500	0,1	3,601254
1,954167	0,1	3,557453
1,955833	0,1	3,564028
1,957500	0,1	3,550339
1,959167	0,1	3,548521
1,960833	0,1	3,564260
1,962500	0,1	3,534833
1,964167	0,1	3,541929
1,965833	0,1	3,535449
1,967500	0,1	3,529355
1,969167	0,1	3,510010
1,970833	0,1	3,518899
1,972500	0,1	3,530258
1,974167	0,1	3,497644
1,975833	0,1	3,478269
1,977500	0,1	3,537172
1,979167	0,1	3,481675
1,980833	0,1	3,522108
1,982500	0,1	3,485223
1,984167	0,1	3,526127
1,985833	0,1	3,472389
1,987500	0,1	3,512900
1,989167	0,1	3,507076
1,990833	0,1	3,518094
1,992500	0,1	3,507935
1,994167	0,1	3,539926
1,995833	0,1	3,473510
1,997500	0,1	3,535641
1,999167	0,1	3,527307
2,000833	0,1	3,546259
2,002500	0,1	3,570196
2,004167	0,1	3,546812
2,005833	0,1	3,567759
2,007500	0,1	3,592711
2,009167	0,1	3,580555
2,010833	0,1	3,568859
2,012500	0,1	3,633735
2,014167	0,1	3,625248
2,015833	0,1	3,632452
2,017500	0,1	3,649703
2,019167	0,1	3,693101
2,020833	0,1	3,668187
2,022500	0,1	3,691682
2,024167	0,1	3,685251
2,025833	0,1	3,690468
2,027500	0,1	3,736875
2,029167	0,1	3,732995
2,030833	0,1	3,793566
2,032500	0,1	3,789198
2,034167	0,1	3,810602
2,035833	0,1	3,845099
2,037500	0,1	3,867841
2,039167	0,1	3,892278
2,040833	0,1	3,904737
2,042500	0,1	3,983293
2,044167	0,1	3,922309
2,045833	0,1	3,968808
2,047500	0,1	3,993567
2,049167	0,1	4,008987
2,050833	0,1	4,058144
2,052500	0,1	4,075728
2,054167	0,1	4,095599
2,055833	0,1	4,105179
2,057500	0,1	4,149038
2,059167	0,1	4,179842
2,060833	0,1	4,213447
2,062500	0,1	4,224616
2,064167	0,1	4,273802
2,065833	0,1	4,295810
2,067500	0,1	4,299549
2,069167	0,1	4,304258
2,070833	0,1	4,312416
2,072500	0,1	4,347729
2,074167	0,1	4,373596
2,075833	0,1	4,394063
2,077500	0,1	4,415743
2,079167	0,1	4,410961
2,080833	0,1	4,441080
2,082500	0,1	4,473164
2,084167	0,1	4,504594
2,085833	0,1	4,503831
2,087500	0,1	4,511756
2,089167	0,1	4,568567
2,090833	0,1	4,568289
2,092500	0,1	4,581814
2,094167	0,1	4,558590
2,095833	0,1	4,614185
2,097500	0,1	4,614270
2,099167	0,1	4,644908
2,100833	0,1	4,628337
2,102500	0,1	4,680325
2,104167	0,1	4,635056
2,105833	0,1	4,685111
2,107500	0,1	4,659518
2,109167	0,1	4,676045
2,110833	0,1	4,698334
2,112500	0,1	4,765492
2,114167	0,1	4,712856
2,115833	0,1	4,738110
2,117500	0,1	4,751700
2,119167	0,1	4,737719
2,120833	0,1	4,762735
2,122500	0,1	4,768274
2,124167	0,1	4,785794
2,125833	0,1	4,776046
2,127500	0,1	4,824503
2,129167	0,1	4,809277
2,130833	0,1	4,777787
2,132500	0,1	4,759677
2,134167	0,1	4,788792
2,135833	0,1	4,777865
2,137500	0,1	4,789697
2,139167	0,1	4,804203
2,140833	0,1	4,811674
2,142500	0,1	4,779870
2,144167	0,1	4,768429
2,145833	0,1	4,757708
2,147500	0,1	4,809629
2,149167	0,1	4,745899
2,150833	0,1	4,738051
2,152500	0,1	4,742282
2,154167	0,1	4,753885
2,155833	0,1	4,798208
2,157500	0,1	4,744481
2,159167	0,1	4,755384
2,160833	0,1	4,735370
2,162500	0,1	4,679798
2,164167	0,1	4,760886
2,165833	0,1	4,671991
2,167500	0,1	4,680300
2,169167	0,1	4,675351
2,170833	0,1	4,734685
2,172500	0,1	4,657699
2,174167	0,1	4,636234
2,175833	0,1	4,615797
2,177500	0,1	4,608396
2,179167	0,1	4,666354
2,180833	0,1	4,664501
2,182500	0,1	4,611127
2,184167	0,1	4,588937
2,185833	0,1	4,575606
2,187500	0,1	4,577150
2,189167	0,1	4,527246
2,190833	0,1	4,563895
2,192500	0,1	4,574383
2,194167	0,1	4,546326
2,195833	0,1	4,553549
2,197500	0,1	4,544665
2,199167	0,1	4,563982
2,200833	0,1	4,548795
2,202500	0,1	4,554931
2,204167	0,1	4,532230
2,205833	0,1	4,497634
2,207500	0,1	4,556659
2,209167	0,1	4,522238
2,210833	0,1	4,507569
2,212500	0,1	4,531963
2,214167	0,1	4,509328
2,215833	0,1	4,502451
2,217500	0,1	4,500785
2,219167	0,1	4,488970
2,220833	0,1	4,517920
2,222500	0,1	4,521167
2,224167	0,1	4,529211
2,225833	0,1	4,565443
2,227500	0,1	4,540632
2,229167	0,1	4,505139
2,230833	0,1	4,552806
2,232500	0,1	4,577344
2,234167	0,1	4,574551
2,235833	0,1	4,560018
2,237500	0,1	4,641716
2,239167	0,1	4,573514
2,240833	0,1	4,628805
2,242500	0,1	4,631984
2,244167	0,1	4,646813
2,245833	0,1	4,645636
2,247500	0,1	4,656531
2,249167	0,1	4,717146
2,250833	0,1	4,692314
2,252500	0,1	4,689855
2,254167	0,1	4,708170
2,255833	0,1	4,738241
2,257500	0,1	4,711965
2,259167	0,1	4,742859
2,260833	0,1	4,732268
2,262500	0,1	4,819973
2,264167	0,1	4,731533
2,265833	0,1	4,793252
2,267500	0,1	4,802153
2,269167	0,1	4,781369
2,270833	0,1	4,750276
2,272500	0,1	4,785372
2,274167	0,1	4,776147
2,275833	0,1	4,820770
2,277500	0,1	4,808911
2,279167	0,1	4,801222
2,280833	0,1	4,797854
2,282500	0,1	4,753063
2,284167	0,1	4,750769
2,285833	0,1	4,765588
2,287500	0,1	4,779810
2,289167	0,1	4,852344
2,290833	0,1	4,777947
2,292500	0,1	4,762178
2,294167	0,1	4,785660
2,295833	0,1	4,743495
2,297500	0,1	4,743001
2,299167	0,1	4,701967
2,300833	0,1	4,716456
2,302500	0,1	4,730561
2,304167	0,1	4,727964
2,305833	0,1	4,676828
2,307500	0,1	4,646873
2,309167	0,1	4,645247
2,310833	0,1	4,647834
2,312500	0,1	4,656767
2,314167	0,1	4,614716
2,315833	0,1	4,588395
2,317500	0,1	4,567606
2,319167	0,1	4,600575
2,320833	0,1	4,527572
2,322500	0,1	4,519511
2,324167	0,1	4,488617
2,325833	0,1	4,508257
2,327500	0,1	4,502653
2,329167	0,1	4,492511
2,330833	0,1	4,407769
2,332500	0,1	4,401702
2,334167	0,1	4,406203
2,335833	0,1	4,421838
2,337500	0,1	4,371421
2,339167	0,1	4,358178
2,340833	0,1	4,289052
2,342500	0,1	4,303321
2,344167	0,1	4,256409
2,345833	0,1	4,283468
2,347500	0,1	4,256284
2,349167	0,1	4,227830
2,350833	0,1	4,220600
2,352500	0,1	4,206437
2,354167	0,1	4,181481
2,355833	0,1	4,172713
2,357500	0,1	4,167840
2,359167	0,1	4,148691
2,360833	0,1	4,094035
2,362500	0,1	4,097032
2,364167	0,1	4,066892
2,365833	0,1	4,021485
2,367500	0,1	4,016523
2,369167	0,1	4,010281
2,370833	0,1	3,969272
2,372500	0,1	4,008892
2,374167	0,1	4,021569
2,375833	0,1	4,042330
2,377500	0,1	3,991558
2,379167	0,1	3,932409
2,380833	0,1	3,948261
2,382500	0,1	3,929552
2,384167	0,1	3,976560
2,385833	0,1	3,962626
2,387500	0,1	3,951468
2,389167	0,1	3,914722
2,390833	0,1	3,951000
2,392500	0,1	3,909074
2,394167	0,1	3,988441
2,395833	0,1	3,997705
2,397500	0,1	3,998516
2,399167	0,1	4,005245
2,400833	0,1	4,070554
2,402500	0,1	4,085097
2,404167	0,1	4,087696
2,405833	0,1	4,133169
2,407500	0,1	4,209341
2,409167	0,1	4,247459
2,410833	0,1	4,309804
2,412500	0,1	4,334622
2,414167	0,1	4,383907
2,415833	0,1	4,458246
2,417500	0,1	4,500415
2,419167	0,1	4,591875
2,420833	0,1	4,677647
2,422500	0,1	4,727984
2,424167	0,1	4,825560
2,425833	0,1	4,922951
2,427500	0,1	4,995927
2,429167	0,1	5,121634
2,430833	0,1	5,206277
2,432500	0,1	5,293246
2,434167	0,1	5,383179
2,435833	0,1	5,503345
2,437500	0,1	5,569953
2,439167	0,1	5,722279
2,440833	0,1	5,828592
2,442500	0,1	5,942053
2,444167	0,1	6,023149
2,445833	0,1	6,153502
2,447500	0,1	6,234216
2,449167	0,1	6,308961
2,450833	0,1	6,437065
2,452500	0,1	6,532829
2,454167	0,1	6,621644
2,455833	0,1	6,735274
2,457500	0,1	6,847642
2,459167	0,1	6,949949
2,460833	0,1	7,019513
2,462500	0,1	7,104583
2,464167	0,1	7,193400
2,465833	0,1	7,275514
2,467500	0,1	7,389309
2,469167	0,1	7,445406
2,470833	0,1	7,490649
2,472500	0,1	7,555810
2,474167	0,1	7,606041
2,475833	0,1	7,714187
2,477500	0,1	7,798457
2,479167	0,1	7,813184
2,480833	0,1	7,934023
2,482500	0,1	7,957542
2,484167	0,1	8,044654
2,485833	0,1	8,072186
2,487500	0,1	8,139159
2,489167	0,1	8,295321
2,490833	0,1	8,294264
2,492500	0,1	8,357226
2,494167	0,1	8,465645
2,495833	0,1	8,533662
2,497500	0,1	8,600543
2,499167	0,1	8,697380
2,500833	0,1	8,791044
2,502500	0,1	8,888561
2,504167	0,1	9,004834
2,505833	0,1	9,121274
2,507500	0,1	9,251990
2,509167	0,1	9,336241
2,510833	0,1	9,532939
2,512500	0,1	9,652659
2,514167	0,1	9,838739
2,515833	0,1	9,971596
2,517500	0,1	10,136414
2,519167	0,1	10,334496
2,520833	0,1	10,513022
2,522500	0,1	10,730772
2,524167	0,1	10,917097
2,525833	0,1	11,176283
2,527500	0,1	11,399117
2,529167	0,1	11,607509
2,530833	0,1	11,834022
2,532500	0,1	12,140033
2,534167	0,1	12,302717
2,535833	0,1	12,620173
2,537500	0,1	12,896635
2,539167	0,1	13,244997
2,540833	0,1	13,407712
2,542500	0,1	13,763492
2,544167	0,1	14,069845
2,545833	0,1	14,325953
2,547500	0,1	14,622187
2,549167	0,1	14,969001
2,550833	0,1	15,238699
2,552500	0,1	15,520815
2,554167	0,1	15,872345
2,555833	0,1	16,133678
2,557500	0,1	16,449898
2,559167	0,1	16,710467
2,560833	0,1	16,994393
2,562500	0,1	17,288439
2,564167	0,1	17,535350
2,565833	0,1	17,867932
2,567500	0,1	18,128280
2,569167	0,1	18,349518
2,570833	0,1	18,587041
2,572500	0,1	18,861008
2,574167	0,1	19,054464
2,575833	0,1	19,231457
2,577500	0,1	19,475796
2,579167	0,1	19,630850
2,580833	0,1	19,892081
2,582500	0,1	20,028302
2,584167	0,1	20,159471
2,585833	0,1	20,346687
2,587500	0,1	20,463003
2,589167	0,1	20,605112
2,590833	0,1	20,678126
2,592500	0,1	20,778423
2,594167	0,1	20,880353
2,595833	0,1	20,939029
2,597500	0,1	21,034965
2,599167	0,1	21,071950
2,600833	0,1	21,140910
2,602500	0,1	21,135757
2,604167	0,1	21,153308
2,605833	0,1	21,139161
2,607500	0,1	21,202140
2,609167	0,1	21,162659
2,610833	0,1	21,140214
2,612500	0,1	21,101516
2,614167	0,1	20,932435
2,615833	0,1	21,017677
2,617500	0,1	20,945449
2,619167	0,1	20,837068
2,620833	0,1	20,867964
2,622500	0,1	20,690794
2,624167	0,1	20,605687
2,625833	0,1	20,577092
2,627500	0,1	20,413394
2,629167	0,1	20,341049
2,630833	0,1	20,224835
2,632500	0,1	20,058927
2,634167	0,1	19,932052
2,635833	0,1	19,782821
2,637500	0,1	19,642990
2,639167	0,1	19,479075
2,640833	0,1	19,300829
2,642500	0,1	19,148820
2,644167	0,1	18,957210
2,645833	0,1	18,820611
2,647500	0,1	18,649424
2,649167	0,1	18,433079
2,650833	0,1	18,266221
2,652500	0,1	18,083888
2,654167	0,1	17,832765
2,655833	0,1	17,629621
2,657500	0,1	17,478463
2,659167	0,1	17,294422
2,660833	0,1	17,033680
2,662500	0,1	16,821946
2,664167	0,1	16,607696
2,665833	0,1	16,393634
2,667500	0,1	16,181313
2,669167	0,1	15,981221
2,670833	0,1	15,743091
2,672500	0,1	15,556794
2,674167	0,1	15,330901
2,675833	0,1	15,113629
2,677500	0,1	14,861059
2,679167	0,1	14,619247
2,680833	0,1	14,415619
2,682500	0,1	14,216496
2,684167	0,1	13,965245
2,685833	0,1	13,776365
2,687500	0,1	13,540761
2,689167	0,1	13,313922
2,690833	0,1	13,118748
2,692500	0,1	12,889861
2,694167	0,1	12,702738
2,695833	0,1	12,469408
2,697500	0,1	12,248054
2,699167	0,1	12,078763
2,700833	0,1	11,850149
2,702500	0,1	11,681218
2,704167	0,1	11,448519
2,705833	0,1	11,264759
2,707500	0,1	11,078589
2,709167	0,1	10,872023
2,710833	0,1	10,669681
2,712500	0,1	10,492133
2,714167	0,1	10,291499
2,715833	0,1	10,158641
2,717500	0,1	9,948800
2,719167	0,1	9,758936
2,720833	0,1	9,591261
2,722500	0,1	9,466415
2,724167	0,1	9,282841
2,725833	0,1	9,126285
2,727500	0,1	8,985679
2,729167	0,1	8,805399
2,730833	0,1	8,698413
2,732500	0,1	8,505899
2,734167	0,1	8,366990
2,735833	0,1	8,239018
2,737500	0,1	8,104101
2,739167	0,1	7,958013
2,740833	0,1	7,835370
2,742500	0,1	7,732923
2,744167	0,1	7,602498
2,745833	0,1	7,470305
2,747500	0,1	7,342097
2,749167	0,1	7,228947
2,750833	0,1	7,110515
2,752500	0,1	6,952531
2,754167	0,1	6,875963
2,755833	0,1	6,774982
2,757500	0,1	6,687829
2,759167	0,1	6,575797
2,760833	0,1	6,431421
2,762500	0,1	6,353382
2,764167	0,1	6,244508
2,765833	0,1	6,196947
2,767500	0,1	6,090395
2,769167	0,1	5,952571
2,770833	0,1	5,967101
2,772500	0,1	5,836242
2,774167	0,1	5,746799
2,775833	0,1	5,667669
2,777500	0,1	5,613760
2,779167	0,1	5,477614
2,780833	0,1	5,418662
2,782500	0,1	5,370276
2,784167	0,1	5,272434
2,785833	0,1	5,200798
2,787500	0,1	5,190963
2,789167	0,1	5,088359
2,790833	0,1	5,029477
2,792500	0,1	4,950427
2,794167	0,1	4,876989
2,795833	0,1	4,812057
2,797500	0,1	4,746050
2,799167	0,1	4,707402
2,800833	0,1	4,612884
2,802500	0,1	4,554243
2,804167	0,1	4,506645
2,805833	0,1	4,445201
2,807500	0,1	4,432480
2,809167	0,1	4,364687
2,810833	0,1	4,262229
2,812500	0,1	4,234567
2,814167	0,1	4,209282
2,815833	0,1	4,124723
2,817500	0,1	4,082877
2,819167	0,1	4,062018
2,820833	0,1	3,993224
2,822500	0,1	3,967901
2,824167	0,1	3,874865
2,825833	0,1	3,846823
2,827500	0,1	3,789971
2,829167	0,1	3,774583
2,830833	0,1	3,748587
2,832500	0,1	3,701555
2,834167	0,1	3,641888
2,835833	0,1	3,646591
2,837500	0,1	3,540401
2,839167	0,1	3,533376
2,840833	0,1	3,496764
2,842500	0,1	3,461030
2,844167	0,1	3,395543
2,845833	0,1	3,351818
2,847500	0,1	3,346919
2,849167	0,1	3,300040
2,850833	0,1	3,276200
2,852500	0,1	3,228653
2,854167	0,1	3,228393
2,855833	0,1	3,153545
2,857500	0,1	3,134956
2,859167	0,1	3,079333
2,860833	0,1	3,070750
2,862500	0,1	3,061952
2,864167	0,1	3,020780
2,865833	0,1	2,979141
2,867500	0,1	2,967612
2,869167	0,1	2,964434
2,870833	0,1	2,872905
2,872500	0,1	2,879355
2,874167	0,1	2,826708
2,875833	0,1	2,848999
2,877500	0,1	2,799808
2,879167	0,1	2,747169
2,880833	0,1	2,712068
2,882500	0,1	2,751454
2,884167	0,1	2,719112
2,885833	0,1	2,685028
2,887500	0,1	2,636509
2,889167	0,1	2,649927
2,890833	0,1	2,637425
2,892500	0,1	2,575415
2,894167	0,1	2,570211
2,895833	0,1	2,611090
2,897500	0,1	2,556778
2,899167	0,1	2,534708
2,900833	0,1	2,476227
2,902500	0,1	2,490428
2,904167	0,1	2,472545
2,905833	0,1	2,418729
2,907500	0,1	2,420298
2,909167	0,1	2,432213
2,910833	0,1	2,378278
2,912500	0,1	2,343137
2,914167	0,1	2,392683
2,915833	0,1	2,349599
2,917500	0,1	2,367043
2,919167	0,1	2,291203
2,920833	0,1	2,313239
2,922500	0,1	2,287456
2,924167	0,1	2,334921
2,925833	0,1	2,241286
2,927500	0,1	2,256556
2,929167	0,1	2,259578
2,930833	0,1	2,222811
2,932500	0,1	2,201116
2,934167	0,1	2,203697
2,935833	0,1	2,157456
2,937500	0,1	2,193561
2,939167	0,1	2,158028
2,940833	0,1	2,131313
2,942500	0,1	2,154569
2,944167	0,1	2,132604
2,945833	0,1	2,109627
2,947500	0,1	2,062530
2,949167	0,1	2,077802
2,950833	0,1	2,073648
2,952500	0,1	2,042774
2,954167	0,1	2,059280
2,955833	0,1	2,068546
2,957500	0,1	2,060436
2,959167	0,1	2,000646
2,960833	0,1	2,012259
2,962500	0,1	2,022093
2,964167	0,1	1,967403
2,965833	0,1	2,005069
2,967500	0,1	1,989581
2,969167	0,1	2,006225
2,970833	0,1	1,990875
2,972500	0,1	1,945872
2,974167	0,1	1,979594
2,975833	0,1	1,909699
2,977500	0,1	1,927123
2,979167	0,1	1,926270
2,980833	0,1	1,927991
2,982500	0,1	1,929640
2,984167	0,1	1,894485
2,985833	0,1	1,860240
2,987500	0,1	1,870141
2,989167	0,1	1,873513
2,990833	0,1	1,866923
2,992500	0,1	1,846106
2,994167	0,1	1,851987
2,995833	0,1	1,795514
2,997500	0,1	1,831734
2,999167	0,1	1,834045
3,000833	0,1	1,846884
3,002500	0,1	1,819254
3,004167	0,1	1,805136
3,005833	0,1	1,826060
3,007500	0,1	1,812231
3,009167	0,1	1,758991
3,010833	0,1	1,780152
3,012500	0,1	1,773546
3,014167	0,1	1,803974
3,015833	0,1	1,771271
3,017500	0,1	1,743051
3,019167	0,1	1,783517
3,020833	0,1	1,733824
3,022500	0,1	1,741325
3,024167	0,1	1,706467
3,025833	0,1	1,700290
3,027500	0,1	1,712047
3,029167	0,1	1,705605
3,030833	0,1	1,733658
3,032500	0,1	1,727321
3,034167	0,1	1,718956
3,035833	0,1	1,680283
3,037500	0,1	1,697852
3,039167	0,1	1,736535
3,040833	0,1	1,676503
3,042500	0,1	1,677343
3,044167	0,1	1,653105
3,045833	0,1	1,655531
3,047500	0,1	1,665928
3,049167	0,1	1,682852
3,050833	0,1	1,663295
3,052500	0,1	1,674193
3,054167	0,1	1,652320
3,055833	0,1	1,608775
3,057500	0,1	1,641034
3,059167	0,1	1,654249
3,060833	0,1	1,637390
3,062500	0,1	1,618543
3,064167	0,1	1,644342
3,065833	0,1	1,612079
3,067500	0,1	1,614227
3,069167	0,1	1,596712
3,070833	0,1	1,616654
3,072500	0,1	1,611209
3,074167	0,1	1,574977
3,075833	0,1	1,552268
3,077500	0,1	1,590830
3,079167	0,1	1,540067
3,080833	0,1	1,579569
3,082500	0,1	1,588613
3,084167	0,1	1,550184
3,085833	0,1	1,556848
3,087500	0,1	1,605535
3,089167	0,1	1,551468
3,090833	0,1	1,594484
3,092500	0,1	1,598653
3,094167	0,1	1,525656
3,095833	0,1	1,571118
3,097500	0,1	1,590834
3,099167	0,1	1,582647
3,100833	0,1	1,613207
3,102500	0,1	1,594591
3,104167	0,1	1,593711
3,105833	0,1	1,582474
3,107500	0,1	1,576491
3,109167	0,1	1,577711
3,110833	0,1	1,570024
3,112500	0,1	1,591687
3,114167	0,1	1,623614
3,115833	0,1	1,569610
3,117500	0,1	1,629278
3,119167	0,1	1,591691
3,120833	0,1	1,627694
3,122500	0,1	1,644127
3,124167	0,1	1,649650
3,125833	0,1	1,640179
3,127500	0,1	1,702229
3,129167	0,1	1,686168
3,130833	0,1	1,707118
3,132500	0,1	1,714440
3,134167	0,1	1,693856
3,135833	0,1	1,709045
3,137500	0,1	1,734591
3,139167	0,1	1,777198
3,140833	0,1	1,714588
3,142500	0,1	1,802964
3,144167	0,1	1,776856
3,145833	0,1	1,772836
3,147500	0,1	1,764356
3,149167	0,1	1,790904
3,150833	0,1	1,835967
3,152500	0,1	1,809931
3,154167	0,1	1,839416
3,155833	0,1	1,850983
3,157500	0,1	1,835406
3,159167	0,1	1,902494
3,160833	0,1	1,892526
3,162500	0,1	1,943846
3,164167	0,1	1,886435
3,165833	0,1	1,877462
3,167500	0,1	1,969456
3,169167	0,1	1,936533
3,170833	0,1	1,903019
3,172500	0,1	1,942763
3,174167	0,1	1,941628
3,175833	0,1	1,959423
3,177500	0,1	1,955836
3,179167	0,1	1,995815
3,180833	0,1	1,978459
3,182500	0,1	1,997399
3,184167	0,1	2,005372
3,185833	0,1	1,966898
3,187500	0,1	2,006728
3,189167	0,1	1,986131
3,190833	0,1	1,990435
3,192500	0,1	1,961441
3,194167	0,1	2,022294
3,195833	0,1	2,025687
3,197500	0,1	2,014564
3,199167	0,1	2,005734
3,200833	0,1	1,985850
3,202500	0,1	2,040180
3,204167	0,1	2,058994
3,205833	0,1	1,980188
3,207500	0,1	1,985991
3,209167	0,1	1,957417
3,210833	0,1	1,983685
3,212500	0,1	1,955257
3,214167	0,1	1,967027
3,215833	0,1	1,936166
3,217500	0,1	1,911408
3,219167	0,1	1,942328
3,220833	0,1	1,915210
3,222500	0,1	1,914275
3,224167	0,1	1,894618
3,225833	0,1	1,904940
3,227500	0,1	1,885998
3,229167	0,1	1,895544
3,230833	0,1	1,885432
3,232500	0,1	1,838348
3,234167	0,1	1,886421
3,235833	0,1	1,842228
3,237500	0,1	1,828806
3,239167	0,1	1,801481
3,240833	0,1	1,806128
3,242500	0,1	1,791931
3,244167	0,1	1,828513
3,245833	0,1	1,778659
3,247500	0,1	1,766886
3,249167	0,1	1,767662
3,250833	0,1	1,758265
3,252500	0,1	1,724850
3,254167	0,1	1,717584
3,255833	0,1	1,715935
3,257500	0,1	1,678782
3,259167	0,1	1,693959
3,260833	0,1	1,667448
3,262500	0,1	1,682872
3,264167	0,1	1,648875
3,265833	0,1	1,609776
3,267500	0,1	1,620690
3,269167	0,1	1,634306
3,270833	0,1	1,590632
3,272500	0,1	1,547110
3,274167	0,1	1,540264
3,275833	0,1	1,541621
3,277500	0,1	1,533189
3,279167	0,1	1,527971
3,280833	0,1	1,499635
3,282500	0,1	1,473657
3,284167	0,1	1,485058
3,285833	0,1	1,475314
3,287500	0,1	1,474929
3,289167	0,1	1,410459
3,290833	0,1	1,447337
3,292500	0,1	1,415462
3,294167	0,1	1,401042
3,295833	0,1	1,396031
3,297500	0,1	1,360046
3,299167	0,1	1,350703
3,300833	0,1	1,392777
3,302500	0,1	1,350998
3,304167	0,1	1,335594
3,305833	0,1	1,357770
3,307500	0,1	1,269442
3,309167	0,1	1,298185
3,310833	0,1	1,305862
3,312500	0,1	1,280495
3,314167	0,1	1,238383
3,315833	0,1	1,247046
3,317500	0,1	1,233746
3,319167	0,1	1,233656
3,320833	0,1	1,246369
3,322500	0,1	1,251615
3,324167	0,1	1,211197
3,325833	0,1	1,191587
3,327500	0,1	1,173076
3,329167	0,1	1,152692
3,330833	0,1	1,159886
3,332500	0,1	1,158155
3,334167	0,1	1,157046
3,335833	0,1	1,144106
3,337500	0,1	1,167397
3,339167	0,1	1,136037
3,340833	0,1	1,122269
3,342500	0,1	1,128980
3,344167	0,1	1,095375
3,345833	0,1	1,088764
3,347500	0,1	1,105210
3,349167	0,1	1,069318
3,350833	0,1	1,087578
3,352500	0,1	1,092295
3,354167	0,1	1,061156
3,355833	0,1	1,051437
3,357500	0,1	1,057192
3,359167	0,1	1,034589
3,360833	0,1	1,093636
3,362500	0,1	1,031221
3,364167	0,1	1,036118
3,365833	0,1	1,037162
3,367500	0,1	1,016006
3,369167	0,1	1,026334
3,370833	0,1	0,984958
3,372500	0,1	0,964305
3,374167	0,1	1,006476
3,375833	0,1	1,011754
3,377500	0,1	1,016266
3,379167	0,1	1,012512
3,380833	0,1	0,953707
3,382500	0,1	1,001030
3,384167	0,1	0,991175
3,385833	0,1	0,939886
3,387500	0,1	0,971491
3,389167	0,1	0,990944
3,390833	0,1	0,966660
3,392500	0,1	0,937634
3,394167	0,1	0,983294
3,395833	0,1	0,982457
3,397500	0,1	0,988236
3,399167	0,1	0,939108
3,400833	0,1	0,934542
3,402500	0,1	0,924695
3,404167	0,1	0,929252
3,405833	0,1	0,993158
3,407500	0,1	0,955911
3,409167	0,1	0,895996
3,410833	0,1	0,945729
3,412500	0,1	0,916388
3,414167	0,1	0,921915
3,415833	0,1	0,914426
3,417500	0,1	0,947136
3,419167	0,1	0,939121
3,420833	0,1	0,917790
3,422500	0,1	0,936134
3,424167	0,1	0,927586
3,425833	0,1	0,924075
3,427500	0,1	0,903298
3,429167	0,1	0,912157
3,430833	0,1	0,943756
3,432500	0,1	0,932165
3,434167	0,1	0,957757
3,435833	0,1	0,934812
3,437500	0,1	0,929942
3,439167	0,1	0,932205
3,440833	0,1	0,946183
3,442500	0,1	0,946300
3,444167	0,1	0,947630
3,445833	0,1	0,944096
3,447500	0,1	0,948384
3,449167	0,1	0,989874
3,450833	0,1	0,948708
3,452500	0,1	0,936430
3,454167	0,1	0,924828
3,455833	0,1	0,957467
3,457500	0,1	0,985365
3,459167	0,1	0,988569
3,460833	0,1	0,956905
3,462500	0,1	1,006698
3,464167	0,1	0,953065
3,465833	0,1	1,027142
3,467500	0,1	1,045849
3,469167	0,1	1,081881
3,470833	0,1	1,034662
3,472500	0,1	1,051208
3,474167	0,1	1,027344
3,475833	0,1	1,032894
3,477500	0,1	1,124334
3,479167	0,1	1,067166
3,480833	0,1	1,087022
3,482500	0,1	1,114078
3,484167	0,1	1,143558
3,485833	0,1	1,108781
3,487500	0,1	1,131577
3,489167	0,1	1,122469
3,490833	0,1	1,174196
3,492500	0,1	1,201422
3,494167	0,1	1,223216
3,495833	0,1	1,199210
3,497500	0,1	1,205786
3,499167	0,1	1,220176
3,500833	0,1	1,226867
3,502500	0,1	1,295221
3,504167	0,1	1,267067
3,505833	0,1	1,330770
3,507500	0,1	1,300541
3,509167	0,1	1,297954
3,510833	0,1	1,299888
3,512500	0,1	1,294730
3,514167	0,1	1,308629
3,515833	0,1	1,331457
3,517500	0,1	1,318667
3,519167	0,1	1,354018
3,520833	0,1	1,375956
3,522500	0,1	1,360245
3,524167	0,1	1,353570
3,525833	0,1	1,347796
3,527500	0,1	1,381760
3,529167	0,1	1,436157
3,530833	0,1	1,436018
3,532500	0,1	1,367355
3,534167	0,1	1,390710
3,535833	0,1	1,444559
3,537500	0,1	1,397878
3,539167	0,1	1,435311
3,540833	0,1	1,396487
3,542500	0,1	1,425452
3,544167	0,1	1,403458
3,545833	0,1	1,436300
3,547500	0,1	1,446916
3,549167	0,1	1,413800
3,550833	0,1	1,414998
3,552500	0,1	1,459786
3,554167	0,1	1,481348
3,555833	0,1	1,458031
3,557500	0,1	1,461404
3,559167	0,1	1,453950
3,560833	0,1	1,412443
3,562500	0,1	1,435738
3,564167	0,1	1,434962
3,565833	0,1	1,416993
3,567500	0,1	1,403609
3,569167	0,1	1,476846
3,570833	0,1	1,425556
3,572500	0,1	1,441631
3,574167	0,1	1,407294
3,575833	0,1	1,421135
3,577500	0,1	1,416443
3,579167	0,1	1,371797
3,580833	0,1	1,444760
3,582500	0,1	1,389370
3,584167	0,1	1,393196
3,585833	0,1	1,376761
3,587500	0,1	1,382616
3,589167	0,1	1,354001
3,590833	0,1	1,345829
3,592500	0,1	1,364123
3,594167	0,1	1,325210
3,595833	0,1	1,335502
3,597500	0,1	1,357806
3,599167	0,1	1,348850
3,600833	0,1	1,329890
3,602500	0,1	1,305836
3,604167	0,1	1,327199
3,605833	0,1	1,277189
3,607500	0,1	1,299461
3,609167	0,1	1,302045
3,610833	0,1	1,269360
3,612500	0,1	1,265993
3,614167	0,1	1,265857
3,615833	0,1	1,290275
3,617500	0,1	1,221505
3,619167	0,1	1,228004
3,620833	0,1	1,222645
3,622500	0,1	1,195631
3,624167	0,1	1,188849
3,625833	0,1	1,227129
3,627500	0,1	1,218911
3,629167	0,1	1,220536
3,630833	0,1	1,167993
3,632500	0,1	1,194973
3,634167	0,1	1,154207
3,635833	0,1	1,129345
3,637500	0,1	1,170550
3,639167	0,1	1,155512
3,640833	0,1	1,107361
3,642500	0,1	1,108303
3,644167	0,1	1,108505
3,645833	0,1	1,148424
3,647500	0,1	1,084374
3,649167	0,1	1,109632
3,650833	0,1	1,098613
3,652500	0,1	1,069827
3,654167	0,1	1,078998
3,655833	0,1	1,010528
3,657500	0,1	1,045024
3,659167	0,1	1,015207
3,660833	0,1	1,044337
3,662500	0,1	1,051233
3,664167	0,1	0,994697
3,665833	0,1	1,045821
3,667500	0,1	1,019252
3,669167	0,1	0,976978
3,670833	0,1	0,986481
3,672500	0,1	0,959949
3,674167	0,1	0,989075
3,675833	0,1	0,942842
3,677500	0,1	0,952743
3,679167	0,1	0,903347
3,680833	0,1	0,949420
3,682500	0,1	0,916101
3,684167	0,1	0,963600
3,685833	0,1	0,934857
3,687500	0,1	0,916345
3,689167	0,1	0,936248
3,690833	0,1	0,918278
3,692500	0,1	0,915075
3,694167	0,1	0,965732
3,695833	0,1	0,875909
3,697500	0,1	0,922351
3,699167	0,1	0,874634
3,700833	0,1	0,852876
3,702500	0,1	0,875576
3,704167	0,1	0,918263
3,705833	0,1	0,867309
3,707500	0,1	0,886978
3,709167	0,1	0,841730
3,710833	0,1	0,906945
3,712500	0,1	0,868685
3,714167	0,1	0,836769
3,715833	0,1	0,902417
3,717500	0,1	0,871881
3,719167	0,1	0,884627
3,720833	0,1	0,846817
3,722500	0,1	0,862162
3,724167	0,1	0,910264
3,725833	0,1	0,828141
3,727500	0,1	0,840229
3,729167	0,1	0,859152
3,730833	0,1	0,840986
3,732500	0,1	0,853315
3,734167	0,1	0,857300
3,735833	0,1	0,841366
3,737500	0,1	0,864423
3,739167	0,1	0,867518
3,740833	0,1	0,862904
3,742500	0,1	0,851124
3,744167	0,1	0,847675
3,745833	0,1	0,823011
3,747500	0,1	0,861041
3,749167	0,1	0,837633
3,750833	0,1	0,856493
3,752500	0,1	0,860339
3,754167	0,1	0,873711
3,755833	0,1	0,857254
3,757500	0,1	0,852252
3,759167	0,1	0,907304
3,760833	0,1	0,872946
3,762500	0,1	0,888846
3,764167	0,1	0,867787
3,765833	0,1	0,861052
3,767500	0,1	0,877825
3,769167	0,1	0,893780
3,770833	0,1	0,897005
3,772500	0,1	0,898897
3,774167	0,1	0,880966
3,775833	0,1	0,885577
3,777500	0,1	0,899935
3,779167	0,1	0,915180
3,780833	0,1	0,885596
3,782500	0,1	0,903380
3,784167	0,1	0,925200
3,785833	0,1	0,897145
3,787500	0,1	0,898203
3,789167	0,1	0,933799
3,790833	0,1	0,949674
3,792500	0,1	0,963386
3,794167	0,1	0,933723
3,795833	0,1	0,936765
3,797500	0,1	0,947141
3,799167	0,1	0,922831
3,800833	0,1	0,952780
3,802500	0,1	0,959322
3,804167	0,1	0,966990
3,805833	0,1	0,950724
3,807500	0,1	0,947590
3,809167	0,1	0,974961
3,810833	0,1	0,952081
3,812500	0,1	0,973053
3,814167	0,1	0,998345
3,815833	0,1	0,987529
3,817500	0,1	1,023195
3,819167	0,1	1,005225
3,820833	0,1	1,000331
3,822500	0,1	1,038309
3,824167	0,1	0,984095
3,825833	0,1	0,969194
3,827500	0,1	1,014589
3,829167	0,1	1,053337
3,830833	0,1	1,030767
3,832500	0,1	1,020939
3,834167	0,1	1,020735
3,835833	0,1	1,041981
3,837500	0,1	1,049943
3,839167	0,1	1,029410
3,840833	0,1	1,059852
3,842500	0,1	1,093910
3,844167	0,1	1,066470
3,845833	0,1	1,094690
3,847500	0,1	1,065625
3,849167	0,1	1,070952
3,850833	0,1	1,063308
3,852500	0,1	1,099093
3,854167	0,1	1,085607
3,855833	0,1	1,067380
3,857500	0,1	1,081866
3,859167	0,1	1,037884
3,860833	0,1	1,119197
3,862500	0,1	1,112864
3,864167	0,1	1,143510
3,865833	0,1	1,071528
3,867500	0,1	1,079065
3,869167	0,1	1,084070
3,870833	0,1	1,088871
3,872500	0,1	1,110810
3,874167	0,1	1,115462
3,875833	0,1	1,158673
3,877500	0,1	1,122941
3,879167	0,1	1,148342
3,880833	0,1	1,107158
3,882500	0,1	1,100903
3,884167	0,1	1,132776
3,885833	0,1	1,069235
3,887500	0,1	1,077889
3,889167	0,1	1,109564
3,890833	0,1	1,122929
3,892500	0,1	1,126222
3,894167	0,1	1,095838
3,895833	0,1	1,028977
3,897500	0,1	1,119572
3,899167	0,1	1,111529
3,900833	0,1	1,075919
3,902500	0,1	1,115588
3,904167	0,1	1,104014
3,905833	0,1	1,094565
3,907500	0,1	1,038221
3,909167	0,1	1,114666
3,910833	0,1	1,099591
3,912500	0,1	1,089633
3,914167	0,1	1,051621
3,915833	0,1	1,084641
3,917500	0,1	1,097828
3,919167	0,1	1,063071
3,920833	0,1	1,059794
3,922500	0,1	1,053127
3,924167	0,1	1,025587
3,925833	0,1	1,029426
3,927500	0,1	1,023205
3,929167	0,1	1,009558
3,930833	0,1	1,034133
3,932500	0,1	0,995249
3,934167	0,1	0,969750
3,935833	0,1	0,990012
3,937500	0,1	1,019262
3,939167	0,1	0,958621
3,940833	0,1	0,969941
3,942500	0,1	0,967811
3,944167	0,1	0,981921
3,945833	0,1	0,972748
3,947500	0,1	0,943638
3,949167	0,1	0,976160
3,950833	0,1	0,949372
3,952500	0,1	0,947873
3,954167	0,1	0,923502
3,955833	0,1	0,917631
3,957500	0,1	0,901538
3,959167	0,1	0,957263
3,960833	0,1	0,943881
3,962500	0,1	0,904591
3,964167	0,1	0,920094
3,965833	0,1	0,931828
3,967500	0,1	0,920250
3,969167	0,1	0,877947
3,970833	0,1	0,919196
3,972500	0,1	0,875750
3,974167	0,1	0,890426
3,975833	0,1	0,885827
3,977500	0,1	0,882763
3,979167	0,1	0,849103
3,980833	0,1	0,871248
3,982500	0,1	0,871451
3,984167	0,1	0,901781
3,985833	0,1	0,854735
3,987500	0,1	0,875495
3,989167	0,1	0,852059
3,990833	0,1	0,838722
3,992500	0,1	0,847253
3,994167	0,1	0,858982
3,995833	0,1	0,831862
3,997500	0,1	0,853759
3,999167	0,1	0,805028
4,000833	0,1	0,826984
4,002500	0,1	0,823899
4,004167	0,1	0,809308
4,005833	0,1	0,779514
4,007500	0,1	0,797505
4,009167	0,1	0,795905
4,010833	0,1	0,803951
4,012500	0,1	0,790819
4,014167	0,1	0,755007
4,015833	0,1	0,771931
4,017500	0,1	0,802432
4,019167	0,1	0,806698
4,020833	0,1	0,803466
4,022500	0,1	0,773100
4,024167	0,1	0,750521
4,025833	0,1	0,782852
4,027500	0,1	0,742320
4,029167	0,1	0,824510
4,030833	0,1	0,755303
4,032500	0,1	0,776505
4,034167	0,1	0,820785
4,035833	0,1	0,811396
4,037500	0,1	0,774521
4,039167	0,1	0,816932
4,040833	0,1	0,812880
4,042500	0,1	0,796262
4,044167	0,1	0,789751
4,045833	0,1	0,806498
4,047500	0,1	0,789372
4,049167	0,1	0,779575
4,050833	0,1	0,822312
4,052500	0,1	0,801287
4,054167	0,1	0,820870
4,055833	0,1	0,795555
4,057500	0,1	0,827889
4,059167	0,1	0,816789
4,060833	0,1	0,848626
4,062500	0,1	0,803200
4,064167	0,1	0,844286
4,065833	0,1	0,846821
4,067500	0,1	0,838946
4,069167	0,1	0,839273
4,070833	0,1	0,862241
4,072500	0,1	0,845721
4,074167	0,1	0,851764
4,075833	0,1	0,843075
4,077500	0,1	0,834224
4,079167	0,1	0,902053
4,080833	0,1	0,911999
4,082500	0,1	0,949466
4,084167	0,1	0,920634
4,085833	0,1	0,918919
4,087500	0,1	0,949557
4,089167	0,1	0,976474
4,090833	0,1	0,981279
4,092500	0,1	1,013947
4,094167	0,1	0,980602
4,095833	0,1	1,005926
4,097500	0,1	1,019911
4,099167	0,1	1,034580
4,100833	0,1	1,076168
4,102500	0,1	1,025126
4,104167	0,1	1,007825
4,105833	0,1	1,069094
4,107500	0,1	1,104204
4,109167	0,1	1,096477
4,110833	0,1	1,094365
4,112500	0,1	1,128906
4,114167	0,1	1,073770
4,115833	0,1	1,166891
4,117500	0,1	1,152642
4,119167	0,1	1,134636
4,120833	0,1	1,187112
4,122500	0,1	1,235666
4,124167	0,1	1,199300
4,125833	0,1	1,219566
4,127500	0,1	1,240188
4,129167	0,1	1,252579
4,130833	0,1	1,249407
4,132500	0,1	1,274388
4,134167	0,1	1,323337
4,135833	0,1	1,327049
4,137500	0,1	1,316154
4,139167	0,1	1,319394
4,140833	0,1	1,323179
4,142500	0,1	1,410832
4,144167	0,1	1,383710
4,145833	0,1	1,367138
4,147500	0,1	1,397092
4,149167	0,1	1,436888
4,150833	0,1	1,437940
4,152500	0,1	1,453178
4,154167	0,1	1,404413
4,155833	0,1	1,463766
4,157500	0,1	1,473183
4,159167	0,1	1,499828
4,160833	0,1	1,513811
4,162500	0,1	1,549038
4,164167	0,1	1,522787
4,165833	0,1	1,526707
4,167500	0,1	1,545597
4,169167	0,1	1,555267
4,170833	0,1	1,536049
4,172500	0,1	1,562998
4,174167	0,1	1,549740
4,175833	0,1	1,589666
4,177500	0,1	1,634021
4,179167	0,1	1,570775
4,180833	0,1	1,587561
4,182500	0,1	1,614798
4,184167	0,1	1,664071
4,185833	0,1	1,617974
4,187500	0,1	1,672176
4,189167	0,1	1,644584
4,190833	0,1	1,641528
4,192500	0,1	1,679282
4,194167	0,1	1,676044
4,195833	0,1	1,668735
4,197500	0,1	1,700945
4,199167	0,1	1,642625
4,200833	0,1	1,645042
4,202500	0,1	1,644915
4,204167	0,1	1,696630
4,205833	0,1	1,676126
4,207500	0,1	1,689765
4,209167	0,1	1,691905
4,210833	0,1	1,657566
4,212500	0,1	1,665581
4,214167	0,1	1,716139
4,215833	0,1	1,698305
4,217500	0,1	1,689464
4,219167	0,1	1,704885
4,220833	0,1	1,692563
4,222500	0,1	1,715074
4,224167	0,1	1,689905
4,225833	0,1	1,677268
4,227500	0,1	1,684582
4,229167	0,1	1,686540
4,230833	0,1	1,642214
4,232500	0,1	1,698576
4,234167	0,1	1,665860
4,235833	0,1	1,688661
4,237500	0,1	1,642414
4,239167	0,1	1,700931
4,240833	0,1	1,667160
4,242500	0,1	1,646568
4,244167	0,1	1,619018
4,245833	0,1	1,622459
4,247500	0,1	1,638248
4,249167	0,1	1,625920
4,250833	0,1	1,610289
4,252500	0,1	1,587399
4,254167	0,1	1,598651
4,255833	0,1	1,596154
4,257500	0,1	1,600337
4,259167	0,1	1,624677
4,260833	0,1	1,559768
4,262500	0,1	1,565019
4,264167	0,1	1,535914
4,265833	0,1	1,566211
4,267500	0,1	1,606472
4,269167	0,1	1,545247
4,270833	0,1	1,534550
4,272500	0,1	1,509096
4,274167	0,1	1,514390
4,275833	0,1	1,535615
4,277500	0,1	1,492638
4,279167	0,1	1,507934
4,280833	0,1	1,485726
4,282500	0,1	1,486778
4,284167	0,1	1,499915
4,285833	0,1	1,474893
4,287500	0,1	1,469368
4,289167	0,1	1,456713
4,290833	0,1	1,436023
4,292500	0,1	1,434812
4,294167	0,1	1,442058
4,295833	0,1	1,411711
4,297500	0,1	1,393877
4,299167	0,1	1,375326
4,300833	0,1	1,441906
4,302500	0,1	1,379657
4,304167	0,1	1,345920
4,305833	0,1	1,338513
4,307500	0,1	1,346470
4,309167	0,1	1,335676
4,310833	0,1	1,330310
4,312500	0,1	1,349914
4,314167	0,1	1,314583
4,315833	0,1	1,309652
4,317500	0,1	1,273605
4,319167	0,1	1,317092
4,320833	0,1	1,300047
4,322500	0,1	1,263692
4,324167	0,1	1,257577
4,325833	0,1	1,268569
4,327500	0,1	1,278619
4,329167	0,1	1,208385
4,330833	0,1	1,198119
4,332500	0,1	1,205229
4,334167	0,1	1,201430
4,335833	0,1	1,202651
4,337500	0,1	1,211118
4,339167	0,1	1,162082
4,340833	0,1	1,165113
4,342500	0,1	1,158358
4,344167	0,1	1,158732
4,345833	0,1	1,154421
4,347500	0,1	1,143528
4,349167	0,1	1,110802
4,350833	0,1	1,131046
4,352500	0,1	1,142252
4,354167	0,1	1,087442
4,355833	0,1	1,055555
4,357500	0,1	1,101426
4,359167	0,1	1,106569
4,360833	0,1	1,062983
4,362500	0,1	1,087200
4,364167	0,1	1,086826
4,365833	0,1	1,041753
4,367500	0,1	1,044697
4,369167	0,1	1,016762
4,370833	0,1	1,021469
4,372500	0,1	1,009046
4,374167	0,1	1,024934
4,375833	0,1	0,971403
4,377500	0,1	0,997010
4,379167	0,1	1,015174
4,380833	0,1	0,972579
4,382500	0,1	0,995368
4,384167	0,1	0,966241
4,385833	0,1	0,955032
4,387500	0,1	0,930922
4,389167	0,1	0,927784
4,390833	0,1	0,938026
4,392500	0,1	0,942919
4,394167	0,1	0,956073
4,395833	0,1	0,916704
4,397500	0,1	0,884561
4,399167	0,1	0,934547
4,400833	0,1	0,887208
4,402500	0,1	0,909559
4,404167	0,1	0,906004
4,405833	0,1	0,922870
4,407500	0,1	0,867508
4,409167	0,1	0,904086
4,410833	0,1	0,896453
4,412500	0,1	0,852276
4,414167	0,1	0,884083
4,415833	0,1	0,824532
4,417500	0,1	0,839110
4,419167	0,1	0,852826
4,420833	0,1	0,868672
4,422500	0,1	0,808330
4,424167	0,1	0,780486
4,425833	0,1	0,826991
4,427500	0,1	0,824966
4,429167	0,1	0,801103
4,430833	0,1	0,756651
4,432500	0,1	0,740894
4,434167	0,1	0,769716
4,435833	0,1	0,760508
4,437500	0,1	0,781212
4,439167	0,1	0,778874
4,440833	0,1	0,725861
4,442500	0,1	0,756120
4,444167	0,1	0,741238
4,445833	0,1	0,737893
4,447500	0,1	0,746098
4,449167	0,1	0,736243
4,450833	0,1	0,764459
4,452500	0,1	0,673917
4,454167	0,1	0,737523
4,455833	0,1	0,730902
4,457500	0,1	0,697634
4,459167	0,1	0,691093
4,460833	0,1	0,692349
4,462500	0,1	0,686676
4,464167	0,1	0,661532
4,465833	0,1	0,694370
4,467500	0,1	0,679500
4,469167	0,1	0,635259
4,470833	0,1	0,686953
4,472500	0,1	0,652322
4,474167	0,1	0,639240
4,475833	0,1	0,695940
4,477500	0,1	0,615366
4,479167	0,1	0,666277
4,480833	0,1	0,617194
4,482500	0,1	0,645606
4,484167	0,1	0,584930
4,485833	0,1	0,621195
4,487500	0,1	0,625197
4,489167	0,1	0,614475
4,490833	0,1	0,615635
4,492500	0,1	0,613091
4,494167	0,1	0,616663
4,495833	0,1	0,578676
4,497500	0,1	0,578441
4,499167	0,1	0,585137
4,500833	0,1	0,556876
4,502500	0,1	0,571515
4,504167	0,1	0,565918
4,505833	0,1	0,547860
4,507500	0,1	0,554130
4,509167	0,1	0,577470
4,510833	0,1	0,512970
4,512500	0,1	0,516912
4,514167	0,1	0,561495
4,515833	0,1	0,542610
4,517500	0,1	0,532884
4,519167	0,1	0,512604
4,520833	0,1	0,560237
4,522500	0,1	0,530442
4,524167	0,1	0,525671
4,525833	0,1	0,489397
4,527500	0,1	0,486587
4,529167	0,1	0,511339
4,530833	0,1	0,472207
4,532500	0,1	0,489384
4,534167	0,1	0,471911
4,535833	0,1	0,512975
4,537500	0,1	0,472079
4,539167	0,1	0,505959
4,540833	0,1	0,480058
4,542500	0,1	0,500394
4,544167	0,1	0,486108
4,545833	0,1	0,493474
4,547500	0,1	0,472331
4,549167	0,1	0,484365
4,550833	0,1	0,479314
4,552500	0,1	0,458877
4,554167	0,1	0,478147
4,555833	0,1	0,451762
4,557500	0,1	0,466818
4,559167	0,1	0,431227
4,560833	0,1	0,415611
4,562500	0,1	0,429771
4,564167	0,1	0,432381
4,565833	0,1	0,459830
4,567500	0,1	0,411501
4,569167	0,1	0,437685
4,570833	0,1	0,426199
4,572500	0,1	0,385565
4,574167	0,1	0,423420
4,575833	0,1	0,391733
4,577500	0,1	0,373324
4,579167	0,1	0,410290
4,580833	0,1	0,381885
4,582500	0,1	0,386575
4,584167	0,1	0,406044
4,585833	0,1	0,373552
4,587500	0,1	0,361509
4,589167	0,1	0,377235
4,590833	0,1	0,368391
4,592500	0,1	0,400955
4,594167	0,1	0,377215
4,595833	0,1	0,372422
4,597500	0,1	0,343618
4,599167	0,1	0,383609
4,600833	0,1	0,347093
4,602500	0,1	0,377712
4,604167	0,1	0,354686
4,605833	0,1	0,310382
4,607500	0,1	0,345208
4,609167	0,1	0,351879
4,610833	0,1	0,344058
4,612500	0,1	0,348314
4,614167	0,1	0,352785
4,615833	0,1	0,359992
4,617500	0,1	0,328108
4,619167	0,1	0,367906
4,620833	0,1	0,331454
4,622500	0,1	0,372763
4,624167	0,1	0,386642
4,625833	0,1	0,359327
4,627500	0,1	0,355714
4,629167	0,1	0,355649
4,630833	0,1	0,339237
4,632500	0,1	0,305937
4,634167	0,1	0,338753
4,635833	0,1	0,310251
4,637500	0,1	0,338810
4,639167	0,1	0,283345
4,640833	0,1	0,308434
4,642500	0,1	0,327362
4,644167	0,1	0,292550
4,645833	0,1	0,281312
4,647500	0,1	0,317188
4,649167	0,1	0,289365
4,650833	0,1	0,326224
4,652500	0,1	0,329903
4,654167	0,1	0,314744
4,655833	0,1	0,281155
4,657500	0,1	0,311423
4,659167	0,1	0,322686
4,660833	0,1	0,309413
4,662500	0,1	0,272636
4,664167	0,1	0,313325
4,665833	0,1	0,276271
4,667500	0,1	0,298972
4,669167	0,1	0,279510
4,670833	0,1	0,262172
4,672500	0,1	0,294880
4,674167	0,1	0,258921
4,675833	0,1	0,267023
4,677500	0,1	0,249492
4,679167	0,1	0,280760
4,680833	0,1	0,310653
4,682500	0,1	0,282213
4,684167	0,1	0,276943
4,685833	0,1	0,266183
4,687500	0,1	0,295660
4,689167	0,1	0,266933
4,690833	0,1	0,278026
4,692500	0,1	0,256571
4,694167	0,1	0,279665
4,695833	0,1	0,281020
4,697500	0,1	0,269792
4,699167	0,1	0,286872
4,700833	0,1	0,250618
4,702500	0,1	0,276963
4,704167	0,1	0,256027
4,705833	0,1	0,284685
4,707500	0,1	0,294216
4,709167	0,1	0,281224
4,710833	0,1	0,214176
4,712500	0,1	0,255838
4,714167	0,1	0,220287
4,715833	0,1	0,265347
4,717500	0,1	0,240812
4,719167	0,1	0,282270
4,720833	0,1	0,241069
4,722500	0,1	0,268569
4,724167	0,1	0,252456
4,725833	0,1	0,234842
4,727500	0,1	0,264735
4,729167	0,1	0,283400
4,730833	0,1	0,276517
4,732500	0,1	0,209380
4,734167	0,1	0,255557
4,735833	0,1	0,200143
4,737500	0,1	0,241918
4,739167	0,1	0,239634
4,740833	0,1	0,225228
4,742500	0,1	0,223168
4,744167	0,1	0,193059
4,745833	0,1	0,253208
4,747500	0,1	0,254118
4,749167	0,1	0,231638
4,750833	0,1	0,234296
4,752500	0,1	0,258491
4,754167	0,1	0,218282
4,755833	0,1	0,204863
4,757500	0,1	0,184464
4,759167	0,1	0,186717
4,760833	0,1	0,234411
4,762500	0,1	0,200075
4,764167	0,1	0,235232
4,765833	0,1	0,247136
4,767500	0,1	0,234892
4,769167	0,1	0,266412
4,770833	0,1	0,203362
4,772500	0,1	0,176618
4,774167	0,1	0,198685
4,775833	0,1	0,184399
4,777500	0,1	0,242522
4,779167	0,1	0,181522
4,780833	0,1	0,233172
4,782500	0,1	0,223270
4,784167	0,1	0,241407
4,785833	0,1	0,192483
4,787500	0,1	0,246837
4,789167	0,1	0,221559
4,790833	0,1	0,238670
4,792500	0,1	0,217418
4,794167	0,1	0,228867
4,795833	0,1	0,195634
4,797500	0,1	0,243432
4,799167	0,1	0,239872
4,800833	0,1	0,180550
4,802500	0,1	0,244324
4,804167	0,1	0,199825
4,805833	0,1	0,209046
4,807500	0,1	0,214321
4,809167	0,1	0,222698
4,810833	0,1	0,197725
4,812500	0,1	0,204404
4,814167	0,1	0,208404
4,815833	0,1	0,203991
4,817500	0,1	0,234491
4,819167	0,1	0,274801
4,820833	0,1	0,236501
4,822500	0,1	0,234270
4,824167	0,1	0,201272
4,825833	0,1	0,216540
4,827500	0,1	0,249428
4,829167	0,1	0,233870
4,830833	0,1	0,263220
4,832500	0,1	0,208684
4,834167	0,1	0,234844
4,835833	0,1	0,221821
4,837500	0,1	0,228831
4,839167	0,1	0,241609
4,840833	0,1	0,238360
4,842500	0,1	0,233275
4,844167	0,1	0,236716
4,845833	0,1	0,231029
4,847500	0,1	0,218288
4,849167	0,1	0,241571
4,850833	0,1	0,235230
4,852500	0,1	0,210242
4,854167	0,1	0,247130
4,855833	0,1	0,274224
4,857500	0,1	0,215069
4,859167	0,1	0,220945
4,860833	0,1	0,219383
4,862500	0,1	0,185290
4,864167	0,1	0,212160
4,865833	0,1	0,227251
4,867500	0,1	0,233210
4,869167	0,1	0,233109
4,870833	0,1	0,244400
4,872500	0,1	0,230475
4,874167	0,1	0,204740
4,875833	0,1	0,247256
4,877500	0,1	0,245146
4,879167	0,1	0,229252
4,880833	0,1	0,207087
4,882500	0,1	0,233532
4,884167	0,1	0,224709
4,885833	0,1	0,228832
4,887500	0,1	0,235720
4,889167	0,1	0,258238
4,890833	0,1	0,208052
4,892500	0,1	0,232814
4,894167	0,1	0,231028
4,895833	0,1	0,262603
4,897500	0,1	0,215166
4,899167	0,1	0,201559
4,900833	0,1	0,269393
4,902500	0,1	0,201622
4,904167	0,1	0,229494
4,905833	0,1	0,253569
4,907500	0,1	0,291597
4,909167	0,1	0,250595
4,910833	0,1	0,233858
4,912500	0,1	0,241310
4,914167	0,1	0,267725
4,915833	0,1	0,238264
4,917500	0,1	0,213144
4,919167	0,1	0,234998
4,920833	0,1	0,206445
4,922500	0,1	0,257134
4,924167	0,1	0,259530
4,925833	0,1	0,224526
4,927500	0,1	0,278634
4,929167	0,1	0,238973
4,930833	0,1	0,202736
4,932500	0,1	0,267111
4,934167	0,1	0,236334
4,935833	0,1	0,232505
4,937500	0,1	0,267762
4,939167	0,1	0,255898
4,940833	0,1	0,224273
4,942500	0,1	0,224744
4,944167	0,1	0,244726
4,945833	0,1	0,295820
4,947500	0,1	0,243354
4,949167	0,1	0,273906
4,950833	0,1	0,295310
4,952500	0,1	0,279484
4,954167	0,1	0,207640
4,955833	0,1	0,261839
4,957500	0,1	0,229283
4,959167	0,1	0,241510
4,960833	0,1	0,241576
4,962500	0,1	0,299353
4,964167	0,1	0,289615
4,965833	0,1	0,249245
4,967500	0,1	0,280243
4,969167	0,1	0,230989
4,970833	0,1	0,264506
4,972500	0,1	0,262394
4,974167	0,1	0,278985
4,975833	0,1	0,237915
4,977500	0,1	0,287318
4,979167	0,1	0,284429
4,980833	0,1	0,257343
4,982500	0,1	0,289452
4,984167	0,1	0,263398
4,985833	0,1	0,276956
4,987500	0,1	0,315918
4,989167	0,1	0,239235
4,990833	0,1	0,298582
4,992500	0,1	0,313268
4,994167	0,1	0,278255
4,995833	0,1	0,318339
4,997500	0,1	0,263746
4,999167	0,1	0,309581
5,000833	0,1	0,311176
5,002500	0,1	0,271957
5,004167	0,1	0,309583
5,005833	0,1	0,319143
5,007500	0,1	0,288424
5,009167	0,1	0,318214
5,010833	0,1	0,309239
5,012500	0,1	0,319342
5,014167	0,1	0,309141
5,015833	0,1	0,309791
5,017500	0,1	0,316704
5,019167	0,1	0,338973
5,020833	0,1	0,333351
5,022500	0,1	0,326100
5,024167	0,1	0,332705
5,025833	0,1	0,306706
5,027500	0,1	0,290678
5,029167	0,1	0,319954
5,030833	0,1	0,326685
5,032500	0,1	0,306705
5,034167	0,1	0,375106
5,035833	0,1	0,313177
5,037500	0,1	0,314232
5,039167	0,1	0,368312
5,040833	0,1	0,329172
5,042500	0,1	0,360177
5,044167	0,1	0,352979
5,045833	0,1	0,336273
5,047500	0,1	0,336497
5,049167	0,1	0,330133
5,050833	0,1	0,352871
5,052500	0,1	0,368230
5,054167	0,1	0,404016
5,055833	0,1	0,391920
5,057500	0,1	0,320360
5,059167	0,1	0,417260
5,060833	0,1	0,412231
5,062500	0,1	0,382848
5,064167	0,1	0,352431
5,065833	0,1	0,390329
5,067500	0,1	0,369554
5,069167	0,1	0,350280
5,070833	0,1	0,387338
5,072500	0,1	0,390790
5,074167	0,1	0,390599
5,075833	0,1	0,395326
5,077500	0,1	0,363156
5,079167	0,1	0,388565
5,080833	0,1	0,382587
5,082500	0,1	0,423971
5,084167	0,1	0,409074
5,085833	0,1	0,400645
5,087500	0,1	0,403892
5,089167	0,1	0,427577
5,090833	0,1	0,381917
5,092500	0,1	0,402217
5,094167	0,1	0,435525
5,095833	0,1	0,436177
5,097500	0,1	0,406411
5,099167	0,1	0,422334
5,100833	0,1	0,453583
5,102500	0,1	0,419707
5,104167	0,1	0,399583
5,105833	0,1	0,432985
5,107500	0,1	0,443128
5,109167	0,1	0,485289
5,110833	0,1	0,412342
5,112500	0,1	0,433308
5,114167	0,1	0,412299
5,115833	0,1	0,480711
5,117500	0,1	0,431746
5,119167	0,1	0,406085
5,120833	0,1	0,464652
5,122500	0,1	0,432805
5,124167	0,1	0,429868
5,125833	0,1	0,410143
5,127500	0,1	0,473566
5,129167	0,1	0,406931
5,130833	0,1	0,436845
5,132500	0,1	0,413166
5,134167	0,1	0,383010
5,135833	0,1	0,392431
5,137500	0,1	0,418884
5,139167	0,1	0,394600
5,140833	0,1	0,435715
5,142500	0,1	0,438299
5,144167	0,1	0,447183
5,145833	0,1	0,437822
5,147500	0,1	0,409082
5,149167	0,1	0,442190
5,150833	0,1	0,398429
5,152500	0,1	0,419498
5,154167	0,1	0,426038
5,155833	0,1	0,407792
5,157500	0,1	0,408755
5,159167	0,1	0,432888
5,160833	0,1	0,429775
5,162500	0,1	0,426556
5,164167	0,1	0,447730
5,165833	0,1	0,460509
5,167500	0,1	0,430745
5,169167	0,1	0,377547
5,170833	0,1	0,424677
5,172500	0,1	0,392377
5,174167	0,1	0,459436
5,175833	0,1	0,382286
5,177500	0,1	0,398228
5,179167	0,1	0,411131
5,180833	0,1	0,390546
5,182500	0,1	0,378888
5,184167	0,1	0,379210
5,185833	0,1	0,372938
5,187500	0,1	0,358767
5,189167	0,1	0,406037
5,190833	0,1	0,363413
5,192500	0,1	0,353912
5,194167	0,1	0,394521
5,195833	0,1	0,356523
5,197500	0,1	0,395259
5,199167	0,1	0,380276
5,200833	0,1	0,355910
5,202500	0,1	0,383581
5,204167	0,1	0,343657
5,205833	0,1	0,359671
5,207500	0,1	0,339563
5,209167	0,1	0,348993
5,210833	0,1	0,343231
5,212500	0,1	0,354741
5,214167	0,1	0,322062
5,215833	0,1	0,331253
5,217500	0,1	0,297698
5,219167	0,1	0,354901
5,220833	0,1	0,340015
5,222500	0,1	0,305075
5,224167	0,1	0,330677
5,225833	0,1	0,314652
5,227500	0,1	0,344827
5,229167	0,1	0,332074
5,230833	0,1	0,261668
5,232500	0,1	0,321615
5,234167	0,1	0,304482
5,235833	0,1	0,280618
5,237500	0,1	0,311460
5,239167	0,1	0,252744
5,240833	0,1	0,298839
5,242500	0,1	0,279257
5,244167	0,1	0,293407
5,245833	0,1	0,255489
5,247500	0,1	0,272813
5,249167	0,1	0,296270
5,250833	0,1	0,273856
5,252500	0,1	0,286201
5,254167	0,1	0,281865
5,255833	0,1	0,248852
5,257500	0,1	0,311906
5,259167	0,1	0,262697
5,260833	0,1	0,272044
5,262500	0,1	0,234014
5,264167	0,1	0,305595
5,265833	0,1	0,316585
5,267500	0,1	0,259556
5,269167	0,1	0,252517
5,270833	0,1	0,251138
5,272500	0,1	0,241843
5,274167	0,1	0,242646
5,275833	0,1	0,258919
5,277500	0,1	0,259330
5,279167	0,1	0,241490
5,280833	0,1	0,259615
5,282500	0,1	0,247244
5,284167	0,1	0,244995
5,285833	0,1	0,237236
5,287500	0,1	0,252031
5,289167	0,1	0,257244
5,290833	0,1	0,217549
5,292500	0,1	0,233244
5,294167	0,1	0,220507
5,295833	0,1	0,243147
5,297500	0,1	0,229227
5,299167	0,1	0,216130
5,300833	0,1	0,217615
5,302500	0,1	0,208258
5,304167	0,1	0,199147
5,305833	0,1	0,248792
5,307500	0,1	0,156400
5,309167	0,1	0,204155
5,310833	0,1	0,207950
5,312500	0,1	0,224689
5,314167	0,1	0,240385
5,315833	0,1	0,204049
5,317500	0,1	0,202150
5,319167	0,1	0,208215
5,320833	0,1	0,191909
5,322500	0,1	0,193128
5,324167	0,1	0,210951
5,325833	0,1	0,200686
5,327500	0,1	0,204003
5,329167	0,1	0,174289
5,330833	0,1	0,202319
5,332500	0,1	0,178171
5,334167	0,1	0,173185
5,335833	0,1	0,175025
5,337500	0,1	0,143644
5,339167	0,1	0,191767
5,340833	0,1	0,196319
5,342500	0,1	0,163023
5,344167	0,1	0,170671
5,345833	0,1	0,172703
5,347500	0,1	0,157103
5,349167	0,1	0,154652
5,350833	0,1	0,158903
5,352500	0,1	0,156291
5,354167	0,1	0,167767
5,355833	0,1	0,159486
5,357500	0,1	0,173672
5,359167	0,1	0,120631
5,360833	0,1	0,148855
5,362500	0,1	0,163404
5,364167	0,1	0,158880
5,365833	0,1	0,122870
5,367500	0,1	0,165036
5,369167	0,1	0,162850
5,370833	0,1	0,145602
5,372500	0,1	0,138404
5,374167	0,1	0,134622
5,375833	0,1	0,131304
5,377500	0,1	0,130181
5,379167	0,1	0,146197
5,380833	0,1	0,131329
5,382500	0,1	0,188914
5,384167	0,1	0,130445
5,385833	0,1	0,168294
5,387500	0,1	0,132975
5,389167	0,1	0,129413
5,390833	0,1	0,100558
5,392500	0,1	0,133038
5,394167	0,1	0,099978
5,395833	0,1	0,118103
5,397500	0,1	0,085389
5,399167	0,1	0,096876
5,400833	0,1	0,080965
5,402500	0,1	0,148946
5,404167	0,1	0,108837
5,405833	0,1	0,074144
5,407500	0,1	0,105126
5,409167	0,1	0,152851
5,410833	0,1	0,068242
5,412500	0,1	0,108135
5,414167	0,1	0,100302
5,415833	0,1	0,107893
5,417500	0,1	0,113579
5,419167	0,1	0,113684
5,420833	0,1	0,113250
5,422500	0,1	0,104618
5,424167	0,1	0,093665
5,425833	0,1	0,075570
5,427500	0,1	0,108012
5,429167	0,1	0,122645
5,430833	0,1	0,093771
5,432500	0,1	0,094738
5,434167	0,1	0,134510
5,435833	0,1	0,104206
5,437500	0,1	0,063873
5,439167	0,1	0,093632
5,440833	0,1	0,064142
5,442500	0,1	0,067765
5,444167	0,1	0,060609
5,445833	0,1	0,097427
5,447500	0,1	0,067565
5,449167	0,1	0,072309
5,450833	0,1	0,050135
5,452500	0,1	0,047265
5,454167	0,1	0,040276
5,455833	0,1	0,064563
5,457500	0,1	0,074569
5,459167	0,1	0,053330
5,460833	0,1	0,040713
5,462500	0,1	0,088317
5,464167	0,1	0,043541
5,465833	0,1	0,034550
5,467500	0,1	0,086717
5,469167	0,1	0,079718
5,470833	0,1	0,058972
5,472500	0,1	0,100871
5,474167	0,1	0,060969
5,475833	0,1	0,082449
5,477500	0,1	0,089778
5,479167	0,1	0,079883
5,480833	0,1	0,069136
5,482500	0,1	0,067808
5,484167	0,1	0,072804
5,485833	0,1	0,063264
5,487500	0,1	0,077117
5,489167	0,1	0,031197
5,490833	0,1	0,032577
5,492500	0,1	0,032389
5,494167	0,1	0,054335
5,495833	0,1	0,033204
5,497500	0,1	0,068586
5,499167	0,1	0,074465
5,500833	0,1	0,041609
5,502500	0,1	0,061223
5,504167	0,1	0,030344
5,505833	0,1	0,041392
5,507500	0,1	0,081262
5,509167	0,1	0,044910
5,510833	0,1	0,029965
5,512500	0,1	0,043218
5,514167	0,1	0,045108
5,515833	0,1	0,048448
5,517500	0,1	0,068840
5,519167	0,1	0,054179
5,520833	0,1	0,067988
5,522500	0,1	0,035695
5,524167	0,1	0,016938
5,525833	0,1	0,068376
5,527500	0,1	0,063720
5,529167	0,1	0,044158
5,530833	0,1	0,048074
5,532500	0,1	0,060791
5,534167	0,1	0,101741
5,535833	0,1	0,095737
5,537500	0,1	0,014899
5,539167	0,1	0,045017
5,540833	0,1	0,046975
5,542500	0,1	0,036086
5,544167	0,1	-0,012971
5,545833	0,1	0,039265
5,547500	0,1	0,051787
5,549167	0,1	0,065707
5,550833	0,1	-0,008193
5,552500	0,1	0,041362
5,554167	0,1	0,039051
5,555833	0,1	0,023888
5,557500	0,1	0,057548
5,559167	0,1	0,048097
5,560833	0,1	0,023536
5,562500	0,1	0,039501
5,564167	0,1	0,000927
5,565833	0,1	0,066027
5,567500	0,1	0,016011
5,569167	0,1	0,033734
5,570833	0,1	0,009262
5,572500	0,1	0,061609
5,574167	0,1	0,020178
5,575833	0,1	0,071861
5,577500	0,1	0,065276
5,579167	0,1	0,032066
5,580833	0,1	0,026955
5,582500	0,1	0,053379
5,584167	0,1	0,033080
5,585833	0,1	0,022081
5,587500	0,1	0,039378
5,589167	0,1	0,051600
5,590833	0,1	-0,010293
5,592500	0,1	0,080708
5,594167	0,1	0,007988
5,595833	0,1	0,029232
5,597500	0,1	0,023180
5,599167	0,1	0,030022
5,600833	0,1	0,042035
5,602500	0,1	0,024469
5,604167	0,1	0,025440
5,605833	0,1	0,092128
5,607500	0,1	0,005148
5,609167	0,1	0,026097
5,610833	0,1	0,077545
5,612500	0,1	0,041963
5,614167	0,1	0,024177
5,615833	0,1	0,042053
5,617500	0,1	0,008475
5,619167	0,1	0,034562
5,620833	0,1	0,015195
5,622500	0,1	0,046387
5,624167	0,1	0,009203
5,625833	0,1	0,041012
5,627500	0,1	0,038864
5,629167	0,1	0,001943
5,630833	0,1	0,047710
5,632500	0,1	0,053134
5,634167	0,1	0,023205
5,635833	0,1	0,073853
5,637500	0,1	0,035221
5,639167	0,1	0,031892
5,640833	0,1	0,040499
5,642500	0,1	0,019406
5,644167	0,1	0,052196
5,645833	0,1	0,025528
5,647500	0,1	0,054106
5,649167	0,1	0,035630
5,650833	0,1	0,006815
5,652500	0,1	0,005917
5,654167	0,1	0,042091
5,655833	0,1	0,036643
5,657500	0,1	0,033282
5,659167	0,1	0,025442
5,660833	0,1	0,045974
5,662500	0,1	0,025194
5,664167	0,1	0,036764
5,665833	0,1	0,011046
5,667500	0,1	0,043772
5,669167	0,1	0,054960
5,670833	0,1	0,001760
5,672500	0,1	0,026762
5,674167	0,1	0,045643
5,675833	0,1	0,042744
5,677500	0,1	0,023888
5,679167	0,1	0,026124
5,680833	0,1	0,061219
5,682500	0,1	0,048764
5,684167	0,1	0,067343
5,685833	0,1	0,016198
5,687500	0,1	0,079058
5,689167	0,1	0,056337
5,690833	0,1	0,062348
5,692500	0,1	0,056106
5,694167	0,1	0,039324
5,695833	0,1	0,022415
5,697500	0,1	0,063751
5,699167	0,1	0,041130
5,700833	0,1	0,044360
5,702500	0,1	0,009327
5,704167	0,1	0,075323
5,705833	0,1	0,041277
5,707500	0,1	0,065167
5,709167	0,1	0,069237
5,710833	0,1	0,052332
5,712500	0,1	0,103835
5,714167	0,1	0,015501
5,715833	0,1	0,035456
5,717500	0,1	0,062570
5,719167	0,1	0,050090
5,720833	0,1	0,071058
5,722500	0,1	0,048743
5,724167	0,1	0,095143
5,725833	0,1	0,051840
5,727500	0,1	0,044218
5,729167	0,1	0,037287
5,730833	0,1	0,091053
5,732500	0,1	0,071796
5,734167	0,1	0,055361
5,735833	0,1	0,074360
5,737500	0,1	0,057685
5,739167	0,1	0,088965
5,740833	0,1	0,099238
5,742500	0,1	0,036493
5,744167	0,1	0,096820
5,745833	0,1	0,044665
5,747500	0,1	0,070893
5,749167	0,1	0,066562
5,750833	0,1	0,092013
5,752500	0,1	0,054474
5,754167	0,1	0,009019
5,755833	0,1	0,069057
5,757500	0,1	0,059799
5,759167	0,1	0,079814
5,760833	0,1	0,050405
5,762500	0,1	0,065002
5,764167	0,1	0,026715
5,765833	0,1	0,055869
5,767500	0,1	0,050876
5,769167	0,1	0,092634
5,770833	0,1	0,044454
5,772500	0,1	0,046165
5,774167	0,1	0,073960
5,775833	0,1	0,080546
5,777500	0,1	0,039890
5,779167	0,1	0,060540
5,780833	0,1	0,076934
5,782500	0,1	0,052688
5,784167	0,1	0,020344
5,785833	0,1	0,077586
5,787500	0,1	0,071645
5,789167	0,1	0,060443
5,790833	0,1	0,051188
5,792500	0,1	0,054713
5,794167	0,1	0,074878
5,795833	0,1	0,066005
5,797500	0,1	0,068634
5,799167	0,1	0,063119
5,800833	0,1	0,087430
5,802500	0,1	0,081960
5,804167	0,1	0,054618
5,805833	0,1	0,064360
5,807500	0,1	0,093879
5,809167	0,1	0,067273
5,810833	0,1	0,104732
5,812500	0,1	0,065989
5,814167	0,1	0,119586
5,815833	0,1	0,061783
5,817500	0,1	0,077223
5,819167	0,1	0,071937
5,820833	0,1	0,088012
5,822500	0,1	0,066733
5,824167	0,1	0,038641
5,825833	0,1	0,058444
5,827500	0,1	0,070623
5,829167	0,1	0,066460
5,830833	0,1	0,050235
5,832500	0,1	0,055107
5,834167	0,1	0,103812
5,835833	0,1	0,076734
5,837500	0,1	0,028023
5,839167	0,1	0,068274
5,840833	0,1	0,067059
5,842500	0,1	0,060360
5,844167	0,1	0,091764
5,845833	0,1	0,055573
5,847500	0,1	0,080872
5,849167	0,1	0,081167
5,850833	0,1	0,094091
5,852500	0,1	0,082912
5,854167	0,1	0,069199
5,855833	0,1	0,057040
5,857500	0,1	0,038514
5,859167	0,1	0,055684
5,860833	0,1	0,053822
5,862500	0,1	0,067118
5,864167	0,1	0,056915
5,865833	0,1	0,050545
5,867500	0,1	0,037890
5,869167	0,1	0,057843
5,870833	0,1	0,036004
5,872500	0,1	0,030773
5,874167	0,1	0,052218
5,875833	0,1	0,076888
5,877500	0,1	0,081997
5,879167	0,1	0,037545
5,880833	0,1	0,065809
5,882500	0,1	0,038516
5,884167	0,1	0,044566
5,885833	0,1	0,040958
5,887500	0,1	0,041643
5,889167	0,1	0,020257
5,890833	0,1	0,031805
5,892500	0,1	0,065329
5,894167	0,1	0,022608
5,895833	0,1	0,057091
5,897500	0,1	0,052474
5,899167	0,1	0,086722
5,900833	0,1	0,026471
5,902500	0,1	0,031476
5,904167	0,1	0,036848
5,905833	0,1	0,035772
5,907500	0,1	0,024716
5,909167	0,1	0,047551
5,910833	0,1	0,052284
5,912500	0,1	0,060087
5,914167	0,1	0,029680
5,915833	0,1	-0,008493
5,917500	0,1	0,023211
5,919167	0,1	0,048463
5,920833	0,1	-0,003758
5,922500	0,1	0,036675
5,924167	0,1	0,036206
5,925833	0,1	0,062383
5,927500	0,1	0,015783
5,929167	0,1	0,009528
5,930833	0,1	-0,021380
5,932500	0,1	0,056998
5,934167	0,1	0,025861
5,935833	0,1	0,026289
5,937500	0,1	0,065658
5,939167	0,1	0,047082
5,940833	0,1	0,051621
5,942500	0,1	0,003501
5,944167	0,1	0,004049
5,945833	0,1	0,002018
5,947500	0,1	0,045492
5,949167	0,1	-0,003883
5,950833	0,1	0,008154
5,952500	0,1	0,033047
5,954167	0,1	0,013017
5,955833	0,1	0,006977
5,957500	0,1	0,020810
5,959167	0,1	-0,053438
5,960833	0,1	0,000945
5,962500	0,1	0,013237
5,964167	0,1	0,039810
5,965833	0,1	0,016566
5,967500	0,1	-0,013596
5,969167	0,1	-0,017753
5,970833	0,1	0,009085
5,972500	0,1	0,007908
5,974167	0,1	0,001084
5,975833	0,1	-0,003561
5,977500	0,1	-0,003190
5,979167	0,1	0,002429
5,980833	0,1	0,027633
5,982500	0,1	0,022993
5,984167	0,1	0,006356
5,985833	0,1	0,004134
5,987500	0,1	-0,008270
5,989167	0,1	-0,010764
5,990833	0,1	-0,008898
5,992500	0,1	-0,035196
5,994167	0,1	0,003003
5,995833	0,1	-0,016628
5,997500	0,1	-0,010100
5,999167	0,1	-0,020076
6,000833	0,1	0,020099
