File Path	chrom://chromeleon01/ikbm_chromeleon/2022/Rezex/Esteban/220612_chitin_4_7.seq/522.smp/UV_VIS_1.channel/UV_VIS_1.chm
Channel	UV_VIS_1

Injection Information:
Data Vault	ikbm_chromeleon
Injection	7_24h-NT_1
Injection Number	25
Position	RC5
Comment	
Processing Method	New ProcMethod
Instrument Method	Short_Rezex_6min_194nm
Type	Unknown
Status	Finished
Injection Date	12.06.2022
Injection Time	19:49:39
Injection Volume (µl)	8,000
Dilution Factor	1,0000
Weight	1,0000

Chromatogram Data Information:
Time Min. (min)	0,000833
Time Max. (min)	6,000833
Data Points	3601
Detector	UV
Generating Data System	Chromeleon 7.2.9.11323
Exporting Data System	Chromeleon 7.2.9.0
Operator	Instrument Controller
Signal Quantity	Absorbance
Signal Unit	mAU
Signal Min.	-0,075901
Signal Max.	119,233847
Channel	UV_VIS_1
Driver Name	VWD3000.dll
Channel Type	Evaluation
Min. Step (s)	0,1
Max. Step (s)	0,1
Average Step (s)	0,1

Signal Parameter Information:
Signal Info	WVL:194 nm

Chromatogram Data:
Time (min)	Step (s)	Value (mAU)
0,000833	n.a.	0,057365
0,002500	0,1	0,049116
0,004167	0,1	-0,004857
0,005833	0,1	0,032498
0,007500	0,1	0,033610
0,009167	0,1	0,014537
0,010833	0,1	0,002909
0,012500	0,1	0,022134
0,014167	0,1	0,024867
0,015833	0,1	0,041229
0,017500	0,1	0,035237
0,019167	0,1	0,041198
0,020833	0,1	0,039178
0,022500	0,1	0,055783
0,024167	0,1	-0,000331
0,025833	0,1	0,003090
0,027500	0,1	0,016614
0,029167	0,1	0,017030
0,030833	0,1	-0,016408
0,032500	0,1	0,018327
0,034167	0,1	-0,057128
0,035833	0,1	-0,019186
0,037500	0,1	-0,010560
0,039167	0,1	-0,075901
0,040833	0,1	0,020213
0,042500	0,1	-0,011593
0,044167	0,1	-0,023008
0,045833	0,1	-0,032164
0,047500	0,1	-0,019517
0,049167	0,1	0,016131
0,050833	0,1	-0,020272
0,052500	0,1	0,006857
0,054167	0,1	0,019665
0,055833	0,1	0,001347
0,057500	0,1	0,015279
0,059167	0,1	-0,002395
0,060833	0,1	0,026808
0,062500	0,1	0,013645
0,064167	0,1	0,047130
0,065833	0,1	0,020734
0,067500	0,1	0,058919
0,069167	0,1	-0,026394
0,070833	0,1	-0,019056
0,072500	0,1	0,017437
0,074167	0,1	0,030369
0,075833	0,1	-0,004340
0,077500	0,1	-0,003627
0,079167	0,1	0,050116
0,080833	0,1	0,014632
0,082500	0,1	0,065253
0,084167	0,1	0,006033
0,085833	0,1	-0,005403
0,087500	0,1	0,027082
0,089167	0,1	0,025910
0,090833	0,1	0,026156
0,092500	0,1	0,003418
0,094167	0,1	0,024570
0,095833	0,1	0,020006
0,097500	0,1	0,018503
0,099167	0,1	0,043111
0,100833	0,1	0,045372
0,102500	0,1	-0,006957
0,104167	0,1	0,015798
0,105833	0,1	0,008198
0,107500	0,1	0,009010
0,109167	0,1	0,040055
0,110833	0,1	0,041659
0,112500	0,1	0,014521
0,114167	0,1	0,010068
0,115833	0,1	0,033464
0,117500	0,1	-0,033960
0,119167	0,1	-0,019794
0,120833	0,1	-0,013596
0,122500	0,1	-0,015588
0,124167	0,1	-0,001653
0,125833	0,1	-0,007153
0,127500	0,1	-0,035656
0,129167	0,1	-0,007055
0,130833	0,1	0,003518
0,132500	0,1	-0,009543
0,134167	0,1	0,011412
0,135833	0,1	0,021688
0,137500	0,1	-0,019030
0,139167	0,1	-0,018870
0,140833	0,1	0,008067
0,142500	0,1	-0,001709
0,144167	0,1	-0,003244
0,145833	0,1	0,011443
0,147500	0,1	0,010343
0,149167	0,1	0,029310
0,150833	0,1	0,046244
0,152500	0,1	0,052731
0,154167	0,1	-0,009715
0,155833	0,1	0,056751
0,157500	0,1	0,021409
0,159167	0,1	0,036379
0,160833	0,1	0,022461
0,162500	0,1	0,027150
0,164167	0,1	0,037871
0,165833	0,1	0,030605
0,167500	0,1	0,043422
0,169167	0,1	-0,003554
0,170833	0,1	0,024738
0,172500	0,1	0,011818
0,174167	0,1	0,062861
0,175833	0,1	-0,000285
0,177500	0,1	0,026334
0,179167	0,1	0,073566
0,180833	0,1	0,032499
0,182500	0,1	0,045000
0,184167	0,1	0,029149
0,185833	0,1	-0,000706
0,187500	0,1	0,054088
0,189167	0,1	0,020136
0,190833	0,1	0,050978
0,192500	0,1	0,045207
0,194167	0,1	0,016024
0,195833	0,1	0,025571
0,197500	0,1	0,021417
0,199167	0,1	-0,004633
0,200833	0,1	0,066764
0,202500	0,1	0,038322
0,204167	0,1	0,067958
0,205833	0,1	0,062733
0,207500	0,1	0,012808
0,209167	0,1	0,057629
0,210833	0,1	0,050096
0,212500	0,1	0,027863
0,214167	0,1	0,049374
0,215833	0,1	-0,017889
0,217500	0,1	0,021989
0,219167	0,1	0,038557
0,220833	0,1	0,049897
0,222500	0,1	0,063055
0,224167	0,1	0,039794
0,225833	0,1	0,037197
0,227500	0,1	0,033930
0,229167	0,1	0,026325
0,230833	0,1	0,064920
0,232500	0,1	0,003474
0,234167	0,1	0,081826
0,235833	0,1	0,018210
0,237500	0,1	0,041502
0,239167	0,1	0,030650
0,240833	0,1	0,016910
0,242500	0,1	0,030813
0,244167	0,1	0,032489
0,245833	0,1	0,047930
0,247500	0,1	0,049881
0,249167	0,1	0,050908
0,250833	0,1	0,019570
0,252500	0,1	0,058644
0,254167	0,1	0,050115
0,255833	0,1	0,048224
0,257500	0,1	0,056491
0,259167	0,1	0,064970
0,260833	0,1	-0,007122
0,262500	0,1	0,031115
0,264167	0,1	0,050752
0,265833	0,1	0,050175
0,267500	0,1	0,065647
0,269167	0,1	0,051035
0,270833	0,1	0,050800
0,272500	0,1	0,028691
0,274167	0,1	0,008661
0,275833	0,1	0,072980
0,277500	0,1	0,046880
0,279167	0,1	0,031957
0,280833	0,1	0,061393
0,282500	0,1	0,003964
0,284167	0,1	0,048416
0,285833	0,1	0,051339
0,287500	0,1	0,050403
0,289167	0,1	0,052883
0,290833	0,1	0,077391
0,292500	0,1	0,031107
0,294167	0,1	0,015532
0,295833	0,1	0,054887
0,297500	0,1	0,016810
0,299167	0,1	0,022290
0,300833	0,1	0,062925
0,302500	0,1	0,067381
0,304167	0,1	0,033293
0,305833	0,1	0,040710
0,307500	0,1	0,053251
0,309167	0,1	0,062058
0,310833	0,1	0,055974
0,312500	0,1	0,056385
0,314167	0,1	0,074631
0,315833	0,1	0,065514
0,317500	0,1	0,078207
0,319167	0,1	0,061111
0,320833	0,1	0,058824
0,322500	0,1	0,015506
0,324167	0,1	0,071296
0,325833	0,1	0,047973
0,327500	0,1	0,064863
0,329167	0,1	0,015294
0,330833	0,1	0,075311
0,332500	0,1	0,045503
0,334167	0,1	0,085665
0,335833	0,1	0,038988
0,337500	0,1	0,061703
0,339167	0,1	0,062704
0,340833	0,1	0,066306
0,342500	0,1	0,060880
0,344167	0,1	0,021533
0,345833	0,1	0,045967
0,347500	0,1	0,055538
0,349167	0,1	0,071244
0,350833	0,1	0,069713
0,352500	0,1	0,056265
0,354167	0,1	0,059439
0,355833	0,1	0,078083
0,357500	0,1	0,084941
0,359167	0,1	0,126729
0,360833	0,1	0,081274
0,362500	0,1	0,106303
0,364167	0,1	0,077600
0,365833	0,1	0,089927
0,367500	0,1	0,055044
0,369167	0,1	0,053686
0,370833	0,1	0,103695
0,372500	0,1	0,061657
0,374167	0,1	0,059299
0,375833	0,1	0,070848
0,377500	0,1	0,038649
0,379167	0,1	0,113502
0,380833	0,1	0,068161
0,382500	0,1	0,096974
0,384167	0,1	0,090390
0,385833	0,1	0,071985
0,387500	0,1	0,057643
0,389167	0,1	0,084354
0,390833	0,1	0,066989
0,392500	0,1	0,076751
0,394167	0,1	0,043925
0,395833	0,1	0,093139
0,397500	0,1	0,101462
0,399167	0,1	0,038074
0,400833	0,1	0,068787
0,402500	0,1	0,058074
0,404167	0,1	0,043259
0,405833	0,1	0,093325
0,407500	0,1	0,091008
0,409167	0,1	0,085298
0,410833	0,1	0,112973
0,412500	0,1	0,074953
0,414167	0,1	0,080035
0,415833	0,1	0,108421
0,417500	0,1	0,101050
0,419167	0,1	0,139843
0,420833	0,1	0,112238
0,422500	0,1	0,067428
0,424167	0,1	0,077395
0,425833	0,1	0,067508
0,427500	0,1	0,094768
0,429167	0,1	0,103854
0,430833	0,1	0,100326
0,432500	0,1	0,079504
0,434167	0,1	0,087960
0,435833	0,1	0,056685
0,437500	0,1	0,084769
0,439167	0,1	0,108607
0,440833	0,1	0,063193
0,442500	0,1	0,069754
0,444167	0,1	0,067630
0,445833	0,1	0,057889
0,447500	0,1	0,114106
0,449167	0,1	0,119044
0,450833	0,1	0,076490
0,452500	0,1	0,104572
0,454167	0,1	0,104666
0,455833	0,1	0,114682
0,457500	0,1	0,089415
0,459167	0,1	0,065976
0,460833	0,1	0,102575
0,462500	0,1	0,096956
0,464167	0,1	0,079334
0,465833	0,1	0,092608
0,467500	0,1	0,123424
0,469167	0,1	0,131761
0,470833	0,1	0,091290
0,472500	0,1	0,070069
0,474167	0,1	0,103910
0,475833	0,1	0,079151
0,477500	0,1	0,097426
0,479167	0,1	0,045693
0,480833	0,1	0,103322
0,482500	0,1	0,109546
0,484167	0,1	0,070860
0,485833	0,1	0,089925
0,487500	0,1	0,119435
0,489167	0,1	0,080461
0,490833	0,1	0,107943
0,492500	0,1	0,093155
0,494167	0,1	0,108609
0,495833	0,1	0,108321
0,497500	0,1	0,088399
0,499167	0,1	0,114133
0,500833	0,1	0,109197
0,502500	0,1	0,096269
0,504167	0,1	0,071439
0,505833	0,1	0,125641
0,507500	0,1	0,109118
0,509167	0,1	0,107739
0,510833	0,1	0,125340
0,512500	0,1	0,145729
0,514167	0,1	0,129920
0,515833	0,1	0,106914
0,517500	0,1	0,148883
0,519167	0,1	0,151136
0,520833	0,1	0,136197
0,522500	0,1	0,125615
0,524167	0,1	0,156263
0,525833	0,1	0,119909
0,527500	0,1	0,131804
0,529167	0,1	0,129020
0,530833	0,1	0,111732
0,532500	0,1	0,140572
0,534167	0,1	0,104174
0,535833	0,1	0,122845
0,537500	0,1	0,126318
0,539167	0,1	0,134276
0,540833	0,1	0,127985
0,542500	0,1	0,159901
0,544167	0,1	0,138317
0,545833	0,1	0,156224
0,547500	0,1	0,128506
0,549167	0,1	0,102802
0,550833	0,1	0,181900
0,552500	0,1	0,155048
0,554167	0,1	0,138730
0,555833	0,1	0,112423
0,557500	0,1	0,136019
0,559167	0,1	0,076848
0,560833	0,1	0,109250
0,562500	0,1	0,160975
0,564167	0,1	0,146358
0,565833	0,1	0,161504
0,567500	0,1	0,131522
0,569167	0,1	0,151714
0,570833	0,1	0,176696
0,572500	0,1	0,142186
0,574167	0,1	0,148557
0,575833	0,1	0,158555
0,577500	0,1	0,154506
0,579167	0,1	0,140290
0,580833	0,1	0,154417
0,582500	0,1	0,142533
0,584167	0,1	0,170105
0,585833	0,1	0,111514
0,587500	0,1	0,145267
0,589167	0,1	0,130436
0,590833	0,1	0,164845
0,592500	0,1	0,143575
0,594167	0,1	0,118803
0,595833	0,1	0,116424
0,597500	0,1	0,170122
0,599167	0,1	0,190957
0,600833	0,1	0,113513
0,602500	0,1	0,187554
0,604167	0,1	0,203055
0,605833	0,1	0,161435
0,607500	0,1	0,168448
0,609167	0,1	0,159991
0,610833	0,1	0,162441
0,612500	0,1	0,143471
0,614167	0,1	0,186335
0,615833	0,1	0,160453
0,617500	0,1	0,185405
0,619167	0,1	0,159581
0,620833	0,1	0,206229
0,622500	0,1	0,189282
0,624167	0,1	0,162239
0,625833	0,1	0,162983
0,627500	0,1	0,188524
0,629167	0,1	0,134105
0,630833	0,1	0,175195
0,632500	0,1	0,181522
0,634167	0,1	0,169491
0,635833	0,1	0,199123
0,637500	0,1	0,188511
0,639167	0,1	0,175852
0,640833	0,1	0,180131
0,642500	0,1	0,216230
0,644167	0,1	0,201835
0,645833	0,1	0,187161
0,647500	0,1	0,178762
0,649167	0,1	0,217413
0,650833	0,1	0,158652
0,652500	0,1	0,190683
0,654167	0,1	0,177433
0,655833	0,1	0,238528
0,657500	0,1	0,210777
0,659167	0,1	0,208962
0,660833	0,1	0,188784
0,662500	0,1	0,247426
0,664167	0,1	0,278347
0,665833	0,1	0,179863
0,667500	0,1	0,220345
0,669167	0,1	0,214596
0,670833	0,1	0,213516
0,672500	0,1	0,183672
0,674167	0,1	0,205298
0,675833	0,1	0,261335
0,677500	0,1	0,230380
0,679167	0,1	0,269904
0,680833	0,1	0,231276
0,682500	0,1	0,182366
0,684167	0,1	0,244640
0,685833	0,1	0,242824
0,687500	0,1	0,223166
0,689167	0,1	0,237063
0,690833	0,1	0,210695
0,692500	0,1	0,215862
0,694167	0,1	0,243984
0,695833	0,1	0,253218
0,697500	0,1	0,216933
0,699167	0,1	0,254771
0,700833	0,1	0,248836
0,702500	0,1	0,245196
0,704167	0,1	0,251411
0,705833	0,1	0,227136
0,707500	0,1	0,273415
0,709167	0,1	0,274133
0,710833	0,1	0,289597
0,712500	0,1	0,290433
0,714167	0,1	0,284739
0,715833	0,1	0,267985
0,717500	0,1	0,284709
0,719167	0,1	0,256806
0,720833	0,1	0,283755
0,722500	0,1	0,293239
0,724167	0,1	0,262895
0,725833	0,1	0,289618
0,727500	0,1	0,286881
0,729167	0,1	0,304462
0,730833	0,1	0,269174
0,732500	0,1	0,322397
0,734167	0,1	0,320665
0,735833	0,1	0,309859
0,737500	0,1	0,309832
0,739167	0,1	0,326816
0,740833	0,1	0,311731
0,742500	0,1	0,339791
0,744167	0,1	0,355368
0,745833	0,1	0,299140
0,747500	0,1	0,338970
0,749167	0,1	0,333786
0,750833	0,1	0,352826
0,752500	0,1	0,341774
0,754167	0,1	0,389918
0,755833	0,1	0,325192
0,757500	0,1	0,320335
0,759167	0,1	0,365838
0,760833	0,1	0,371964
0,762500	0,1	0,342602
0,764167	0,1	0,369584
0,765833	0,1	0,345479
0,767500	0,1	0,377319
0,769167	0,1	0,393628
0,770833	0,1	0,327669
0,772500	0,1	0,379437
0,774167	0,1	0,353381
0,775833	0,1	0,342190
0,777500	0,1	0,345472
0,779167	0,1	0,393179
0,780833	0,1	0,343614
0,782500	0,1	0,378089
0,784167	0,1	0,356932
0,785833	0,1	0,345728
0,787500	0,1	0,343666
0,789167	0,1	0,320716
0,790833	0,1	0,360141
0,792500	0,1	0,386863
0,794167	0,1	0,328146
0,795833	0,1	0,328628
0,797500	0,1	0,350743
0,799167	0,1	0,354434
0,800833	0,1	0,320304
0,802500	0,1	0,370908
0,804167	0,1	0,330720
0,805833	0,1	0,360622
0,807500	0,1	0,353565
0,809167	0,1	0,353349
0,810833	0,1	0,334560
0,812500	0,1	0,355734
0,814167	0,1	0,323149
0,815833	0,1	0,382014
0,817500	0,1	0,325922
0,819167	0,1	0,374358
0,820833	0,1	0,357842
0,822500	0,1	0,350153
0,824167	0,1	0,354434
0,825833	0,1	0,358961
0,827500	0,1	0,363662
0,829167	0,1	0,357674
0,830833	0,1	0,367339
0,832500	0,1	0,336104
0,834167	0,1	0,339004
0,835833	0,1	0,375776
0,837500	0,1	0,386020
0,839167	0,1	0,373501
0,840833	0,1	0,376492
0,842500	0,1	0,366725
0,844167	0,1	0,380635
0,845833	0,1	0,384745
0,847500	0,1	0,381600
0,849167	0,1	0,349074
0,850833	0,1	0,379316
0,852500	0,1	0,366118
0,854167	0,1	0,397532
0,855833	0,1	0,390284
0,857500	0,1	0,411425
0,859167	0,1	0,345011
0,860833	0,1	0,358488
0,862500	0,1	0,387547
0,864167	0,1	0,370735
0,865833	0,1	0,442370
0,867500	0,1	0,405739
0,869167	0,1	0,425067
0,870833	0,1	0,397078
0,872500	0,1	0,406726
0,874167	0,1	0,387040
0,875833	0,1	0,370847
0,877500	0,1	0,392211
0,879167	0,1	0,445006
0,880833	0,1	0,422233
0,882500	0,1	0,386968
0,884167	0,1	0,379996
0,885833	0,1	0,414393
0,887500	0,1	0,407401
0,889167	0,1	0,436214
0,890833	0,1	0,430053
0,892500	0,1	0,430708
0,894167	0,1	0,448175
0,895833	0,1	0,450314
0,897500	0,1	0,422006
0,899167	0,1	0,431477
0,900833	0,1	0,452588
0,902500	0,1	0,460329
0,904167	0,1	0,439929
0,905833	0,1	0,456331
0,907500	0,1	0,478151
0,909167	0,1	0,452561
0,910833	0,1	0,469744
0,912500	0,1	0,495887
0,914167	0,1	0,481812
0,915833	0,1	0,451692
0,917500	0,1	0,481738
0,919167	0,1	0,466719
0,920833	0,1	0,486153
0,922500	0,1	0,489898
0,924167	0,1	0,496565
0,925833	0,1	0,493543
0,927500	0,1	0,491672
0,929167	0,1	0,514935
0,930833	0,1	0,521422
0,932500	0,1	0,538096
0,934167	0,1	0,489066
0,935833	0,1	0,531866
0,937500	0,1	0,506635
0,939167	0,1	0,535803
0,940833	0,1	0,530037
0,942500	0,1	0,552154
0,944167	0,1	0,559833
0,945833	0,1	0,538296
0,947500	0,1	0,577819
0,949167	0,1	0,578565
0,950833	0,1	0,600296
0,952500	0,1	0,586505
0,954167	0,1	0,564871
0,955833	0,1	0,589267
0,957500	0,1	0,577667
0,959167	0,1	0,550423
0,960833	0,1	0,599905
0,962500	0,1	0,600169
0,964167	0,1	0,589824
0,965833	0,1	0,601880
0,967500	0,1	0,559094
0,969167	0,1	0,580879
0,970833	0,1	0,606841
0,972500	0,1	0,611906
0,974167	0,1	0,576570
0,975833	0,1	0,620706
0,977500	0,1	0,672307
0,979167	0,1	0,648102
0,980833	0,1	0,641035
0,982500	0,1	0,644967
0,984167	0,1	0,666991
0,985833	0,1	0,661031
0,987500	0,1	0,661706
0,989167	0,1	0,689374
0,990833	0,1	0,715889
0,992500	0,1	0,691709
0,994167	0,1	0,685383
0,995833	0,1	0,730110
0,997500	0,1	0,702096
0,999167	0,1	0,739691
1,000833	0,1	0,733058
1,002500	0,1	0,771888
1,004167	0,1	0,755482
1,005833	0,1	0,749769
1,007500	0,1	0,787629
1,009167	0,1	0,820315
1,010833	0,1	0,823772
1,012500	0,1	0,824259
1,014167	0,1	0,834811
1,015833	0,1	0,875323
1,017500	0,1	0,873239
1,019167	0,1	0,880176
1,020833	0,1	0,902246
1,022500	0,1	0,915579
1,024167	0,1	0,930490
1,025833	0,1	0,908000
1,027500	0,1	0,938680
1,029167	0,1	0,949855
1,030833	0,1	0,925821
1,032500	0,1	0,954435
1,034167	0,1	1,008561
1,035833	0,1	0,974684
1,037500	0,1	1,019275
1,039167	0,1	1,037740
1,040833	0,1	1,010188
1,042500	0,1	1,075914
1,044167	0,1	1,068448
1,045833	0,1	1,081397
1,047500	0,1	1,108827
1,049167	0,1	1,065781
1,050833	0,1	1,137676
1,052500	0,1	1,150871
1,054167	0,1	1,181557
1,055833	0,1	1,233196
1,057500	0,1	1,261111
1,059167	0,1	1,285994
1,060833	0,1	1,353126
1,062500	0,1	1,451143
1,064167	0,1	1,532328
1,065833	0,1	1,679939
1,067500	0,1	1,808906
1,069167	0,1	2,035454
1,070833	0,1	2,243077
1,072500	0,1	2,553923
1,074167	0,1	2,948986
1,075833	0,1	3,333439
1,077500	0,1	3,809742
1,079167	0,1	4,402436
1,080833	0,1	5,014831
1,082500	0,1	5,704560
1,084167	0,1	6,556692
1,085833	0,1	7,361701
1,087500	0,1	8,281688
1,089167	0,1	9,275660
1,090833	0,1	10,282663
1,092500	0,1	11,326749
1,094167	0,1	12,398685
1,095833	0,1	13,438720
1,097500	0,1	14,496839
1,099167	0,1	15,480353
1,100833	0,1	16,413677
1,102500	0,1	17,303815
1,104167	0,1	18,127428
1,105833	0,1	18,871444
1,107500	0,1	19,428377
1,109167	0,1	20,030292
1,110833	0,1	20,458944
1,112500	0,1	20,775881
1,114167	0,1	21,075341
1,115833	0,1	21,224256
1,117500	0,1	21,330221
1,119167	0,1	21,354596
1,120833	0,1	21,344381
1,122500	0,1	21,259167
1,124167	0,1	21,108080
1,125833	0,1	21,000924
1,127500	0,1	20,830053
1,129167	0,1	20,680061
1,130833	0,1	20,512165
1,132500	0,1	20,383990
1,134167	0,1	20,232082
1,135833	0,1	20,153443
1,137500	0,1	20,056875
1,139167	0,1	20,063485
1,140833	0,1	20,067948
1,142500	0,1	20,124933
1,144167	0,1	20,325615
1,145833	0,1	20,506989
1,147500	0,1	20,775112
1,149167	0,1	21,086943
1,150833	0,1	21,504661
1,152500	0,1	21,930758
1,154167	0,1	22,426959
1,155833	0,1	22,999427
1,157500	0,1	23,637908
1,159167	0,1	24,264235
1,160833	0,1	24,994571
1,162500	0,1	25,644757
1,164167	0,1	26,395136
1,165833	0,1	27,093235
1,167500	0,1	27,880300
1,169167	0,1	28,626633
1,170833	0,1	29,351543
1,172500	0,1	30,045605
1,174167	0,1	30,734835
1,175833	0,1	31,385427
1,177500	0,1	31,948085
1,179167	0,1	32,576760
1,180833	0,1	33,101258
1,182500	0,1	33,561686
1,184167	0,1	34,019433
1,185833	0,1	34,471117
1,187500	0,1	34,860358
1,189167	0,1	35,253011
1,190833	0,1	35,600302
1,192500	0,1	36,045892
1,194167	0,1	36,448466
1,195833	0,1	36,938798
1,197500	0,1	37,535480
1,199167	0,1	38,225355
1,200833	0,1	38,982962
1,202500	0,1	39,910612
1,204167	0,1	40,998534
1,205833	0,1	42,226791
1,207500	0,1	43,718312
1,209167	0,1	45,397066
1,210833	0,1	47,313054
1,212500	0,1	49,486647
1,214167	0,1	51,873543
1,215833	0,1	54,483176
1,217500	0,1	57,258554
1,219167	0,1	60,290226
1,220833	0,1	63,503382
1,222500	0,1	66,867816
1,224167	0,1	70,371498
1,225833	0,1	73,931755
1,227500	0,1	77,576920
1,229167	0,1	81,225256
1,230833	0,1	84,826723
1,232500	0,1	88,448502
1,234167	0,1	91,907644
1,235833	0,1	95,315438
1,237500	0,1	98,588105
1,239167	0,1	101,612956
1,240833	0,1	104,486725
1,242500	0,1	107,084629
1,244167	0,1	109,523616
1,245833	0,1	111,621120
1,247500	0,1	113,502663
1,249167	0,1	115,170094
1,250833	0,1	116,518989
1,252500	0,1	117,587806
1,254167	0,1	118,384588
1,255833	0,1	118,918708
1,257500	0,1	119,233847
1,259167	0,1	119,219785
1,260833	0,1	118,926397
1,262500	0,1	118,538331
1,264167	0,1	117,731001
1,265833	0,1	116,793184
1,267500	0,1	115,628617
1,269167	0,1	114,283278
1,270833	0,1	112,722110
1,272500	0,1	111,006793
1,274167	0,1	109,174051
1,275833	0,1	107,120209
1,277500	0,1	105,033889
1,279167	0,1	102,811920
1,280833	0,1	100,496044
1,282500	0,1	98,144191
1,284167	0,1	95,658034
1,285833	0,1	93,141844
1,287500	0,1	90,663851
1,289167	0,1	88,136808
1,290833	0,1	85,613207
1,292500	0,1	83,137512
1,294167	0,1	80,660267
1,295833	0,1	78,216726
1,297500	0,1	75,802942
1,299167	0,1	73,488431
1,300833	0,1	71,213120
1,302500	0,1	69,002666
1,304167	0,1	66,884585
1,305833	0,1	64,810458
1,307500	0,1	62,835128
1,309167	0,1	60,840227
1,310833	0,1	59,018505
1,312500	0,1	57,245143
1,314167	0,1	55,604189
1,315833	0,1	53,941265
1,317500	0,1	52,452575
1,319167	0,1	50,912833
1,320833	0,1	49,540408
1,322500	0,1	48,159140
1,324167	0,1	46,883455
1,325833	0,1	45,652130
1,327500	0,1	44,473126
1,329167	0,1	43,383556
1,330833	0,1	42,288495
1,332500	0,1	41,280297
1,334167	0,1	40,249717
1,335833	0,1	39,329055
1,337500	0,1	38,390112
1,339167	0,1	37,536290
1,340833	0,1	36,678095
1,342500	0,1	35,841829
1,344167	0,1	35,014454
1,345833	0,1	34,279034
1,347500	0,1	33,538866
1,349167	0,1	32,840762
1,350833	0,1	32,130433
1,352500	0,1	31,434755
1,354167	0,1	30,824253
1,355833	0,1	30,188824
1,357500	0,1	29,494505
1,359167	0,1	28,957031
1,360833	0,1	28,342437
1,362500	0,1	27,743855
1,364167	0,1	27,199553
1,365833	0,1	26,657418
1,367500	0,1	26,063267
1,369167	0,1	25,566496
1,370833	0,1	25,043783
1,372500	0,1	24,581123
1,374167	0,1	24,096889
1,375833	0,1	23,609356
1,377500	0,1	23,102745
1,379167	0,1	22,698186
1,380833	0,1	22,237309
1,382500	0,1	21,803437
1,384167	0,1	21,432999
1,385833	0,1	20,988572
1,387500	0,1	20,597715
1,389167	0,1	20,245579
1,390833	0,1	19,864858
1,392500	0,1	19,520914
1,394167	0,1	19,172918
1,395833	0,1	18,817202
1,397500	0,1	18,513949
1,399167	0,1	18,206180
1,400833	0,1	17,881770
1,402500	0,1	17,635163
1,404167	0,1	17,384217
1,405833	0,1	17,029394
1,407500	0,1	16,795654
1,409167	0,1	16,575708
1,410833	0,1	16,302398
1,412500	0,1	16,015756
1,414167	0,1	15,873002
1,415833	0,1	15,638867
1,417500	0,1	15,396568
1,419167	0,1	15,228013
1,420833	0,1	15,042057
1,422500	0,1	14,854776
1,424167	0,1	14,677755
1,425833	0,1	14,504982
1,427500	0,1	14,313774
1,429167	0,1	14,128286
1,430833	0,1	13,992222
1,432500	0,1	13,851127
1,434167	0,1	13,676660
1,435833	0,1	13,498642
1,437500	0,1	13,388687
1,439167	0,1	13,206924
1,440833	0,1	13,070610
1,442500	0,1	12,945270
1,444167	0,1	12,773236
1,445833	0,1	12,657384
1,447500	0,1	12,503461
1,449167	0,1	12,325973
1,450833	0,1	12,232025
1,452500	0,1	12,145720
1,454167	0,1	12,005025
1,455833	0,1	11,889434
1,457500	0,1	11,757044
1,459167	0,1	11,616964
1,460833	0,1	11,558685
1,462500	0,1	11,389428
1,464167	0,1	11,294631
1,465833	0,1	11,213215
1,467500	0,1	11,106612
1,469167	0,1	10,982359
1,470833	0,1	10,952275
1,472500	0,1	10,851190
1,474167	0,1	10,717877
1,475833	0,1	10,657401
1,477500	0,1	10,565941
1,479167	0,1	10,513747
1,480833	0,1	10,450802
1,482500	0,1	10,356583
1,484167	0,1	10,343645
1,485833	0,1	10,225927
1,487500	0,1	10,180872
1,489167	0,1	10,155537
1,490833	0,1	10,091553
1,492500	0,1	10,053974
1,494167	0,1	10,055389
1,495833	0,1	10,045269
1,497500	0,1	9,932491
1,499167	0,1	9,986130
1,500833	0,1	9,890251
1,502500	0,1	9,907866
1,504167	0,1	9,836428
1,505833	0,1	9,836712
1,507500	0,1	9,804242
1,509167	0,1	9,799439
1,510833	0,1	9,767338
1,512500	0,1	9,756661
1,514167	0,1	9,724629
1,515833	0,1	9,724661
1,517500	0,1	9,731141
1,519167	0,1	9,743376
1,520833	0,1	9,708269
1,522500	0,1	9,669556
1,524167	0,1	9,654050
1,525833	0,1	9,615622
1,527500	0,1	9,640974
1,529167	0,1	9,598781
1,530833	0,1	9,590766
1,532500	0,1	9,618549
1,534167	0,1	9,549576
1,535833	0,1	9,540382
1,537500	0,1	9,514223
1,539167	0,1	9,510926
1,540833	0,1	9,506143
1,542500	0,1	9,479921
1,544167	0,1	9,461141
1,545833	0,1	9,445864
1,547500	0,1	9,427607
1,549167	0,1	9,417908
1,550833	0,1	9,408414
1,552500	0,1	9,331224
1,554167	0,1	9,371859
1,555833	0,1	9,290285
1,557500	0,1	9,267139
1,559167	0,1	9,284346
1,560833	0,1	9,237012
1,562500	0,1	9,253804
1,564167	0,1	9,222883
1,565833	0,1	9,204327
1,567500	0,1	9,129453
1,569167	0,1	9,126411
1,570833	0,1	9,128674
1,572500	0,1	9,080701
1,574167	0,1	9,041009
1,575833	0,1	9,051779
1,577500	0,1	9,032471
1,579167	0,1	8,988125
1,580833	0,1	8,997818
1,582500	0,1	8,967713
1,584167	0,1	8,911406
1,585833	0,1	8,867156
1,587500	0,1	8,838937
1,589167	0,1	8,824703
1,590833	0,1	8,785550
1,592500	0,1	8,786425
1,594167	0,1	8,725978
1,595833	0,1	8,697635
1,597500	0,1	8,661809
1,599167	0,1	8,620006
1,600833	0,1	8,612571
1,602500	0,1	8,578796
1,604167	0,1	8,558406
1,605833	0,1	8,543953
1,607500	0,1	8,496890
1,609167	0,1	8,462078
1,610833	0,1	8,402162
1,612500	0,1	8,378118
1,614167	0,1	8,371069
1,615833	0,1	8,340575
1,617500	0,1	8,290801
1,619167	0,1	8,304573
1,620833	0,1	8,254269
1,622500	0,1	8,230450
1,624167	0,1	8,180311
1,625833	0,1	8,119659
1,627500	0,1	8,157110
1,629167	0,1	8,067366
1,630833	0,1	8,044929
1,632500	0,1	8,036775
1,634167	0,1	8,017399
1,635833	0,1	7,962932
1,637500	0,1	7,952499
1,639167	0,1	7,932739
1,640833	0,1	7,892950
1,642500	0,1	7,901237
1,644167	0,1	7,875785
1,645833	0,1	7,784665
1,647500	0,1	7,801091
1,649167	0,1	7,810948
1,650833	0,1	7,768349
1,652500	0,1	7,790050
1,654167	0,1	7,731337
1,655833	0,1	7,726552
1,657500	0,1	7,723850
1,659167	0,1	7,683403
1,660833	0,1	7,672227
1,662500	0,1	7,690409
1,664167	0,1	7,677960
1,665833	0,1	7,621882
1,667500	0,1	7,629260
1,669167	0,1	7,633844
1,670833	0,1	7,629618
1,672500	0,1	7,672612
1,674167	0,1	7,638993
1,675833	0,1	7,656488
1,677500	0,1	7,687486
1,679167	0,1	7,694233
1,680833	0,1	7,719045
1,682500	0,1	7,677503
1,684167	0,1	7,699033
1,685833	0,1	7,762230
1,687500	0,1	7,756153
1,689167	0,1	7,811766
1,690833	0,1	7,812551
1,692500	0,1	7,825000
1,694167	0,1	7,832493
1,695833	0,1	7,912307
1,697500	0,1	7,935814
1,699167	0,1	7,948788
1,700833	0,1	8,002352
1,702500	0,1	8,029827
1,704167	0,1	8,045201
1,705833	0,1	8,062901
1,707500	0,1	8,174991
1,709167	0,1	8,123789
1,710833	0,1	8,199676
1,712500	0,1	8,203631
1,714167	0,1	8,250027
1,715833	0,1	8,237980
1,717500	0,1	8,281471
1,719167	0,1	8,315136
1,720833	0,1	8,340348
1,722500	0,1	8,319105
1,724167	0,1	8,392342
1,725833	0,1	8,425029
1,727500	0,1	8,391117
1,729167	0,1	8,418699
1,730833	0,1	8,424734
1,732500	0,1	8,414689
1,734167	0,1	8,474256
1,735833	0,1	8,453139
1,737500	0,1	8,466625
1,739167	0,1	8,453695
1,740833	0,1	8,452358
1,742500	0,1	8,467182
1,744167	0,1	8,428189
1,745833	0,1	8,417774
1,747500	0,1	8,455416
1,749167	0,1	8,362538
1,750833	0,1	8,374708
1,752500	0,1	8,355045
1,754167	0,1	8,330888
1,755833	0,1	8,330245
1,757500	0,1	8,269615
1,759167	0,1	8,249896
1,760833	0,1	8,226873
1,762500	0,1	8,214024
1,764167	0,1	8,179289
1,765833	0,1	8,124447
1,767500	0,1	8,103229
1,769167	0,1	8,039218
1,770833	0,1	8,006115
1,772500	0,1	7,959372
1,774167	0,1	7,896029
1,775833	0,1	7,884148
1,777500	0,1	7,827466
1,779167	0,1	7,801961
1,780833	0,1	7,775722
1,782500	0,1	7,731824
1,784167	0,1	7,684595
1,785833	0,1	7,623740
1,787500	0,1	7,591521
1,789167	0,1	7,552859
1,790833	0,1	7,478528
1,792500	0,1	7,501619
1,794167	0,1	7,390838
1,795833	0,1	7,352171
1,797500	0,1	7,336450
1,799167	0,1	7,256368
1,800833	0,1	7,203408
1,802500	0,1	7,167389
1,804167	0,1	7,116790
1,805833	0,1	7,048242
1,807500	0,1	7,052246
1,809167	0,1	6,974935
1,810833	0,1	6,969595
1,812500	0,1	6,905474
1,814167	0,1	6,860784
1,815833	0,1	6,856845
1,817500	0,1	6,794611
1,819167	0,1	6,721719
1,820833	0,1	6,703194
1,822500	0,1	6,668450
1,824167	0,1	6,625750
1,825833	0,1	6,612499
1,827500	0,1	6,564420
1,829167	0,1	6,504888
1,830833	0,1	6,521888
1,832500	0,1	6,476198
1,834167	0,1	6,437639
1,835833	0,1	6,435115
1,837500	0,1	6,385080
1,839167	0,1	6,356279
1,840833	0,1	6,368995
1,842500	0,1	6,349779
1,844167	0,1	6,415952
1,845833	0,1	6,402886
1,847500	0,1	6,407537
1,849167	0,1	6,417260
1,850833	0,1	6,468724
1,852500	0,1	6,521115
1,854167	0,1	6,524385
1,855833	0,1	6,579660
1,857500	0,1	6,641902
1,859167	0,1	6,651243
1,860833	0,1	6,767855
1,862500	0,1	6,786562
1,864167	0,1	6,839915
1,865833	0,1	6,881044
1,867500	0,1	6,974715
1,869167	0,1	7,020161
1,870833	0,1	7,051960
1,872500	0,1	7,104513
1,874167	0,1	7,139310
1,875833	0,1	7,210393
1,877500	0,1	7,262883
1,879167	0,1	7,292267
1,880833	0,1	7,399950
1,882500	0,1	7,418606
1,884167	0,1	7,417209
1,885833	0,1	7,476620
1,887500	0,1	7,548122
1,889167	0,1	7,588314
1,890833	0,1	7,591691
1,892500	0,1	7,644694
1,894167	0,1	7,691512
1,895833	0,1	7,747395
1,897500	0,1	7,752224
1,899167	0,1	7,840902
1,900833	0,1	7,832670
1,902500	0,1	7,933644
1,904167	0,1	7,936378
1,905833	0,1	7,966483
1,907500	0,1	7,995493
1,909167	0,1	8,036820
1,910833	0,1	8,002846
1,912500	0,1	8,029913
1,914167	0,1	8,051941
1,915833	0,1	8,062078
1,917500	0,1	8,115385
1,919167	0,1	8,099849
1,920833	0,1	8,131909
1,922500	0,1	8,105198
1,924167	0,1	8,107245
1,925833	0,1	8,100811
1,927500	0,1	8,114098
1,929167	0,1	8,112313
1,930833	0,1	8,102752
1,932500	0,1	8,124384
1,934167	0,1	8,048867
1,935833	0,1	8,116709
1,937500	0,1	8,081593
1,939167	0,1	8,084615
1,940833	0,1	8,069470
1,942500	0,1	8,021597
1,944167	0,1	7,987855
1,945833	0,1	7,969861
1,947500	0,1	7,943042
1,949167	0,1	7,930974
1,950833	0,1	7,933571
1,952500	0,1	7,898817
1,954167	0,1	7,893747
1,955833	0,1	7,857801
1,957500	0,1	7,877913
1,959167	0,1	7,811421
1,960833	0,1	7,803816
1,962500	0,1	7,783792
1,964167	0,1	7,750529
1,965833	0,1	7,706254
1,967500	0,1	7,684119
1,969167	0,1	7,671925
1,970833	0,1	7,634414
1,972500	0,1	7,627666
1,974167	0,1	7,641134
1,975833	0,1	7,599935
1,977500	0,1	7,597126
1,979167	0,1	7,588886
1,980833	0,1	7,533758
1,982500	0,1	7,528402
1,984167	0,1	7,474307
1,985833	0,1	7,485909
1,987500	0,1	7,480848
1,989167	0,1	7,474115
1,990833	0,1	7,410585
1,992500	0,1	7,404105
1,994167	0,1	7,419168
1,995833	0,1	7,389699
1,997500	0,1	7,374343
1,999167	0,1	7,357685
2,000833	0,1	7,366571
2,002500	0,1	7,327557
2,004167	0,1	7,357861
2,005833	0,1	7,327462
2,007500	0,1	7,323435
2,009167	0,1	7,323153
2,010833	0,1	7,327831
2,012500	0,1	7,321655
2,014167	0,1	7,338958
2,015833	0,1	7,320258
2,017500	0,1	7,305941
2,019167	0,1	7,326795
2,020833	0,1	7,277688
2,022500	0,1	7,307801
2,024167	0,1	7,288627
2,025833	0,1	7,366550
2,027500	0,1	7,327279
2,029167	0,1	7,350751
2,030833	0,1	7,331115
2,032500	0,1	7,335407
2,034167	0,1	7,324756
2,035833	0,1	7,331203
2,037500	0,1	7,360955
2,039167	0,1	7,387525
2,040833	0,1	7,380338
2,042500	0,1	7,449664
2,044167	0,1	7,407658
2,045833	0,1	7,443215
2,047500	0,1	7,426196
2,049167	0,1	7,455665
2,050833	0,1	7,498983
2,052500	0,1	7,455212
2,054167	0,1	7,543261
2,055833	0,1	7,561909
2,057500	0,1	7,536266
2,059167	0,1	7,509029
2,060833	0,1	7,547117
2,062500	0,1	7,597483
2,064167	0,1	7,603106
2,065833	0,1	7,628941
2,067500	0,1	7,618667
2,069167	0,1	7,662375
2,070833	0,1	7,677474
2,072500	0,1	7,678390
2,074167	0,1	7,705917
2,075833	0,1	7,644989
2,077500	0,1	7,685901
2,079167	0,1	7,740674
2,080833	0,1	7,770830
2,082500	0,1	7,728999
2,084167	0,1	7,777218
2,085833	0,1	7,802034
2,087500	0,1	7,840519
2,089167	0,1	7,838465
2,090833	0,1	7,828650
2,092500	0,1	7,806627
2,094167	0,1	7,833144
2,095833	0,1	7,822189
2,097500	0,1	7,881839
2,099167	0,1	7,891873
2,100833	0,1	7,896206
2,102500	0,1	7,913890
2,104167	0,1	7,924192
2,105833	0,1	7,846855
2,107500	0,1	7,957159
2,109167	0,1	7,958303
2,110833	0,1	7,927859
2,112500	0,1	7,938173
2,114167	0,1	7,935359
2,115833	0,1	7,948815
2,117500	0,1	7,922815
2,119167	0,1	7,965327
2,120833	0,1	7,971688
2,122500	0,1	7,937214
2,124167	0,1	7,921478
2,125833	0,1	7,920185
2,127500	0,1	7,922433
2,129167	0,1	7,929647
2,130833	0,1	7,949590
2,132500	0,1	7,940488
2,134167	0,1	7,934520
2,135833	0,1	7,911192
2,137500	0,1	7,894050
2,139167	0,1	7,891973
2,140833	0,1	7,895260
2,142500	0,1	7,907161
2,144167	0,1	7,841393
2,145833	0,1	7,873794
2,147500	0,1	7,864601
2,149167	0,1	7,850936
2,150833	0,1	7,855976
2,152500	0,1	7,875668
2,154167	0,1	7,838107
2,155833	0,1	7,796264
2,157500	0,1	7,835928
2,159167	0,1	7,802233
2,160833	0,1	7,789470
2,162500	0,1	7,802781
2,164167	0,1	7,747257
2,165833	0,1	7,717291
2,167500	0,1	7,744062
2,169167	0,1	7,730104
2,170833	0,1	7,734216
2,172500	0,1	7,661107
2,174167	0,1	7,670462
2,175833	0,1	7,711909
2,177500	0,1	7,679347
2,179167	0,1	7,655187
2,180833	0,1	7,661366
2,182500	0,1	7,643667
2,184167	0,1	7,616044
2,185833	0,1	7,607246
2,187500	0,1	7,600964
2,189167	0,1	7,625105
2,190833	0,1	7,595618
2,192500	0,1	7,571761
2,194167	0,1	7,557810
2,195833	0,1	7,563322
2,197500	0,1	7,540853
2,199167	0,1	7,506705
2,200833	0,1	7,526711
2,202500	0,1	7,498735
2,204167	0,1	7,510894
2,205833	0,1	7,495171
2,207500	0,1	7,537374
2,209167	0,1	7,508184
2,210833	0,1	7,477211
2,212500	0,1	7,463633
2,214167	0,1	7,490489
2,215833	0,1	7,471592
2,217500	0,1	7,488981
2,219167	0,1	7,503496
2,220833	0,1	7,514072
2,222500	0,1	7,532133
2,224167	0,1	7,447744
2,225833	0,1	7,525101
2,227500	0,1	7,515758
2,229167	0,1	7,550680
2,230833	0,1	7,527091
2,232500	0,1	7,578845
2,234167	0,1	7,589354
2,235833	0,1	7,591226
2,237500	0,1	7,626781
2,239167	0,1	7,643651
2,240833	0,1	7,634193
2,242500	0,1	7,692062
2,244167	0,1	7,616075
2,245833	0,1	7,689059
2,247500	0,1	7,694905
2,249167	0,1	7,678697
2,250833	0,1	7,707803
2,252500	0,1	7,708568
2,254167	0,1	7,747601
2,255833	0,1	7,728042
2,257500	0,1	7,762953
2,259167	0,1	7,768572
2,260833	0,1	7,722996
2,262500	0,1	7,789932
2,264167	0,1	7,748493
2,265833	0,1	7,768779
2,267500	0,1	7,754537
2,269167	0,1	7,739946
2,270833	0,1	7,797610
2,272500	0,1	7,745838
2,274167	0,1	7,746673
2,275833	0,1	7,747120
2,277500	0,1	7,718313
2,279167	0,1	7,720624
2,280833	0,1	7,733270
2,282500	0,1	7,709789
2,284167	0,1	7,678692
2,285833	0,1	7,690481
2,287500	0,1	7,684211
2,289167	0,1	7,691218
2,290833	0,1	7,664541
2,292500	0,1	7,650199
2,294167	0,1	7,623241
2,295833	0,1	7,568480
2,297500	0,1	7,557424
2,299167	0,1	7,596167
2,300833	0,1	7,513084
2,302500	0,1	7,512775
2,304167	0,1	7,501631
2,305833	0,1	7,446413
2,307500	0,1	7,459687
2,309167	0,1	7,418803
2,310833	0,1	7,430388
2,312500	0,1	7,361626
2,314167	0,1	7,318299
2,315833	0,1	7,276098
2,317500	0,1	7,278707
2,319167	0,1	7,270944
2,320833	0,1	7,257096
2,322500	0,1	7,206306
2,324167	0,1	7,178520
2,325833	0,1	7,165232
2,327500	0,1	7,134370
2,329167	0,1	7,104348
2,330833	0,1	7,112011
2,332500	0,1	7,062922
2,334167	0,1	7,013736
2,335833	0,1	6,997554
2,337500	0,1	6,963809
2,339167	0,1	6,899862
2,340833	0,1	6,910224
2,342500	0,1	6,835270
2,344167	0,1	6,856286
2,345833	0,1	6,820789
2,347500	0,1	6,792652
2,349167	0,1	6,754888
2,350833	0,1	6,755362
2,352500	0,1	6,703793
2,354167	0,1	6,676494
2,355833	0,1	6,641095
2,357500	0,1	6,601860
2,359167	0,1	6,565325
2,360833	0,1	6,582303
2,362500	0,1	6,545336
2,364167	0,1	6,536649
2,365833	0,1	6,489577
2,367500	0,1	6,462498
2,369167	0,1	6,488170
2,370833	0,1	6,514422
2,372500	0,1	6,408240
2,374167	0,1	6,392531
2,375833	0,1	6,429077
2,377500	0,1	6,389956
2,379167	0,1	6,361725
2,380833	0,1	6,390043
2,382500	0,1	6,351870
2,384167	0,1	6,318029
2,385833	0,1	6,346486
2,387500	0,1	6,297671
2,389167	0,1	6,368555
2,390833	0,1	6,328703
2,392500	0,1	6,349103
2,394167	0,1	6,343521
2,395833	0,1	6,361341
2,397500	0,1	6,366417
2,399167	0,1	6,419549
2,400833	0,1	6,411134
2,402500	0,1	6,447336
2,404167	0,1	6,534293
2,405833	0,1	6,548030
2,407500	0,1	6,540752
2,409167	0,1	6,615275
2,410833	0,1	6,667690
2,412500	0,1	6,714312
2,414167	0,1	6,774777
2,415833	0,1	6,826448
2,417500	0,1	6,875162
2,419167	0,1	6,951712
2,420833	0,1	7,031563
2,422500	0,1	7,113394
2,424167	0,1	7,217027
2,425833	0,1	7,274949
2,427500	0,1	7,381331
2,429167	0,1	7,480067
2,430833	0,1	7,549266
2,432500	0,1	7,696534
2,434167	0,1	7,781685
2,435833	0,1	7,826022
2,437500	0,1	7,972917
2,439167	0,1	8,100988
2,440833	0,1	8,183185
2,442500	0,1	8,269743
2,444167	0,1	8,436142
2,445833	0,1	8,529716
2,447500	0,1	8,591197
2,449167	0,1	8,787898
2,450833	0,1	8,837807
2,452500	0,1	8,953112
2,454167	0,1	9,102067
2,455833	0,1	9,191709
2,457500	0,1	9,318638
2,459167	0,1	9,412892
2,460833	0,1	9,568544
2,462500	0,1	9,612170
2,464167	0,1	9,745524
2,465833	0,1	9,883823
2,467500	0,1	10,011750
2,469167	0,1	10,117286
2,470833	0,1	10,223373
2,472500	0,1	10,392209
2,474167	0,1	10,549902
2,475833	0,1	10,681785
2,477500	0,1	10,863338
2,479167	0,1	10,956323
2,480833	0,1	11,177566
2,482500	0,1	11,328372
2,484167	0,1	11,577640
2,485833	0,1	11,732881
2,487500	0,1	11,981683
2,489167	0,1	12,215113
2,490833	0,1	12,499033
2,492500	0,1	12,807324
2,494167	0,1	13,107799
2,495833	0,1	13,433537
2,497500	0,1	13,792984
2,499167	0,1	14,191352
2,500833	0,1	14,607484
2,502500	0,1	15,086790
2,504167	0,1	15,543902
2,505833	0,1	16,124615
2,507500	0,1	16,631843
2,509167	0,1	17,233458
2,510833	0,1	17,909392
2,512500	0,1	18,577313
2,514167	0,1	19,318148
2,515833	0,1	20,048448
2,517500	0,1	20,863234
2,519167	0,1	21,697659
2,520833	0,1	22,591550
2,522500	0,1	23,532693
2,524167	0,1	24,501861
2,525833	0,1	25,506037
2,527500	0,1	26,575648
2,529167	0,1	27,603108
2,530833	0,1	28,775646
2,532500	0,1	29,887110
2,534167	0,1	31,093434
2,535833	0,1	32,347822
2,537500	0,1	33,519984
2,539167	0,1	34,781353
2,540833	0,1	36,097956
2,542500	0,1	37,400730
2,544167	0,1	38,729465
2,545833	0,1	40,110243
2,547500	0,1	41,392616
2,549167	0,1	42,766130
2,550833	0,1	44,133527
2,552500	0,1	45,467514
2,554167	0,1	46,795890
2,555833	0,1	48,116256
2,557500	0,1	49,433682
2,559167	0,1	50,720320
2,560833	0,1	52,059372
2,562500	0,1	53,286824
2,564167	0,1	54,544540
2,565833	0,1	55,740745
2,567500	0,1	56,941294
2,569167	0,1	58,076508
2,570833	0,1	59,166643
2,572500	0,1	60,210097
2,574167	0,1	61,252758
2,575833	0,1	62,253381
2,577500	0,1	63,134413
2,579167	0,1	64,057257
2,580833	0,1	64,896138
2,582500	0,1	65,709256
2,584167	0,1	66,498774
2,585833	0,1	67,204384
2,587500	0,1	67,852625
2,589167	0,1	68,380025
2,590833	0,1	68,988108
2,592500	0,1	69,503035
2,594167	0,1	69,972708
2,595833	0,1	70,362445
2,597500	0,1	70,726482
2,599167	0,1	71,040482
2,600833	0,1	71,360159
2,602500	0,1	71,558241
2,604167	0,1	71,710909
2,605833	0,1	71,864801
2,607500	0,1	71,968766
2,609167	0,1	71,995917
2,610833	0,1	72,050177
2,612500	0,1	71,955892
2,614167	0,1	71,903788
2,615833	0,1	71,770823
2,617500	0,1	71,645417
2,619167	0,1	71,524375
2,620833	0,1	71,261985
2,622500	0,1	71,060810
2,624167	0,1	70,791664
2,625833	0,1	70,467449
2,627500	0,1	70,121822
2,629167	0,1	69,736224
2,630833	0,1	69,337040
2,632500	0,1	68,907930
2,634167	0,1	68,495247
2,635833	0,1	68,025285
2,637500	0,1	67,458557
2,639167	0,1	66,950275
2,640833	0,1	66,414507
2,642500	0,1	65,875575
2,644167	0,1	65,245703
2,645833	0,1	64,643050
2,647500	0,1	63,972166
2,649167	0,1	63,397052
2,650833	0,1	62,701199
2,652500	0,1	62,065809
2,654167	0,1	61,379009
2,655833	0,1	60,642728
2,657500	0,1	59,966869
2,659167	0,1	59,219489
2,660833	0,1	58,486397
2,662500	0,1	57,714117
2,664167	0,1	56,991416
2,665833	0,1	56,213414
2,667500	0,1	55,456139
2,669167	0,1	54,697440
2,670833	0,1	53,890525
2,672500	0,1	53,124753
2,674167	0,1	52,311904
2,675833	0,1	51,523286
2,677500	0,1	50,761931
2,679167	0,1	49,916700
2,680833	0,1	49,155221
2,682500	0,1	48,337431
2,684167	0,1	47,594345
2,685833	0,1	46,787423
2,687500	0,1	46,019794
2,689167	0,1	45,194388
2,690833	0,1	44,436384
2,692500	0,1	43,656151
2,694167	0,1	42,911981
2,695833	0,1	42,184382
2,697500	0,1	41,431534
2,699167	0,1	40,695043
2,700833	0,1	39,924134
2,702500	0,1	39,203421
2,704167	0,1	38,491327
2,705833	0,1	37,794496
2,707500	0,1	37,060432
2,709167	0,1	36,406501
2,710833	0,1	35,711139
2,712500	0,1	35,043822
2,714167	0,1	34,382892
2,715833	0,1	33,707364
2,717500	0,1	33,106123
2,719167	0,1	32,457709
2,720833	0,1	31,827757
2,722500	0,1	31,234785
2,724167	0,1	30,679026
2,725833	0,1	30,104392
2,727500	0,1	29,506495
2,729167	0,1	28,923752
2,730833	0,1	28,401847
2,732500	0,1	27,816436
2,734167	0,1	27,297305
2,735833	0,1	26,787887
2,737500	0,1	26,310256
2,739167	0,1	25,793978
2,740833	0,1	25,344263
2,742500	0,1	24,906153
2,744167	0,1	24,421566
2,745833	0,1	23,997729
2,747500	0,1	23,484343
2,749167	0,1	23,081954
2,750833	0,1	22,658852
2,752500	0,1	22,258011
2,754167	0,1	21,848353
2,755833	0,1	21,429509
2,757500	0,1	21,068378
2,759167	0,1	20,706460
2,760833	0,1	20,329174
2,762500	0,1	19,963932
2,764167	0,1	19,649633
2,765833	0,1	19,280602
2,767500	0,1	18,975515
2,769167	0,1	18,634725
2,770833	0,1	18,327184
2,772500	0,1	17,987149
2,774167	0,1	17,718258
2,775833	0,1	17,420679
2,777500	0,1	17,098877
2,779167	0,1	16,825743
2,780833	0,1	16,561654
2,782500	0,1	16,248773
2,784167	0,1	16,023758
2,785833	0,1	15,762016
2,787500	0,1	15,510574
2,789167	0,1	15,300926
2,790833	0,1	15,024406
2,792500	0,1	14,804056
2,794167	0,1	14,563398
2,795833	0,1	14,358844
2,797500	0,1	14,086884
2,799167	0,1	13,885020
2,800833	0,1	13,648562
2,802500	0,1	13,476497
2,804167	0,1	13,287140
2,805833	0,1	13,017373
2,807500	0,1	12,858070
2,809167	0,1	12,665752
2,810833	0,1	12,461479
2,812500	0,1	12,283841
2,814167	0,1	12,102782
2,815833	0,1	11,929339
2,817500	0,1	11,721535
2,819167	0,1	11,566788
2,820833	0,1	11,383404
2,822500	0,1	11,255616
2,824167	0,1	11,114096
2,825833	0,1	10,923305
2,827500	0,1	10,759371
2,829167	0,1	10,631906
2,830833	0,1	10,465233
2,832500	0,1	10,328351
2,834167	0,1	10,162242
2,835833	0,1	10,022806
2,837500	0,1	9,970061
2,839167	0,1	9,758569
2,840833	0,1	9,629503
2,842500	0,1	9,491141
2,844167	0,1	9,424296
2,845833	0,1	9,263613
2,847500	0,1	9,133003
2,849167	0,1	9,020963
2,850833	0,1	8,890059
2,852500	0,1	8,830553
2,854167	0,1	8,722054
2,855833	0,1	8,572946
2,857500	0,1	8,483168
2,859167	0,1	8,395707
2,860833	0,1	8,294044
2,862500	0,1	8,141112
2,864167	0,1	8,061807
2,865833	0,1	7,963126
2,867500	0,1	7,869049
2,869167	0,1	7,781726
2,870833	0,1	7,685439
2,872500	0,1	7,621398
2,874167	0,1	7,550884
2,875833	0,1	7,448766
2,877500	0,1	7,372859
2,879167	0,1	7,310162
2,880833	0,1	7,210996
2,882500	0,1	7,154020
2,884167	0,1	7,112581
2,885833	0,1	7,041608
2,887500	0,1	6,942129
2,889167	0,1	6,888928
2,890833	0,1	6,758947
2,892500	0,1	6,725177
2,894167	0,1	6,658647
2,895833	0,1	6,597173
2,897500	0,1	6,520229
2,899167	0,1	6,484604
2,900833	0,1	6,409766
2,902500	0,1	6,369966
2,904167	0,1	6,316663
2,905833	0,1	6,232068
2,907500	0,1	6,201275
2,909167	0,1	6,166576
2,910833	0,1	6,071034
2,912500	0,1	6,027442
2,914167	0,1	6,018872
2,915833	0,1	5,992527
2,917500	0,1	5,877809
2,919167	0,1	5,845061
2,920833	0,1	5,782576
2,922500	0,1	5,778494
2,924167	0,1	5,717966
2,925833	0,1	5,702271
2,927500	0,1	5,596782
2,929167	0,1	5,563995
2,930833	0,1	5,511691
2,932500	0,1	5,519712
2,934167	0,1	5,437099
2,935833	0,1	5,423163
2,937500	0,1	5,341526
2,939167	0,1	5,322543
2,940833	0,1	5,286234
2,942500	0,1	5,341999
2,944167	0,1	5,251356
2,945833	0,1	5,180638
2,947500	0,1	5,159714
2,949167	0,1	5,139341
2,950833	0,1	5,105456
2,952500	0,1	5,065476
2,954167	0,1	5,051765
2,955833	0,1	4,969826
2,957500	0,1	5,013763
2,959167	0,1	4,941811
2,960833	0,1	4,930388
2,962500	0,1	4,889692
2,964167	0,1	4,892403
2,965833	0,1	4,856506
2,967500	0,1	4,814947
2,969167	0,1	4,776571
2,970833	0,1	4,769923
2,972500	0,1	4,775733
2,974167	0,1	4,701947
2,975833	0,1	4,727913
2,977500	0,1	4,653809
2,979167	0,1	4,663472
2,980833	0,1	4,616981
2,982500	0,1	4,592896
2,984167	0,1	4,566447
2,985833	0,1	4,529029
2,987500	0,1	4,512063
2,989167	0,1	4,485181
2,990833	0,1	4,463097
2,992500	0,1	4,456912
2,994167	0,1	4,404220
2,995833	0,1	4,411606
2,997500	0,1	4,396485
2,999167	0,1	4,366886
3,000833	0,1	4,363583
3,002500	0,1	4,327043
3,004167	0,1	4,281957
3,005833	0,1	4,309098
3,007500	0,1	4,294842
3,009167	0,1	4,259753
3,010833	0,1	4,224150
3,012500	0,1	4,212028
3,014167	0,1	4,165544
3,015833	0,1	4,141320
3,017500	0,1	4,137301
3,019167	0,1	4,124332
3,020833	0,1	4,122379
3,022500	0,1	4,096824
3,024167	0,1	4,090888
3,025833	0,1	4,099461
3,027500	0,1	4,071341
3,029167	0,1	4,076091
3,030833	0,1	4,047699
3,032500	0,1	4,011948
3,034167	0,1	3,960731
3,035833	0,1	3,994588
3,037500	0,1	3,956477
3,039167	0,1	3,913995
3,040833	0,1	3,918167
3,042500	0,1	3,904417
3,044167	0,1	3,919120
3,045833	0,1	3,892309
3,047500	0,1	3,871147
3,049167	0,1	3,866379
3,050833	0,1	3,837353
3,052500	0,1	3,833633
3,054167	0,1	3,841527
3,055833	0,1	3,778656
3,057500	0,1	3,742010
3,059167	0,1	3,779412
3,060833	0,1	3,715020
3,062500	0,1	3,752723
3,064167	0,1	3,716650
3,065833	0,1	3,706691
3,067500	0,1	3,703286
3,069167	0,1	3,630945
3,070833	0,1	3,619605
3,072500	0,1	3,638823
3,074167	0,1	3,627605
3,075833	0,1	3,646955
3,077500	0,1	3,608855
3,079167	0,1	3,592824
3,080833	0,1	3,592456
3,082500	0,1	3,519846
3,084167	0,1	3,558734
3,085833	0,1	3,597981
3,087500	0,1	3,512298
3,089167	0,1	3,545888
3,090833	0,1	3,496388
3,092500	0,1	3,519953
3,094167	0,1	3,474577
3,095833	0,1	3,513776
3,097500	0,1	3,524975
3,099167	0,1	3,495821
3,100833	0,1	3,498203
3,102500	0,1	3,485550
3,104167	0,1	3,440684
3,105833	0,1	3,449453
3,107500	0,1	3,444228
3,109167	0,1	3,450026
3,110833	0,1	3,436705
3,112500	0,1	3,463600
3,114167	0,1	3,448029
3,115833	0,1	3,452470
3,117500	0,1	3,482933
3,119167	0,1	3,475767
3,120833	0,1	3,433753
3,122500	0,1	3,469782
3,124167	0,1	3,450055
3,125833	0,1	3,494374
3,127500	0,1	3,488158
3,129167	0,1	3,462104
3,130833	0,1	3,490272
3,132500	0,1	3,459277
3,134167	0,1	3,440735
3,135833	0,1	3,461674
3,137500	0,1	3,486455
3,139167	0,1	3,551662
3,140833	0,1	3,485619
3,142500	0,1	3,483104
3,144167	0,1	3,551275
3,145833	0,1	3,550818
3,147500	0,1	3,521033
3,149167	0,1	3,539830
3,150833	0,1	3,513010
3,152500	0,1	3,558655
3,154167	0,1	3,486270
3,155833	0,1	3,537092
3,157500	0,1	3,544400
3,159167	0,1	3,559596
3,160833	0,1	3,573180
3,162500	0,1	3,549009
3,164167	0,1	3,546111
3,165833	0,1	3,553315
3,167500	0,1	3,565333
3,169167	0,1	3,586429
3,170833	0,1	3,622375
3,172500	0,1	3,588622
3,174167	0,1	3,589053
3,175833	0,1	3,592123
3,177500	0,1	3,623572
3,179167	0,1	3,583089
3,180833	0,1	3,594021
3,182500	0,1	3,596668
3,184167	0,1	3,566542
3,185833	0,1	3,571234
3,187500	0,1	3,542383
3,189167	0,1	3,569256
3,190833	0,1	3,578299
3,192500	0,1	3,519534
3,194167	0,1	3,536606
3,195833	0,1	3,558583
3,197500	0,1	3,510418
3,199167	0,1	3,535779
3,200833	0,1	3,528852
3,202500	0,1	3,537257
3,204167	0,1	3,460644
3,205833	0,1	3,511924
3,207500	0,1	3,484519
3,209167	0,1	3,464414
3,210833	0,1	3,445257
3,212500	0,1	3,398547
3,214167	0,1	3,461678
3,215833	0,1	3,402500
3,217500	0,1	3,412089
3,219167	0,1	3,401172
3,220833	0,1	3,376299
3,222500	0,1	3,370817
3,224167	0,1	3,389347
3,225833	0,1	3,350857
3,227500	0,1	3,358787
3,229167	0,1	3,296079
3,230833	0,1	3,283525
3,232500	0,1	3,279325
3,234167	0,1	3,256830
3,235833	0,1	3,250049
3,237500	0,1	3,240529
3,239167	0,1	3,224594
3,240833	0,1	3,201904
3,242500	0,1	3,180613
3,244167	0,1	3,165419
3,245833	0,1	3,111869
3,247500	0,1	3,134450
3,249167	0,1	3,129946
3,250833	0,1	3,102782
3,252500	0,1	3,080441
3,254167	0,1	3,048238
3,255833	0,1	3,019910
3,257500	0,1	3,013794
3,259167	0,1	2,986611
3,260833	0,1	2,979622
3,262500	0,1	2,959013
3,264167	0,1	2,920262
3,265833	0,1	2,894175
3,267500	0,1	2,863056
3,269167	0,1	2,901217
3,270833	0,1	2,875362
3,272500	0,1	2,833164
3,274167	0,1	2,804424
3,275833	0,1	2,820981
3,277500	0,1	2,787712
3,279167	0,1	2,766842
3,280833	0,1	2,710315
3,282500	0,1	2,739321
3,284167	0,1	2,735344
3,285833	0,1	2,694960
3,287500	0,1	2,653418
3,289167	0,1	2,637714
3,290833	0,1	2,651248
3,292500	0,1	2,604403
3,294167	0,1	2,591564
3,295833	0,1	2,591138
3,297500	0,1	2,499166
3,299167	0,1	2,564845
3,300833	0,1	2,519594
3,302500	0,1	2,454607
3,304167	0,1	2,456968
3,305833	0,1	2,497259
3,307500	0,1	2,440073
3,309167	0,1	2,434157
3,310833	0,1	2,428903
3,312500	0,1	2,384369
3,314167	0,1	2,362851
3,315833	0,1	2,384714
3,317500	0,1	2,378317
3,319167	0,1	2,368100
3,320833	0,1	2,354574
3,322500	0,1	2,345650
3,324167	0,1	2,295373
3,325833	0,1	2,300826
3,327500	0,1	2,297663
3,329167	0,1	2,304567
3,330833	0,1	2,246601
3,332500	0,1	2,259388
3,334167	0,1	2,185682
3,335833	0,1	2,252616
3,337500	0,1	2,224293
3,339167	0,1	2,217533
3,340833	0,1	2,187687
3,342500	0,1	2,222702
3,344167	0,1	2,166693
3,345833	0,1	2,147054
3,347500	0,1	2,154525
3,349167	0,1	2,169765
3,350833	0,1	2,134973
3,352500	0,1	2,162000
3,354167	0,1	2,139075
3,355833	0,1	2,077303
3,357500	0,1	2,086417
3,359167	0,1	2,111805
3,360833	0,1	2,081695
3,362500	0,1	2,096918
3,364167	0,1	2,053657
3,365833	0,1	2,081964
3,367500	0,1	2,061981
3,369167	0,1	2,127469
3,370833	0,1	2,041942
3,372500	0,1	2,013016
3,374167	0,1	2,059522
3,375833	0,1	2,066156
3,377500	0,1	2,004486
3,379167	0,1	1,980374
3,380833	0,1	1,988054
3,382500	0,1	1,985469
3,384167	0,1	1,992168
3,385833	0,1	1,994681
3,387500	0,1	1,990013
3,389167	0,1	2,003525
3,390833	0,1	1,990724
3,392500	0,1	1,995474
3,394167	0,1	1,953721
3,395833	0,1	1,928757
3,397500	0,1	1,936389
3,399167	0,1	1,944075
3,400833	0,1	1,958297
3,402500	0,1	1,920797
3,404167	0,1	1,919135
3,405833	0,1	1,899086
3,407500	0,1	1,916186
3,409167	0,1	1,940407
3,410833	0,1	1,886874
3,412500	0,1	1,912222
3,414167	0,1	1,942059
3,415833	0,1	1,909649
3,417500	0,1	1,953201
3,419167	0,1	1,931571
3,420833	0,1	1,909062
3,422500	0,1	1,898489
3,424167	0,1	1,939459
3,425833	0,1	1,941699
3,427500	0,1	1,918563
3,429167	0,1	1,916767
3,430833	0,1	1,930191
3,432500	0,1	1,931059
3,434167	0,1	1,936093
3,435833	0,1	1,973828
3,437500	0,1	2,008984
3,439167	0,1	1,945587
3,440833	0,1	1,952275
3,442500	0,1	1,979800
3,444167	0,1	1,946603
3,445833	0,1	2,005456
3,447500	0,1	1,989445
3,449167	0,1	2,001374
3,450833	0,1	2,022935
3,452500	0,1	2,027755
3,454167	0,1	2,037737
3,455833	0,1	2,061034
3,457500	0,1	2,068740
3,459167	0,1	2,060908
3,460833	0,1	2,087866
3,462500	0,1	2,101877
3,464167	0,1	2,154803
3,465833	0,1	2,192924
3,467500	0,1	2,163595
3,469167	0,1	2,190047
3,470833	0,1	2,189906
3,472500	0,1	2,249956
3,474167	0,1	2,285280
3,475833	0,1	2,299028
3,477500	0,1	2,318594
3,479167	0,1	2,348663
3,480833	0,1	2,367373
3,482500	0,1	2,371837
3,484167	0,1	2,417808
3,485833	0,1	2,430841
3,487500	0,1	2,409692
3,489167	0,1	2,497683
3,490833	0,1	2,476691
3,492500	0,1	2,528926
3,494167	0,1	2,579309
3,495833	0,1	2,613299
3,497500	0,1	2,597749
3,499167	0,1	2,620356
3,500833	0,1	2,627780
3,502500	0,1	2,729780
3,504167	0,1	2,722309
3,505833	0,1	2,713539
3,507500	0,1	2,779400
3,509167	0,1	2,795969
3,510833	0,1	2,782227
3,512500	0,1	2,860714
3,514167	0,1	2,833604
3,515833	0,1	2,884568
3,517500	0,1	2,911730
3,519167	0,1	2,890772
3,520833	0,1	2,930416
3,522500	0,1	2,936386
3,524167	0,1	2,971033
3,525833	0,1	2,984605
3,527500	0,1	3,033125
3,529167	0,1	3,005781
3,530833	0,1	3,034738
3,532500	0,1	3,047189
3,534167	0,1	3,055075
3,535833	0,1	3,095194
3,537500	0,1	3,093785
3,539167	0,1	3,090739
3,540833	0,1	3,097434
3,542500	0,1	3,132849
3,544167	0,1	3,095724
3,545833	0,1	3,109575
3,547500	0,1	3,128793
3,549167	0,1	3,139161
3,550833	0,1	3,095938
3,552500	0,1	3,149183
3,554167	0,1	3,110509
3,555833	0,1	3,161088
3,557500	0,1	3,111023
3,559167	0,1	3,131735
3,560833	0,1	3,150414
3,562500	0,1	3,165923
3,564167	0,1	3,125338
3,565833	0,1	3,140019
3,567500	0,1	3,115620
3,569167	0,1	3,133894
3,570833	0,1	3,126431
3,572500	0,1	3,149387
3,574167	0,1	3,101881
3,575833	0,1	3,104360
3,577500	0,1	3,101691
3,579167	0,1	3,117029
3,580833	0,1	3,064518
3,582500	0,1	3,071749
3,584167	0,1	3,062835
3,585833	0,1	3,050041
3,587500	0,1	3,048579
3,589167	0,1	3,012977
3,590833	0,1	2,952623
3,592500	0,1	2,980262
3,594167	0,1	2,970470
3,595833	0,1	2,953812
3,597500	0,1	2,965053
3,599167	0,1	2,930793
3,600833	0,1	2,919234
3,602500	0,1	2,878107
3,604167	0,1	2,896332
3,605833	0,1	2,900140
3,607500	0,1	2,880492
3,609167	0,1	2,859598
3,610833	0,1	2,837205
3,612500	0,1	2,819619
3,614167	0,1	2,743374
3,615833	0,1	2,751338
3,617500	0,1	2,781215
3,619167	0,1	2,726305
3,620833	0,1	2,740032
3,622500	0,1	2,697686
3,624167	0,1	2,650901
3,625833	0,1	2,668296
3,627500	0,1	2,657152
3,629167	0,1	2,625051
3,630833	0,1	2,626914
3,632500	0,1	2,620715
3,634167	0,1	2,575092
3,635833	0,1	2,541764
3,637500	0,1	2,516278
3,639167	0,1	2,512464
3,640833	0,1	2,513395
3,642500	0,1	2,497346
3,644167	0,1	2,472589
3,645833	0,1	2,489058
3,647500	0,1	2,436325
3,649167	0,1	2,438402
3,650833	0,1	2,381062
3,652500	0,1	2,366805
3,654167	0,1	2,377520
3,655833	0,1	2,349684
3,657500	0,1	2,343060
3,659167	0,1	2,312418
3,660833	0,1	2,304284
3,662500	0,1	2,305649
3,664167	0,1	2,278749
3,665833	0,1	2,287375
3,667500	0,1	2,199786
3,669167	0,1	2,187462
3,670833	0,1	2,230541
3,672500	0,1	2,220404
3,674167	0,1	2,147708
3,675833	0,1	2,165746
3,677500	0,1	2,153303
3,679167	0,1	2,128366
3,680833	0,1	2,107862
3,682500	0,1	2,099442
3,684167	0,1	2,077011
3,685833	0,1	2,113032
3,687500	0,1	2,058688
3,689167	0,1	2,019137
3,690833	0,1	2,056148
3,692500	0,1	2,039556
3,694167	0,1	2,024595
3,695833	0,1	2,015684
3,697500	0,1	2,028471
3,699167	0,1	2,014678
3,700833	0,1	1,969896
3,702500	0,1	1,979734
3,704167	0,1	1,933814
3,705833	0,1	1,927835
3,707500	0,1	1,918560
3,709167	0,1	1,927962
3,710833	0,1	1,916123
3,712500	0,1	1,906629
3,714167	0,1	1,895989
3,715833	0,1	1,857545
3,717500	0,1	1,881312
3,719167	0,1	1,856814
3,720833	0,1	1,872479
3,722500	0,1	1,896418
3,724167	0,1	1,833967
3,725833	0,1	1,898150
3,727500	0,1	1,798275
3,729167	0,1	1,802339
3,730833	0,1	1,823272
3,732500	0,1	1,828139
3,734167	0,1	1,838289
3,735833	0,1	1,801645
3,737500	0,1	1,748584
3,739167	0,1	1,796785
3,740833	0,1	1,798459
3,742500	0,1	1,760544
3,744167	0,1	1,738312
3,745833	0,1	1,771002
3,747500	0,1	1,762259
3,749167	0,1	1,757293
3,750833	0,1	1,757523
3,752500	0,1	1,764103
3,754167	0,1	1,745079
3,755833	0,1	1,758893
3,757500	0,1	1,757592
3,759167	0,1	1,735913
3,760833	0,1	1,738317
3,762500	0,1	1,714192
3,764167	0,1	1,710158
3,765833	0,1	1,726838
3,767500	0,1	1,698732
3,769167	0,1	1,716826
3,770833	0,1	1,703473
3,772500	0,1	1,710871
3,774167	0,1	1,693652
3,775833	0,1	1,685727
3,777500	0,1	1,714004
3,779167	0,1	1,709040
3,780833	0,1	1,701971
3,782500	0,1	1,690429
3,784167	0,1	1,693012
3,785833	0,1	1,728855
3,787500	0,1	1,674609
3,789167	0,1	1,662877
3,790833	0,1	1,668348
3,792500	0,1	1,680851
3,794167	0,1	1,667652
3,795833	0,1	1,650706
3,797500	0,1	1,652832
3,799167	0,1	1,640059
3,800833	0,1	1,638982
3,802500	0,1	1,633083
3,804167	0,1	1,695653
3,805833	0,1	1,598775
3,807500	0,1	1,622951
3,809167	0,1	1,624031
3,810833	0,1	1,590507
3,812500	0,1	1,616212
3,814167	0,1	1,639912
3,815833	0,1	1,620598
3,817500	0,1	1,614320
3,819167	0,1	1,611968
3,820833	0,1	1,571831
3,822500	0,1	1,612248
3,824167	0,1	1,596829
3,825833	0,1	1,578953
3,827500	0,1	1,562982
3,829167	0,1	1,581020
3,830833	0,1	1,581025
3,832500	0,1	1,576142
3,834167	0,1	1,527425
3,835833	0,1	1,546100
3,837500	0,1	1,540220
3,839167	0,1	1,559878
3,840833	0,1	1,531536
3,842500	0,1	1,545896
3,844167	0,1	1,509767
3,845833	0,1	1,521049
3,847500	0,1	1,496703
3,849167	0,1	1,531026
3,850833	0,1	1,497435
3,852500	0,1	1,501798
3,854167	0,1	1,483708
3,855833	0,1	1,482835
3,857500	0,1	1,468146
3,859167	0,1	1,472290
3,860833	0,1	1,446297
3,862500	0,1	1,473425
3,864167	0,1	1,468977
3,865833	0,1	1,434309
3,867500	0,1	1,448123
3,869167	0,1	1,479495
3,870833	0,1	1,426715
3,872500	0,1	1,432787
3,874167	0,1	1,421823
3,875833	0,1	1,431578
3,877500	0,1	1,359975
3,879167	0,1	1,412491
3,880833	0,1	1,411753
3,882500	0,1	1,414306
3,884167	0,1	1,424626
3,885833	0,1	1,395424
3,887500	0,1	1,386336
3,889167	0,1	1,395618
3,890833	0,1	1,388717
3,892500	0,1	1,350894
3,894167	0,1	1,357411
3,895833	0,1	1,318708
3,897500	0,1	1,356218
3,899167	0,1	1,356969
3,900833	0,1	1,340956
3,902500	0,1	1,330726
3,904167	0,1	1,352260
3,905833	0,1	1,330863
3,907500	0,1	1,314330
3,909167	0,1	1,299121
3,910833	0,1	1,306020
3,912500	0,1	1,296603
3,914167	0,1	1,309114
3,915833	0,1	1,272930
3,917500	0,1	1,289133
3,919167	0,1	1,297353
3,920833	0,1	1,254266
3,922500	0,1	1,278326
3,924167	0,1	1,257203
3,925833	0,1	1,266482
3,927500	0,1	1,258889
3,929167	0,1	1,265814
3,930833	0,1	1,248025
3,932500	0,1	1,301151
3,934167	0,1	1,222737
3,935833	0,1	1,265426
3,937500	0,1	1,247978
3,939167	0,1	1,256503
3,940833	0,1	1,248936
3,942500	0,1	1,242364
3,944167	0,1	1,226955
3,945833	0,1	1,225348
3,947500	0,1	1,220515
3,949167	0,1	1,202323
3,950833	0,1	1,226654
3,952500	0,1	1,197784
3,954167	0,1	1,249253
3,955833	0,1	1,220587
3,957500	0,1	1,184778
3,959167	0,1	1,196482
3,960833	0,1	1,206325
3,962500	0,1	1,230887
3,964167	0,1	1,194802
3,965833	0,1	1,180877
3,967500	0,1	1,156407
3,969167	0,1	1,189240
3,970833	0,1	1,186553
3,972500	0,1	1,182124
3,974167	0,1	1,181719
3,975833	0,1	1,149549
3,977500	0,1	1,196874
3,979167	0,1	1,176849
3,980833	0,1	1,171879
3,982500	0,1	1,177621
3,984167	0,1	1,154935
3,985833	0,1	1,190330
3,987500	0,1	1,156054
3,989167	0,1	1,164015
3,990833	0,1	1,146297
3,992500	0,1	1,129863
3,994167	0,1	1,205887
3,995833	0,1	1,147285
3,997500	0,1	1,156643
3,999167	0,1	1,152613
4,000833	0,1	1,188614
4,002500	0,1	1,152626
4,004167	0,1	1,199881
4,005833	0,1	1,170726
4,007500	0,1	1,192204
4,009167	0,1	1,196372
4,010833	0,1	1,177470
4,012500	0,1	1,149928
4,014167	0,1	1,187256
4,015833	0,1	1,182990
4,017500	0,1	1,174729
4,019167	0,1	1,164798
4,020833	0,1	1,185456
4,022500	0,1	1,187955
4,024167	0,1	1,199511
4,025833	0,1	1,205392
4,027500	0,1	1,196420
4,029167	0,1	1,196039
4,030833	0,1	1,196730
4,032500	0,1	1,227121
4,034167	0,1	1,204640
4,035833	0,1	1,200716
4,037500	0,1	1,203476
4,039167	0,1	1,206393
4,040833	0,1	1,259009
4,042500	0,1	1,178421
4,044167	0,1	1,212289
4,045833	0,1	1,203234
4,047500	0,1	1,218973
4,049167	0,1	1,269344
4,050833	0,1	1,277195
4,052500	0,1	1,248560
4,054167	0,1	1,281176
4,055833	0,1	1,291673
4,057500	0,1	1,251705
4,059167	0,1	1,287657
4,060833	0,1	1,294594
4,062500	0,1	1,282635
4,064167	0,1	1,297620
4,065833	0,1	1,301720
4,067500	0,1	1,320692
4,069167	0,1	1,310680
4,070833	0,1	1,322236
4,072500	0,1	1,335398
4,074167	0,1	1,357968
4,075833	0,1	1,358329
4,077500	0,1	1,357164
4,079167	0,1	1,359439
4,080833	0,1	1,373089
4,082500	0,1	1,382628
4,084167	0,1	1,379891
4,085833	0,1	1,442502
4,087500	0,1	1,429645
4,089167	0,1	1,433298
4,090833	0,1	1,458359
4,092500	0,1	1,463330
4,094167	0,1	1,458925
4,095833	0,1	1,466984
4,097500	0,1	1,517823
4,099167	0,1	1,494847
4,100833	0,1	1,539001
4,102500	0,1	1,541238
4,104167	0,1	1,520392
4,105833	0,1	1,548668
4,107500	0,1	1,588194
4,109167	0,1	1,634020
4,110833	0,1	1,610034
4,112500	0,1	1,585098
4,114167	0,1	1,613596
4,115833	0,1	1,653126
4,117500	0,1	1,642931
4,119167	0,1	1,644718
4,120833	0,1	1,661730
4,122500	0,1	1,676888
4,124167	0,1	1,705003
4,125833	0,1	1,730483
4,127500	0,1	1,750174
4,129167	0,1	1,754853
4,130833	0,1	1,745665
4,132500	0,1	1,735747
4,134167	0,1	1,800327
4,135833	0,1	1,780807
4,137500	0,1	1,812852
4,139167	0,1	1,796744
4,140833	0,1	1,814427
4,142500	0,1	1,847040
4,144167	0,1	1,888295
4,145833	0,1	1,868177
4,147500	0,1	1,864013
4,149167	0,1	1,914237
4,150833	0,1	1,889167
4,152500	0,1	1,915606
4,154167	0,1	1,898501
4,155833	0,1	1,930544
4,157500	0,1	1,953486
4,159167	0,1	1,934228
4,160833	0,1	1,929916
4,162500	0,1	1,957787
4,164167	0,1	1,998630
4,165833	0,1	1,976788
4,167500	0,1	1,995330
4,169167	0,1	2,056366
4,170833	0,1	2,008857
4,172500	0,1	2,053047
4,174167	0,1	2,006691
4,175833	0,1	2,054917
4,177500	0,1	2,007633
4,179167	0,1	2,044559
4,180833	0,1	2,043581
4,182500	0,1	2,061541
4,184167	0,1	2,071685
4,185833	0,1	2,072977
4,187500	0,1	2,118494
4,189167	0,1	2,080039
4,190833	0,1	2,104322
4,192500	0,1	2,086724
4,194167	0,1	2,084980
4,195833	0,1	2,071110
4,197500	0,1	2,139124
4,199167	0,1	2,108936
4,200833	0,1	2,104335
4,202500	0,1	2,128915
4,204167	0,1	2,115916
4,205833	0,1	2,134963
4,207500	0,1	2,097214
4,209167	0,1	2,126180
4,210833	0,1	2,147044
4,212500	0,1	2,150213
4,214167	0,1	2,112746
4,215833	0,1	2,143871
4,217500	0,1	2,127769
4,219167	0,1	2,133672
4,220833	0,1	2,143881
4,222500	0,1	2,102767
4,224167	0,1	2,149834
4,225833	0,1	2,132516
4,227500	0,1	2,114976
4,229167	0,1	2,147186
4,230833	0,1	2,100958
4,232500	0,1	2,179030
4,234167	0,1	2,127716
4,235833	0,1	2,131302
4,237500	0,1	2,151073
4,239167	0,1	2,148273
4,240833	0,1	2,139719
4,242500	0,1	2,084780
4,244167	0,1	2,086490
4,245833	0,1	2,129564
4,247500	0,1	2,122451
4,249167	0,1	2,117713
4,250833	0,1	2,067095
4,252500	0,1	2,095479
4,254167	0,1	2,095197
4,255833	0,1	2,060330
4,257500	0,1	2,085914
4,259167	0,1	2,059324
4,260833	0,1	2,098571
4,262500	0,1	2,056449
4,264167	0,1	2,034373
4,265833	0,1	2,071310
4,267500	0,1	2,101095
4,269167	0,1	2,088158
4,270833	0,1	2,036674
4,272500	0,1	2,047377
4,274167	0,1	2,023162
4,275833	0,1	2,051968
4,277500	0,1	2,048111
4,279167	0,1	2,065424
4,280833	0,1	2,031788
4,282500	0,1	2,014454
4,284167	0,1	2,010717
4,285833	0,1	2,002439
4,287500	0,1	1,986625
4,289167	0,1	1,976644
4,290833	0,1	1,963409
4,292500	0,1	2,007969
4,294167	0,1	1,950770
4,295833	0,1	1,977712
4,297500	0,1	1,980874
4,299167	0,1	1,934158
4,300833	0,1	1,985555
4,302500	0,1	1,915917
4,304167	0,1	1,960387
4,305833	0,1	1,894499
4,307500	0,1	1,889023
4,309167	0,1	1,922431
4,310833	0,1	1,944072
4,312500	0,1	1,881631
4,314167	0,1	1,910728
4,315833	0,1	1,903743
4,317500	0,1	1,873563
4,319167	0,1	1,876878
4,320833	0,1	1,841235
4,322500	0,1	1,871917
4,324167	0,1	1,825564
4,325833	0,1	1,818800
4,327500	0,1	1,802425
4,329167	0,1	1,837764
4,330833	0,1	1,801645
4,332500	0,1	1,768662
4,334167	0,1	1,793292
4,335833	0,1	1,812405
4,337500	0,1	1,776780
4,339167	0,1	1,740857
4,340833	0,1	1,750187
4,342500	0,1	1,722681
4,344167	0,1	1,720735
4,345833	0,1	1,749756
4,347500	0,1	1,725405
4,349167	0,1	1,724902
4,350833	0,1	1,680865
4,352500	0,1	1,737602
4,354167	0,1	1,716929
4,355833	0,1	1,700405
4,357500	0,1	1,685258
4,359167	0,1	1,656719
4,360833	0,1	1,680435
4,362500	0,1	1,623398
4,364167	0,1	1,659660
4,365833	0,1	1,607083
4,367500	0,1	1,636594
4,369167	0,1	1,596737
4,370833	0,1	1,614040
4,372500	0,1	1,625899
4,374167	0,1	1,601989
4,375833	0,1	1,549926
4,377500	0,1	1,556803
4,379167	0,1	1,590970
4,380833	0,1	1,535776
4,382500	0,1	1,551408
4,384167	0,1	1,523931
4,385833	0,1	1,561539
4,387500	0,1	1,528151
4,389167	0,1	1,523347
4,390833	0,1	1,527582
4,392500	0,1	1,483714
4,394167	0,1	1,515005
4,395833	0,1	1,492689
4,397500	0,1	1,474661
4,399167	0,1	1,458912
4,400833	0,1	1,480535
4,402500	0,1	1,441725
4,404167	0,1	1,419052
4,405833	0,1	1,453917
4,407500	0,1	1,395258
4,409167	0,1	1,402465
4,410833	0,1	1,404848
4,412500	0,1	1,390569
4,414167	0,1	1,402694
4,415833	0,1	1,407692
4,417500	0,1	1,372686
4,419167	0,1	1,354120
4,420833	0,1	1,347408
4,422500	0,1	1,320913
4,424167	0,1	1,340813
4,425833	0,1	1,367608
4,427500	0,1	1,354051
4,429167	0,1	1,311353
4,430833	0,1	1,331432
4,432500	0,1	1,305603
4,434167	0,1	1,342584
4,435833	0,1	1,312489
4,437500	0,1	1,304642
4,439167	0,1	1,270636
4,440833	0,1	1,272406
4,442500	0,1	1,279756
4,444167	0,1	1,237004
4,445833	0,1	1,247884
4,447500	0,1	1,262893
4,449167	0,1	1,244505
4,450833	0,1	1,208186
4,452500	0,1	1,224340
4,454167	0,1	1,240420
4,455833	0,1	1,225174
4,457500	0,1	1,223210
4,459167	0,1	1,167525
4,460833	0,1	1,186572
4,462500	0,1	1,199599
4,464167	0,1	1,184730
4,465833	0,1	1,200001
4,467500	0,1	1,151246
4,469167	0,1	1,165216
4,470833	0,1	1,149301
4,472500	0,1	1,144579
4,474167	0,1	1,139480
4,475833	0,1	1,130175
4,477500	0,1	1,104484
4,479167	0,1	1,093034
4,480833	0,1	1,094057
4,482500	0,1	1,098219
4,484167	0,1	1,042907
4,485833	0,1	1,101642
4,487500	0,1	1,088604
4,489167	0,1	1,075559
4,490833	0,1	1,101889
4,492500	0,1	1,063523
4,494167	0,1	1,095497
4,495833	0,1	1,058845
4,497500	0,1	1,067518
4,499167	0,1	1,050870
4,500833	0,1	1,004303
4,502500	0,1	1,028779
4,504167	0,1	1,034236
4,505833	0,1	1,038467
4,507500	0,1	1,011045
4,509167	0,1	1,029648
4,510833	0,1	1,017140
4,512500	0,1	0,980062
4,514167	0,1	1,002180
4,515833	0,1	0,950187
4,517500	0,1	0,976857
4,519167	0,1	0,962683
4,520833	0,1	0,945650
4,522500	0,1	0,966070
4,524167	0,1	0,939909
4,525833	0,1	0,954202
4,527500	0,1	0,927459
4,529167	0,1	0,957994
4,530833	0,1	0,901510
4,532500	0,1	0,947991
4,534167	0,1	0,955523
4,535833	0,1	0,948809
4,537500	0,1	0,932778
4,539167	0,1	0,900858
4,540833	0,1	0,918983
4,542500	0,1	0,907474
4,544167	0,1	0,930373
4,545833	0,1	0,906543
4,547500	0,1	0,881270
4,549167	0,1	0,831624
4,550833	0,1	0,897831
4,552500	0,1	0,876368
4,554167	0,1	0,891455
4,555833	0,1	0,866008
4,557500	0,1	0,860550
4,559167	0,1	0,857164
4,560833	0,1	0,819236
4,562500	0,1	0,881606
4,564167	0,1	0,848556
4,565833	0,1	0,869615
4,567500	0,1	0,857201
4,569167	0,1	0,832133
4,570833	0,1	0,832968
4,572500	0,1	0,850634
4,574167	0,1	0,836133
4,575833	0,1	0,826322
4,577500	0,1	0,822868
4,579167	0,1	0,815867
4,580833	0,1	0,813350
4,582500	0,1	0,819829
4,584167	0,1	0,783841
4,585833	0,1	0,835211
4,587500	0,1	0,776586
4,589167	0,1	0,781541
4,590833	0,1	0,781056
4,592500	0,1	0,773186
4,594167	0,1	0,798082
4,595833	0,1	0,776412
4,597500	0,1	0,733645
4,599167	0,1	0,768306
4,600833	0,1	0,770379
4,602500	0,1	0,804982
4,604167	0,1	0,776903
4,605833	0,1	0,812886
4,607500	0,1	0,788221
4,609167	0,1	0,754709
4,610833	0,1	0,756247
4,612500	0,1	0,763021
4,614167	0,1	0,730933
4,615833	0,1	0,749921
4,617500	0,1	0,713614
4,619167	0,1	0,735436
4,620833	0,1	0,771658
4,622500	0,1	0,772474
4,624167	0,1	0,712072
4,625833	0,1	0,735888
4,627500	0,1	0,701808
4,629167	0,1	0,718859
4,630833	0,1	0,708800
4,632500	0,1	0,731792
4,634167	0,1	0,683071
4,635833	0,1	0,708534
4,637500	0,1	0,680164
4,639167	0,1	0,713306
4,640833	0,1	0,729631
4,642500	0,1	0,720218
4,644167	0,1	0,698804
4,645833	0,1	0,699929
4,647500	0,1	0,675132
4,649167	0,1	0,680478
4,650833	0,1	0,708469
4,652500	0,1	0,701704
4,654167	0,1	0,704540
4,655833	0,1	0,723406
4,657500	0,1	0,679588
4,659167	0,1	0,681609
4,660833	0,1	0,718176
4,662500	0,1	0,693516
4,664167	0,1	0,676484
4,665833	0,1	0,653620
4,667500	0,1	0,639235
4,669167	0,1	0,668603
4,670833	0,1	0,629855
4,672500	0,1	0,648193
4,674167	0,1	0,679925
4,675833	0,1	0,649848
4,677500	0,1	0,642458
4,679167	0,1	0,662383
4,680833	0,1	0,654100
4,682500	0,1	0,602509
4,684167	0,1	0,601695
4,685833	0,1	0,629681
4,687500	0,1	0,656190
4,689167	0,1	0,625822
4,690833	0,1	0,656898
4,692500	0,1	0,619150
4,694167	0,1	0,608180
4,695833	0,1	0,645252
4,697500	0,1	0,629304
4,699167	0,1	0,613145
4,700833	0,1	0,618138
4,702500	0,1	0,583966
4,704167	0,1	0,555169
4,705833	0,1	0,629507
4,707500	0,1	0,611470
4,709167	0,1	0,603952
4,710833	0,1	0,613334
4,712500	0,1	0,628006
4,714167	0,1	0,628039
4,715833	0,1	0,626201
4,717500	0,1	0,603183
4,719167	0,1	0,588151
4,720833	0,1	0,622197
4,722500	0,1	0,594961
4,724167	0,1	0,569195
4,725833	0,1	0,634990
4,727500	0,1	0,601831
4,729167	0,1	0,591929
4,730833	0,1	0,590829
4,732500	0,1	0,590371
4,734167	0,1	0,552917
4,735833	0,1	0,607583
4,737500	0,1	0,590539
4,739167	0,1	0,562780
4,740833	0,1	0,606296
4,742500	0,1	0,565137
4,744167	0,1	0,535081
4,745833	0,1	0,559671
4,747500	0,1	0,586180
4,749167	0,1	0,580123
4,750833	0,1	0,585374
4,752500	0,1	0,599529
4,754167	0,1	0,576288
4,755833	0,1	0,607881
4,757500	0,1	0,555430
4,759167	0,1	0,538790
4,760833	0,1	0,586654
4,762500	0,1	0,604944
4,764167	0,1	0,552404
4,765833	0,1	0,573698
4,767500	0,1	0,566547
4,769167	0,1	0,566253
4,770833	0,1	0,558942
4,772500	0,1	0,578404
4,774167	0,1	0,540269
4,775833	0,1	0,567636
4,777500	0,1	0,554104
4,779167	0,1	0,529602
4,780833	0,1	0,553031
4,782500	0,1	0,577119
4,784167	0,1	0,548623
4,785833	0,1	0,554872
4,787500	0,1	0,554356
4,789167	0,1	0,562062
4,790833	0,1	0,568931
4,792500	0,1	0,560557
4,794167	0,1	0,597624
4,795833	0,1	0,585836
4,797500	0,1	0,547114
4,799167	0,1	0,564187
4,800833	0,1	0,577702
4,802500	0,1	0,568098
4,804167	0,1	0,562072
4,805833	0,1	0,526280
4,807500	0,1	0,530113
4,809167	0,1	0,533401
4,810833	0,1	0,570439
4,812500	0,1	0,600106
4,814167	0,1	0,540381
4,815833	0,1	0,561898
4,817500	0,1	0,531729
4,819167	0,1	0,548165
4,820833	0,1	0,529373
4,822500	0,1	0,539556
4,824167	0,1	0,572730
4,825833	0,1	0,573383
4,827500	0,1	0,566872
4,829167	0,1	0,550497
4,830833	0,1	0,593142
4,832500	0,1	0,549725
4,834167	0,1	0,539399
4,835833	0,1	0,563093
4,837500	0,1	0,557162
4,839167	0,1	0,516964
4,840833	0,1	0,542195
4,842500	0,1	0,535237
4,844167	0,1	0,517611
4,845833	0,1	0,554317
4,847500	0,1	0,559125
4,849167	0,1	0,574989
4,850833	0,1	0,556457
4,852500	0,1	0,576055
4,854167	0,1	0,582246
4,855833	0,1	0,554618
4,857500	0,1	0,553584
4,859167	0,1	0,535367
4,860833	0,1	0,547810
4,862500	0,1	0,582083
4,864167	0,1	0,564840
4,865833	0,1	0,554876
4,867500	0,1	0,550394
4,869167	0,1	0,555836
4,870833	0,1	0,556297
4,872500	0,1	0,551875
4,874167	0,1	0,520412
4,875833	0,1	0,557705
4,877500	0,1	0,544720
4,879167	0,1	0,546426
4,880833	0,1	0,551392
4,882500	0,1	0,573667
4,884167	0,1	0,578408
4,885833	0,1	0,611907
4,887500	0,1	0,594894
4,889167	0,1	0,596760
4,890833	0,1	0,581903
4,892500	0,1	0,595435
4,894167	0,1	0,591963
4,895833	0,1	0,590924
4,897500	0,1	0,570680
4,899167	0,1	0,563803
4,900833	0,1	0,571516
4,902500	0,1	0,604784
4,904167	0,1	0,557172
4,905833	0,1	0,602554
4,907500	0,1	0,571425
4,909167	0,1	0,546402
4,910833	0,1	0,606292
4,912500	0,1	0,594184
4,914167	0,1	0,595411
4,915833	0,1	0,586544
4,917500	0,1	0,582541
4,919167	0,1	0,546952
4,920833	0,1	0,608390
4,922500	0,1	0,554403
4,924167	0,1	0,576858
4,925833	0,1	0,590633
4,927500	0,1	0,560040
4,929167	0,1	0,611001
4,930833	0,1	0,550599
4,932500	0,1	0,580242
4,934167	0,1	0,575191
4,935833	0,1	0,580476
4,937500	0,1	0,564264
4,939167	0,1	0,579084
4,940833	0,1	0,559106
4,942500	0,1	0,585013
4,944167	0,1	0,607947
4,945833	0,1	0,595830
4,947500	0,1	0,567939
4,949167	0,1	0,583565
4,950833	0,1	0,560844
4,952500	0,1	0,583793
4,954167	0,1	0,592015
4,955833	0,1	0,588861
4,957500	0,1	0,598177
4,959167	0,1	0,619299
4,960833	0,1	0,572946
4,962500	0,1	0,609971
4,964167	0,1	0,581226
4,965833	0,1	0,571740
4,967500	0,1	0,591564
4,969167	0,1	0,630709
4,970833	0,1	0,620469
4,972500	0,1	0,568492
4,974167	0,1	0,653369
4,975833	0,1	0,649199
4,977500	0,1	0,602961
4,979167	0,1	0,611913
4,980833	0,1	0,673886
4,982500	0,1	0,605453
4,984167	0,1	0,626455
4,985833	0,1	0,602763
4,987500	0,1	0,619101
4,989167	0,1	0,669924
4,990833	0,1	0,667708
4,992500	0,1	0,655197
4,994167	0,1	0,681991
4,995833	0,1	0,645174
4,997500	0,1	0,628206
4,999167	0,1	0,705877
5,000833	0,1	0,692029
5,002500	0,1	0,667812
5,004167	0,1	0,652007
5,005833	0,1	0,672992
5,007500	0,1	0,652136
5,009167	0,1	0,665253
5,010833	0,1	0,708658
5,012500	0,1	0,674231
5,014167	0,1	0,672739
5,015833	0,1	0,670322
5,017500	0,1	0,705113
5,019167	0,1	0,721149
5,020833	0,1	0,707223
5,022500	0,1	0,687613
5,024167	0,1	0,690898
5,025833	0,1	0,771680
5,027500	0,1	0,708362
5,029167	0,1	0,710217
5,030833	0,1	0,730374
5,032500	0,1	0,722961
5,034167	0,1	0,726894
5,035833	0,1	0,733409
5,037500	0,1	0,743310
5,039167	0,1	0,771563
5,040833	0,1	0,769086
5,042500	0,1	0,731257
5,044167	0,1	0,779916
5,045833	0,1	0,759608
5,047500	0,1	0,759506
5,049167	0,1	0,747188
5,050833	0,1	0,747539
5,052500	0,1	0,774630
5,054167	0,1	0,777216
5,055833	0,1	0,783023
5,057500	0,1	0,758837
5,059167	0,1	0,821398
5,060833	0,1	0,813542
5,062500	0,1	0,804092
5,064167	0,1	0,805991
5,065833	0,1	0,805696
5,067500	0,1	0,850213
5,069167	0,1	0,841548
5,070833	0,1	0,839096
5,072500	0,1	0,842451
5,074167	0,1	0,845293
5,075833	0,1	0,869831
5,077500	0,1	0,890904
5,079167	0,1	0,840172
5,080833	0,1	0,860609
5,082500	0,1	0,849783
5,084167	0,1	0,883707
5,085833	0,1	0,888465
5,087500	0,1	0,899884
5,089167	0,1	0,884241
5,090833	0,1	0,913591
5,092500	0,1	0,887435
5,094167	0,1	0,880274
5,095833	0,1	0,899433
5,097500	0,1	0,846206
5,099167	0,1	0,907617
5,100833	0,1	0,859849
5,102500	0,1	0,861100
5,104167	0,1	0,907264
5,105833	0,1	0,906276
5,107500	0,1	0,876661
5,109167	0,1	0,942851
5,110833	0,1	0,913700
5,112500	0,1	0,912317
5,114167	0,1	0,926241
5,115833	0,1	0,913060
5,117500	0,1	0,894859
5,119167	0,1	0,893115
5,120833	0,1	0,934045
5,122500	0,1	0,918896
5,124167	0,1	0,934024
5,125833	0,1	0,921598
5,127500	0,1	0,919659
5,129167	0,1	0,924411
5,130833	0,1	0,916407
5,132500	0,1	0,915918
5,134167	0,1	0,883216
5,135833	0,1	0,968731
5,137500	0,1	0,903513
5,139167	0,1	0,926081
5,140833	0,1	0,935251
5,142500	0,1	0,915316
5,144167	0,1	0,910120
5,145833	0,1	0,873659
5,147500	0,1	0,898430
5,149167	0,1	0,896464
5,150833	0,1	0,944081
5,152500	0,1	0,890704
5,154167	0,1	0,902362
5,155833	0,1	0,909884
5,157500	0,1	0,909119
5,159167	0,1	0,921818
5,160833	0,1	0,858758
5,162500	0,1	0,894743
5,164167	0,1	0,874976
5,165833	0,1	0,873232
5,167500	0,1	0,884330
5,169167	0,1	0,879133
5,170833	0,1	0,878982
5,172500	0,1	0,882039
5,174167	0,1	0,898040
5,175833	0,1	0,835658
5,177500	0,1	0,860254
5,179167	0,1	0,881071
5,180833	0,1	0,854139
5,182500	0,1	0,904289
5,184167	0,1	0,848658
5,185833	0,1	0,852841
5,187500	0,1	0,824456
5,189167	0,1	0,879998
5,190833	0,1	0,819947
5,192500	0,1	0,828058
5,194167	0,1	0,821643
5,195833	0,1	0,815061
5,197500	0,1	0,824506
5,199167	0,1	0,856699
5,200833	0,1	0,807328
5,202500	0,1	0,814477
5,204167	0,1	0,820930
5,205833	0,1	0,815412
5,207500	0,1	0,815379
5,209167	0,1	0,799738
5,210833	0,1	0,818086
5,212500	0,1	0,779321
5,214167	0,1	0,773380
5,215833	0,1	0,761347
5,217500	0,1	0,778698
5,219167	0,1	0,783084
5,220833	0,1	0,750870
5,222500	0,1	0,766764
5,224167	0,1	0,750671
5,225833	0,1	0,741476
5,227500	0,1	0,747311
5,229167	0,1	0,757114
5,230833	0,1	0,771436
5,232500	0,1	0,725002
5,234167	0,1	0,768625
5,235833	0,1	0,726227
5,237500	0,1	0,720798
5,239167	0,1	0,710383
5,240833	0,1	0,715184
5,242500	0,1	0,705544
5,244167	0,1	0,729241
5,245833	0,1	0,691488
5,247500	0,1	0,663297
5,249167	0,1	0,712690
5,250833	0,1	0,696837
5,252500	0,1	0,678227
5,254167	0,1	0,683381
5,255833	0,1	0,674968
5,257500	0,1	0,735653
5,259167	0,1	0,635158
5,260833	0,1	0,713230
5,262500	0,1	0,667366
5,264167	0,1	0,661938
5,265833	0,1	0,680540
5,267500	0,1	0,680900
5,269167	0,1	0,674903
5,270833	0,1	0,633081
5,272500	0,1	0,653483
5,274167	0,1	0,616474
5,275833	0,1	0,588287
5,277500	0,1	0,642280
5,279167	0,1	0,602930
5,280833	0,1	0,614335
5,282500	0,1	0,560045
5,284167	0,1	0,669811
5,285833	0,1	0,618184
5,287500	0,1	0,609405
5,289167	0,1	0,599279
5,290833	0,1	0,606886
5,292500	0,1	0,592542
5,294167	0,1	0,610820
5,295833	0,1	0,594801
5,297500	0,1	0,584221
5,299167	0,1	0,584735
5,300833	0,1	0,579414
5,302500	0,1	0,576577
5,304167	0,1	0,571419
5,305833	0,1	0,598208
5,307500	0,1	0,520587
5,309167	0,1	0,581752
5,310833	0,1	0,569644
5,312500	0,1	0,537759
5,314167	0,1	0,581853
5,315833	0,1	0,575191
5,317500	0,1	0,535863
5,319167	0,1	0,527791
5,320833	0,1	0,524056
5,322500	0,1	0,517999
5,324167	0,1	0,517154
5,325833	0,1	0,538200
5,327500	0,1	0,530378
5,329167	0,1	0,497844
5,330833	0,1	0,547385
5,332500	0,1	0,537018
5,334167	0,1	0,507261
5,335833	0,1	0,485146
5,337500	0,1	0,481628
5,339167	0,1	0,527621
5,340833	0,1	0,489501
5,342500	0,1	0,486757
5,344167	0,1	0,456452
5,345833	0,1	0,488902
5,347500	0,1	0,479921
5,349167	0,1	0,461772
5,350833	0,1	0,507280
5,352500	0,1	0,449176
5,354167	0,1	0,431887
5,355833	0,1	0,506182
5,357500	0,1	0,467906
5,359167	0,1	0,476467
5,360833	0,1	0,455072
5,362500	0,1	0,451288
5,364167	0,1	0,496807
5,365833	0,1	0,459461
5,367500	0,1	0,488522
5,369167	0,1	0,423909
5,370833	0,1	0,432437
5,372500	0,1	0,459154
5,374167	0,1	0,450619
5,375833	0,1	0,431369
5,377500	0,1	0,452546
5,379167	0,1	0,453675
5,380833	0,1	0,449329
5,382500	0,1	0,459031
5,384167	0,1	0,438535
5,385833	0,1	0,458866
5,387500	0,1	0,388342
5,389167	0,1	0,377319
5,390833	0,1	0,424906
5,392500	0,1	0,420481
5,394167	0,1	0,433053
5,395833	0,1	0,444974
5,397500	0,1	0,388312
5,399167	0,1	0,409769
5,400833	0,1	0,396948
5,402500	0,1	0,384826
5,404167	0,1	0,414180
5,405833	0,1	0,369655
5,407500	0,1	0,417233
5,409167	0,1	0,397923
5,410833	0,1	0,426239
5,412500	0,1	0,400363
5,414167	0,1	0,397008
5,415833	0,1	0,396692
5,417500	0,1	0,401495
5,419167	0,1	0,375984
5,420833	0,1	0,377606
5,422500	0,1	0,398102
5,424167	0,1	0,389477
5,425833	0,1	0,338944
5,427500	0,1	0,383436
5,429167	0,1	0,382511
5,430833	0,1	0,382866
5,432500	0,1	0,375611
5,434167	0,1	0,375523
5,435833	0,1	0,364883
5,437500	0,1	0,371803
5,439167	0,1	0,361519
5,440833	0,1	0,354151
5,442500	0,1	0,342802
5,444167	0,1	0,370257
5,445833	0,1	0,362404
5,447500	0,1	0,339252
5,449167	0,1	0,343420
5,450833	0,1	0,362627
5,452500	0,1	0,361924
5,454167	0,1	0,319213
5,455833	0,1	0,356263
5,457500	0,1	0,343321
5,459167	0,1	0,356661
5,460833	0,1	0,356727
5,462500	0,1	0,319291
5,464167	0,1	0,369254
5,465833	0,1	0,345650
5,467500	0,1	0,345126
5,469167	0,1	0,336129
5,470833	0,1	0,309730
5,472500	0,1	0,345991
5,474167	0,1	0,330000
5,475833	0,1	0,315088
5,477500	0,1	0,336389
5,479167	0,1	0,348912
5,480833	0,1	0,292063
5,482500	0,1	0,349309
5,484167	0,1	0,323532
5,485833	0,1	0,321074
5,487500	0,1	0,325977
5,489167	0,1	0,353272
5,490833	0,1	0,337231
5,492500	0,1	0,337809
5,494167	0,1	0,338076
5,495833	0,1	0,313801
5,497500	0,1	0,368583
5,499167	0,1	0,288286
5,500833	0,1	0,332061
5,502500	0,1	0,304591
5,504167	0,1	0,280226
5,505833	0,1	0,299156
5,507500	0,1	0,308575
5,509167	0,1	0,348920
5,510833	0,1	0,310645
5,512500	0,1	0,282992
5,514167	0,1	0,310315
5,515833	0,1	0,270524
5,517500	0,1	0,328662
5,519167	0,1	0,328660
5,520833	0,1	0,343418
5,522500	0,1	0,351773
5,524167	0,1	0,311872
5,525833	0,1	0,282390
5,527500	0,1	0,317277
5,529167	0,1	0,276324
5,530833	0,1	0,340080
5,532500	0,1	0,342673
5,534167	0,1	0,278970
5,535833	0,1	0,293791
5,537500	0,1	0,285339
5,539167	0,1	0,272907
5,540833	0,1	0,293396
5,542500	0,1	0,312920
5,544167	0,1	0,290766
5,545833	0,1	0,250671
5,547500	0,1	0,296526
5,549167	0,1	0,302879
5,550833	0,1	0,276047
5,552500	0,1	0,259832
5,554167	0,1	0,293661
5,555833	0,1	0,307058
5,557500	0,1	0,248782
5,559167	0,1	0,276866
5,560833	0,1	0,291921
5,562500	0,1	0,260500
5,564167	0,1	0,238213
5,565833	0,1	0,288067
5,567500	0,1	0,254161
5,569167	0,1	0,327353
5,570833	0,1	0,292160
5,572500	0,1	0,283593
5,574167	0,1	0,268271
5,575833	0,1	0,301354
5,577500	0,1	0,259525
5,579167	0,1	0,286094
5,580833	0,1	0,284505
5,582500	0,1	0,273176
5,584167	0,1	0,314886
5,585833	0,1	0,247850
5,587500	0,1	0,303574
5,589167	0,1	0,239367
5,590833	0,1	0,296192
5,592500	0,1	0,265074
5,594167	0,1	0,263194
5,595833	0,1	0,288759
5,597500	0,1	0,247075
5,599167	0,1	0,310888
5,600833	0,1	0,286608
5,602500	0,1	0,281510
5,604167	0,1	0,298010
5,605833	0,1	0,284525
5,607500	0,1	0,244102
5,609167	0,1	0,273416
5,610833	0,1	0,290008
5,612500	0,1	0,258152
5,614167	0,1	0,255443
5,615833	0,1	0,267746
5,617500	0,1	0,278928
5,619167	0,1	0,228679
5,620833	0,1	0,300324
5,622500	0,1	0,279184
5,624167	0,1	0,265920
5,625833	0,1	0,263859
5,627500	0,1	0,267103
5,629167	0,1	0,261118
5,630833	0,1	0,250579
5,632500	0,1	0,293823
5,634167	0,1	0,247553
5,635833	0,1	0,268907
5,637500	0,1	0,263114
5,639167	0,1	0,265170
5,640833	0,1	0,263945
5,642500	0,1	0,262925
5,644167	0,1	0,258060
5,645833	0,1	0,291687
5,647500	0,1	0,259129
5,649167	0,1	0,225308
5,650833	0,1	0,274119
5,652500	0,1	0,297507
5,654167	0,1	0,288892
5,655833	0,1	0,260187
5,657500	0,1	0,260722
5,659167	0,1	0,251285
5,660833	0,1	0,247418
5,662500	0,1	0,259182
5,664167	0,1	0,310493
5,665833	0,1	0,276654
5,667500	0,1	0,272031
5,669167	0,1	0,273337
5,670833	0,1	0,306551
5,672500	0,1	0,260421
5,674167	0,1	0,271219
5,675833	0,1	0,272778
5,677500	0,1	0,291401
5,679167	0,1	0,270639
5,680833	0,1	0,311625
5,682500	0,1	0,251652
5,684167	0,1	0,251408
5,685833	0,1	0,292810
5,687500	0,1	0,285356
5,689167	0,1	0,311064
5,690833	0,1	0,282390
5,692500	0,1	0,303252
5,694167	0,1	0,279832
5,695833	0,1	0,295164
5,697500	0,1	0,288435
5,699167	0,1	0,256634
5,700833	0,1	0,302601
5,702500	0,1	0,303838
5,704167	0,1	0,261022
5,705833	0,1	0,280695
5,707500	0,1	0,270887
5,709167	0,1	0,261575
5,710833	0,1	0,306649
5,712500	0,1	0,232968
5,714167	0,1	0,288358
5,715833	0,1	0,298304
5,717500	0,1	0,261563
5,719167	0,1	0,293558
5,720833	0,1	0,295875
5,722500	0,1	0,285772
5,724167	0,1	0,311354
5,725833	0,1	0,283073
5,727500	0,1	0,293085
5,729167	0,1	0,307074
5,730833	0,1	0,296728
5,732500	0,1	0,286291
5,734167	0,1	0,309216
5,735833	0,1	0,308121
5,737500	0,1	0,314564
5,739167	0,1	0,288583
5,740833	0,1	0,279163
5,742500	0,1	0,277541
5,744167	0,1	0,291173
5,745833	0,1	0,270976
5,747500	0,1	0,280486
5,749167	0,1	0,283773
5,750833	0,1	0,306638
5,752500	0,1	0,277172
5,754167	0,1	0,281320
5,755833	0,1	0,290968
5,757500	0,1	0,272616
5,759167	0,1	0,283150
5,760833	0,1	0,281903
5,762500	0,1	0,282177
5,764167	0,1	0,272531
5,765833	0,1	0,271717
5,767500	0,1	0,302643
5,769167	0,1	0,279417
5,770833	0,1	0,272780
5,772500	0,1	0,271449
5,774167	0,1	0,291359
5,775833	0,1	0,281449
5,777500	0,1	0,264843
5,779167	0,1	0,303248
5,780833	0,1	0,279354
5,782500	0,1	0,296139
5,784167	0,1	0,278064
5,785833	0,1	0,296954
5,787500	0,1	0,276650
5,789167	0,1	0,286686
5,790833	0,1	0,292048
5,792500	0,1	0,276712
5,794167	0,1	0,342494
5,795833	0,1	0,276951
5,797500	0,1	0,288619
5,799167	0,1	0,310191
5,800833	0,1	0,312672
5,802500	0,1	0,285400
5,804167	0,1	0,295789
5,805833	0,1	0,285939
5,807500	0,1	0,279663
5,809167	0,1	0,330871
5,810833	0,1	0,313841
5,812500	0,1	0,271044
5,814167	0,1	0,249772
5,815833	0,1	0,273457
5,817500	0,1	0,262202
5,819167	0,1	0,274334
5,820833	0,1	0,288595
5,822500	0,1	0,279619
5,824167	0,1	0,286123
5,825833	0,1	0,293815
5,827500	0,1	0,301816
5,829167	0,1	0,267757
5,830833	0,1	0,274750
5,832500	0,1	0,270680
5,834167	0,1	0,288799
5,835833	0,1	0,285543
5,837500	0,1	0,309985
5,839167	0,1	0,286962
5,840833	0,1	0,278933
5,842500	0,1	0,282588
5,844167	0,1	0,303148
5,845833	0,1	0,296476
5,847500	0,1	0,310381
5,849167	0,1	0,334744
5,850833	0,1	0,247980
5,852500	0,1	0,305341
5,854167	0,1	0,314250
5,855833	0,1	0,316515
5,857500	0,1	0,271250
5,859167	0,1	0,243370
5,860833	0,1	0,292909
5,862500	0,1	0,278496
5,864167	0,1	0,269997
5,865833	0,1	0,254572
5,867500	0,1	0,243553
5,869167	0,1	0,248934
5,870833	0,1	0,244945
5,872500	0,1	0,255252
5,874167	0,1	0,259597
5,875833	0,1	0,238755
5,877500	0,1	0,308333
5,879167	0,1	0,291117
5,880833	0,1	0,282653
5,882500	0,1	0,282485
5,884167	0,1	0,276936
5,885833	0,1	0,267146
5,887500	0,1	0,276682
5,889167	0,1	0,276810
5,890833	0,1	0,240192
5,892500	0,1	0,245899
5,894167	0,1	0,250536
5,895833	0,1	0,234658
5,897500	0,1	0,238207
5,899167	0,1	0,286820
5,900833	0,1	0,224421
5,902500	0,1	0,225570
5,904167	0,1	0,259215
5,905833	0,1	0,255524
5,907500	0,1	0,273750
5,909167	0,1	0,242186
5,910833	0,1	0,297067
5,912500	0,1	0,256530
5,914167	0,1	0,230254
5,915833	0,1	0,259777
5,917500	0,1	0,264627
5,919167	0,1	0,299814
5,920833	0,1	0,254785
5,922500	0,1	0,227240
5,924167	0,1	0,250469
5,925833	0,1	0,245777
5,927500	0,1	0,228049
5,929167	0,1	0,271748
5,930833	0,1	0,270428
5,932500	0,1	0,267788
5,934167	0,1	0,243431
5,935833	0,1	0,233867
5,937500	0,1	0,237812
5,939167	0,1	0,247582
5,940833	0,1	0,222874
5,942500	0,1	0,250674
5,944167	0,1	0,253673
5,945833	0,1	0,219135
5,947500	0,1	0,202252
5,949167	0,1	0,255698
5,950833	0,1	0,204943
5,952500	0,1	0,234584
5,954167	0,1	0,228793
5,955833	0,1	0,231431
5,957500	0,1	0,212168
5,959167	0,1	0,216028
5,960833	0,1	0,195499
5,962500	0,1	0,163619
5,964167	0,1	0,204816
5,965833	0,1	0,199361
5,967500	0,1	0,234875
5,969167	0,1	0,236212
5,970833	0,1	0,247144
5,972500	0,1	0,205750
5,974167	0,1	0,224507
5,975833	0,1	0,206868
5,977500	0,1	0,254431
5,979167	0,1	0,226491
5,980833	0,1	0,179646
5,982500	0,1	0,248794
5,984167	0,1	0,220359
5,985833	0,1	0,204602
5,987500	0,1	0,239074
5,989167	0,1	0,206060
5,990833	0,1	0,204951
5,992500	0,1	0,192941
5,994167	0,1	0,235206
5,995833	0,1	0,186921
5,997500	0,1	0,227079
5,999167	0,1	0,185674
6,000833	0,1	0,241271
