File Path	chrom://chromeleon01/ikbm_chromeleon/2022/Rezex/Esteban/220612_chitin_4_7.seq/201.smp/UV_VIS_1.channel/UV_VIS_1.chm
Channel	UV_VIS_1

Injection Information:
Data Vault	ikbm_chromeleon
Injection	7_24h-ChiBI_3
Injection Number	41
Position	RE4
Comment	
Processing Method	New ProcMethod
Instrument Method	Short_Rezex_6min_194nm
Type	Unknown
Status	Finished
Injection Date	12.06.2022
Injection Time	21:33:12
Injection Volume (µl)	8,000
Dilution Factor	1,0000
Weight	1,0000

Chromatogram Data Information:
Time Min. (min)	0,000833
Time Max. (min)	6,000833
Data Points	3601
Detector	UV
Generating Data System	Chromeleon 7.2.9.11323
Exporting Data System	Chromeleon 7.2.9.0
Operator	Instrument Controller
Signal Quantity	Absorbance
Signal Unit	mAU
Signal Min.	-0,175687
Signal Max.	127,850726
Channel	UV_VIS_1
Driver Name	VWD3000.dll
Channel Type	Evaluation
Min. Step (s)	0,1
Max. Step (s)	0,1
Average Step (s)	0,1

Signal Parameter Information:
Signal Info	WVL:194 nm

Chromatogram Data:
Time (min)	Step (s)	Value (mAU)
0,000833	n.a.	-0,109561
0,002500	0,1	-0,067542
0,004167	0,1	-0,133890
0,005833	0,1	-0,124693
0,007500	0,1	-0,075501
0,009167	0,1	-0,074617
0,010833	0,1	-0,082699
0,012500	0,1	-0,068466
0,014167	0,1	-0,113605
0,015833	0,1	-0,105860
0,017500	0,1	-0,068766
0,019167	0,1	-0,102948
0,020833	0,1	-0,074305
0,022500	0,1	-0,097127
0,024167	0,1	-0,112486
0,025833	0,1	-0,053151
0,027500	0,1	-0,105047
0,029167	0,1	-0,140728
0,030833	0,1	-0,091177
0,032500	0,1	-0,080453
0,034167	0,1	-0,120372
0,035833	0,1	-0,131807
0,037500	0,1	-0,099673
0,039167	0,1	-0,115189
0,040833	0,1	-0,109843
0,042500	0,1	-0,115292
0,044167	0,1	-0,175687
0,045833	0,1	-0,125093
0,047500	0,1	-0,092887
0,049167	0,1	-0,103443
0,050833	0,1	-0,113613
0,052500	0,1	-0,097391
0,054167	0,1	-0,083030
0,055833	0,1	-0,086182
0,057500	0,1	-0,113164
0,059167	0,1	-0,113515
0,060833	0,1	-0,091241
0,062500	0,1	-0,115894
0,064167	0,1	-0,125786
0,065833	0,1	-0,087897
0,067500	0,1	-0,070821
0,069167	0,1	-0,116541
0,070833	0,1	-0,090018
0,072500	0,1	-0,089659
0,074167	0,1	-0,130965
0,075833	0,1	-0,099552
0,077500	0,1	-0,096228
0,079167	0,1	-0,114806
0,080833	0,1	-0,120190
0,082500	0,1	-0,082009
0,084167	0,1	-0,109517
0,085833	0,1	-0,095620
0,087500	0,1	-0,057688
0,089167	0,1	-0,115830
0,090833	0,1	-0,077847
0,092500	0,1	-0,122338
0,094167	0,1	-0,118740
0,095833	0,1	-0,049869
0,097500	0,1	-0,084015
0,099167	0,1	-0,102344
0,100833	0,1	-0,070633
0,102500	0,1	-0,135895
0,104167	0,1	-0,131684
0,105833	0,1	-0,099200
0,107500	0,1	-0,110329
0,109167	0,1	-0,129203
0,110833	0,1	-0,132617
0,112500	0,1	-0,109502
0,114167	0,1	-0,153441
0,115833	0,1	-0,117751
0,117500	0,1	-0,152891
0,119167	0,1	-0,125215
0,120833	0,1	-0,107505
0,122500	0,1	-0,123081
0,124167	0,1	-0,149772
0,125833	0,1	-0,093537
0,127500	0,1	-0,135765
0,129167	0,1	-0,125091
0,130833	0,1	-0,097656
0,132500	0,1	-0,115034
0,134167	0,1	-0,108147
0,135833	0,1	-0,083740
0,137500	0,1	-0,146000
0,139167	0,1	-0,132847
0,140833	0,1	-0,140062
0,142500	0,1	-0,075596
0,144167	0,1	-0,110848
0,145833	0,1	-0,087604
0,147500	0,1	-0,108140
0,149167	0,1	-0,069898
0,150833	0,1	-0,145705
0,152500	0,1	-0,116525
0,154167	0,1	-0,115492
0,155833	0,1	-0,089373
0,157500	0,1	-0,100350
0,159167	0,1	-0,116196
0,160833	0,1	-0,117132
0,162500	0,1	-0,097228
0,164167	0,1	-0,128619
0,165833	0,1	-0,100839
0,167500	0,1	-0,096553
0,169167	0,1	-0,089660
0,170833	0,1	-0,100059
0,172500	0,1	-0,102093
0,174167	0,1	-0,086825
0,175833	0,1	-0,111903
0,177500	0,1	-0,080033
0,179167	0,1	-0,067535
0,180833	0,1	-0,095385
0,182500	0,1	-0,117835
0,184167	0,1	-0,133712
0,185833	0,1	-0,083103
0,187500	0,1	-0,113324
0,189167	0,1	-0,107338
0,190833	0,1	-0,125755
0,192500	0,1	-0,075373
0,194167	0,1	-0,077548
0,195833	0,1	-0,093878
0,197500	0,1	-0,113971
0,199167	0,1	-0,107304
0,200833	0,1	-0,056142
0,202500	0,1	-0,104269
0,204167	0,1	-0,100381
0,205833	0,1	-0,080744
0,207500	0,1	-0,080061
0,209167	0,1	-0,073139
0,210833	0,1	-0,074872
0,212500	0,1	-0,102540
0,214167	0,1	-0,044453
0,215833	0,1	-0,097636
0,217500	0,1	-0,103797
0,219167	0,1	-0,115579
0,220833	0,1	-0,080586
0,222500	0,1	-0,087597
0,224167	0,1	-0,102600
0,225833	0,1	-0,097332
0,227500	0,1	-0,108240
0,229167	0,1	-0,119316
0,230833	0,1	-0,081392
0,232500	0,1	-0,097156
0,234167	0,1	-0,080709
0,235833	0,1	-0,068662
0,237500	0,1	-0,120849
0,239167	0,1	-0,089602
0,240833	0,1	-0,078202
0,242500	0,1	-0,078227
0,244167	0,1	-0,096193
0,245833	0,1	-0,081833
0,247500	0,1	-0,079418
0,249167	0,1	-0,111167
0,250833	0,1	-0,094235
0,252500	0,1	-0,090401
0,254167	0,1	-0,088951
0,255833	0,1	-0,108358
0,257500	0,1	-0,121065
0,259167	0,1	-0,078273
0,260833	0,1	-0,079098
0,262500	0,1	-0,052435
0,264167	0,1	-0,093674
0,265833	0,1	-0,121944
0,267500	0,1	-0,087091
0,269167	0,1	-0,108140
0,270833	0,1	-0,086866
0,272500	0,1	-0,105011
0,274167	0,1	-0,088700
0,275833	0,1	-0,104311
0,277500	0,1	-0,071052
0,279167	0,1	-0,073237
0,280833	0,1	-0,099538
0,282500	0,1	-0,069153
0,284167	0,1	-0,076775
0,285833	0,1	-0,098188
0,287500	0,1	-0,126688
0,289167	0,1	-0,071121
0,290833	0,1	-0,057554
0,292500	0,1	-0,113389
0,294167	0,1	-0,106795
0,295833	0,1	-0,103672
0,297500	0,1	-0,104344
0,299167	0,1	-0,091564
0,300833	0,1	-0,109845
0,302500	0,1	-0,107656
0,304167	0,1	-0,085189
0,305833	0,1	-0,076333
0,307500	0,1	-0,103375
0,309167	0,1	-0,086442
0,310833	0,1	-0,105437
0,312500	0,1	-0,038854
0,314167	0,1	-0,085783
0,315833	0,1	-0,104666
0,317500	0,1	-0,088700
0,319167	0,1	-0,069405
0,320833	0,1	-0,095321
0,322500	0,1	-0,104242
0,324167	0,1	-0,068510
0,325833	0,1	-0,119018
0,327500	0,1	-0,040174
0,329167	0,1	-0,099976
0,330833	0,1	-0,057625
0,332500	0,1	-0,098991
0,334167	0,1	-0,056628
0,335833	0,1	-0,067954
0,337500	0,1	-0,071496
0,339167	0,1	-0,061998
0,340833	0,1	-0,064955
0,342500	0,1	-0,116831
0,344167	0,1	-0,054249
0,345833	0,1	-0,109843
0,347500	0,1	-0,103991
0,349167	0,1	-0,090893
0,350833	0,1	-0,091527
0,352500	0,1	-0,096712
0,354167	0,1	-0,072435
0,355833	0,1	-0,091402
0,357500	0,1	-0,063391
0,359167	0,1	-0,074040
0,360833	0,1	-0,042971
0,362500	0,1	-0,042928
0,364167	0,1	-0,083369
0,365833	0,1	-0,045677
0,367500	0,1	-0,082790
0,369167	0,1	-0,078228
0,370833	0,1	-0,089662
0,372500	0,1	-0,076978
0,374167	0,1	-0,071914
0,375833	0,1	-0,079003
0,377500	0,1	-0,111328
0,379167	0,1	-0,058755
0,380833	0,1	-0,073714
0,382500	0,1	-0,041775
0,384167	0,1	-0,059254
0,385833	0,1	-0,090818
0,387500	0,1	-0,088921
0,389167	0,1	-0,093076
0,390833	0,1	-0,073242
0,392500	0,1	-0,065765
0,394167	0,1	-0,076003
0,395833	0,1	-0,091487
0,397500	0,1	-0,061454
0,399167	0,1	-0,036528
0,400833	0,1	-0,039127
0,402500	0,1	-0,079471
0,404167	0,1	-0,079098
0,405833	0,1	-0,067379
0,407500	0,1	-0,052530
0,409167	0,1	-0,058225
0,410833	0,1	-0,037363
0,412500	0,1	-0,050110
0,414167	0,1	-0,029598
0,415833	0,1	-0,074126
0,417500	0,1	-0,046894
0,419167	0,1	-0,055936
0,420833	0,1	-0,050271
0,422500	0,1	-0,031078
0,424167	0,1	-0,086049
0,425833	0,1	-0,050574
0,427500	0,1	-0,053042
0,429167	0,1	-0,048274
0,430833	0,1	-0,051493
0,432500	0,1	-0,031954
0,434167	0,1	-0,085207
0,435833	0,1	-0,058974
0,437500	0,1	-0,040195
0,439167	0,1	-0,082245
0,440833	0,1	-0,036533
0,442500	0,1	-0,082308
0,444167	0,1	-0,085475
0,445833	0,1	-0,077232
0,447500	0,1	-0,028612
0,449167	0,1	-0,083912
0,450833	0,1	-0,052017
0,452500	0,1	-0,088814
0,454167	0,1	-0,052826
0,455833	0,1	-0,065214
0,457500	0,1	-0,048957
0,459167	0,1	-0,056489
0,460833	0,1	-0,062186
0,462500	0,1	-0,047313
0,464167	0,1	-0,035620
0,465833	0,1	-0,069562
0,467500	0,1	-0,051789
0,469167	0,1	-0,053977
0,470833	0,1	-0,066016
0,472500	0,1	-0,062955
0,474167	0,1	-0,042064
0,475833	0,1	-0,069622
0,477500	0,1	-0,045510
0,479167	0,1	-0,074291
0,480833	0,1	-0,013568
0,482500	0,1	-0,055964
0,484167	0,1	-0,019616
0,485833	0,1	-0,032138
0,487500	0,1	-0,077735
0,489167	0,1	-0,050311
0,490833	0,1	-0,054424
0,492500	0,1	-0,042898
0,494167	0,1	-0,091097
0,495833	0,1	-0,066478
0,497500	0,1	-0,058164
0,499167	0,1	-0,066822
0,500833	0,1	-0,056202
0,502500	0,1	-0,056971
0,504167	0,1	-0,045640
0,505833	0,1	-0,042060
0,507500	0,1	-0,057223
0,509167	0,1	-0,082510
0,510833	0,1	-0,054176
0,512500	0,1	-0,052846
0,514167	0,1	-0,059743
0,515833	0,1	-0,066051
0,517500	0,1	-0,039941
0,519167	0,1	-0,045927
0,520833	0,1	-0,054456
0,522500	0,1	-0,047758
0,524167	0,1	-0,055195
0,525833	0,1	-0,055619
0,527500	0,1	-0,016847
0,529167	0,1	-0,042505
0,530833	0,1	-0,056354
0,532500	0,1	-0,060807
0,534167	0,1	-0,027736
0,535833	0,1	-0,039612
0,537500	0,1	-0,051590
0,539167	0,1	-0,027958
0,540833	0,1	-0,037517
0,542500	0,1	-0,034718
0,544167	0,1	-0,039062
0,545833	0,1	-0,089107
0,547500	0,1	-0,044679
0,549167	0,1	-0,030984
0,550833	0,1	-0,062377
0,552500	0,1	-0,033721
0,554167	0,1	-0,047950
0,555833	0,1	-0,052717
0,557500	0,1	-0,040449
0,559167	0,1	-0,043380
0,560833	0,1	-0,045568
0,562500	0,1	-0,067111
0,564167	0,1	-0,042418
0,565833	0,1	0,006049
0,567500	0,1	0,005610
0,569167	0,1	-0,062879
0,570833	0,1	-0,012277
0,572500	0,1	-0,072479
0,574167	0,1	-0,060519
0,575833	0,1	-0,005419
0,577500	0,1	-0,032134
0,579167	0,1	-0,017844
0,580833	0,1	-0,074285
0,582500	0,1	0,005173
0,584167	0,1	0,004869
0,585833	0,1	-0,037957
0,587500	0,1	-0,053394
0,589167	0,1	-0,020490
0,590833	0,1	-0,011981
0,592500	0,1	-0,038609
0,594167	0,1	0,013490
0,595833	0,1	-0,022243
0,597500	0,1	-0,026051
0,599167	0,1	0,003926
0,600833	0,1	-0,044240
0,602500	0,1	-0,029760
0,604167	0,1	-0,012817
0,605833	0,1	-0,026689
0,607500	0,1	0,036100
0,609167	0,1	0,010577
0,610833	0,1	-0,073054
0,612500	0,1	-0,035335
0,614167	0,1	-0,004253
0,615833	0,1	-0,032871
0,617500	0,1	-0,015461
0,619167	0,1	0,000388
0,620833	0,1	0,010215
0,622500	0,1	-0,034643
0,624167	0,1	-0,012206
0,625833	0,1	0,039388
0,627500	0,1	-0,021720
0,629167	0,1	0,002415
0,630833	0,1	-0,011425
0,632500	0,1	0,031724
0,634167	0,1	0,002909
0,635833	0,1	0,043836
0,637500	0,1	-0,029191
0,639167	0,1	0,022315
0,640833	0,1	0,016854
0,642500	0,1	-0,020117
0,644167	0,1	-0,003221
0,645833	0,1	0,014237
0,647500	0,1	0,024161
0,649167	0,1	0,042327
0,650833	0,1	0,040463
0,652500	0,1	-0,014155
0,654167	0,1	0,031689
0,655833	0,1	0,005068
0,657500	0,1	0,027927
0,659167	0,1	0,066000
0,660833	0,1	0,055188
0,662500	0,1	-0,030832
0,664167	0,1	0,014265
0,665833	0,1	0,035496
0,667500	0,1	0,034376
0,669167	0,1	0,055984
0,670833	0,1	-0,020012
0,672500	0,1	0,063283
0,674167	0,1	0,057442
0,675833	0,1	0,010515
0,677500	0,1	0,042452
0,679167	0,1	0,042525
0,680833	0,1	0,044971
0,682500	0,1	0,043717
0,684167	0,1	0,011640
0,685833	0,1	0,062484
0,687500	0,1	0,056055
0,689167	0,1	0,044364
0,690833	0,1	0,022525
0,692500	0,1	0,055822
0,694167	0,1	0,063912
0,695833	0,1	0,062724
0,697500	0,1	0,070871
0,699167	0,1	0,091648
0,700833	0,1	0,046433
0,702500	0,1	0,079949
0,704167	0,1	0,051584
0,705833	0,1	0,062205
0,707500	0,1	0,097280
0,709167	0,1	0,085792
0,710833	0,1	0,068011
0,712500	0,1	0,085880
0,714167	0,1	0,022923
0,715833	0,1	0,102008
0,717500	0,1	0,085536
0,719167	0,1	0,062664
0,720833	0,1	0,095929
0,722500	0,1	0,112850
0,724167	0,1	0,090787
0,725833	0,1	0,100350
0,727500	0,1	0,100286
0,729167	0,1	0,084440
0,730833	0,1	0,128242
0,732500	0,1	0,113144
0,734167	0,1	0,135882
0,735833	0,1	0,111827
0,737500	0,1	0,114235
0,739167	0,1	0,158497
0,740833	0,1	0,134961
0,742500	0,1	0,132087
0,744167	0,1	0,146195
0,745833	0,1	0,154675
0,747500	0,1	0,180574
0,749167	0,1	0,115542
0,750833	0,1	0,120521
0,752500	0,1	0,159981
0,754167	0,1	0,134023
0,755833	0,1	0,186591
0,757500	0,1	0,177810
0,759167	0,1	0,177293
0,760833	0,1	0,206541
0,762500	0,1	0,166347
0,764167	0,1	0,157188
0,765833	0,1	0,123752
0,767500	0,1	0,161271
0,769167	0,1	0,168269
0,770833	0,1	0,107584
0,772500	0,1	0,132566
0,774167	0,1	0,158278
0,775833	0,1	0,195162
0,777500	0,1	0,130169
0,779167	0,1	0,190038
0,780833	0,1	0,161059
0,782500	0,1	0,187923
0,784167	0,1	0,133712
0,785833	0,1	0,117048
0,787500	0,1	0,150701
0,789167	0,1	0,182989
0,790833	0,1	0,149914
0,792500	0,1	0,136215
0,794167	0,1	0,145357
0,795833	0,1	0,162985
0,797500	0,1	0,156896
0,799167	0,1	0,155447
0,800833	0,1	0,160986
0,802500	0,1	0,157381
0,804167	0,1	0,171713
0,805833	0,1	0,149167
0,807500	0,1	0,122653
0,809167	0,1	0,115431
0,810833	0,1	0,129152
0,812500	0,1	0,152382
0,814167	0,1	0,151804
0,815833	0,1	0,129708
0,817500	0,1	0,107797
0,819167	0,1	0,129150
0,820833	0,1	0,176606
0,822500	0,1	0,154901
0,824167	0,1	0,156739
0,825833	0,1	0,132092
0,827500	0,1	0,137920
0,829167	0,1	0,117238
0,830833	0,1	0,160625
0,832500	0,1	0,147167
0,834167	0,1	0,166977
0,835833	0,1	0,137928
0,837500	0,1	0,158599
0,839167	0,1	0,136638
0,840833	0,1	0,173162
0,842500	0,1	0,137250
0,844167	0,1	0,125033
0,845833	0,1	0,159529
0,847500	0,1	0,168752
0,849167	0,1	0,139052
0,850833	0,1	0,144458
0,852500	0,1	0,157860
0,854167	0,1	0,130354
0,855833	0,1	0,182376
0,857500	0,1	0,194561
0,859167	0,1	0,169246
0,860833	0,1	0,160184
0,862500	0,1	0,138021
0,864167	0,1	0,124551
0,865833	0,1	0,124224
0,867500	0,1	0,157920
0,869167	0,1	0,142627
0,870833	0,1	0,147036
0,872500	0,1	0,176350
0,874167	0,1	0,127717
0,875833	0,1	0,187590
0,877500	0,1	0,195206
0,879167	0,1	0,158228
0,880833	0,1	0,167013
0,882500	0,1	0,198878
0,884167	0,1	0,164381
0,885833	0,1	0,208282
0,887500	0,1	0,180231
0,889167	0,1	0,191757
0,890833	0,1	0,192116
0,892500	0,1	0,148851
0,894167	0,1	0,228508
0,895833	0,1	0,155497
0,897500	0,1	0,214368
0,899167	0,1	0,229782
0,900833	0,1	0,239098
0,902500	0,1	0,222600
0,904167	0,1	0,190413
0,905833	0,1	0,203103
0,907500	0,1	0,193218
0,909167	0,1	0,216412
0,910833	0,1	0,178690
0,912500	0,1	0,185963
0,914167	0,1	0,248528
0,915833	0,1	0,179438
0,917500	0,1	0,218596
0,919167	0,1	0,240542
0,920833	0,1	0,231947
0,922500	0,1	0,198473
0,924167	0,1	0,250885
0,925833	0,1	0,247545
0,927500	0,1	0,218293
0,929167	0,1	0,200888
0,930833	0,1	0,229621
0,932500	0,1	0,259018
0,934167	0,1	0,245780
0,935833	0,1	0,245059
0,937500	0,1	0,257341
0,939167	0,1	0,254092
0,940833	0,1	0,226121
0,942500	0,1	0,251985
0,944167	0,1	0,272387
0,945833	0,1	0,251966
0,947500	0,1	0,237213
0,949167	0,1	0,259299
0,950833	0,1	0,284663
0,952500	0,1	0,293112
0,954167	0,1	0,205900
0,955833	0,1	0,288488
0,957500	0,1	0,268464
0,959167	0,1	0,278836
0,960833	0,1	0,273169
0,962500	0,1	0,261858
0,964167	0,1	0,278546
0,965833	0,1	0,332134
0,967500	0,1	0,294478
0,969167	0,1	0,286445
0,970833	0,1	0,304527
0,972500	0,1	0,296601
0,974167	0,1	0,301072
0,975833	0,1	0,298086
0,977500	0,1	0,370299
0,979167	0,1	0,308284
0,980833	0,1	0,282620
0,982500	0,1	0,334754
0,984167	0,1	0,329450
0,985833	0,1	0,325162
0,987500	0,1	0,347142
0,989167	0,1	0,347751
0,990833	0,1	0,363643
0,992500	0,1	0,339125
0,994167	0,1	0,317627
0,995833	0,1	0,377225
0,997500	0,1	0,370713
0,999167	0,1	0,368962
1,000833	0,1	0,359490
1,002500	0,1	0,388561
1,004167	0,1	0,369295
1,005833	0,1	0,412547
1,007500	0,1	0,407517
1,009167	0,1	0,452130
1,010833	0,1	0,471261
1,012500	0,1	0,454030
1,014167	0,1	0,447985
1,015833	0,1	0,463457
1,017500	0,1	0,461725
1,019167	0,1	0,492227
1,020833	0,1	0,523008
1,022500	0,1	0,500333
1,024167	0,1	0,529990
1,025833	0,1	0,494642
1,027500	0,1	0,559364
1,029167	0,1	0,581217
1,030833	0,1	0,566188
1,032500	0,1	0,571255
1,034167	0,1	0,601390
1,035833	0,1	0,636959
1,037500	0,1	0,581791
1,039167	0,1	0,648341
1,040833	0,1	0,640464
1,042500	0,1	0,611548
1,044167	0,1	0,611321
1,045833	0,1	0,655268
1,047500	0,1	0,705297
1,049167	0,1	0,693147
1,050833	0,1	0,730543
1,052500	0,1	0,764186
1,054167	0,1	0,759698
1,055833	0,1	0,882601
1,057500	0,1	0,882258
1,059167	0,1	1,010976
1,060833	0,1	1,039837
1,062500	0,1	1,213695
1,064167	0,1	1,436260
1,065833	0,1	1,672298
1,067500	0,1	1,935863
1,069167	0,1	2,286001
1,070833	0,1	2,782881
1,072500	0,1	3,369889
1,074167	0,1	4,089284
1,075833	0,1	4,941069
1,077500	0,1	5,902155
1,079167	0,1	6,991515
1,080833	0,1	8,298533
1,082500	0,1	9,764278
1,084167	0,1	11,371355
1,085833	0,1	13,120984
1,087500	0,1	14,975695
1,089167	0,1	17,011458
1,090833	0,1	19,104858
1,092500	0,1	21,231963
1,094167	0,1	23,465341
1,095833	0,1	25,657960
1,097500	0,1	27,835723
1,099167	0,1	29,952443
1,100833	0,1	31,947442
1,102500	0,1	33,809977
1,104167	0,1	35,491733
1,105833	0,1	37,052807
1,107500	0,1	38,491744
1,109167	0,1	39,622211
1,110833	0,1	40,576639
1,112500	0,1	41,337644
1,114167	0,1	41,842825
1,115833	0,1	42,187709
1,117500	0,1	42,335221
1,119167	0,1	42,316684
1,120833	0,1	42,085372
1,122500	0,1	41,691748
1,124167	0,1	41,194158
1,125833	0,1	40,560001
1,127500	0,1	39,831425
1,129167	0,1	38,973149
1,130833	0,1	38,065781
1,132500	0,1	37,090345
1,134167	0,1	36,036156
1,135833	0,1	34,998473
1,137500	0,1	33,876413
1,139167	0,1	32,802604
1,140833	0,1	31,706236
1,142500	0,1	30,570542
1,144167	0,1	29,560631
1,145833	0,1	28,528565
1,147500	0,1	27,549379
1,149167	0,1	26,564301
1,150833	0,1	25,643692
1,152500	0,1	24,849026
1,154167	0,1	24,043478
1,155833	0,1	23,306629
1,157500	0,1	22,548064
1,159167	0,1	21,903292
1,160833	0,1	21,365569
1,162500	0,1	20,803292
1,164167	0,1	20,258821
1,165833	0,1	19,818175
1,167500	0,1	19,430936
1,169167	0,1	18,965363
1,170833	0,1	18,581663
1,172500	0,1	18,291471
1,174167	0,1	17,925746
1,175833	0,1	17,621335
1,177500	0,1	17,343411
1,179167	0,1	17,118202
1,180833	0,1	16,916083
1,182500	0,1	16,669870
1,184167	0,1	16,524831
1,185833	0,1	16,363478
1,187500	0,1	16,265266
1,189167	0,1	16,202003
1,190833	0,1	16,281955
1,192500	0,1	16,314856
1,194167	0,1	16,476882
1,195833	0,1	16,746019
1,197500	0,1	17,154379
1,199167	0,1	17,692084
1,200833	0,1	18,422759
1,202500	0,1	19,324503
1,204167	0,1	20,459137
1,205833	0,1	21,864903
1,207500	0,1	23,459963
1,209167	0,1	25,390362
1,210833	0,1	27,605144
1,212500	0,1	30,062885
1,214167	0,1	32,792417
1,215833	0,1	35,884244
1,217500	0,1	39,217144
1,219167	0,1	42,765054
1,220833	0,1	46,596805
1,222500	0,1	50,600489
1,224167	0,1	54,806834
1,225833	0,1	59,077348
1,227500	0,1	63,521056
1,229167	0,1	67,990248
1,230833	0,1	72,398889
1,232500	0,1	76,784675
1,234167	0,1	81,117829
1,235833	0,1	85,246548
1,237500	0,1	89,240499
1,239167	0,1	93,123521
1,240833	0,1	96,673451
1,242500	0,1	100,059331
1,244167	0,1	103,072754
1,245833	0,1	105,921568
1,247500	0,1	108,428445
1,249167	0,1	110,622829
1,250833	0,1	112,466555
1,252500	0,1	114,124966
1,254167	0,1	115,413280
1,255833	0,1	116,395163
1,257500	0,1	117,081577
1,259167	0,1	117,465162
1,260833	0,1	117,506343
1,262500	0,1	117,352203
1,264167	0,1	116,934002
1,265833	0,1	116,163788
1,267500	0,1	115,236631
1,269167	0,1	114,085527
1,270833	0,1	112,775600
1,272500	0,1	111,160230
1,274167	0,1	109,442028
1,275833	0,1	107,519621
1,277500	0,1	105,526412
1,279167	0,1	103,320178
1,280833	0,1	101,023133
1,282500	0,1	98,719365
1,284167	0,1	96,269843
1,285833	0,1	93,802087
1,287500	0,1	91,328849
1,289167	0,1	88,784735
1,290833	0,1	86,177472
1,292500	0,1	83,687949
1,294167	0,1	81,148688
1,295833	0,1	78,668055
1,297500	0,1	76,217710
1,299167	0,1	73,840716
1,300833	0,1	71,542138
1,302500	0,1	69,222322
1,304167	0,1	67,021214
1,305833	0,1	64,869897
1,307500	0,1	62,837659
1,309167	0,1	60,811781
1,310833	0,1	58,946426
1,312500	0,1	57,090957
1,314167	0,1	55,313342
1,315833	0,1	53,593718
1,317500	0,1	52,017609
1,319167	0,1	50,445729
1,320833	0,1	48,935242
1,322500	0,1	47,529731
1,324167	0,1	46,176030
1,325833	0,1	44,911880
1,327500	0,1	43,621794
1,329167	0,1	42,367668
1,330833	0,1	41,260164
1,332500	0,1	40,185446
1,334167	0,1	39,105736
1,335833	0,1	38,080084
1,337500	0,1	37,102274
1,339167	0,1	36,111972
1,340833	0,1	35,210752
1,342500	0,1	34,368942
1,344167	0,1	33,509228
1,345833	0,1	32,702482
1,347500	0,1	31,909132
1,349167	0,1	31,193200
1,350833	0,1	30,363772
1,352500	0,1	29,746740
1,354167	0,1	28,968763
1,355833	0,1	28,368939
1,357500	0,1	27,685408
1,359167	0,1	27,068909
1,360833	0,1	26,418936
1,362500	0,1	25,826733
1,364167	0,1	25,268362
1,365833	0,1	24,702665
1,367500	0,1	24,138767
1,369167	0,1	23,602112
1,370833	0,1	23,079021
1,372500	0,1	22,602018
1,374167	0,1	22,142460
1,375833	0,1	21,640779
1,377500	0,1	21,186813
1,379167	0,1	20,743638
1,380833	0,1	20,333203
1,382500	0,1	19,923310
1,384167	0,1	19,489130
1,385833	0,1	19,152333
1,387500	0,1	18,767427
1,389167	0,1	18,297953
1,390833	0,1	17,973987
1,392500	0,1	17,699013
1,394167	0,1	17,295148
1,395833	0,1	17,010059
1,397500	0,1	16,673333
1,399167	0,1	16,383323
1,400833	0,1	16,132759
1,402500	0,1	15,850058
1,404167	0,1	15,511862
1,405833	0,1	15,291303
1,407500	0,1	15,026349
1,409167	0,1	14,798613
1,410833	0,1	14,535002
1,412500	0,1	14,324309
1,414167	0,1	14,118348
1,415833	0,1	13,895966
1,417500	0,1	13,680417
1,419167	0,1	13,474480
1,420833	0,1	13,278866
1,422500	0,1	13,123506
1,424167	0,1	12,907831
1,425833	0,1	12,713747
1,427500	0,1	12,525547
1,429167	0,1	12,420690
1,430833	0,1	12,257428
1,432500	0,1	12,079884
1,434167	0,1	11,869364
1,435833	0,1	11,740065
1,437500	0,1	11,586741
1,439167	0,1	11,411725
1,440833	0,1	11,299639
1,442500	0,1	11,122582
1,444167	0,1	11,068295
1,445833	0,1	10,877459
1,447500	0,1	10,754151
1,449167	0,1	10,629154
1,450833	0,1	10,510675
1,452500	0,1	10,329070
1,454167	0,1	10,268681
1,455833	0,1	10,142124
1,457500	0,1	10,008671
1,459167	0,1	9,880360
1,460833	0,1	9,782768
1,462500	0,1	9,683732
1,464167	0,1	9,585485
1,465833	0,1	9,529821
1,467500	0,1	9,413023
1,469167	0,1	9,307318
1,470833	0,1	9,231207
1,472500	0,1	9,119089
1,474167	0,1	9,110157
1,475833	0,1	8,955357
1,477500	0,1	8,935978
1,479167	0,1	8,855184
1,480833	0,1	8,759899
1,482500	0,1	8,732586
1,484167	0,1	8,655216
1,485833	0,1	8,621969
1,487500	0,1	8,544650
1,489167	0,1	8,550790
1,490833	0,1	8,456915
1,492500	0,1	8,408236
1,494167	0,1	8,388163
1,495833	0,1	8,350131
1,497500	0,1	8,371763
1,499167	0,1	8,319698
1,500833	0,1	8,342026
1,502500	0,1	8,250409
1,504167	0,1	8,213882
1,505833	0,1	8,242551
1,507500	0,1	8,202773
1,509167	0,1	8,184589
1,510833	0,1	8,166966
1,512500	0,1	8,110319
1,514167	0,1	8,122424
1,515833	0,1	8,111674
1,517500	0,1	8,096278
1,519167	0,1	8,062231
1,520833	0,1	8,085212
1,522500	0,1	8,062784
1,524167	0,1	8,049480
1,525833	0,1	8,037288
1,527500	0,1	8,048617
1,529167	0,1	8,014705
1,530833	0,1	7,989633
1,532500	0,1	8,018904
1,534167	0,1	7,957826
1,535833	0,1	7,996171
1,537500	0,1	7,978668
1,539167	0,1	7,990116
1,540833	0,1	7,973540
1,542500	0,1	7,975027
1,544167	0,1	7,918737
1,545833	0,1	7,927192
1,547500	0,1	7,939637
1,549167	0,1	7,925068
1,550833	0,1	7,929775
1,552500	0,1	7,902550
1,554167	0,1	7,941457
1,555833	0,1	7,926558
1,557500	0,1	7,943650
1,559167	0,1	7,919565
1,560833	0,1	7,920572
1,562500	0,1	7,898748
1,564167	0,1	7,921065
1,565833	0,1	7,933548
1,567500	0,1	7,889013
1,569167	0,1	7,839200
1,570833	0,1	7,880287
1,572500	0,1	7,912194
1,574167	0,1	7,857649
1,575833	0,1	7,897560
1,577500	0,1	7,842800
1,579167	0,1	7,871443
1,580833	0,1	7,862308
1,582500	0,1	7,819464
1,584167	0,1	7,818936
1,585833	0,1	7,856176
1,587500	0,1	7,806386
1,589167	0,1	7,791750
1,590833	0,1	7,775911
1,592500	0,1	7,735913
1,594167	0,1	7,725690
1,595833	0,1	7,705088
1,597500	0,1	7,691612
1,599167	0,1	7,672598
1,600833	0,1	7,641111
1,602500	0,1	7,600844
1,604167	0,1	7,615597
1,605833	0,1	7,551404
1,607500	0,1	7,532499
1,609167	0,1	7,517768
1,610833	0,1	7,486576
1,612500	0,1	7,475792
1,614167	0,1	7,423403
1,615833	0,1	7,380834
1,617500	0,1	7,365732
1,619167	0,1	7,336605
1,620833	0,1	7,327646
1,622500	0,1	7,248523
1,624167	0,1	7,237222
1,625833	0,1	7,226205
1,627500	0,1	7,160422
1,629167	0,1	7,112360
1,630833	0,1	7,068294
1,632500	0,1	7,085489
1,634167	0,1	7,036021
1,635833	0,1	7,005335
1,637500	0,1	6,990266
1,639167	0,1	6,949611
1,640833	0,1	6,903613
1,642500	0,1	6,889280
1,644167	0,1	6,875440
1,645833	0,1	6,794601
1,647500	0,1	6,790659
1,649167	0,1	6,772050
1,650833	0,1	6,744383
1,652500	0,1	6,716533
1,654167	0,1	6,674948
1,655833	0,1	6,648124
1,657500	0,1	6,654003
1,659167	0,1	6,609067
1,660833	0,1	6,588225
1,662500	0,1	6,595319
1,664167	0,1	6,605689
1,665833	0,1	6,546284
1,667500	0,1	6,567471
1,669167	0,1	6,522552
1,670833	0,1	6,494336
1,672500	0,1	6,499277
1,674167	0,1	6,492461
1,675833	0,1	6,462291
1,677500	0,1	6,471252
1,679167	0,1	6,490680
1,680833	0,1	6,478919
1,682500	0,1	6,503289
1,684167	0,1	6,524591
1,685833	0,1	6,504422
1,687500	0,1	6,546447
1,689167	0,1	6,601848
1,690833	0,1	6,550112
1,692500	0,1	6,577469
1,694167	0,1	6,578879
1,695833	0,1	6,573926
1,697500	0,1	6,619510
1,699167	0,1	6,631104
1,700833	0,1	6,659882
1,702500	0,1	6,675584
1,704167	0,1	6,706704
1,705833	0,1	6,695970
1,707500	0,1	6,735578
1,709167	0,1	6,752406
1,710833	0,1	6,801942
1,712500	0,1	6,789634
1,714167	0,1	6,824762
1,715833	0,1	6,824202
1,717500	0,1	6,837855
1,719167	0,1	6,849165
1,720833	0,1	6,821413
1,722500	0,1	6,897386
1,724167	0,1	6,884793
1,725833	0,1	6,871792
1,727500	0,1	6,929942
1,729167	0,1	6,930789
1,730833	0,1	6,900969
1,732500	0,1	6,882750
1,734167	0,1	6,917785
1,735833	0,1	6,895841
1,737500	0,1	6,869462
1,739167	0,1	6,890310
1,740833	0,1	6,893302
1,742500	0,1	6,849744
1,744167	0,1	6,883842
1,745833	0,1	6,856739
1,747500	0,1	6,837019
1,749167	0,1	6,811597
1,750833	0,1	6,843921
1,752500	0,1	6,769073
1,754167	0,1	6,774938
1,755833	0,1	6,749992
1,757500	0,1	6,702328
1,759167	0,1	6,711196
1,760833	0,1	6,690733
1,762500	0,1	6,601976
1,764167	0,1	6,618019
1,765833	0,1	6,577858
1,767500	0,1	6,513493
1,769167	0,1	6,470425
1,770833	0,1	6,468830
1,772500	0,1	6,468920
1,774167	0,1	6,380114
1,775833	0,1	6,393168
1,777500	0,1	6,333420
1,779167	0,1	6,299427
1,780833	0,1	6,233699
1,782500	0,1	6,208305
1,784167	0,1	6,150067
1,785833	0,1	6,132118
1,787500	0,1	6,079029
1,789167	0,1	6,014180
1,790833	0,1	5,984681
1,792500	0,1	5,980582
1,794167	0,1	5,892121
1,795833	0,1	5,890932
1,797500	0,1	5,839924
1,799167	0,1	5,764627
1,800833	0,1	5,788871
1,802500	0,1	5,730895
1,804167	0,1	5,690703
1,805833	0,1	5,652848
1,807500	0,1	5,603983
1,809167	0,1	5,555235
1,810833	0,1	5,544239
1,812500	0,1	5,500059
1,814167	0,1	5,463660
1,815833	0,1	5,431752
1,817500	0,1	5,371083
1,819167	0,1	5,334115
1,820833	0,1	5,342087
1,822500	0,1	5,314937
1,824167	0,1	5,273187
1,825833	0,1	5,244389
1,827500	0,1	5,208422
1,829167	0,1	5,131332
1,830833	0,1	5,159795
1,832500	0,1	5,201428
1,834167	0,1	5,170696
1,835833	0,1	5,151962
1,837500	0,1	5,161540
1,839167	0,1	5,166017
1,840833	0,1	5,232998
1,842500	0,1	5,200948
1,844167	0,1	5,240285
1,845833	0,1	5,273453
1,847500	0,1	5,323623
1,849167	0,1	5,374617
1,850833	0,1	5,386366
1,852500	0,1	5,416597
1,854167	0,1	5,447834
1,855833	0,1	5,518016
1,857500	0,1	5,527507
1,859167	0,1	5,627378
1,860833	0,1	5,674070
1,862500	0,1	5,756216
1,864167	0,1	5,772845
1,865833	0,1	5,835047
1,867500	0,1	5,855548
1,869167	0,1	5,901160
1,870833	0,1	6,005475
1,872500	0,1	5,985803
1,874167	0,1	6,056523
1,875833	0,1	6,079476
1,877500	0,1	6,160584
1,879167	0,1	6,196059
1,880833	0,1	6,243852
1,882500	0,1	6,285307
1,884167	0,1	6,341891
1,885833	0,1	6,331258
1,887500	0,1	6,346940
1,889167	0,1	6,394278
1,890833	0,1	6,445837
1,892500	0,1	6,487031
1,894167	0,1	6,564561
1,895833	0,1	6,538241
1,897500	0,1	6,576904
1,899167	0,1	6,633619
1,900833	0,1	6,635128
1,902500	0,1	6,683520
1,904167	0,1	6,670824
1,905833	0,1	6,713620
1,907500	0,1	6,731375
1,909167	0,1	6,762875
1,910833	0,1	6,807180
1,912500	0,1	6,823174
1,914167	0,1	6,843089
1,915833	0,1	6,831308
1,917500	0,1	6,877383
1,919167	0,1	6,865247
1,920833	0,1	6,885249
1,922500	0,1	6,913110
1,924167	0,1	6,920786
1,925833	0,1	6,929200
1,927500	0,1	6,908262
1,929167	0,1	6,945645
1,930833	0,1	6,939479
1,932500	0,1	6,916212
1,934167	0,1	6,963775
1,935833	0,1	6,963519
1,937500	0,1	6,943512
1,939167	0,1	6,926950
1,940833	0,1	6,982115
1,942500	0,1	6,964077
1,944167	0,1	6,968870
1,945833	0,1	6,973337
1,947500	0,1	6,935102
1,949167	0,1	6,942213
1,950833	0,1	6,995487
1,952500	0,1	6,969602
1,954167	0,1	7,014570
1,955833	0,1	7,019243
1,957500	0,1	6,965421
1,959167	0,1	7,014378
1,960833	0,1	7,008226
1,962500	0,1	7,021602
1,964167	0,1	7,028695
1,965833	0,1	7,032382
1,967500	0,1	7,055726
1,969167	0,1	7,029932
1,970833	0,1	7,069009
1,972500	0,1	7,043313
1,974167	0,1	7,105281
1,975833	0,1	7,097176
1,977500	0,1	7,097750
1,979167	0,1	7,120088
1,980833	0,1	7,148341
1,982500	0,1	7,138153
1,984167	0,1	7,152833
1,985833	0,1	7,216350
1,987500	0,1	7,224589
1,989167	0,1	7,219440
1,990833	0,1	7,217600
1,992500	0,1	7,276131
1,994167	0,1	7,284971
1,995833	0,1	7,303496
1,997500	0,1	7,353267
1,999167	0,1	7,359164
2,000833	0,1	7,355526
2,002500	0,1	7,401283
2,004167	0,1	7,407314
2,005833	0,1	7,466628
2,007500	0,1	7,461429
2,009167	0,1	7,494063
2,010833	0,1	7,564911
2,012500	0,1	7,599399
2,014167	0,1	7,618858
2,015833	0,1	7,624303
2,017500	0,1	7,643656
2,019167	0,1	7,702363
2,020833	0,1	7,737941
2,022500	0,1	7,785911
2,024167	0,1	7,801301
2,025833	0,1	7,845300
2,027500	0,1	7,819856
2,029167	0,1	7,934678
2,030833	0,1	7,930613
2,032500	0,1	7,946332
2,034167	0,1	7,987861
2,035833	0,1	8,058577
2,037500	0,1	8,058039
2,039167	0,1	8,137960
2,040833	0,1	8,151481
2,042500	0,1	8,191240
2,044167	0,1	8,234894
2,045833	0,1	8,257500
2,047500	0,1	8,313559
2,049167	0,1	8,343236
2,050833	0,1	8,383801
2,052500	0,1	8,419313
2,054167	0,1	8,463318
2,055833	0,1	8,508498
2,057500	0,1	8,530769
2,059167	0,1	8,555529
2,060833	0,1	8,574132
2,062500	0,1	8,668777
2,064167	0,1	8,627988
2,065833	0,1	8,732628
2,067500	0,1	8,701695
2,069167	0,1	8,761870
2,070833	0,1	8,801663
2,072500	0,1	8,831490
2,074167	0,1	8,871072
2,075833	0,1	8,918034
2,077500	0,1	8,905448
2,079167	0,1	8,974204
2,080833	0,1	8,976746
2,082500	0,1	9,041939
2,084167	0,1	9,039086
2,085833	0,1	9,066982
2,087500	0,1	9,086193
2,089167	0,1	9,134629
2,090833	0,1	9,128522
2,092500	0,1	9,148662
2,094167	0,1	9,159624
2,095833	0,1	9,214855
2,097500	0,1	9,229422
2,099167	0,1	9,229703
2,100833	0,1	9,272808
2,102500	0,1	9,281031
2,104167	0,1	9,270886
2,105833	0,1	9,263858
2,107500	0,1	9,335939
2,109167	0,1	9,355189
2,110833	0,1	9,329318
2,112500	0,1	9,349583
2,114167	0,1	9,321866
2,115833	0,1	9,383270
2,117500	0,1	9,334863
2,119167	0,1	9,359412
2,120833	0,1	9,402639
2,122500	0,1	9,366433
2,124167	0,1	9,404234
2,125833	0,1	9,373950
2,127500	0,1	9,401032
2,129167	0,1	9,359238
2,130833	0,1	9,396761
2,132500	0,1	9,390782
2,134167	0,1	9,406237
2,135833	0,1	9,397556
2,137500	0,1	9,359533
2,139167	0,1	9,362050
2,140833	0,1	9,334350
2,142500	0,1	9,315641
2,144167	0,1	9,355480
2,145833	0,1	9,344898
2,147500	0,1	9,293973
2,149167	0,1	9,327710
2,150833	0,1	9,306175
2,152500	0,1	9,307910
2,154167	0,1	9,271064
2,155833	0,1	9,293978
2,157500	0,1	9,237824
2,159167	0,1	9,242820
2,160833	0,1	9,205154
2,162500	0,1	9,179280
2,164167	0,1	9,207007
2,165833	0,1	9,116635
2,167500	0,1	9,171997
2,169167	0,1	9,106921
2,170833	0,1	9,078598
2,172500	0,1	9,095270
2,174167	0,1	9,071112
2,175833	0,1	9,080695
2,177500	0,1	9,030995
2,179167	0,1	9,009388
2,180833	0,1	9,024680
2,182500	0,1	8,943707
2,184167	0,1	8,941302
2,185833	0,1	8,974550
2,187500	0,1	8,914665
2,189167	0,1	8,876317
2,190833	0,1	8,901633
2,192500	0,1	8,837810
2,194167	0,1	8,851183
2,195833	0,1	8,831916
2,197500	0,1	8,804999
2,199167	0,1	8,799909
2,200833	0,1	8,755458
2,202500	0,1	8,816674
2,204167	0,1	8,819456
2,205833	0,1	8,750309
2,207500	0,1	8,708308
2,209167	0,1	8,703839
2,210833	0,1	8,708957
2,212500	0,1	8,699099
2,214167	0,1	8,698439
2,215833	0,1	8,726040
2,217500	0,1	8,709203
2,219167	0,1	8,696058
2,220833	0,1	8,689446
2,222500	0,1	8,712273
2,224167	0,1	8,689488
2,225833	0,1	8,703590
2,227500	0,1	8,684989
2,229167	0,1	8,691625
2,230833	0,1	8,708321
2,232500	0,1	8,727250
2,234167	0,1	8,758140
2,235833	0,1	8,748116
2,237500	0,1	8,783051
2,239167	0,1	8,780773
2,240833	0,1	8,761508
2,242500	0,1	8,797098
2,244167	0,1	8,824432
2,245833	0,1	8,851179
2,247500	0,1	8,803309
2,249167	0,1	8,843978
2,250833	0,1	8,885120
2,252500	0,1	8,827669
2,254167	0,1	8,852944
2,255833	0,1	8,864054
2,257500	0,1	8,850947
2,259167	0,1	8,859764
2,260833	0,1	8,869351
2,262500	0,1	8,898273
2,264167	0,1	8,898384
2,265833	0,1	8,907279
2,267500	0,1	8,883616
2,269167	0,1	8,848320
2,270833	0,1	8,881422
2,272500	0,1	8,882815
2,274167	0,1	8,861294
2,275833	0,1	8,835032
2,277500	0,1	8,826792
2,279167	0,1	8,870863
2,280833	0,1	8,815731
2,282500	0,1	8,781542
2,284167	0,1	8,780980
2,285833	0,1	8,752064
2,287500	0,1	8,733207
2,289167	0,1	8,750185
2,290833	0,1	8,734799
2,292500	0,1	8,713142
2,294167	0,1	8,711137
2,295833	0,1	8,661369
2,297500	0,1	8,647148
2,299167	0,1	8,655243
2,300833	0,1	8,579482
2,302500	0,1	8,558168
2,304167	0,1	8,571371
2,305833	0,1	8,523457
2,307500	0,1	8,513707
2,309167	0,1	8,485421
2,310833	0,1	8,466342
2,312500	0,1	8,411834
2,314167	0,1	8,386749
2,315833	0,1	8,390600
2,317500	0,1	8,335201
2,319167	0,1	8,342334
2,320833	0,1	8,289893
2,322500	0,1	8,295586
2,324167	0,1	8,261831
2,325833	0,1	8,212976
2,327500	0,1	8,182446
2,329167	0,1	8,172267
2,330833	0,1	8,096315
2,332500	0,1	8,076188
2,334167	0,1	8,088503
2,335833	0,1	8,033139
2,337500	0,1	8,033672
2,339167	0,1	7,994965
2,340833	0,1	7,929615
2,342500	0,1	7,931802
2,344167	0,1	7,885634
2,345833	0,1	7,864338
2,347500	0,1	7,814874
2,349167	0,1	7,811144
2,350833	0,1	7,797731
2,352500	0,1	7,722786
2,354167	0,1	7,722705
2,355833	0,1	7,665835
2,357500	0,1	7,705630
2,359167	0,1	7,685712
2,360833	0,1	7,641671
2,362500	0,1	7,623948
2,364167	0,1	7,598120
2,365833	0,1	7,549782
2,367500	0,1	7,558628
2,369167	0,1	7,546344
2,370833	0,1	7,517801
2,372500	0,1	7,500185
2,374167	0,1	7,538601
2,375833	0,1	7,479500
2,377500	0,1	7,509334
2,379167	0,1	7,480286
2,380833	0,1	7,466060
2,382500	0,1	7,447922
2,384167	0,1	7,484008
2,385833	0,1	7,461210
2,387500	0,1	7,487454
2,389167	0,1	7,434001
2,390833	0,1	7,495534
2,392500	0,1	7,464879
2,394167	0,1	7,502944
2,395833	0,1	7,531117
2,397500	0,1	7,519929
2,399167	0,1	7,544828
2,400833	0,1	7,544932
2,402500	0,1	7,601361
2,404167	0,1	7,627510
2,405833	0,1	7,648787
2,407500	0,1	7,667571
2,409167	0,1	7,724165
2,410833	0,1	7,758712
2,412500	0,1	7,770737
2,414167	0,1	7,861489
2,415833	0,1	7,865585
2,417500	0,1	7,897423
2,419167	0,1	7,972405
2,420833	0,1	8,051326
2,422500	0,1	8,117113
2,424167	0,1	8,129011
2,425833	0,1	8,215846
2,427500	0,1	8,255401
2,429167	0,1	8,344157
2,430833	0,1	8,406608
2,432500	0,1	8,442620
2,434167	0,1	8,571897
2,435833	0,1	8,628177
2,437500	0,1	8,707240
2,439167	0,1	8,745061
2,440833	0,1	8,826667
2,442500	0,1	8,904354
2,444167	0,1	9,038778
2,445833	0,1	9,067058
2,447500	0,1	9,128230
2,449167	0,1	9,257162
2,450833	0,1	9,322331
2,452500	0,1	9,419190
2,454167	0,1	9,546212
2,455833	0,1	9,613491
2,457500	0,1	9,738093
2,459167	0,1	9,855416
2,460833	0,1	9,923477
2,462500	0,1	10,077439
2,464167	0,1	10,171911
2,465833	0,1	10,360971
2,467500	0,1	10,497955
2,469167	0,1	10,607712
2,470833	0,1	10,754311
2,472500	0,1	10,924114
2,474167	0,1	11,172414
2,475833	0,1	11,362197
2,477500	0,1	11,629648
2,479167	0,1	11,891717
2,480833	0,1	12,157874
2,482500	0,1	12,449402
2,484167	0,1	12,843352
2,485833	0,1	13,217276
2,487500	0,1	13,574676
2,489167	0,1	14,091018
2,490833	0,1	14,595294
2,492500	0,1	15,093132
2,494167	0,1	15,677119
2,495833	0,1	16,335312
2,497500	0,1	17,028670
2,499167	0,1	17,799042
2,500833	0,1	18,605320
2,502500	0,1	19,486370
2,504167	0,1	20,402257
2,505833	0,1	21,428742
2,507500	0,1	22,548569
2,509167	0,1	23,656643
2,510833	0,1	24,855470
2,512500	0,1	26,170340
2,514167	0,1	27,571285
2,515833	0,1	29,053955
2,517500	0,1	30,584045
2,519167	0,1	32,187812
2,520833	0,1	33,914171
2,522500	0,1	35,674229
2,524167	0,1	37,513675
2,525833	0,1	39,474861
2,527500	0,1	41,506513
2,529167	0,1	43,503624
2,530833	0,1	45,631605
2,532500	0,1	47,846426
2,534167	0,1	50,106712
2,535833	0,1	52,417395
2,537500	0,1	54,772485
2,539167	0,1	57,227118
2,540833	0,1	59,644193
2,542500	0,1	62,069390
2,544167	0,1	64,647783
2,545833	0,1	67,141491
2,547500	0,1	69,696680
2,549167	0,1	72,216805
2,550833	0,1	74,715237
2,552500	0,1	77,332171
2,554167	0,1	79,828693
2,555833	0,1	82,359655
2,557500	0,1	84,830432
2,559167	0,1	87,335290
2,560833	0,1	89,719065
2,562500	0,1	92,065793
2,564167	0,1	94,398976
2,565833	0,1	96,660469
2,567500	0,1	98,886748
2,569167	0,1	100,999192
2,570833	0,1	103,089217
2,572500	0,1	105,083240
2,574167	0,1	107,046176
2,575833	0,1	108,884191
2,577500	0,1	110,628121
2,579167	0,1	112,316385
2,580833	0,1	113,930687
2,582500	0,1	115,458418
2,584167	0,1	116,826515
2,585833	0,1	118,243930
2,587500	0,1	119,462127
2,589167	0,1	120,590659
2,590833	0,1	121,725380
2,592500	0,1	122,671149
2,594167	0,1	123,560535
2,595833	0,1	124,358730
2,597500	0,1	125,080246
2,599167	0,1	125,707882
2,600833	0,1	126,255123
2,602500	0,1	126,713152
2,604167	0,1	127,087782
2,605833	0,1	127,390524
2,607500	0,1	127,608115
2,609167	0,1	127,744090
2,610833	0,1	127,850726
2,612500	0,1	127,835026
2,614167	0,1	127,715695
2,615833	0,1	127,639740
2,617500	0,1	127,371302
2,619167	0,1	127,119361
2,620833	0,1	126,732900
2,622500	0,1	126,372747
2,624167	0,1	125,895470
2,625833	0,1	125,385458
2,627500	0,1	124,790113
2,629167	0,1	124,224561
2,630833	0,1	123,552500
2,632500	0,1	122,790343
2,634167	0,1	121,979372
2,635833	0,1	121,150172
2,637500	0,1	120,300157
2,639167	0,1	119,423979
2,640833	0,1	118,401373
2,642500	0,1	117,451735
2,644167	0,1	116,347026
2,645833	0,1	115,318148
2,647500	0,1	114,167245
2,649167	0,1	113,052342
2,650833	0,1	111,804024
2,652500	0,1	110,659472
2,654167	0,1	109,422426
2,655833	0,1	108,174740
2,657500	0,1	106,890545
2,659167	0,1	105,613224
2,660833	0,1	104,260453
2,662500	0,1	102,946416
2,664167	0,1	101,578629
2,665833	0,1	100,193340
2,667500	0,1	98,874438
2,669167	0,1	97,446027
2,670833	0,1	95,966693
2,672500	0,1	94,551350
2,674167	0,1	93,208464
2,675833	0,1	91,753355
2,677500	0,1	90,289341
2,679167	0,1	88,907341
2,680833	0,1	87,467521
2,682500	0,1	86,071844
2,684167	0,1	84,553989
2,685833	0,1	83,149390
2,687500	0,1	81,708233
2,689167	0,1	80,361973
2,690833	0,1	78,910691
2,692500	0,1	77,500154
2,694167	0,1	76,134033
2,695833	0,1	74,748387
2,697500	0,1	73,414673
2,699167	0,1	72,039984
2,700833	0,1	70,701823
2,702500	0,1	69,394867
2,704167	0,1	68,098534
2,705833	0,1	66,772589
2,707500	0,1	65,508743
2,709167	0,1	64,214941
2,710833	0,1	63,020483
2,712500	0,1	61,832752
2,714167	0,1	60,641929
2,715833	0,1	59,368232
2,717500	0,1	58,240003
2,719167	0,1	57,136393
2,720833	0,1	56,016476
2,722500	0,1	54,901921
2,724167	0,1	53,812770
2,725833	0,1	52,763995
2,727500	0,1	51,723282
2,729167	0,1	50,666223
2,730833	0,1	49,703569
2,732500	0,1	48,723638
2,734167	0,1	47,799132
2,735833	0,1	46,846047
2,737500	0,1	45,890723
2,739167	0,1	45,024726
2,740833	0,1	44,147475
2,742500	0,1	43,271221
2,744167	0,1	42,422819
2,745833	0,1	41,573872
2,747500	0,1	40,807344
2,749167	0,1	40,015502
2,750833	0,1	39,266300
2,752500	0,1	38,492338
2,754167	0,1	37,801597
2,755833	0,1	37,067602
2,757500	0,1	36,329220
2,759167	0,1	35,664769
2,760833	0,1	35,025146
2,762500	0,1	34,369747
2,764167	0,1	33,731896
2,765833	0,1	33,094263
2,767500	0,1	32,499574
2,769167	0,1	31,891153
2,770833	0,1	31,310506
2,772500	0,1	30,751719
2,774167	0,1	30,206621
2,775833	0,1	29,676689
2,777500	0,1	29,161061
2,779167	0,1	28,609589
2,780833	0,1	28,115480
2,782500	0,1	27,576805
2,784167	0,1	27,158077
2,785833	0,1	26,700855
2,787500	0,1	26,165495
2,789167	0,1	25,747257
2,790833	0,1	25,273121
2,792500	0,1	24,872020
2,794167	0,1	24,420169
2,795833	0,1	24,020913
2,797500	0,1	23,597741
2,799167	0,1	23,233138
2,800833	0,1	22,797755
2,802500	0,1	22,443590
2,804167	0,1	22,039130
2,805833	0,1	21,679624
2,807500	0,1	21,329016
2,809167	0,1	20,972130
2,810833	0,1	20,630527
2,812500	0,1	20,299425
2,814167	0,1	19,953236
2,815833	0,1	19,690358
2,817500	0,1	19,285493
2,819167	0,1	18,987564
2,820833	0,1	18,695997
2,822500	0,1	18,397172
2,824167	0,1	18,066889
2,825833	0,1	17,795738
2,827500	0,1	17,489794
2,829167	0,1	17,209341
2,830833	0,1	16,954505
2,832500	0,1	16,713353
2,834167	0,1	16,445777
2,835833	0,1	16,190937
2,837500	0,1	15,935058
2,839167	0,1	15,694399
2,840833	0,1	15,483121
2,842500	0,1	15,226591
2,844167	0,1	14,990457
2,845833	0,1	14,792607
2,847500	0,1	14,555247
2,849167	0,1	14,328307
2,850833	0,1	14,150950
2,852500	0,1	13,906122
2,854167	0,1	13,768053
2,855833	0,1	13,552525
2,857500	0,1	13,314291
2,859167	0,1	13,189752
2,860833	0,1	12,945378
2,862500	0,1	12,805285
2,864167	0,1	12,635774
2,865833	0,1	12,456083
2,867500	0,1	12,291135
2,869167	0,1	12,098567
2,870833	0,1	11,962156
2,872500	0,1	11,760559
2,874167	0,1	11,661419
2,875833	0,1	11,520818
2,877500	0,1	11,349300
2,879167	0,1	11,192436
2,880833	0,1	11,103123
2,882500	0,1	10,938181
2,884167	0,1	10,826310
2,885833	0,1	10,698640
2,887500	0,1	10,561767
2,889167	0,1	10,427361
2,890833	0,1	10,345472
2,892500	0,1	10,242470
2,894167	0,1	10,098939
2,895833	0,1	9,983835
2,897500	0,1	9,866458
2,899167	0,1	9,782727
2,900833	0,1	9,700532
2,902500	0,1	9,566856
2,904167	0,1	9,471968
2,905833	0,1	9,349405
2,907500	0,1	9,271326
2,909167	0,1	9,201148
2,910833	0,1	9,080449
2,912500	0,1	9,030376
2,914167	0,1	8,902776
2,915833	0,1	8,810066
2,917500	0,1	8,714583
2,919167	0,1	8,637482
2,920833	0,1	8,598355
2,922500	0,1	8,503685
2,924167	0,1	8,477204
2,925833	0,1	8,347769
2,927500	0,1	8,289238
2,929167	0,1	8,193899
2,930833	0,1	8,134283
2,932500	0,1	8,090994
2,934167	0,1	8,032059
2,935833	0,1	7,919049
2,937500	0,1	7,878140
2,939167	0,1	7,814141
2,940833	0,1	7,729725
2,942500	0,1	7,672194
2,944167	0,1	7,604096
2,945833	0,1	7,562136
2,947500	0,1	7,486867
2,949167	0,1	7,457560
2,950833	0,1	7,370627
2,952500	0,1	7,280325
2,954167	0,1	7,270919
2,955833	0,1	7,164738
2,957500	0,1	7,084865
2,959167	0,1	7,104084
2,960833	0,1	6,985068
2,962500	0,1	6,996514
2,964167	0,1	6,927438
2,965833	0,1	6,824511
2,967500	0,1	6,814948
2,969167	0,1	6,718789
2,970833	0,1	6,696711
2,972500	0,1	6,694465
2,974167	0,1	6,595253
2,975833	0,1	6,543853
2,977500	0,1	6,525067
2,979167	0,1	6,450444
2,980833	0,1	6,433899
2,982500	0,1	6,333611
2,984167	0,1	6,338079
2,985833	0,1	6,271421
2,987500	0,1	6,217175
2,989167	0,1	6,208485
2,990833	0,1	6,136167
2,992500	0,1	6,101890
2,994167	0,1	6,005036
2,995833	0,1	6,022296
2,997500	0,1	5,993279
2,999167	0,1	5,942542
3,000833	0,1	5,896529
3,002500	0,1	5,837757
3,004167	0,1	5,798386
3,005833	0,1	5,777256
3,007500	0,1	5,684919
3,009167	0,1	5,694621
3,010833	0,1	5,644382
3,012500	0,1	5,585151
3,014167	0,1	5,552888
3,015833	0,1	5,530643
3,017500	0,1	5,499032
3,019167	0,1	5,450602
3,020833	0,1	5,436121
3,022500	0,1	5,363840
3,024167	0,1	5,342377
3,025833	0,1	5,289474
3,027500	0,1	5,228076
3,029167	0,1	5,215414
3,030833	0,1	5,217387
3,032500	0,1	5,170023
3,034167	0,1	5,094656
3,035833	0,1	5,060407
3,037500	0,1	5,082900
3,039167	0,1	5,017617
3,040833	0,1	5,026141
3,042500	0,1	4,999493
3,044167	0,1	4,937427
3,045833	0,1	4,917699
3,047500	0,1	4,841098
3,049167	0,1	4,761780
3,050833	0,1	4,805928
3,052500	0,1	4,732556
3,054167	0,1	4,720563
3,055833	0,1	4,709433
3,057500	0,1	4,671700
3,059167	0,1	4,677975
3,060833	0,1	4,607956
3,062500	0,1	4,616261
3,064167	0,1	4,525766
3,065833	0,1	4,544023
3,067500	0,1	4,501979
3,069167	0,1	4,484490
3,070833	0,1	4,455931
3,072500	0,1	4,400516
3,074167	0,1	4,406190
3,075833	0,1	4,404072
3,077500	0,1	4,345040
3,079167	0,1	4,341290
3,080833	0,1	4,302761
3,082500	0,1	4,267744
3,084167	0,1	4,240055
3,085833	0,1	4,210037
3,087500	0,1	4,203255
3,089167	0,1	4,227586
3,090833	0,1	4,181600
3,092500	0,1	4,185607
3,094167	0,1	4,142125
3,095833	0,1	4,145933
3,097500	0,1	4,121430
3,099167	0,1	4,080621
3,100833	0,1	4,112264
3,102500	0,1	4,058286
3,104167	0,1	4,054043
3,105833	0,1	4,032791
3,107500	0,1	4,022303
3,109167	0,1	4,006296
3,110833	0,1	4,001093
3,112500	0,1	4,006455
3,114167	0,1	4,012586
3,115833	0,1	4,008851
3,117500	0,1	3,950396
3,119167	0,1	3,938929
3,120833	0,1	3,943308
3,122500	0,1	3,946726
3,124167	0,1	3,934902
3,125833	0,1	3,935553
3,127500	0,1	3,932749
3,129167	0,1	3,972516
3,130833	0,1	3,938811
3,132500	0,1	3,904036
3,134167	0,1	3,929696
3,135833	0,1	3,991395
3,137500	0,1	3,907948
3,139167	0,1	3,885509
3,140833	0,1	3,911700
3,142500	0,1	3,933839
3,144167	0,1	3,898836
3,145833	0,1	3,931114
3,147500	0,1	3,905533
3,149167	0,1	3,938309
3,150833	0,1	3,958459
3,152500	0,1	3,969391
3,154167	0,1	3,920250
3,155833	0,1	3,908456
3,157500	0,1	3,910974
3,159167	0,1	3,915278
3,160833	0,1	3,902323
3,162500	0,1	3,936358
3,164167	0,1	3,953461
3,165833	0,1	3,900709
3,167500	0,1	3,908859
3,169167	0,1	3,948745
3,170833	0,1	3,883244
3,172500	0,1	3,923761
3,174167	0,1	3,891156
3,175833	0,1	3,890297
3,177500	0,1	3,886273
3,179167	0,1	3,906136
3,180833	0,1	3,913409
3,182500	0,1	3,902891
3,184167	0,1	3,863534
3,185833	0,1	3,863361
3,187500	0,1	3,837657
3,189167	0,1	3,842969
3,190833	0,1	3,850728
3,192500	0,1	3,833024
3,194167	0,1	3,793183
3,195833	0,1	3,814168
3,197500	0,1	3,818273
3,199167	0,1	3,822741
3,200833	0,1	3,746365
3,202500	0,1	3,731203
3,204167	0,1	3,774643
3,205833	0,1	3,726787
3,207500	0,1	3,771720
3,209167	0,1	3,705146
3,210833	0,1	3,717387
3,212500	0,1	3,664536
3,214167	0,1	3,667534
3,215833	0,1	3,709426
3,217500	0,1	3,600968
3,219167	0,1	3,613494
3,220833	0,1	3,582398
3,222500	0,1	3,624397
3,224167	0,1	3,539954
3,225833	0,1	3,577549
3,227500	0,1	3,520827
3,229167	0,1	3,548121
3,230833	0,1	3,500398
3,232500	0,1	3,482913
3,234167	0,1	3,508229
3,235833	0,1	3,443805
3,237500	0,1	3,455872
3,239167	0,1	3,425365
3,240833	0,1	3,394359
3,242500	0,1	3,417654
3,244167	0,1	3,415508
3,245833	0,1	3,332097
3,247500	0,1	3,330984
3,249167	0,1	3,298743
3,250833	0,1	3,304085
3,252500	0,1	3,303466
3,254167	0,1	3,259960
3,255833	0,1	3,230181
3,257500	0,1	3,213096
3,259167	0,1	3,241022
3,260833	0,1	3,176766
3,262500	0,1	3,165152
3,264167	0,1	3,149240
3,265833	0,1	3,119788
3,267500	0,1	3,070900
3,269167	0,1	3,041753
3,270833	0,1	3,080167
3,272500	0,1	3,025724
3,274167	0,1	3,042962
3,275833	0,1	3,007247
3,277500	0,1	2,975511
3,279167	0,1	2,976520
3,280833	0,1	2,932290
3,282500	0,1	2,923595
3,284167	0,1	2,879088
3,285833	0,1	2,908284
3,287500	0,1	2,856834
3,289167	0,1	2,856591
3,290833	0,1	2,795009
3,292500	0,1	2,816154
3,294167	0,1	2,760588
3,295833	0,1	2,788941
3,297500	0,1	2,747543
3,299167	0,1	2,724106
3,300833	0,1	2,722518
3,302500	0,1	2,710110
3,304167	0,1	2,704846
3,305833	0,1	2,713880
3,307500	0,1	2,632957
3,309167	0,1	2,647689
3,310833	0,1	2,623086
3,312500	0,1	2,646599
3,314167	0,1	2,628633
3,315833	0,1	2,632229
3,317500	0,1	2,582476
3,319167	0,1	2,572443
3,320833	0,1	2,545610
3,322500	0,1	2,536774
3,324167	0,1	2,505919
3,325833	0,1	2,499434
3,327500	0,1	2,479097
3,329167	0,1	2,497258
3,330833	0,1	2,473974
3,332500	0,1	2,463395
3,334167	0,1	2,433434
3,335833	0,1	2,412370
3,337500	0,1	2,410183
3,339167	0,1	2,420559
3,340833	0,1	2,370123
3,342500	0,1	2,366798
3,344167	0,1	2,391242
3,345833	0,1	2,348907
3,347500	0,1	2,344116
3,349167	0,1	2,331900
3,350833	0,1	2,330379
3,352500	0,1	2,328297
3,354167	0,1	2,325483
3,355833	0,1	2,323530
3,357500	0,1	2,279524
3,359167	0,1	2,270884
3,360833	0,1	2,308402
3,362500	0,1	2,306627
3,364167	0,1	2,283319
3,365833	0,1	2,289416
3,367500	0,1	2,256198
3,369167	0,1	2,202193
3,370833	0,1	2,273849
3,372500	0,1	2,211582
3,374167	0,1	2,226134
3,375833	0,1	2,179946
3,377500	0,1	2,197052
3,379167	0,1	2,176350
3,380833	0,1	2,184816
3,382500	0,1	2,204876
3,384167	0,1	2,177130
3,385833	0,1	2,186889
3,387500	0,1	2,189498
3,389167	0,1	2,149304
3,390833	0,1	2,212126
3,392500	0,1	2,172111
3,394167	0,1	2,129522
3,395833	0,1	2,166101
3,397500	0,1	2,118232
3,399167	0,1	2,154677
3,400833	0,1	2,122024
3,402500	0,1	2,113403
3,404167	0,1	2,121808
3,405833	0,1	2,120007
3,407500	0,1	2,105131
3,409167	0,1	2,097647
3,410833	0,1	2,107705
3,412500	0,1	2,106487
3,414167	0,1	2,076939
3,415833	0,1	2,091962
3,417500	0,1	2,081533
3,419167	0,1	2,073485
3,420833	0,1	2,063708
3,422500	0,1	2,062333
3,424167	0,1	2,078943
3,425833	0,1	2,065918
3,427500	0,1	2,027103
3,429167	0,1	2,060517
3,430833	0,1	2,044079
3,432500	0,1	2,006546
3,434167	0,1	2,047148
3,435833	0,1	2,012290
3,437500	0,1	2,029821
3,439167	0,1	2,041838
3,440833	0,1	2,001421
3,442500	0,1	2,040017
3,444167	0,1	2,013363
3,445833	0,1	2,026951
3,447500	0,1	1,997759
3,449167	0,1	2,012560
3,450833	0,1	2,085095
3,452500	0,1	2,038535
3,454167	0,1	2,015227
3,455833	0,1	1,999203
3,457500	0,1	1,990131
3,459167	0,1	2,008902
3,460833	0,1	2,017530
3,462500	0,1	1,976479
3,464167	0,1	1,986539
3,465833	0,1	1,968927
3,467500	0,1	2,021607
3,469167	0,1	1,962393
3,470833	0,1	1,956128
3,472500	0,1	2,026711
3,474167	0,1	1,999700
3,475833	0,1	1,992211
3,477500	0,1	1,997677
3,479167	0,1	1,954761
3,480833	0,1	1,966259
3,482500	0,1	1,993076
3,484167	0,1	1,975607
3,485833	0,1	1,960796
3,487500	0,1	1,986458
3,489167	0,1	1,954335
3,490833	0,1	1,981928
3,492500	0,1	1,945059
3,494167	0,1	1,977470
3,495833	0,1	1,965978
3,497500	0,1	1,957201
3,499167	0,1	1,982221
3,500833	0,1	2,016006
3,502500	0,1	1,996389
3,504167	0,1	1,961804
3,505833	0,1	1,941755
3,507500	0,1	1,980124
3,509167	0,1	1,983796
3,510833	0,1	1,938310
3,512500	0,1	1,962373
3,514167	0,1	1,951022
3,515833	0,1	1,943825
3,517500	0,1	1,995084
3,519167	0,1	1,945712
3,520833	0,1	1,949654
3,522500	0,1	1,965683
3,524167	0,1	1,975033
3,525833	0,1	1,959575
3,527500	0,1	1,937083
3,529167	0,1	1,944905
3,530833	0,1	1,949587
3,532500	0,1	1,980560
3,534167	0,1	1,946929
3,535833	0,1	1,989976
3,537500	0,1	1,990205
3,539167	0,1	1,959011
3,540833	0,1	1,983937
3,542500	0,1	1,997171
3,544167	0,1	1,973376
3,545833	0,1	1,969133
3,547500	0,1	1,969497
3,549167	0,1	1,970150
3,550833	0,1	1,938444
3,552500	0,1	1,972934
3,554167	0,1	1,945776
3,555833	0,1	1,972216
3,557500	0,1	1,954691
3,559167	0,1	1,960724
3,560833	0,1	1,989040
3,562500	0,1	1,948368
3,564167	0,1	1,967332
3,565833	0,1	1,979552
3,567500	0,1	1,947220
3,569167	0,1	1,940385
3,570833	0,1	1,952739
3,572500	0,1	1,968773
3,574167	0,1	1,955555
3,575833	0,1	1,953608
3,577500	0,1	1,957848
3,579167	0,1	1,924209
3,580833	0,1	1,942676
3,582500	0,1	1,999613
3,584167	0,1	1,988044
3,585833	0,1	1,969356
3,587500	0,1	1,980422
3,589167	0,1	2,009181
3,590833	0,1	1,987044
3,592500	0,1	1,982085
3,594167	0,1	1,982503
3,595833	0,1	1,982947
3,597500	0,1	2,013064
3,599167	0,1	2,035772
3,600833	0,1	2,018966
3,602500	0,1	2,044343
3,604167	0,1	2,024572
3,605833	0,1	2,019402
3,607500	0,1	2,052982
3,609167	0,1	2,048009
3,610833	0,1	2,068085
3,612500	0,1	2,094764
3,614167	0,1	2,080965
3,615833	0,1	2,079594
3,617500	0,1	2,107274
3,619167	0,1	2,133978
3,620833	0,1	2,188608
3,622500	0,1	2,224019
3,624167	0,1	2,199641
3,625833	0,1	2,209290
3,627500	0,1	2,287329
3,629167	0,1	2,296052
3,630833	0,1	2,316773
3,632500	0,1	2,325120
3,634167	0,1	2,349877
3,635833	0,1	2,402969
3,637500	0,1	2,449114
3,639167	0,1	2,476328
3,640833	0,1	2,509068
3,642500	0,1	2,552660
3,644167	0,1	2,520581
3,645833	0,1	2,621987
3,647500	0,1	2,694055
3,649167	0,1	2,686620
3,650833	0,1	2,770148
3,652500	0,1	2,864096
3,654167	0,1	2,875755
3,655833	0,1	2,959196
3,657500	0,1	2,986446
3,659167	0,1	3,073331
3,660833	0,1	3,143719
3,662500	0,1	3,178976
3,664167	0,1	3,249056
3,665833	0,1	3,357494
3,667500	0,1	3,453016
3,669167	0,1	3,528795
3,670833	0,1	3,586486
3,672500	0,1	3,669417
3,674167	0,1	3,797408
3,675833	0,1	3,840522
3,677500	0,1	3,935976
3,679167	0,1	4,035080
3,680833	0,1	4,126897
3,682500	0,1	4,235917
3,684167	0,1	4,318980
3,685833	0,1	4,444893
3,687500	0,1	4,545105
3,689167	0,1	4,612110
3,690833	0,1	4,737744
3,692500	0,1	4,861578
3,694167	0,1	4,958153
3,695833	0,1	5,041608
3,697500	0,1	5,203112
3,699167	0,1	5,310232
3,700833	0,1	5,399231
3,702500	0,1	5,526293
3,704167	0,1	5,657811
3,705833	0,1	5,754920
3,707500	0,1	5,904046
3,709167	0,1	6,037009
3,710833	0,1	6,093748
3,712500	0,1	6,247656
3,714167	0,1	6,393887
3,715833	0,1	6,473853
3,717500	0,1	6,596879
3,719167	0,1	6,753404
3,720833	0,1	6,827740
3,722500	0,1	6,921599
3,724167	0,1	7,051404
3,725833	0,1	7,164763
3,727500	0,1	7,302111
3,729167	0,1	7,428062
3,730833	0,1	7,509948
3,732500	0,1	7,621098
3,734167	0,1	7,711519
3,735833	0,1	7,788292
3,737500	0,1	7,919165
3,739167	0,1	8,000774
3,740833	0,1	8,111218
3,742500	0,1	8,218770
3,744167	0,1	8,294207
3,745833	0,1	8,351617
3,747500	0,1	8,468484
3,749167	0,1	8,554447
3,750833	0,1	8,597719
3,752500	0,1	8,724044
3,754167	0,1	8,782595
3,755833	0,1	8,838852
3,757500	0,1	8,912487
3,759167	0,1	8,970740
3,760833	0,1	9,038136
3,762500	0,1	9,091828
3,764167	0,1	9,102811
3,765833	0,1	9,136617
3,767500	0,1	9,221639
3,769167	0,1	9,295874
3,770833	0,1	9,307992
3,772500	0,1	9,304215
3,774167	0,1	9,343018
3,775833	0,1	9,364934
3,777500	0,1	9,423614
3,779167	0,1	9,402061
3,780833	0,1	9,443268
3,782500	0,1	9,441981
3,784167	0,1	9,468541
3,785833	0,1	9,423452
3,787500	0,1	9,454970
3,789167	0,1	9,441576
3,790833	0,1	9,456229
3,792500	0,1	9,459881
3,794167	0,1	9,413364
3,795833	0,1	9,434840
3,797500	0,1	9,392765
3,799167	0,1	9,404409
3,800833	0,1	9,391356
3,802500	0,1	9,305510
3,804167	0,1	9,266058
3,805833	0,1	9,258194
3,807500	0,1	9,268061
3,809167	0,1	9,228551
3,810833	0,1	9,167366
3,812500	0,1	9,091201
3,814167	0,1	9,076582
3,815833	0,1	9,010992
3,817500	0,1	8,927926
3,819167	0,1	8,955278
3,820833	0,1	8,870099
3,822500	0,1	8,798471
3,824167	0,1	8,739794
3,825833	0,1	8,630427
3,827500	0,1	8,650980
3,829167	0,1	8,587097
3,830833	0,1	8,458367
3,832500	0,1	8,408225
3,834167	0,1	8,379444
3,835833	0,1	8,294826
3,837500	0,1	8,223509
3,839167	0,1	8,155591
3,840833	0,1	8,133897
3,842500	0,1	7,975329
3,844167	0,1	7,964332
3,845833	0,1	7,845818
3,847500	0,1	7,836371
3,849167	0,1	7,713305
3,850833	0,1	7,668519
3,852500	0,1	7,553353
3,854167	0,1	7,485721
3,855833	0,1	7,384379
3,857500	0,1	7,315917
3,859167	0,1	7,245022
3,860833	0,1	7,166127
3,862500	0,1	7,119545
3,864167	0,1	7,034801
3,865833	0,1	6,974267
3,867500	0,1	6,874241
3,869167	0,1	6,773844
3,870833	0,1	6,718678
3,872500	0,1	6,635891
3,874167	0,1	6,559929
3,875833	0,1	6,470344
3,877500	0,1	6,382829
3,879167	0,1	6,315034
3,880833	0,1	6,251624
3,882500	0,1	6,129004
3,884167	0,1	6,091171
3,885833	0,1	6,012315
3,887500	0,1	5,957463
3,889167	0,1	5,882071
3,890833	0,1	5,801210
3,892500	0,1	5,743308
3,894167	0,1	5,625178
3,895833	0,1	5,555092
3,897500	0,1	5,495688
3,899167	0,1	5,452009
3,900833	0,1	5,360391
3,902500	0,1	5,317425
3,904167	0,1	5,171288
3,905833	0,1	5,165625
3,907500	0,1	5,063551
3,909167	0,1	5,005909
3,910833	0,1	4,954084
3,912500	0,1	4,881992
3,914167	0,1	4,808048
3,915833	0,1	4,739659
3,917500	0,1	4,670321
3,919167	0,1	4,616276
3,920833	0,1	4,580773
3,922500	0,1	4,494775
3,924167	0,1	4,465819
3,925833	0,1	4,371075
3,927500	0,1	4,350003
3,929167	0,1	4,239811
3,930833	0,1	4,217804
3,932500	0,1	4,133068
3,934167	0,1	4,102122
3,935833	0,1	4,052186
3,937500	0,1	3,996839
3,939167	0,1	3,927728
3,940833	0,1	3,865731
3,942500	0,1	3,828762
3,944167	0,1	3,781125
3,945833	0,1	3,710672
3,947500	0,1	3,711751
3,949167	0,1	3,644451
3,950833	0,1	3,575841
3,952500	0,1	3,552083
3,954167	0,1	3,440716
3,955833	0,1	3,447878
3,957500	0,1	3,354218
3,959167	0,1	3,366843
3,960833	0,1	3,339953
3,962500	0,1	3,289503
3,964167	0,1	3,274831
3,965833	0,1	3,247959
3,967500	0,1	3,156344
3,969167	0,1	3,122746
3,970833	0,1	3,114382
3,972500	0,1	3,035123
3,974167	0,1	3,046440
3,975833	0,1	2,963175
3,977500	0,1	2,941550
3,979167	0,1	2,915245
3,980833	0,1	2,868692
3,982500	0,1	2,864768
3,984167	0,1	2,827782
3,985833	0,1	2,778608
3,987500	0,1	2,753829
3,989167	0,1	2,741206
3,990833	0,1	2,680610
3,992500	0,1	2,643240
3,994167	0,1	2,617389
3,995833	0,1	2,650754
3,997500	0,1	2,591188
3,999167	0,1	2,538201
4,000833	0,1	2,611650
4,002500	0,1	2,553135
4,004167	0,1	2,478822
4,005833	0,1	2,457026
4,007500	0,1	2,430795
4,009167	0,1	2,447540
4,010833	0,1	2,445464
4,012500	0,1	2,369756
4,014167	0,1	2,353485
4,015833	0,1	2,388090
4,017500	0,1	2,336220
4,019167	0,1	2,314341
4,020833	0,1	2,313200
4,022500	0,1	2,281592
4,024167	0,1	2,294756
4,025833	0,1	2,248876
4,027500	0,1	2,224182
4,029167	0,1	2,230724
4,030833	0,1	2,225472
4,032500	0,1	2,185208
4,034167	0,1	2,157365
4,035833	0,1	2,187123
4,037500	0,1	2,127863
4,039167	0,1	2,146765
4,040833	0,1	2,143402
4,042500	0,1	2,143958
4,044167	0,1	2,085355
4,045833	0,1	2,104755
4,047500	0,1	2,128048
4,049167	0,1	2,086857
4,050833	0,1	2,064492
4,052500	0,1	2,051272
4,054167	0,1	2,104599
4,055833	0,1	2,030405
4,057500	0,1	2,023940
4,059167	0,1	2,067932
4,060833	0,1	2,030835
4,062500	0,1	1,995115
4,064167	0,1	2,011553
4,065833	0,1	2,046278
4,067500	0,1	2,002866
4,069167	0,1	2,000268
4,070833	0,1	1,978276
4,072500	0,1	1,990417
4,074167	0,1	1,978137
4,075833	0,1	1,982800
4,077500	0,1	1,962384
4,079167	0,1	1,949230
4,080833	0,1	2,022969
4,082500	0,1	2,004656
4,084167	0,1	1,961596
4,085833	0,1	1,974024
4,087500	0,1	1,986535
4,089167	0,1	2,026865
4,090833	0,1	1,963615
4,092500	0,1	1,992067
4,094167	0,1	1,967489
4,095833	0,1	1,995445
4,097500	0,1	2,004513
4,099167	0,1	1,973596
4,100833	0,1	2,012915
4,102500	0,1	1,946861
4,104167	0,1	2,018169
4,105833	0,1	2,012498
4,107500	0,1	2,003366
4,109167	0,1	2,008105
4,110833	0,1	2,002279
4,112500	0,1	1,999846
4,114167	0,1	2,040310
4,115833	0,1	1,992523
4,117500	0,1	1,991865
4,119167	0,1	2,010050
4,120833	0,1	2,016598
4,122500	0,1	2,045490
4,124167	0,1	2,049819
4,125833	0,1	2,058525
4,127500	0,1	2,091085
4,129167	0,1	2,080391
4,130833	0,1	2,076780
4,132500	0,1	2,081102
4,134167	0,1	2,071750
4,135833	0,1	2,138985
4,137500	0,1	2,088162
4,139167	0,1	2,111447
4,140833	0,1	2,151432
4,142500	0,1	2,147911
4,144167	0,1	2,136481
4,145833	0,1	2,136699
4,147500	0,1	2,173001
4,149167	0,1	2,167628
4,150833	0,1	2,168773
4,152500	0,1	2,183308
4,154167	0,1	2,145836
4,155833	0,1	2,192854
4,157500	0,1	2,207468
4,159167	0,1	2,207202
4,160833	0,1	2,236249
4,162500	0,1	2,204186
4,164167	0,1	2,210215
4,165833	0,1	2,186129
4,167500	0,1	2,224803
4,169167	0,1	2,256376
4,170833	0,1	2,221677
4,172500	0,1	2,242025
4,174167	0,1	2,267204
4,175833	0,1	2,252670
4,177500	0,1	2,275474
4,179167	0,1	2,292016
4,180833	0,1	2,286627
4,182500	0,1	2,294555
4,184167	0,1	2,302305
4,185833	0,1	2,232545
4,187500	0,1	2,287399
4,189167	0,1	2,306285
4,190833	0,1	2,311246
4,192500	0,1	2,323251
4,194167	0,1	2,320302
4,195833	0,1	2,337051
4,197500	0,1	2,323928
4,199167	0,1	2,321959
4,200833	0,1	2,350598
4,202500	0,1	2,342462
4,204167	0,1	2,338958
4,205833	0,1	2,340367
4,207500	0,1	2,345982
4,209167	0,1	2,343193
4,210833	0,1	2,340914
4,212500	0,1	2,325211
4,214167	0,1	2,378281
4,215833	0,1	2,360037
4,217500	0,1	2,338081
4,219167	0,1	2,378272
4,220833	0,1	2,359091
4,222500	0,1	2,358926
4,224167	0,1	2,346847
4,225833	0,1	2,345200
4,227500	0,1	2,319958
4,229167	0,1	2,354334
4,230833	0,1	2,343036
4,232500	0,1	2,324541
4,234167	0,1	2,363337
4,235833	0,1	2,344058
4,237500	0,1	2,344925
4,239167	0,1	2,368212
4,240833	0,1	2,357732
4,242500	0,1	2,297512
4,244167	0,1	2,336049
4,245833	0,1	2,353964
4,247500	0,1	2,296090
4,249167	0,1	2,366120
4,250833	0,1	2,334495
4,252500	0,1	2,283771
4,254167	0,1	2,308152
4,255833	0,1	2,312839
4,257500	0,1	2,318506
4,259167	0,1	2,301261
4,260833	0,1	2,311296
4,262500	0,1	2,301597
4,264167	0,1	2,299727
4,265833	0,1	2,292678
4,267500	0,1	2,315040
4,269167	0,1	2,341169
4,270833	0,1	2,297858
4,272500	0,1	2,299068
4,274167	0,1	2,257994
4,275833	0,1	2,260945
4,277500	0,1	2,246703
4,279167	0,1	2,214054
4,280833	0,1	2,309894
4,282500	0,1	2,230031
4,284167	0,1	2,226989
4,285833	0,1	2,238778
4,287500	0,1	2,278835
4,289167	0,1	2,230959
4,290833	0,1	2,236689
4,292500	0,1	2,182326
4,294167	0,1	2,205531
4,295833	0,1	2,209634
4,297500	0,1	2,204095
4,299167	0,1	2,165201
4,300833	0,1	2,185535
4,302500	0,1	2,184041
4,304167	0,1	2,119816
4,305833	0,1	2,176177
4,307500	0,1	2,127066
4,309167	0,1	2,126348
4,310833	0,1	2,066956
4,312500	0,1	2,152863
4,314167	0,1	2,084288
4,315833	0,1	2,087361
4,317500	0,1	2,063132
4,319167	0,1	2,053713
4,320833	0,1	2,093406
4,322500	0,1	2,065581
4,324167	0,1	2,048818
4,325833	0,1	2,011644
4,327500	0,1	2,050885
4,329167	0,1	1,980448
4,330833	0,1	2,017592
4,332500	0,1	2,039813
4,334167	0,1	1,964265
4,335833	0,1	1,991775
4,337500	0,1	1,933562
4,339167	0,1	1,950363
4,340833	0,1	1,982929
4,342500	0,1	1,923496
4,344167	0,1	1,879138
4,345833	0,1	1,900689
4,347500	0,1	1,922042
4,349167	0,1	1,891063
4,350833	0,1	1,868497
4,352500	0,1	1,878902
4,354167	0,1	1,876685
4,355833	0,1	1,836868
4,357500	0,1	1,862516
4,359167	0,1	1,835354
4,360833	0,1	1,823059
4,362500	0,1	1,808615
4,364167	0,1	1,838289
4,365833	0,1	1,792953
4,367500	0,1	1,795243
4,369167	0,1	1,742217
4,370833	0,1	1,695218
4,372500	0,1	1,740252
4,374167	0,1	1,753411
4,375833	0,1	1,704774
4,377500	0,1	1,703902
4,379167	0,1	1,715324
4,380833	0,1	1,673012
4,382500	0,1	1,667758
4,384167	0,1	1,692184
4,385833	0,1	1,674301
4,387500	0,1	1,688809
4,389167	0,1	1,641401
4,390833	0,1	1,625514
4,392500	0,1	1,641383
4,394167	0,1	1,624725
4,395833	0,1	1,583064
4,397500	0,1	1,621986
4,399167	0,1	1,607845
4,400833	0,1	1,558640
4,402500	0,1	1,530118
4,404167	0,1	1,557040
4,405833	0,1	1,516617
4,407500	0,1	1,523716
4,409167	0,1	1,554886
4,410833	0,1	1,525451
4,412500	0,1	1,507136
4,414167	0,1	1,493483
4,415833	0,1	1,488310
4,417500	0,1	1,517107
4,419167	0,1	1,450189
4,420833	0,1	1,489306
4,422500	0,1	1,430652
4,424167	0,1	1,406006
4,425833	0,1	1,434227
4,427500	0,1	1,429351
4,429167	0,1	1,434730
4,430833	0,1	1,367108
4,432500	0,1	1,392422
4,434167	0,1	1,357483
4,435833	0,1	1,370152
4,437500	0,1	1,398251
4,439167	0,1	1,384690
4,440833	0,1	1,364442
4,442500	0,1	1,294162
4,444167	0,1	1,284596
4,445833	0,1	1,363412
4,447500	0,1	1,369886
4,449167	0,1	1,340962
4,450833	0,1	1,314469
4,452500	0,1	1,318697
4,454167	0,1	1,312239
4,455833	0,1	1,271968
4,457500	0,1	1,279860
4,459167	0,1	1,257831
4,460833	0,1	1,302122
4,462500	0,1	1,275572
4,464167	0,1	1,270022
4,465833	0,1	1,270397
4,467500	0,1	1,256973
4,469167	0,1	1,246845
4,470833	0,1	1,251206
4,472500	0,1	1,235496
4,474167	0,1	1,260830
4,475833	0,1	1,224678
4,477500	0,1	1,220218
4,479167	0,1	1,217405
4,480833	0,1	1,207786
4,482500	0,1	1,188499
4,484167	0,1	1,185842
4,485833	0,1	1,212884
4,487500	0,1	1,182447
4,489167	0,1	1,188759
4,490833	0,1	1,139603
4,492500	0,1	1,181208
4,494167	0,1	1,158857
4,495833	0,1	1,150905
4,497500	0,1	1,172351
4,499167	0,1	1,135458
4,500833	0,1	1,107152
4,502500	0,1	1,135142
4,504167	0,1	1,146208
4,505833	0,1	1,122030
4,507500	0,1	1,164526
4,509167	0,1	1,151161
4,510833	0,1	1,115633
4,512500	0,1	1,104520
4,514167	0,1	1,086439
4,515833	0,1	1,099555
4,517500	0,1	1,127405
4,519167	0,1	1,135147
4,520833	0,1	1,128290
4,522500	0,1	1,076183
4,524167	0,1	1,063602
4,525833	0,1	1,079247
4,527500	0,1	1,089015
4,529167	0,1	1,117786
4,530833	0,1	1,117158
4,532500	0,1	1,063626
4,534167	0,1	1,074575
4,535833	0,1	1,090281
4,537500	0,1	1,074538
4,539167	0,1	1,070486
4,540833	0,1	1,062970
4,542500	0,1	1,075373
4,544167	0,1	1,105653
4,545833	0,1	1,031646
4,547500	0,1	1,026945
4,549167	0,1	1,086641
4,550833	0,1	1,056173
4,552500	0,1	1,112844
4,554167	0,1	1,048475
4,555833	0,1	1,050904
4,557500	0,1	1,071057
4,559167	0,1	1,029632
4,560833	0,1	1,056943
4,562500	0,1	1,050135
4,564167	0,1	1,013446
4,565833	0,1	1,033038
4,567500	0,1	1,046752
4,569167	0,1	1,017277
4,570833	0,1	1,034757
4,572500	0,1	1,067561
4,574167	0,1	0,999482
4,575833	0,1	1,023076
4,577500	0,1	0,992879
4,579167	0,1	1,014052
4,580833	0,1	1,001050
4,582500	0,1	1,006582
4,584167	0,1	1,033326
4,585833	0,1	0,974299
4,587500	0,1	0,984476
4,589167	0,1	1,014256
4,590833	0,1	0,993414
4,592500	0,1	1,005495
4,594167	0,1	0,997917
4,595833	0,1	1,026895
4,597500	0,1	0,974366
4,599167	0,1	1,011671
4,600833	0,1	0,971164
4,602500	0,1	1,003004
4,604167	0,1	1,000361
4,605833	0,1	0,977397
4,607500	0,1	0,965865
4,609167	0,1	0,961761
4,610833	0,1	0,959315
4,612500	0,1	0,970493
4,614167	0,1	0,977951
4,615833	0,1	0,918982
4,617500	0,1	0,965623
4,619167	0,1	0,923073
4,620833	0,1	0,947535
4,622500	0,1	0,904079
4,624167	0,1	0,962225
4,625833	0,1	0,912015
4,627500	0,1	0,936713
4,629167	0,1	0,937638
4,630833	0,1	0,954668
4,632500	0,1	0,931120
4,634167	0,1	0,914097
4,635833	0,1	0,918148
4,637500	0,1	0,905704
4,639167	0,1	0,927014
4,640833	0,1	0,887431
4,642500	0,1	0,902570
4,644167	0,1	0,880105
4,645833	0,1	0,896470
4,647500	0,1	0,882942
4,649167	0,1	0,879046
4,650833	0,1	0,834843
4,652500	0,1	0,863022
4,654167	0,1	0,890202
4,655833	0,1	0,852541
4,657500	0,1	0,850697
4,659167	0,1	0,866404
4,660833	0,1	0,847830
4,662500	0,1	0,854516
4,664167	0,1	0,844396
4,665833	0,1	0,875538
4,667500	0,1	0,830783
4,669167	0,1	0,893504
4,670833	0,1	0,834081
4,672500	0,1	0,831215
4,674167	0,1	0,838432
4,675833	0,1	0,828516
4,677500	0,1	0,794399
4,679167	0,1	0,819235
4,680833	0,1	0,821871
4,682500	0,1	0,819733
4,684167	0,1	0,790697
4,685833	0,1	0,846759
4,687500	0,1	0,794846
4,689167	0,1	0,824379
4,690833	0,1	0,798117
4,692500	0,1	0,791134
4,694167	0,1	0,752317
4,695833	0,1	0,770595
4,697500	0,1	0,780430
4,699167	0,1	0,800692
4,700833	0,1	0,793716
4,702500	0,1	0,769062
4,704167	0,1	0,713335
4,705833	0,1	0,734812
4,707500	0,1	0,781982
4,709167	0,1	0,796396
4,710833	0,1	0,772849
4,712500	0,1	0,728973
4,714167	0,1	0,752610
4,715833	0,1	0,704415
4,717500	0,1	0,762099
4,719167	0,1	0,749750
4,720833	0,1	0,717537
4,722500	0,1	0,715856
4,724167	0,1	0,735921
4,725833	0,1	0,719653
4,727500	0,1	0,747514
4,729167	0,1	0,722073
4,730833	0,1	0,707518
4,732500	0,1	0,682719
4,734167	0,1	0,739494
4,735833	0,1	0,756723
4,737500	0,1	0,685392
4,739167	0,1	0,728712
4,740833	0,1	0,760169
4,742500	0,1	0,698342
4,744167	0,1	0,688141
4,745833	0,1	0,666919
4,747500	0,1	0,687354
4,749167	0,1	0,673455
4,750833	0,1	0,642405
4,752500	0,1	0,713304
4,754167	0,1	0,673394
4,755833	0,1	0,666491
4,757500	0,1	0,652944
4,759167	0,1	0,676605
4,760833	0,1	0,658818
4,762500	0,1	0,683280
4,764167	0,1	0,663935
4,765833	0,1	0,639822
4,767500	0,1	0,667545
4,769167	0,1	0,653656
4,770833	0,1	0,619535
4,772500	0,1	0,654088
4,774167	0,1	0,597673
4,775833	0,1	0,655354
4,777500	0,1	0,657076
4,779167	0,1	0,633591
4,780833	0,1	0,653335
4,782500	0,1	0,577347
4,784167	0,1	0,634016
4,785833	0,1	0,635677
4,787500	0,1	0,638970
4,789167	0,1	0,569851
4,790833	0,1	0,604704
4,792500	0,1	0,610738
4,794167	0,1	0,621593
4,795833	0,1	0,580453
4,797500	0,1	0,599036
4,799167	0,1	0,630241
4,800833	0,1	0,585080
4,802500	0,1	0,577464
4,804167	0,1	0,586781
4,805833	0,1	0,580579
4,807500	0,1	0,622876
4,809167	0,1	0,581122
4,810833	0,1	0,641444
4,812500	0,1	0,605386
4,814167	0,1	0,569042
4,815833	0,1	0,617980
4,817500	0,1	0,603312
4,819167	0,1	0,614096
4,820833	0,1	0,587723
4,822500	0,1	0,569014
4,824167	0,1	0,570745
4,825833	0,1	0,572280
4,827500	0,1	0,570234
4,829167	0,1	0,583822
4,830833	0,1	0,554693
4,832500	0,1	0,537029
4,834167	0,1	0,536093
4,835833	0,1	0,548856
4,837500	0,1	0,544924
4,839167	0,1	0,549682
4,840833	0,1	0,560755
4,842500	0,1	0,529763
4,844167	0,1	0,526039
4,845833	0,1	0,552990
4,847500	0,1	0,546214
4,849167	0,1	0,601183
4,850833	0,1	0,570507
4,852500	0,1	0,552244
4,854167	0,1	0,577413
4,855833	0,1	0,540417
4,857500	0,1	0,542031
4,859167	0,1	0,501694
4,860833	0,1	0,554697
4,862500	0,1	0,535341
4,864167	0,1	0,552747
4,865833	0,1	0,557843
4,867500	0,1	0,536476
4,869167	0,1	0,567957
4,870833	0,1	0,540993
4,872500	0,1	0,548079
4,874167	0,1	0,550637
4,875833	0,1	0,561000
4,877500	0,1	0,523780
4,879167	0,1	0,534888
4,880833	0,1	0,566001
4,882500	0,1	0,512639
4,884167	0,1	0,523724
4,885833	0,1	0,562596
4,887500	0,1	0,547818
4,889167	0,1	0,520508
4,890833	0,1	0,516320
4,892500	0,1	0,536754
4,894167	0,1	0,538094
4,895833	0,1	0,553925
4,897500	0,1	0,525043
4,899167	0,1	0,525127
4,900833	0,1	0,575515
4,902500	0,1	0,601992
4,904167	0,1	0,547026
4,905833	0,1	0,521352
4,907500	0,1	0,544806
4,909167	0,1	0,558465
4,910833	0,1	0,543437
4,912500	0,1	0,512614
4,914167	0,1	0,553919
4,915833	0,1	0,583950
4,917500	0,1	0,555671
4,919167	0,1	0,559912
4,920833	0,1	0,539967
4,922500	0,1	0,550547
4,924167	0,1	0,582505
4,925833	0,1	0,619336
4,927500	0,1	0,557904
4,929167	0,1	0,571610
4,930833	0,1	0,578974
4,932500	0,1	0,500859
4,934167	0,1	0,545936
4,935833	0,1	0,553306
4,937500	0,1	0,596714
4,939167	0,1	0,511825
4,940833	0,1	0,567240
4,942500	0,1	0,522558
4,944167	0,1	0,567576
4,945833	0,1	0,567432
4,947500	0,1	0,541637
4,949167	0,1	0,578477
4,950833	0,1	0,587226
4,952500	0,1	0,566858
4,954167	0,1	0,572479
4,955833	0,1	0,589961
4,957500	0,1	0,574264
4,959167	0,1	0,571057
4,960833	0,1	0,538813
4,962500	0,1	0,545899
4,964167	0,1	0,596224
4,965833	0,1	0,551696
4,967500	0,1	0,526844
4,969167	0,1	0,589149
4,970833	0,1	0,575063
4,972500	0,1	0,571902
4,974167	0,1	0,555202
4,975833	0,1	0,543990
4,977500	0,1	0,550081
4,979167	0,1	0,552017
4,980833	0,1	0,544613
4,982500	0,1	0,593223
4,984167	0,1	0,566282
4,985833	0,1	0,569811
4,987500	0,1	0,589981
4,989167	0,1	0,568860
4,990833	0,1	0,633568
4,992500	0,1	0,558886
4,994167	0,1	0,555111
4,995833	0,1	0,586887
4,997500	0,1	0,566456
4,999167	0,1	0,585710
5,000833	0,1	0,568702
5,002500	0,1	0,578038
5,004167	0,1	0,607841
5,005833	0,1	0,631600
5,007500	0,1	0,575029
5,009167	0,1	0,642222
5,010833	0,1	0,564580
5,012500	0,1	0,594805
5,014167	0,1	0,592811
5,015833	0,1	0,601217
5,017500	0,1	0,556165
5,019167	0,1	0,620911
5,020833	0,1	0,603403
5,022500	0,1	0,615165
5,024167	0,1	0,626266
5,025833	0,1	0,591641
5,027500	0,1	0,604486
5,029167	0,1	0,603045
5,030833	0,1	0,631842
5,032500	0,1	0,583413
5,034167	0,1	0,588006
5,035833	0,1	0,628348
5,037500	0,1	0,605029
5,039167	0,1	0,589568
5,040833	0,1	0,603907
5,042500	0,1	0,635670
5,044167	0,1	0,624557
5,045833	0,1	0,633204
5,047500	0,1	0,633762
5,049167	0,1	0,610233
5,050833	0,1	0,584477
5,052500	0,1	0,611935
5,054167	0,1	0,636828
5,055833	0,1	0,597181
5,057500	0,1	0,597593
5,059167	0,1	0,607712
5,060833	0,1	0,608249
5,062500	0,1	0,622414
5,064167	0,1	0,590150
5,065833	0,1	0,630549
5,067500	0,1	0,601093
5,069167	0,1	0,612341
5,070833	0,1	0,637384
5,072500	0,1	0,610879
5,074167	0,1	0,588367
5,075833	0,1	0,609133
5,077500	0,1	0,629978
5,079167	0,1	0,611946
5,080833	0,1	0,627240
5,082500	0,1	0,638585
5,084167	0,1	0,597092
5,085833	0,1	0,610224
5,087500	0,1	0,581984
5,089167	0,1	0,617984
5,090833	0,1	0,592883
5,092500	0,1	0,565480
5,094167	0,1	0,617780
5,095833	0,1	0,605448
5,097500	0,1	0,611874
5,099167	0,1	0,605981
5,100833	0,1	0,659711
5,102500	0,1	0,588202
5,104167	0,1	0,603128
5,105833	0,1	0,567485
5,107500	0,1	0,594718
5,109167	0,1	0,554296
5,110833	0,1	0,621623
5,112500	0,1	0,573603
5,114167	0,1	0,587112
5,115833	0,1	0,581224
5,117500	0,1	0,596633
5,119167	0,1	0,572598
5,120833	0,1	0,568790
5,122500	0,1	0,582219
5,124167	0,1	0,628213
5,125833	0,1	0,567423
5,127500	0,1	0,543548
5,129167	0,1	0,577187
5,130833	0,1	0,574749
5,132500	0,1	0,563943
5,134167	0,1	0,614043
5,135833	0,1	0,558591
5,137500	0,1	0,583219
5,139167	0,1	0,558029
5,140833	0,1	0,583797
5,142500	0,1	0,576598
5,144167	0,1	0,588783
5,145833	0,1	0,565169
5,147500	0,1	0,604857
5,149167	0,1	0,582674
5,150833	0,1	0,577263
5,152500	0,1	0,514111
5,154167	0,1	0,546850
5,155833	0,1	0,531182
5,157500	0,1	0,574605
5,159167	0,1	0,573104
5,160833	0,1	0,531676
5,162500	0,1	0,553079
5,164167	0,1	0,544501
5,165833	0,1	0,518792
5,167500	0,1	0,538044
5,169167	0,1	0,568736
5,170833	0,1	0,516157
5,172500	0,1	0,506359
5,174167	0,1	0,520277
5,175833	0,1	0,499934
5,177500	0,1	0,519785
5,179167	0,1	0,519212
5,180833	0,1	0,561083
5,182500	0,1	0,485892
5,184167	0,1	0,478096
5,185833	0,1	0,522537
5,187500	0,1	0,512385
5,189167	0,1	0,551763
5,190833	0,1	0,536275
5,192500	0,1	0,481663
5,194167	0,1	0,491923
5,195833	0,1	0,470600
5,197500	0,1	0,453947
5,199167	0,1	0,476931
5,200833	0,1	0,500190
5,202500	0,1	0,470536
5,204167	0,1	0,476176
5,205833	0,1	0,468688
5,207500	0,1	0,479555
5,209167	0,1	0,493013
5,210833	0,1	0,437101
5,212500	0,1	0,448137
5,214167	0,1	0,505834
5,215833	0,1	0,473075
5,217500	0,1	0,429624
5,219167	0,1	0,471768
5,220833	0,1	0,462841
5,222500	0,1	0,431920
5,224167	0,1	0,446383
5,225833	0,1	0,468836
5,227500	0,1	0,413425
5,229167	0,1	0,453239
5,230833	0,1	0,419091
5,232500	0,1	0,461763
5,234167	0,1	0,426398
5,235833	0,1	0,447291
5,237500	0,1	0,433982
5,239167	0,1	0,480596
5,240833	0,1	0,413443
5,242500	0,1	0,418293
5,244167	0,1	0,413098
5,245833	0,1	0,418095
5,247500	0,1	0,419346
5,249167	0,1	0,392602
5,250833	0,1	0,411578
5,252500	0,1	0,385970
5,254167	0,1	0,400683
5,255833	0,1	0,398306
5,257500	0,1	0,421606
5,259167	0,1	0,371777
5,260833	0,1	0,393575
5,262500	0,1	0,385952
5,264167	0,1	0,387121
5,265833	0,1	0,373728
5,267500	0,1	0,408047
5,269167	0,1	0,413857
5,270833	0,1	0,339166
5,272500	0,1	0,385689
5,274167	0,1	0,373096
5,275833	0,1	0,375699
5,277500	0,1	0,403799
5,279167	0,1	0,383705
5,280833	0,1	0,370479
5,282500	0,1	0,382408
5,284167	0,1	0,359428
5,285833	0,1	0,398479
5,287500	0,1	0,404383
5,289167	0,1	0,362866
5,290833	0,1	0,348346
5,292500	0,1	0,348909
5,294167	0,1	0,365734
5,295833	0,1	0,336285
5,297500	0,1	0,389556
5,299167	0,1	0,336713
5,300833	0,1	0,363312
5,302500	0,1	0,340534
5,304167	0,1	0,352906
5,305833	0,1	0,343688
5,307500	0,1	0,336531
5,309167	0,1	0,342555
5,310833	0,1	0,346239
5,312500	0,1	0,334626
5,314167	0,1	0,355036
5,315833	0,1	0,350872
5,317500	0,1	0,349779
5,319167	0,1	0,345005
5,320833	0,1	0,315000
5,322500	0,1	0,357531
5,324167	0,1	0,332864
5,325833	0,1	0,353733
5,327500	0,1	0,339953
5,329167	0,1	0,349843
5,330833	0,1	0,310369
5,332500	0,1	0,322343
5,334167	0,1	0,353771
5,335833	0,1	0,307399
5,337500	0,1	0,290249
5,339167	0,1	0,358210
5,340833	0,1	0,307990
5,342500	0,1	0,312518
5,344167	0,1	0,336589
5,345833	0,1	0,348039
5,347500	0,1	0,343938
5,349167	0,1	0,288269
5,350833	0,1	0,307001
5,352500	0,1	0,335076
5,354167	0,1	0,354932
5,355833	0,1	0,371038
5,357500	0,1	0,348167
5,359167	0,1	0,321999
5,360833	0,1	0,297764
5,362500	0,1	0,308871
5,364167	0,1	0,324211
5,365833	0,1	0,320387
5,367500	0,1	0,278848
5,369167	0,1	0,297557
5,370833	0,1	0,277489
5,372500	0,1	0,338054
5,374167	0,1	0,280907
5,375833	0,1	0,279391
5,377500	0,1	0,284864
5,379167	0,1	0,295690
5,380833	0,1	0,281224
5,382500	0,1	0,286536
5,384167	0,1	0,328192
5,385833	0,1	0,264571
5,387500	0,1	0,279545
5,389167	0,1	0,308036
5,390833	0,1	0,279938
5,392500	0,1	0,306355
5,394167	0,1	0,296984
5,395833	0,1	0,287129
5,397500	0,1	0,305358
5,399167	0,1	0,298862
5,400833	0,1	0,286279
5,402500	0,1	0,261636
5,404167	0,1	0,299683
5,405833	0,1	0,297038
5,407500	0,1	0,262405
5,409167	0,1	0,284504
5,410833	0,1	0,274385
5,412500	0,1	0,288981
5,414167	0,1	0,274294
5,415833	0,1	0,277512
5,417500	0,1	0,253966
5,419167	0,1	0,263787
5,420833	0,1	0,253506
5,422500	0,1	0,242970
5,424167	0,1	0,232013
5,425833	0,1	0,269900
5,427500	0,1	0,291493
5,429167	0,1	0,293654
5,430833	0,1	0,270363
5,432500	0,1	0,275922
5,434167	0,1	0,295744
5,435833	0,1	0,200031
5,437500	0,1	0,292484
5,439167	0,1	0,279767
5,440833	0,1	0,237944
5,442500	0,1	0,251371
5,444167	0,1	0,275247
5,445833	0,1	0,257824
5,447500	0,1	0,305985
5,449167	0,1	0,206027
5,450833	0,1	0,226297
5,452500	0,1	0,266733
5,454167	0,1	0,254600
5,455833	0,1	0,222182
5,457500	0,1	0,221372
5,459167	0,1	0,242766
5,460833	0,1	0,200278
5,462500	0,1	0,246563
5,464167	0,1	0,243287
5,465833	0,1	0,241353
5,467500	0,1	0,218734
5,469167	0,1	0,238508
5,470833	0,1	0,218024
5,472500	0,1	0,219829
5,474167	0,1	0,235482
5,475833	0,1	0,198954
5,477500	0,1	0,223139
5,479167	0,1	0,226781
5,480833	0,1	0,235838
5,482500	0,1	0,233358
5,484167	0,1	0,202949
5,485833	0,1	0,208871
5,487500	0,1	0,259387
5,489167	0,1	0,219904
5,490833	0,1	0,193439
5,492500	0,1	0,230226
5,494167	0,1	0,178173
5,495833	0,1	0,207960
5,497500	0,1	0,197528
5,499167	0,1	0,218340
5,500833	0,1	0,248239
5,502500	0,1	0,170636
5,504167	0,1	0,191206
5,505833	0,1	0,244850
5,507500	0,1	0,216576
5,509167	0,1	0,213087
5,510833	0,1	0,216185
5,512500	0,1	0,209519
5,514167	0,1	0,236124
5,515833	0,1	0,206004
5,517500	0,1	0,175975
5,519167	0,1	0,205832
5,520833	0,1	0,149851
5,522500	0,1	0,210754
5,524167	0,1	0,230072
5,525833	0,1	0,216024
5,527500	0,1	0,207130
5,529167	0,1	0,208256
5,530833	0,1	0,172980
5,532500	0,1	0,156639
5,534167	0,1	0,188459
5,535833	0,1	0,215565
5,537500	0,1	0,194857
5,539167	0,1	0,232861
5,540833	0,1	0,190475
5,542500	0,1	0,204032
5,544167	0,1	0,163993
5,545833	0,1	0,195005
5,547500	0,1	0,195722
5,549167	0,1	0,195881
5,550833	0,1	0,174521
5,552500	0,1	0,217073
5,554167	0,1	0,201360
5,555833	0,1	0,179941
5,557500	0,1	0,205957
5,559167	0,1	0,191085
5,560833	0,1	0,160929
5,562500	0,1	0,174387
5,564167	0,1	0,162757
5,565833	0,1	0,205184
5,567500	0,1	0,189765
5,569167	0,1	0,199711
5,570833	0,1	0,192117
5,572500	0,1	0,188894
5,574167	0,1	0,181385
5,575833	0,1	0,147621
5,577500	0,1	0,165907
5,579167	0,1	0,184785
5,580833	0,1	0,178194
5,582500	0,1	0,172069
5,584167	0,1	0,190721
5,585833	0,1	0,148653
5,587500	0,1	0,173194
5,589167	0,1	0,167591
5,590833	0,1	0,164080
5,592500	0,1	0,180701
5,594167	0,1	0,187496
5,595833	0,1	0,191920
5,597500	0,1	0,156545
5,599167	0,1	0,136440
5,600833	0,1	0,183336
5,602500	0,1	0,151293
5,604167	0,1	0,135859
5,605833	0,1	0,152731
5,607500	0,1	0,167007
5,609167	0,1	0,213952
5,610833	0,1	0,178715
5,612500	0,1	0,161826
5,614167	0,1	0,178962
5,615833	0,1	0,159763
5,617500	0,1	0,174901
5,619167	0,1	0,174520
5,620833	0,1	0,182795
5,622500	0,1	0,165308
5,624167	0,1	0,159764
5,625833	0,1	0,192877
5,627500	0,1	0,196589
5,629167	0,1	0,159257
5,630833	0,1	0,155638
5,632500	0,1	0,201193
5,634167	0,1	0,159417
5,635833	0,1	0,174675
5,637500	0,1	0,196585
5,639167	0,1	0,214755
5,640833	0,1	0,142187
5,642500	0,1	0,169358
5,644167	0,1	0,156670
5,645833	0,1	0,193040
5,647500	0,1	0,191082
5,649167	0,1	0,143661
5,650833	0,1	0,176895
5,652500	0,1	0,139634
5,654167	0,1	0,155342
5,655833	0,1	0,150257
5,657500	0,1	0,174998
5,659167	0,1	0,196845
5,660833	0,1	0,155777
5,662500	0,1	0,134572
5,664167	0,1	0,156406
5,665833	0,1	0,176124
5,667500	0,1	0,175425
5,669167	0,1	0,178929
5,670833	0,1	0,153095
5,672500	0,1	0,183340
5,674167	0,1	0,167241
5,675833	0,1	0,167561
5,677500	0,1	0,192398
5,679167	0,1	0,171558
5,680833	0,1	0,204765
5,682500	0,1	0,171691
5,684167	0,1	0,180991
5,685833	0,1	0,187241
5,687500	0,1	0,166338
5,689167	0,1	0,150745
5,690833	0,1	0,160374
5,692500	0,1	0,163953
5,694167	0,1	0,205764
5,695833	0,1	0,138093
5,697500	0,1	0,151443
5,699167	0,1	0,136727
5,700833	0,1	0,201731
5,702500	0,1	0,166151
5,704167	0,1	0,171261
5,705833	0,1	0,150131
5,707500	0,1	0,221962
5,709167	0,1	0,171565
5,710833	0,1	0,142047
5,712500	0,1	0,182922
5,714167	0,1	0,140956
5,715833	0,1	0,198795
5,717500	0,1	0,163124
5,719167	0,1	0,185629
5,720833	0,1	0,151168
5,722500	0,1	0,193228
5,724167	0,1	0,159800
5,725833	0,1	0,204155
5,727500	0,1	0,170207
5,729167	0,1	0,172911
5,730833	0,1	0,143401
5,732500	0,1	0,146424
5,734167	0,1	0,196095
5,735833	0,1	0,177196
5,737500	0,1	0,191236
5,739167	0,1	0,191341
5,740833	0,1	0,217433
5,742500	0,1	0,163768
5,744167	0,1	0,170073
5,745833	0,1	0,164759
5,747500	0,1	0,146523
5,749167	0,1	0,159858
5,750833	0,1	0,178123
5,752500	0,1	0,151680
5,754167	0,1	0,186562
5,755833	0,1	0,208151
5,757500	0,1	0,158191
5,759167	0,1	0,168427
5,760833	0,1	0,199127
5,762500	0,1	0,175459
5,764167	0,1	0,156031
5,765833	0,1	0,208302
5,767500	0,1	0,157421
5,769167	0,1	0,192681
5,770833	0,1	0,191240
5,772500	0,1	0,167307
5,774167	0,1	0,173129
5,775833	0,1	0,189783
5,777500	0,1	0,190307
5,779167	0,1	0,167341
5,780833	0,1	0,203702
5,782500	0,1	0,182903
5,784167	0,1	0,142212
5,785833	0,1	0,163848
5,787500	0,1	0,145040
5,789167	0,1	0,177569
5,790833	0,1	0,187402
5,792500	0,1	0,150685
5,794167	0,1	0,115405
5,795833	0,1	0,169542
5,797500	0,1	0,155580
5,799167	0,1	0,184695
5,800833	0,1	0,167051
5,802500	0,1	0,212462
5,804167	0,1	0,180032
5,805833	0,1	0,167917
5,807500	0,1	0,199805
5,809167	0,1	0,172654
5,810833	0,1	0,149487
5,812500	0,1	0,168554
5,814167	0,1	0,167845
5,815833	0,1	0,175997
5,817500	0,1	0,168686
5,819167	0,1	0,144238
5,820833	0,1	0,174926
5,822500	0,1	0,181543
5,824167	0,1	0,159444
5,825833	0,1	0,137632
5,827500	0,1	0,186912
5,829167	0,1	0,191984
5,830833	0,1	0,187374
5,832500	0,1	0,173619
5,834167	0,1	0,212752
5,835833	0,1	0,179907
5,837500	0,1	0,168848
5,839167	0,1	0,138470
5,840833	0,1	0,148255
5,842500	0,1	0,193193
5,844167	0,1	0,197265
5,845833	0,1	0,142018
5,847500	0,1	0,156987
5,849167	0,1	0,144394
5,850833	0,1	0,193647
5,852500	0,1	0,174200
5,854167	0,1	0,217653
5,855833	0,1	0,184029
5,857500	0,1	0,184636
5,859167	0,1	0,153615
5,860833	0,1	0,186881
5,862500	0,1	0,167306
5,864167	0,1	0,133833
5,865833	0,1	0,159271
5,867500	0,1	0,164751
5,869167	0,1	0,170393
5,870833	0,1	0,153287
5,872500	0,1	0,141816
5,874167	0,1	0,149545
5,875833	0,1	0,148938
5,877500	0,1	0,168716
5,879167	0,1	0,165593
5,880833	0,1	0,139502
5,882500	0,1	0,139462
5,884167	0,1	0,192162
5,885833	0,1	0,168856
5,887500	0,1	0,150616
5,889167	0,1	0,172096
5,890833	0,1	0,163466
5,892500	0,1	0,164464
5,894167	0,1	0,140531
5,895833	0,1	0,107638
5,897500	0,1	0,171247
5,899167	0,1	0,110418
5,900833	0,1	0,132498
5,902500	0,1	0,151576
5,904167	0,1	0,118530
5,905833	0,1	0,166965
5,907500	0,1	0,163850
5,909167	0,1	0,137986
5,910833	0,1	0,148000
5,912500	0,1	0,154441
5,914167	0,1	0,160726
5,915833	0,1	0,131863
5,917500	0,1	0,116816
5,919167	0,1	0,182072
5,920833	0,1	0,154675
5,922500	0,1	0,126358
5,924167	0,1	0,141007
5,925833	0,1	0,122907
5,927500	0,1	0,139394
5,929167	0,1	0,162910
5,930833	0,1	0,139951
5,932500	0,1	0,144970
5,934167	0,1	0,121814
5,935833	0,1	0,123997
5,937500	0,1	0,163714
5,939167	0,1	0,130093
5,940833	0,1	0,119813
5,942500	0,1	0,156852
5,944167	0,1	0,128771
5,945833	0,1	0,143260
5,947500	0,1	0,139399
5,949167	0,1	0,135886
5,950833	0,1	0,129028
5,952500	0,1	0,171382
5,954167	0,1	0,144689
5,955833	0,1	0,155858
5,957500	0,1	0,148486
5,959167	0,1	0,136373
5,960833	0,1	0,146422
5,962500	0,1	0,130478
5,964167	0,1	0,118298
5,965833	0,1	0,158753
5,967500	0,1	0,117114
5,969167	0,1	0,143031
5,970833	0,1	0,168260
5,972500	0,1	0,154381
5,974167	0,1	0,120722
5,975833	0,1	0,108827
5,977500	0,1	0,146571
5,979167	0,1	0,105966
5,980833	0,1	0,149309
5,982500	0,1	0,131864
5,984167	0,1	0,132601
5,985833	0,1	0,135016
5,987500	0,1	0,131537
5,989167	0,1	0,119490
5,990833	0,1	0,123705
5,992500	0,1	0,161651
5,994167	0,1	0,127228
5,995833	0,1	0,161008
5,997500	0,1	0,154929
5,999167	0,1	0,108768
6,000833	0,1	0,138585
