File Path	chrom://chromeleon01/ikbm_chromeleon/2022/Rezex/Esteban/220612_chitin_4_7.seq/488.smp/UV_VIS_1.channel/UV_VIS_1.chm
Channel	UV_VIS_1

Injection Information:
Data Vault	ikbm_chromeleon
Injection	7_24h-ChiBI_1
Injection Number	39
Position	RE2
Comment	
Processing Method	New ProcMethod
Instrument Method	Short_Rezex_6min_194nm
Type	Unknown
Status	Finished
Injection Date	12.06.2022
Injection Time	21:20:12
Injection Volume (µl)	8,000
Dilution Factor	1,0000
Weight	1,0000

Chromatogram Data Information:
Time Min. (min)	0,000833
Time Max. (min)	6,000833
Data Points	3601
Detector	UV
Generating Data System	Chromeleon 7.2.9.11323
Exporting Data System	Chromeleon 7.2.9.0
Operator	Instrument Controller
Signal Quantity	Absorbance
Signal Unit	mAU
Signal Min.	-0,103391
Signal Max.	130,675535
Channel	UV_VIS_1
Driver Name	VWD3000.dll
Channel Type	Evaluation
Min. Step (s)	0,1
Max. Step (s)	0,1
Average Step (s)	0,1

Signal Parameter Information:
Signal Info	WVL:194 nm

Chromatogram Data:
Time (min)	Step (s)	Value (mAU)
0,000833	n.a.	-0,037431
0,002500	0,1	-0,021033
0,004167	0,1	-0,048914
0,005833	0,1	-0,039845
0,007500	0,1	-0,024226
0,009167	0,1	0,003397
0,010833	0,1	-0,054968
0,012500	0,1	-0,016379
0,014167	0,1	-0,003809
0,015833	0,1	-0,028435
0,017500	0,1	-0,069616
0,019167	0,1	-0,019830
0,020833	0,1	-0,027692
0,022500	0,1	-0,030143
0,024167	0,1	-0,029666
0,025833	0,1	-0,047503
0,027500	0,1	-0,035816
0,029167	0,1	-0,062662
0,030833	0,1	-0,059286
0,032500	0,1	-0,100044
0,034167	0,1	-0,066832
0,035833	0,1	-0,055158
0,037500	0,1	-0,075440
0,039167	0,1	-0,103391
0,040833	0,1	-0,087908
0,042500	0,1	-0,067661
0,044167	0,1	-0,081525
0,045833	0,1	-0,074511
0,047500	0,1	-0,074471
0,049167	0,1	-0,052977
0,050833	0,1	-0,057124
0,052500	0,1	-0,047924
0,054167	0,1	-0,048880
0,055833	0,1	-0,054384
0,057500	0,1	-0,051456
0,059167	0,1	-0,017903
0,060833	0,1	-0,032276
0,062500	0,1	-0,025020
0,064167	0,1	-0,048915
0,065833	0,1	-0,030337
0,067500	0,1	-0,036064
0,069167	0,1	-0,046631
0,070833	0,1	-0,040966
0,072500	0,1	-0,067900
0,074167	0,1	-0,044504
0,075833	0,1	-0,089700
0,077500	0,1	-0,038464
0,079167	0,1	-0,017271
0,080833	0,1	-0,059690
0,082500	0,1	-0,042800
0,084167	0,1	-0,024456
0,085833	0,1	-0,052855
0,087500	0,1	-0,034696
0,089167	0,1	-0,026234
0,090833	0,1	-0,028352
0,092500	0,1	-0,006841
0,094167	0,1	-0,019257
0,095833	0,1	-0,016356
0,097500	0,1	-0,058694
0,099167	0,1	-0,033558
0,100833	0,1	-0,042605
0,102500	0,1	-0,034009
0,104167	0,1	-0,041255
0,105833	0,1	-0,043517
0,107500	0,1	-0,082142
0,109167	0,1	-0,040394
0,110833	0,1	-0,064845
0,112500	0,1	-0,062025
0,114167	0,1	-0,054033
0,115833	0,1	-0,052910
0,117500	0,1	-0,072284
0,119167	0,1	-0,082688
0,120833	0,1	-0,026068
0,122500	0,1	-0,046843
0,124167	0,1	-0,090636
0,125833	0,1	-0,059896
0,127500	0,1	-0,053099
0,129167	0,1	-0,022613
0,130833	0,1	-0,079333
0,132500	0,1	-0,077941
0,134167	0,1	-0,055098
0,135833	0,1	-0,042774
0,137500	0,1	-0,057978
0,139167	0,1	0,020999
0,140833	0,1	-0,025940
0,142500	0,1	-0,046073
0,144167	0,1	-0,021135
0,145833	0,1	-0,015550
0,147500	0,1	-0,068576
0,149167	0,1	-0,025735
0,150833	0,1	-0,028071
0,152500	0,1	-0,019185
0,154167	0,1	-0,021380
0,155833	0,1	-0,036745
0,157500	0,1	-0,021385
0,159167	0,1	-0,061270
0,160833	0,1	-0,031047
0,162500	0,1	0,003950
0,164167	0,1	-0,035412
0,165833	0,1	-0,041051
0,167500	0,1	-0,041837
0,169167	0,1	-0,028215
0,170833	0,1	-0,047462
0,172500	0,1	-0,019141
0,174167	0,1	-0,051221
0,175833	0,1	-0,051016
0,177500	0,1	-0,073734
0,179167	0,1	-0,019084
0,180833	0,1	-0,026279
0,182500	0,1	-0,015854
0,184167	0,1	0,012741
0,185833	0,1	-0,036619
0,187500	0,1	-0,024477
0,189167	0,1	-0,028314
0,190833	0,1	-0,039941
0,192500	0,1	-0,014507
0,194167	0,1	-0,023436
0,195833	0,1	-0,051527
0,197500	0,1	-0,010736
0,199167	0,1	-0,062555
0,200833	0,1	-0,035845
0,202500	0,1	-0,007284
0,204167	0,1	-0,032236
0,205833	0,1	-0,047086
0,207500	0,1	-0,059634
0,209167	0,1	-0,041198
0,210833	0,1	-0,043147
0,212500	0,1	-0,016983
0,214167	0,1	-0,022315
0,215833	0,1	-0,040253
0,217500	0,1	-0,018206
0,219167	0,1	-0,036101
0,220833	0,1	-0,050682
0,222500	0,1	-0,040615
0,224167	0,1	-0,008069
0,225833	0,1	-0,041145
0,227500	0,1	-0,037912
0,229167	0,1	-0,044678
0,230833	0,1	-0,076411
0,232500	0,1	-0,058558
0,234167	0,1	-0,042696
0,235833	0,1	-0,059721
0,237500	0,1	-0,044935
0,239167	0,1	-0,052364
0,240833	0,1	-0,024129
0,242500	0,1	-0,011184
0,244167	0,1	-0,043391
0,245833	0,1	-0,056352
0,247500	0,1	-0,046159
0,249167	0,1	-0,038846
0,250833	0,1	-0,077907
0,252500	0,1	-0,014808
0,254167	0,1	-0,060562
0,255833	0,1	-0,033395
0,257500	0,1	-0,039220
0,259167	0,1	-0,016401
0,260833	0,1	-0,016206
0,262500	0,1	0,002503
0,264167	0,1	-0,040625
0,265833	0,1	-0,047920
0,267500	0,1	-0,035338
0,269167	0,1	-0,056868
0,270833	0,1	-0,031893
0,272500	0,1	-0,065691
0,274167	0,1	-0,002559
0,275833	0,1	-0,004741
0,277500	0,1	-0,034518
0,279167	0,1	-0,019101
0,280833	0,1	-0,044037
0,282500	0,1	-0,031068
0,284167	0,1	-0,034487
0,285833	0,1	-0,054836
0,287500	0,1	-0,034870
0,289167	0,1	-0,046719
0,290833	0,1	-0,073177
0,292500	0,1	0,000001
0,294167	0,1	-0,011719
0,295833	0,1	-0,006422
0,297500	0,1	-0,061807
0,299167	0,1	-0,080466
0,300833	0,1	-0,046793
0,302500	0,1	-0,026726
0,304167	0,1	-0,031494
0,305833	0,1	-0,052465
0,307500	0,1	-0,051895
0,309167	0,1	-0,042961
0,310833	0,1	-0,040487
0,312500	0,1	-0,038593
0,314167	0,1	-0,041570
0,315833	0,1	-0,042974
0,317500	0,1	-0,011541
0,319167	0,1	-0,073207
0,320833	0,1	-0,058039
0,322500	0,1	0,017238
0,324167	0,1	-0,027102
0,325833	0,1	-0,019388
0,327500	0,1	0,001567
0,329167	0,1	-0,014397
0,330833	0,1	0,009270
0,332500	0,1	-0,004346
0,334167	0,1	-0,030304
0,335833	0,1	-0,028301
0,337500	0,1	-0,036770
0,339167	0,1	-0,058118
0,340833	0,1	-0,051143
0,342500	0,1	-0,039124
0,344167	0,1	-0,014721
0,345833	0,1	-0,053127
0,347500	0,1	-0,014307
0,349167	0,1	-0,032678
0,350833	0,1	-0,036001
0,352500	0,1	-0,017914
0,354167	0,1	-0,010665
0,355833	0,1	-0,059776
0,357500	0,1	-0,042674
0,359167	0,1	-0,025578
0,360833	0,1	-0,035874
0,362500	0,1	-0,047668
0,364167	0,1	-0,030377
0,365833	0,1	-0,049252
0,367500	0,1	-0,027636
0,369167	0,1	-0,067065
0,370833	0,1	-0,016431
0,372500	0,1	-0,051902
0,374167	0,1	-0,021906
0,375833	0,1	-0,039547
0,377500	0,1	-0,005025
0,379167	0,1	-0,032006
0,380833	0,1	-0,012788
0,382500	0,1	-0,011659
0,384167	0,1	-0,030354
0,385833	0,1	-0,062975
0,387500	0,1	-0,015926
0,389167	0,1	-0,046275
0,390833	0,1	-0,036193
0,392500	0,1	-0,051163
0,394167	0,1	-0,052391
0,395833	0,1	-0,020910
0,397500	0,1	-0,041629
0,399167	0,1	-0,037620
0,400833	0,1	-0,008283
0,402500	0,1	-0,086246
0,404167	0,1	-0,041023
0,405833	0,1	-0,027634
0,407500	0,1	-0,009568
0,409167	0,1	-0,025758
0,410833	0,1	-0,024563
0,412500	0,1	-0,012409
0,414167	0,1	-0,018249
0,415833	0,1	-0,007964
0,417500	0,1	-0,018614
0,419167	0,1	-0,023955
0,420833	0,1	-0,011751
0,422500	0,1	-0,041956
0,424167	0,1	-0,000748
0,425833	0,1	-0,042242
0,427500	0,1	-0,011225
0,429167	0,1	0,000258
0,430833	0,1	-0,003805
0,432500	0,1	-0,032298
0,434167	0,1	-0,012371
0,435833	0,1	0,002086
0,437500	0,1	-0,024657
0,439167	0,1	0,001174
0,440833	0,1	-0,047480
0,442500	0,1	-0,023281
0,444167	0,1	-0,015550
0,445833	0,1	-0,048520
0,447500	0,1	-0,025605
0,449167	0,1	-0,023479
0,450833	0,1	-0,021484
0,452500	0,1	-0,032428
0,454167	0,1	-0,049937
0,455833	0,1	-0,037004
0,457500	0,1	-0,005353
0,459167	0,1	-0,057301
0,460833	0,1	-0,017198
0,462500	0,1	-0,038676
0,464167	0,1	-0,008927
0,465833	0,1	-0,033068
0,467500	0,1	-0,058720
0,469167	0,1	0,036462
0,470833	0,1	-0,016823
0,472500	0,1	0,001418
0,474167	0,1	-0,067285
0,475833	0,1	-0,053808
0,477500	0,1	0,016834
0,479167	0,1	-0,032708
0,480833	0,1	-0,026282
0,482500	0,1	-0,000744
0,484167	0,1	-0,029164
0,485833	0,1	-0,063266
0,487500	0,1	-0,000979
0,489167	0,1	-0,047659
0,490833	0,1	-0,002555
0,492500	0,1	-0,009473
0,494167	0,1	-0,014940
0,495833	0,1	0,009420
0,497500	0,1	-0,035222
0,499167	0,1	-0,052739
0,500833	0,1	-0,027056
0,502500	0,1	-0,030472
0,504167	0,1	-0,005769
0,505833	0,1	-0,022021
0,507500	0,1	0,013964
0,509167	0,1	-0,007209
0,510833	0,1	-0,052089
0,512500	0,1	0,012467
0,514167	0,1	-0,006025
0,515833	0,1	-0,008502
0,517500	0,1	-0,029598
0,519167	0,1	-0,011222
0,520833	0,1	-0,035556
0,522500	0,1	-0,006704
0,524167	0,1	-0,046775
0,525833	0,1	0,011344
0,527500	0,1	-0,002438
0,529167	0,1	-0,012718
0,530833	0,1	-0,020775
0,532500	0,1	-0,021232
0,534167	0,1	-0,053505
0,535833	0,1	0,012732
0,537500	0,1	-0,023619
0,539167	0,1	-0,013745
0,540833	0,1	0,024267
0,542500	0,1	0,035550
0,544167	0,1	-0,006852
0,545833	0,1	0,008008
0,547500	0,1	-0,022081
0,549167	0,1	-0,008671
0,550833	0,1	-0,011924
0,552500	0,1	-0,016872
0,554167	0,1	-0,020939
0,555833	0,1	-0,036783
0,557500	0,1	0,000959
0,559167	0,1	-0,030654
0,560833	0,1	0,016159
0,562500	0,1	0,008973
0,564167	0,1	-0,040208
0,565833	0,1	0,006297
0,567500	0,1	-0,000003
0,569167	0,1	-0,013942
0,570833	0,1	-0,007027
0,572500	0,1	-0,029620
0,574167	0,1	-0,007638
0,575833	0,1	0,004915
0,577500	0,1	0,001486
0,579167	0,1	-0,023839
0,580833	0,1	0,022244
0,582500	0,1	-0,012271
0,584167	0,1	0,022071
0,585833	0,1	0,006601
0,587500	0,1	0,006309
0,589167	0,1	-0,013234
0,590833	0,1	-0,014109
0,592500	0,1	-0,003708
0,594167	0,1	-0,031136
0,595833	0,1	-0,034462
0,597500	0,1	0,038842
0,599167	0,1	0,030300
0,600833	0,1	0,005405
0,602500	0,1	-0,014725
0,604167	0,1	0,006430
0,605833	0,1	-0,001128
0,607500	0,1	-0,024924
0,609167	0,1	0,011312
0,610833	0,1	0,000805
0,612500	0,1	-0,016491
0,614167	0,1	-0,019740
0,615833	0,1	-0,007861
0,617500	0,1	-0,046524
0,619167	0,1	0,021230
0,620833	0,1	0,030233
0,622500	0,1	-0,003154
0,624167	0,1	0,019182
0,625833	0,1	0,020373
0,627500	0,1	0,039664
0,629167	0,1	0,015682
0,630833	0,1	0,022241
0,632500	0,1	0,023304
0,634167	0,1	0,022471
0,635833	0,1	0,037670
0,637500	0,1	0,023407
0,639167	0,1	0,012270
0,640833	0,1	0,011132
0,642500	0,1	-0,002402
0,644167	0,1	0,021794
0,645833	0,1	-0,041656
0,647500	0,1	0,076312
0,649167	0,1	0,022926
0,650833	0,1	0,037568
0,652500	0,1	0,009724
0,654167	0,1	0,010007
0,655833	0,1	0,035862
0,657500	0,1	0,044049
0,659167	0,1	0,006089
0,660833	0,1	0,015409
0,662500	0,1	0,022015
0,664167	0,1	0,040914
0,665833	0,1	0,040049
0,667500	0,1	0,015393
0,669167	0,1	0,042074
0,670833	0,1	0,019091
0,672500	0,1	0,040371
0,674167	0,1	0,009977
0,675833	0,1	0,033374
0,677500	0,1	0,028304
0,679167	0,1	0,029528
0,680833	0,1	0,063715
0,682500	0,1	0,024184
0,684167	0,1	0,035095
0,685833	0,1	0,022372
0,687500	0,1	0,068485
0,689167	0,1	0,043184
0,690833	0,1	0,031805
0,692500	0,1	0,043693
0,694167	0,1	0,055439
0,695833	0,1	0,040254
0,697500	0,1	0,037675
0,699167	0,1	0,068868
0,700833	0,1	0,027985
0,702500	0,1	0,039856
0,704167	0,1	0,068278
0,705833	0,1	0,052704
0,707500	0,1	0,044369
0,709167	0,1	0,050426
0,710833	0,1	0,091662
0,712500	0,1	0,056447
0,714167	0,1	0,072310
0,715833	0,1	0,057994
0,717500	0,1	0,056502
0,719167	0,1	0,065934
0,720833	0,1	0,066933
0,722500	0,1	0,084811
0,724167	0,1	0,016526
0,725833	0,1	0,062350
0,727500	0,1	0,099810
0,729167	0,1	0,121070
0,730833	0,1	0,091326
0,732500	0,1	0,121683
0,734167	0,1	0,114734
0,735833	0,1	0,118824
0,737500	0,1	0,131188
0,739167	0,1	0,084271
0,740833	0,1	0,157228
0,742500	0,1	0,133900
0,744167	0,1	0,131607
0,745833	0,1	0,112542
0,747500	0,1	0,111902
0,749167	0,1	0,104936
0,750833	0,1	0,138875
0,752500	0,1	0,127228
0,754167	0,1	0,135208
0,755833	0,1	0,118956
0,757500	0,1	0,101011
0,759167	0,1	0,105615
0,760833	0,1	0,107121
0,762500	0,1	0,128482
0,764167	0,1	0,120985
0,765833	0,1	0,141392
0,767500	0,1	0,112998
0,769167	0,1	0,110317
0,770833	0,1	0,149798
0,772500	0,1	0,091495
0,774167	0,1	0,108379
0,775833	0,1	0,114921
0,777500	0,1	0,116240
0,779167	0,1	0,095896
0,780833	0,1	0,138944
0,782500	0,1	0,113967
0,784167	0,1	0,100213
0,785833	0,1	0,111128
0,787500	0,1	0,111702
0,789167	0,1	0,113380
0,790833	0,1	0,104111
0,792500	0,1	0,128735
0,794167	0,1	0,138754
0,795833	0,1	0,109197
0,797500	0,1	0,099568
0,799167	0,1	0,095439
0,800833	0,1	0,065173
0,802500	0,1	0,087386
0,804167	0,1	0,080308
0,805833	0,1	0,063590
0,807500	0,1	0,078234
0,809167	0,1	0,103704
0,810833	0,1	0,110704
0,812500	0,1	0,056416
0,814167	0,1	0,094531
0,815833	0,1	0,101687
0,817500	0,1	0,094577
0,819167	0,1	0,071447
0,820833	0,1	0,080203
0,822500	0,1	0,038668
0,824167	0,1	0,114679
0,825833	0,1	0,070681
0,827500	0,1	0,084938
0,829167	0,1	0,061079
0,830833	0,1	0,070506
0,832500	0,1	0,098423
0,834167	0,1	0,097532
0,835833	0,1	0,055678
0,837500	0,1	0,113947
0,839167	0,1	0,078573
0,840833	0,1	0,087742
0,842500	0,1	0,051069
0,844167	0,1	0,097930
0,845833	0,1	0,069770
0,847500	0,1	0,088729
0,849167	0,1	0,036221
0,850833	0,1	0,089691
0,852500	0,1	0,091953
0,854167	0,1	0,070714
0,855833	0,1	0,089246
0,857500	0,1	0,103490
0,859167	0,1	0,103240
0,860833	0,1	0,107837
0,862500	0,1	0,089128
0,864167	0,1	0,070006
0,865833	0,1	0,128634
0,867500	0,1	0,122400
0,869167	0,1	0,091226
0,870833	0,1	0,059402
0,872500	0,1	0,113041
0,874167	0,1	0,094380
0,875833	0,1	0,096824
0,877500	0,1	0,086042
0,879167	0,1	0,121944
0,880833	0,1	0,093992
0,882500	0,1	0,066359
0,884167	0,1	0,082098
0,885833	0,1	0,109437
0,887500	0,1	0,107965
0,889167	0,1	0,085591
0,890833	0,1	0,099398
0,892500	0,1	0,127608
0,894167	0,1	0,127360
0,895833	0,1	0,117955
0,897500	0,1	0,129481
0,899167	0,1	0,089197
0,900833	0,1	0,111018
0,902500	0,1	0,107296
0,904167	0,1	0,087485
0,905833	0,1	0,147535
0,907500	0,1	0,090045
0,909167	0,1	0,140133
0,910833	0,1	0,156826
0,912500	0,1	0,121211
0,914167	0,1	0,119724
0,915833	0,1	0,137238
0,917500	0,1	0,142422
0,919167	0,1	0,106850
0,920833	0,1	0,099140
0,922500	0,1	0,147347
0,924167	0,1	0,133190
0,925833	0,1	0,122592
0,927500	0,1	0,157754
0,929167	0,1	0,171515
0,930833	0,1	0,124461
0,932500	0,1	0,113112
0,934167	0,1	0,168475
0,935833	0,1	0,138310
0,937500	0,1	0,150285
0,939167	0,1	0,165966
0,940833	0,1	0,191994
0,942500	0,1	0,181955
0,944167	0,1	0,195798
0,945833	0,1	0,160123
0,947500	0,1	0,162329
0,949167	0,1	0,187553
0,950833	0,1	0,200760
0,952500	0,1	0,137838
0,954167	0,1	0,206929
0,955833	0,1	0,206562
0,957500	0,1	0,135362
0,959167	0,1	0,236206
0,960833	0,1	0,207177
0,962500	0,1	0,219089
0,964167	0,1	0,191618
0,965833	0,1	0,223790
0,967500	0,1	0,203021
0,969167	0,1	0,226561
0,970833	0,1	0,253973
0,972500	0,1	0,204930
0,974167	0,1	0,247042
0,975833	0,1	0,256170
0,977500	0,1	0,226797
0,979167	0,1	0,216901
0,980833	0,1	0,248462
0,982500	0,1	0,221095
0,984167	0,1	0,209234
0,985833	0,1	0,227818
0,987500	0,1	0,255778
0,989167	0,1	0,250567
0,990833	0,1	0,257360
0,992500	0,1	0,305776
0,994167	0,1	0,246807
0,995833	0,1	0,279198
0,997500	0,1	0,324916
0,999167	0,1	0,289266
1,000833	0,1	0,305493
1,002500	0,1	0,288940
1,004167	0,1	0,310165
1,005833	0,1	0,344381
1,007500	0,1	0,352280
1,009167	0,1	0,365524
1,010833	0,1	0,371779
1,012500	0,1	0,365882
1,014167	0,1	0,369975
1,015833	0,1	0,359408
1,017500	0,1	0,403413
1,019167	0,1	0,427170
1,020833	0,1	0,431816
1,022500	0,1	0,444387
1,024167	0,1	0,467266
1,025833	0,1	0,476006
1,027500	0,1	0,439112
1,029167	0,1	0,510129
1,030833	0,1	0,513464
1,032500	0,1	0,500348
1,034167	0,1	0,502091
1,035833	0,1	0,543702
1,037500	0,1	0,517563
1,039167	0,1	0,527973
1,040833	0,1	0,503836
1,042500	0,1	0,570082
1,044167	0,1	0,602528
1,045833	0,1	0,595299
1,047500	0,1	0,600612
1,049167	0,1	0,650574
1,050833	0,1	0,606850
1,052500	0,1	0,636037
1,054167	0,1	0,736724
1,055833	0,1	0,766638
1,057500	0,1	0,879876
1,059167	0,1	0,910291
1,060833	0,1	1,006042
1,062500	0,1	1,144062
1,064167	0,1	1,348063
1,065833	0,1	1,616692
1,067500	0,1	1,898443
1,069167	0,1	2,235464
1,070833	0,1	2,741615
1,072500	0,1	3,314932
1,074167	0,1	4,062552
1,075833	0,1	4,914521
1,077500	0,1	5,852653
1,079167	0,1	7,017163
1,080833	0,1	8,329953
1,082500	0,1	9,764054
1,084167	0,1	11,410839
1,085833	0,1	13,162329
1,087500	0,1	15,063454
1,089167	0,1	17,115898
1,090833	0,1	19,203363
1,092500	0,1	21,354334
1,094167	0,1	23,544764
1,095833	0,1	25,724921
1,097500	0,1	27,900119
1,099167	0,1	30,008932
1,100833	0,1	32,013105
1,102500	0,1	33,892012
1,104167	0,1	35,608768
1,105833	0,1	37,185508
1,107500	0,1	38,515565
1,109167	0,1	39,656540
1,110833	0,1	40,596052
1,112500	0,1	41,360391
1,114167	0,1	41,884911
1,115833	0,1	42,216571
1,117500	0,1	42,395522
1,119167	0,1	42,274050
1,120833	0,1	42,075340
1,122500	0,1	41,713156
1,124167	0,1	41,231683
1,125833	0,1	40,537237
1,127500	0,1	39,788714
1,129167	0,1	38,933338
1,130833	0,1	38,035514
1,132500	0,1	37,027604
1,134167	0,1	36,000304
1,135833	0,1	34,958957
1,137500	0,1	33,827260
1,139167	0,1	32,734432
1,140833	0,1	31,575137
1,142500	0,1	30,542584
1,144167	0,1	29,430437
1,145833	0,1	28,407763
1,147500	0,1	27,383180
1,149167	0,1	26,403340
1,150833	0,1	25,479119
1,152500	0,1	24,591887
1,154167	0,1	23,744401
1,155833	0,1	22,970971
1,157500	0,1	22,273295
1,159167	0,1	21,630397
1,160833	0,1	20,949334
1,162500	0,1	20,402845
1,164167	0,1	19,843218
1,165833	0,1	19,357992
1,167500	0,1	18,902882
1,169167	0,1	18,468975
1,170833	0,1	18,085430
1,172500	0,1	17,726038
1,174167	0,1	17,394823
1,175833	0,1	17,064227
1,177500	0,1	16,789312
1,179167	0,1	16,540947
1,180833	0,1	16,275301
1,182500	0,1	16,068628
1,184167	0,1	15,874088
1,185833	0,1	15,708462
1,187500	0,1	15,642473
1,189167	0,1	15,557171
1,190833	0,1	15,586244
1,192500	0,1	15,694774
1,194167	0,1	15,874929
1,195833	0,1	16,179437
1,197500	0,1	16,636279
1,199167	0,1	17,221955
1,200833	0,1	17,984793
1,202500	0,1	18,903527
1,204167	0,1	20,128435
1,205833	0,1	21,604292
1,207500	0,1	23,275251
1,209167	0,1	25,214962
1,210833	0,1	27,490646
1,212500	0,1	30,013087
1,214167	0,1	32,845974
1,215833	0,1	36,014237
1,217500	0,1	39,407253
1,219167	0,1	43,068123
1,220833	0,1	46,936039
1,222500	0,1	51,020749
1,224167	0,1	55,293048
1,225833	0,1	59,604360
1,227500	0,1	64,093516
1,229167	0,1	68,596728
1,230833	0,1	73,084006
1,232500	0,1	77,479559
1,234167	0,1	81,809444
1,235833	0,1	85,988630
1,237500	0,1	90,062921
1,239167	0,1	93,830864
1,240833	0,1	97,442148
1,242500	0,1	100,810077
1,244167	0,1	103,818950
1,245833	0,1	106,684324
1,247500	0,1	109,142495
1,249167	0,1	111,303457
1,250833	0,1	113,196614
1,252500	0,1	114,810957
1,254167	0,1	116,054764
1,255833	0,1	116,964294
1,257500	0,1	117,699359
1,259167	0,1	118,097457
1,260833	0,1	118,129700
1,262500	0,1	117,968784
1,264167	0,1	117,515152
1,265833	0,1	116,735381
1,267500	0,1	115,800562
1,269167	0,1	114,677541
1,270833	0,1	113,250418
1,272500	0,1	111,680415
1,274167	0,1	109,936065
1,275833	0,1	108,054617
1,277500	0,1	105,966421
1,279167	0,1	103,781059
1,280833	0,1	101,518701
1,282500	0,1	99,152866
1,284167	0,1	96,724101
1,285833	0,1	94,238568
1,287500	0,1	91,681780
1,289167	0,1	89,164433
1,290833	0,1	86,594276
1,292500	0,1	84,065302
1,294167	0,1	81,549193
1,295833	0,1	79,062033
1,297500	0,1	76,621353
1,299167	0,1	74,226765
1,300833	0,1	71,876054
1,302500	0,1	69,579333
1,304167	0,1	67,386828
1,305833	0,1	65,247145
1,307500	0,1	63,108233
1,309167	0,1	61,172702
1,310833	0,1	59,234410
1,312500	0,1	57,400572
1,314167	0,1	55,576460
1,315833	0,1	53,883167
1,317500	0,1	52,260421
1,319167	0,1	50,697844
1,320833	0,1	49,182556
1,322500	0,1	47,817190
1,324167	0,1	46,405639
1,325833	0,1	45,097704
1,327500	0,1	43,849223
1,329167	0,1	42,610179
1,330833	0,1	41,424388
1,332500	0,1	40,359232
1,334167	0,1	39,268547
1,335833	0,1	38,267541
1,337500	0,1	37,289006
1,339167	0,1	36,306837
1,340833	0,1	35,402997
1,342500	0,1	34,572016
1,344167	0,1	33,652841
1,345833	0,1	32,868412
1,347500	0,1	32,060018
1,349167	0,1	31,243157
1,350833	0,1	30,565700
1,352500	0,1	29,778113
1,354167	0,1	29,115574
1,355833	0,1	28,427114
1,357500	0,1	27,782438
1,359167	0,1	27,127344
1,360833	0,1	26,560458
1,362500	0,1	25,903171
1,364167	0,1	25,343094
1,365833	0,1	24,804390
1,367500	0,1	24,244325
1,369167	0,1	23,701045
1,370833	0,1	23,173797
1,372500	0,1	22,667475
1,374167	0,1	22,188923
1,375833	0,1	21,682838
1,377500	0,1	21,235703
1,379167	0,1	20,761676
1,380833	0,1	20,343683
1,382500	0,1	19,917474
1,384167	0,1	19,521446
1,385833	0,1	19,119948
1,387500	0,1	18,701074
1,389167	0,1	18,314450
1,390833	0,1	17,959438
1,392500	0,1	17,631851
1,394167	0,1	17,283823
1,395833	0,1	16,919204
1,397500	0,1	16,603392
1,399167	0,1	16,345057
1,400833	0,1	16,047664
1,402500	0,1	15,721580
1,404167	0,1	15,457910
1,405833	0,1	15,196697
1,407500	0,1	14,911354
1,409167	0,1	14,661102
1,410833	0,1	14,465872
1,412500	0,1	14,206537
1,414167	0,1	13,972972
1,415833	0,1	13,761571
1,417500	0,1	13,507711
1,419167	0,1	13,259975
1,420833	0,1	13,130163
1,422500	0,1	12,925901
1,424167	0,1	12,736569
1,425833	0,1	12,519127
1,427500	0,1	12,349357
1,429167	0,1	12,190697
1,430833	0,1	11,996186
1,432500	0,1	11,852392
1,434167	0,1	11,655824
1,435833	0,1	11,515458
1,437500	0,1	11,372839
1,439167	0,1	11,228644
1,440833	0,1	11,075670
1,442500	0,1	10,924567
1,444167	0,1	10,774235
1,445833	0,1	10,611893
1,447500	0,1	10,487674
1,449167	0,1	10,317904
1,450833	0,1	10,218712
1,452500	0,1	10,097697
1,454167	0,1	9,968366
1,455833	0,1	9,851645
1,457500	0,1	9,698794
1,459167	0,1	9,608913
1,460833	0,1	9,499049
1,462500	0,1	9,408014
1,464167	0,1	9,301124
1,465833	0,1	9,174863
1,467500	0,1	9,097563
1,469167	0,1	9,021255
1,470833	0,1	8,921197
1,472500	0,1	8,852012
1,474167	0,1	8,796900
1,475833	0,1	8,714333
1,477500	0,1	8,630322
1,479167	0,1	8,580450
1,480833	0,1	8,480792
1,482500	0,1	8,480413
1,484167	0,1	8,404521
1,485833	0,1	8,339682
1,487500	0,1	8,275359
1,489167	0,1	8,227211
1,490833	0,1	8,200400
1,492500	0,1	8,164312
1,494167	0,1	8,132658
1,495833	0,1	8,054281
1,497500	0,1	8,078607
1,499167	0,1	8,041350
1,500833	0,1	8,022384
1,502500	0,1	7,944546
1,504167	0,1	7,940906
1,505833	0,1	7,900845
1,507500	0,1	7,898540
1,509167	0,1	7,888247
1,510833	0,1	7,842355
1,512500	0,1	7,868912
1,514167	0,1	7,864427
1,515833	0,1	7,833204
1,517500	0,1	7,821825
1,519167	0,1	7,804945
1,520833	0,1	7,792535
1,522500	0,1	7,779227
1,524167	0,1	7,748517
1,525833	0,1	7,727258
1,527500	0,1	7,693441
1,529167	0,1	7,691131
1,530833	0,1	7,691021
1,532500	0,1	7,686879
1,534167	0,1	7,675824
1,535833	0,1	7,691450
1,537500	0,1	7,674709
1,539167	0,1	7,644927
1,540833	0,1	7,645418
1,542500	0,1	7,593452
1,544167	0,1	7,612998
1,545833	0,1	7,587257
1,547500	0,1	7,557685
1,549167	0,1	7,503620
1,550833	0,1	7,591453
1,552500	0,1	7,510619
1,554167	0,1	7,506229
1,555833	0,1	7,525699
1,557500	0,1	7,511829
1,559167	0,1	7,458675
1,560833	0,1	7,500774
1,562500	0,1	7,502952
1,564167	0,1	7,496284
1,565833	0,1	7,455557
1,567500	0,1	7,465038
1,569167	0,1	7,429750
1,570833	0,1	7,387926
1,572500	0,1	7,425811
1,574167	0,1	7,430963
1,575833	0,1	7,385201
1,577500	0,1	7,381560
1,579167	0,1	7,392961
1,580833	0,1	7,345729
1,582500	0,1	7,293332
1,584167	0,1	7,307554
1,585833	0,1	7,272939
1,587500	0,1	7,267598
1,589167	0,1	7,255636
1,590833	0,1	7,248699
1,592500	0,1	7,228296
1,594167	0,1	7,156233
1,595833	0,1	7,196404
1,597500	0,1	7,159765
1,599167	0,1	7,104693
1,600833	0,1	7,068120
1,602500	0,1	7,011755
1,604167	0,1	7,033237
1,605833	0,1	6,992861
1,607500	0,1	6,994158
1,609167	0,1	6,940515
1,610833	0,1	6,898634
1,612500	0,1	6,884516
1,614167	0,1	6,844991
1,615833	0,1	6,798922
1,617500	0,1	6,796203
1,619167	0,1	6,756031
1,620833	0,1	6,694657
1,622500	0,1	6,673068
1,624167	0,1	6,666711
1,625833	0,1	6,624778
1,627500	0,1	6,587984
1,629167	0,1	6,557991
1,630833	0,1	6,509436
1,632500	0,1	6,508779
1,634167	0,1	6,458637
1,635833	0,1	6,386752
1,637500	0,1	6,412502
1,639167	0,1	6,387402
1,640833	0,1	6,285191
1,642500	0,1	6,286314
1,644167	0,1	6,274291
1,645833	0,1	6,214080
1,647500	0,1	6,167166
1,649167	0,1	6,130118
1,650833	0,1	6,122184
1,652500	0,1	6,100243
1,654167	0,1	6,073572
1,655833	0,1	6,054633
1,657500	0,1	6,001358
1,659167	0,1	5,975146
1,660833	0,1	5,975422
1,662500	0,1	5,948303
1,664167	0,1	5,901588
1,665833	0,1	5,884404
1,667500	0,1	5,908572
1,669167	0,1	5,882463
1,670833	0,1	5,860208
1,672500	0,1	5,860086
1,674167	0,1	5,864398
1,675833	0,1	5,854288
1,677500	0,1	5,849986
1,679167	0,1	5,840123
1,680833	0,1	5,802380
1,682500	0,1	5,849068
1,684167	0,1	5,851483
1,685833	0,1	5,850933
1,687500	0,1	5,876410
1,689167	0,1	5,840677
1,690833	0,1	5,881717
1,692500	0,1	5,893255
1,694167	0,1	5,897468
1,695833	0,1	5,927694
1,697500	0,1	5,912830
1,699167	0,1	5,933751
1,700833	0,1	5,947526
1,702500	0,1	5,960863
1,704167	0,1	5,982830
1,705833	0,1	6,025709
1,707500	0,1	6,031144
1,709167	0,1	6,072903
1,710833	0,1	6,058731
1,712500	0,1	6,062271
1,714167	0,1	6,072395
1,715833	0,1	6,118261
1,717500	0,1	6,094357
1,719167	0,1	6,156690
1,720833	0,1	6,160061
1,722500	0,1	6,129916
1,724167	0,1	6,157442
1,725833	0,1	6,130116
1,727500	0,1	6,165739
1,729167	0,1	6,127274
1,730833	0,1	6,163489
1,732500	0,1	6,170238
1,734167	0,1	6,146895
1,735833	0,1	6,173851
1,737500	0,1	6,142144
1,739167	0,1	6,103332
1,740833	0,1	6,139776
1,742500	0,1	6,138037
1,744167	0,1	6,070295
1,745833	0,1	6,063278
1,747500	0,1	6,051715
1,749167	0,1	6,074493
1,750833	0,1	6,008476
1,752500	0,1	6,033255
1,754167	0,1	6,011090
1,755833	0,1	5,934785
1,757500	0,1	5,912295
1,759167	0,1	5,881501
1,760833	0,1	5,844148
1,762500	0,1	5,816734
1,764167	0,1	5,789608
1,765833	0,1	5,732250
1,767500	0,1	5,716314
1,769167	0,1	5,706525
1,770833	0,1	5,682300
1,772500	0,1	5,615327
1,774167	0,1	5,579512
1,775833	0,1	5,512926
1,777500	0,1	5,484135
1,779167	0,1	5,420697
1,780833	0,1	5,361236
1,782500	0,1	5,367631
1,784167	0,1	5,278869
1,785833	0,1	5,284384
1,787500	0,1	5,182907
1,789167	0,1	5,180647
1,790833	0,1	5,119321
1,792500	0,1	5,128734
1,794167	0,1	5,061952
1,795833	0,1	5,001708
1,797500	0,1	4,996794
1,799167	0,1	4,973744
1,800833	0,1	4,903360
1,802500	0,1	4,857653
1,804167	0,1	4,853681
1,805833	0,1	4,788781
1,807500	0,1	4,739123
1,809167	0,1	4,707312
1,810833	0,1	4,695497
1,812500	0,1	4,621507
1,814167	0,1	4,628796
1,815833	0,1	4,592311
1,817500	0,1	4,522790
1,819167	0,1	4,464229
1,820833	0,1	4,470186
1,822500	0,1	4,423995
1,824167	0,1	4,365998
1,825833	0,1	4,369353
1,827500	0,1	4,354718
1,829167	0,1	4,302046
1,830833	0,1	4,344583
1,832500	0,1	4,302776
1,834167	0,1	4,240560
1,835833	0,1	4,260775
1,837500	0,1	4,311529
1,839167	0,1	4,333484
1,840833	0,1	4,334707
1,842500	0,1	4,339918
1,844167	0,1	4,361461
1,845833	0,1	4,427801
1,847500	0,1	4,389968
1,849167	0,1	4,452642
1,850833	0,1	4,516388
1,852500	0,1	4,557252
1,854167	0,1	4,603022
1,855833	0,1	4,710251
1,857500	0,1	4,713813
1,859167	0,1	4,782322
1,860833	0,1	4,815790
1,862500	0,1	4,923421
1,864167	0,1	4,971775
1,865833	0,1	5,014423
1,867500	0,1	5,110321
1,869167	0,1	5,161500
1,870833	0,1	5,229924
1,872500	0,1	5,288022
1,874167	0,1	5,299443
1,875833	0,1	5,416654
1,877500	0,1	5,533789
1,879167	0,1	5,501053
1,880833	0,1	5,615828
1,882500	0,1	5,640780
1,884167	0,1	5,734766
1,885833	0,1	5,790241
1,887500	0,1	5,836948
1,889167	0,1	5,858006
1,890833	0,1	5,964219
1,892500	0,1	6,002002
1,894167	0,1	6,090071
1,895833	0,1	6,083251
1,897500	0,1	6,161892
1,899167	0,1	6,240358
1,900833	0,1	6,323815
1,902500	0,1	6,380760
1,904167	0,1	6,451337
1,905833	0,1	6,454525
1,907500	0,1	6,493733
1,909167	0,1	6,596438
1,910833	0,1	6,638777
1,912500	0,1	6,696401
1,914167	0,1	6,718551
1,915833	0,1	6,740882
1,917500	0,1	6,803474
1,919167	0,1	6,837215
1,920833	0,1	6,906740
1,922500	0,1	6,928723
1,924167	0,1	6,948160
1,925833	0,1	6,942931
1,927500	0,1	7,026299
1,929167	0,1	7,013040
1,930833	0,1	7,071459
1,932500	0,1	7,115882
1,934167	0,1	7,141986
1,935833	0,1	7,175182
1,937500	0,1	7,175563
1,939167	0,1	7,194540
1,940833	0,1	7,221286
1,942500	0,1	7,254678
1,944167	0,1	7,266292
1,945833	0,1	7,332388
1,947500	0,1	7,319892
1,949167	0,1	7,403125
1,950833	0,1	7,422136
1,952500	0,1	7,408869
1,954167	0,1	7,434494
1,955833	0,1	7,497846
1,957500	0,1	7,510683
1,959167	0,1	7,542867
1,960833	0,1	7,558610
1,962500	0,1	7,571595
1,964167	0,1	7,609897
1,965833	0,1	7,661836
1,967500	0,1	7,658598
1,969167	0,1	7,689745
1,970833	0,1	7,773899
1,972500	0,1	7,777436
1,974167	0,1	7,775457
1,975833	0,1	7,857766
1,977500	0,1	7,843350
1,979167	0,1	7,893561
1,980833	0,1	7,902309
1,982500	0,1	7,969873
1,984167	0,1	8,025824
1,985833	0,1	8,059382
1,987500	0,1	8,090116
1,989167	0,1	8,131088
1,990833	0,1	8,165408
1,992500	0,1	8,221836
1,994167	0,1	8,253523
1,995833	0,1	8,309761
1,997500	0,1	8,331197
1,999167	0,1	8,381969
2,000833	0,1	8,416537
2,002500	0,1	8,503981
2,004167	0,1	8,587404
2,005833	0,1	8,577306
2,007500	0,1	8,615619
2,009167	0,1	8,722727
2,010833	0,1	8,743205
2,012500	0,1	8,783120
2,014167	0,1	8,872831
2,015833	0,1	8,874927
2,017500	0,1	8,958697
2,019167	0,1	9,044159
2,020833	0,1	9,086632
2,022500	0,1	9,140276
2,024167	0,1	9,218224
2,025833	0,1	9,241743
2,027500	0,1	9,333581
2,029167	0,1	9,347796
2,030833	0,1	9,420308
2,032500	0,1	9,501832
2,034167	0,1	9,590287
2,035833	0,1	9,596933
2,037500	0,1	9,687641
2,039167	0,1	9,719795
2,040833	0,1	9,818077
2,042500	0,1	9,875239
2,044167	0,1	9,939175
2,045833	0,1	9,997062
2,047500	0,1	10,093882
2,049167	0,1	10,111570
2,050833	0,1	10,173687
2,052500	0,1	10,235160
2,054167	0,1	10,291258
2,055833	0,1	10,349667
2,057500	0,1	10,410673
2,059167	0,1	10,454319
2,060833	0,1	10,488954
2,062500	0,1	10,567120
2,064167	0,1	10,620572
2,065833	0,1	10,687065
2,067500	0,1	10,731565
2,069167	0,1	10,787986
2,070833	0,1	10,827225
2,072500	0,1	10,887301
2,074167	0,1	10,941187
2,075833	0,1	10,990883
2,077500	0,1	11,026149
2,079167	0,1	11,094046
2,080833	0,1	11,112911
2,082500	0,1	11,176118
2,084167	0,1	11,224272
2,085833	0,1	11,254625
2,087500	0,1	11,305621
2,089167	0,1	11,306522
2,090833	0,1	11,363741
2,092500	0,1	11,431527
2,094167	0,1	11,454836
2,095833	0,1	11,448099
2,097500	0,1	11,463300
2,099167	0,1	11,507795
2,100833	0,1	11,491738
2,102500	0,1	11,564397
2,104167	0,1	11,541103
2,105833	0,1	11,613050
2,107500	0,1	11,597344
2,109167	0,1	11,612592
2,110833	0,1	11,651966
2,112500	0,1	11,686869
2,114167	0,1	11,671855
2,115833	0,1	11,710252
2,117500	0,1	11,721240
2,119167	0,1	11,751749
2,120833	0,1	11,726773
2,122500	0,1	11,710388
2,124167	0,1	11,700497
2,125833	0,1	11,675952
2,127500	0,1	11,728465
2,129167	0,1	11,674510
2,130833	0,1	11,718933
2,132500	0,1	11,735552
2,134167	0,1	11,698479
2,135833	0,1	11,706489
2,137500	0,1	11,647319
2,139167	0,1	11,717363
2,140833	0,1	11,658058
2,142500	0,1	11,663871
2,144167	0,1	11,635478
2,145833	0,1	11,583349
2,147500	0,1	11,621416
2,149167	0,1	11,643025
2,150833	0,1	11,566750
2,152500	0,1	11,583272
2,154167	0,1	11,570083
2,155833	0,1	11,513067
2,157500	0,1	11,497919
2,159167	0,1	11,427645
2,160833	0,1	11,422086
2,162500	0,1	11,413264
2,164167	0,1	11,334415
2,165833	0,1	11,338954
2,167500	0,1	11,365136
2,169167	0,1	11,301184
2,170833	0,1	11,276949
2,172500	0,1	11,272932
2,174167	0,1	11,208213
2,175833	0,1	11,213868
2,177500	0,1	11,201792
2,179167	0,1	11,119090
2,180833	0,1	11,057554
2,182500	0,1	11,057314
2,184167	0,1	11,045765
2,185833	0,1	10,985800
2,187500	0,1	10,956546
2,189167	0,1	10,960275
2,190833	0,1	10,944816
2,192500	0,1	10,883905
2,194167	0,1	10,867512
2,195833	0,1	10,830705
2,197500	0,1	10,779663
2,199167	0,1	10,739069
2,200833	0,1	10,702603
2,202500	0,1	10,702853
2,204167	0,1	10,670028
2,205833	0,1	10,650728
2,207500	0,1	10,661274
2,209167	0,1	10,635219
2,210833	0,1	10,620371
2,212500	0,1	10,543022
2,214167	0,1	10,553995
2,215833	0,1	10,602093
2,217500	0,1	10,564677
2,219167	0,1	10,528826
2,220833	0,1	10,530029
2,222500	0,1	10,481334
2,224167	0,1	10,513862
2,225833	0,1	10,553820
2,227500	0,1	10,497278
2,229167	0,1	10,456157
2,230833	0,1	10,491701
2,232500	0,1	10,492317
2,234167	0,1	10,460881
2,235833	0,1	10,496210
2,237500	0,1	10,506279
2,239167	0,1	10,483196
2,240833	0,1	10,486102
2,242500	0,1	10,466595
2,244167	0,1	10,466371
2,245833	0,1	10,490551
2,247500	0,1	10,477698
2,249167	0,1	10,501656
2,250833	0,1	10,471544
2,252500	0,1	10,482310
2,254167	0,1	10,522434
2,255833	0,1	10,509967
2,257500	0,1	10,480064
2,259167	0,1	10,495721
2,260833	0,1	10,483908
2,262500	0,1	10,475331
2,264167	0,1	10,460820
2,265833	0,1	10,455379
2,267500	0,1	10,473073
2,269167	0,1	10,460656
2,270833	0,1	10,434165
2,272500	0,1	10,398823
2,274167	0,1	10,410685
2,275833	0,1	10,383929
2,277500	0,1	10,374744
2,279167	0,1	10,336173
2,280833	0,1	10,355890
2,282500	0,1	10,337377
2,284167	0,1	10,313861
2,285833	0,1	10,297756
2,287500	0,1	10,312806
2,289167	0,1	10,241889
2,290833	0,1	10,218476
2,292500	0,1	10,188031
2,294167	0,1	10,203798
2,295833	0,1	10,187816
2,297500	0,1	10,150139
2,299167	0,1	10,120801
2,300833	0,1	10,081985
2,302500	0,1	10,037813
2,304167	0,1	10,037262
2,305833	0,1	10,014034
2,307500	0,1	10,025023
2,309167	0,1	9,961930
2,310833	0,1	9,925927
2,312500	0,1	9,917187
2,314167	0,1	9,893307
2,315833	0,1	9,816755
2,317500	0,1	9,857383
2,319167	0,1	9,802291
2,320833	0,1	9,792889
2,322500	0,1	9,748531
2,324167	0,1	9,683921
2,325833	0,1	9,680340
2,327500	0,1	9,661949
2,329167	0,1	9,654278
2,330833	0,1	9,609538
2,332500	0,1	9,560656
2,334167	0,1	9,511670
2,335833	0,1	9,558699
2,337500	0,1	9,527697
2,339167	0,1	9,447090
2,340833	0,1	9,450977
2,342500	0,1	9,426044
2,344167	0,1	9,401523
2,345833	0,1	9,368350
2,347500	0,1	9,366368
2,349167	0,1	9,342619
2,350833	0,1	9,311004
2,352500	0,1	9,273327
2,354167	0,1	9,261450
2,355833	0,1	9,229499
2,357500	0,1	9,204019
2,359167	0,1	9,202384
2,360833	0,1	9,216297
2,362500	0,1	9,152904
2,364167	0,1	9,138699
2,365833	0,1	9,134647
2,367500	0,1	9,139352
2,369167	0,1	9,122571
2,370833	0,1	9,101597
2,372500	0,1	9,077443
2,374167	0,1	9,110306
2,375833	0,1	9,099312
2,377500	0,1	9,094325
2,379167	0,1	9,108546
2,380833	0,1	9,087615
2,382500	0,1	9,106502
2,384167	0,1	9,088239
2,385833	0,1	9,077751
2,387500	0,1	9,099026
2,389167	0,1	9,122075
2,390833	0,1	9,118484
2,392500	0,1	9,143226
2,394167	0,1	9,188393
2,395833	0,1	9,204388
2,397500	0,1	9,217199
2,399167	0,1	9,256176
2,400833	0,1	9,255593
2,402500	0,1	9,362802
2,404167	0,1	9,336976
2,405833	0,1	9,377371
2,407500	0,1	9,451791
2,409167	0,1	9,485640
2,410833	0,1	9,547270
2,412500	0,1	9,567921
2,414167	0,1	9,695133
2,415833	0,1	9,747431
2,417500	0,1	9,752988
2,419167	0,1	9,840230
2,420833	0,1	9,903383
2,422500	0,1	9,969147
2,424167	0,1	10,047895
2,425833	0,1	10,130111
2,427500	0,1	10,245805
2,429167	0,1	10,289772
2,430833	0,1	10,379724
2,432500	0,1	10,434859
2,434167	0,1	10,536826
2,435833	0,1	10,621778
2,437500	0,1	10,711146
2,439167	0,1	10,823966
2,440833	0,1	10,954138
2,442500	0,1	11,027911
2,444167	0,1	11,110158
2,445833	0,1	11,225436
2,447500	0,1	11,341343
2,449167	0,1	11,392942
2,450833	0,1	11,515624
2,452500	0,1	11,658168
2,454167	0,1	11,758184
2,455833	0,1	11,841088
2,457500	0,1	11,940708
2,459167	0,1	12,050242
2,460833	0,1	12,170245
2,462500	0,1	12,372593
2,464167	0,1	12,436678
2,465833	0,1	12,603186
2,467500	0,1	12,752101
2,469167	0,1	12,913182
2,470833	0,1	13,078518
2,472500	0,1	13,282784
2,474167	0,1	13,484273
2,475833	0,1	13,692165
2,477500	0,1	13,977123
2,479167	0,1	14,220715
2,480833	0,1	14,468838
2,482500	0,1	14,821133
2,484167	0,1	15,146001
2,485833	0,1	15,495400
2,487500	0,1	15,938301
2,489167	0,1	16,407324
2,490833	0,1	16,844015
2,492500	0,1	17,400216
2,494167	0,1	17,992757
2,495833	0,1	18,602783
2,497500	0,1	19,292544
2,499167	0,1	20,073562
2,500833	0,1	20,848250
2,502500	0,1	21,754113
2,504167	0,1	22,689762
2,505833	0,1	23,641772
2,507500	0,1	24,744508
2,509167	0,1	25,916749
2,510833	0,1	27,117612
2,512500	0,1	28,412146
2,514167	0,1	29,791054
2,515833	0,1	31,218199
2,517500	0,1	32,783411
2,519167	0,1	34,372232
2,520833	0,1	36,112063
2,522500	0,1	37,837901
2,524167	0,1	39,697709
2,525833	0,1	41,606070
2,527500	0,1	43,631044
2,529167	0,1	45,647571
2,530833	0,1	47,843940
2,532500	0,1	50,036412
2,534167	0,1	52,255962
2,535833	0,1	54,605785
2,537500	0,1	56,960554
2,539167	0,1	59,335234
2,540833	0,1	61,855128
2,542500	0,1	64,314443
2,544167	0,1	66,810254
2,545833	0,1	69,310259
2,547500	0,1	71,928870
2,549167	0,1	74,488206
2,550833	0,1	77,011177
2,552500	0,1	79,665864
2,554167	0,1	82,129864
2,555833	0,1	84,703866
2,557500	0,1	87,173226
2,559167	0,1	89,681651
2,560833	0,1	92,090551
2,562500	0,1	94,487879
2,564167	0,1	96,827725
2,565833	0,1	99,122161
2,567500	0,1	101,364449
2,569167	0,1	103,522966
2,570833	0,1	105,647192
2,572500	0,1	107,637427
2,574167	0,1	109,621139
2,575833	0,1	111,487167
2,577500	0,1	113,242285
2,579167	0,1	114,983514
2,580833	0,1	116,638286
2,582500	0,1	118,181627
2,584167	0,1	119,570078
2,585833	0,1	120,903905
2,587500	0,1	122,208294
2,589167	0,1	123,358211
2,590833	0,1	124,491700
2,592500	0,1	125,422119
2,594167	0,1	126,350791
2,595833	0,1	127,176592
2,597500	0,1	127,882908
2,599167	0,1	128,535097
2,600833	0,1	129,096913
2,602500	0,1	129,576222
2,604167	0,1	129,942952
2,605833	0,1	130,221324
2,607500	0,1	130,475246
2,609167	0,1	130,595779
2,610833	0,1	130,675535
2,612500	0,1	130,641374
2,614167	0,1	130,575599
2,615833	0,1	130,461007
2,617500	0,1	130,245633
2,619167	0,1	129,946916
2,620833	0,1	129,637429
2,622500	0,1	129,207918
2,624167	0,1	128,694765
2,625833	0,1	128,194450
2,627500	0,1	127,582389
2,629167	0,1	126,983307
2,630833	0,1	126,268448
2,632500	0,1	125,545377
2,634167	0,1	124,744784
2,635833	0,1	123,935644
2,637500	0,1	122,964721
2,639167	0,1	122,074606
2,640833	0,1	121,075531
2,642500	0,1	120,042080
2,644167	0,1	118,961068
2,645833	0,1	117,886444
2,647500	0,1	116,790765
2,649167	0,1	115,619077
2,650833	0,1	114,403313
2,652500	0,1	113,226825
2,654167	0,1	111,920442
2,655833	0,1	110,642582
2,657500	0,1	109,381435
2,659167	0,1	108,031476
2,660833	0,1	106,660604
2,662500	0,1	105,326415
2,664167	0,1	103,949475
2,665833	0,1	102,572230
2,667500	0,1	101,157602
2,669167	0,1	99,715281
2,670833	0,1	98,264113
2,672500	0,1	96,818173
2,674167	0,1	95,373784
2,675833	0,1	93,901161
2,677500	0,1	92,423587
2,679167	0,1	90,987715
2,680833	0,1	89,555948
2,682500	0,1	88,064610
2,684167	0,1	86,585599
2,685833	0,1	85,150763
2,687500	0,1	83,746902
2,689167	0,1	82,301851
2,690833	0,1	80,830290
2,692500	0,1	79,452287
2,694167	0,1	78,041584
2,695833	0,1	76,624768
2,697500	0,1	75,243503
2,699167	0,1	73,863727
2,700833	0,1	72,471473
2,702500	0,1	71,142908
2,704167	0,1	69,788040
2,705833	0,1	68,446819
2,707500	0,1	67,159194
2,709167	0,1	65,917182
2,710833	0,1	64,616381
2,712500	0,1	63,401410
2,714167	0,1	62,154922
2,715833	0,1	60,948765
2,717500	0,1	59,793426
2,719167	0,1	58,600290
2,720833	0,1	57,444272
2,722500	0,1	56,325470
2,724167	0,1	55,222957
2,725833	0,1	54,136967
2,727500	0,1	53,086210
2,729167	0,1	52,015002
2,730833	0,1	51,013611
2,732500	0,1	50,016436
2,734167	0,1	49,012521
2,735833	0,1	48,087020
2,737500	0,1	47,114341
2,739167	0,1	46,210507
2,740833	0,1	45,319510
2,742500	0,1	44,420698
2,744167	0,1	43,543911
2,745833	0,1	42,709536
2,747500	0,1	41,886708
2,749167	0,1	41,096114
2,750833	0,1	40,315400
2,752500	0,1	39,549190
2,754167	0,1	38,784466
2,755833	0,1	38,042001
2,757500	0,1	37,331968
2,759167	0,1	36,610963
2,760833	0,1	35,980906
2,762500	0,1	35,269628
2,764167	0,1	34,668921
2,765833	0,1	33,997104
2,767500	0,1	33,363394
2,769167	0,1	32,755840
2,770833	0,1	32,186301
2,772500	0,1	31,593591
2,774167	0,1	31,043631
2,775833	0,1	30,461283
2,777500	0,1	29,934556
2,779167	0,1	29,362621
2,780833	0,1	28,849976
2,782500	0,1	28,348756
2,784167	0,1	27,838224
2,785833	0,1	27,371688
2,787500	0,1	26,869097
2,789167	0,1	26,378654
2,790833	0,1	25,980629
2,792500	0,1	25,571510
2,794167	0,1	25,088392
2,795833	0,1	24,593992
2,797500	0,1	24,226026
2,799167	0,1	23,834660
2,800833	0,1	23,424394
2,802500	0,1	23,003248
2,804167	0,1	22,615149
2,805833	0,1	22,261780
2,807500	0,1	21,871398
2,809167	0,1	21,507324
2,810833	0,1	21,150305
2,812500	0,1	20,803661
2,814167	0,1	20,478590
2,815833	0,1	20,159481
2,817500	0,1	19,789805
2,819167	0,1	19,454935
2,820833	0,1	19,125907
2,822500	0,1	18,835262
2,824167	0,1	18,516215
2,825833	0,1	18,224959
2,827500	0,1	17,937964
2,829167	0,1	17,653354
2,830833	0,1	17,388392
2,832500	0,1	17,075998
2,834167	0,1	16,832454
2,835833	0,1	16,562956
2,837500	0,1	16,292654
2,839167	0,1	16,041483
2,840833	0,1	15,824517
2,842500	0,1	15,596986
2,844167	0,1	15,331694
2,845833	0,1	15,118024
2,847500	0,1	14,890586
2,849167	0,1	14,647850
2,850833	0,1	14,445097
2,852500	0,1	14,182912
2,854167	0,1	14,042956
2,855833	0,1	13,842756
2,857500	0,1	13,656976
2,859167	0,1	13,411049
2,860833	0,1	13,215978
2,862500	0,1	13,079089
2,864167	0,1	12,871953
2,865833	0,1	12,693199
2,867500	0,1	12,523886
2,869167	0,1	12,374345
2,870833	0,1	12,221365
2,872500	0,1	12,044001
2,874167	0,1	11,827814
2,875833	0,1	11,730022
2,877500	0,1	11,611312
2,879167	0,1	11,458299
2,880833	0,1	11,305648
2,882500	0,1	11,105711
2,884167	0,1	11,025888
2,885833	0,1	10,914775
2,887500	0,1	10,728312
2,889167	0,1	10,626380
2,890833	0,1	10,493171
2,892500	0,1	10,400487
2,894167	0,1	10,251310
2,895833	0,1	10,186740
2,897500	0,1	10,078156
2,899167	0,1	9,948732
2,900833	0,1	9,834655
2,902500	0,1	9,697234
2,904167	0,1	9,636873
2,905833	0,1	9,547223
2,907500	0,1	9,448250
2,909167	0,1	9,332170
2,910833	0,1	9,224599
2,912500	0,1	9,150654
2,914167	0,1	9,063443
2,915833	0,1	8,988388
2,917500	0,1	8,897302
2,919167	0,1	8,800350
2,920833	0,1	8,715562
2,922500	0,1	8,644537
2,924167	0,1	8,559969
2,925833	0,1	8,471140
2,927500	0,1	8,438777
2,929167	0,1	8,333885
2,930833	0,1	8,260743
2,932500	0,1	8,192551
2,934167	0,1	8,108852
2,935833	0,1	8,023415
2,937500	0,1	7,992357
2,939167	0,1	7,934488
2,940833	0,1	7,828636
2,942500	0,1	7,769427
2,944167	0,1	7,684069
2,945833	0,1	7,649879
2,947500	0,1	7,584622
2,949167	0,1	7,575227
2,950833	0,1	7,464167
2,952500	0,1	7,418579
2,954167	0,1	7,350582
2,955833	0,1	7,339138
2,957500	0,1	7,250573
2,959167	0,1	7,209028
2,960833	0,1	7,149175
2,962500	0,1	7,071669
2,964167	0,1	7,049494
2,965833	0,1	6,996310
2,967500	0,1	6,963679
2,969167	0,1	6,905083
2,970833	0,1	6,835368
2,972500	0,1	6,790792
2,974167	0,1	6,727076
2,975833	0,1	6,706888
2,977500	0,1	6,643004
2,979167	0,1	6,638133
2,980833	0,1	6,604242
2,982500	0,1	6,512151
2,984167	0,1	6,445038
2,985833	0,1	6,428123
2,987500	0,1	6,437082
2,989167	0,1	6,334328
2,990833	0,1	6,344475
2,992500	0,1	6,270568
2,994167	0,1	6,240989
2,995833	0,1	6,192186
2,997500	0,1	6,200580
2,999167	0,1	6,126791
3,000833	0,1	6,125114
3,002500	0,1	6,086374
3,004167	0,1	6,006061
3,005833	0,1	5,961862
3,007500	0,1	5,948426
3,009167	0,1	5,951148
3,010833	0,1	5,860520
3,012500	0,1	5,856288
3,014167	0,1	5,816871
3,015833	0,1	5,768212
3,017500	0,1	5,729536
3,019167	0,1	5,734819
3,020833	0,1	5,692227
3,022500	0,1	5,660135
3,024167	0,1	5,623869
3,025833	0,1	5,593333
3,027500	0,1	5,564545
3,029167	0,1	5,549841
3,030833	0,1	5,496920
3,032500	0,1	5,497297
3,034167	0,1	5,438409
3,035833	0,1	5,436848
3,037500	0,1	5,393069
3,039167	0,1	5,395665
3,040833	0,1	5,312524
3,042500	0,1	5,319977
3,044167	0,1	5,279617
3,045833	0,1	5,262430
3,047500	0,1	5,238598
3,049167	0,1	5,195569
3,050833	0,1	5,178422
3,052500	0,1	5,123267
3,054167	0,1	5,118498
3,055833	0,1	5,070441
3,057500	0,1	5,048423
3,059167	0,1	5,037037
3,060833	0,1	4,992607
3,062500	0,1	4,952366
3,064167	0,1	4,863978
3,065833	0,1	4,949419
3,067500	0,1	4,919178
3,069167	0,1	4,878775
3,070833	0,1	4,827223
3,072500	0,1	4,801427
3,074167	0,1	4,827804
3,075833	0,1	4,774346
3,077500	0,1	4,775973
3,079167	0,1	4,747143
3,080833	0,1	4,699651
3,082500	0,1	4,656859
3,084167	0,1	4,680023
3,085833	0,1	4,684364
3,087500	0,1	4,628225
3,089167	0,1	4,614814
3,090833	0,1	4,583265
3,092500	0,1	4,562206
3,094167	0,1	4,524553
3,095833	0,1	4,513387
3,097500	0,1	4,531530
3,099167	0,1	4,500531
3,100833	0,1	4,493300
3,102500	0,1	4,462042
3,104167	0,1	4,428853
3,105833	0,1	4,390416
3,107500	0,1	4,394463
3,109167	0,1	4,389227
3,110833	0,1	4,397064
3,112500	0,1	4,361255
3,114167	0,1	4,375350
3,115833	0,1	4,355563
3,117500	0,1	4,327881
3,119167	0,1	4,323076
3,120833	0,1	4,316052
3,122500	0,1	4,327103
3,124167	0,1	4,284641
3,125833	0,1	4,258140
3,127500	0,1	4,322530
3,129167	0,1	4,284147
3,130833	0,1	4,261548
3,132500	0,1	4,284297
3,134167	0,1	4,258468
3,135833	0,1	4,256633
3,137500	0,1	4,250371
3,139167	0,1	4,208034
3,140833	0,1	4,234959
3,142500	0,1	4,225214
3,144167	0,1	4,217210
3,145833	0,1	4,181298
3,147500	0,1	4,210496
3,149167	0,1	4,234309
3,150833	0,1	4,228913
3,152500	0,1	4,225012
3,154167	0,1	4,235734
3,155833	0,1	4,225909
3,157500	0,1	4,166105
3,159167	0,1	4,193428
3,160833	0,1	4,213908
3,162500	0,1	4,175767
3,164167	0,1	4,226004
3,165833	0,1	4,207542
3,167500	0,1	4,166016
3,169167	0,1	4,206059
3,170833	0,1	4,178937
3,172500	0,1	4,129369
3,174167	0,1	4,153852
3,175833	0,1	4,183675
3,177500	0,1	4,120762
3,179167	0,1	4,124358
3,180833	0,1	4,103849
3,182500	0,1	4,121473
3,184167	0,1	4,108316
3,185833	0,1	4,094463
3,187500	0,1	4,126871
3,189167	0,1	4,073957
3,190833	0,1	4,046329
3,192500	0,1	4,070283
3,194167	0,1	4,025127
3,195833	0,1	4,034254
3,197500	0,1	3,979802
3,199167	0,1	3,991648
3,200833	0,1	3,990513
3,202500	0,1	4,013698
3,204167	0,1	3,963798
3,205833	0,1	3,967280
3,207500	0,1	3,923545
3,209167	0,1	3,943561
3,210833	0,1	3,889278
3,212500	0,1	3,887120
3,214167	0,1	3,836735
3,215833	0,1	3,841314
3,217500	0,1	3,856544
3,219167	0,1	3,774472
3,220833	0,1	3,815355
3,222500	0,1	3,768574
3,224167	0,1	3,722608
3,225833	0,1	3,720204
3,227500	0,1	3,673344
3,229167	0,1	3,713154
3,230833	0,1	3,663113
3,232500	0,1	3,629389
3,234167	0,1	3,618236
3,235833	0,1	3,581185
3,237500	0,1	3,582633
3,239167	0,1	3,566169
3,240833	0,1	3,575427
3,242500	0,1	3,521640
3,244167	0,1	3,537234
3,245833	0,1	3,484699
3,247500	0,1	3,464385
3,249167	0,1	3,415821
3,250833	0,1	3,460140
3,252500	0,1	3,414652
3,254167	0,1	3,405166
3,255833	0,1	3,340625
3,257500	0,1	3,324134
3,259167	0,1	3,311414
3,260833	0,1	3,251868
3,262500	0,1	3,282571
3,264167	0,1	3,231803
3,265833	0,1	3,218562
3,267500	0,1	3,222867
3,269167	0,1	3,159679
3,270833	0,1	3,133309
3,272500	0,1	3,145445
3,274167	0,1	3,130040
3,275833	0,1	3,093992
3,277500	0,1	3,105543
3,279167	0,1	3,042429
3,280833	0,1	3,020165
3,282500	0,1	3,071504
3,284167	0,1	2,966676
3,285833	0,1	2,961618
3,287500	0,1	2,991566
3,289167	0,1	2,923364
3,290833	0,1	2,928516
3,292500	0,1	2,883513
3,294167	0,1	2,859106
3,295833	0,1	2,847209
3,297500	0,1	2,811964
3,299167	0,1	2,802010
3,300833	0,1	2,810506
3,302500	0,1	2,791204
3,304167	0,1	2,779026
3,305833	0,1	2,721140
3,307500	0,1	2,718414
3,309167	0,1	2,718986
3,310833	0,1	2,711497
3,312500	0,1	2,698765
3,314167	0,1	2,680340
3,315833	0,1	2,638519
3,317500	0,1	2,642668
3,319167	0,1	2,675327
3,320833	0,1	2,614554
3,322500	0,1	2,631577
3,324167	0,1	2,577269
3,325833	0,1	2,570133
3,327500	0,1	2,547603
3,329167	0,1	2,587248
3,330833	0,1	2,533776
3,332500	0,1	2,561607
3,334167	0,1	2,477608
3,335833	0,1	2,459238
3,337500	0,1	2,504415
3,339167	0,1	2,492475
3,340833	0,1	2,482179
3,342500	0,1	2,467423
3,344167	0,1	2,447582
3,345833	0,1	2,460433
3,347500	0,1	2,419170
3,349167	0,1	2,424544
3,350833	0,1	2,403763
3,352500	0,1	2,379023
3,354167	0,1	2,406489
3,355833	0,1	2,377302
3,357500	0,1	2,422444
3,359167	0,1	2,384837
3,360833	0,1	2,356937
3,362500	0,1	2,369293
3,364167	0,1	2,341744
3,365833	0,1	2,332538
3,367500	0,1	2,279688
3,369167	0,1	2,332890
3,370833	0,1	2,323842
3,372500	0,1	2,304070
3,374167	0,1	2,312325
3,375833	0,1	2,272214
3,377500	0,1	2,276015
3,379167	0,1	2,279455
3,380833	0,1	2,311960
3,382500	0,1	2,254383
3,384167	0,1	2,253284
3,385833	0,1	2,260040
3,387500	0,1	2,235243
3,389167	0,1	2,252197
3,390833	0,1	2,236031
3,392500	0,1	2,212796
3,394167	0,1	2,232358
3,395833	0,1	2,213807
3,397500	0,1	2,257515
3,399167	0,1	2,208858
3,400833	0,1	2,213294
3,402500	0,1	2,233642
3,404167	0,1	2,202516
3,405833	0,1	2,204960
3,407500	0,1	2,193737
3,409167	0,1	2,221781
3,410833	0,1	2,202945
3,412500	0,1	2,185835
3,414167	0,1	2,181803
3,415833	0,1	2,217753
3,417500	0,1	2,185483
3,419167	0,1	2,209339
3,420833	0,1	2,201365
3,422500	0,1	2,196758
3,424167	0,1	2,218464
3,425833	0,1	2,217097
3,427500	0,1	2,195471
3,429167	0,1	2,215666
3,430833	0,1	2,188860
3,432500	0,1	2,194170
3,434167	0,1	2,231481
3,435833	0,1	2,214384
3,437500	0,1	2,237024
3,439167	0,1	2,243208
3,440833	0,1	2,235594
3,442500	0,1	2,263351
3,444167	0,1	2,292187
3,445833	0,1	2,321382
3,447500	0,1	2,253011
3,449167	0,1	2,259038
3,450833	0,1	2,324037
3,452500	0,1	2,314564
3,454167	0,1	2,347064
3,455833	0,1	2,353177
3,457500	0,1	2,368227
3,459167	0,1	2,395687
3,460833	0,1	2,414261
3,462500	0,1	2,454607
3,464167	0,1	2,427370
3,465833	0,1	2,466052
3,467500	0,1	2,478370
3,469167	0,1	2,485050
3,470833	0,1	2,529240
3,472500	0,1	2,547295
3,474167	0,1	2,542544
3,475833	0,1	2,548405
3,477500	0,1	2,597325
3,479167	0,1	2,606752
3,480833	0,1	2,629696
3,482500	0,1	2,669236
3,484167	0,1	2,697657
3,485833	0,1	2,741789
3,487500	0,1	2,758554
3,489167	0,1	2,767069
3,490833	0,1	2,784866
3,492500	0,1	2,782641
3,494167	0,1	2,832741
3,495833	0,1	2,860029
3,497500	0,1	2,895677
3,499167	0,1	2,935579
3,500833	0,1	2,916661
3,502500	0,1	2,936461
3,504167	0,1	3,039683
3,505833	0,1	3,012119
3,507500	0,1	3,051635
3,509167	0,1	3,120709
3,510833	0,1	3,047375
3,512500	0,1	3,118786
3,514167	0,1	3,153356
3,515833	0,1	3,151727
3,517500	0,1	3,188766
3,519167	0,1	3,176321
3,520833	0,1	3,203585
3,522500	0,1	3,176217
3,524167	0,1	3,252148
3,525833	0,1	3,264539
3,527500	0,1	3,309947
3,529167	0,1	3,275424
3,530833	0,1	3,322743
3,532500	0,1	3,302541
3,534167	0,1	3,336319
3,535833	0,1	3,337029
3,537500	0,1	3,329297
3,539167	0,1	3,382464
3,540833	0,1	3,405834
3,542500	0,1	3,332894
3,544167	0,1	3,374240
3,545833	0,1	3,377855
3,547500	0,1	3,356759
3,549167	0,1	3,370665
3,550833	0,1	3,411022
3,552500	0,1	3,434803
3,554167	0,1	3,374758
3,555833	0,1	3,421925
3,557500	0,1	3,418562
3,559167	0,1	3,414228
3,560833	0,1	3,407168
3,562500	0,1	3,379346
3,564167	0,1	3,383802
3,565833	0,1	3,403213
3,567500	0,1	3,383678
3,569167	0,1	3,388551
3,570833	0,1	3,356478
3,572500	0,1	3,361969
3,574167	0,1	3,391813
3,575833	0,1	3,314052
3,577500	0,1	3,329835
3,579167	0,1	3,295199
3,580833	0,1	3,290805
3,582500	0,1	3,291919
3,584167	0,1	3,292493
3,585833	0,1	3,305517
3,587500	0,1	3,269119
3,589167	0,1	3,245111
3,590833	0,1	3,261553
3,592500	0,1	3,223289
3,594167	0,1	3,240611
3,595833	0,1	3,221265
3,597500	0,1	3,187122
3,599167	0,1	3,226205
3,600833	0,1	3,185147
3,602500	0,1	3,188487
3,604167	0,1	3,151273
3,605833	0,1	3,089578
3,607500	0,1	3,134181
3,609167	0,1	3,070312
3,610833	0,1	3,081625
3,612500	0,1	3,094310
3,614167	0,1	3,040692
3,615833	0,1	3,048918
3,617500	0,1	2,996048
3,619167	0,1	2,969383
3,620833	0,1	2,997783
3,622500	0,1	2,939512
3,624167	0,1	2,951280
3,625833	0,1	2,894075
3,627500	0,1	2,928852
3,629167	0,1	2,878784
3,630833	0,1	2,906318
3,632500	0,1	2,848440
3,634167	0,1	2,811781
3,635833	0,1	2,826538
3,637500	0,1	2,813777
3,639167	0,1	2,754849
3,640833	0,1	2,798756
3,642500	0,1	2,733617
3,644167	0,1	2,697687
3,645833	0,1	2,734875
3,647500	0,1	2,692478
3,649167	0,1	2,672326
3,650833	0,1	2,678636
3,652500	0,1	2,646216
3,654167	0,1	2,626766
3,655833	0,1	2,599039
3,657500	0,1	2,597049
3,659167	0,1	2,526538
3,660833	0,1	2,536011
3,662500	0,1	2,529389
3,664167	0,1	2,523625
3,665833	0,1	2,495015
3,667500	0,1	2,476446
3,669167	0,1	2,464851
3,670833	0,1	2,501159
3,672500	0,1	2,423054
3,674167	0,1	2,415841
3,675833	0,1	2,408014
3,677500	0,1	2,388871
3,679167	0,1	2,391523
3,680833	0,1	2,343412
3,682500	0,1	2,366980
3,684167	0,1	2,346636
3,685833	0,1	2,322037
3,687500	0,1	2,281199
3,689167	0,1	2,331441
3,690833	0,1	2,269981
3,692500	0,1	2,300589
3,694167	0,1	2,256102
3,695833	0,1	2,283545
3,697500	0,1	2,229634
3,699167	0,1	2,222212
3,700833	0,1	2,240908
3,702500	0,1	2,210929
3,704167	0,1	2,195903
3,705833	0,1	2,173182
3,707500	0,1	2,167923
3,709167	0,1	2,161881
3,710833	0,1	2,168073
3,712500	0,1	2,156712
3,714167	0,1	2,153974
3,715833	0,1	2,110201
3,717500	0,1	2,120541
3,719167	0,1	2,103793
3,720833	0,1	2,090997
3,722500	0,1	2,079206
3,724167	0,1	2,091927
3,725833	0,1	2,085530
3,727500	0,1	2,132681
3,729167	0,1	2,025895
3,730833	0,1	2,076606
3,732500	0,1	2,051748
3,734167	0,1	2,041254
3,735833	0,1	2,028746
3,737500	0,1	2,024935
3,739167	0,1	2,010343
3,740833	0,1	2,007251
3,742500	0,1	2,042606
3,744167	0,1	1,982252
3,745833	0,1	2,030959
3,747500	0,1	1,999495
3,749167	0,1	1,990003
3,750833	0,1	1,971462
3,752500	0,1	1,980009
3,754167	0,1	1,993807
3,755833	0,1	1,961762
3,757500	0,1	1,984891
3,759167	0,1	1,954575
3,760833	0,1	1,990999
3,762500	0,1	1,958744
3,764167	0,1	1,913257
3,765833	0,1	1,955637
3,767500	0,1	1,955143
3,769167	0,1	1,948678
3,770833	0,1	1,908153
3,772500	0,1	1,933721
3,774167	0,1	1,945872
3,775833	0,1	1,892134
3,777500	0,1	1,904978
3,779167	0,1	1,911378
3,780833	0,1	1,888600
3,782500	0,1	1,890038
3,784167	0,1	1,918630
3,785833	0,1	1,853336
3,787500	0,1	1,888232
3,789167	0,1	1,849731
3,790833	0,1	1,878533
3,792500	0,1	1,848939
3,794167	0,1	1,894551
3,795833	0,1	1,845573
3,797500	0,1	1,876882
3,799167	0,1	1,882562
3,800833	0,1	1,883281
3,802500	0,1	1,853475
3,804167	0,1	1,856192
3,805833	0,1	1,870777
3,807500	0,1	1,854404
3,809167	0,1	1,813595
3,810833	0,1	1,810139
3,812500	0,1	1,827812
3,814167	0,1	1,779330
3,815833	0,1	1,804819
3,817500	0,1	1,798141
3,819167	0,1	1,756697
3,820833	0,1	1,799209
3,822500	0,1	1,788302
3,824167	0,1	1,743770
3,825833	0,1	1,786063
3,827500	0,1	1,759282
3,829167	0,1	1,766394
3,830833	0,1	1,731697
3,832500	0,1	1,723576
3,834167	0,1	1,711520
3,835833	0,1	1,725150
3,837500	0,1	1,680485
3,839167	0,1	1,759983
3,840833	0,1	1,761938
3,842500	0,1	1,727824
3,844167	0,1	1,704119
3,845833	0,1	1,705685
3,847500	0,1	1,713310
3,849167	0,1	1,695209
3,850833	0,1	1,644864
3,852500	0,1	1,658146
3,854167	0,1	1,688094
3,855833	0,1	1,657153
3,857500	0,1	1,644579
3,859167	0,1	1,629784
3,860833	0,1	1,599327
3,862500	0,1	1,630274
3,864167	0,1	1,618496
3,865833	0,1	1,656201
3,867500	0,1	1,666338
3,869167	0,1	1,631947
3,870833	0,1	1,592159
3,872500	0,1	1,593091
3,874167	0,1	1,604938
3,875833	0,1	1,578941
3,877500	0,1	1,545130
3,879167	0,1	1,594863
3,880833	0,1	1,571412
3,882500	0,1	1,578506
3,884167	0,1	1,532349
3,885833	0,1	1,511666
3,887500	0,1	1,533625
3,889167	0,1	1,529834
3,890833	0,1	1,495805
3,892500	0,1	1,498300
3,894167	0,1	1,486028
3,895833	0,1	1,507133
3,897500	0,1	1,473319
3,899167	0,1	1,485735
3,900833	0,1	1,511078
3,902500	0,1	1,465511
3,904167	0,1	1,465430
3,905833	0,1	1,485393
3,907500	0,1	1,504618
3,909167	0,1	1,480157
3,910833	0,1	1,458178
3,912500	0,1	1,468736
3,914167	0,1	1,450008
3,915833	0,1	1,434988
3,917500	0,1	1,440888
3,919167	0,1	1,435445
3,920833	0,1	1,422725
3,922500	0,1	1,458254
3,924167	0,1	1,423594
3,925833	0,1	1,403924
3,927500	0,1	1,448124
3,929167	0,1	1,436152
3,930833	0,1	1,420649
3,932500	0,1	1,410958
3,934167	0,1	1,370464
3,935833	0,1	1,428383
3,937500	0,1	1,409876
3,939167	0,1	1,395581
3,940833	0,1	1,365087
3,942500	0,1	1,386334
3,944167	0,1	1,334734
3,945833	0,1	1,371046
3,947500	0,1	1,410668
3,949167	0,1	1,344564
3,950833	0,1	1,372260
3,952500	0,1	1,338536
3,954167	0,1	1,334585
3,955833	0,1	1,356898
3,957500	0,1	1,358771
3,959167	0,1	1,344565
3,960833	0,1	1,345125
3,962500	0,1	1,372340
3,964167	0,1	1,337314
3,965833	0,1	1,345769
3,967500	0,1	1,335359
3,969167	0,1	1,338541
3,970833	0,1	1,342692
3,972500	0,1	1,287465
3,974167	0,1	1,323033
3,975833	0,1	1,293684
3,977500	0,1	1,294254
3,979167	0,1	1,332651
3,980833	0,1	1,306654
3,982500	0,1	1,321169
3,984167	0,1	1,267212
3,985833	0,1	1,290867
3,987500	0,1	1,333020
3,989167	0,1	1,299058
3,990833	0,1	1,313060
3,992500	0,1	1,315867
3,994167	0,1	1,294615
3,995833	0,1	1,309105
3,997500	0,1	1,329412
3,999167	0,1	1,292173
4,000833	0,1	1,237217
4,002500	0,1	1,314337
4,004167	0,1	1,304739
4,005833	0,1	1,267124
4,007500	0,1	1,331063
4,009167	0,1	1,350695
4,010833	0,1	1,303112
4,012500	0,1	1,281645
4,014167	0,1	1,326974
4,015833	0,1	1,277406
4,017500	0,1	1,279977
4,019167	0,1	1,281571
4,020833	0,1	1,312342
4,022500	0,1	1,306236
4,024167	0,1	1,304160
4,025833	0,1	1,307896
4,027500	0,1	1,319671
4,029167	0,1	1,245040
4,030833	0,1	1,306289
4,032500	0,1	1,316798
4,034167	0,1	1,342850
4,035833	0,1	1,361720
4,037500	0,1	1,310768
4,039167	0,1	1,370315
4,040833	0,1	1,334305
4,042500	0,1	1,306586
4,044167	0,1	1,360582
4,045833	0,1	1,342767
4,047500	0,1	1,303799
4,049167	0,1	1,370324
4,050833	0,1	1,345846
4,052500	0,1	1,362723
4,054167	0,1	1,335664
4,055833	0,1	1,388252
4,057500	0,1	1,371532
4,059167	0,1	1,402273
4,060833	0,1	1,402142
4,062500	0,1	1,385974
4,064167	0,1	1,423000
4,065833	0,1	1,391861
4,067500	0,1	1,423300
4,069167	0,1	1,437230
4,070833	0,1	1,425227
4,072500	0,1	1,413819
4,074167	0,1	1,437852
4,075833	0,1	1,429749
4,077500	0,1	1,431189
4,079167	0,1	1,458812
4,080833	0,1	1,465290
4,082500	0,1	1,498880
4,084167	0,1	1,504335
4,085833	0,1	1,521576
4,087500	0,1	1,464957
4,089167	0,1	1,559029
4,090833	0,1	1,541685
4,092500	0,1	1,589273
4,094167	0,1	1,579017
4,095833	0,1	1,589483
4,097500	0,1	1,613112
4,099167	0,1	1,583551
4,100833	0,1	1,559913
4,102500	0,1	1,638818
4,104167	0,1	1,632873
4,105833	0,1	1,649167
4,107500	0,1	1,654277
4,109167	0,1	1,667489
4,110833	0,1	1,697582
4,112500	0,1	1,670726
4,114167	0,1	1,739803
4,115833	0,1	1,712241
4,117500	0,1	1,705121
4,119167	0,1	1,767742
4,120833	0,1	1,743978
4,122500	0,1	1,746785
4,124167	0,1	1,799929
4,125833	0,1	1,835278
4,127500	0,1	1,771793
4,129167	0,1	1,824992
4,130833	0,1	1,836433
4,132500	0,1	1,869333
4,134167	0,1	1,886944
4,135833	0,1	1,871863
4,137500	0,1	1,875088
4,139167	0,1	1,923298
4,140833	0,1	1,910739
4,142500	0,1	1,930992
4,144167	0,1	1,934948
4,145833	0,1	1,931070
4,147500	0,1	1,998106
4,149167	0,1	1,969021
4,150833	0,1	2,006594
4,152500	0,1	2,001359
4,154167	0,1	1,982675
4,155833	0,1	1,980658
4,157500	0,1	1,990644
4,159167	0,1	2,039366
4,160833	0,1	2,031477
4,162500	0,1	2,083217
4,164167	0,1	2,081216
4,165833	0,1	2,134332
4,167500	0,1	2,106669
4,169167	0,1	2,131968
4,170833	0,1	2,154465
4,172500	0,1	2,148510
4,174167	0,1	2,160081
4,175833	0,1	2,190351
4,177500	0,1	2,147007
4,179167	0,1	2,195446
4,180833	0,1	2,162394
4,182500	0,1	2,217593
4,184167	0,1	2,206899
4,185833	0,1	2,186548
4,187500	0,1	2,234137
4,189167	0,1	2,253341
4,190833	0,1	2,259675
4,192500	0,1	2,254715
4,194167	0,1	2,238683
4,195833	0,1	2,269666
4,197500	0,1	2,259397
4,199167	0,1	2,264348
4,200833	0,1	2,280172
4,202500	0,1	2,258241
4,204167	0,1	2,269101
4,205833	0,1	2,313959
4,207500	0,1	2,318652
4,209167	0,1	2,279689
4,210833	0,1	2,329934
4,212500	0,1	2,316429
4,214167	0,1	2,330590
4,215833	0,1	2,331388
4,217500	0,1	2,311904
4,219167	0,1	2,309525
4,220833	0,1	2,347770
4,222500	0,1	2,338870
4,224167	0,1	2,324271
4,225833	0,1	2,300595
4,227500	0,1	2,344684
4,229167	0,1	2,329803
4,230833	0,1	2,358498
4,232500	0,1	2,350385
4,234167	0,1	2,325293
4,235833	0,1	2,376479
4,237500	0,1	2,382163
4,239167	0,1	2,364548
4,240833	0,1	2,378719
4,242500	0,1	2,383465
4,244167	0,1	2,327730
4,245833	0,1	2,390582
4,247500	0,1	2,354055
4,249167	0,1	2,375832
4,250833	0,1	2,358500
4,252500	0,1	2,367778
4,254167	0,1	2,353756
4,255833	0,1	2,407819
4,257500	0,1	2,368593
4,259167	0,1	2,331457
4,260833	0,1	2,326491
4,262500	0,1	2,330438
4,264167	0,1	2,351378
4,265833	0,1	2,356920
4,267500	0,1	2,364041
4,269167	0,1	2,326425
4,270833	0,1	2,309729
4,272500	0,1	2,310893
4,274167	0,1	2,314263
4,275833	0,1	2,325559
4,277500	0,1	2,316860
4,279167	0,1	2,281918
4,280833	0,1	2,295994
4,282500	0,1	2,283189
4,284167	0,1	2,302893
4,285833	0,1	2,256524
4,287500	0,1	2,275567
4,289167	0,1	2,243805
4,290833	0,1	2,249757
4,292500	0,1	2,233372
4,294167	0,1	2,268583
4,295833	0,1	2,251997
4,297500	0,1	2,259524
4,299167	0,1	2,251625
4,300833	0,1	2,201868
4,302500	0,1	2,208614
4,304167	0,1	2,222568
4,305833	0,1	2,223504
4,307500	0,1	2,199489
4,309167	0,1	2,206676
4,310833	0,1	2,174260
4,312500	0,1	2,176115
4,314167	0,1	2,179283
4,315833	0,1	2,134858
4,317500	0,1	2,196308
4,319167	0,1	2,142841
4,320833	0,1	2,124213
4,322500	0,1	2,121115
4,324167	0,1	2,132836
4,325833	0,1	2,105664
4,327500	0,1	2,127148
4,329167	0,1	2,142463
4,330833	0,1	2,085545
4,332500	0,1	2,072739
4,334167	0,1	2,074243
4,335833	0,1	2,071367
4,337500	0,1	2,009709
4,339167	0,1	2,019826
4,340833	0,1	1,994031
4,342500	0,1	2,019823
4,344167	0,1	1,975421
4,345833	0,1	2,004799
4,347500	0,1	2,024062
4,349167	0,1	1,970178
4,350833	0,1	1,975051
4,352500	0,1	1,952705
4,354167	0,1	1,921663
4,355833	0,1	1,915619
4,357500	0,1	1,945075
4,359167	0,1	1,934665
4,360833	0,1	1,921158
4,362500	0,1	1,873378
4,364167	0,1	1,870420
4,365833	0,1	1,883283
4,367500	0,1	1,867694
4,369167	0,1	1,837736
4,370833	0,1	1,841252
4,372500	0,1	1,850018
4,374167	0,1	1,855692
4,375833	0,1	1,801250
4,377500	0,1	1,827383
4,379167	0,1	1,850658
4,380833	0,1	1,800241
4,382500	0,1	1,781688
4,384167	0,1	1,776447
4,385833	0,1	1,782408
4,387500	0,1	1,814308
4,389167	0,1	1,734946
4,390833	0,1	1,779670
4,392500	0,1	1,707939
4,394167	0,1	1,712452
4,395833	0,1	1,721925
4,397500	0,1	1,707925
4,399167	0,1	1,730188
4,400833	0,1	1,642231
4,402500	0,1	1,685287
4,404167	0,1	1,669928
4,405833	0,1	1,654556
4,407500	0,1	1,609756
4,409167	0,1	1,630563
4,410833	0,1	1,596191
4,412500	0,1	1,653702
4,414167	0,1	1,621962
4,415833	0,1	1,611245
4,417500	0,1	1,611403
4,419167	0,1	1,584197
4,420833	0,1	1,533066
4,422500	0,1	1,572628
4,424167	0,1	1,550446
4,425833	0,1	1,520654
4,427500	0,1	1,576843
4,429167	0,1	1,535589
4,430833	0,1	1,537517
4,432500	0,1	1,513964
4,434167	0,1	1,508729
4,435833	0,1	1,493216
4,437500	0,1	1,490637
4,439167	0,1	1,486621
4,440833	0,1	1,477778
4,442500	0,1	1,428904
4,444167	0,1	1,465004
4,445833	0,1	1,462360
4,447500	0,1	1,456167
4,449167	0,1	1,400274
4,450833	0,1	1,428170
4,452500	0,1	1,447058
4,454167	0,1	1,397273
4,455833	0,1	1,418412
4,457500	0,1	1,395319
4,459167	0,1	1,388625
4,460833	0,1	1,342128
4,462500	0,1	1,338322
4,464167	0,1	1,383329
4,465833	0,1	1,345355
4,467500	0,1	1,335754
4,469167	0,1	1,352320
4,470833	0,1	1,328145
4,472500	0,1	1,382807
4,474167	0,1	1,272033
4,475833	0,1	1,308465
4,477500	0,1	1,260821
4,479167	0,1	1,290166
4,480833	0,1	1,247905
4,482500	0,1	1,249404
4,484167	0,1	1,295711
4,485833	0,1	1,293265
4,487500	0,1	1,244045
4,489167	0,1	1,216700
4,490833	0,1	1,215524
4,492500	0,1	1,216267
4,494167	0,1	1,222488
4,495833	0,1	1,205584
4,497500	0,1	1,192397
4,499167	0,1	1,207582
4,500833	0,1	1,137075
4,502500	0,1	1,191414
4,504167	0,1	1,174675
4,505833	0,1	1,182539
4,507500	0,1	1,156890
4,509167	0,1	1,198110
4,510833	0,1	1,165322
4,512500	0,1	1,139951
4,514167	0,1	1,158631
4,515833	0,1	1,128962
4,517500	0,1	1,143664
4,519167	0,1	1,116220
4,520833	0,1	1,137070
4,522500	0,1	1,106028
4,524167	0,1	1,097189
4,525833	0,1	1,113168
4,527500	0,1	1,088972
4,529167	0,1	1,125020
4,530833	0,1	1,083913
4,532500	0,1	1,091324
4,534167	0,1	1,082139
4,535833	0,1	1,067785
4,537500	0,1	1,057186
4,539167	0,1	1,039369
4,540833	0,1	1,001649
4,542500	0,1	1,023647
4,544167	0,1	0,995483
4,545833	0,1	1,039797
4,547500	0,1	1,033355
4,549167	0,1	1,054628
4,550833	0,1	1,013200
4,552500	0,1	0,997725
4,554167	0,1	0,979655
4,555833	0,1	0,963011
4,557500	0,1	1,002162
4,559167	0,1	0,995294
4,560833	0,1	0,991353
4,562500	0,1	0,957764
4,564167	0,1	0,968100
4,565833	0,1	1,004233
4,567500	0,1	0,984326
4,569167	0,1	0,946418
4,570833	0,1	0,988165
4,572500	0,1	0,936003
4,574167	0,1	0,970963
4,575833	0,1	0,977781
4,577500	0,1	0,943809
4,579167	0,1	0,976994
4,580833	0,1	0,942634
4,582500	0,1	0,915840
4,584167	0,1	0,921815
4,585833	0,1	0,925914
4,587500	0,1	0,913853
4,589167	0,1	0,897905
4,590833	0,1	0,915494
4,592500	0,1	0,915229
4,594167	0,1	0,915946
4,595833	0,1	0,911318
4,597500	0,1	0,925442
4,599167	0,1	0,897061
4,600833	0,1	0,859486
4,602500	0,1	0,877982
4,604167	0,1	0,864574
4,605833	0,1	0,886014
4,607500	0,1	0,892268
4,609167	0,1	0,886752
4,610833	0,1	0,843381
4,612500	0,1	0,872239
4,614167	0,1	0,847936
4,615833	0,1	0,849665
4,617500	0,1	0,845197
4,619167	0,1	0,846773
4,620833	0,1	0,842793
4,622500	0,1	0,878045
4,624167	0,1	0,814465
4,625833	0,1	0,845877
4,627500	0,1	0,854804
4,629167	0,1	0,861500
4,630833	0,1	0,802831
4,632500	0,1	0,852545
4,634167	0,1	0,803740
4,635833	0,1	0,825078
4,637500	0,1	0,803001
4,639167	0,1	0,841804
4,640833	0,1	0,789595
4,642500	0,1	0,788626
4,644167	0,1	0,808951
4,645833	0,1	0,794280
4,647500	0,1	0,760984
4,649167	0,1	0,784949
4,650833	0,1	0,827698
4,652500	0,1	0,788390
4,654167	0,1	0,801857
4,655833	0,1	0,807598
4,657500	0,1	0,779622
4,659167	0,1	0,765740
4,660833	0,1	0,824291
4,662500	0,1	0,762040
4,664167	0,1	0,767449
4,665833	0,1	0,794957
4,667500	0,1	0,804862
4,669167	0,1	0,818674
4,670833	0,1	0,763815
4,672500	0,1	0,747482
4,674167	0,1	0,768138
4,675833	0,1	0,780570
4,677500	0,1	0,741394
4,679167	0,1	0,732977
4,680833	0,1	0,779983
4,682500	0,1	0,691431
4,684167	0,1	0,750467
4,685833	0,1	0,746280
4,687500	0,1	0,746519
4,689167	0,1	0,719123
4,690833	0,1	0,758145
4,692500	0,1	0,712041
4,694167	0,1	0,719495
4,695833	0,1	0,752051
4,697500	0,1	0,759443
4,699167	0,1	0,723556
4,700833	0,1	0,718547
4,702500	0,1	0,744025
4,704167	0,1	0,725596
4,705833	0,1	0,713430
4,707500	0,1	0,702889
4,709167	0,1	0,708738
4,710833	0,1	0,740688
4,712500	0,1	0,737804
4,714167	0,1	0,675815
4,715833	0,1	0,748130
4,717500	0,1	0,701631
4,719167	0,1	0,683633
4,720833	0,1	0,722001
4,722500	0,1	0,681746
4,724167	0,1	0,718736
4,725833	0,1	0,715875
4,727500	0,1	0,697334
4,729167	0,1	0,671580
4,730833	0,1	0,702125
4,732500	0,1	0,678723
4,734167	0,1	0,699722
4,735833	0,1	0,702356
4,737500	0,1	0,662753
4,739167	0,1	0,660719
4,740833	0,1	0,701213
4,742500	0,1	0,701596
4,744167	0,1	0,659712
4,745833	0,1	0,667861
4,747500	0,1	0,683733
4,749167	0,1	0,668430
4,750833	0,1	0,675285
4,752500	0,1	0,676138
4,754167	0,1	0,684337
4,755833	0,1	0,664997
4,757500	0,1	0,651745
4,759167	0,1	0,678936
4,760833	0,1	0,673377
4,762500	0,1	0,653234
4,764167	0,1	0,662321
4,765833	0,1	0,659019
4,767500	0,1	0,664874
4,769167	0,1	0,629153
4,770833	0,1	0,640132
4,772500	0,1	0,670211
4,774167	0,1	0,659192
4,775833	0,1	0,656031
4,777500	0,1	0,667239
4,779167	0,1	0,671308
4,780833	0,1	0,647944
4,782500	0,1	0,652385
4,784167	0,1	0,652740
4,785833	0,1	0,667017
4,787500	0,1	0,602501
4,789167	0,1	0,651952
4,790833	0,1	0,639912
4,792500	0,1	0,648449
4,794167	0,1	0,632334
4,795833	0,1	0,662118
4,797500	0,1	0,619285
4,799167	0,1	0,654930
4,800833	0,1	0,632350
4,802500	0,1	0,623634
4,804167	0,1	0,620565
4,805833	0,1	0,620946
4,807500	0,1	0,631839
4,809167	0,1	0,652183
4,810833	0,1	0,635597
4,812500	0,1	0,644868
4,814167	0,1	0,629374
4,815833	0,1	0,644090
4,817500	0,1	0,615347
4,819167	0,1	0,653112
4,820833	0,1	0,661661
4,822500	0,1	0,625929
4,824167	0,1	0,650221
4,825833	0,1	0,619705
4,827500	0,1	0,590820
4,829167	0,1	0,656081
4,830833	0,1	0,646939
4,832500	0,1	0,646292
4,834167	0,1	0,616546
4,835833	0,1	0,665494
4,837500	0,1	0,648008
4,839167	0,1	0,668239
4,840833	0,1	0,673285
4,842500	0,1	0,653498
4,844167	0,1	0,647070
4,845833	0,1	0,621545
4,847500	0,1	0,657642
4,849167	0,1	0,659479
4,850833	0,1	0,643848
4,852500	0,1	0,657632
4,854167	0,1	0,660637
4,855833	0,1	0,663414
4,857500	0,1	0,644626
4,859167	0,1	0,644819
4,860833	0,1	0,632597
4,862500	0,1	0,669183
4,864167	0,1	0,656573
4,865833	0,1	0,609180
4,867500	0,1	0,606802
4,869167	0,1	0,671954
4,870833	0,1	0,657944
4,872500	0,1	0,624154
4,874167	0,1	0,624211
4,875833	0,1	0,668878
4,877500	0,1	0,634759
4,879167	0,1	0,625278
4,880833	0,1	0,660233
4,882500	0,1	0,649809
4,884167	0,1	0,661594
4,885833	0,1	0,642955
4,887500	0,1	0,657119
4,889167	0,1	0,668835
4,890833	0,1	0,648969
4,892500	0,1	0,662542
4,894167	0,1	0,657165
4,895833	0,1	0,672886
4,897500	0,1	0,667127
4,899167	0,1	0,655967
4,900833	0,1	0,662900
4,902500	0,1	0,634362
4,904167	0,1	0,642909
4,905833	0,1	0,628767
4,907500	0,1	0,655472
4,909167	0,1	0,667057
4,910833	0,1	0,687361
4,912500	0,1	0,678471
4,914167	0,1	0,667865
4,915833	0,1	0,647799
4,917500	0,1	0,661873
4,919167	0,1	0,684202
4,920833	0,1	0,617041
4,922500	0,1	0,669653
4,924167	0,1	0,654837
4,925833	0,1	0,665149
4,927500	0,1	0,661769
4,929167	0,1	0,634022
4,930833	0,1	0,666499
4,932500	0,1	0,649496
4,934167	0,1	0,655807
4,935833	0,1	0,689268
4,937500	0,1	0,664198
4,939167	0,1	0,664704
4,940833	0,1	0,660744
4,942500	0,1	0,715109
4,944167	0,1	0,702046
4,945833	0,1	0,663556
4,947500	0,1	0,660308
4,949167	0,1	0,673796
4,950833	0,1	0,680561
4,952500	0,1	0,675312
4,954167	0,1	0,667733
4,955833	0,1	0,612618
4,957500	0,1	0,679851
4,959167	0,1	0,664642
4,960833	0,1	0,721823
4,962500	0,1	0,661561
4,964167	0,1	0,687402
4,965833	0,1	0,682895
4,967500	0,1	0,682579
4,969167	0,1	0,719867
4,970833	0,1	0,696773
4,972500	0,1	0,715268
4,974167	0,1	0,734038
4,975833	0,1	0,699405
4,977500	0,1	0,696884
4,979167	0,1	0,703728
4,980833	0,1	0,716516
4,982500	0,1	0,761103
4,984167	0,1	0,705082
4,985833	0,1	0,743491
4,987500	0,1	0,707475
4,989167	0,1	0,735017
4,990833	0,1	0,748609
4,992500	0,1	0,712123
4,994167	0,1	0,731680
4,995833	0,1	0,724459
4,997500	0,1	0,733997
4,999167	0,1	0,763330
5,000833	0,1	0,711035
5,002500	0,1	0,766369
5,004167	0,1	0,789153
5,005833	0,1	0,774929
5,007500	0,1	0,730472
5,009167	0,1	0,780918
5,010833	0,1	0,750596
5,012500	0,1	0,762955
5,014167	0,1	0,811770
5,015833	0,1	0,765303
5,017500	0,1	0,793379
5,019167	0,1	0,797210
5,020833	0,1	0,768302
5,022500	0,1	0,802497
5,024167	0,1	0,819897
5,025833	0,1	0,810760
5,027500	0,1	0,848610
5,029167	0,1	0,808166
5,030833	0,1	0,815696
5,032500	0,1	0,848013
5,034167	0,1	0,854624
5,035833	0,1	0,885629
5,037500	0,1	0,892045
5,039167	0,1	0,830483
5,040833	0,1	0,865853
5,042500	0,1	0,854829
5,044167	0,1	0,887746
5,045833	0,1	0,892981
5,047500	0,1	0,901924
5,049167	0,1	0,852659
5,050833	0,1	0,890861
5,052500	0,1	0,867070
5,054167	0,1	0,949368
5,055833	0,1	0,909410
5,057500	0,1	0,918655
5,059167	0,1	0,930537
5,060833	0,1	0,931379
5,062500	0,1	0,941642
5,064167	0,1	0,965044
5,065833	0,1	0,964365
5,067500	0,1	0,918936
5,069167	0,1	0,949225
5,070833	0,1	0,981395
5,072500	0,1	0,984763
5,074167	0,1	1,000404
5,075833	0,1	0,989979
5,077500	0,1	1,019742
5,079167	0,1	0,970781
5,080833	0,1	0,967901
5,082500	0,1	0,986320
5,084167	0,1	0,992691
5,085833	0,1	0,995341
5,087500	0,1	1,009980
5,089167	0,1	1,028425
5,090833	0,1	0,997863
5,092500	0,1	1,022017
5,094167	0,1	1,040178
5,095833	0,1	1,039892
5,097500	0,1	1,025341
5,099167	0,1	1,049297
5,100833	0,1	1,022915
5,102500	0,1	1,040091
5,104167	0,1	1,002960
5,105833	0,1	1,041464
5,107500	0,1	1,073160
5,109167	0,1	1,020592
5,110833	0,1	1,028225
5,112500	0,1	1,042011
5,114167	0,1	1,045277
5,115833	0,1	1,070444
5,117500	0,1	1,076478
5,119167	0,1	1,029289
5,120833	0,1	1,083160
5,122500	0,1	1,039970
5,124167	0,1	1,066571
5,125833	0,1	1,047557
5,127500	0,1	1,062547
5,129167	0,1	1,074337
5,130833	0,1	1,052499
5,132500	0,1	1,053310
5,134167	0,1	1,057676
5,135833	0,1	1,044433
5,137500	0,1	1,059068
5,139167	0,1	1,040015
5,140833	0,1	1,069662
5,142500	0,1	1,051650
5,144167	0,1	1,030861
5,145833	0,1	1,069064
5,147500	0,1	1,096925
5,149167	0,1	1,067366
5,150833	0,1	1,058257
5,152500	0,1	1,060700
5,154167	0,1	1,069735
5,155833	0,1	1,029403
5,157500	0,1	1,071815
5,159167	0,1	1,031683
5,160833	0,1	1,054512
5,162500	0,1	1,033462
5,164167	0,1	1,022863
5,165833	0,1	1,014368
5,167500	0,1	1,029987
5,169167	0,1	1,010836
5,170833	0,1	1,025064
5,172500	0,1	1,045254
5,174167	0,1	1,026447
5,175833	0,1	1,022689
5,177500	0,1	0,986113
5,179167	0,1	1,026176
5,180833	0,1	1,034321
5,182500	0,1	0,965229
5,184167	0,1	0,971770
5,185833	0,1	0,967901
5,187500	0,1	1,007565
5,189167	0,1	0,946243
5,190833	0,1	0,960816
5,192500	0,1	0,988389
5,194167	0,1	0,947144
5,195833	0,1	0,935590
5,197500	0,1	0,992823
5,199167	0,1	0,944363
5,200833	0,1	0,941865
5,202500	0,1	0,953477
5,204167	0,1	0,940040
5,205833	0,1	0,927739
5,207500	0,1	0,905668
5,209167	0,1	0,894166
5,210833	0,1	0,919785
5,212500	0,1	0,897281
5,214167	0,1	0,907887
5,215833	0,1	0,895142
5,217500	0,1	0,909620
5,219167	0,1	0,885265
5,220833	0,1	0,864532
5,222500	0,1	0,878985
5,224167	0,1	0,863819
5,225833	0,1	0,879005
5,227500	0,1	0,851052
5,229167	0,1	0,887301
5,230833	0,1	0,849340
5,232500	0,1	0,861876
5,234167	0,1	0,820311
5,235833	0,1	0,862514
5,237500	0,1	0,825049
5,239167	0,1	0,848436
5,240833	0,1	0,797848
5,242500	0,1	0,811400
5,244167	0,1	0,762549
5,245833	0,1	0,784595
5,247500	0,1	0,796275
5,249167	0,1	0,808932
5,250833	0,1	0,796482
5,252500	0,1	0,785403
5,254167	0,1	0,784980
5,255833	0,1	0,794362
5,257500	0,1	0,795367
5,259167	0,1	0,815380
5,260833	0,1	0,758323
5,262500	0,1	0,725424
5,264167	0,1	0,739602
5,265833	0,1	0,748946
5,267500	0,1	0,723796
5,269167	0,1	0,724970
5,270833	0,1	0,759392
5,272500	0,1	0,707900
5,274167	0,1	0,706690
5,275833	0,1	0,742707
5,277500	0,1	0,720619
5,279167	0,1	0,686729
5,280833	0,1	0,705815
5,282500	0,1	0,671252
5,284167	0,1	0,683427
5,285833	0,1	0,722720
5,287500	0,1	0,690780
5,289167	0,1	0,662198
5,290833	0,1	0,693939
5,292500	0,1	0,684275
5,294167	0,1	0,649261
5,295833	0,1	0,662791
5,297500	0,1	0,735850
5,299167	0,1	0,672377
5,300833	0,1	0,641141
5,302500	0,1	0,666459
5,304167	0,1	0,618590
5,305833	0,1	0,640694
5,307500	0,1	0,622438
5,309167	0,1	0,598676
5,310833	0,1	0,642374
5,312500	0,1	0,654921
5,314167	0,1	0,602485
5,315833	0,1	0,612114
5,317500	0,1	0,625588
5,319167	0,1	0,651049
5,320833	0,1	0,603195
5,322500	0,1	0,576464
5,324167	0,1	0,557870
5,325833	0,1	0,591122
5,327500	0,1	0,589800
5,329167	0,1	0,565820
5,330833	0,1	0,593202
5,332500	0,1	0,599667
5,334167	0,1	0,554614
5,335833	0,1	0,527850
5,337500	0,1	0,621884
5,339167	0,1	0,573864
5,340833	0,1	0,540689
5,342500	0,1	0,557233
5,344167	0,1	0,577677
5,345833	0,1	0,535956
5,347500	0,1	0,581080
5,349167	0,1	0,552283
5,350833	0,1	0,548634
5,352500	0,1	0,568137
5,354167	0,1	0,606201
5,355833	0,1	0,558930
5,357500	0,1	0,504558
5,359167	0,1	0,512409
5,360833	0,1	0,525841
5,362500	0,1	0,545350
5,364167	0,1	0,486929
5,365833	0,1	0,487943
5,367500	0,1	0,504951
5,369167	0,1	0,520105
5,370833	0,1	0,496206
5,372500	0,1	0,516013
5,374167	0,1	0,497075
5,375833	0,1	0,504635
5,377500	0,1	0,486884
5,379167	0,1	0,488261
5,380833	0,1	0,493194
5,382500	0,1	0,490717
5,384167	0,1	0,524295
5,385833	0,1	0,501159
5,387500	0,1	0,487078
5,389167	0,1	0,503888
5,390833	0,1	0,534378
5,392500	0,1	0,494333
5,394167	0,1	0,471545
5,395833	0,1	0,487136
5,397500	0,1	0,431207
5,399167	0,1	0,460349
5,400833	0,1	0,462869
5,402500	0,1	0,440282
5,404167	0,1	0,444372
5,405833	0,1	0,458484
5,407500	0,1	0,459002
5,409167	0,1	0,447369
5,410833	0,1	0,466667
5,412500	0,1	0,455197
5,414167	0,1	0,465126
5,415833	0,1	0,468251
5,417500	0,1	0,415188
5,419167	0,1	0,446200
5,420833	0,1	0,464213
5,422500	0,1	0,440412
5,424167	0,1	0,437699
5,425833	0,1	0,420112
5,427500	0,1	0,450907
5,429167	0,1	0,401109
5,430833	0,1	0,418393
5,432500	0,1	0,457799
5,434167	0,1	0,405362
5,435833	0,1	0,472645
5,437500	0,1	0,409421
5,439167	0,1	0,443070
5,440833	0,1	0,437728
5,442500	0,1	0,411764
5,444167	0,1	0,419620
5,445833	0,1	0,414856
5,447500	0,1	0,413728
5,449167	0,1	0,387178
5,450833	0,1	0,431758
5,452500	0,1	0,375267
5,454167	0,1	0,389972
5,455833	0,1	0,379347
5,457500	0,1	0,366588
5,459167	0,1	0,388941
5,460833	0,1	0,382568
5,462500	0,1	0,404339
5,464167	0,1	0,388561
5,465833	0,1	0,377219
5,467500	0,1	0,373963
5,469167	0,1	0,366940
5,470833	0,1	0,386558
5,472500	0,1	0,357053
5,474167	0,1	0,385170
5,475833	0,1	0,370358
5,477500	0,1	0,353957
5,479167	0,1	0,385752
5,480833	0,1	0,381052
5,482500	0,1	0,365362
5,484167	0,1	0,356082
5,485833	0,1	0,371475
5,487500	0,1	0,322005
5,489167	0,1	0,417920
5,490833	0,1	0,370687
5,492500	0,1	0,364651
5,494167	0,1	0,373542
5,495833	0,1	0,372512
5,497500	0,1	0,372382
5,499167	0,1	0,335338
5,500833	0,1	0,321802
5,502500	0,1	0,357714
5,504167	0,1	0,346738
5,505833	0,1	0,359461
5,507500	0,1	0,325995
5,509167	0,1	0,358521
5,510833	0,1	0,368192
5,512500	0,1	0,322037
5,514167	0,1	0,319609
5,515833	0,1	0,330078
5,517500	0,1	0,321899
5,519167	0,1	0,332622
5,520833	0,1	0,388256
5,522500	0,1	0,341786
5,524167	0,1	0,360425
5,525833	0,1	0,363231
5,527500	0,1	0,345807
5,529167	0,1	0,281898
5,530833	0,1	0,270741
5,532500	0,1	0,343432
5,534167	0,1	0,340808
5,535833	0,1	0,330500
5,537500	0,1	0,298546
5,539167	0,1	0,330168
5,540833	0,1	0,312009
5,542500	0,1	0,322763
5,544167	0,1	0,353429
5,545833	0,1	0,311886
5,547500	0,1	0,302858
5,549167	0,1	0,336580
5,550833	0,1	0,334364
5,552500	0,1	0,292428
5,554167	0,1	0,358834
5,555833	0,1	0,326801
5,557500	0,1	0,324088
5,559167	0,1	0,297419
5,560833	0,1	0,302373
5,562500	0,1	0,293098
5,564167	0,1	0,339926
5,565833	0,1	0,348055
5,567500	0,1	0,336815
5,569167	0,1	0,342739
5,570833	0,1	0,301095
5,572500	0,1	0,294095
5,574167	0,1	0,303755
5,575833	0,1	0,257479
5,577500	0,1	0,328226
5,579167	0,1	0,318355
5,580833	0,1	0,298415
5,582500	0,1	0,277573
5,584167	0,1	0,321144
5,585833	0,1	0,347728
5,587500	0,1	0,280901
5,589167	0,1	0,319277
5,590833	0,1	0,308304
5,592500	0,1	0,348564
5,594167	0,1	0,310308
5,595833	0,1	0,310845
5,597500	0,1	0,287882
5,599167	0,1	0,287200
5,600833	0,1	0,286490
5,602500	0,1	0,315735
5,604167	0,1	0,312650
5,605833	0,1	0,264309
5,607500	0,1	0,294184
5,609167	0,1	0,326979
5,610833	0,1	0,294328
5,612500	0,1	0,265171
5,614167	0,1	0,278048
5,615833	0,1	0,269678
5,617500	0,1	0,273539
5,619167	0,1	0,242879
5,620833	0,1	0,327418
5,622500	0,1	0,314812
5,624167	0,1	0,302506
5,625833	0,1	0,278186
5,627500	0,1	0,294252
5,629167	0,1	0,285719
5,630833	0,1	0,263269
5,632500	0,1	0,272700
5,634167	0,1	0,289934
5,635833	0,1	0,296702
5,637500	0,1	0,253385
5,639167	0,1	0,292636
5,640833	0,1	0,289039
5,642500	0,1	0,260918
5,644167	0,1	0,274988
5,645833	0,1	0,302818
5,647500	0,1	0,268909
5,649167	0,1	0,273380
5,650833	0,1	0,301658
5,652500	0,1	0,316640
5,654167	0,1	0,292295
5,655833	0,1	0,328074
5,657500	0,1	0,314328
5,659167	0,1	0,289847
5,660833	0,1	0,312386
5,662500	0,1	0,276481
5,664167	0,1	0,291546
5,665833	0,1	0,294092
5,667500	0,1	0,293964
5,669167	0,1	0,303853
5,670833	0,1	0,278507
5,672500	0,1	0,306586
5,674167	0,1	0,319574
5,675833	0,1	0,300510
5,677500	0,1	0,280954
5,679167	0,1	0,284622
5,680833	0,1	0,314609
5,682500	0,1	0,298478
5,684167	0,1	0,314643
5,685833	0,1	0,261311
5,687500	0,1	0,293088
5,689167	0,1	0,279729
5,690833	0,1	0,308166
5,692500	0,1	0,311329
5,694167	0,1	0,288171
5,695833	0,1	0,318088
5,697500	0,1	0,265436
5,699167	0,1	0,313669
5,700833	0,1	0,283211
5,702500	0,1	0,334737
5,704167	0,1	0,296198
5,705833	0,1	0,305882
5,707500	0,1	0,279250
5,709167	0,1	0,322402
5,710833	0,1	0,318900
5,712500	0,1	0,327565
5,714167	0,1	0,300125
5,715833	0,1	0,308073
5,717500	0,1	0,320798
5,719167	0,1	0,327403
5,720833	0,1	0,307533
5,722500	0,1	0,303179
5,724167	0,1	0,329816
5,725833	0,1	0,336715
5,727500	0,1	0,347798
5,729167	0,1	0,337975
5,730833	0,1	0,271430
5,732500	0,1	0,314992
5,734167	0,1	0,291393
5,735833	0,1	0,296638
5,737500	0,1	0,317412
5,739167	0,1	0,361417
5,740833	0,1	0,293820
5,742500	0,1	0,315415
5,744167	0,1	0,347341
5,745833	0,1	0,342324
5,747500	0,1	0,309887
5,749167	0,1	0,320121
5,750833	0,1	0,316001
5,752500	0,1	0,307079
5,754167	0,1	0,306786
5,755833	0,1	0,290522
5,757500	0,1	0,323113
5,759167	0,1	0,266079
5,760833	0,1	0,321657
5,762500	0,1	0,313102
5,764167	0,1	0,317288
5,765833	0,1	0,287820
5,767500	0,1	0,267746
5,769167	0,1	0,293927
5,770833	0,1	0,252094
5,772500	0,1	0,280781
5,774167	0,1	0,298246
5,775833	0,1	0,310907
5,777500	0,1	0,276125
5,779167	0,1	0,289420
5,780833	0,1	0,292000
5,782500	0,1	0,270099
5,784167	0,1	0,266937
5,785833	0,1	0,260624
5,787500	0,1	0,280172
5,789167	0,1	0,310194
5,790833	0,1	0,285723
5,792500	0,1	0,274701
5,794167	0,1	0,276631
5,795833	0,1	0,332546
5,797500	0,1	0,275358
5,799167	0,1	0,276795
5,800833	0,1	0,302141
5,802500	0,1	0,271099
5,804167	0,1	0,306584
5,805833	0,1	0,301795
5,807500	0,1	0,295868
5,809167	0,1	0,330522
5,810833	0,1	0,284052
5,812500	0,1	0,295057
5,814167	0,1	0,260922
5,815833	0,1	0,299078
5,817500	0,1	0,300698
5,819167	0,1	0,271004
5,820833	0,1	0,316762
5,822500	0,1	0,278446
5,824167	0,1	0,260466
5,825833	0,1	0,275858
5,827500	0,1	0,281433
5,829167	0,1	0,266521
5,830833	0,1	0,289062
5,832500	0,1	0,286846
5,834167	0,1	0,258955
5,835833	0,1	0,253764
5,837500	0,1	0,285872
5,839167	0,1	0,295315
5,840833	0,1	0,274898
5,842500	0,1	0,341886
5,844167	0,1	0,254556
5,845833	0,1	0,305485
5,847500	0,1	0,287718
5,849167	0,1	0,302821
5,850833	0,1	0,285047
5,852500	0,1	0,243526
5,854167	0,1	0,268444
5,855833	0,1	0,266325
5,857500	0,1	0,295826
5,859167	0,1	0,269263
5,860833	0,1	0,305360
5,862500	0,1	0,273999
5,864167	0,1	0,294830
5,865833	0,1	0,285302
5,867500	0,1	0,293382
5,869167	0,1	0,262466
5,870833	0,1	0,260430
5,872500	0,1	0,264489
5,874167	0,1	0,284650
5,875833	0,1	0,269712
5,877500	0,1	0,244589
5,879167	0,1	0,299075
5,880833	0,1	0,266429
5,882500	0,1	0,232543
5,884167	0,1	0,238168
5,885833	0,1	0,271439
5,887500	0,1	0,254379
5,889167	0,1	0,245614
5,890833	0,1	0,275273
5,892500	0,1	0,241498
5,894167	0,1	0,292921
5,895833	0,1	0,255766
5,897500	0,1	0,236886
5,899167	0,1	0,245963
5,900833	0,1	0,278429
5,902500	0,1	0,264395
5,904167	0,1	0,238368
5,905833	0,1	0,230505
5,907500	0,1	0,249120
5,909167	0,1	0,264067
5,910833	0,1	0,179691
5,912500	0,1	0,256126
5,914167	0,1	0,225293
5,915833	0,1	0,245059
5,917500	0,1	0,254017
5,919167	0,1	0,252215
5,920833	0,1	0,276404
5,922500	0,1	0,185271
5,924167	0,1	0,229268
5,925833	0,1	0,250632
5,927500	0,1	0,238817
5,929167	0,1	0,224709
5,930833	0,1	0,244543
5,932500	0,1	0,256788
5,934167	0,1	0,221621
5,935833	0,1	0,226320
5,937500	0,1	0,219357
5,939167	0,1	0,238713
5,940833	0,1	0,216336
5,942500	0,1	0,226091
5,944167	0,1	0,215045
5,945833	0,1	0,251853
5,947500	0,1	0,221331
5,949167	0,1	0,250147
5,950833	0,1	0,208030
5,952500	0,1	0,242511
5,954167	0,1	0,227798
5,955833	0,1	0,224225
5,957500	0,1	0,205384
5,959167	0,1	0,234362
5,960833	0,1	0,243100
5,962500	0,1	0,223358
5,964167	0,1	0,219844
5,965833	0,1	0,207575
5,967500	0,1	0,222833
5,969167	0,1	0,240681
5,970833	0,1	0,215308
5,972500	0,1	0,205190
5,974167	0,1	0,207927
5,975833	0,1	0,223576
5,977500	0,1	0,242998
5,979167	0,1	0,226966
5,980833	0,1	0,241682
5,982500	0,1	0,240458
5,984167	0,1	0,187066
5,985833	0,1	0,144615
5,987500	0,1	0,202341
5,989167	0,1	0,213687
5,990833	0,1	0,207089
5,992500	0,1	0,210887
5,994167	0,1	0,220969
5,995833	0,1	0,196019
5,997500	0,1	0,191111
5,999167	0,1	0,169348
6,000833	0,1	0,248881
