File Path	chrom://chromeleon01/ikbm_chromeleon/2022/Rezex/Esteban/220612_chitin_4_7.seq/944.smp/UV_VIS_1.channel/UV_VIS_1.chm
Channel	UV_VIS_1

Injection Information:
Data Vault	ikbm_chromeleon
Injection	7_24h-ChiBI_NA
Injection Number	42
Position	RE5
Comment	
Processing Method	New ProcMethod
Instrument Method	Short_Rezex_6min_194nm
Type	Unknown
Status	Finished
Injection Date	12.06.2022
Injection Time	21:39:40
Injection Volume (µl)	8,000
Dilution Factor	1,0000
Weight	1,0000

Chromatogram Data Information:
Time Min. (min)	0,000833
Time Max. (min)	6,000833
Data Points	3601
Detector	UV
Generating Data System	Chromeleon 7.2.9.11323
Exporting Data System	Chromeleon 7.2.9.0
Operator	Instrument Controller
Signal Quantity	Absorbance
Signal Unit	mAU
Signal Min.	-0,212553
Signal Max.	151,332283
Channel	UV_VIS_1
Driver Name	VWD3000.dll
Channel Type	Evaluation
Min. Step (s)	0,1
Max. Step (s)	0,1
Average Step (s)	0,1

Signal Parameter Information:
Signal Info	WVL:194 nm

Chromatogram Data:
Time (min)	Step (s)	Value (mAU)
0,000833	n.a.	-0,087649
0,002500	0,1	-0,125904
0,004167	0,1	-0,096545
0,005833	0,1	-0,131766
0,007500	0,1	-0,104050
0,009167	0,1	-0,136951
0,010833	0,1	-0,097095
0,012500	0,1	-0,099728
0,014167	0,1	-0,085108
0,015833	0,1	-0,104940
0,017500	0,1	-0,108808
0,019167	0,1	-0,117761
0,020833	0,1	-0,105557
0,022500	0,1	-0,110423
0,024167	0,1	-0,108265
0,025833	0,1	-0,114352
0,027500	0,1	-0,094450
0,029167	0,1	-0,155176
0,030833	0,1	-0,138896
0,032500	0,1	-0,146687
0,034167	0,1	-0,160049
0,035833	0,1	-0,188358
0,037500	0,1	-0,164758
0,039167	0,1	-0,161372
0,040833	0,1	-0,149489
0,042500	0,1	-0,158537
0,044167	0,1	-0,141988
0,045833	0,1	-0,189960
0,047500	0,1	-0,138289
0,049167	0,1	-0,136280
0,050833	0,1	-0,127687
0,052500	0,1	-0,147741
0,054167	0,1	-0,113134
0,055833	0,1	-0,131542
0,057500	0,1	-0,154025
0,059167	0,1	-0,110880
0,060833	0,1	-0,161684
0,062500	0,1	-0,124022
0,064167	0,1	-0,116285
0,065833	0,1	-0,116154
0,067500	0,1	-0,131094
0,069167	0,1	-0,159948
0,070833	0,1	-0,142085
0,072500	0,1	-0,140277
0,074167	0,1	-0,122664
0,075833	0,1	-0,125428
0,077500	0,1	-0,130712
0,079167	0,1	-0,120666
0,080833	0,1	-0,119888
0,082500	0,1	-0,128647
0,084167	0,1	-0,115866
0,085833	0,1	-0,134927
0,087500	0,1	-0,087757
0,089167	0,1	-0,123815
0,090833	0,1	-0,053811
0,092500	0,1	-0,125671
0,094167	0,1	-0,075291
0,095833	0,1	-0,116853
0,097500	0,1	-0,097767
0,099167	0,1	-0,134019
0,100833	0,1	-0,117639
0,102500	0,1	-0,108844
0,104167	0,1	-0,061923
0,105833	0,1	-0,095595
0,107500	0,1	-0,107355
0,109167	0,1	-0,152667
0,110833	0,1	-0,118704
0,112500	0,1	-0,123140
0,114167	0,1	-0,151644
0,115833	0,1	-0,130100
0,117500	0,1	-0,162907
0,119167	0,1	-0,165072
0,120833	0,1	-0,103604
0,122500	0,1	-0,118625
0,124167	0,1	-0,157850
0,125833	0,1	-0,137961
0,127500	0,1	-0,147871
0,129167	0,1	-0,148681
0,130833	0,1	-0,131583
0,132500	0,1	-0,154153
0,134167	0,1	-0,144047
0,135833	0,1	-0,110301
0,137500	0,1	-0,155788
0,139167	0,1	-0,133676
0,140833	0,1	-0,126559
0,142500	0,1	-0,114382
0,144167	0,1	-0,140498
0,145833	0,1	-0,124917
0,147500	0,1	-0,141689
0,149167	0,1	-0,093712
0,150833	0,1	-0,158588
0,152500	0,1	-0,114168
0,154167	0,1	-0,114254
0,155833	0,1	-0,087817
0,157500	0,1	-0,082915
0,159167	0,1	-0,126130
0,160833	0,1	-0,109265
0,162500	0,1	-0,086622
0,164167	0,1	-0,131472
0,165833	0,1	-0,125238
0,167500	0,1	-0,118826
0,169167	0,1	-0,132220
0,170833	0,1	-0,106819
0,172500	0,1	-0,123845
0,174167	0,1	-0,105529
0,175833	0,1	-0,086139
0,177500	0,1	-0,131828
0,179167	0,1	-0,108687
0,180833	0,1	-0,125041
0,182500	0,1	-0,097381
0,184167	0,1	-0,118886
0,185833	0,1	-0,100891
0,187500	0,1	-0,121204
0,189167	0,1	-0,126332
0,190833	0,1	-0,125654
0,192500	0,1	-0,110361
0,194167	0,1	-0,091291
0,195833	0,1	-0,133437
0,197500	0,1	-0,098286
0,199167	0,1	-0,100659
0,200833	0,1	-0,095766
0,202500	0,1	-0,109415
0,204167	0,1	-0,134185
0,205833	0,1	-0,073394
0,207500	0,1	-0,142164
0,209167	0,1	-0,126272
0,210833	0,1	-0,070266
0,212500	0,1	-0,095051
0,214167	0,1	-0,075927
0,215833	0,1	-0,109510
0,217500	0,1	-0,115346
0,219167	0,1	-0,059766
0,220833	0,1	-0,107897
0,222500	0,1	-0,081309
0,224167	0,1	-0,106163
0,225833	0,1	-0,090872
0,227500	0,1	-0,107068
0,229167	0,1	-0,092452
0,230833	0,1	-0,105005
0,232500	0,1	-0,162262
0,234167	0,1	-0,143985
0,235833	0,1	-0,061803
0,237500	0,1	-0,089672
0,239167	0,1	-0,078341
0,240833	0,1	-0,100622
0,242500	0,1	-0,114667
0,244167	0,1	-0,124914
0,245833	0,1	-0,120889
0,247500	0,1	-0,056676
0,249167	0,1	-0,082263
0,250833	0,1	-0,119975
0,252500	0,1	-0,118988
0,254167	0,1	-0,058800
0,255833	0,1	-0,066227
0,257500	0,1	-0,122003
0,259167	0,1	-0,131385
0,260833	0,1	-0,106335
0,262500	0,1	-0,101048
0,264167	0,1	-0,117503
0,265833	0,1	-0,103111
0,267500	0,1	-0,089939
0,269167	0,1	-0,109093
0,270833	0,1	-0,075416
0,272500	0,1	-0,084874
0,274167	0,1	-0,119623
0,275833	0,1	-0,093257
0,277500	0,1	-0,062852
0,279167	0,1	-0,107091
0,280833	0,1	-0,074900
0,282500	0,1	-0,050579
0,284167	0,1	-0,105671
0,285833	0,1	-0,122656
0,287500	0,1	-0,082151
0,289167	0,1	-0,082205
0,290833	0,1	-0,090156
0,292500	0,1	-0,095698
0,294167	0,1	-0,115471
0,295833	0,1	-0,092839
0,297500	0,1	-0,110770
0,299167	0,1	-0,085882
0,300833	0,1	-0,097564
0,302500	0,1	-0,080791
0,304167	0,1	-0,065845
0,305833	0,1	-0,087225
0,307500	0,1	-0,081530
0,309167	0,1	-0,091607
0,310833	0,1	-0,047105
0,312500	0,1	-0,104575
0,314167	0,1	-0,057349
0,315833	0,1	-0,072440
0,317500	0,1	-0,090704
0,319167	0,1	-0,100563
0,320833	0,1	-0,086590
0,322500	0,1	-0,105779
0,324167	0,1	-0,037478
0,325833	0,1	-0,056141
0,327500	0,1	-0,049609
0,329167	0,1	-0,072988
0,330833	0,1	-0,073603
0,332500	0,1	-0,105453
0,334167	0,1	-0,076350
0,335833	0,1	-0,098048
0,337500	0,1	-0,087779
0,339167	0,1	-0,082851
0,340833	0,1	-0,050775
0,342500	0,1	-0,061394
0,344167	0,1	-0,044231
0,345833	0,1	-0,059203
0,347500	0,1	-0,081169
0,349167	0,1	-0,065747
0,350833	0,1	-0,084906
0,352500	0,1	-0,029164
0,354167	0,1	-0,091273
0,355833	0,1	-0,073092
0,357500	0,1	-0,036698
0,359167	0,1	-0,010472
0,360833	0,1	-0,076005
0,362500	0,1	-0,057150
0,364167	0,1	-0,031317
0,365833	0,1	-0,072564
0,367500	0,1	-0,058308
0,369167	0,1	-0,060203
0,370833	0,1	-0,074824
0,372500	0,1	-0,055183
0,374167	0,1	-0,044229
0,375833	0,1	-0,021523
0,377500	0,1	-0,069147
0,379167	0,1	-0,063138
0,380833	0,1	-0,039820
0,382500	0,1	-0,102676
0,384167	0,1	-0,040345
0,385833	0,1	-0,008413
0,387500	0,1	-0,045217
0,389167	0,1	-0,057495
0,390833	0,1	-0,100008
0,392500	0,1	-0,073546
0,394167	0,1	-0,016892
0,395833	0,1	-0,053464
0,397500	0,1	-0,054405
0,399167	0,1	-0,068415
0,400833	0,1	-0,051351
0,402500	0,1	-0,040943
0,404167	0,1	-0,027286
0,405833	0,1	-0,062355
0,407500	0,1	-0,056502
0,409167	0,1	-0,076468
0,410833	0,1	-0,049356
0,412500	0,1	-0,032054
0,414167	0,1	-0,046833
0,415833	0,1	-0,068831
0,417500	0,1	-0,044588
0,419167	0,1	-0,062970
0,420833	0,1	-0,011767
0,422500	0,1	-0,009307
0,424167	0,1	-0,053913
0,425833	0,1	-0,061748
0,427500	0,1	-0,042814
0,429167	0,1	-0,021167
0,430833	0,1	-0,012788
0,432500	0,1	-0,073236
0,434167	0,1	-0,046650
0,435833	0,1	-0,059912
0,437500	0,1	-0,021880
0,439167	0,1	-0,052757
0,440833	0,1	-0,052184
0,442500	0,1	-0,052828
0,444167	0,1	-0,021590
0,445833	0,1	-0,060228
0,447500	0,1	-0,003780
0,449167	0,1	-0,077100
0,450833	0,1	0,002367
0,452500	0,1	-0,064409
0,454167	0,1	-0,021043
0,455833	0,1	-0,010374
0,457500	0,1	-0,033882
0,459167	0,1	-0,021036
0,460833	0,1	-0,017555
0,462500	0,1	-0,040196
0,464167	0,1	-0,017752
0,465833	0,1	-0,027056
0,467500	0,1	-0,031984
0,469167	0,1	-0,008926
0,470833	0,1	-0,045733
0,472500	0,1	-0,008447
0,474167	0,1	-0,016649
0,475833	0,1	-0,014783
0,477500	0,1	-0,035106
0,479167	0,1	-0,031440
0,480833	0,1	-0,048474
0,482500	0,1	-0,016435
0,484167	0,1	-0,060000
0,485833	0,1	-0,037338
0,487500	0,1	-0,037302
0,489167	0,1	-0,024935
0,490833	0,1	-0,003289
0,492500	0,1	-0,053170
0,494167	0,1	0,012679
0,495833	0,1	-0,018255
0,497500	0,1	-0,018424
0,499167	0,1	0,013816
0,500833	0,1	-0,030493
0,502500	0,1	0,019770
0,504167	0,1	-0,048624
0,505833	0,1	-0,013375
0,507500	0,1	-0,012690
0,509167	0,1	-0,011854
0,510833	0,1	0,011435
0,512500	0,1	-0,024213
0,514167	0,1	0,015039
0,515833	0,1	0,023873
0,517500	0,1	-0,018574
0,519167	0,1	-0,004671
0,520833	0,1	-0,029178
0,522500	0,1	0,009434
0,524167	0,1	0,012629
0,525833	0,1	0,001100
0,527500	0,1	0,003868
0,529167	0,1	-0,010011
0,530833	0,1	0,012983
0,532500	0,1	0,007735
0,534167	0,1	0,012599
0,535833	0,1	-0,023699
0,537500	0,1	0,012592
0,539167	0,1	-0,015228
0,540833	0,1	-0,018712
0,542500	0,1	0,007571
0,544167	0,1	0,003775
0,545833	0,1	-0,035424
0,547500	0,1	0,007918
0,549167	0,1	0,010667
0,550833	0,1	0,011632
0,552500	0,1	0,004743
0,554167	0,1	0,016914
0,555833	0,1	0,002876
0,557500	0,1	0,023326
0,559167	0,1	0,025746
0,560833	0,1	0,028223
0,562500	0,1	0,010637
0,564167	0,1	0,021457
0,565833	0,1	0,024227
0,567500	0,1	0,043493
0,569167	0,1	0,030354
0,570833	0,1	0,007645
0,572500	0,1	0,002389
0,574167	0,1	0,041652
0,575833	0,1	-0,002306
0,577500	0,1	0,003546
0,579167	0,1	0,025320
0,580833	0,1	0,022684
0,582500	0,1	0,065587
0,584167	0,1	0,040800
0,585833	0,1	-0,001468
0,587500	0,1	0,021871
0,589167	0,1	0,051353
0,590833	0,1	0,000208
0,592500	0,1	0,038719
0,594167	0,1	0,061822
0,595833	0,1	0,013868
0,597500	0,1	0,033344
0,599167	0,1	0,061051
0,600833	0,1	0,027493
0,602500	0,1	-0,004981
0,604167	0,1	0,052987
0,605833	0,1	0,037090
0,607500	0,1	0,027840
0,609167	0,1	0,041176
0,610833	0,1	0,042014
0,612500	0,1	0,028197
0,614167	0,1	0,052290
0,615833	0,1	0,040631
0,617500	0,1	0,064464
0,619167	0,1	0,036383
0,620833	0,1	0,047073
0,622500	0,1	0,019309
0,624167	0,1	0,010092
0,625833	0,1	0,046548
0,627500	0,1	0,046042
0,629167	0,1	0,013897
0,630833	0,1	0,038592
0,632500	0,1	0,084436
0,634167	0,1	0,052397
0,635833	0,1	0,083854
0,637500	0,1	0,052364
0,639167	0,1	0,072486
0,640833	0,1	0,064700
0,642500	0,1	0,091752
0,644167	0,1	0,052784
0,645833	0,1	0,061376
0,647500	0,1	0,056034
0,649167	0,1	0,044306
0,650833	0,1	0,075581
0,652500	0,1	0,068372
0,654167	0,1	0,072171
0,655833	0,1	0,032459
0,657500	0,1	0,061469
0,659167	0,1	0,062116
0,660833	0,1	0,021534
0,662500	0,1	0,086495
0,664167	0,1	0,108379
0,665833	0,1	0,096598
0,667500	0,1	0,062773
0,669167	0,1	0,099685
0,670833	0,1	0,059103
0,672500	0,1	0,087117
0,674167	0,1	0,098498
0,675833	0,1	0,121371
0,677500	0,1	0,073732
0,679167	0,1	0,117303
0,680833	0,1	0,075794
0,682500	0,1	0,069086
0,684167	0,1	0,081191
0,685833	0,1	0,075141
0,687500	0,1	0,090308
0,689167	0,1	0,106940
0,690833	0,1	0,096793
0,692500	0,1	0,094923
0,694167	0,1	0,088804
0,695833	0,1	0,085098
0,697500	0,1	0,123198
0,699167	0,1	0,081274
0,700833	0,1	0,127910
0,702500	0,1	0,120826
0,704167	0,1	0,117936
0,705833	0,1	0,107780
0,707500	0,1	0,097691
0,709167	0,1	0,139543
0,710833	0,1	0,113779
0,712500	0,1	0,131554
0,714167	0,1	0,103214
0,715833	0,1	0,125657
0,717500	0,1	0,132910
0,719167	0,1	0,181399
0,720833	0,1	0,104478
0,722500	0,1	0,140795
0,724167	0,1	0,126471
0,725833	0,1	0,126821
0,727500	0,1	0,080792
0,729167	0,1	0,107517
0,730833	0,1	0,112678
0,732500	0,1	0,134876
0,734167	0,1	0,151831
0,735833	0,1	0,145587
0,737500	0,1	0,178611
0,739167	0,1	0,169849
0,740833	0,1	0,128737
0,742500	0,1	0,173478
0,744167	0,1	0,165756
0,745833	0,1	0,223007
0,747500	0,1	0,179552
0,749167	0,1	0,168008
0,750833	0,1	0,175169
0,752500	0,1	0,214996
0,754167	0,1	0,172631
0,755833	0,1	0,150263
0,757500	0,1	0,190857
0,759167	0,1	0,207688
0,760833	0,1	0,213966
0,762500	0,1	0,234842
0,764167	0,1	0,215655
0,765833	0,1	0,227121
0,767500	0,1	0,219127
0,769167	0,1	0,187808
0,770833	0,1	0,226432
0,772500	0,1	0,218745
0,774167	0,1	0,165384
0,775833	0,1	0,214284
0,777500	0,1	0,232883
0,779167	0,1	0,216065
0,780833	0,1	0,246800
0,782500	0,1	0,232247
0,784167	0,1	0,211172
0,785833	0,1	0,184715
0,787500	0,1	0,233164
0,789167	0,1	0,232597
0,790833	0,1	0,272270
0,792500	0,1	0,224716
0,794167	0,1	0,231819
0,795833	0,1	0,276557
0,797500	0,1	0,216852
0,799167	0,1	0,237330
0,800833	0,1	0,193940
0,802500	0,1	0,186906
0,804167	0,1	0,235558
0,805833	0,1	0,276610
0,807500	0,1	0,207250
0,809167	0,1	0,216872
0,810833	0,1	0,229214
0,812500	0,1	0,241500
0,814167	0,1	0,236244
0,815833	0,1	0,204437
0,817500	0,1	0,249441
0,819167	0,1	0,253476
0,820833	0,1	0,232379
0,822500	0,1	0,250803
0,824167	0,1	0,236312
0,825833	0,1	0,212422
0,827500	0,1	0,237629
0,829167	0,1	0,242594
0,830833	0,1	0,226588
0,832500	0,1	0,228637
0,834167	0,1	0,259995
0,835833	0,1	0,246942
0,837500	0,1	0,262893
0,839167	0,1	0,221791
0,840833	0,1	0,266702
0,842500	0,1	0,271027
0,844167	0,1	0,279633
0,845833	0,1	0,260298
0,847500	0,1	0,241088
0,849167	0,1	0,289898
0,850833	0,1	0,279572
0,852500	0,1	0,244407
0,854167	0,1	0,252711
0,855833	0,1	0,246071
0,857500	0,1	0,254489
0,859167	0,1	0,216632
0,860833	0,1	0,239526
0,862500	0,1	0,271180
0,864167	0,1	0,252943
0,865833	0,1	0,309766
0,867500	0,1	0,292427
0,869167	0,1	0,279822
0,870833	0,1	0,258680
0,872500	0,1	0,280497
0,874167	0,1	0,289868
0,875833	0,1	0,288188
0,877500	0,1	0,311181
0,879167	0,1	0,315725
0,880833	0,1	0,310635
0,882500	0,1	0,293914
0,884167	0,1	0,309422
0,885833	0,1	0,330551
0,887500	0,1	0,274515
0,889167	0,1	0,311508
0,890833	0,1	0,295875
0,892500	0,1	0,272233
0,894167	0,1	0,298261
0,895833	0,1	0,307175
0,897500	0,1	0,309740
0,899167	0,1	0,306425
0,900833	0,1	0,314804
0,902500	0,1	0,296691
0,904167	0,1	0,335861
0,905833	0,1	0,302746
0,907500	0,1	0,335393
0,909167	0,1	0,317350
0,910833	0,1	0,324305
0,912500	0,1	0,336711
0,914167	0,1	0,337599
0,915833	0,1	0,338823
0,917500	0,1	0,354318
0,919167	0,1	0,288875
0,920833	0,1	0,333902
0,922500	0,1	0,325995
0,924167	0,1	0,334777
0,925833	0,1	0,356542
0,927500	0,1	0,329643
0,929167	0,1	0,348382
0,930833	0,1	0,403006
0,932500	0,1	0,332762
0,934167	0,1	0,372147
0,935833	0,1	0,366708
0,937500	0,1	0,362772
0,939167	0,1	0,363260
0,940833	0,1	0,349829
0,942500	0,1	0,408502
0,944167	0,1	0,386349
0,945833	0,1	0,411023
0,947500	0,1	0,388682
0,949167	0,1	0,387409
0,950833	0,1	0,415444
0,952500	0,1	0,382814
0,954167	0,1	0,378160
0,955833	0,1	0,407618
0,957500	0,1	0,398754
0,959167	0,1	0,359286
0,960833	0,1	0,434337
0,962500	0,1	0,389465
0,964167	0,1	0,427077
0,965833	0,1	0,440735
0,967500	0,1	0,426885
0,969167	0,1	0,452208
0,970833	0,1	0,445966
0,972500	0,1	0,450878
0,974167	0,1	0,470182
0,975833	0,1	0,468897
0,977500	0,1	0,460556
0,979167	0,1	0,483837
0,980833	0,1	0,476415
0,982500	0,1	0,467609
0,984167	0,1	0,452440
0,985833	0,1	0,512631
0,987500	0,1	0,455099
0,989167	0,1	0,445167
0,990833	0,1	0,508340
0,992500	0,1	0,527792
0,994167	0,1	0,511473
0,995833	0,1	0,517340
0,997500	0,1	0,526128
0,999167	0,1	0,550122
1,000833	0,1	0,543658
1,002500	0,1	0,531514
1,004167	0,1	0,552837
1,005833	0,1	0,592303
1,007500	0,1	0,561437
1,009167	0,1	0,555450
1,010833	0,1	0,605733
1,012500	0,1	0,592777
1,014167	0,1	0,604211
1,015833	0,1	0,608307
1,017500	0,1	0,644163
1,019167	0,1	0,646512
1,020833	0,1	0,647697
1,022500	0,1	0,607247
1,024167	0,1	0,666655
1,025833	0,1	0,622918
1,027500	0,1	0,676403
1,029167	0,1	0,661645
1,030833	0,1	0,720083
1,032500	0,1	0,679604
1,034167	0,1	0,749530
1,035833	0,1	0,725555
1,037500	0,1	0,700742
1,039167	0,1	0,728922
1,040833	0,1	0,697787
1,042500	0,1	0,772766
1,044167	0,1	0,739077
1,045833	0,1	0,772420
1,047500	0,1	0,763563
1,049167	0,1	0,788778
1,050833	0,1	0,833110
1,052500	0,1	0,834701
1,054167	0,1	0,858360
1,055833	0,1	0,942872
1,057500	0,1	0,952079
1,059167	0,1	1,025947
1,060833	0,1	1,124704
1,062500	0,1	1,261957
1,064167	0,1	1,410231
1,065833	0,1	1,583279
1,067500	0,1	1,879523
1,069167	0,1	2,198458
1,070833	0,1	2,694546
1,072500	0,1	3,211887
1,074167	0,1	3,894499
1,075833	0,1	4,638962
1,077500	0,1	5,609849
1,079167	0,1	6,694145
1,080833	0,1	7,964948
1,082500	0,1	9,396527
1,084167	0,1	10,977193
1,085833	0,1	12,757928
1,087500	0,1	14,670303
1,089167	0,1	16,693659
1,090833	0,1	18,861179
1,092500	0,1	21,143374
1,094167	0,1	23,389593
1,095833	0,1	25,752613
1,097500	0,1	28,027303
1,099167	0,1	30,388285
1,100833	0,1	32,542042
1,102500	0,1	34,632800
1,104167	0,1	36,546485
1,105833	0,1	38,319200
1,107500	0,1	39,941373
1,109167	0,1	41,273693
1,110833	0,1	42,466009
1,112500	0,1	43,391413
1,114167	0,1	44,140967
1,115833	0,1	44,610826
1,117500	0,1	44,890637
1,119167	0,1	44,930927
1,120833	0,1	44,822859
1,122500	0,1	44,493545
1,124167	0,1	43,985589
1,125833	0,1	43,339195
1,127500	0,1	42,526177
1,129167	0,1	41,671271
1,130833	0,1	40,633787
1,132500	0,1	39,463274
1,134167	0,1	38,285621
1,135833	0,1	37,045851
1,137500	0,1	35,701414
1,139167	0,1	34,360000
1,140833	0,1	32,973240
1,142500	0,1	31,609029
1,144167	0,1	30,294512
1,145833	0,1	28,919512
1,147500	0,1	27,629091
1,149167	0,1	26,334469
1,150833	0,1	25,045662
1,152500	0,1	23,874484
1,154167	0,1	22,707995
1,155833	0,1	21,584128
1,157500	0,1	20,529303
1,159167	0,1	19,510911
1,160833	0,1	18,562689
1,162500	0,1	17,665111
1,164167	0,1	16,788794
1,165833	0,1	16,043031
1,167500	0,1	15,278494
1,169167	0,1	14,560705
1,170833	0,1	13,916858
1,172500	0,1	13,323157
1,174167	0,1	12,714712
1,175833	0,1	12,201146
1,177500	0,1	11,668112
1,179167	0,1	11,201578
1,180833	0,1	10,769597
1,182500	0,1	10,347474
1,184167	0,1	9,985247
1,185833	0,1	9,597486
1,187500	0,1	9,286539
1,189167	0,1	8,919125
1,190833	0,1	8,625436
1,192500	0,1	8,338525
1,194167	0,1	8,061566
1,195833	0,1	7,852824
1,197500	0,1	7,598081
1,199167	0,1	7,394020
1,200833	0,1	7,165920
1,202500	0,1	7,014819
1,204167	0,1	6,785239
1,205833	0,1	6,619769
1,207500	0,1	6,467835
1,209167	0,1	6,278326
1,210833	0,1	6,173259
1,212500	0,1	6,004883
1,214167	0,1	5,922648
1,215833	0,1	5,801368
1,217500	0,1	5,669749
1,219167	0,1	5,573073
1,220833	0,1	5,490680
1,222500	0,1	5,429597
1,224167	0,1	5,308913
1,225833	0,1	5,240155
1,227500	0,1	5,170879
1,229167	0,1	5,091449
1,230833	0,1	5,001718
1,232500	0,1	4,954695
1,234167	0,1	4,872336
1,235833	0,1	4,841160
1,237500	0,1	4,763461
1,239167	0,1	4,709834
1,240833	0,1	4,695041
1,242500	0,1	4,641816
1,244167	0,1	4,597758
1,245833	0,1	4,524842
1,247500	0,1	4,505806
1,249167	0,1	4,418930
1,250833	0,1	4,392205
1,252500	0,1	4,375504
1,254167	0,1	4,333636
1,255833	0,1	4,300815
1,257500	0,1	4,246163
1,259167	0,1	4,198949
1,260833	0,1	4,172958
1,262500	0,1	4,148571
1,264167	0,1	4,094223
1,265833	0,1	4,073485
1,267500	0,1	3,973890
1,269167	0,1	3,993239
1,270833	0,1	3,921135
1,272500	0,1	3,927214
1,274167	0,1	3,897638
1,275833	0,1	3,840720
1,277500	0,1	3,843428
1,279167	0,1	3,809721
1,280833	0,1	3,726785
1,282500	0,1	3,733180
1,284167	0,1	3,697326
1,285833	0,1	3,669789
1,287500	0,1	3,639251
1,289167	0,1	3,621221
1,290833	0,1	3,564101
1,292500	0,1	3,560715
1,294167	0,1	3,528040
1,295833	0,1	3,503596
1,297500	0,1	3,475710
1,299167	0,1	3,431277
1,300833	0,1	3,422520
1,302500	0,1	3,366285
1,304167	0,1	3,394279
1,305833	0,1	3,370994
1,307500	0,1	3,367049
1,309167	0,1	3,298400
1,310833	0,1	3,347932
1,312500	0,1	3,269154
1,314167	0,1	3,283036
1,315833	0,1	3,284432
1,317500	0,1	3,253088
1,319167	0,1	3,248396
1,320833	0,1	3,205010
1,322500	0,1	3,178376
1,324167	0,1	3,157940
1,325833	0,1	3,167479
1,327500	0,1	3,156246
1,329167	0,1	3,186945
1,330833	0,1	3,093893
1,332500	0,1	3,115076
1,334167	0,1	3,133474
1,335833	0,1	3,086509
1,337500	0,1	3,104763
1,339167	0,1	3,089640
1,340833	0,1	3,063322
1,342500	0,1	3,038822
1,344167	0,1	3,100445
1,345833	0,1	3,057822
1,347500	0,1	3,036356
1,349167	0,1	3,099896
1,350833	0,1	3,034991
1,352500	0,1	3,041204
1,354167	0,1	3,040065
1,355833	0,1	3,014376
1,357500	0,1	3,023242
1,359167	0,1	3,003994
1,360833	0,1	3,017816
1,362500	0,1	3,014006
1,364167	0,1	3,000930
1,365833	0,1	3,035720
1,367500	0,1	3,009912
1,369167	0,1	3,019788
1,370833	0,1	2,960821
1,372500	0,1	3,032881
1,374167	0,1	2,969645
1,375833	0,1	3,023075
1,377500	0,1	3,022648
1,379167	0,1	3,028587
1,380833	0,1	2,986221
1,382500	0,1	2,982216
1,384167	0,1	3,028604
1,385833	0,1	2,973847
1,387500	0,1	3,028396
1,389167	0,1	3,021402
1,390833	0,1	3,040680
1,392500	0,1	3,038064
1,394167	0,1	3,021896
1,395833	0,1	3,052744
1,397500	0,1	3,018529
1,399167	0,1	2,999296
1,400833	0,1	3,013743
1,402500	0,1	2,971275
1,404167	0,1	3,015526
1,405833	0,1	2,986816
1,407500	0,1	2,971788
1,409167	0,1	2,971058
1,410833	0,1	2,993837
1,412500	0,1	3,021393
1,414167	0,1	2,957086
1,415833	0,1	2,954165
1,417500	0,1	2,971416
1,419167	0,1	2,963741
1,420833	0,1	2,951961
1,422500	0,1	2,964696
1,424167	0,1	2,924361
1,425833	0,1	2,936336
1,427500	0,1	2,902357
1,429167	0,1	2,872985
1,430833	0,1	2,919851
1,432500	0,1	2,901991
1,434167	0,1	2,857036
1,435833	0,1	2,858502
1,437500	0,1	2,904493
1,439167	0,1	2,878876
1,440833	0,1	2,877963
1,442500	0,1	2,821656
1,444167	0,1	2,834199
1,445833	0,1	2,813634
1,447500	0,1	2,823222
1,449167	0,1	2,744573
1,450833	0,1	2,725665
1,452500	0,1	2,739705
1,454167	0,1	2,749278
1,455833	0,1	2,706365
1,457500	0,1	2,725383
1,459167	0,1	2,680991
1,460833	0,1	2,728256
1,462500	0,1	2,688958
1,464167	0,1	2,668799
1,465833	0,1	2,648913
1,467500	0,1	2,644790
1,469167	0,1	2,699539
1,470833	0,1	2,606719
1,472500	0,1	2,649430
1,474167	0,1	2,637090
1,475833	0,1	2,625477
1,477500	0,1	2,622729
1,479167	0,1	2,559053
1,480833	0,1	2,622485
1,482500	0,1	2,605232
1,484167	0,1	2,605838
1,485833	0,1	2,586931
1,487500	0,1	2,584372
1,489167	0,1	2,590623
1,490833	0,1	2,607760
1,492500	0,1	2,569036
1,494167	0,1	2,607298
1,495833	0,1	2,593525
1,497500	0,1	2,584509
1,499167	0,1	2,555784
1,500833	0,1	2,590616
1,502500	0,1	2,575568
1,504167	0,1	2,609833
1,505833	0,1	2,579765
1,507500	0,1	2,584562
1,509167	0,1	2,585383
1,510833	0,1	2,592283
1,512500	0,1	2,566325
1,514167	0,1	2,592715
1,515833	0,1	2,570024
1,517500	0,1	2,585283
1,519167	0,1	2,555288
1,520833	0,1	2,589112
1,522500	0,1	2,596152
1,524167	0,1	2,601947
1,525833	0,1	2,617331
1,527500	0,1	2,645773
1,529167	0,1	2,584025
1,530833	0,1	2,619766
1,532500	0,1	2,608624
1,534167	0,1	2,622556
1,535833	0,1	2,607616
1,537500	0,1	2,607536
1,539167	0,1	2,639498
1,540833	0,1	2,612288
1,542500	0,1	2,627758
1,544167	0,1	2,640457
1,545833	0,1	2,604397
1,547500	0,1	2,632598
1,549167	0,1	2,625133
1,550833	0,1	2,615677
1,552500	0,1	2,630962
1,554167	0,1	2,639296
1,555833	0,1	2,637219
1,557500	0,1	2,650828
1,559167	0,1	2,664671
1,560833	0,1	2,630879
1,562500	0,1	2,620845
1,564167	0,1	2,643885
1,565833	0,1	2,630434
1,567500	0,1	2,643392
1,569167	0,1	2,644025
1,570833	0,1	2,670998
1,572500	0,1	2,668317
1,574167	0,1	2,653807
1,575833	0,1	2,647992
1,577500	0,1	2,657370
1,579167	0,1	2,673441
1,580833	0,1	2,649541
1,582500	0,1	2,664459
1,584167	0,1	2,595237
1,585833	0,1	2,638276
1,587500	0,1	2,644919
1,589167	0,1	2,624585
1,590833	0,1	2,630603
1,592500	0,1	2,592065
1,594167	0,1	2,637990
1,595833	0,1	2,648942
1,597500	0,1	2,609871
1,599167	0,1	2,692129
1,600833	0,1	2,690281
1,602500	0,1	2,644247
1,604167	0,1	2,706375
1,605833	0,1	2,679649
1,607500	0,1	2,666185
1,609167	0,1	2,657888
1,610833	0,1	2,668466
1,612500	0,1	2,671444
1,614167	0,1	2,676589
1,615833	0,1	2,673692
1,617500	0,1	2,712027
1,619167	0,1	2,721705
1,620833	0,1	2,713051
1,622500	0,1	2,657863
1,624167	0,1	2,737380
1,625833	0,1	2,697058
1,627500	0,1	2,728391
1,629167	0,1	2,730971
1,630833	0,1	2,713303
1,632500	0,1	2,723551
1,634167	0,1	2,722146
1,635833	0,1	2,722202
1,637500	0,1	2,747459
1,639167	0,1	2,681505
1,640833	0,1	2,695330
1,642500	0,1	2,771076
1,644167	0,1	2,711675
1,645833	0,1	2,704357
1,647500	0,1	2,717262
1,649167	0,1	2,749139
1,650833	0,1	2,735380
1,652500	0,1	2,693992
1,654167	0,1	2,668953
1,655833	0,1	2,720475
1,657500	0,1	2,742086
1,659167	0,1	2,720834
1,660833	0,1	2,701898
1,662500	0,1	2,681552
1,664167	0,1	2,684312
1,665833	0,1	2,697221
1,667500	0,1	2,676803
1,669167	0,1	2,671788
1,670833	0,1	2,684080
1,672500	0,1	2,693444
1,674167	0,1	2,665158
1,675833	0,1	2,670984
1,677500	0,1	2,666657
1,679167	0,1	2,622455
1,680833	0,1	2,635042
1,682500	0,1	2,673835
1,684167	0,1	2,640679
1,685833	0,1	2,619666
1,687500	0,1	2,635023
1,689167	0,1	2,646844
1,690833	0,1	2,608041
1,692500	0,1	2,595584
1,694167	0,1	2,642317
1,695833	0,1	2,583700
1,697500	0,1	2,604422
1,699167	0,1	2,597604
1,700833	0,1	2,529566
1,702500	0,1	2,563606
1,704167	0,1	2,543128
1,705833	0,1	2,558273
1,707500	0,1	2,513972
1,709167	0,1	2,488805
1,710833	0,1	2,515153
1,712500	0,1	2,492256
1,714167	0,1	2,484837
1,715833	0,1	2,491904
1,717500	0,1	2,480151
1,719167	0,1	2,458183
1,720833	0,1	2,456417
1,722500	0,1	2,431543
1,724167	0,1	2,424954
1,725833	0,1	2,398093
1,727500	0,1	2,391822
1,729167	0,1	2,387633
1,730833	0,1	2,385176
1,732500	0,1	2,361212
1,734167	0,1	2,359911
1,735833	0,1	2,369400
1,737500	0,1	2,332230
1,739167	0,1	2,299180
1,740833	0,1	2,325225
1,742500	0,1	2,250055
1,744167	0,1	2,252677
1,745833	0,1	2,251593
1,747500	0,1	2,233775
1,749167	0,1	2,201684
1,750833	0,1	2,180897
1,752500	0,1	2,145147
1,754167	0,1	2,153046
1,755833	0,1	2,129670
1,757500	0,1	2,061855
1,759167	0,1	2,128120
1,760833	0,1	2,070030
1,762500	0,1	2,073457
1,764167	0,1	2,045645
1,765833	0,1	2,028805
1,767500	0,1	1,995657
1,769167	0,1	1,988672
1,770833	0,1	1,981566
1,772500	0,1	1,933027
1,774167	0,1	1,877949
1,775833	0,1	1,913226
1,777500	0,1	1,901954
1,779167	0,1	1,824400
1,780833	0,1	1,827828
1,782500	0,1	1,814318
1,784167	0,1	1,810860
1,785833	0,1	1,768528
1,787500	0,1	1,732376
1,789167	0,1	1,701615
1,790833	0,1	1,696142
1,792500	0,1	1,699948
1,794167	0,1	1,667187
1,795833	0,1	1,616530
1,797500	0,1	1,645038
1,799167	0,1	1,604098
1,800833	0,1	1,547629
1,802500	0,1	1,528722
1,804167	0,1	1,534468
1,805833	0,1	1,482470
1,807500	0,1	1,466731
1,809167	0,1	1,472753
1,810833	0,1	1,452938
1,812500	0,1	1,449991
1,814167	0,1	1,426795
1,815833	0,1	1,336040
1,817500	0,1	1,390437
1,819167	0,1	1,324888
1,820833	0,1	1,312885
1,822500	0,1	1,268021
1,824167	0,1	1,283951
1,825833	0,1	1,253676
1,827500	0,1	1,237589
1,829167	0,1	1,213895
1,830833	0,1	1,217695
1,832500	0,1	1,184318
1,834167	0,1	1,200178
1,835833	0,1	1,181591
1,837500	0,1	1,197079
1,839167	0,1	1,169256
1,840833	0,1	1,184953
1,842500	0,1	1,165361
1,844167	0,1	1,161491
1,845833	0,1	1,151564
1,847500	0,1	1,189197
1,849167	0,1	1,219767
1,850833	0,1	1,245979
1,852500	0,1	1,233127
1,854167	0,1	1,300099
1,855833	0,1	1,278649
1,857500	0,1	1,331916
1,859167	0,1	1,367102
1,860833	0,1	1,460882
1,862500	0,1	1,474335
1,864167	0,1	1,464719
1,865833	0,1	1,534878
1,867500	0,1	1,583886
1,869167	0,1	1,662848
1,870833	0,1	1,685356
1,872500	0,1	1,724519
1,874167	0,1	1,814574
1,875833	0,1	1,839106
1,877500	0,1	1,875047
1,879167	0,1	1,898053
1,880833	0,1	1,995399
1,882500	0,1	2,050009
1,884167	0,1	2,060008
1,885833	0,1	2,132947
1,887500	0,1	2,166828
1,889167	0,1	2,199428
1,890833	0,1	2,292223
1,892500	0,1	2,296594
1,894167	0,1	2,370424
1,895833	0,1	2,371240
1,897500	0,1	2,485516
1,899167	0,1	2,488268
1,900833	0,1	2,536534
1,902500	0,1	2,613923
1,904167	0,1	2,710368
1,905833	0,1	2,724749
1,907500	0,1	2,770829
1,909167	0,1	2,843650
1,910833	0,1	2,852770
1,912500	0,1	2,931235
1,914167	0,1	2,972422
1,915833	0,1	3,015657
1,917500	0,1	3,118705
1,919167	0,1	3,148594
1,920833	0,1	3,160783
1,922500	0,1	3,215402
1,924167	0,1	3,293151
1,925833	0,1	3,367816
1,927500	0,1	3,376341
1,929167	0,1	3,480482
1,930833	0,1	3,502817
1,932500	0,1	3,562171
1,934167	0,1	3,593354
1,935833	0,1	3,654176
1,937500	0,1	3,673271
1,939167	0,1	3,745917
1,940833	0,1	3,838607
1,942500	0,1	3,872950
1,944167	0,1	3,936213
1,945833	0,1	3,938872
1,947500	0,1	3,987985
1,949167	0,1	4,063826
1,950833	0,1	4,107194
1,952500	0,1	4,151474
1,954167	0,1	4,198961
1,955833	0,1	4,274677
1,957500	0,1	4,316561
1,959167	0,1	4,356079
1,960833	0,1	4,455005
1,962500	0,1	4,498717
1,964167	0,1	4,563928
1,965833	0,1	4,625051
1,967500	0,1	4,714350
1,969167	0,1	4,738363
1,970833	0,1	4,775676
1,972500	0,1	4,882700
1,974167	0,1	4,959837
1,975833	0,1	5,035178
1,977500	0,1	5,014150
1,979167	0,1	5,135878
1,980833	0,1	5,221931
1,982500	0,1	5,244629
1,984167	0,1	5,311577
1,985833	0,1	5,385812
1,987500	0,1	5,473407
1,989167	0,1	5,514039
1,990833	0,1	5,611992
1,992500	0,1	5,702209
1,994167	0,1	5,779540
1,995833	0,1	5,816839
1,997500	0,1	5,898747
1,999167	0,1	5,949516
2,000833	0,1	6,026115
2,002500	0,1	6,086689
2,004167	0,1	6,197772
2,005833	0,1	6,287609
2,007500	0,1	6,315164
2,009167	0,1	6,399863
2,010833	0,1	6,503550
2,012500	0,1	6,567006
2,014167	0,1	6,619338
2,015833	0,1	6,727470
2,017500	0,1	6,795913
2,019167	0,1	6,813311
2,020833	0,1	6,918870
2,022500	0,1	7,004251
2,024167	0,1	7,096396
2,025833	0,1	7,125324
2,027500	0,1	7,252004
2,029167	0,1	7,286106
2,030833	0,1	7,351693
2,032500	0,1	7,448053
2,034167	0,1	7,518263
2,035833	0,1	7,573615
2,037500	0,1	7,627478
2,039167	0,1	7,664202
2,040833	0,1	7,767391
2,042500	0,1	7,810700
2,044167	0,1	7,919270
2,045833	0,1	8,039616
2,047500	0,1	8,040777
2,049167	0,1	8,073561
2,050833	0,1	8,133137
2,052500	0,1	8,197576
2,054167	0,1	8,253317
2,055833	0,1	8,345893
2,057500	0,1	8,376895
2,059167	0,1	8,435874
2,060833	0,1	8,495896
2,062500	0,1	8,564648
2,064167	0,1	8,602842
2,065833	0,1	8,640682
2,067500	0,1	8,706818
2,069167	0,1	8,756541
2,070833	0,1	8,839857
2,072500	0,1	8,824830
2,074167	0,1	8,932887
2,075833	0,1	8,914856
2,077500	0,1	8,956648
2,079167	0,1	9,031164
2,080833	0,1	9,071105
2,082500	0,1	9,092504
2,084167	0,1	9,122214
2,085833	0,1	9,203859
2,087500	0,1	9,163344
2,089167	0,1	9,201258
2,090833	0,1	9,258700
2,092500	0,1	9,267162
2,094167	0,1	9,319301
2,095833	0,1	9,323537
2,097500	0,1	9,374813
2,099167	0,1	9,380365
2,100833	0,1	9,408349
2,102500	0,1	9,399354
2,104167	0,1	9,412320
2,105833	0,1	9,432910
2,107500	0,1	9,442928
2,109167	0,1	9,446650
2,110833	0,1	9,488754
2,112500	0,1	9,496266
2,114167	0,1	9,464759
2,115833	0,1	9,466421
2,117500	0,1	9,509657
2,119167	0,1	9,484635
2,120833	0,1	9,490769
2,122500	0,1	9,451377
2,124167	0,1	9,442321
2,125833	0,1	9,456311
2,127500	0,1	9,437973
2,129167	0,1	9,446098
2,130833	0,1	9,421851
2,132500	0,1	9,438258
2,134167	0,1	9,407627
2,135833	0,1	9,368312
2,137500	0,1	9,390300
2,139167	0,1	9,377461
2,140833	0,1	9,334126
2,142500	0,1	9,285968
2,144167	0,1	9,284470
2,145833	0,1	9,254264
2,147500	0,1	9,242030
2,149167	0,1	9,193487
2,150833	0,1	9,189634
2,152500	0,1	9,194813
2,154167	0,1	9,152644
2,155833	0,1	9,098077
2,157500	0,1	9,100231
2,159167	0,1	9,072227
2,160833	0,1	9,039335
2,162500	0,1	8,978282
2,164167	0,1	8,968261
2,165833	0,1	8,924374
2,167500	0,1	8,869592
2,169167	0,1	8,900749
2,170833	0,1	8,799969
2,172500	0,1	8,813573
2,174167	0,1	8,766355
2,175833	0,1	8,734243
2,177500	0,1	8,732263
2,179167	0,1	8,645172
2,180833	0,1	8,628104
2,182500	0,1	8,593209
2,184167	0,1	8,545281
2,185833	0,1	8,546408
2,187500	0,1	8,465503
2,189167	0,1	8,469084
2,190833	0,1	8,431885
2,192500	0,1	8,343922
2,194167	0,1	8,336094
2,195833	0,1	8,273831
2,197500	0,1	8,255479
2,199167	0,1	8,241256
2,200833	0,1	8,191215
2,202500	0,1	8,142455
2,204167	0,1	8,131666
2,205833	0,1	8,061165
2,207500	0,1	8,028995
2,209167	0,1	7,991967
2,210833	0,1	7,975632
2,212500	0,1	7,931196
2,214167	0,1	7,864142
2,215833	0,1	7,832045
2,217500	0,1	7,799326
2,219167	0,1	7,765774
2,220833	0,1	7,742377
2,222500	0,1	7,699535
2,224167	0,1	7,701471
2,225833	0,1	7,618312
2,227500	0,1	7,602362
2,229167	0,1	7,543223
2,230833	0,1	7,527741
2,232500	0,1	7,500227
2,234167	0,1	7,461407
2,235833	0,1	7,410980
2,237500	0,1	7,380285
2,239167	0,1	7,324299
2,240833	0,1	7,313609
2,242500	0,1	7,308310
2,244167	0,1	7,259724
2,245833	0,1	7,245486
2,247500	0,1	7,211790
2,249167	0,1	7,156698
2,250833	0,1	7,174344
2,252500	0,1	7,100000
2,254167	0,1	7,124027
2,255833	0,1	7,116046
2,257500	0,1	7,025264
2,259167	0,1	6,974444
2,260833	0,1	6,971073
2,262500	0,1	6,962553
2,264167	0,1	6,942070
2,265833	0,1	6,967968
2,267500	0,1	6,861311
2,269167	0,1	6,837156
2,270833	0,1	6,854168
2,272500	0,1	6,837904
2,274167	0,1	6,775467
2,275833	0,1	6,763120
2,277500	0,1	6,790402
2,279167	0,1	6,798154
2,280833	0,1	6,710312
2,282500	0,1	6,685160
2,284167	0,1	6,698596
2,285833	0,1	6,701319
2,287500	0,1	6,639275
2,289167	0,1	6,672523
2,290833	0,1	6,618805
2,292500	0,1	6,586935
2,294167	0,1	6,602335
2,295833	0,1	6,571888
2,297500	0,1	6,572253
2,299167	0,1	6,566184
2,300833	0,1	6,538714
2,302500	0,1	6,520774
2,304167	0,1	6,587093
2,305833	0,1	6,536288
2,307500	0,1	6,534596
2,309167	0,1	6,505268
2,310833	0,1	6,504419
2,312500	0,1	6,481816
2,314167	0,1	6,488159
2,315833	0,1	6,463038
2,317500	0,1	6,451916
2,319167	0,1	6,484602
2,320833	0,1	6,507681
2,322500	0,1	6,455478
2,324167	0,1	6,439681
2,325833	0,1	6,464801
2,327500	0,1	6,476948
2,329167	0,1	6,474149
2,330833	0,1	6,442581
2,332500	0,1	6,456396
2,334167	0,1	6,458734
2,335833	0,1	6,459201
2,337500	0,1	6,481803
2,339167	0,1	6,482275
2,340833	0,1	6,482743
2,342500	0,1	6,461168
2,344167	0,1	6,525986
2,345833	0,1	6,537112
2,347500	0,1	6,476871
2,349167	0,1	6,514968
2,350833	0,1	6,523011
2,352500	0,1	6,557291
2,354167	0,1	6,514050
2,355833	0,1	6,554302
2,357500	0,1	6,578878
2,359167	0,1	6,569828
2,360833	0,1	6,582810
2,362500	0,1	6,582347
2,364167	0,1	6,592713
2,365833	0,1	6,641770
2,367500	0,1	6,668870
2,369167	0,1	6,664400
2,370833	0,1	6,654397
2,372500	0,1	6,699254
2,374167	0,1	6,643012
2,375833	0,1	6,720181
2,377500	0,1	6,741599
2,379167	0,1	6,738336
2,380833	0,1	6,766368
2,382500	0,1	6,800971
2,384167	0,1	6,830412
2,385833	0,1	6,868463
2,387500	0,1	6,882969
2,389167	0,1	6,954017
2,390833	0,1	6,926647
2,392500	0,1	6,955918
2,394167	0,1	6,975458
2,395833	0,1	7,020900
2,397500	0,1	7,073842
2,399167	0,1	7,073324
2,400833	0,1	7,106502
2,402500	0,1	7,132906
2,404167	0,1	7,233168
2,405833	0,1	7,199405
2,407500	0,1	7,260425
2,409167	0,1	7,315211
2,410833	0,1	7,351952
2,412500	0,1	7,334411
2,414167	0,1	7,407002
2,415833	0,1	7,408639
2,417500	0,1	7,451004
2,419167	0,1	7,506401
2,420833	0,1	7,542133
2,422500	0,1	7,515304
2,424167	0,1	7,580302
2,425833	0,1	7,619577
2,427500	0,1	7,666724
2,429167	0,1	7,681337
2,430833	0,1	7,717957
2,432500	0,1	7,761521
2,434167	0,1	7,793127
2,435833	0,1	7,824414
2,437500	0,1	7,818227
2,439167	0,1	7,882773
2,440833	0,1	7,914619
2,442500	0,1	7,962191
2,444167	0,1	8,013000
2,445833	0,1	8,031406
2,447500	0,1	8,066064
2,449167	0,1	8,095475
2,450833	0,1	8,144174
2,452500	0,1	8,195860
2,454167	0,1	8,261796
2,455833	0,1	8,327262
2,457500	0,1	8,408251
2,459167	0,1	8,443837
2,460833	0,1	8,562776
2,462500	0,1	8,617606
2,464167	0,1	8,706294
2,465833	0,1	8,828253
2,467500	0,1	8,945763
2,469167	0,1	9,099326
2,470833	0,1	9,194090
2,472500	0,1	9,411659
2,474167	0,1	9,599012
2,475833	0,1	9,834220
2,477500	0,1	10,048460
2,479167	0,1	10,346027
2,480833	0,1	10,663384
2,482500	0,1	10,931278
2,484167	0,1	11,285922
2,485833	0,1	11,725453
2,487500	0,1	12,152799
2,489167	0,1	12,644685
2,490833	0,1	13,206837
2,492500	0,1	13,775227
2,494167	0,1	14,479912
2,495833	0,1	15,159906
2,497500	0,1	15,951347
2,499167	0,1	16,773411
2,500833	0,1	17,732353
2,502500	0,1	18,725993
2,504167	0,1	19,795369
2,505833	0,1	20,942567
2,507500	0,1	22,160681
2,509167	0,1	23,485501
2,510833	0,1	24,921991
2,512500	0,1	26,438488
2,514167	0,1	28,039823
2,515833	0,1	29,761192
2,517500	0,1	31,557064
2,519167	0,1	33,376873
2,520833	0,1	35,365492
2,522500	0,1	37,510205
2,524167	0,1	39,666105
2,525833	0,1	41,970566
2,527500	0,1	44,291705
2,529167	0,1	46,752139
2,530833	0,1	49,307037
2,532500	0,1	51,877377
2,534167	0,1	54,545327
2,535833	0,1	57,326258
2,537500	0,1	60,096618
2,539167	0,1	63,015252
2,540833	0,1	65,918783
2,542500	0,1	68,939798
2,544167	0,1	71,914486
2,545833	0,1	75,019717
2,547500	0,1	78,027687
2,549167	0,1	81,118212
2,550833	0,1	84,214705
2,552500	0,1	87,316440
2,554167	0,1	90,372876
2,555833	0,1	93,452865
2,557500	0,1	96,476153
2,559167	0,1	99,500073
2,560833	0,1	102,493253
2,562500	0,1	105,335096
2,564167	0,1	108,280353
2,565833	0,1	111,041793
2,567500	0,1	113,852269
2,569167	0,1	116,524135
2,570833	0,1	119,088237
2,572500	0,1	121,620373
2,574167	0,1	124,018715
2,575833	0,1	126,389972
2,577500	0,1	128,608089
2,579167	0,1	130,677378
2,580833	0,1	132,733953
2,582500	0,1	134,638325
2,584167	0,1	136,488644
2,585833	0,1	138,218316
2,587500	0,1	139,806510
2,589167	0,1	141,296639
2,590833	0,1	142,705571
2,592500	0,1	143,984079
2,594167	0,1	145,173819
2,595833	0,1	146,225370
2,597500	0,1	147,209865
2,599167	0,1	148,053244
2,600833	0,1	148,826278
2,602500	0,1	149,498372
2,604167	0,1	150,012873
2,605833	0,1	150,449058
2,607500	0,1	150,806644
2,609167	0,1	151,048844
2,610833	0,1	151,273878
2,612500	0,1	151,315561
2,614167	0,1	151,332283
2,615833	0,1	151,283203
2,617500	0,1	151,072049
2,619167	0,1	150,794419
2,620833	0,1	150,483251
2,622500	0,1	150,075059
2,624167	0,1	149,553728
2,625833	0,1	148,977824
2,627500	0,1	148,400673
2,629167	0,1	147,710896
2,630833	0,1	146,946293
2,632500	0,1	146,110654
2,634167	0,1	145,310563
2,635833	0,1	144,344098
2,637500	0,1	143,321553
2,639167	0,1	142,300133
2,640833	0,1	141,201061
2,642500	0,1	140,047666
2,644167	0,1	138,838949
2,645833	0,1	137,602621
2,647500	0,1	136,305716
2,649167	0,1	135,023470
2,650833	0,1	133,657719
2,652500	0,1	132,244844
2,654167	0,1	130,806839
2,655833	0,1	129,354773
2,657500	0,1	127,873751
2,659167	0,1	126,323267
2,660833	0,1	124,761518
2,662500	0,1	123,183752
2,664167	0,1	121,604885
2,665833	0,1	119,993952
2,667500	0,1	118,343489
2,669167	0,1	116,711796
2,670833	0,1	115,034844
2,672500	0,1	113,316527
2,674167	0,1	111,697455
2,675833	0,1	110,005450
2,677500	0,1	108,324166
2,679167	0,1	106,602274
2,680833	0,1	104,875915
2,682500	0,1	103,184979
2,684167	0,1	101,464503
2,685833	0,1	99,787351
2,687500	0,1	98,088191
2,689167	0,1	96,405037
2,690833	0,1	94,742915
2,692500	0,1	93,074972
2,694167	0,1	91,402359
2,695833	0,1	89,722801
2,697500	0,1	88,120565
2,699167	0,1	86,491329
2,700833	0,1	84,884866
2,702500	0,1	83,270577
2,704167	0,1	81,697771
2,705833	0,1	80,140145
2,707500	0,1	78,649943
2,709167	0,1	77,084027
2,710833	0,1	75,568272
2,712500	0,1	74,118775
2,714167	0,1	72,676628
2,715833	0,1	71,242545
2,717500	0,1	69,792233
2,719167	0,1	68,453209
2,720833	0,1	67,095172
2,722500	0,1	65,758054
2,724167	0,1	64,419834
2,725833	0,1	63,135989
2,727500	0,1	61,885300
2,729167	0,1	60,623481
2,730833	0,1	59,442322
2,732500	0,1	58,239682
2,734167	0,1	57,043780
2,735833	0,1	55,911666
2,737500	0,1	54,808513
2,739167	0,1	53,687991
2,740833	0,1	52,619031
2,742500	0,1	51,578935
2,744167	0,1	50,562040
2,745833	0,1	49,554197
2,747500	0,1	48,529494
2,749167	0,1	47,586644
2,750833	0,1	46,681285
2,752500	0,1	45,751067
2,754167	0,1	44,845694
2,755833	0,1	43,997078
2,757500	0,1	43,107820
2,759167	0,1	42,261250
2,760833	0,1	41,451538
2,762500	0,1	40,638949
2,764167	0,1	39,885350
2,765833	0,1	39,141665
2,767500	0,1	38,402856
2,769167	0,1	37,657741
2,770833	0,1	36,929947
2,772500	0,1	36,230674
2,774167	0,1	35,549814
2,775833	0,1	34,899710
2,777500	0,1	34,226083
2,779167	0,1	33,584670
2,780833	0,1	32,972236
2,782500	0,1	32,328151
2,784167	0,1	31,765589
2,785833	0,1	31,182976
2,787500	0,1	30,598434
2,789167	0,1	30,011104
2,790833	0,1	29,469414
2,792500	0,1	28,945213
2,794167	0,1	28,436722
2,795833	0,1	27,948105
2,797500	0,1	27,414487
2,799167	0,1	26,912811
2,800833	0,1	26,457639
2,802500	0,1	25,968545
2,804167	0,1	25,493614
2,805833	0,1	25,062309
2,807500	0,1	24,608908
2,809167	0,1	24,141754
2,810833	0,1	23,736927
2,812500	0,1	23,256039
2,814167	0,1	22,894132
2,815833	0,1	22,448339
2,817500	0,1	22,091519
2,819167	0,1	21,715544
2,820833	0,1	21,333617
2,822500	0,1	20,960264
2,824167	0,1	20,649242
2,825833	0,1	20,255540
2,827500	0,1	19,922395
2,829167	0,1	19,558985
2,830833	0,1	19,210422
2,832500	0,1	18,882505
2,834167	0,1	18,572520
2,835833	0,1	18,248342
2,837500	0,1	17,981101
2,839167	0,1	17,676140
2,840833	0,1	17,362226
2,842500	0,1	17,082900
2,844167	0,1	16,795404
2,845833	0,1	16,524089
2,847500	0,1	16,301814
2,849167	0,1	15,995711
2,850833	0,1	15,699945
2,852500	0,1	15,501836
2,854167	0,1	15,253676
2,855833	0,1	15,011513
2,857500	0,1	14,801344
2,859167	0,1	14,524680
2,860833	0,1	14,314327
2,862500	0,1	14,130046
2,864167	0,1	13,904357
2,865833	0,1	13,665575
2,867500	0,1	13,495615
2,869167	0,1	13,261102
2,870833	0,1	13,088953
2,872500	0,1	12,863807
2,874167	0,1	12,719649
2,875833	0,1	12,538571
2,877500	0,1	12,335675
2,879167	0,1	12,183905
2,880833	0,1	12,043777
2,882500	0,1	11,880746
2,884167	0,1	11,748992
2,885833	0,1	11,548253
2,887500	0,1	11,362216
2,889167	0,1	11,265143
2,890833	0,1	11,072279
2,892500	0,1	10,971603
2,894167	0,1	10,812200
2,895833	0,1	10,699658
2,897500	0,1	10,562606
2,899167	0,1	10,382870
2,900833	0,1	10,323508
2,902500	0,1	10,222916
2,904167	0,1	10,085141
2,905833	0,1	9,971512
2,907500	0,1	9,836287
2,909167	0,1	9,730030
2,910833	0,1	9,633668
2,912500	0,1	9,472386
2,914167	0,1	9,423146
2,915833	0,1	9,293735
2,917500	0,1	9,236139
2,919167	0,1	9,105699
2,920833	0,1	9,029543
2,922500	0,1	8,906113
2,924167	0,1	8,793222
2,925833	0,1	8,734941
2,927500	0,1	8,681178
2,929167	0,1	8,591113
2,930833	0,1	8,481943
2,932500	0,1	8,410113
2,934167	0,1	8,318163
2,935833	0,1	8,233772
2,937500	0,1	8,154884
2,939167	0,1	8,058243
2,940833	0,1	7,985922
2,942500	0,1	7,886093
2,944167	0,1	7,853794
2,945833	0,1	7,781783
2,947500	0,1	7,706377
2,949167	0,1	7,617479
2,950833	0,1	7,642493
2,952500	0,1	7,492834
2,954167	0,1	7,474597
2,955833	0,1	7,391869
2,957500	0,1	7,347942
2,959167	0,1	7,253803
2,960833	0,1	7,175022
2,962500	0,1	7,098123
2,964167	0,1	7,073021
2,965833	0,1	7,034767
2,967500	0,1	6,947228
2,969167	0,1	6,881393
2,970833	0,1	6,862305
2,972500	0,1	6,831450
2,974167	0,1	6,770964
2,975833	0,1	6,706469
2,977500	0,1	6,636653
2,979167	0,1	6,585625
2,980833	0,1	6,548900
2,982500	0,1	6,507324
2,984167	0,1	6,439974
2,985833	0,1	6,404375
2,987500	0,1	6,358053
2,989167	0,1	6,333667
2,990833	0,1	6,221076
2,992500	0,1	6,193325
2,994167	0,1	6,190428
2,995833	0,1	6,123688
2,997500	0,1	6,108092
2,999167	0,1	6,098024
3,000833	0,1	6,081865
3,002500	0,1	6,026164
3,004167	0,1	5,953368
3,005833	0,1	5,944670
3,007500	0,1	5,873142
3,009167	0,1	5,788229
3,010833	0,1	5,842982
3,012500	0,1	5,779012
3,014167	0,1	5,745166
3,015833	0,1	5,699271
3,017500	0,1	5,685645
3,019167	0,1	5,628588
3,020833	0,1	5,590641
3,022500	0,1	5,613300
3,024167	0,1	5,550377
3,025833	0,1	5,490868
3,027500	0,1	5,446527
3,029167	0,1	5,429275
3,030833	0,1	5,375760
3,032500	0,1	5,399571
3,034167	0,1	5,372066
3,035833	0,1	5,320633
3,037500	0,1	5,286044
3,039167	0,1	5,222602
3,040833	0,1	5,224367
3,042500	0,1	5,189465
3,044167	0,1	5,145200
3,045833	0,1	5,154122
3,047500	0,1	5,110862
3,049167	0,1	5,090950
3,050833	0,1	5,031342
3,052500	0,1	5,023749
3,054167	0,1	4,999507
3,055833	0,1	4,939777
3,057500	0,1	4,901607
3,059167	0,1	4,897540
3,060833	0,1	4,861673
3,062500	0,1	4,825535
3,064167	0,1	4,790652
3,065833	0,1	4,743497
3,067500	0,1	4,709487
3,069167	0,1	4,719863
3,070833	0,1	4,700074
3,072500	0,1	4,664740
3,074167	0,1	4,622300
3,075833	0,1	4,640689
3,077500	0,1	4,585983
3,079167	0,1	4,541818
3,080833	0,1	4,516962
3,082500	0,1	4,479208
3,084167	0,1	4,489585
3,085833	0,1	4,531381
3,087500	0,1	4,428451
3,089167	0,1	4,368761
3,090833	0,1	4,409143
3,092500	0,1	4,396055
3,094167	0,1	4,306946
3,095833	0,1	4,308742
3,097500	0,1	4,328625
3,099167	0,1	4,300626
3,100833	0,1	4,263038
3,102500	0,1	4,282510
3,104167	0,1	4,213285
3,105833	0,1	4,214034
3,107500	0,1	4,210316
3,109167	0,1	4,206864
3,110833	0,1	4,119667
3,112500	0,1	4,139873
3,114167	0,1	4,128790
3,115833	0,1	4,133622
3,117500	0,1	4,111030
3,119167	0,1	4,096755
3,120833	0,1	4,080911
3,122500	0,1	4,103001
3,124167	0,1	4,067743
3,125833	0,1	4,077770
3,127500	0,1	4,031906
3,129167	0,1	4,049815
3,130833	0,1	4,047053
3,132500	0,1	4,007276
3,134167	0,1	4,052033
3,135833	0,1	4,028188
3,137500	0,1	3,978411
3,139167	0,1	4,018099
3,140833	0,1	3,993963
3,142500	0,1	4,031545
3,144167	0,1	3,988493
3,145833	0,1	3,947088
3,147500	0,1	3,991428
3,149167	0,1	3,970684
3,150833	0,1	3,960158
3,152500	0,1	3,960814
3,154167	0,1	3,962227
3,155833	0,1	3,985464
3,157500	0,1	3,940176
3,159167	0,1	3,966248
3,160833	0,1	3,915915
3,162500	0,1	3,964613
3,164167	0,1	3,909294
3,165833	0,1	3,949661
3,167500	0,1	3,928267
3,169167	0,1	3,937637
3,170833	0,1	3,920254
3,172500	0,1	3,909611
3,174167	0,1	3,879788
3,175833	0,1	3,924872
3,177500	0,1	3,900552
3,179167	0,1	3,858385
3,180833	0,1	3,838638
3,182500	0,1	3,870427
3,184167	0,1	3,851556
3,185833	0,1	3,864663
3,187500	0,1	3,839727
3,189167	0,1	3,791846
3,190833	0,1	3,802310
3,192500	0,1	3,780463
3,194167	0,1	3,719264
3,195833	0,1	3,757500
3,197500	0,1	3,733307
3,199167	0,1	3,734967
3,200833	0,1	3,722949
3,202500	0,1	3,734517
3,204167	0,1	3,660220
3,205833	0,1	3,652812
3,207500	0,1	3,631294
3,209167	0,1	3,614078
3,210833	0,1	3,652396
3,212500	0,1	3,578648
3,214167	0,1	3,559592
3,215833	0,1	3,586214
3,217500	0,1	3,541201
3,219167	0,1	3,549242
3,220833	0,1	3,514047
3,222500	0,1	3,528363
3,224167	0,1	3,497481
3,225833	0,1	3,446954
3,227500	0,1	3,399469
3,229167	0,1	3,390529
3,230833	0,1	3,367396
3,232500	0,1	3,346835
3,234167	0,1	3,330829
3,235833	0,1	3,264988
3,237500	0,1	3,272364
3,239167	0,1	3,288557
3,240833	0,1	3,241203
3,242500	0,1	3,241540
3,244167	0,1	3,206640
3,245833	0,1	3,195805
3,247500	0,1	3,157078
3,249167	0,1	3,158877
3,250833	0,1	3,104723
3,252500	0,1	3,093633
3,254167	0,1	3,063476
3,255833	0,1	3,041776
3,257500	0,1	3,017746
3,259167	0,1	3,013225
3,260833	0,1	2,988708
3,262500	0,1	2,932436
3,264167	0,1	2,929596
3,265833	0,1	2,889105
3,267500	0,1	2,874207
3,269167	0,1	2,833455
3,270833	0,1	2,836949
3,272500	0,1	2,822687
3,274167	0,1	2,782853
3,275833	0,1	2,751056
3,277500	0,1	2,751235
3,279167	0,1	2,708939
3,280833	0,1	2,717082
3,282500	0,1	2,714039
3,284167	0,1	2,659039
3,285833	0,1	2,623139
3,287500	0,1	2,589167
3,289167	0,1	2,601222
3,290833	0,1	2,545765
3,292500	0,1	2,550023
3,294167	0,1	2,553644
3,295833	0,1	2,513055
3,297500	0,1	2,492146
3,299167	0,1	2,469526
3,300833	0,1	2,447334
3,302500	0,1	2,453051
3,304167	0,1	2,409729
3,305833	0,1	2,416528
3,307500	0,1	2,337620
3,309167	0,1	2,398450
3,310833	0,1	2,323791
3,312500	0,1	2,370523
3,314167	0,1	2,280609
3,315833	0,1	2,255972
3,317500	0,1	2,292585
3,319167	0,1	2,257978
3,320833	0,1	2,217493
3,322500	0,1	2,190875
3,324167	0,1	2,207840
3,325833	0,1	2,181651
3,327500	0,1	2,152016
3,329167	0,1	2,172712
3,330833	0,1	2,145116
3,332500	0,1	2,126549
3,334167	0,1	2,131492
3,335833	0,1	2,095347
3,337500	0,1	2,061592
3,339167	0,1	2,027432
3,340833	0,1	2,064600
3,342500	0,1	2,023418
3,344167	0,1	2,004700
3,345833	0,1	2,027633
3,347500	0,1	1,992694
3,349167	0,1	1,981825
3,350833	0,1	1,953433
3,352500	0,1	1,971044
3,354167	0,1	1,951990
3,355833	0,1	1,948890
3,357500	0,1	1,924164
3,359167	0,1	1,932862
3,360833	0,1	1,871977
3,362500	0,1	1,884828
3,364167	0,1	1,902876
3,365833	0,1	1,876498
3,367500	0,1	1,906036
3,369167	0,1	1,874777
3,370833	0,1	1,846583
3,372500	0,1	1,851684
3,374167	0,1	1,823735
3,375833	0,1	1,819484
3,377500	0,1	1,823652
3,379167	0,1	1,816328
3,380833	0,1	1,774282
3,382500	0,1	1,779157
3,384167	0,1	1,792879
3,385833	0,1	1,767658
3,387500	0,1	1,778359
3,389167	0,1	1,775773
3,390833	0,1	1,753281
3,392500	0,1	1,738334
3,394167	0,1	1,751333
3,395833	0,1	1,762040
3,397500	0,1	1,757877
3,399167	0,1	1,725975
3,400833	0,1	1,750901
3,402500	0,1	1,734810
3,404167	0,1	1,722021
3,405833	0,1	1,681272
3,407500	0,1	1,711368
3,409167	0,1	1,703757
3,410833	0,1	1,719560
3,412500	0,1	1,693557
3,414167	0,1	1,710003
3,415833	0,1	1,695853
3,417500	0,1	1,684499
3,419167	0,1	1,686438
3,420833	0,1	1,678033
3,422500	0,1	1,680473
3,424167	0,1	1,680976
3,425833	0,1	1,715747
3,427500	0,1	1,662449
3,429167	0,1	1,704753
3,430833	0,1	1,703256
3,432500	0,1	1,671784
3,434167	0,1	1,699365
3,435833	0,1	1,727319
3,437500	0,1	1,704050
3,439167	0,1	1,721432
3,440833	0,1	1,735305
3,442500	0,1	1,759233
3,444167	0,1	1,731792
3,445833	0,1	1,713031
3,447500	0,1	1,745148
3,449167	0,1	1,749178
3,450833	0,1	1,744869
3,452500	0,1	1,776272
3,454167	0,1	1,781164
3,455833	0,1	1,793383
3,457500	0,1	1,835494
3,459167	0,1	1,802805
3,460833	0,1	1,843477
3,462500	0,1	1,848020
3,464167	0,1	1,855851
3,465833	0,1	1,892080
3,467500	0,1	1,882318
3,469167	0,1	1,943843
3,470833	0,1	1,924949
3,472500	0,1	1,930633
3,474167	0,1	1,981309
3,475833	0,1	1,984130
3,477500	0,1	2,000382
3,479167	0,1	2,033603
3,480833	0,1	2,081714
3,482500	0,1	2,083234
3,484167	0,1	2,129263
3,485833	0,1	2,124954
3,487500	0,1	2,146123
3,489167	0,1	2,199339
3,490833	0,1	2,199776
3,492500	0,1	2,220343
3,494167	0,1	2,257911
3,495833	0,1	2,284317
3,497500	0,1	2,283118
3,499167	0,1	2,329564
3,500833	0,1	2,354769
3,502500	0,1	2,351115
3,504167	0,1	2,403077
3,505833	0,1	2,446623
3,507500	0,1	2,429943
3,509167	0,1	2,419093
3,510833	0,1	2,466453
3,512500	0,1	2,517670
3,514167	0,1	2,526576
3,515833	0,1	2,521167
3,517500	0,1	2,588190
3,519167	0,1	2,594838
3,520833	0,1	2,614432
3,522500	0,1	2,611824
3,524167	0,1	2,653928
3,525833	0,1	2,643740
3,527500	0,1	2,651668
3,529167	0,1	2,652660
3,530833	0,1	2,744522
3,532500	0,1	2,697040
3,534167	0,1	2,710318
3,535833	0,1	2,767353
3,537500	0,1	2,721599
3,539167	0,1	2,770488
3,540833	0,1	2,788343
3,542500	0,1	2,772449
3,544167	0,1	2,764974
3,545833	0,1	2,768169
3,547500	0,1	2,804573
3,549167	0,1	2,821305
3,550833	0,1	2,801891
3,552500	0,1	2,801417
3,554167	0,1	2,845271
3,555833	0,1	2,787911
3,557500	0,1	2,806884
3,559167	0,1	2,820898
3,560833	0,1	2,829506
3,562500	0,1	2,791468
3,564167	0,1	2,825324
3,565833	0,1	2,864573
3,567500	0,1	2,829618
3,569167	0,1	2,826343
3,570833	0,1	2,824561
3,572500	0,1	2,781116
3,574167	0,1	2,775635
3,575833	0,1	2,801849
3,577500	0,1	2,781296
3,579167	0,1	2,759659
3,580833	0,1	2,773244
3,582500	0,1	2,748537
3,584167	0,1	2,719309
3,585833	0,1	2,740077
3,587500	0,1	2,750090
3,589167	0,1	2,703619
3,590833	0,1	2,679892
3,592500	0,1	2,678820
3,594167	0,1	2,697804
3,595833	0,1	2,666644
3,597500	0,1	2,646394
3,599167	0,1	2,679955
3,600833	0,1	2,646702
3,602500	0,1	2,615359
3,604167	0,1	2,615141
3,605833	0,1	2,581217
3,607500	0,1	2,597637
3,609167	0,1	2,597336
3,610833	0,1	2,572446
3,612500	0,1	2,477067
3,614167	0,1	2,541164
3,615833	0,1	2,526354
3,617500	0,1	2,473723
3,619167	0,1	2,461899
3,620833	0,1	2,444709
3,622500	0,1	2,448457
3,624167	0,1	2,442251
3,625833	0,1	2,412965
3,627500	0,1	2,396254
3,629167	0,1	2,365238
3,630833	0,1	2,383031
3,632500	0,1	2,353577
3,634167	0,1	2,302198
3,635833	0,1	2,331251
3,637500	0,1	2,289953
3,639167	0,1	2,288423
3,640833	0,1	2,297275
3,642500	0,1	2,240946
3,644167	0,1	2,250170
3,645833	0,1	2,230925
3,647500	0,1	2,187557
3,649167	0,1	2,183790
3,650833	0,1	2,187844
3,652500	0,1	2,156549
3,654167	0,1	2,113913
3,655833	0,1	2,106624
3,657500	0,1	2,060293
3,659167	0,1	2,089191
3,660833	0,1	2,091565
3,662500	0,1	2,085611
3,664167	0,1	2,071511
3,665833	0,1	2,006447
3,667500	0,1	2,040371
3,669167	0,1	1,997021
3,670833	0,1	1,989311
3,672500	0,1	2,010083
3,674167	0,1	1,940285
3,675833	0,1	1,891741
3,677500	0,1	1,958153
3,679167	0,1	1,893836
3,680833	0,1	1,928599
3,682500	0,1	1,869962
3,684167	0,1	1,900639
3,685833	0,1	1,819500
3,687500	0,1	1,851540
3,689167	0,1	1,832064
3,690833	0,1	1,803381
3,692500	0,1	1,820196
3,694167	0,1	1,727999
3,695833	0,1	1,777485
3,697500	0,1	1,784393
3,699167	0,1	1,771966
3,700833	0,1	1,720440
3,702500	0,1	1,741699
3,704167	0,1	1,733370
3,705833	0,1	1,734083
3,707500	0,1	1,684652
3,709167	0,1	1,724227
3,710833	0,1	1,682494
3,712500	0,1	1,631476
3,714167	0,1	1,684844
3,715833	0,1	1,638014
3,717500	0,1	1,675862
3,719167	0,1	1,631403
3,720833	0,1	1,613289
3,722500	0,1	1,585127
3,724167	0,1	1,625706
3,725833	0,1	1,597772
3,727500	0,1	1,574563
3,729167	0,1	1,580161
3,730833	0,1	1,554016
3,732500	0,1	1,574197
3,734167	0,1	1,598908
3,735833	0,1	1,547127
3,737500	0,1	1,494107
3,739167	0,1	1,530149
3,740833	0,1	1,552785
3,742500	0,1	1,520543
3,744167	0,1	1,503297
3,745833	0,1	1,480956
3,747500	0,1	1,495317
3,749167	0,1	1,492375
3,750833	0,1	1,479447
3,752500	0,1	1,500630
3,754167	0,1	1,467170
3,755833	0,1	1,431472
3,757500	0,1	1,474262
3,759167	0,1	1,469966
3,760833	0,1	1,417905
3,762500	0,1	1,470743
3,764167	0,1	1,440885
3,765833	0,1	1,416818
3,767500	0,1	1,417458
3,769167	0,1	1,449918
3,770833	0,1	1,399661
3,772500	0,1	1,420323
3,774167	0,1	1,404677
3,775833	0,1	1,413008
3,777500	0,1	1,385440
3,779167	0,1	1,406400
3,780833	0,1	1,363823
3,782500	0,1	1,382840
3,784167	0,1	1,393036
3,785833	0,1	1,403528
3,787500	0,1	1,352121
3,789167	0,1	1,404669
3,790833	0,1	1,368062
3,792500	0,1	1,354192
3,794167	0,1	1,355986
3,795833	0,1	1,293668
3,797500	0,1	1,362362
3,799167	0,1	1,324481
3,800833	0,1	1,356702
3,802500	0,1	1,315054
3,804167	0,1	1,317640
3,805833	0,1	1,278386
3,807500	0,1	1,308164
3,809167	0,1	1,308011
3,810833	0,1	1,289493
3,812500	0,1	1,324670
3,814167	0,1	1,268465
3,815833	0,1	1,251804
3,817500	0,1	1,241324
3,819167	0,1	1,294286
3,820833	0,1	1,281175
3,822500	0,1	1,247993
3,824167	0,1	1,261340
3,825833	0,1	1,237863
3,827500	0,1	1,198680
3,829167	0,1	1,218914
3,830833	0,1	1,237286
3,832500	0,1	1,194159
3,834167	0,1	1,203331
3,835833	0,1	1,244122
3,837500	0,1	1,201072
3,839167	0,1	1,212041
3,840833	0,1	1,222643
3,842500	0,1	1,224593
3,844167	0,1	1,217122
3,845833	0,1	1,191430
3,847500	0,1	1,159410
3,849167	0,1	1,126971
3,850833	0,1	1,158748
3,852500	0,1	1,154532
3,854167	0,1	1,124030
3,855833	0,1	1,157048
3,857500	0,1	1,144348
3,859167	0,1	1,146283
3,860833	0,1	1,139099
3,862500	0,1	1,153603
3,864167	0,1	1,121803
3,865833	0,1	1,125472
3,867500	0,1	1,111692
3,869167	0,1	1,132922
3,870833	0,1	1,092611
3,872500	0,1	1,090236
3,874167	0,1	1,087145
3,875833	0,1	1,122750
3,877500	0,1	1,080180
3,879167	0,1	1,102215
3,880833	0,1	1,070003
3,882500	0,1	1,054361
3,884167	0,1	1,102139
3,885833	0,1	1,051049
3,887500	0,1	1,078443
3,889167	0,1	1,051100
3,890833	0,1	1,059361
3,892500	0,1	1,039139
3,894167	0,1	1,018115
3,895833	0,1	1,010421
3,897500	0,1	1,022548
3,899167	0,1	1,041723
3,900833	0,1	1,019189
3,902500	0,1	1,017547
3,904167	0,1	0,975062
3,905833	0,1	1,022757
3,907500	0,1	1,047039
3,909167	0,1	1,000385
3,910833	0,1	0,950170
3,912500	0,1	0,993329
3,914167	0,1	0,963737
3,915833	0,1	0,957619
3,917500	0,1	0,977078
3,919167	0,1	0,937186
3,920833	0,1	0,976071
3,922500	0,1	0,972425
3,924167	0,1	0,943433
3,925833	0,1	0,929279
3,927500	0,1	0,942201
3,929167	0,1	0,931024
3,930833	0,1	0,916450
3,932500	0,1	0,948088
3,934167	0,1	0,924762
3,935833	0,1	0,939534
3,937500	0,1	0,941997
3,939167	0,1	0,939332
3,940833	0,1	0,929141
3,942500	0,1	0,876432
3,944167	0,1	0,888529
3,945833	0,1	0,886749
3,947500	0,1	0,889633
3,949167	0,1	0,904176
3,950833	0,1	0,892066
3,952500	0,1	0,876504
3,954167	0,1	0,911697
3,955833	0,1	0,883951
3,957500	0,1	0,860270
3,959167	0,1	0,884653
3,960833	0,1	0,898394
3,962500	0,1	0,875984
3,964167	0,1	0,880663
3,965833	0,1	0,877779
3,967500	0,1	0,879881
3,969167	0,1	0,842296
3,970833	0,1	0,902818
3,972500	0,1	0,870835
3,974167	0,1	0,849803
3,975833	0,1	0,876989
3,977500	0,1	0,868126
3,979167	0,1	0,864099
3,980833	0,1	0,834838
3,982500	0,1	0,870105
3,984167	0,1	0,832545
3,985833	0,1	0,852157
3,987500	0,1	0,838472
3,989167	0,1	0,835242
3,990833	0,1	0,848299
3,992500	0,1	0,823573
3,994167	0,1	0,841060
3,995833	0,1	0,852531
3,997500	0,1	0,891423
3,999167	0,1	0,853202
4,000833	0,1	0,828450
4,002500	0,1	0,835359
4,004167	0,1	0,835408
4,005833	0,1	0,852885
4,007500	0,1	0,818125
4,009167	0,1	0,853102
4,010833	0,1	0,854773
4,012500	0,1	0,852739
4,014167	0,1	0,835836
4,015833	0,1	0,848960
4,017500	0,1	0,814661
4,019167	0,1	0,838477
4,020833	0,1	0,811637
4,022500	0,1	0,847716
4,024167	0,1	0,811093
4,025833	0,1	0,825470
4,027500	0,1	0,850301
4,029167	0,1	0,845092
4,030833	0,1	0,866085
4,032500	0,1	0,847221
4,034167	0,1	0,858272
4,035833	0,1	0,850475
4,037500	0,1	0,849374
4,039167	0,1	0,858051
4,040833	0,1	0,849445
4,042500	0,1	0,875917
4,044167	0,1	0,913126
4,045833	0,1	0,887961
4,047500	0,1	0,899945
4,049167	0,1	0,866714
4,050833	0,1	0,928630
4,052500	0,1	0,921392
4,054167	0,1	0,920458
4,055833	0,1	0,896273
4,057500	0,1	0,889688
4,059167	0,1	0,913927
4,060833	0,1	0,914441
4,062500	0,1	0,918093
4,064167	0,1	0,906612
4,065833	0,1	0,945190
4,067500	0,1	0,947724
4,069167	0,1	0,991912
4,070833	0,1	0,977651
4,072500	0,1	0,959765
4,074167	0,1	0,960544
4,075833	0,1	0,973920
4,077500	0,1	0,990120
4,079167	0,1	1,000730
4,080833	0,1	0,996938
4,082500	0,1	1,017103
4,084167	0,1	0,984977
4,085833	0,1	1,055402
4,087500	0,1	1,084068
4,089167	0,1	1,064625
4,090833	0,1	1,061887
4,092500	0,1	1,097829
4,094167	0,1	1,106450
4,095833	0,1	1,103869
4,097500	0,1	1,140897
4,099167	0,1	1,138313
4,100833	0,1	1,140539
4,102500	0,1	1,099070
4,104167	0,1	1,142526
4,105833	0,1	1,156047
4,107500	0,1	1,194655
4,109167	0,1	1,176579
4,110833	0,1	1,217266
4,112500	0,1	1,215128
4,114167	0,1	1,283240
4,115833	0,1	1,282394
4,117500	0,1	1,255043
4,119167	0,1	1,280884
4,120833	0,1	1,324086
4,122500	0,1	1,323469
4,124167	0,1	1,334151
4,125833	0,1	1,336099
4,127500	0,1	1,353174
4,129167	0,1	1,321878
4,130833	0,1	1,408176
4,132500	0,1	1,383860
4,134167	0,1	1,416599
4,135833	0,1	1,404968
4,137500	0,1	1,425502
4,139167	0,1	1,403896
4,140833	0,1	1,421551
4,142500	0,1	1,460261
4,144167	0,1	1,487413
4,145833	0,1	1,480169
4,147500	0,1	1,438726
4,149167	0,1	1,476849
4,150833	0,1	1,541426
4,152500	0,1	1,525132
4,154167	0,1	1,554434
4,155833	0,1	1,577355
4,157500	0,1	1,601496
4,159167	0,1	1,577653
4,160833	0,1	1,587849
4,162500	0,1	1,610476
4,164167	0,1	1,576148
4,165833	0,1	1,611264
4,167500	0,1	1,614865
4,169167	0,1	1,625497
4,170833	0,1	1,708696
4,172500	0,1	1,677103
4,174167	0,1	1,653387
4,175833	0,1	1,661355
4,177500	0,1	1,686933
4,179167	0,1	1,743772
4,180833	0,1	1,724602
4,182500	0,1	1,711159
4,184167	0,1	1,732427
4,185833	0,1	1,693563
4,187500	0,1	1,717841
4,189167	0,1	1,746584
4,190833	0,1	1,724606
4,192500	0,1	1,787186
4,194167	0,1	1,786486
4,195833	0,1	1,788136
4,197500	0,1	1,805020
4,199167	0,1	1,787852
4,200833	0,1	1,777504
4,202500	0,1	1,775629
4,204167	0,1	1,792812
4,205833	0,1	1,800353
4,207500	0,1	1,812361
4,209167	0,1	1,789582
4,210833	0,1	1,847209
4,212500	0,1	1,812229
4,214167	0,1	1,805178
4,215833	0,1	1,826018
4,217500	0,1	1,842763
4,219167	0,1	1,852679
4,220833	0,1	1,838678
4,222500	0,1	1,857935
4,224167	0,1	1,856427
4,225833	0,1	1,865994
4,227500	0,1	1,843926
4,229167	0,1	1,868214
4,230833	0,1	1,877993
4,232500	0,1	1,866063
4,234167	0,1	1,841694
4,235833	0,1	1,842772
4,237500	0,1	1,858802
4,239167	0,1	1,857727
4,240833	0,1	1,842770
4,242500	0,1	1,871800
4,244167	0,1	1,881228
4,245833	0,1	1,871235
4,247500	0,1	1,864913
4,249167	0,1	1,840622
4,250833	0,1	1,879711
4,252500	0,1	1,880155
4,254167	0,1	1,870664
4,255833	0,1	1,835658
4,257500	0,1	1,882868
4,259167	0,1	1,843141
4,260833	0,1	1,873243
4,262500	0,1	1,819416
4,264167	0,1	1,856278
4,265833	0,1	1,849390
4,267500	0,1	1,846145
4,269167	0,1	1,839466
4,270833	0,1	1,820200
4,272500	0,1	1,803167
4,274167	0,1	1,823643
4,275833	0,1	1,825734
4,277500	0,1	1,815375
4,279167	0,1	1,812294
4,280833	0,1	1,816247
4,282500	0,1	1,836729
4,284167	0,1	1,832343
4,285833	0,1	1,810283
4,287500	0,1	1,799856
4,289167	0,1	1,809410
4,290833	0,1	1,762633
4,292500	0,1	1,745016
4,294167	0,1	1,773183
4,295833	0,1	1,785039
4,297500	0,1	1,769959
4,299167	0,1	1,755656
4,300833	0,1	1,776277
4,302500	0,1	1,751560
4,304167	0,1	1,697014
4,305833	0,1	1,769141
4,307500	0,1	1,708370
4,309167	0,1	1,737673
4,310833	0,1	1,691480
4,312500	0,1	1,717549
4,314167	0,1	1,711091
4,315833	0,1	1,732789
4,317500	0,1	1,682640
4,319167	0,1	1,688736
4,320833	0,1	1,682341
4,322500	0,1	1,661076
4,324167	0,1	1,664231
4,325833	0,1	1,650581
4,327500	0,1	1,639083
4,329167	0,1	1,668106
4,330833	0,1	1,656976
4,332500	0,1	1,647920
4,334167	0,1	1,638221
4,335833	0,1	1,586138
4,337500	0,1	1,609614
4,339167	0,1	1,650353
4,340833	0,1	1,590736
4,342500	0,1	1,549636
4,344167	0,1	1,574838
4,345833	0,1	1,544243
4,347500	0,1	1,542303
4,349167	0,1	1,538993
4,350833	0,1	1,524778
4,352500	0,1	1,553356
4,354167	0,1	1,485487
4,355833	0,1	1,520883
4,357500	0,1	1,464955
4,359167	0,1	1,478503
4,360833	0,1	1,514274
4,362500	0,1	1,486338
4,364167	0,1	1,494529
4,365833	0,1	1,502930
4,367500	0,1	1,483042
4,369167	0,1	1,412735
4,370833	0,1	1,452282
4,372500	0,1	1,432543
4,374167	0,1	1,444967
4,375833	0,1	1,409923
4,377500	0,1	1,389086
4,379167	0,1	1,425133
4,380833	0,1	1,386015
4,382500	0,1	1,402588
4,384167	0,1	1,360450
4,385833	0,1	1,361802
4,387500	0,1	1,386575
4,389167	0,1	1,350178
4,390833	0,1	1,348238
4,392500	0,1	1,358424
4,394167	0,1	1,339325
4,395833	0,1	1,289277
4,397500	0,1	1,329628
4,399167	0,1	1,291371
4,400833	0,1	1,310093
4,402500	0,1	1,303782
4,404167	0,1	1,307587
4,405833	0,1	1,280735
4,407500	0,1	1,263286
4,409167	0,1	1,264363
4,410833	0,1	1,223801
4,412500	0,1	1,259397
4,414167	0,1	1,241832
4,415833	0,1	1,246124
4,417500	0,1	1,225897
4,419167	0,1	1,216343
4,420833	0,1	1,206582
4,422500	0,1	1,157347
4,424167	0,1	1,200328
4,425833	0,1	1,153827
4,427500	0,1	1,170390
4,429167	0,1	1,171040
4,430833	0,1	1,086290
4,432500	0,1	1,152001
4,434167	0,1	1,117352
4,435833	0,1	1,136420
4,437500	0,1	1,086212
4,439167	0,1	1,141319
4,440833	0,1	1,101931
4,442500	0,1	1,079897
4,444167	0,1	1,070366
4,445833	0,1	1,115414
4,447500	0,1	1,055143
4,449167	0,1	1,044291
4,450833	0,1	1,044588
4,452500	0,1	1,042225
4,454167	0,1	1,033324
4,455833	0,1	1,020189
4,457500	0,1	0,986545
4,459167	0,1	1,007610
4,460833	0,1	0,983234
4,462500	0,1	1,013872
4,464167	0,1	0,964651
4,465833	0,1	0,993001
4,467500	0,1	0,964933
4,469167	0,1	0,978277
4,470833	0,1	0,966177
4,472500	0,1	0,924960
4,474167	0,1	0,946512
4,475833	0,1	0,910561
4,477500	0,1	0,951027
4,479167	0,1	0,964662
4,480833	0,1	0,888688
4,482500	0,1	0,906331
4,484167	0,1	0,896076
4,485833	0,1	0,893273
4,487500	0,1	0,902185
4,489167	0,1	0,872621
4,490833	0,1	0,873425
4,492500	0,1	0,850807
4,494167	0,1	0,863586
4,495833	0,1	0,835603
4,497500	0,1	0,801939
4,499167	0,1	0,851162
4,500833	0,1	0,847012
4,502500	0,1	0,839996
4,504167	0,1	0,815031
4,505833	0,1	0,780588
4,507500	0,1	0,818432
4,509167	0,1	0,786669
4,510833	0,1	0,788834
4,512500	0,1	0,751051
4,514167	0,1	0,746577
4,515833	0,1	0,753402
4,517500	0,1	0,788027
4,519167	0,1	0,724257
4,520833	0,1	0,721898
4,522500	0,1	0,725294
4,524167	0,1	0,749356
4,525833	0,1	0,706590
4,527500	0,1	0,713983
4,529167	0,1	0,710962
4,530833	0,1	0,680148
4,532500	0,1	0,686660
4,534167	0,1	0,698987
4,535833	0,1	0,685152
4,537500	0,1	0,695674
4,539167	0,1	0,625784
4,540833	0,1	0,695831
4,542500	0,1	0,678652
4,544167	0,1	0,650783
4,545833	0,1	0,652307
4,547500	0,1	0,656245
4,549167	0,1	0,667061
4,550833	0,1	0,653756
4,552500	0,1	0,666740
4,554167	0,1	0,598147
4,555833	0,1	0,626020
4,557500	0,1	0,601476
4,559167	0,1	0,643572
4,560833	0,1	0,634041
4,562500	0,1	0,615197
4,564167	0,1	0,612237
4,565833	0,1	0,595178
4,567500	0,1	0,583785
4,569167	0,1	0,589501
4,570833	0,1	0,593990
4,572500	0,1	0,543177
4,574167	0,1	0,554037
4,575833	0,1	0,547545
4,577500	0,1	0,533313
4,579167	0,1	0,556279
4,580833	0,1	0,558245
4,582500	0,1	0,557824
4,584167	0,1	0,593472
4,585833	0,1	0,541284
4,587500	0,1	0,554480
4,589167	0,1	0,517279
4,590833	0,1	0,492812
4,592500	0,1	0,516734
4,594167	0,1	0,513401
4,595833	0,1	0,516203
4,597500	0,1	0,512312
4,599167	0,1	0,475533
4,600833	0,1	0,500540
4,602500	0,1	0,480088
4,604167	0,1	0,535897
4,605833	0,1	0,493906
4,607500	0,1	0,468992
4,609167	0,1	0,501184
4,610833	0,1	0,489093
4,612500	0,1	0,469545
4,614167	0,1	0,422737
4,615833	0,1	0,477179
4,617500	0,1	0,474591
4,619167	0,1	0,465007
4,620833	0,1	0,451106
4,622500	0,1	0,434917
4,624167	0,1	0,446252
4,625833	0,1	0,410061
4,627500	0,1	0,445535
4,629167	0,1	0,434404
4,630833	0,1	0,403677
4,632500	0,1	0,435641
4,634167	0,1	0,405899
4,635833	0,1	0,433707
4,637500	0,1	0,406104
4,639167	0,1	0,419166
4,640833	0,1	0,370455
4,642500	0,1	0,411531
4,644167	0,1	0,374815
4,645833	0,1	0,370253
4,647500	0,1	0,356887
4,649167	0,1	0,397746
4,650833	0,1	0,400600
4,652500	0,1	0,371747
4,654167	0,1	0,348219
4,655833	0,1	0,380024
4,657500	0,1	0,371049
4,659167	0,1	0,371269
4,660833	0,1	0,387898
4,662500	0,1	0,391549
4,664167	0,1	0,357580
4,665833	0,1	0,338166
4,667500	0,1	0,332624
4,669167	0,1	0,366018
4,670833	0,1	0,342969
4,672500	0,1	0,341079
4,674167	0,1	0,359128
4,675833	0,1	0,389384
4,677500	0,1	0,360141
4,679167	0,1	0,323826
4,680833	0,1	0,328803
4,682500	0,1	0,308375
4,684167	0,1	0,311551
4,685833	0,1	0,340823
4,687500	0,1	0,352526
4,689167	0,1	0,346039
4,690833	0,1	0,313824
4,692500	0,1	0,300900
4,694167	0,1	0,297725
4,695833	0,1	0,309630
4,697500	0,1	0,318261
4,699167	0,1	0,276183
4,700833	0,1	0,275015
4,702500	0,1	0,326989
4,704167	0,1	0,304045
4,705833	0,1	0,302790
4,707500	0,1	0,229801
4,709167	0,1	0,301417
4,710833	0,1	0,293963
4,712500	0,1	0,302367
4,714167	0,1	0,294305
4,715833	0,1	0,282359
4,717500	0,1	0,255088
4,719167	0,1	0,276483
4,720833	0,1	0,315030
4,722500	0,1	0,277682
4,724167	0,1	0,313900
4,725833	0,1	0,296754
4,727500	0,1	0,289660
4,729167	0,1	0,267270
4,730833	0,1	0,203305
4,732500	0,1	0,310170
4,734167	0,1	0,276943
4,735833	0,1	0,228860
4,737500	0,1	0,242896
4,739167	0,1	0,303776
4,740833	0,1	0,265735
4,742500	0,1	0,241011
4,744167	0,1	0,258131
4,745833	0,1	0,228527
4,747500	0,1	0,255720
4,749167	0,1	0,270038
4,750833	0,1	0,229754
4,752500	0,1	0,244632
4,754167	0,1	0,265839
4,755833	0,1	0,234711
4,757500	0,1	0,226169
4,759167	0,1	0,216800
4,760833	0,1	0,244116
4,762500	0,1	0,233232
4,764167	0,1	0,240544
4,765833	0,1	0,198627
4,767500	0,1	0,245942
4,769167	0,1	0,202692
4,770833	0,1	0,233604
4,772500	0,1	0,161316
4,774167	0,1	0,193508
4,775833	0,1	0,219136
4,777500	0,1	0,224560
4,779167	0,1	0,231006
4,780833	0,1	0,226550
4,782500	0,1	0,172298
4,784167	0,1	0,187171
4,785833	0,1	0,211820
4,787500	0,1	0,151392
4,789167	0,1	0,179433
4,790833	0,1	0,204638
4,792500	0,1	0,177409
4,794167	0,1	0,173706
4,795833	0,1	0,202926
4,797500	0,1	0,139465
4,799167	0,1	0,192701
4,800833	0,1	0,195488
4,802500	0,1	0,213045
4,804167	0,1	0,181120
4,805833	0,1	0,203087
4,807500	0,1	0,193743
4,809167	0,1	0,186755
4,810833	0,1	0,182654
4,812500	0,1	0,163433
4,814167	0,1	0,160393
4,815833	0,1	0,151336
4,817500	0,1	0,190126
4,819167	0,1	0,160177
4,820833	0,1	0,168835
4,822500	0,1	0,172667
4,824167	0,1	0,168258
4,825833	0,1	0,195810
4,827500	0,1	0,141258
4,829167	0,1	0,159930
4,830833	0,1	0,201400
4,832500	0,1	0,188483
4,834167	0,1	0,187781
4,835833	0,1	0,139453
4,837500	0,1	0,147500
4,839167	0,1	0,169737
4,840833	0,1	0,180622
4,842500	0,1	0,177338
4,844167	0,1	0,140870
4,845833	0,1	0,143765
4,847500	0,1	0,150919
4,849167	0,1	0,157132
4,850833	0,1	0,164127
4,852500	0,1	0,178240
4,854167	0,1	0,113651
4,855833	0,1	0,174521
4,857500	0,1	0,110594
4,859167	0,1	0,153061
4,860833	0,1	0,133488
4,862500	0,1	0,162152
4,864167	0,1	0,119285
4,865833	0,1	0,139502
4,867500	0,1	0,122083
4,869167	0,1	0,146721
4,870833	0,1	0,113288
4,872500	0,1	0,101689
4,874167	0,1	0,131448
4,875833	0,1	0,142961
4,877500	0,1	0,127115
4,879167	0,1	0,157715
4,880833	0,1	0,126046
4,882500	0,1	0,151466
4,884167	0,1	0,082304
4,885833	0,1	0,134564
4,887500	0,1	0,137611
4,889167	0,1	0,121568
4,890833	0,1	0,133060
4,892500	0,1	0,132325
4,894167	0,1	0,104908
4,895833	0,1	0,138528
4,897500	0,1	0,127656
4,899167	0,1	0,122238
4,900833	0,1	0,129968
4,902500	0,1	0,102715
4,904167	0,1	0,112893
4,905833	0,1	0,086966
4,907500	0,1	0,147517
4,909167	0,1	0,141929
4,910833	0,1	0,079784
4,912500	0,1	0,149606
4,914167	0,1	0,127493
4,915833	0,1	0,147236
4,917500	0,1	0,096827
4,919167	0,1	0,124715
4,920833	0,1	0,087387
4,922500	0,1	0,085281
4,924167	0,1	0,120100
4,925833	0,1	0,124944
4,927500	0,1	0,120212
4,929167	0,1	0,133741
4,930833	0,1	0,144821
4,932500	0,1	0,106968
4,934167	0,1	0,092791
4,935833	0,1	0,124967
4,937500	0,1	0,104132
4,939167	0,1	0,097012
4,940833	0,1	0,133084
4,942500	0,1	0,140925
4,944167	0,1	0,103138
4,945833	0,1	0,114631
4,947500	0,1	0,121107
4,949167	0,1	0,136860
4,950833	0,1	0,119114
4,952500	0,1	0,100721
4,954167	0,1	0,118366
4,955833	0,1	0,133668
4,957500	0,1	0,119662
4,959167	0,1	0,106135
4,960833	0,1	0,107674
4,962500	0,1	0,118367
4,964167	0,1	0,119789
4,965833	0,1	0,094048
4,967500	0,1	0,125742
4,969167	0,1	0,119698
4,970833	0,1	0,144143
4,972500	0,1	0,101148
4,974167	0,1	0,121073
4,975833	0,1	0,096626
4,977500	0,1	0,108896
4,979167	0,1	0,144589
4,980833	0,1	0,145476
4,982500	0,1	0,102046
4,984167	0,1	0,139824
4,985833	0,1	0,130870
4,987500	0,1	0,099624
4,989167	0,1	0,115209
4,990833	0,1	0,132965
4,992500	0,1	0,133707
4,994167	0,1	0,114638
4,995833	0,1	0,154704
4,997500	0,1	0,094252
4,999167	0,1	0,096678
5,000833	0,1	0,132251
5,002500	0,1	0,103917
5,004167	0,1	0,146969
5,005833	0,1	0,147950
5,007500	0,1	0,104203
5,009167	0,1	0,153095
5,010833	0,1	0,124598
5,012500	0,1	0,142016
5,014167	0,1	0,172539
5,015833	0,1	0,136201
5,017500	0,1	0,195082
5,019167	0,1	0,179470
5,020833	0,1	0,159043
5,022500	0,1	0,166126
5,024167	0,1	0,155595
5,025833	0,1	0,134394
5,027500	0,1	0,142988
5,029167	0,1	0,137678
5,030833	0,1	0,197172
5,032500	0,1	0,189006
5,034167	0,1	0,200341
5,035833	0,1	0,186010
5,037500	0,1	0,177797
5,039167	0,1	0,175086
5,040833	0,1	0,183688
5,042500	0,1	0,204534
5,044167	0,1	0,202056
5,045833	0,1	0,201447
5,047500	0,1	0,220820
5,049167	0,1	0,193457
5,050833	0,1	0,148000
5,052500	0,1	0,183878
5,054167	0,1	0,210465
5,055833	0,1	0,211378
5,057500	0,1	0,201478
5,059167	0,1	0,210891
5,060833	0,1	0,164336
5,062500	0,1	0,181920
5,064167	0,1	0,238689
5,065833	0,1	0,213689
5,067500	0,1	0,179383
5,069167	0,1	0,225577
5,070833	0,1	0,199072
5,072500	0,1	0,211338
5,074167	0,1	0,195464
5,075833	0,1	0,210627
5,077500	0,1	0,197491
5,079167	0,1	0,206667
5,080833	0,1	0,237631
5,082500	0,1	0,240505
5,084167	0,1	0,257775
5,085833	0,1	0,190862
5,087500	0,1	0,221659
5,089167	0,1	0,241474
5,090833	0,1	0,225039
5,092500	0,1	0,241252
5,094167	0,1	0,223408
5,095833	0,1	0,273976
5,097500	0,1	0,223469
5,099167	0,1	0,253338
5,100833	0,1	0,241732
5,102500	0,1	0,253395
5,104167	0,1	0,212612
5,105833	0,1	0,227202
5,107500	0,1	0,244606
5,109167	0,1	0,216990
5,110833	0,1	0,254810
5,112500	0,1	0,244901
5,114167	0,1	0,293185
5,115833	0,1	0,245977
5,117500	0,1	0,238351
5,119167	0,1	0,250435
5,120833	0,1	0,269471
5,122500	0,1	0,252244
5,124167	0,1	0,260909
5,125833	0,1	0,215034
5,127500	0,1	0,300124
5,129167	0,1	0,254476
5,130833	0,1	0,240258
5,132500	0,1	0,267930
5,134167	0,1	0,219507
5,135833	0,1	0,247183
5,137500	0,1	0,245794
5,139167	0,1	0,217831
5,140833	0,1	0,240763
5,142500	0,1	0,243702
5,144167	0,1	0,245755
5,145833	0,1	0,284582
5,147500	0,1	0,262075
5,149167	0,1	0,208262
5,150833	0,1	0,214694
5,152500	0,1	0,218653
5,154167	0,1	0,197745
5,155833	0,1	0,222425
5,157500	0,1	0,226257
5,159167	0,1	0,255484
5,160833	0,1	0,220214
5,162500	0,1	0,198623
5,164167	0,1	0,218399
5,165833	0,1	0,220681
5,167500	0,1	0,240463
5,169167	0,1	0,229643
5,170833	0,1	0,245027
5,172500	0,1	0,211375
5,174167	0,1	0,204289
5,175833	0,1	0,178697
5,177500	0,1	0,253868
5,179167	0,1	0,205617
5,180833	0,1	0,232475
5,182500	0,1	0,190921
5,184167	0,1	0,180124
5,185833	0,1	0,208334
5,187500	0,1	0,188786
5,189167	0,1	0,203574
5,190833	0,1	0,208827
5,192500	0,1	0,189561
5,194167	0,1	0,123419
5,195833	0,1	0,198523
5,197500	0,1	0,177800
5,199167	0,1	0,216263
5,200833	0,1	0,181988
5,202500	0,1	0,192777
5,204167	0,1	0,190071
5,205833	0,1	0,186034
5,207500	0,1	0,147829
5,209167	0,1	0,180748
5,210833	0,1	0,166870
5,212500	0,1	0,141672
5,214167	0,1	0,124400
5,215833	0,1	0,156322
5,217500	0,1	0,152811
5,219167	0,1	0,160803
5,220833	0,1	0,147853
5,222500	0,1	0,125176
5,224167	0,1	0,148598
5,225833	0,1	0,173921
5,227500	0,1	0,115069
5,229167	0,1	0,132862
5,230833	0,1	0,185928
5,232500	0,1	0,109366
5,234167	0,1	0,099104
5,235833	0,1	0,096525
5,237500	0,1	0,125257
5,239167	0,1	0,123238
5,240833	0,1	0,153194
5,242500	0,1	0,121404
5,244167	0,1	0,103003
5,245833	0,1	0,116789
5,247500	0,1	0,090080
5,249167	0,1	0,091210
5,250833	0,1	0,122034
5,252500	0,1	0,100941
5,254167	0,1	0,097039
5,255833	0,1	0,095527
5,257500	0,1	0,078451
5,259167	0,1	0,100190
5,260833	0,1	0,108057
5,262500	0,1	0,078098
5,264167	0,1	0,081153
5,265833	0,1	0,093358
5,267500	0,1	0,083994
5,269167	0,1	0,100997
5,270833	0,1	0,086053
5,272500	0,1	0,092817
5,274167	0,1	0,051398
5,275833	0,1	-0,030582
5,277500	0,1	0,092947
5,279167	0,1	0,089148
5,280833	0,1	0,051875
5,282500	0,1	0,086685
5,284167	0,1	0,068526
5,285833	0,1	0,064596
5,287500	0,1	0,063590
5,289167	0,1	0,037153
5,290833	0,1	-0,008718
5,292500	0,1	0,061806
5,294167	0,1	0,012898
5,295833	0,1	0,053631
5,297500	0,1	0,022785
5,299167	0,1	0,005995
5,300833	0,1	0,012046
5,302500	0,1	0,018295
5,304167	0,1	0,023515
5,305833	0,1	0,013016
5,307500	0,1	-0,008144
5,309167	0,1	0,051369
5,310833	0,1	0,034732
5,312500	0,1	-0,009299
5,314167	0,1	0,000190
5,315833	0,1	0,032820
5,317500	0,1	0,032759
5,319167	0,1	0,016432
5,320833	0,1	0,042036
5,322500	0,1	-0,006784
5,324167	0,1	-0,026991
5,325833	0,1	0,004565
5,327500	0,1	-0,024347
5,329167	0,1	0,032296
5,330833	0,1	-0,015774
5,332500	0,1	-0,054460
5,334167	0,1	-0,048127
5,335833	0,1	-0,014278
5,337500	0,1	0,018386
5,339167	0,1	-0,001637
5,340833	0,1	-0,005864
5,342500	0,1	-0,008792
5,344167	0,1	-0,035299
5,345833	0,1	-0,054305
5,347500	0,1	-0,016147
5,349167	0,1	-0,022708
5,350833	0,1	-0,033723
5,352500	0,1	0,004210
5,354167	0,1	-0,055648
5,355833	0,1	-0,032765
5,357500	0,1	-0,017722
5,359167	0,1	-0,071076
5,360833	0,1	-0,074630
5,362500	0,1	-0,037278
5,364167	0,1	-0,052984
5,365833	0,1	-0,048255
5,367500	0,1	-0,049638
5,369167	0,1	-0,031831
5,370833	0,1	-0,030118
5,372500	0,1	-0,015274
5,374167	0,1	-0,043094
5,375833	0,1	-0,042681
5,377500	0,1	-0,031443
5,379167	0,1	-0,031956
5,380833	0,1	-0,103829
5,382500	0,1	-0,040377
5,384167	0,1	-0,025388
5,385833	0,1	-0,074041
5,387500	0,1	-0,053670
5,389167	0,1	-0,045839
5,390833	0,1	-0,048156
5,392500	0,1	-0,062904
5,394167	0,1	-0,055373
5,395833	0,1	-0,099615
5,397500	0,1	-0,055737
5,399167	0,1	-0,115971
5,400833	0,1	-0,096829
5,402500	0,1	-0,078759
5,404167	0,1	-0,090733
5,405833	0,1	-0,091637
5,407500	0,1	-0,049970
5,409167	0,1	-0,097618
5,410833	0,1	-0,065750
5,412500	0,1	-0,095658
5,414167	0,1	-0,102620
5,415833	0,1	-0,060504
5,417500	0,1	-0,083902
5,419167	0,1	-0,123321
5,420833	0,1	-0,106940
5,422500	0,1	-0,077120
5,424167	0,1	-0,134074
5,425833	0,1	-0,096671
5,427500	0,1	-0,072868
5,429167	0,1	-0,057212
5,430833	0,1	-0,058012
5,432500	0,1	-0,116808
5,434167	0,1	-0,093287
5,435833	0,1	-0,109089
5,437500	0,1	-0,116951
5,439167	0,1	-0,078957
5,440833	0,1	-0,133138
5,442500	0,1	-0,081536
5,444167	0,1	-0,100586
5,445833	0,1	-0,112439
5,447500	0,1	-0,096377
5,449167	0,1	-0,141709
5,450833	0,1	-0,104980
5,452500	0,1	-0,101591
5,454167	0,1	-0,135172
5,455833	0,1	-0,127001
5,457500	0,1	-0,112899
5,459167	0,1	-0,108965
5,460833	0,1	-0,160705
5,462500	0,1	-0,125847
5,464167	0,1	-0,121267
5,465833	0,1	-0,116214
5,467500	0,1	-0,096990
5,469167	0,1	-0,079466
5,470833	0,1	-0,135134
5,472500	0,1	-0,111322
5,474167	0,1	-0,114603
5,475833	0,1	-0,153657
5,477500	0,1	-0,141820
5,479167	0,1	-0,127938
5,480833	0,1	-0,133342
5,482500	0,1	-0,128644
5,484167	0,1	-0,119852
5,485833	0,1	-0,116793
5,487500	0,1	-0,145126
5,489167	0,1	-0,123076
5,490833	0,1	-0,118854
5,492500	0,1	-0,122265
5,494167	0,1	-0,173075
5,495833	0,1	-0,168899
5,497500	0,1	-0,139436
5,499167	0,1	-0,115187
5,500833	0,1	-0,167730
5,502500	0,1	-0,142335
5,504167	0,1	-0,166700
5,505833	0,1	-0,147581
5,507500	0,1	-0,135631
5,509167	0,1	-0,147090
5,510833	0,1	-0,129031
5,512500	0,1	-0,157071
5,514167	0,1	-0,145104
5,515833	0,1	-0,168052
5,517500	0,1	-0,161624
5,519167	0,1	-0,156947
5,520833	0,1	-0,149479
5,522500	0,1	-0,161167
5,524167	0,1	-0,153507
5,525833	0,1	-0,153666
5,527500	0,1	-0,179840
5,529167	0,1	-0,145877
5,530833	0,1	-0,137694
5,532500	0,1	-0,159261
5,534167	0,1	-0,181002
5,535833	0,1	-0,122732
5,537500	0,1	-0,160093
5,539167	0,1	-0,149511
5,540833	0,1	-0,148770
5,542500	0,1	-0,151828
5,544167	0,1	-0,172305
5,545833	0,1	-0,133253
5,547500	0,1	-0,136563
5,549167	0,1	-0,123010
5,550833	0,1	-0,148507
5,552500	0,1	-0,162838
5,554167	0,1	-0,157659
5,555833	0,1	-0,151830
5,557500	0,1	-0,157593
5,559167	0,1	-0,164928
5,560833	0,1	-0,168409
5,562500	0,1	-0,128200
5,564167	0,1	-0,173268
5,565833	0,1	-0,174758
5,567500	0,1	-0,163713
5,569167	0,1	-0,116673
5,570833	0,1	-0,136719
5,572500	0,1	-0,163124
5,574167	0,1	-0,200926
5,575833	0,1	-0,134420
5,577500	0,1	-0,143518
5,579167	0,1	-0,173816
5,580833	0,1	-0,176945
5,582500	0,1	-0,164809
5,584167	0,1	-0,141594
5,585833	0,1	-0,177390
5,587500	0,1	-0,162622
5,589167	0,1	-0,134766
5,590833	0,1	-0,126325
5,592500	0,1	-0,189555
5,594167	0,1	-0,157825
5,595833	0,1	-0,151638
5,597500	0,1	-0,196352
5,599167	0,1	-0,161723
5,600833	0,1	-0,187979
5,602500	0,1	-0,169866
5,604167	0,1	-0,212553
5,605833	0,1	-0,170352
5,607500	0,1	-0,136056
5,609167	0,1	-0,169951
5,610833	0,1	-0,174854
5,612500	0,1	-0,148967
5,614167	0,1	-0,164675
5,615833	0,1	-0,169025
5,617500	0,1	-0,194850
5,619167	0,1	-0,187349
5,620833	0,1	-0,156761
5,622500	0,1	-0,204723
5,624167	0,1	-0,170966
5,625833	0,1	-0,170378
5,627500	0,1	-0,150034
5,629167	0,1	-0,158528
5,630833	0,1	-0,173367
5,632500	0,1	-0,152703
5,634167	0,1	-0,160008
5,635833	0,1	-0,166540
5,637500	0,1	-0,158595
5,639167	0,1	-0,174852
5,640833	0,1	-0,168220
5,642500	0,1	-0,147522
5,644167	0,1	-0,171857
5,645833	0,1	-0,150546
5,647500	0,1	-0,201921
5,649167	0,1	-0,198198
5,650833	0,1	-0,182582
5,652500	0,1	-0,160334
5,654167	0,1	-0,185892
5,655833	0,1	-0,125629
5,657500	0,1	-0,160609
5,659167	0,1	-0,200770
5,660833	0,1	-0,132008
5,662500	0,1	-0,129124
5,664167	0,1	-0,157327
5,665833	0,1	-0,139016
5,667500	0,1	-0,168439
5,669167	0,1	-0,156820
5,670833	0,1	-0,161552
5,672500	0,1	-0,147225
5,674167	0,1	-0,165477
5,675833	0,1	-0,162778
5,677500	0,1	-0,124464
5,679167	0,1	-0,160581
5,680833	0,1	-0,166709
5,682500	0,1	-0,144686
5,684167	0,1	-0,141977
5,685833	0,1	-0,131446
5,687500	0,1	-0,126711
5,689167	0,1	-0,172751
5,690833	0,1	-0,135189
5,692500	0,1	-0,148442
5,694167	0,1	-0,122208
5,695833	0,1	-0,157522
5,697500	0,1	-0,167700
5,699167	0,1	-0,115645
5,700833	0,1	-0,118625
5,702500	0,1	-0,089840
5,704167	0,1	-0,158321
5,705833	0,1	-0,171982
5,707500	0,1	-0,112328
5,709167	0,1	-0,158547
5,710833	0,1	-0,153343
5,712500	0,1	-0,176457
5,714167	0,1	-0,126402
5,715833	0,1	-0,152308
5,717500	0,1	-0,128361
5,719167	0,1	-0,133986
5,720833	0,1	-0,130768
5,722500	0,1	-0,138011
5,724167	0,1	-0,140683
5,725833	0,1	-0,137885
5,727500	0,1	-0,119662
5,729167	0,1	-0,114955
5,730833	0,1	-0,131923
5,732500	0,1	-0,173877
5,734167	0,1	-0,143660
5,735833	0,1	-0,152116
5,737500	0,1	-0,130997
5,739167	0,1	-0,148957
5,740833	0,1	-0,158852
5,742500	0,1	-0,127942
5,744167	0,1	-0,105362
5,745833	0,1	-0,126125
5,747500	0,1	-0,158586
5,749167	0,1	-0,156981
5,750833	0,1	-0,136956
5,752500	0,1	-0,141556
5,754167	0,1	-0,114671
5,755833	0,1	-0,125644
5,757500	0,1	-0,123071
5,759167	0,1	-0,117403
5,760833	0,1	-0,107711
5,762500	0,1	-0,104360
5,764167	0,1	-0,119429
5,765833	0,1	-0,085365
5,767500	0,1	-0,157352
5,769167	0,1	-0,125398
5,770833	0,1	-0,105524
5,772500	0,1	-0,135237
5,774167	0,1	-0,109422
5,775833	0,1	-0,118463
5,777500	0,1	-0,077862
5,779167	0,1	-0,140574
5,780833	0,1	-0,133057
5,782500	0,1	-0,132831
5,784167	0,1	-0,136179
5,785833	0,1	-0,093323
5,787500	0,1	-0,157903
5,789167	0,1	-0,120730
5,790833	0,1	-0,138815
5,792500	0,1	-0,122943
5,794167	0,1	-0,111511
5,795833	0,1	-0,128059
5,797500	0,1	-0,156011
5,799167	0,1	-0,116414
5,800833	0,1	-0,143542
5,802500	0,1	-0,132738
5,804167	0,1	-0,111223
5,805833	0,1	-0,084785
5,807500	0,1	-0,125541
5,809167	0,1	-0,102334
5,810833	0,1	-0,102590
5,812500	0,1	-0,122486
5,814167	0,1	-0,134273
5,815833	0,1	-0,106234
5,817500	0,1	-0,122262
5,819167	0,1	-0,117566
5,820833	0,1	-0,137655
5,822500	0,1	-0,173978
5,824167	0,1	-0,137957
5,825833	0,1	-0,102243
5,827500	0,1	-0,113310
5,829167	0,1	-0,118496
5,830833	0,1	-0,143002
5,832500	0,1	-0,140113
5,834167	0,1	-0,124686
5,835833	0,1	-0,118208
5,837500	0,1	-0,135851
5,839167	0,1	-0,156268
5,840833	0,1	-0,145424
5,842500	0,1	-0,119439
5,844167	0,1	-0,140747
5,845833	0,1	-0,136568
5,847500	0,1	-0,133408
5,849167	0,1	-0,164735
5,850833	0,1	-0,144910
5,852500	0,1	-0,131546
5,854167	0,1	-0,139299
5,855833	0,1	-0,148187
5,857500	0,1	-0,138663
5,859167	0,1	-0,126390
5,860833	0,1	-0,145864
5,862500	0,1	-0,130931
5,864167	0,1	-0,143482
5,865833	0,1	-0,139493
5,867500	0,1	-0,105816
5,869167	0,1	-0,150563
5,870833	0,1	-0,167862
5,872500	0,1	-0,180099
5,874167	0,1	-0,120220
5,875833	0,1	-0,116179
5,877500	0,1	-0,124452
5,879167	0,1	-0,173231
5,880833	0,1	-0,106081
5,882500	0,1	-0,153494
5,884167	0,1	-0,158720
5,885833	0,1	-0,127458
5,887500	0,1	-0,140389
5,889167	0,1	-0,118952
5,890833	0,1	-0,173033
5,892500	0,1	-0,119443
5,894167	0,1	-0,178056
5,895833	0,1	-0,112457
5,897500	0,1	-0,171779
5,899167	0,1	-0,139952
5,900833	0,1	-0,149539
5,902500	0,1	-0,132092
5,904167	0,1	-0,154560
5,905833	0,1	-0,170374
5,907500	0,1	-0,155117
5,909167	0,1	-0,186598
5,910833	0,1	-0,115999
5,912500	0,1	-0,155939
5,914167	0,1	-0,163420
5,915833	0,1	-0,156855
5,917500	0,1	-0,158041
5,919167	0,1	-0,116928
5,920833	0,1	-0,158647
5,922500	0,1	-0,143041
5,924167	0,1	-0,186856
5,925833	0,1	-0,139632
5,927500	0,1	-0,197637
5,929167	0,1	-0,150548
5,930833	0,1	-0,171114
5,932500	0,1	-0,170570
5,934167	0,1	-0,157273
5,935833	0,1	-0,124751
5,937500	0,1	-0,141485
5,939167	0,1	-0,170144
5,940833	0,1	-0,163903
5,942500	0,1	-0,170410
5,944167	0,1	-0,162071
5,945833	0,1	-0,190427
5,947500	0,1	-0,134869
5,949167	0,1	-0,164442
5,950833	0,1	-0,153472
5,952500	0,1	-0,155146
5,954167	0,1	-0,139528
5,955833	0,1	-0,133118
5,957500	0,1	-0,142514
5,959167	0,1	-0,171914
5,960833	0,1	-0,191653
5,962500	0,1	-0,180202
5,964167	0,1	-0,150032
5,965833	0,1	-0,141458
5,967500	0,1	-0,143936
5,969167	0,1	-0,177837
5,970833	0,1	-0,194816
5,972500	0,1	-0,178110
5,974167	0,1	-0,180038
5,975833	0,1	-0,189760
5,977500	0,1	-0,156054
5,979167	0,1	-0,197996
5,980833	0,1	-0,189861
5,982500	0,1	-0,145752
5,984167	0,1	-0,132766
5,985833	0,1	-0,159707
5,987500	0,1	-0,172498
5,989167	0,1	-0,186700
5,990833	0,1	-0,183706
5,992500	0,1	-0,188564
5,994167	0,1	-0,178683
5,995833	0,1	-0,154827
5,997500	0,1	-0,162612
5,999167	0,1	-0,167185
6,000833	0,1	-0,169378
