File Path	chrom://chromeleon01/ikbm_chromeleon/2022/Rezex/Esteban/220612_chitin_4_7.seq/503.smp/UV_VIS_1.channel/UV_VIS_1.chm
Channel	UV_VIS_1

Injection Information:
Data Vault	ikbm_chromeleon
Injection	7_24h-ChiBS_2
Injection Number	12
Position	RB1
Comment	
Processing Method	New ProcMethod
Instrument Method	Short_Rezex_6min_194nm
Type	Unknown
Status	Finished
Injection Date	12.06.2022
Injection Time	18:25:18
Injection Volume (µl)	8,000
Dilution Factor	1,0000
Weight	1,0000

Chromatogram Data Information:
Time Min. (min)	0,000833
Time Max. (min)	6,000833
Data Points	3601
Detector	UV
Generating Data System	Chromeleon 7.2.9.11323
Exporting Data System	Chromeleon 7.2.9.0
Operator	Instrument Controller
Signal Quantity	Absorbance
Signal Unit	mAU
Signal Min.	-0,147683
Signal Max.	119,134056
Channel	UV_VIS_1
Driver Name	VWD3000.dll
Channel Type	Evaluation
Min. Step (s)	0,1
Max. Step (s)	0,1
Average Step (s)	0,1

Signal Parameter Information:
Signal Info	WVL:194 nm

Chromatogram Data:
Time (min)	Step (s)	Value (mAU)
0,000833	n.a.	-0,080483
0,002500	0,1	-0,018049
0,004167	0,1	-0,063138
0,005833	0,1	-0,065121
0,007500	0,1	-0,069714
0,009167	0,1	-0,098231
0,010833	0,1	-0,100265
0,012500	0,1	-0,029377
0,014167	0,1	-0,062245
0,015833	0,1	-0,028068
0,017500	0,1	-0,080035
0,019167	0,1	-0,083003
0,020833	0,1	-0,057582
0,022500	0,1	-0,052761
0,024167	0,1	-0,076374
0,025833	0,1	-0,058797
0,027500	0,1	-0,064296
0,029167	0,1	-0,088262
0,030833	0,1	-0,074914
0,032500	0,1	-0,101182
0,034167	0,1	-0,110330
0,035833	0,1	-0,094768
0,037500	0,1	-0,103946
0,039167	0,1	-0,099566
0,040833	0,1	-0,072801
0,042500	0,1	-0,115291
0,044167	0,1	-0,092640
0,045833	0,1	-0,083145
0,047500	0,1	-0,147683
0,049167	0,1	-0,097225
0,050833	0,1	-0,101594
0,052500	0,1	-0,112778
0,054167	0,1	-0,055826
0,055833	0,1	-0,044682
0,057500	0,1	-0,075379
0,059167	0,1	-0,085729
0,060833	0,1	-0,087607
0,062500	0,1	-0,090436
0,064167	0,1	-0,062372
0,065833	0,1	-0,066536
0,067500	0,1	-0,064830
0,069167	0,1	-0,082731
0,070833	0,1	-0,113306
0,072500	0,1	-0,083724
0,074167	0,1	-0,087958
0,075833	0,1	-0,101901
0,077500	0,1	-0,091895
0,079167	0,1	-0,101173
0,080833	0,1	-0,091349
0,082500	0,1	-0,070631
0,084167	0,1	-0,079584
0,085833	0,1	-0,098496
0,087500	0,1	-0,071976
0,089167	0,1	-0,039773
0,090833	0,1	-0,075474
0,092500	0,1	-0,097279
0,094167	0,1	-0,096276
0,095833	0,1	-0,033284
0,097500	0,1	-0,099004
0,099167	0,1	-0,051188
0,100833	0,1	-0,087418
0,102500	0,1	-0,075893
0,104167	0,1	-0,101533
0,105833	0,1	-0,073041
0,107500	0,1	-0,091047
0,109167	0,1	-0,113715
0,110833	0,1	-0,142247
0,112500	0,1	-0,111054
0,114167	0,1	-0,093773
0,115833	0,1	-0,101663
0,117500	0,1	-0,105305
0,119167	0,1	-0,096906
0,120833	0,1	-0,108802
0,122500	0,1	-0,097748
0,124167	0,1	-0,124748
0,125833	0,1	-0,106178
0,127500	0,1	-0,095815
0,129167	0,1	-0,123301
0,130833	0,1	-0,089255
0,132500	0,1	-0,097799
0,134167	0,1	-0,092189
0,135833	0,1	-0,082934
0,137500	0,1	-0,090938
0,139167	0,1	-0,101593
0,140833	0,1	-0,061310
0,142500	0,1	-0,113763
0,144167	0,1	-0,134504
0,145833	0,1	-0,081712
0,147500	0,1	-0,080691
0,149167	0,1	-0,072951
0,150833	0,1	-0,088376
0,152500	0,1	-0,107147
0,154167	0,1	-0,072846
0,155833	0,1	-0,058168
0,157500	0,1	-0,074766
0,159167	0,1	-0,084457
0,160833	0,1	-0,067606
0,162500	0,1	-0,081388
0,164167	0,1	-0,081519
0,165833	0,1	-0,056742
0,167500	0,1	-0,091368
0,169167	0,1	-0,109152
0,170833	0,1	-0,033916
0,172500	0,1	-0,055163
0,174167	0,1	-0,076374
0,175833	0,1	-0,092043
0,177500	0,1	-0,078302
0,179167	0,1	-0,107089
0,180833	0,1	-0,098082
0,182500	0,1	-0,076188
0,184167	0,1	-0,070108
0,185833	0,1	-0,094295
0,187500	0,1	-0,117578
0,189167	0,1	-0,072316
0,190833	0,1	-0,116174
0,192500	0,1	-0,093886
0,194167	0,1	-0,090004
0,195833	0,1	-0,080582
0,197500	0,1	-0,081643
0,199167	0,1	-0,110858
0,200833	0,1	-0,085626
0,202500	0,1	-0,077585
0,204167	0,1	-0,069156
0,205833	0,1	-0,098438
0,207500	0,1	-0,093701
0,209167	0,1	-0,084097
0,210833	0,1	-0,047560
0,212500	0,1	-0,058554
0,214167	0,1	-0,069811
0,215833	0,1	-0,095681
0,217500	0,1	-0,078247
0,219167	0,1	-0,121873
0,220833	0,1	-0,081444
0,222500	0,1	-0,078159
0,224167	0,1	-0,061921
0,225833	0,1	-0,094559
0,227500	0,1	-0,104183
0,229167	0,1	-0,096570
0,230833	0,1	-0,074341
0,232500	0,1	-0,081937
0,234167	0,1	-0,120864
0,235833	0,1	-0,114379
0,237500	0,1	-0,117739
0,239167	0,1	-0,110151
0,240833	0,1	-0,133525
0,242500	0,1	-0,080368
0,244167	0,1	-0,105999
0,245833	0,1	-0,067372
0,247500	0,1	-0,120568
0,249167	0,1	-0,074921
0,250833	0,1	-0,098790
0,252500	0,1	-0,070925
0,254167	0,1	-0,115474
0,255833	0,1	-0,107519
0,257500	0,1	-0,093687
0,259167	0,1	-0,055470
0,260833	0,1	-0,106456
0,262500	0,1	-0,074202
0,264167	0,1	-0,083757
0,265833	0,1	-0,103481
0,267500	0,1	-0,079409
0,269167	0,1	-0,103814
0,270833	0,1	-0,070354
0,272500	0,1	-0,063851
0,274167	0,1	-0,106991
0,275833	0,1	-0,069626
0,277500	0,1	-0,072570
0,279167	0,1	-0,058924
0,280833	0,1	-0,123309
0,282500	0,1	-0,097275
0,284167	0,1	-0,063086
0,285833	0,1	-0,113708
0,287500	0,1	-0,079259
0,289167	0,1	-0,086486
0,290833	0,1	-0,062371
0,292500	0,1	-0,111734
0,294167	0,1	-0,060570
0,295833	0,1	-0,110836
0,297500	0,1	-0,098980
0,299167	0,1	-0,086911
0,300833	0,1	-0,066247
0,302500	0,1	-0,067586
0,304167	0,1	-0,134311
0,305833	0,1	-0,091427
0,307500	0,1	-0,065240
0,309167	0,1	-0,079359
0,310833	0,1	-0,089889
0,312500	0,1	-0,073206
0,314167	0,1	-0,082217
0,315833	0,1	-0,079180
0,317500	0,1	-0,066232
0,319167	0,1	-0,116984
0,320833	0,1	-0,095525
0,322500	0,1	-0,076720
0,324167	0,1	-0,090811
0,325833	0,1	-0,079954
0,327500	0,1	-0,064049
0,329167	0,1	-0,109171
0,330833	0,1	-0,110555
0,332500	0,1	-0,085809
0,334167	0,1	-0,100334
0,335833	0,1	-0,093478
0,337500	0,1	-0,068740
0,339167	0,1	-0,083503
0,340833	0,1	-0,071733
0,342500	0,1	-0,080229
0,344167	0,1	-0,083030
0,345833	0,1	-0,077600
0,347500	0,1	-0,082218
0,349167	0,1	-0,078257
0,350833	0,1	-0,072559
0,352500	0,1	-0,099306
0,354167	0,1	-0,101118
0,355833	0,1	-0,051356
0,357500	0,1	-0,084843
0,359167	0,1	-0,097321
0,360833	0,1	-0,093487
0,362500	0,1	-0,111251
0,364167	0,1	-0,063845
0,365833	0,1	-0,088177
0,367500	0,1	-0,071399
0,369167	0,1	-0,100482
0,370833	0,1	-0,087611
0,372500	0,1	-0,089526
0,374167	0,1	-0,086392
0,375833	0,1	-0,074717
0,377500	0,1	-0,095318
0,379167	0,1	-0,113253
0,380833	0,1	-0,056358
0,382500	0,1	-0,061132
0,384167	0,1	-0,099178
0,385833	0,1	-0,069105
0,387500	0,1	-0,096141
0,389167	0,1	-0,063785
0,390833	0,1	-0,058038
0,392500	0,1	-0,106385
0,394167	0,1	-0,100953
0,395833	0,1	-0,072969
0,397500	0,1	-0,072907
0,399167	0,1	-0,080229
0,400833	0,1	-0,067001
0,402500	0,1	-0,073033
0,404167	0,1	-0,066175
0,405833	0,1	-0,071324
0,407500	0,1	-0,061891
0,409167	0,1	-0,062293
0,410833	0,1	-0,093062
0,412500	0,1	-0,107753
0,414167	0,1	-0,078990
0,415833	0,1	-0,068736
0,417500	0,1	-0,028755
0,419167	0,1	-0,092968
0,420833	0,1	-0,076019
0,422500	0,1	-0,051182
0,424167	0,1	-0,077465
0,425833	0,1	-0,083449
0,427500	0,1	-0,059975
0,429167	0,1	-0,046378
0,430833	0,1	-0,092273
0,432500	0,1	-0,075726
0,434167	0,1	-0,086961
0,435833	0,1	-0,068110
0,437500	0,1	-0,066538
0,439167	0,1	-0,080100
0,440833	0,1	-0,080467
0,442500	0,1	-0,083602
0,444167	0,1	-0,079992
0,445833	0,1	-0,068513
0,447500	0,1	-0,085560
0,449167	0,1	-0,064007
0,450833	0,1	-0,061426
0,452500	0,1	-0,099444
0,454167	0,1	-0,067566
0,455833	0,1	-0,074236
0,457500	0,1	-0,104697
0,459167	0,1	-0,054228
0,460833	0,1	-0,057448
0,462500	0,1	-0,096838
0,464167	0,1	-0,081690
0,465833	0,1	-0,102471
0,467500	0,1	-0,056928
0,469167	0,1	-0,079930
0,470833	0,1	-0,072727
0,472500	0,1	-0,050874
0,474167	0,1	-0,067401
0,475833	0,1	-0,065990
0,477500	0,1	-0,043467
0,479167	0,1	-0,107964
0,480833	0,1	-0,102787
0,482500	0,1	-0,064782
0,484167	0,1	-0,080115
0,485833	0,1	-0,120220
0,487500	0,1	-0,103713
0,489167	0,1	-0,057796
0,490833	0,1	-0,082506
0,492500	0,1	-0,079068
0,494167	0,1	-0,067828
0,495833	0,1	-0,080547
0,497500	0,1	-0,042044
0,499167	0,1	-0,124885
0,500833	0,1	-0,076293
0,502500	0,1	-0,069268
0,504167	0,1	-0,077036
0,505833	0,1	-0,059149
0,507500	0,1	-0,028752
0,509167	0,1	-0,067788
0,510833	0,1	-0,101601
0,512500	0,1	-0,053540
0,514167	0,1	-0,103109
0,515833	0,1	-0,043601
0,517500	0,1	-0,114107
0,519167	0,1	-0,051555
0,520833	0,1	-0,068982
0,522500	0,1	-0,081040
0,524167	0,1	-0,073412
0,525833	0,1	-0,063823
0,527500	0,1	-0,089925
0,529167	0,1	-0,064764
0,530833	0,1	-0,085490
0,532500	0,1	-0,051480
0,534167	0,1	-0,057547
0,535833	0,1	-0,073086
0,537500	0,1	-0,074838
0,539167	0,1	-0,054570
0,540833	0,1	-0,098713
0,542500	0,1	-0,085314
0,544167	0,1	-0,069102
0,545833	0,1	-0,092111
0,547500	0,1	-0,114835
0,549167	0,1	-0,059395
0,550833	0,1	-0,066172
0,552500	0,1	-0,135836
0,554167	0,1	-0,099672
0,555833	0,1	-0,066769
0,557500	0,1	-0,109622
0,559167	0,1	-0,059449
0,560833	0,1	-0,092108
0,562500	0,1	-0,087077
0,564167	0,1	-0,087634
0,565833	0,1	-0,050304
0,567500	0,1	-0,083736
0,569167	0,1	-0,076956
0,570833	0,1	-0,070556
0,572500	0,1	-0,103310
0,574167	0,1	-0,069750
0,575833	0,1	-0,102469
0,577500	0,1	-0,077785
0,579167	0,1	-0,076899
0,580833	0,1	-0,061192
0,582500	0,1	-0,101783
0,584167	0,1	-0,091363
0,585833	0,1	-0,076298
0,587500	0,1	-0,050553
0,589167	0,1	-0,099763
0,590833	0,1	-0,087486
0,592500	0,1	-0,089050
0,594167	0,1	-0,076774
0,595833	0,1	-0,073019
0,597500	0,1	-0,076842
0,599167	0,1	-0,054822
0,600833	0,1	-0,060248
0,602500	0,1	-0,088048
0,604167	0,1	-0,060019
0,605833	0,1	-0,075732
0,607500	0,1	-0,064636
0,609167	0,1	-0,065346
0,610833	0,1	-0,073017
0,612500	0,1	-0,044462
0,614167	0,1	-0,051050
0,615833	0,1	-0,091981
0,617500	0,1	-0,015701
0,619167	0,1	-0,082831
0,620833	0,1	-0,039413
0,622500	0,1	-0,027643
0,624167	0,1	-0,049939
0,625833	0,1	-0,051303
0,627500	0,1	-0,060430
0,629167	0,1	-0,044839
0,630833	0,1	-0,071263
0,632500	0,1	-0,063500
0,634167	0,1	-0,070568
0,635833	0,1	-0,075665
0,637500	0,1	-0,051533
0,639167	0,1	-0,025362
0,640833	0,1	-0,018078
0,642500	0,1	-0,101155
0,644167	0,1	-0,075196
0,645833	0,1	-0,076938
0,647500	0,1	-0,084554
0,649167	0,1	-0,046189
0,650833	0,1	-0,058861
0,652500	0,1	-0,059269
0,654167	0,1	-0,067276
0,655833	0,1	-0,095822
0,657500	0,1	-0,058565
0,659167	0,1	-0,050549
0,660833	0,1	-0,024467
0,662500	0,1	-0,047658
0,664167	0,1	-0,059618
0,665833	0,1	-0,049010
0,667500	0,1	-0,042205
0,669167	0,1	-0,015239
0,670833	0,1	-0,047067
0,672500	0,1	-0,053583
0,674167	0,1	-0,039754
0,675833	0,1	-0,010829
0,677500	0,1	-0,070443
0,679167	0,1	-0,028770
0,680833	0,1	-0,023593
0,682500	0,1	-0,103118
0,684167	0,1	-0,016165
0,685833	0,1	-0,053031
0,687500	0,1	-0,056216
0,689167	0,1	-0,059017
0,690833	0,1	-0,020508
0,692500	0,1	-0,050245
0,694167	0,1	-0,047508
0,695833	0,1	-0,012721
0,697500	0,1	-0,027468
0,699167	0,1	-0,006220
0,700833	0,1	-0,043438
0,702500	0,1	-0,043979
0,704167	0,1	-0,036827
0,705833	0,1	-0,007091
0,707500	0,1	-0,041353
0,709167	0,1	-0,057320
0,710833	0,1	-0,045970
0,712500	0,1	-0,023961
0,714167	0,1	-0,058337
0,715833	0,1	-0,014599
0,717500	0,1	-0,008360
0,719167	0,1	0,010599
0,720833	0,1	-0,010356
0,722500	0,1	-0,039351
0,724167	0,1	-0,011304
0,725833	0,1	0,039228
0,727500	0,1	-0,006316
0,729167	0,1	-0,005489
0,730833	0,1	0,021841
0,732500	0,1	-0,007369
0,734167	0,1	-0,000531
0,735833	0,1	-0,016292
0,737500	0,1	-0,014350
0,739167	0,1	-0,045624
0,740833	0,1	0,013335
0,742500	0,1	0,018987
0,744167	0,1	0,030289
0,745833	0,1	0,027071
0,747500	0,1	0,014834
0,749167	0,1	0,026174
0,750833	0,1	-0,009120
0,752500	0,1	0,002326
0,754167	0,1	0,040463
0,755833	0,1	0,027694
0,757500	0,1	0,031273
0,759167	0,1	0,022131
0,760833	0,1	0,042400
0,762500	0,1	0,042575
0,764167	0,1	0,049241
0,765833	0,1	0,069053
0,767500	0,1	0,061781
0,769167	0,1	0,014818
0,770833	0,1	0,072444
0,772500	0,1	0,050719
0,774167	0,1	0,038407
0,775833	0,1	0,054924
0,777500	0,1	0,037946
0,779167	0,1	0,048065
0,780833	0,1	0,063403
0,782500	0,1	0,059857
0,784167	0,1	0,014047
0,785833	0,1	0,083384
0,787500	0,1	0,004755
0,789167	0,1	0,051696
0,790833	0,1	0,033504
0,792500	0,1	0,034020
0,794167	0,1	-0,009957
0,795833	0,1	0,047286
0,797500	0,1	0,010113
0,799167	0,1	0,017744
0,800833	0,1	0,060433
0,802500	0,1	0,043123
0,804167	0,1	0,054168
0,805833	0,1	0,011846
0,807500	0,1	0,024059
0,809167	0,1	0,052300
0,810833	0,1	0,059449
0,812500	0,1	0,069190
0,814167	0,1	-0,001000
0,815833	0,1	0,013638
0,817500	0,1	0,037077
0,819167	0,1	0,056969
0,820833	0,1	0,021314
0,822500	0,1	0,014288
0,824167	0,1	0,019495
0,825833	0,1	0,019203
0,827500	0,1	-0,004569
0,829167	0,1	0,053987
0,830833	0,1	0,016171
0,832500	0,1	0,001406
0,834167	0,1	0,004918
0,835833	0,1	0,033210
0,837500	0,1	0,013928
0,839167	0,1	0,034082
0,840833	0,1	0,000893
0,842500	0,1	0,030985
0,844167	0,1	0,026484
0,845833	0,1	0,022549
0,847500	0,1	0,051587
0,849167	0,1	0,017166
0,850833	0,1	0,043146
0,852500	0,1	0,008285
0,854167	0,1	0,017618
0,855833	0,1	0,019326
0,857500	0,1	0,061439
0,859167	0,1	0,006752
0,860833	0,1	0,001111
0,862500	0,1	-0,015229
0,864167	0,1	-0,011186
0,865833	0,1	-0,032563
0,867500	0,1	0,032557
0,869167	0,1	-0,025818
0,870833	0,1	-0,005044
0,872500	0,1	-0,008132
0,874167	0,1	-0,032143
0,875833	0,1	0,001577
0,877500	0,1	0,016972
0,879167	0,1	-0,003813
0,880833	0,1	0,029400
0,882500	0,1	0,004562
0,884167	0,1	-0,000765
0,885833	0,1	-0,023796
0,887500	0,1	0,015973
0,889167	0,1	0,024548
0,890833	0,1	0,028696
0,892500	0,1	0,046266
0,894167	0,1	0,006284
0,895833	0,1	-0,007556
0,897500	0,1	-0,021237
0,899167	0,1	0,043791
0,900833	0,1	0,020216
0,902500	0,1	0,017690
0,904167	0,1	0,027755
0,905833	0,1	0,013691
0,907500	0,1	0,024129
0,909167	0,1	0,001464
0,910833	0,1	0,011345
0,912500	0,1	-0,017215
0,914167	0,1	-0,034889
0,915833	0,1	0,029031
0,917500	0,1	0,009387
0,919167	0,1	0,039890
0,920833	0,1	0,003833
0,922500	0,1	0,016036
0,924167	0,1	0,017507
0,925833	0,1	0,027248
0,927500	0,1	0,022774
0,929167	0,1	0,015815
0,930833	0,1	0,006290
0,932500	0,1	0,034668
0,934167	0,1	0,012327
0,935833	0,1	0,026616
0,937500	0,1	0,045904
0,939167	0,1	0,050892
0,940833	0,1	0,031810
0,942500	0,1	0,025996
0,944167	0,1	0,052527
0,945833	0,1	0,019855
0,947500	0,1	0,069677
0,949167	0,1	-0,008466
0,950833	0,1	0,068043
0,952500	0,1	0,060141
0,954167	0,1	0,059799
0,955833	0,1	0,057857
0,957500	0,1	0,060568
0,959167	0,1	0,035132
0,960833	0,1	0,045737
0,962500	0,1	0,084668
0,964167	0,1	0,058451
0,965833	0,1	0,071223
0,967500	0,1	0,070098
0,969167	0,1	0,094879
0,970833	0,1	0,046498
0,972500	0,1	0,056745
0,974167	0,1	0,075901
0,975833	0,1	0,057160
0,977500	0,1	0,116436
0,979167	0,1	0,085860
0,980833	0,1	0,080948
0,982500	0,1	0,085264
0,984167	0,1	0,109346
0,985833	0,1	0,083046
0,987500	0,1	0,100271
0,989167	0,1	0,124052
0,990833	0,1	0,126047
0,992500	0,1	0,091773
0,994167	0,1	0,096635
0,995833	0,1	0,135589
0,997500	0,1	0,144496
0,999167	0,1	0,125104
1,000833	0,1	0,147875
1,002500	0,1	0,165815
1,004167	0,1	0,175238
1,005833	0,1	0,170624
1,007500	0,1	0,137995
1,009167	0,1	0,180516
1,010833	0,1	0,165169
1,012500	0,1	0,205885
1,014167	0,1	0,202200
1,015833	0,1	0,216016
1,017500	0,1	0,211581
1,019167	0,1	0,224108
1,020833	0,1	0,228092
1,022500	0,1	0,261830
1,024167	0,1	0,255221
1,025833	0,1	0,248369
1,027500	0,1	0,296058
1,029167	0,1	0,283706
1,030833	0,1	0,267580
1,032500	0,1	0,322538
1,034167	0,1	0,350086
1,035833	0,1	0,330180
1,037500	0,1	0,358415
1,039167	0,1	0,342658
1,040833	0,1	0,322201
1,042500	0,1	0,388882
1,044167	0,1	0,374013
1,045833	0,1	0,376004
1,047500	0,1	0,415263
1,049167	0,1	0,397282
1,050833	0,1	0,409347
1,052500	0,1	0,497497
1,054167	0,1	0,549158
1,055833	0,1	0,568397
1,057500	0,1	0,628962
1,059167	0,1	0,683798
1,060833	0,1	0,806393
1,062500	0,1	0,968101
1,064167	0,1	1,139387
1,065833	0,1	1,365667
1,067500	0,1	1,619424
1,069167	0,1	2,040218
1,070833	0,1	2,436015
1,072500	0,1	2,996279
1,074167	0,1	3,647516
1,075833	0,1	4,367252
1,077500	0,1	5,242485
1,079167	0,1	6,296260
1,080833	0,1	7,434419
1,082500	0,1	8,711659
1,084167	0,1	10,228994
1,085833	0,1	11,764707
1,087500	0,1	13,447394
1,089167	0,1	15,233084
1,090833	0,1	17,145682
1,092500	0,1	19,081340
1,094167	0,1	21,018661
1,095833	0,1	23,002555
1,097500	0,1	24,931614
1,099167	0,1	26,862558
1,100833	0,1	28,691129
1,102500	0,1	30,385071
1,104167	0,1	31,977583
1,105833	0,1	33,393866
1,107500	0,1	34,617184
1,109167	0,1	35,726563
1,110833	0,1	36,579744
1,112500	0,1	37,288435
1,114167	0,1	37,802319
1,115833	0,1	38,141209
1,117500	0,1	38,268335
1,119167	0,1	38,264851
1,120833	0,1	38,129134
1,122500	0,1	37,816101
1,124167	0,1	37,405692
1,125833	0,1	36,902615
1,127500	0,1	36,254659
1,129167	0,1	35,535653
1,130833	0,1	34,771165
1,132500	0,1	33,976007
1,134167	0,1	33,116392
1,135833	0,1	32,234925
1,137500	0,1	31,325575
1,139167	0,1	30,473128
1,140833	0,1	29,567541
1,142500	0,1	28,718858
1,144167	0,1	27,922601
1,145833	0,1	27,084112
1,147500	0,1	26,325967
1,149167	0,1	25,615339
1,150833	0,1	24,977517
1,152500	0,1	24,370709
1,154167	0,1	23,792034
1,155833	0,1	23,306099
1,157500	0,1	22,854133
1,159167	0,1	22,474054
1,160833	0,1	22,080647
1,162500	0,1	21,773511
1,164167	0,1	21,504229
1,165833	0,1	21,263220
1,167500	0,1	21,065482
1,169167	0,1	20,901116
1,170833	0,1	20,735554
1,172500	0,1	20,602242
1,174167	0,1	20,471447
1,175833	0,1	20,377072
1,177500	0,1	20,277893
1,179167	0,1	20,182610
1,180833	0,1	20,140054
1,182500	0,1	20,017121
1,184167	0,1	20,015946
1,185833	0,1	20,012015
1,187500	0,1	19,964696
1,189167	0,1	20,028979
1,190833	0,1	20,068794
1,192500	0,1	20,258305
1,194167	0,1	20,463824
1,195833	0,1	20,779094
1,197500	0,1	21,210730
1,199167	0,1	21,828513
1,200833	0,1	22,549427
1,202500	0,1	23,461985
1,204167	0,1	24,594666
1,205833	0,1	25,951833
1,207500	0,1	27,523593
1,209167	0,1	29,420406
1,210833	0,1	31,541267
1,212500	0,1	33,947162
1,214167	0,1	36,606902
1,215833	0,1	39,584439
1,217500	0,1	42,834174
1,219167	0,1	46,327007
1,220833	0,1	50,004542
1,222500	0,1	53,908879
1,224167	0,1	57,968710
1,225833	0,1	62,163592
1,227500	0,1	66,404041
1,229167	0,1	70,747059
1,230833	0,1	75,066779
1,232500	0,1	79,310561
1,234167	0,1	83,520165
1,235833	0,1	87,578218
1,237500	0,1	91,455943
1,239167	0,1	95,210329
1,240833	0,1	98,684697
1,242500	0,1	102,000179
1,244167	0,1	104,988083
1,245833	0,1	107,721360
1,247500	0,1	110,144122
1,249167	0,1	112,298566
1,250833	0,1	114,179904
1,252500	0,1	115,717555
1,254167	0,1	116,981215
1,255833	0,1	117,962277
1,257500	0,1	118,647385
1,259167	0,1	119,018181
1,260833	0,1	119,134056
1,262500	0,1	118,891336
1,264167	0,1	118,524708
1,265833	0,1	117,819868
1,267500	0,1	116,911055
1,269167	0,1	115,804234
1,270833	0,1	114,417127
1,272500	0,1	112,875143
1,274167	0,1	111,134503
1,275833	0,1	109,278932
1,277500	0,1	107,196615
1,279167	0,1	105,106387
1,280833	0,1	102,860839
1,282500	0,1	100,511392
1,284167	0,1	98,055522
1,285833	0,1	95,598183
1,287500	0,1	93,094408
1,289167	0,1	90,541718
1,290833	0,1	87,991527
1,292500	0,1	85,399212
1,294167	0,1	82,935694
1,295833	0,1	80,406766
1,297500	0,1	77,935273
1,299167	0,1	75,493817
1,300833	0,1	73,150228
1,302500	0,1	70,889241
1,304167	0,1	68,633240
1,305833	0,1	66,431110
1,307500	0,1	64,375506
1,309167	0,1	62,334433
1,310833	0,1	60,327758
1,312500	0,1	58,466765
1,314167	0,1	56,657825
1,315833	0,1	54,961055
1,317500	0,1	53,300058
1,319167	0,1	51,699543
1,320833	0,1	50,147713
1,322500	0,1	48,732416
1,324167	0,1	47,285672
1,325833	0,1	45,956100
1,327500	0,1	44,625986
1,329167	0,1	43,388964
1,330833	0,1	42,251191
1,332500	0,1	41,117144
1,334167	0,1	39,986639
1,335833	0,1	38,962100
1,337500	0,1	37,940218
1,339167	0,1	36,923303
1,340833	0,1	36,010187
1,342500	0,1	35,118565
1,344167	0,1	34,204922
1,345833	0,1	33,319783
1,347500	0,1	32,579290
1,349167	0,1	31,781495
1,350833	0,1	30,986159
1,352500	0,1	30,220430
1,354167	0,1	29,511282
1,355833	0,1	28,833389
1,357500	0,1	28,145380
1,359167	0,1	27,472662
1,360833	0,1	26,786687
1,362500	0,1	26,213362
1,364167	0,1	25,579802
1,365833	0,1	24,942805
1,367500	0,1	24,403307
1,369167	0,1	23,859704
1,370833	0,1	23,270179
1,372500	0,1	22,777665
1,374167	0,1	22,283001
1,375833	0,1	21,757932
1,377500	0,1	21,242532
1,379167	0,1	20,758983
1,380833	0,1	20,292394
1,382500	0,1	19,892823
1,384167	0,1	19,468434
1,385833	0,1	19,006395
1,387500	0,1	18,573897
1,389167	0,1	18,209632
1,390833	0,1	17,793901
1,392500	0,1	17,436879
1,394167	0,1	17,065563
1,395833	0,1	16,722659
1,397500	0,1	16,379260
1,399167	0,1	16,056556
1,400833	0,1	15,740275
1,402500	0,1	15,436318
1,404167	0,1	15,126667
1,405833	0,1	14,823784
1,407500	0,1	14,536348
1,409167	0,1	14,291466
1,410833	0,1	14,011556
1,412500	0,1	13,757553
1,414167	0,1	13,545410
1,415833	0,1	13,297331
1,417500	0,1	13,109635
1,419167	0,1	12,848207
1,420833	0,1	12,662227
1,422500	0,1	12,418490
1,424167	0,1	12,230433
1,425833	0,1	12,037399
1,427500	0,1	11,794044
1,429167	0,1	11,632180
1,430833	0,1	11,498809
1,432500	0,1	11,291180
1,434167	0,1	11,110968
1,435833	0,1	10,948048
1,437500	0,1	10,750241
1,439167	0,1	10,619751
1,440833	0,1	10,468098
1,442500	0,1	10,288557
1,444167	0,1	10,122015
1,445833	0,1	9,994113
1,447500	0,1	9,829546
1,449167	0,1	9,691072
1,450833	0,1	9,571487
1,452500	0,1	9,396310
1,454167	0,1	9,269947
1,455833	0,1	9,160524
1,457500	0,1	9,016161
1,459167	0,1	8,921766
1,460833	0,1	8,753963
1,462500	0,1	8,669913
1,464167	0,1	8,521070
1,465833	0,1	8,476464
1,467500	0,1	8,297124
1,469167	0,1	8,201914
1,470833	0,1	8,148829
1,472500	0,1	8,035973
1,474167	0,1	7,940836
1,475833	0,1	7,872142
1,477500	0,1	7,784245
1,479167	0,1	7,715217
1,480833	0,1	7,673913
1,482500	0,1	7,568569
1,484167	0,1	7,506823
1,485833	0,1	7,458710
1,487500	0,1	7,409220
1,489167	0,1	7,287142
1,490833	0,1	7,273167
1,492500	0,1	7,228934
1,494167	0,1	7,192380
1,495833	0,1	7,171666
1,497500	0,1	7,130452
1,499167	0,1	7,037796
1,500833	0,1	7,035427
1,502500	0,1	6,995214
1,504167	0,1	6,964535
1,505833	0,1	6,948058
1,507500	0,1	6,885368
1,509167	0,1	6,891243
1,510833	0,1	6,868388
1,512500	0,1	6,834821
1,514167	0,1	6,828512
1,515833	0,1	6,787559
1,517500	0,1	6,752660
1,519167	0,1	6,752505
1,520833	0,1	6,726230
1,522500	0,1	6,706467
1,524167	0,1	6,685584
1,525833	0,1	6,678953
1,527500	0,1	6,622861
1,529167	0,1	6,617497
1,530833	0,1	6,620566
1,532500	0,1	6,593845
1,534167	0,1	6,564873
1,535833	0,1	6,550143
1,537500	0,1	6,495425
1,539167	0,1	6,495753
1,540833	0,1	6,485889
1,542500	0,1	6,443797
1,544167	0,1	6,419889
1,545833	0,1	6,421559
1,547500	0,1	6,343789
1,549167	0,1	6,322230
1,550833	0,1	6,327683
1,552500	0,1	6,301609
1,554167	0,1	6,323513
1,555833	0,1	6,310388
1,557500	0,1	6,275807
1,559167	0,1	6,271237
1,560833	0,1	6,235260
1,562500	0,1	6,212501
1,564167	0,1	6,181827
1,565833	0,1	6,142310
1,567500	0,1	6,175278
1,569167	0,1	6,164667
1,570833	0,1	6,080126
1,572500	0,1	6,102262
1,574167	0,1	6,056234
1,575833	0,1	6,050846
1,577500	0,1	6,042792
1,579167	0,1	6,022797
1,580833	0,1	5,950521
1,582500	0,1	5,952784
1,584167	0,1	5,858137
1,585833	0,1	5,873203
1,587500	0,1	5,853503
1,589167	0,1	5,842402
1,590833	0,1	5,772774
1,592500	0,1	5,743879
1,594167	0,1	5,718218
1,595833	0,1	5,698189
1,597500	0,1	5,685297
1,599167	0,1	5,624292
1,600833	0,1	5,593210
1,602500	0,1	5,557935
1,604167	0,1	5,512350
1,605833	0,1	5,471290
1,607500	0,1	5,459833
1,609167	0,1	5,386094
1,610833	0,1	5,398508
1,612500	0,1	5,359918
1,614167	0,1	5,297081
1,615833	0,1	5,275314
1,617500	0,1	5,242398
1,619167	0,1	5,205971
1,620833	0,1	5,170816
1,622500	0,1	5,123665
1,624167	0,1	5,049510
1,625833	0,1	5,057825
1,627500	0,1	5,039218
1,629167	0,1	4,961926
1,630833	0,1	4,989290
1,632500	0,1	4,915980
1,634167	0,1	4,847759
1,635833	0,1	4,806037
1,637500	0,1	4,795042
1,639167	0,1	4,759879
1,640833	0,1	4,723676
1,642500	0,1	4,659075
1,644167	0,1	4,614390
1,645833	0,1	4,593092
1,647500	0,1	4,584494
1,649167	0,1	4,577198
1,650833	0,1	4,502512
1,652500	0,1	4,467779
1,654167	0,1	4,474852
1,655833	0,1	4,401564
1,657500	0,1	4,424799
1,659167	0,1	4,366062
1,660833	0,1	4,374852
1,662500	0,1	4,261571
1,664167	0,1	4,291920
1,665833	0,1	4,276058
1,667500	0,1	4,317952
1,669167	0,1	4,261653
1,670833	0,1	4,242672
1,672500	0,1	4,177777
1,674167	0,1	4,222328
1,675833	0,1	4,175597
1,677500	0,1	4,262709
1,679167	0,1	4,174456
1,680833	0,1	4,225078
1,682500	0,1	4,197994
1,684167	0,1	4,226098
1,685833	0,1	4,169044
1,687500	0,1	4,183461
1,689167	0,1	4,201910
1,690833	0,1	4,252295
1,692500	0,1	4,269695
1,694167	0,1	4,225477
1,695833	0,1	4,262884
1,697500	0,1	4,282978
1,699167	0,1	4,283498
1,700833	0,1	4,352564
1,702500	0,1	4,316745
1,704167	0,1	4,337415
1,705833	0,1	4,352002
1,707500	0,1	4,359312
1,709167	0,1	4,384153
1,710833	0,1	4,385568
1,712500	0,1	4,398897
1,714167	0,1	4,407097
1,715833	0,1	4,415362
1,717500	0,1	4,513192
1,719167	0,1	4,446692
1,720833	0,1	4,439233
1,722500	0,1	4,467783
1,724167	0,1	4,475884
1,725833	0,1	4,468636
1,727500	0,1	4,488993
1,729167	0,1	4,466856
1,730833	0,1	4,516668
1,732500	0,1	4,513811
1,734167	0,1	4,472143
1,735833	0,1	4,478030
1,737500	0,1	4,475388
1,739167	0,1	4,445576
1,740833	0,1	4,461624
1,742500	0,1	4,438738
1,744167	0,1	4,432403
1,745833	0,1	4,421934
1,747500	0,1	4,378176
1,749167	0,1	4,321606
1,750833	0,1	4,312398
1,752500	0,1	4,328140
1,754167	0,1	4,293127
1,755833	0,1	4,251243
1,757500	0,1	4,236516
1,759167	0,1	4,221816
1,760833	0,1	4,171920
1,762500	0,1	4,106105
1,764167	0,1	4,103488
1,765833	0,1	4,080351
1,767500	0,1	4,079824
1,769167	0,1	3,998743
1,770833	0,1	3,939155
1,772500	0,1	3,912565
1,774167	0,1	3,889093
1,775833	0,1	3,841378
1,777500	0,1	3,736837
1,779167	0,1	3,718919
1,780833	0,1	3,706930
1,782500	0,1	3,632246
1,784167	0,1	3,629270
1,785833	0,1	3,538722
1,787500	0,1	3,517058
1,789167	0,1	3,492673
1,790833	0,1	3,437127
1,792500	0,1	3,431496
1,794167	0,1	3,366879
1,795833	0,1	3,299943
1,797500	0,1	3,286513
1,799167	0,1	3,259406
1,800833	0,1	3,191276
1,802500	0,1	3,139441
1,804167	0,1	3,079090
1,805833	0,1	3,046010
1,807500	0,1	3,020152
1,809167	0,1	2,935552
1,810833	0,1	2,922635
1,812500	0,1	2,894244
1,814167	0,1	2,849135
1,815833	0,1	2,757015
1,817500	0,1	2,785288
1,819167	0,1	2,701965
1,820833	0,1	2,678191
1,822500	0,1	2,653886
1,824167	0,1	2,596730
1,825833	0,1	2,600586
1,827500	0,1	2,582960
1,829167	0,1	2,506208
1,830833	0,1	2,515325
1,832500	0,1	2,509180
1,834167	0,1	2,474562
1,835833	0,1	2,461491
1,837500	0,1	2,479732
1,839167	0,1	2,439650
1,840833	0,1	2,447053
1,842500	0,1	2,493484
1,844167	0,1	2,465065
1,845833	0,1	2,508412
1,847500	0,1	2,558339
1,849167	0,1	2,566619
1,850833	0,1	2,576744
1,852500	0,1	2,693269
1,854167	0,1	2,656329
1,855833	0,1	2,696646
1,857500	0,1	2,787607
1,859167	0,1	2,859577
1,860833	0,1	2,883511
1,862500	0,1	2,877970
1,864167	0,1	2,962251
1,865833	0,1	3,021696
1,867500	0,1	3,099196
1,869167	0,1	3,115623
1,870833	0,1	3,220088
1,872500	0,1	3,221751
1,874167	0,1	3,291195
1,875833	0,1	3,332225
1,877500	0,1	3,333892
1,879167	0,1	3,459313
1,880833	0,1	3,475059
1,882500	0,1	3,496701
1,884167	0,1	3,509329
1,885833	0,1	3,598861
1,887500	0,1	3,612521
1,889167	0,1	3,654089
1,890833	0,1	3,731961
1,892500	0,1	3,746416
1,894167	0,1	3,800766
1,895833	0,1	3,829438
1,897500	0,1	3,864235
1,899167	0,1	3,877459
1,900833	0,1	3,893638
1,902500	0,1	3,945983
1,904167	0,1	3,975816
1,905833	0,1	4,012006
1,907500	0,1	4,037438
1,909167	0,1	4,094350
1,910833	0,1	4,093511
1,912500	0,1	4,099722
1,914167	0,1	4,110340
1,915833	0,1	4,116128
1,917500	0,1	4,174760
1,919167	0,1	4,152393
1,920833	0,1	4,107665
1,922500	0,1	4,168567
1,924167	0,1	4,142863
1,925833	0,1	4,196234
1,927500	0,1	4,159550
1,929167	0,1	4,142998
1,930833	0,1	4,186270
1,932500	0,1	4,155796
1,934167	0,1	4,153399
1,935833	0,1	4,177231
1,937500	0,1	4,156519
1,939167	0,1	4,123782
1,940833	0,1	4,085791
1,942500	0,1	4,124116
1,944167	0,1	4,096694
1,945833	0,1	4,105148
1,947500	0,1	4,089377
1,949167	0,1	4,041439
1,950833	0,1	4,035726
1,952500	0,1	4,038818
1,954167	0,1	4,018603
1,955833	0,1	4,006019
1,957500	0,1	3,997425
1,959167	0,1	3,971501
1,960833	0,1	3,948890
1,962500	0,1	3,956542
1,964167	0,1	3,966926
1,965833	0,1	3,961951
1,967500	0,1	3,936104
1,969167	0,1	3,893218
1,970833	0,1	3,852985
1,972500	0,1	3,890954
1,974167	0,1	3,872052
1,975833	0,1	3,876093
1,977500	0,1	3,859630
1,979167	0,1	3,869654
1,980833	0,1	3,848153
1,982500	0,1	3,856014
1,984167	0,1	3,814796
1,985833	0,1	3,848786
1,987500	0,1	3,831109
1,989167	0,1	3,814077
1,990833	0,1	3,755741
1,992500	0,1	3,797164
1,994167	0,1	3,791330
1,995833	0,1	3,790017
1,997500	0,1	3,813544
1,999167	0,1	3,811543
2,000833	0,1	3,808861
2,002500	0,1	3,823806
2,004167	0,1	3,831529
2,005833	0,1	3,813130
2,007500	0,1	3,815505
2,009167	0,1	3,852831
2,010833	0,1	3,810677
2,012500	0,1	3,838107
2,014167	0,1	3,830537
2,015833	0,1	3,853195
2,017500	0,1	3,905965
2,019167	0,1	3,903526
2,020833	0,1	3,885045
2,022500	0,1	3,892041
2,024167	0,1	3,879346
2,025833	0,1	3,916368
2,027500	0,1	3,929240
2,029167	0,1	3,980724
2,030833	0,1	4,021163
2,032500	0,1	4,003130
2,034167	0,1	4,006581
2,035833	0,1	4,016850
2,037500	0,1	4,072541
2,039167	0,1	4,050602
2,040833	0,1	4,099404
2,042500	0,1	4,110328
2,044167	0,1	4,143360
2,045833	0,1	4,191872
2,047500	0,1	4,173788
2,049167	0,1	4,199643
2,050833	0,1	4,222183
2,052500	0,1	4,286871
2,054167	0,1	4,275243
2,055833	0,1	4,314233
2,057500	0,1	4,355249
2,059167	0,1	4,331222
2,060833	0,1	4,383723
2,062500	0,1	4,405066
2,064167	0,1	4,479661
2,065833	0,1	4,464733
2,067500	0,1	4,483598
2,069167	0,1	4,499372
2,070833	0,1	4,551605
2,072500	0,1	4,516287
2,074167	0,1	4,604286
2,075833	0,1	4,583385
2,077500	0,1	4,601336
2,079167	0,1	4,643955
2,080833	0,1	4,648136
2,082500	0,1	4,701128
2,084167	0,1	4,709548
2,085833	0,1	4,764214
2,087500	0,1	4,715677
2,089167	0,1	4,805568
2,090833	0,1	4,819163
2,092500	0,1	4,800672
2,094167	0,1	4,824916
2,095833	0,1	4,846673
2,097500	0,1	4,857331
2,099167	0,1	4,909200
2,100833	0,1	4,926773
2,102500	0,1	4,872980
2,104167	0,1	4,869657
2,105833	0,1	4,927258
2,107500	0,1	4,923364
2,109167	0,1	4,915936
2,110833	0,1	4,916770
2,112500	0,1	4,936257
2,114167	0,1	5,029752
2,115833	0,1	4,995326
2,117500	0,1	5,011705
2,119167	0,1	4,991099
2,120833	0,1	5,024239
2,122500	0,1	5,006193
2,124167	0,1	5,034015
2,125833	0,1	5,034494
2,127500	0,1	5,057791
2,129167	0,1	5,050996
2,130833	0,1	5,041795
2,132500	0,1	5,071653
2,134167	0,1	5,024524
2,135833	0,1	5,044779
2,137500	0,1	5,040539
2,139167	0,1	5,089086
2,140833	0,1	5,058843
2,142500	0,1	5,027749
2,144167	0,1	5,054998
2,145833	0,1	5,015291
2,147500	0,1	5,001810
2,149167	0,1	5,072946
2,150833	0,1	5,007164
2,152500	0,1	5,018667
2,154167	0,1	5,026043
2,155833	0,1	5,020339
2,157500	0,1	5,004545
2,159167	0,1	5,003268
2,160833	0,1	4,956627
2,162500	0,1	4,996428
2,164167	0,1	4,965353
2,165833	0,1	4,958180
2,167500	0,1	4,946507
2,169167	0,1	4,930011
2,170833	0,1	4,949469
2,172500	0,1	4,974514
2,174167	0,1	4,912563
2,175833	0,1	4,895224
2,177500	0,1	4,903035
2,179167	0,1	4,899103
2,180833	0,1	4,879537
2,182500	0,1	4,870937
2,184167	0,1	4,869423
2,185833	0,1	4,863249
2,187500	0,1	4,843478
2,189167	0,1	4,842041
2,190833	0,1	4,831778
2,192500	0,1	4,826462
2,194167	0,1	4,846697
2,195833	0,1	4,851264
2,197500	0,1	4,823494
2,199167	0,1	4,801013
2,200833	0,1	4,800535
2,202500	0,1	4,805356
2,204167	0,1	4,775120
2,205833	0,1	4,786910
2,207500	0,1	4,809259
2,209167	0,1	4,762022
2,210833	0,1	4,782086
2,212500	0,1	4,775400
2,214167	0,1	4,818349
2,215833	0,1	4,805204
2,217500	0,1	4,803691
2,219167	0,1	4,841121
2,220833	0,1	4,810574
2,222500	0,1	4,849482
2,224167	0,1	4,831414
2,225833	0,1	4,833077
2,227500	0,1	4,897498
2,229167	0,1	4,902697
2,230833	0,1	4,927577
2,232500	0,1	4,962755
2,234167	0,1	4,941739
2,235833	0,1	4,999989
2,237500	0,1	4,982863
2,239167	0,1	5,016083
2,240833	0,1	5,017315
2,242500	0,1	5,015469
2,244167	0,1	5,048429
2,245833	0,1	5,052424
2,247500	0,1	5,096297
2,249167	0,1	5,143499
2,250833	0,1	5,164572
2,252500	0,1	5,156519
2,254167	0,1	5,143739
2,255833	0,1	5,184536
2,257500	0,1	5,203111
2,259167	0,1	5,201399
2,260833	0,1	5,228898
2,262500	0,1	5,203566
2,264167	0,1	5,254159
2,265833	0,1	5,253440
2,267500	0,1	5,277924
2,269167	0,1	5,258899
2,270833	0,1	5,258083
2,272500	0,1	5,280325
2,274167	0,1	5,246817
2,275833	0,1	5,291199
2,277500	0,1	5,308135
2,279167	0,1	5,246203
2,280833	0,1	5,258732
2,282500	0,1	5,294346
2,284167	0,1	5,258584
2,285833	0,1	5,225209
2,287500	0,1	5,218126
2,289167	0,1	5,199907
2,290833	0,1	5,169306
2,292500	0,1	5,199323
2,294167	0,1	5,130699
2,295833	0,1	5,172022
2,297500	0,1	5,153421
2,299167	0,1	5,079972
2,300833	0,1	5,092148
2,302500	0,1	5,094943
2,304167	0,1	5,065072
2,305833	0,1	5,065293
2,307500	0,1	5,012740
2,309167	0,1	4,998890
2,310833	0,1	4,949460
2,312500	0,1	4,964455
2,314167	0,1	4,946116
2,315833	0,1	4,903229
2,317500	0,1	4,883812
2,319167	0,1	4,856924
2,320833	0,1	4,869422
2,322500	0,1	4,785217
2,324167	0,1	4,781105
2,325833	0,1	4,780353
2,327500	0,1	4,757721
2,329167	0,1	4,749515
2,330833	0,1	4,655496
2,332500	0,1	4,650951
2,334167	0,1	4,657628
2,335833	0,1	4,617164
2,337500	0,1	4,569013
2,339167	0,1	4,560809
2,340833	0,1	4,518012
2,342500	0,1	4,505638
2,344167	0,1	4,450026
2,345833	0,1	4,437838
2,347500	0,1	4,469471
2,349167	0,1	4,387356
2,350833	0,1	4,405474
2,352500	0,1	4,345015
2,354167	0,1	4,353002
2,355833	0,1	4,328212
2,357500	0,1	4,275888
2,359167	0,1	4,276327
2,360833	0,1	4,219164
2,362500	0,1	4,224063
2,364167	0,1	4,231868
2,365833	0,1	4,217552
2,367500	0,1	4,178461
2,369167	0,1	4,154344
2,370833	0,1	4,151575
2,372500	0,1	4,129610
2,374167	0,1	4,126780
2,375833	0,1	4,147232
2,377500	0,1	4,122893
2,379167	0,1	4,090831
2,380833	0,1	4,053410
2,382500	0,1	4,103294
2,384167	0,1	4,100216
2,385833	0,1	4,073552
2,387500	0,1	4,082869
2,389167	0,1	4,074069
2,390833	0,1	4,133576
2,392500	0,1	4,102258
2,394167	0,1	4,110957
2,395833	0,1	4,157641
2,397500	0,1	4,137549
2,399167	0,1	4,190220
2,400833	0,1	4,195646
2,402500	0,1	4,245291
2,404167	0,1	4,311487
2,405833	0,1	4,334782
2,407500	0,1	4,352349
2,409167	0,1	4,375785
2,410833	0,1	4,421042
2,412500	0,1	4,469178
2,414167	0,1	4,541645
2,415833	0,1	4,561703
2,417500	0,1	4,618176
2,419167	0,1	4,745256
2,420833	0,1	4,790784
2,422500	0,1	4,812046
2,424167	0,1	4,922554
2,425833	0,1	5,021747
2,427500	0,1	5,091561
2,429167	0,1	5,190180
2,430833	0,1	5,276318
2,432500	0,1	5,309779
2,434167	0,1	5,425885
2,435833	0,1	5,536779
2,437500	0,1	5,628417
2,439167	0,1	5,700569
2,440833	0,1	5,808954
2,442500	0,1	5,950090
2,444167	0,1	5,983753
2,445833	0,1	6,081055
2,447500	0,1	6,198192
2,449167	0,1	6,309682
2,450833	0,1	6,409487
2,452500	0,1	6,528727
2,454167	0,1	6,641686
2,455833	0,1	6,676526
2,457500	0,1	6,789337
2,459167	0,1	6,920053
2,460833	0,1	7,026181
2,462500	0,1	7,115575
2,464167	0,1	7,219763
2,465833	0,1	7,339197
2,467500	0,1	7,443629
2,469167	0,1	7,569668
2,470833	0,1	7,679526
2,472500	0,1	7,826860
2,474167	0,1	7,944726
2,475833	0,1	8,078752
2,477500	0,1	8,248465
2,479167	0,1	8,391697
2,480833	0,1	8,556924
2,482500	0,1	8,745692
2,484167	0,1	8,971452
2,485833	0,1	9,147543
2,487500	0,1	9,414276
2,489167	0,1	9,603622
2,490833	0,1	9,908716
2,492500	0,1	10,224099
2,494167	0,1	10,530271
2,495833	0,1	10,863133
2,497500	0,1	11,218994
2,499167	0,1	11,635970
2,500833	0,1	12,034828
2,502500	0,1	12,482587
2,504167	0,1	13,019519
2,505833	0,1	13,562779
2,507500	0,1	14,076206
2,509167	0,1	14,697962
2,510833	0,1	15,339486
2,512500	0,1	16,012549
2,514167	0,1	16,752674
2,515833	0,1	17,499360
2,517500	0,1	18,313834
2,519167	0,1	19,162843
2,520833	0,1	20,040535
2,522500	0,1	20,960144
2,524167	0,1	21,930199
2,525833	0,1	22,893318
2,527500	0,1	23,927036
2,529167	0,1	24,997405
2,530833	0,1	26,086084
2,532500	0,1	27,241264
2,534167	0,1	28,439568
2,535833	0,1	29,615839
2,537500	0,1	30,823039
2,539167	0,1	32,083231
2,540833	0,1	33,308133
2,542500	0,1	34,592658
2,544167	0,1	35,895420
2,545833	0,1	37,183057
2,547500	0,1	38,476333
2,549167	0,1	39,814447
2,550833	0,1	41,103761
2,552500	0,1	42,393228
2,554167	0,1	43,657472
2,555833	0,1	44,998486
2,557500	0,1	46,214350
2,559167	0,1	47,503799
2,560833	0,1	48,685905
2,562500	0,1	49,943021
2,564167	0,1	51,110471
2,565833	0,1	52,276406
2,567500	0,1	53,386688
2,569167	0,1	54,464158
2,570833	0,1	55,523804
2,572500	0,1	56,500922
2,574167	0,1	57,482486
2,575833	0,1	58,395038
2,577500	0,1	59,290531
2,579167	0,1	60,150681
2,580833	0,1	60,891838
2,582500	0,1	61,680457
2,584167	0,1	62,398342
2,585833	0,1	63,037238
2,587500	0,1	63,624833
2,589167	0,1	64,212116
2,590833	0,1	64,728237
2,592500	0,1	65,195688
2,594167	0,1	65,616510
2,595833	0,1	65,951332
2,597500	0,1	66,297850
2,599167	0,1	66,615187
2,600833	0,1	66,797536
2,602500	0,1	67,018826
2,604167	0,1	67,153765
2,605833	0,1	67,324849
2,607500	0,1	67,395572
2,609167	0,1	67,452536
2,610833	0,1	67,392189
2,612500	0,1	67,333370
2,614167	0,1	67,300823
2,615833	0,1	67,183340
2,617500	0,1	67,007086
2,619167	0,1	66,827854
2,620833	0,1	66,656977
2,622500	0,1	66,407562
2,624167	0,1	66,153022
2,625833	0,1	65,826683
2,627500	0,1	65,472857
2,629167	0,1	65,110744
2,630833	0,1	64,738214
2,632500	0,1	64,366572
2,634167	0,1	63,922397
2,635833	0,1	63,450040
2,637500	0,1	63,012788
2,639167	0,1	62,466782
2,640833	0,1	61,953209
2,642500	0,1	61,400344
2,644167	0,1	60,872079
2,645833	0,1	60,294135
2,647500	0,1	59,652866
2,649167	0,1	59,076669
2,650833	0,1	58,430036
2,652500	0,1	57,826955
2,654167	0,1	57,148970
2,655833	0,1	56,520094
2,657500	0,1	55,808005
2,659167	0,1	55,144189
2,660833	0,1	54,423595
2,662500	0,1	53,749699
2,664167	0,1	53,031211
2,665833	0,1	52,306465
2,667500	0,1	51,561331
2,669167	0,1	50,826321
2,670833	0,1	50,092742
2,672500	0,1	49,351135
2,674167	0,1	48,597085
2,675833	0,1	47,844075
2,677500	0,1	47,055231
2,679167	0,1	46,357202
2,680833	0,1	45,599369
2,682500	0,1	44,824343
2,684167	0,1	44,074401
2,685833	0,1	43,390933
2,687500	0,1	42,629198
2,689167	0,1	41,905798
2,690833	0,1	41,166387
2,692500	0,1	40,434042
2,694167	0,1	39,717939
2,695833	0,1	39,006131
2,697500	0,1	38,282616
2,699167	0,1	37,617160
2,700833	0,1	36,913940
2,702500	0,1	36,245935
2,704167	0,1	35,544589
2,705833	0,1	34,895345
2,707500	0,1	34,178526
2,709167	0,1	33,522661
2,710833	0,1	32,888310
2,712500	0,1	32,254527
2,714167	0,1	31,680653
2,715833	0,1	30,994822
2,717500	0,1	30,419816
2,719167	0,1	29,843934
2,720833	0,1	29,257596
2,722500	0,1	28,685133
2,724167	0,1	28,128573
2,725833	0,1	27,549874
2,727500	0,1	27,021797
2,729167	0,1	26,484368
2,730833	0,1	25,985483
2,732500	0,1	25,464125
2,734167	0,1	24,984045
2,735833	0,1	24,489955
2,737500	0,1	24,011378
2,739167	0,1	23,524532
2,740833	0,1	23,081445
2,742500	0,1	22,597914
2,744167	0,1	22,243562
2,745833	0,1	21,795172
2,747500	0,1	21,390613
2,749167	0,1	20,952359
2,750833	0,1	20,553791
2,752500	0,1	20,164314
2,754167	0,1	19,780430
2,755833	0,1	19,432248
2,757500	0,1	19,042656
2,759167	0,1	18,684691
2,760833	0,1	18,378834
2,762500	0,1	18,024792
2,764167	0,1	17,742835
2,765833	0,1	17,390602
2,767500	0,1	17,024299
2,769167	0,1	16,741023
2,770833	0,1	16,442568
2,772500	0,1	16,166759
2,774167	0,1	15,856405
2,775833	0,1	15,602168
2,777500	0,1	15,333024
2,779167	0,1	15,002078
2,780833	0,1	14,731290
2,782500	0,1	14,498993
2,784167	0,1	14,213848
2,785833	0,1	14,027276
2,787500	0,1	13,769611
2,789167	0,1	13,525832
2,790833	0,1	13,317345
2,792500	0,1	13,083063
2,794167	0,1	12,877844
2,795833	0,1	12,676350
2,797500	0,1	12,418409
2,799167	0,1	12,225779
2,800833	0,1	11,983773
2,802500	0,1	11,846762
2,804167	0,1	11,625765
2,805833	0,1	11,439712
2,807500	0,1	11,220241
2,809167	0,1	11,056634
2,810833	0,1	10,885673
2,812500	0,1	10,710582
2,814167	0,1	10,519760
2,815833	0,1	10,351202
2,817500	0,1	10,203313
2,819167	0,1	10,028378
2,820833	0,1	9,847774
2,822500	0,1	9,721287
2,824167	0,1	9,525954
2,825833	0,1	9,395956
2,827500	0,1	9,228998
2,829167	0,1	9,115088
2,830833	0,1	8,911230
2,832500	0,1	8,801257
2,834167	0,1	8,663613
2,835833	0,1	8,558865
2,837500	0,1	8,384174
2,839167	0,1	8,278732
2,840833	0,1	8,154574
2,842500	0,1	8,054079
2,844167	0,1	7,909746
2,845833	0,1	7,798615
2,847500	0,1	7,707856
2,849167	0,1	7,592950
2,850833	0,1	7,439222
2,852500	0,1	7,358260
2,854167	0,1	7,257778
2,855833	0,1	7,114497
2,857500	0,1	7,048656
2,859167	0,1	6,939288
2,860833	0,1	6,886460
2,862500	0,1	6,767084
2,864167	0,1	6,683515
2,865833	0,1	6,567393
2,867500	0,1	6,456521
2,869167	0,1	6,395773
2,870833	0,1	6,325956
2,872500	0,1	6,250626
2,874167	0,1	6,189470
2,875833	0,1	6,068529
2,877500	0,1	6,001031
2,879167	0,1	5,899953
2,880833	0,1	5,860309
2,882500	0,1	5,768322
2,884167	0,1	5,678788
2,885833	0,1	5,636849
2,887500	0,1	5,582207
2,889167	0,1	5,534171
2,890833	0,1	5,456391
2,892500	0,1	5,398741
2,894167	0,1	5,304810
2,895833	0,1	5,294690
2,897500	0,1	5,216840
2,899167	0,1	5,142401
2,900833	0,1	5,060344
2,902500	0,1	5,007475
2,904167	0,1	5,020277
2,905833	0,1	4,919607
2,907500	0,1	4,870608
2,909167	0,1	4,833868
2,910833	0,1	4,753068
2,912500	0,1	4,744405
2,914167	0,1	4,747922
2,915833	0,1	4,640979
2,917500	0,1	4,596122
2,919167	0,1	4,558807
2,920833	0,1	4,503410
2,922500	0,1	4,497674
2,924167	0,1	4,444093
2,925833	0,1	4,398332
2,927500	0,1	4,364207
2,929167	0,1	4,337896
2,930833	0,1	4,266484
2,932500	0,1	4,228991
2,934167	0,1	4,220063
2,935833	0,1	4,181924
2,937500	0,1	4,150408
2,939167	0,1	4,105482
2,940833	0,1	4,080182
2,942500	0,1	4,044159
2,944167	0,1	4,033238
2,945833	0,1	3,984558
2,947500	0,1	3,919724
2,949167	0,1	3,927410
2,950833	0,1	3,853423
2,952500	0,1	3,851534
2,954167	0,1	3,806565
2,955833	0,1	3,805816
2,957500	0,1	3,766635
2,959167	0,1	3,766621
2,960833	0,1	3,694529
2,962500	0,1	3,704976
2,964167	0,1	3,675389
2,965833	0,1	3,682236
2,967500	0,1	3,575166
2,969167	0,1	3,577595
2,970833	0,1	3,563382
2,972500	0,1	3,582279
2,974167	0,1	3,541310
2,975833	0,1	3,455321
2,977500	0,1	3,471673
2,979167	0,1	3,421912
2,980833	0,1	3,439496
2,982500	0,1	3,411662
2,984167	0,1	3,337306
2,985833	0,1	3,388565
2,987500	0,1	3,369543
2,989167	0,1	3,322884
2,990833	0,1	3,304910
2,992500	0,1	3,316095
2,994167	0,1	3,270820
2,995833	0,1	3,244137
2,997500	0,1	3,226324
2,999167	0,1	3,213698
3,000833	0,1	3,201081
3,002500	0,1	3,207867
3,004167	0,1	3,188830
3,005833	0,1	3,143840
3,007500	0,1	3,131585
3,009167	0,1	3,188820
3,010833	0,1	3,105431
3,012500	0,1	3,107795
3,014167	0,1	3,080188
3,015833	0,1	3,064487
3,017500	0,1	3,056492
3,019167	0,1	3,015576
3,020833	0,1	3,002798
3,022500	0,1	3,011143
3,024167	0,1	2,986517
3,025833	0,1	3,005024
3,027500	0,1	2,965119
3,029167	0,1	2,983055
3,030833	0,1	2,946891
3,032500	0,1	2,910400
3,034167	0,1	2,919052
3,035833	0,1	2,889057
3,037500	0,1	2,922025
3,039167	0,1	2,867856
3,040833	0,1	2,822346
3,042500	0,1	2,883087
3,044167	0,1	2,865392
3,045833	0,1	2,836908
3,047500	0,1	2,816712
3,049167	0,1	2,808199
3,050833	0,1	2,796240
3,052500	0,1	2,751352
3,054167	0,1	2,780230
3,055833	0,1	2,749284
3,057500	0,1	2,725505
3,059167	0,1	2,692009
3,060833	0,1	2,737955
3,062500	0,1	2,728177
3,064167	0,1	2,696477
3,065833	0,1	2,672461
3,067500	0,1	2,651328
3,069167	0,1	2,666464
3,070833	0,1	2,681286
3,072500	0,1	2,675031
3,074167	0,1	2,665651
3,075833	0,1	2,602244
3,077500	0,1	2,612747
3,079167	0,1	2,645790
3,080833	0,1	2,594174
3,082500	0,1	2,604578
3,084167	0,1	2,574354
3,085833	0,1	2,560163
3,087500	0,1	2,609430
3,089167	0,1	2,525125
3,090833	0,1	2,558161
3,092500	0,1	2,545146
3,094167	0,1	2,490917
3,095833	0,1	2,533827
3,097500	0,1	2,506480
3,099167	0,1	2,552191
3,100833	0,1	2,507597
3,102500	0,1	2,527781
3,104167	0,1	2,502390
3,105833	0,1	2,536200
3,107500	0,1	2,497770
3,109167	0,1	2,526280
3,110833	0,1	2,519316
3,112500	0,1	2,513243
3,114167	0,1	2,539373
3,115833	0,1	2,523429
3,117500	0,1	2,505763
3,119167	0,1	2,567466
3,120833	0,1	2,501307
3,122500	0,1	2,536780
3,124167	0,1	2,501191
3,125833	0,1	2,580285
3,127500	0,1	2,540056
3,129167	0,1	2,500585
3,130833	0,1	2,549888
3,132500	0,1	2,577261
3,134167	0,1	2,565858
3,135833	0,1	2,545302
3,137500	0,1	2,574669
3,139167	0,1	2,600791
3,140833	0,1	2,553577
3,142500	0,1	2,571974
3,144167	0,1	2,596663
3,145833	0,1	2,590499
3,147500	0,1	2,593408
3,149167	0,1	2,637246
3,150833	0,1	2,611035
3,152500	0,1	2,662039
3,154167	0,1	2,635436
3,155833	0,1	2,659845
3,157500	0,1	2,669655
3,159167	0,1	2,679631
3,160833	0,1	2,630154
3,162500	0,1	2,664670
3,164167	0,1	2,641200
3,165833	0,1	2,649684
3,167500	0,1	2,630406
3,169167	0,1	2,681789
3,170833	0,1	2,655986
3,172500	0,1	2,673952
3,174167	0,1	2,653495
3,175833	0,1	2,690218
3,177500	0,1	2,677199
3,179167	0,1	2,688791
3,180833	0,1	2,682007
3,182500	0,1	2,687121
3,184167	0,1	2,668605
3,185833	0,1	2,644064
3,187500	0,1	2,698127
3,189167	0,1	2,660098
3,190833	0,1	2,617327
3,192500	0,1	2,689645
3,194167	0,1	2,635339
3,195833	0,1	2,678327
3,197500	0,1	2,635576
3,199167	0,1	2,643939
3,200833	0,1	2,652516
3,202500	0,1	2,615351
3,204167	0,1	2,584586
3,205833	0,1	2,650830
3,207500	0,1	2,612111
3,209167	0,1	2,595241
3,210833	0,1	2,570706
3,212500	0,1	2,571039
3,214167	0,1	2,546733
3,215833	0,1	2,572193
3,217500	0,1	2,515846
3,219167	0,1	2,547813
3,220833	0,1	2,529482
3,222500	0,1	2,492609
3,224167	0,1	2,519308
3,225833	0,1	2,469984
3,227500	0,1	2,458606
3,229167	0,1	2,472560
3,230833	0,1	2,402848
3,232500	0,1	2,397004
3,234167	0,1	2,409104
3,235833	0,1	2,377647
3,237500	0,1	2,384361
3,239167	0,1	2,357816
3,240833	0,1	2,313271
3,242500	0,1	2,373785
3,244167	0,1	2,310394
3,245833	0,1	2,275686
3,247500	0,1	2,265795
3,249167	0,1	2,298582
3,250833	0,1	2,256447
3,252500	0,1	2,259607
3,254167	0,1	2,221777
3,255833	0,1	2,180029
3,257500	0,1	2,188102
3,259167	0,1	2,235575
3,260833	0,1	2,162031
3,262500	0,1	2,131664
3,264167	0,1	2,119267
3,265833	0,1	2,116797
3,267500	0,1	2,118804
3,269167	0,1	2,042266
3,270833	0,1	2,046814
3,272500	0,1	2,023036
3,274167	0,1	2,034386
3,275833	0,1	2,000585
3,277500	0,1	2,019691
3,279167	0,1	1,979425
3,280833	0,1	1,980806
3,282500	0,1	1,954093
3,284167	0,1	1,938043
3,285833	0,1	1,904730
3,287500	0,1	1,893435
3,289167	0,1	1,859479
3,290833	0,1	1,893522
3,292500	0,1	1,817864
3,294167	0,1	1,839607
3,295833	0,1	1,840681
3,297500	0,1	1,809902
3,299167	0,1	1,782766
3,300833	0,1	1,745744
3,302500	0,1	1,762189
3,304167	0,1	1,745837
3,305833	0,1	1,707162
3,307500	0,1	1,702282
3,309167	0,1	1,680973
3,310833	0,1	1,741099
3,312500	0,1	1,668254
3,314167	0,1	1,645249
3,315833	0,1	1,656140
3,317500	0,1	1,669208
3,319167	0,1	1,625857
3,320833	0,1	1,625565
3,322500	0,1	1,647898
3,324167	0,1	1,600034
3,325833	0,1	1,622164
3,327500	0,1	1,601296
3,329167	0,1	1,583778
3,330833	0,1	1,579666
3,332500	0,1	1,554082
3,334167	0,1	1,532167
3,335833	0,1	1,525788
3,337500	0,1	1,514344
3,339167	0,1	1,496333
3,340833	0,1	1,509647
3,342500	0,1	1,503330
3,344167	0,1	1,491659
3,345833	0,1	1,509914
3,347500	0,1	1,482632
3,349167	0,1	1,487652
3,350833	0,1	1,477398
3,352500	0,1	1,445320
3,354167	0,1	1,444498
3,355833	0,1	1,455294
3,357500	0,1	1,405258
3,359167	0,1	1,438047
3,360833	0,1	1,457022
3,362500	0,1	1,408654
3,364167	0,1	1,440530
3,365833	0,1	1,423572
3,367500	0,1	1,391496
3,369167	0,1	1,428188
3,370833	0,1	1,433926
3,372500	0,1	1,397375
3,374167	0,1	1,404202
3,375833	0,1	1,385384
3,377500	0,1	1,397572
3,379167	0,1	1,363085
3,380833	0,1	1,380958
3,382500	0,1	1,380023
3,384167	0,1	1,357476
3,385833	0,1	1,345634
3,387500	0,1	1,342134
3,389167	0,1	1,392934
3,390833	0,1	1,408681
3,392500	0,1	1,342875
3,394167	0,1	1,363823
3,395833	0,1	1,385958
3,397500	0,1	1,374086
3,399167	0,1	1,360414
3,400833	0,1	1,352597
3,402500	0,1	1,315877
3,404167	0,1	1,335039
3,405833	0,1	1,365988
3,407500	0,1	1,341703
3,409167	0,1	1,389058
3,410833	0,1	1,377672
3,412500	0,1	1,298009
3,414167	0,1	1,366482
3,415833	0,1	1,364352
3,417500	0,1	1,348888
3,419167	0,1	1,346469
3,420833	0,1	1,321900
3,422500	0,1	1,334564
3,424167	0,1	1,308457
3,425833	0,1	1,378882
3,427500	0,1	1,407801
3,429167	0,1	1,369341
3,430833	0,1	1,386586
3,432500	0,1	1,370709
3,434167	0,1	1,386668
3,435833	0,1	1,397572
3,437500	0,1	1,375693
3,439167	0,1	1,369477
3,440833	0,1	1,408009
3,442500	0,1	1,370714
3,444167	0,1	1,399214
3,445833	0,1	1,429251
3,447500	0,1	1,412190
3,449167	0,1	1,420420
3,450833	0,1	1,454747
3,452500	0,1	1,477118
3,454167	0,1	1,450653
3,455833	0,1	1,493333
3,457500	0,1	1,475461
3,459167	0,1	1,500406
3,460833	0,1	1,538185
3,462500	0,1	1,554844
3,464167	0,1	1,575578
3,465833	0,1	1,519904
3,467500	0,1	1,599903
3,469167	0,1	1,616601
3,470833	0,1	1,645893
3,472500	0,1	1,661185
3,474167	0,1	1,680874
3,475833	0,1	1,710296
3,477500	0,1	1,723879
3,479167	0,1	1,713757
3,480833	0,1	1,720795
3,482500	0,1	1,826004
3,484167	0,1	1,799710
3,485833	0,1	1,805427
3,487500	0,1	1,852603
3,489167	0,1	1,903093
3,490833	0,1	1,885837
3,492500	0,1	1,904555
3,494167	0,1	1,980366
3,495833	0,1	1,962307
3,497500	0,1	2,020780
3,499167	0,1	2,005948
3,500833	0,1	2,072132
3,502500	0,1	2,058946
3,504167	0,1	2,093367
3,505833	0,1	2,106382
3,507500	0,1	2,171839
3,509167	0,1	2,147658
3,510833	0,1	2,187551
3,512500	0,1	2,230397
3,514167	0,1	2,224741
3,515833	0,1	2,239865
3,517500	0,1	2,247413
3,519167	0,1	2,296280
3,520833	0,1	2,311114
3,522500	0,1	2,312502
3,524167	0,1	2,339579
3,525833	0,1	2,362246
3,527500	0,1	2,386880
3,529167	0,1	2,347410
3,530833	0,1	2,387813
3,532500	0,1	2,396599
3,534167	0,1	2,411068
3,535833	0,1	2,463950
3,537500	0,1	2,438328
3,539167	0,1	2,482892
3,540833	0,1	2,487525
3,542500	0,1	2,468880
3,544167	0,1	2,509209
3,545833	0,1	2,481350
3,547500	0,1	2,529844
3,549167	0,1	2,531623
3,550833	0,1	2,504623
3,552500	0,1	2,486995
3,554167	0,1	2,516986
3,555833	0,1	2,504107
3,557500	0,1	2,514264
3,559167	0,1	2,522822
3,560833	0,1	2,522980
3,562500	0,1	2,552349
3,564167	0,1	2,538532
3,565833	0,1	2,515819
3,567500	0,1	2,524455
3,569167	0,1	2,511970
3,570833	0,1	2,515116
3,572500	0,1	2,534570
3,574167	0,1	2,452459
3,575833	0,1	2,468737
3,577500	0,1	2,467827
3,579167	0,1	2,433483
3,580833	0,1	2,437448
3,582500	0,1	2,421619
3,584167	0,1	2,447001
3,585833	0,1	2,443749
3,587500	0,1	2,392548
3,589167	0,1	2,423527
3,590833	0,1	2,433315
3,592500	0,1	2,353651
3,594167	0,1	2,377254
3,595833	0,1	2,397824
3,597500	0,1	2,342147
3,599167	0,1	2,333584
3,600833	0,1	2,313713
3,602500	0,1	2,327012
3,604167	0,1	2,300539
3,605833	0,1	2,268457
3,607500	0,1	2,259071
3,609167	0,1	2,267956
3,610833	0,1	2,274856
3,612500	0,1	2,251645
3,614167	0,1	2,230794
3,615833	0,1	2,218151
3,617500	0,1	2,189431
3,619167	0,1	2,179625
3,620833	0,1	2,099905
3,622500	0,1	2,142040
3,624167	0,1	2,122863
3,625833	0,1	2,094518
3,627500	0,1	2,094219
3,629167	0,1	2,077425
3,630833	0,1	2,060438
3,632500	0,1	2,044840
3,634167	0,1	2,014787
3,635833	0,1	2,036092
3,637500	0,1	1,997187
3,639167	0,1	1,965383
3,640833	0,1	1,968802
3,642500	0,1	1,984718
3,644167	0,1	1,915445
3,645833	0,1	1,887780
3,647500	0,1	1,917362
3,649167	0,1	1,867633
3,650833	0,1	1,874963
3,652500	0,1	1,857793
3,654167	0,1	1,829464
3,655833	0,1	1,840354
3,657500	0,1	1,815880
3,659167	0,1	1,776109
3,660833	0,1	1,767694
3,662500	0,1	1,742797
3,664167	0,1	1,702899
3,665833	0,1	1,751251
3,667500	0,1	1,706626
3,669167	0,1	1,682923
3,670833	0,1	1,700243
3,672500	0,1	1,667891
3,674167	0,1	1,657184
3,675833	0,1	1,632556
3,677500	0,1	1,609598
3,679167	0,1	1,647258
3,680833	0,1	1,595929
3,682500	0,1	1,618741
3,684167	0,1	1,589699
3,685833	0,1	1,554857
3,687500	0,1	1,556750
3,689167	0,1	1,529545
3,690833	0,1	1,521302
3,692500	0,1	1,515468
3,694167	0,1	1,527077
3,695833	0,1	1,466881
3,697500	0,1	1,459176
3,699167	0,1	1,493273
3,700833	0,1	1,463496
3,702500	0,1	1,495897
3,704167	0,1	1,427148
3,705833	0,1	1,426987
3,707500	0,1	1,438178
3,709167	0,1	1,389977
3,710833	0,1	1,434523
3,712500	0,1	1,403586
3,714167	0,1	1,408413
3,715833	0,1	1,363403
3,717500	0,1	1,409611
3,719167	0,1	1,372237
3,720833	0,1	1,375896
3,722500	0,1	1,366604
3,724167	0,1	1,359955
3,725833	0,1	1,346970
3,727500	0,1	1,336819
3,729167	0,1	1,315108
3,730833	0,1	1,339001
3,732500	0,1	1,339380
3,734167	0,1	1,340529
3,735833	0,1	1,320586
3,737500	0,1	1,304454
3,739167	0,1	1,303308
3,740833	0,1	1,275243
3,742500	0,1	1,313280
3,744167	0,1	1,293100
3,745833	0,1	1,332432
3,747500	0,1	1,293192
3,749167	0,1	1,313035
3,750833	0,1	1,321499
3,752500	0,1	1,281937
3,754167	0,1	1,271904
3,755833	0,1	1,293674
3,757500	0,1	1,246550
3,759167	0,1	1,299125
3,760833	0,1	1,275489
3,762500	0,1	1,217902
3,764167	0,1	1,241102
3,765833	0,1	1,281040
3,767500	0,1	1,231218
3,769167	0,1	1,261585
3,770833	0,1	1,267502
3,772500	0,1	1,245190
3,774167	0,1	1,259791
3,775833	0,1	1,259671
3,777500	0,1	1,235671
3,779167	0,1	1,249085
3,780833	0,1	1,202365
3,782500	0,1	1,240160
3,784167	0,1	1,216214
3,785833	0,1	1,236245
3,787500	0,1	1,204608
3,789167	0,1	1,248679
3,790833	0,1	1,213128
3,792500	0,1	1,218101
3,794167	0,1	1,201683
3,795833	0,1	1,213655
3,797500	0,1	1,203035
3,799167	0,1	1,203291
3,800833	0,1	1,190776
3,802500	0,1	1,146130
3,804167	0,1	1,191102
3,805833	0,1	1,154123
3,807500	0,1	1,180358
3,809167	0,1	1,136198
3,810833	0,1	1,174003
3,812500	0,1	1,193431
3,814167	0,1	1,169545
3,815833	0,1	1,169877
3,817500	0,1	1,145311
3,819167	0,1	1,131502
3,820833	0,1	1,114542
3,822500	0,1	1,132201
3,824167	0,1	1,114325
3,825833	0,1	1,146941
3,827500	0,1	1,153054
3,829167	0,1	1,111380
3,830833	0,1	1,150017
3,832500	0,1	1,094582
3,834167	0,1	1,116796
3,835833	0,1	1,076877
3,837500	0,1	1,104722
3,839167	0,1	1,091050
3,840833	0,1	1,132458
3,842500	0,1	1,122907
3,844167	0,1	1,056271
3,845833	0,1	1,070503
3,847500	0,1	1,045149
3,849167	0,1	1,019155
3,850833	0,1	1,072663
3,852500	0,1	1,060691
3,854167	0,1	1,029412
3,855833	0,1	1,083748
3,857500	0,1	1,069670
3,859167	0,1	1,048207
3,860833	0,1	1,055363
3,862500	0,1	1,029181
3,864167	0,1	1,017567
3,865833	0,1	1,034505
3,867500	0,1	1,021039
3,869167	0,1	1,025712
3,870833	0,1	0,988985
3,872500	0,1	0,990510
3,874167	0,1	0,991731
3,875833	0,1	1,033318
3,877500	0,1	0,983593
3,879167	0,1	0,958230
3,880833	0,1	0,982615
3,882500	0,1	0,981927
3,884167	0,1	0,961336
3,885833	0,1	0,960815
3,887500	0,1	0,950308
3,889167	0,1	0,925259
3,890833	0,1	0,970951
3,892500	0,1	0,939351
3,894167	0,1	0,929411
3,895833	0,1	0,939805
3,897500	0,1	0,921720
3,899167	0,1	0,926603
3,900833	0,1	0,895803
3,902500	0,1	0,875629
3,904167	0,1	0,869396
3,905833	0,1	0,891858
3,907500	0,1	0,919961
3,909167	0,1	0,940558
3,910833	0,1	0,855277
3,912500	0,1	0,845750
3,914167	0,1	0,879532
3,915833	0,1	0,877026
3,917500	0,1	0,849155
3,919167	0,1	0,838075
3,920833	0,1	0,879761
3,922500	0,1	0,834322
3,924167	0,1	0,874307
3,925833	0,1	0,850280
3,927500	0,1	0,823287
3,929167	0,1	0,808742
3,930833	0,1	0,842273
3,932500	0,1	0,844396
3,934167	0,1	0,822355
3,935833	0,1	0,835884
3,937500	0,1	0,833367
3,939167	0,1	0,796833
3,940833	0,1	0,828436
3,942500	0,1	0,839112
3,944167	0,1	0,836713
3,945833	0,1	0,791727
3,947500	0,1	0,796404
3,949167	0,1	0,806966
3,950833	0,1	0,823106
3,952500	0,1	0,799817
3,954167	0,1	0,792715
3,955833	0,1	0,795408
3,957500	0,1	0,800049
3,959167	0,1	0,791958
3,960833	0,1	0,808196
3,962500	0,1	0,746272
3,964167	0,1	0,784614
3,965833	0,1	0,767911
3,967500	0,1	0,769252
3,969167	0,1	0,796172
3,970833	0,1	0,768905
3,972500	0,1	0,783850
3,974167	0,1	0,759401
3,975833	0,1	0,783562
3,977500	0,1	0,765971
3,979167	0,1	0,804087
3,980833	0,1	0,767558
3,982500	0,1	0,769491
3,984167	0,1	0,746795
3,985833	0,1	0,757689
3,987500	0,1	0,806132
3,989167	0,1	0,771495
3,990833	0,1	0,762336
3,992500	0,1	0,734650
3,994167	0,1	0,819854
3,995833	0,1	0,749566
3,997500	0,1	0,791061
3,999167	0,1	0,756946
4,000833	0,1	0,740054
4,002500	0,1	0,806547
4,004167	0,1	0,787025
4,005833	0,1	0,771722
4,007500	0,1	0,781796
4,009167	0,1	0,790715
4,010833	0,1	0,752013
4,012500	0,1	0,764786
4,014167	0,1	0,758696
4,015833	0,1	0,783083
4,017500	0,1	0,773186
4,019167	0,1	0,724805
4,020833	0,1	0,777322
4,022500	0,1	0,759936
4,024167	0,1	0,789599
4,025833	0,1	0,726450
4,027500	0,1	0,782610
4,029167	0,1	0,768615
4,030833	0,1	0,740344
4,032500	0,1	0,786023
4,034167	0,1	0,750084
4,035833	0,1	0,782269
4,037500	0,1	0,797520
4,039167	0,1	0,786323
4,040833	0,1	0,782151
4,042500	0,1	0,813063
4,044167	0,1	0,772668
4,045833	0,1	0,789311
4,047500	0,1	0,768791
4,049167	0,1	0,809309
4,050833	0,1	0,794246
4,052500	0,1	0,790845
4,054167	0,1	0,791430
4,055833	0,1	0,780165
4,057500	0,1	0,838635
4,059167	0,1	0,797534
4,060833	0,1	0,792841
4,062500	0,1	0,814062
4,064167	0,1	0,863438
4,065833	0,1	0,847792
4,067500	0,1	0,850438
4,069167	0,1	0,795846
4,070833	0,1	0,859104
4,072500	0,1	0,804820
4,074167	0,1	0,805153
4,075833	0,1	0,834538
4,077500	0,1	0,853667
4,079167	0,1	0,841638
4,080833	0,1	0,875426
4,082500	0,1	0,863760
4,084167	0,1	0,891813
4,085833	0,1	0,846413
4,087500	0,1	0,880014
4,089167	0,1	0,858428
4,090833	0,1	0,861124
4,092500	0,1	0,874846
4,094167	0,1	0,905814
4,095833	0,1	0,884010
4,097500	0,1	0,922129
4,099167	0,1	0,914998
4,100833	0,1	0,924838
4,102500	0,1	0,931585
4,104167	0,1	0,920514
4,105833	0,1	0,921915
4,107500	0,1	0,913104
4,109167	0,1	0,952817
4,110833	0,1	0,934708
4,112500	0,1	0,944444
4,114167	0,1	0,953531
4,115833	0,1	0,978472
4,117500	0,1	0,979344
4,119167	0,1	1,010614
4,120833	0,1	0,977546
4,122500	0,1	0,947912
4,124167	0,1	0,989391
4,125833	0,1	0,988513
4,127500	0,1	1,015026
4,129167	0,1	0,985646
4,130833	0,1	1,032306
4,132500	0,1	1,014340
4,134167	0,1	1,035528
4,135833	0,1	1,013513
4,137500	0,1	1,021145
4,139167	0,1	1,025249
4,140833	0,1	1,037210
4,142500	0,1	1,036739
4,144167	0,1	1,012625
4,145833	0,1	0,978656
4,147500	0,1	1,019954
4,149167	0,1	1,073248
4,150833	0,1	1,045795
4,152500	0,1	1,092498
4,154167	0,1	1,125957
4,155833	0,1	1,098389
4,157500	0,1	1,047677
4,159167	0,1	1,099967
4,160833	0,1	1,090112
4,162500	0,1	1,076260
4,164167	0,1	1,084113
4,165833	0,1	1,094334
4,167500	0,1	1,071681
4,169167	0,1	1,067110
4,170833	0,1	1,097095
4,172500	0,1	1,099795
4,174167	0,1	1,100258
4,175833	0,1	1,093570
4,177500	0,1	1,099794
4,179167	0,1	1,108956
4,180833	0,1	1,139409
4,182500	0,1	1,093301
4,184167	0,1	1,127445
4,185833	0,1	1,098328
4,187500	0,1	1,137424
4,189167	0,1	1,103568
4,190833	0,1	1,106604
4,192500	0,1	1,128527
4,194167	0,1	1,104918
4,195833	0,1	1,136180
4,197500	0,1	1,134250
4,199167	0,1	1,129869
4,200833	0,1	1,150099
4,202500	0,1	1,137375
4,204167	0,1	1,168992
4,205833	0,1	1,142897
4,207500	0,1	1,120370
4,209167	0,1	1,168342
4,210833	0,1	1,166065
4,212500	0,1	1,187771
4,214167	0,1	1,177292
4,215833	0,1	1,165896
4,217500	0,1	1,163082
4,219167	0,1	1,118010
4,220833	0,1	1,110448
4,222500	0,1	1,175336
4,224167	0,1	1,164129
4,225833	0,1	1,139654
4,227500	0,1	1,161907
4,229167	0,1	1,134163
4,230833	0,1	1,134666
4,232500	0,1	1,161612
4,234167	0,1	1,141067
4,235833	0,1	1,159893
4,237500	0,1	1,156224
4,239167	0,1	1,133041
4,240833	0,1	1,161089
4,242500	0,1	1,116256
4,244167	0,1	1,174692
4,245833	0,1	1,137210
4,247500	0,1	1,152144
4,249167	0,1	1,153516
4,250833	0,1	1,136607
4,252500	0,1	1,113885
4,254167	0,1	1,145882
4,255833	0,1	1,148227
4,257500	0,1	1,155975
4,259167	0,1	1,161679
4,260833	0,1	1,144586
4,262500	0,1	1,159125
4,264167	0,1	1,133672
4,265833	0,1	1,127164
4,267500	0,1	1,107439
4,269167	0,1	1,132245
4,270833	0,1	1,134788
4,272500	0,1	1,137539
4,274167	0,1	1,142521
4,275833	0,1	1,156619
4,277500	0,1	1,188199
4,279167	0,1	1,131619
4,280833	0,1	1,175864
4,282500	0,1	1,178211
4,284167	0,1	1,158856
4,285833	0,1	1,120236
4,287500	0,1	1,102028
4,289167	0,1	1,132321
4,290833	0,1	1,133713
4,292500	0,1	1,150745
4,294167	0,1	1,147921
4,295833	0,1	1,156652
4,297500	0,1	1,162479
4,299167	0,1	1,148706
4,300833	0,1	1,188812
4,302500	0,1	1,159920
4,304167	0,1	1,155562
4,305833	0,1	1,155499
4,307500	0,1	1,148045
4,309167	0,1	1,137652
4,310833	0,1	1,105967
4,312500	0,1	1,147985
4,314167	0,1	1,167351
4,315833	0,1	1,119764
4,317500	0,1	1,122858
4,319167	0,1	1,139535
4,320833	0,1	1,134606
4,322500	0,1	1,147917
4,324167	0,1	1,158819
4,325833	0,1	1,117118
4,327500	0,1	1,103380
4,329167	0,1	1,157594
4,330833	0,1	1,096567
4,332500	0,1	1,119453
4,334167	0,1	1,099385
4,335833	0,1	1,123851
4,337500	0,1	1,101188
4,339167	0,1	1,097749
4,340833	0,1	1,109696
4,342500	0,1	1,122194
4,344167	0,1	1,075500
4,345833	0,1	1,078888
4,347500	0,1	1,106063
4,349167	0,1	1,109527
4,350833	0,1	1,076570
4,352500	0,1	1,102128
4,354167	0,1	1,076312
4,355833	0,1	1,034995
4,357500	0,1	1,102641
4,359167	0,1	1,083535
4,360833	0,1	1,066686
4,362500	0,1	1,065330
4,364167	0,1	1,091918
4,365833	0,1	1,050196
4,367500	0,1	1,023077
4,369167	0,1	1,033556
4,370833	0,1	1,079122
4,372500	0,1	1,050182
4,374167	0,1	1,048385
4,375833	0,1	0,996857
4,377500	0,1	1,025111
4,379167	0,1	1,062433
4,380833	0,1	1,038851
4,382500	0,1	1,005648
4,384167	0,1	1,026344
4,385833	0,1	1,018566
4,387500	0,1	0,982066
4,389167	0,1	1,009739
4,390833	0,1	1,037206
4,392500	0,1	0,983400
4,394167	0,1	0,985518
4,395833	0,1	0,998244
4,397500	0,1	0,966048
4,399167	0,1	0,989971
4,400833	0,1	0,985398
4,402500	0,1	0,962051
4,404167	0,1	0,903967
4,405833	0,1	0,988653
4,407500	0,1	0,966106
4,409167	0,1	0,927481
4,410833	0,1	0,968179
4,412500	0,1	0,948365
4,414167	0,1	0,921982
4,415833	0,1	0,933471
4,417500	0,1	0,941267
4,419167	0,1	0,893931
4,420833	0,1	0,937679
4,422500	0,1	0,932980
4,424167	0,1	0,923129
4,425833	0,1	0,885478
4,427500	0,1	0,908164
4,429167	0,1	0,918252
4,430833	0,1	0,875274
4,432500	0,1	0,889165
4,434167	0,1	0,821835
4,435833	0,1	0,866853
4,437500	0,1	0,902412
4,439167	0,1	0,865943
4,440833	0,1	0,888915
4,442500	0,1	0,863352
4,444167	0,1	0,889085
4,445833	0,1	0,875197
4,447500	0,1	0,864819
4,449167	0,1	0,859662
4,450833	0,1	0,859999
4,452500	0,1	0,851903
4,454167	0,1	0,835366
4,455833	0,1	0,880055
4,457500	0,1	0,860235
4,459167	0,1	0,833201
4,460833	0,1	0,830606
4,462500	0,1	0,818761
4,464167	0,1	0,779650
4,465833	0,1	0,815403
4,467500	0,1	0,809021
4,469167	0,1	0,817817
4,470833	0,1	0,850431
4,472500	0,1	0,780709
4,474167	0,1	0,788959
4,475833	0,1	0,828420
4,477500	0,1	0,770199
4,479167	0,1	0,769074
4,480833	0,1	0,759521
4,482500	0,1	0,771186
4,484167	0,1	0,737298
4,485833	0,1	0,784966
4,487500	0,1	0,730031
4,489167	0,1	0,794872
4,490833	0,1	0,773237
4,492500	0,1	0,743505
4,494167	0,1	0,757516
4,495833	0,1	0,698300
4,497500	0,1	0,749586
4,499167	0,1	0,737224
4,500833	0,1	0,733946
4,502500	0,1	0,770475
4,504167	0,1	0,720641
4,505833	0,1	0,742734
4,507500	0,1	0,681763
4,509167	0,1	0,688664
4,510833	0,1	0,701854
4,512500	0,1	0,693710
4,514167	0,1	0,698574
4,515833	0,1	0,697172
4,517500	0,1	0,698990
4,519167	0,1	0,692301
4,520833	0,1	0,668852
4,522500	0,1	0,669137
4,524167	0,1	0,716975
4,525833	0,1	0,687494
4,527500	0,1	0,650615
4,529167	0,1	0,656819
4,530833	0,1	0,681329
4,532500	0,1	0,643871
4,534167	0,1	0,658521
4,535833	0,1	0,689415
4,537500	0,1	0,632555
4,539167	0,1	0,664555
4,540833	0,1	0,691996
4,542500	0,1	0,634377
4,544167	0,1	0,633835
4,545833	0,1	0,635474
4,547500	0,1	0,640984
4,549167	0,1	0,640164
4,550833	0,1	0,666840
4,552500	0,1	0,630619
4,554167	0,1	0,642922
4,555833	0,1	0,604407
4,557500	0,1	0,645549
4,559167	0,1	0,608277
4,560833	0,1	0,597833
4,562500	0,1	0,590858
4,564167	0,1	0,586045
4,565833	0,1	0,565708
4,567500	0,1	0,623147
4,569167	0,1	0,554520
4,570833	0,1	0,616284
4,572500	0,1	0,631016
4,574167	0,1	0,567827
4,575833	0,1	0,593601
4,577500	0,1	0,606388
4,579167	0,1	0,567294
4,580833	0,1	0,618925
4,582500	0,1	0,567354
4,584167	0,1	0,577425
4,585833	0,1	0,564296
4,587500	0,1	0,570214
4,589167	0,1	0,551107
4,590833	0,1	0,592952
4,592500	0,1	0,503228
4,594167	0,1	0,557773
4,595833	0,1	0,599110
4,597500	0,1	0,576378
4,599167	0,1	0,512425
4,600833	0,1	0,539958
4,602500	0,1	0,527186
4,604167	0,1	0,516107
4,605833	0,1	0,531810
4,607500	0,1	0,533163
4,609167	0,1	0,535508
4,610833	0,1	0,535742
4,612500	0,1	0,516929
4,614167	0,1	0,539254
4,615833	0,1	0,545590
4,617500	0,1	0,521210
4,619167	0,1	0,562115
4,620833	0,1	0,534753
4,622500	0,1	0,531991
4,624167	0,1	0,499873
4,625833	0,1	0,510005
4,627500	0,1	0,506314
4,629167	0,1	0,465172
4,630833	0,1	0,556532
4,632500	0,1	0,532994
4,634167	0,1	0,523902
4,635833	0,1	0,472562
4,637500	0,1	0,517559
4,639167	0,1	0,478476
4,640833	0,1	0,475188
4,642500	0,1	0,477413
4,644167	0,1	0,514629
4,645833	0,1	0,495531
4,647500	0,1	0,511410
4,649167	0,1	0,529758
4,650833	0,1	0,482350
4,652500	0,1	0,476534
4,654167	0,1	0,510819
4,655833	0,1	0,496703
4,657500	0,1	0,470855
4,659167	0,1	0,494409
4,660833	0,1	0,503556
4,662500	0,1	0,513990
4,664167	0,1	0,465702
4,665833	0,1	0,471726
4,667500	0,1	0,462174
4,669167	0,1	0,491887
4,670833	0,1	0,500332
4,672500	0,1	0,470564
4,674167	0,1	0,447642
4,675833	0,1	0,469671
4,677500	0,1	0,481749
4,679167	0,1	0,434870
4,680833	0,1	0,487251
4,682500	0,1	0,454387
4,684167	0,1	0,511987
4,685833	0,1	0,433297
4,687500	0,1	0,471604
4,689167	0,1	0,480285
4,690833	0,1	0,455555
4,692500	0,1	0,428010
4,694167	0,1	0,463103
4,695833	0,1	0,437444
4,697500	0,1	0,438140
4,699167	0,1	0,469082
4,700833	0,1	0,441197
4,702500	0,1	0,463871
4,704167	0,1	0,457780
4,705833	0,1	0,435629
4,707500	0,1	0,408549
4,709167	0,1	0,418268
4,710833	0,1	0,435209
4,712500	0,1	0,439488
4,714167	0,1	0,398881
4,715833	0,1	0,443172
4,717500	0,1	0,430527
4,719167	0,1	0,428296
4,720833	0,1	0,440018
4,722500	0,1	0,420796
4,724167	0,1	0,429935
4,725833	0,1	0,426420
4,727500	0,1	0,427242
4,729167	0,1	0,440017
4,730833	0,1	0,436033
4,732500	0,1	0,430057
4,734167	0,1	0,390210
4,735833	0,1	0,414339
4,737500	0,1	0,413293
4,739167	0,1	0,430462
4,740833	0,1	0,394722
4,742500	0,1	0,433623
4,744167	0,1	0,452615
4,745833	0,1	0,413535
4,747500	0,1	0,456362
4,749167	0,1	0,426372
4,750833	0,1	0,383118
4,752500	0,1	0,447916
4,754167	0,1	0,474772
4,755833	0,1	0,427254
4,757500	0,1	0,441187
4,759167	0,1	0,412365
4,760833	0,1	0,423547
4,762500	0,1	0,437318
4,764167	0,1	0,374452
4,765833	0,1	0,412930
4,767500	0,1	0,444701
4,769167	0,1	0,403220
4,770833	0,1	0,428351
4,772500	0,1	0,429177
4,774167	0,1	0,409080
4,775833	0,1	0,399407
4,777500	0,1	0,438605
4,779167	0,1	0,437089
4,780833	0,1	0,397770
4,782500	0,1	0,407138
4,784167	0,1	0,405207
4,785833	0,1	0,426885
4,787500	0,1	0,406733
4,789167	0,1	0,439019
4,790833	0,1	0,422210
4,792500	0,1	0,435916
4,794167	0,1	0,426774
4,795833	0,1	0,441597
4,797500	0,1	0,422381
4,799167	0,1	0,394546
4,800833	0,1	0,407900
4,802500	0,1	0,415520
4,804167	0,1	0,413235
4,805833	0,1	0,399704
4,807500	0,1	0,397061
4,809167	0,1	0,417979
4,810833	0,1	0,403394
4,812500	0,1	0,407668
4,814167	0,1	0,421496
4,815833	0,1	0,406031
4,817500	0,1	0,389913
4,819167	0,1	0,427175
4,820833	0,1	0,393379
4,822500	0,1	0,441065
4,824167	0,1	0,402639
4,825833	0,1	0,403505
4,827500	0,1	0,399283
4,829167	0,1	0,430517
4,830833	0,1	0,389566
4,832500	0,1	0,390723
4,834167	0,1	0,410065
4,835833	0,1	0,418390
4,837500	0,1	0,415286
4,839167	0,1	0,423844
4,840833	0,1	0,390035
4,842500	0,1	0,389208
4,844167	0,1	0,422077
4,845833	0,1	0,391206
4,847500	0,1	0,439481
4,849167	0,1	0,422323
4,850833	0,1	0,425778
4,852500	0,1	0,432870
4,854167	0,1	0,431170
4,855833	0,1	0,440077
4,857500	0,1	0,418401
4,859167	0,1	0,420093
4,860833	0,1	0,409658
4,862500	0,1	0,458648
4,864167	0,1	0,420102
4,865833	0,1	0,424255
4,867500	0,1	0,423316
4,869167	0,1	0,437850
4,870833	0,1	0,439084
4,872500	0,1	0,402110
4,874167	0,1	0,408545
4,875833	0,1	0,414993
4,877500	0,1	0,438256
4,879167	0,1	0,426484
4,880833	0,1	0,424311
4,882500	0,1	0,439552
4,884167	0,1	0,419220
4,885833	0,1	0,430169
4,887500	0,1	0,427418
4,889167	0,1	0,414235
4,890833	0,1	0,422084
4,892500	0,1	0,398417
4,894167	0,1	0,448802
4,895833	0,1	0,468618
4,897500	0,1	0,432293
4,899167	0,1	0,448398
4,900833	0,1	0,474361
4,902500	0,1	0,402059
4,904167	0,1	0,425947
4,905833	0,1	0,443652
4,907500	0,1	0,442250
4,909167	0,1	0,452385
4,910833	0,1	0,446061
4,912500	0,1	0,420391
4,914167	0,1	0,463104
4,915833	0,1	0,447878
4,917500	0,1	0,394789
4,919167	0,1	0,445046
4,920833	0,1	0,418753
4,922500	0,1	0,420092
4,924167	0,1	0,442710
4,925833	0,1	0,463048
4,927500	0,1	0,451804
4,929167	0,1	0,431348
4,930833	0,1	0,422791
4,932500	0,1	0,480684
4,934167	0,1	0,411201
4,935833	0,1	0,440895
4,937500	0,1	0,496746
4,939167	0,1	0,430487
4,940833	0,1	0,449334
4,942500	0,1	0,468443
4,944167	0,1	0,455906
4,945833	0,1	0,477880
4,947500	0,1	0,406509
4,949167	0,1	0,442005
4,950833	0,1	0,485554
4,952500	0,1	0,448939
4,954167	0,1	0,432284
4,955833	0,1	0,490473
4,957500	0,1	0,435230
4,959167	0,1	0,461935
4,960833	0,1	0,477471
4,962500	0,1	0,469858
4,964167	0,1	0,433640
4,965833	0,1	0,463635
4,967500	0,1	0,441548
4,969167	0,1	0,457425
4,970833	0,1	0,478114
4,972500	0,1	0,466811
4,974167	0,1	0,484210
4,975833	0,1	0,483864
4,977500	0,1	0,463822
4,979167	0,1	0,446942
4,980833	0,1	0,484441
4,982500	0,1	0,473903
4,984167	0,1	0,459366
4,985833	0,1	0,478526
4,987500	0,1	0,521897
4,989167	0,1	0,506846
4,990833	0,1	0,495298
4,992500	0,1	0,527352
4,994167	0,1	0,483991
4,995833	0,1	0,492244
4,997500	0,1	0,536259
4,999167	0,1	0,507142
5,000833	0,1	0,538901
5,002500	0,1	0,506850
5,004167	0,1	0,538724
5,005833	0,1	0,518454
5,007500	0,1	0,561702
5,009167	0,1	0,551807
5,010833	0,1	0,508494
5,012500	0,1	0,517978
5,014167	0,1	0,581691
5,015833	0,1	0,535168
5,017500	0,1	0,554850
5,019167	0,1	0,573377
5,020833	0,1	0,571621
5,022500	0,1	0,529831
5,024167	0,1	0,573429
5,025833	0,1	0,589324
5,027500	0,1	0,578717
5,029167	0,1	0,544018
5,030833	0,1	0,557547
5,032500	0,1	0,611947
5,034167	0,1	0,592383
5,035833	0,1	0,598709
5,037500	0,1	0,610550
5,039167	0,1	0,630778
5,040833	0,1	0,614780
5,042500	0,1	0,655284
5,044167	0,1	0,617361
5,045833	0,1	0,601880
5,047500	0,1	0,628605
5,049167	0,1	0,657040
5,050833	0,1	0,630961
5,052500	0,1	0,628026
5,054167	0,1	0,652234
5,055833	0,1	0,648431
5,057500	0,1	0,648316
5,059167	0,1	0,652771
5,060833	0,1	0,672055
5,062500	0,1	0,645507
5,064167	0,1	0,640577
5,065833	0,1	0,712162
5,067500	0,1	0,682796
5,069167	0,1	0,650904
5,070833	0,1	0,686599
5,072500	0,1	0,689192
5,074167	0,1	0,684792
5,075833	0,1	0,703432
5,077500	0,1	0,716627
5,079167	0,1	0,734392
5,080833	0,1	0,719511
5,082500	0,1	0,705612
5,084167	0,1	0,744540
5,085833	0,1	0,724674
5,087500	0,1	0,722615
5,089167	0,1	0,730652
5,090833	0,1	0,732291
5,092500	0,1	0,740385
5,094167	0,1	0,765424
5,095833	0,1	0,745027
5,097500	0,1	0,750947
5,099167	0,1	0,774636
5,100833	0,1	0,714893
5,102500	0,1	0,737219
5,104167	0,1	0,793392
5,105833	0,1	0,778099
5,107500	0,1	0,780907
5,109167	0,1	0,757459
5,110833	0,1	0,770593
5,112500	0,1	0,792934
5,114167	0,1	0,782678
5,115833	0,1	0,789301
5,117500	0,1	0,779631
5,119167	0,1	0,747502
5,120833	0,1	0,793569
5,122500	0,1	0,819735
5,124167	0,1	0,793539
5,125833	0,1	0,801381
5,127500	0,1	0,805425
5,129167	0,1	0,779344
5,130833	0,1	0,813468
5,132500	0,1	0,787784
5,134167	0,1	0,799863
5,135833	0,1	0,763920
5,137500	0,1	0,803428
5,139167	0,1	0,772893
5,140833	0,1	0,780679
5,142500	0,1	0,767835
5,144167	0,1	0,765717
5,145833	0,1	0,749364
5,147500	0,1	0,794214
5,149167	0,1	0,777346
5,150833	0,1	0,761562
5,152500	0,1	0,792168
5,154167	0,1	0,791876
5,155833	0,1	0,779496
5,157500	0,1	0,790650
5,159167	0,1	0,798625
5,160833	0,1	0,752716
5,162500	0,1	0,780669
5,164167	0,1	0,798503
5,165833	0,1	0,782496
5,167500	0,1	0,748835
5,169167	0,1	0,748010
5,170833	0,1	0,759792
5,172500	0,1	0,757215
5,174167	0,1	0,756987
5,175833	0,1	0,747307
5,177500	0,1	0,764482
5,179167	0,1	0,731184
5,180833	0,1	0,769937
5,182500	0,1	0,718931
5,184167	0,1	0,750051
5,185833	0,1	0,751057
5,187500	0,1	0,732878
5,189167	0,1	0,751568
5,190833	0,1	0,741967
5,192500	0,1	0,733173
5,194167	0,1	0,742142
5,195833	0,1	0,745776
5,197500	0,1	0,680170
5,199167	0,1	0,757662
5,200833	0,1	0,717047
5,202500	0,1	0,676353
5,204167	0,1	0,693818
5,205833	0,1	0,679690
5,207500	0,1	0,696633
5,209167	0,1	0,688660
5,210833	0,1	0,679980
5,212500	0,1	0,678741
5,214167	0,1	0,659872
5,215833	0,1	0,679796
5,217500	0,1	0,673878
5,219167	0,1	0,642692
5,220833	0,1	0,671586
5,222500	0,1	0,662332
5,224167	0,1	0,636826
5,225833	0,1	0,658625
5,227500	0,1	0,633250
5,229167	0,1	0,625624
5,230833	0,1	0,657451
5,232500	0,1	0,615251
5,234167	0,1	0,620107
5,235833	0,1	0,627552
5,237500	0,1	0,617999
5,239167	0,1	0,602289
5,240833	0,1	0,558323
5,242500	0,1	0,594476
5,244167	0,1	0,562717
5,245833	0,1	0,590905
5,247500	0,1	0,558789
5,249167	0,1	0,593890
5,250833	0,1	0,587863
5,252500	0,1	0,583466
5,254167	0,1	0,567346
5,255833	0,1	0,588442
5,257500	0,1	0,554628
5,259167	0,1	0,590959
5,260833	0,1	0,548590
5,262500	0,1	0,560419
5,264167	0,1	0,551867
5,265833	0,1	0,568978
5,267500	0,1	0,551633
5,269167	0,1	0,543307
5,270833	0,1	0,522264
5,272500	0,1	0,547284
5,274167	0,1	0,552391
5,275833	0,1	0,531176
5,277500	0,1	0,527185
5,279167	0,1	0,515579
5,280833	0,1	0,533158
5,282500	0,1	0,486690
5,284167	0,1	0,489785
5,285833	0,1	0,524245
5,287500	0,1	0,475085
5,289167	0,1	0,466930
5,290833	0,1	0,517500
5,292500	0,1	0,463364
5,294167	0,1	0,479524
5,295833	0,1	0,437161
5,297500	0,1	0,483852
5,299167	0,1	0,440909
5,300833	0,1	0,469322
5,302500	0,1	0,446948
5,304167	0,1	0,445533
5,305833	0,1	0,472312
5,307500	0,1	0,422921
5,309167	0,1	0,463397
5,310833	0,1	0,459014
5,312500	0,1	0,447997
5,314167	0,1	0,432468
5,315833	0,1	0,433574
5,317500	0,1	0,426722
5,319167	0,1	0,375915
5,320833	0,1	0,395422
5,322500	0,1	0,398761
5,324167	0,1	0,419507
5,325833	0,1	0,409548
5,327500	0,1	0,412652
5,329167	0,1	0,416637
5,330833	0,1	0,405854
5,332500	0,1	0,422730
5,334167	0,1	0,388108
5,335833	0,1	0,368180
5,337500	0,1	0,405146
5,339167	0,1	0,440836
5,340833	0,1	0,387762
5,342500	0,1	0,360331
5,344167	0,1	0,367055
5,345833	0,1	0,371749
5,347500	0,1	0,377669
5,349167	0,1	0,394838
5,350833	0,1	0,380778
5,352500	0,1	0,371984
5,354167	0,1	0,335663
5,355833	0,1	0,360786
5,357500	0,1	0,315387
5,359167	0,1	0,362302
5,360833	0,1	0,346850
5,362500	0,1	0,337180
5,364167	0,1	0,337765
5,365833	0,1	0,336184
5,367500	0,1	0,370866
5,369167	0,1	0,333666
5,370833	0,1	0,363719
5,372500	0,1	0,318033
5,374167	0,1	0,360253
5,375833	0,1	0,318141
5,377500	0,1	0,341508
5,379167	0,1	0,301678
5,380833	0,1	0,312914
5,382500	0,1	0,318665
5,384167	0,1	0,312861
5,385833	0,1	0,344500
5,387500	0,1	0,372564
5,389167	0,1	0,290915
5,390833	0,1	0,338985
5,392500	0,1	0,326868
5,394167	0,1	0,324403
5,395833	0,1	0,310457
5,397500	0,1	0,331205
5,399167	0,1	0,293947
5,400833	0,1	0,328146
5,402500	0,1	0,281355
5,404167	0,1	0,301847
5,405833	0,1	0,283689
5,407500	0,1	0,279531
5,409167	0,1	0,241978
5,410833	0,1	0,318292
5,412500	0,1	0,311524
5,414167	0,1	0,280285
5,415833	0,1	0,294989
5,417500	0,1	0,302725
5,419167	0,1	0,279236
5,420833	0,1	0,277351
5,422500	0,1	0,281566
5,424167	0,1	0,280458
5,425833	0,1	0,274244
5,427500	0,1	0,285201
5,429167	0,1	0,295934
5,430833	0,1	0,274248
5,432500	0,1	0,291766
5,434167	0,1	0,254402
5,435833	0,1	0,291467
5,437500	0,1	0,249305
5,439167	0,1	0,266280
5,440833	0,1	0,269214
5,442500	0,1	0,274012
5,444167	0,1	0,297680
5,445833	0,1	0,269693
5,447500	0,1	0,237474
5,449167	0,1	0,276052
5,450833	0,1	0,264239
5,452500	0,1	0,277761
5,454167	0,1	0,273317
5,455833	0,1	0,283797
5,457500	0,1	0,280176
5,459167	0,1	0,243389
5,460833	0,1	0,235226
5,462500	0,1	0,267561
5,464167	0,1	0,234831
5,465833	0,1	0,237337
5,467500	0,1	0,267509
5,469167	0,1	0,262714
5,470833	0,1	0,243849
5,472500	0,1	0,249285
5,474167	0,1	0,218013
5,475833	0,1	0,202259
5,477500	0,1	0,227084
5,479167	0,1	0,272603
5,480833	0,1	0,206544
5,482500	0,1	0,205453
5,484167	0,1	0,226564
5,485833	0,1	0,226861
5,487500	0,1	0,271602
5,489167	0,1	0,247774
5,490833	0,1	0,235708
5,492500	0,1	0,242734
5,494167	0,1	0,229370
5,495833	0,1	0,224628
5,497500	0,1	0,209518
5,499167	0,1	0,210222
5,500833	0,1	0,243315
5,502500	0,1	0,241854
5,504167	0,1	0,212514
5,505833	0,1	0,241970
5,507500	0,1	0,203372
5,509167	0,1	0,197623
5,510833	0,1	0,235453
5,512500	0,1	0,226334
5,514167	0,1	0,214615
5,515833	0,1	0,207117
5,517500	0,1	0,212627
5,519167	0,1	0,251281
5,520833	0,1	0,234306
5,522500	0,1	0,240334
5,524167	0,1	0,197876
5,525833	0,1	0,230026
5,527500	0,1	0,201666
5,529167	0,1	0,212324
5,530833	0,1	0,205234
5,532500	0,1	0,179237
5,534167	0,1	0,241839
5,535833	0,1	0,189845
5,537500	0,1	0,245300
5,539167	0,1	0,172805
5,540833	0,1	0,243893
5,542500	0,1	0,223644
5,544167	0,1	0,210463
5,545833	0,1	0,202200
5,547500	0,1	0,211518
5,549167	0,1	0,173042
5,550833	0,1	0,231237
5,552500	0,1	0,198461
5,554167	0,1	0,184217
5,555833	0,1	0,194749
5,557500	0,1	0,213563
5,559167	0,1	0,190247
5,560833	0,1	0,183400
5,562500	0,1	0,219421
5,564167	0,1	0,212566
5,565833	0,1	0,181228
5,567500	0,1	0,224102
5,569167	0,1	0,192474
5,570833	0,1	0,179184
5,572500	0,1	0,210215
5,574167	0,1	0,190367
5,575833	0,1	0,182045
5,577500	0,1	0,208692
5,579167	0,1	0,226685
5,580833	0,1	0,210464
5,582500	0,1	0,205256
5,584167	0,1	0,201202
5,585833	0,1	0,209455
5,587500	0,1	0,209178
5,589167	0,1	0,230960
5,590833	0,1	0,194351
5,592500	0,1	0,176836
5,594167	0,1	0,197273
5,595833	0,1	0,169401
5,597500	0,1	0,221988
5,599167	0,1	0,194130
5,600833	0,1	0,182975
5,602500	0,1	0,184563
5,604167	0,1	0,221640
5,605833	0,1	0,202145
5,607500	0,1	0,173553
5,609167	0,1	0,204130
5,610833	0,1	0,193881
5,612500	0,1	0,190893
5,614167	0,1	0,204886
5,615833	0,1	0,178469
5,617500	0,1	0,228547
5,619167	0,1	0,205196
5,620833	0,1	0,209535
5,622500	0,1	0,147209
5,624167	0,1	0,164700
5,625833	0,1	0,225208
5,627500	0,1	0,199332
5,629167	0,1	0,163954
5,630833	0,1	0,204823
5,632500	0,1	0,192878
5,634167	0,1	0,207756
5,635833	0,1	0,185914
5,637500	0,1	0,214611
5,639167	0,1	0,241261
5,640833	0,1	0,221004
5,642500	0,1	0,194577
5,644167	0,1	0,223446
5,645833	0,1	0,189253
5,647500	0,1	0,229844
5,649167	0,1	0,202563
5,650833	0,1	0,176015
5,652500	0,1	0,221280
5,654167	0,1	0,217778
5,655833	0,1	0,180592
5,657500	0,1	0,193409
5,659167	0,1	0,200092
5,660833	0,1	0,215668
5,662500	0,1	0,194347
5,664167	0,1	0,196519
5,665833	0,1	0,206297
5,667500	0,1	0,195227
5,669167	0,1	0,212031
5,670833	0,1	0,188257
5,672500	0,1	0,250989
5,674167	0,1	0,236825
5,675833	0,1	0,186394
5,677500	0,1	0,208179
5,679167	0,1	0,177322
5,680833	0,1	0,202607
5,682500	0,1	0,223872
5,684167	0,1	0,208817
5,685833	0,1	0,196230
5,687500	0,1	0,198281
5,689167	0,1	0,246940
5,690833	0,1	0,230611
5,692500	0,1	0,203656
5,694167	0,1	0,224702
5,695833	0,1	0,220713
5,697500	0,1	0,223696
5,699167	0,1	0,194873
5,700833	0,1	0,188659
5,702500	0,1	0,222872
5,704167	0,1	0,196348
5,705833	0,1	0,229368
5,707500	0,1	0,222003
5,709167	0,1	0,226095
5,710833	0,1	0,203841
5,712500	0,1	0,216777
5,714167	0,1	0,219071
5,715833	0,1	0,242902
5,717500	0,1	0,196639
5,719167	0,1	0,263161
5,720833	0,1	0,258208
5,722500	0,1	0,229626
5,724167	0,1	0,221350
5,725833	0,1	0,233531
5,727500	0,1	0,228853
5,729167	0,1	0,251170
5,730833	0,1	0,290603
5,732500	0,1	0,229047
5,734167	0,1	0,228846
5,735833	0,1	0,241458
5,737500	0,1	0,195455
5,739167	0,1	0,228437
5,740833	0,1	0,245774
5,742500	0,1	0,278763
5,744167	0,1	0,231091
5,745833	0,1	0,229677
5,747500	0,1	0,205603
5,749167	0,1	0,265039
5,750833	0,1	0,232605
5,752500	0,1	0,253986
5,754167	0,1	0,269798
5,755833	0,1	0,281702
5,757500	0,1	0,239467
5,759167	0,1	0,227623
5,760833	0,1	0,219955
5,762500	0,1	0,251406
5,764167	0,1	0,264475
5,765833	0,1	0,249011
5,767500	0,1	0,230904
5,769167	0,1	0,262825
5,770833	0,1	0,247371
5,772500	0,1	0,204148
5,774167	0,1	0,257315
5,775833	0,1	0,209297
5,777500	0,1	0,238568
5,779167	0,1	0,215906
5,780833	0,1	0,226157
5,782500	0,1	0,261720
5,784167	0,1	0,254457
5,785833	0,1	0,238000
5,787500	0,1	0,267459
5,789167	0,1	0,223593
5,790833	0,1	0,250992
5,792500	0,1	0,205129
5,794167	0,1	0,244665
5,795833	0,1	0,243673
5,797500	0,1	0,242149
5,799167	0,1	0,202093
5,800833	0,1	0,274824
5,802500	0,1	0,247196
5,804167	0,1	0,211691
5,805833	0,1	0,254682
5,807500	0,1	0,261250
5,809167	0,1	0,224874
5,810833	0,1	0,280813
5,812500	0,1	0,255515
5,814167	0,1	0,275067
5,815833	0,1	0,265757
5,817500	0,1	0,237601
5,819167	0,1	0,225046
5,820833	0,1	0,277124
5,822500	0,1	0,260973
5,824167	0,1	0,206369
5,825833	0,1	0,252863
5,827500	0,1	0,258672
5,829167	0,1	0,227980
5,830833	0,1	0,213327
5,832500	0,1	0,264346
5,834167	0,1	0,263070
5,835833	0,1	0,274130
5,837500	0,1	0,172175
5,839167	0,1	0,197745
5,840833	0,1	0,224271
5,842500	0,1	0,263303
5,844167	0,1	0,251601
5,845833	0,1	0,261192
5,847500	0,1	0,232433
5,849167	0,1	0,253571
5,850833	0,1	0,233318
5,852500	0,1	0,245081
5,854167	0,1	0,241863
5,855833	0,1	0,252118
5,857500	0,1	0,228794
5,859167	0,1	0,235302
5,860833	0,1	0,207766
5,862500	0,1	0,236577
5,864167	0,1	0,236885
5,865833	0,1	0,209994
5,867500	0,1	0,220873
5,869167	0,1	0,212973
5,870833	0,1	0,242019
5,872500	0,1	0,238046
5,874167	0,1	0,278692
5,875833	0,1	0,225121
5,877500	0,1	0,243968
5,879167	0,1	0,200983
5,880833	0,1	0,243376
5,882500	0,1	0,232371
5,884167	0,1	0,251286
5,885833	0,1	0,221364
5,887500	0,1	0,252400
5,889167	0,1	0,216087
5,890833	0,1	0,237281
5,892500	0,1	0,248710
5,894167	0,1	0,238634
5,895833	0,1	0,194410
5,897500	0,1	0,213855
5,899167	0,1	0,187972
5,900833	0,1	0,222457
5,902500	0,1	0,224226
5,904167	0,1	0,228034
5,905833	0,1	0,231786
5,907500	0,1	0,221709
5,909167	0,1	0,235286
5,910833	0,1	0,199921
5,912500	0,1	0,212983
5,914167	0,1	0,225392
5,915833	0,1	0,205831
5,917500	0,1	0,212391
5,919167	0,1	0,208649
5,920833	0,1	0,208347
5,922500	0,1	0,195006
5,924167	0,1	0,225451
5,925833	0,1	0,206418
5,927500	0,1	0,237115
5,929167	0,1	0,235189
5,930833	0,1	0,235825
5,932500	0,1	0,205842
5,934167	0,1	0,152617
5,935833	0,1	0,179583
5,937500	0,1	0,222692
5,939167	0,1	0,157177
5,940833	0,1	0,207461
5,942500	0,1	0,205020
5,944167	0,1	0,193187
5,945833	0,1	0,205839
5,947500	0,1	0,170397
5,949167	0,1	0,172150
5,950833	0,1	0,198919
5,952500	0,1	0,204602
5,954167	0,1	0,218854
5,955833	0,1	0,198165
5,957500	0,1	0,197989
5,959167	0,1	0,187095
5,960833	0,1	0,187670
5,962500	0,1	0,199919
5,964167	0,1	0,165185
5,965833	0,1	0,175550
5,967500	0,1	0,207351
5,969167	0,1	0,202735
5,970833	0,1	0,171694
5,972500	0,1	0,181356
5,974167	0,1	0,205592
5,975833	0,1	0,167119
5,977500	0,1	0,201389
5,979167	0,1	0,195642
5,980833	0,1	0,185096
5,982500	0,1	0,241739
5,984167	0,1	0,171939
5,985833	0,1	0,170872
5,987500	0,1	0,195527
5,989167	0,1	0,180710
5,990833	0,1	0,197160
5,992500	0,1	0,182586
5,994167	0,1	0,182533
5,995833	0,1	0,208184
5,997500	0,1	0,154721
5,999167	0,1	0,151772
6,000833	0,1	0,184581
