File Path	chrom://chromeleon01/ikbm_chromeleon/2022/Rezex/Esteban/220612_chitin_4_7.seq/706.smp/UV_VIS_1.channel/UV_VIS_1.chm
Channel	UV_VIS_1

Injection Information:
Data Vault	ikbm_chromeleon
Injection	7_24h-ChiBI_2
Injection Number	40
Position	RE3
Comment	
Processing Method	New ProcMethod
Instrument Method	Short_Rezex_6min_194nm
Type	Unknown
Status	Finished
Injection Date	12.06.2022
Injection Time	21:26:42
Injection Volume (µl)	8,000
Dilution Factor	1,0000
Weight	1,0000

Chromatogram Data Information:
Time Min. (min)	0,000833
Time Max. (min)	6,000833
Data Points	3601
Detector	UV
Generating Data System	Chromeleon 7.2.9.11323
Exporting Data System	Chromeleon 7.2.9.0
Operator	Instrument Controller
Signal Quantity	Absorbance
Signal Unit	mAU
Signal Min.	-0,111952
Signal Max.	131,997865
Channel	UV_VIS_1
Driver Name	VWD3000.dll
Channel Type	Evaluation
Min. Step (s)	0,1
Max. Step (s)	0,1
Average Step (s)	0,1

Signal Parameter Information:
Signal Info	WVL:194 nm

Chromatogram Data:
Time (min)	Step (s)	Value (mAU)
0,000833	n.a.	-0,063959
0,002500	0,1	-0,064930
0,004167	0,1	-0,077454
0,005833	0,1	-0,062484
0,007500	0,1	-0,030644
0,009167	0,1	-0,052073
0,010833	0,1	-0,038241
0,012500	0,1	-0,023937
0,014167	0,1	0,001304
0,015833	0,1	-0,029630
0,017500	0,1	-0,040938
0,019167	0,1	-0,040941
0,020833	0,1	-0,062250
0,022500	0,1	-0,037663
0,024167	0,1	-0,052339
0,025833	0,1	-0,070105
0,027500	0,1	-0,036793
0,029167	0,1	-0,079920
0,030833	0,1	-0,048384
0,032500	0,1	-0,062769
0,034167	0,1	-0,094417
0,035833	0,1	-0,061908
0,037500	0,1	-0,048028
0,039167	0,1	-0,042864
0,040833	0,1	-0,068309
0,042500	0,1	-0,075346
0,044167	0,1	-0,095834
0,045833	0,1	-0,084188
0,047500	0,1	-0,060593
0,049167	0,1	-0,085996
0,050833	0,1	-0,073442
0,052500	0,1	-0,074490
0,054167	0,1	-0,036959
0,055833	0,1	-0,050660
0,057500	0,1	-0,026261
0,059167	0,1	-0,047601
0,060833	0,1	-0,039046
0,062500	0,1	-0,028933
0,064167	0,1	-0,072066
0,065833	0,1	-0,062736
0,067500	0,1	-0,060640
0,069167	0,1	-0,049667
0,070833	0,1	-0,084114
0,072500	0,1	-0,028972
0,074167	0,1	-0,048372
0,075833	0,1	-0,054815
0,077500	0,1	-0,035603
0,079167	0,1	-0,037756
0,080833	0,1	0,004838
0,082500	0,1	-0,027926
0,084167	0,1	-0,066335
0,085833	0,1	-0,071407
0,087500	0,1	-0,034418
0,089167	0,1	0,005003
0,090833	0,1	-0,036096
0,092500	0,1	-0,022005
0,094167	0,1	-0,067104
0,095833	0,1	-0,018765
0,097500	0,1	-0,050755
0,099167	0,1	-0,069271
0,100833	0,1	-0,028160
0,102500	0,1	-0,049561
0,104167	0,1	-0,048542
0,105833	0,1	-0,048922
0,107500	0,1	-0,045513
0,109167	0,1	-0,082220
0,110833	0,1	-0,083062
0,112500	0,1	-0,081345
0,114167	0,1	-0,099446
0,115833	0,1	-0,044526
0,117500	0,1	-0,072298
0,119167	0,1	-0,057360
0,120833	0,1	-0,067440
0,122500	0,1	-0,111952
0,124167	0,1	-0,061659
0,125833	0,1	-0,029128
0,127500	0,1	-0,042542
0,129167	0,1	-0,020855
0,130833	0,1	-0,051589
0,132500	0,1	-0,064674
0,134167	0,1	-0,046323
0,135833	0,1	-0,049955
0,137500	0,1	-0,085149
0,139167	0,1	-0,005285
0,140833	0,1	-0,047824
0,142500	0,1	-0,069950
0,144167	0,1	-0,030091
0,145833	0,1	-0,078670
0,147500	0,1	-0,054027
0,149167	0,1	-0,053212
0,150833	0,1	-0,092195
0,152500	0,1	-0,068863
0,154167	0,1	-0,047576
0,155833	0,1	-0,032445
0,157500	0,1	-0,017468
0,159167	0,1	-0,017303
0,160833	0,1	-0,029762
0,162500	0,1	-0,084626
0,164167	0,1	-0,049219
0,165833	0,1	-0,059423
0,167500	0,1	-0,029102
0,169167	0,1	-0,088516
0,170833	0,1	-0,043147
0,172500	0,1	-0,078420
0,174167	0,1	-0,057045
0,175833	0,1	-0,026162
0,177500	0,1	-0,021558
0,179167	0,1	-0,048472
0,180833	0,1	-0,021018
0,182500	0,1	-0,062900
0,184167	0,1	-0,032195
0,185833	0,1	-0,070009
0,187500	0,1	-0,007912
0,189167	0,1	-0,042991
0,190833	0,1	-0,045093
0,192500	0,1	-0,057100
0,194167	0,1	-0,023269
0,195833	0,1	-0,051790
0,197500	0,1	-0,042910
0,199167	0,1	-0,049737
0,200833	0,1	-0,049791
0,202500	0,1	-0,018798
0,204167	0,1	-0,013729
0,205833	0,1	-0,034014
0,207500	0,1	-0,019175
0,209167	0,1	-0,021937
0,210833	0,1	-0,059934
0,212500	0,1	-0,059134
0,214167	0,1	-0,045906
0,215833	0,1	-0,044323
0,217500	0,1	-0,093769
0,219167	0,1	-0,029954
0,220833	0,1	-0,013252
0,222500	0,1	-0,010182
0,224167	0,1	-0,025481
0,225833	0,1	-0,030445
0,227500	0,1	-0,020852
0,229167	0,1	0,005232
0,230833	0,1	-0,026664
0,232500	0,1	-0,039094
0,234167	0,1	-0,022659
0,235833	0,1	-0,008134
0,237500	0,1	-0,032309
0,239167	0,1	0,024831
0,240833	0,1	-0,060567
0,242500	0,1	-0,028484
0,244167	0,1	-0,044319
0,245833	0,1	-0,028036
0,247500	0,1	-0,040709
0,249167	0,1	-0,025878
0,250833	0,1	0,009221
0,252500	0,1	-0,040320
0,254167	0,1	-0,047024
0,255833	0,1	-0,047961
0,257500	0,1	-0,052313
0,259167	0,1	-0,010518
0,260833	0,1	-0,052885
0,262500	0,1	-0,043709
0,264167	0,1	-0,040307
0,265833	0,1	-0,045130
0,267500	0,1	-0,052277
0,269167	0,1	-0,022018
0,270833	0,1	-0,051754
0,272500	0,1	-0,049767
0,274167	0,1	-0,035855
0,275833	0,1	-0,026230
0,277500	0,1	-0,007292
0,279167	0,1	-0,034758
0,280833	0,1	-0,025550
0,282500	0,1	-0,048409
0,284167	0,1	-0,043074
0,285833	0,1	-0,039073
0,287500	0,1	-0,017054
0,289167	0,1	-0,017566
0,290833	0,1	-0,030833
0,292500	0,1	-0,037339
0,294167	0,1	-0,012737
0,295833	0,1	-0,000053
0,297500	0,1	-0,030249
0,299167	0,1	-0,027481
0,300833	0,1	-0,031733
0,302500	0,1	-0,006814
0,304167	0,1	-0,021427
0,305833	0,1	-0,042386
0,307500	0,1	-0,018343
0,309167	0,1	-0,027577
0,310833	0,1	-0,021911
0,312500	0,1	-0,031732
0,314167	0,1	-0,007004
0,315833	0,1	-0,052050
0,317500	0,1	0,003711
0,319167	0,1	-0,031688
0,320833	0,1	-0,028705
0,322500	0,1	-0,012155
0,324167	0,1	0,012381
0,325833	0,1	-0,025539
0,327500	0,1	-0,043903
0,329167	0,1	0,025577
0,330833	0,1	-0,024121
0,332500	0,1	-0,016987
0,334167	0,1	-0,004007
0,335833	0,1	-0,001656
0,337500	0,1	-0,000368
0,339167	0,1	-0,037131
0,340833	0,1	-0,030420
0,342500	0,1	-0,028550
0,344167	0,1	-0,025067
0,345833	0,1	-0,016696
0,347500	0,1	-0,033054
0,349167	0,1	-0,016663
0,350833	0,1	-0,006972
0,352500	0,1	-0,038040
0,354167	0,1	-0,005109
0,355833	0,1	-0,008032
0,357500	0,1	-0,019911
0,359167	0,1	-0,023587
0,360833	0,1	-0,030860
0,362500	0,1	-0,018112
0,364167	0,1	-0,016151
0,365833	0,1	-0,008196
0,367500	0,1	-0,019394
0,369167	0,1	-0,012742
0,370833	0,1	0,003946
0,372500	0,1	-0,056192
0,374167	0,1	-0,042359
0,375833	0,1	-0,063486
0,377500	0,1	-0,044038
0,379167	0,1	-0,005338
0,380833	0,1	-0,018623
0,382500	0,1	0,008290
0,384167	0,1	-0,028731
0,385833	0,1	-0,020116
0,387500	0,1	-0,044064
0,389167	0,1	-0,010163
0,390833	0,1	-0,034758
0,392500	0,1	-0,007684
0,394167	0,1	0,021984
0,395833	0,1	0,007521
0,397500	0,1	-0,011828
0,399167	0,1	0,006034
0,400833	0,1	-0,036131
0,402500	0,1	-0,007531
0,404167	0,1	-0,007715
0,405833	0,1	0,000919
0,407500	0,1	0,006461
0,409167	0,1	0,015597
0,410833	0,1	-0,023933
0,412500	0,1	-0,001280
0,414167	0,1	-0,017245
0,415833	0,1	-0,029155
0,417500	0,1	-0,009588
0,419167	0,1	-0,024647
0,420833	0,1	0,018944
0,422500	0,1	-0,030434
0,424167	0,1	0,002556
0,425833	0,1	-0,000075
0,427500	0,1	-0,040160
0,429167	0,1	-0,012319
0,430833	0,1	0,003975
0,432500	0,1	0,007686
0,434167	0,1	-0,010931
0,435833	0,1	-0,062732
0,437500	0,1	-0,005406
0,439167	0,1	-0,018397
0,440833	0,1	0,008354
0,442500	0,1	0,005167
0,444167	0,1	0,017472
0,445833	0,1	0,008707
0,447500	0,1	-0,015818
0,449167	0,1	0,016988
0,450833	0,1	-0,036582
0,452500	0,1	-0,013580
0,454167	0,1	-0,013702
0,455833	0,1	0,012926
0,457500	0,1	0,012895
0,459167	0,1	-0,040256
0,460833	0,1	-0,029967
0,462500	0,1	-0,017052
0,464167	0,1	-0,002176
0,465833	0,1	-0,005681
0,467500	0,1	0,000503
0,469167	0,1	-0,003621
0,470833	0,1	-0,008874
0,472500	0,1	-0,012023
0,474167	0,1	0,000756
0,475833	0,1	-0,020264
0,477500	0,1	-0,035595
0,479167	0,1	-0,029477
0,480833	0,1	-0,022076
0,482500	0,1	0,003101
0,484167	0,1	0,021556
0,485833	0,1	-0,001205
0,487500	0,1	-0,028987
0,489167	0,1	-0,013486
0,490833	0,1	0,030440
0,492500	0,1	0,019249
0,494167	0,1	0,006521
0,495833	0,1	-0,032569
0,497500	0,1	-0,004074
0,499167	0,1	0,041423
0,500833	0,1	-0,006089
0,502500	0,1	-0,048060
0,504167	0,1	-0,020184
0,505833	0,1	0,034272
0,507500	0,1	0,003568
0,509167	0,1	-0,000947
0,510833	0,1	0,022206
0,512500	0,1	0,018928
0,514167	0,1	0,005326
0,515833	0,1	-0,009199
0,517500	0,1	-0,020593
0,519167	0,1	0,012251
0,520833	0,1	0,016568
0,522500	0,1	-0,026670
0,524167	0,1	-0,001179
0,525833	0,1	-0,009417
0,527500	0,1	-0,033534
0,529167	0,1	0,056391
0,530833	0,1	-0,025728
0,532500	0,1	0,012242
0,534167	0,1	-0,010248
0,535833	0,1	-0,001730
0,537500	0,1	0,014924
0,539167	0,1	0,000661
0,540833	0,1	-0,008002
0,542500	0,1	0,006714
0,544167	0,1	0,013864
0,545833	0,1	0,002593
0,547500	0,1	0,036592
0,549167	0,1	0,024301
0,550833	0,1	-0,006255
0,552500	0,1	0,018723
0,554167	0,1	-0,004362
0,555833	0,1	-0,028318
0,557500	0,1	0,003455
0,559167	0,1	0,018434
0,560833	0,1	0,038336
0,562500	0,1	0,020602
0,564167	0,1	0,024750
0,565833	0,1	-0,000269
0,567500	0,1	0,005682
0,569167	0,1	-0,003458
0,570833	0,1	-0,013417
0,572500	0,1	0,051341
0,574167	0,1	0,047168
0,575833	0,1	0,063239
0,577500	0,1	0,012619
0,579167	0,1	0,027035
0,580833	0,1	0,041041
0,582500	0,1	0,030969
0,584167	0,1	0,034475
0,585833	0,1	-0,008031
0,587500	0,1	0,041868
0,589167	0,1	0,007044
0,590833	0,1	0,026192
0,592500	0,1	0,059073
0,594167	0,1	0,026204
0,595833	0,1	0,029416
0,597500	0,1	0,012510
0,599167	0,1	0,074914
0,600833	0,1	0,037092
0,602500	0,1	0,026779
0,604167	0,1	0,056469
0,605833	0,1	0,048742
0,607500	0,1	0,031679
0,609167	0,1	0,010133
0,610833	0,1	0,061836
0,612500	0,1	0,005535
0,614167	0,1	0,037719
0,615833	0,1	0,065127
0,617500	0,1	0,050485
0,619167	0,1	0,082490
0,620833	0,1	0,046753
0,622500	0,1	0,048485
0,624167	0,1	0,049257
0,625833	0,1	0,065293
0,627500	0,1	0,051163
0,629167	0,1	0,049546
0,630833	0,1	0,020433
0,632500	0,1	0,047926
0,634167	0,1	0,052222
0,635833	0,1	0,035671
0,637500	0,1	0,053570
0,639167	0,1	0,069192
0,640833	0,1	0,089804
0,642500	0,1	0,088812
0,644167	0,1	0,076156
0,645833	0,1	0,041855
0,647500	0,1	0,068964
0,649167	0,1	0,053478
0,650833	0,1	0,098976
0,652500	0,1	0,065369
0,654167	0,1	0,109867
0,655833	0,1	0,089392
0,657500	0,1	0,101304
0,659167	0,1	0,099472
0,660833	0,1	0,076606
0,662500	0,1	0,077148
0,664167	0,1	0,068809
0,665833	0,1	0,095728
0,667500	0,1	0,085913
0,669167	0,1	0,093540
0,670833	0,1	0,076960
0,672500	0,1	0,076312
0,674167	0,1	0,107515
0,675833	0,1	0,085080
0,677500	0,1	0,137952
0,679167	0,1	0,116547
0,680833	0,1	0,104147
0,682500	0,1	0,126879
0,684167	0,1	0,085984
0,685833	0,1	0,107645
0,687500	0,1	0,102178
0,689167	0,1	0,122075
0,690833	0,1	0,112649
0,692500	0,1	0,153899
0,694167	0,1	0,127855
0,695833	0,1	0,108619
0,697500	0,1	0,180020
0,699167	0,1	0,139357
0,700833	0,1	0,122151
0,702500	0,1	0,110554
0,704167	0,1	0,151968
0,705833	0,1	0,128178
0,707500	0,1	0,112036
0,709167	0,1	0,146169
0,710833	0,1	0,103283
0,712500	0,1	0,161755
0,714167	0,1	0,158325
0,715833	0,1	0,128789
0,717500	0,1	0,156321
0,719167	0,1	0,157550
0,720833	0,1	0,146084
0,722500	0,1	0,192397
0,724167	0,1	0,203777
0,725833	0,1	0,140201
0,727500	0,1	0,161411
0,729167	0,1	0,166955
0,730833	0,1	0,208120
0,732500	0,1	0,225653
0,734167	0,1	0,185361
0,735833	0,1	0,227675
0,737500	0,1	0,213031
0,739167	0,1	0,198340
0,740833	0,1	0,178268
0,742500	0,1	0,204193
0,744167	0,1	0,182683
0,745833	0,1	0,213600
0,747500	0,1	0,265693
0,749167	0,1	0,191748
0,750833	0,1	0,221655
0,752500	0,1	0,225108
0,754167	0,1	0,237383
0,755833	0,1	0,195284
0,757500	0,1	0,183163
0,759167	0,1	0,212407
0,760833	0,1	0,238666
0,762500	0,1	0,211325
0,764167	0,1	0,251454
0,765833	0,1	0,251048
0,767500	0,1	0,196352
0,769167	0,1	0,249617
0,770833	0,1	0,213132
0,772500	0,1	0,208678
0,774167	0,1	0,228424
0,775833	0,1	0,194607
0,777500	0,1	0,234314
0,779167	0,1	0,199955
0,780833	0,1	0,195051
0,782500	0,1	0,238406
0,784167	0,1	0,243732
0,785833	0,1	0,268213
0,787500	0,1	0,208596
0,789167	0,1	0,192636
0,790833	0,1	0,254479
0,792500	0,1	0,245410
0,794167	0,1	0,238191
0,795833	0,1	0,235518
0,797500	0,1	0,244246
0,799167	0,1	0,219251
0,800833	0,1	0,214156
0,802500	0,1	0,229229
0,804167	0,1	0,235966
0,805833	0,1	0,210779
0,807500	0,1	0,245076
0,809167	0,1	0,230816
0,810833	0,1	0,262026
0,812500	0,1	0,214359
0,814167	0,1	0,242338
0,815833	0,1	0,235390
0,817500	0,1	0,218316
0,819167	0,1	0,219278
0,820833	0,1	0,230004
0,822500	0,1	0,224178
0,824167	0,1	0,233161
0,825833	0,1	0,222984
0,827500	0,1	0,234256
0,829167	0,1	0,228202
0,830833	0,1	0,240892
0,832500	0,1	0,206688
0,834167	0,1	0,224396
0,835833	0,1	0,227622
0,837500	0,1	0,262575
0,839167	0,1	0,240743
0,840833	0,1	0,243732
0,842500	0,1	0,208299
0,844167	0,1	0,228133
0,845833	0,1	0,237157
0,847500	0,1	0,235162
0,849167	0,1	0,248306
0,850833	0,1	0,270377
0,852500	0,1	0,251212
0,854167	0,1	0,252722
0,855833	0,1	0,252111
0,857500	0,1	0,226437
0,859167	0,1	0,247207
0,860833	0,1	0,223473
0,862500	0,1	0,269723
0,864167	0,1	0,286325
0,865833	0,1	0,253022
0,867500	0,1	0,261387
0,869167	0,1	0,280495
0,870833	0,1	0,272606
0,872500	0,1	0,262163
0,874167	0,1	0,223477
0,875833	0,1	0,246432
0,877500	0,1	0,260485
0,879167	0,1	0,305169
0,880833	0,1	0,264915
0,882500	0,1	0,234395
0,884167	0,1	0,308223
0,885833	0,1	0,271359
0,887500	0,1	0,283204
0,889167	0,1	0,284301
0,890833	0,1	0,266905
0,892500	0,1	0,272123
0,894167	0,1	0,304172
0,895833	0,1	0,285659
0,897500	0,1	0,280500
0,899167	0,1	0,265230
0,900833	0,1	0,298667
0,902500	0,1	0,288815
0,904167	0,1	0,305210
0,905833	0,1	0,322707
0,907500	0,1	0,294429
0,909167	0,1	0,281986
0,910833	0,1	0,294384
0,912500	0,1	0,305567
0,914167	0,1	0,364463
0,915833	0,1	0,353297
0,917500	0,1	0,340601
0,919167	0,1	0,344820
0,920833	0,1	0,305223
0,922500	0,1	0,341683
0,924167	0,1	0,293819
0,925833	0,1	0,313559
0,927500	0,1	0,331991
0,929167	0,1	0,326586
0,930833	0,1	0,336895
0,932500	0,1	0,330097
0,934167	0,1	0,342978
0,935833	0,1	0,348238
0,937500	0,1	0,329775
0,939167	0,1	0,394663
0,940833	0,1	0,303853
0,942500	0,1	0,344137
0,944167	0,1	0,404242
0,945833	0,1	0,384987
0,947500	0,1	0,346445
0,949167	0,1	0,412769
0,950833	0,1	0,408574
0,952500	0,1	0,374285
0,954167	0,1	0,425489
0,955833	0,1	0,375969
0,957500	0,1	0,386016
0,959167	0,1	0,400795
0,960833	0,1	0,393653
0,962500	0,1	0,427941
0,964167	0,1	0,413285
0,965833	0,1	0,407321
0,967500	0,1	0,383343
0,969167	0,1	0,398225
0,970833	0,1	0,429381
0,972500	0,1	0,426016
0,974167	0,1	0,379350
0,975833	0,1	0,440632
0,977500	0,1	0,432176
0,979167	0,1	0,473191
0,980833	0,1	0,471689
0,982500	0,1	0,416424
0,984167	0,1	0,468806
0,985833	0,1	0,439823
0,987500	0,1	0,482480
0,989167	0,1	0,451298
0,990833	0,1	0,436625
0,992500	0,1	0,461601
0,994167	0,1	0,507469
0,995833	0,1	0,503256
0,997500	0,1	0,496479
0,999167	0,1	0,513055
1,000833	0,1	0,532426
1,002500	0,1	0,514668
1,004167	0,1	0,510231
1,005833	0,1	0,524821
1,007500	0,1	0,551546
1,009167	0,1	0,550817
1,010833	0,1	0,545081
1,012500	0,1	0,567801
1,014167	0,1	0,630064
1,015833	0,1	0,596704
1,017500	0,1	0,626803
1,019167	0,1	0,632591
1,020833	0,1	0,622316
1,022500	0,1	0,653268
1,024167	0,1	0,684700
1,025833	0,1	0,675788
1,027500	0,1	0,675877
1,029167	0,1	0,683283
1,030833	0,1	0,701031
1,032500	0,1	0,725254
1,034167	0,1	0,710337
1,035833	0,1	0,751324
1,037500	0,1	0,782051
1,039167	0,1	0,787548
1,040833	0,1	0,774162
1,042500	0,1	0,746713
1,044167	0,1	0,829631
1,045833	0,1	0,811009
1,047500	0,1	0,774391
1,049167	0,1	0,872817
1,050833	0,1	0,874671
1,052500	0,1	0,929960
1,054167	0,1	0,972919
1,055833	0,1	1,021979
1,057500	0,1	1,040336
1,059167	0,1	1,186498
1,060833	0,1	1,250792
1,062500	0,1	1,452688
1,064167	0,1	1,622613
1,065833	0,1	1,873210
1,067500	0,1	2,198534
1,069167	0,1	2,607161
1,070833	0,1	3,109705
1,072500	0,1	3,731142
1,074167	0,1	4,404566
1,075833	0,1	5,321478
1,077500	0,1	6,276906
1,079167	0,1	7,408524
1,080833	0,1	8,710032
1,082500	0,1	10,102298
1,084167	0,1	11,710567
1,085833	0,1	13,446455
1,087500	0,1	15,324260
1,089167	0,1	17,215076
1,090833	0,1	19,213629
1,092500	0,1	21,316231
1,094167	0,1	23,355835
1,095833	0,1	25,388057
1,097500	0,1	27,413647
1,099167	0,1	29,342620
1,100833	0,1	31,125369
1,102500	0,1	32,826107
1,104167	0,1	34,320560
1,105833	0,1	35,648569
1,107500	0,1	36,809605
1,109167	0,1	37,744007
1,110833	0,1	38,520599
1,112500	0,1	39,103170
1,114167	0,1	39,388146
1,115833	0,1	39,569410
1,117500	0,1	39,571339
1,119167	0,1	39,433365
1,120833	0,1	39,059357
1,122500	0,1	38,591019
1,124167	0,1	38,048652
1,125833	0,1	37,356265
1,127500	0,1	36,546572
1,129167	0,1	35,720636
1,130833	0,1	34,786268
1,132500	0,1	33,855821
1,134167	0,1	32,762942
1,135833	0,1	31,786576
1,137500	0,1	30,724209
1,139167	0,1	29,706269
1,140833	0,1	28,630630
1,142500	0,1	27,628846
1,144167	0,1	26,643967
1,145833	0,1	25,705972
1,147500	0,1	24,740340
1,149167	0,1	23,845396
1,150833	0,1	23,033557
1,152500	0,1	22,261467
1,154167	0,1	21,472859
1,155833	0,1	20,776134
1,157500	0,1	20,159533
1,159167	0,1	19,594098
1,160833	0,1	19,042945
1,162500	0,1	18,470733
1,164167	0,1	17,994022
1,165833	0,1	17,620531
1,167500	0,1	17,177177
1,169167	0,1	16,825587
1,170833	0,1	16,462259
1,172500	0,1	16,150615
1,174167	0,1	15,846991
1,175833	0,1	15,585463
1,177500	0,1	15,356795
1,179167	0,1	15,093198
1,180833	0,1	14,852898
1,182500	0,1	14,699219
1,184167	0,1	14,519007
1,185833	0,1	14,431634
1,187500	0,1	14,341047
1,189167	0,1	14,290063
1,190833	0,1	14,333449
1,192500	0,1	14,472541
1,194167	0,1	14,684101
1,195833	0,1	15,005562
1,197500	0,1	15,456063
1,199167	0,1	16,066611
1,200833	0,1	16,839186
1,202500	0,1	17,808774
1,204167	0,1	19,029733
1,205833	0,1	20,452935
1,207500	0,1	22,136724
1,209167	0,1	24,064745
1,210833	0,1	26,317587
1,212500	0,1	28,810250
1,214167	0,1	31,546482
1,215833	0,1	34,646000
1,217500	0,1	37,908572
1,219167	0,1	41,447442
1,220833	0,1	45,140651
1,222500	0,1	48,981266
1,224167	0,1	53,013680
1,225833	0,1	57,153444
1,227500	0,1	61,300170
1,229167	0,1	65,485591
1,230833	0,1	69,664031
1,232500	0,1	73,742380
1,234167	0,1	77,712551
1,235833	0,1	81,555473
1,237500	0,1	85,184279
1,239167	0,1	88,613650
1,240833	0,1	91,909835
1,242500	0,1	94,881454
1,244167	0,1	97,618955
1,245833	0,1	100,023955
1,247500	0,1	102,245138
1,249167	0,1	104,123513
1,250833	0,1	105,800722
1,252500	0,1	107,116515
1,254167	0,1	108,126607
1,255833	0,1	108,931606
1,257500	0,1	109,381361
1,259167	0,1	109,637749
1,260833	0,1	109,533321
1,262500	0,1	109,266996
1,264167	0,1	108,757208
1,265833	0,1	107,967472
1,267500	0,1	106,990870
1,269167	0,1	105,851787
1,270833	0,1	104,475822
1,272500	0,1	102,941452
1,274167	0,1	101,239592
1,275833	0,1	99,418277
1,277500	0,1	97,500616
1,279167	0,1	95,366700
1,280833	0,1	93,218146
1,282500	0,1	91,016501
1,284167	0,1	88,695693
1,285833	0,1	86,456943
1,287500	0,1	84,061718
1,289167	0,1	81,704023
1,290833	0,1	79,355577
1,292500	0,1	77,025098
1,294167	0,1	74,709621
1,295833	0,1	72,396786
1,297500	0,1	70,139710
1,299167	0,1	68,005566
1,300833	0,1	65,849371
1,302500	0,1	63,769877
1,304167	0,1	61,771962
1,305833	0,1	59,805551
1,307500	0,1	57,933070
1,309167	0,1	56,090001
1,310833	0,1	54,367084
1,312500	0,1	52,758016
1,314167	0,1	51,109473
1,315833	0,1	49,575845
1,317500	0,1	48,132863
1,319167	0,1	46,709085
1,320833	0,1	45,304847
1,322500	0,1	44,066753
1,324167	0,1	42,827470
1,325833	0,1	41,655621
1,327500	0,1	40,475725
1,329167	0,1	39,449764
1,330833	0,1	38,349288
1,332500	0,1	37,343731
1,334167	0,1	36,385498
1,335833	0,1	35,502310
1,337500	0,1	34,579352
1,339167	0,1	33,720598
1,340833	0,1	32,908399
1,342500	0,1	32,096732
1,344167	0,1	31,269520
1,345833	0,1	30,578373
1,347500	0,1	29,850987
1,349167	0,1	29,129113
1,350833	0,1	28,519137
1,352500	0,1	27,825081
1,354167	0,1	27,209032
1,355833	0,1	26,561160
1,357500	0,1	25,949344
1,359167	0,1	25,416994
1,360833	0,1	24,805995
1,362500	0,1	24,297407
1,364167	0,1	23,731382
1,365833	0,1	23,266732
1,367500	0,1	22,728567
1,369167	0,1	22,250644
1,370833	0,1	21,845165
1,372500	0,1	21,292347
1,374167	0,1	20,871545
1,375833	0,1	20,455456
1,377500	0,1	20,011079
1,379167	0,1	19,622249
1,380833	0,1	19,220759
1,382500	0,1	18,856016
1,384167	0,1	18,454530
1,385833	0,1	18,085534
1,387500	0,1	17,697723
1,389167	0,1	17,423400
1,390833	0,1	17,044141
1,392500	0,1	16,722296
1,394167	0,1	16,432839
1,395833	0,1	16,131262
1,397500	0,1	15,852456
1,399167	0,1	15,572786
1,400833	0,1	15,301023
1,402500	0,1	15,053438
1,404167	0,1	14,822662
1,405833	0,1	14,541644
1,407500	0,1	14,298085
1,409167	0,1	14,092047
1,410833	0,1	13,849394
1,412500	0,1	13,666159
1,414167	0,1	13,430693
1,415833	0,1	13,285754
1,417500	0,1	13,116233
1,419167	0,1	12,892180
1,420833	0,1	12,670216
1,422500	0,1	12,533848
1,424167	0,1	12,369067
1,425833	0,1	12,168584
1,427500	0,1	12,064572
1,429167	0,1	11,864265
1,430833	0,1	11,741152
1,432500	0,1	11,528892
1,434167	0,1	11,387458
1,435833	0,1	11,278793
1,437500	0,1	11,122220
1,439167	0,1	10,976077
1,440833	0,1	10,820021
1,442500	0,1	10,670139
1,444167	0,1	10,567381
1,445833	0,1	10,446087
1,447500	0,1	10,333118
1,449167	0,1	10,211392
1,450833	0,1	10,112654
1,452500	0,1	10,000327
1,454167	0,1	9,828993
1,455833	0,1	9,784680
1,457500	0,1	9,609887
1,459167	0,1	9,547095
1,460833	0,1	9,439270
1,462500	0,1	9,352283
1,464167	0,1	9,223433
1,465833	0,1	9,169576
1,467500	0,1	9,064800
1,469167	0,1	8,985813
1,470833	0,1	8,904701
1,472500	0,1	8,821010
1,474167	0,1	8,766113
1,475833	0,1	8,691759
1,477500	0,1	8,650897
1,479167	0,1	8,586052
1,480833	0,1	8,510749
1,482500	0,1	8,472923
1,484167	0,1	8,412487
1,485833	0,1	8,379195
1,487500	0,1	8,328819
1,489167	0,1	8,285791
1,490833	0,1	8,249509
1,492500	0,1	8,196221
1,494167	0,1	8,157064
1,495833	0,1	8,100552
1,497500	0,1	8,138991
1,499167	0,1	8,077824
1,500833	0,1	8,102481
1,502500	0,1	8,074735
1,504167	0,1	7,997925
1,505833	0,1	8,019909
1,507500	0,1	7,966331
1,509167	0,1	7,924066
1,510833	0,1	7,964957
1,512500	0,1	7,929554
1,514167	0,1	7,890077
1,515833	0,1	7,883635
1,517500	0,1	7,896666
1,519167	0,1	7,887472
1,520833	0,1	7,914911
1,522500	0,1	7,860610
1,524167	0,1	7,836554
1,525833	0,1	7,849346
1,527500	0,1	7,798821
1,529167	0,1	7,879597
1,530833	0,1	7,794008
1,532500	0,1	7,781107
1,534167	0,1	7,771794
1,535833	0,1	7,762615
1,537500	0,1	7,766611
1,539167	0,1	7,747144
1,540833	0,1	7,748384
1,542500	0,1	7,733421
1,544167	0,1	7,731156
1,545833	0,1	7,736498
1,547500	0,1	7,722899
1,549167	0,1	7,706344
1,550833	0,1	7,712060
1,552500	0,1	7,765484
1,554167	0,1	7,702211
1,555833	0,1	7,705866
1,557500	0,1	7,708766
1,559167	0,1	7,711879
1,560833	0,1	7,714077
1,562500	0,1	7,708112
1,564167	0,1	7,656236
1,565833	0,1	7,726797
1,567500	0,1	7,711196
1,569167	0,1	7,719601
1,570833	0,1	7,716995
1,572500	0,1	7,730482
1,574167	0,1	7,668166
1,575833	0,1	7,651081
1,577500	0,1	7,675508
1,579167	0,1	7,627380
1,580833	0,1	7,678877
1,582500	0,1	7,643552
1,584167	0,1	7,661335
1,585833	0,1	7,631475
1,587500	0,1	7,580579
1,589167	0,1	7,593267
1,590833	0,1	7,568288
1,592500	0,1	7,584803
1,594167	0,1	7,549648
1,595833	0,1	7,551254
1,597500	0,1	7,488845
1,599167	0,1	7,491207
1,600833	0,1	7,443499
1,602500	0,1	7,460930
1,604167	0,1	7,407015
1,605833	0,1	7,428824
1,607500	0,1	7,364629
1,609167	0,1	7,406144
1,610833	0,1	7,355820
1,612500	0,1	7,275761
1,614167	0,1	7,334659
1,615833	0,1	7,252350
1,617500	0,1	7,246630
1,619167	0,1	7,202554
1,620833	0,1	7,222280
1,622500	0,1	7,199936
1,624167	0,1	7,120901
1,625833	0,1	7,121086
1,627500	0,1	7,054131
1,629167	0,1	7,027189
1,630833	0,1	7,029150
1,632500	0,1	6,965022
1,634167	0,1	6,920710
1,635833	0,1	6,917699
1,637500	0,1	6,919666
1,639167	0,1	6,871439
1,640833	0,1	6,852643
1,642500	0,1	6,828437
1,644167	0,1	6,795632
1,645833	0,1	6,770305
1,647500	0,1	6,718073
1,649167	0,1	6,723105
1,650833	0,1	6,670980
1,652500	0,1	6,687314
1,654167	0,1	6,651542
1,655833	0,1	6,561033
1,657500	0,1	6,648897
1,659167	0,1	6,570181
1,660833	0,1	6,581837
1,662500	0,1	6,593891
1,664167	0,1	6,572225
1,665833	0,1	6,535234
1,667500	0,1	6,563437
1,669167	0,1	6,519366
1,670833	0,1	6,505254
1,672500	0,1	6,458846
1,674167	0,1	6,541844
1,675833	0,1	6,504704
1,677500	0,1	6,537187
1,679167	0,1	6,491538
1,680833	0,1	6,559315
1,682500	0,1	6,538879
1,684167	0,1	6,508346
1,685833	0,1	6,531583
1,687500	0,1	6,549052
1,689167	0,1	6,562877
1,690833	0,1	6,596688
1,692500	0,1	6,588474
1,694167	0,1	6,611825
1,695833	0,1	6,557941
1,697500	0,1	6,628346
1,699167	0,1	6,639386
1,700833	0,1	6,665169
1,702500	0,1	6,660038
1,704167	0,1	6,692076
1,705833	0,1	6,730480
1,707500	0,1	6,701434
1,709167	0,1	6,802605
1,710833	0,1	6,751059
1,712500	0,1	6,789355
1,714167	0,1	6,814125
1,715833	0,1	6,777222
1,717500	0,1	6,800199
1,719167	0,1	6,825619
1,720833	0,1	6,836369
1,722500	0,1	6,838621
1,724167	0,1	6,826005
1,725833	0,1	6,865617
1,727500	0,1	6,848807
1,729167	0,1	6,862639
1,730833	0,1	6,837221
1,732500	0,1	6,862630
1,734167	0,1	6,845723
1,735833	0,1	6,861231
1,737500	0,1	6,851709
1,739167	0,1	6,828996
1,740833	0,1	6,832073
1,742500	0,1	6,810767
1,744167	0,1	6,829264
1,745833	0,1	6,799181
1,747500	0,1	6,771610
1,749167	0,1	6,767868
1,750833	0,1	6,746193
1,752500	0,1	6,686025
1,754167	0,1	6,696939
1,755833	0,1	6,660139
1,757500	0,1	6,638646
1,759167	0,1	6,608939
1,760833	0,1	6,560366
1,762500	0,1	6,547377
1,764167	0,1	6,519355
1,765833	0,1	6,468470
1,767500	0,1	6,441007
1,769167	0,1	6,404492
1,770833	0,1	6,368075
1,772500	0,1	6,365737
1,774167	0,1	6,260833
1,775833	0,1	6,273969
1,777500	0,1	6,215935
1,779167	0,1	6,222179
1,780833	0,1	6,170742
1,782500	0,1	6,137057
1,784167	0,1	6,107860
1,785833	0,1	6,027604
1,787500	0,1	6,009614
1,789167	0,1	5,959691
1,790833	0,1	5,937214
1,792500	0,1	5,894950
1,794167	0,1	5,887131
1,795833	0,1	5,829055
1,797500	0,1	5,788482
1,799167	0,1	5,731779
1,800833	0,1	5,680224
1,802500	0,1	5,607005
1,804167	0,1	5,658399
1,805833	0,1	5,578254
1,807500	0,1	5,546928
1,809167	0,1	5,478446
1,810833	0,1	5,481143
1,812500	0,1	5,433740
1,814167	0,1	5,373902
1,815833	0,1	5,351596
1,817500	0,1	5,346173
1,819167	0,1	5,319272
1,820833	0,1	5,291283
1,822500	0,1	5,236158
1,824167	0,1	5,240836
1,825833	0,1	5,209449
1,827500	0,1	5,151509
1,829167	0,1	5,151541
1,830833	0,1	5,178256
1,832500	0,1	5,194249
1,834167	0,1	5,206070
1,835833	0,1	5,194342
1,837500	0,1	5,249582
1,839167	0,1	5,197461
1,840833	0,1	5,250105
1,842500	0,1	5,229935
1,844167	0,1	5,292672
1,845833	0,1	5,304662
1,847500	0,1	5,357157
1,849167	0,1	5,397336
1,850833	0,1	5,413789
1,852500	0,1	5,476758
1,854167	0,1	5,547645
1,855833	0,1	5,558871
1,857500	0,1	5,651509
1,859167	0,1	5,654021
1,860833	0,1	5,713315
1,862500	0,1	5,781928
1,864167	0,1	5,783682
1,865833	0,1	5,810900
1,867500	0,1	5,928052
1,869167	0,1	5,987201
1,870833	0,1	5,990179
1,872500	0,1	6,064529
1,874167	0,1	6,143191
1,875833	0,1	6,171567
1,877500	0,1	6,263021
1,879167	0,1	6,279184
1,880833	0,1	6,338841
1,882500	0,1	6,359193
1,884167	0,1	6,432104
1,885833	0,1	6,457429
1,887500	0,1	6,506825
1,889167	0,1	6,589013
1,890833	0,1	6,592208
1,892500	0,1	6,653947
1,894167	0,1	6,730002
1,895833	0,1	6,748050
1,897500	0,1	6,794959
1,899167	0,1	6,878879
1,900833	0,1	6,881896
1,902500	0,1	6,931804
1,904167	0,1	6,983036
1,905833	0,1	7,012494
1,907500	0,1	7,034678
1,909167	0,1	7,076172
1,910833	0,1	7,079935
1,912500	0,1	7,084061
1,914167	0,1	7,193452
1,915833	0,1	7,182535
1,917500	0,1	7,190483
1,919167	0,1	7,286239
1,920833	0,1	7,301052
1,922500	0,1	7,286949
1,924167	0,1	7,285444
1,925833	0,1	7,281427
1,927500	0,1	7,329779
1,929167	0,1	7,373001
1,930833	0,1	7,363296
1,932500	0,1	7,410825
1,934167	0,1	7,392497
1,935833	0,1	7,396435
1,937500	0,1	7,392581
1,939167	0,1	7,400171
1,940833	0,1	7,422807
1,942500	0,1	7,458669
1,944167	0,1	7,492243
1,945833	0,1	7,483396
1,947500	0,1	7,517701
1,949167	0,1	7,515601
1,950833	0,1	7,526129
1,952500	0,1	7,509137
1,954167	0,1	7,543539
1,955833	0,1	7,536464
1,957500	0,1	7,538582
1,959167	0,1	7,599809
1,960833	0,1	7,557904
1,962500	0,1	7,575390
1,964167	0,1	7,608503
1,965833	0,1	7,608833
1,967500	0,1	7,633066
1,969167	0,1	7,679699
1,970833	0,1	7,666181
1,972500	0,1	7,637387
1,974167	0,1	7,694035
1,975833	0,1	7,669785
1,977500	0,1	7,689901
1,979167	0,1	7,699571
1,980833	0,1	7,751159
1,982500	0,1	7,728033
1,984167	0,1	7,794003
1,985833	0,1	7,800051
1,987500	0,1	7,814885
1,989167	0,1	7,858045
1,990833	0,1	7,901950
1,992500	0,1	7,892080
1,994167	0,1	7,934206
1,995833	0,1	7,983401
1,997500	0,1	7,977173
1,999167	0,1	8,000563
2,000833	0,1	8,042347
2,002500	0,1	8,043312
2,004167	0,1	8,092590
2,005833	0,1	8,106777
2,007500	0,1	8,117298
2,009167	0,1	8,173203
2,010833	0,1	8,172761
2,012500	0,1	8,235801
2,014167	0,1	8,296499
2,015833	0,1	8,272936
2,017500	0,1	8,355075
2,019167	0,1	8,374635
2,020833	0,1	8,392213
2,022500	0,1	8,438806
2,024167	0,1	8,493816
2,025833	0,1	8,531507
2,027500	0,1	8,548805
2,029167	0,1	8,611641
2,030833	0,1	8,681253
2,032500	0,1	8,685970
2,034167	0,1	8,710298
2,035833	0,1	8,753705
2,037500	0,1	8,797390
2,039167	0,1	8,867718
2,040833	0,1	8,861648
2,042500	0,1	8,910833
2,044167	0,1	8,981591
2,045833	0,1	9,033405
2,047500	0,1	9,074561
2,049167	0,1	9,118208
2,050833	0,1	9,133657
2,052500	0,1	9,225524
2,054167	0,1	9,207816
2,055833	0,1	9,272480
2,057500	0,1	9,299230
2,059167	0,1	9,336565
2,060833	0,1	9,354890
2,062500	0,1	9,401610
2,064167	0,1	9,425139
2,065833	0,1	9,489021
2,067500	0,1	9,509078
2,069167	0,1	9,582590
2,070833	0,1	9,593247
2,072500	0,1	9,624129
2,074167	0,1	9,703267
2,075833	0,1	9,721568
2,077500	0,1	9,722478
2,079167	0,1	9,778252
2,080833	0,1	9,802499
2,082500	0,1	9,814647
2,084167	0,1	9,921586
2,085833	0,1	9,917385
2,087500	0,1	9,924729
2,089167	0,1	9,942410
2,090833	0,1	9,967083
2,092500	0,1	9,974154
2,094167	0,1	10,018744
2,095833	0,1	10,011832
2,097500	0,1	10,054772
2,099167	0,1	10,063738
2,100833	0,1	10,103226
2,102500	0,1	10,136195
2,104167	0,1	10,137681
2,105833	0,1	10,153278
2,107500	0,1	10,144116
2,109167	0,1	10,194978
2,110833	0,1	10,183726
2,112500	0,1	10,196856
2,114167	0,1	10,189608
2,115833	0,1	10,260527
2,117500	0,1	10,201100
2,119167	0,1	10,189439
2,120833	0,1	10,207673
2,122500	0,1	10,232786
2,124167	0,1	10,224388
2,125833	0,1	10,204716
2,127500	0,1	10,219162
2,129167	0,1	10,213344
2,130833	0,1	10,221692
2,132500	0,1	10,222405
2,134167	0,1	10,232244
2,135833	0,1	10,183514
2,137500	0,1	10,216629
2,139167	0,1	10,213015
2,140833	0,1	10,217629
2,142500	0,1	10,159674
2,144167	0,1	10,120604
2,145833	0,1	10,154706
2,147500	0,1	10,150322
2,149167	0,1	10,134721
2,150833	0,1	10,088417
2,152500	0,1	10,101093
2,154167	0,1	10,076323
2,155833	0,1	10,093681
2,157500	0,1	10,041836
2,159167	0,1	10,025914
2,160833	0,1	10,021232
2,162500	0,1	10,016944
2,164167	0,1	9,950555
2,165833	0,1	9,936713
2,167500	0,1	9,906994
2,169167	0,1	9,884207
2,170833	0,1	9,885648
2,172500	0,1	9,888608
2,174167	0,1	9,853324
2,175833	0,1	9,839198
2,177500	0,1	9,774253
2,179167	0,1	9,758616
2,180833	0,1	9,743189
2,182500	0,1	9,728639
2,184167	0,1	9,720534
2,185833	0,1	9,692418
2,187500	0,1	9,661680
2,189167	0,1	9,671625
2,190833	0,1	9,637208
2,192500	0,1	9,612307
2,194167	0,1	9,592428
2,195833	0,1	9,546452
2,197500	0,1	9,539156
2,199167	0,1	9,507137
2,200833	0,1	9,494837
2,202500	0,1	9,513559
2,204167	0,1	9,476561
2,205833	0,1	9,442500
2,207500	0,1	9,441643
2,209167	0,1	9,454084
2,210833	0,1	9,413842
2,212500	0,1	9,433890
2,214167	0,1	9,371978
2,215833	0,1	9,391980
2,217500	0,1	9,366705
2,219167	0,1	9,380962
2,220833	0,1	9,363584
2,222500	0,1	9,407875
2,224167	0,1	9,344575
2,225833	0,1	9,364719
2,227500	0,1	9,377566
2,229167	0,1	9,388966
2,230833	0,1	9,362246
2,232500	0,1	9,397727
2,234167	0,1	9,387932
2,235833	0,1	9,398838
2,237500	0,1	9,405292
2,239167	0,1	9,431808
2,240833	0,1	9,390467
2,242500	0,1	9,417263
2,244167	0,1	9,417077
2,245833	0,1	9,423509
2,247500	0,1	9,412919
2,249167	0,1	9,437309
2,250833	0,1	9,438268
2,252500	0,1	9,426295
2,254167	0,1	9,442020
2,255833	0,1	9,454699
2,257500	0,1	9,459882
2,259167	0,1	9,465083
2,260833	0,1	9,446786
2,262500	0,1	9,418123
2,264167	0,1	9,456605
2,265833	0,1	9,439099
2,267500	0,1	9,488283
2,269167	0,1	9,434332
2,270833	0,1	9,425318
2,272500	0,1	9,400950
2,274167	0,1	9,420767
2,275833	0,1	9,364892
2,277500	0,1	9,349567
2,279167	0,1	9,386946
2,280833	0,1	9,376615
2,282500	0,1	9,320478
2,284167	0,1	9,311003
2,285833	0,1	9,304463
2,287500	0,1	9,260901
2,289167	0,1	9,224267
2,290833	0,1	9,246068
2,292500	0,1	9,199586
2,294167	0,1	9,165968
2,295833	0,1	9,157725
2,297500	0,1	9,160105
2,299167	0,1	9,107572
2,300833	0,1	9,088731
2,302500	0,1	9,039452
2,304167	0,1	9,095874
2,305833	0,1	9,022048
2,307500	0,1	8,994731
2,309167	0,1	8,976489
2,310833	0,1	8,962889
2,312500	0,1	8,899234
2,314167	0,1	8,895795
2,315833	0,1	8,871822
2,317500	0,1	8,832735
2,319167	0,1	8,851401
2,320833	0,1	8,805098
2,322500	0,1	8,769219
2,324167	0,1	8,755658
2,325833	0,1	8,690503
2,327500	0,1	8,699899
2,329167	0,1	8,665159
2,330833	0,1	8,586215
2,332500	0,1	8,640726
2,334167	0,1	8,568246
2,335833	0,1	8,509533
2,337500	0,1	8,496081
2,339167	0,1	8,474944
2,340833	0,1	8,428750
2,342500	0,1	8,398460
2,344167	0,1	8,434106
2,345833	0,1	8,383819
2,347500	0,1	8,368001
2,349167	0,1	8,330785
2,350833	0,1	8,320476
2,352500	0,1	8,316461
2,354167	0,1	8,260979
2,355833	0,1	8,238601
2,357500	0,1	8,219085
2,359167	0,1	8,226022
2,360833	0,1	8,169493
2,362500	0,1	8,170257
2,364167	0,1	8,156634
2,365833	0,1	8,130587
2,367500	0,1	8,131693
2,369167	0,1	8,073807
2,370833	0,1	8,096476
2,372500	0,1	8,119899
2,374167	0,1	8,096844
2,375833	0,1	8,083895
2,377500	0,1	8,021676
2,379167	0,1	8,085845
2,380833	0,1	8,086716
2,382500	0,1	8,072541
2,384167	0,1	8,021058
2,385833	0,1	8,041339
2,387500	0,1	8,073209
2,389167	0,1	8,117126
2,390833	0,1	8,068954
2,392500	0,1	8,089992
2,394167	0,1	8,108366
2,395833	0,1	8,143442
2,397500	0,1	8,176180
2,399167	0,1	8,203492
2,400833	0,1	8,230587
2,402500	0,1	8,254720
2,404167	0,1	8,258943
2,405833	0,1	8,322983
2,407500	0,1	8,377682
2,409167	0,1	8,389815
2,410833	0,1	8,437014
2,412500	0,1	8,562490
2,414167	0,1	8,570446
2,415833	0,1	8,621938
2,417500	0,1	8,644181
2,419167	0,1	8,732101
2,420833	0,1	8,803923
2,422500	0,1	8,923132
2,424167	0,1	8,946651
2,425833	0,1	9,017548
2,427500	0,1	9,137094
2,429167	0,1	9,175435
2,430833	0,1	9,294522
2,432500	0,1	9,361393
2,434167	0,1	9,432602
2,435833	0,1	9,526900
2,437500	0,1	9,602751
2,439167	0,1	9,703750
2,440833	0,1	9,754955
2,442500	0,1	9,902900
2,444167	0,1	9,953338
2,445833	0,1	10,078659
2,447500	0,1	10,144976
2,449167	0,1	10,264198
2,450833	0,1	10,353405
2,452500	0,1	10,483961
2,454167	0,1	10,557269
2,455833	0,1	10,649669
2,457500	0,1	10,785714
2,459167	0,1	10,916888
2,460833	0,1	11,073417
2,462500	0,1	11,167073
2,464167	0,1	11,290818
2,465833	0,1	11,470970
2,467500	0,1	11,639736
2,469167	0,1	11,773282
2,470833	0,1	11,976470
2,472500	0,1	12,164232
2,474167	0,1	12,396631
2,475833	0,1	12,604554
2,477500	0,1	12,886684
2,479167	0,1	13,154236
2,480833	0,1	13,448736
2,482500	0,1	13,832346
2,484167	0,1	14,175935
2,485833	0,1	14,581220
2,487500	0,1	15,003412
2,489167	0,1	15,513449
2,490833	0,1	16,023294
2,492500	0,1	16,623121
2,494167	0,1	17,259285
2,495833	0,1	17,947226
2,497500	0,1	18,723182
2,499167	0,1	19,488375
2,500833	0,1	20,364004
2,502500	0,1	21,263823
2,504167	0,1	22,313233
2,505833	0,1	23,332972
2,507500	0,1	24,484630
2,509167	0,1	25,724317
2,510833	0,1	27,047890
2,512500	0,1	28,401229
2,514167	0,1	29,878000
2,515833	0,1	31,389752
2,517500	0,1	33,041507
2,519167	0,1	34,753311
2,520833	0,1	36,556689
2,522500	0,1	38,399732
2,524167	0,1	40,321150
2,525833	0,1	42,354440
2,527500	0,1	44,437332
2,529167	0,1	46,608021
2,530833	0,1	48,831855
2,532500	0,1	51,169510
2,534167	0,1	53,438011
2,535833	0,1	55,859733
2,537500	0,1	58,322514
2,539167	0,1	60,832411
2,540833	0,1	63,341777
2,542500	0,1	65,881553
2,544167	0,1	68,469153
2,545833	0,1	71,093590
2,547500	0,1	73,680606
2,549167	0,1	76,348035
2,550833	0,1	78,905774
2,552500	0,1	81,551936
2,554167	0,1	84,106781
2,555833	0,1	86,709739
2,557500	0,1	89,282661
2,559167	0,1	91,751888
2,560833	0,1	94,163662
2,562500	0,1	96,611826
2,564167	0,1	98,929961
2,565833	0,1	101,264390
2,567500	0,1	103,484239
2,569167	0,1	105,668123
2,570833	0,1	107,771516
2,572500	0,1	109,755054
2,574167	0,1	111,730725
2,575833	0,1	113,556804
2,577500	0,1	115,342887
2,579167	0,1	117,007402
2,580833	0,1	118,628115
2,582500	0,1	120,152079
2,584167	0,1	121,543172
2,585833	0,1	122,898525
2,587500	0,1	124,125878
2,589167	0,1	125,253470
2,590833	0,1	126,303477
2,592500	0,1	127,258278
2,594167	0,1	128,083750
2,595833	0,1	128,894538
2,597500	0,1	129,571805
2,599167	0,1	130,133505
2,600833	0,1	130,677741
2,602500	0,1	131,156865
2,604167	0,1	131,426846
2,605833	0,1	131,703822
2,607500	0,1	131,936088
2,609167	0,1	131,996537
2,610833	0,1	131,997865
2,612500	0,1	131,959909
2,614167	0,1	131,877204
2,615833	0,1	131,641271
2,617500	0,1	131,434259
2,619167	0,1	131,112805
2,620833	0,1	130,697503
2,622500	0,1	130,241249
2,624167	0,1	129,776092
2,625833	0,1	129,182310
2,627500	0,1	128,622198
2,629167	0,1	127,901341
2,630833	0,1	127,143165
2,632500	0,1	126,353612
2,634167	0,1	125,520868
2,635833	0,1	124,718334
2,637500	0,1	123,747253
2,639167	0,1	122,799327
2,640833	0,1	121,766753
2,642500	0,1	120,714307
2,644167	0,1	119,567245
2,645833	0,1	118,442605
2,647500	0,1	117,334449
2,649167	0,1	116,091279
2,650833	0,1	114,917311
2,652500	0,1	113,627431
2,654167	0,1	112,357830
2,655833	0,1	111,048668
2,657500	0,1	109,690759
2,659167	0,1	108,348851
2,660833	0,1	106,963175
2,662500	0,1	105,532849
2,664167	0,1	104,147658
2,665833	0,1	102,718309
2,667500	0,1	101,272494
2,669167	0,1	99,826736
2,670833	0,1	98,405460
2,672500	0,1	96,935163
2,674167	0,1	95,442080
2,675833	0,1	93,966359
2,677500	0,1	92,512378
2,679167	0,1	91,011527
2,680833	0,1	89,517568
2,682500	0,1	88,043309
2,684167	0,1	86,626663
2,685833	0,1	85,106895
2,687500	0,1	83,667540
2,689167	0,1	82,214397
2,690833	0,1	80,755733
2,692500	0,1	79,326299
2,694167	0,1	77,864135
2,695833	0,1	76,454589
2,697500	0,1	75,043719
2,699167	0,1	73,702937
2,700833	0,1	72,312065
2,702500	0,1	70,932862
2,704167	0,1	69,624352
2,705833	0,1	68,321302
2,707500	0,1	67,022688
2,709167	0,1	65,661987
2,710833	0,1	64,433903
2,712500	0,1	63,176401
2,714167	0,1	61,906852
2,715833	0,1	60,696477
2,717500	0,1	59,516337
2,719167	0,1	58,332297
2,720833	0,1	57,210674
2,722500	0,1	56,096555
2,724167	0,1	54,944389
2,725833	0,1	53,893451
2,727500	0,1	52,835804
2,729167	0,1	51,792325
2,730833	0,1	50,736533
2,732500	0,1	49,738397
2,734167	0,1	48,793623
2,735833	0,1	47,855290
2,737500	0,1	46,891068
2,739167	0,1	45,915169
2,740833	0,1	45,072103
2,742500	0,1	44,185972
2,744167	0,1	43,297268
2,745833	0,1	42,461310
2,747500	0,1	41,672221
2,749167	0,1	40,881896
2,750833	0,1	40,103387
2,752500	0,1	39,343410
2,754167	0,1	38,544375
2,755833	0,1	37,832224
2,757500	0,1	37,093374
2,759167	0,1	36,425818
2,760833	0,1	35,727389
2,762500	0,1	35,099650
2,764167	0,1	34,433759
2,765833	0,1	33,813516
2,767500	0,1	33,173427
2,769167	0,1	32,546372
2,770833	0,1	31,974430
2,772500	0,1	31,377837
2,774167	0,1	30,825955
2,775833	0,1	30,287869
2,777500	0,1	29,741684
2,779167	0,1	29,226422
2,780833	0,1	28,716753
2,782500	0,1	28,173501
2,784167	0,1	27,680089
2,785833	0,1	27,173969
2,787500	0,1	26,716691
2,789167	0,1	26,272170
2,790833	0,1	25,809010
2,792500	0,1	25,398455
2,794167	0,1	24,914780
2,795833	0,1	24,517669
2,797500	0,1	24,055056
2,799167	0,1	23,636960
2,800833	0,1	23,252190
2,802500	0,1	22,862951
2,804167	0,1	22,526346
2,805833	0,1	22,101115
2,807500	0,1	21,699714
2,809167	0,1	21,404172
2,810833	0,1	20,978294
2,812500	0,1	20,632130
2,814167	0,1	20,338692
2,815833	0,1	19,952814
2,817500	0,1	19,647178
2,819167	0,1	19,317463
2,820833	0,1	19,011183
2,822500	0,1	18,698974
2,824167	0,1	18,392655
2,825833	0,1	18,087800
2,827500	0,1	17,840886
2,829167	0,1	17,530483
2,830833	0,1	17,220399
2,832500	0,1	17,016783
2,834167	0,1	16,694560
2,835833	0,1	16,444318
2,837500	0,1	16,167439
2,839167	0,1	15,936472
2,840833	0,1	15,656902
2,842500	0,1	15,430198
2,844167	0,1	15,227499
2,845833	0,1	14,996098
2,847500	0,1	14,737774
2,849167	0,1	14,543123
2,850833	0,1	14,335530
2,852500	0,1	14,100419
2,854167	0,1	13,889301
2,855833	0,1	13,644425
2,857500	0,1	13,496859
2,859167	0,1	13,332832
2,860833	0,1	13,108845
2,862500	0,1	12,945447
2,864167	0,1	12,801059
2,865833	0,1	12,677001
2,867500	0,1	12,456137
2,869167	0,1	12,239182
2,870833	0,1	12,132619
2,872500	0,1	11,927503
2,874167	0,1	11,748095
2,875833	0,1	11,663575
2,877500	0,1	11,513276
2,879167	0,1	11,348358
2,880833	0,1	11,221704
2,882500	0,1	11,083670
2,884167	0,1	10,919617
2,885833	0,1	10,810627
2,887500	0,1	10,702241
2,889167	0,1	10,549243
2,890833	0,1	10,436131
2,892500	0,1	10,285696
2,894167	0,1	10,206768
2,895833	0,1	10,105408
2,897500	0,1	9,980616
2,899167	0,1	9,897036
2,900833	0,1	9,754968
2,902500	0,1	9,639754
2,904167	0,1	9,577864
2,905833	0,1	9,460399
2,907500	0,1	9,321367
2,909167	0,1	9,293519
2,910833	0,1	9,183632
2,912500	0,1	9,088749
2,914167	0,1	9,042839
2,915833	0,1	8,912398
2,917500	0,1	8,831912
2,919167	0,1	8,749554
2,920833	0,1	8,627731
2,922500	0,1	8,617543
2,924167	0,1	8,506160
2,925833	0,1	8,417265
2,927500	0,1	8,376316
2,929167	0,1	8,238274
2,930833	0,1	8,222265
2,932500	0,1	8,124599
2,934167	0,1	8,078255
2,935833	0,1	8,017043
2,937500	0,1	7,912715
2,939167	0,1	7,894013
2,940833	0,1	7,805498
2,942500	0,1	7,773897
2,944167	0,1	7,663265
2,945833	0,1	7,605459
2,947500	0,1	7,562394
2,949167	0,1	7,497426
2,950833	0,1	7,436282
2,952500	0,1	7,357031
2,954167	0,1	7,288927
2,955833	0,1	7,264673
2,957500	0,1	7,228544
2,959167	0,1	7,187190
2,960833	0,1	7,103798
2,962500	0,1	7,045232
2,964167	0,1	6,989132
2,965833	0,1	6,968000
2,967500	0,1	6,897049
2,969167	0,1	6,826484
2,970833	0,1	6,765080
2,972500	0,1	6,753105
2,974167	0,1	6,705269
2,975833	0,1	6,629878
2,977500	0,1	6,627710
2,979167	0,1	6,566164
2,980833	0,1	6,543927
2,982500	0,1	6,513387
2,984167	0,1	6,440649
2,985833	0,1	6,393004
2,987500	0,1	6,328405
2,989167	0,1	6,346878
2,990833	0,1	6,279491
2,992500	0,1	6,231696
2,994167	0,1	6,175522
2,995833	0,1	6,135099
2,997500	0,1	6,146298
2,999167	0,1	6,129513
3,000833	0,1	6,016348
3,002500	0,1	6,011649
3,004167	0,1	5,976135
3,005833	0,1	5,920269
3,007500	0,1	5,917252
3,009167	0,1	5,875634
3,010833	0,1	5,823641
3,012500	0,1	5,830704
3,014167	0,1	5,758451
3,015833	0,1	5,744759
3,017500	0,1	5,695188
3,019167	0,1	5,676123
3,020833	0,1	5,676490
3,022500	0,1	5,622644
3,024167	0,1	5,557036
3,025833	0,1	5,571368
3,027500	0,1	5,516943
3,029167	0,1	5,501667
3,030833	0,1	5,453093
3,032500	0,1	5,434598
3,034167	0,1	5,403103
3,035833	0,1	5,392646
3,037500	0,1	5,334993
3,039167	0,1	5,317601
3,040833	0,1	5,298385
3,042500	0,1	5,311264
3,044167	0,1	5,240855
3,045833	0,1	5,197262
3,047500	0,1	5,140302
3,049167	0,1	5,176125
3,050833	0,1	5,083727
3,052500	0,1	5,056970
3,054167	0,1	5,069082
3,055833	0,1	4,996645
3,057500	0,1	5,032023
3,059167	0,1	4,957618
3,060833	0,1	4,895105
3,062500	0,1	4,853671
3,064167	0,1	4,865410
3,065833	0,1	4,846246
3,067500	0,1	4,863680
3,069167	0,1	4,848793
3,070833	0,1	4,794182
3,072500	0,1	4,742175
3,074167	0,1	4,742926
3,075833	0,1	4,714682
3,077500	0,1	4,665409
3,079167	0,1	4,632712
3,080833	0,1	4,648323
3,082500	0,1	4,607350
3,084167	0,1	4,611306
3,085833	0,1	4,580270
3,087500	0,1	4,564111
3,089167	0,1	4,554294
3,090833	0,1	4,523532
3,092500	0,1	4,458765
3,094167	0,1	4,465889
3,095833	0,1	4,434316
3,097500	0,1	4,436894
3,099167	0,1	4,410590
3,100833	0,1	4,390336
3,102500	0,1	4,375906
3,104167	0,1	4,342836
3,105833	0,1	4,351581
3,107500	0,1	4,340421
3,109167	0,1	4,324796
3,110833	0,1	4,331001
3,112500	0,1	4,264942
3,114167	0,1	4,262645
3,115833	0,1	4,275876
3,117500	0,1	4,236308
3,119167	0,1	4,276318
3,120833	0,1	4,250968
3,122500	0,1	4,226045
3,124167	0,1	4,204710
3,125833	0,1	4,201419
3,127500	0,1	4,218843
3,129167	0,1	4,201293
3,130833	0,1	4,180328
3,132500	0,1	4,165820
3,134167	0,1	4,206646
3,135833	0,1	4,139784
3,137500	0,1	4,135092
3,139167	0,1	4,163941
3,140833	0,1	4,170367
3,142500	0,1	4,122913
3,144167	0,1	4,166657
3,145833	0,1	4,147204
3,147500	0,1	4,151018
3,149167	0,1	4,089353
3,150833	0,1	4,134834
3,152500	0,1	4,099826
3,154167	0,1	4,054895
3,155833	0,1	4,086763
3,157500	0,1	4,096929
3,159167	0,1	4,080154
3,160833	0,1	4,134629
3,162500	0,1	4,056768
3,164167	0,1	4,051751
3,165833	0,1	4,054915
3,167500	0,1	4,065233
3,169167	0,1	4,059998
3,170833	0,1	4,033516
3,172500	0,1	4,027536
3,174167	0,1	4,077415
3,175833	0,1	3,996271
3,177500	0,1	4,025495
3,179167	0,1	3,980705
3,180833	0,1	3,975209
3,182500	0,1	4,001568
3,184167	0,1	3,986384
3,185833	0,1	3,965139
3,187500	0,1	3,943002
3,189167	0,1	3,924680
3,190833	0,1	3,938444
3,192500	0,1	3,918549
3,194167	0,1	3,922075
3,195833	0,1	3,876924
3,197500	0,1	3,858847
3,199167	0,1	3,891120
3,200833	0,1	3,878666
3,202500	0,1	3,823111
3,204167	0,1	3,805478
3,205833	0,1	3,804871
3,207500	0,1	3,765812
3,209167	0,1	3,737787
3,210833	0,1	3,737256
3,212500	0,1	3,747617
3,214167	0,1	3,688310
3,215833	0,1	3,717368
3,217500	0,1	3,678332
3,219167	0,1	3,679532
3,220833	0,1	3,664517
3,222500	0,1	3,668123
3,224167	0,1	3,619632
3,225833	0,1	3,574160
3,227500	0,1	3,540404
3,229167	0,1	3,560838
3,230833	0,1	3,501151
3,232500	0,1	3,539579
3,234167	0,1	3,472997
3,235833	0,1	3,482085
3,237500	0,1	3,441782
3,239167	0,1	3,442930
3,240833	0,1	3,402722
3,242500	0,1	3,419733
3,244167	0,1	3,367489
3,245833	0,1	3,304464
3,247500	0,1	3,323004
3,249167	0,1	3,264538
3,250833	0,1	3,280821
3,252500	0,1	3,265748
3,254167	0,1	3,213588
3,255833	0,1	3,212718
3,257500	0,1	3,216429
3,259167	0,1	3,175721
3,260833	0,1	3,150543
3,262500	0,1	3,141847
3,264167	0,1	3,117719
3,265833	0,1	3,087649
3,267500	0,1	3,028500
3,269167	0,1	3,013706
3,270833	0,1	3,071001
3,272500	0,1	3,014859
3,274167	0,1	3,003823
3,275833	0,1	2,999853
3,277500	0,1	2,938381
3,279167	0,1	2,944424
3,280833	0,1	2,876535
3,282500	0,1	2,885211
3,284167	0,1	2,818417
3,285833	0,1	2,883864
3,287500	0,1	2,843485
3,289167	0,1	2,797308
3,290833	0,1	2,768934
3,292500	0,1	2,788829
3,294167	0,1	2,751611
3,295833	0,1	2,710242
3,297500	0,1	2,668330
3,299167	0,1	2,677736
3,300833	0,1	2,678084
3,302500	0,1	2,666708
3,304167	0,1	2,646413
3,305833	0,1	2,614169
3,307500	0,1	2,618512
3,309167	0,1	2,596882
3,310833	0,1	2,545449
3,312500	0,1	2,554655
3,314167	0,1	2,536720
3,315833	0,1	2,564764
3,317500	0,1	2,507415
3,319167	0,1	2,544952
3,320833	0,1	2,509018
3,322500	0,1	2,451361
3,324167	0,1	2,478632
3,325833	0,1	2,436884
3,327500	0,1	2,393229
3,329167	0,1	2,416240
3,330833	0,1	2,406152
3,332500	0,1	2,377374
3,334167	0,1	2,339607
3,335833	0,1	2,327232
3,337500	0,1	2,354411
3,339167	0,1	2,353844
3,340833	0,1	2,333627
3,342500	0,1	2,337710
3,344167	0,1	2,335418
3,345833	0,1	2,308015
3,347500	0,1	2,295505
3,349167	0,1	2,327555
3,350833	0,1	2,293125
3,352500	0,1	2,306841
3,354167	0,1	2,275931
3,355833	0,1	2,248887
3,357500	0,1	2,231493
3,359167	0,1	2,237365
3,360833	0,1	2,241970
3,362500	0,1	2,238170
3,364167	0,1	2,191136
3,365833	0,1	2,224058
3,367500	0,1	2,254126
3,369167	0,1	2,175042
3,370833	0,1	2,181267
3,372500	0,1	2,161782
3,374167	0,1	2,179030
3,375833	0,1	2,185078
3,377500	0,1	2,127936
3,379167	0,1	2,163498
3,380833	0,1	2,149640
3,382500	0,1	2,112312
3,384167	0,1	2,141713
3,385833	0,1	2,126110
3,387500	0,1	2,145598
3,389167	0,1	2,156732
3,390833	0,1	2,135033
3,392500	0,1	2,113612
3,394167	0,1	2,129840
3,395833	0,1	2,123738
3,397500	0,1	2,108126
3,399167	0,1	2,085413
3,400833	0,1	2,120562
3,402500	0,1	2,075712
3,404167	0,1	2,098273
3,405833	0,1	2,044805
3,407500	0,1	2,074405
3,409167	0,1	2,124226
3,410833	0,1	2,078300
3,412500	0,1	2,088210
3,414167	0,1	2,079227
3,415833	0,1	2,077497
3,417500	0,1	2,070959
3,419167	0,1	2,087984
3,420833	0,1	2,080165
3,422500	0,1	2,070313
3,424167	0,1	2,063340
3,425833	0,1	2,023954
3,427500	0,1	2,100918
3,429167	0,1	2,068016
3,430833	0,1	2,050334
3,432500	0,1	2,092367
3,434167	0,1	2,111509
3,435833	0,1	2,088084
3,437500	0,1	2,045159
3,439167	0,1	2,114368
3,440833	0,1	2,128264
3,442500	0,1	2,138262
3,444167	0,1	2,115617
3,445833	0,1	2,100077
3,447500	0,1	2,136324
3,449167	0,1	2,145093
3,450833	0,1	2,127913
3,452500	0,1	2,154731
3,454167	0,1	2,162631
3,455833	0,1	2,163580
3,457500	0,1	2,193629
3,459167	0,1	2,210021
3,460833	0,1	2,241169
3,462500	0,1	2,223349
3,464167	0,1	2,227742
3,465833	0,1	2,303736
3,467500	0,1	2,302396
3,469167	0,1	2,296151
3,470833	0,1	2,329811
3,472500	0,1	2,364825
3,474167	0,1	2,386271
3,475833	0,1	2,391411
3,477500	0,1	2,365643
3,479167	0,1	2,427495
3,480833	0,1	2,445354
3,482500	0,1	2,472979
3,484167	0,1	2,499635
3,485833	0,1	2,497187
3,487500	0,1	2,542958
3,489167	0,1	2,560019
3,490833	0,1	2,566875
3,492500	0,1	2,571608
3,494167	0,1	2,656091
3,495833	0,1	2,657136
3,497500	0,1	2,635699
3,499167	0,1	2,694995
3,500833	0,1	2,708010
3,502500	0,1	2,725615
3,504167	0,1	2,764783
3,505833	0,1	2,754728
3,507500	0,1	2,797974
3,509167	0,1	2,813518
3,510833	0,1	2,859117
3,512500	0,1	2,831831
3,514167	0,1	2,856033
3,515833	0,1	2,897026
3,517500	0,1	2,921573
3,519167	0,1	2,911401
3,520833	0,1	2,937306
3,522500	0,1	2,952092
3,524167	0,1	2,977049
3,525833	0,1	3,023188
3,527500	0,1	2,998010
3,529167	0,1	3,025324
3,530833	0,1	2,990518
3,532500	0,1	3,028224
3,534167	0,1	3,015837
3,535833	0,1	3,076059
3,537500	0,1	3,041136
3,539167	0,1	3,079123
3,540833	0,1	3,021937
3,542500	0,1	3,043114
3,544167	0,1	3,063900
3,545833	0,1	3,090978
3,547500	0,1	3,095377
3,549167	0,1	3,048164
3,550833	0,1	3,082367
3,552500	0,1	3,127358
3,554167	0,1	3,112453
3,555833	0,1	3,099689
3,557500	0,1	3,094052
3,559167	0,1	3,063780
3,560833	0,1	3,079597
3,562500	0,1	3,041389
3,564167	0,1	3,077903
3,565833	0,1	3,097187
3,567500	0,1	3,038523
3,569167	0,1	3,032950
3,570833	0,1	3,068304
3,572500	0,1	3,036178
3,574167	0,1	2,995366
3,575833	0,1	3,005399
3,577500	0,1	2,986369
3,579167	0,1	3,029464
3,580833	0,1	3,028255
3,582500	0,1	2,979473
3,584167	0,1	2,988177
3,585833	0,1	2,979828
3,587500	0,1	2,964320
3,589167	0,1	2,935144
3,590833	0,1	2,930050
3,592500	0,1	2,941258
3,594167	0,1	2,885477
3,595833	0,1	2,879227
3,597500	0,1	2,892323
3,599167	0,1	2,865694
3,600833	0,1	2,851467
3,602500	0,1	2,852721
3,604167	0,1	2,805143
3,605833	0,1	2,804007
3,607500	0,1	2,775701
3,609167	0,1	2,758754
3,610833	0,1	2,739386
3,612500	0,1	2,771057
3,614167	0,1	2,729273
3,615833	0,1	2,713476
3,617500	0,1	2,713727
3,619167	0,1	2,657451
3,620833	0,1	2,675142
3,622500	0,1	2,634830
3,624167	0,1	2,637938
3,625833	0,1	2,632154
3,627500	0,1	2,584866
3,629167	0,1	2,559096
3,630833	0,1	2,547533
3,632500	0,1	2,527910
3,634167	0,1	2,511815
3,635833	0,1	2,519122
3,637500	0,1	2,512759
3,639167	0,1	2,473717
3,640833	0,1	2,482574
3,642500	0,1	2,380493
3,644167	0,1	2,412755
3,645833	0,1	2,401916
3,647500	0,1	2,399461
3,649167	0,1	2,405352
3,650833	0,1	2,329034
3,652500	0,1	2,347279
3,654167	0,1	2,316221
3,655833	0,1	2,268026
3,657500	0,1	2,305557
3,659167	0,1	2,279462
3,660833	0,1	2,244275
3,662500	0,1	2,196957
3,664167	0,1	2,196731
3,665833	0,1	2,187243
3,667500	0,1	2,188103
3,669167	0,1	2,181632
3,670833	0,1	2,169054
3,672500	0,1	2,203843
3,674167	0,1	2,130728
3,675833	0,1	2,098295
3,677500	0,1	2,093682
3,679167	0,1	2,067084
3,680833	0,1	2,065636
3,682500	0,1	2,077418
3,684167	0,1	2,054495
3,685833	0,1	2,048880
3,687500	0,1	2,029115
3,689167	0,1	2,019115
3,690833	0,1	1,997197
3,692500	0,1	1,981088
3,694167	0,1	1,990937
3,695833	0,1	1,993092
3,697500	0,1	1,966215
3,699167	0,1	1,955929
3,700833	0,1	1,953772
3,702500	0,1	1,901527
3,704167	0,1	1,916965
3,705833	0,1	1,903099
3,707500	0,1	1,866522
3,709167	0,1	1,892884
3,710833	0,1	1,883979
3,712500	0,1	1,866303
3,714167	0,1	1,878368
3,715833	0,1	1,847619
3,717500	0,1	1,834321
3,719167	0,1	1,825193
3,720833	0,1	1,815204
3,722500	0,1	1,817501
3,724167	0,1	1,801912
3,725833	0,1	1,796593
3,727500	0,1	1,796229
3,729167	0,1	1,787179
3,730833	0,1	1,781215
3,732500	0,1	1,744434
3,734167	0,1	1,757066
3,735833	0,1	1,718707
3,737500	0,1	1,751387
3,739167	0,1	1,771652
3,740833	0,1	1,731431
3,742500	0,1	1,729193
3,744167	0,1	1,765903
3,745833	0,1	1,720078
3,747500	0,1	1,731062
3,749167	0,1	1,714471
3,750833	0,1	1,681061
3,752500	0,1	1,709074
3,754167	0,1	1,708719
3,755833	0,1	1,700310
3,757500	0,1	1,680850
3,759167	0,1	1,666336
3,760833	0,1	1,698219
3,762500	0,1	1,689039
3,764167	0,1	1,669859
3,765833	0,1	1,687166
3,767500	0,1	1,667197
3,769167	0,1	1,642990
3,770833	0,1	1,661303
3,772500	0,1	1,646291
3,774167	0,1	1,598895
3,775833	0,1	1,624729
3,777500	0,1	1,628123
3,779167	0,1	1,657059
3,780833	0,1	1,622016
3,782500	0,1	1,629699
3,784167	0,1	1,574110
3,785833	0,1	1,636074
3,787500	0,1	1,584968
3,789167	0,1	1,591277
3,790833	0,1	1,584668
3,792500	0,1	1,571378
3,794167	0,1	1,582795
3,795833	0,1	1,572677
3,797500	0,1	1,605990
3,799167	0,1	1,532681
3,800833	0,1	1,578328
3,802500	0,1	1,555075
3,804167	0,1	1,586605
3,805833	0,1	1,559100
3,807500	0,1	1,535122
3,809167	0,1	1,572588
3,810833	0,1	1,568797
3,812500	0,1	1,510281
3,814167	0,1	1,510767
3,815833	0,1	1,518935
3,817500	0,1	1,557662
3,819167	0,1	1,476526
3,820833	0,1	1,475940
3,822500	0,1	1,501348
3,824167	0,1	1,459645
3,825833	0,1	1,471615
3,827500	0,1	1,515576
3,829167	0,1	1,461867
3,830833	0,1	1,465100
3,832500	0,1	1,456476
3,834167	0,1	1,446076
3,835833	0,1	1,429051
3,837500	0,1	1,435453
3,839167	0,1	1,455762
3,840833	0,1	1,425534
3,842500	0,1	1,438167
3,844167	0,1	1,424177
3,845833	0,1	1,398900
3,847500	0,1	1,413762
3,849167	0,1	1,399118
3,850833	0,1	1,370263
3,852500	0,1	1,368887
3,854167	0,1	1,369323
3,855833	0,1	1,385314
3,857500	0,1	1,346582
3,859167	0,1	1,389570
3,860833	0,1	1,353529
3,862500	0,1	1,345054
3,864167	0,1	1,344762
3,865833	0,1	1,330564
3,867500	0,1	1,349778
3,869167	0,1	1,310384
3,870833	0,1	1,307076
3,872500	0,1	1,303279
3,874167	0,1	1,274078
3,875833	0,1	1,300700
3,877500	0,1	1,307083
3,879167	0,1	1,282405
3,880833	0,1	1,277947
3,882500	0,1	1,285501
3,884167	0,1	1,287994
3,885833	0,1	1,262671
3,887500	0,1	1,272430
3,889167	0,1	1,267187
3,890833	0,1	1,239475
3,892500	0,1	1,262577
3,894167	0,1	1,272420
3,895833	0,1	1,231188
3,897500	0,1	1,209294
3,899167	0,1	1,244502
3,900833	0,1	1,198307
3,902500	0,1	1,215152
3,904167	0,1	1,207339
3,905833	0,1	1,178642
3,907500	0,1	1,162123
3,909167	0,1	1,186585
3,910833	0,1	1,180077
3,912500	0,1	1,210584
3,914167	0,1	1,161058
3,915833	0,1	1,171514
3,917500	0,1	1,168357
3,919167	0,1	1,172532
3,920833	0,1	1,138509
3,922500	0,1	1,170794
3,924167	0,1	1,133357
3,925833	0,1	1,178280
3,927500	0,1	1,157054
3,929167	0,1	1,091530
3,930833	0,1	1,130194
3,932500	0,1	1,110341
3,934167	0,1	1,110392
3,935833	0,1	1,137147
3,937500	0,1	1,141619
3,939167	0,1	1,148790
3,940833	0,1	1,085021
3,942500	0,1	1,123447
3,944167	0,1	1,135145
3,945833	0,1	1,070414
3,947500	0,1	1,075645
3,949167	0,1	1,081365
3,950833	0,1	1,101142
3,952500	0,1	1,040660
3,954167	0,1	1,083414
3,955833	0,1	1,061464
3,957500	0,1	1,070919
3,959167	0,1	1,058452
3,960833	0,1	1,075491
3,962500	0,1	1,037290
3,964167	0,1	1,079625
3,965833	0,1	1,068099
3,967500	0,1	1,020015
3,969167	0,1	1,022296
3,970833	0,1	1,056572
3,972500	0,1	1,034499
3,974167	0,1	1,009595
3,975833	0,1	1,032841
3,977500	0,1	1,058580
3,979167	0,1	1,055611
3,980833	0,1	1,042989
3,982500	0,1	1,098868
3,984167	0,1	1,020159
3,985833	0,1	1,015690
3,987500	0,1	1,043306
3,989167	0,1	1,004434
3,990833	0,1	1,070427
3,992500	0,1	1,052234
3,994167	0,1	1,050856
3,995833	0,1	1,088307
3,997500	0,1	1,051001
3,999167	0,1	1,034379
4,000833	0,1	1,050306
4,002500	0,1	1,051873
4,004167	0,1	1,078846
4,005833	0,1	1,047908
4,007500	0,1	1,020079
4,009167	0,1	1,049694
4,010833	0,1	1,065783
4,012500	0,1	1,014562
4,014167	0,1	1,025962
4,015833	0,1	1,025083
4,017500	0,1	1,036886
4,019167	0,1	1,027667
4,020833	0,1	1,034918
4,022500	0,1	1,029689
4,024167	0,1	1,015624
4,025833	0,1	1,017830
4,027500	0,1	1,038584
4,029167	0,1	1,012518
4,030833	0,1	1,079192
4,032500	0,1	1,035781
4,034167	0,1	1,064762
4,035833	0,1	1,068218
4,037500	0,1	1,093256
4,039167	0,1	1,076326
4,040833	0,1	1,105356
4,042500	0,1	1,074597
4,044167	0,1	1,096430
4,045833	0,1	1,096239
4,047500	0,1	1,103976
4,049167	0,1	1,086438
4,050833	0,1	1,119052
4,052500	0,1	1,138112
4,054167	0,1	1,100373
4,055833	0,1	1,109249
4,057500	0,1	1,152216
4,059167	0,1	1,148628
4,060833	0,1	1,133710
4,062500	0,1	1,140243
4,064167	0,1	1,176399
4,065833	0,1	1,163468
4,067500	0,1	1,187670
4,069167	0,1	1,169954
4,070833	0,1	1,189896
4,072500	0,1	1,176040
4,074167	0,1	1,161752
4,075833	0,1	1,257843
4,077500	0,1	1,251409
4,079167	0,1	1,248110
4,080833	0,1	1,246310
4,082500	0,1	1,242435
4,084167	0,1	1,245870
4,085833	0,1	1,280950
4,087500	0,1	1,271559
4,089167	0,1	1,319138
4,090833	0,1	1,308080
4,092500	0,1	1,337808
4,094167	0,1	1,317286
4,095833	0,1	1,299834
4,097500	0,1	1,349431
4,099167	0,1	1,343998
4,100833	0,1	1,381370
4,102500	0,1	1,424101
4,104167	0,1	1,409882
4,105833	0,1	1,434077
4,107500	0,1	1,433437
4,109167	0,1	1,406874
4,110833	0,1	1,492727
4,112500	0,1	1,485214
4,114167	0,1	1,444852
4,115833	0,1	1,454113
4,117500	0,1	1,509902
4,119167	0,1	1,544149
4,120833	0,1	1,566569
4,122500	0,1	1,554144
4,124167	0,1	1,628756
4,125833	0,1	1,556027
4,127500	0,1	1,597079
4,129167	0,1	1,602694
4,130833	0,1	1,616405
4,132500	0,1	1,599326
4,134167	0,1	1,611960
4,135833	0,1	1,663954
4,137500	0,1	1,649606
4,139167	0,1	1,634587
4,140833	0,1	1,675154
4,142500	0,1	1,688891
4,144167	0,1	1,716182
4,145833	0,1	1,783790
4,147500	0,1	1,738042
4,149167	0,1	1,808864
4,150833	0,1	1,801264
4,152500	0,1	1,778200
4,154167	0,1	1,784949
4,155833	0,1	1,818212
4,157500	0,1	1,788192
4,159167	0,1	1,843934
4,160833	0,1	1,851061
4,162500	0,1	1,907610
4,164167	0,1	1,875218
4,165833	0,1	1,889797
4,167500	0,1	1,900076
4,169167	0,1	1,902664
4,170833	0,1	1,922928
4,172500	0,1	1,931774
4,174167	0,1	1,939754
4,175833	0,1	1,965981
4,177500	0,1	1,962974
4,179167	0,1	1,961174
4,180833	0,1	2,024341
4,182500	0,1	2,020051
4,184167	0,1	2,009700
4,185833	0,1	2,017175
4,187500	0,1	2,005529
4,189167	0,1	2,040531
4,190833	0,1	1,989291
4,192500	0,1	2,073017
4,194167	0,1	2,034441
4,195833	0,1	2,064334
4,197500	0,1	2,039474
4,199167	0,1	2,124005
4,200833	0,1	2,058891
4,202500	0,1	2,069154
4,204167	0,1	2,098486
4,205833	0,1	2,082537
4,207500	0,1	2,079010
4,209167	0,1	2,098556
4,210833	0,1	2,082249
4,212500	0,1	2,077430
4,214167	0,1	2,150036
4,215833	0,1	2,111377
4,217500	0,1	2,112020
4,219167	0,1	2,079314
4,220833	0,1	2,117976
4,222500	0,1	2,099795
4,224167	0,1	2,161831
4,225833	0,1	2,126689
4,227500	0,1	2,128910
4,229167	0,1	2,166727
4,230833	0,1	2,148833
4,232500	0,1	2,154787
4,234167	0,1	2,129136
4,235833	0,1	2,166014
4,237500	0,1	2,135599
4,239167	0,1	2,128057
4,240833	0,1	2,144945
4,242500	0,1	2,134884
4,244167	0,1	2,108712
4,245833	0,1	2,147602
4,247500	0,1	2,179388
4,249167	0,1	2,106286
4,250833	0,1	2,140406
4,252500	0,1	2,126471
4,254167	0,1	2,114894
4,255833	0,1	2,139484
4,257500	0,1	2,120930
4,259167	0,1	2,097788
4,260833	0,1	2,119994
4,262500	0,1	2,182116
4,264167	0,1	2,146607
4,265833	0,1	2,148247
4,267500	0,1	2,113025
4,269167	0,1	2,105617
4,270833	0,1	2,096202
4,272500	0,1	2,090373
4,274167	0,1	2,079875
4,275833	0,1	2,069442
4,277500	0,1	2,112578
4,279167	0,1	2,072402
4,280833	0,1	2,061181
4,282500	0,1	2,082747
4,284167	0,1	2,024091
4,285833	0,1	2,063323
4,287500	0,1	2,074978
4,289167	0,1	2,084694
4,290833	0,1	2,051771
4,292500	0,1	2,006406
4,294167	0,1	2,013873
4,295833	0,1	2,011060
4,297500	0,1	2,011856
4,299167	0,1	2,041971
4,300833	0,1	1,980529
4,302500	0,1	1,990426
4,304167	0,1	1,992807
4,305833	0,1	1,990211
4,307500	0,1	2,005021
4,309167	0,1	2,016449
4,310833	0,1	1,946311
4,312500	0,1	1,917264
4,314167	0,1	1,947223
4,315833	0,1	1,928113
4,317500	0,1	1,937379
4,319167	0,1	1,889667
4,320833	0,1	1,901872
4,322500	0,1	1,930545
4,324167	0,1	1,929330
4,325833	0,1	1,879461
4,327500	0,1	1,863715
4,329167	0,1	1,868669
4,330833	0,1	1,869459
4,332500	0,1	1,873916
4,334167	0,1	1,794310
4,335833	0,1	1,835962
4,337500	0,1	1,842292
4,339167	0,1	1,781017
4,340833	0,1	1,815410
4,342500	0,1	1,798247
4,344167	0,1	1,793720
4,345833	0,1	1,781291
4,347500	0,1	1,715420
4,349167	0,1	1,794993
4,350833	0,1	1,739555
4,352500	0,1	1,746725
4,354167	0,1	1,706290
4,355833	0,1	1,709584
4,357500	0,1	1,713748
4,359167	0,1	1,743205
4,360833	0,1	1,690634
4,362500	0,1	1,666556
4,364167	0,1	1,683429
4,365833	0,1	1,687530
4,367500	0,1	1,614203
4,369167	0,1	1,634366
4,370833	0,1	1,638608
4,372500	0,1	1,628121
4,374167	0,1	1,612598
4,375833	0,1	1,631494
4,377500	0,1	1,571824
4,379167	0,1	1,566617
4,380833	0,1	1,562404
4,382500	0,1	1,576690
4,384167	0,1	1,539579
4,385833	0,1	1,522045
4,387500	0,1	1,540274
4,389167	0,1	1,533447
4,390833	0,1	1,503736
4,392500	0,1	1,502442
4,394167	0,1	1,506889
4,395833	0,1	1,500364
4,397500	0,1	1,476536
4,399167	0,1	1,464606
4,400833	0,1	1,473929
4,402500	0,1	1,429064
4,404167	0,1	1,441547
4,405833	0,1	1,454112
4,407500	0,1	1,428920
4,409167	0,1	1,404795
4,410833	0,1	1,408812
4,412500	0,1	1,409948
4,414167	0,1	1,418067
4,415833	0,1	1,381538
4,417500	0,1	1,362508
4,419167	0,1	1,350869
4,420833	0,1	1,351671
4,422500	0,1	1,313266
4,424167	0,1	1,350857
4,425833	0,1	1,348867
4,427500	0,1	1,300289
4,429167	0,1	1,333861
4,430833	0,1	1,297772
4,432500	0,1	1,331714
4,434167	0,1	1,267201
4,435833	0,1	1,293027
4,437500	0,1	1,250264
4,439167	0,1	1,235402
4,440833	0,1	1,274581
4,442500	0,1	1,256704
4,444167	0,1	1,236105
4,445833	0,1	1,198939
4,447500	0,1	1,217090
4,449167	0,1	1,176047
4,450833	0,1	1,187151
4,452500	0,1	1,164556
4,454167	0,1	1,182066
4,455833	0,1	1,204324
4,457500	0,1	1,171799
4,459167	0,1	1,138166
4,460833	0,1	1,168501
4,462500	0,1	1,154523
4,464167	0,1	1,139824
4,465833	0,1	1,118296
4,467500	0,1	1,068132
4,469167	0,1	1,135147
4,470833	0,1	1,079208
4,472500	0,1	1,140314
4,474167	0,1	1,075405
4,475833	0,1	1,093682
4,477500	0,1	1,101996
4,479167	0,1	1,063996
4,480833	0,1	1,059605
4,482500	0,1	1,065649
4,484167	0,1	1,049005
4,485833	0,1	1,003026
4,487500	0,1	1,052081
4,489167	0,1	1,060606
4,490833	0,1	1,061117
4,492500	0,1	1,017228
4,494167	0,1	1,010968
4,495833	0,1	0,973958
4,497500	0,1	1,004587
4,499167	0,1	0,995864
4,500833	0,1	1,000432
4,502500	0,1	0,993708
4,504167	0,1	0,943795
4,505833	0,1	1,014074
4,507500	0,1	0,915256
4,509167	0,1	0,924756
4,510833	0,1	0,984213
4,512500	0,1	0,933691
4,514167	0,1	0,922949
4,515833	0,1	0,937257
4,517500	0,1	0,903556
4,519167	0,1	0,916808
4,520833	0,1	0,871203
4,522500	0,1	0,928685
4,524167	0,1	0,889157
4,525833	0,1	0,889840
4,527500	0,1	0,908129
4,529167	0,1	0,871673
4,530833	0,1	0,900264
4,532500	0,1	0,818588
4,534167	0,1	0,917875
4,535833	0,1	0,870136
4,537500	0,1	0,855729
4,539167	0,1	0,837863
4,540833	0,1	0,843751
4,542500	0,1	0,890714
4,544167	0,1	0,834848
4,545833	0,1	0,827044
4,547500	0,1	0,833986
4,549167	0,1	0,790073
4,550833	0,1	0,826590
4,552500	0,1	0,802241
4,554167	0,1	0,787977
4,555833	0,1	0,794376
4,557500	0,1	0,826766
4,559167	0,1	0,770210
4,560833	0,1	0,776579
4,562500	0,1	0,770488
4,564167	0,1	0,762255
4,565833	0,1	0,762166
4,567500	0,1	0,760365
4,569167	0,1	0,744016
4,570833	0,1	0,716212
4,572500	0,1	0,762733
4,574167	0,1	0,753958
4,575833	0,1	0,730894
4,577500	0,1	0,725261
4,579167	0,1	0,747233
4,580833	0,1	0,727467
4,582500	0,1	0,735022
4,584167	0,1	0,705425
4,585833	0,1	0,706174
4,587500	0,1	0,721964
4,589167	0,1	0,689698
4,590833	0,1	0,723206
4,592500	0,1	0,693701
4,594167	0,1	0,677662
4,595833	0,1	0,708547
4,597500	0,1	0,685092
4,599167	0,1	0,685020
4,600833	0,1	0,693958
4,602500	0,1	0,676414
4,604167	0,1	0,639387
4,605833	0,1	0,669998
4,607500	0,1	0,684705
4,609167	0,1	0,692492
4,610833	0,1	0,679751
4,612500	0,1	0,680193
4,614167	0,1	0,645969
4,615833	0,1	0,654634
4,617500	0,1	0,651321
4,619167	0,1	0,664621
4,620833	0,1	0,625157
4,622500	0,1	0,619717
4,624167	0,1	0,626610
4,625833	0,1	0,607002
4,627500	0,1	0,641352
4,629167	0,1	0,606511
4,630833	0,1	0,618290
4,632500	0,1	0,590990
4,634167	0,1	0,596297
4,635833	0,1	0,620048
4,637500	0,1	0,634035
4,639167	0,1	0,610559
4,640833	0,1	0,622274
4,642500	0,1	0,590436
4,644167	0,1	0,592008
4,645833	0,1	0,645815
4,647500	0,1	0,612787
4,649167	0,1	0,601818
4,650833	0,1	0,618868
4,652500	0,1	0,601042
4,654167	0,1	0,607106
4,655833	0,1	0,617870
4,657500	0,1	0,534029
4,659167	0,1	0,598019
4,660833	0,1	0,546390
4,662500	0,1	0,569918
4,664167	0,1	0,587530
4,665833	0,1	0,583203
4,667500	0,1	0,575441
4,669167	0,1	0,549122
4,670833	0,1	0,553380
4,672500	0,1	0,536751
4,674167	0,1	0,581124
4,675833	0,1	0,585846
4,677500	0,1	0,577360
4,679167	0,1	0,562413
4,680833	0,1	0,570460
4,682500	0,1	0,532821
4,684167	0,1	0,557427
4,685833	0,1	0,552093
4,687500	0,1	0,584576
4,689167	0,1	0,548861
4,690833	0,1	0,555314
4,692500	0,1	0,548143
4,694167	0,1	0,500714
4,695833	0,1	0,534475
4,697500	0,1	0,517629
4,699167	0,1	0,496351
4,700833	0,1	0,507398
4,702500	0,1	0,518623
4,704167	0,1	0,548371
4,705833	0,1	0,535353
4,707500	0,1	0,537745
4,709167	0,1	0,515314
4,710833	0,1	0,528544
4,712500	0,1	0,518233
4,714167	0,1	0,547148
4,715833	0,1	0,497200
4,717500	0,1	0,479587
4,719167	0,1	0,470783
4,720833	0,1	0,523467
4,722500	0,1	0,476332
4,724167	0,1	0,543743
4,725833	0,1	0,495293
4,727500	0,1	0,519961
4,729167	0,1	0,494287
4,730833	0,1	0,483797
4,732500	0,1	0,508026
4,734167	0,1	0,440260
4,735833	0,1	0,503358
4,737500	0,1	0,487220
4,739167	0,1	0,512578
4,740833	0,1	0,479709
4,742500	0,1	0,515418
4,744167	0,1	0,492733
4,745833	0,1	0,513224
4,747500	0,1	0,523675
4,749167	0,1	0,447615
4,750833	0,1	0,482312
4,752500	0,1	0,497528
4,754167	0,1	0,510186
4,755833	0,1	0,456151
4,757500	0,1	0,482668
4,759167	0,1	0,480453
4,760833	0,1	0,502262
4,762500	0,1	0,483812
4,764167	0,1	0,457510
4,765833	0,1	0,473382
4,767500	0,1	0,475216
4,769167	0,1	0,451220
4,770833	0,1	0,445562
4,772500	0,1	0,474089
4,774167	0,1	0,494816
4,775833	0,1	0,490216
4,777500	0,1	0,484572
4,779167	0,1	0,485504
4,780833	0,1	0,477322
4,782500	0,1	0,469585
4,784167	0,1	0,493342
4,785833	0,1	0,442491
4,787500	0,1	0,490494
4,789167	0,1	0,502396
4,790833	0,1	0,459212
4,792500	0,1	0,494456
4,794167	0,1	0,437809
4,795833	0,1	0,462907
4,797500	0,1	0,450823
4,799167	0,1	0,472459
4,800833	0,1	0,460927
4,802500	0,1	0,444902
4,804167	0,1	0,464289
4,805833	0,1	0,480342
4,807500	0,1	0,485346
4,809167	0,1	0,425113
4,810833	0,1	0,475533
4,812500	0,1	0,432622
4,814167	0,1	0,467615
4,815833	0,1	0,420254
4,817500	0,1	0,458745
4,819167	0,1	0,393658
4,820833	0,1	0,440523
4,822500	0,1	0,456291
4,824167	0,1	0,480894
4,825833	0,1	0,465561
4,827500	0,1	0,432460
4,829167	0,1	0,463801
4,830833	0,1	0,497326
4,832500	0,1	0,458118
4,834167	0,1	0,465527
4,835833	0,1	0,463821
4,837500	0,1	0,426698
4,839167	0,1	0,463509
4,840833	0,1	0,491591
4,842500	0,1	0,447647
4,844167	0,1	0,472484
4,845833	0,1	0,481858
4,847500	0,1	0,453537
4,849167	0,1	0,452241
4,850833	0,1	0,473802
4,852500	0,1	0,416601
4,854167	0,1	0,464217
4,855833	0,1	0,441578
4,857500	0,1	0,460355
4,859167	0,1	0,475316
4,860833	0,1	0,470163
4,862500	0,1	0,459364
4,864167	0,1	0,462228
4,865833	0,1	0,472291
4,867500	0,1	0,444315
4,869167	0,1	0,438059
4,870833	0,1	0,453621
4,872500	0,1	0,472382
4,874167	0,1	0,476214
4,875833	0,1	0,483884
4,877500	0,1	0,441648
4,879167	0,1	0,460039
4,880833	0,1	0,454020
4,882500	0,1	0,508058
4,884167	0,1	0,455215
4,885833	0,1	0,478053
4,887500	0,1	0,481806
4,889167	0,1	0,445934
4,890833	0,1	0,509726
4,892500	0,1	0,459505
4,894167	0,1	0,467358
4,895833	0,1	0,484895
4,897500	0,1	0,491818
4,899167	0,1	0,502726
4,900833	0,1	0,455516
4,902500	0,1	0,485722
4,904167	0,1	0,463497
4,905833	0,1	0,468649
4,907500	0,1	0,478081
4,909167	0,1	0,461824
4,910833	0,1	0,457465
4,912500	0,1	0,482959
4,914167	0,1	0,493883
4,915833	0,1	0,507713
4,917500	0,1	0,470040
4,919167	0,1	0,457784
4,920833	0,1	0,535001
4,922500	0,1	0,468244
4,924167	0,1	0,483566
4,925833	0,1	0,493041
4,927500	0,1	0,443107
4,929167	0,1	0,525079
4,930833	0,1	0,484712
4,932500	0,1	0,506644
4,934167	0,1	0,467527
4,935833	0,1	0,504037
4,937500	0,1	0,456029
4,939167	0,1	0,456531
4,940833	0,1	0,451692
4,942500	0,1	0,487536
4,944167	0,1	0,464245
4,945833	0,1	0,489526
4,947500	0,1	0,522223
4,949167	0,1	0,503562
4,950833	0,1	0,493625
4,952500	0,1	0,490822
4,954167	0,1	0,515487
4,955833	0,1	0,524965
4,957500	0,1	0,471373
4,959167	0,1	0,514508
4,960833	0,1	0,500693
4,962500	0,1	0,521804
4,964167	0,1	0,473175
4,965833	0,1	0,521890
4,967500	0,1	0,527059
4,969167	0,1	0,515273
4,970833	0,1	0,491550
4,972500	0,1	0,513553
4,974167	0,1	0,544172
4,975833	0,1	0,549154
4,977500	0,1	0,551008
4,979167	0,1	0,558562
4,980833	0,1	0,564855
4,982500	0,1	0,529780
4,984167	0,1	0,560137
4,985833	0,1	0,533910
4,987500	0,1	0,554558
4,989167	0,1	0,568878
4,990833	0,1	0,550566
4,992500	0,1	0,556049
4,994167	0,1	0,544173
4,995833	0,1	0,601360
4,997500	0,1	0,564823
4,999167	0,1	0,589843
5,000833	0,1	0,548454
5,002500	0,1	0,558340
5,004167	0,1	0,607745
5,005833	0,1	0,604750
5,007500	0,1	0,576984
5,009167	0,1	0,576085
5,010833	0,1	0,586913
5,012500	0,1	0,605438
5,014167	0,1	0,609602
5,015833	0,1	0,593904
5,017500	0,1	0,634389
5,019167	0,1	0,644892
5,020833	0,1	0,586996
5,022500	0,1	0,621292
5,024167	0,1	0,628051
5,025833	0,1	0,632241
5,027500	0,1	0,677735
5,029167	0,1	0,669853
5,030833	0,1	0,632166
5,032500	0,1	0,655456
5,034167	0,1	0,671425
5,035833	0,1	0,682637
5,037500	0,1	0,676324
5,039167	0,1	0,683883
5,040833	0,1	0,700676
5,042500	0,1	0,735928
5,044167	0,1	0,676936
5,045833	0,1	0,693556
5,047500	0,1	0,683442
5,049167	0,1	0,706547
5,050833	0,1	0,731458
5,052500	0,1	0,715476
5,054167	0,1	0,745472
5,055833	0,1	0,712188
5,057500	0,1	0,780436
5,059167	0,1	0,716244
5,060833	0,1	0,727904
5,062500	0,1	0,764758
5,064167	0,1	0,750934
5,065833	0,1	0,729513
5,067500	0,1	0,748256
5,069167	0,1	0,737409
5,070833	0,1	0,738052
5,072500	0,1	0,781598
5,074167	0,1	0,758368
5,075833	0,1	0,806182
5,077500	0,1	0,839334
5,079167	0,1	0,820038
5,080833	0,1	0,807688
5,082500	0,1	0,835397
5,084167	0,1	0,806845
5,085833	0,1	0,815757
5,087500	0,1	0,824459
5,089167	0,1	0,826598
5,090833	0,1	0,819946
5,092500	0,1	0,833137
5,094167	0,1	0,830646
5,095833	0,1	0,836432
5,097500	0,1	0,859744
5,099167	0,1	0,834079
5,100833	0,1	0,831493
5,102500	0,1	0,848333
5,104167	0,1	0,871448
5,105833	0,1	0,880688
5,107500	0,1	0,835732
5,109167	0,1	0,850404
5,110833	0,1	0,850361
5,112500	0,1	0,872516
5,114167	0,1	0,845474
5,115833	0,1	0,883503
5,117500	0,1	0,894865
5,119167	0,1	0,857670
5,120833	0,1	0,831498
5,122500	0,1	0,856411
5,124167	0,1	0,853769
5,125833	0,1	0,871921
5,127500	0,1	0,875882
5,129167	0,1	0,842470
5,130833	0,1	0,844128
5,132500	0,1	0,869761
5,134167	0,1	0,837934
5,135833	0,1	0,853824
5,137500	0,1	0,862194
5,139167	0,1	0,886492
5,140833	0,1	0,866477
5,142500	0,1	0,852839
5,144167	0,1	0,859681
5,145833	0,1	0,817530
5,147500	0,1	0,870352
5,149167	0,1	0,867119
5,150833	0,1	0,834062
5,152500	0,1	0,845725
5,154167	0,1	0,843639
5,155833	0,1	0,837524
5,157500	0,1	0,830069
5,159167	0,1	0,828247
5,160833	0,1	0,840880
5,162500	0,1	0,811410
5,164167	0,1	0,825480
5,165833	0,1	0,840657
5,167500	0,1	0,854854
5,169167	0,1	0,778582
5,170833	0,1	0,834570
5,172500	0,1	0,816677
5,174167	0,1	0,827685
5,175833	0,1	0,809934
5,177500	0,1	0,810266
5,179167	0,1	0,833269
5,180833	0,1	0,791076
5,182500	0,1	0,824790
5,184167	0,1	0,790496
5,185833	0,1	0,755857
5,187500	0,1	0,827490
5,189167	0,1	0,771011
5,190833	0,1	0,816640
5,192500	0,1	0,776590
5,194167	0,1	0,800716
5,195833	0,1	0,749429
5,197500	0,1	0,763272
5,199167	0,1	0,737233
5,200833	0,1	0,747169
5,202500	0,1	0,731447
5,204167	0,1	0,777572
5,205833	0,1	0,722669
5,207500	0,1	0,746186
5,209167	0,1	0,727845
5,210833	0,1	0,725348
5,212500	0,1	0,676579
5,214167	0,1	0,714351
5,215833	0,1	0,702972
5,217500	0,1	0,698189
5,219167	0,1	0,706662
5,220833	0,1	0,724898
5,222500	0,1	0,715430
5,224167	0,1	0,652872
5,225833	0,1	0,705628
5,227500	0,1	0,676753
5,229167	0,1	0,672009
5,230833	0,1	0,707634
5,232500	0,1	0,652961
5,234167	0,1	0,642697
5,235833	0,1	0,646184
5,237500	0,1	0,639626
5,239167	0,1	0,647808
5,240833	0,1	0,616414
5,242500	0,1	0,589369
5,244167	0,1	0,624048
5,245833	0,1	0,620453
5,247500	0,1	0,624229
5,249167	0,1	0,634842
5,250833	0,1	0,626572
5,252500	0,1	0,591015
5,254167	0,1	0,581180
5,255833	0,1	0,578069
5,257500	0,1	0,600543
5,259167	0,1	0,579628
5,260833	0,1	0,579580
5,262500	0,1	0,583293
5,264167	0,1	0,586898
5,265833	0,1	0,575938
5,267500	0,1	0,552478
5,269167	0,1	0,515962
5,270833	0,1	0,563513
5,272500	0,1	0,548657
5,274167	0,1	0,520751
5,275833	0,1	0,546372
5,277500	0,1	0,535418
5,279167	0,1	0,497316
5,280833	0,1	0,564550
5,282500	0,1	0,510597
5,284167	0,1	0,525518
5,285833	0,1	0,535662
5,287500	0,1	0,518391
5,289167	0,1	0,530965
5,290833	0,1	0,506630
5,292500	0,1	0,532383
5,294167	0,1	0,463349
5,295833	0,1	0,502615
5,297500	0,1	0,521121
5,299167	0,1	0,477145
5,300833	0,1	0,466008
5,302500	0,1	0,478646
5,304167	0,1	0,479898
5,305833	0,1	0,495159
5,307500	0,1	0,474905
5,309167	0,1	0,486556
5,310833	0,1	0,466746
5,312500	0,1	0,476319
5,314167	0,1	0,481794
5,315833	0,1	0,469298
5,317500	0,1	0,438804
5,319167	0,1	0,431576
5,320833	0,1	0,425260
5,322500	0,1	0,504408
5,324167	0,1	0,404654
5,325833	0,1	0,436182
5,327500	0,1	0,412241
5,329167	0,1	0,467795
5,330833	0,1	0,438673
5,332500	0,1	0,430615
5,334167	0,1	0,373804
5,335833	0,1	0,428571
5,337500	0,1	0,411117
5,339167	0,1	0,411394
5,340833	0,1	0,445917
5,342500	0,1	0,368298
5,344167	0,1	0,422507
5,345833	0,1	0,411237
5,347500	0,1	0,393189
5,349167	0,1	0,381109
5,350833	0,1	0,409686
5,352500	0,1	0,402054
5,354167	0,1	0,393457
5,355833	0,1	0,396669
5,357500	0,1	0,367865
5,359167	0,1	0,372081
5,360833	0,1	0,406779
5,362500	0,1	0,392805
5,364167	0,1	0,377047
5,365833	0,1	0,398337
5,367500	0,1	0,365709
5,369167	0,1	0,372369
5,370833	0,1	0,357158
5,372500	0,1	0,340887
5,374167	0,1	0,377671
5,375833	0,1	0,356617
5,377500	0,1	0,336989
5,379167	0,1	0,340556
5,380833	0,1	0,337695
5,382500	0,1	0,301480
5,384167	0,1	0,341003
5,385833	0,1	0,329284
5,387500	0,1	0,338141
5,389167	0,1	0,341561
5,390833	0,1	0,349390
5,392500	0,1	0,367651
5,394167	0,1	0,275492
5,395833	0,1	0,327754
5,397500	0,1	0,321967
5,399167	0,1	0,361787
5,400833	0,1	0,343819
5,402500	0,1	0,302641
5,404167	0,1	0,291259
5,405833	0,1	0,326853
5,407500	0,1	0,335883
5,409167	0,1	0,331730
5,410833	0,1	0,288783
5,412500	0,1	0,319417
5,414167	0,1	0,273645
5,415833	0,1	0,289129
5,417500	0,1	0,308102
5,419167	0,1	0,333337
5,420833	0,1	0,289269
5,422500	0,1	0,306460
5,424167	0,1	0,286909
5,425833	0,1	0,280623
5,427500	0,1	0,310228
5,429167	0,1	0,281982
5,430833	0,1	0,280270
5,432500	0,1	0,278073
5,434167	0,1	0,259878
5,435833	0,1	0,270791
5,437500	0,1	0,275174
5,439167	0,1	0,264387
5,440833	0,1	0,270403
5,442500	0,1	0,227437
5,444167	0,1	0,276358
5,445833	0,1	0,272533
5,447500	0,1	0,281746
5,449167	0,1	0,263165
5,450833	0,1	0,227694
5,452500	0,1	0,258672
5,454167	0,1	0,266895
5,455833	0,1	0,219964
5,457500	0,1	0,258864
5,459167	0,1	0,269502
5,460833	0,1	0,292925
5,462500	0,1	0,232823
5,464167	0,1	0,266051
5,465833	0,1	0,252174
5,467500	0,1	0,260322
5,469167	0,1	0,281970
5,470833	0,1	0,253916
5,472500	0,1	0,264317
5,474167	0,1	0,226598
5,475833	0,1	0,240118
5,477500	0,1	0,246660
5,479167	0,1	0,269725
5,480833	0,1	0,258329
5,482500	0,1	0,260226
5,484167	0,1	0,211492
5,485833	0,1	0,215603
5,487500	0,1	0,224172
5,489167	0,1	0,261245
5,490833	0,1	0,245793
5,492500	0,1	0,251430
5,494167	0,1	0,236935
5,495833	0,1	0,252649
5,497500	0,1	0,233938
5,499167	0,1	0,249365
5,500833	0,1	0,218413
5,502500	0,1	0,233995
5,504167	0,1	0,243276
5,505833	0,1	0,238446
5,507500	0,1	0,273489
5,509167	0,1	0,150946
5,510833	0,1	0,243159
5,512500	0,1	0,219957
5,514167	0,1	0,234253
5,515833	0,1	0,238476
5,517500	0,1	0,231457
5,519167	0,1	0,198988
5,520833	0,1	0,217790
5,522500	0,1	0,248264
5,524167	0,1	0,213615
5,525833	0,1	0,200787
5,527500	0,1	0,231801
5,529167	0,1	0,250554
5,530833	0,1	0,224115
5,532500	0,1	0,228877
5,534167	0,1	0,232034
5,535833	0,1	0,255128
5,537500	0,1	0,205950
5,539167	0,1	0,205617
5,540833	0,1	0,208031
5,542500	0,1	0,226455
5,544167	0,1	0,175217
5,545833	0,1	0,222711
5,547500	0,1	0,198630
5,549167	0,1	0,232670
5,550833	0,1	0,184010
5,552500	0,1	0,183934
5,554167	0,1	0,194434
5,555833	0,1	0,237790
5,557500	0,1	0,202628
5,559167	0,1	0,208031
5,560833	0,1	0,171220
5,562500	0,1	0,193240
5,564167	0,1	0,225198
5,565833	0,1	0,186134
5,567500	0,1	0,174370
5,569167	0,1	0,153175
5,570833	0,1	0,214815
5,572500	0,1	0,192413
5,574167	0,1	0,213760
5,575833	0,1	0,185070
5,577500	0,1	0,202262
5,579167	0,1	0,167900
5,580833	0,1	0,189503
5,582500	0,1	0,196046
5,584167	0,1	0,212474
5,585833	0,1	0,206873
5,587500	0,1	0,199915
5,589167	0,1	0,180653
5,590833	0,1	0,190151
5,592500	0,1	0,234794
5,594167	0,1	0,172095
5,595833	0,1	0,152111
5,597500	0,1	0,158226
5,599167	0,1	0,185152
5,600833	0,1	0,175561
5,602500	0,1	0,211631
5,604167	0,1	0,178177
5,605833	0,1	0,218687
5,607500	0,1	0,171608
5,609167	0,1	0,222840
5,610833	0,1	0,161141
5,612500	0,1	0,182287
5,614167	0,1	0,189023
5,615833	0,1	0,190699
5,617500	0,1	0,226322
5,619167	0,1	0,147264
5,620833	0,1	0,190689
5,622500	0,1	0,172534
5,624167	0,1	0,202161
5,625833	0,1	0,185389
5,627500	0,1	0,183968
5,629167	0,1	0,219428
5,630833	0,1	0,166100
5,632500	0,1	0,164026
5,634167	0,1	0,179326
5,635833	0,1	0,166993
5,637500	0,1	0,155589
5,639167	0,1	0,181609
5,640833	0,1	0,225161
5,642500	0,1	0,188904
5,644167	0,1	0,192052
5,645833	0,1	0,168640
5,647500	0,1	0,212080
5,649167	0,1	0,213670
5,650833	0,1	0,213250
5,652500	0,1	0,186423
5,654167	0,1	0,202004
5,655833	0,1	0,159203
5,657500	0,1	0,204541
5,659167	0,1	0,197595
5,660833	0,1	0,180041
5,662500	0,1	0,222004
5,664167	0,1	0,195602
5,665833	0,1	0,160266
5,667500	0,1	0,172012
5,669167	0,1	0,167377
5,670833	0,1	0,209052
5,672500	0,1	0,188740
5,674167	0,1	0,247645
5,675833	0,1	0,208783
5,677500	0,1	0,201752
5,679167	0,1	0,179077
5,680833	0,1	0,214307
5,682500	0,1	0,194732
5,684167	0,1	0,202973
5,685833	0,1	0,173667
5,687500	0,1	0,188054
5,689167	0,1	0,202971
5,690833	0,1	0,196469
5,692500	0,1	0,199044
5,694167	0,1	0,226422
5,695833	0,1	0,189002
5,697500	0,1	0,248966
5,699167	0,1	0,205271
5,700833	0,1	0,192313
5,702500	0,1	0,217530
5,704167	0,1	0,182010
5,705833	0,1	0,239719
5,707500	0,1	0,221116
5,709167	0,1	0,199114
5,710833	0,1	0,204906
5,712500	0,1	0,203684
5,714167	0,1	0,247294
5,715833	0,1	0,188845
5,717500	0,1	0,213794
5,719167	0,1	0,201754
5,720833	0,1	0,194503
5,722500	0,1	0,218240
5,724167	0,1	0,231709
5,725833	0,1	0,164686
5,727500	0,1	0,215526
5,729167	0,1	0,191156
5,730833	0,1	0,196530
5,732500	0,1	0,198206
5,734167	0,1	0,208642
5,735833	0,1	0,202332
5,737500	0,1	0,156500
5,739167	0,1	0,196844
5,740833	0,1	0,196885
5,742500	0,1	0,242815
5,744167	0,1	0,253165
5,745833	0,1	0,213582
5,747500	0,1	0,197791
5,749167	0,1	0,218691
5,750833	0,1	0,208518
5,752500	0,1	0,237858
5,754167	0,1	0,236061
5,755833	0,1	0,201888
5,757500	0,1	0,252350
5,759167	0,1	0,246049
5,760833	0,1	0,215417
5,762500	0,1	0,213637
5,764167	0,1	0,189159
5,765833	0,1	0,216788
5,767500	0,1	0,259601
5,769167	0,1	0,218157
5,770833	0,1	0,241758
5,772500	0,1	0,219604
5,774167	0,1	0,225589
5,775833	0,1	0,168196
5,777500	0,1	0,201387
5,779167	0,1	0,182586
5,780833	0,1	0,219492
5,782500	0,1	0,200369
5,784167	0,1	0,228999
5,785833	0,1	0,251841
5,787500	0,1	0,204726
5,789167	0,1	0,234024
5,790833	0,1	0,195670
5,792500	0,1	0,246294
5,794167	0,1	0,198605
5,795833	0,1	0,209898
5,797500	0,1	0,210673
5,799167	0,1	0,194731
5,800833	0,1	0,185740
5,802500	0,1	0,221909
5,804167	0,1	0,264465
5,805833	0,1	0,210429
5,807500	0,1	0,242594
5,809167	0,1	0,236319
5,810833	0,1	0,212161
5,812500	0,1	0,197115
5,814167	0,1	0,259435
5,815833	0,1	0,207915
5,817500	0,1	0,199722
5,819167	0,1	0,242654
5,820833	0,1	0,192549
5,822500	0,1	0,192859
5,824167	0,1	0,197979
5,825833	0,1	0,195725
5,827500	0,1	0,212442
5,829167	0,1	0,227327
5,830833	0,1	0,266270
5,832500	0,1	0,197481
5,834167	0,1	0,184453
5,835833	0,1	0,178493
5,837500	0,1	0,205061
5,839167	0,1	0,195019
5,840833	0,1	0,203648
5,842500	0,1	0,206582
5,844167	0,1	0,224650
5,845833	0,1	0,181659
5,847500	0,1	0,193145
5,849167	0,1	0,182584
5,850833	0,1	0,175079
5,852500	0,1	0,196944
5,854167	0,1	0,223328
5,855833	0,1	0,221724
5,857500	0,1	0,187873
5,859167	0,1	0,184227
5,860833	0,1	0,190633
5,862500	0,1	0,206450
5,864167	0,1	0,200463
5,865833	0,1	0,190766
5,867500	0,1	0,178172
5,869167	0,1	0,201294
5,870833	0,1	0,160814
5,872500	0,1	0,195235
5,874167	0,1	0,215341
5,875833	0,1	0,212318
5,877500	0,1	0,165617
5,879167	0,1	0,175878
5,880833	0,1	0,182549
5,882500	0,1	0,196593
5,884167	0,1	0,203004
5,885833	0,1	0,156434
5,887500	0,1	0,201739
5,889167	0,1	0,221815
5,890833	0,1	0,180530
5,892500	0,1	0,199040
5,894167	0,1	0,200655
5,895833	0,1	0,206935
5,897500	0,1	0,184391
5,899167	0,1	0,183904
5,900833	0,1	0,192470
5,902500	0,1	0,170924
5,904167	0,1	0,160163
5,905833	0,1	0,211145
5,907500	0,1	0,182460
5,909167	0,1	0,205289
5,910833	0,1	0,159755
5,912500	0,1	0,221516
5,914167	0,1	0,170481
5,915833	0,1	0,188955
5,917500	0,1	0,159042
5,919167	0,1	0,147890
5,920833	0,1	0,165374
5,922500	0,1	0,135721
5,924167	0,1	0,191042
5,925833	0,1	0,152438
5,927500	0,1	0,179581
5,929167	0,1	0,174272
5,930833	0,1	0,165286
5,932500	0,1	0,166250
5,934167	0,1	0,168054
5,935833	0,1	0,185703
5,937500	0,1	0,197719
5,939167	0,1	0,161363
5,940833	0,1	0,158615
5,942500	0,1	0,136555
5,944167	0,1	0,182024
5,945833	0,1	0,181808
5,947500	0,1	0,163227
5,949167	0,1	0,153720
5,950833	0,1	0,137292
5,952500	0,1	0,179672
5,954167	0,1	0,176526
5,955833	0,1	0,149572
5,957500	0,1	0,140872
5,959167	0,1	0,127858
5,960833	0,1	0,159221
5,962500	0,1	0,143640
5,964167	0,1	0,220609
5,965833	0,1	0,183170
5,967500	0,1	0,174530
5,969167	0,1	0,174592
5,970833	0,1	0,165832
5,972500	0,1	0,150243
5,974167	0,1	0,166535
5,975833	0,1	0,154236
5,977500	0,1	0,176134
5,979167	0,1	0,173983
5,980833	0,1	0,189441
5,982500	0,1	0,165741
5,984167	0,1	0,154270
5,985833	0,1	0,135975
5,987500	0,1	0,139481
5,989167	0,1	0,181445
5,990833	0,1	0,134081
5,992500	0,1	0,171878
5,994167	0,1	0,114725
5,995833	0,1	0,174579
5,997500	0,1	0,146865
5,999167	0,1	0,155584
6,000833	0,1	0,105384
