File Path	chrom://chromeleon01/ikbm_chromeleon/2022/Rezex/Esteban/220612_chitin_4_7.seq/894.smp/UV_VIS_1.channel/UV_VIS_1.chm
Channel	UV_VIS_1

Injection Information:
Data Vault	ikbm_chromeleon
Injection	7_24h-ChiBS_1
Injection Number	11
Position	RA8
Comment	
Processing Method	New ProcMethod
Instrument Method	Short_Rezex_6min_194nm
Type	Unknown
Status	Finished
Injection Date	12.06.2022
Injection Time	18:18:49
Injection Volume (µl)	8,000
Dilution Factor	1,0000
Weight	1,0000

Chromatogram Data Information:
Time Min. (min)	0,000833
Time Max. (min)	6,000833
Data Points	3601
Detector	UV
Generating Data System	Chromeleon 7.2.9.11323
Exporting Data System	Chromeleon 7.2.9.0
Operator	Instrument Controller
Signal Quantity	Absorbance
Signal Unit	mAU
Signal Min.	-0,084982
Signal Max.	118,595922
Channel	UV_VIS_1
Driver Name	VWD3000.dll
Channel Type	Evaluation
Min. Step (s)	0,1
Max. Step (s)	0,1
Average Step (s)	0,1

Signal Parameter Information:
Signal Info	WVL:194 nm

Chromatogram Data:
Time (min)	Step (s)	Value (mAU)
0,000833	n.a.	0,017588
0,002500	0,1	0,006130
0,004167	0,1	-0,019957
0,005833	0,1	-0,007877
0,007500	0,1	-0,041128
0,009167	0,1	0,015827
0,010833	0,1	-0,033065
0,012500	0,1	0,035033
0,014167	0,1	-0,016342
0,015833	0,1	-0,024173
0,017500	0,1	0,021164
0,019167	0,1	0,005174
0,020833	0,1	0,002688
0,022500	0,1	0,038075
0,024167	0,1	-0,000010
0,025833	0,1	-0,028233
0,027500	0,1	0,004057
0,029167	0,1	-0,029538
0,030833	0,1	-0,022612
0,032500	0,1	-0,021911
0,034167	0,1	-0,056649
0,035833	0,1	0,012550
0,037500	0,1	-0,030860
0,039167	0,1	-0,022337
0,040833	0,1	-0,025130
0,042500	0,1	-0,035448
0,044167	0,1	-0,062377
0,045833	0,1	-0,028062
0,047500	0,1	-0,024247
0,049167	0,1	-0,028477
0,050833	0,1	-0,059562
0,052500	0,1	-0,000033
0,054167	0,1	-0,014660
0,055833	0,1	-0,023692
0,057500	0,1	-0,012863
0,059167	0,1	-0,039048
0,060833	0,1	0,008526
0,062500	0,1	-0,040996
0,064167	0,1	-0,014539
0,065833	0,1	-0,005466
0,067500	0,1	-0,038553
0,069167	0,1	0,000616
0,070833	0,1	-0,006511
0,072500	0,1	-0,003294
0,074167	0,1	-0,038918
0,075833	0,1	-0,007568
0,077500	0,1	-0,016114
0,079167	0,1	-0,036660
0,080833	0,1	0,020830
0,082500	0,1	0,003535
0,084167	0,1	0,008536
0,085833	0,1	-0,017932
0,087500	0,1	0,000307
0,089167	0,1	0,004377
0,090833	0,1	0,003184
0,092500	0,1	-0,049091
0,094167	0,1	-0,009171
0,095833	0,1	0,022163
0,097500	0,1	0,022814
0,099167	0,1	-0,003580
0,100833	0,1	-0,011129
0,102500	0,1	-0,000132
0,104167	0,1	-0,003311
0,105833	0,1	0,023617
0,107500	0,1	-0,050278
0,109167	0,1	0,002471
0,110833	0,1	-0,034505
0,112500	0,1	-0,017371
0,114167	0,1	-0,018747
0,115833	0,1	-0,036441
0,117500	0,1	-0,037233
0,119167	0,1	-0,060720
0,120833	0,1	-0,066814
0,122500	0,1	-0,068342
0,124167	0,1	-0,076635
0,125833	0,1	-0,084982
0,127500	0,1	-0,066930
0,129167	0,1	-0,052304
0,130833	0,1	-0,019234
0,132500	0,1	-0,038003
0,134167	0,1	-0,055092
0,135833	0,1	-0,051384
0,137500	0,1	-0,037367
0,139167	0,1	-0,018934
0,140833	0,1	-0,050691
0,142500	0,1	0,002544
0,144167	0,1	0,005280
0,145833	0,1	-0,001285
0,147500	0,1	-0,029704
0,149167	0,1	-0,052884
0,150833	0,1	-0,023389
0,152500	0,1	-0,023123
0,154167	0,1	-0,007436
0,155833	0,1	-0,009860
0,157500	0,1	-0,019020
0,159167	0,1	0,013919
0,160833	0,1	-0,021149
0,162500	0,1	-0,030224
0,164167	0,1	-0,001149
0,165833	0,1	0,007430
0,167500	0,1	0,035631
0,169167	0,1	-0,042844
0,170833	0,1	-0,032933
0,172500	0,1	-0,013085
0,174167	0,1	-0,043795
0,175833	0,1	0,001554
0,177500	0,1	0,007559
0,179167	0,1	-0,015705
0,180833	0,1	-0,022203
0,182500	0,1	0,013495
0,184167	0,1	-0,049656
0,185833	0,1	-0,015939
0,187500	0,1	-0,014719
0,189167	0,1	-0,044568
0,190833	0,1	-0,045240
0,192500	0,1	-0,000305
0,194167	0,1	0,023690
0,195833	0,1	-0,014434
0,197500	0,1	-0,034399
0,199167	0,1	-0,025536
0,200833	0,1	-0,019117
0,202500	0,1	0,026023
0,204167	0,1	-0,033008
0,205833	0,1	-0,003080
0,207500	0,1	-0,009142
0,209167	0,1	-0,012417
0,210833	0,1	0,025969
0,212500	0,1	0,010307
0,214167	0,1	0,027022
0,215833	0,1	0,016102
0,217500	0,1	-0,011841
0,219167	0,1	0,010977
0,220833	0,1	-0,026464
0,222500	0,1	-0,042475
0,224167	0,1	-0,006522
0,225833	0,1	0,010410
0,227500	0,1	0,010927
0,229167	0,1	-0,002223
0,230833	0,1	0,003365
0,232500	0,1	0,037929
0,234167	0,1	-0,021326
0,235833	0,1	-0,005064
0,237500	0,1	-0,044675
0,239167	0,1	-0,028961
0,240833	0,1	0,012206
0,242500	0,1	-0,013425
0,244167	0,1	-0,007837
0,245833	0,1	-0,020435
0,247500	0,1	-0,003298
0,249167	0,1	-0,014035
0,250833	0,1	0,055691
0,252500	0,1	0,007850
0,254167	0,1	0,004509
0,255833	0,1	-0,023760
0,257500	0,1	0,007242
0,259167	0,1	-0,025068
0,260833	0,1	-0,007031
0,262500	0,1	-0,013557
0,264167	0,1	-0,040980
0,265833	0,1	-0,008618
0,267500	0,1	0,016386
0,269167	0,1	-0,004484
0,270833	0,1	-0,031047
0,272500	0,1	-0,006664
0,274167	0,1	-0,005464
0,275833	0,1	0,000238
0,277500	0,1	0,018099
0,279167	0,1	0,012861
0,280833	0,1	0,010673
0,282500	0,1	-0,028689
0,284167	0,1	-0,011833
0,285833	0,1	0,008698
0,287500	0,1	-0,003015
0,289167	0,1	0,016904
0,290833	0,1	-0,019861
0,292500	0,1	-0,000024
0,294167	0,1	0,016756
0,295833	0,1	0,016007
0,297500	0,1	0,014626
0,299167	0,1	-0,038474
0,300833	0,1	-0,010862
0,302500	0,1	0,013056
0,304167	0,1	-0,008457
0,305833	0,1	-0,000720
0,307500	0,1	-0,042743
0,309167	0,1	0,015311
0,310833	0,1	0,008409
0,312500	0,1	0,022976
0,314167	0,1	0,044831
0,315833	0,1	-0,004439
0,317500	0,1	-0,002465
0,319167	0,1	0,032371
0,320833	0,1	0,049157
0,322500	0,1	0,013457
0,324167	0,1	0,022977
0,325833	0,1	-0,036245
0,327500	0,1	0,023499
0,329167	0,1	0,007253
0,330833	0,1	0,051726
0,332500	0,1	-0,027726
0,334167	0,1	0,060676
0,335833	0,1	0,026244
0,337500	0,1	0,000944
0,339167	0,1	0,058823
0,340833	0,1	-0,009975
0,342500	0,1	0,022806
0,344167	0,1	0,013047
0,345833	0,1	0,035925
0,347500	0,1	0,014228
0,349167	0,1	0,009586
0,350833	0,1	0,044938
0,352500	0,1	0,019012
0,354167	0,1	0,013745
0,355833	0,1	-0,005001
0,357500	0,1	0,015853
0,359167	0,1	-0,013018
0,360833	0,1	0,017525
0,362500	0,1	0,024744
0,364167	0,1	0,036169
0,365833	0,1	0,001425
0,367500	0,1	0,011459
0,369167	0,1	0,001402
0,370833	0,1	0,039142
0,372500	0,1	0,024730
0,374167	0,1	0,001515
0,375833	0,1	0,025677
0,377500	0,1	0,014648
0,379167	0,1	0,014828
0,380833	0,1	0,054652
0,382500	0,1	0,039688
0,384167	0,1	0,034719
0,385833	0,1	0,009941
0,387500	0,1	0,000334
0,389167	0,1	-0,008791
0,390833	0,1	0,072764
0,392500	0,1	0,011551
0,394167	0,1	0,031493
0,395833	0,1	0,012423
0,397500	0,1	-0,007555
0,399167	0,1	0,028140
0,400833	0,1	0,038211
0,402500	0,1	0,024160
0,404167	0,1	0,036572
0,405833	0,1	0,059697
0,407500	0,1	0,017598
0,409167	0,1	0,041978
0,410833	0,1	-0,003097
0,412500	0,1	0,061508
0,414167	0,1	0,027145
0,415833	0,1	0,025150
0,417500	0,1	-0,001779
0,419167	0,1	0,053194
0,420833	0,1	0,020246
0,422500	0,1	0,077518
0,424167	0,1	0,025585
0,425833	0,1	0,056439
0,427500	0,1	0,003784
0,429167	0,1	0,054538
0,430833	0,1	0,005495
0,432500	0,1	0,023158
0,434167	0,1	0,062897
0,435833	0,1	0,017361
0,437500	0,1	0,040911
0,439167	0,1	0,014577
0,440833	0,1	0,021063
0,442500	0,1	0,037455
0,444167	0,1	0,013730
0,445833	0,1	0,074463
0,447500	0,1	0,054611
0,449167	0,1	0,032092
0,450833	0,1	0,075222
0,452500	0,1	0,011772
0,454167	0,1	0,039918
0,455833	0,1	0,026092
0,457500	0,1	0,077978
0,459167	0,1	-0,004672
0,460833	0,1	0,023231
0,462500	0,1	0,009498
0,464167	0,1	0,051249
0,465833	0,1	-0,011005
0,467500	0,1	0,025619
0,469167	0,1	0,029032
0,470833	0,1	0,043177
0,472500	0,1	0,034277
0,474167	0,1	0,002234
0,475833	0,1	0,025181
0,477500	0,1	0,011870
0,479167	0,1	0,051506
0,480833	0,1	0,015960
0,482500	0,1	0,072809
0,484167	0,1	-0,004157
0,485833	0,1	0,018191
0,487500	0,1	0,002047
0,489167	0,1	-0,004009
0,490833	0,1	0,019534
0,492500	0,1	0,022518
0,494167	0,1	0,034695
0,495833	0,1	0,029310
0,497500	0,1	0,007365
0,499167	0,1	0,025623
0,500833	0,1	0,048290
0,502500	0,1	0,028208
0,504167	0,1	0,049283
0,505833	0,1	0,002588
0,507500	0,1	0,017714
0,509167	0,1	0,041115
0,510833	0,1	0,018973
0,512500	0,1	0,038209
0,514167	0,1	0,018146
0,515833	0,1	0,043249
0,517500	0,1	0,023408
0,519167	0,1	-0,003012
0,520833	0,1	0,027848
0,522500	0,1	0,038377
0,524167	0,1	0,015461
0,525833	0,1	0,035909
0,527500	0,1	0,029844
0,529167	0,1	0,030376
0,530833	0,1	0,035471
0,532500	0,1	0,027285
0,534167	0,1	0,022998
0,535833	0,1	0,033794
0,537500	0,1	0,005194
0,539167	0,1	-0,015632
0,540833	0,1	0,037096
0,542500	0,1	0,022063
0,544167	0,1	0,021231
0,545833	0,1	0,021065
0,547500	0,1	0,032285
0,549167	0,1	0,033667
0,550833	0,1	0,021326
0,552500	0,1	0,000575
0,554167	0,1	0,018229
0,555833	0,1	0,035062
0,557500	0,1	-0,010879
0,559167	0,1	0,041769
0,560833	0,1	0,027232
0,562500	0,1	0,015769
0,564167	0,1	0,028789
0,565833	0,1	0,016948
0,567500	0,1	0,021064
0,569167	0,1	-0,015812
0,570833	0,1	0,038458
0,572500	0,1	-0,006392
0,574167	0,1	0,027551
0,575833	0,1	0,027670
0,577500	0,1	0,012054
0,579167	0,1	0,007489
0,580833	0,1	0,029320
0,582500	0,1	-0,001024
0,584167	0,1	0,038627
0,585833	0,1	0,029126
0,587500	0,1	0,056310
0,589167	0,1	0,008070
0,590833	0,1	0,026618
0,592500	0,1	0,041154
0,594167	0,1	0,024308
0,595833	0,1	0,056621
0,597500	0,1	0,005513
0,599167	0,1	0,004489
0,600833	0,1	0,004398
0,602500	0,1	0,019718
0,604167	0,1	0,031274
0,605833	0,1	0,015917
0,607500	0,1	0,016557
0,609167	0,1	0,002911
0,610833	0,1	0,041424
0,612500	0,1	-0,011191
0,614167	0,1	0,039268
0,615833	0,1	0,027913
0,617500	0,1	0,026402
0,619167	0,1	0,011062
0,620833	0,1	-0,003879
0,622500	0,1	-0,007635
0,624167	0,1	0,030863
0,625833	0,1	0,024637
0,627500	0,1	0,002820
0,629167	0,1	0,013556
0,630833	0,1	0,046779
0,632500	0,1	0,026976
0,634167	0,1	0,027817
0,635833	0,1	0,002029
0,637500	0,1	-0,001636
0,639167	0,1	0,022220
0,640833	0,1	0,001993
0,642500	0,1	0,005630
0,644167	0,1	0,030608
0,645833	0,1	0,037051
0,647500	0,1	0,018604
0,649167	0,1	0,005486
0,650833	0,1	-0,012228
0,652500	0,1	0,023632
0,654167	0,1	0,019430
0,655833	0,1	0,019887
0,657500	0,1	0,018600
0,659167	0,1	0,021949
0,660833	0,1	0,008485
0,662500	0,1	0,027630
0,664167	0,1	0,028665
0,665833	0,1	0,072369
0,667500	0,1	-0,005169
0,669167	0,1	-0,003845
0,670833	0,1	0,067266
0,672500	0,1	0,014473
0,674167	0,1	0,042143
0,675833	0,1	-0,042973
0,677500	0,1	0,016267
0,679167	0,1	0,013689
0,680833	0,1	-0,019438
0,682500	0,1	0,009119
0,684167	0,1	-0,003804
0,685833	0,1	0,052679
0,687500	0,1	0,026260
0,689167	0,1	0,003447
0,690833	0,1	0,023047
0,692500	0,1	0,039277
0,694167	0,1	0,035896
0,695833	0,1	0,004644
0,697500	0,1	0,027388
0,699167	0,1	0,008690
0,700833	0,1	-0,001284
0,702500	0,1	0,008976
0,704167	0,1	0,004379
0,705833	0,1	0,010633
0,707500	0,1	0,016539
0,709167	0,1	-0,008752
0,710833	0,1	0,005129
0,712500	0,1	0,055312
0,714167	0,1	0,034593
0,715833	0,1	-0,011598
0,717500	0,1	-0,018026
0,719167	0,1	0,050026
0,720833	0,1	0,014654
0,722500	0,1	0,026747
0,724167	0,1	0,067661
0,725833	0,1	0,018852
0,727500	0,1	0,016723
0,729167	0,1	0,007913
0,730833	0,1	0,038905
0,732500	0,1	0,027286
0,734167	0,1	0,081715
0,735833	0,1	0,022146
0,737500	0,1	0,046670
0,739167	0,1	0,013641
0,740833	0,1	0,020695
0,742500	0,1	0,054432
0,744167	0,1	0,028633
0,745833	0,1	0,038267
0,747500	0,1	0,037017
0,749167	0,1	0,027747
0,750833	0,1	0,045531
0,752500	0,1	0,030562
0,754167	0,1	0,048880
0,755833	0,1	0,049161
0,757500	0,1	0,062682
0,759167	0,1	0,007611
0,760833	0,1	0,053030
0,762500	0,1	0,069322
0,764167	0,1	0,046535
0,765833	0,1	0,121052
0,767500	0,1	0,069742
0,769167	0,1	0,048061
0,770833	0,1	0,030563
0,772500	0,1	0,093432
0,774167	0,1	0,059545
0,775833	0,1	0,104458
0,777500	0,1	0,014665
0,779167	0,1	0,068080
0,780833	0,1	0,038221
0,782500	0,1	0,057711
0,784167	0,1	0,037740
0,785833	0,1	0,042278
0,787500	0,1	0,038491
0,789167	0,1	0,021953
0,790833	0,1	0,048914
0,792500	0,1	0,038216
0,794167	0,1	0,055652
0,795833	0,1	0,006838
0,797500	0,1	0,045249
0,799167	0,1	-0,011300
0,800833	0,1	0,063678
0,802500	0,1	0,037355
0,804167	0,1	0,017482
0,805833	0,1	0,016154
0,807500	0,1	0,011280
0,809167	0,1	0,033222
0,810833	0,1	0,010254
0,812500	0,1	0,009402
0,814167	0,1	0,013577
0,815833	0,1	0,020053
0,817500	0,1	0,020827
0,819167	0,1	0,022886
0,820833	0,1	0,009846
0,822500	0,1	-0,027862
0,824167	0,1	0,020540
0,825833	0,1	0,006368
0,827500	0,1	0,050107
0,829167	0,1	0,034647
0,830833	0,1	0,024765
0,832500	0,1	0,005192
0,834167	0,1	0,044072
0,835833	0,1	0,028152
0,837500	0,1	0,010123
0,839167	0,1	-0,008754
0,840833	0,1	0,016496
0,842500	0,1	-0,007885
0,844167	0,1	0,006950
0,845833	0,1	-0,016700
0,847500	0,1	0,013571
0,849167	0,1	0,023362
0,850833	0,1	0,008724
0,852500	0,1	0,015416
0,854167	0,1	0,021782
0,855833	0,1	-0,012868
0,857500	0,1	-0,026101
0,859167	0,1	0,001062
0,860833	0,1	-0,009840
0,862500	0,1	0,019790
0,864167	0,1	0,030042
0,865833	0,1	-0,012353
0,867500	0,1	0,017600
0,869167	0,1	-0,017412
0,870833	0,1	-0,004216
0,872500	0,1	0,008369
0,874167	0,1	0,008685
0,875833	0,1	-0,013112
0,877500	0,1	0,032093
0,879167	0,1	0,035875
0,880833	0,1	0,016562
0,882500	0,1	-0,020301
0,884167	0,1	0,023705
0,885833	0,1	0,004293
0,887500	0,1	-0,017360
0,889167	0,1	-0,000003
0,890833	0,1	-0,018078
0,892500	0,1	0,012173
0,894167	0,1	-0,018646
0,895833	0,1	0,017193
0,897500	0,1	0,014959
0,899167	0,1	0,002174
0,900833	0,1	-0,010005
0,902500	0,1	-0,003863
0,904167	0,1	-0,022145
0,905833	0,1	0,015611
0,907500	0,1	0,033517
0,909167	0,1	-0,014300
0,910833	0,1	0,010556
0,912500	0,1	-0,017690
0,914167	0,1	-0,011627
0,915833	0,1	0,000367
0,917500	0,1	-0,001213
0,919167	0,1	0,024574
0,920833	0,1	-0,001944
0,922500	0,1	-0,002244
0,924167	0,1	-0,012654
0,925833	0,1	0,022364
0,927500	0,1	0,085648
0,929167	0,1	0,018064
0,930833	0,1	0,040306
0,932500	0,1	0,036227
0,934167	0,1	0,026239
0,935833	0,1	0,012053
0,937500	0,1	0,086807
0,939167	0,1	0,074773
0,940833	0,1	0,069675
0,942500	0,1	0,072379
0,944167	0,1	0,096406
0,945833	0,1	0,070419
0,947500	0,1	0,092819
0,949167	0,1	0,078400
0,950833	0,1	0,099866
0,952500	0,1	0,085688
0,954167	0,1	0,099424
0,955833	0,1	0,149945
0,957500	0,1	0,129963
0,959167	0,1	0,138291
0,960833	0,1	0,167327
0,962500	0,1	0,117622
0,964167	0,1	0,150214
0,965833	0,1	0,147604
0,967500	0,1	0,140815
0,969167	0,1	0,153272
0,970833	0,1	0,194155
0,972500	0,1	0,205350
0,974167	0,1	0,162596
0,975833	0,1	0,166491
0,977500	0,1	0,206982
0,979167	0,1	0,164416
0,980833	0,1	0,199337
0,982500	0,1	0,196194
0,984167	0,1	0,219787
0,985833	0,1	0,224481
0,987500	0,1	0,232380
0,989167	0,1	0,246791
0,990833	0,1	0,239960
0,992500	0,1	0,284378
0,994167	0,1	0,298402
0,995833	0,1	0,248346
0,997500	0,1	0,267294
0,999167	0,1	0,246336
1,000833	0,1	0,312452
1,002500	0,1	0,323997
1,004167	0,1	0,300457
1,005833	0,1	0,337636
1,007500	0,1	0,293420
1,009167	0,1	0,340799
1,010833	0,1	0,382935
1,012500	0,1	0,389198
1,014167	0,1	0,411343
1,015833	0,1	0,416389
1,017500	0,1	0,460691
1,019167	0,1	0,480491
1,020833	0,1	0,483252
1,022500	0,1	0,481656
1,024167	0,1	0,525430
1,025833	0,1	0,515429
1,027500	0,1	0,529248
1,029167	0,1	0,573081
1,030833	0,1	0,625017
1,032500	0,1	0,630707
1,034167	0,1	0,632474
1,035833	0,1	0,686513
1,037500	0,1	0,686991
1,039167	0,1	0,714597
1,040833	0,1	0,737056
1,042500	0,1	0,768543
1,044167	0,1	0,865702
1,045833	0,1	0,922080
1,047500	0,1	0,925793
1,049167	0,1	1,029958
1,050833	0,1	1,047704
1,052500	0,1	1,181596
1,054167	0,1	1,263250
1,055833	0,1	1,398053
1,057500	0,1	1,517193
1,059167	0,1	1,683091
1,060833	0,1	1,908741
1,062500	0,1	2,099086
1,064167	0,1	2,431508
1,065833	0,1	2,769182
1,067500	0,1	3,226410
1,069167	0,1	3,706520
1,070833	0,1	4,216533
1,072500	0,1	4,981049
1,074167	0,1	5,754610
1,075833	0,1	6,657278
1,077500	0,1	7,716054
1,079167	0,1	8,936540
1,080833	0,1	10,236294
1,082500	0,1	11,704119
1,084167	0,1	13,288743
1,085833	0,1	14,989839
1,087500	0,1	16,858120
1,089167	0,1	18,801494
1,090833	0,1	20,793580
1,092500	0,1	22,813291
1,094167	0,1	24,936741
1,095833	0,1	27,015443
1,097500	0,1	29,099018
1,099167	0,1	31,034544
1,100833	0,1	32,911584
1,102500	0,1	34,700836
1,104167	0,1	36,348804
1,105833	0,1	37,785225
1,107500	0,1	39,093703
1,109167	0,1	40,169282
1,110833	0,1	41,089890
1,112500	0,1	41,803288
1,114167	0,1	42,349566
1,115833	0,1	42,679314
1,117500	0,1	42,801793
1,119167	0,1	42,853631
1,120833	0,1	42,666600
1,122500	0,1	42,372135
1,124167	0,1	41,933007
1,125833	0,1	41,388995
1,127500	0,1	40,755147
1,129167	0,1	39,988738
1,130833	0,1	39,202244
1,132500	0,1	38,356037
1,134167	0,1	37,463703
1,135833	0,1	36,535198
1,137500	0,1	35,591981
1,139167	0,1	34,679461
1,140833	0,1	33,719738
1,142500	0,1	32,827780
1,144167	0,1	31,877584
1,145833	0,1	31,079166
1,147500	0,1	30,268761
1,149167	0,1	29,461410
1,150833	0,1	28,722059
1,152500	0,1	28,038177
1,154167	0,1	27,415436
1,155833	0,1	26,874332
1,157500	0,1	26,319763
1,159167	0,1	25,845630
1,160833	0,1	25,446969
1,162500	0,1	25,080406
1,164167	0,1	24,717817
1,165833	0,1	24,398592
1,167500	0,1	24,146478
1,169167	0,1	23,872249
1,170833	0,1	23,669424
1,172500	0,1	23,471576
1,174167	0,1	23,221258
1,175833	0,1	23,067269
1,177500	0,1	22,924320
1,179167	0,1	22,784137
1,180833	0,1	22,629474
1,182500	0,1	22,514260
1,184167	0,1	22,348118
1,185833	0,1	22,245180
1,187500	0,1	22,171151
1,189167	0,1	22,109649
1,190833	0,1	22,165755
1,192500	0,1	22,156022
1,194167	0,1	22,288086
1,195833	0,1	22,496614
1,197500	0,1	22,813440
1,199167	0,1	23,301954
1,200833	0,1	23,912759
1,202500	0,1	24,639169
1,204167	0,1	25,680946
1,205833	0,1	26,893821
1,207500	0,1	28,338362
1,209167	0,1	30,007806
1,210833	0,1	32,042182
1,212500	0,1	34,275870
1,214167	0,1	36,822211
1,215833	0,1	39,670480
1,217500	0,1	42,770510
1,219167	0,1	46,139519
1,220833	0,1	49,723007
1,222500	0,1	53,555432
1,224167	0,1	57,546139
1,225833	0,1	61,659511
1,227500	0,1	65,896494
1,229167	0,1	70,164049
1,230833	0,1	74,469570
1,232500	0,1	78,723355
1,234167	0,1	82,955431
1,235833	0,1	87,009304
1,237500	0,1	90,898327
1,239167	0,1	94,665519
1,240833	0,1	98,152337
1,242500	0,1	101,436911
1,244167	0,1	104,468144
1,245833	0,1	107,198864
1,247500	0,1	109,739839
1,249167	0,1	111,863568
1,250833	0,1	113,727704
1,252500	0,1	115,331747
1,254167	0,1	116,548731
1,255833	0,1	117,490336
1,257500	0,1	118,126998
1,259167	0,1	118,572348
1,260833	0,1	118,595922
1,262500	0,1	118,458969
1,264167	0,1	117,973103
1,265833	0,1	117,226295
1,267500	0,1	116,284656
1,269167	0,1	115,178805
1,270833	0,1	113,808030
1,272500	0,1	112,204271
1,274167	0,1	110,520273
1,275833	0,1	108,558984
1,277500	0,1	106,515768
1,279167	0,1	104,388491
1,280833	0,1	102,115812
1,282500	0,1	99,734339
1,284167	0,1	97,252811
1,285833	0,1	94,782423
1,287500	0,1	92,228623
1,289167	0,1	89,669855
1,290833	0,1	87,123520
1,292500	0,1	84,571706
1,294167	0,1	82,052922
1,295833	0,1	79,578086
1,297500	0,1	77,058337
1,299167	0,1	74,641007
1,300833	0,1	72,275701
1,302500	0,1	69,992080
1,304167	0,1	67,719476
1,305833	0,1	65,568255
1,307500	0,1	63,482899
1,309167	0,1	61,509808
1,310833	0,1	59,554219
1,312500	0,1	57,666628
1,314167	0,1	55,910091
1,315833	0,1	54,165183
1,317500	0,1	52,516848
1,319167	0,1	50,957866
1,320833	0,1	49,414181
1,322500	0,1	47,985342
1,324167	0,1	46,603883
1,325833	0,1	45,278673
1,327500	0,1	44,000432
1,329167	0,1	42,807794
1,330833	0,1	41,653957
1,332500	0,1	40,556801
1,334167	0,1	39,448326
1,335833	0,1	38,443063
1,337500	0,1	37,449287
1,339167	0,1	36,534112
1,340833	0,1	35,555548
1,342500	0,1	34,692571
1,344167	0,1	33,846164
1,345833	0,1	32,988666
1,347500	0,1	32,197417
1,349167	0,1	31,422156
1,350833	0,1	30,665397
1,352500	0,1	29,960883
1,354167	0,1	29,200613
1,355833	0,1	28,549657
1,357500	0,1	27,846893
1,359167	0,1	27,230799
1,360833	0,1	26,585768
1,362500	0,1	25,990729
1,364167	0,1	25,368007
1,365833	0,1	24,811836
1,367500	0,1	24,231818
1,369167	0,1	23,656987
1,370833	0,1	23,139634
1,372500	0,1	22,587878
1,374167	0,1	22,132727
1,375833	0,1	21,623252
1,377500	0,1	21,137633
1,379167	0,1	20,698415
1,380833	0,1	20,240722
1,382500	0,1	19,832071
1,384167	0,1	19,362284
1,385833	0,1	18,942439
1,387500	0,1	18,502551
1,389167	0,1	18,167983
1,390833	0,1	17,760561
1,392500	0,1	17,392596
1,394167	0,1	17,046240
1,395833	0,1	16,720520
1,397500	0,1	16,395989
1,399167	0,1	16,062303
1,400833	0,1	15,725153
1,402500	0,1	15,426130
1,404167	0,1	15,167461
1,405833	0,1	14,875549
1,407500	0,1	14,588792
1,409167	0,1	14,350641
1,410833	0,1	14,090935
1,412500	0,1	13,868170
1,414167	0,1	13,627321
1,415833	0,1	13,400770
1,417500	0,1	13,144616
1,419167	0,1	12,946602
1,420833	0,1	12,731181
1,422500	0,1	12,565212
1,424167	0,1	12,355292
1,425833	0,1	12,138501
1,427500	0,1	11,972006
1,429167	0,1	11,753755
1,430833	0,1	11,588494
1,432500	0,1	11,417360
1,434167	0,1	11,232589
1,435833	0,1	11,092589
1,437500	0,1	10,889519
1,439167	0,1	10,784187
1,440833	0,1	10,587089
1,442500	0,1	10,457004
1,444167	0,1	10,322704
1,445833	0,1	10,176586
1,447500	0,1	10,013779
1,449167	0,1	9,837216
1,450833	0,1	9,759958
1,452500	0,1	9,606557
1,454167	0,1	9,486396
1,455833	0,1	9,362476
1,457500	0,1	9,202288
1,459167	0,1	9,081848
1,460833	0,1	9,012043
1,462500	0,1	8,884096
1,464167	0,1	8,758776
1,465833	0,1	8,667362
1,467500	0,1	8,590797
1,469167	0,1	8,518751
1,470833	0,1	8,397493
1,472500	0,1	8,326872
1,474167	0,1	8,263392
1,475833	0,1	8,153266
1,477500	0,1	8,068452
1,479167	0,1	7,992277
1,480833	0,1	7,925761
1,482500	0,1	7,885939
1,484167	0,1	7,821115
1,485833	0,1	7,719267
1,487500	0,1	7,668881
1,489167	0,1	7,599943
1,490833	0,1	7,603144
1,492500	0,1	7,572834
1,494167	0,1	7,511913
1,495833	0,1	7,482127
1,497500	0,1	7,459499
1,499167	0,1	7,405958
1,500833	0,1	7,382529
1,502500	0,1	7,350891
1,504167	0,1	7,288915
1,505833	0,1	7,286084
1,507500	0,1	7,277291
1,509167	0,1	7,248225
1,510833	0,1	7,250026
1,512500	0,1	7,191732
1,514167	0,1	7,195994
1,515833	0,1	7,181271
1,517500	0,1	7,133036
1,519167	0,1	7,121224
1,520833	0,1	7,089639
1,522500	0,1	7,057901
1,524167	0,1	7,049626
1,525833	0,1	7,040352
1,527500	0,1	7,001777
1,529167	0,1	6,989622
1,530833	0,1	6,961071
1,532500	0,1	6,982552
1,534167	0,1	6,937796
1,535833	0,1	6,940410
1,537500	0,1	6,888906
1,539167	0,1	6,855684
1,540833	0,1	6,823377
1,542500	0,1	6,836276
1,544167	0,1	6,810551
1,545833	0,1	6,820836
1,547500	0,1	6,748291
1,549167	0,1	6,719195
1,550833	0,1	6,695398
1,552500	0,1	6,642784
1,554167	0,1	6,706265
1,555833	0,1	6,581317
1,557500	0,1	6,614450
1,559167	0,1	6,555355
1,560833	0,1	6,572700
1,562500	0,1	6,535222
1,564167	0,1	6,505722
1,565833	0,1	6,530779
1,567500	0,1	6,467001
1,569167	0,1	6,424703
1,570833	0,1	6,465937
1,572500	0,1	6,395808
1,574167	0,1	6,321608
1,575833	0,1	6,340866
1,577500	0,1	6,355763
1,579167	0,1	6,248783
1,580833	0,1	6,241397
1,582500	0,1	6,208589
1,584167	0,1	6,174996
1,585833	0,1	6,192443
1,587500	0,1	6,078456
1,589167	0,1	6,121546
1,590833	0,1	6,078630
1,592500	0,1	6,057776
1,594167	0,1	5,962237
1,595833	0,1	5,972491
1,597500	0,1	5,913637
1,599167	0,1	5,836997
1,600833	0,1	5,827926
1,602500	0,1	5,837020
1,604167	0,1	5,745602
1,605833	0,1	5,720516
1,607500	0,1	5,683529
1,609167	0,1	5,646552
1,610833	0,1	5,594615
1,612500	0,1	5,567535
1,614167	0,1	5,567838
1,615833	0,1	5,485917
1,617500	0,1	5,451936
1,619167	0,1	5,413374
1,620833	0,1	5,383401
1,622500	0,1	5,354493
1,624167	0,1	5,254756
1,625833	0,1	5,250587
1,627500	0,1	5,224941
1,629167	0,1	5,162163
1,630833	0,1	5,117697
1,632500	0,1	5,083247
1,634167	0,1	5,081777
1,635833	0,1	5,060988
1,637500	0,1	4,961067
1,639167	0,1	4,951696
1,640833	0,1	4,915123
1,642500	0,1	4,852406
1,644167	0,1	4,844693
1,645833	0,1	4,809333
1,647500	0,1	4,772818
1,649167	0,1	4,746664
1,650833	0,1	4,738579
1,652500	0,1	4,668090
1,654167	0,1	4,691346
1,655833	0,1	4,602971
1,657500	0,1	4,619546
1,659167	0,1	4,585494
1,660833	0,1	4,537213
1,662500	0,1	4,491957
1,664167	0,1	4,455100
1,665833	0,1	4,449452
1,667500	0,1	4,447149
1,669167	0,1	4,440420
1,670833	0,1	4,438393
1,672500	0,1	4,372885
1,674167	0,1	4,400946
1,675833	0,1	4,439320
1,677500	0,1	4,395610
1,679167	0,1	4,365486
1,680833	0,1	4,382749
1,682500	0,1	4,416194
1,684167	0,1	4,407748
1,685833	0,1	4,350013
1,687500	0,1	4,398788
1,689167	0,1	4,419160
1,690833	0,1	4,436287
1,692500	0,1	4,433275
1,694167	0,1	4,390258
1,695833	0,1	4,446685
1,697500	0,1	4,466496
1,699167	0,1	4,486587
1,700833	0,1	4,487282
1,702500	0,1	4,524692
1,704167	0,1	4,546516
1,705833	0,1	4,546021
1,707500	0,1	4,547762
1,709167	0,1	4,565490
1,710833	0,1	4,594029
1,712500	0,1	4,629895
1,714167	0,1	4,632489
1,715833	0,1	4,641615
1,717500	0,1	4,651832
1,719167	0,1	4,656237
1,720833	0,1	4,639652
1,722500	0,1	4,673000
1,724167	0,1	4,628719
1,725833	0,1	4,680317
1,727500	0,1	4,680920
1,729167	0,1	4,710201
1,730833	0,1	4,691973
1,732500	0,1	4,659950
1,734167	0,1	4,626929
1,735833	0,1	4,672220
1,737500	0,1	4,641170
1,739167	0,1	4,643841
1,740833	0,1	4,635611
1,742500	0,1	4,624200
1,744167	0,1	4,604226
1,745833	0,1	4,534628
1,747500	0,1	4,556065
1,749167	0,1	4,576085
1,750833	0,1	4,514069
1,752500	0,1	4,518983
1,754167	0,1	4,472505
1,755833	0,1	4,456597
1,757500	0,1	4,384934
1,759167	0,1	4,389885
1,760833	0,1	4,357161
1,762500	0,1	4,311995
1,764167	0,1	4,280740
1,765833	0,1	4,236453
1,767500	0,1	4,209127
1,769167	0,1	4,187076
1,770833	0,1	4,144693
1,772500	0,1	4,112907
1,774167	0,1	4,085395
1,775833	0,1	3,997176
1,777500	0,1	3,986758
1,779167	0,1	3,929016
1,780833	0,1	3,903814
1,782500	0,1	3,849396
1,784167	0,1	3,834880
1,785833	0,1	3,744615
1,787500	0,1	3,700735
1,789167	0,1	3,659467
1,790833	0,1	3,613436
1,792500	0,1	3,573457
1,794167	0,1	3,539350
1,795833	0,1	3,515406
1,797500	0,1	3,481946
1,799167	0,1	3,442716
1,800833	0,1	3,368307
1,802500	0,1	3,359575
1,804167	0,1	3,300396
1,805833	0,1	3,268379
1,807500	0,1	3,236605
1,809167	0,1	3,176660
1,810833	0,1	3,134362
1,812500	0,1	3,103452
1,814167	0,1	3,091195
1,815833	0,1	3,020023
1,817500	0,1	3,011976
1,819167	0,1	2,947038
1,820833	0,1	2,875826
1,822500	0,1	2,902289
1,824167	0,1	2,846366
1,825833	0,1	2,845513
1,827500	0,1	2,817157
1,829167	0,1	2,828542
1,830833	0,1	2,786386
1,832500	0,1	2,736338
1,834167	0,1	2,716671
1,835833	0,1	2,754771
1,837500	0,1	2,723911
1,839167	0,1	2,732930
1,840833	0,1	2,739051
1,842500	0,1	2,740390
1,844167	0,1	2,781722
1,845833	0,1	2,778182
1,847500	0,1	2,825023
1,849167	0,1	2,879085
1,850833	0,1	2,895213
1,852500	0,1	2,967256
1,854167	0,1	2,976534
1,855833	0,1	3,006132
1,857500	0,1	3,075103
1,859167	0,1	3,097574
1,860833	0,1	3,190105
1,862500	0,1	3,215185
1,864167	0,1	3,291999
1,865833	0,1	3,322823
1,867500	0,1	3,382350
1,869167	0,1	3,433538
1,870833	0,1	3,471037
1,872500	0,1	3,525702
1,874167	0,1	3,619761
1,875833	0,1	3,638668
1,877500	0,1	3,686140
1,879167	0,1	3,721058
1,880833	0,1	3,767028
1,882500	0,1	3,786155
1,884167	0,1	3,822164
1,885833	0,1	3,891593
1,887500	0,1	3,954685
1,889167	0,1	3,977805
1,890833	0,1	4,004442
1,892500	0,1	4,076858
1,894167	0,1	4,095430
1,895833	0,1	4,072478
1,897500	0,1	4,141495
1,899167	0,1	4,171696
1,900833	0,1	4,241383
1,902500	0,1	4,247324
1,904167	0,1	4,263583
1,905833	0,1	4,308814
1,907500	0,1	4,326509
1,909167	0,1	4,353256
1,910833	0,1	4,369601
1,912500	0,1	4,395158
1,914167	0,1	4,415407
1,915833	0,1	4,459685
1,917500	0,1	4,405105
1,919167	0,1	4,453992
1,920833	0,1	4,463195
1,922500	0,1	4,467364
1,924167	0,1	4,449142
1,925833	0,1	4,438320
1,927500	0,1	4,483242
1,929167	0,1	4,409588
1,930833	0,1	4,459997
1,932500	0,1	4,470765
1,934167	0,1	4,428369
1,935833	0,1	4,433314
1,937500	0,1	4,462654
1,939167	0,1	4,412321
1,940833	0,1	4,410251
1,942500	0,1	4,419227
1,944167	0,1	4,404560
1,945833	0,1	4,368954
1,947500	0,1	4,318305
1,949167	0,1	4,366768
1,950833	0,1	4,351816
1,952500	0,1	4,304638
1,954167	0,1	4,305499
1,955833	0,1	4,333448
1,957500	0,1	4,313170
1,959167	0,1	4,284616
1,960833	0,1	4,274003
1,962500	0,1	4,282582
1,964167	0,1	4,220846
1,965833	0,1	4,189042
1,967500	0,1	4,197779
1,969167	0,1	4,195550
1,970833	0,1	4,183837
1,972500	0,1	4,155814
1,974167	0,1	4,167437
1,975833	0,1	4,123971
1,977500	0,1	4,140129
1,979167	0,1	4,119206
1,980833	0,1	4,071608
1,982500	0,1	4,121202
1,984167	0,1	4,135499
1,985833	0,1	4,079708
1,987500	0,1	4,077730
1,989167	0,1	4,051676
1,990833	0,1	4,087696
1,992500	0,1	4,088348
1,994167	0,1	4,053847
1,995833	0,1	4,097521
1,997500	0,1	4,059624
1,999167	0,1	4,091894
2,000833	0,1	4,035728
2,002500	0,1	4,076713
2,004167	0,1	4,046266
2,005833	0,1	4,062567
2,007500	0,1	4,042865
2,009167	0,1	4,074341
2,010833	0,1	4,075066
2,012500	0,1	4,115993
2,014167	0,1	4,077099
2,015833	0,1	4,053414
2,017500	0,1	4,090949
2,019167	0,1	4,097955
2,020833	0,1	4,088000
2,022500	0,1	4,121642
2,024167	0,1	4,136597
2,025833	0,1	4,134577
2,027500	0,1	4,185905
2,029167	0,1	4,195539
2,030833	0,1	4,217058
2,032500	0,1	4,189268
2,034167	0,1	4,254970
2,035833	0,1	4,233322
2,037500	0,1	4,268567
2,039167	0,1	4,260718
2,040833	0,1	4,329098
2,042500	0,1	4,315472
2,044167	0,1	4,374913
2,045833	0,1	4,357530
2,047500	0,1	4,417466
2,049167	0,1	4,423557
2,050833	0,1	4,446118
2,052500	0,1	4,454728
2,054167	0,1	4,495704
2,055833	0,1	4,505031
2,057500	0,1	4,535941
2,059167	0,1	4,606807
2,060833	0,1	4,568517
2,062500	0,1	4,630236
2,064167	0,1	4,650750
2,065833	0,1	4,632494
2,067500	0,1	4,666958
2,069167	0,1	4,676091
2,070833	0,1	4,731997
2,072500	0,1	4,732754
2,074167	0,1	4,774792
2,075833	0,1	4,787303
2,077500	0,1	4,808878
2,079167	0,1	4,840836
2,080833	0,1	4,870863
2,082500	0,1	4,912534
2,084167	0,1	4,877599
2,085833	0,1	4,954280
2,087500	0,1	4,943979
2,089167	0,1	4,941903
2,090833	0,1	4,988439
2,092500	0,1	5,010072
2,094167	0,1	4,993168
2,095833	0,1	5,042943
2,097500	0,1	5,065981
2,099167	0,1	5,073932
2,100833	0,1	5,058018
2,102500	0,1	5,091881
2,104167	0,1	5,098898
2,105833	0,1	5,113981
2,107500	0,1	5,166200
2,109167	0,1	5,160480
2,110833	0,1	5,145262
2,112500	0,1	5,171419
2,114167	0,1	5,180572
2,115833	0,1	5,191205
2,117500	0,1	5,158116
2,119167	0,1	5,195525
2,120833	0,1	5,209292
2,122500	0,1	5,205258
2,124167	0,1	5,236398
2,125833	0,1	5,229865
2,127500	0,1	5,211959
2,129167	0,1	5,255032
2,130833	0,1	5,255694
2,132500	0,1	5,221635
2,134167	0,1	5,222930
2,135833	0,1	5,208465
2,137500	0,1	5,209217
2,139167	0,1	5,208566
2,140833	0,1	5,229178
2,142500	0,1	5,243623
2,144167	0,1	5,227520
2,145833	0,1	5,177016
2,147500	0,1	5,241342
2,149167	0,1	5,171287
2,150833	0,1	5,189587
2,152500	0,1	5,165775
2,154167	0,1	5,202276
2,155833	0,1	5,195717
2,157500	0,1	5,195170
2,159167	0,1	5,116843
2,160833	0,1	5,141787
2,162500	0,1	5,151381
2,164167	0,1	5,138277
2,165833	0,1	5,160838
2,167500	0,1	5,133279
2,169167	0,1	5,163286
2,170833	0,1	5,095658
2,172500	0,1	5,102155
2,174167	0,1	5,096892
2,175833	0,1	5,060707
2,177500	0,1	5,055463
2,179167	0,1	5,055306
2,180833	0,1	5,060749
2,182500	0,1	5,068154
2,184167	0,1	5,015896
2,185833	0,1	5,024746
2,187500	0,1	5,003436
2,189167	0,1	4,998323
2,190833	0,1	5,034431
2,192500	0,1	4,949076
2,194167	0,1	4,989799
2,195833	0,1	5,001033
2,197500	0,1	5,013795
2,199167	0,1	4,997597
2,200833	0,1	4,948393
2,202500	0,1	4,935073
2,204167	0,1	4,970316
2,205833	0,1	4,969906
2,207500	0,1	4,944634
2,209167	0,1	4,939916
2,210833	0,1	4,953335
2,212500	0,1	4,926534
2,214167	0,1	4,934283
2,215833	0,1	4,993911
2,217500	0,1	4,975408
2,219167	0,1	4,983018
2,220833	0,1	4,969590
2,222500	0,1	4,971959
2,224167	0,1	5,033222
2,225833	0,1	5,061658
2,227500	0,1	5,106914
2,229167	0,1	5,042713
2,230833	0,1	5,054987
2,232500	0,1	5,097716
2,234167	0,1	5,098326
2,235833	0,1	5,116980
2,237500	0,1	5,164741
2,239167	0,1	5,192557
2,240833	0,1	5,186986
2,242500	0,1	5,203506
2,244167	0,1	5,182613
2,245833	0,1	5,210984
2,247500	0,1	5,229963
2,249167	0,1	5,254205
2,250833	0,1	5,326422
2,252500	0,1	5,291862
2,254167	0,1	5,291431
2,255833	0,1	5,331860
2,257500	0,1	5,334347
2,259167	0,1	5,368700
2,260833	0,1	5,397491
2,262500	0,1	5,373258
2,264167	0,1	5,406124
2,265833	0,1	5,408216
2,267500	0,1	5,387567
2,269167	0,1	5,421277
2,270833	0,1	5,385931
2,272500	0,1	5,413534
2,274167	0,1	5,393879
2,275833	0,1	5,421486
2,277500	0,1	5,394277
2,279167	0,1	5,362592
2,280833	0,1	5,388653
2,282500	0,1	5,400578
2,284167	0,1	5,387644
2,285833	0,1	5,409148
2,287500	0,1	5,342284
2,289167	0,1	5,352596
2,290833	0,1	5,252902
2,292500	0,1	5,317515
2,294167	0,1	5,315940
2,295833	0,1	5,285029
2,297500	0,1	5,235794
2,299167	0,1	5,234867
2,300833	0,1	5,270466
2,302500	0,1	5,167670
2,304167	0,1	5,203632
2,305833	0,1	5,208486
2,307500	0,1	5,141290
2,309167	0,1	5,138614
2,310833	0,1	5,108808
2,312500	0,1	5,127666
2,314167	0,1	5,067752
2,315833	0,1	5,071227
2,317500	0,1	5,022774
2,319167	0,1	5,031203
2,320833	0,1	4,967393
2,322500	0,1	4,979309
2,324167	0,1	4,952043
2,325833	0,1	4,924327
2,327500	0,1	4,904061
2,329167	0,1	4,858510
2,330833	0,1	4,847489
2,332500	0,1	4,751715
2,334167	0,1	4,745148
2,335833	0,1	4,797939
2,337500	0,1	4,749257
2,339167	0,1	4,711960
2,340833	0,1	4,675436
2,342500	0,1	4,661612
2,344167	0,1	4,630455
2,345833	0,1	4,582805
2,347500	0,1	4,557588
2,349167	0,1	4,541395
2,350833	0,1	4,514485
2,352500	0,1	4,503222
2,354167	0,1	4,482318
2,355833	0,1	4,486791
2,357500	0,1	4,429361
2,359167	0,1	4,422994
2,360833	0,1	4,368222
2,362500	0,1	4,366324
2,364167	0,1	4,339729
2,365833	0,1	4,328979
2,367500	0,1	4,321825
2,369167	0,1	4,285713
2,370833	0,1	4,324823
2,372500	0,1	4,278677
2,374167	0,1	4,254045
2,375833	0,1	4,240315
2,377500	0,1	4,261483
2,379167	0,1	4,237726
2,380833	0,1	4,244501
2,382500	0,1	4,245159
2,384167	0,1	4,208975
2,385833	0,1	4,169681
2,387500	0,1	4,227822
2,389167	0,1	4,232657
2,390833	0,1	4,212523
2,392500	0,1	4,234899
2,394167	0,1	4,244581
2,395833	0,1	4,244155
2,397500	0,1	4,290637
2,399167	0,1	4,292197
2,400833	0,1	4,329747
2,402500	0,1	4,376569
2,404167	0,1	4,371879
2,405833	0,1	4,387418
2,407500	0,1	4,465981
2,409167	0,1	4,469391
2,410833	0,1	4,527064
2,412500	0,1	4,620664
2,414167	0,1	4,635891
2,415833	0,1	4,677537
2,417500	0,1	4,787011
2,419167	0,1	4,812324
2,420833	0,1	4,894404
2,422500	0,1	4,964447
2,424167	0,1	5,030538
2,425833	0,1	5,066867
2,427500	0,1	5,166110
2,429167	0,1	5,210329
2,430833	0,1	5,365155
2,432500	0,1	5,417519
2,434167	0,1	5,520288
2,435833	0,1	5,596196
2,437500	0,1	5,688242
2,439167	0,1	5,789165
2,440833	0,1	5,871834
2,442500	0,1	5,983237
2,444167	0,1	6,061747
2,445833	0,1	6,127615
2,447500	0,1	6,237522
2,449167	0,1	6,326261
2,450833	0,1	6,413145
2,452500	0,1	6,550340
2,454167	0,1	6,631473
2,455833	0,1	6,725960
2,457500	0,1	6,862491
2,459167	0,1	6,863243
2,460833	0,1	7,039577
2,462500	0,1	7,148839
2,464167	0,1	7,193148
2,465833	0,1	7,308077
2,467500	0,1	7,469581
2,469167	0,1	7,530882
2,470833	0,1	7,687893
2,472500	0,1	7,801841
2,474167	0,1	7,915429
2,475833	0,1	8,084898
2,477500	0,1	8,165327
2,479167	0,1	8,348378
2,480833	0,1	8,504535
2,482500	0,1	8,662424
2,484167	0,1	8,871706
2,485833	0,1	9,073032
2,487500	0,1	9,274549
2,489167	0,1	9,515811
2,490833	0,1	9,833784
2,492500	0,1	10,107874
2,494167	0,1	10,402992
2,495833	0,1	10,731744
2,497500	0,1	11,060070
2,499167	0,1	11,431197
2,500833	0,1	11,881902
2,502500	0,1	12,289840
2,504167	0,1	12,806505
2,505833	0,1	13,301494
2,507500	0,1	13,882990
2,509167	0,1	14,415866
2,510833	0,1	15,058972
2,512500	0,1	15,688240
2,514167	0,1	16,432551
2,515833	0,1	17,136020
2,517500	0,1	17,929060
2,519167	0,1	18,759944
2,520833	0,1	19,645426
2,522500	0,1	20,476224
2,524167	0,1	21,379066
2,525833	0,1	22,365456
2,527500	0,1	23,401540
2,529167	0,1	24,418837
2,530833	0,1	25,493296
2,532500	0,1	26,625430
2,534167	0,1	27,712075
2,535833	0,1	28,892859
2,537500	0,1	30,093339
2,539167	0,1	31,299052
2,540833	0,1	32,540384
2,542500	0,1	33,735930
2,544167	0,1	35,046576
2,545833	0,1	36,308831
2,547500	0,1	37,573751
2,549167	0,1	38,768125
2,550833	0,1	40,097353
2,552500	0,1	41,360038
2,554167	0,1	42,630550
2,555833	0,1	43,885906
2,557500	0,1	45,101959
2,559167	0,1	46,332093
2,560833	0,1	47,510931
2,562500	0,1	48,709515
2,564167	0,1	49,875002
2,565833	0,1	50,950686
2,567500	0,1	52,072601
2,569167	0,1	53,059483
2,570833	0,1	54,099302
2,572500	0,1	55,099747
2,574167	0,1	56,056430
2,575833	0,1	56,908041
2,577500	0,1	57,772526
2,579167	0,1	58,619075
2,580833	0,1	59,388221
2,582500	0,1	60,136159
2,584167	0,1	60,747797
2,585833	0,1	61,400186
2,587500	0,1	62,009284
2,589167	0,1	62,565199
2,590833	0,1	63,007610
2,592500	0,1	63,540510
2,594167	0,1	63,922212
2,595833	0,1	64,249750
2,597500	0,1	64,570775
2,599167	0,1	64,837116
2,600833	0,1	65,086292
2,602500	0,1	65,280654
2,604167	0,1	65,434838
2,605833	0,1	65,501283
2,607500	0,1	65,571504
2,609167	0,1	65,630501
2,610833	0,1	65,620773
2,612500	0,1	65,551869
2,614167	0,1	65,479069
2,615833	0,1	65,318012
2,617500	0,1	65,216225
2,619167	0,1	65,090384
2,620833	0,1	64,829640
2,622500	0,1	64,548260
2,624167	0,1	64,315434
2,625833	0,1	64,017628
2,627500	0,1	63,710506
2,629167	0,1	63,336068
2,630833	0,1	62,989935
2,632500	0,1	62,599087
2,634167	0,1	62,137847
2,635833	0,1	61,738360
2,637500	0,1	61,308830
2,639167	0,1	60,759881
2,640833	0,1	60,246830
2,642500	0,1	59,718156
2,644167	0,1	59,176179
2,645833	0,1	58,619884
2,647500	0,1	58,026227
2,649167	0,1	57,403431
2,650833	0,1	56,844371
2,652500	0,1	56,223423
2,654167	0,1	55,584605
2,655833	0,1	54,942711
2,657500	0,1	54,258514
2,659167	0,1	53,599417
2,660833	0,1	52,933708
2,662500	0,1	52,234938
2,664167	0,1	51,524503
2,665833	0,1	50,859035
2,667500	0,1	50,122952
2,669167	0,1	49,420847
2,670833	0,1	48,712831
2,672500	0,1	47,981664
2,674167	0,1	47,246361
2,675833	0,1	46,512695
2,677500	0,1	45,817497
2,679167	0,1	45,088279
2,680833	0,1	44,351323
2,682500	0,1	43,706573
2,684167	0,1	42,881537
2,685833	0,1	42,191983
2,687500	0,1	41,528121
2,689167	0,1	40,761162
2,690833	0,1	40,077749
2,692500	0,1	39,365928
2,694167	0,1	38,644469
2,695833	0,1	37,939589
2,697500	0,1	37,260691
2,699167	0,1	36,641327
2,700833	0,1	35,937064
2,702500	0,1	35,265303
2,704167	0,1	34,630811
2,705833	0,1	33,977416
2,707500	0,1	33,340958
2,709167	0,1	32,666992
2,710833	0,1	32,044985
2,712500	0,1	31,448050
2,714167	0,1	30,836229
2,715833	0,1	30,250821
2,717500	0,1	29,663732
2,719167	0,1	29,075991
2,720833	0,1	28,530023
2,722500	0,1	27,943492
2,724167	0,1	27,446879
2,725833	0,1	26,922643
2,727500	0,1	26,395603
2,729167	0,1	25,842802
2,730833	0,1	25,391506
2,732500	0,1	24,869153
2,734167	0,1	24,430765
2,735833	0,1	23,925225
2,737500	0,1	23,466227
2,739167	0,1	23,011723
2,740833	0,1	22,595024
2,742500	0,1	22,136277
2,744167	0,1	21,714231
2,745833	0,1	21,324078
2,747500	0,1	20,940113
2,749167	0,1	20,528726
2,750833	0,1	20,130352
2,752500	0,1	19,747055
2,754167	0,1	19,344989
2,755833	0,1	19,050868
2,757500	0,1	18,662572
2,759167	0,1	18,355443
2,760833	0,1	17,973346
2,762500	0,1	17,668641
2,764167	0,1	17,373416
2,765833	0,1	17,050269
2,767500	0,1	16,727387
2,769167	0,1	16,437859
2,770833	0,1	16,164719
2,772500	0,1	15,872811
2,774167	0,1	15,586851
2,775833	0,1	15,300676
2,777500	0,1	15,077183
2,779167	0,1	14,771395
2,780833	0,1	14,513278
2,782500	0,1	14,232975
2,784167	0,1	14,061595
2,785833	0,1	13,820314
2,787500	0,1	13,580007
2,789167	0,1	13,328160
2,790833	0,1	13,125817
2,792500	0,1	12,910024
2,794167	0,1	12,680927
2,795833	0,1	12,506338
2,797500	0,1	12,280609
2,799167	0,1	12,059180
2,800833	0,1	11,859701
2,802500	0,1	11,655392
2,804167	0,1	11,479032
2,805833	0,1	11,266268
2,807500	0,1	11,111044
2,809167	0,1	10,933124
2,810833	0,1	10,737243
2,812500	0,1	10,546771
2,814167	0,1	10,391284
2,815833	0,1	10,257258
2,817500	0,1	10,094465
2,819167	0,1	9,914144
2,820833	0,1	9,777043
2,822500	0,1	9,621160
2,824167	0,1	9,484190
2,825833	0,1	9,319726
2,827500	0,1	9,153427
2,829167	0,1	9,027732
2,830833	0,1	8,908951
2,832500	0,1	8,753045
2,834167	0,1	8,594195
2,835833	0,1	8,491466
2,837500	0,1	8,373956
2,839167	0,1	8,257157
2,840833	0,1	8,108315
2,842500	0,1	7,979375
2,844167	0,1	7,869213
2,845833	0,1	7,740259
2,847500	0,1	7,677848
2,849167	0,1	7,567676
2,850833	0,1	7,473715
2,852500	0,1	7,324550
2,854167	0,1	7,252879
2,855833	0,1	7,135500
2,857500	0,1	7,062059
2,859167	0,1	6,979270
2,860833	0,1	6,876146
2,862500	0,1	6,766098
2,864167	0,1	6,669720
2,865833	0,1	6,552362
2,867500	0,1	6,439548
2,869167	0,1	6,414360
2,870833	0,1	6,308286
2,872500	0,1	6,257238
2,874167	0,1	6,127181
2,875833	0,1	6,102784
2,877500	0,1	5,991939
2,879167	0,1	5,966090
2,880833	0,1	5,876118
2,882500	0,1	5,798951
2,884167	0,1	5,752583
2,885833	0,1	5,717593
2,887500	0,1	5,626125
2,889167	0,1	5,559424
2,890833	0,1	5,467170
2,892500	0,1	5,435573
2,894167	0,1	5,309037
2,895833	0,1	5,317441
2,897500	0,1	5,231446
2,899167	0,1	5,212793
2,900833	0,1	5,187589
2,902500	0,1	5,113719
2,904167	0,1	5,037272
2,905833	0,1	5,020478
2,907500	0,1	4,931462
2,909167	0,1	4,924664
2,910833	0,1	4,884148
2,912500	0,1	4,795331
2,914167	0,1	4,751073
2,915833	0,1	4,704902
2,917500	0,1	4,655746
2,919167	0,1	4,613735
2,920833	0,1	4,595358
2,922500	0,1	4,552237
2,924167	0,1	4,551412
2,925833	0,1	4,458192
2,927500	0,1	4,436222
2,929167	0,1	4,391923
2,930833	0,1	4,394725
2,932500	0,1	4,309395
2,934167	0,1	4,280121
2,935833	0,1	4,230867
2,937500	0,1	4,226438
2,939167	0,1	4,143837
2,940833	0,1	4,178966
2,942500	0,1	4,171397
2,944167	0,1	4,094925
2,945833	0,1	4,020783
2,947500	0,1	4,028841
2,949167	0,1	4,003577
2,950833	0,1	3,944460
2,952500	0,1	3,903528
2,954167	0,1	3,918817
2,955833	0,1	3,880790
2,957500	0,1	3,844989
2,959167	0,1	3,794040
2,960833	0,1	3,796552
2,962500	0,1	3,758028
2,964167	0,1	3,771870
2,965833	0,1	3,703195
2,967500	0,1	3,713137
2,969167	0,1	3,703979
2,970833	0,1	3,643392
2,972500	0,1	3,628090
2,974167	0,1	3,602124
2,975833	0,1	3,613579
2,977500	0,1	3,554663
2,979167	0,1	3,560057
2,980833	0,1	3,545068
2,982500	0,1	3,508867
2,984167	0,1	3,462070
2,985833	0,1	3,442445
2,987500	0,1	3,455128
2,989167	0,1	3,428742
2,990833	0,1	3,363353
2,992500	0,1	3,416189
2,994167	0,1	3,369546
2,995833	0,1	3,374952
2,997500	0,1	3,353838
2,999167	0,1	3,354481
3,000833	0,1	3,311660
3,002500	0,1	3,303657
3,004167	0,1	3,255374
3,005833	0,1	3,270857
3,007500	0,1	3,244133
3,009167	0,1	3,237119
3,010833	0,1	3,221137
3,012500	0,1	3,230665
3,014167	0,1	3,198290
3,015833	0,1	3,178968
3,017500	0,1	3,190843
3,019167	0,1	3,186841
3,020833	0,1	3,125453
3,022500	0,1	3,128251
3,024167	0,1	3,095589
3,025833	0,1	3,100933
3,027500	0,1	3,087334
3,029167	0,1	3,037373
3,030833	0,1	3,061375
3,032500	0,1	3,005414
3,034167	0,1	3,049203
3,035833	0,1	2,989909
3,037500	0,1	2,978244
3,039167	0,1	3,002002
3,040833	0,1	2,968953
3,042500	0,1	2,926188
3,044167	0,1	2,960184
3,045833	0,1	2,924754
3,047500	0,1	2,942959
3,049167	0,1	2,931434
3,050833	0,1	2,903567
3,052500	0,1	2,882997
3,054167	0,1	2,870749
3,055833	0,1	2,865101
3,057500	0,1	2,826339
3,059167	0,1	2,815693
3,060833	0,1	2,816919
3,062500	0,1	2,847632
3,064167	0,1	2,786944
3,065833	0,1	2,812195
3,067500	0,1	2,775437
3,069167	0,1	2,755298
3,070833	0,1	2,737155
3,072500	0,1	2,785061
3,074167	0,1	2,768634
3,075833	0,1	2,731842
3,077500	0,1	2,709723
3,079167	0,1	2,752598
3,080833	0,1	2,688174
3,082500	0,1	2,698141
3,084167	0,1	2,726085
3,085833	0,1	2,681469
3,087500	0,1	2,663591
3,089167	0,1	2,712452
3,090833	0,1	2,667731
3,092500	0,1	2,672655
3,094167	0,1	2,669774
3,095833	0,1	2,686032
3,097500	0,1	2,626834
3,099167	0,1	2,669027
3,100833	0,1	2,664458
3,102500	0,1	2,661310
3,104167	0,1	2,649652
3,105833	0,1	2,623721
3,107500	0,1	2,632514
3,109167	0,1	2,651074
3,110833	0,1	2,631537
3,112500	0,1	2,635620
3,114167	0,1	2,659917
3,115833	0,1	2,649694
3,117500	0,1	2,594672
3,119167	0,1	2,569938
3,120833	0,1	2,634488
3,122500	0,1	2,641716
3,124167	0,1	2,630442
3,125833	0,1	2,650514
3,127500	0,1	2,645806
3,129167	0,1	2,670171
3,130833	0,1	2,667608
3,132500	0,1	2,683374
3,134167	0,1	2,682240
3,135833	0,1	2,664707
3,137500	0,1	2,711314
3,139167	0,1	2,665520
3,140833	0,1	2,673749
3,142500	0,1	2,690970
3,144167	0,1	2,709734
3,145833	0,1	2,675390
3,147500	0,1	2,735729
3,149167	0,1	2,731388
3,150833	0,1	2,742063
3,152500	0,1	2,741729
3,154167	0,1	2,712048
3,155833	0,1	2,758832
3,157500	0,1	2,780599
3,159167	0,1	2,721638
3,160833	0,1	2,793217
3,162500	0,1	2,798389
3,164167	0,1	2,763679
3,165833	0,1	2,772294
3,167500	0,1	2,800936
3,169167	0,1	2,782155
3,170833	0,1	2,782912
3,172500	0,1	2,778777
3,174167	0,1	2,813265
3,175833	0,1	2,797909
3,177500	0,1	2,793168
3,179167	0,1	2,793612
3,180833	0,1	2,763278
3,182500	0,1	2,833413
3,184167	0,1	2,806895
3,185833	0,1	2,810815
3,187500	0,1	2,758256
3,189167	0,1	2,790675
3,190833	0,1	2,784946
3,192500	0,1	2,783649
3,194167	0,1	2,780248
3,195833	0,1	2,784113
3,197500	0,1	2,765975
3,199167	0,1	2,763941
3,200833	0,1	2,759627
3,202500	0,1	2,744635
3,204167	0,1	2,755380
3,205833	0,1	2,711000
3,207500	0,1	2,733325
3,209167	0,1	2,701837
3,210833	0,1	2,689859
3,212500	0,1	2,692759
3,214167	0,1	2,704508
3,215833	0,1	2,671235
3,217500	0,1	2,626541
3,219167	0,1	2,603999
3,220833	0,1	2,654685
3,222500	0,1	2,625979
3,224167	0,1	2,605831
3,225833	0,1	2,552907
3,227500	0,1	2,582794
3,229167	0,1	2,593917
3,230833	0,1	2,546187
3,232500	0,1	2,550193
3,234167	0,1	2,499246
3,235833	0,1	2,529689
3,237500	0,1	2,512680
3,239167	0,1	2,487386
3,240833	0,1	2,519484
3,242500	0,1	2,451045
3,244167	0,1	2,460355
3,245833	0,1	2,411901
3,247500	0,1	2,404001
3,249167	0,1	2,402011
3,250833	0,1	2,374189
3,252500	0,1	2,348360
3,254167	0,1	2,368089
3,255833	0,1	2,323082
3,257500	0,1	2,318186
3,259167	0,1	2,283438
3,260833	0,1	2,293266
3,262500	0,1	2,272497
3,264167	0,1	2,273298
3,265833	0,1	2,256312
3,267500	0,1	2,215356
3,269167	0,1	2,196779
3,270833	0,1	2,206931
3,272500	0,1	2,155146
3,274167	0,1	2,169171
3,275833	0,1	2,158372
3,277500	0,1	2,123956
3,279167	0,1	2,104027
3,280833	0,1	2,107871
3,282500	0,1	2,089730
3,284167	0,1	2,056512
3,285833	0,1	2,044377
3,287500	0,1	2,063427
3,289167	0,1	1,997626
3,290833	0,1	2,007474
3,292500	0,1	1,998360
3,294167	0,1	1,986809
3,295833	0,1	1,983517
3,297500	0,1	1,919232
3,299167	0,1	1,922068
3,300833	0,1	1,896791
3,302500	0,1	1,865464
3,304167	0,1	1,891022
3,305833	0,1	1,877579
3,307500	0,1	1,871214
3,309167	0,1	1,846482
3,310833	0,1	1,838135
3,312500	0,1	1,801062
3,314167	0,1	1,804742
3,315833	0,1	1,784517
3,317500	0,1	1,783409
3,319167	0,1	1,743921
3,320833	0,1	1,799863
3,322500	0,1	1,775426
3,324167	0,1	1,742082
3,325833	0,1	1,747789
3,327500	0,1	1,752188
3,329167	0,1	1,676476
3,330833	0,1	1,732428
3,332500	0,1	1,696441
3,334167	0,1	1,689159
3,335833	0,1	1,689553
3,337500	0,1	1,667686
3,339167	0,1	1,686838
3,340833	0,1	1,650845
3,342500	0,1	1,649251
3,344167	0,1	1,660466
3,345833	0,1	1,653174
3,347500	0,1	1,616905
3,349167	0,1	1,644658
3,350833	0,1	1,599960
3,352500	0,1	1,612120
3,354167	0,1	1,592555
3,355833	0,1	1,620541
3,357500	0,1	1,589282
3,359167	0,1	1,568187
3,360833	0,1	1,608571
3,362500	0,1	1,595809
3,364167	0,1	1,552515
3,365833	0,1	1,565699
3,367500	0,1	1,570162
3,369167	0,1	1,598546
3,370833	0,1	1,570108
3,372500	0,1	1,553475
3,374167	0,1	1,558779
3,375833	0,1	1,559224
3,377500	0,1	1,528818
3,379167	0,1	1,526830
3,380833	0,1	1,516661
3,382500	0,1	1,548434
3,384167	0,1	1,508270
3,385833	0,1	1,542893
3,387500	0,1	1,474344
3,389167	0,1	1,512402
3,390833	0,1	1,509694
3,392500	0,1	1,499972
3,394167	0,1	1,511719
3,395833	0,1	1,494283
3,397500	0,1	1,504090
3,399167	0,1	1,520117
3,400833	0,1	1,527226
3,402500	0,1	1,512461
3,404167	0,1	1,522657
3,405833	0,1	1,542958
3,407500	0,1	1,505456
3,409167	0,1	1,461403
3,410833	0,1	1,498146
3,412500	0,1	1,488836
3,414167	0,1	1,484835
3,415833	0,1	1,487480
3,417500	0,1	1,494045
3,419167	0,1	1,481898
3,420833	0,1	1,530490
3,422500	0,1	1,526997
3,424167	0,1	1,476677
3,425833	0,1	1,503687
3,427500	0,1	1,497924
3,429167	0,1	1,513718
3,430833	0,1	1,532037
3,432500	0,1	1,541776
3,434167	0,1	1,511374
3,435833	0,1	1,532744
3,437500	0,1	1,548422
3,439167	0,1	1,532877
3,440833	0,1	1,534192
3,442500	0,1	1,592163
3,444167	0,1	1,528968
3,445833	0,1	1,546314
3,447500	0,1	1,582096
3,449167	0,1	1,609656
3,450833	0,1	1,593971
3,452500	0,1	1,605389
3,454167	0,1	1,630316
3,455833	0,1	1,604810
3,457500	0,1	1,659309
3,459167	0,1	1,677559
3,460833	0,1	1,672769
3,462500	0,1	1,702473
3,464167	0,1	1,741631
3,465833	0,1	1,720458
3,467500	0,1	1,752182
3,469167	0,1	1,778647
3,470833	0,1	1,760430
3,472500	0,1	1,810438
3,474167	0,1	1,829597
3,475833	0,1	1,819489
3,477500	0,1	1,866192
3,479167	0,1	1,915018
3,480833	0,1	1,911051
3,482500	0,1	1,883212
3,484167	0,1	1,935191
3,485833	0,1	1,957862
3,487500	0,1	2,023729
3,489167	0,1	2,004439
3,490833	0,1	2,053226
3,492500	0,1	2,081859
3,494167	0,1	2,100104
3,495833	0,1	2,172134
3,497500	0,1	2,161607
3,499167	0,1	2,152807
3,500833	0,1	2,191167
3,502500	0,1	2,218510
3,504167	0,1	2,237539
3,505833	0,1	2,268084
3,507500	0,1	2,276016
3,509167	0,1	2,308664
3,510833	0,1	2,358822
3,512500	0,1	2,328876
3,514167	0,1	2,356828
3,515833	0,1	2,386607
3,517500	0,1	2,421303
3,519167	0,1	2,432078
3,520833	0,1	2,479849
3,522500	0,1	2,484207
3,524167	0,1	2,476176
3,525833	0,1	2,497843
3,527500	0,1	2,529556
3,529167	0,1	2,540212
3,530833	0,1	2,519488
3,532500	0,1	2,578254
3,534167	0,1	2,586793
3,535833	0,1	2,607456
3,537500	0,1	2,649527
3,539167	0,1	2,611998
3,540833	0,1	2,619292
3,542500	0,1	2,652321
3,544167	0,1	2,656281
3,545833	0,1	2,637927
3,547500	0,1	2,636247
3,549167	0,1	2,638993
3,550833	0,1	2,660790
3,552500	0,1	2,710330
3,554167	0,1	2,667016
3,555833	0,1	2,654253
3,557500	0,1	2,704587
3,559167	0,1	2,650979
3,560833	0,1	2,677139
3,562500	0,1	2,650212
3,564167	0,1	2,710751
3,565833	0,1	2,654845
3,567500	0,1	2,663539
3,569167	0,1	2,681296
3,570833	0,1	2,682798
3,572500	0,1	2,672838
3,574167	0,1	2,626275
3,575833	0,1	2,647500
3,577500	0,1	2,628812
3,579167	0,1	2,615903
3,580833	0,1	2,608463
3,582500	0,1	2,617349
3,584167	0,1	2,608263
3,585833	0,1	2,583611
3,587500	0,1	2,588537
3,589167	0,1	2,541338
3,590833	0,1	2,547827
3,592500	0,1	2,542092
3,594167	0,1	2,530121
3,595833	0,1	2,516839
3,597500	0,1	2,475602
3,599167	0,1	2,497446
3,600833	0,1	2,467025
3,602500	0,1	2,476885
3,604167	0,1	2,438077
3,605833	0,1	2,401250
3,607500	0,1	2,424372
3,609167	0,1	2,414416
3,610833	0,1	2,437902
3,612500	0,1	2,402769
3,614167	0,1	2,387312
3,615833	0,1	2,339230
3,617500	0,1	2,306309
3,619167	0,1	2,339500
3,620833	0,1	2,282144
3,622500	0,1	2,300994
3,624167	0,1	2,267318
3,625833	0,1	2,240913
3,627500	0,1	2,230522
3,629167	0,1	2,220588
3,630833	0,1	2,205156
3,632500	0,1	2,213595
3,634167	0,1	2,194026
3,635833	0,1	2,195380
3,637500	0,1	2,114522
3,639167	0,1	2,120518
3,640833	0,1	2,118774
3,642500	0,1	2,084333
3,644167	0,1	2,071423
3,645833	0,1	2,110322
3,647500	0,1	2,040836
3,649167	0,1	2,021455
3,650833	0,1	2,038136
3,652500	0,1	2,011236
3,654167	0,1	2,003790
3,655833	0,1	1,976246
3,657500	0,1	1,940322
3,659167	0,1	1,969409
3,660833	0,1	1,939801
3,662500	0,1	1,951304
3,664167	0,1	1,920821
3,665833	0,1	1,890492
3,667500	0,1	1,861457
3,669167	0,1	1,868447
3,670833	0,1	1,810717
3,672500	0,1	1,809206
3,674167	0,1	1,802742
3,675833	0,1	1,780844
3,677500	0,1	1,774918
3,679167	0,1	1,780821
3,680833	0,1	1,777977
3,682500	0,1	1,783588
3,684167	0,1	1,684696
3,685833	0,1	1,731846
3,687500	0,1	1,725374
3,689167	0,1	1,684933
3,690833	0,1	1,702809
3,692500	0,1	1,688950
3,694167	0,1	1,666812
3,695833	0,1	1,681187
3,697500	0,1	1,655283
3,699167	0,1	1,634560
3,700833	0,1	1,627863
3,702500	0,1	1,637825
3,704167	0,1	1,633305
3,705833	0,1	1,608400
3,707500	0,1	1,606374
3,709167	0,1	1,576341
3,710833	0,1	1,568060
3,712500	0,1	1,585791
3,714167	0,1	1,531346
3,715833	0,1	1,562340
3,717500	0,1	1,548641
3,719167	0,1	1,551548
3,720833	0,1	1,515792
3,722500	0,1	1,573989
3,724167	0,1	1,502694
3,725833	0,1	1,489067
3,727500	0,1	1,541039
3,729167	0,1	1,539071
3,730833	0,1	1,501209
3,732500	0,1	1,543750
3,734167	0,1	1,500103
3,735833	0,1	1,489265
3,737500	0,1	1,474531
3,739167	0,1	1,462210
3,740833	0,1	1,482921
3,742500	0,1	1,453525
3,744167	0,1	1,494588
3,745833	0,1	1,439026
3,747500	0,1	1,458558
3,749167	0,1	1,450413
3,750833	0,1	1,450456
3,752500	0,1	1,435773
3,754167	0,1	1,451375
3,755833	0,1	1,416952
3,757500	0,1	1,419912
3,759167	0,1	1,439408
3,760833	0,1	1,421224
3,762500	0,1	1,427494
3,764167	0,1	1,448038
3,765833	0,1	1,429205
3,767500	0,1	1,429433
3,769167	0,1	1,409644
3,770833	0,1	1,416097
3,772500	0,1	1,428354
3,774167	0,1	1,423266
3,775833	0,1	1,397144
3,777500	0,1	1,413404
3,779167	0,1	1,378244
3,780833	0,1	1,378637
3,782500	0,1	1,403820
3,784167	0,1	1,383579
3,785833	0,1	1,390616
3,787500	0,1	1,408498
3,789167	0,1	1,403888
3,790833	0,1	1,347665
3,792500	0,1	1,338440
3,794167	0,1	1,370695
3,795833	0,1	1,368243
3,797500	0,1	1,367183
3,799167	0,1	1,325399
3,800833	0,1	1,343757
3,802500	0,1	1,339134
3,804167	0,1	1,328376
3,805833	0,1	1,296226
3,807500	0,1	1,357847
3,809167	0,1	1,327333
3,810833	0,1	1,322405
3,812500	0,1	1,354442
3,814167	0,1	1,297926
3,815833	0,1	1,334005
3,817500	0,1	1,315183
3,819167	0,1	1,303727
3,820833	0,1	1,322460
3,822500	0,1	1,303157
3,824167	0,1	1,309243
3,825833	0,1	1,339833
3,827500	0,1	1,262953
3,829167	0,1	1,296967
3,830833	0,1	1,250545
3,832500	0,1	1,280582
3,834167	0,1	1,310661
3,835833	0,1	1,232959
3,837500	0,1	1,257642
3,839167	0,1	1,279303
3,840833	0,1	1,238469
3,842500	0,1	1,261334
3,844167	0,1	1,283397
3,845833	0,1	1,269798
3,847500	0,1	1,245971
3,849167	0,1	1,226903
3,850833	0,1	1,256752
3,852500	0,1	1,193643
3,854167	0,1	1,228936
3,855833	0,1	1,244973
3,857500	0,1	1,205542
3,859167	0,1	1,213972
3,860833	0,1	1,181309
3,862500	0,1	1,172308
3,864167	0,1	1,200058
3,865833	0,1	1,157468
3,867500	0,1	1,129664
3,869167	0,1	1,120907
3,870833	0,1	1,133391
3,872500	0,1	1,159225
3,874167	0,1	1,112876
3,875833	0,1	1,148593
3,877500	0,1	1,149952
3,879167	0,1	1,155588
3,880833	0,1	1,134697
3,882500	0,1	1,103665
3,884167	0,1	1,122056
3,885833	0,1	1,128520
3,887500	0,1	1,095094
3,889167	0,1	1,061533
3,890833	0,1	1,101988
3,892500	0,1	1,091687
3,894167	0,1	1,088107
3,895833	0,1	1,083701
3,897500	0,1	1,064111
3,899167	0,1	1,058471
3,900833	0,1	1,155428
3,902500	0,1	1,044238
3,904167	0,1	1,062405
3,905833	0,1	1,063812
3,907500	0,1	1,045160
3,909167	0,1	1,072597
3,910833	0,1	1,042223
3,912500	0,1	1,035645
3,914167	0,1	1,073133
3,915833	0,1	1,044685
3,917500	0,1	1,005041
3,919167	0,1	1,015701
3,920833	0,1	1,012190
3,922500	0,1	1,013176
3,924167	0,1	1,007257
3,925833	0,1	1,041323
3,927500	0,1	0,998582
3,929167	0,1	1,005262
3,930833	0,1	0,991299
3,932500	0,1	0,963971
3,934167	0,1	0,969474
3,935833	0,1	0,952589
3,937500	0,1	0,948129
3,939167	0,1	0,982372
3,940833	0,1	0,975638
3,942500	0,1	0,957633
3,944167	0,1	0,997272
3,945833	0,1	0,969835
3,947500	0,1	0,966835
3,949167	0,1	0,972292
3,950833	0,1	0,923617
3,952500	0,1	0,938031
3,954167	0,1	0,954163
3,955833	0,1	0,929653
3,957500	0,1	0,936104
3,959167	0,1	0,913996
3,960833	0,1	0,942426
3,962500	0,1	0,941375
3,964167	0,1	0,947476
3,965833	0,1	0,932405
3,967500	0,1	0,910825
3,969167	0,1	0,903139
3,970833	0,1	0,943656
3,972500	0,1	0,903559
3,974167	0,1	0,883905
3,975833	0,1	0,928052
3,977500	0,1	0,899272
3,979167	0,1	0,944127
3,980833	0,1	0,913057
3,982500	0,1	0,922725
3,984167	0,1	0,885727
3,985833	0,1	0,879736
3,987500	0,1	0,896858
3,989167	0,1	0,896804
3,990833	0,1	0,937671
3,992500	0,1	0,885730
3,994167	0,1	0,904305
3,995833	0,1	0,894343
3,997500	0,1	0,893168
3,999167	0,1	0,885016
4,000833	0,1	0,900962
4,002500	0,1	0,879976
4,004167	0,1	0,901842
4,005833	0,1	0,881325
4,007500	0,1	0,923244
4,009167	0,1	0,960366
4,010833	0,1	0,915465
4,012500	0,1	0,920378
4,014167	0,1	0,893348
4,015833	0,1	0,918791
4,017500	0,1	0,922551
4,019167	0,1	0,925658
4,020833	0,1	0,897046
4,022500	0,1	0,917261
4,024167	0,1	0,887897
4,025833	0,1	0,945118
4,027500	0,1	0,910768
4,029167	0,1	0,883730
4,030833	0,1	0,909759
4,032500	0,1	0,950220
4,034167	0,1	0,882568
4,035833	0,1	0,912870
4,037500	0,1	0,937260
4,039167	0,1	0,947238
4,040833	0,1	0,935458
4,042500	0,1	0,923016
4,044167	0,1	0,911526
4,045833	0,1	0,921026
4,047500	0,1	0,918330
4,049167	0,1	0,934805
4,050833	0,1	0,936217
4,052500	0,1	0,922672
4,054167	0,1	0,959965
4,055833	0,1	0,988654
4,057500	0,1	0,962678
4,059167	0,1	0,954051
4,060833	0,1	0,969706
4,062500	0,1	0,959561
4,064167	0,1	1,001312
4,065833	0,1	0,963563
4,067500	0,1	1,007943
4,069167	0,1	0,964966
4,070833	0,1	1,041492
4,072500	0,1	1,026727
4,074167	0,1	0,992594
4,075833	0,1	1,013578
4,077500	0,1	1,029252
4,079167	0,1	1,018516
4,080833	0,1	1,044026
4,082500	0,1	1,005448
4,084167	0,1	1,061093
4,085833	0,1	1,043279
4,087500	0,1	1,053531
4,089167	0,1	1,042577
4,090833	0,1	1,022334
4,092500	0,1	1,104868
4,094167	0,1	1,079662
4,095833	0,1	1,104462
4,097500	0,1	1,081769
4,099167	0,1	1,087160
4,100833	0,1	1,124985
4,102500	0,1	1,132222
4,104167	0,1	1,110283
4,105833	0,1	1,147817
4,107500	0,1	1,130703
4,109167	0,1	1,139201
4,110833	0,1	1,169837
4,112500	0,1	1,149664
4,114167	0,1	1,142784
4,115833	0,1	1,182271
4,117500	0,1	1,179407
4,119167	0,1	1,173357
4,120833	0,1	1,192846
4,122500	0,1	1,183807
4,124167	0,1	1,195774
4,125833	0,1	1,228343
4,127500	0,1	1,224599
4,129167	0,1	1,241663
4,130833	0,1	1,285038
4,132500	0,1	1,252418
4,134167	0,1	1,263274
4,135833	0,1	1,263811
4,137500	0,1	1,285932
4,139167	0,1	1,273026
4,140833	0,1	1,311805
4,142500	0,1	1,294738
4,144167	0,1	1,269909
4,145833	0,1	1,312926
4,147500	0,1	1,337639
4,149167	0,1	1,316134
4,150833	0,1	1,312998
4,152500	0,1	1,341806
4,154167	0,1	1,354726
4,155833	0,1	1,290361
4,157500	0,1	1,349560
4,159167	0,1	1,347224
4,160833	0,1	1,357955
4,162500	0,1	1,380046
4,164167	0,1	1,366323
4,165833	0,1	1,390195
4,167500	0,1	1,383915
4,169167	0,1	1,369721
4,170833	0,1	1,394839
4,172500	0,1	1,435159
4,174167	0,1	1,405309
4,175833	0,1	1,378303
4,177500	0,1	1,390091
4,179167	0,1	1,401840
4,180833	0,1	1,399599
4,182500	0,1	1,407225
4,184167	0,1	1,388161
4,185833	0,1	1,410634
4,187500	0,1	1,427998
4,189167	0,1	1,437934
4,190833	0,1	1,459542
4,192500	0,1	1,406422
4,194167	0,1	1,490332
4,195833	0,1	1,452450
4,197500	0,1	1,441370
4,199167	0,1	1,457790
4,200833	0,1	1,444123
4,202500	0,1	1,468291
4,204167	0,1	1,450292
4,205833	0,1	1,467985
4,207500	0,1	1,452260
4,209167	0,1	1,468877
4,210833	0,1	1,491424
4,212500	0,1	1,470595
4,214167	0,1	1,465485
4,215833	0,1	1,450367
4,217500	0,1	1,473630
4,219167	0,1	1,454046
4,220833	0,1	1,434127
4,222500	0,1	1,454388
4,224167	0,1	1,451318
4,225833	0,1	1,479689
4,227500	0,1	1,428599
4,229167	0,1	1,499687
4,230833	0,1	1,408385
4,232500	0,1	1,500099
4,234167	0,1	1,469596
4,235833	0,1	1,433947
4,237500	0,1	1,451606
4,239167	0,1	1,472291
4,240833	0,1	1,460610
4,242500	0,1	1,479107
4,244167	0,1	1,419465
4,245833	0,1	1,499471
4,247500	0,1	1,456803
4,249167	0,1	1,457715
4,250833	0,1	1,480196
4,252500	0,1	1,498117
4,254167	0,1	1,472073
4,255833	0,1	1,470898
4,257500	0,1	1,437483
4,259167	0,1	1,436091
4,260833	0,1	1,460847
4,262500	0,1	1,476676
4,264167	0,1	1,445419
4,265833	0,1	1,454746
4,267500	0,1	1,468294
4,269167	0,1	1,473402
4,270833	0,1	1,468944
4,272500	0,1	1,418865
4,274167	0,1	1,449389
4,275833	0,1	1,449457
4,277500	0,1	1,448733
4,279167	0,1	1,449963
4,280833	0,1	1,471061
4,282500	0,1	1,461778
4,284167	0,1	1,480135
4,285833	0,1	1,432012
4,287500	0,1	1,449207
4,289167	0,1	1,398977
4,290833	0,1	1,436929
4,292500	0,1	1,460587
4,294167	0,1	1,405486
4,295833	0,1	1,436285
4,297500	0,1	1,409355
4,299167	0,1	1,413268
4,300833	0,1	1,403244
4,302500	0,1	1,403119
4,304167	0,1	1,412052
4,305833	0,1	1,421156
4,307500	0,1	1,389563
4,309167	0,1	1,407636
4,310833	0,1	1,360809
4,312500	0,1	1,408920
4,314167	0,1	1,361164
4,315833	0,1	1,381399
4,317500	0,1	1,325352
4,319167	0,1	1,386482
4,320833	0,1	1,393015
4,322500	0,1	1,368710
4,324167	0,1	1,376725
4,325833	0,1	1,366234
4,327500	0,1	1,354743
4,329167	0,1	1,364230
4,330833	0,1	1,319818
4,332500	0,1	1,356134
4,334167	0,1	1,326358
4,335833	0,1	1,344622
4,337500	0,1	1,337015
4,339167	0,1	1,338304
4,340833	0,1	1,315414
4,342500	0,1	1,322926
4,344167	0,1	1,359654
4,345833	0,1	1,342646
4,347500	0,1	1,294049
4,349167	0,1	1,353545
4,350833	0,1	1,292237
4,352500	0,1	1,299726
4,354167	0,1	1,250093
4,355833	0,1	1,276476
4,357500	0,1	1,265811
4,359167	0,1	1,262520
4,360833	0,1	1,266868
4,362500	0,1	1,231839
4,364167	0,1	1,233152
4,365833	0,1	1,239274
4,367500	0,1	1,234687
4,369167	0,1	1,240556
4,370833	0,1	1,259922
4,372500	0,1	1,212332
4,374167	0,1	1,258161
4,375833	0,1	1,222235
4,377500	0,1	1,205517
4,379167	0,1	1,210624
4,380833	0,1	1,206451
4,382500	0,1	1,223464
4,384167	0,1	1,214150
4,385833	0,1	1,190043
4,387500	0,1	1,193367
4,389167	0,1	1,188616
4,390833	0,1	1,201757
4,392500	0,1	1,186338
4,394167	0,1	1,155288
4,395833	0,1	1,197764
4,397500	0,1	1,178464
4,399167	0,1	1,130944
4,400833	0,1	1,144665
4,402500	0,1	1,151062
4,404167	0,1	1,104245
4,405833	0,1	1,124172
4,407500	0,1	1,144353
4,409167	0,1	1,137035
4,410833	0,1	1,127053
4,412500	0,1	1,119316
4,414167	0,1	1,142536
4,415833	0,1	1,105354
4,417500	0,1	1,081704
4,419167	0,1	1,070324
4,420833	0,1	1,105211
4,422500	0,1	1,080247
4,424167	0,1	1,049557
4,425833	0,1	1,057296
4,427500	0,1	1,062281
4,429167	0,1	1,088272
4,430833	0,1	1,043983
4,432500	0,1	1,083685
4,434167	0,1	1,038470
4,435833	0,1	1,010488
4,437500	0,1	1,032937
4,439167	0,1	1,026318
4,440833	0,1	1,021268
4,442500	0,1	1,055342
4,444167	0,1	1,037471
4,445833	0,1	0,988666
4,447500	0,1	0,994814
4,449167	0,1	0,985133
4,450833	0,1	1,018032
4,452500	0,1	0,995993
4,454167	0,1	0,968596
4,455833	0,1	1,012867
4,457500	0,1	0,986603
4,459167	0,1	0,950067
4,460833	0,1	0,969349
4,462500	0,1	0,978091
4,464167	0,1	0,974052
4,465833	0,1	0,946192
4,467500	0,1	0,888549
4,469167	0,1	0,956902
4,470833	0,1	0,928831
4,472500	0,1	0,914694
4,474167	0,1	0,950522
4,475833	0,1	0,953282
4,477500	0,1	0,868264
4,479167	0,1	0,905530
4,480833	0,1	0,906126
4,482500	0,1	0,931748
4,484167	0,1	0,884848
4,485833	0,1	0,854409
4,487500	0,1	0,914439
4,489167	0,1	0,887541
4,490833	0,1	0,884016
4,492500	0,1	0,937668
4,494167	0,1	0,870133
4,495833	0,1	0,891695
4,497500	0,1	0,842099
4,499167	0,1	0,870579
4,500833	0,1	0,871463
4,502500	0,1	0,878092
4,504167	0,1	0,842328
4,505833	0,1	0,873217
4,507500	0,1	0,845903
4,509167	0,1	0,821684
4,510833	0,1	0,863421
4,512500	0,1	0,838046
4,514167	0,1	0,847302
4,515833	0,1	0,815353
4,517500	0,1	0,812298
4,519167	0,1	0,818920
4,520833	0,1	0,818748
4,522500	0,1	0,797584
4,524167	0,1	0,831697
4,525833	0,1	0,818047
4,527500	0,1	0,802040
4,529167	0,1	0,812293
4,530833	0,1	0,834223
4,532500	0,1	0,780061
4,534167	0,1	0,822137
4,535833	0,1	0,787384
4,537500	0,1	0,783156
4,539167	0,1	0,797576
4,540833	0,1	0,748046
4,542500	0,1	0,732210
4,544167	0,1	0,761514
4,545833	0,1	0,816211
4,547500	0,1	0,795765
4,549167	0,1	0,740367
4,550833	0,1	0,768254
4,552500	0,1	0,722369
4,554167	0,1	0,794629
4,555833	0,1	0,763171
4,557500	0,1	0,735554
4,559167	0,1	0,751080
4,560833	0,1	0,723006
4,562500	0,1	0,744279
4,564167	0,1	0,768607
4,565833	0,1	0,760350
4,567500	0,1	0,750030
4,569167	0,1	0,726816
4,570833	0,1	0,766202
4,572500	0,1	0,746165
4,574167	0,1	0,702200
4,575833	0,1	0,698848
4,577500	0,1	0,709808
4,579167	0,1	0,688186
4,580833	0,1	0,674052
4,582500	0,1	0,696555
4,584167	0,1	0,667316
4,585833	0,1	0,706694
4,587500	0,1	0,694221
4,589167	0,1	0,679506
4,590833	0,1	0,740164
4,592500	0,1	0,664163
4,594167	0,1	0,686120
4,595833	0,1	0,710041
4,597500	0,1	0,711687
4,599167	0,1	0,678749
4,600833	0,1	0,721644
4,602500	0,1	0,678109
4,604167	0,1	0,659694
4,605833	0,1	0,655703
4,607500	0,1	0,639647
4,609167	0,1	0,704050
4,610833	0,1	0,698321
4,612500	0,1	0,665034
4,614167	0,1	0,696557
4,615833	0,1	0,656185
4,617500	0,1	0,667424
4,619167	0,1	0,671828
4,620833	0,1	0,611700
4,622500	0,1	0,679604
4,624167	0,1	0,660865
4,625833	0,1	0,634555
4,627500	0,1	0,644915
4,629167	0,1	0,643039
4,630833	0,1	0,660625
4,632500	0,1	0,640001
4,634167	0,1	0,638412
4,635833	0,1	0,671176
4,637500	0,1	0,645163
4,639167	0,1	0,645157
4,640833	0,1	0,630857
4,642500	0,1	0,626110
4,644167	0,1	0,642392
4,645833	0,1	0,635600
4,647500	0,1	0,630326
4,649167	0,1	0,674863
4,650833	0,1	0,638892
4,652500	0,1	0,615031
4,654167	0,1	0,635307
4,655833	0,1	0,626632
4,657500	0,1	0,613742
4,659167	0,1	0,605235
4,660833	0,1	0,627567
4,662500	0,1	0,622650
4,664167	0,1	0,604425
4,665833	0,1	0,611742
4,667500	0,1	0,623057
4,669167	0,1	0,602780
4,670833	0,1	0,642392
4,672500	0,1	0,580219
4,674167	0,1	0,589825
4,675833	0,1	0,638463
4,677500	0,1	0,578234
4,679167	0,1	0,607935
4,680833	0,1	0,603251
4,682500	0,1	0,592466
4,684167	0,1	0,609227
4,685833	0,1	0,620596
4,687500	0,1	0,587314
4,689167	0,1	0,610573
4,690833	0,1	0,607995
4,692500	0,1	0,622414
4,694167	0,1	0,592817
4,695833	0,1	0,606528
4,697500	0,1	0,602545
4,699167	0,1	0,604247
4,700833	0,1	0,592640
4,702500	0,1	0,619592
4,704167	0,1	0,572375
4,705833	0,1	0,581556
4,707500	0,1	0,604592
4,709167	0,1	0,597921
4,710833	0,1	0,613793
4,712500	0,1	0,602021
4,714167	0,1	0,582448
4,715833	0,1	0,551858
4,717500	0,1	0,621401
4,719167	0,1	0,614443
4,720833	0,1	0,598035
4,722500	0,1	0,600908
4,724167	0,1	0,576295
4,725833	0,1	0,572775
4,727500	0,1	0,595682
4,729167	0,1	0,591243
4,730833	0,1	0,584315
4,732500	0,1	0,577105
4,734167	0,1	0,570719
4,735833	0,1	0,588591
4,737500	0,1	0,565573
4,739167	0,1	0,539195
4,740833	0,1	0,600657
4,742500	0,1	0,559534
4,744167	0,1	0,584664
4,745833	0,1	0,556837
4,747500	0,1	0,544693
4,749167	0,1	0,553898
4,750833	0,1	0,553198
4,752500	0,1	0,545160
4,754167	0,1	0,588114
4,755833	0,1	0,563640
4,757500	0,1	0,572419
4,759167	0,1	0,569084
4,760833	0,1	0,540894
4,762500	0,1	0,554771
4,764167	0,1	0,573235
4,765833	0,1	0,566621
4,767500	0,1	0,546119
4,769167	0,1	0,585132
4,770833	0,1	0,550397
4,772500	0,1	0,574350
4,774167	0,1	0,551097
4,775833	0,1	0,572239
4,777500	0,1	0,599026
4,779167	0,1	0,540142
4,780833	0,1	0,556596
4,782500	0,1	0,581321
4,784167	0,1	0,592294
4,785833	0,1	0,589776
4,787500	0,1	0,526082
4,789167	0,1	0,574585
4,790833	0,1	0,566794
4,792500	0,1	0,546119
4,794167	0,1	0,554365
4,795833	0,1	0,566030
4,797500	0,1	0,597206
4,799167	0,1	0,563405
4,800833	0,1	0,546583
4,802500	0,1	0,573589
4,804167	0,1	0,546631
4,805833	0,1	0,580264
4,807500	0,1	0,549690
4,809167	0,1	0,534503
4,810833	0,1	0,563677
4,812500	0,1	0,571954
4,814167	0,1	0,548806
4,815833	0,1	0,565149
4,817500	0,1	0,595622
4,819167	0,1	0,580686
4,820833	0,1	0,570018
4,822500	0,1	0,554728
4,824167	0,1	0,551674
4,825833	0,1	0,574357
4,827500	0,1	0,591234
4,829167	0,1	0,554266
4,830833	0,1	0,568781
4,832500	0,1	0,545705
4,834167	0,1	0,538188
4,835833	0,1	0,614134
4,837500	0,1	0,595047
4,839167	0,1	0,583620
4,840833	0,1	0,579042
4,842500	0,1	0,527076
4,844167	0,1	0,554665
4,845833	0,1	0,568723
4,847500	0,1	0,538374
4,849167	0,1	0,603003
4,850833	0,1	0,585671
4,852500	0,1	0,582564
4,854167	0,1	0,563171
4,855833	0,1	0,588711
4,857500	0,1	0,560353
4,859167	0,1	0,604356
4,860833	0,1	0,584732
4,862500	0,1	0,555081
4,864167	0,1	0,571186
4,865833	0,1	0,603248
4,867500	0,1	0,581337
4,869167	0,1	0,595045
4,870833	0,1	0,578108
4,872500	0,1	0,610805
4,874167	0,1	0,574486
4,875833	0,1	0,581031
4,877500	0,1	0,600022
4,879167	0,1	0,618189
4,880833	0,1	0,621306
4,882500	0,1	0,587724
4,884167	0,1	0,554495
4,885833	0,1	0,599194
4,887500	0,1	0,595284
4,889167	0,1	0,608173
4,890833	0,1	0,594170
4,892500	0,1	0,599262
4,894167	0,1	0,607059
4,895833	0,1	0,592179
4,897500	0,1	0,645033
4,899167	0,1	0,609003
4,900833	0,1	0,607763
4,902500	0,1	0,597220
4,904167	0,1	0,571668
4,905833	0,1	0,624041
4,907500	0,1	0,586619
4,909167	0,1	0,584613
4,910833	0,1	0,586610
4,912500	0,1	0,575528
4,914167	0,1	0,619998
4,915833	0,1	0,565171
4,917500	0,1	0,628552
4,919167	0,1	0,596041
4,920833	0,1	0,576060
4,922500	0,1	0,639931
4,924167	0,1	0,604539
4,925833	0,1	0,605299
4,927500	0,1	0,604363
4,929167	0,1	0,610164
4,930833	0,1	0,623464
4,932500	0,1	0,605483
4,934167	0,1	0,613679
4,935833	0,1	0,627688
4,937500	0,1	0,606719
4,939167	0,1	0,573542
4,940833	0,1	0,606350
4,942500	0,1	0,608173
4,944167	0,1	0,600208
4,945833	0,1	0,625982
4,947500	0,1	0,632434
4,949167	0,1	0,641754
4,950833	0,1	0,619017
4,952500	0,1	0,651188
4,954167	0,1	0,594648
4,955833	0,1	0,637407
4,957500	0,1	0,610056
4,959167	0,1	0,616076
4,960833	0,1	0,646907
4,962500	0,1	0,631679
4,964167	0,1	0,632788
4,965833	0,1	0,618544
4,967500	0,1	0,623466
4,969167	0,1	0,629095
4,970833	0,1	0,643977
4,972500	0,1	0,639121
4,974167	0,1	0,647963
4,975833	0,1	0,655939
4,977500	0,1	0,677100
4,979167	0,1	0,630105
4,980833	0,1	0,627278
4,982500	0,1	0,671818
4,984167	0,1	0,684251
4,985833	0,1	0,673527
4,987500	0,1	0,664029
4,989167	0,1	0,652491
4,990833	0,1	0,663736
4,992500	0,1	0,672413
4,994167	0,1	0,639420
4,995833	0,1	0,670469
4,997500	0,1	0,661695
4,999167	0,1	0,702769
5,000833	0,1	0,654079
5,002500	0,1	0,699719
5,004167	0,1	0,686600
5,005833	0,1	0,730322
5,007500	0,1	0,671194
5,009167	0,1	0,734832
5,010833	0,1	0,761748
5,012500	0,1	0,705310
5,014167	0,1	0,741343
5,015833	0,1	0,731272
5,017500	0,1	0,712511
5,019167	0,1	0,711982
5,020833	0,1	0,696737
5,022500	0,1	0,716786
5,024167	0,1	0,729857
5,025833	0,1	0,710052
5,027500	0,1	0,765903
5,029167	0,1	0,759822
5,030833	0,1	0,756888
5,032500	0,1	0,779221
5,034167	0,1	0,740071
5,035833	0,1	0,735781
5,037500	0,1	0,771128
5,039167	0,1	0,750796
5,040833	0,1	0,770545
5,042500	0,1	0,801968
5,044167	0,1	0,810359
5,045833	0,1	0,822320
5,047500	0,1	0,836921
5,049167	0,1	0,789675
5,050833	0,1	0,816454
5,052500	0,1	0,813293
5,054167	0,1	0,817631
5,055833	0,1	0,820212
5,057500	0,1	0,821855
5,059167	0,1	0,821914
5,060833	0,1	0,824785
5,062500	0,1	0,874618
5,064167	0,1	0,848367
5,065833	0,1	0,829189
5,067500	0,1	0,864008
5,069167	0,1	0,857155
5,070833	0,1	0,868120
5,072500	0,1	0,840744
5,074167	0,1	0,851348
5,075833	0,1	0,845135
5,077500	0,1	0,899193
5,079167	0,1	0,902718
5,080833	0,1	0,880327
5,082500	0,1	0,867949
5,084167	0,1	0,920892
5,085833	0,1	0,912521
5,087500	0,1	0,881386
5,089167	0,1	0,902309
5,090833	0,1	0,935209
5,092500	0,1	0,880511
5,094167	0,1	0,904770
5,095833	0,1	0,882262
5,097500	0,1	0,945933
5,099167	0,1	0,932462
5,100833	0,1	0,908885
5,102500	0,1	0,913631
5,104167	0,1	0,969162
5,105833	0,1	0,920567
5,107500	0,1	0,940900
5,109167	0,1	0,946651
5,110833	0,1	0,908362
5,112500	0,1	0,933453
5,114167	0,1	0,945886
5,115833	0,1	0,923196
5,117500	0,1	0,910882
5,119167	0,1	0,962125
5,120833	0,1	0,982842
5,122500	0,1	0,927020
5,124167	0,1	0,927475
5,125833	0,1	0,974793
5,127500	0,1	0,973336
5,129167	0,1	0,945252
5,130833	0,1	0,970282
5,132500	0,1	0,968004
5,134167	0,1	0,989235
5,135833	0,1	0,963726
5,137500	0,1	0,932880
5,139167	0,1	0,909002
5,140833	0,1	0,959310
5,142500	0,1	0,963778
5,144167	0,1	0,984716
5,145833	0,1	0,966602
5,147500	0,1	0,947599
5,149167	0,1	0,952866
5,150833	0,1	0,944192
5,152500	0,1	0,910004
5,154167	0,1	0,932104
5,155833	0,1	0,918737
5,157500	0,1	0,920492
5,159167	0,1	0,933864
5,160833	0,1	0,892352
5,162500	0,1	0,926525
5,164167	0,1	0,922255
5,165833	0,1	0,929878
5,167500	0,1	0,940435
5,169167	0,1	0,909359
5,170833	0,1	0,927058
5,172500	0,1	0,911231
5,174167	0,1	0,949108
5,175833	0,1	0,930701
5,177500	0,1	0,922315
5,179167	0,1	0,911758
5,180833	0,1	0,905482
5,182500	0,1	0,911399
5,184167	0,1	0,908471
5,185833	0,1	0,906713
5,187500	0,1	0,895334
5,189167	0,1	0,906414
5,190833	0,1	0,888299
5,192500	0,1	0,891574
5,194167	0,1	0,873111
5,195833	0,1	0,892102
5,197500	0,1	0,862089
5,199167	0,1	0,828782
5,200833	0,1	0,880894
5,202500	0,1	0,820579
5,204167	0,1	0,855681
5,205833	0,1	0,818813
5,207500	0,1	0,847883
5,209167	0,1	0,858618
5,210833	0,1	0,838864
5,212500	0,1	0,855801
5,214167	0,1	0,826024
5,215833	0,1	0,824199
5,217500	0,1	0,808723
5,219167	0,1	0,856088
5,220833	0,1	0,835872
5,222500	0,1	0,805796
5,224167	0,1	0,814816
5,225833	0,1	0,806084
5,227500	0,1	0,828884
5,229167	0,1	0,801632
5,230833	0,1	0,811414
5,232500	0,1	0,778884
5,234167	0,1	0,776061
5,235833	0,1	0,764456
5,237500	0,1	0,806070
5,239167	0,1	0,767159
5,240833	0,1	0,740304
5,242500	0,1	0,740003
5,244167	0,1	0,745689
5,245833	0,1	0,752668
5,247500	0,1	0,763044
5,249167	0,1	0,748626
5,250833	0,1	0,729984
5,252500	0,1	0,740354
5,254167	0,1	0,737483
5,255833	0,1	0,763802
5,257500	0,1	0,666747
5,259167	0,1	0,740455
5,260833	0,1	0,710287
5,262500	0,1	0,715030
5,264167	0,1	0,728220
5,265833	0,1	0,704778
5,267500	0,1	0,714148
5,269167	0,1	0,705183
5,270833	0,1	0,680920
5,272500	0,1	0,733600
5,274167	0,1	0,660532
5,275833	0,1	0,675986
5,277500	0,1	0,707640
5,279167	0,1	0,692055
5,280833	0,1	0,667497
5,282500	0,1	0,674750
5,284167	0,1	0,637376
5,285833	0,1	0,650367
5,287500	0,1	0,661273
5,289167	0,1	0,660520
5,290833	0,1	0,653656
5,292500	0,1	0,639357
5,294167	0,1	0,652427
5,295833	0,1	0,631099
5,297500	0,1	0,615393
5,299167	0,1	0,614860
5,300833	0,1	0,614979
5,302500	0,1	0,585736
5,304167	0,1	0,649305
5,305833	0,1	0,602911
5,307500	0,1	0,600322
5,309167	0,1	0,619840
5,310833	0,1	0,587314
5,312500	0,1	0,605474
5,314167	0,1	0,619431
5,315833	0,1	0,585858
5,317500	0,1	0,609053
5,319167	0,1	0,578404
5,320833	0,1	0,585550
5,322500	0,1	0,583439
5,324167	0,1	0,560708
5,325833	0,1	0,589124
5,327500	0,1	0,597802
5,329167	0,1	0,558778
5,330833	0,1	0,584318
5,332500	0,1	0,582800
5,334167	0,1	0,574127
5,335833	0,1	0,546943
5,337500	0,1	0,540249
5,339167	0,1	0,580212
5,340833	0,1	0,554316
5,342500	0,1	0,606120
5,344167	0,1	0,567338
5,345833	0,1	0,565688
5,347500	0,1	0,555134
5,349167	0,1	0,536557
5,350833	0,1	0,553258
5,352500	0,1	0,567502
5,354167	0,1	0,554094
5,355833	0,1	0,543423
5,357500	0,1	0,482433
5,359167	0,1	0,532151
5,360833	0,1	0,512765
5,362500	0,1	0,488568
5,364167	0,1	0,474964
5,365833	0,1	0,538126
5,367500	0,1	0,485946
5,369167	0,1	0,508887
5,370833	0,1	0,546163
5,372500	0,1	0,485011
5,374167	0,1	0,530568
5,375833	0,1	0,478564
5,377500	0,1	0,501863
5,379167	0,1	0,495602
5,380833	0,1	0,525895
5,382500	0,1	0,514948
5,384167	0,1	0,493257
5,385833	0,1	0,461107
5,387500	0,1	0,463499
5,389167	0,1	0,453426
5,390833	0,1	0,485395
5,392500	0,1	0,486228
5,394167	0,1	0,483479
5,395833	0,1	0,452484
5,397500	0,1	0,500287
5,399167	0,1	0,503873
5,400833	0,1	0,489403
5,402500	0,1	0,476170
5,404167	0,1	0,469479
5,405833	0,1	0,506557
5,407500	0,1	0,491574
5,409167	0,1	0,476793
5,410833	0,1	0,485759
5,412500	0,1	0,478616
5,414167	0,1	0,448741
5,415833	0,1	0,452486
5,417500	0,1	0,416938
5,419167	0,1	0,478780
5,420833	0,1	0,438497
5,422500	0,1	0,474853
5,424167	0,1	0,470695
5,425833	0,1	0,489461
5,427500	0,1	0,431583
5,429167	0,1	0,433086
5,430833	0,1	0,421621
5,432500	0,1	0,486920
5,434167	0,1	0,443408
5,435833	0,1	0,474505
5,437500	0,1	0,434043
5,439167	0,1	0,401689
5,440833	0,1	0,473384
5,442500	0,1	0,468019
5,444167	0,1	0,413596
5,445833	0,1	0,433669
5,447500	0,1	0,440355
5,449167	0,1	0,417398
5,450833	0,1	0,436958
5,452500	0,1	0,391089
5,454167	0,1	0,443035
5,455833	0,1	0,419502
5,457500	0,1	0,403390
5,459167	0,1	0,383407
5,460833	0,1	0,441933
5,462500	0,1	0,372769
5,464167	0,1	0,391888
5,465833	0,1	0,407715
5,467500	0,1	0,421778
5,469167	0,1	0,426879
5,470833	0,1	0,387060
5,472500	0,1	0,404379
5,474167	0,1	0,431090
5,475833	0,1	0,382883
5,477500	0,1	0,436779
5,479167	0,1	0,426409
5,480833	0,1	0,445034
5,482500	0,1	0,397428
5,484167	0,1	0,384476
5,485833	0,1	0,396239
5,487500	0,1	0,408254
5,489167	0,1	0,434208
5,490833	0,1	0,354322
5,492500	0,1	0,419253
5,494167	0,1	0,349269
5,495833	0,1	0,416504
5,497500	0,1	0,384926
5,499167	0,1	0,384635
5,500833	0,1	0,392430
5,502500	0,1	0,354616
5,504167	0,1	0,416857
5,505833	0,1	0,417336
5,507500	0,1	0,367439
5,509167	0,1	0,398111
5,510833	0,1	0,388693
5,512500	0,1	0,404967
5,514167	0,1	0,397657
5,515833	0,1	0,353839
5,517500	0,1	0,429219
5,519167	0,1	0,362411
5,520833	0,1	0,368127
5,522500	0,1	0,332226
5,524167	0,1	0,393187
5,525833	0,1	0,340945
5,527500	0,1	0,368641
5,529167	0,1	0,346149
5,530833	0,1	0,384929
5,532500	0,1	0,373059
5,534167	0,1	0,404971
5,535833	0,1	0,369900
5,537500	0,1	0,347560
5,539167	0,1	0,406954
5,540833	0,1	0,351038
5,542500	0,1	0,354958
5,544167	0,1	0,387326
5,545833	0,1	0,398240
5,547500	0,1	0,396015
5,549167	0,1	0,403745
5,550833	0,1	0,327556
5,552500	0,1	0,365304
5,554167	0,1	0,417626
5,555833	0,1	0,324395
5,557500	0,1	0,381294
5,559167	0,1	0,357351
5,560833	0,1	0,399294
5,562500	0,1	0,375753
5,564167	0,1	0,388923
5,565833	0,1	0,364799
5,567500	0,1	0,338145
5,569167	0,1	0,369589
5,570833	0,1	0,366366
5,572500	0,1	0,334158
5,574167	0,1	0,334025
5,575833	0,1	0,391008
5,577500	0,1	0,322400
5,579167	0,1	0,389035
5,580833	0,1	0,387468
5,582500	0,1	0,385401
5,584167	0,1	0,369713
5,585833	0,1	0,386098
5,587500	0,1	0,366561
5,589167	0,1	0,385294
5,590833	0,1	0,363453
5,592500	0,1	0,362566
5,594167	0,1	0,367844
5,595833	0,1	0,385757
5,597500	0,1	0,361634
5,599167	0,1	0,373439
5,600833	0,1	0,386062
5,602500	0,1	0,340840
5,604167	0,1	0,377036
5,605833	0,1	0,378029
5,607500	0,1	0,377623
5,609167	0,1	0,380313
5,610833	0,1	0,327934
5,612500	0,1	0,370875
5,614167	0,1	0,326078
5,615833	0,1	0,385350
5,617500	0,1	0,403279
5,619167	0,1	0,344586
5,620833	0,1	0,361273
5,622500	0,1	0,343061
5,624167	0,1	0,324670
5,625833	0,1	0,325492
5,627500	0,1	0,342114
5,629167	0,1	0,382768
5,630833	0,1	0,379906
5,632500	0,1	0,358886
5,634167	0,1	0,356454
5,635833	0,1	0,362564
5,637500	0,1	0,392235
5,639167	0,1	0,335566
5,640833	0,1	0,394655
5,642500	0,1	0,337634
5,644167	0,1	0,352593
5,645833	0,1	0,380183
5,647500	0,1	0,386452
5,649167	0,1	0,360176
5,650833	0,1	0,367074
5,652500	0,1	0,370705
5,654167	0,1	0,350442
5,655833	0,1	0,394669
5,657500	0,1	0,372474
5,659167	0,1	0,348114
5,660833	0,1	0,391144
5,662500	0,1	0,378904
5,664167	0,1	0,354186
5,665833	0,1	0,397929
5,667500	0,1	0,372531
5,669167	0,1	0,380729
5,670833	0,1	0,370774
5,672500	0,1	0,348252
5,674167	0,1	0,350845
5,675833	0,1	0,399452
5,677500	0,1	0,383775
5,679167	0,1	0,372480
5,680833	0,1	0,403864
5,682500	0,1	0,397903
5,684167	0,1	0,366146
5,685833	0,1	0,390570
5,687500	0,1	0,358934
5,689167	0,1	0,352959
5,690833	0,1	0,398288
5,692500	0,1	0,353025
5,694167	0,1	0,384363
5,695833	0,1	0,394609
5,697500	0,1	0,387991
5,699167	0,1	0,396903
5,700833	0,1	0,397833
5,702500	0,1	0,340607
5,704167	0,1	0,368009
5,705833	0,1	0,366840
5,707500	0,1	0,397250
5,709167	0,1	0,390228
5,710833	0,1	0,409485
5,712500	0,1	0,392201
5,714167	0,1	0,407799
5,715833	0,1	0,405104
5,717500	0,1	0,395951
5,719167	0,1	0,375164
5,720833	0,1	0,383883
5,722500	0,1	0,370235
5,724167	0,1	0,374230
5,725833	0,1	0,384652
5,727500	0,1	0,378201
5,729167	0,1	0,372989
5,730833	0,1	0,383894
5,732500	0,1	0,396068
5,734167	0,1	0,408265
5,735833	0,1	0,404032
5,737500	0,1	0,397949
5,739167	0,1	0,350200
5,740833	0,1	0,387402
5,742500	0,1	0,357996
5,744167	0,1	0,381180
5,745833	0,1	0,423844
5,747500	0,1	0,401762
5,749167	0,1	0,404799
5,750833	0,1	0,408958
5,752500	0,1	0,401523
5,754167	0,1	0,404458
5,755833	0,1	0,406391
5,757500	0,1	0,436148
5,759167	0,1	0,387119
5,760833	0,1	0,404682
5,762500	0,1	0,406096
5,764167	0,1	0,412823
5,765833	0,1	0,384301
5,767500	0,1	0,404681
5,769167	0,1	0,431516
5,770833	0,1	0,416335
5,772500	0,1	0,406099
5,774167	0,1	0,389044
5,775833	0,1	0,411484
5,777500	0,1	0,413298
5,779167	0,1	0,434616
5,780833	0,1	0,400059
5,782500	0,1	0,393203
5,784167	0,1	0,401936
5,785833	0,1	0,380669
5,787500	0,1	0,366446
5,789167	0,1	0,392134
5,790833	0,1	0,440345
5,792500	0,1	0,400052
5,794167	0,1	0,437360
5,795833	0,1	0,411250
5,797500	0,1	0,415772
5,799167	0,1	0,422073
5,800833	0,1	0,367724
5,802500	0,1	0,404393
5,804167	0,1	0,445908
5,805833	0,1	0,447566
5,807500	0,1	0,397610
5,809167	0,1	0,420136
5,810833	0,1	0,440245
5,812500	0,1	0,436622
5,814167	0,1	0,454358
5,815833	0,1	0,451272
5,817500	0,1	0,423142
5,819167	0,1	0,413529
5,820833	0,1	0,413469
5,822500	0,1	0,418861
5,824167	0,1	0,453016
5,825833	0,1	0,443181
5,827500	0,1	0,410967
5,829167	0,1	0,411831
5,830833	0,1	0,431746
5,832500	0,1	0,403280
5,834167	0,1	0,418336
5,835833	0,1	0,383127
5,837500	0,1	0,381592
5,839167	0,1	0,388147
5,840833	0,1	0,397831
5,842500	0,1	0,453950
5,844167	0,1	0,431706
5,845833	0,1	0,410832
5,847500	0,1	0,434910
5,849167	0,1	0,402420
5,850833	0,1	0,407953
5,852500	0,1	0,409424
5,854167	0,1	0,367494
5,855833	0,1	0,421492
5,857500	0,1	0,419554
5,859167	0,1	0,404045
5,860833	0,1	0,388922
5,862500	0,1	0,412232
5,864167	0,1	0,410020
5,865833	0,1	0,383531
5,867500	0,1	0,400464
5,869167	0,1	0,385992
5,870833	0,1	0,380903
5,872500	0,1	0,418967
5,874167	0,1	0,416521
5,875833	0,1	0,380198
5,877500	0,1	0,405779
5,879167	0,1	0,389347
5,880833	0,1	0,374292
5,882500	0,1	0,378616
5,884167	0,1	0,381724
5,885833	0,1	0,356593
5,887500	0,1	0,417150
5,889167	0,1	0,434039
5,890833	0,1	0,363624
5,892500	0,1	0,422893
5,894167	0,1	0,402227
5,895833	0,1	0,388163
5,897500	0,1	0,382495
5,899167	0,1	0,376867
5,900833	0,1	0,392221
5,902500	0,1	0,413190
5,904167	0,1	0,409016
5,905833	0,1	0,365031
5,907500	0,1	0,398538
5,909167	0,1	0,402457
5,910833	0,1	0,377978
5,912500	0,1	0,392959
5,914167	0,1	0,354267
5,915833	0,1	0,383537
5,917500	0,1	0,322455
5,919167	0,1	0,405254
5,920833	0,1	0,363515
5,922500	0,1	0,406552
5,924167	0,1	0,371007
5,925833	0,1	0,405842
5,927500	0,1	0,355007
5,929167	0,1	0,389032
5,930833	0,1	0,382646
5,932500	0,1	0,391039
5,934167	0,1	0,364913
5,935833	0,1	0,366025
5,937500	0,1	0,388345
5,939167	0,1	0,374584
5,940833	0,1	0,364027
5,942500	0,1	0,395828
5,944167	0,1	0,357885
5,945833	0,1	0,402799
5,947500	0,1	0,381143
5,949167	0,1	0,401573
5,950833	0,1	0,395136
5,952500	0,1	0,353963
5,954167	0,1	0,358654
5,955833	0,1	0,367899
5,957500	0,1	0,373055
5,959167	0,1	0,380378
5,960833	0,1	0,348986
5,962500	0,1	0,325746
5,964167	0,1	0,374853
5,965833	0,1	0,351382
5,967500	0,1	0,393654
5,969167	0,1	0,365490
5,970833	0,1	0,344216
5,972500	0,1	0,353883
5,974167	0,1	0,398118
5,975833	0,1	0,400581
5,977500	0,1	0,371119
5,979167	0,1	0,327435
5,980833	0,1	0,382878
5,982500	0,1	0,384662
5,984167	0,1	0,377861
5,985833	0,1	0,376278
5,987500	0,1	0,363914
5,989167	0,1	0,328201
5,990833	0,1	0,346510
5,992500	0,1	0,361464
5,994167	0,1	0,349208
5,995833	0,1	0,315936
5,997500	0,1	0,344757
5,999167	0,1	0,353069
6,000833	0,1	0,329102
