File Path	chrom://chromeleon01/ikbm_chromeleon/2022/Rezex/Esteban/220612_chitin_4_7.seq/294.smp/UV_VIS_1.channel/UV_VIS_1.chm
Channel	UV_VIS_1

Injection Information:
Data Vault	ikbm_chromeleon
Injection	7_24h-NT_3
Injection Number	27
Position	RC7
Comment	
Processing Method	New ProcMethod
Instrument Method	Short_Rezex_6min_194nm
Type	Unknown
Status	Finished
Injection Date	12.06.2022
Injection Time	20:02:37
Injection Volume (µl)	8,000
Dilution Factor	1,0000
Weight	1,0000

Chromatogram Data Information:
Time Min. (min)	0,000833
Time Max. (min)	6,000833
Data Points	3601
Detector	UV
Generating Data System	Chromeleon 7.2.9.11323
Exporting Data System	Chromeleon 7.2.9.0
Operator	Instrument Controller
Signal Quantity	Absorbance
Signal Unit	mAU
Signal Min.	-0,198207
Signal Max.	114,324972
Channel	UV_VIS_1
Driver Name	VWD3000.dll
Channel Type	Evaluation
Min. Step (s)	0,1
Max. Step (s)	0,1
Average Step (s)	0,1

Signal Parameter Information:
Signal Info	WVL:194 nm

Chromatogram Data:
Time (min)	Step (s)	Value (mAU)
0,000833	n.a.	-0,129470
0,002500	0,1	-0,092281
0,004167	0,1	-0,138662
0,005833	0,1	-0,131669
0,007500	0,1	-0,138919
0,009167	0,1	-0,103729
0,010833	0,1	-0,076047
0,012500	0,1	-0,113646
0,014167	0,1	-0,094186
0,015833	0,1	-0,155133
0,017500	0,1	-0,106061
0,019167	0,1	-0,111803
0,020833	0,1	-0,096658
0,022500	0,1	-0,111009
0,024167	0,1	-0,084817
0,025833	0,1	-0,130933
0,027500	0,1	-0,102439
0,029167	0,1	-0,154702
0,030833	0,1	-0,134417
0,032500	0,1	-0,124084
0,034167	0,1	-0,113864
0,035833	0,1	-0,142548
0,037500	0,1	-0,198207
0,039167	0,1	-0,149388
0,040833	0,1	-0,155498
0,042500	0,1	-0,128683
0,044167	0,1	-0,138837
0,045833	0,1	-0,133955
0,047500	0,1	-0,110002
0,049167	0,1	-0,119512
0,050833	0,1	-0,148742
0,052500	0,1	-0,143845
0,054167	0,1	-0,067143
0,055833	0,1	-0,089667
0,057500	0,1	-0,097755
0,059167	0,1	-0,106649
0,060833	0,1	-0,110013
0,062500	0,1	-0,123810
0,064167	0,1	-0,081827
0,065833	0,1	-0,074110
0,067500	0,1	-0,102469
0,069167	0,1	-0,084980
0,070833	0,1	-0,120876
0,072500	0,1	-0,115337
0,074167	0,1	-0,101209
0,075833	0,1	-0,086103
0,077500	0,1	-0,087512
0,079167	0,1	-0,140635
0,080833	0,1	-0,081355
0,082500	0,1	-0,061561
0,084167	0,1	-0,096522
0,085833	0,1	-0,131914
0,087500	0,1	-0,094191
0,089167	0,1	-0,068960
0,090833	0,1	-0,052541
0,092500	0,1	-0,110978
0,094167	0,1	-0,082220
0,095833	0,1	-0,083771
0,097500	0,1	-0,096279
0,099167	0,1	-0,099210
0,100833	0,1	-0,077085
0,102500	0,1	-0,136207
0,104167	0,1	-0,082309
0,105833	0,1	-0,110696
0,107500	0,1	-0,089095
0,109167	0,1	-0,136103
0,110833	0,1	-0,085032
0,112500	0,1	-0,082879
0,114167	0,1	-0,124844
0,115833	0,1	-0,095081
0,117500	0,1	-0,141194
0,119167	0,1	-0,121118
0,120833	0,1	-0,156867
0,122500	0,1	-0,090291
0,124167	0,1	-0,068210
0,125833	0,1	-0,145968
0,127500	0,1	-0,106847
0,129167	0,1	-0,115730
0,130833	0,1	-0,126202
0,132500	0,1	-0,095770
0,134167	0,1	-0,109910
0,135833	0,1	-0,064518
0,137500	0,1	-0,123076
0,139167	0,1	-0,069652
0,140833	0,1	-0,066565
0,142500	0,1	-0,110734
0,144167	0,1	-0,112635
0,145833	0,1	-0,097450
0,147500	0,1	-0,099355
0,149167	0,1	-0,126569
0,150833	0,1	-0,094189
0,152500	0,1	-0,076024
0,154167	0,1	-0,092724
0,155833	0,1	-0,110512
0,157500	0,1	-0,124375
0,159167	0,1	-0,071585
0,160833	0,1	-0,093390
0,162500	0,1	-0,107750
0,164167	0,1	-0,083694
0,165833	0,1	-0,078722
0,167500	0,1	-0,058816
0,169167	0,1	-0,077365
0,170833	0,1	-0,116181
0,172500	0,1	-0,040106
0,174167	0,1	-0,087728
0,175833	0,1	-0,100620
0,177500	0,1	-0,077792
0,179167	0,1	-0,088278
0,180833	0,1	-0,093016
0,182500	0,1	-0,094367
0,184167	0,1	-0,120215
0,185833	0,1	-0,099112
0,187500	0,1	-0,081759
0,189167	0,1	-0,070974
0,190833	0,1	-0,053892
0,192500	0,1	-0,090370
0,194167	0,1	-0,064015
0,195833	0,1	-0,073981
0,197500	0,1	-0,111610
0,199167	0,1	-0,104700
0,200833	0,1	-0,059591
0,202500	0,1	-0,099139
0,204167	0,1	-0,098900
0,205833	0,1	-0,075153
0,207500	0,1	-0,079718
0,209167	0,1	-0,104630
0,210833	0,1	-0,092668
0,212500	0,1	-0,115892
0,214167	0,1	-0,092899
0,215833	0,1	-0,086101
0,217500	0,1	-0,066174
0,219167	0,1	-0,094175
0,220833	0,1	-0,094412
0,222500	0,1	-0,095865
0,224167	0,1	-0,062271
0,225833	0,1	-0,060247
0,227500	0,1	-0,124838
0,229167	0,1	-0,057956
0,230833	0,1	-0,034856
0,232500	0,1	-0,102043
0,234167	0,1	-0,082092
0,235833	0,1	-0,110217
0,237500	0,1	-0,070813
0,239167	0,1	-0,086261
0,240833	0,1	-0,091417
0,242500	0,1	-0,093017
0,244167	0,1	-0,078621
0,245833	0,1	-0,057715
0,247500	0,1	-0,082269
0,249167	0,1	-0,098731
0,250833	0,1	-0,071871
0,252500	0,1	-0,058005
0,254167	0,1	-0,064776
0,255833	0,1	-0,066209
0,257500	0,1	-0,133150
0,259167	0,1	-0,100217
0,260833	0,1	-0,069438
0,262500	0,1	-0,107434
0,264167	0,1	-0,098631
0,265833	0,1	-0,058550
0,267500	0,1	-0,058167
0,269167	0,1	-0,075620
0,270833	0,1	-0,090375
0,272500	0,1	-0,087264
0,274167	0,1	-0,073175
0,275833	0,1	-0,064279
0,277500	0,1	-0,091994
0,279167	0,1	-0,089673
0,280833	0,1	-0,072264
0,282500	0,1	-0,046100
0,284167	0,1	-0,068408
0,285833	0,1	-0,075022
0,287500	0,1	-0,050318
0,289167	0,1	-0,075556
0,290833	0,1	-0,096921
0,292500	0,1	-0,070395
0,294167	0,1	-0,082978
0,295833	0,1	-0,064657
0,297500	0,1	-0,077077
0,299167	0,1	-0,085161
0,300833	0,1	-0,036899
0,302500	0,1	-0,036368
0,304167	0,1	-0,048522
0,305833	0,1	-0,104499
0,307500	0,1	-0,057640
0,309167	0,1	-0,053120
0,310833	0,1	-0,085718
0,312500	0,1	-0,053459
0,314167	0,1	-0,072753
0,315833	0,1	-0,075604
0,317500	0,1	-0,081754
0,319167	0,1	-0,056013
0,320833	0,1	-0,062905
0,322500	0,1	-0,036456
0,324167	0,1	-0,090991
0,325833	0,1	-0,039394
0,327500	0,1	-0,073621
0,329167	0,1	-0,028772
0,330833	0,1	-0,030214
0,332500	0,1	-0,063397
0,334167	0,1	-0,035273
0,335833	0,1	-0,087646
0,337500	0,1	-0,042467
0,339167	0,1	-0,046258
0,340833	0,1	-0,065520
0,342500	0,1	-0,032883
0,344167	0,1	-0,051576
0,345833	0,1	-0,030864
0,347500	0,1	-0,062483
0,349167	0,1	-0,055635
0,350833	0,1	-0,076139
0,352500	0,1	-0,020918
0,354167	0,1	-0,066158
0,355833	0,1	-0,051063
0,357500	0,1	-0,060701
0,359167	0,1	-0,070676
0,360833	0,1	-0,039283
0,362500	0,1	-0,054444
0,364167	0,1	-0,056878
0,365833	0,1	-0,049482
0,367500	0,1	-0,058498
0,369167	0,1	-0,042814
0,370833	0,1	-0,071378
0,372500	0,1	-0,047575
0,374167	0,1	-0,093278
0,375833	0,1	-0,037564
0,377500	0,1	-0,078088
0,379167	0,1	-0,067170
0,380833	0,1	-0,088213
0,382500	0,1	-0,057387
0,384167	0,1	-0,041068
0,385833	0,1	-0,040358
0,387500	0,1	-0,038861
0,389167	0,1	-0,010103
0,390833	0,1	-0,055352
0,392500	0,1	-0,035623
0,394167	0,1	-0,066224
0,395833	0,1	-0,040529
0,397500	0,1	-0,022592
0,399167	0,1	-0,038878
0,400833	0,1	-0,041708
0,402500	0,1	-0,028659
0,404167	0,1	-0,026349
0,405833	0,1	-0,020469
0,407500	0,1	-0,051801
0,409167	0,1	0,007080
0,410833	0,1	-0,012254
0,412500	0,1	-0,061877
0,414167	0,1	-0,043147
0,415833	0,1	-0,053073
0,417500	0,1	-0,028559
0,419167	0,1	-0,073827
0,420833	0,1	-0,010900
0,422500	0,1	-0,053896
0,424167	0,1	-0,004164
0,425833	0,1	-0,053832
0,427500	0,1	0,003379
0,429167	0,1	-0,030975
0,430833	0,1	-0,027181
0,432500	0,1	-0,024875
0,434167	0,1	-0,006339
0,435833	0,1	0,001664
0,437500	0,1	-0,085475
0,439167	0,1	-0,019796
0,440833	0,1	-0,071354
0,442500	0,1	-0,001487
0,444167	0,1	-0,040181
0,445833	0,1	-0,034081
0,447500	0,1	-0,049477
0,449167	0,1	-0,074787
0,450833	0,1	-0,033383
0,452500	0,1	-0,039712
0,454167	0,1	-0,007362
0,455833	0,1	-0,024411
0,457500	0,1	-0,019617
0,459167	0,1	-0,060361
0,460833	0,1	-0,040820
0,462500	0,1	-0,013386
0,464167	0,1	-0,020383
0,465833	0,1	-0,034037
0,467500	0,1	-0,014529
0,469167	0,1	-0,027759
0,470833	0,1	-0,019867
0,472500	0,1	-0,005175
0,474167	0,1	-0,010552
0,475833	0,1	-0,021796
0,477500	0,1	-0,018308
0,479167	0,1	-0,037070
0,480833	0,1	-0,053591
0,482500	0,1	-0,003832
0,484167	0,1	-0,059007
0,485833	0,1	-0,035312
0,487500	0,1	-0,034705
0,489167	0,1	0,004589
0,490833	0,1	-0,038060
0,492500	0,1	-0,036138
0,494167	0,1	-0,002185
0,495833	0,1	-0,007705
0,497500	0,1	-0,012714
0,499167	0,1	-0,078851
0,500833	0,1	-0,017405
0,502500	0,1	-0,052279
0,504167	0,1	-0,080460
0,505833	0,1	-0,024784
0,507500	0,1	-0,038484
0,509167	0,1	-0,036533
0,510833	0,1	0,002118
0,512500	0,1	-0,029292
0,514167	0,1	-0,022879
0,515833	0,1	-0,021194
0,517500	0,1	-0,022774
0,519167	0,1	-0,015834
0,520833	0,1	-0,003179
0,522500	0,1	0,010021
0,524167	0,1	-0,014767
0,525833	0,1	-0,023312
0,527500	0,1	-0,020448
0,529167	0,1	0,025018
0,530833	0,1	-0,012332
0,532500	0,1	-0,013919
0,534167	0,1	-0,010846
0,535833	0,1	-0,034386
0,537500	0,1	0,003094
0,539167	0,1	-0,053354
0,540833	0,1	0,008451
0,542500	0,1	-0,004626
0,544167	0,1	0,006779
0,545833	0,1	0,017647
0,547500	0,1	0,023721
0,549167	0,1	0,022723
0,550833	0,1	-0,006785
0,552500	0,1	0,000836
0,554167	0,1	-0,000368
0,555833	0,1	-0,016555
0,557500	0,1	-0,013048
0,559167	0,1	-0,005505
0,560833	0,1	-0,014584
0,562500	0,1	0,005321
0,564167	0,1	-0,026114
0,565833	0,1	0,006025
0,567500	0,1	-0,002467
0,569167	0,1	0,014760
0,570833	0,1	-0,033654
0,572500	0,1	-0,024418
0,574167	0,1	-0,016561
0,575833	0,1	-0,042969
0,577500	0,1	0,016078
0,579167	0,1	0,038618
0,580833	0,1	0,051821
0,582500	0,1	0,025331
0,584167	0,1	-0,025589
0,585833	0,1	0,012736
0,587500	0,1	0,016010
0,589167	0,1	0,029125
0,590833	0,1	0,018153
0,592500	0,1	0,027193
0,594167	0,1	-0,016486
0,595833	0,1	0,000936
0,597500	0,1	0,040049
0,599167	0,1	-0,002830
0,600833	0,1	-0,002446
0,602500	0,1	-0,021127
0,604167	0,1	-0,003430
0,605833	0,1	0,014217
0,607500	0,1	-0,013455
0,609167	0,1	-0,008788
0,610833	0,1	-0,000058
0,612500	0,1	0,019040
0,614167	0,1	-0,008261
0,615833	0,1	0,015817
0,617500	0,1	-0,004272
0,619167	0,1	-0,020358
0,620833	0,1	0,048130
0,622500	0,1	0,011488
0,624167	0,1	0,045184
0,625833	0,1	0,018968
0,627500	0,1	0,040179
0,629167	0,1	0,022334
0,630833	0,1	0,024366
0,632500	0,1	0,009008
0,634167	0,1	0,054037
0,635833	0,1	0,009077
0,637500	0,1	0,052167
0,639167	0,1	0,013255
0,640833	0,1	0,038969
0,642500	0,1	0,015476
0,644167	0,1	0,038081
0,645833	0,1	0,016929
0,647500	0,1	0,031389
0,649167	0,1	0,063957
0,650833	0,1	0,074666
0,652500	0,1	0,016523
0,654167	0,1	0,027294
0,655833	0,1	0,007887
0,657500	0,1	0,038724
0,659167	0,1	0,024764
0,660833	0,1	0,048078
0,662500	0,1	0,040123
0,664167	0,1	0,070050
0,665833	0,1	0,013802
0,667500	0,1	0,080682
0,669167	0,1	0,032651
0,670833	0,1	0,038998
0,672500	0,1	0,069176
0,674167	0,1	0,051686
0,675833	0,1	0,037526
0,677500	0,1	0,071668
0,679167	0,1	0,077081
0,680833	0,1	0,096042
0,682500	0,1	0,060877
0,684167	0,1	0,097216
0,685833	0,1	0,089785
0,687500	0,1	0,069999
0,689167	0,1	0,059519
0,690833	0,1	0,104506
0,692500	0,1	0,109202
0,694167	0,1	0,079668
0,695833	0,1	0,069415
0,697500	0,1	0,027432
0,699167	0,1	0,072309
0,700833	0,1	0,062907
0,702500	0,1	0,096927
0,704167	0,1	0,094884
0,705833	0,1	0,095794
0,707500	0,1	0,076654
0,709167	0,1	0,063056
0,710833	0,1	0,075876
0,712500	0,1	0,084978
0,714167	0,1	0,067254
0,715833	0,1	0,098342
0,717500	0,1	0,119839
0,719167	0,1	0,124089
0,720833	0,1	0,092494
0,722500	0,1	0,096375
0,724167	0,1	0,126308
0,725833	0,1	0,108892
0,727500	0,1	0,106399
0,729167	0,1	0,151289
0,730833	0,1	0,119334
0,732500	0,1	0,107942
0,734167	0,1	0,127929
0,735833	0,1	0,146076
0,737500	0,1	0,138892
0,739167	0,1	0,173171
0,740833	0,1	0,160745
0,742500	0,1	0,119047
0,744167	0,1	0,157055
0,745833	0,1	0,133803
0,747500	0,1	0,184199
0,749167	0,1	0,178626
0,750833	0,1	0,178991
0,752500	0,1	0,140213
0,754167	0,1	0,159738
0,755833	0,1	0,158125
0,757500	0,1	0,140460
0,759167	0,1	0,202045
0,760833	0,1	0,157175
0,762500	0,1	0,176560
0,764167	0,1	0,173406
0,765833	0,1	0,166455
0,767500	0,1	0,175375
0,769167	0,1	0,170803
0,770833	0,1	0,183324
0,772500	0,1	0,209180
0,774167	0,1	0,185785
0,775833	0,1	0,173345
0,777500	0,1	0,168340
0,779167	0,1	0,133225
0,780833	0,1	0,164918
0,782500	0,1	0,175854
0,784167	0,1	0,172888
0,785833	0,1	0,155716
0,787500	0,1	0,176370
0,789167	0,1	0,130131
0,790833	0,1	0,178233
0,792500	0,1	0,165546
0,794167	0,1	0,165823
0,795833	0,1	0,147274
0,797500	0,1	0,169116
0,799167	0,1	0,140831
0,800833	0,1	0,159548
0,802500	0,1	0,204916
0,804167	0,1	0,160967
0,805833	0,1	0,129583
0,807500	0,1	0,159699
0,809167	0,1	0,142623
0,810833	0,1	0,165981
0,812500	0,1	0,145112
0,814167	0,1	0,148874
0,815833	0,1	0,204660
0,817500	0,1	0,125375
0,819167	0,1	0,204365
0,820833	0,1	0,180956
0,822500	0,1	0,201118
0,824167	0,1	0,174992
0,825833	0,1	0,148628
0,827500	0,1	0,165982
0,829167	0,1	0,155739
0,830833	0,1	0,179809
0,832500	0,1	0,158940
0,834167	0,1	0,159642
0,835833	0,1	0,191256
0,837500	0,1	0,126268
0,839167	0,1	0,184060
0,840833	0,1	0,171904
0,842500	0,1	0,189516
0,844167	0,1	0,161418
0,845833	0,1	0,165898
0,847500	0,1	0,173391
0,849167	0,1	0,165609
0,850833	0,1	0,172442
0,852500	0,1	0,183906
0,854167	0,1	0,160898
0,855833	0,1	0,189540
0,857500	0,1	0,161128
0,859167	0,1	0,182361
0,860833	0,1	0,168543
0,862500	0,1	0,152328
0,864167	0,1	0,204562
0,865833	0,1	0,179983
0,867500	0,1	0,180495
0,869167	0,1	0,187939
0,870833	0,1	0,183000
0,872500	0,1	0,185362
0,874167	0,1	0,142503
0,875833	0,1	0,164731
0,877500	0,1	0,185964
0,879167	0,1	0,179172
0,880833	0,1	0,183855
0,882500	0,1	0,181824
0,884167	0,1	0,200185
0,885833	0,1	0,189269
0,887500	0,1	0,194196
0,889167	0,1	0,204308
0,890833	0,1	0,163481
0,892500	0,1	0,210946
0,894167	0,1	0,196716
0,895833	0,1	0,183520
0,897500	0,1	0,170920
0,899167	0,1	0,214107
0,900833	0,1	0,200355
0,902500	0,1	0,181145
0,904167	0,1	0,229704
0,905833	0,1	0,226782
0,907500	0,1	0,204352
0,909167	0,1	0,173084
0,910833	0,1	0,270406
0,912500	0,1	0,214093
0,914167	0,1	0,217438
0,915833	0,1	0,214788
0,917500	0,1	0,240932
0,919167	0,1	0,187144
0,920833	0,1	0,206339
0,922500	0,1	0,234575
0,924167	0,1	0,216573
0,925833	0,1	0,187075
0,927500	0,1	0,232700
0,929167	0,1	0,220338
0,930833	0,1	0,204096
0,932500	0,1	0,274445
0,934167	0,1	0,234010
0,935833	0,1	0,258628
0,937500	0,1	0,229367
0,939167	0,1	0,264619
0,940833	0,1	0,235724
0,942500	0,1	0,229816
0,944167	0,1	0,259717
0,945833	0,1	0,272900
0,947500	0,1	0,240874
0,949167	0,1	0,237288
0,950833	0,1	0,291501
0,952500	0,1	0,262212
0,954167	0,1	0,268722
0,955833	0,1	0,268169
0,957500	0,1	0,297629
0,959167	0,1	0,245808
0,960833	0,1	0,284379
0,962500	0,1	0,297959
0,964167	0,1	0,278872
0,965833	0,1	0,263052
0,967500	0,1	0,286444
0,969167	0,1	0,269590
0,970833	0,1	0,335310
0,972500	0,1	0,345640
0,974167	0,1	0,327429
0,975833	0,1	0,319272
0,977500	0,1	0,276306
0,979167	0,1	0,279838
0,980833	0,1	0,331537
0,982500	0,1	0,331068
0,984167	0,1	0,319272
0,985833	0,1	0,310853
0,987500	0,1	0,332677
0,989167	0,1	0,339478
0,990833	0,1	0,332423
0,992500	0,1	0,306472
0,994167	0,1	0,350919
0,995833	0,1	0,336455
0,997500	0,1	0,368333
0,999167	0,1	0,370792
1,000833	0,1	0,364345
1,002500	0,1	0,412731
1,004167	0,1	0,417320
1,005833	0,1	0,416998
1,007500	0,1	0,405555
1,009167	0,1	0,396815
1,010833	0,1	0,436208
1,012500	0,1	0,441539
1,014167	0,1	0,454919
1,015833	0,1	0,447540
1,017500	0,1	0,418006
1,019167	0,1	0,427443
1,020833	0,1	0,479067
1,022500	0,1	0,514772
1,024167	0,1	0,505366
1,025833	0,1	0,519617
1,027500	0,1	0,554834
1,029167	0,1	0,498123
1,030833	0,1	0,534129
1,032500	0,1	0,562809
1,034167	0,1	0,542561
1,035833	0,1	0,605158
1,037500	0,1	0,567500
1,039167	0,1	0,561207
1,040833	0,1	0,602874
1,042500	0,1	0,589430
1,044167	0,1	0,584716
1,045833	0,1	0,587491
1,047500	0,1	0,635584
1,049167	0,1	0,649946
1,050833	0,1	0,655729
1,052500	0,1	0,688242
1,054167	0,1	0,709541
1,055833	0,1	0,746811
1,057500	0,1	0,765204
1,059167	0,1	0,826533
1,060833	0,1	0,903450
1,062500	0,1	0,981249
1,064167	0,1	1,082305
1,065833	0,1	1,178742
1,067500	0,1	1,334750
1,069167	0,1	1,593117
1,070833	0,1	1,778905
1,072500	0,1	2,106008
1,074167	0,1	2,476712
1,075833	0,1	2,830894
1,077500	0,1	3,349037
1,079167	0,1	3,863542
1,080833	0,1	4,522621
1,082500	0,1	5,239154
1,084167	0,1	5,957910
1,085833	0,1	6,747034
1,087500	0,1	7,674154
1,089167	0,1	8,608202
1,090833	0,1	9,555040
1,092500	0,1	10,526473
1,094167	0,1	11,453373
1,095833	0,1	12,457407
1,097500	0,1	13,375007
1,099167	0,1	14,312334
1,100833	0,1	15,136461
1,102500	0,1	15,873816
1,104167	0,1	16,564874
1,105833	0,1	17,136927
1,107500	0,1	17,664937
1,109167	0,1	18,121722
1,110833	0,1	18,436758
1,112500	0,1	18,693059
1,114167	0,1	18,874567
1,115833	0,1	18,949890
1,117500	0,1	18,988797
1,119167	0,1	18,980646
1,120833	0,1	18,940608
1,122500	0,1	18,823351
1,124167	0,1	18,639631
1,125833	0,1	18,538471
1,127500	0,1	18,382511
1,129167	0,1	18,250537
1,130833	0,1	18,136232
1,132500	0,1	18,044106
1,134167	0,1	17,933300
1,135833	0,1	17,905053
1,137500	0,1	17,867553
1,139167	0,1	17,936183
1,140833	0,1	18,016407
1,142500	0,1	18,177727
1,144167	0,1	18,379937
1,145833	0,1	18,693878
1,147500	0,1	19,061496
1,149167	0,1	19,410035
1,150833	0,1	19,900485
1,152500	0,1	20,390841
1,154167	0,1	21,029384
1,155833	0,1	21,637294
1,157500	0,1	22,348306
1,159167	0,1	23,099974
1,160833	0,1	23,814394
1,162500	0,1	24,586979
1,164167	0,1	25,342099
1,165833	0,1	26,116464
1,167500	0,1	26,942021
1,169167	0,1	27,761462
1,170833	0,1	28,456498
1,172500	0,1	29,163905
1,174167	0,1	29,903577
1,175833	0,1	30,552082
1,177500	0,1	31,195814
1,179167	0,1	31,728688
1,180833	0,1	32,284653
1,182500	0,1	32,795769
1,184167	0,1	33,256154
1,185833	0,1	33,690536
1,187500	0,1	34,058814
1,189167	0,1	34,480766
1,190833	0,1	34,867379
1,192500	0,1	35,278120
1,194167	0,1	35,721612
1,195833	0,1	36,221621
1,197500	0,1	36,749059
1,199167	0,1	37,392321
1,200833	0,1	38,262011
1,202500	0,1	39,159884
1,204167	0,1	40,233177
1,205833	0,1	41,530659
1,207500	0,1	43,015578
1,209167	0,1	44,690729
1,210833	0,1	46,627872
1,212500	0,1	48,764816
1,214167	0,1	51,154239
1,215833	0,1	53,687009
1,217500	0,1	56,469230
1,219167	0,1	59,422934
1,220833	0,1	62,578467
1,222500	0,1	65,899259
1,224167	0,1	69,270970
1,225833	0,1	72,749755
1,227500	0,1	76,257900
1,229167	0,1	79,761765
1,230833	0,1	83,224226
1,232500	0,1	86,633600
1,234167	0,1	89,921812
1,235833	0,1	93,118592
1,237500	0,1	96,157919
1,239167	0,1	98,970126
1,240833	0,1	101,611192
1,242500	0,1	104,019336
1,244167	0,1	106,161674
1,245833	0,1	108,085018
1,247500	0,1	109,776448
1,249167	0,1	111,200846
1,250833	0,1	112,366618
1,252500	0,1	113,275866
1,254167	0,1	113,870985
1,255833	0,1	114,245165
1,257500	0,1	114,324972
1,259167	0,1	114,246189
1,260833	0,1	113,837780
1,262500	0,1	113,216899
1,264167	0,1	112,388542
1,265833	0,1	111,382408
1,267500	0,1	110,116532
1,269167	0,1	108,662915
1,270833	0,1	107,085502
1,272500	0,1	105,303511
1,274167	0,1	103,475103
1,275833	0,1	101,450242
1,277500	0,1	99,274003
1,279167	0,1	97,060220
1,280833	0,1	94,791846
1,282500	0,1	92,453427
1,284167	0,1	90,073562
1,285833	0,1	87,646896
1,287500	0,1	85,201120
1,289167	0,1	82,774646
1,290833	0,1	80,342697
1,292500	0,1	77,947839
1,294167	0,1	75,551527
1,295833	0,1	73,223772
1,297500	0,1	70,936268
1,299167	0,1	68,715498
1,300833	0,1	66,533065
1,302500	0,1	64,395866
1,304167	0,1	62,395039
1,305833	0,1	60,365454
1,307500	0,1	58,578929
1,309167	0,1	56,699888
1,310833	0,1	54,947767
1,312500	0,1	53,268865
1,314167	0,1	51,656739
1,315833	0,1	50,172178
1,317500	0,1	48,686962
1,319167	0,1	47,292364
1,320833	0,1	45,981224
1,322500	0,1	44,656800
1,324167	0,1	43,466192
1,325833	0,1	42,315035
1,327500	0,1	41,230210
1,329167	0,1	40,113428
1,330833	0,1	39,084418
1,332500	0,1	38,076310
1,334167	0,1	37,182734
1,335833	0,1	36,274711
1,337500	0,1	35,406766
1,339167	0,1	34,564694
1,340833	0,1	33,722945
1,342500	0,1	33,011315
1,344167	0,1	32,241763
1,345833	0,1	31,520085
1,347500	0,1	30,789387
1,349167	0,1	30,136150
1,350833	0,1	29,429869
1,352500	0,1	28,791349
1,354167	0,1	28,234342
1,355833	0,1	27,573119
1,357500	0,1	26,951653
1,359167	0,1	26,360873
1,360833	0,1	25,786879
1,362500	0,1	25,284612
1,364167	0,1	24,701833
1,365833	0,1	24,186391
1,367500	0,1	23,674586
1,369167	0,1	23,156586
1,370833	0,1	22,721861
1,372500	0,1	22,228895
1,374167	0,1	21,774534
1,375833	0,1	21,278645
1,377500	0,1	20,841672
1,379167	0,1	20,425135
1,380833	0,1	20,007201
1,382500	0,1	19,561770
1,384167	0,1	19,216683
1,385833	0,1	18,781810
1,387500	0,1	18,404248
1,389167	0,1	18,101397
1,390833	0,1	17,691944
1,392500	0,1	17,389899
1,394167	0,1	17,039039
1,395833	0,1	16,723684
1,397500	0,1	16,458138
1,399167	0,1	16,106446
1,400833	0,1	15,882601
1,402500	0,1	15,574230
1,404167	0,1	15,339329
1,405833	0,1	15,030135
1,407500	0,1	14,840463
1,409167	0,1	14,568677
1,410833	0,1	14,343955
1,412500	0,1	14,128892
1,414167	0,1	13,949775
1,415833	0,1	13,685080
1,417500	0,1	13,491649
1,419167	0,1	13,318450
1,420833	0,1	13,132069
1,422500	0,1	12,961607
1,424167	0,1	12,817178
1,425833	0,1	12,613445
1,427500	0,1	12,457464
1,429167	0,1	12,317609
1,430833	0,1	12,106501
1,432500	0,1	11,968968
1,434167	0,1	11,846647
1,435833	0,1	11,646197
1,437500	0,1	11,511141
1,439167	0,1	11,381228
1,440833	0,1	11,271232
1,442500	0,1	11,069031
1,444167	0,1	11,024798
1,445833	0,1	10,818806
1,447500	0,1	10,743521
1,449167	0,1	10,633026
1,450833	0,1	10,495991
1,452500	0,1	10,311428
1,454167	0,1	10,236028
1,455833	0,1	10,099350
1,457500	0,1	9,980485
1,459167	0,1	9,840340
1,460833	0,1	9,774882
1,462500	0,1	9,655016
1,464167	0,1	9,559544
1,465833	0,1	9,466458
1,467500	0,1	9,386257
1,469167	0,1	9,291461
1,470833	0,1	9,181654
1,472500	0,1	9,123144
1,474167	0,1	8,998016
1,475833	0,1	8,922332
1,477500	0,1	8,850093
1,479167	0,1	8,793760
1,480833	0,1	8,722485
1,482500	0,1	8,633602
1,484167	0,1	8,606866
1,485833	0,1	8,567791
1,487500	0,1	8,497790
1,489167	0,1	8,430017
1,490833	0,1	8,441020
1,492500	0,1	8,356470
1,494167	0,1	8,304931
1,495833	0,1	8,292343
1,497500	0,1	8,269301
1,499167	0,1	8,269016
1,500833	0,1	8,230041
1,502500	0,1	8,213343
1,504167	0,1	8,136403
1,505833	0,1	8,150061
1,507500	0,1	8,113568
1,509167	0,1	8,111871
1,510833	0,1	8,066829
1,512500	0,1	8,047166
1,514167	0,1	8,054641
1,515833	0,1	8,022113
1,517500	0,1	8,025599
1,519167	0,1	7,978749
1,520833	0,1	8,001459
1,522500	0,1	7,976743
1,524167	0,1	7,994092
1,525833	0,1	7,930062
1,527500	0,1	7,907870
1,529167	0,1	7,902965
1,530833	0,1	7,868112
1,532500	0,1	7,860904
1,534167	0,1	7,877272
1,535833	0,1	7,835282
1,537500	0,1	7,837435
1,539167	0,1	7,821889
1,540833	0,1	7,833972
1,542500	0,1	7,775312
1,544167	0,1	7,742606
1,545833	0,1	7,740545
1,547500	0,1	7,726107
1,549167	0,1	7,717202
1,550833	0,1	7,701828
1,552500	0,1	7,643044
1,554167	0,1	7,631960
1,555833	0,1	7,629398
1,557500	0,1	7,625186
1,559167	0,1	7,581305
1,560833	0,1	7,542899
1,562500	0,1	7,535786
1,564167	0,1	7,509268
1,565833	0,1	7,460956
1,567500	0,1	7,492113
1,569167	0,1	7,466730
1,570833	0,1	7,422554
1,572500	0,1	7,453614
1,574167	0,1	7,404844
1,575833	0,1	7,333526
1,577500	0,1	7,302337
1,579167	0,1	7,313657
1,580833	0,1	7,275665
1,582500	0,1	7,238421
1,584167	0,1	7,200702
1,585833	0,1	7,182725
1,587500	0,1	7,136317
1,589167	0,1	7,104405
1,590833	0,1	7,157154
1,592500	0,1	7,085420
1,594167	0,1	7,045191
1,595833	0,1	7,007022
1,597500	0,1	7,002709
1,599167	0,1	6,974000
1,600833	0,1	6,939112
1,602500	0,1	6,904788
1,604167	0,1	6,876172
1,605833	0,1	6,816798
1,607500	0,1	6,811456
1,609167	0,1	6,776497
1,610833	0,1	6,751719
1,612500	0,1	6,752089
1,614167	0,1	6,703955
1,615833	0,1	6,686378
1,617500	0,1	6,627872
1,619167	0,1	6,620667
1,620833	0,1	6,582350
1,622500	0,1	6,540582
1,624167	0,1	6,538984
1,625833	0,1	6,484322
1,627500	0,1	6,437430
1,629167	0,1	6,444998
1,630833	0,1	6,436675
1,632500	0,1	6,402875
1,634167	0,1	6,419864
1,635833	0,1	6,344312
1,637500	0,1	6,261099
1,639167	0,1	6,303360
1,640833	0,1	6,263774
1,642500	0,1	6,271918
1,644167	0,1	6,240552
1,645833	0,1	6,208907
1,647500	0,1	6,159218
1,649167	0,1	6,118609
1,650833	0,1	6,124389
1,652500	0,1	6,156878
1,654167	0,1	6,106490
1,655833	0,1	6,114484
1,657500	0,1	6,105263
1,659167	0,1	6,070843
1,660833	0,1	6,078096
1,662500	0,1	6,049318
1,664167	0,1	6,048016
1,665833	0,1	6,029920
1,667500	0,1	6,059541
1,669167	0,1	6,035339
1,670833	0,1	6,060170
1,672500	0,1	6,030204
1,674167	0,1	6,073898
1,675833	0,1	6,044783
1,677500	0,1	6,079923
1,679167	0,1	6,040775
1,680833	0,1	6,120091
1,682500	0,1	6,131203
1,684167	0,1	6,119729
1,685833	0,1	6,214105
1,687500	0,1	6,216278
1,689167	0,1	6,188138
1,690833	0,1	6,224092
1,692500	0,1	6,285433
1,694167	0,1	6,266152
1,695833	0,1	6,338392
1,697500	0,1	6,377721
1,699167	0,1	6,414537
1,700833	0,1	6,437147
1,702500	0,1	6,436970
1,704167	0,1	6,485430
1,705833	0,1	6,539361
1,707500	0,1	6,576250
1,709167	0,1	6,569079
1,710833	0,1	6,625597
1,712500	0,1	6,660001
1,714167	0,1	6,705054
1,715833	0,1	6,707313
1,717500	0,1	6,731135
1,719167	0,1	6,754979
1,720833	0,1	6,754047
1,722500	0,1	6,800506
1,724167	0,1	6,805002
1,725833	0,1	6,816877
1,727500	0,1	6,887275
1,729167	0,1	6,858214
1,730833	0,1	6,904207
1,732500	0,1	6,906651
1,734167	0,1	6,890475
1,735833	0,1	6,922262
1,737500	0,1	6,900203
1,739167	0,1	6,898328
1,740833	0,1	6,880935
1,742500	0,1	6,846717
1,744167	0,1	6,883170
1,745833	0,1	6,881028
1,747500	0,1	6,905897
1,749167	0,1	6,860743
1,750833	0,1	6,835588
1,752500	0,1	6,827357
1,754167	0,1	6,757711
1,755833	0,1	6,756572
1,757500	0,1	6,771532
1,759167	0,1	6,726305
1,760833	0,1	6,679834
1,762500	0,1	6,687220
1,764167	0,1	6,630111
1,765833	0,1	6,610295
1,767500	0,1	6,582439
1,769167	0,1	6,522004
1,770833	0,1	6,487130
1,772500	0,1	6,439963
1,774167	0,1	6,454418
1,775833	0,1	6,439216
1,777500	0,1	6,300706
1,779167	0,1	6,292921
1,780833	0,1	6,272960
1,782500	0,1	6,207505
1,784167	0,1	6,163148
1,785833	0,1	6,082206
1,787500	0,1	6,043631
1,789167	0,1	5,982061
1,790833	0,1	5,981020
1,792500	0,1	5,940456
1,794167	0,1	5,891011
1,795833	0,1	5,830143
1,797500	0,1	5,790480
1,799167	0,1	5,707586
1,800833	0,1	5,728208
1,802500	0,1	5,646611
1,804167	0,1	5,628603
1,805833	0,1	5,568195
1,807500	0,1	5,519031
1,809167	0,1	5,521148
1,810833	0,1	5,462568
1,812500	0,1	5,396000
1,814167	0,1	5,353221
1,815833	0,1	5,329953
1,817500	0,1	5,274866
1,819167	0,1	5,228696
1,820833	0,1	5,231097
1,822500	0,1	5,198106
1,824167	0,1	5,147080
1,825833	0,1	5,147185
1,827500	0,1	5,057830
1,829167	0,1	5,050980
1,830833	0,1	5,030039
1,832500	0,1	5,019607
1,834167	0,1	4,954955
1,835833	0,1	4,996556
1,837500	0,1	4,961917
1,839167	0,1	4,940745
1,840833	0,1	4,961167
1,842500	0,1	4,953807
1,844167	0,1	4,999842
1,845833	0,1	5,010703
1,847500	0,1	5,000422
1,849167	0,1	5,052695
1,850833	0,1	5,056193
1,852500	0,1	5,125652
1,854167	0,1	5,191586
1,855833	0,1	5,196964
1,857500	0,1	5,275032
1,859167	0,1	5,318174
1,860833	0,1	5,349202
1,862500	0,1	5,407082
1,864167	0,1	5,462780
1,865833	0,1	5,516222
1,867500	0,1	5,581589
1,869167	0,1	5,595570
1,870833	0,1	5,648663
1,872500	0,1	5,687143
1,874167	0,1	5,799089
1,875833	0,1	5,833013
1,877500	0,1	5,843113
1,879167	0,1	5,899729
1,880833	0,1	5,941014
1,882500	0,1	5,974212
1,884167	0,1	6,036446
1,885833	0,1	6,068289
1,887500	0,1	6,110734
1,889167	0,1	6,138107
1,890833	0,1	6,194215
1,892500	0,1	6,201506
1,894167	0,1	6,275360
1,895833	0,1	6,284810
1,897500	0,1	6,320941
1,899167	0,1	6,371752
1,900833	0,1	6,393701
1,902500	0,1	6,413303
1,904167	0,1	6,474688
1,905833	0,1	6,465829
1,907500	0,1	6,528044
1,909167	0,1	6,512163
1,910833	0,1	6,571874
1,912500	0,1	6,538422
1,914167	0,1	6,546732
1,915833	0,1	6,570574
1,917500	0,1	6,588503
1,919167	0,1	6,637479
1,920833	0,1	6,617672
1,922500	0,1	6,589741
1,924167	0,1	6,565900
1,925833	0,1	6,607939
1,927500	0,1	6,586836
1,929167	0,1	6,582999
1,930833	0,1	6,574783
1,932500	0,1	6,544591
1,934167	0,1	6,541892
1,935833	0,1	6,538984
1,937500	0,1	6,498733
1,939167	0,1	6,525540
1,940833	0,1	6,480684
1,942500	0,1	6,510018
1,944167	0,1	6,463885
1,945833	0,1	6,423886
1,947500	0,1	6,406043
1,949167	0,1	6,365135
1,950833	0,1	6,341394
1,952500	0,1	6,342042
1,954167	0,1	6,312647
1,955833	0,1	6,312632
1,957500	0,1	6,290320
1,959167	0,1	6,261366
1,960833	0,1	6,213465
1,962500	0,1	6,177807
1,964167	0,1	6,198988
1,965833	0,1	6,134005
1,967500	0,1	6,153240
1,969167	0,1	6,127215
1,970833	0,1	6,090355
1,972500	0,1	6,073259
1,974167	0,1	6,044054
1,975833	0,1	5,993253
1,977500	0,1	5,970188
1,979167	0,1	5,961692
1,980833	0,1	5,976934
1,982500	0,1	5,931386
1,984167	0,1	5,924311
1,985833	0,1	5,920124
1,987500	0,1	5,885648
1,989167	0,1	5,850130
1,990833	0,1	5,874400
1,992500	0,1	5,796117
1,994167	0,1	5,845499
1,995833	0,1	5,816189
1,997500	0,1	5,764769
1,999167	0,1	5,742739
2,000833	0,1	5,772849
2,002500	0,1	5,764935
2,004167	0,1	5,720353
2,005833	0,1	5,734843
2,007500	0,1	5,697166
2,009167	0,1	5,711128
2,010833	0,1	5,682697
2,012500	0,1	5,703487
2,014167	0,1	5,704094
2,015833	0,1	5,665054
2,017500	0,1	5,697678
2,019167	0,1	5,729351
2,020833	0,1	5,671042
2,022500	0,1	5,684223
2,024167	0,1	5,627676
2,025833	0,1	5,687246
2,027500	0,1	5,701284
2,029167	0,1	5,697530
2,030833	0,1	5,697810
2,032500	0,1	5,707759
2,034167	0,1	5,697531
2,035833	0,1	5,693205
2,037500	0,1	5,700190
2,039167	0,1	5,704829
2,040833	0,1	5,773158
2,042500	0,1	5,731080
2,044167	0,1	5,726925
2,045833	0,1	5,775756
2,047500	0,1	5,785349
2,049167	0,1	5,809805
2,050833	0,1	5,815671
2,052500	0,1	5,798979
2,054167	0,1	5,841042
2,055833	0,1	5,813525
2,057500	0,1	5,859803
2,059167	0,1	5,914112
2,060833	0,1	5,847156
2,062500	0,1	5,867008
2,064167	0,1	5,894316
2,065833	0,1	5,957118
2,067500	0,1	5,968902
2,069167	0,1	6,000728
2,070833	0,1	5,965647
2,072500	0,1	5,976623
2,074167	0,1	6,025805
2,075833	0,1	6,038075
2,077500	0,1	6,026100
2,079167	0,1	6,062575
2,080833	0,1	6,032357
2,082500	0,1	6,065484
2,084167	0,1	6,075854
2,085833	0,1	6,077892
2,087500	0,1	6,111697
2,089167	0,1	6,107312
2,090833	0,1	6,127011
2,092500	0,1	6,142605
2,094167	0,1	6,137832
2,095833	0,1	6,154921
2,097500	0,1	6,194409
2,099167	0,1	6,205797
2,100833	0,1	6,224298
2,102500	0,1	6,208801
2,104167	0,1	6,200573
2,105833	0,1	6,214878
2,107500	0,1	6,251738
2,109167	0,1	6,219636
2,110833	0,1	6,263593
2,112500	0,1	6,250974
2,114167	0,1	6,280601
2,115833	0,1	6,220103
2,117500	0,1	6,282927
2,119167	0,1	6,274163
2,120833	0,1	6,262409
2,122500	0,1	6,304132
2,124167	0,1	6,291361
2,125833	0,1	6,314324
2,127500	0,1	6,244722
2,129167	0,1	6,269036
2,130833	0,1	6,272381
2,132500	0,1	6,293386
2,134167	0,1	6,252028
2,135833	0,1	6,252038
2,137500	0,1	6,310955
2,139167	0,1	6,246903
2,140833	0,1	6,303856
2,142500	0,1	6,303760
2,144167	0,1	6,275385
2,145833	0,1	6,274153
2,147500	0,1	6,249036
2,149167	0,1	6,278096
2,150833	0,1	6,259595
2,152500	0,1	6,230755
2,154167	0,1	6,230156
2,155833	0,1	6,227551
2,157500	0,1	6,212430
2,159167	0,1	6,240718
2,160833	0,1	6,229143
2,162500	0,1	6,197018
2,164167	0,1	6,224537
2,165833	0,1	6,221318
2,167500	0,1	6,191901
2,169167	0,1	6,230438
2,170833	0,1	6,184796
2,172500	0,1	6,175647
2,174167	0,1	6,196081
2,175833	0,1	6,176474
2,177500	0,1	6,146334
2,179167	0,1	6,176404
2,180833	0,1	6,179385
2,182500	0,1	6,169868
2,184167	0,1	6,164616
2,185833	0,1	6,150444
2,187500	0,1	6,170965
2,189167	0,1	6,139542
2,190833	0,1	6,121781
2,192500	0,1	6,120764
2,194167	0,1	6,199008
2,195833	0,1	6,089117
2,197500	0,1	6,114414
2,199167	0,1	6,145385
2,200833	0,1	6,116657
2,202500	0,1	6,088738
2,204167	0,1	6,117016
2,205833	0,1	6,096362
2,207500	0,1	6,102351
2,209167	0,1	6,133826
2,210833	0,1	6,122713
2,212500	0,1	6,166498
2,214167	0,1	6,127578
2,215833	0,1	6,145682
2,217500	0,1	6,147826
2,219167	0,1	6,156500
2,220833	0,1	6,150779
2,222500	0,1	6,131097
2,224167	0,1	6,154140
2,225833	0,1	6,164522
2,227500	0,1	6,191112
2,229167	0,1	6,235012
2,230833	0,1	6,288258
2,232500	0,1	6,273703
2,234167	0,1	6,240733
2,235833	0,1	6,323716
2,237500	0,1	6,334495
2,239167	0,1	6,341505
2,240833	0,1	6,339438
2,242500	0,1	6,373435
2,244167	0,1	6,398551
2,245833	0,1	6,387086
2,247500	0,1	6,424339
2,249167	0,1	6,425930
2,250833	0,1	6,441347
2,252500	0,1	6,476662
2,254167	0,1	6,521122
2,255833	0,1	6,476380
2,257500	0,1	6,504690
2,259167	0,1	6,473023
2,260833	0,1	6,479912
2,262500	0,1	6,516741
2,264167	0,1	6,556353
2,265833	0,1	6,553099
2,267500	0,1	6,542073
2,269167	0,1	6,541409
2,270833	0,1	6,521065
2,272500	0,1	6,541974
2,274167	0,1	6,480604
2,275833	0,1	6,518502
2,277500	0,1	6,531040
2,279167	0,1	6,502820
2,280833	0,1	6,466751
2,282500	0,1	6,492060
2,284167	0,1	6,539729
2,285833	0,1	6,511432
2,287500	0,1	6,453507
2,289167	0,1	6,435743
2,290833	0,1	6,478617
2,292500	0,1	6,422315
2,294167	0,1	6,441908
2,295833	0,1	6,400833
2,297500	0,1	6,376819
2,299167	0,1	6,317303
2,300833	0,1	6,357651
2,302500	0,1	6,296111
2,304167	0,1	6,271915
2,305833	0,1	6,291807
2,307500	0,1	6,284652
2,309167	0,1	6,222899
2,310833	0,1	6,214401
2,312500	0,1	6,209430
2,314167	0,1	6,165492
2,315833	0,1	6,169550
2,317500	0,1	6,155412
2,319167	0,1	6,098906
2,320833	0,1	6,085008
2,322500	0,1	6,061398
2,324167	0,1	6,004167
2,325833	0,1	5,981293
2,327500	0,1	5,951721
2,329167	0,1	5,952946
2,330833	0,1	5,955186
2,332500	0,1	5,883285
2,334167	0,1	5,877552
2,335833	0,1	5,810569
2,337500	0,1	5,819250
2,339167	0,1	5,778655
2,340833	0,1	5,718398
2,342500	0,1	5,719036
2,344167	0,1	5,703176
2,345833	0,1	5,677931
2,347500	0,1	5,643248
2,349167	0,1	5,619291
2,350833	0,1	5,620717
2,352500	0,1	5,533157
2,354167	0,1	5,498517
2,355833	0,1	5,491613
2,357500	0,1	5,512424
2,359167	0,1	5,471568
2,360833	0,1	5,445378
2,362500	0,1	5,426239
2,364167	0,1	5,393491
2,365833	0,1	5,339636
2,367500	0,1	5,314165
2,369167	0,1	5,329576
2,370833	0,1	5,280906
2,372500	0,1	5,283810
2,374167	0,1	5,262836
2,375833	0,1	5,237009
2,377500	0,1	5,237963
2,379167	0,1	5,233227
2,380833	0,1	5,257854
2,382500	0,1	5,198713
2,384167	0,1	5,202130
2,385833	0,1	5,195773
2,387500	0,1	5,162782
2,389167	0,1	5,176825
2,390833	0,1	5,246362
2,392500	0,1	5,230989
2,394167	0,1	5,180648
2,395833	0,1	5,250791
2,397500	0,1	5,210412
2,399167	0,1	5,256728
2,400833	0,1	5,302395
2,402500	0,1	5,304682
2,404167	0,1	5,302051
2,405833	0,1	5,340180
2,407500	0,1	5,418255
2,409167	0,1	5,423405
2,410833	0,1	5,509972
2,412500	0,1	5,544287
2,414167	0,1	5,579463
2,415833	0,1	5,633699
2,417500	0,1	5,691302
2,419167	0,1	5,795808
2,420833	0,1	5,806809
2,422500	0,1	5,910746
2,424167	0,1	5,996142
2,425833	0,1	6,070023
2,427500	0,1	6,121481
2,429167	0,1	6,248999
2,430833	0,1	6,303467
2,432500	0,1	6,436184
2,434167	0,1	6,516829
2,435833	0,1	6,652418
2,437500	0,1	6,691783
2,439167	0,1	6,778895
2,440833	0,1	6,922327
2,442500	0,1	6,996888
2,444167	0,1	7,109803
2,445833	0,1	7,172601
2,447500	0,1	7,282002
2,449167	0,1	7,414847
2,450833	0,1	7,528787
2,452500	0,1	7,604774
2,454167	0,1	7,678607
2,455833	0,1	7,805286
2,457500	0,1	7,914122
2,459167	0,1	8,013368
2,460833	0,1	8,136137
2,462500	0,1	8,249785
2,464167	0,1	8,352841
2,465833	0,1	8,433622
2,467500	0,1	8,582305
2,469167	0,1	8,680907
2,470833	0,1	8,803813
2,472500	0,1	8,909616
2,474167	0,1	9,031230
2,475833	0,1	9,175670
2,477500	0,1	9,353791
2,479167	0,1	9,528643
2,480833	0,1	9,624659
2,482500	0,1	9,785414
2,484167	0,1	10,002332
2,485833	0,1	10,229435
2,487500	0,1	10,436398
2,489167	0,1	10,657875
2,490833	0,1	10,895438
2,492500	0,1	11,173784
2,494167	0,1	11,456949
2,495833	0,1	11,824994
2,497500	0,1	12,165374
2,499167	0,1	12,532272
2,500833	0,1	12,918234
2,502500	0,1	13,344733
2,504167	0,1	13,812365
2,505833	0,1	14,340215
2,507500	0,1	14,829735
2,509167	0,1	15,425648
2,510833	0,1	16,011273
2,512500	0,1	16,688073
2,514167	0,1	17,334681
2,515833	0,1	18,030678
2,517500	0,1	18,807773
2,519167	0,1	19,583088
2,520833	0,1	20,443845
2,522500	0,1	21,264896
2,524167	0,1	22,164539
2,525833	0,1	23,144937
2,527500	0,1	24,098108
2,529167	0,1	25,095396
2,530833	0,1	26,187055
2,532500	0,1	27,254321
2,534167	0,1	28,383855
2,535833	0,1	29,480225
2,537500	0,1	30,619268
2,539167	0,1	31,835284
2,540833	0,1	32,996239
2,542500	0,1	34,191852
2,544167	0,1	35,453094
2,545833	0,1	36,720138
2,547500	0,1	37,951512
2,549167	0,1	39,205895
2,550833	0,1	40,418492
2,552500	0,1	41,676172
2,554167	0,1	42,930101
2,555833	0,1	44,142585
2,557500	0,1	45,372183
2,559167	0,1	46,537863
2,560833	0,1	47,789740
2,562500	0,1	48,955581
2,564167	0,1	50,044809
2,565833	0,1	51,156673
2,567500	0,1	52,253065
2,569167	0,1	53,324708
2,570833	0,1	54,332966
2,572500	0,1	55,339299
2,574167	0,1	56,211143
2,575833	0,1	57,175881
2,577500	0,1	57,991391
2,579167	0,1	58,816572
2,580833	0,1	59,570303
2,582500	0,1	60,344987
2,584167	0,1	60,972240
2,585833	0,1	61,623108
2,587500	0,1	62,224819
2,589167	0,1	62,731672
2,590833	0,1	63,291688
2,592500	0,1	63,761245
2,594167	0,1	64,204933
2,595833	0,1	64,556331
2,597500	0,1	64,904102
2,599167	0,1	65,118728
2,600833	0,1	65,406435
2,602500	0,1	65,598436
2,604167	0,1	65,734118
2,605833	0,1	65,862139
2,607500	0,1	65,979299
2,609167	0,1	66,021146
2,610833	0,1	66,023026
2,612500	0,1	66,000547
2,614167	0,1	65,915400
2,615833	0,1	65,831398
2,617500	0,1	65,747286
2,619167	0,1	65,511625
2,620833	0,1	65,370774
2,622500	0,1	65,128384
2,624167	0,1	64,849819
2,625833	0,1	64,569947
2,627500	0,1	64,229349
2,629167	0,1	63,902125
2,630833	0,1	63,497757
2,632500	0,1	63,126094
2,634167	0,1	62,687789
2,635833	0,1	62,265315
2,637500	0,1	61,825257
2,639167	0,1	61,316432
2,640833	0,1	60,826784
2,642500	0,1	60,281360
2,644167	0,1	59,734185
2,645833	0,1	59,146528
2,647500	0,1	58,603756
2,649167	0,1	57,957352
2,650833	0,1	57,370274
2,652500	0,1	56,738099
2,654167	0,1	56,140242
2,655833	0,1	55,462596
2,657500	0,1	54,819674
2,659167	0,1	54,153801
2,660833	0,1	53,432458
2,662500	0,1	52,791568
2,664167	0,1	52,054835
2,665833	0,1	51,353083
2,667500	0,1	50,682054
2,669167	0,1	49,929713
2,670833	0,1	49,238104
2,672500	0,1	48,506694
2,674167	0,1	47,779360
2,675833	0,1	47,084335
2,677500	0,1	46,337245
2,679167	0,1	45,609859
2,680833	0,1	44,850381
2,682500	0,1	44,150224
2,684167	0,1	43,420984
2,685833	0,1	42,672685
2,687500	0,1	41,976389
2,689167	0,1	41,266907
2,690833	0,1	40,555164
2,692500	0,1	39,825905
2,694167	0,1	39,128999
2,695833	0,1	38,517847
2,697500	0,1	37,721179
2,699167	0,1	37,095414
2,700833	0,1	36,399575
2,702500	0,1	35,754526
2,704167	0,1	35,077129
2,705833	0,1	34,398741
2,707500	0,1	33,736228
2,709167	0,1	33,151047
2,710833	0,1	32,484458
2,712500	0,1	31,926821
2,714167	0,1	31,261343
2,715833	0,1	30,612864
2,717500	0,1	30,083075
2,719167	0,1	29,508154
2,720833	0,1	28,951676
2,722500	0,1	28,419861
2,724167	0,1	27,845043
2,725833	0,1	27,364659
2,727500	0,1	26,794912
2,729167	0,1	26,306687
2,730833	0,1	25,783918
2,732500	0,1	25,301962
2,734167	0,1	24,807265
2,735833	0,1	24,302224
2,737500	0,1	23,872271
2,739167	0,1	23,440824
2,740833	0,1	22,993239
2,742500	0,1	22,530003
2,744167	0,1	22,102736
2,745833	0,1	21,717456
2,747500	0,1	21,368077
2,749167	0,1	20,951283
2,750833	0,1	20,534401
2,752500	0,1	20,138462
2,754167	0,1	19,815502
2,755833	0,1	19,415162
2,757500	0,1	19,107211
2,759167	0,1	18,740245
2,760833	0,1	18,419492
2,762500	0,1	18,099334
2,764167	0,1	17,797251
2,765833	0,1	17,456591
2,767500	0,1	17,161375
2,769167	0,1	16,888814
2,770833	0,1	16,598435
2,772500	0,1	16,292089
2,774167	0,1	16,003994
2,775833	0,1	15,757645
2,777500	0,1	15,473125
2,779167	0,1	15,227340
2,780833	0,1	14,965971
2,782500	0,1	14,734608
2,784167	0,1	14,505552
2,785833	0,1	14,243451
2,787500	0,1	13,998602
2,789167	0,1	13,767014
2,790833	0,1	13,593055
2,792500	0,1	13,372700
2,794167	0,1	13,125930
2,795833	0,1	12,945646
2,797500	0,1	12,711425
2,799167	0,1	12,501988
2,800833	0,1	12,310149
2,802500	0,1	12,134243
2,804167	0,1	12,002790
2,805833	0,1	11,769020
2,807500	0,1	11,549902
2,809167	0,1	11,384110
2,810833	0,1	11,226941
2,812500	0,1	11,043997
2,814167	0,1	10,905378
2,815833	0,1	10,740356
2,817500	0,1	10,568119
2,819167	0,1	10,390950
2,820833	0,1	10,250182
2,822500	0,1	10,110285
2,824167	0,1	9,977807
2,825833	0,1	9,823287
2,827500	0,1	9,702710
2,829167	0,1	9,542476
2,830833	0,1	9,369161
2,832500	0,1	9,268700
2,834167	0,1	9,116136
2,835833	0,1	9,011589
2,837500	0,1	8,902579
2,839167	0,1	8,779795
2,840833	0,1	8,618705
2,842500	0,1	8,514935
2,844167	0,1	8,415550
2,845833	0,1	8,277804
2,847500	0,1	8,158474
2,849167	0,1	8,063119
2,850833	0,1	7,993999
2,852500	0,1	7,877386
2,854167	0,1	7,795652
2,855833	0,1	7,712726
2,857500	0,1	7,581403
2,859167	0,1	7,446731
2,860833	0,1	7,382587
2,862500	0,1	7,284014
2,864167	0,1	7,214648
2,865833	0,1	7,117797
2,867500	0,1	7,045756
2,869167	0,1	6,945954
2,870833	0,1	6,886838
2,872500	0,1	6,820264
2,874167	0,1	6,742106
2,875833	0,1	6,684334
2,877500	0,1	6,597605
2,879167	0,1	6,504248
2,880833	0,1	6,448655
2,882500	0,1	6,341152
2,884167	0,1	6,316550
2,885833	0,1	6,197964
2,887500	0,1	6,194792
2,889167	0,1	6,115542
2,890833	0,1	6,048148
2,892500	0,1	5,961354
2,894167	0,1	5,935686
2,895833	0,1	5,884272
2,897500	0,1	5,830543
2,899167	0,1	5,761420
2,900833	0,1	5,684454
2,902500	0,1	5,653993
2,904167	0,1	5,610614
2,905833	0,1	5,610060
2,907500	0,1	5,481921
2,909167	0,1	5,454730
2,910833	0,1	5,390802
2,912500	0,1	5,378419
2,914167	0,1	5,312525
2,915833	0,1	5,271035
2,917500	0,1	5,233715
2,919167	0,1	5,183902
2,920833	0,1	5,150421
2,922500	0,1	5,123346
2,924167	0,1	5,091429
2,925833	0,1	4,988939
2,927500	0,1	4,986251
2,929167	0,1	4,982569
2,930833	0,1	4,870588
2,932500	0,1	4,892627
2,934167	0,1	4,868506
2,935833	0,1	4,802363
2,937500	0,1	4,793178
2,939167	0,1	4,791336
2,940833	0,1	4,706507
2,942500	0,1	4,670642
2,944167	0,1	4,636256
2,945833	0,1	4,626966
2,947500	0,1	4,542179
2,949167	0,1	4,529745
2,950833	0,1	4,552264
2,952500	0,1	4,468811
2,954167	0,1	4,473456
2,955833	0,1	4,395776
2,957500	0,1	4,365175
2,959167	0,1	4,379844
2,960833	0,1	4,352115
2,962500	0,1	4,325556
2,964167	0,1	4,261429
2,965833	0,1	4,267144
2,967500	0,1	4,245191
2,969167	0,1	4,217502
2,970833	0,1	4,204080
2,972500	0,1	4,190945
2,974167	0,1	4,175374
2,975833	0,1	4,141754
2,977500	0,1	4,081431
2,979167	0,1	4,065527
2,980833	0,1	4,064712
2,982500	0,1	4,047929
2,984167	0,1	3,987695
2,985833	0,1	4,016332
2,987500	0,1	3,981114
2,989167	0,1	3,942548
2,990833	0,1	3,947212
2,992500	0,1	3,948754
2,994167	0,1	3,900083
2,995833	0,1	3,835556
2,997500	0,1	3,880078
2,999167	0,1	3,849371
3,000833	0,1	3,819026
3,002500	0,1	3,822931
3,004167	0,1	3,770077
3,005833	0,1	3,747609
3,007500	0,1	3,804640
3,009167	0,1	3,757205
3,010833	0,1	3,704754
3,012500	0,1	3,736673
3,014167	0,1	3,683722
3,015833	0,1	3,675963
3,017500	0,1	3,708128
3,019167	0,1	3,671501
3,020833	0,1	3,653164
3,022500	0,1	3,632019
3,024167	0,1	3,592292
3,025833	0,1	3,607192
3,027500	0,1	3,574069
3,029167	0,1	3,564863
3,030833	0,1	3,541380
3,032500	0,1	3,563113
3,034167	0,1	3,522491
3,035833	0,1	3,485985
3,037500	0,1	3,479848
3,039167	0,1	3,502858
3,040833	0,1	3,435983
3,042500	0,1	3,438953
3,044167	0,1	3,424750
3,045833	0,1	3,421785
3,047500	0,1	3,387814
3,049167	0,1	3,393886
3,050833	0,1	3,343300
3,052500	0,1	3,395407
3,054167	0,1	3,361119
3,055833	0,1	3,340278
3,057500	0,1	3,301666
3,059167	0,1	3,309838
3,060833	0,1	3,288312
3,062500	0,1	3,252897
3,064167	0,1	3,302402
3,065833	0,1	3,253428
3,067500	0,1	3,216830
3,069167	0,1	3,212830
3,070833	0,1	3,192962
3,072500	0,1	3,208324
3,074167	0,1	3,206051
3,075833	0,1	3,176431
3,077500	0,1	3,146214
3,079167	0,1	3,153476
3,080833	0,1	3,137354
3,082500	0,1	3,121185
3,084167	0,1	3,128851
3,085833	0,1	3,083515
3,087500	0,1	3,107051
3,089167	0,1	3,139039
3,090833	0,1	3,090387
3,092500	0,1	3,073088
3,094167	0,1	3,082569
3,095833	0,1	3,063813
3,097500	0,1	3,035821
3,099167	0,1	3,049473
3,100833	0,1	3,045909
3,102500	0,1	3,047586
3,104167	0,1	3,050813
3,105833	0,1	3,049305
3,107500	0,1	3,019904
3,109167	0,1	3,021767
3,110833	0,1	2,995534
3,112500	0,1	3,036165
3,114167	0,1	2,982565
3,115833	0,1	3,071917
3,117500	0,1	3,043759
3,119167	0,1	3,026962
3,120833	0,1	3,024440
3,122500	0,1	3,077233
3,124167	0,1	3,068812
3,125833	0,1	3,063259
3,127500	0,1	3,040169
3,129167	0,1	3,008226
3,130833	0,1	3,024856
3,132500	0,1	3,074963
3,134167	0,1	3,081233
3,135833	0,1	3,070587
3,137500	0,1	3,069992
3,139167	0,1	3,096324
3,140833	0,1	3,099231
3,142500	0,1	3,104803
3,144167	0,1	3,123641
3,145833	0,1	3,118837
3,147500	0,1	3,092672
3,149167	0,1	3,139400
3,150833	0,1	3,136185
3,152500	0,1	3,150404
3,154167	0,1	3,109510
3,155833	0,1	3,147055
3,157500	0,1	3,099302
3,159167	0,1	3,179819
3,160833	0,1	3,146558
3,162500	0,1	3,149564
3,164167	0,1	3,171325
3,165833	0,1	3,126252
3,167500	0,1	3,181220
3,169167	0,1	3,196081
3,170833	0,1	3,154843
3,172500	0,1	3,197833
3,174167	0,1	3,156886
3,175833	0,1	3,178158
3,177500	0,1	3,159345
3,179167	0,1	3,188365
3,180833	0,1	3,201373
3,182500	0,1	3,175132
3,184167	0,1	3,164305
3,185833	0,1	3,155197
3,187500	0,1	3,159835
3,189167	0,1	3,137622
3,190833	0,1	3,167407
3,192500	0,1	3,155275
3,194167	0,1	3,188253
3,195833	0,1	3,108127
3,197500	0,1	3,109233
3,199167	0,1	3,117972
3,200833	0,1	3,078781
3,202500	0,1	3,157145
3,204167	0,1	3,091481
3,205833	0,1	3,100471
3,207500	0,1	3,102611
3,209167	0,1	3,082861
3,210833	0,1	3,021210
3,212500	0,1	3,034874
3,214167	0,1	3,036823
3,215833	0,1	3,002900
3,217500	0,1	2,957625
3,219167	0,1	3,024749
3,220833	0,1	3,006925
3,222500	0,1	2,989010
3,224167	0,1	2,938601
3,225833	0,1	2,958359
3,227500	0,1	2,939498
3,229167	0,1	2,884537
3,230833	0,1	2,890556
3,232500	0,1	2,910886
3,234167	0,1	2,837044
3,235833	0,1	2,870731
3,237500	0,1	2,843519
3,239167	0,1	2,834933
3,240833	0,1	2,822900
3,242500	0,1	2,809807
3,244167	0,1	2,780041
3,245833	0,1	2,763328
3,247500	0,1	2,761941
3,249167	0,1	2,720528
3,250833	0,1	2,676876
3,252500	0,1	2,727625
3,254167	0,1	2,701498
3,255833	0,1	2,646698
3,257500	0,1	2,667074
3,259167	0,1	2,634876
3,260833	0,1	2,639042
3,262500	0,1	2,623278
3,264167	0,1	2,596194
3,265833	0,1	2,588829
3,267500	0,1	2,528444
3,269167	0,1	2,528856
3,270833	0,1	2,540512
3,272500	0,1	2,477249
3,274167	0,1	2,436062
3,275833	0,1	2,438001
3,277500	0,1	2,438717
3,279167	0,1	2,427571
3,280833	0,1	2,411435
3,282500	0,1	2,383725
3,284167	0,1	2,318458
3,285833	0,1	2,368586
3,287500	0,1	2,313411
3,289167	0,1	2,327710
3,290833	0,1	2,305695
3,292500	0,1	2,306548
3,294167	0,1	2,266479
3,295833	0,1	2,276033
3,297500	0,1	2,264961
3,299167	0,1	2,223376
3,300833	0,1	2,226096
3,302500	0,1	2,191493
3,304167	0,1	2,196878
3,305833	0,1	2,154083
3,307500	0,1	2,115880
3,309167	0,1	2,118819
3,310833	0,1	2,116231
3,312500	0,1	2,148381
3,314167	0,1	2,058127
3,315833	0,1	2,063641
3,317500	0,1	2,080975
3,319167	0,1	2,050413
3,320833	0,1	2,036241
3,322500	0,1	2,023226
3,324167	0,1	2,028543
3,325833	0,1	1,996182
3,327500	0,1	2,005314
3,329167	0,1	2,009553
3,330833	0,1	1,982512
3,332500	0,1	1,997546
3,334167	0,1	1,970799
3,335833	0,1	1,941811
3,337500	0,1	1,937139
3,339167	0,1	1,958277
3,340833	0,1	1,943820
3,342500	0,1	1,896370
3,344167	0,1	1,913686
3,345833	0,1	1,873004
3,347500	0,1	1,881685
3,349167	0,1	1,868751
3,350833	0,1	1,848264
3,352500	0,1	1,840426
3,354167	0,1	1,811808
3,355833	0,1	1,836112
3,357500	0,1	1,822668
3,359167	0,1	1,818995
3,360833	0,1	1,807997
3,362500	0,1	1,801385
3,364167	0,1	1,829492
3,365833	0,1	1,795352
3,367500	0,1	1,821442
3,369167	0,1	1,777309
3,370833	0,1	1,781039
3,372500	0,1	1,774423
3,374167	0,1	1,762273
3,375833	0,1	1,768464
3,377500	0,1	1,789367
3,379167	0,1	1,760420
3,380833	0,1	1,768688
3,382500	0,1	1,749991
3,384167	0,1	1,736185
3,385833	0,1	1,746389
3,387500	0,1	1,742730
3,389167	0,1	1,733976
3,390833	0,1	1,726199
3,392500	0,1	1,693285
3,394167	0,1	1,732299
3,395833	0,1	1,703423
3,397500	0,1	1,681499
3,399167	0,1	1,701962
3,400833	0,1	1,709526
3,402500	0,1	1,706434
3,404167	0,1	1,711677
3,405833	0,1	1,706005
3,407500	0,1	1,706004
3,409167	0,1	1,708514
3,410833	0,1	1,706285
3,412500	0,1	1,708444
3,414167	0,1	1,670133
3,415833	0,1	1,689611
3,417500	0,1	1,680046
3,419167	0,1	1,672214
3,420833	0,1	1,675445
3,422500	0,1	1,708147
3,424167	0,1	1,709534
3,425833	0,1	1,707859
3,427500	0,1	1,685093
3,429167	0,1	1,728136
3,430833	0,1	1,689039
3,432500	0,1	1,725837
3,434167	0,1	1,699315
3,435833	0,1	1,692265
3,437500	0,1	1,719715
3,439167	0,1	1,722675
3,440833	0,1	1,751490
3,442500	0,1	1,749635
3,444167	0,1	1,787865
3,445833	0,1	1,722902
3,447500	0,1	1,794986
3,449167	0,1	1,834524
3,450833	0,1	1,769332
3,452500	0,1	1,817260
3,454167	0,1	1,834172
3,455833	0,1	1,829348
3,457500	0,1	1,825684
3,459167	0,1	1,869748
3,460833	0,1	1,871262
3,462500	0,1	1,916121
3,464167	0,1	1,926136
3,465833	0,1	1,916568
3,467500	0,1	1,917568
3,469167	0,1	1,935472
3,470833	0,1	1,978330
3,472500	0,1	1,956411
3,474167	0,1	2,032839
3,475833	0,1	2,041558
3,477500	0,1	2,048753
3,479167	0,1	2,051198
3,480833	0,1	2,098378
3,482500	0,1	2,127373
3,484167	0,1	2,141406
3,485833	0,1	2,186366
3,487500	0,1	2,179544
3,489167	0,1	2,228242
3,490833	0,1	2,234729
3,492500	0,1	2,267825
3,494167	0,1	2,282943
3,495833	0,1	2,289429
3,497500	0,1	2,363544
3,499167	0,1	2,379685
3,500833	0,1	2,395589
3,502500	0,1	2,409978
3,504167	0,1	2,435826
3,505833	0,1	2,479883
3,507500	0,1	2,479467
3,509167	0,1	2,483781
3,510833	0,1	2,495243
3,512500	0,1	2,560876
3,514167	0,1	2,593235
3,515833	0,1	2,593095
3,517500	0,1	2,619164
3,519167	0,1	2,623273
3,520833	0,1	2,612054
3,522500	0,1	2,622058
3,524167	0,1	2,663242
3,525833	0,1	2,686384
3,527500	0,1	2,689121
3,529167	0,1	2,724835
3,530833	0,1	2,723462
3,532500	0,1	2,715855
3,534167	0,1	2,783671
3,535833	0,1	2,761109
3,537500	0,1	2,759422
3,539167	0,1	2,754759
3,540833	0,1	2,794440
3,542500	0,1	2,774865
3,544167	0,1	2,812689
3,545833	0,1	2,787835
3,547500	0,1	2,782369
3,549167	0,1	2,802740
3,550833	0,1	2,838753
3,552500	0,1	2,772057
3,554167	0,1	2,847235
3,555833	0,1	2,809314
3,557500	0,1	2,841320
3,559167	0,1	2,811318
3,560833	0,1	2,825910
3,562500	0,1	2,818086
3,564167	0,1	2,847186
3,565833	0,1	2,749879
3,567500	0,1	2,805809
3,569167	0,1	2,795749
3,570833	0,1	2,810872
3,572500	0,1	2,761603
3,574167	0,1	2,784432
3,575833	0,1	2,752233
3,577500	0,1	2,801245
3,579167	0,1	2,749508
3,580833	0,1	2,737104
3,582500	0,1	2,712702
3,584167	0,1	2,732120
3,585833	0,1	2,693818
3,587500	0,1	2,722891
3,589167	0,1	2,678260
3,590833	0,1	2,711868
3,592500	0,1	2,669310
3,594167	0,1	2,661330
3,595833	0,1	2,631920
3,597500	0,1	2,671447
3,599167	0,1	2,646679
3,600833	0,1	2,625076
3,602500	0,1	2,583826
3,604167	0,1	2,566598
3,605833	0,1	2,580268
3,607500	0,1	2,579142
3,609167	0,1	2,513392
3,610833	0,1	2,558446
3,612500	0,1	2,541020
3,614167	0,1	2,473077
3,615833	0,1	2,501846
3,617500	0,1	2,491634
3,619167	0,1	2,406916
3,620833	0,1	2,471248
3,622500	0,1	2,397989
3,624167	0,1	2,404369
3,625833	0,1	2,338249
3,627500	0,1	2,410466
3,629167	0,1	2,328813
3,630833	0,1	2,325345
3,632500	0,1	2,334408
3,634167	0,1	2,331814
3,635833	0,1	2,296130
3,637500	0,1	2,291654
3,639167	0,1	2,251724
3,640833	0,1	2,228842
3,642500	0,1	2,207394
3,644167	0,1	2,197532
3,645833	0,1	2,194290
3,647500	0,1	2,177173
3,649167	0,1	2,136743
3,650833	0,1	2,133713
3,652500	0,1	2,130835
3,654167	0,1	2,089837
3,655833	0,1	2,082276
3,657500	0,1	2,066453
3,659167	0,1	2,071412
3,660833	0,1	2,073857
3,662500	0,1	1,979225
3,664167	0,1	1,990490
3,665833	0,1	1,997035
3,667500	0,1	1,967055
3,669167	0,1	1,976179
3,670833	0,1	1,946853
3,672500	0,1	1,952160
3,674167	0,1	1,913268
3,675833	0,1	1,945757
3,677500	0,1	1,905281
3,679167	0,1	1,872638
3,680833	0,1	1,877594
3,682500	0,1	1,864221
3,684167	0,1	1,857890
3,685833	0,1	1,825914
3,687500	0,1	1,860691
3,689167	0,1	1,821380
3,690833	0,1	1,806351
3,692500	0,1	1,802255
3,694167	0,1	1,804700
3,695833	0,1	1,773719
3,697500	0,1	1,766448
3,699167	0,1	1,791320
3,700833	0,1	1,754375
3,702500	0,1	1,760988
3,704167	0,1	1,757460
3,705833	0,1	1,714423
3,707500	0,1	1,723531
3,709167	0,1	1,688041
3,710833	0,1	1,682345
3,712500	0,1	1,693074
3,714167	0,1	1,653831
3,715833	0,1	1,648002
3,717500	0,1	1,705063
3,719167	0,1	1,648451
3,720833	0,1	1,613433
3,722500	0,1	1,622507
3,724167	0,1	1,623365
3,725833	0,1	1,640543
3,727500	0,1	1,617609
3,729167	0,1	1,625005
3,730833	0,1	1,595901
3,732500	0,1	1,588643
3,734167	0,1	1,594749
3,735833	0,1	1,631544
3,737500	0,1	1,621993
3,739167	0,1	1,596198
3,740833	0,1	1,566096
3,742500	0,1	1,580321
3,744167	0,1	1,566150
3,745833	0,1	1,563642
3,747500	0,1	1,573626
3,749167	0,1	1,553010
3,750833	0,1	1,513502
3,752500	0,1	1,523548
3,754167	0,1	1,528791
3,755833	0,1	1,555597
3,757500	0,1	1,501280
3,759167	0,1	1,586413
3,760833	0,1	1,524443
3,762500	0,1	1,525490
3,764167	0,1	1,538650
3,765833	0,1	1,533446
3,767500	0,1	1,523553
3,769167	0,1	1,494380
3,770833	0,1	1,519675
3,772500	0,1	1,513771
3,774167	0,1	1,491377
3,775833	0,1	1,494524
3,777500	0,1	1,544517
3,779167	0,1	1,522771
3,780833	0,1	1,519036
3,782500	0,1	1,517026
3,784167	0,1	1,498326
3,785833	0,1	1,473910
3,787500	0,1	1,503071
3,789167	0,1	1,503738
3,790833	0,1	1,482107
3,792500	0,1	1,538500
3,794167	0,1	1,472834
3,795833	0,1	1,495096
3,797500	0,1	1,486215
3,799167	0,1	1,496102
3,800833	0,1	1,500145
3,802500	0,1	1,500285
3,804167	0,1	1,513628
3,805833	0,1	1,485711
3,807500	0,1	1,439953
3,809167	0,1	1,495966
3,810833	0,1	1,466222
3,812500	0,1	1,455377
3,814167	0,1	1,437938
3,815833	0,1	1,438523
3,817500	0,1	1,461350
3,819167	0,1	1,401568
3,820833	0,1	1,450851
3,822500	0,1	1,442033
3,824167	0,1	1,434401
3,825833	0,1	1,440805
3,827500	0,1	1,443668
3,829167	0,1	1,421392
3,830833	0,1	1,445177
3,832500	0,1	1,405098
3,834167	0,1	1,399562
3,835833	0,1	1,399780
3,837500	0,1	1,436411
3,839167	0,1	1,442098
3,840833	0,1	1,416853
3,842500	0,1	1,425566
3,844167	0,1	1,402042
3,845833	0,1	1,355671
3,847500	0,1	1,393747
3,849167	0,1	1,439655
3,850833	0,1	1,436351
3,852500	0,1	1,407983
3,854167	0,1	1,375899
3,855833	0,1	1,375795
3,857500	0,1	1,425693
3,859167	0,1	1,423931
3,860833	0,1	1,404474
3,862500	0,1	1,348883
3,864167	0,1	1,404085
3,865833	0,1	1,358285
3,867500	0,1	1,364889
3,869167	0,1	1,400020
3,870833	0,1	1,351039
3,872500	0,1	1,409821
3,874167	0,1	1,325486
3,875833	0,1	1,337893
3,877500	0,1	1,356415
3,879167	0,1	1,332701
3,880833	0,1	1,313260
3,882500	0,1	1,296015
3,884167	0,1	1,336525
3,885833	0,1	1,320163
3,887500	0,1	1,310809
3,889167	0,1	1,352682
3,890833	0,1	1,307518
3,892500	0,1	1,288921
3,894167	0,1	1,301907
3,895833	0,1	1,283547
3,897500	0,1	1,285839
3,899167	0,1	1,270266
3,900833	0,1	1,263684
3,902500	0,1	1,327693
3,904167	0,1	1,286274
3,905833	0,1	1,248574
3,907500	0,1	1,250775
3,909167	0,1	1,273607
3,910833	0,1	1,230635
3,912500	0,1	1,245739
3,914167	0,1	1,250638
3,915833	0,1	1,245691
3,917500	0,1	1,205911
3,919167	0,1	1,223157
3,920833	0,1	1,176857
3,922500	0,1	1,239485
3,924167	0,1	1,220921
3,925833	0,1	1,232748
3,927500	0,1	1,248119
3,929167	0,1	1,210044
3,930833	0,1	1,178330
3,932500	0,1	1,187094
3,934167	0,1	1,168740
3,935833	0,1	1,129367
3,937500	0,1	1,178414
3,939167	0,1	1,207051
3,940833	0,1	1,172245
3,942500	0,1	1,185378
3,944167	0,1	1,159477
3,945833	0,1	1,147777
3,947500	0,1	1,148383
3,949167	0,1	1,128023
3,950833	0,1	1,122831
3,952500	0,1	1,155567
3,954167	0,1	1,094354
3,955833	0,1	1,111354
3,957500	0,1	1,098729
3,959167	0,1	1,149072
3,960833	0,1	1,149489
3,962500	0,1	1,086536
3,964167	0,1	1,088210
3,965833	0,1	1,109298
3,967500	0,1	1,094006
3,969167	0,1	1,097454
3,970833	0,1	1,088595
3,972500	0,1	1,076654
3,974167	0,1	1,070193
3,975833	0,1	1,121344
3,977500	0,1	1,079291
3,979167	0,1	1,089701
3,980833	0,1	1,072045
3,982500	0,1	1,106846
3,984167	0,1	1,108880
3,985833	0,1	1,074143
3,987500	0,1	1,064691
3,989167	0,1	1,074891
3,990833	0,1	1,059040
3,992500	0,1	1,038971
3,994167	0,1	1,034360
3,995833	0,1	1,100513
3,997500	0,1	1,074873
3,999167	0,1	1,061400
4,000833	0,1	1,042114
4,002500	0,1	1,082454
4,004167	0,1	1,071128
4,005833	0,1	1,065403
4,007500	0,1	1,041980
4,009167	0,1	1,059409
4,010833	0,1	1,051576
4,012500	0,1	1,066515
4,014167	0,1	1,020717
4,015833	0,1	1,060628
4,017500	0,1	1,035030
4,019167	0,1	1,102692
4,020833	0,1	1,079307
4,022500	0,1	1,074626
4,024167	0,1	1,039176
4,025833	0,1	1,057606
4,027500	0,1	1,092723
4,029167	0,1	1,018342
4,030833	0,1	1,060049
4,032500	0,1	1,058235
4,034167	0,1	1,082006
4,035833	0,1	1,039891
4,037500	0,1	1,043042
4,039167	0,1	1,088756
4,040833	0,1	1,080219
4,042500	0,1	1,100524
4,044167	0,1	1,096406
4,045833	0,1	1,091536
4,047500	0,1	1,087228
4,049167	0,1	1,110589
4,050833	0,1	1,091221
4,052500	0,1	1,110167
4,054167	0,1	1,127521
4,055833	0,1	1,129821
4,057500	0,1	1,141667
4,059167	0,1	1,133679
4,060833	0,1	1,140752
4,062500	0,1	1,123636
4,064167	0,1	1,136972
4,065833	0,1	1,172044
4,067500	0,1	1,167802
4,069167	0,1	1,159010
4,070833	0,1	1,159028
4,072500	0,1	1,192632
4,074167	0,1	1,164744
4,075833	0,1	1,202968
4,077500	0,1	1,220334
4,079167	0,1	1,206434
4,080833	0,1	1,197148
4,082500	0,1	1,229173
4,084167	0,1	1,232392
4,085833	0,1	1,264474
4,087500	0,1	1,260621
4,089167	0,1	1,310368
4,090833	0,1	1,276155
4,092500	0,1	1,296940
4,094167	0,1	1,310171
4,095833	0,1	1,363198
4,097500	0,1	1,367117
4,099167	0,1	1,360519
4,100833	0,1	1,336001
4,102500	0,1	1,374068
4,104167	0,1	1,363532
4,105833	0,1	1,436554
4,107500	0,1	1,362901
4,109167	0,1	1,443663
4,110833	0,1	1,433052
4,112500	0,1	1,469613
4,114167	0,1	1,459545
4,115833	0,1	1,498405
4,117500	0,1	1,494618
4,119167	0,1	1,455892
4,120833	0,1	1,513687
4,122500	0,1	1,540009
4,124167	0,1	1,518463
4,125833	0,1	1,558030
4,127500	0,1	1,553791
4,129167	0,1	1,565509
4,130833	0,1	1,579317
4,132500	0,1	1,588012
4,134167	0,1	1,621495
4,135833	0,1	1,594398
4,137500	0,1	1,658833
4,139167	0,1	1,619553
4,140833	0,1	1,618889
4,142500	0,1	1,663740
4,144167	0,1	1,684216
4,145833	0,1	1,709809
4,147500	0,1	1,689174
4,149167	0,1	1,737542
4,150833	0,1	1,743234
4,152500	0,1	1,733385
4,154167	0,1	1,737193
4,155833	0,1	1,796346
4,157500	0,1	1,769969
4,159167	0,1	1,794825
4,160833	0,1	1,818341
4,162500	0,1	1,817566
4,164167	0,1	1,805339
4,165833	0,1	1,828054
4,167500	0,1	1,820438
4,169167	0,1	1,866225
4,170833	0,1	1,847476
4,172500	0,1	1,849695
4,174167	0,1	1,866023
4,175833	0,1	1,874000
4,177500	0,1	1,892324
4,179167	0,1	1,897796
4,180833	0,1	1,894994
4,182500	0,1	1,885501
4,184167	0,1	1,928351
4,185833	0,1	1,930082
4,187500	0,1	1,934401
4,189167	0,1	1,930155
4,190833	0,1	1,922326
4,192500	0,1	1,930948
4,194167	0,1	1,970203
4,195833	0,1	1,983731
4,197500	0,1	1,937640
4,199167	0,1	1,977256
4,200833	0,1	1,968849
4,202500	0,1	1,922114
4,204167	0,1	1,992064
4,205833	0,1	1,945558
4,207500	0,1	1,984519
4,209167	0,1	1,960219
4,210833	0,1	1,985455
4,212500	0,1	1,977192
4,214167	0,1	1,977112
4,215833	0,1	1,964247
4,217500	0,1	1,929297
4,219167	0,1	1,968980
4,220833	0,1	1,995882
4,222500	0,1	1,985534
4,224167	0,1	1,960657
4,225833	0,1	1,985602
4,227500	0,1	2,008758
4,229167	0,1	1,971878
4,230833	0,1	1,986104
4,232500	0,1	2,003291
4,234167	0,1	1,960661
4,235833	0,1	1,979056
4,237500	0,1	1,965618
4,239167	0,1	1,971073
4,240833	0,1	1,985739
4,242500	0,1	1,990134
4,244167	0,1	1,980789
4,245833	0,1	1,930315
4,247500	0,1	1,946408
4,249167	0,1	1,954462
4,250833	0,1	1,956193
4,252500	0,1	1,938503
4,254167	0,1	1,950722
4,255833	0,1	1,912760
4,257500	0,1	1,921091
4,259167	0,1	1,909597
4,260833	0,1	1,887094
4,262500	0,1	1,905777
4,264167	0,1	1,900388
4,265833	0,1	1,898956
4,267500	0,1	1,896509
4,269167	0,1	1,892193
4,270833	0,1	1,882703
4,272500	0,1	1,915697
4,274167	0,1	1,911610
4,275833	0,1	1,869987
4,277500	0,1	1,847901
4,279167	0,1	1,844159
4,280833	0,1	1,859402
4,282500	0,1	1,873139
4,284167	0,1	1,840644
4,285833	0,1	1,839788
4,287500	0,1	1,842439
4,289167	0,1	1,829063
4,290833	0,1	1,822167
4,292500	0,1	1,795421
4,294167	0,1	1,838477
4,295833	0,1	1,804709
4,297500	0,1	1,773930
4,299167	0,1	1,776656
4,300833	0,1	1,748052
4,302500	0,1	1,793981
4,304167	0,1	1,774799
4,305833	0,1	1,737563
4,307500	0,1	1,738558
4,309167	0,1	1,783340
4,310833	0,1	1,760418
4,312500	0,1	1,736491
4,314167	0,1	1,678624
4,315833	0,1	1,713190
4,317500	0,1	1,671592
4,319167	0,1	1,645063
4,320833	0,1	1,685069
4,322500	0,1	1,648936
4,324167	0,1	1,681129
4,325833	0,1	1,609213
4,327500	0,1	1,661937
4,329167	0,1	1,681709
4,330833	0,1	1,624951
4,332500	0,1	1,627602
4,334167	0,1	1,629115
4,335833	0,1	1,610276
4,337500	0,1	1,585355
4,339167	0,1	1,597912
4,340833	0,1	1,564652
4,342500	0,1	1,535414
4,344167	0,1	1,528009
4,345833	0,1	1,566079
4,347500	0,1	1,525441
4,349167	0,1	1,557236
4,350833	0,1	1,485283
4,352500	0,1	1,482033
4,354167	0,1	1,503871
4,355833	0,1	1,467586
4,357500	0,1	1,484383
4,359167	0,1	1,461706
4,360833	0,1	1,491872
4,362500	0,1	1,491361
4,364167	0,1	1,442402
4,365833	0,1	1,443668
4,367500	0,1	1,465506
4,369167	0,1	1,390005
4,370833	0,1	1,438046
4,372500	0,1	1,406706
4,374167	0,1	1,369271
4,375833	0,1	1,382545
4,377500	0,1	1,369403
4,379167	0,1	1,375231
4,380833	0,1	1,356438
4,382500	0,1	1,386707
4,384167	0,1	1,352740
4,385833	0,1	1,335507
4,387500	0,1	1,327984
4,389167	0,1	1,320639
4,390833	0,1	1,267299
4,392500	0,1	1,300086
4,394167	0,1	1,289719
4,395833	0,1	1,294154
4,397500	0,1	1,287407
4,399167	0,1	1,243134
4,400833	0,1	1,273113
4,402500	0,1	1,230041
4,404167	0,1	1,257196
4,405833	0,1	1,195391
4,407500	0,1	1,225482
4,409167	0,1	1,202915
4,410833	0,1	1,217970
4,412500	0,1	1,157855
4,414167	0,1	1,213437
4,415833	0,1	1,223601
4,417500	0,1	1,181156
4,419167	0,1	1,156669
4,420833	0,1	1,119406
4,422500	0,1	1,165581
4,424167	0,1	1,146369
4,425833	0,1	1,146260
4,427500	0,1	1,104127
4,429167	0,1	1,113669
4,430833	0,1	1,151371
4,432500	0,1	1,113883
4,434167	0,1	1,082720
4,435833	0,1	1,064294
4,437500	0,1	1,108185
4,439167	0,1	1,056484
4,440833	0,1	1,016396
4,442500	0,1	1,067951
4,444167	0,1	1,078537
4,445833	0,1	1,054984
4,447500	0,1	1,022540
4,449167	0,1	1,017232
4,450833	0,1	1,004318
4,452500	0,1	1,014000
4,454167	0,1	1,048291
4,455833	0,1	1,012672
4,457500	0,1	0,976866
4,459167	0,1	0,976168
4,460833	0,1	0,960228
4,462500	0,1	0,998494
4,464167	0,1	0,959676
4,465833	0,1	0,958666
4,467500	0,1	0,950340
4,469167	0,1	0,947977
4,470833	0,1	0,957617
4,472500	0,1	0,935580
4,474167	0,1	0,948531
4,475833	0,1	0,928767
4,477500	0,1	0,886647
4,479167	0,1	0,937590
4,480833	0,1	0,916322
4,482500	0,1	0,915246
4,484167	0,1	0,894722
4,485833	0,1	0,873663
4,487500	0,1	0,862703
4,489167	0,1	0,858165
4,490833	0,1	0,883849
4,492500	0,1	0,866206
4,494167	0,1	0,859854
4,495833	0,1	0,816147
4,497500	0,1	0,832668
4,499167	0,1	0,817248
4,500833	0,1	0,804469
4,502500	0,1	0,775716
4,504167	0,1	0,843051
4,505833	0,1	0,844854
4,507500	0,1	0,794333
4,509167	0,1	0,795837
4,510833	0,1	0,781033
4,512500	0,1	0,766794
4,514167	0,1	0,761524
4,515833	0,1	0,790087
4,517500	0,1	0,806425
4,519167	0,1	0,743386
4,520833	0,1	0,750337
4,522500	0,1	0,762270
4,524167	0,1	0,710438
4,525833	0,1	0,746864
4,527500	0,1	0,746334
4,529167	0,1	0,761201
4,530833	0,1	0,747813
4,532500	0,1	0,734338
4,534167	0,1	0,707971
4,535833	0,1	0,697707
4,537500	0,1	0,726291
4,539167	0,1	0,738849
4,540833	0,1	0,670747
4,542500	0,1	0,670141
4,544167	0,1	0,687167
4,545833	0,1	0,669539
4,547500	0,1	0,694657
4,549167	0,1	0,661734
4,550833	0,1	0,663557
4,552500	0,1	0,692272
4,554167	0,1	0,691437
4,555833	0,1	0,661124
4,557500	0,1	0,667241
4,559167	0,1	0,661239
4,560833	0,1	0,647307
4,562500	0,1	0,636178
4,564167	0,1	0,632754
4,565833	0,1	0,620655
4,567500	0,1	0,645296
4,569167	0,1	0,629109
4,570833	0,1	0,616690
4,572500	0,1	0,605134
4,574167	0,1	0,620425
4,575833	0,1	0,630197
4,577500	0,1	0,603302
4,579167	0,1	0,615878
4,580833	0,1	0,621419
4,582500	0,1	0,589016
4,584167	0,1	0,626806
4,585833	0,1	0,587110
4,587500	0,1	0,572525
4,589167	0,1	0,558363
4,590833	0,1	0,588675
4,592500	0,1	0,589197
4,594167	0,1	0,567657
4,595833	0,1	0,577647
4,597500	0,1	0,612220
4,599167	0,1	0,563051
4,600833	0,1	0,528952
4,602500	0,1	0,540744
4,604167	0,1	0,558904
4,605833	0,1	0,512665
4,607500	0,1	0,535969
4,609167	0,1	0,533590
4,610833	0,1	0,519274
4,612500	0,1	0,540806
4,614167	0,1	0,531945
4,615833	0,1	0,537134
4,617500	0,1	0,548709
4,619167	0,1	0,528207
4,620833	0,1	0,478060
4,622500	0,1	0,521124
4,624167	0,1	0,508269
4,625833	0,1	0,531515
4,627500	0,1	0,504242
4,629167	0,1	0,537222
4,630833	0,1	0,504953
4,632500	0,1	0,526873
4,634167	0,1	0,490183
4,635833	0,1	0,484143
4,637500	0,1	0,472340
4,639167	0,1	0,480527
4,640833	0,1	0,489656
4,642500	0,1	0,491558
4,644167	0,1	0,521481
4,645833	0,1	0,452650
4,647500	0,1	0,483716
4,649167	0,1	0,505650
4,650833	0,1	0,473152
4,652500	0,1	0,479882
4,654167	0,1	0,469566
4,655833	0,1	0,467629
4,657500	0,1	0,450669
4,659167	0,1	0,483681
4,660833	0,1	0,443258
4,662500	0,1	0,473525
4,664167	0,1	0,513997
4,665833	0,1	0,443329
4,667500	0,1	0,442572
4,669167	0,1	0,423904
4,670833	0,1	0,421805
4,672500	0,1	0,401330
4,674167	0,1	0,451685
4,675833	0,1	0,449634
4,677500	0,1	0,456567
4,679167	0,1	0,454278
4,680833	0,1	0,443380
4,682500	0,1	0,410169
4,684167	0,1	0,427120
4,685833	0,1	0,417323
4,687500	0,1	0,435924
4,689167	0,1	0,447149
4,690833	0,1	0,431836
4,692500	0,1	0,414101
4,694167	0,1	0,412613
4,695833	0,1	0,430087
4,697500	0,1	0,394886
4,699167	0,1	0,381758
4,700833	0,1	0,431304
4,702500	0,1	0,385828
4,704167	0,1	0,423568
4,705833	0,1	0,387405
4,707500	0,1	0,395840
4,709167	0,1	0,405743
4,710833	0,1	0,414157
4,712500	0,1	0,412548
4,714167	0,1	0,385853
4,715833	0,1	0,386622
4,717500	0,1	0,372503
4,719167	0,1	0,414378
4,720833	0,1	0,398687
4,722500	0,1	0,396037
4,724167	0,1	0,405131
4,725833	0,1	0,377472
4,727500	0,1	0,373113
4,729167	0,1	0,400740
4,730833	0,1	0,412482
4,732500	0,1	0,370639
4,734167	0,1	0,351707
4,735833	0,1	0,384873
4,737500	0,1	0,379337
4,739167	0,1	0,389523
4,740833	0,1	0,404032
4,742500	0,1	0,345686
4,744167	0,1	0,383809
4,745833	0,1	0,323281
4,747500	0,1	0,378030
4,749167	0,1	0,356414
4,750833	0,1	0,347900
4,752500	0,1	0,330525
4,754167	0,1	0,363238
4,755833	0,1	0,370402
4,757500	0,1	0,364088
4,759167	0,1	0,401834
4,760833	0,1	0,372250
4,762500	0,1	0,356250
4,764167	0,1	0,386712
4,765833	0,1	0,381529
4,767500	0,1	0,370567
4,769167	0,1	0,366147
4,770833	0,1	0,363215
4,772500	0,1	0,362990
4,774167	0,1	0,381847
4,775833	0,1	0,356419
4,777500	0,1	0,405992
4,779167	0,1	0,320708
4,780833	0,1	0,343639
4,782500	0,1	0,387321
4,784167	0,1	0,354903
4,785833	0,1	0,306833
4,787500	0,1	0,364362
4,789167	0,1	0,387521
4,790833	0,1	0,319542
4,792500	0,1	0,331935
4,794167	0,1	0,316722
4,795833	0,1	0,397278
4,797500	0,1	0,342300
4,799167	0,1	0,356118
4,800833	0,1	0,338907
4,802500	0,1	0,346222
4,804167	0,1	0,358566
4,805833	0,1	0,377782
4,807500	0,1	0,370797
4,809167	0,1	0,329817
4,810833	0,1	0,361465
4,812500	0,1	0,361892
4,814167	0,1	0,343357
4,815833	0,1	0,376848
4,817500	0,1	0,350227
4,819167	0,1	0,335069
4,820833	0,1	0,332102
4,822500	0,1	0,397120
4,824167	0,1	0,341915
4,825833	0,1	0,346576
4,827500	0,1	0,340519
4,829167	0,1	0,324821
4,830833	0,1	0,368911
4,832500	0,1	0,351547
4,834167	0,1	0,364016
4,835833	0,1	0,343969
4,837500	0,1	0,331652
4,839167	0,1	0,355407
4,840833	0,1	0,384552
4,842500	0,1	0,342265
4,844167	0,1	0,348446
4,845833	0,1	0,346224
4,847500	0,1	0,380396
4,849167	0,1	0,346845
4,850833	0,1	0,357601
4,852500	0,1	0,322019
4,854167	0,1	0,345282
4,855833	0,1	0,374427
4,857500	0,1	0,302939
4,859167	0,1	0,326096
4,860833	0,1	0,331776
4,862500	0,1	0,345896
4,864167	0,1	0,357636
4,865833	0,1	0,341394
4,867500	0,1	0,345322
4,869167	0,1	0,335553
4,870833	0,1	0,343287
4,872500	0,1	0,340578
4,874167	0,1	0,369980
4,875833	0,1	0,347903
4,877500	0,1	0,373689
4,879167	0,1	0,351324
4,880833	0,1	0,373591
4,882500	0,1	0,346647
4,884167	0,1	0,314083
4,885833	0,1	0,343509
4,887500	0,1	0,366529
4,889167	0,1	0,361281
4,890833	0,1	0,336197
4,892500	0,1	0,399733
4,894167	0,1	0,355390
4,895833	0,1	0,375462
4,897500	0,1	0,390908
4,899167	0,1	0,352101
4,900833	0,1	0,342741
4,902500	0,1	0,352955
4,904167	0,1	0,358631
4,905833	0,1	0,364086
4,907500	0,1	0,386165
4,909167	0,1	0,359544
4,910833	0,1	0,351093
4,912500	0,1	0,377328
4,914167	0,1	0,340586
4,915833	0,1	0,372010
4,917500	0,1	0,377076
4,919167	0,1	0,372176
4,920833	0,1	0,379883
4,922500	0,1	0,325114
4,924167	0,1	0,343733
4,925833	0,1	0,372364
4,927500	0,1	0,348548
4,929167	0,1	0,366210
4,930833	0,1	0,391422
4,932500	0,1	0,331500
4,934167	0,1	0,413789
4,935833	0,1	0,349720
4,937500	0,1	0,361889
4,939167	0,1	0,354381
4,940833	0,1	0,326300
4,942500	0,1	0,356887
4,944167	0,1	0,355444
4,945833	0,1	0,385877
4,947500	0,1	0,389009
4,949167	0,1	0,359481
4,950833	0,1	0,372948
4,952500	0,1	0,357510
4,954167	0,1	0,362501
4,955833	0,1	0,400932
4,957500	0,1	0,385724
4,959167	0,1	0,381175
4,960833	0,1	0,367924
4,962500	0,1	0,380077
4,964167	0,1	0,368924
4,965833	0,1	0,422113
4,967500	0,1	0,358328
4,969167	0,1	0,397962
4,970833	0,1	0,387979
4,972500	0,1	0,406257
4,974167	0,1	0,384789
4,975833	0,1	0,404193
4,977500	0,1	0,369123
4,979167	0,1	0,365795
4,980833	0,1	0,395708
4,982500	0,1	0,410416
4,984167	0,1	0,421607
4,985833	0,1	0,416870
4,987500	0,1	0,420609
4,989167	0,1	0,435053
4,990833	0,1	0,425419
4,992500	0,1	0,393050
4,994167	0,1	0,377338
4,995833	0,1	0,444135
4,997500	0,1	0,434350
4,999167	0,1	0,427899
5,000833	0,1	0,464815
5,002500	0,1	0,466888
5,004167	0,1	0,425328
5,005833	0,1	0,463719
5,007500	0,1	0,415624
5,009167	0,1	0,468390
5,010833	0,1	0,430100
5,012500	0,1	0,467652
5,014167	0,1	0,467598
5,015833	0,1	0,467405
5,017500	0,1	0,480913
5,019167	0,1	0,460314
5,020833	0,1	0,466371
5,022500	0,1	0,473660
5,024167	0,1	0,499166
5,025833	0,1	0,452547
5,027500	0,1	0,469529
5,029167	0,1	0,504775
5,030833	0,1	0,491403
5,032500	0,1	0,478245
5,034167	0,1	0,496521
5,035833	0,1	0,462413
5,037500	0,1	0,484945
5,039167	0,1	0,504102
5,040833	0,1	0,539671
5,042500	0,1	0,561869
5,044167	0,1	0,514922
5,045833	0,1	0,544903
5,047500	0,1	0,540877
5,049167	0,1	0,512178
5,050833	0,1	0,543742
5,052500	0,1	0,522627
5,054167	0,1	0,563355
5,055833	0,1	0,578520
5,057500	0,1	0,559303
5,059167	0,1	0,555650
5,060833	0,1	0,595516
5,062500	0,1	0,531378
5,064167	0,1	0,570998
5,065833	0,1	0,591612
5,067500	0,1	0,589263
5,069167	0,1	0,595328
5,070833	0,1	0,587974
5,072500	0,1	0,558177
5,074167	0,1	0,582615
5,075833	0,1	0,564495
5,077500	0,1	0,615385
5,079167	0,1	0,613331
5,080833	0,1	0,623391
5,082500	0,1	0,618494
5,084167	0,1	0,663716
5,085833	0,1	0,617083
5,087500	0,1	0,622978
5,089167	0,1	0,623720
5,090833	0,1	0,638911
5,092500	0,1	0,668404
5,094167	0,1	0,667730
5,095833	0,1	0,585938
5,097500	0,1	0,619971
5,099167	0,1	0,665390
5,100833	0,1	0,648990
5,102500	0,1	0,657112
5,104167	0,1	0,649083
5,105833	0,1	0,642883
5,107500	0,1	0,672175
5,109167	0,1	0,662082
5,110833	0,1	0,655471
5,112500	0,1	0,612020
5,114167	0,1	0,646192
5,115833	0,1	0,685779
5,117500	0,1	0,680890
5,119167	0,1	0,670668
5,120833	0,1	0,675538
5,122500	0,1	0,657736
5,124167	0,1	0,661948
5,125833	0,1	0,630469
5,127500	0,1	0,671301
5,129167	0,1	0,690207
5,130833	0,1	0,670250
5,132500	0,1	0,662605
5,134167	0,1	0,640154
5,135833	0,1	0,652174
5,137500	0,1	0,653111
5,139167	0,1	0,654794
5,140833	0,1	0,642855
5,142500	0,1	0,637459
5,144167	0,1	0,687563
5,145833	0,1	0,694056
5,147500	0,1	0,654804
5,149167	0,1	0,647371
5,150833	0,1	0,667630
5,152500	0,1	0,661183
5,154167	0,1	0,659145
5,155833	0,1	0,676656
5,157500	0,1	0,635026
5,159167	0,1	0,632528
5,160833	0,1	0,633072
5,162500	0,1	0,671658
5,164167	0,1	0,631472
5,165833	0,1	0,649012
5,167500	0,1	0,646558
5,169167	0,1	0,615947
5,170833	0,1	0,618173
5,172500	0,1	0,633583
5,174167	0,1	0,657744
5,175833	0,1	0,630917
5,177500	0,1	0,574027
5,179167	0,1	0,611263
5,180833	0,1	0,610750
5,182500	0,1	0,604008
5,184167	0,1	0,560246
5,185833	0,1	0,616897
5,187500	0,1	0,588246
5,189167	0,1	0,585752
5,190833	0,1	0,561596
5,192500	0,1	0,587197
5,194167	0,1	0,594717
5,195833	0,1	0,600229
5,197500	0,1	0,588974
5,199167	0,1	0,595713
5,200833	0,1	0,579942
5,202500	0,1	0,515026
5,204167	0,1	0,556094
5,205833	0,1	0,566874
5,207500	0,1	0,546136
5,209167	0,1	0,555522
5,210833	0,1	0,565009
5,212500	0,1	0,515568
5,214167	0,1	0,532035
5,215833	0,1	0,506469
5,217500	0,1	0,525804
5,219167	0,1	0,553067
5,220833	0,1	0,497993
5,222500	0,1	0,494302
5,224167	0,1	0,530099
5,225833	0,1	0,507855
5,227500	0,1	0,504304
5,229167	0,1	0,493016
5,230833	0,1	0,525581
5,232500	0,1	0,499888
5,234167	0,1	0,514068
5,235833	0,1	0,479249
5,237500	0,1	0,499524
5,239167	0,1	0,495109
5,240833	0,1	0,501074
5,242500	0,1	0,433976
5,244167	0,1	0,419356
5,245833	0,1	0,479418
5,247500	0,1	0,454059
5,249167	0,1	0,470399
5,250833	0,1	0,464276
5,252500	0,1	0,462374
5,254167	0,1	0,425296
5,255833	0,1	0,448629
5,257500	0,1	0,441606
5,259167	0,1	0,461142
5,260833	0,1	0,433516
5,262500	0,1	0,421322
5,264167	0,1	0,431153
5,265833	0,1	0,411391
5,267500	0,1	0,395524
5,269167	0,1	0,425731
5,270833	0,1	0,405782
5,272500	0,1	0,391785
5,274167	0,1	0,414800
5,275833	0,1	0,394270
5,277500	0,1	0,363382
5,279167	0,1	0,381106
5,280833	0,1	0,390781
5,282500	0,1	0,397584
5,284167	0,1	0,378760
5,285833	0,1	0,364508
5,287500	0,1	0,353605
5,289167	0,1	0,368370
5,290833	0,1	0,378659
5,292500	0,1	0,348490
5,294167	0,1	0,371461
5,295833	0,1	0,363636
5,297500	0,1	0,362409
5,299167	0,1	0,351966
5,300833	0,1	0,333652
5,302500	0,1	0,317303
5,304167	0,1	0,343543
5,305833	0,1	0,363694
5,307500	0,1	0,341232
5,309167	0,1	0,313373
5,310833	0,1	0,316526
5,312500	0,1	0,307502
5,314167	0,1	0,298347
5,315833	0,1	0,288031
5,317500	0,1	0,316973
5,319167	0,1	0,280529
5,320833	0,1	0,292314
5,322500	0,1	0,306690
5,324167	0,1	0,280916
5,325833	0,1	0,298858
5,327500	0,1	0,309304
5,329167	0,1	0,317525
5,330833	0,1	0,326526
5,332500	0,1	0,303770
5,334167	0,1	0,282104
5,335833	0,1	0,261146
5,337500	0,1	0,299568
5,339167	0,1	0,286232
5,340833	0,1	0,272014
5,342500	0,1	0,261961
5,344167	0,1	0,303110
5,345833	0,1	0,295959
5,347500	0,1	0,290998
5,349167	0,1	0,268763
5,350833	0,1	0,226757
5,352500	0,1	0,248115
5,354167	0,1	0,261629
5,355833	0,1	0,253762
5,357500	0,1	0,262402
5,359167	0,1	0,215443
5,360833	0,1	0,238308
5,362500	0,1	0,247701
5,364167	0,1	0,242738
5,365833	0,1	0,248699
5,367500	0,1	0,238134
5,369167	0,1	0,229718
5,370833	0,1	0,247254
5,372500	0,1	0,183444
5,374167	0,1	0,238991
5,375833	0,1	0,238395
5,377500	0,1	0,248218
5,379167	0,1	0,235330
5,380833	0,1	0,244541
5,382500	0,1	0,197277
5,384167	0,1	0,223199
5,385833	0,1	0,194430
5,387500	0,1	0,213595
5,389167	0,1	0,227814
5,390833	0,1	0,231141
5,392500	0,1	0,168390
5,394167	0,1	0,220459
5,395833	0,1	0,227081
5,397500	0,1	0,252961
5,399167	0,1	0,249355
5,400833	0,1	0,239198
5,402500	0,1	0,217346
5,404167	0,1	0,182487
5,405833	0,1	0,220907
5,407500	0,1	0,188277
5,409167	0,1	0,216498
5,410833	0,1	0,169588
5,412500	0,1	0,193583
5,414167	0,1	0,185401
5,415833	0,1	0,184818
5,417500	0,1	0,160064
5,419167	0,1	0,211853
5,420833	0,1	0,156698
5,422500	0,1	0,196221
5,424167	0,1	0,167737
5,425833	0,1	0,181239
5,427500	0,1	0,150284
5,429167	0,1	0,160032
5,430833	0,1	0,175564
5,432500	0,1	0,164510
5,434167	0,1	0,160743
5,435833	0,1	0,200923
5,437500	0,1	0,168458
5,439167	0,1	0,105076
5,440833	0,1	0,150418
5,442500	0,1	0,150339
5,444167	0,1	0,119373
5,445833	0,1	0,136017
5,447500	0,1	0,136602
5,449167	0,1	0,149300
5,450833	0,1	0,146815
5,452500	0,1	0,157706
5,454167	0,1	0,185012
5,455833	0,1	0,121919
5,457500	0,1	0,138887
5,459167	0,1	0,158322
5,460833	0,1	0,107966
5,462500	0,1	0,104503
5,464167	0,1	0,181260
5,465833	0,1	0,108175
5,467500	0,1	0,101307
5,469167	0,1	0,131212
5,470833	0,1	0,130612
5,472500	0,1	0,149338
5,474167	0,1	0,152336
5,475833	0,1	0,138223
5,477500	0,1	0,127229
5,479167	0,1	0,099102
5,480833	0,1	0,162862
5,482500	0,1	0,116218
5,484167	0,1	0,133478
5,485833	0,1	0,130991
5,487500	0,1	0,102387
5,489167	0,1	0,108824
5,490833	0,1	0,125162
5,492500	0,1	0,134187
5,494167	0,1	0,107354
5,495833	0,1	0,109698
5,497500	0,1	0,102485
5,499167	0,1	0,121876
5,500833	0,1	0,089539
5,502500	0,1	0,099485
5,504167	0,1	0,108926
5,505833	0,1	0,131643
5,507500	0,1	0,083058
5,509167	0,1	0,100946
5,510833	0,1	0,113081
5,512500	0,1	0,093969
5,514167	0,1	0,103896
5,515833	0,1	0,110050
5,517500	0,1	0,076673
5,519167	0,1	0,087492
5,520833	0,1	0,086105
5,522500	0,1	0,091778
5,524167	0,1	0,100218
5,525833	0,1	0,080159
5,527500	0,1	0,082426
5,529167	0,1	0,104804
5,530833	0,1	0,100677
5,532500	0,1	0,107864
5,534167	0,1	0,065744
5,535833	0,1	0,077661
5,537500	0,1	0,089488
5,539167	0,1	0,093875
5,540833	0,1	0,074422
5,542500	0,1	0,138496
5,544167	0,1	0,102366
5,545833	0,1	0,096141
5,547500	0,1	0,102694
5,549167	0,1	0,101258
5,550833	0,1	0,098806
5,552500	0,1	0,113247
5,554167	0,1	0,086441
5,555833	0,1	0,080407
5,557500	0,1	0,083793
5,559167	0,1	0,048444
5,560833	0,1	0,074892
5,562500	0,1	0,077287
5,564167	0,1	0,091547
5,565833	0,1	0,079286
5,567500	0,1	0,091940
5,569167	0,1	0,094608
5,570833	0,1	0,076961
5,572500	0,1	0,080634
5,574167	0,1	0,070327
5,575833	0,1	0,063614
5,577500	0,1	0,073315
5,579167	0,1	0,081441
5,580833	0,1	0,103970
5,582500	0,1	0,053707
5,584167	0,1	0,105338
5,585833	0,1	0,065138
5,587500	0,1	0,107855
5,589167	0,1	0,118175
5,590833	0,1	0,034029
5,592500	0,1	0,096124
5,594167	0,1	0,081990
5,595833	0,1	0,090425
5,597500	0,1	0,089114
5,599167	0,1	0,067146
5,600833	0,1	0,054092
5,602500	0,1	0,068284
5,604167	0,1	0,072115
5,605833	0,1	0,045450
5,607500	0,1	0,113712
5,609167	0,1	0,062022
5,610833	0,1	0,058521
5,612500	0,1	0,095753
5,614167	0,1	0,082594
5,615833	0,1	0,075277
5,617500	0,1	0,059913
5,619167	0,1	0,114297
5,620833	0,1	0,081995
5,622500	0,1	0,046654
5,624167	0,1	0,061299
5,625833	0,1	0,076661
5,627500	0,1	0,060495
5,629167	0,1	0,094160
5,630833	0,1	0,049296
5,632500	0,1	0,093284
5,634167	0,1	0,083859
5,635833	0,1	0,074649
5,637500	0,1	0,078386
5,639167	0,1	0,069139
5,640833	0,1	0,087468
5,642500	0,1	0,103109
5,644167	0,1	0,077875
5,645833	0,1	0,107443
5,647500	0,1	0,081852
5,649167	0,1	0,073382
5,650833	0,1	0,051680
5,652500	0,1	0,086568
5,654167	0,1	0,104121
5,655833	0,1	0,080515
5,657500	0,1	0,062697
5,659167	0,1	0,054609
5,660833	0,1	0,064481
5,662500	0,1	0,056793
5,664167	0,1	0,091723
5,665833	0,1	0,063949
5,667500	0,1	0,092621
5,669167	0,1	0,070886
5,670833	0,1	0,060016
5,672500	0,1	0,074791
5,674167	0,1	0,087759
5,675833	0,1	0,070036
5,677500	0,1	0,071927
5,679167	0,1	0,058272
5,680833	0,1	0,072669
5,682500	0,1	0,110334
5,684167	0,1	0,066632
5,685833	0,1	0,053761
5,687500	0,1	0,079544
5,689167	0,1	0,079447
5,690833	0,1	0,076313
5,692500	0,1	0,064879
5,694167	0,1	0,097005
5,695833	0,1	0,092299
5,697500	0,1	0,074651
5,699167	0,1	0,078449
5,700833	0,1	0,099319
5,702500	0,1	0,079995
5,704167	0,1	0,079306
5,705833	0,1	0,065776
5,707500	0,1	0,097446
5,709167	0,1	0,136151
5,710833	0,1	0,114559
5,712500	0,1	0,115018
5,714167	0,1	0,114728
5,715833	0,1	0,102675
5,717500	0,1	0,053439
5,719167	0,1	0,105542
5,720833	0,1	0,076546
5,722500	0,1	0,068682
5,724167	0,1	0,092848
5,725833	0,1	0,076543
5,727500	0,1	0,099090
5,729167	0,1	0,080765
5,730833	0,1	0,088907
5,732500	0,1	0,045203
5,734167	0,1	0,067097
5,735833	0,1	0,120679
5,737500	0,1	0,129195
5,739167	0,1	0,062378
5,740833	0,1	0,111620
5,742500	0,1	0,105126
5,744167	0,1	0,099844
5,745833	0,1	0,138376
5,747500	0,1	0,099497
5,749167	0,1	0,107700
5,750833	0,1	0,107599
5,752500	0,1	0,085630
5,754167	0,1	0,077996
5,755833	0,1	0,072925
5,757500	0,1	0,093834
5,759167	0,1	0,095354
5,760833	0,1	0,076899
5,762500	0,1	0,100252
5,764167	0,1	0,099865
5,765833	0,1	0,112792
5,767500	0,1	0,125114
5,769167	0,1	0,068263
5,770833	0,1	0,084017
5,772500	0,1	0,101127
5,774167	0,1	0,133182
5,775833	0,1	0,090375
5,777500	0,1	0,093938
5,779167	0,1	0,116656
5,780833	0,1	0,089412
5,782500	0,1	0,101733
5,784167	0,1	0,055473
5,785833	0,1	0,129823
5,787500	0,1	0,095377
5,789167	0,1	0,094483
5,790833	0,1	0,086107
5,792500	0,1	0,078373
5,794167	0,1	0,119104
5,795833	0,1	0,108702
5,797500	0,1	0,068652
5,799167	0,1	0,112366
5,800833	0,1	0,105630
5,802500	0,1	0,087210
5,804167	0,1	0,075567
5,805833	0,1	0,068141
5,807500	0,1	0,077646
5,809167	0,1	0,110702
5,810833	0,1	0,081309
5,812500	0,1	0,095391
5,814167	0,1	0,105411
5,815833	0,1	0,107536
5,817500	0,1	0,105996
5,819167	0,1	0,132718
5,820833	0,1	0,067784
5,822500	0,1	0,118935
5,824167	0,1	0,080707
5,825833	0,1	0,111121
5,827500	0,1	0,085734
5,829167	0,1	0,096577
5,830833	0,1	0,114950
5,832500	0,1	0,069980
5,834167	0,1	0,077458
5,835833	0,1	0,111953
5,837500	0,1	0,045334
5,839167	0,1	0,081105
5,840833	0,1	0,124738
5,842500	0,1	0,073621
5,844167	0,1	0,076438
5,845833	0,1	0,116526
5,847500	0,1	0,086442
5,849167	0,1	0,067688
5,850833	0,1	0,072232
5,852500	0,1	0,093126
5,854167	0,1	0,049508
5,855833	0,1	0,076800
5,857500	0,1	0,050894
5,859167	0,1	0,082284
5,860833	0,1	0,094873
5,862500	0,1	0,087371
5,864167	0,1	0,075960
5,865833	0,1	0,022965
5,867500	0,1	0,057449
5,869167	0,1	0,113982
5,870833	0,1	0,087023
5,872500	0,1	0,079081
5,874167	0,1	0,077703
5,875833	0,1	0,063365
5,877500	0,1	0,081857
5,879167	0,1	0,081820
5,880833	0,1	0,070657
5,882500	0,1	0,039839
5,884167	0,1	0,111386
5,885833	0,1	0,069712
5,887500	0,1	0,043266
5,889167	0,1	0,065783
5,890833	0,1	0,079428
5,892500	0,1	0,093065
5,894167	0,1	0,045016
5,895833	0,1	0,088773
5,897500	0,1	0,048320
5,899167	0,1	0,091351
5,900833	0,1	0,090528
5,902500	0,1	0,049776
5,904167	0,1	0,092821
5,905833	0,1	0,059336
5,907500	0,1	0,058370
5,909167	0,1	0,105465
5,910833	0,1	0,082652
5,912500	0,1	0,066751
5,914167	0,1	0,071282
5,915833	0,1	0,035079
5,917500	0,1	0,071454
5,919167	0,1	0,054508
5,920833	0,1	0,052132
5,922500	0,1	0,112606
5,924167	0,1	0,049844
5,925833	0,1	0,049640
5,927500	0,1	0,055313
5,929167	0,1	0,062196
5,930833	0,1	0,052802
5,932500	0,1	0,038272
5,934167	0,1	0,038623
5,935833	0,1	0,044585
5,937500	0,1	0,052342
5,939167	0,1	0,024266
5,940833	0,1	-0,016365
5,942500	0,1	0,067789
5,944167	0,1	0,039359
5,945833	0,1	0,052985
5,947500	0,1	0,049931
5,949167	0,1	0,031996
5,950833	0,1	0,012562
5,952500	0,1	0,022139
5,954167	0,1	0,024635
5,955833	0,1	-0,007136
5,957500	0,1	0,045988
5,959167	0,1	0,020233
5,960833	0,1	0,021807
5,962500	0,1	-0,002233
5,964167	0,1	-0,006396
5,965833	0,1	0,042603
5,967500	0,1	0,021419
5,969167	0,1	0,024843
5,970833	0,1	-0,000198
5,972500	0,1	0,025107
5,974167	0,1	0,055141
5,975833	0,1	0,029629
5,977500	0,1	0,043712
5,979167	0,1	0,015141
5,980833	0,1	0,036393
5,982500	0,1	-0,001503
5,984167	0,1	0,047027
5,985833	0,1	0,056538
5,987500	0,1	0,008601
5,989167	0,1	0,034563
5,990833	0,1	0,017364
5,992500	0,1	0,005890
5,994167	0,1	-0,005875
5,995833	0,1	0,011596
5,997500	0,1	0,040007
5,999167	0,1	-0,011540
6,000833	0,1	0,015689
